Created as New Dataset,Sample 026 By Administrator Date Wednesday, September 03 2025
cm-1,A
4000.00,0.0017
3999.00,0.0017
3998.00,0.0017
3997.00,0.0017
3996.00,0.0017
3995.00,0.0017
3994.00,0.0017
3993.00,0.0017
3992.00,0.0018
3991.00,0.0018
3990.00,0.0018
3989.00,0.0017
3988.00,0.0017
3987.00,0.0017
3986.00,0.0017
3985.00,0.0017
3984.00,0.0017
3983.00,0.0016
3982.00,0.0017
3981.00,0.0017
3980.00,0.0017
3979.00,0.0017
3978.00,0.0017
3977.00,0.0017
3976.00,0.0017
3975.00,0.0016
3974.00,0.0016
3973.00,0.0015
3972.00,0.0015
3971.00,0.0015
3970.00,0.0016
3969.00,0.0016
3968.00,0.0016
3967.00,0.0016
3966.00,0.0016
3965.00,0.0016
3964.00,0.0016
3963.00,0.0016
3962.00,0.0016
3961.00,0.0016
3960.00,0.0015
3959.00,0.0015
3958.00,0.0016
3957.00,0.0016
3956.00,0.0016
3955.00,0.0016
3954.00,0.0016
3953.00,0.0016
3952.00,0.0016
3951.00,0.0016
3950.00,0.0016
3949.00,0.0016
3948.00,0.0016
3947.00,0.0016
3946.00,0.0016
3945.00,0.0016
3944.00,0.0016
3943.00,0.0016
3942.00,0.0017
3941.00,0.0017
3940.00,0.0016
3939.00,0.0016
3938.00,0.0016
3937.00,0.0016
3936.00,0.0016
3935.00,0.0017
3934.00,0.0017
3933.00,0.0017
3932.00,0.0017
3931.00,0.0017
3930.00,0.0017
3929.00,0.0016
3928.00,0.0016
3927.00,0.0017
3926.00,0.0017
3925.00,0.0017
3924.00,0.0018
3923.00,0.0017
3922.00,0.0017
3921.00,0.0017
3920.00,0.0017
3919.00,0.0017
3918.00,0.0017
3917.00,0.0017
3916.00,0.0017
3915.00,0.0017
3914.00,0.0017
3913.00,0.0017
3912.00,0.0017
3911.00,0.0016
3910.00,0.0016
3909.00,0.0016
3908.00,0.0016
3907.00,0.0016
3906.00,0.0016
3905.00,0.0016
3904.00,0.0017
3903.00,0.0017
3902.00,0.0016
3901.00,0.0016
3900.00,0.0016
3899.00,0.0017
3898.00,0.0017
3897.00,0.0017
3896.00,0.0017
3895.00,0.0016
3894.00,0.0016
3893.00,0.0015
3892.00,0.0015
3891.00,0.0016
3890.00,0.0016
3889.00,0.0015
3888.00,0.0015
3887.00,0.0015
3886.00,0.0016
3885.00,0.0016
3884.00,0.0016
3883.00,0.0016
3882.00,0.0016
3881.00,0.0016
3880.00,0.0016
3879.00,0.0016
3878.00,0.0016
3877.00,0.0016
3876.00,0.0016
3875.00,0.0016
3874.00,0.0016
3873.00,0.0016
3872.00,0.0016
3871.00,0.0016
3870.00,0.0016
3869.00,0.0016
3868.00,0.0015
3867.00,0.0015
3866.00,0.0015
3865.00,0.0015
3864.00,0.0015
3863.00,0.0015
3862.00,0.0015
3861.00,0.0015
3860.00,0.0016
3859.00,0.0016
3858.00,0.0016
3857.00,0.0016
3856.00,0.0016
3855.00,0.0015
3854.00,0.0015
3853.00,0.0015
3852.00,0.0014
3851.00,0.0015
3850.00,0.0015
3849.00,0.0015
3848.00,0.0015
3847.00,0.0015
3846.00,0.0015
3845.00,0.0015
3844.00,0.0015
3843.00,0.0015
3842.00,0.0015
3841.00,0.0015
3840.00,0.0014
3839.00,0.0015
3838.00,0.0015
3837.00,0.0015
3836.00,0.0015
3835.00,0.0015
3834.00,0.0015
3833.00,0.0015
3832.00,0.0015
3831.00,0.0015
3830.00,0.0015
3829.00,0.0015
3828.00,0.0015
3827.00,0.0015
3826.00,0.0015
3825.00,0.0016
3824.00,0.0015
3823.00,0.0015
3822.00,0.0014
3821.00,0.0014
3820.00,0.0014
3819.00,0.0014
3818.00,0.0014
3817.00,0.0014
3816.00,0.0015
3815.00,0.0015
3814.00,0.0016
3813.00,0.0016
3812.00,0.0016
3811.00,0.0016
3810.00,0.0016
3809.00,0.0016
3808.00,0.0015
3807.00,0.0015
3806.00,0.0014
3805.00,0.0014
3804.00,0.0014
3803.00,0.0014
3802.00,0.0014
3801.00,0.0015
3800.00,0.0015
3799.00,0.0014
3798.00,0.0014
3797.00,0.0014
3796.00,0.0014
3795.00,0.0014
3794.00,0.0015
3793.00,0.0015
3792.00,0.0015
3791.00,0.0016
3790.00,0.0016
3789.00,0.0016
3788.00,0.0016
3787.00,0.0016
3786.00,0.0016
3785.00,0.0015
3784.00,0.0015
3783.00,0.0014
3782.00,0.0014
3781.00,0.0014
3780.00,0.0014
3779.00,0.0015
3778.00,0.0015
3777.00,0.0016
3776.00,0.0016
3775.00,0.0016
3774.00,0.0016
3773.00,0.0016
3772.00,0.0016
3771.00,0.0016
3770.00,0.0016
3769.00,0.0015
3768.00,0.0015
3767.00,0.0015
3766.00,0.0016
3765.00,0.0016
3764.00,0.0016
3763.00,0.0016
3762.00,0.0015
3761.00,0.0015
3760.00,0.0015
3759.00,0.0015
3758.00,0.0015
3757.00,0.0015
3756.00,0.0015
3755.00,0.0015
3754.00,0.0015
3753.00,0.0015
3752.00,0.0015
3751.00,0.0015
3750.00,0.0015
3749.00,0.0015
3748.00,0.0014
3747.00,0.0014
3746.00,0.0014
3745.00,0.0014
3744.00,0.0015
3743.00,0.0015
3742.00,0.0015
3741.00,0.0015
3740.00,0.0015
3739.00,0.0014
3738.00,0.0014
3737.00,0.0014
3736.00,0.0014
3735.00,0.0014
3734.00,0.0014
3733.00,0.0014
3732.00,0.0014
3731.00,0.0014
3730.00,0.0015
3729.00,0.0015
3728.00,0.0016
3727.00,0.0016
3726.00,0.0016
3725.00,0.0016
3724.00,0.0016
3723.00,0.0015
3722.00,0.0015
3721.00,0.0014
3720.00,0.0013
3719.00,0.0013
3718.00,0.0013
3717.00,0.0014
3716.00,0.0014
3715.00,0.0014
3714.00,0.0014
3713.00,0.0014
3712.00,0.0013
3711.00,0.0013
3710.00,0.0012
3709.00,0.0012
3708.00,0.0013
3707.00,0.0013
3706.00,0.0014
3705.00,0.0014
3704.00,0.0014
3703.00,0.0014
3702.00,0.0015
3701.00,0.0016
3700.00,0.0016
3699.00,0.0016
3698.00,0.0016
3697.00,0.0016
3696.00,0.0016
3695.00,0.0016
3694.00,0.0016
3693.00,0.0015
3692.00,0.0015
3691.00,0.0015
3690.00,0.0016
3689.00,0.0016
3688.00,0.0017
3687.00,0.0017
3686.00,0.0018
3685.00,0.0018
3684.00,0.0019
3683.00,0.0020
3682.00,0.0021
3681.00,0.0022
3680.00,0.0023
3679.00,0.0023
3678.00,0.0024
3677.00,0.0024
3676.00,0.0025
3675.00,0.0026
3674.00,0.0027
3673.00,0.0027
3672.00,0.0028
3671.00,0.0028
3670.00,0.0029
3669.00,0.0029
3668.00,0.0029
3667.00,0.0029
3666.00,0.0029
3665.00,0.0030
3664.00,0.0030
3663.00,0.0031
3662.00,0.0031
3661.00,0.0032
3660.00,0.0032
3659.00,0.0032
3658.00,0.0032
3657.00,0.0032
3656.00,0.0032
3655.00,0.0032
3654.00,0.0032
3653.00,0.0031
3652.00,0.0031
3651.00,0.0031
3650.00,0.0031
3649.00,0.0030
3648.00,0.0030
3647.00,0.0030
3646.00,0.0030
3645.00,0.0030
3644.00,0.0030
3643.00,0.0029
3642.00,0.0029
3641.00,0.0029
3640.00,0.0029
3639.00,0.0029
3638.00,0.0029
3637.00,0.0029
3636.00,0.0028
3635.00,0.0027
3634.00,0.0025
3633.00,0.0024
3632.00,0.0023
3631.00,0.0023
3630.00,0.0023
3629.00,0.0023
3628.00,0.0023
3627.00,0.0023
3626.00,0.0023
3625.00,0.0023
3624.00,0.0023
3623.00,0.0023
3622.00,0.0023
3621.00,0.0023
3620.00,0.0023
3619.00,0.0023
3618.00,0.0023
3617.00,0.0023
3616.00,0.0023
3615.00,0.0023
3614.00,0.0023
3613.00,0.0024
3612.00,0.0024
3611.00,0.0024
3610.00,0.0024
3609.00,0.0024
3608.00,0.0024
3607.00,0.0024
3606.00,0.0025
3605.00,0.0025
3604.00,0.0025
3603.00,0.0026
3602.00,0.0026
3601.00,0.0026
3600.00,0.0026
3599.00,0.0026
3598.00,0.0026
3597.00,0.0027
3596.00,0.0027
3595.00,0.0027
3594.00,0.0027
3593.00,0.0027
3592.00,0.0026
3591.00,0.0026
3590.00,0.0027
3589.00,0.0027
3588.00,0.0028
3587.00,0.0029
3586.00,0.0029
3585.00,0.0029
3584.00,0.0030
3583.00,0.0030
3582.00,0.0030
3581.00,0.0030
3580.00,0.0030
3579.00,0.0030
3578.00,0.0030
3577.00,0.0031
3576.00,0.0031
3575.00,0.0032
3574.00,0.0032
3573.00,0.0033
3572.00,0.0033
3571.00,0.0033
3570.00,0.0034
3569.00,0.0034
3568.00,0.0035
3567.00,0.0035
3566.00,0.0035
3565.00,0.0035
3564.00,0.0035
3563.00,0.0035
3562.00,0.0036
3561.00,0.0036
3560.00,0.0037
3559.00,0.0037
3558.00,0.0037
3557.00,0.0037
3556.00,0.0037
3555.00,0.0037
3554.00,0.0037
3553.00,0.0038
3552.00,0.0038
3551.00,0.0039
3550.00,0.0039
3549.00,0.0039
3548.00,0.0040
3547.00,0.0040
3546.00,0.0041
3545.00,0.0041
3544.00,0.0041
3543.00,0.0040
3542.00,0.0040
3541.00,0.0040
3540.00,0.0040
3539.00,0.0040
3538.00,0.0040
3537.00,0.0040
3536.00,0.0041
3535.00,0.0041
3534.00,0.0041
3533.00,0.0041
3532.00,0.0041
3531.00,0.0041
3530.00,0.0041
3529.00,0.0041
3528.00,0.0041
3527.00,0.0042
3526.00,0.0042
3525.00,0.0043
3524.00,0.0043
3523.00,0.0043
3522.00,0.0043
3521.00,0.0043
3520.00,0.0043
3519.00,0.0043
3518.00,0.0043
3517.00,0.0043
3516.00,0.0043
3515.00,0.0044
3514.00,0.0044
3513.00,0.0044
3512.00,0.0044
3511.00,0.0045
3510.00,0.0045
3509.00,0.0045
3508.00,0.0045
3507.00,0.0045
3506.00,0.0046
3505.00,0.0046
3504.00,0.0047
3503.00,0.0047
3502.00,0.0047
3501.00,0.0047
3500.00,0.0047
3499.00,0.0047
3498.00,0.0048
3497.00,0.0048
3496.00,0.0048
3495.00,0.0048
3494.00,0.0048
3493.00,0.0048
3492.00,0.0049
3491.00,0.0049
3490.00,0.0050
3489.00,0.0050
3488.00,0.0050
3487.00,0.0050
3486.00,0.0050
3485.00,0.0050
3484.00,0.0051
3483.00,0.0051
3482.00,0.0051
3481.00,0.0051
3480.00,0.0051
3479.00,0.0051
3478.00,0.0051
3477.00,0.0052
3476.00,0.0052
3475.00,0.0052
3474.00,0.0052
3473.00,0.0052
3472.00,0.0052
3471.00,0.0052
3470.00,0.0053
3469.00,0.0054
3468.00,0.0055
3467.00,0.0055
3466.00,0.0055
3465.00,0.0055
3464.00,0.0055
3463.00,0.0055
3462.00,0.0056
3461.00,0.0056
3460.00,0.0056
3459.00,0.0056
3458.00,0.0056
3457.00,0.0057
3456.00,0.0057
3455.00,0.0058
3454.00,0.0057
3453.00,0.0057
3452.00,0.0057
3451.00,0.0057
3450.00,0.0058
3449.00,0.0059
3448.00,0.0059
3447.00,0.0059
3446.00,0.0059
3445.00,0.0059
3444.00,0.0059
3443.00,0.0059
3442.00,0.0059
3441.00,0.0059
3440.00,0.0060
3439.00,0.0060
3438.00,0.0060
3437.00,0.0061
3436.00,0.0061
3435.00,0.0062
3434.00,0.0062
3433.00,0.0062
3432.00,0.0062
3431.00,0.0062
3430.00,0.0062
3429.00,0.0062
3428.00,0.0062
3427.00,0.0062
3426.00,0.0062
3425.00,0.0062
3424.00,0.0062
3423.00,0.0062
3422.00,0.0062
3421.00,0.0062
3420.00,0.0063
3419.00,0.0063
3418.00,0.0064
3417.00,0.0064
3416.00,0.0064
3415.00,0.0064
3414.00,0.0064
3413.00,0.0064
3412.00,0.0064
3411.00,0.0065
3410.00,0.0065
3409.00,0.0065
3408.00,0.0065
3407.00,0.0065
3406.00,0.0065
3405.00,0.0065
3404.00,0.0065
3403.00,0.0065
3402.00,0.0065
3401.00,0.0065
3400.00,0.0066
3399.00,0.0066
3398.00,0.0066
3397.00,0.0066
3396.00,0.0066
3395.00,0.0066
3394.00,0.0066
3393.00,0.0066
3392.00,0.0066
3391.00,0.0065
3390.00,0.0066
3389.00,0.0066
3388.00,0.0066
3387.00,0.0066
3386.00,0.0066
3385.00,0.0066
3384.00,0.0066
3383.00,0.0066
3382.00,0.0067
3381.00,0.0067
3380.00,0.0067
3379.00,0.0067
3378.00,0.0067
3377.00,0.0067
3376.00,0.0067
3375.00,0.0068
3374.00,0.0068
3373.00,0.0068
3372.00,0.0068
3371.00,0.0068
3370.00,0.0068
3369.00,0.0068
3368.00,0.0068
3367.00,0.0068
3366.00,0.0068
3365.00,0.0067
3364.00,0.0067
3363.00,0.0068
3362.00,0.0068
3361.00,0.0068
3360.00,0.0069
3359.00,0.0069
3358.00,0.0069
3357.00,0.0069
3356.00,0.0069
3355.00,0.0069
3354.00,0.0068
3353.00,0.0069
3352.00,0.0069
3351.00,0.0069
3350.00,0.0070
3349.00,0.0070
3348.00,0.0070
3347.00,0.0070
3346.00,0.0070
3345.00,0.0070
3344.00,0.0069
3343.00,0.0069
3342.00,0.0069
3341.00,0.0068
3340.00,0.0068
3339.00,0.0069
3338.00,0.0069
3337.00,0.0069
3336.00,0.0069
3335.00,0.0068
3334.00,0.0068
3333.00,0.0068
3332.00,0.0068
3331.00,0.0068
3330.00,0.0068
3329.00,0.0068
3328.00,0.0068
3327.00,0.0069
3326.00,0.0069
3325.00,0.0069
3324.00,0.0068
3323.00,0.0068
3322.00,0.0067
3321.00,0.0067
3320.00,0.0067
3319.00,0.0067
3318.00,0.0067
3317.00,0.0067
3316.00,0.0067
3315.00,0.0068
3314.00,0.0068
3313.00,0.0067
3312.00,0.0067
3311.00,0.0067
3310.00,0.0066
3309.00,0.0066
3308.00,0.0067
3307.00,0.0067
3306.00,0.0067
3305.00,0.0067
3304.00,0.0067
3303.00,0.0067
3302.00,0.0067
3301.00,0.0067
3300.00,0.0068
3299.00,0.0068
3298.00,0.0067
3297.00,0.0067
3296.00,0.0067
3295.00,0.0067
3294.00,0.0067
3293.00,0.0067
3292.00,0.0067
3291.00,0.0066
3290.00,0.0066
3289.00,0.0066
3288.00,0.0066
3287.00,0.0066
3286.00,0.0066
3285.00,0.0065
3284.00,0.0065
3283.00,0.0065
3282.00,0.0064
3281.00,0.0064
3280.00,0.0064
3279.00,0.0063
3278.00,0.0063
3277.00,0.0063
3276.00,0.0063
3275.00,0.0063
3274.00,0.0063
3273.00,0.0063
3272.00,0.0063
3271.00,0.0062
3270.00,0.0062
3269.00,0.0061
3268.00,0.0061
3267.00,0.0061
3266.00,0.0061
3265.00,0.0061
3264.00,0.0061
3263.00,0.0061
3262.00,0.0061
3261.00,0.0061
3260.00,0.0061
3259.00,0.0060
3258.00,0.0060
3257.00,0.0060
3256.00,0.0060
3255.00,0.0059
3254.00,0.0059
3253.00,0.0060
3252.00,0.0060
3251.00,0.0060
3250.00,0.0060
3249.00,0.0060
3248.00,0.0060
3247.00,0.0060
3246.00,0.0059
3245.00,0.0059
3244.00,0.0058
3243.00,0.0058
3242.00,0.0057
3241.00,0.0058
3240.00,0.0058
3239.00,0.0058
3238.00,0.0059
3237.00,0.0059
3236.00,0.0059
3235.00,0.0058
3234.00,0.0058
3233.00,0.0059
3232.00,0.0059
3231.00,0.0059
3230.00,0.0059
3229.00,0.0059
3228.00,0.0059
3227.00,0.0059
3226.00,0.0059
3225.00,0.0059
3224.00,0.0060
3223.00,0.0060
3222.00,0.0060
3221.00,0.0059
3220.00,0.0059
3219.00,0.0059
3218.00,0.0060
3217.00,0.0060
3216.00,0.0061
3215.00,0.0061
3214.00,0.0062
3213.00,0.0062
3212.00,0.0062
3211.00,0.0062
3210.00,0.0062
3209.00,0.0062
3208.00,0.0062
3207.00,0.0061
3206.00,0.0061
3205.00,0.0061
3204.00,0.0061
3203.00,0.0062
3202.00,0.0062
3201.00,0.0063
3200.00,0.0063
3199.00,0.0062
3198.00,0.0062
3197.00,0.0062
3196.00,0.0061
3195.00,0.0061
3194.00,0.0061
3193.00,0.0061
3192.00,0.0061
3191.00,0.0061
3190.00,0.0060
3189.00,0.0060
3188.00,0.0059
3187.00,0.0059
3186.00,0.0059
3185.00,0.0059
3184.00,0.0058
3183.00,0.0058
3182.00,0.0058
3181.00,0.0058
3180.00,0.0058
3179.00,0.0058
3178.00,0.0058
3177.00,0.0058
3176.00,0.0057
3175.00,0.0057
3174.00,0.0056
3173.00,0.0056
3172.00,0.0056
3171.00,0.0056
3170.00,0.0056
3169.00,0.0055
3168.00,0.0055
3167.00,0.0055
3166.00,0.0055
3165.00,0.0055
3164.00,0.0055
3163.00,0.0055
3162.00,0.0055
3161.00,0.0054
3160.00,0.0054
3159.00,0.0054
3158.00,0.0054
3157.00,0.0054
3156.00,0.0054
3155.00,0.0054
3154.00,0.0053
3153.00,0.0053
3152.00,0.0053
3151.00,0.0053
3150.00,0.0053
3149.00,0.0054
3148.00,0.0054
3147.00,0.0054
3146.00,0.0053
3145.00,0.0053
3144.00,0.0053
3143.00,0.0053
3142.00,0.0053
3141.00,0.0052
3140.00,0.0052
3139.00,0.0052
3138.00,0.0051
3137.00,0.0051
3136.00,0.0051
3135.00,0.0050
3134.00,0.0050
3133.00,0.0049
3132.00,0.0049
3131.00,0.0049
3130.00,0.0050
3129.00,0.0050
3128.00,0.0050
3127.00,0.0049
3126.00,0.0049
3125.00,0.0048
3124.00,0.0048
3123.00,0.0048
3122.00,0.0048
3121.00,0.0048
3120.00,0.0048
3119.00,0.0048
3118.00,0.0047
3117.00,0.0047
3116.00,0.0047
3115.00,0.0047
3114.00,0.0047
3113.00,0.0046
3112.00,0.0046
3111.00,0.0046
3110.00,0.0046
3109.00,0.0046
3108.00,0.0046
3107.00,0.0046
3106.00,0.0046
3105.00,0.0046
3104.00,0.0046
3103.00,0.0046
3102.00,0.0046
3101.00,0.0046
3100.00,0.0046
3099.00,0.0046
3098.00,0.0046
3097.00,0.0046
3096.00,0.0046
3095.00,0.0047
3094.00,0.0047
3093.00,0.0046
3092.00,0.0046
3091.00,0.0045
3090.00,0.0045
3089.00,0.0045
3088.00,0.0046
3087.00,0.0046
3086.00,0.0046
3085.00,0.0045
3084.00,0.0045
3083.00,0.0045
3082.00,0.0045
3081.00,0.0046
3080.00,0.0046
3079.00,0.0046
3078.00,0.0046
3077.00,0.0045
3076.00,0.0045
3075.00,0.0045
3074.00,0.0046
3073.00,0.0046
3072.00,0.0045
3071.00,0.0045
3070.00,0.0045
3069.00,0.0045
3068.00,0.0045
3067.00,0.0045
3066.00,0.0046
3065.00,0.0046
3064.00,0.0046
3063.00,0.0047
3062.00,0.0047
3061.00,0.0047
3060.00,0.0047
3059.00,0.0047
3058.00,0.0047
3057.00,0.0047
3056.00,0.0047
3055.00,0.0048
3054.00,0.0048
3053.00,0.0049
3052.00,0.0049
3051.00,0.0049
3050.00,0.0049
3049.00,0.0049
3048.00,0.0049
3047.00,0.0049
3046.00,0.0049
3045.00,0.0050
3044.00,0.0050
3043.00,0.0050
3042.00,0.0050
3041.00,0.0050
3040.00,0.0051
3039.00,0.0051
3038.00,0.0051
3037.00,0.0052
3036.00,0.0052
3035.00,0.0053
3034.00,0.0053
3033.00,0.0053
3032.00,0.0053
3031.00,0.0053
3030.00,0.0054
3029.00,0.0054
3028.00,0.0055
3027.00,0.0055
3026.00,0.0056
3025.00,0.0057
3024.00,0.0059
3023.00,0.0060
3022.00,0.0061
3021.00,0.0062
3020.00,0.0063
3019.00,0.0064
3018.00,0.0066
3017.00,0.0068
3016.00,0.0070
3015.00,0.0073
3014.00,0.0076
3013.00,0.0079
3012.00,0.0083
3011.00,0.0087
3010.00,0.0092
3009.00,0.0097
3008.00,0.0102
3007.00,0.0108
3006.00,0.0114
3005.00,0.0120
3004.00,0.0127
3003.00,0.0133
3002.00,0.0140
3001.00,0.0146
3000.00,0.0153
2999.00,0.0159
2998.00,0.0165
2997.00,0.0172
2996.00,0.0178
2995.00,0.0184
2994.00,0.0191
2993.00,0.0198
2992.00,0.0205
2991.00,0.0212
2990.00,0.0220
2989.00,0.0229
2988.00,0.0240
2987.00,0.0253
2986.00,0.0270
2985.00,0.0291
2984.00,0.0317
2983.00,0.0344
2982.00,0.0368
2981.00,0.0387
2980.00,0.0402
2979.00,0.0416
2978.00,0.0433
2977.00,0.0455
2976.00,0.0483
2975.00,0.0517
2974.00,0.0560
2973.00,0.0610
2972.00,0.0665
2971.00,0.0725
2970.00,0.0790
2969.00,0.0860
2968.00,0.0938
2967.00,0.1024
2966.00,0.1118
2965.00,0.1217
2964.00,0.1317
2963.00,0.1415
2962.00,0.1506
2961.00,0.1585
2960.00,0.1649
2959.00,0.1697
2958.00,0.1731
2957.00,0.1755
2956.00,0.1775
2955.00,0.1795
2954.00,0.1816
2953.00,0.1837
2952.00,0.1851
2951.00,0.1850
2950.00,0.1829
2949.00,0.1781
2948.00,0.1707
2947.00,0.1611
2946.00,0.1502
2945.00,0.1391
2944.00,0.1287
2943.00,0.1200
2942.00,0.1132
2941.00,0.1086
2940.00,0.1060
2939.00,0.1053
2938.00,0.1064
2937.00,0.1091
2936.00,0.1132
2935.00,0.1187
2934.00,0.1253
2933.00,0.1329
2932.00,0.1413
2931.00,0.1504
2930.00,0.1600
2929.00,0.1696
2928.00,0.1792
2927.00,0.1885
2926.00,0.1974
2925.00,0.2060
2924.00,0.2143
2923.00,0.2224
2922.00,0.2303
2921.00,0.2376
2920.00,0.2439
2919.00,0.2485
2918.00,0.2504
2917.00,0.2493
2916.00,0.2450
2915.00,0.2381
2914.00,0.2295
2913.00,0.2203
2912.00,0.2116
2911.00,0.2038
2910.00,0.1971
2909.00,0.1913
2908.00,0.1862
2907.00,0.1813
2906.00,0.1763
2905.00,0.1711
2904.00,0.1656
2903.00,0.1598
2902.00,0.1539
2901.00,0.1479
2900.00,0.1420
2899.00,0.1363
2898.00,0.1310
2897.00,0.1261
2896.00,0.1217
2895.00,0.1179
2894.00,0.1146
2893.00,0.1119
2892.00,0.1097
2891.00,0.1079
2890.00,0.1066
2889.00,0.1056
2888.00,0.1049
2887.00,0.1046
2886.00,0.1046
2885.00,0.1048
2884.00,0.1054
2883.00,0.1063
2882.00,0.1074
2881.00,0.1086
2880.00,0.1098
2879.00,0.1108
2878.00,0.1113
2877.00,0.1113
2876.00,0.1108
2875.00,0.1101
2874.00,0.1097
2873.00,0.1097
2872.00,0.1102
2871.00,0.1113
2870.00,0.1126
2869.00,0.1138
2868.00,0.1144
2867.00,0.1137
2866.00,0.1113
2865.00,0.1072
2864.00,0.1017
2863.00,0.0955
2862.00,0.0895
2861.00,0.0842
2860.00,0.0802
2859.00,0.0775
2858.00,0.0761
2857.00,0.0757
2856.00,0.0764
2855.00,0.0778
2854.00,0.0799
2853.00,0.0824
2852.00,0.0850
2851.00,0.0873
2850.00,0.0889
2849.00,0.0899
2848.00,0.0904
2847.00,0.0910
2846.00,0.0922
2845.00,0.0946
2844.00,0.0981
2843.00,0.1025
2842.00,0.1073
2841.00,0.1120
2840.00,0.1156
2839.00,0.1175
2838.00,0.1169
2837.00,0.1136
2836.00,0.1074
2835.00,0.0991
2834.00,0.0894
2833.00,0.0794
2832.00,0.0699
2831.00,0.0614
2830.00,0.0543
2829.00,0.0483
2828.00,0.0435
2827.00,0.0396
2826.00,0.0364
2825.00,0.0338
2824.00,0.0316
2823.00,0.0297
2822.00,0.0281
2821.00,0.0267
2820.00,0.0254
2819.00,0.0243
2818.00,0.0234
2817.00,0.0225
2816.00,0.0218
2815.00,0.0211
2814.00,0.0205
2813.00,0.0200
2812.00,0.0194
2811.00,0.0189
2810.00,0.0184
2809.00,0.0179
2808.00,0.0173
2807.00,0.0168
2806.00,0.0163
2805.00,0.0157
2804.00,0.0151
2803.00,0.0146
2802.00,0.0141
2801.00,0.0136
2800.00,0.0133
2799.00,0.0130
2798.00,0.0127
2797.00,0.0125
2796.00,0.0123
2795.00,0.0121
2794.00,0.0119
2793.00,0.0116
2792.00,0.0113
2791.00,0.0109
2790.00,0.0106
2789.00,0.0103
2788.00,0.0099
2787.00,0.0096
2786.00,0.0093
2785.00,0.0090
2784.00,0.0087
2783.00,0.0085
2782.00,0.0083
2781.00,0.0081
2780.00,0.0079
2779.00,0.0078
2778.00,0.0077
2777.00,0.0076
2776.00,0.0075
2775.00,0.0074
2774.00,0.0073
2773.00,0.0072
2772.00,0.0071
2771.00,0.0071
2770.00,0.0070
2769.00,0.0070
2768.00,0.0069
2767.00,0.0069
2766.00,0.0068
2765.00,0.0068
2764.00,0.0068
2763.00,0.0067
2762.00,0.0067
2761.00,0.0067
2760.00,0.0066
2759.00,0.0066
2758.00,0.0065
2757.00,0.0065
2756.00,0.0064
2755.00,0.0064
2754.00,0.0064
2753.00,0.0064
2752.00,0.0064
2751.00,0.0064
2750.00,0.0064
2749.00,0.0064
2748.00,0.0064
2747.00,0.0064
2746.00,0.0064
2745.00,0.0064
2744.00,0.0065
2743.00,0.0066
2742.00,0.0067
2741.00,0.0068
2740.00,0.0069
2739.00,0.0070
2738.00,0.0071
2737.00,0.0072
2736.00,0.0073
2735.00,0.0075
2734.00,0.0076
2733.00,0.0078
2732.00,0.0079
2731.00,0.0081
2730.00,0.0083
2729.00,0.0085
2728.00,0.0087
2727.00,0.0089
2726.00,0.0092
2725.00,0.0093
2724.00,0.0094
2723.00,0.0095
2722.00,0.0094
2721.00,0.0092
2720.00,0.0090
2719.00,0.0087
2718.00,0.0084
2717.00,0.0082
2716.00,0.0079
2715.00,0.0077
2714.00,0.0074
2713.00,0.0072
2712.00,0.0071
2711.00,0.0069
2710.00,0.0068
2709.00,0.0066
2708.00,0.0065
2707.00,0.0064
2706.00,0.0063
2705.00,0.0062
2704.00,0.0061
2703.00,0.0060
2702.00,0.0059
2701.00,0.0058
2700.00,0.0058
2699.00,0.0057
2698.00,0.0057
2697.00,0.0057
2696.00,0.0057
2695.00,0.0057
2694.00,0.0057
2693.00,0.0057
2692.00,0.0057
2691.00,0.0057
2690.00,0.0057
2689.00,0.0057
2688.00,0.0057
2687.00,0.0057
2686.00,0.0057
2685.00,0.0057
2684.00,0.0057
2683.00,0.0058
2682.00,0.0058
2681.00,0.0058
2680.00,0.0058
2679.00,0.0058
2678.00,0.0057
2677.00,0.0057
2676.00,0.0057
2675.00,0.0057
2674.00,0.0057
2673.00,0.0057
2672.00,0.0057
2671.00,0.0057
2670.00,0.0057
2669.00,0.0057
2668.00,0.0057
2667.00,0.0057
2666.00,0.0057
2665.00,0.0058
2664.00,0.0058
2663.00,0.0059
2662.00,0.0060
2661.00,0.0060
2660.00,0.0061
2659.00,0.0061
2658.00,0.0061
2657.00,0.0060
2656.00,0.0059
2655.00,0.0058
2654.00,0.0057
2653.00,0.0057
2652.00,0.0057
2651.00,0.0057
2650.00,0.0056
2649.00,0.0056
2648.00,0.0056
2647.00,0.0055
2646.00,0.0055
2645.00,0.0054
2644.00,0.0054
2643.00,0.0053
2642.00,0.0053
2641.00,0.0052
2640.00,0.0052
2639.00,0.0052
2638.00,0.0051
2637.00,0.0050
2636.00,0.0050
2635.00,0.0050
2634.00,0.0050
2633.00,0.0050
2632.00,0.0050
2631.00,0.0050
2630.00,0.0050
2629.00,0.0050
2628.00,0.0050
2627.00,0.0050
2626.00,0.0050
2625.00,0.0050
2624.00,0.0051
2623.00,0.0051
2622.00,0.0051
2621.00,0.0051
2620.00,0.0051
2619.00,0.0051
2618.00,0.0051
2617.00,0.0050
2616.00,0.0050
2615.00,0.0050
2614.00,0.0050
2613.00,0.0050
2612.00,0.0050
2611.00,0.0050
2610.00,0.0049
2609.00,0.0048
2608.00,0.0046
2607.00,0.0045
2606.00,0.0045
2605.00,0.0044
2604.00,0.0044
2603.00,0.0043
2602.00,0.0043
2601.00,0.0043
2600.00,0.0042
2599.00,0.0041
2598.00,0.0041
2597.00,0.0040
2596.00,0.0041
2595.00,0.0041
2594.00,0.0041
2593.00,0.0041
2592.00,0.0041
2591.00,0.0042
2590.00,0.0042
2589.00,0.0043
2588.00,0.0044
2587.00,0.0044
2586.00,0.0045
2585.00,0.0045
2584.00,0.0045
2583.00,0.0046
2582.00,0.0046
2581.00,0.0046
2580.00,0.0046
2579.00,0.0045
2578.00,0.0044
2577.00,0.0044
2576.00,0.0043
2575.00,0.0042
2574.00,0.0040
2573.00,0.0040
2572.00,0.0039
2571.00,0.0038
2570.00,0.0038
2569.00,0.0037
2568.00,0.0035
2567.00,0.0034
2566.00,0.0034
2565.00,0.0033
2564.00,0.0033
2563.00,0.0033
2562.00,0.0033
2561.00,0.0033
2560.00,0.0033
2559.00,0.0033
2558.00,0.0033
2557.00,0.0033
2556.00,0.0032
2555.00,0.0032
2554.00,0.0031
2553.00,0.0031
2552.00,0.0031
2551.00,0.0031
2550.00,0.0030
2549.00,0.0030
2548.00,0.0030
2547.00,0.0029
2546.00,0.0029
2545.00,0.0029
2544.00,0.0029
2543.00,0.0028
2542.00,0.0028
2541.00,0.0027
2540.00,0.0027
2539.00,0.0027
2538.00,0.0027
2537.00,0.0028
2536.00,0.0028
2535.00,0.0028
2534.00,0.0028
2533.00,0.0027
2532.00,0.0026
2531.00,0.0025
2530.00,0.0025
2529.00,0.0025
2528.00,0.0025
2527.00,0.0026
2526.00,0.0025
2525.00,0.0025
2524.00,0.0024
2523.00,0.0023
2522.00,0.0023
2521.00,0.0023
2520.00,0.0022
2519.00,0.0022
2518.00,0.0023
2517.00,0.0023
2516.00,0.0023
2515.00,0.0023
2514.00,0.0022
2513.00,0.0022
2512.00,0.0022
2511.00,0.0022
2510.00,0.0022
2509.00,0.0022
2508.00,0.0021
2507.00,0.0021
2506.00,0.0020
2505.00,0.0019
2504.00,0.0019
2503.00,0.0019
2502.00,0.0019
2501.00,0.0019
2500.00,0.0020
2499.00,0.0020
2498.00,0.0021
2497.00,0.0021
2496.00,0.0021
2495.00,0.0021
2494.00,0.0022
2493.00,0.0022
2492.00,0.0022
2491.00,0.0021
2490.00,0.0021
2489.00,0.0020
2488.00,0.0019
2487.00,0.0019
2486.00,0.0019
2485.00,0.0020
2484.00,0.0020
2483.00,0.0021
2482.00,0.0021
2481.00,0.0020
2480.00,0.0020
2479.00,0.0019
2478.00,0.0018
2477.00,0.0018
2476.00,0.0018
2475.00,0.0018
2474.00,0.0018
2473.00,0.0019
2472.00,0.0019
2471.00,0.0020
2470.00,0.0020
2469.00,0.0020
2468.00,0.0020
2467.00,0.0020
2466.00,0.0019
2465.00,0.0019
2464.00,0.0019
2463.00,0.0019
2462.00,0.0019
2461.00,0.0019
2460.00,0.0020
2459.00,0.0020
2458.00,0.0020
2457.00,0.0021
2456.00,0.0021
2455.00,0.0020
2454.00,0.0019
2453.00,0.0019
2452.00,0.0018
2451.00,0.0018
2450.00,0.0018
2449.00,0.0018
2448.00,0.0019
2447.00,0.0019
2446.00,0.0018
2445.00,0.0018
2444.00,0.0018
2443.00,0.0019
2442.00,0.0019
2441.00,0.0020
2440.00,0.0020
2439.00,0.0021
2438.00,0.0021
2437.00,0.0021
2436.00,0.0021
2435.00,0.0021
2434.00,0.0021
2433.00,0.0021
2432.00,0.0021
2431.00,0.0021
2430.00,0.0021
2429.00,0.0021
2428.00,0.0021
2427.00,0.0021
2426.00,0.0021
2425.00,0.0021
2424.00,0.0021
2423.00,0.0021
2422.00,0.0021
2421.00,0.0022
2420.00,0.0022
2419.00,0.0021
2418.00,0.0021
2417.00,0.0020
2416.00,0.0019
2415.00,0.0019
2414.00,0.0019
2413.00,0.0020
2412.00,0.0020
2411.00,0.0020
2410.00,0.0020
2409.00,0.0020
2408.00,0.0019
2407.00,0.0018
2406.00,0.0018
2405.00,0.0018
2404.00,0.0018
2403.00,0.0018
2402.00,0.0018
2401.00,0.0019
2400.00,0.0019
2399.00,0.0018
2398.00,0.0018
2397.00,0.0017
2396.00,0.0017
2395.00,0.0017
2394.00,0.0018
2393.00,0.0018
2392.00,0.0018
2391.00,0.0018
2390.00,0.0018
2389.00,0.0017
2388.00,0.0017
2387.00,0.0016
2386.00,0.0015
2385.00,0.0014
2384.00,0.0013
2383.00,0.0012
2382.00,0.0011
2381.00,0.0011
2380.00,0.0011
2379.00,0.0012
2378.00,0.0012
2377.00,0.0013
2376.00,0.0013
2375.00,0.0013
2374.00,0.0012
2373.00,0.0012
2372.00,0.0011
2371.00,0.0011
2370.00,0.0011
2369.00,0.0012
2368.00,0.0013
2367.00,0.0013
2366.00,0.0012
2365.00,0.0012
2364.00,0.0012
2363.00,0.0012
2362.00,0.0012
2361.00,0.0012
2360.00,0.0012
2359.00,0.0012
2358.00,0.0012
2357.00,0.0012
2356.00,0.0012
2355.00,0.0012
2354.00,0.0012
2353.00,0.0012
2352.00,0.0011
2351.00,0.0011
2350.00,0.0012
2349.00,0.0013
2348.00,0.0015
2347.00,0.0016
2346.00,0.0016
2345.00,0.0015
2344.00,0.0015
2343.00,0.0015
2342.00,0.0015
2341.00,0.0015
2340.00,0.0015
2339.00,0.0016
2338.00,0.0016
2337.00,0.0016
2336.00,0.0016
2335.00,0.0015
2334.00,0.0015
2333.00,0.0014
2332.00,0.0014
2331.00,0.0014
2330.00,0.0015
2329.00,0.0016
2328.00,0.0018
2327.00,0.0021
2326.00,0.0024
2325.00,0.0026
2324.00,0.0027
2323.00,0.0026
2322.00,0.0024
2321.00,0.0022
2320.00,0.0021
2319.00,0.0021
2318.00,0.0020
2317.00,0.0020
2316.00,0.0019
2315.00,0.0019
2314.00,0.0019
2313.00,0.0019
2312.00,0.0019
2311.00,0.0018
2310.00,0.0017
2309.00,0.0017
2308.00,0.0016
2307.00,0.0016
2306.00,0.0016
2305.00,0.0016
2304.00,0.0016
2303.00,0.0017
2302.00,0.0017
2301.00,0.0018
2300.00,0.0018
2299.00,0.0019
2298.00,0.0020
2297.00,0.0021
2296.00,0.0022
2295.00,0.0024
2294.00,0.0024
2293.00,0.0025
2292.00,0.0025
2291.00,0.0025
2290.00,0.0025
2289.00,0.0026
2288.00,0.0026
2287.00,0.0027
2286.00,0.0027
2285.00,0.0027
2284.00,0.0027
2283.00,0.0025
2282.00,0.0024
2281.00,0.0023
2280.00,0.0023
2279.00,0.0023
2278.00,0.0023
2277.00,0.0023
2276.00,0.0022
2275.00,0.0021
2274.00,0.0020
2273.00,0.0019
2272.00,0.0019
2271.00,0.0020
2270.00,0.0021
2269.00,0.0021
2268.00,0.0021
2267.00,0.0020
2266.00,0.0019
2265.00,0.0019
2264.00,0.0019
2263.00,0.0019
2262.00,0.0019
2261.00,0.0019
2260.00,0.0020
2259.00,0.0021
2258.00,0.0022
2257.00,0.0022
2256.00,0.0021
2255.00,0.0019
2254.00,0.0018
2253.00,0.0017
2252.00,0.0018
2251.00,0.0019
2250.00,0.0019
2249.00,0.0019
2248.00,0.0018
2247.00,0.0017
2246.00,0.0017
2245.00,0.0017
2244.00,0.0016
2243.00,0.0015
2242.00,0.0014
2241.00,0.0013
2240.00,0.0013
2239.00,0.0012
2238.00,0.0012
2237.00,0.0012
2236.00,0.0013
2235.00,0.0015
2234.00,0.0016
2233.00,0.0016
2232.00,0.0016
2231.00,0.0015
2230.00,0.0015
2229.00,0.0014
2228.00,0.0013
2227.00,0.0013
2226.00,0.0012
2225.00,0.0012
2224.00,0.0013
2223.00,0.0015
2222.00,0.0017
2221.00,0.0018
2220.00,0.0018
2219.00,0.0018
2218.00,0.0017
2217.00,0.0017
2216.00,0.0017
2215.00,0.0017
2214.00,0.0015
2213.00,0.0013
2212.00,0.0012
2211.00,0.0012
2210.00,0.0012
2209.00,0.0013
2208.00,0.0015
2207.00,0.0016
2206.00,0.0017
2205.00,0.0019
2204.00,0.0019
2203.00,0.0018
2202.00,0.0017
2201.00,0.0016
2200.00,0.0016
2199.00,0.0016
2198.00,0.0017
2197.00,0.0018
2196.00,0.0020
2195.00,0.0020
2194.00,0.0019
2193.00,0.0018
2192.00,0.0016
2191.00,0.0016
2190.00,0.0016
2189.00,0.0017
2188.00,0.0017
2187.00,0.0017
2186.00,0.0017
2185.00,0.0017
2184.00,0.0017
2183.00,0.0017
2182.00,0.0014
2181.00,0.0009
2180.00,0.0007
2179.00,0.0006
2178.00,0.0008
2177.00,0.0010
2176.00,0.0011
2175.00,0.0010
2174.00,0.0009
2173.00,0.0010
2172.00,0.0013
2171.00,0.0016
2170.00,0.0019
2169.00,0.0022
2168.00,0.0022
2167.00,0.0021
2166.00,0.0019
2165.00,0.0017
2164.00,0.0016
2163.00,0.0018
2162.00,0.0020
2161.00,0.0019
2160.00,0.0010
2159.00,-0.0005
2158.00,-0.0018
2157.00,-0.0023
2156.00,-0.0024
2155.00,-0.0022
2154.00,-0.0019
2153.00,-0.0016
2152.00,-0.0012
2151.00,-0.0008
2150.00,-0.0003
2149.00,0.0001
2148.00,0.0003
2147.00,0.0002
2146.00,0.0000
2145.00,-0.0001
2144.00,-0.0001
2143.00,-0.0002
2142.00,-0.0002
2141.00,-0.0002
2140.00,-0.0001
2139.00,0.0000
2138.00,0.0001
2137.00,0.0001
2136.00,-0.0000
2135.00,-0.0003
2134.00,-0.0006
2133.00,-0.0007
2132.00,-0.0006
2131.00,-0.0004
2130.00,-0.0002
2129.00,-0.0001
2128.00,-0.0002
2127.00,-0.0002
2126.00,-0.0002
2125.00,-0.0000
2124.00,0.0002
2123.00,0.0003
2122.00,0.0004
2121.00,0.0005
2120.00,0.0006
2119.00,0.0007
2118.00,0.0007
2117.00,0.0007
2116.00,0.0009
2115.00,0.0010
2114.00,0.0012
2113.00,0.0012
2112.00,0.0012
2111.00,0.0011
2110.00,0.0011
2109.00,0.0011
2108.00,0.0011
2107.00,0.0011
2106.00,0.0011
2105.00,0.0011
2104.00,0.0012
2103.00,0.0012
2102.00,0.0012
2101.00,0.0012
2100.00,0.0011
2099.00,0.0010
2098.00,0.0009
2097.00,0.0008
2096.00,0.0007
2095.00,0.0006
2094.00,0.0005
2093.00,0.0004
2092.00,0.0004
2091.00,0.0005
2090.00,0.0007
2089.00,0.0008
2088.00,0.0009
2087.00,0.0010
2086.00,0.0011
2085.00,0.0011
2084.00,0.0011
2083.00,0.0011
2082.00,0.0011
2081.00,0.0012
2080.00,0.0013
2079.00,0.0014
2078.00,0.0013
2077.00,0.0013
2076.00,0.0013
2075.00,0.0013
2074.00,0.0012
2073.00,0.0011
2072.00,0.0011
2071.00,0.0011
2070.00,0.0011
2069.00,0.0011
2068.00,0.0009
2067.00,0.0008
2066.00,0.0008
2065.00,0.0010
2064.00,0.0012
2063.00,0.0013
2062.00,0.0013
2061.00,0.0013
2060.00,0.0012
2059.00,0.0012
2058.00,0.0012
2057.00,0.0012
2056.00,0.0012
2055.00,0.0011
2054.00,0.0011
2053.00,0.0014
2052.00,0.0019
2051.00,0.0023
2050.00,0.0023
2049.00,0.0020
2048.00,0.0017
2047.00,0.0014
2046.00,0.0013
2045.00,0.0012
2044.00,0.0011
2043.00,0.0009
2042.00,0.0007
2041.00,0.0004
2040.00,0.0003
2039.00,0.0002
2038.00,0.0004
2037.00,0.0007
2036.00,0.0010
2035.00,0.0012
2034.00,0.0012
2033.00,0.0011
2032.00,0.0011
2031.00,0.0010
2030.00,0.0008
2029.00,0.0005
2028.00,0.0002
2027.00,-0.0001
2026.00,-0.0002
2025.00,-0.0002
2024.00,-0.0000
2023.00,-0.0000
2022.00,-0.0002
2021.00,-0.0004
2020.00,-0.0005
2019.00,-0.0005
2018.00,-0.0004
2017.00,-0.0002
2016.00,-0.0002
2015.00,-0.0002
2014.00,-0.0003
2013.00,-0.0001
2012.00,0.0002
2011.00,0.0005
2010.00,0.0006
2009.00,0.0005
2008.00,0.0003
2007.00,-0.0001
2006.00,-0.0004
2005.00,-0.0005
2004.00,-0.0006
2003.00,-0.0007
2002.00,-0.0006
2001.00,-0.0006
2000.00,-0.0005
1999.00,-0.0004
1998.00,-0.0004
1997.00,-0.0004
1996.00,-0.0003
1995.00,-0.0003
1994.00,-0.0001
1993.00,0.0000
1992.00,0.0002
1991.00,0.0003
1990.00,0.0005
1989.00,0.0007
1988.00,0.0009
1987.00,0.0010
1986.00,0.0011
1985.00,0.0012
1984.00,0.0012
1983.00,0.0013
1982.00,0.0014
1981.00,0.0016
1980.00,0.0017
1979.00,0.0013
1978.00,0.0007
1977.00,0.0001
1976.00,-0.0001
1975.00,-0.0002
1974.00,-0.0002
1973.00,-0.0002
1972.00,-0.0002
1971.00,-0.0004
1970.00,-0.0006
1969.00,-0.0007
1968.00,-0.0008
1967.00,-0.0006
1966.00,-0.0004
1965.00,-0.0003
1964.00,-0.0003
1963.00,-0.0004
1962.00,-0.0006
1961.00,-0.0007
1960.00,-0.0008
1959.00,-0.0008
1958.00,-0.0006
1957.00,-0.0004
1956.00,-0.0001
1955.00,0.0000
1954.00,-0.0000
1953.00,-0.0002
1952.00,-0.0003
1951.00,-0.0004
1950.00,-0.0005
1949.00,-0.0005
1948.00,-0.0006
1947.00,-0.0007
1946.00,-0.0007
1945.00,-0.0006
1944.00,-0.0004
1943.00,-0.0003
1942.00,-0.0002
1941.00,-0.0001
1940.00,-0.0000
1939.00,-0.0000
1938.00,-0.0001
1937.00,-0.0003
1936.00,-0.0003
1935.00,-0.0002
1934.00,-0.0000
1933.00,0.0001
1932.00,0.0002
1931.00,0.0002
1930.00,0.0002
1929.00,0.0003
1928.00,0.0005
1927.00,0.0005
1926.00,0.0005
1925.00,0.0005
1924.00,0.0005
1923.00,0.0005
1922.00,0.0006
1921.00,0.0006
1920.00,0.0006
1919.00,0.0006
1918.00,0.0005
1917.00,0.0006
1916.00,0.0007
1915.00,0.0007
1914.00,0.0007
1913.00,0.0007
1912.00,0.0006
1911.00,0.0005
1910.00,0.0004
1909.00,0.0005
1908.00,0.0007
1907.00,0.0008
1906.00,0.0009
1905.00,0.0009
1904.00,0.0008
1903.00,0.0007
1902.00,0.0006
1901.00,0.0005
1900.00,0.0007
1899.00,0.0009
1898.00,0.0011
1897.00,0.0012
1896.00,0.0012
1895.00,0.0011
1894.00,0.0010
1893.00,0.0009
1892.00,0.0008
1891.00,0.0009
1890.00,0.0009
1889.00,0.0010
1888.00,0.0010
1887.00,0.0009
1886.00,0.0008
1885.00,0.0008
1884.00,0.0007
1883.00,0.0006
1882.00,0.0006
1881.00,0.0006
1880.00,0.0007
1879.00,0.0007
1878.00,0.0008
1877.00,0.0010
1876.00,0.0011
1875.00,0.0010
1874.00,0.0010
1873.00,0.0009
1872.00,0.0008
1871.00,0.0007
1870.00,0.0007
1869.00,0.0007
1868.00,0.0008
1867.00,0.0008
1866.00,0.0009
1865.00,0.0009
1864.00,0.0009
1863.00,0.0009
1862.00,0.0009
1861.00,0.0009
1860.00,0.0009
1859.00,0.0010
1858.00,0.0011
1857.00,0.0011
1856.00,0.0012
1855.00,0.0012
1854.00,0.0012
1853.00,0.0011
1852.00,0.0011
1851.00,0.0010
1850.00,0.0010
1849.00,0.0010
1848.00,0.0011
1847.00,0.0012
1846.00,0.0013
1845.00,0.0014
1844.00,0.0014
1843.00,0.0013
1842.00,0.0012
1841.00,0.0011
1840.00,0.0011
1839.00,0.0011
1838.00,0.0011
1837.00,0.0011
1836.00,0.0011
1835.00,0.0011
1834.00,0.0011
1833.00,0.0012
1832.00,0.0013
1831.00,0.0013
1830.00,0.0014
1829.00,0.0014
1828.00,0.0013
1827.00,0.0013
1826.00,0.0013
1825.00,0.0014
1824.00,0.0015
1823.00,0.0014
1822.00,0.0013
1821.00,0.0013
1820.00,0.0012
1819.00,0.0011
1818.00,0.0011
1817.00,0.0010
1816.00,0.0010
1815.00,0.0010
1814.00,0.0011
1813.00,0.0012
1812.00,0.0013
1811.00,0.0014
1810.00,0.0015
1809.00,0.0015
1808.00,0.0014
1807.00,0.0014
1806.00,0.0014
1805.00,0.0014
1804.00,0.0015
1803.00,0.0015
1802.00,0.0016
1801.00,0.0016
1800.00,0.0016
1799.00,0.0016
1798.00,0.0016
1797.00,0.0016
1796.00,0.0016
1795.00,0.0017
1794.00,0.0017
1793.00,0.0017
1792.00,0.0018
1791.00,0.0018
1790.00,0.0018
1789.00,0.0017
1788.00,0.0018
1787.00,0.0018
1786.00,0.0019
1785.00,0.0019
1784.00,0.0019
1783.00,0.0019
1782.00,0.0019
1781.00,0.0020
1780.00,0.0020
1779.00,0.0020
1778.00,0.0020
1777.00,0.0020
1776.00,0.0020
1775.00,0.0021
1774.00,0.0021
1773.00,0.0022
1772.00,0.0023
1771.00,0.0024
1770.00,0.0024
1769.00,0.0025
1768.00,0.0026
1767.00,0.0025
1766.00,0.0025
1765.00,0.0025
1764.00,0.0025
1763.00,0.0025
1762.00,0.0026
1761.00,0.0027
1760.00,0.0027
1759.00,0.0028
1758.00,0.0030
1757.00,0.0032
1756.00,0.0033
1755.00,0.0034
1754.00,0.0035
1753.00,0.0036
1752.00,0.0038
1751.00,0.0040
1750.00,0.0041
1749.00,0.0041
1748.00,0.0042
1747.00,0.0042
1746.00,0.0043
1745.00,0.0044
1744.00,0.0045
1743.00,0.0046
1742.00,0.0046
1741.00,0.0047
1740.00,0.0047
1739.00,0.0048
1738.00,0.0048
1737.00,0.0047
1736.00,0.0046
1735.00,0.0046
1734.00,0.0045
1733.00,0.0044
1732.00,0.0044
1731.00,0.0044
1730.00,0.0044
1729.00,0.0044
1728.00,0.0043
1727.00,0.0043
1726.00,0.0043
1725.00,0.0043
1724.00,0.0043
1723.00,0.0043
1722.00,0.0043
1721.00,0.0043
1720.00,0.0043
1719.00,0.0042
1718.00,0.0042
1717.00,0.0043
1716.00,0.0043
1715.00,0.0043
1714.00,0.0043
1713.00,0.0042
1712.00,0.0041
1711.00,0.0041
1710.00,0.0041
1709.00,0.0041
1708.00,0.0041
1707.00,0.0041
1706.00,0.0041
1705.00,0.0041
1704.00,0.0042
1703.00,0.0042
1702.00,0.0042
1701.00,0.0043
1700.00,0.0044
1699.00,0.0045
1698.00,0.0045
1697.00,0.0046
1696.00,0.0048
1695.00,0.0050
1694.00,0.0051
1693.00,0.0052
1692.00,0.0054
1691.00,0.0055
1690.00,0.0057
1689.00,0.0059
1688.00,0.0060
1687.00,0.0060
1686.00,0.0061
1685.00,0.0063
1684.00,0.0065
1683.00,0.0067
1682.00,0.0068
1681.00,0.0069
1680.00,0.0071
1679.00,0.0072
1678.00,0.0073
1677.00,0.0075
1676.00,0.0076
1675.00,0.0077
1674.00,0.0078
1673.00,0.0078
1672.00,0.0079
1671.00,0.0080
1670.00,0.0081
1669.00,0.0082
1668.00,0.0082
1667.00,0.0083
1666.00,0.0083
1665.00,0.0084
1664.00,0.0085
1663.00,0.0086
1662.00,0.0086
1661.00,0.0086
1660.00,0.0087
1659.00,0.0088
1658.00,0.0089
1657.00,0.0090
1656.00,0.0091
1655.00,0.0092
1654.00,0.0093
1653.00,0.0094
1652.00,0.0094
1651.00,0.0095
1650.00,0.0095
1649.00,0.0095
1648.00,0.0097
1647.00,0.0098
1646.00,0.0099
1645.00,0.0099
1644.00,0.0099
1643.00,0.0100
1642.00,0.0100
1641.00,0.0102
1640.00,0.0103
1639.00,0.0104
1638.00,0.0105
1637.00,0.0106
1636.00,0.0106
1635.00,0.0106
1634.00,0.0105
1633.00,0.0104
1632.00,0.0104
1631.00,0.0104
1630.00,0.0104
1629.00,0.0104
1628.00,0.0104
1627.00,0.0104
1626.00,0.0104
1625.00,0.0104
1624.00,0.0104
1623.00,0.0104
1622.00,0.0103
1621.00,0.0102
1620.00,0.0102
1619.00,0.0100
1618.00,0.0099
1617.00,0.0099
1616.00,0.0099
1615.00,0.0100
1614.00,0.0100
1613.00,0.0100
1612.00,0.0101
1611.00,0.0101
1610.00,0.0101
1609.00,0.0101
1608.00,0.0101
1607.00,0.0101
1606.00,0.0101
1605.00,0.0101
1604.00,0.0102
1603.00,0.0102
1602.00,0.0103
1601.00,0.0103
1600.00,0.0103
1599.00,0.0104
1598.00,0.0104
1597.00,0.0105
1596.00,0.0106
1595.00,0.0107
1594.00,0.0109
1593.00,0.0111
1592.00,0.0113
1591.00,0.0115
1590.00,0.0118
1589.00,0.0121
1588.00,0.0126
1587.00,0.0131
1586.00,0.0137
1585.00,0.0145
1584.00,0.0154
1583.00,0.0164
1582.00,0.0174
1581.00,0.0184
1580.00,0.0192
1579.00,0.0198
1578.00,0.0201
1577.00,0.0201
1576.00,0.0198
1575.00,0.0193
1574.00,0.0188
1573.00,0.0182
1572.00,0.0176
1571.00,0.0168
1570.00,0.0158
1569.00,0.0149
1568.00,0.0142
1567.00,0.0138
1566.00,0.0134
1565.00,0.0131
1564.00,0.0128
1563.00,0.0127
1562.00,0.0125
1561.00,0.0125
1560.00,0.0125
1559.00,0.0125
1558.00,0.0124
1557.00,0.0124
1556.00,0.0125
1555.00,0.0127
1554.00,0.0129
1553.00,0.0132
1552.00,0.0135
1551.00,0.0140
1550.00,0.0146
1549.00,0.0153
1548.00,0.0161
1547.00,0.0170
1546.00,0.0181
1545.00,0.0195
1544.00,0.0207
1543.00,0.0217
1542.00,0.0224
1541.00,0.0225
1540.00,0.0218
1539.00,0.0205
1538.00,0.0194
1537.00,0.0184
1536.00,0.0175
1535.00,0.0164
1534.00,0.0151
1533.00,0.0138
1532.00,0.0128
1531.00,0.0122
1530.00,0.0118
1529.00,0.0114
1528.00,0.0112
1527.00,0.0109
1526.00,0.0106
1525.00,0.0104
1524.00,0.0103
1523.00,0.0102
1522.00,0.0102
1521.00,0.0101
1520.00,0.0101
1519.00,0.0101
1518.00,0.0101
1517.00,0.0101
1516.00,0.0101
1515.00,0.0101
1514.00,0.0100
1513.00,0.0100
1512.00,0.0101
1511.00,0.0102
1510.00,0.0102
1509.00,0.0103
1508.00,0.0104
1507.00,0.0103
1506.00,0.0102
1505.00,0.0102
1504.00,0.0103
1503.00,0.0104
1502.00,0.0106
1501.00,0.0109
1500.00,0.0112
1499.00,0.0114
1498.00,0.0116
1497.00,0.0120
1496.00,0.0124
1495.00,0.0127
1494.00,0.0130
1493.00,0.0134
1492.00,0.0139
1491.00,0.0145
1490.00,0.0153
1489.00,0.0161
1488.00,0.0170
1487.00,0.0177
1486.00,0.0185
1485.00,0.0195
1484.00,0.0205
1483.00,0.0217
1482.00,0.0232
1481.00,0.0249
1480.00,0.0267
1479.00,0.0285
1478.00,0.0305
1477.00,0.0329
1476.00,0.0357
1475.00,0.0388
1474.00,0.0427
1473.00,0.0479
1472.00,0.0538
1471.00,0.0592
1470.00,0.0643
1469.00,0.0699
1468.00,0.0760
1467.00,0.0829
1466.00,0.0909
1465.00,0.0995
1464.00,0.1070
1463.00,0.1121
1462.00,0.1153
1461.00,0.1175
1460.00,0.1190
1459.00,0.1202
1458.00,0.1214
1457.00,0.1226
1456.00,0.1230
1455.00,0.1225
1454.00,0.1216
1453.00,0.1201
1452.00,0.1178
1451.00,0.1145
1450.00,0.1098
1449.00,0.1031
1448.00,0.0946
1447.00,0.0854
1446.00,0.0769
1445.00,0.0696
1444.00,0.0633
1443.00,0.0582
1442.00,0.0543
1441.00,0.0515
1440.00,0.0498
1439.00,0.0490
1438.00,0.0489
1437.00,0.0488
1436.00,0.0477
1435.00,0.0453
1434.00,0.0420
1433.00,0.0381
1432.00,0.0340
1431.00,0.0303
1430.00,0.0275
1429.00,0.0253
1428.00,0.0238
1427.00,0.0230
1426.00,0.0225
1425.00,0.0221
1424.00,0.0217
1423.00,0.0215
1422.00,0.0214
1421.00,0.0212
1420.00,0.0209
1419.00,0.0206
1418.00,0.0204
1417.00,0.0200
1416.00,0.0197
1415.00,0.0195
1414.00,0.0193
1413.00,0.0191
1412.00,0.0190
1411.00,0.0189
1410.00,0.0189
1409.00,0.0188
1408.00,0.0187
1407.00,0.0187
1406.00,0.0188
1405.00,0.0189
1404.00,0.0190
1403.00,0.0192
1402.00,0.0195
1401.00,0.0198
1400.00,0.0201
1399.00,0.0206
1398.00,0.0211
1397.00,0.0215
1396.00,0.0219
1395.00,0.0224
1394.00,0.0230
1393.00,0.0234
1392.00,0.0239
1391.00,0.0246
1390.00,0.0256
1389.00,0.0271
1388.00,0.0292
1387.00,0.0323
1386.00,0.0364
1385.00,0.0417
1384.00,0.0492
1383.00,0.0595
1382.00,0.0733
1381.00,0.0906
1380.00,0.1114
1379.00,0.1341
1378.00,0.1549
1377.00,0.1690
1376.00,0.1722
1375.00,0.1626
1374.00,0.1429
1373.00,0.1199
1372.00,0.0990
1371.00,0.0817
1370.00,0.0678
1369.00,0.0571
1368.00,0.0496
1367.00,0.0448
1366.00,0.0421
1365.00,0.0409
1364.00,0.0408
1363.00,0.0417
1362.00,0.0433
1361.00,0.0450
1360.00,0.0463
1359.00,0.0465
1358.00,0.0455
1357.00,0.0433
1356.00,0.0402
1355.00,0.0367
1354.00,0.0332
1353.00,0.0303
1352.00,0.0279
1351.00,0.0260
1350.00,0.0243
1349.00,0.0230
1348.00,0.0218
1347.00,0.0207
1346.00,0.0198
1345.00,0.0191
1344.00,0.0184
1343.00,0.0180
1342.00,0.0176
1341.00,0.0173
1340.00,0.0171
1339.00,0.0169
1338.00,0.0167
1337.00,0.0167
1336.00,0.0166
1335.00,0.0167
1334.00,0.0168
1333.00,0.0170
1332.00,0.0173
1331.00,0.0175
1330.00,0.0176
1329.00,0.0174
1328.00,0.0171
1327.00,0.0166
1326.00,0.0161
1325.00,0.0156
1324.00,0.0150
1323.00,0.0146
1322.00,0.0142
1321.00,0.0139
1320.00,0.0136
1319.00,0.0134
1318.00,0.0132
1317.00,0.0130
1316.00,0.0128
1315.00,0.0127
1314.00,0.0126
1313.00,0.0126
1312.00,0.0127
1311.00,0.0129
1310.00,0.0133
1309.00,0.0140
1308.00,0.0151
1307.00,0.0165
1306.00,0.0178
1305.00,0.0187
1304.00,0.0190
1303.00,0.0187
1302.00,0.0179
1301.00,0.0172
1300.00,0.0167
1299.00,0.0164
1298.00,0.0163
1297.00,0.0162
1296.00,0.0160
1295.00,0.0157
1294.00,0.0153
1293.00,0.0149
1292.00,0.0144
1291.00,0.0141
1290.00,0.0137
1289.00,0.0134
1288.00,0.0132
1287.00,0.0129
1286.00,0.0127
1285.00,0.0126
1284.00,0.0124
1283.00,0.0123
1282.00,0.0123
1281.00,0.0122
1280.00,0.0122
1279.00,0.0122
1278.00,0.0122
1277.00,0.0123
1276.00,0.0123
1275.00,0.0124
1274.00,0.0125
1273.00,0.0127
1272.00,0.0129
1271.00,0.0131
1270.00,0.0134
1269.00,0.0137
1268.00,0.0141
1267.00,0.0145
1266.00,0.0150
1265.00,0.0155
1264.00,0.0160
1263.00,0.0165
1262.00,0.0170
1261.00,0.0175
1260.00,0.0182
1259.00,0.0190
1258.00,0.0199
1257.00,0.0207
1256.00,0.0211
1255.00,0.0210
1254.00,0.0203
1253.00,0.0194
1252.00,0.0184
1251.00,0.0175
1250.00,0.0168
1249.00,0.0162
1248.00,0.0157
1247.00,0.0154
1246.00,0.0151
1245.00,0.0149
1244.00,0.0148
1243.00,0.0147
1242.00,0.0146
1241.00,0.0145
1240.00,0.0145
1239.00,0.0145
1238.00,0.0144
1237.00,0.0144
1236.00,0.0143
1235.00,0.0143
1234.00,0.0142
1233.00,0.0141
1232.00,0.0141
1231.00,0.0142
1230.00,0.0142
1229.00,0.0143
1228.00,0.0144
1227.00,0.0145
1226.00,0.0146
1225.00,0.0148
1224.00,0.0150
1223.00,0.0151
1222.00,0.0153
1221.00,0.0155
1220.00,0.0155
1219.00,0.0155
1218.00,0.0154
1217.00,0.0152
1216.00,0.0149
1215.00,0.0146
1214.00,0.0143
1213.00,0.0141
1212.00,0.0139
1211.00,0.0136
1210.00,0.0134
1209.00,0.0133
1208.00,0.0131
1207.00,0.0130
1206.00,0.0130
1205.00,0.0130
1204.00,0.0129
1203.00,0.0130
1202.00,0.0131
1201.00,0.0132
1200.00,0.0133
1199.00,0.0135
1198.00,0.0137
1197.00,0.0137
1196.00,0.0138
1195.00,0.0138
1194.00,0.0139
1193.00,0.0139
1192.00,0.0140
1191.00,0.0141
1190.00,0.0142
1189.00,0.0143
1188.00,0.0144
1187.00,0.0145
1186.00,0.0147
1185.00,0.0150
1184.00,0.0153
1183.00,0.0156
1182.00,0.0160
1181.00,0.0164
1180.00,0.0169
1179.00,0.0175
1178.00,0.0184
1177.00,0.0194
1176.00,0.0209
1175.00,0.0227
1174.00,0.0252
1173.00,0.0283
1172.00,0.0319
1171.00,0.0359
1170.00,0.0398
1169.00,0.0428
1168.00,0.0446
1167.00,0.0448
1166.00,0.0437
1165.00,0.0417
1164.00,0.0394
1163.00,0.0372
1162.00,0.0353
1161.00,0.0338
1160.00,0.0326
1159.00,0.0317
1158.00,0.0310
1157.00,0.0305
1156.00,0.0301
1155.00,0.0297
1154.00,0.0294
1153.00,0.0290
1152.00,0.0285
1151.00,0.0278
1150.00,0.0269
1149.00,0.0259
1148.00,0.0249
1147.00,0.0239
1146.00,0.0229
1145.00,0.0220
1144.00,0.0212
1143.00,0.0204
1142.00,0.0197
1141.00,0.0192
1140.00,0.0186
1139.00,0.0181
1138.00,0.0176
1137.00,0.0171
1136.00,0.0168
1135.00,0.0165
1134.00,0.0163
1133.00,0.0163
1132.00,0.0164
1131.00,0.0164
1130.00,0.0164
1129.00,0.0164
1128.00,0.0163
1127.00,0.0162
1126.00,0.0162
1125.00,0.0162
1124.00,0.0161
1123.00,0.0160
1122.00,0.0159
1121.00,0.0158
1120.00,0.0158
1119.00,0.0159
1118.00,0.0160
1117.00,0.0160
1116.00,0.0161
1115.00,0.0162
1114.00,0.0162
1113.00,0.0163
1112.00,0.0164
1111.00,0.0165
1110.00,0.0167
1109.00,0.0169
1108.00,0.0172
1107.00,0.0177
1106.00,0.0183
1105.00,0.0188
1104.00,0.0192
1103.00,0.0194
1102.00,0.0193
1101.00,0.0190
1100.00,0.0186
1099.00,0.0182
1098.00,0.0178
1097.00,0.0174
1096.00,0.0173
1095.00,0.0172
1094.00,0.0171
1093.00,0.0169
1092.00,0.0167
1091.00,0.0166
1090.00,0.0166
1089.00,0.0166
1088.00,0.0165
1087.00,0.0164
1086.00,0.0163
1085.00,0.0163
1084.00,0.0164
1083.00,0.0164
1082.00,0.0163
1081.00,0.0162
1080.00,0.0161
1079.00,0.0161
1078.00,0.0160
1077.00,0.0159
1076.00,0.0158
1075.00,0.0158
1074.00,0.0157
1073.00,0.0156
1072.00,0.0155
1071.00,0.0154
1070.00,0.0153
1069.00,0.0152
1068.00,0.0150
1067.00,0.0148
1066.00,0.0145
1065.00,0.0143
1064.00,0.0143
1063.00,0.0143
1062.00,0.0144
1061.00,0.0146
1060.00,0.0147
1059.00,0.0148
1058.00,0.0148
1057.00,0.0148
1056.00,0.0148
1055.00,0.0149
1054.00,0.0151
1053.00,0.0154
1052.00,0.0157
1051.00,0.0161
1050.00,0.0164
1049.00,0.0167
1048.00,0.0170
1047.00,0.0175
1046.00,0.0179
1045.00,0.0182
1044.00,0.0183
1043.00,0.0182
1042.00,0.0179
1041.00,0.0176
1040.00,0.0173
1039.00,0.0171
1038.00,0.0171
1037.00,0.0172
1036.00,0.0172
1035.00,0.0171
1034.00,0.0169
1033.00,0.0166
1032.00,0.0163
1031.00,0.0161
1030.00,0.0159
1029.00,0.0158
1028.00,0.0156
1027.00,0.0156
1026.00,0.0156
1025.00,0.0158
1024.00,0.0160
1023.00,0.0164
1022.00,0.0167
1021.00,0.0169
1020.00,0.0170
1019.00,0.0171
1018.00,0.0173
1017.00,0.0175
1016.00,0.0178
1015.00,0.0180
1014.00,0.0182
1013.00,0.0185
1012.00,0.0187
1011.00,0.0188
1010.00,0.0187
1009.00,0.0187
1008.00,0.0187
1007.00,0.0189
1006.00,0.0196
1005.00,0.0207
1004.00,0.0224
1003.00,0.0249
1002.00,0.0285
1001.00,0.0330
1000.00,0.0379
999.00,0.0421
998.00,0.0444
997.00,0.0438
996.00,0.0407
995.00,0.0359
994.00,0.0309
993.00,0.0263
992.00,0.0227
991.00,0.0201
990.00,0.0183
989.00,0.0171
988.00,0.0163
987.00,0.0159
986.00,0.0157
985.00,0.0158
984.00,0.0162
983.00,0.0169
982.00,0.0181
981.00,0.0199
980.00,0.0225
979.00,0.0259
978.00,0.0302
977.00,0.0355
976.00,0.0412
975.00,0.0469
974.00,0.0514
973.00,0.0534
972.00,0.0523
971.00,0.0482
970.00,0.0422
969.00,0.0360
968.00,0.0305
967.00,0.0264
966.00,0.0234
965.00,0.0213
964.00,0.0198
963.00,0.0186
962.00,0.0178
961.00,0.0172
960.00,0.0169
959.00,0.0167
958.00,0.0165
957.00,0.0163
956.00,0.0160
955.00,0.0158
954.00,0.0157
953.00,0.0154
952.00,0.0152
951.00,0.0149
950.00,0.0148
949.00,0.0146
948.00,0.0144
947.00,0.0143
946.00,0.0142
945.00,0.0143
944.00,0.0144
943.00,0.0146
942.00,0.0147
941.00,0.0148
940.00,0.0147
939.00,0.0143
938.00,0.0138
937.00,0.0132
936.00,0.0126
935.00,0.0120
934.00,0.0114
933.00,0.0109
932.00,0.0105
931.00,0.0102
930.00,0.0099
929.00,0.0097
928.00,0.0095
927.00,0.0093
926.00,0.0091
925.00,0.0089
924.00,0.0088
923.00,0.0086
922.00,0.0086
921.00,0.0085
920.00,0.0085
919.00,0.0084
918.00,0.0083
917.00,0.0083
916.00,0.0083
915.00,0.0084
914.00,0.0085
913.00,0.0085
912.00,0.0086
911.00,0.0087
910.00,0.0089
909.00,0.0091
908.00,0.0093
907.00,0.0096
906.00,0.0102
905.00,0.0111
904.00,0.0123
903.00,0.0138
902.00,0.0154
901.00,0.0167
900.00,0.0176
899.00,0.0178
898.00,0.0172
897.00,0.0159
896.00,0.0144
895.00,0.0129
894.00,0.0117
893.00,0.0107
892.00,0.0100
891.00,0.0095
890.00,0.0092
889.00,0.0091
888.00,0.0091
887.00,0.0091
886.00,0.0091
885.00,0.0090
884.00,0.0090
883.00,0.0090
882.00,0.0091
881.00,0.0092
880.00,0.0092
879.00,0.0092
878.00,0.0092
877.00,0.0092
876.00,0.0093
875.00,0.0095
874.00,0.0097
873.00,0.0098
872.00,0.0098
871.00,0.0097
870.00,0.0095
869.00,0.0094
868.00,0.0092
867.00,0.0092
866.00,0.0093
865.00,0.0094
864.00,0.0096
863.00,0.0097
862.00,0.0098
861.00,0.0100
860.00,0.0101
859.00,0.0103
858.00,0.0104
857.00,0.0104
856.00,0.0105
855.00,0.0108
854.00,0.0112
853.00,0.0116
852.00,0.0120
851.00,0.0125
850.00,0.0131
849.00,0.0138
848.00,0.0150
847.00,0.0166
846.00,0.0193
845.00,0.0233
844.00,0.0290
843.00,0.0358
842.00,0.0415
841.00,0.0437
840.00,0.0411
839.00,0.0352
838.00,0.0285
837.00,0.0232
836.00,0.0196
835.00,0.0174
834.00,0.0161
833.00,0.0153
832.00,0.0148
831.00,0.0145
830.00,0.0142
829.00,0.0139
828.00,0.0136
827.00,0.0133
826.00,0.0131
825.00,0.0129
824.00,0.0129
823.00,0.0129
822.00,0.0129
821.00,0.0130
820.00,0.0131
819.00,0.0133
818.00,0.0137
817.00,0.0141
816.00,0.0147
815.00,0.0157
814.00,0.0170
813.00,0.0185
812.00,0.0200
811.00,0.0215
810.00,0.0225
809.00,0.0229
808.00,0.0226
807.00,0.0217
806.00,0.0203
805.00,0.0189
804.00,0.0175
803.00,0.0164
802.00,0.0155
801.00,0.0148
800.00,0.0142
799.00,0.0137
798.00,0.0132
797.00,0.0127
796.00,0.0123
795.00,0.0121
794.00,0.0119
793.00,0.0116
792.00,0.0112
791.00,0.0107
790.00,0.0103
789.00,0.0100
788.00,0.0097
787.00,0.0093
786.00,0.0090
785.00,0.0088
784.00,0.0087
783.00,0.0087
782.00,0.0087
781.00,0.0087
780.00,0.0086
779.00,0.0086
778.00,0.0087
777.00,0.0088
776.00,0.0088
775.00,0.0087
774.00,0.0087
773.00,0.0086
772.00,0.0086
771.00,0.0085
770.00,0.0085
769.00,0.0084
768.00,0.0084
767.00,0.0085
766.00,0.0086
765.00,0.0089
764.00,0.0091
763.00,0.0093
762.00,0.0094
761.00,0.0094
760.00,0.0094
759.00,0.0094
758.00,0.0094
757.00,0.0093
756.00,0.0093
755.00,0.0094
754.00,0.0095
753.00,0.0095
752.00,0.0096
751.00,0.0096
750.00,0.0096
749.00,0.0097
748.00,0.0098
747.00,0.0100
746.00,0.0102
745.00,0.0104
744.00,0.0107
743.00,0.0110
742.00,0.0114
741.00,0.0118
740.00,0.0123
739.00,0.0126
738.00,0.0130
737.00,0.0132
736.00,0.0134
735.00,0.0137
734.00,0.0140
733.00,0.0145
732.00,0.0152
731.00,0.0159
730.00,0.0165
729.00,0.0168
728.00,0.0168
727.00,0.0168
726.00,0.0169
725.00,0.0171
724.00,0.0174
723.00,0.0178
722.00,0.0181
721.00,0.0184
720.00,0.0182
719.00,0.0176
718.00,0.0166
717.00,0.0156
716.00,0.0147
715.00,0.0141
714.00,0.0137
713.00,0.0134
712.00,0.0131
711.00,0.0129
710.00,0.0128
709.00,0.0126
708.00,0.0126
707.00,0.0127
706.00,0.0127
705.00,0.0128
704.00,0.0128
703.00,0.0127
702.00,0.0126
701.00,0.0123
700.00,0.0122
699.00,0.0121
698.00,0.0120
697.00,0.0119
696.00,0.0118
695.00,0.0117
694.00,0.0118
693.00,0.0118
692.00,0.0119
691.00,0.0121
690.00,0.0124
689.00,0.0125
688.00,0.0127
687.00,0.0127
686.00,0.0128
685.00,0.0128
684.00,0.0128
683.00,0.0129
682.00,0.0130
681.00,0.0131
680.00,0.0130
679.00,0.0129
678.00,0.0128
677.00,0.0128
676.00,0.0130
675.00,0.0132
674.00,0.0135
673.00,0.0138
672.00,0.0139
671.00,0.0138
670.00,0.0136
669.00,0.0135
668.00,0.0135
667.00,0.0135
666.00,0.0134
665.00,0.0131
664.00,0.0128
663.00,0.0125
662.00,0.0122
661.00,0.0120
660.00,0.0119
659.00,0.0120
658.00,0.0121
657.00,0.0120
656.00,0.0117
655.00,0.0114
654.00,0.0114
653.00,0.0115
652.00,0.0115
651.00,0.0114
650.00,0.0112
649.00,0.0111
648.00,0.0112
647.00,0.0113
646.00,0.0112
645.00,0.0109
644.00,0.0106
643.00,0.0105
642.00,0.0107
641.00,0.0109
640.00,0.0111
639.00,0.0112
638.00,0.0115
637.00,0.0117
636.00,0.0118
635.00,0.0116
634.00,0.0113
633.00,0.0109
632.00,0.0106
631.00,0.0107
630.00,0.0110
629.00,0.0113
628.00,0.0115
627.00,0.0117
626.00,0.0118
625.00,0.0118
624.00,0.0116
623.00,0.0114
622.00,0.0114
621.00,0.0113
620.00,0.0112
619.00,0.0111
618.00,0.0111
617.00,0.0112
616.00,0.0115
615.00,0.0117
614.00,0.0118
613.00,0.0117
612.00,0.0115
611.00,0.0115
610.00,0.0117
609.00,0.0119
608.00,0.0119
607.00,0.0118
606.00,0.0117
605.00,0.0118
604.00,0.0120
603.00,0.0120
602.00,0.0118
601.00,0.0117
600.00,0.0115
599.00,0.0114
598.00,0.0113
597.00,0.0114
596.00,0.0114
595.00,0.0113
594.00,0.0112
593.00,0.0110
592.00,0.0109
591.00,0.0108
590.00,0.0110
589.00,0.0113
588.00,0.0115
587.00,0.0115
586.00,0.0113
585.00,0.0111
584.00,0.0112
583.00,0.0113
582.00,0.0116
581.00,0.0119
580.00,0.0121
579.00,0.0122
578.00,0.0120
577.00,0.0118
576.00,0.0117
575.00,0.0116
574.00,0.0116
573.00,0.0116
572.00,0.0116
571.00,0.0116
570.00,0.0118
569.00,0.0120
568.00,0.0122
567.00,0.0122
566.00,0.0121
565.00,0.0120
564.00,0.0119
563.00,0.0115
562.00,0.0112
561.00,0.0111
560.00,0.0114
559.00,0.0118
558.00,0.0121
557.00,0.0121
556.00,0.0120
555.00,0.0119
554.00,0.0120
553.00,0.0121
552.00,0.0122
551.00,0.0123
550.00,0.0124
549.00,0.0124
548.00,0.0124
547.00,0.0124
546.00,0.0122
545.00,0.0120
544.00,0.0120
543.00,0.0124
542.00,0.0129
541.00,0.0131
540.00,0.0130
539.00,0.0129
538.00,0.0129
537.00,0.0131
536.00,0.0134
535.00,0.0135
534.00,0.0136
533.00,0.0137
532.00,0.0137
531.00,0.0138
530.00,0.0137
529.00,0.0136
528.00,0.0135
527.00,0.0135
526.00,0.0135
525.00,0.0134
524.00,0.0132
523.00,0.0129
522.00,0.0127
521.00,0.0124
520.00,0.0119
519.00,0.0116
518.00,0.0118
517.00,0.0123
516.00,0.0126
515.00,0.0122
514.00,0.0114
513.00,0.0105
512.00,0.0100
511.00,0.0101
510.00,0.0105
509.00,0.0110
508.00,0.0113
507.00,0.0113
506.00,0.0112
505.00,0.0114
504.00,0.0116
503.00,0.0117
502.00,0.0118
501.00,0.0119
500.00,0.0121
499.00,0.0121
498.00,0.0117
497.00,0.0113
496.00,0.0110
495.00,0.0110
494.00,0.0112
493.00,0.0113
492.00,0.0112
491.00,0.0108
490.00,0.0104
489.00,0.0102
488.00,0.0104
487.00,0.0113
486.00,0.0123
485.00,0.0129
484.00,0.0131
483.00,0.0133
482.00,0.0136
481.00,0.0138
480.00,0.0134
479.00,0.0127
478.00,0.0128
477.00,0.0140
476.00,0.0159
475.00,0.0173
474.00,0.0177
473.00,0.0173
472.00,0.0167
471.00,0.0166
470.00,0.0166
469.00,0.0165
468.00,0.0165
467.00,0.0169
466.00,0.0177
465.00,0.0188
464.00,0.0196
463.00,0.0201
462.00,0.0202
461.00,0.0204
460.00,0.0212
459.00,0.0225
458.00,0.0234
457.00,0.0232
456.00,0.0226
455.00,0.0228
454.00,0.0235
453.00,0.0241
452.00,0.0235
451.00,0.0220
450.00,0.0203
