Created as New Dataset,Sample 242 By Administrator Date Wednesday, September 03 2025
cm-1,A
4000.00,0.0009
3999.00,0.0009
3998.00,0.0009
3997.00,0.0009
3996.00,0.0009
3995.00,0.0009
3994.00,0.0009
3993.00,0.0009
3992.00,0.0009
3991.00,0.0009
3990.00,0.0009
3989.00,0.0009
3988.00,0.0009
3987.00,0.0009
3986.00,0.0008
3985.00,0.0008
3984.00,0.0008
3983.00,0.0007
3982.00,0.0007
3981.00,0.0007
3980.00,0.0007
3979.00,0.0007
3978.00,0.0007
3977.00,0.0007
3976.00,0.0007
3975.00,0.0007
3974.00,0.0007
3973.00,0.0007
3972.00,0.0007
3971.00,0.0007
3970.00,0.0007
3969.00,0.0008
3968.00,0.0008
3967.00,0.0008
3966.00,0.0008
3965.00,0.0008
3964.00,0.0008
3963.00,0.0008
3962.00,0.0007
3961.00,0.0007
3960.00,0.0007
3959.00,0.0006
3958.00,0.0006
3957.00,0.0006
3956.00,0.0006
3955.00,0.0006
3954.00,0.0007
3953.00,0.0007
3952.00,0.0007
3951.00,0.0007
3950.00,0.0007
3949.00,0.0006
3948.00,0.0006
3947.00,0.0006
3946.00,0.0006
3945.00,0.0006
3944.00,0.0006
3943.00,0.0007
3942.00,0.0007
3941.00,0.0007
3940.00,0.0007
3939.00,0.0007
3938.00,0.0006
3937.00,0.0007
3936.00,0.0007
3935.00,0.0007
3934.00,0.0007
3933.00,0.0007
3932.00,0.0007
3931.00,0.0007
3930.00,0.0007
3929.00,0.0007
3928.00,0.0007
3927.00,0.0006
3926.00,0.0006
3925.00,0.0006
3924.00,0.0006
3923.00,0.0006
3922.00,0.0007
3921.00,0.0007
3920.00,0.0008
3919.00,0.0007
3918.00,0.0007
3917.00,0.0007
3916.00,0.0007
3915.00,0.0007
3914.00,0.0007
3913.00,0.0007
3912.00,0.0006
3911.00,0.0006
3910.00,0.0006
3909.00,0.0006
3908.00,0.0006
3907.00,0.0006
3906.00,0.0006
3905.00,0.0006
3904.00,0.0005
3903.00,0.0005
3902.00,0.0005
3901.00,0.0005
3900.00,0.0006
3899.00,0.0006
3898.00,0.0006
3897.00,0.0006
3896.00,0.0007
3895.00,0.0007
3894.00,0.0007
3893.00,0.0006
3892.00,0.0006
3891.00,0.0006
3890.00,0.0006
3889.00,0.0006
3888.00,0.0006
3887.00,0.0006
3886.00,0.0006
3885.00,0.0006
3884.00,0.0006
3883.00,0.0006
3882.00,0.0006
3881.00,0.0006
3880.00,0.0006
3879.00,0.0006
3878.00,0.0006
3877.00,0.0006
3876.00,0.0006
3875.00,0.0006
3874.00,0.0006
3873.00,0.0006
3872.00,0.0006
3871.00,0.0007
3870.00,0.0007
3869.00,0.0007
3868.00,0.0006
3867.00,0.0006
3866.00,0.0006
3865.00,0.0006
3864.00,0.0006
3863.00,0.0006
3862.00,0.0005
3861.00,0.0005
3860.00,0.0005
3859.00,0.0005
3858.00,0.0005
3857.00,0.0005
3856.00,0.0004
3855.00,0.0004
3854.00,0.0004
3853.00,0.0004
3852.00,0.0004
3851.00,0.0004
3850.00,0.0004
3849.00,0.0005
3848.00,0.0005
3847.00,0.0005
3846.00,0.0005
3845.00,0.0005
3844.00,0.0005
3843.00,0.0005
3842.00,0.0005
3841.00,0.0005
3840.00,0.0005
3839.00,0.0005
3838.00,0.0005
3837.00,0.0005
3836.00,0.0005
3835.00,0.0005
3834.00,0.0005
3833.00,0.0005
3832.00,0.0005
3831.00,0.0005
3830.00,0.0005
3829.00,0.0005
3828.00,0.0006
3827.00,0.0006
3826.00,0.0006
3825.00,0.0006
3824.00,0.0006
3823.00,0.0006
3822.00,0.0006
3821.00,0.0006
3820.00,0.0006
3819.00,0.0006
3818.00,0.0006
3817.00,0.0006
3816.00,0.0006
3815.00,0.0006
3814.00,0.0006
3813.00,0.0006
3812.00,0.0007
3811.00,0.0006
3810.00,0.0006
3809.00,0.0007
3808.00,0.0007
3807.00,0.0006
3806.00,0.0006
3805.00,0.0006
3804.00,0.0006
3803.00,0.0006
3802.00,0.0007
3801.00,0.0007
3800.00,0.0007
3799.00,0.0007
3798.00,0.0006
3797.00,0.0006
3796.00,0.0005
3795.00,0.0005
3794.00,0.0005
3793.00,0.0005
3792.00,0.0005
3791.00,0.0006
3790.00,0.0007
3789.00,0.0007
3788.00,0.0007
3787.00,0.0008
3786.00,0.0007
3785.00,0.0007
3784.00,0.0007
3783.00,0.0007
3782.00,0.0007
3781.00,0.0007
3780.00,0.0007
3779.00,0.0006
3778.00,0.0006
3777.00,0.0006
3776.00,0.0007
3775.00,0.0007
3774.00,0.0007
3773.00,0.0007
3772.00,0.0007
3771.00,0.0007
3770.00,0.0007
3769.00,0.0008
3768.00,0.0008
3767.00,0.0008
3766.00,0.0008
3765.00,0.0008
3764.00,0.0008
3763.00,0.0008
3762.00,0.0008
3761.00,0.0008
3760.00,0.0008
3759.00,0.0007
3758.00,0.0007
3757.00,0.0007
3756.00,0.0007
3755.00,0.0006
3754.00,0.0006
3753.00,0.0006
3752.00,0.0006
3751.00,0.0005
3750.00,0.0005
3749.00,0.0005
3748.00,0.0004
3747.00,0.0004
3746.00,0.0004
3745.00,0.0004
3744.00,0.0005
3743.00,0.0005
3742.00,0.0005
3741.00,0.0005
3740.00,0.0005
3739.00,0.0006
3738.00,0.0006
3737.00,0.0005
3736.00,0.0005
3735.00,0.0005
3734.00,0.0005
3733.00,0.0005
3732.00,0.0004
3731.00,0.0004
3730.00,0.0004
3729.00,0.0005
3728.00,0.0005
3727.00,0.0005
3726.00,0.0005
3725.00,0.0005
3724.00,0.0004
3723.00,0.0004
3722.00,0.0004
3721.00,0.0005
3720.00,0.0005
3719.00,0.0005
3718.00,0.0005
3717.00,0.0005
3716.00,0.0005
3715.00,0.0004
3714.00,0.0004
3713.00,0.0004
3712.00,0.0005
3711.00,0.0004
3710.00,0.0004
3709.00,0.0004
3708.00,0.0003
3707.00,0.0003
3706.00,0.0004
3705.00,0.0004
3704.00,0.0004
3703.00,0.0004
3702.00,0.0005
3701.00,0.0005
3700.00,0.0005
3699.00,0.0005
3698.00,0.0006
3697.00,0.0006
3696.00,0.0006
3695.00,0.0006
3694.00,0.0006
3693.00,0.0005
3692.00,0.0005
3691.00,0.0004
3690.00,0.0004
3689.00,0.0004
3688.00,0.0004
3687.00,0.0004
3686.00,0.0005
3685.00,0.0005
3684.00,0.0006
3683.00,0.0006
3682.00,0.0007
3681.00,0.0007
3680.00,0.0007
3679.00,0.0007
3678.00,0.0007
3677.00,0.0007
3676.00,0.0006
3675.00,0.0006
3674.00,0.0005
3673.00,0.0004
3672.00,0.0004
3671.00,0.0004
3670.00,0.0004
3669.00,0.0005
3668.00,0.0005
3667.00,0.0005
3666.00,0.0006
3665.00,0.0006
3664.00,0.0006
3663.00,0.0006
3662.00,0.0006
3661.00,0.0006
3660.00,0.0005
3659.00,0.0005
3658.00,0.0006
3657.00,0.0006
3656.00,0.0006
3655.00,0.0006
3654.00,0.0006
3653.00,0.0006
3652.00,0.0006
3651.00,0.0006
3650.00,0.0006
3649.00,0.0006
3648.00,0.0006
3647.00,0.0006
3646.00,0.0006
3645.00,0.0006
3644.00,0.0006
3643.00,0.0006
3642.00,0.0007
3641.00,0.0007
3640.00,0.0007
3639.00,0.0007
3638.00,0.0007
3637.00,0.0007
3636.00,0.0007
3635.00,0.0007
3634.00,0.0007
3633.00,0.0007
3632.00,0.0006
3631.00,0.0006
3630.00,0.0006
3629.00,0.0006
3628.00,0.0006
3627.00,0.0006
3626.00,0.0007
3625.00,0.0007
3624.00,0.0008
3623.00,0.0008
3622.00,0.0008
3621.00,0.0008
3620.00,0.0008
3619.00,0.0007
3618.00,0.0007
3617.00,0.0007
3616.00,0.0007
3615.00,0.0007
3614.00,0.0008
3613.00,0.0009
3612.00,0.0009
3611.00,0.0010
3610.00,0.0010
3609.00,0.0010
3608.00,0.0010
3607.00,0.0010
3606.00,0.0010
3605.00,0.0010
3604.00,0.0010
3603.00,0.0010
3602.00,0.0010
3601.00,0.0011
3600.00,0.0011
3599.00,0.0011
3598.00,0.0011
3597.00,0.0011
3596.00,0.0011
3595.00,0.0010
3594.00,0.0010
3593.00,0.0010
3592.00,0.0010
3591.00,0.0010
3590.00,0.0010
3589.00,0.0011
3588.00,0.0011
3587.00,0.0011
3586.00,0.0011
3585.00,0.0011
3584.00,0.0012
3583.00,0.0012
3582.00,0.0012
3581.00,0.0013
3580.00,0.0013
3579.00,0.0013
3578.00,0.0013
3577.00,0.0013
3576.00,0.0014
3575.00,0.0014
3574.00,0.0014
3573.00,0.0014
3572.00,0.0014
3571.00,0.0014
3570.00,0.0014
3569.00,0.0015
3568.00,0.0015
3567.00,0.0016
3566.00,0.0016
3565.00,0.0017
3564.00,0.0017
3563.00,0.0017
3562.00,0.0017
3561.00,0.0016
3560.00,0.0016
3559.00,0.0016
3558.00,0.0017
3557.00,0.0017
3556.00,0.0017
3555.00,0.0017
3554.00,0.0017
3553.00,0.0018
3552.00,0.0018
3551.00,0.0018
3550.00,0.0019
3549.00,0.0019
3548.00,0.0019
3547.00,0.0020
3546.00,0.0020
3545.00,0.0021
3544.00,0.0022
3543.00,0.0023
3542.00,0.0023
3541.00,0.0023
3540.00,0.0022
3539.00,0.0022
3538.00,0.0021
3537.00,0.0021
3536.00,0.0022
3535.00,0.0022
3534.00,0.0022
3533.00,0.0023
3532.00,0.0023
3531.00,0.0023
3530.00,0.0023
3529.00,0.0023
3528.00,0.0024
3527.00,0.0024
3526.00,0.0025
3525.00,0.0025
3524.00,0.0025
3523.00,0.0025
3522.00,0.0025
3521.00,0.0026
3520.00,0.0026
3519.00,0.0026
3518.00,0.0027
3517.00,0.0027
3516.00,0.0027
3515.00,0.0027
3514.00,0.0028
3513.00,0.0028
3512.00,0.0028
3511.00,0.0029
3510.00,0.0029
3509.00,0.0029
3508.00,0.0029
3507.00,0.0029
3506.00,0.0029
3505.00,0.0029
3504.00,0.0029
3503.00,0.0030
3502.00,0.0030
3501.00,0.0031
3500.00,0.0031
3499.00,0.0031
3498.00,0.0031
3497.00,0.0031
3496.00,0.0031
3495.00,0.0031
3494.00,0.0032
3493.00,0.0032
3492.00,0.0033
3491.00,0.0033
3490.00,0.0033
3489.00,0.0033
3488.00,0.0033
3487.00,0.0033
3486.00,0.0034
3485.00,0.0034
3484.00,0.0034
3483.00,0.0034
3482.00,0.0034
3481.00,0.0034
3480.00,0.0034
3479.00,0.0035
3478.00,0.0035
3477.00,0.0035
3476.00,0.0036
3475.00,0.0036
3474.00,0.0036
3473.00,0.0037
3472.00,0.0037
3471.00,0.0038
3470.00,0.0038
3469.00,0.0038
3468.00,0.0038
3467.00,0.0038
3466.00,0.0038
3465.00,0.0038
3464.00,0.0038
3463.00,0.0038
3462.00,0.0039
3461.00,0.0039
3460.00,0.0040
3459.00,0.0040
3458.00,0.0040
3457.00,0.0040
3456.00,0.0040
3455.00,0.0041
3454.00,0.0041
3453.00,0.0041
3452.00,0.0042
3451.00,0.0042
3450.00,0.0042
3449.00,0.0042
3448.00,0.0042
3447.00,0.0042
3446.00,0.0042
3445.00,0.0042
3444.00,0.0043
3443.00,0.0043
3442.00,0.0044
3441.00,0.0044
3440.00,0.0044
3439.00,0.0044
3438.00,0.0044
3437.00,0.0045
3436.00,0.0045
3435.00,0.0045
3434.00,0.0046
3433.00,0.0046
3432.00,0.0046
3431.00,0.0047
3430.00,0.0047
3429.00,0.0047
3428.00,0.0047
3427.00,0.0048
3426.00,0.0048
3425.00,0.0048
3424.00,0.0048
3423.00,0.0048
3422.00,0.0048
3421.00,0.0048
3420.00,0.0048
3419.00,0.0048
3418.00,0.0047
3417.00,0.0048
3416.00,0.0048
3415.00,0.0048
3414.00,0.0049
3413.00,0.0049
3412.00,0.0049
3411.00,0.0049
3410.00,0.0049
3409.00,0.0050
3408.00,0.0050
3407.00,0.0050
3406.00,0.0051
3405.00,0.0051
3404.00,0.0051
3403.00,0.0052
3402.00,0.0052
3401.00,0.0052
3400.00,0.0052
3399.00,0.0052
3398.00,0.0053
3397.00,0.0053
3396.00,0.0053
3395.00,0.0053
3394.00,0.0053
3393.00,0.0053
3392.00,0.0053
3391.00,0.0053
3390.00,0.0053
3389.00,0.0053
3388.00,0.0053
3387.00,0.0053
3386.00,0.0053
3385.00,0.0053
3384.00,0.0052
3383.00,0.0052
3382.00,0.0051
3381.00,0.0051
3380.00,0.0051
3379.00,0.0052
3378.00,0.0053
3377.00,0.0053
3376.00,0.0053
3375.00,0.0053
3374.00,0.0053
3373.00,0.0053
3372.00,0.0053
3371.00,0.0053
3370.00,0.0053
3369.00,0.0053
3368.00,0.0053
3367.00,0.0052
3366.00,0.0052
3365.00,0.0053
3364.00,0.0053
3363.00,0.0053
3362.00,0.0053
3361.00,0.0054
3360.00,0.0054
3359.00,0.0054
3358.00,0.0054
3357.00,0.0054
3356.00,0.0054
3355.00,0.0054
3354.00,0.0054
3353.00,0.0054
3352.00,0.0054
3351.00,0.0054
3350.00,0.0054
3349.00,0.0054
3348.00,0.0053
3347.00,0.0053
3346.00,0.0053
3345.00,0.0052
3344.00,0.0052
3343.00,0.0052
3342.00,0.0053
3341.00,0.0053
3340.00,0.0053
3339.00,0.0053
3338.00,0.0053
3337.00,0.0053
3336.00,0.0053
3335.00,0.0053
3334.00,0.0053
3333.00,0.0052
3332.00,0.0052
3331.00,0.0052
3330.00,0.0052
3329.00,0.0052
3328.00,0.0052
3327.00,0.0052
3326.00,0.0052
3325.00,0.0052
3324.00,0.0052
3323.00,0.0052
3322.00,0.0052
3321.00,0.0052
3320.00,0.0052
3319.00,0.0052
3318.00,0.0051
3317.00,0.0051
3316.00,0.0051
3315.00,0.0051
3314.00,0.0051
3313.00,0.0051
3312.00,0.0051
3311.00,0.0052
3310.00,0.0052
3309.00,0.0052
3308.00,0.0053
3307.00,0.0053
3306.00,0.0053
3305.00,0.0053
3304.00,0.0053
3303.00,0.0053
3302.00,0.0053
3301.00,0.0053
3300.00,0.0053
3299.00,0.0052
3298.00,0.0052
3297.00,0.0052
3296.00,0.0052
3295.00,0.0051
3294.00,0.0051
3293.00,0.0050
3292.00,0.0050
3291.00,0.0050
3290.00,0.0050
3289.00,0.0050
3288.00,0.0050
3287.00,0.0049
3286.00,0.0049
3285.00,0.0048
3284.00,0.0048
3283.00,0.0048
3282.00,0.0048
3281.00,0.0048
3280.00,0.0048
3279.00,0.0048
3278.00,0.0047
3277.00,0.0047
3276.00,0.0047
3275.00,0.0046
3274.00,0.0046
3273.00,0.0046
3272.00,0.0045
3271.00,0.0045
3270.00,0.0045
3269.00,0.0045
3268.00,0.0045
3267.00,0.0045
3266.00,0.0045
3265.00,0.0045
3264.00,0.0045
3263.00,0.0045
3262.00,0.0045
3261.00,0.0044
3260.00,0.0044
3259.00,0.0044
3258.00,0.0044
3257.00,0.0043
3256.00,0.0043
3255.00,0.0043
3254.00,0.0042
3253.00,0.0042
3252.00,0.0042
3251.00,0.0042
3250.00,0.0042
3249.00,0.0042
3248.00,0.0042
3247.00,0.0042
3246.00,0.0042
3245.00,0.0042
3244.00,0.0041
3243.00,0.0041
3242.00,0.0041
3241.00,0.0041
3240.00,0.0041
3239.00,0.0041
3238.00,0.0041
3237.00,0.0041
3236.00,0.0041
3235.00,0.0041
3234.00,0.0041
3233.00,0.0041
3232.00,0.0042
3231.00,0.0042
3230.00,0.0043
3229.00,0.0043
3228.00,0.0043
3227.00,0.0043
3226.00,0.0043
3225.00,0.0042
3224.00,0.0042
3223.00,0.0042
3222.00,0.0042
3221.00,0.0042
3220.00,0.0042
3219.00,0.0042
3218.00,0.0043
3217.00,0.0043
3216.00,0.0044
3215.00,0.0044
3214.00,0.0044
3213.00,0.0044
3212.00,0.0044
3211.00,0.0044
3210.00,0.0044
3209.00,0.0044
3208.00,0.0044
3207.00,0.0044
3206.00,0.0044
3205.00,0.0044
3204.00,0.0045
3203.00,0.0045
3202.00,0.0045
3201.00,0.0046
3200.00,0.0046
3199.00,0.0046
3198.00,0.0045
3197.00,0.0045
3196.00,0.0045
3195.00,0.0045
3194.00,0.0045
3193.00,0.0045
3192.00,0.0045
3191.00,0.0045
3190.00,0.0044
3189.00,0.0044
3188.00,0.0045
3187.00,0.0045
3186.00,0.0044
3185.00,0.0044
3184.00,0.0043
3183.00,0.0043
3182.00,0.0042
3181.00,0.0042
3180.00,0.0042
3179.00,0.0042
3178.00,0.0042
3177.00,0.0042
3176.00,0.0042
3175.00,0.0042
3174.00,0.0042
3173.00,0.0041
3172.00,0.0041
3171.00,0.0041
3170.00,0.0041
3169.00,0.0041
3168.00,0.0041
3167.00,0.0041
3166.00,0.0041
3165.00,0.0040
3164.00,0.0040
3163.00,0.0040
3162.00,0.0040
3161.00,0.0040
3160.00,0.0039
3159.00,0.0039
3158.00,0.0038
3157.00,0.0038
3156.00,0.0039
3155.00,0.0039
3154.00,0.0039
3153.00,0.0039
3152.00,0.0039
3151.00,0.0038
3150.00,0.0038
3149.00,0.0038
3148.00,0.0038
3147.00,0.0038
3146.00,0.0038
3145.00,0.0038
3144.00,0.0038
3143.00,0.0038
3142.00,0.0038
3141.00,0.0038
3140.00,0.0038
3139.00,0.0038
3138.00,0.0037
3137.00,0.0037
3136.00,0.0037
3135.00,0.0036
3134.00,0.0036
3133.00,0.0036
3132.00,0.0036
3131.00,0.0036
3130.00,0.0036
3129.00,0.0035
3128.00,0.0035
3127.00,0.0035
3126.00,0.0035
3125.00,0.0034
3124.00,0.0033
3123.00,0.0033
3122.00,0.0032
3121.00,0.0032
3120.00,0.0032
3119.00,0.0032
3118.00,0.0032
3117.00,0.0032
3116.00,0.0032
3115.00,0.0032
3114.00,0.0032
3113.00,0.0031
3112.00,0.0031
3111.00,0.0031
3110.00,0.0031
3109.00,0.0031
3108.00,0.0030
3107.00,0.0030
3106.00,0.0030
3105.00,0.0030
3104.00,0.0030
3103.00,0.0030
3102.00,0.0030
3101.00,0.0030
3100.00,0.0030
3099.00,0.0030
3098.00,0.0030
3097.00,0.0030
3096.00,0.0029
3095.00,0.0030
3094.00,0.0030
3093.00,0.0030
3092.00,0.0030
3091.00,0.0029
3090.00,0.0029
3089.00,0.0028
3088.00,0.0028
3087.00,0.0028
3086.00,0.0028
3085.00,0.0028
3084.00,0.0028
3083.00,0.0028
3082.00,0.0029
3081.00,0.0029
3080.00,0.0029
3079.00,0.0029
3078.00,0.0029
3077.00,0.0029
3076.00,0.0030
3075.00,0.0030
3074.00,0.0030
3073.00,0.0030
3072.00,0.0030
3071.00,0.0029
3070.00,0.0030
3069.00,0.0030
3068.00,0.0030
3067.00,0.0030
3066.00,0.0030
3065.00,0.0031
3064.00,0.0031
3063.00,0.0031
3062.00,0.0031
3061.00,0.0031
3060.00,0.0031
3059.00,0.0031
3058.00,0.0031
3057.00,0.0032
3056.00,0.0032
3055.00,0.0032
3054.00,0.0032
3053.00,0.0033
3052.00,0.0033
3051.00,0.0033
3050.00,0.0033
3049.00,0.0033
3048.00,0.0033
3047.00,0.0033
3046.00,0.0033
3045.00,0.0033
3044.00,0.0033
3043.00,0.0034
3042.00,0.0034
3041.00,0.0034
3040.00,0.0035
3039.00,0.0036
3038.00,0.0036
3037.00,0.0036
3036.00,0.0036
3035.00,0.0036
3034.00,0.0037
3033.00,0.0037
3032.00,0.0038
3031.00,0.0038
3030.00,0.0039
3029.00,0.0039
3028.00,0.0040
3027.00,0.0040
3026.00,0.0041
3025.00,0.0041
3024.00,0.0042
3023.00,0.0042
3022.00,0.0043
3021.00,0.0044
3020.00,0.0045
3019.00,0.0045
3018.00,0.0046
3017.00,0.0047
3016.00,0.0049
3015.00,0.0050
3014.00,0.0051
3013.00,0.0052
3012.00,0.0053
3011.00,0.0054
3010.00,0.0055
3009.00,0.0056
3008.00,0.0057
3007.00,0.0059
3006.00,0.0061
3005.00,0.0062
3004.00,0.0064
3003.00,0.0066
3002.00,0.0067
3001.00,0.0069
3000.00,0.0071
2999.00,0.0074
2998.00,0.0077
2997.00,0.0080
2996.00,0.0084
2995.00,0.0088
2994.00,0.0092
2993.00,0.0097
2992.00,0.0102
2991.00,0.0108
2990.00,0.0114
2989.00,0.0120
2988.00,0.0128
2987.00,0.0135
2986.00,0.0144
2985.00,0.0154
2984.00,0.0165
2983.00,0.0178
2982.00,0.0192
2981.00,0.0209
2980.00,0.0227
2979.00,0.0248
2978.00,0.0273
2977.00,0.0301
2976.00,0.0332
2975.00,0.0369
2974.00,0.0410
2973.00,0.0457
2972.00,0.0511
2971.00,0.0572
2970.00,0.0640
2969.00,0.0714
2968.00,0.0795
2967.00,0.0882
2966.00,0.0973
2965.00,0.1067
2964.00,0.1159
2963.00,0.1245
2962.00,0.1321
2961.00,0.1384
2960.00,0.1433
2959.00,0.1472
2958.00,0.1508
2957.00,0.1544
2956.00,0.1588
2955.00,0.1642
2954.00,0.1705
2953.00,0.1771
2952.00,0.1830
2951.00,0.1871
2950.00,0.1883
2949.00,0.1858
2948.00,0.1793
2947.00,0.1696
2946.00,0.1578
2945.00,0.1453
2944.00,0.1334
2943.00,0.1233
2942.00,0.1154
2941.00,0.1101
2940.00,0.1071
2939.00,0.1064
2938.00,0.1076
2937.00,0.1106
2936.00,0.1152
2935.00,0.1213
2934.00,0.1288
2933.00,0.1375
2932.00,0.1473
2931.00,0.1580
2930.00,0.1693
2929.00,0.1810
2928.00,0.1927
2927.00,0.2042
2926.00,0.2153
2925.00,0.2259
2924.00,0.2362
2923.00,0.2462
2922.00,0.2560
2921.00,0.2653
2920.00,0.2733
2919.00,0.2793
2918.00,0.2820
2917.00,0.2810
2916.00,0.2760
2915.00,0.2678
2914.00,0.2574
2913.00,0.2461
2912.00,0.2351
2911.00,0.2249
2910.00,0.2158
2909.00,0.2077
2908.00,0.2003
2907.00,0.1933
2906.00,0.1865
2905.00,0.1796
2904.00,0.1727
2903.00,0.1658
2902.00,0.1589
2901.00,0.1522
2900.00,0.1457
2899.00,0.1395
2898.00,0.1337
2897.00,0.1284
2896.00,0.1236
2895.00,0.1195
2894.00,0.1160
2893.00,0.1130
2892.00,0.1107
2891.00,0.1089
2890.00,0.1077
2889.00,0.1069
2888.00,0.1065
2887.00,0.1064
2886.00,0.1067
2885.00,0.1073
2884.00,0.1084
2883.00,0.1100
2882.00,0.1120
2881.00,0.1143
2880.00,0.1167
2879.00,0.1187
2878.00,0.1200
2877.00,0.1204
2876.00,0.1201
2875.00,0.1195
2874.00,0.1189
2873.00,0.1188
2872.00,0.1194
2871.00,0.1207
2870.00,0.1225
2869.00,0.1243
2868.00,0.1255
2867.00,0.1252
2866.00,0.1230
2865.00,0.1186
2864.00,0.1123
2863.00,0.1050
2862.00,0.0977
2861.00,0.0913
2860.00,0.0864
2859.00,0.0830
2858.00,0.0811
2857.00,0.0805
2856.00,0.0809
2855.00,0.0820
2854.00,0.0836
2853.00,0.0855
2852.00,0.0874
2851.00,0.0890
2850.00,0.0901
2849.00,0.0907
2848.00,0.0912
2847.00,0.0921
2846.00,0.0939
2845.00,0.0969
2844.00,0.1010
2843.00,0.1061
2842.00,0.1116
2841.00,0.1168
2840.00,0.1211
2839.00,0.1234
2838.00,0.1232
2837.00,0.1199
2836.00,0.1135
2835.00,0.1047
2834.00,0.0942
2833.00,0.0834
2832.00,0.0730
2831.00,0.0638
2830.00,0.0560
2829.00,0.0495
2828.00,0.0442
2827.00,0.0400
2826.00,0.0366
2825.00,0.0337
2824.00,0.0314
2823.00,0.0293
2822.00,0.0276
2821.00,0.0261
2820.00,0.0249
2819.00,0.0237
2818.00,0.0227
2817.00,0.0219
2816.00,0.0211
2815.00,0.0204
2814.00,0.0198
2813.00,0.0192
2812.00,0.0187
2811.00,0.0181
2810.00,0.0176
2809.00,0.0170
2808.00,0.0164
2807.00,0.0157
2806.00,0.0151
2805.00,0.0144
2804.00,0.0137
2803.00,0.0131
2802.00,0.0126
2801.00,0.0122
2800.00,0.0118
2799.00,0.0115
2798.00,0.0112
2797.00,0.0110
2796.00,0.0108
2795.00,0.0105
2794.00,0.0103
2793.00,0.0099
2792.00,0.0096
2791.00,0.0093
2790.00,0.0090
2789.00,0.0087
2788.00,0.0084
2787.00,0.0081
2786.00,0.0078
2785.00,0.0076
2784.00,0.0073
2783.00,0.0071
2782.00,0.0069
2781.00,0.0068
2780.00,0.0066
2779.00,0.0064
2778.00,0.0063
2777.00,0.0061
2776.00,0.0060
2775.00,0.0059
2774.00,0.0058
2773.00,0.0057
2772.00,0.0057
2771.00,0.0056
2770.00,0.0056
2769.00,0.0056
2768.00,0.0055
2767.00,0.0055
2766.00,0.0054
2765.00,0.0054
2764.00,0.0053
2763.00,0.0053
2762.00,0.0053
2761.00,0.0052
2760.00,0.0052
2759.00,0.0051
2758.00,0.0051
2757.00,0.0051
2756.00,0.0051
2755.00,0.0051
2754.00,0.0051
2753.00,0.0051
2752.00,0.0051
2751.00,0.0051
2750.00,0.0050
2749.00,0.0050
2748.00,0.0050
2747.00,0.0051
2746.00,0.0051
2745.00,0.0052
2744.00,0.0052
2743.00,0.0053
2742.00,0.0055
2741.00,0.0056
2740.00,0.0057
2739.00,0.0058
2738.00,0.0059
2737.00,0.0060
2736.00,0.0061
2735.00,0.0062
2734.00,0.0064
2733.00,0.0066
2732.00,0.0067
2731.00,0.0069
2730.00,0.0071
2729.00,0.0074
2728.00,0.0077
2727.00,0.0080
2726.00,0.0082
2725.00,0.0085
2724.00,0.0086
2723.00,0.0086
2722.00,0.0085
2721.00,0.0084
2720.00,0.0081
2719.00,0.0078
2718.00,0.0075
2717.00,0.0072
2716.00,0.0068
2715.00,0.0065
2714.00,0.0063
2713.00,0.0060
2712.00,0.0058
2711.00,0.0057
2710.00,0.0055
2709.00,0.0054
2708.00,0.0053
2707.00,0.0052
2706.00,0.0051
2705.00,0.0050
2704.00,0.0049
2703.00,0.0048
2702.00,0.0047
2701.00,0.0046
2700.00,0.0045
2699.00,0.0045
2698.00,0.0044
2697.00,0.0044
2696.00,0.0044
2695.00,0.0044
2694.00,0.0044
2693.00,0.0044
2692.00,0.0044
2691.00,0.0043
2690.00,0.0043
2689.00,0.0043
2688.00,0.0043
2687.00,0.0043
2686.00,0.0043
2685.00,0.0044
2684.00,0.0044
2683.00,0.0044
2682.00,0.0045
2681.00,0.0045
2680.00,0.0045
2679.00,0.0045
2678.00,0.0045
2677.00,0.0045
2676.00,0.0045
2675.00,0.0045
2674.00,0.0044
2673.00,0.0044
2672.00,0.0044
2671.00,0.0043
2670.00,0.0043
2669.00,0.0043
2668.00,0.0043
2667.00,0.0043
2666.00,0.0044
2665.00,0.0044
2664.00,0.0045
2663.00,0.0046
2662.00,0.0047
2661.00,0.0047
2660.00,0.0047
2659.00,0.0047
2658.00,0.0047
2657.00,0.0047
2656.00,0.0047
2655.00,0.0046
2654.00,0.0046
2653.00,0.0045
2652.00,0.0045
2651.00,0.0044
2650.00,0.0043
2649.00,0.0043
2648.00,0.0043
2647.00,0.0043
2646.00,0.0043
2645.00,0.0042
2644.00,0.0041
2643.00,0.0040
2642.00,0.0039
2641.00,0.0039
2640.00,0.0039
2639.00,0.0039
2638.00,0.0038
2637.00,0.0038
2636.00,0.0038
2635.00,0.0038
2634.00,0.0038
2633.00,0.0038
2632.00,0.0038
2631.00,0.0038
2630.00,0.0037
2629.00,0.0038
2628.00,0.0038
2627.00,0.0038
2626.00,0.0038
2625.00,0.0038
2624.00,0.0038
2623.00,0.0038
2622.00,0.0038
2621.00,0.0038
2620.00,0.0039
2619.00,0.0039
2618.00,0.0039
2617.00,0.0039
2616.00,0.0039
2615.00,0.0039
2614.00,0.0039
2613.00,0.0039
2612.00,0.0039
2611.00,0.0038
2610.00,0.0037
2609.00,0.0036
2608.00,0.0035
2607.00,0.0035
2606.00,0.0034
2605.00,0.0033
2604.00,0.0032
2603.00,0.0032
2602.00,0.0031
2601.00,0.0031
2600.00,0.0031
2599.00,0.0031
2598.00,0.0031
2597.00,0.0030
2596.00,0.0030
2595.00,0.0031
2594.00,0.0031
2593.00,0.0031
2592.00,0.0031
2591.00,0.0031
2590.00,0.0032
2589.00,0.0033
2588.00,0.0034
2587.00,0.0035
2586.00,0.0036
2585.00,0.0036
2584.00,0.0037
2583.00,0.0037
2582.00,0.0037
2581.00,0.0037
2580.00,0.0036
2579.00,0.0036
2578.00,0.0035
2577.00,0.0034
2576.00,0.0033
2575.00,0.0032
2574.00,0.0031
2573.00,0.0030
2572.00,0.0029
2571.00,0.0028
2570.00,0.0027
2569.00,0.0026
2568.00,0.0025
2567.00,0.0025
2566.00,0.0024
2565.00,0.0024
2564.00,0.0024
2563.00,0.0023
2562.00,0.0022
2561.00,0.0022
2560.00,0.0021
2559.00,0.0021
2558.00,0.0021
2557.00,0.0022
2556.00,0.0022
2555.00,0.0022
2554.00,0.0022
2553.00,0.0021
2552.00,0.0021
2551.00,0.0020
2550.00,0.0019
2549.00,0.0019
2548.00,0.0019
2547.00,0.0018
2546.00,0.0018
2545.00,0.0017
2544.00,0.0017
2543.00,0.0017
2542.00,0.0017
2541.00,0.0017
2540.00,0.0017
2539.00,0.0017
2538.00,0.0017
2537.00,0.0016
2536.00,0.0016
2535.00,0.0015
2534.00,0.0015
2533.00,0.0015
2532.00,0.0016
2531.00,0.0015
2530.00,0.0015
2529.00,0.0015
2528.00,0.0014
2527.00,0.0014
2526.00,0.0014
2525.00,0.0014
2524.00,0.0014
2523.00,0.0014
2522.00,0.0014
2521.00,0.0014
2520.00,0.0013
2519.00,0.0012
2518.00,0.0011
2517.00,0.0011
2516.00,0.0010
2515.00,0.0010
2514.00,0.0010
2513.00,0.0010
2512.00,0.0010
2511.00,0.0009
2510.00,0.0009
2509.00,0.0009
2508.00,0.0009
2507.00,0.0010
2506.00,0.0010
2505.00,0.0011
2504.00,0.0010
2503.00,0.0010
2502.00,0.0009
2501.00,0.0008
2500.00,0.0008
2499.00,0.0008
2498.00,0.0009
2497.00,0.0009
2496.00,0.0009
2495.00,0.0009
2494.00,0.0009
2493.00,0.0009
2492.00,0.0009
2491.00,0.0009
2490.00,0.0009
2489.00,0.0009
2488.00,0.0009
2487.00,0.0009
2486.00,0.0009
2485.00,0.0008
2484.00,0.0008
2483.00,0.0008
2482.00,0.0008
2481.00,0.0008
2480.00,0.0008
2479.00,0.0008
2478.00,0.0008
2477.00,0.0008
2476.00,0.0008
2475.00,0.0009
2474.00,0.0008
2473.00,0.0008
2472.00,0.0007
2471.00,0.0006
2470.00,0.0006
2469.00,0.0006
2468.00,0.0007
2467.00,0.0007
2466.00,0.0008
2465.00,0.0008
2464.00,0.0009
2463.00,0.0009
2462.00,0.0010
2461.00,0.0010
2460.00,0.0010
2459.00,0.0010
2458.00,0.0010
2457.00,0.0010
2456.00,0.0011
2455.00,0.0011
2454.00,0.0011
2453.00,0.0011
2452.00,0.0010
2451.00,0.0010
2450.00,0.0009
2449.00,0.0009
2448.00,0.0009
2447.00,0.0009
2446.00,0.0009
2445.00,0.0009
2444.00,0.0009
2443.00,0.0010
2442.00,0.0010
2441.00,0.0010
2440.00,0.0010
2439.00,0.0010
2438.00,0.0010
2437.00,0.0011
2436.00,0.0011
2435.00,0.0011
2434.00,0.0011
2433.00,0.0012
2432.00,0.0012
2431.00,0.0012
2430.00,0.0012
2429.00,0.0012
2428.00,0.0012
2427.00,0.0011
2426.00,0.0012
2425.00,0.0012
2424.00,0.0011
2423.00,0.0010
2422.00,0.0009
2421.00,0.0008
2420.00,0.0008
2419.00,0.0008
2418.00,0.0009
2417.00,0.0010
2416.00,0.0010
2415.00,0.0010
2414.00,0.0009
2413.00,0.0009
2412.00,0.0009
2411.00,0.0009
2410.00,0.0008
2409.00,0.0008
2408.00,0.0008
2407.00,0.0007
2406.00,0.0007
2405.00,0.0007
2404.00,0.0007
2403.00,0.0007
2402.00,0.0007
2401.00,0.0007
2400.00,0.0007
2399.00,0.0007
2398.00,0.0007
2397.00,0.0007
2396.00,0.0008
2395.00,0.0008
2394.00,0.0007
2393.00,0.0007
2392.00,0.0007
2391.00,0.0007
2390.00,0.0007
2389.00,0.0007
2388.00,0.0006
2387.00,0.0006
2386.00,0.0006
2385.00,0.0005
2384.00,0.0005
2383.00,0.0005
2382.00,0.0004
2381.00,0.0004
2380.00,0.0004
2379.00,0.0004
2378.00,0.0004
2377.00,0.0004
2376.00,0.0004
2375.00,0.0004
2374.00,0.0004
2373.00,0.0004
2372.00,0.0004
2371.00,0.0003
2370.00,0.0003
2369.00,0.0003
2368.00,0.0003
2367.00,0.0003
2366.00,0.0004
2365.00,0.0005
2364.00,0.0005
2363.00,0.0005
2362.00,0.0004
2361.00,0.0003
2360.00,0.0003
2359.00,0.0003
2358.00,0.0004
2357.00,0.0005
2356.00,0.0005
2355.00,0.0005
2354.00,0.0005
2353.00,0.0005
2352.00,0.0005
2351.00,0.0005
2350.00,0.0005
2349.00,0.0005
2348.00,0.0005
2347.00,0.0006
2346.00,0.0006
2345.00,0.0006
2344.00,0.0007
2343.00,0.0007
2342.00,0.0007
2341.00,0.0008
2340.00,0.0008
2339.00,0.0008
2338.00,0.0007
2337.00,0.0007
2336.00,0.0007
2335.00,0.0007
2334.00,0.0008
2333.00,0.0008
2332.00,0.0008
2331.00,0.0007
2330.00,0.0007
2329.00,0.0007
2328.00,0.0009
2327.00,0.0013
2326.00,0.0017
2325.00,0.0021
2324.00,0.0023
2323.00,0.0022
2322.00,0.0020
2321.00,0.0018
2320.00,0.0017
2319.00,0.0016
2318.00,0.0015
2317.00,0.0014
2316.00,0.0013
2315.00,0.0013
2314.00,0.0012
2313.00,0.0011
2312.00,0.0010
2311.00,0.0009
2310.00,0.0009
2309.00,0.0009
2308.00,0.0010
2307.00,0.0011
2306.00,0.0011
2305.00,0.0012
2304.00,0.0012
2303.00,0.0012
2302.00,0.0011
2301.00,0.0010
2300.00,0.0010
2299.00,0.0010
2298.00,0.0011
2297.00,0.0012
2296.00,0.0014
2295.00,0.0015
2294.00,0.0015
2293.00,0.0015
2292.00,0.0016
2291.00,0.0017
2290.00,0.0018
2289.00,0.0019
2288.00,0.0019
2287.00,0.0019
2286.00,0.0019
2285.00,0.0018
2284.00,0.0018
2283.00,0.0018
2282.00,0.0017
2281.00,0.0016
2280.00,0.0015
2279.00,0.0014
2278.00,0.0013
2277.00,0.0013
2276.00,0.0013
2275.00,0.0012
2274.00,0.0012
2273.00,0.0013
2272.00,0.0014
2271.00,0.0014
2270.00,0.0015
2269.00,0.0015
2268.00,0.0014
2267.00,0.0014
2266.00,0.0013
2265.00,0.0012
2264.00,0.0012
2263.00,0.0012
2262.00,0.0012
2261.00,0.0011
2260.00,0.0011
2259.00,0.0010
2258.00,0.0011
2257.00,0.0011
2256.00,0.0010
2255.00,0.0009
2254.00,0.0009
2253.00,0.0008
2252.00,0.0008
2251.00,0.0008
2250.00,0.0007
2249.00,0.0006
2248.00,0.0006
2247.00,0.0006
2246.00,0.0007
2245.00,0.0008
2244.00,0.0009
2243.00,0.0010
2242.00,0.0010
2241.00,0.0010
2240.00,0.0010
2239.00,0.0009
2238.00,0.0010
2237.00,0.0010
2236.00,0.0010
2235.00,0.0011
2234.00,0.0010
2233.00,0.0010
2232.00,0.0009
2231.00,0.0009
2230.00,0.0009
2229.00,0.0009
2228.00,0.0009
2227.00,0.0008
2226.00,0.0007
2225.00,0.0006
2224.00,0.0005
2223.00,0.0004
2222.00,0.0003
2221.00,0.0002
2220.00,0.0002
2219.00,0.0001
2218.00,0.0001
2217.00,0.0002
2216.00,0.0004
2215.00,0.0006
2214.00,0.0008
2213.00,0.0010
2212.00,0.0010
2211.00,0.0008
2210.00,0.0007
2209.00,0.0005
2208.00,0.0005
2207.00,0.0004
2206.00,0.0004
2205.00,0.0005
2204.00,0.0007
2203.00,0.0008
2202.00,0.0010
2201.00,0.0010
2200.00,0.0010
2199.00,0.0010
2198.00,0.0009
2197.00,0.0008
2196.00,0.0008
2195.00,0.0008
2194.00,0.0007
2193.00,0.0008
2192.00,0.0010
2191.00,0.0011
2190.00,0.0010
2189.00,0.0008
2188.00,0.0007
2187.00,0.0006
2186.00,0.0006
2185.00,0.0006
2184.00,0.0004
2183.00,0.0001
2182.00,-0.0001
2181.00,-0.0001
2180.00,0.0001
2179.00,0.0002
2178.00,0.0003
2177.00,0.0003
2176.00,0.0004
2175.00,0.0004
2174.00,0.0006
2173.00,0.0007
2172.00,0.0009
2171.00,0.0010
2170.00,0.0012
2169.00,0.0015
2168.00,0.0017
2167.00,0.0018
2166.00,0.0018
2165.00,0.0019
2164.00,0.0020
2163.00,0.0022
2162.00,0.0022
2161.00,0.0015
2160.00,0.0000
2159.00,-0.0018
2158.00,-0.0031
2157.00,-0.0034
2156.00,-0.0030
2155.00,-0.0024
2154.00,-0.0019
2153.00,-0.0016
2152.00,-0.0015
2151.00,-0.0015
2150.00,-0.0015
2149.00,-0.0015
2148.00,-0.0014
2147.00,-0.0015
2146.00,-0.0017
2145.00,-0.0018
2144.00,-0.0017
2143.00,-0.0015
2142.00,-0.0013
2141.00,-0.0012
2140.00,-0.0012
2139.00,-0.0012
2138.00,-0.0013
2137.00,-0.0014
2136.00,-0.0017
2135.00,-0.0020
2134.00,-0.0021
2133.00,-0.0021
2132.00,-0.0019
2131.00,-0.0016
2130.00,-0.0015
2129.00,-0.0013
2128.00,-0.0012
2127.00,-0.0010
2126.00,-0.0008
2125.00,-0.0006
2124.00,-0.0005
2123.00,-0.0003
2122.00,-0.0002
2121.00,-0.0002
2120.00,-0.0002
2119.00,-0.0003
2118.00,-0.0004
2117.00,-0.0003
2116.00,-0.0001
2115.00,0.0001
2114.00,0.0003
2113.00,0.0003
2112.00,0.0003
2111.00,0.0002
2110.00,0.0001
2109.00,-0.0000
2108.00,-0.0001
2107.00,-0.0001
2106.00,-0.0000
2105.00,0.0001
2104.00,0.0003
2103.00,0.0004
2102.00,0.0003
2101.00,0.0002
2100.00,0.0001
2099.00,0.0001
2098.00,0.0001
2097.00,0.0000
2096.00,-0.0001
2095.00,-0.0002
2094.00,-0.0003
2093.00,-0.0002
2092.00,-0.0001
2091.00,0.0001
2090.00,0.0001
2089.00,0.0002
2088.00,0.0002
2087.00,0.0001
2086.00,0.0000
2085.00,0.0000
2084.00,0.0000
2083.00,0.0001
2082.00,0.0001
2081.00,0.0002
2080.00,0.0003
2079.00,0.0002
2078.00,0.0001
2077.00,-0.0000
2076.00,0.0000
2075.00,0.0001
2074.00,0.0001
2073.00,0.0001
2072.00,-0.0000
2071.00,-0.0001
2070.00,-0.0001
2069.00,-0.0001
2068.00,-0.0000
2067.00,-0.0000
2066.00,-0.0001
2065.00,-0.0001
2064.00,-0.0001
2063.00,-0.0001
2062.00,-0.0001
2061.00,-0.0001
2060.00,-0.0001
2059.00,-0.0001
2058.00,-0.0001
2057.00,-0.0001
2056.00,-0.0000
2055.00,-0.0000
2054.00,0.0001
2053.00,0.0004
2052.00,0.0009
2051.00,0.0012
2050.00,0.0012
2049.00,0.0009
2048.00,0.0006
2047.00,0.0003
2046.00,0.0000
2045.00,-0.0001
2044.00,-0.0001
2043.00,-0.0000
2042.00,0.0002
2041.00,0.0004
2040.00,0.0006
2039.00,0.0007
2038.00,0.0005
2037.00,0.0001
2036.00,-0.0002
2035.00,-0.0005
2034.00,-0.0006
2033.00,-0.0006
2032.00,-0.0005
2031.00,-0.0006
2030.00,-0.0008
2029.00,-0.0008
2028.00,-0.0006
2027.00,-0.0005
2026.00,-0.0005
2025.00,-0.0005
2024.00,-0.0004
2023.00,-0.0004
2022.00,-0.0006
2021.00,-0.0008
2020.00,-0.0010
2019.00,-0.0013
2018.00,-0.0015
2017.00,-0.0015
2016.00,-0.0013
2015.00,-0.0010
2014.00,-0.0008
2013.00,-0.0008
2012.00,-0.0008
2011.00,-0.0009
2010.00,-0.0010
2009.00,-0.0012
2008.00,-0.0014
2007.00,-0.0014
2006.00,-0.0014
2005.00,-0.0013
2004.00,-0.0012
2003.00,-0.0012
2002.00,-0.0014
2001.00,-0.0015
2000.00,-0.0015
1999.00,-0.0014
1998.00,-0.0012
1997.00,-0.0011
1996.00,-0.0011
1995.00,-0.0011
1994.00,-0.0012
1993.00,-0.0012
1992.00,-0.0010
1991.00,-0.0009
1990.00,-0.0007
1989.00,-0.0004
1988.00,-0.0002
1987.00,-0.0001
1986.00,0.0000
1985.00,0.0000
1984.00,0.0000
1983.00,0.0001
1982.00,0.0004
1981.00,0.0009
1980.00,0.0012
1979.00,0.0010
1978.00,0.0004
1977.00,-0.0004
1976.00,-0.0011
1975.00,-0.0016
1974.00,-0.0019
1973.00,-0.0019
1972.00,-0.0017
1971.00,-0.0015
1970.00,-0.0012
1969.00,-0.0010
1968.00,-0.0008
1967.00,-0.0006
1966.00,-0.0006
1965.00,-0.0008
1964.00,-0.0011
1963.00,-0.0015
1962.00,-0.0019
1961.00,-0.0021
1960.00,-0.0021
1959.00,-0.0021
1958.00,-0.0020
1957.00,-0.0019
1956.00,-0.0018
1955.00,-0.0018
1954.00,-0.0018
1953.00,-0.0018
1952.00,-0.0018
1951.00,-0.0018
1950.00,-0.0018
1949.00,-0.0017
1948.00,-0.0017
1947.00,-0.0019
1946.00,-0.0022
1945.00,-0.0023
1944.00,-0.0022
1943.00,-0.0020
1942.00,-0.0017
1941.00,-0.0015
1940.00,-0.0014
1939.00,-0.0014
1938.00,-0.0014
1937.00,-0.0013
1936.00,-0.0012
1935.00,-0.0011
1934.00,-0.0010
1933.00,-0.0010
1932.00,-0.0010
1931.00,-0.0009
1930.00,-0.0009
1929.00,-0.0008
1928.00,-0.0007
1927.00,-0.0006
1926.00,-0.0005
1925.00,-0.0005
1924.00,-0.0005
1923.00,-0.0005
1922.00,-0.0006
1921.00,-0.0006
1920.00,-0.0006
1919.00,-0.0005
1918.00,-0.0005
1917.00,-0.0004
1916.00,-0.0004
1915.00,-0.0004
1914.00,-0.0004
1913.00,-0.0003
1912.00,-0.0003
1911.00,-0.0004
1910.00,-0.0004
1909.00,-0.0004
1908.00,-0.0004
1907.00,-0.0003
1906.00,-0.0003
1905.00,-0.0003
1904.00,-0.0003
1903.00,-0.0003
1902.00,-0.0003
1901.00,-0.0003
1900.00,-0.0003
1899.00,-0.0003
1898.00,-0.0003
1897.00,-0.0004
1896.00,-0.0004
1895.00,-0.0003
1894.00,-0.0003
1893.00,-0.0003
1892.00,-0.0002
1891.00,-0.0002
1890.00,-0.0001
1889.00,-0.0001
1888.00,-0.0000
1887.00,-0.0000
1886.00,-0.0001
1885.00,-0.0001
1884.00,-0.0001
1883.00,-0.0001
1882.00,-0.0001
1881.00,-0.0001
1880.00,0.0000
1879.00,0.0001
1878.00,0.0001
1877.00,0.0001
1876.00,-0.0000
1875.00,-0.0001
1874.00,-0.0002
1873.00,-0.0001
1872.00,-0.0001
1871.00,0.0000
1870.00,0.0000
1869.00,0.0000
1868.00,-0.0000
1867.00,-0.0001
1866.00,-0.0001
1865.00,-0.0002
1864.00,-0.0001
1863.00,-0.0001
1862.00,-0.0001
1861.00,-0.0001
1860.00,-0.0002
1859.00,-0.0002
1858.00,-0.0002
1857.00,-0.0000
1856.00,0.0001
1855.00,0.0001
1854.00,0.0001
1853.00,-0.0000
1852.00,-0.0001
1851.00,-0.0001
1850.00,-0.0002
1849.00,-0.0001
1848.00,-0.0000
1847.00,0.0000
1846.00,0.0001
1845.00,0.0001
1844.00,0.0001
1843.00,0.0000
1842.00,0.0000
1841.00,0.0001
1840.00,0.0001
1839.00,0.0001
1838.00,0.0001
1837.00,0.0001
1836.00,0.0001
1835.00,0.0001
1834.00,0.0001
1833.00,0.0002
1832.00,0.0002
1831.00,0.0002
1830.00,0.0002
1829.00,0.0003
1828.00,0.0003
1827.00,0.0003
1826.00,0.0002
1825.00,0.0003
1824.00,0.0003
1823.00,0.0003
1822.00,0.0003
1821.00,0.0003
1820.00,0.0002
1819.00,0.0000
1818.00,-0.0001
1817.00,-0.0002
1816.00,-0.0002
1815.00,-0.0002
1814.00,-0.0001
1813.00,0.0000
1812.00,0.0001
1811.00,0.0001
1810.00,0.0001
1809.00,0.0001
1808.00,0.0001
1807.00,0.0001
1806.00,0.0002
1805.00,0.0002
1804.00,0.0002
1803.00,0.0003
1802.00,0.0002
1801.00,0.0002
1800.00,0.0002
1799.00,0.0003
1798.00,0.0003
1797.00,0.0003
1796.00,0.0003
1795.00,0.0003
1794.00,0.0003
1793.00,0.0004
1792.00,0.0004
1791.00,0.0005
1790.00,0.0005
1789.00,0.0006
1788.00,0.0006
1787.00,0.0006
1786.00,0.0007
1785.00,0.0007
1784.00,0.0007
1783.00,0.0006
1782.00,0.0006
1781.00,0.0006
1780.00,0.0006
1779.00,0.0007
1778.00,0.0007
1777.00,0.0007
1776.00,0.0007
1775.00,0.0007
1774.00,0.0007
1773.00,0.0007
1772.00,0.0007
1771.00,0.0008
1770.00,0.0008
1769.00,0.0008
1768.00,0.0009
1767.00,0.0009
1766.00,0.0009
1765.00,0.0009
1764.00,0.0009
1763.00,0.0009
1762.00,0.0010
1761.00,0.0010
1760.00,0.0010
1759.00,0.0011
1758.00,0.0011
1757.00,0.0012
1756.00,0.0012
1755.00,0.0012
1754.00,0.0011
1753.00,0.0012
1752.00,0.0012
1751.00,0.0013
1750.00,0.0014
1749.00,0.0014
1748.00,0.0015
1747.00,0.0016
1746.00,0.0017
1745.00,0.0017
1744.00,0.0018
1743.00,0.0019
1742.00,0.0020
1741.00,0.0021
1740.00,0.0022
1739.00,0.0023
1738.00,0.0023
1737.00,0.0023
1736.00,0.0023
1735.00,0.0023
1734.00,0.0024
1733.00,0.0024
1732.00,0.0023
1731.00,0.0023
1730.00,0.0023
1729.00,0.0023
1728.00,0.0024
1727.00,0.0024
1726.00,0.0024
1725.00,0.0025
1724.00,0.0025
1723.00,0.0026
1722.00,0.0026
1721.00,0.0025
1720.00,0.0025
1719.00,0.0024
1718.00,0.0024
1717.00,0.0024
1716.00,0.0023
1715.00,0.0023
1714.00,0.0023
1713.00,0.0022
1712.00,0.0023
1711.00,0.0023
1710.00,0.0023
1709.00,0.0023
1708.00,0.0023
1707.00,0.0023
1706.00,0.0023
1705.00,0.0023
1704.00,0.0024
1703.00,0.0024
1702.00,0.0024
1701.00,0.0024
1700.00,0.0025
1699.00,0.0025
1698.00,0.0025
1697.00,0.0026
1696.00,0.0027
1695.00,0.0027
1694.00,0.0028
1693.00,0.0028
1692.00,0.0028
1691.00,0.0029
1690.00,0.0030
1689.00,0.0031
1688.00,0.0031
1687.00,0.0031
1686.00,0.0032
1685.00,0.0033
1684.00,0.0034
1683.00,0.0035
1682.00,0.0036
1681.00,0.0036
1680.00,0.0037
1679.00,0.0038
1678.00,0.0040
1677.00,0.0041
1676.00,0.0042
1675.00,0.0043
1674.00,0.0044
1673.00,0.0044
1672.00,0.0044
1671.00,0.0044
1670.00,0.0044
1669.00,0.0045
1668.00,0.0046
1667.00,0.0046
1666.00,0.0047
1665.00,0.0047
1664.00,0.0047
1663.00,0.0047
1662.00,0.0048
1661.00,0.0048
1660.00,0.0049
1659.00,0.0050
1658.00,0.0050
1657.00,0.0051
1656.00,0.0051
1655.00,0.0052
1654.00,0.0053
1653.00,0.0054
1652.00,0.0056
1651.00,0.0056
1650.00,0.0057
1649.00,0.0057
1648.00,0.0059
1647.00,0.0061
1646.00,0.0062
1645.00,0.0062
1644.00,0.0062
1643.00,0.0062
1642.00,0.0062
1641.00,0.0063
1640.00,0.0063
1639.00,0.0063
1638.00,0.0063
1637.00,0.0063
1636.00,0.0064
1635.00,0.0065
1634.00,0.0065
1633.00,0.0064
1632.00,0.0064
1631.00,0.0063
1630.00,0.0062
1629.00,0.0061
1628.00,0.0060
1627.00,0.0059
1626.00,0.0059
1625.00,0.0058
1624.00,0.0058
1623.00,0.0058
1622.00,0.0058
1621.00,0.0058
1620.00,0.0057
1619.00,0.0056
1618.00,0.0056
1617.00,0.0055
1616.00,0.0055
1615.00,0.0055
1614.00,0.0055
1613.00,0.0055
1612.00,0.0056
1611.00,0.0056
1610.00,0.0056
1609.00,0.0056
1608.00,0.0056
1607.00,0.0056
1606.00,0.0055
1605.00,0.0055
1604.00,0.0055
1603.00,0.0055
1602.00,0.0055
1601.00,0.0055
1600.00,0.0055
1599.00,0.0056
1598.00,0.0055
1597.00,0.0055
1596.00,0.0054
1595.00,0.0054
1594.00,0.0053
1593.00,0.0053
1592.00,0.0053
1591.00,0.0053
1590.00,0.0053
1589.00,0.0054
1588.00,0.0054
1587.00,0.0055
1586.00,0.0055
1585.00,0.0056
1584.00,0.0057
1583.00,0.0058
1582.00,0.0059
1581.00,0.0061
1580.00,0.0062
1579.00,0.0063
1578.00,0.0064
1577.00,0.0064
1576.00,0.0064
1575.00,0.0064
1574.00,0.0064
1573.00,0.0064
1572.00,0.0064
1571.00,0.0064
1570.00,0.0064
1569.00,0.0063
1568.00,0.0063
1567.00,0.0062
1566.00,0.0062
1565.00,0.0063
1564.00,0.0064
1563.00,0.0064
1562.00,0.0063
1561.00,0.0063
1560.00,0.0064
1559.00,0.0065
1558.00,0.0065
1557.00,0.0064
1556.00,0.0065
1555.00,0.0065
1554.00,0.0065
1553.00,0.0066
1552.00,0.0067
1551.00,0.0067
1550.00,0.0067
1549.00,0.0068
1548.00,0.0069
1547.00,0.0070
1546.00,0.0071
1545.00,0.0072
1544.00,0.0073
1543.00,0.0073
1542.00,0.0072
1541.00,0.0072
1540.00,0.0071
1539.00,0.0069
1538.00,0.0067
1537.00,0.0066
1536.00,0.0064
1535.00,0.0063
1534.00,0.0060
1533.00,0.0059
1532.00,0.0057
1531.00,0.0056
1530.00,0.0054
1529.00,0.0053
1528.00,0.0053
1527.00,0.0052
1526.00,0.0051
1525.00,0.0051
1524.00,0.0052
1523.00,0.0052
1522.00,0.0052
1521.00,0.0051
1520.00,0.0051
1519.00,0.0051
1518.00,0.0052
1517.00,0.0053
1516.00,0.0054
1515.00,0.0054
1514.00,0.0054
1513.00,0.0055
1512.00,0.0056
1511.00,0.0057
1510.00,0.0057
1509.00,0.0058
1508.00,0.0058
1507.00,0.0059
1506.00,0.0059
1505.00,0.0061
1504.00,0.0063
1503.00,0.0064
1502.00,0.0066
1501.00,0.0069
1500.00,0.0071
1499.00,0.0073
1498.00,0.0075
1497.00,0.0078
1496.00,0.0081
1495.00,0.0084
1494.00,0.0086
1493.00,0.0090
1492.00,0.0094
1491.00,0.0097
1490.00,0.0101
1489.00,0.0106
1488.00,0.0111
1487.00,0.0116
1486.00,0.0122
1485.00,0.0128
1484.00,0.0135
1483.00,0.0143
1482.00,0.0152
1481.00,0.0163
1480.00,0.0175
1479.00,0.0187
1478.00,0.0202
1477.00,0.0223
1476.00,0.0248
1475.00,0.0278
1474.00,0.0319
1473.00,0.0376
1472.00,0.0443
1471.00,0.0508
1470.00,0.0572
1469.00,0.0638
1468.00,0.0710
1467.00,0.0788
1466.00,0.0877
1465.00,0.0972
1464.00,0.1054
1463.00,0.1111
1462.00,0.1146
1461.00,0.1170
1460.00,0.1185
1459.00,0.1194
1458.00,0.1201
1457.00,0.1205
1456.00,0.1202
1455.00,0.1193
1454.00,0.1181
1453.00,0.1164
1452.00,0.1137
1451.00,0.1098
1450.00,0.1045
1449.00,0.0973
1448.00,0.0882
1447.00,0.0787
1446.00,0.0701
1445.00,0.0628
1444.00,0.0565
1443.00,0.0514
1442.00,0.0475
1441.00,0.0448
1440.00,0.0433
1439.00,0.0427
1438.00,0.0429
1437.00,0.0431
1436.00,0.0422
1435.00,0.0398
1434.00,0.0363
1433.00,0.0320
1432.00,0.0275
1431.00,0.0236
1430.00,0.0205
1429.00,0.0182
1428.00,0.0166
1427.00,0.0156
1426.00,0.0149
1425.00,0.0143
1424.00,0.0137
1423.00,0.0134
1422.00,0.0132
1421.00,0.0129
1420.00,0.0127
1419.00,0.0125
1418.00,0.0123
1417.00,0.0120
1416.00,0.0117
1415.00,0.0115
1414.00,0.0114
1413.00,0.0113
1412.00,0.0112
1411.00,0.0111
1410.00,0.0110
1409.00,0.0109
1408.00,0.0108
1407.00,0.0107
1406.00,0.0108
1405.00,0.0108
1404.00,0.0108
1403.00,0.0109
1402.00,0.0111
1401.00,0.0112
1400.00,0.0113
1399.00,0.0115
1398.00,0.0117
1397.00,0.0118
1396.00,0.0120
1395.00,0.0123
1394.00,0.0128
1393.00,0.0133
1392.00,0.0138
1391.00,0.0146
1390.00,0.0156
1389.00,0.0170
1388.00,0.0190
1387.00,0.0221
1386.00,0.0263
1385.00,0.0318
1384.00,0.0395
1383.00,0.0505
1382.00,0.0654
1381.00,0.0849
1380.00,0.1093
1379.00,0.1370
1378.00,0.1635
1377.00,0.1827
1376.00,0.1886
1375.00,0.1784
1374.00,0.1552
1373.00,0.1277
1372.00,0.1027
1371.00,0.0822
1370.00,0.0660
1369.00,0.0538
1368.00,0.0454
1367.00,0.0402
1366.00,0.0373
1365.00,0.0362
1364.00,0.0364
1363.00,0.0377
1362.00,0.0398
1361.00,0.0421
1360.00,0.0439
1359.00,0.0444
1358.00,0.0434
1357.00,0.0409
1356.00,0.0374
1355.00,0.0334
1354.00,0.0296
1353.00,0.0263
1352.00,0.0236
1351.00,0.0214
1350.00,0.0196
1349.00,0.0181
1348.00,0.0169
1347.00,0.0159
1346.00,0.0150
1345.00,0.0143
1344.00,0.0137
1343.00,0.0132
1342.00,0.0128
1341.00,0.0124
1340.00,0.0121
1339.00,0.0118
1338.00,0.0116
1337.00,0.0116
1336.00,0.0117
1335.00,0.0120
1334.00,0.0124
1333.00,0.0128
1332.00,0.0133
1331.00,0.0136
1330.00,0.0137
1329.00,0.0136
1328.00,0.0133
1327.00,0.0128
1326.00,0.0122
1325.00,0.0116
1324.00,0.0111
1323.00,0.0106
1322.00,0.0102
1321.00,0.0098
1320.00,0.0096
1319.00,0.0094
1318.00,0.0092
1317.00,0.0091
1316.00,0.0090
1315.00,0.0090
1314.00,0.0090
1313.00,0.0090
1312.00,0.0091
1311.00,0.0094
1310.00,0.0098
1309.00,0.0104
1308.00,0.0114
1307.00,0.0124
1306.00,0.0135
1305.00,0.0142
1304.00,0.0144
1303.00,0.0141
1302.00,0.0136
1301.00,0.0132
1300.00,0.0129
1299.00,0.0129
1298.00,0.0129
1297.00,0.0130
1296.00,0.0129
1295.00,0.0128
1294.00,0.0124
1293.00,0.0119
1292.00,0.0114
1291.00,0.0109
1290.00,0.0104
1289.00,0.0100
1288.00,0.0096
1287.00,0.0093
1286.00,0.0090
1285.00,0.0088
1284.00,0.0086
1283.00,0.0085
1282.00,0.0084
1281.00,0.0084
1280.00,0.0083
1279.00,0.0083
1278.00,0.0082
1277.00,0.0081
1276.00,0.0081
1275.00,0.0081
1274.00,0.0081
1273.00,0.0081
1272.00,0.0081
1271.00,0.0083
1270.00,0.0084
1269.00,0.0087
1268.00,0.0089
1267.00,0.0092
1266.00,0.0095
1265.00,0.0099
1264.00,0.0103
1263.00,0.0107
1262.00,0.0110
1261.00,0.0114
1260.00,0.0118
1259.00,0.0123
1258.00,0.0129
1257.00,0.0133
1256.00,0.0135
1255.00,0.0132
1254.00,0.0126
1253.00,0.0118
1252.00,0.0110
1251.00,0.0103
1250.00,0.0097
1249.00,0.0093
1248.00,0.0090
1247.00,0.0087
1246.00,0.0085
1245.00,0.0084
1244.00,0.0082
1243.00,0.0081
1242.00,0.0080
1241.00,0.0079
1240.00,0.0078
1239.00,0.0078
1238.00,0.0077
1237.00,0.0077
1236.00,0.0077
1235.00,0.0076
1234.00,0.0076
1233.00,0.0077
1232.00,0.0077
1231.00,0.0078
1230.00,0.0079
1229.00,0.0080
1228.00,0.0081
1227.00,0.0083
1226.00,0.0085
1225.00,0.0087
1224.00,0.0091
1223.00,0.0094
1222.00,0.0098
1221.00,0.0101
1220.00,0.0103
1219.00,0.0104
1218.00,0.0104
1217.00,0.0102
1216.00,0.0098
1215.00,0.0095
1214.00,0.0091
1213.00,0.0088
1212.00,0.0085
1211.00,0.0083
1210.00,0.0082
1209.00,0.0080
1208.00,0.0079
1207.00,0.0078
1206.00,0.0077
1205.00,0.0076
1204.00,0.0076
1203.00,0.0075
1202.00,0.0076
1201.00,0.0076
1200.00,0.0076
1199.00,0.0076
1198.00,0.0076
1197.00,0.0077
1196.00,0.0077
1195.00,0.0077
1194.00,0.0077
1193.00,0.0077
1192.00,0.0077
1191.00,0.0077
1190.00,0.0077
1189.00,0.0077
1188.00,0.0077
1187.00,0.0077
1186.00,0.0078
1185.00,0.0080
1184.00,0.0081
1183.00,0.0082
1182.00,0.0084
1181.00,0.0087
1180.00,0.0091
1179.00,0.0096
1178.00,0.0102
1177.00,0.0110
1176.00,0.0121
1175.00,0.0135
1174.00,0.0153
1173.00,0.0176
1172.00,0.0205
1171.00,0.0236
1170.00,0.0266
1169.00,0.0290
1168.00,0.0304
1167.00,0.0306
1166.00,0.0297
1165.00,0.0282
1164.00,0.0265
1163.00,0.0248
1162.00,0.0234
1161.00,0.0222
1160.00,0.0213
1159.00,0.0207
1158.00,0.0204
1157.00,0.0201
1156.00,0.0200
1155.00,0.0199
1154.00,0.0198
1153.00,0.0196
1152.00,0.0191
1151.00,0.0185
1150.00,0.0177
1149.00,0.0168
1148.00,0.0159
1147.00,0.0149
1146.00,0.0141
1145.00,0.0133
1144.00,0.0126
1143.00,0.0120
1142.00,0.0115
1141.00,0.0111
1140.00,0.0106
1139.00,0.0102
1138.00,0.0098
1137.00,0.0095
1136.00,0.0093
1135.00,0.0092
1134.00,0.0090
1133.00,0.0088
1132.00,0.0087
1131.00,0.0086
1130.00,0.0087
1129.00,0.0089
1128.00,0.0090
1127.00,0.0092
1126.00,0.0093
1125.00,0.0094
1124.00,0.0095
1123.00,0.0095
1122.00,0.0096
1121.00,0.0096
1120.00,0.0096
1119.00,0.0096
1118.00,0.0097
1117.00,0.0099
1116.00,0.0101
1115.00,0.0103
1114.00,0.0105
1113.00,0.0107
1112.00,0.0109
1111.00,0.0111
1110.00,0.0114
1109.00,0.0118
1108.00,0.0123
1107.00,0.0128
1106.00,0.0135
1105.00,0.0141
1104.00,0.0146
1103.00,0.0149
1102.00,0.0149
1101.00,0.0146
1100.00,0.0141
1099.00,0.0135
1098.00,0.0129
1097.00,0.0123
1096.00,0.0118
1095.00,0.0114
1094.00,0.0110
1093.00,0.0107
1092.00,0.0104
1091.00,0.0103
1090.00,0.0102
1089.00,0.0101
1088.00,0.0100
1087.00,0.0100
1086.00,0.0099
1085.00,0.0099
1084.00,0.0098
1083.00,0.0097
1082.00,0.0096
1081.00,0.0095
1080.00,0.0093
1079.00,0.0092
1078.00,0.0092
1077.00,0.0092
1076.00,0.0092
1075.00,0.0091
1074.00,0.0090
1073.00,0.0089
1072.00,0.0089
1071.00,0.0088
1070.00,0.0088
1069.00,0.0088
1068.00,0.0088
1067.00,0.0089
1066.00,0.0090
1065.00,0.0091
1064.00,0.0091
1063.00,0.0091
1062.00,0.0092
1061.00,0.0092
1060.00,0.0093
1059.00,0.0094
1058.00,0.0095
1057.00,0.0096
1056.00,0.0098
1055.00,0.0100
1054.00,0.0103
1053.00,0.0105
1052.00,0.0108
1051.00,0.0111
1050.00,0.0116
1049.00,0.0120
1048.00,0.0124
1047.00,0.0128
1046.00,0.0133
1045.00,0.0136
1044.00,0.0137
1043.00,0.0136
1042.00,0.0133
1041.00,0.0130
1040.00,0.0127
1039.00,0.0125
1038.00,0.0124
1037.00,0.0124
1036.00,0.0125
1035.00,0.0125
1034.00,0.0125
1033.00,0.0125
1032.00,0.0124
1031.00,0.0123
1030.00,0.0122
1029.00,0.0122
1028.00,0.0123
1027.00,0.0123
1026.00,0.0125
1025.00,0.0126
1024.00,0.0128
1023.00,0.0130
1022.00,0.0133
1021.00,0.0135
1020.00,0.0136
1019.00,0.0137
1018.00,0.0138
1017.00,0.0138
1016.00,0.0138
1015.00,0.0138
1014.00,0.0137
1013.00,0.0137
1012.00,0.0136
1011.00,0.0136
1010.00,0.0136
1009.00,0.0137
1008.00,0.0139
1007.00,0.0143
1006.00,0.0149
1005.00,0.0159
1004.00,0.0174
1003.00,0.0195
1002.00,0.0224
1001.00,0.0259
1000.00,0.0298
999.00,0.0330
998.00,0.0345
997.00,0.0337
996.00,0.0309
995.00,0.0270
994.00,0.0230
993.00,0.0195
992.00,0.0169
991.00,0.0150
990.00,0.0138
989.00,0.0130
988.00,0.0125
987.00,0.0122
986.00,0.0121
985.00,0.0122
984.00,0.0126
983.00,0.0132
982.00,0.0141
981.00,0.0156
980.00,0.0175
979.00,0.0202
978.00,0.0236
977.00,0.0276
976.00,0.0320
975.00,0.0361
974.00,0.0391
973.00,0.0401
972.00,0.0386
971.00,0.0348
970.00,0.0299
969.00,0.0249
968.00,0.0207
967.00,0.0175
966.00,0.0152
965.00,0.0135
964.00,0.0122
963.00,0.0113
962.00,0.0105
961.00,0.0100
960.00,0.0097
959.00,0.0094
958.00,0.0092
957.00,0.0090
956.00,0.0087
955.00,0.0085
954.00,0.0083
953.00,0.0082
952.00,0.0081
951.00,0.0080
950.00,0.0080
949.00,0.0081
948.00,0.0081
947.00,0.0082
946.00,0.0083
945.00,0.0085
944.00,0.0088
943.00,0.0092
942.00,0.0095
941.00,0.0097
940.00,0.0097
939.00,0.0094
938.00,0.0089
937.00,0.0084
936.00,0.0078
935.00,0.0075
934.00,0.0071
933.00,0.0068
932.00,0.0065
931.00,0.0064
930.00,0.0064
929.00,0.0064
928.00,0.0064
927.00,0.0064
926.00,0.0064
925.00,0.0064
924.00,0.0064
923.00,0.0064
922.00,0.0063
921.00,0.0063
920.00,0.0063
919.00,0.0064
918.00,0.0065
917.00,0.0066
916.00,0.0066
915.00,0.0066
914.00,0.0067
913.00,0.0069
912.00,0.0071
911.00,0.0073
910.00,0.0075
909.00,0.0077
908.00,0.0080
907.00,0.0084
906.00,0.0091
905.00,0.0101
904.00,0.0116
903.00,0.0135
902.00,0.0154
901.00,0.0171
900.00,0.0182
899.00,0.0183
898.00,0.0175
897.00,0.0159
896.00,0.0140
895.00,0.0122
894.00,0.0107
893.00,0.0095
892.00,0.0087
891.00,0.0082
890.00,0.0080
889.00,0.0079
888.00,0.0079
887.00,0.0077
886.00,0.0075
885.00,0.0072
884.00,0.0070
883.00,0.0069
882.00,0.0068
881.00,0.0068
880.00,0.0069
879.00,0.0071
878.00,0.0075
877.00,0.0077
876.00,0.0079
875.00,0.0079
874.00,0.0078
873.00,0.0077
872.00,0.0077
871.00,0.0076
870.00,0.0077
869.00,0.0077
868.00,0.0077
867.00,0.0078
866.00,0.0079
865.00,0.0081
864.00,0.0082
863.00,0.0082
862.00,0.0083
861.00,0.0085
860.00,0.0086
859.00,0.0088
858.00,0.0089
857.00,0.0090
856.00,0.0090
855.00,0.0091
854.00,0.0094
853.00,0.0097
852.00,0.0100
851.00,0.0103
850.00,0.0108
849.00,0.0113
848.00,0.0122
847.00,0.0135
846.00,0.0154
845.00,0.0185
844.00,0.0228
843.00,0.0279
842.00,0.0322
841.00,0.0336
840.00,0.0314
839.00,0.0266
838.00,0.0213
837.00,0.0171
836.00,0.0145
835.00,0.0130
834.00,0.0121
833.00,0.0114
832.00,0.0110
831.00,0.0107
830.00,0.0106
829.00,0.0104
828.00,0.0104
827.00,0.0103
826.00,0.0102
825.00,0.0102
824.00,0.0101
823.00,0.0100
822.00,0.0101
821.00,0.0103
820.00,0.0107
819.00,0.0111
818.00,0.0116
817.00,0.0123
816.00,0.0132
815.00,0.0143
814.00,0.0159
813.00,0.0179
812.00,0.0201
811.00,0.0221
810.00,0.0236
809.00,0.0242
808.00,0.0237
807.00,0.0224
806.00,0.0204
805.00,0.0183
804.00,0.0164
803.00,0.0148
802.00,0.0137
801.00,0.0130
800.00,0.0124
799.00,0.0120
798.00,0.0116
797.00,0.0113
796.00,0.0109
795.00,0.0105
794.00,0.0100
793.00,0.0096
792.00,0.0092
791.00,0.0088
790.00,0.0086
789.00,0.0084
788.00,0.0082
787.00,0.0081
786.00,0.0079
785.00,0.0077
784.00,0.0076
783.00,0.0074
782.00,0.0072
781.00,0.0070
780.00,0.0069
779.00,0.0067
778.00,0.0066
777.00,0.0066
776.00,0.0067
775.00,0.0068
774.00,0.0069
773.00,0.0069
772.00,0.0068
771.00,0.0068
770.00,0.0068
769.00,0.0069
768.00,0.0069
767.00,0.0069
766.00,0.0068
765.00,0.0067
764.00,0.0065
763.00,0.0065
762.00,0.0066
761.00,0.0068
760.00,0.0070
759.00,0.0071
758.00,0.0072
757.00,0.0074
756.00,0.0076
755.00,0.0079
754.00,0.0081
753.00,0.0081
752.00,0.0082
751.00,0.0083
750.00,0.0084
749.00,0.0085
748.00,0.0085
747.00,0.0086
746.00,0.0087
745.00,0.0087
744.00,0.0089
743.00,0.0091
742.00,0.0095
741.00,0.0100
740.00,0.0103
739.00,0.0106
738.00,0.0108
737.00,0.0112
736.00,0.0116
735.00,0.0121
734.00,0.0126
733.00,0.0132
732.00,0.0139
731.00,0.0147
730.00,0.0154
729.00,0.0157
728.00,0.0158
727.00,0.0158
726.00,0.0159
725.00,0.0161
724.00,0.0164
723.00,0.0170
722.00,0.0177
721.00,0.0182
720.00,0.0181
719.00,0.0173
718.00,0.0161
717.00,0.0147
716.00,0.0134
715.00,0.0123
714.00,0.0117
713.00,0.0115
712.00,0.0115
711.00,0.0115
710.00,0.0114
709.00,0.0111
708.00,0.0107
707.00,0.0105
706.00,0.0103
705.00,0.0102
704.00,0.0101
703.00,0.0100
702.00,0.0100
701.00,0.0100
700.00,0.0099
699.00,0.0099
698.00,0.0098
697.00,0.0097
696.00,0.0096
695.00,0.0096
694.00,0.0098
693.00,0.0099
692.00,0.0100
691.00,0.0101
690.00,0.0101
689.00,0.0100
688.00,0.0099
687.00,0.0097
686.00,0.0096
685.00,0.0095
684.00,0.0097
683.00,0.0098
682.00,0.0099
681.00,0.0099
680.00,0.0098
679.00,0.0097
678.00,0.0096
677.00,0.0097
676.00,0.0098
675.00,0.0101
674.00,0.0104
673.00,0.0107
672.00,0.0109
671.00,0.0110
670.00,0.0110
669.00,0.0109
668.00,0.0107
667.00,0.0103
666.00,0.0099
665.00,0.0095
664.00,0.0094
663.00,0.0093
662.00,0.0093
661.00,0.0093
660.00,0.0093
659.00,0.0093
658.00,0.0093
657.00,0.0092
656.00,0.0091
655.00,0.0092
654.00,0.0094
653.00,0.0096
652.00,0.0097
651.00,0.0096
650.00,0.0094
649.00,0.0091
648.00,0.0089
647.00,0.0088
646.00,0.0086
645.00,0.0085
644.00,0.0085
643.00,0.0086
642.00,0.0087
641.00,0.0088
640.00,0.0088
639.00,0.0087
638.00,0.0085
637.00,0.0083
636.00,0.0081
635.00,0.0080
634.00,0.0080
633.00,0.0081
632.00,0.0084
631.00,0.0088
630.00,0.0092
629.00,0.0093
628.00,0.0091
627.00,0.0090
626.00,0.0088
625.00,0.0088
624.00,0.0089
623.00,0.0091
622.00,0.0091
621.00,0.0090
620.00,0.0088
619.00,0.0086
618.00,0.0084
617.00,0.0082
616.00,0.0081
615.00,0.0081
614.00,0.0082
613.00,0.0082
612.00,0.0084
611.00,0.0087
610.00,0.0091
609.00,0.0093
608.00,0.0092
607.00,0.0088
606.00,0.0084
605.00,0.0082
604.00,0.0083
603.00,0.0087
602.00,0.0090
601.00,0.0090
600.00,0.0087
599.00,0.0083
598.00,0.0082
597.00,0.0082
596.00,0.0081
595.00,0.0080
594.00,0.0079
593.00,0.0079
592.00,0.0080
591.00,0.0082
590.00,0.0085
589.00,0.0086
588.00,0.0085
587.00,0.0083
586.00,0.0081
585.00,0.0080
584.00,0.0080
583.00,0.0081
582.00,0.0083
581.00,0.0085
580.00,0.0087
579.00,0.0087
578.00,0.0086
577.00,0.0084
576.00,0.0081
575.00,0.0078
574.00,0.0077
573.00,0.0078
572.00,0.0082
571.00,0.0086
570.00,0.0088
569.00,0.0088
568.00,0.0086
567.00,0.0085
566.00,0.0085
565.00,0.0086
564.00,0.0085
563.00,0.0084
562.00,0.0083
561.00,0.0083
560.00,0.0083
559.00,0.0083
558.00,0.0083
557.00,0.0083
556.00,0.0084
555.00,0.0087
554.00,0.0091
553.00,0.0095
552.00,0.0096
551.00,0.0096
550.00,0.0095
549.00,0.0094
548.00,0.0093
547.00,0.0093
546.00,0.0094
545.00,0.0095
544.00,0.0096
543.00,0.0097
542.00,0.0097
541.00,0.0098
540.00,0.0100
539.00,0.0104
538.00,0.0109
537.00,0.0115
536.00,0.0118
535.00,0.0120
534.00,0.0120
533.00,0.0121
532.00,0.0119
531.00,0.0117
530.00,0.0117
529.00,0.0121
528.00,0.0127
527.00,0.0130
526.00,0.0126
525.00,0.0118
524.00,0.0110
523.00,0.0104
522.00,0.0100
521.00,0.0095
520.00,0.0089
519.00,0.0081
518.00,0.0076
517.00,0.0079
516.00,0.0087
515.00,0.0095
514.00,0.0099
513.00,0.0096
512.00,0.0089
511.00,0.0085
510.00,0.0083
509.00,0.0083
508.00,0.0085
507.00,0.0089
506.00,0.0096
505.00,0.0102
504.00,0.0102
503.00,0.0097
502.00,0.0092
501.00,0.0091
500.00,0.0094
499.00,0.0099
498.00,0.0103
497.00,0.0102
496.00,0.0095
495.00,0.0084
494.00,0.0075
493.00,0.0077
492.00,0.0087
491.00,0.0094
490.00,0.0090
489.00,0.0080
488.00,0.0071
487.00,0.0071
486.00,0.0077
485.00,0.0088
484.00,0.0098
483.00,0.0106
482.00,0.0110
481.00,0.0107
480.00,0.0101
479.00,0.0096
478.00,0.0097
477.00,0.0106
476.00,0.0116
475.00,0.0121
474.00,0.0121
473.00,0.0120
472.00,0.0123
471.00,0.0133
470.00,0.0144
469.00,0.0152
468.00,0.0156
467.00,0.0157
466.00,0.0159
465.00,0.0164
464.00,0.0171
463.00,0.0177
462.00,0.0183
461.00,0.0188
460.00,0.0192
459.00,0.0188
458.00,0.0176
457.00,0.0165
456.00,0.0167
455.00,0.0178
454.00,0.0189
453.00,0.0190
452.00,0.0179
451.00,0.0164
450.00,0.0151
