Created as New Dataset,Sample 058 By Administrator Date Thursday, September 04 2025
cm-1,A
4000.00,0.0008
3999.00,0.0008
3998.00,0.0008
3997.00,0.0008
3996.00,0.0008
3995.00,0.0008
3994.00,0.0008
3993.00,0.0008
3992.00,0.0008
3991.00,0.0008
3990.00,0.0008
3989.00,0.0007
3988.00,0.0007
3987.00,0.0007
3986.00,0.0007
3985.00,0.0006
3984.00,0.0007
3983.00,0.0007
3982.00,0.0007
3981.00,0.0008
3980.00,0.0008
3979.00,0.0008
3978.00,0.0008
3977.00,0.0007
3976.00,0.0007
3975.00,0.0007
3974.00,0.0006
3973.00,0.0006
3972.00,0.0006
3971.00,0.0006
3970.00,0.0006
3969.00,0.0006
3968.00,0.0006
3967.00,0.0006
3966.00,0.0006
3965.00,0.0007
3964.00,0.0007
3963.00,0.0007
3962.00,0.0007
3961.00,0.0007
3960.00,0.0007
3959.00,0.0007
3958.00,0.0007
3957.00,0.0007
3956.00,0.0007
3955.00,0.0007
3954.00,0.0007
3953.00,0.0007
3952.00,0.0007
3951.00,0.0007
3950.00,0.0007
3949.00,0.0007
3948.00,0.0007
3947.00,0.0006
3946.00,0.0006
3945.00,0.0006
3944.00,0.0006
3943.00,0.0006
3942.00,0.0006
3941.00,0.0006
3940.00,0.0006
3939.00,0.0006
3938.00,0.0006
3937.00,0.0006
3936.00,0.0006
3935.00,0.0006
3934.00,0.0006
3933.00,0.0007
3932.00,0.0007
3931.00,0.0007
3930.00,0.0006
3929.00,0.0006
3928.00,0.0006
3927.00,0.0006
3926.00,0.0006
3925.00,0.0006
3924.00,0.0006
3923.00,0.0006
3922.00,0.0006
3921.00,0.0006
3920.00,0.0006
3919.00,0.0006
3918.00,0.0006
3917.00,0.0006
3916.00,0.0006
3915.00,0.0006
3914.00,0.0006
3913.00,0.0006
3912.00,0.0006
3911.00,0.0006
3910.00,0.0006
3909.00,0.0006
3908.00,0.0006
3907.00,0.0006
3906.00,0.0006
3905.00,0.0006
3904.00,0.0006
3903.00,0.0006
3902.00,0.0005
3901.00,0.0005
3900.00,0.0005
3899.00,0.0005
3898.00,0.0005
3897.00,0.0005
3896.00,0.0005
3895.00,0.0006
3894.00,0.0006
3893.00,0.0006
3892.00,0.0006
3891.00,0.0006
3890.00,0.0006
3889.00,0.0006
3888.00,0.0006
3887.00,0.0006
3886.00,0.0006
3885.00,0.0006
3884.00,0.0006
3883.00,0.0006
3882.00,0.0006
3881.00,0.0005
3880.00,0.0005
3879.00,0.0005
3878.00,0.0005
3877.00,0.0005
3876.00,0.0005
3875.00,0.0005
3874.00,0.0005
3873.00,0.0005
3872.00,0.0006
3871.00,0.0005
3870.00,0.0005
3869.00,0.0005
3868.00,0.0005
3867.00,0.0005
3866.00,0.0005
3865.00,0.0005
3864.00,0.0005
3863.00,0.0005
3862.00,0.0005
3861.00,0.0005
3860.00,0.0005
3859.00,0.0005
3858.00,0.0005
3857.00,0.0006
3856.00,0.0006
3855.00,0.0006
3854.00,0.0006
3853.00,0.0006
3852.00,0.0005
3851.00,0.0005
3850.00,0.0005
3849.00,0.0005
3848.00,0.0005
3847.00,0.0004
3846.00,0.0004
3845.00,0.0004
3844.00,0.0004
3843.00,0.0004
3842.00,0.0004
3841.00,0.0004
3840.00,0.0004
3839.00,0.0004
3838.00,0.0004
3837.00,0.0004
3836.00,0.0004
3835.00,0.0004
3834.00,0.0004
3833.00,0.0004
3832.00,0.0004
3831.00,0.0004
3830.00,0.0004
3829.00,0.0003
3828.00,0.0003
3827.00,0.0003
3826.00,0.0004
3825.00,0.0004
3824.00,0.0004
3823.00,0.0004
3822.00,0.0004
3821.00,0.0004
3820.00,0.0004
3819.00,0.0004
3818.00,0.0005
3817.00,0.0005
3816.00,0.0005
3815.00,0.0006
3814.00,0.0006
3813.00,0.0006
3812.00,0.0006
3811.00,0.0006
3810.00,0.0006
3809.00,0.0005
3808.00,0.0005
3807.00,0.0005
3806.00,0.0005
3805.00,0.0005
3804.00,0.0005
3803.00,0.0004
3802.00,0.0004
3801.00,0.0004
3800.00,0.0004
3799.00,0.0005
3798.00,0.0005
3797.00,0.0005
3796.00,0.0005
3795.00,0.0006
3794.00,0.0006
3793.00,0.0006
3792.00,0.0006
3791.00,0.0006
3790.00,0.0006
3789.00,0.0006
3788.00,0.0005
3787.00,0.0005
3786.00,0.0004
3785.00,0.0004
3784.00,0.0004
3783.00,0.0004
3782.00,0.0003
3781.00,0.0003
3780.00,0.0003
3779.00,0.0004
3778.00,0.0004
3777.00,0.0005
3776.00,0.0005
3775.00,0.0005
3774.00,0.0005
3773.00,0.0005
3772.00,0.0005
3771.00,0.0005
3770.00,0.0006
3769.00,0.0006
3768.00,0.0006
3767.00,0.0006
3766.00,0.0006
3765.00,0.0006
3764.00,0.0006
3763.00,0.0006
3762.00,0.0006
3761.00,0.0006
3760.00,0.0006
3759.00,0.0006
3758.00,0.0005
3757.00,0.0005
3756.00,0.0005
3755.00,0.0004
3754.00,0.0004
3753.00,0.0004
3752.00,0.0004
3751.00,0.0004
3750.00,0.0004
3749.00,0.0004
3748.00,0.0004
3747.00,0.0004
3746.00,0.0005
3745.00,0.0005
3744.00,0.0005
3743.00,0.0005
3742.00,0.0005
3741.00,0.0005
3740.00,0.0005
3739.00,0.0005
3738.00,0.0005
3737.00,0.0004
3736.00,0.0004
3735.00,0.0004
3734.00,0.0004
3733.00,0.0004
3732.00,0.0004
3731.00,0.0005
3730.00,0.0005
3729.00,0.0004
3728.00,0.0004
3727.00,0.0004
3726.00,0.0005
3725.00,0.0005
3724.00,0.0004
3723.00,0.0004
3722.00,0.0004
3721.00,0.0004
3720.00,0.0004
3719.00,0.0004
3718.00,0.0004
3717.00,0.0004
3716.00,0.0004
3715.00,0.0004
3714.00,0.0004
3713.00,0.0003
3712.00,0.0003
3711.00,0.0003
3710.00,0.0003
3709.00,0.0003
3708.00,0.0003
3707.00,0.0004
3706.00,0.0004
3705.00,0.0004
3704.00,0.0004
3703.00,0.0003
3702.00,0.0004
3701.00,0.0004
3700.00,0.0004
3699.00,0.0005
3698.00,0.0005
3697.00,0.0005
3696.00,0.0005
3695.00,0.0005
3694.00,0.0005
3693.00,0.0004
3692.00,0.0004
3691.00,0.0004
3690.00,0.0004
3689.00,0.0004
3688.00,0.0004
3687.00,0.0004
3686.00,0.0004
3685.00,0.0004
3684.00,0.0004
3683.00,0.0004
3682.00,0.0004
3681.00,0.0003
3680.00,0.0003
3679.00,0.0003
3678.00,0.0003
3677.00,0.0003
3676.00,0.0002
3675.00,0.0002
3674.00,0.0002
3673.00,0.0002
3672.00,0.0001
3671.00,0.0002
3670.00,0.0003
3669.00,0.0003
3668.00,0.0004
3667.00,0.0004
3666.00,0.0003
3665.00,0.0003
3664.00,0.0003
3663.00,0.0003
3662.00,0.0003
3661.00,0.0003
3660.00,0.0003
3659.00,0.0004
3658.00,0.0003
3657.00,0.0003
3656.00,0.0004
3655.00,0.0004
3654.00,0.0003
3653.00,0.0003
3652.00,0.0002
3651.00,0.0001
3650.00,0.0001
3649.00,0.0001
3648.00,0.0001
3647.00,0.0002
3646.00,0.0003
3645.00,0.0004
3644.00,0.0005
3643.00,0.0005
3642.00,0.0005
3641.00,0.0005
3640.00,0.0005
3639.00,0.0005
3638.00,0.0005
3637.00,0.0005
3636.00,0.0005
3635.00,0.0005
3634.00,0.0005
3633.00,0.0006
3632.00,0.0006
3631.00,0.0007
3630.00,0.0007
3629.00,0.0007
3628.00,0.0007
3627.00,0.0007
3626.00,0.0007
3625.00,0.0007
3624.00,0.0007
3623.00,0.0007
3622.00,0.0007
3621.00,0.0007
3620.00,0.0006
3619.00,0.0006
3618.00,0.0007
3617.00,0.0007
3616.00,0.0007
3615.00,0.0007
3614.00,0.0007
3613.00,0.0008
3612.00,0.0008
3611.00,0.0009
3610.00,0.0009
3609.00,0.0009
3608.00,0.0009
3607.00,0.0009
3606.00,0.0009
3605.00,0.0009
3604.00,0.0009
3603.00,0.0009
3602.00,0.0010
3601.00,0.0010
3600.00,0.0010
3599.00,0.0010
3598.00,0.0010
3597.00,0.0010
3596.00,0.0010
3595.00,0.0010
3594.00,0.0011
3593.00,0.0011
3592.00,0.0011
3591.00,0.0011
3590.00,0.0011
3589.00,0.0011
3588.00,0.0011
3587.00,0.0011
3586.00,0.0012
3585.00,0.0012
3584.00,0.0012
3583.00,0.0012
3582.00,0.0013
3581.00,0.0013
3580.00,0.0014
3579.00,0.0014
3578.00,0.0014
3577.00,0.0014
3576.00,0.0014
3575.00,0.0014
3574.00,0.0014
3573.00,0.0015
3572.00,0.0015
3571.00,0.0016
3570.00,0.0016
3569.00,0.0017
3568.00,0.0017
3567.00,0.0017
3566.00,0.0016
3565.00,0.0016
3564.00,0.0016
3563.00,0.0016
3562.00,0.0016
3561.00,0.0017
3560.00,0.0018
3559.00,0.0018
3558.00,0.0018
3557.00,0.0018
3556.00,0.0018
3555.00,0.0019
3554.00,0.0019
3553.00,0.0019
3552.00,0.0019
3551.00,0.0019
3550.00,0.0020
3549.00,0.0020
3548.00,0.0021
3547.00,0.0021
3546.00,0.0022
3545.00,0.0022
3544.00,0.0023
3543.00,0.0023
3542.00,0.0023
3541.00,0.0024
3540.00,0.0024
3539.00,0.0023
3538.00,0.0023
3537.00,0.0024
3536.00,0.0024
3535.00,0.0024
3534.00,0.0024
3533.00,0.0025
3532.00,0.0025
3531.00,0.0025
3530.00,0.0025
3529.00,0.0026
3528.00,0.0026
3527.00,0.0026
3526.00,0.0026
3525.00,0.0027
3524.00,0.0027
3523.00,0.0028
3522.00,0.0028
3521.00,0.0029
3520.00,0.0029
3519.00,0.0029
3518.00,0.0029
3517.00,0.0029
3516.00,0.0029
3515.00,0.0030
3514.00,0.0030
3513.00,0.0031
3512.00,0.0031
3511.00,0.0031
3510.00,0.0032
3509.00,0.0032
3508.00,0.0032
3507.00,0.0032
3506.00,0.0032
3505.00,0.0032
3504.00,0.0032
3503.00,0.0032
3502.00,0.0033
3501.00,0.0033
3500.00,0.0034
3499.00,0.0034
3498.00,0.0034
3497.00,0.0034
3496.00,0.0034
3495.00,0.0034
3494.00,0.0035
3493.00,0.0035
3492.00,0.0035
3491.00,0.0035
3490.00,0.0035
3489.00,0.0036
3488.00,0.0036
3487.00,0.0037
3486.00,0.0037
3485.00,0.0038
3484.00,0.0038
3483.00,0.0038
3482.00,0.0038
3481.00,0.0038
3480.00,0.0038
3479.00,0.0039
3478.00,0.0040
3477.00,0.0040
3476.00,0.0040
3475.00,0.0041
3474.00,0.0041
3473.00,0.0042
3472.00,0.0042
3471.00,0.0042
3470.00,0.0042
3469.00,0.0042
3468.00,0.0042
3467.00,0.0042
3466.00,0.0042
3465.00,0.0043
3464.00,0.0043
3463.00,0.0043
3462.00,0.0043
3461.00,0.0044
3460.00,0.0044
3459.00,0.0044
3458.00,0.0045
3457.00,0.0045
3456.00,0.0045
3455.00,0.0046
3454.00,0.0046
3453.00,0.0046
3452.00,0.0047
3451.00,0.0047
3450.00,0.0047
3449.00,0.0047
3448.00,0.0047
3447.00,0.0047
3446.00,0.0047
3445.00,0.0047
3444.00,0.0047
3443.00,0.0047
3442.00,0.0047
3441.00,0.0048
3440.00,0.0048
3439.00,0.0048
3438.00,0.0048
3437.00,0.0048
3436.00,0.0049
3435.00,0.0049
3434.00,0.0050
3433.00,0.0050
3432.00,0.0050
3431.00,0.0050
3430.00,0.0050
3429.00,0.0051
3428.00,0.0051
3427.00,0.0051
3426.00,0.0051
3425.00,0.0051
3424.00,0.0052
3423.00,0.0052
3422.00,0.0052
3421.00,0.0052
3420.00,0.0053
3419.00,0.0053
3418.00,0.0053
3417.00,0.0053
3416.00,0.0053
3415.00,0.0053
3414.00,0.0053
3413.00,0.0054
3412.00,0.0054
3411.00,0.0054
3410.00,0.0054
3409.00,0.0054
3408.00,0.0055
3407.00,0.0055
3406.00,0.0055
3405.00,0.0056
3404.00,0.0056
3403.00,0.0057
3402.00,0.0057
3401.00,0.0058
3400.00,0.0058
3399.00,0.0058
3398.00,0.0058
3397.00,0.0059
3396.00,0.0059
3395.00,0.0059
3394.00,0.0059
3393.00,0.0059
3392.00,0.0059
3391.00,0.0059
3390.00,0.0059
3389.00,0.0059
3388.00,0.0059
3387.00,0.0058
3386.00,0.0058
3385.00,0.0057
3384.00,0.0057
3383.00,0.0057
3382.00,0.0056
3381.00,0.0056
3380.00,0.0056
3379.00,0.0057
3378.00,0.0057
3377.00,0.0058
3376.00,0.0058
3375.00,0.0058
3374.00,0.0057
3373.00,0.0057
3372.00,0.0057
3371.00,0.0057
3370.00,0.0058
3369.00,0.0058
3368.00,0.0059
3367.00,0.0059
3366.00,0.0059
3365.00,0.0059
3364.00,0.0059
3363.00,0.0058
3362.00,0.0058
3361.00,0.0058
3360.00,0.0058
3359.00,0.0058
3358.00,0.0058
3357.00,0.0058
3356.00,0.0058
3355.00,0.0057
3354.00,0.0057
3353.00,0.0057
3352.00,0.0057
3351.00,0.0057
3350.00,0.0058
3349.00,0.0058
3348.00,0.0058
3347.00,0.0058
3346.00,0.0058
3345.00,0.0058
3344.00,0.0057
3343.00,0.0057
3342.00,0.0057
3341.00,0.0057
3340.00,0.0057
3339.00,0.0057
3338.00,0.0057
3337.00,0.0057
3336.00,0.0057
3335.00,0.0057
3334.00,0.0057
3333.00,0.0057
3332.00,0.0057
3331.00,0.0057
3330.00,0.0057
3329.00,0.0057
3328.00,0.0057
3327.00,0.0056
3326.00,0.0056
3325.00,0.0056
3324.00,0.0055
3323.00,0.0055
3322.00,0.0055
3321.00,0.0055
3320.00,0.0055
3319.00,0.0055
3318.00,0.0055
3317.00,0.0055
3316.00,0.0055
3315.00,0.0055
3314.00,0.0055
3313.00,0.0054
3312.00,0.0055
3311.00,0.0055
3310.00,0.0055
3309.00,0.0055
3308.00,0.0055
3307.00,0.0055
3306.00,0.0055
3305.00,0.0055
3304.00,0.0055
3303.00,0.0056
3302.00,0.0056
3301.00,0.0056
3300.00,0.0056
3299.00,0.0055
3298.00,0.0055
3297.00,0.0055
3296.00,0.0055
3295.00,0.0055
3294.00,0.0054
3293.00,0.0054
3292.00,0.0053
3291.00,0.0053
3290.00,0.0053
3289.00,0.0052
3288.00,0.0052
3287.00,0.0051
3286.00,0.0051
3285.00,0.0051
3284.00,0.0051
3283.00,0.0051
3282.00,0.0051
3281.00,0.0051
3280.00,0.0051
3279.00,0.0051
3278.00,0.0050
3277.00,0.0050
3276.00,0.0050
3275.00,0.0049
3274.00,0.0049
3273.00,0.0049
3272.00,0.0048
3271.00,0.0048
3270.00,0.0048
3269.00,0.0049
3268.00,0.0048
3267.00,0.0048
3266.00,0.0048
3265.00,0.0048
3264.00,0.0048
3263.00,0.0047
3262.00,0.0047
3261.00,0.0047
3260.00,0.0047
3259.00,0.0047
3258.00,0.0047
3257.00,0.0047
3256.00,0.0046
3255.00,0.0046
3254.00,0.0046
3253.00,0.0045
3252.00,0.0045
3251.00,0.0045
3250.00,0.0045
3249.00,0.0045
3248.00,0.0045
3247.00,0.0045
3246.00,0.0045
3245.00,0.0045
3244.00,0.0044
3243.00,0.0044
3242.00,0.0044
3241.00,0.0044
3240.00,0.0044
3239.00,0.0044
3238.00,0.0044
3237.00,0.0045
3236.00,0.0045
3235.00,0.0045
3234.00,0.0045
3233.00,0.0045
3232.00,0.0045
3231.00,0.0045
3230.00,0.0045
3229.00,0.0045
3228.00,0.0045
3227.00,0.0045
3226.00,0.0045
3225.00,0.0045
3224.00,0.0046
3223.00,0.0046
3222.00,0.0047
3221.00,0.0047
3220.00,0.0046
3219.00,0.0046
3218.00,0.0046
3217.00,0.0046
3216.00,0.0046
3215.00,0.0046
3214.00,0.0047
3213.00,0.0047
3212.00,0.0048
3211.00,0.0048
3210.00,0.0048
3209.00,0.0048
3208.00,0.0048
3207.00,0.0048
3206.00,0.0049
3205.00,0.0049
3204.00,0.0049
3203.00,0.0049
3202.00,0.0049
3201.00,0.0049
3200.00,0.0049
3199.00,0.0049
3198.00,0.0049
3197.00,0.0049
3196.00,0.0049
3195.00,0.0049
3194.00,0.0050
3193.00,0.0050
3192.00,0.0050
3191.00,0.0049
3190.00,0.0049
3189.00,0.0049
3188.00,0.0049
3187.00,0.0049
3186.00,0.0048
3185.00,0.0048
3184.00,0.0048
3183.00,0.0048
3182.00,0.0048
3181.00,0.0047
3180.00,0.0047
3179.00,0.0046
3178.00,0.0046
3177.00,0.0045
3176.00,0.0045
3175.00,0.0045
3174.00,0.0045
3173.00,0.0045
3172.00,0.0045
3171.00,0.0045
3170.00,0.0045
3169.00,0.0044
3168.00,0.0044
3167.00,0.0044
3166.00,0.0044
3165.00,0.0044
3164.00,0.0044
3163.00,0.0044
3162.00,0.0044
3161.00,0.0044
3160.00,0.0043
3159.00,0.0043
3158.00,0.0043
3157.00,0.0043
3156.00,0.0043
3155.00,0.0042
3154.00,0.0042
3153.00,0.0042
3152.00,0.0042
3151.00,0.0041
3150.00,0.0041
3149.00,0.0041
3148.00,0.0042
3147.00,0.0042
3146.00,0.0042
3145.00,0.0041
3144.00,0.0041
3143.00,0.0040
3142.00,0.0040
3141.00,0.0040
3140.00,0.0040
3139.00,0.0040
3138.00,0.0040
3137.00,0.0039
3136.00,0.0039
3135.00,0.0039
3134.00,0.0039
3133.00,0.0038
3132.00,0.0038
3131.00,0.0038
3130.00,0.0037
3129.00,0.0037
3128.00,0.0037
3127.00,0.0037
3126.00,0.0037
3125.00,0.0037
3124.00,0.0036
3123.00,0.0035
3122.00,0.0035
3121.00,0.0034
3120.00,0.0034
3119.00,0.0034
3118.00,0.0035
3117.00,0.0035
3116.00,0.0035
3115.00,0.0034
3114.00,0.0034
3113.00,0.0034
3112.00,0.0034
3111.00,0.0034
3110.00,0.0034
3109.00,0.0034
3108.00,0.0034
3107.00,0.0033
3106.00,0.0033
3105.00,0.0033
3104.00,0.0033
3103.00,0.0033
3102.00,0.0033
3101.00,0.0032
3100.00,0.0032
3099.00,0.0032
3098.00,0.0032
3097.00,0.0032
3096.00,0.0032
3095.00,0.0032
3094.00,0.0032
3093.00,0.0032
3092.00,0.0032
3091.00,0.0032
3090.00,0.0032
3089.00,0.0032
3088.00,0.0032
3087.00,0.0032
3086.00,0.0032
3085.00,0.0032
3084.00,0.0032
3083.00,0.0032
3082.00,0.0031
3081.00,0.0031
3080.00,0.0031
3079.00,0.0030
3078.00,0.0030
3077.00,0.0031
3076.00,0.0031
3075.00,0.0031
3074.00,0.0032
3073.00,0.0032
3072.00,0.0032
3071.00,0.0032
3070.00,0.0032
3069.00,0.0032
3068.00,0.0033
3067.00,0.0033
3066.00,0.0033
3065.00,0.0033
3064.00,0.0034
3063.00,0.0034
3062.00,0.0034
3061.00,0.0034
3060.00,0.0033
3059.00,0.0033
3058.00,0.0033
3057.00,0.0034
3056.00,0.0034
3055.00,0.0035
3054.00,0.0035
3053.00,0.0035
3052.00,0.0035
3051.00,0.0035
3050.00,0.0034
3049.00,0.0035
3048.00,0.0035
3047.00,0.0036
3046.00,0.0036
3045.00,0.0036
3044.00,0.0037
3043.00,0.0037
3042.00,0.0037
3041.00,0.0038
3040.00,0.0038
3039.00,0.0038
3038.00,0.0038
3037.00,0.0039
3036.00,0.0039
3035.00,0.0039
3034.00,0.0040
3033.00,0.0040
3032.00,0.0041
3031.00,0.0042
3030.00,0.0043
3029.00,0.0044
3028.00,0.0044
3027.00,0.0044
3026.00,0.0044
3025.00,0.0044
3024.00,0.0045
3023.00,0.0046
3022.00,0.0047
3021.00,0.0048
3020.00,0.0048
3019.00,0.0048
3018.00,0.0049
3017.00,0.0050
3016.00,0.0051
3015.00,0.0052
3014.00,0.0053
3013.00,0.0054
3012.00,0.0055
3011.00,0.0056
3010.00,0.0057
3009.00,0.0059
3008.00,0.0060
3007.00,0.0061
3006.00,0.0062
3005.00,0.0063
3004.00,0.0065
3003.00,0.0067
3002.00,0.0069
3001.00,0.0071
3000.00,0.0074
2999.00,0.0076
2998.00,0.0079
2997.00,0.0082
2996.00,0.0086
2995.00,0.0089
2994.00,0.0093
2993.00,0.0098
2992.00,0.0103
2991.00,0.0108
2990.00,0.0115
2989.00,0.0121
2988.00,0.0129
2987.00,0.0137
2986.00,0.0146
2985.00,0.0156
2984.00,0.0167
2983.00,0.0179
2982.00,0.0194
2981.00,0.0211
2980.00,0.0231
2979.00,0.0253
2978.00,0.0279
2977.00,0.0308
2976.00,0.0340
2975.00,0.0377
2974.00,0.0420
2973.00,0.0468
2972.00,0.0523
2971.00,0.0585
2970.00,0.0654
2969.00,0.0730
2968.00,0.0813
2967.00,0.0903
2966.00,0.0998
2965.00,0.1095
2964.00,0.1192
2963.00,0.1282
2962.00,0.1362
2961.00,0.1429
2960.00,0.1481
2959.00,0.1520
2958.00,0.1553
2957.00,0.1586
2956.00,0.1624
2955.00,0.1672
2954.00,0.1728
2953.00,0.1788
2952.00,0.1840
2951.00,0.1874
2950.00,0.1879
2949.00,0.1847
2948.00,0.1778
2947.00,0.1678
2946.00,0.1559
2945.00,0.1435
2944.00,0.1319
2943.00,0.1219
2942.00,0.1142
2941.00,0.1089
2940.00,0.1060
2939.00,0.1052
2938.00,0.1064
2937.00,0.1093
2936.00,0.1137
2935.00,0.1196
2934.00,0.1268
2933.00,0.1352
2932.00,0.1447
2931.00,0.1550
2930.00,0.1660
2929.00,0.1774
2928.00,0.1887
2927.00,0.1998
2926.00,0.2105
2925.00,0.2208
2924.00,0.2307
2923.00,0.2404
2922.00,0.2500
2921.00,0.2590
2920.00,0.2669
2919.00,0.2727
2918.00,0.2755
2917.00,0.2745
2916.00,0.2697
2915.00,0.2618
2914.00,0.2518
2913.00,0.2410
2912.00,0.2305
2911.00,0.2208
2910.00,0.2123
2909.00,0.2047
2908.00,0.1978
2907.00,0.1912
2906.00,0.1848
2905.00,0.1783
2904.00,0.1716
2903.00,0.1648
2902.00,0.1580
2901.00,0.1514
2900.00,0.1449
2899.00,0.1387
2898.00,0.1330
2897.00,0.1277
2896.00,0.1229
2895.00,0.1188
2894.00,0.1152
2893.00,0.1123
2892.00,0.1099
2891.00,0.1082
2890.00,0.1069
2889.00,0.1061
2888.00,0.1056
2887.00,0.1055
2886.00,0.1057
2885.00,0.1063
2884.00,0.1073
2883.00,0.1088
2882.00,0.1106
2881.00,0.1126
2880.00,0.1146
2879.00,0.1163
2878.00,0.1173
2877.00,0.1175
2876.00,0.1171
2875.00,0.1164
2874.00,0.1159
2873.00,0.1159
2872.00,0.1165
2871.00,0.1179
2870.00,0.1196
2869.00,0.1213
2868.00,0.1224
2867.00,0.1220
2866.00,0.1196
2865.00,0.1151
2864.00,0.1089
2863.00,0.1018
2862.00,0.0948
2861.00,0.0886
2860.00,0.0838
2859.00,0.0807
2858.00,0.0789
2857.00,0.0785
2856.00,0.0789
2855.00,0.0802
2854.00,0.0819
2853.00,0.0840
2852.00,0.0862
2851.00,0.0880
2850.00,0.0895
2849.00,0.0904
2848.00,0.0912
2847.00,0.0922
2846.00,0.0941
2845.00,0.0971
2844.00,0.1012
2843.00,0.1062
2842.00,0.1115
2841.00,0.1166
2840.00,0.1205
2839.00,0.1226
2838.00,0.1221
2837.00,0.1186
2836.00,0.1122
2835.00,0.1033
2834.00,0.0930
2833.00,0.0823
2832.00,0.0721
2831.00,0.0630
2830.00,0.0554
2829.00,0.0491
2828.00,0.0439
2827.00,0.0398
2826.00,0.0364
2825.00,0.0336
2824.00,0.0312
2823.00,0.0292
2822.00,0.0275
2821.00,0.0260
2820.00,0.0248
2819.00,0.0236
2818.00,0.0227
2817.00,0.0218
2816.00,0.0211
2815.00,0.0204
2814.00,0.0198
2813.00,0.0192
2812.00,0.0186
2811.00,0.0181
2810.00,0.0175
2809.00,0.0170
2808.00,0.0164
2807.00,0.0158
2806.00,0.0152
2805.00,0.0145
2804.00,0.0139
2803.00,0.0133
2802.00,0.0128
2801.00,0.0123
2800.00,0.0119
2799.00,0.0116
2798.00,0.0113
2797.00,0.0111
2796.00,0.0109
2795.00,0.0106
2794.00,0.0104
2793.00,0.0101
2792.00,0.0098
2791.00,0.0095
2790.00,0.0091
2789.00,0.0088
2788.00,0.0085
2787.00,0.0082
2786.00,0.0079
2785.00,0.0076
2784.00,0.0074
2783.00,0.0072
2782.00,0.0070
2781.00,0.0068
2780.00,0.0067
2779.00,0.0065
2778.00,0.0064
2777.00,0.0062
2776.00,0.0061
2775.00,0.0059
2774.00,0.0058
2773.00,0.0057
2772.00,0.0057
2771.00,0.0056
2770.00,0.0056
2769.00,0.0056
2768.00,0.0056
2767.00,0.0056
2766.00,0.0055
2765.00,0.0055
2764.00,0.0054
2763.00,0.0054
2762.00,0.0054
2761.00,0.0054
2760.00,0.0053
2759.00,0.0053
2758.00,0.0053
2757.00,0.0052
2756.00,0.0052
2755.00,0.0052
2754.00,0.0051
2753.00,0.0051
2752.00,0.0051
2751.00,0.0051
2750.00,0.0051
2749.00,0.0051
2748.00,0.0051
2747.00,0.0052
2746.00,0.0052
2745.00,0.0053
2744.00,0.0053
2743.00,0.0054
2742.00,0.0055
2741.00,0.0055
2740.00,0.0057
2739.00,0.0058
2738.00,0.0059
2737.00,0.0061
2736.00,0.0062
2735.00,0.0064
2734.00,0.0065
2733.00,0.0066
2732.00,0.0068
2731.00,0.0069
2730.00,0.0071
2729.00,0.0073
2728.00,0.0076
2727.00,0.0078
2726.00,0.0081
2725.00,0.0083
2724.00,0.0085
2723.00,0.0086
2722.00,0.0085
2721.00,0.0083
2720.00,0.0081
2719.00,0.0078
2718.00,0.0075
2717.00,0.0072
2716.00,0.0069
2715.00,0.0066
2714.00,0.0063
2713.00,0.0061
2712.00,0.0059
2711.00,0.0058
2710.00,0.0056
2709.00,0.0055
2708.00,0.0053
2707.00,0.0052
2706.00,0.0050
2705.00,0.0049
2704.00,0.0048
2703.00,0.0047
2702.00,0.0047
2701.00,0.0046
2700.00,0.0045
2699.00,0.0045
2698.00,0.0044
2697.00,0.0044
2696.00,0.0044
2695.00,0.0044
2694.00,0.0044
2693.00,0.0044
2692.00,0.0044
2691.00,0.0044
2690.00,0.0044
2689.00,0.0044
2688.00,0.0044
2687.00,0.0044
2686.00,0.0044
2685.00,0.0044
2684.00,0.0044
2683.00,0.0044
2682.00,0.0044
2681.00,0.0045
2680.00,0.0045
2679.00,0.0045
2678.00,0.0045
2677.00,0.0045
2676.00,0.0045
2675.00,0.0045
2674.00,0.0045
2673.00,0.0045
2672.00,0.0044
2671.00,0.0044
2670.00,0.0044
2669.00,0.0044
2668.00,0.0044
2667.00,0.0044
2666.00,0.0045
2665.00,0.0045
2664.00,0.0046
2663.00,0.0046
2662.00,0.0047
2661.00,0.0047
2660.00,0.0047
2659.00,0.0047
2658.00,0.0047
2657.00,0.0047
2656.00,0.0046
2655.00,0.0046
2654.00,0.0046
2653.00,0.0045
2652.00,0.0045
2651.00,0.0044
2650.00,0.0044
2649.00,0.0043
2648.00,0.0043
2647.00,0.0042
2646.00,0.0042
2645.00,0.0041
2644.00,0.0041
2643.00,0.0041
2642.00,0.0040
2641.00,0.0040
2640.00,0.0039
2639.00,0.0039
2638.00,0.0039
2637.00,0.0039
2636.00,0.0038
2635.00,0.0038
2634.00,0.0038
2633.00,0.0038
2632.00,0.0038
2631.00,0.0038
2630.00,0.0038
2629.00,0.0038
2628.00,0.0038
2627.00,0.0039
2626.00,0.0039
2625.00,0.0040
2624.00,0.0040
2623.00,0.0039
2622.00,0.0039
2621.00,0.0039
2620.00,0.0040
2619.00,0.0040
2618.00,0.0041
2617.00,0.0041
2616.00,0.0040
2615.00,0.0040
2614.00,0.0040
2613.00,0.0039
2612.00,0.0038
2611.00,0.0037
2610.00,0.0036
2609.00,0.0035
2608.00,0.0034
2607.00,0.0034
2606.00,0.0034
2605.00,0.0033
2604.00,0.0033
2603.00,0.0032
2602.00,0.0032
2601.00,0.0031
2600.00,0.0031
2599.00,0.0031
2598.00,0.0031
2597.00,0.0031
2596.00,0.0031
2595.00,0.0031
2594.00,0.0031
2593.00,0.0031
2592.00,0.0032
2591.00,0.0033
2590.00,0.0033
2589.00,0.0034
2588.00,0.0035
2587.00,0.0036
2586.00,0.0036
2585.00,0.0037
2584.00,0.0037
2583.00,0.0038
2582.00,0.0038
2581.00,0.0038
2580.00,0.0037
2579.00,0.0036
2578.00,0.0035
2577.00,0.0034
2576.00,0.0033
2575.00,0.0032
2574.00,0.0030
2573.00,0.0028
2572.00,0.0027
2571.00,0.0027
2570.00,0.0026
2569.00,0.0026
2568.00,0.0026
2567.00,0.0026
2566.00,0.0025
2565.00,0.0025
2564.00,0.0024
2563.00,0.0023
2562.00,0.0023
2561.00,0.0023
2560.00,0.0022
2559.00,0.0022
2558.00,0.0022
2557.00,0.0021
2556.00,0.0021
2555.00,0.0021
2554.00,0.0021
2553.00,0.0020
2552.00,0.0019
2551.00,0.0019
2550.00,0.0019
2549.00,0.0020
2548.00,0.0019
2547.00,0.0019
2546.00,0.0018
2545.00,0.0018
2544.00,0.0018
2543.00,0.0018
2542.00,0.0018
2541.00,0.0018
2540.00,0.0018
2539.00,0.0017
2538.00,0.0017
2537.00,0.0016
2536.00,0.0016
2535.00,0.0015
2534.00,0.0015
2533.00,0.0014
2532.00,0.0014
2531.00,0.0014
2530.00,0.0015
2529.00,0.0014
2528.00,0.0014
2527.00,0.0013
2526.00,0.0012
2525.00,0.0012
2524.00,0.0012
2523.00,0.0013
2522.00,0.0013
2521.00,0.0013
2520.00,0.0013
2519.00,0.0013
2518.00,0.0012
2517.00,0.0012
2516.00,0.0012
2515.00,0.0012
2514.00,0.0011
2513.00,0.0011
2512.00,0.0010
2511.00,0.0009
2510.00,0.0009
2509.00,0.0010
2508.00,0.0010
2507.00,0.0009
2506.00,0.0009
2505.00,0.0008
2504.00,0.0008
2503.00,0.0008
2502.00,0.0008
2501.00,0.0009
2500.00,0.0010
2499.00,0.0010
2498.00,0.0010
2497.00,0.0010
2496.00,0.0010
2495.00,0.0010
2494.00,0.0010
2493.00,0.0011
2492.00,0.0011
2491.00,0.0010
2490.00,0.0009
2489.00,0.0009
2488.00,0.0009
2487.00,0.0009
2486.00,0.0010
2485.00,0.0010
2484.00,0.0010
2483.00,0.0010
2482.00,0.0009
2481.00,0.0009
2480.00,0.0010
2479.00,0.0010
2478.00,0.0010
2477.00,0.0009
2476.00,0.0009
2475.00,0.0008
2474.00,0.0008
2473.00,0.0008
2472.00,0.0008
2471.00,0.0009
2470.00,0.0009
2469.00,0.0008
2468.00,0.0008
2467.00,0.0008
2466.00,0.0008
2465.00,0.0008
2464.00,0.0008
2463.00,0.0009
2462.00,0.0009
2461.00,0.0009
2460.00,0.0009
2459.00,0.0009
2458.00,0.0009
2457.00,0.0010
2456.00,0.0010
2455.00,0.0010
2454.00,0.0009
2453.00,0.0009
2452.00,0.0009
2451.00,0.0009
2450.00,0.0009
2449.00,0.0009
2448.00,0.0009
2447.00,0.0008
2446.00,0.0008
2445.00,0.0007
2444.00,0.0007
2443.00,0.0007
2442.00,0.0008
2441.00,0.0008
2440.00,0.0009
2439.00,0.0010
2438.00,0.0010
2437.00,0.0010
2436.00,0.0010
2435.00,0.0010
2434.00,0.0010
2433.00,0.0011
2432.00,0.0011
2431.00,0.0011
2430.00,0.0011
2429.00,0.0011
2428.00,0.0011
2427.00,0.0012
2426.00,0.0012
2425.00,0.0012
2424.00,0.0011
2423.00,0.0011
2422.00,0.0010
2421.00,0.0009
2420.00,0.0009
2419.00,0.0010
2418.00,0.0010
2417.00,0.0010
2416.00,0.0010
2415.00,0.0010
2414.00,0.0010
2413.00,0.0010
2412.00,0.0010
2411.00,0.0010
2410.00,0.0010
2409.00,0.0009
2408.00,0.0009
2407.00,0.0008
2406.00,0.0008
2405.00,0.0007
2404.00,0.0007
2403.00,0.0006
2402.00,0.0006
2401.00,0.0006
2400.00,0.0006
2399.00,0.0006
2398.00,0.0007
2397.00,0.0007
2396.00,0.0007
2395.00,0.0006
2394.00,0.0006
2393.00,0.0007
2392.00,0.0007
2391.00,0.0007
2390.00,0.0007
2389.00,0.0007
2388.00,0.0007
2387.00,0.0007
2386.00,0.0007
2385.00,0.0007
2384.00,0.0007
2383.00,0.0007
2382.00,0.0006
2381.00,0.0006
2380.00,0.0005
2379.00,0.0005
2378.00,0.0005
2377.00,0.0005
2376.00,0.0006
2375.00,0.0007
2374.00,0.0007
2373.00,0.0008
2372.00,0.0008
2371.00,0.0008
2370.00,0.0008
2369.00,0.0008
2368.00,0.0008
2367.00,0.0007
2366.00,0.0007
2365.00,0.0007
2364.00,0.0007
2363.00,0.0008
2362.00,0.0009
2361.00,0.0010
2360.00,0.0011
2359.00,0.0012
2358.00,0.0013
2357.00,0.0013
2356.00,0.0013
2355.00,0.0012
2354.00,0.0011
2353.00,0.0010
2352.00,0.0010
2351.00,0.0010
2350.00,0.0011
2349.00,0.0011
2348.00,0.0011
2347.00,0.0011
2346.00,0.0012
2345.00,0.0012
2344.00,0.0013
2343.00,0.0014
2342.00,0.0014
2341.00,0.0014
2340.00,0.0014
2339.00,0.0013
2338.00,0.0012
2337.00,0.0012
2336.00,0.0012
2335.00,0.0012
2334.00,0.0011
2333.00,0.0010
2332.00,0.0010
2331.00,0.0010
2330.00,0.0010
2329.00,0.0011
2328.00,0.0013
2327.00,0.0017
2326.00,0.0020
2325.00,0.0023
2324.00,0.0024
2323.00,0.0023
2322.00,0.0021
2321.00,0.0019
2320.00,0.0017
2319.00,0.0016
2318.00,0.0015
2317.00,0.0014
2316.00,0.0013
2315.00,0.0012
2314.00,0.0010
2313.00,0.0009
2312.00,0.0009
2311.00,0.0009
2310.00,0.0009
2309.00,0.0010
2308.00,0.0010
2307.00,0.0010
2306.00,0.0010
2305.00,0.0010
2304.00,0.0010
2303.00,0.0010
2302.00,0.0010
2301.00,0.0010
2300.00,0.0011
2299.00,0.0011
2298.00,0.0012
2297.00,0.0013
2296.00,0.0013
2295.00,0.0014
2294.00,0.0015
2293.00,0.0015
2292.00,0.0016
2291.00,0.0016
2290.00,0.0016
2289.00,0.0016
2288.00,0.0016
2287.00,0.0017
2286.00,0.0018
2285.00,0.0018
2284.00,0.0017
2283.00,0.0016
2282.00,0.0014
2281.00,0.0013
2280.00,0.0013
2279.00,0.0013
2278.00,0.0014
2277.00,0.0015
2276.00,0.0016
2275.00,0.0016
2274.00,0.0016
2273.00,0.0015
2272.00,0.0015
2271.00,0.0015
2270.00,0.0014
2269.00,0.0014
2268.00,0.0013
2267.00,0.0011
2266.00,0.0010
2265.00,0.0009
2264.00,0.0009
2263.00,0.0010
2262.00,0.0009
2261.00,0.0009
2260.00,0.0009
2259.00,0.0010
2258.00,0.0012
2257.00,0.0013
2256.00,0.0012
2255.00,0.0011
2254.00,0.0009
2253.00,0.0008
2252.00,0.0008
2251.00,0.0007
2250.00,0.0007
2249.00,0.0006
2248.00,0.0006
2247.00,0.0007
2246.00,0.0007
2245.00,0.0007
2244.00,0.0008
2243.00,0.0009
2242.00,0.0009
2241.00,0.0009
2240.00,0.0009
2239.00,0.0009
2238.00,0.0009
2237.00,0.0009
2236.00,0.0008
2235.00,0.0007
2234.00,0.0007
2233.00,0.0008
2232.00,0.0010
2231.00,0.0011
2230.00,0.0011
2229.00,0.0011
2228.00,0.0011
2227.00,0.0011
2226.00,0.0009
2225.00,0.0008
2224.00,0.0006
2223.00,0.0006
2222.00,0.0006
2221.00,0.0006
2220.00,0.0006
2219.00,0.0006
2218.00,0.0006
2217.00,0.0007
2216.00,0.0007
2215.00,0.0008
2214.00,0.0008
2213.00,0.0006
2212.00,0.0004
2211.00,0.0002
2210.00,0.0000
2209.00,0.0001
2208.00,0.0002
2207.00,0.0003
2206.00,0.0004
2205.00,0.0004
2204.00,0.0005
2203.00,0.0005
2202.00,0.0006
2201.00,0.0007
2200.00,0.0008
2199.00,0.0009
2198.00,0.0010
2197.00,0.0009
2196.00,0.0007
2195.00,0.0006
2194.00,0.0006
2193.00,0.0006
2192.00,0.0006
2191.00,0.0005
2190.00,0.0004
2189.00,0.0005
2188.00,0.0007
2187.00,0.0010
2186.00,0.0011
2185.00,0.0011
2184.00,0.0009
2183.00,0.0007
2182.00,0.0005
2181.00,0.0003
2180.00,0.0002
2179.00,0.0001
2178.00,0.0001
2177.00,0.0000
2176.00,-0.0001
2175.00,-0.0002
2174.00,-0.0002
2173.00,-0.0001
2172.00,0.0003
2171.00,0.0007
2170.00,0.0010
2169.00,0.0013
2168.00,0.0013
2167.00,0.0012
2166.00,0.0011
2165.00,0.0012
2164.00,0.0014
2163.00,0.0017
2162.00,0.0019
2161.00,0.0017
2160.00,0.0008
2159.00,-0.0006
2158.00,-0.0019
2157.00,-0.0027
2156.00,-0.0028
2155.00,-0.0024
2154.00,-0.0019
2153.00,-0.0015
2152.00,-0.0013
2151.00,-0.0014
2150.00,-0.0017
2149.00,-0.0018
2148.00,-0.0017
2147.00,-0.0014
2146.00,-0.0012
2145.00,-0.0012
2144.00,-0.0013
2143.00,-0.0015
2142.00,-0.0016
2141.00,-0.0016
2140.00,-0.0015
2139.00,-0.0015
2138.00,-0.0014
2137.00,-0.0014
2136.00,-0.0015
2135.00,-0.0016
2134.00,-0.0016
2133.00,-0.0016
2132.00,-0.0015
2131.00,-0.0015
2130.00,-0.0013
2129.00,-0.0012
2128.00,-0.0010
2127.00,-0.0008
2126.00,-0.0008
2125.00,-0.0007
2124.00,-0.0006
2123.00,-0.0004
2122.00,-0.0003
2121.00,-0.0002
2120.00,-0.0002
2119.00,-0.0002
2118.00,-0.0002
2117.00,-0.0000
2116.00,0.0002
2115.00,0.0002
2114.00,0.0002
2113.00,0.0002
2112.00,0.0002
2111.00,0.0001
2110.00,0.0001
2109.00,0.0001
2108.00,0.0002
2107.00,0.0002
2106.00,0.0003
2105.00,0.0003
2104.00,0.0002
2103.00,0.0001
2102.00,0.0001
2101.00,0.0001
2100.00,0.0002
2099.00,0.0002
2098.00,0.0001
2097.00,0.0000
2096.00,-0.0001
2095.00,-0.0001
2094.00,-0.0002
2093.00,-0.0002
2092.00,-0.0001
2091.00,-0.0000
2090.00,0.0000
2089.00,-0.0000
2088.00,-0.0001
2087.00,-0.0001
2086.00,-0.0001
2085.00,0.0000
2084.00,0.0001
2083.00,0.0001
2082.00,0.0001
2081.00,0.0001
2080.00,0.0001
2079.00,0.0001
2078.00,0.0002
2077.00,0.0002
2076.00,0.0003
2075.00,0.0003
2074.00,0.0003
2073.00,0.0002
2072.00,0.0001
2071.00,-0.0000
2070.00,-0.0000
2069.00,0.0000
2068.00,0.0001
2067.00,0.0000
2066.00,-0.0001
2065.00,-0.0002
2064.00,-0.0001
2063.00,-0.0001
2062.00,-0.0002
2061.00,-0.0003
2060.00,-0.0003
2059.00,-0.0002
2058.00,-0.0001
2057.00,-0.0000
2056.00,-0.0001
2055.00,-0.0003
2054.00,-0.0002
2053.00,0.0003
2052.00,0.0011
2051.00,0.0016
2050.00,0.0017
2049.00,0.0013
2048.00,0.0007
2047.00,0.0001
2046.00,-0.0002
2045.00,-0.0002
2044.00,-0.0000
2043.00,0.0000
2042.00,-0.0000
2041.00,-0.0002
2040.00,-0.0003
2039.00,-0.0004
2038.00,-0.0005
2037.00,-0.0004
2036.00,-0.0003
2035.00,-0.0003
2034.00,-0.0003
2033.00,-0.0004
2032.00,-0.0006
2031.00,-0.0008
2030.00,-0.0009
2029.00,-0.0009
2028.00,-0.0006
2027.00,-0.0003
2026.00,-0.0001
2025.00,-0.0001
2024.00,-0.0005
2023.00,-0.0009
2022.00,-0.0014
2021.00,-0.0016
2020.00,-0.0018
2019.00,-0.0020
2018.00,-0.0021
2017.00,-0.0018
2016.00,-0.0013
2015.00,-0.0007
2014.00,-0.0006
2013.00,-0.0007
2012.00,-0.0010
2011.00,-0.0012
2010.00,-0.0014
2009.00,-0.0015
2008.00,-0.0018
2007.00,-0.0021
2006.00,-0.0021
2005.00,-0.0019
2004.00,-0.0016
2003.00,-0.0013
2002.00,-0.0012
2001.00,-0.0011
2000.00,-0.0012
1999.00,-0.0014
1998.00,-0.0013
1997.00,-0.0011
1996.00,-0.0008
1995.00,-0.0007
1994.00,-0.0008
1993.00,-0.0010
1992.00,-0.0009
1991.00,-0.0008
1990.00,-0.0005
1989.00,-0.0001
1988.00,0.0001
1987.00,0.0002
1986.00,0.0001
1985.00,-0.0001
1984.00,-0.0002
1983.00,-0.0002
1982.00,0.0000
1981.00,0.0004
1980.00,0.0006
1979.00,0.0003
1978.00,-0.0004
1977.00,-0.0013
1976.00,-0.0019
1975.00,-0.0022
1974.00,-0.0022
1973.00,-0.0020
1972.00,-0.0018
1971.00,-0.0017
1970.00,-0.0018
1969.00,-0.0018
1968.00,-0.0018
1967.00,-0.0019
1966.00,-0.0020
1965.00,-0.0021
1964.00,-0.0022
1963.00,-0.0022
1962.00,-0.0022
1961.00,-0.0023
1960.00,-0.0024
1959.00,-0.0026
1958.00,-0.0026
1957.00,-0.0025
1956.00,-0.0022
1955.00,-0.0020
1954.00,-0.0019
1953.00,-0.0019
1952.00,-0.0020
1951.00,-0.0021
1950.00,-0.0021
1949.00,-0.0021
1948.00,-0.0020
1947.00,-0.0019
1946.00,-0.0018
1945.00,-0.0018
1944.00,-0.0017
1943.00,-0.0016
1942.00,-0.0016
1941.00,-0.0015
1940.00,-0.0015
1939.00,-0.0014
1938.00,-0.0014
1937.00,-0.0014
1936.00,-0.0013
1935.00,-0.0012
1934.00,-0.0011
1933.00,-0.0010
1932.00,-0.0010
1931.00,-0.0009
1930.00,-0.0009
1929.00,-0.0008
1928.00,-0.0007
1927.00,-0.0008
1926.00,-0.0009
1925.00,-0.0010
1924.00,-0.0011
1923.00,-0.0010
1922.00,-0.0009
1921.00,-0.0007
1920.00,-0.0005
1919.00,-0.0003
1918.00,-0.0002
1917.00,-0.0002
1916.00,-0.0002
1915.00,-0.0002
1914.00,-0.0003
1913.00,-0.0003
1912.00,-0.0004
1911.00,-0.0004
1910.00,-0.0004
1909.00,-0.0004
1908.00,-0.0003
1907.00,-0.0003
1906.00,-0.0003
1905.00,-0.0002
1904.00,-0.0002
1903.00,-0.0002
1902.00,-0.0003
1901.00,-0.0003
1900.00,-0.0003
1899.00,-0.0003
1898.00,-0.0003
1897.00,-0.0002
1896.00,-0.0001
1895.00,-0.0001
1894.00,-0.0002
1893.00,-0.0002
1892.00,-0.0002
1891.00,-0.0002
1890.00,-0.0002
1889.00,-0.0003
1888.00,-0.0003
1887.00,-0.0003
1886.00,-0.0003
1885.00,-0.0002
1884.00,-0.0002
1883.00,-0.0002
1882.00,-0.0002
1881.00,-0.0002
1880.00,-0.0003
1879.00,-0.0004
1878.00,-0.0005
1877.00,-0.0005
1876.00,-0.0005
1875.00,-0.0005
1874.00,-0.0004
1873.00,-0.0003
1872.00,-0.0002
1871.00,-0.0002
1870.00,-0.0003
1869.00,-0.0003
1868.00,-0.0002
1867.00,-0.0001
1866.00,-0.0000
1865.00,-0.0000
1864.00,-0.0001
1863.00,-0.0001
1862.00,-0.0001
1861.00,-0.0000
1860.00,0.0001
1859.00,0.0002
1858.00,0.0003
1857.00,0.0002
1856.00,0.0002
1855.00,0.0001
1854.00,0.0000
1853.00,0.0000
1852.00,0.0001
1851.00,0.0001
1850.00,0.0001
1849.00,0.0001
1848.00,0.0000
1847.00,-0.0000
1846.00,-0.0001
1845.00,-0.0001
1844.00,-0.0001
1843.00,-0.0001
1842.00,-0.0001
1841.00,-0.0001
1840.00,-0.0000
1839.00,0.0000
1838.00,0.0001
1837.00,0.0001
1836.00,0.0001
1835.00,0.0001
1834.00,0.0001
1833.00,0.0001
1832.00,0.0002
1831.00,0.0002
1830.00,0.0002
1829.00,0.0001
1828.00,0.0001
1827.00,0.0001
1826.00,0.0001
1825.00,0.0002
1824.00,0.0002
1823.00,0.0001
1822.00,0.0001
1821.00,-0.0000
1820.00,-0.0001
1819.00,-0.0001
1818.00,-0.0002
1817.00,-0.0003
1816.00,-0.0002
1815.00,-0.0001
1814.00,0.0000
1813.00,0.0001
1812.00,0.0002
1811.00,0.0002
1810.00,0.0003
1809.00,0.0003
1808.00,0.0002
1807.00,0.0002
1806.00,0.0002
1805.00,0.0002
1804.00,0.0002
1803.00,0.0002
1802.00,0.0002
1801.00,0.0003
1800.00,0.0004
1799.00,0.0004
1798.00,0.0005
1797.00,0.0005
1796.00,0.0006
1795.00,0.0006
1794.00,0.0006
1793.00,0.0007
1792.00,0.0007
1791.00,0.0007
1790.00,0.0007
1789.00,0.0008
1788.00,0.0008
1787.00,0.0008
1786.00,0.0008
1785.00,0.0009
1784.00,0.0009
1783.00,0.0009
1782.00,0.0008
1781.00,0.0008
1780.00,0.0008
1779.00,0.0008
1778.00,0.0008
1777.00,0.0008
1776.00,0.0008
1775.00,0.0009
1774.00,0.0009
1773.00,0.0010
1772.00,0.0011
1771.00,0.0012
1770.00,0.0013
1769.00,0.0014
1768.00,0.0014
1767.00,0.0014
1766.00,0.0014
1765.00,0.0015
1764.00,0.0016
1763.00,0.0017
1762.00,0.0017
1761.00,0.0018
1760.00,0.0018
1759.00,0.0019
1758.00,0.0020
1757.00,0.0021
1756.00,0.0022
1755.00,0.0022
1754.00,0.0023
1753.00,0.0023
1752.00,0.0024
1751.00,0.0024
1750.00,0.0024
1749.00,0.0024
1748.00,0.0024
1747.00,0.0025
1746.00,0.0025
1745.00,0.0025
1744.00,0.0025
1743.00,0.0025
1742.00,0.0025
1741.00,0.0025
1740.00,0.0025
1739.00,0.0026
1738.00,0.0026
1737.00,0.0026
1736.00,0.0026
1735.00,0.0025
1734.00,0.0024
1733.00,0.0024
1732.00,0.0024
1731.00,0.0024
1730.00,0.0024
1729.00,0.0024
1728.00,0.0025
1727.00,0.0026
1726.00,0.0026
1725.00,0.0027
1724.00,0.0027
1723.00,0.0028
1722.00,0.0029
1721.00,0.0029
1720.00,0.0028
1719.00,0.0027
1718.00,0.0026
1717.00,0.0026
1716.00,0.0026
1715.00,0.0026
1714.00,0.0026
1713.00,0.0025
1712.00,0.0025
1711.00,0.0025
1710.00,0.0025
1709.00,0.0025
1708.00,0.0024
1707.00,0.0024
1706.00,0.0024
1705.00,0.0024
1704.00,0.0024
1703.00,0.0024
1702.00,0.0025
1701.00,0.0025
1700.00,0.0025
1699.00,0.0026
1698.00,0.0026
1697.00,0.0027
1696.00,0.0027
1695.00,0.0028
1694.00,0.0029
1693.00,0.0030
1692.00,0.0030
1691.00,0.0031
1690.00,0.0031
1689.00,0.0031
1688.00,0.0031
1687.00,0.0031
1686.00,0.0031
1685.00,0.0032
1684.00,0.0034
1683.00,0.0036
1682.00,0.0037
1681.00,0.0038
1680.00,0.0039
1679.00,0.0039
1678.00,0.0040
1677.00,0.0041
1676.00,0.0041
1675.00,0.0042
1674.00,0.0043
1673.00,0.0043
1672.00,0.0044
1671.00,0.0045
1670.00,0.0045
1669.00,0.0046
1668.00,0.0047
1667.00,0.0048
1666.00,0.0048
1665.00,0.0048
1664.00,0.0048
1663.00,0.0049
1662.00,0.0050
1661.00,0.0050
1660.00,0.0050
1659.00,0.0051
1658.00,0.0051
1657.00,0.0051
1656.00,0.0051
1655.00,0.0052
1654.00,0.0053
1653.00,0.0057
1652.00,0.0060
1651.00,0.0061
1650.00,0.0061
1649.00,0.0062
1648.00,0.0064
1647.00,0.0066
1646.00,0.0067
1645.00,0.0068
1644.00,0.0068
1643.00,0.0068
1642.00,0.0068
1641.00,0.0068
1640.00,0.0069
1639.00,0.0069
1638.00,0.0070
1637.00,0.0070
1636.00,0.0071
1635.00,0.0071
1634.00,0.0070
1633.00,0.0070
1632.00,0.0069
1631.00,0.0068
1630.00,0.0067
1629.00,0.0067
1628.00,0.0067
1627.00,0.0066
1626.00,0.0066
1625.00,0.0065
1624.00,0.0065
1623.00,0.0064
1622.00,0.0064
1621.00,0.0064
1620.00,0.0064
1619.00,0.0064
1618.00,0.0064
1617.00,0.0064
1616.00,0.0064
1615.00,0.0064
1614.00,0.0064
1613.00,0.0063
1612.00,0.0063
1611.00,0.0063
1610.00,0.0063
1609.00,0.0063
1608.00,0.0064
1607.00,0.0064
1606.00,0.0064
1605.00,0.0064
1604.00,0.0064
1603.00,0.0064
1602.00,0.0063
1601.00,0.0063
1600.00,0.0063
1599.00,0.0062
1598.00,0.0062
1597.00,0.0062
1596.00,0.0062
1595.00,0.0062
1594.00,0.0062
1593.00,0.0062
1592.00,0.0062
1591.00,0.0062
1590.00,0.0062
1589.00,0.0063
1588.00,0.0063
1587.00,0.0064
1586.00,0.0064
1585.00,0.0065
1584.00,0.0065
1583.00,0.0066
1582.00,0.0067
1581.00,0.0068
1580.00,0.0070
1579.00,0.0071
1578.00,0.0071
1577.00,0.0072
1576.00,0.0072
1575.00,0.0072
1574.00,0.0072
1573.00,0.0071
1572.00,0.0070
1571.00,0.0069
1570.00,0.0068
1569.00,0.0067
1568.00,0.0067
1567.00,0.0067
1566.00,0.0066
1565.00,0.0066
1564.00,0.0066
1563.00,0.0066
1562.00,0.0066
1561.00,0.0066
1560.00,0.0066
1559.00,0.0066
1558.00,0.0066
1557.00,0.0067
1556.00,0.0068
1555.00,0.0068
1554.00,0.0068
1553.00,0.0069
1552.00,0.0069
1551.00,0.0070
1550.00,0.0070
1549.00,0.0071
1548.00,0.0071
1547.00,0.0072
1546.00,0.0072
1545.00,0.0073
1544.00,0.0075
1543.00,0.0075
1542.00,0.0075
1541.00,0.0075
1540.00,0.0075
1539.00,0.0074
1538.00,0.0072
1537.00,0.0070
1536.00,0.0069
1535.00,0.0067
1534.00,0.0064
1533.00,0.0062
1532.00,0.0060
1531.00,0.0058
1530.00,0.0057
1529.00,0.0057
1528.00,0.0056
1527.00,0.0056
1526.00,0.0055
1525.00,0.0054
1524.00,0.0054
1523.00,0.0054
1522.00,0.0054
1521.00,0.0054
1520.00,0.0056
1519.00,0.0056
1518.00,0.0057
1517.00,0.0058
1516.00,0.0058
1515.00,0.0057
1514.00,0.0057
1513.00,0.0057
1512.00,0.0058
1511.00,0.0059
1510.00,0.0060
1509.00,0.0060
1508.00,0.0061
1507.00,0.0062
1506.00,0.0062
1505.00,0.0064
1504.00,0.0066
1503.00,0.0067
1502.00,0.0069
1501.00,0.0071
1500.00,0.0074
1499.00,0.0076
1498.00,0.0078
1497.00,0.0082
1496.00,0.0086
1495.00,0.0089
1494.00,0.0091
1493.00,0.0095
1492.00,0.0099
1491.00,0.0103
1490.00,0.0107
1489.00,0.0113
1488.00,0.0118
1487.00,0.0122
1486.00,0.0127
1485.00,0.0133
1484.00,0.0140
1483.00,0.0148
1482.00,0.0157
1481.00,0.0168
1480.00,0.0180
1479.00,0.0192
1478.00,0.0207
1477.00,0.0227
1476.00,0.0253
1475.00,0.0283
1474.00,0.0324
1473.00,0.0381
1472.00,0.0449
1471.00,0.0513
1470.00,0.0575
1469.00,0.0639
1468.00,0.0709
1467.00,0.0785
1466.00,0.0871
1465.00,0.0963
1464.00,0.1044
1463.00,0.1099
1462.00,0.1133
1461.00,0.1156
1460.00,0.1171
1459.00,0.1180
1458.00,0.1187
1457.00,0.1193
1456.00,0.1193
1455.00,0.1186
1454.00,0.1176
1453.00,0.1159
1452.00,0.1133
1451.00,0.1096
1450.00,0.1046
1449.00,0.0977
1448.00,0.0889
1447.00,0.0794
1446.00,0.0708
1445.00,0.0635
1444.00,0.0571
1443.00,0.0519
1442.00,0.0480
1441.00,0.0453
1440.00,0.0436
1439.00,0.0429
1438.00,0.0429
1437.00,0.0430
1436.00,0.0421
1435.00,0.0397
1434.00,0.0363
1433.00,0.0321
1432.00,0.0278
1431.00,0.0239
1430.00,0.0209
1429.00,0.0187
1428.00,0.0171
1427.00,0.0161
1426.00,0.0155
1425.00,0.0149
1424.00,0.0144
1423.00,0.0141
1422.00,0.0139
1421.00,0.0137
1420.00,0.0134
1419.00,0.0131
1418.00,0.0129
1417.00,0.0126
1416.00,0.0123
1415.00,0.0121
1414.00,0.0120
1413.00,0.0118
1412.00,0.0116
1411.00,0.0116
1410.00,0.0115
1409.00,0.0114
1408.00,0.0113
1407.00,0.0112
1406.00,0.0113
1405.00,0.0113
1404.00,0.0112
1403.00,0.0112
1402.00,0.0113
1401.00,0.0114
1400.00,0.0114
1399.00,0.0116
1398.00,0.0118
1397.00,0.0120
1396.00,0.0122
1395.00,0.0125
1394.00,0.0130
1393.00,0.0135
1392.00,0.0140
1391.00,0.0148
1390.00,0.0158
1389.00,0.0172
1388.00,0.0193
1387.00,0.0224
1386.00,0.0267
1385.00,0.0322
1384.00,0.0399
1383.00,0.0506
1382.00,0.0653
1381.00,0.0842
1380.00,0.1076
1379.00,0.1340
1378.00,0.1593
1377.00,0.1775
1376.00,0.1832
1375.00,0.1734
1374.00,0.1511
1373.00,0.1246
1372.00,0.1006
1371.00,0.0810
1370.00,0.0655
1369.00,0.0538
1368.00,0.0457
1367.00,0.0407
1366.00,0.0379
1365.00,0.0368
1364.00,0.0369
1363.00,0.0382
1362.00,0.0401
1361.00,0.0423
1360.00,0.0439
1359.00,0.0444
1358.00,0.0434
1357.00,0.0410
1356.00,0.0376
1355.00,0.0338
1354.00,0.0300
1353.00,0.0268
1352.00,0.0241
1351.00,0.0220
1350.00,0.0202
1349.00,0.0188
1348.00,0.0175
1347.00,0.0165
1346.00,0.0156
1345.00,0.0149
1344.00,0.0143
1343.00,0.0138
1342.00,0.0133
1341.00,0.0129
1340.00,0.0125
1339.00,0.0122
1338.00,0.0120
1337.00,0.0120
1336.00,0.0120
1335.00,0.0122
1334.00,0.0125
1333.00,0.0129
1332.00,0.0132
1331.00,0.0135
1330.00,0.0136
1329.00,0.0135
1328.00,0.0132
1327.00,0.0127
1326.00,0.0122
1325.00,0.0116
1324.00,0.0110
1323.00,0.0106
1322.00,0.0102
1321.00,0.0099
1320.00,0.0097
1319.00,0.0095
1318.00,0.0093
1317.00,0.0091
1316.00,0.0089
1315.00,0.0089
1314.00,0.0088
1313.00,0.0089
1312.00,0.0091
1311.00,0.0093
1310.00,0.0098
1309.00,0.0104
1308.00,0.0113
1307.00,0.0125
1306.00,0.0136
1305.00,0.0143
1304.00,0.0145
1303.00,0.0141
1302.00,0.0135
1301.00,0.0129
1300.00,0.0126
1299.00,0.0125
1298.00,0.0125
1297.00,0.0124
1296.00,0.0123
1295.00,0.0120
1294.00,0.0116
1293.00,0.0111
1292.00,0.0105
1291.00,0.0100
1290.00,0.0096
1289.00,0.0092
1288.00,0.0089
1287.00,0.0086
1286.00,0.0084
1285.00,0.0082
1284.00,0.0080
1283.00,0.0079
1282.00,0.0078
1281.00,0.0077
1280.00,0.0076
1279.00,0.0075
1278.00,0.0074
1277.00,0.0073
1276.00,0.0073
1275.00,0.0073
1274.00,0.0073
1273.00,0.0074
1272.00,0.0075
1271.00,0.0075
1270.00,0.0076
1269.00,0.0078
1268.00,0.0080
1267.00,0.0083
1266.00,0.0086
1265.00,0.0090
1264.00,0.0094
1263.00,0.0098
1262.00,0.0101
1261.00,0.0105
1260.00,0.0110
1259.00,0.0116
1258.00,0.0123
1257.00,0.0129
1256.00,0.0131
1255.00,0.0129
1254.00,0.0123
1253.00,0.0114
1252.00,0.0105
1251.00,0.0098
1250.00,0.0094
1249.00,0.0090
1248.00,0.0087
1247.00,0.0084
1246.00,0.0082
1245.00,0.0080
1244.00,0.0079
1243.00,0.0078
1242.00,0.0078
1241.00,0.0078
1240.00,0.0078
1239.00,0.0078
1238.00,0.0079
1237.00,0.0079
1236.00,0.0080
1235.00,0.0081
1234.00,0.0082
1233.00,0.0083
1232.00,0.0084
1231.00,0.0085
1230.00,0.0085
1229.00,0.0086
1228.00,0.0086
1227.00,0.0088
1226.00,0.0090
1225.00,0.0093
1224.00,0.0096
1223.00,0.0099
1222.00,0.0103
1221.00,0.0106
1220.00,0.0108
1219.00,0.0111
1218.00,0.0112
1217.00,0.0111
1216.00,0.0107
1215.00,0.0103
1214.00,0.0099
1213.00,0.0095
1212.00,0.0093
1211.00,0.0090
1210.00,0.0088
1209.00,0.0087
1208.00,0.0086
1207.00,0.0086
1206.00,0.0085
1205.00,0.0084
1204.00,0.0083
1203.00,0.0082
1202.00,0.0082
1201.00,0.0081
1200.00,0.0081
1199.00,0.0080
1198.00,0.0079
1197.00,0.0079
1196.00,0.0079
1195.00,0.0079
1194.00,0.0079
1193.00,0.0079
1192.00,0.0078
1191.00,0.0077
1190.00,0.0077
1189.00,0.0076
1188.00,0.0075
1187.00,0.0075
1186.00,0.0075
1185.00,0.0075
1184.00,0.0076
1183.00,0.0077
1182.00,0.0080
1181.00,0.0082
1180.00,0.0086
1179.00,0.0091
1178.00,0.0098
1177.00,0.0106
1176.00,0.0118
1175.00,0.0132
1174.00,0.0151
1173.00,0.0175
1172.00,0.0204
1171.00,0.0236
1170.00,0.0269
1169.00,0.0295
1168.00,0.0311
1167.00,0.0315
1166.00,0.0307
1165.00,0.0293
1164.00,0.0275
1163.00,0.0257
1162.00,0.0241
1161.00,0.0227
1160.00,0.0216
1159.00,0.0208
1158.00,0.0203
1157.00,0.0200
1156.00,0.0198
1155.00,0.0196
1154.00,0.0194
1153.00,0.0191
1152.00,0.0187
1151.00,0.0180
1150.00,0.0172
1149.00,0.0163
1148.00,0.0154
1147.00,0.0144
1146.00,0.0136
1145.00,0.0129
1144.00,0.0123
1143.00,0.0117
1142.00,0.0112
1141.00,0.0106
1140.00,0.0101
1139.00,0.0096
1138.00,0.0092
1137.00,0.0090
1136.00,0.0088
1135.00,0.0086
1134.00,0.0084
1133.00,0.0083
1132.00,0.0082
1131.00,0.0082
1130.00,0.0082
1129.00,0.0083
1128.00,0.0084
1127.00,0.0085
1126.00,0.0087
1125.00,0.0088
1124.00,0.0089
1123.00,0.0090
1122.00,0.0091
1121.00,0.0092
1120.00,0.0093
1119.00,0.0094
1118.00,0.0096
1117.00,0.0096
1116.00,0.0097
1115.00,0.0098
1114.00,0.0100
1113.00,0.0101
1112.00,0.0103
1111.00,0.0106
1110.00,0.0109
1109.00,0.0113
1108.00,0.0118
1107.00,0.0124
1106.00,0.0131
1105.00,0.0137
1104.00,0.0141
1103.00,0.0144
1102.00,0.0143
1101.00,0.0139
1100.00,0.0134
1099.00,0.0127
1098.00,0.0121
1097.00,0.0116
1096.00,0.0112
1095.00,0.0109
1094.00,0.0106
1093.00,0.0104
1092.00,0.0101
1091.00,0.0099
1090.00,0.0097
1089.00,0.0095
1088.00,0.0093
1087.00,0.0093
1086.00,0.0093
1085.00,0.0093
1084.00,0.0092
1083.00,0.0091
1082.00,0.0089
1081.00,0.0088
1080.00,0.0086
1079.00,0.0086
1078.00,0.0085
1077.00,0.0084
1076.00,0.0083
1075.00,0.0082
1074.00,0.0081
1073.00,0.0081
1072.00,0.0081
1071.00,0.0081
1070.00,0.0081
1069.00,0.0081
1068.00,0.0081
1067.00,0.0081
1066.00,0.0081
1065.00,0.0081
1064.00,0.0081
1063.00,0.0081
1062.00,0.0081
1061.00,0.0082
1060.00,0.0083
1059.00,0.0083
1058.00,0.0083
1057.00,0.0083
1056.00,0.0083
1055.00,0.0084
1054.00,0.0086
1053.00,0.0087
1052.00,0.0089
1051.00,0.0091
1050.00,0.0093
1049.00,0.0096
1048.00,0.0100
1047.00,0.0103
1046.00,0.0106
1045.00,0.0107
1044.00,0.0108
1043.00,0.0107
1042.00,0.0105
1041.00,0.0102
1040.00,0.0100
1039.00,0.0098
1038.00,0.0098
1037.00,0.0097
1036.00,0.0098
1035.00,0.0098
1034.00,0.0098
1033.00,0.0096
1032.00,0.0094
1031.00,0.0091
1030.00,0.0089
1029.00,0.0087
1028.00,0.0087
1027.00,0.0087
1026.00,0.0088
1025.00,0.0089
1024.00,0.0089
1023.00,0.0088
1022.00,0.0088
1021.00,0.0088
1020.00,0.0088
1019.00,0.0089
1018.00,0.0090
1017.00,0.0091
1016.00,0.0092
1015.00,0.0093
1014.00,0.0095
1013.00,0.0097
1012.00,0.0098
1011.00,0.0100
1010.00,0.0103
1009.00,0.0107
1008.00,0.0111
1007.00,0.0118
1006.00,0.0126
1005.00,0.0139
1004.00,0.0156
1003.00,0.0179
1002.00,0.0211
1001.00,0.0249
1000.00,0.0291
999.00,0.0326
998.00,0.0345
997.00,0.0340
996.00,0.0312
995.00,0.0271
994.00,0.0229
993.00,0.0193
992.00,0.0165
991.00,0.0145
990.00,0.0131
989.00,0.0121
988.00,0.0115
987.00,0.0112
986.00,0.0111
985.00,0.0113
984.00,0.0116
983.00,0.0122
982.00,0.0131
981.00,0.0146
980.00,0.0167
979.00,0.0196
978.00,0.0232
977.00,0.0275
976.00,0.0321
975.00,0.0366
974.00,0.0400
973.00,0.0414
972.00,0.0401
971.00,0.0363
970.00,0.0311
969.00,0.0257
968.00,0.0210
967.00,0.0174
966.00,0.0149
965.00,0.0131
964.00,0.0119
963.00,0.0109
962.00,0.0102
961.00,0.0097
960.00,0.0092
959.00,0.0089
958.00,0.0087
957.00,0.0084
956.00,0.0081
955.00,0.0079
954.00,0.0077
953.00,0.0076
952.00,0.0076
951.00,0.0076
950.00,0.0076
949.00,0.0075
948.00,0.0075
947.00,0.0075
946.00,0.0076
945.00,0.0077
944.00,0.0080
943.00,0.0084
942.00,0.0088
941.00,0.0090
940.00,0.0091
939.00,0.0089
938.00,0.0085
937.00,0.0080
936.00,0.0075
935.00,0.0071
934.00,0.0068
933.00,0.0067
932.00,0.0066
931.00,0.0065
930.00,0.0065
929.00,0.0064
928.00,0.0063
927.00,0.0063
926.00,0.0063
925.00,0.0063
924.00,0.0062
923.00,0.0062
922.00,0.0062
921.00,0.0062
920.00,0.0062
919.00,0.0063
918.00,0.0063
917.00,0.0063
916.00,0.0063
915.00,0.0064
914.00,0.0066
913.00,0.0068
912.00,0.0069
911.00,0.0071
910.00,0.0072
909.00,0.0074
908.00,0.0077
907.00,0.0082
906.00,0.0088
905.00,0.0098
904.00,0.0111
903.00,0.0128
902.00,0.0147
901.00,0.0164
900.00,0.0175
899.00,0.0178
898.00,0.0171
897.00,0.0157
896.00,0.0140
895.00,0.0123
894.00,0.0109
893.00,0.0099
892.00,0.0091
891.00,0.0086
890.00,0.0083
889.00,0.0081
888.00,0.0079
887.00,0.0078
886.00,0.0077
885.00,0.0077
884.00,0.0076
883.00,0.0075
882.00,0.0075
881.00,0.0075
880.00,0.0075
879.00,0.0075
878.00,0.0075
877.00,0.0075
876.00,0.0076
875.00,0.0077
874.00,0.0078
873.00,0.0079
872.00,0.0080
871.00,0.0080
870.00,0.0081
869.00,0.0081
868.00,0.0081
867.00,0.0081
866.00,0.0081
865.00,0.0081
864.00,0.0082
863.00,0.0083
862.00,0.0084
861.00,0.0085
860.00,0.0086
859.00,0.0088
858.00,0.0090
857.00,0.0092
856.00,0.0093
855.00,0.0094
854.00,0.0095
853.00,0.0097
852.00,0.0100
851.00,0.0104
850.00,0.0108
849.00,0.0114
848.00,0.0123
847.00,0.0137
846.00,0.0159
845.00,0.0192
844.00,0.0239
843.00,0.0294
842.00,0.0340
841.00,0.0357
840.00,0.0336
839.00,0.0286
838.00,0.0229
837.00,0.0183
836.00,0.0154
835.00,0.0137
834.00,0.0127
833.00,0.0121
832.00,0.0117
831.00,0.0114
830.00,0.0113
829.00,0.0111
828.00,0.0109
827.00,0.0107
826.00,0.0105
825.00,0.0104
824.00,0.0104
823.00,0.0103
822.00,0.0104
821.00,0.0105
820.00,0.0107
819.00,0.0110
818.00,0.0114
817.00,0.0120
816.00,0.0128
815.00,0.0141
814.00,0.0157
813.00,0.0176
812.00,0.0195
811.00,0.0213
810.00,0.0225
809.00,0.0230
808.00,0.0226
807.00,0.0214
806.00,0.0196
805.00,0.0177
804.00,0.0160
803.00,0.0148
802.00,0.0139
801.00,0.0132
800.00,0.0127
799.00,0.0122
798.00,0.0117
797.00,0.0113
796.00,0.0110
795.00,0.0106
794.00,0.0102
793.00,0.0097
792.00,0.0092
791.00,0.0087
790.00,0.0083
789.00,0.0080
788.00,0.0078
787.00,0.0077
786.00,0.0076
785.00,0.0074
784.00,0.0072
783.00,0.0070
782.00,0.0069
781.00,0.0069
780.00,0.0068
779.00,0.0067
778.00,0.0067
777.00,0.0068
776.00,0.0069
775.00,0.0069
774.00,0.0069
773.00,0.0069
772.00,0.0069
771.00,0.0069
770.00,0.0069
769.00,0.0069
768.00,0.0069
767.00,0.0068
766.00,0.0068
765.00,0.0068
764.00,0.0068
763.00,0.0069
762.00,0.0069
761.00,0.0070
760.00,0.0071
759.00,0.0072
758.00,0.0072
757.00,0.0072
756.00,0.0072
755.00,0.0072
754.00,0.0073
753.00,0.0074
752.00,0.0075
751.00,0.0076
750.00,0.0079
749.00,0.0081
748.00,0.0084
747.00,0.0085
746.00,0.0085
745.00,0.0084
744.00,0.0084
743.00,0.0086
742.00,0.0089
741.00,0.0094
740.00,0.0099
739.00,0.0104
738.00,0.0108
737.00,0.0112
736.00,0.0116
735.00,0.0120
734.00,0.0125
733.00,0.0132
732.00,0.0140
731.00,0.0149
730.00,0.0156
729.00,0.0160
728.00,0.0161
727.00,0.0160
726.00,0.0161
725.00,0.0163
724.00,0.0169
723.00,0.0176
722.00,0.0184
721.00,0.0189
720.00,0.0187
719.00,0.0179
718.00,0.0166
717.00,0.0152
716.00,0.0140
715.00,0.0130
714.00,0.0123
713.00,0.0118
712.00,0.0113
711.00,0.0110
710.00,0.0109
709.00,0.0109
708.00,0.0107
707.00,0.0106
706.00,0.0104
705.00,0.0103
704.00,0.0103
703.00,0.0103
702.00,0.0102
701.00,0.0101
700.00,0.0100
699.00,0.0099
698.00,0.0097
697.00,0.0097
696.00,0.0096
695.00,0.0095
694.00,0.0094
693.00,0.0093
692.00,0.0093
691.00,0.0093
690.00,0.0092
689.00,0.0091
688.00,0.0091
687.00,0.0093
686.00,0.0095
685.00,0.0095
684.00,0.0093
683.00,0.0089
682.00,0.0087
681.00,0.0087
680.00,0.0089
679.00,0.0091
678.00,0.0093
677.00,0.0095
676.00,0.0096
675.00,0.0098
674.00,0.0099
673.00,0.0100
672.00,0.0099
671.00,0.0098
670.00,0.0096
669.00,0.0094
668.00,0.0092
667.00,0.0092
666.00,0.0093
665.00,0.0093
664.00,0.0093
663.00,0.0093
662.00,0.0092
661.00,0.0093
660.00,0.0093
659.00,0.0094
658.00,0.0095
657.00,0.0095
656.00,0.0095
655.00,0.0093
654.00,0.0091
653.00,0.0088
652.00,0.0086
651.00,0.0086
650.00,0.0087
649.00,0.0089
648.00,0.0091
647.00,0.0091
646.00,0.0091
645.00,0.0090
644.00,0.0089
643.00,0.0090
642.00,0.0090
641.00,0.0090
640.00,0.0089
639.00,0.0088
638.00,0.0087
637.00,0.0087
636.00,0.0087
635.00,0.0086
634.00,0.0085
633.00,0.0084
632.00,0.0084
631.00,0.0084
630.00,0.0084
629.00,0.0085
628.00,0.0085
627.00,0.0086
626.00,0.0087
625.00,0.0088
624.00,0.0089
623.00,0.0089
622.00,0.0089
621.00,0.0088
620.00,0.0088
619.00,0.0088
618.00,0.0088
617.00,0.0087
616.00,0.0086
615.00,0.0085
614.00,0.0085
613.00,0.0087
612.00,0.0089
611.00,0.0090
610.00,0.0090
609.00,0.0088
608.00,0.0086
607.00,0.0084
606.00,0.0085
605.00,0.0086
604.00,0.0087
603.00,0.0088
602.00,0.0089
601.00,0.0089
600.00,0.0088
599.00,0.0086
598.00,0.0084
597.00,0.0082
596.00,0.0081
595.00,0.0082
594.00,0.0083
593.00,0.0084
592.00,0.0084
591.00,0.0083
590.00,0.0083
589.00,0.0083
588.00,0.0084
587.00,0.0086
586.00,0.0087
585.00,0.0088
584.00,0.0087
583.00,0.0086
582.00,0.0084
581.00,0.0084
580.00,0.0084
579.00,0.0086
578.00,0.0088
577.00,0.0090
576.00,0.0093
575.00,0.0094
574.00,0.0093
573.00,0.0091
572.00,0.0089
571.00,0.0086
570.00,0.0083
569.00,0.0081
568.00,0.0081
567.00,0.0082
566.00,0.0084
565.00,0.0088
564.00,0.0092
563.00,0.0094
562.00,0.0095
561.00,0.0095
560.00,0.0094
559.00,0.0093
558.00,0.0092
557.00,0.0092
556.00,0.0090
555.00,0.0088
554.00,0.0085
553.00,0.0084
552.00,0.0084
551.00,0.0085
550.00,0.0087
549.00,0.0089
548.00,0.0091
547.00,0.0091
546.00,0.0090
545.00,0.0088
544.00,0.0087
543.00,0.0089
542.00,0.0091
541.00,0.0094
540.00,0.0097
539.00,0.0101
538.00,0.0102
537.00,0.0100
536.00,0.0096
535.00,0.0093
534.00,0.0092
533.00,0.0094
532.00,0.0097
531.00,0.0101
530.00,0.0103
529.00,0.0104
528.00,0.0103
527.00,0.0104
526.00,0.0104
525.00,0.0104
524.00,0.0104
523.00,0.0106
522.00,0.0110
521.00,0.0110
520.00,0.0105
519.00,0.0097
518.00,0.0089
517.00,0.0084
516.00,0.0082
515.00,0.0083
514.00,0.0084
513.00,0.0084
512.00,0.0081
511.00,0.0079
510.00,0.0078
509.00,0.0077
508.00,0.0076
507.00,0.0080
506.00,0.0086
505.00,0.0091
504.00,0.0095
503.00,0.0099
502.00,0.0102
501.00,0.0104
500.00,0.0101
499.00,0.0093
498.00,0.0084
497.00,0.0078
496.00,0.0075
495.00,0.0073
494.00,0.0069
493.00,0.0065
492.00,0.0063
491.00,0.0066
490.00,0.0072
489.00,0.0077
488.00,0.0075
487.00,0.0072
486.00,0.0073
485.00,0.0081
484.00,0.0091
483.00,0.0097
482.00,0.0095
481.00,0.0089
480.00,0.0082
479.00,0.0078
478.00,0.0078
477.00,0.0081
476.00,0.0085
475.00,0.0089
474.00,0.0092
473.00,0.0093
472.00,0.0092
471.00,0.0091
470.00,0.0094
469.00,0.0102
468.00,0.0110
467.00,0.0114
466.00,0.0112
465.00,0.0111
464.00,0.0116
463.00,0.0131
462.00,0.0154
461.00,0.0179
460.00,0.0197
459.00,0.0202
458.00,0.0193
457.00,0.0178
456.00,0.0163
455.00,0.0148
454.00,0.0134
453.00,0.0118
452.00,0.0106
451.00,0.0100
450.00,0.0096
