Created as New Dataset,Sample 015 By Administrator Date Thursday, September 04 2025
cm-1,A
4000.00,0.0009
3999.00,0.0009
3998.00,0.0009
3997.00,0.0008
3996.00,0.0008
3995.00,0.0008
3994.00,0.0008
3993.00,0.0008
3992.00,0.0009
3991.00,0.0009
3990.00,0.0009
3989.00,0.0009
3988.00,0.0009
3987.00,0.0010
3986.00,0.0010
3985.00,0.0009
3984.00,0.0009
3983.00,0.0008
3982.00,0.0008
3981.00,0.0008
3980.00,0.0008
3979.00,0.0008
3978.00,0.0008
3977.00,0.0008
3976.00,0.0008
3975.00,0.0008
3974.00,0.0008
3973.00,0.0008
3972.00,0.0008
3971.00,0.0008
3970.00,0.0008
3969.00,0.0008
3968.00,0.0008
3967.00,0.0008
3966.00,0.0008
3965.00,0.0008
3964.00,0.0008
3963.00,0.0008
3962.00,0.0008
3961.00,0.0008
3960.00,0.0007
3959.00,0.0007
3958.00,0.0007
3957.00,0.0007
3956.00,0.0007
3955.00,0.0007
3954.00,0.0007
3953.00,0.0007
3952.00,0.0007
3951.00,0.0007
3950.00,0.0007
3949.00,0.0008
3948.00,0.0008
3947.00,0.0008
3946.00,0.0009
3945.00,0.0009
3944.00,0.0009
3943.00,0.0009
3942.00,0.0009
3941.00,0.0009
3940.00,0.0008
3939.00,0.0008
3938.00,0.0008
3937.00,0.0008
3936.00,0.0008
3935.00,0.0008
3934.00,0.0008
3933.00,0.0008
3932.00,0.0009
3931.00,0.0009
3930.00,0.0009
3929.00,0.0009
3928.00,0.0009
3927.00,0.0009
3926.00,0.0009
3925.00,0.0009
3924.00,0.0009
3923.00,0.0009
3922.00,0.0009
3921.00,0.0009
3920.00,0.0009
3919.00,0.0008
3918.00,0.0009
3917.00,0.0009
3916.00,0.0009
3915.00,0.0008
3914.00,0.0008
3913.00,0.0008
3912.00,0.0008
3911.00,0.0008
3910.00,0.0008
3909.00,0.0008
3908.00,0.0009
3907.00,0.0009
3906.00,0.0009
3905.00,0.0010
3904.00,0.0009
3903.00,0.0009
3902.00,0.0009
3901.00,0.0009
3900.00,0.0009
3899.00,0.0009
3898.00,0.0009
3897.00,0.0008
3896.00,0.0008
3895.00,0.0008
3894.00,0.0008
3893.00,0.0008
3892.00,0.0008
3891.00,0.0008
3890.00,0.0008
3889.00,0.0008
3888.00,0.0008
3887.00,0.0008
3886.00,0.0008
3885.00,0.0008
3884.00,0.0008
3883.00,0.0009
3882.00,0.0009
3881.00,0.0009
3880.00,0.0008
3879.00,0.0008
3878.00,0.0008
3877.00,0.0008
3876.00,0.0008
3875.00,0.0008
3874.00,0.0008
3873.00,0.0008
3872.00,0.0008
3871.00,0.0008
3870.00,0.0009
3869.00,0.0009
3868.00,0.0009
3867.00,0.0009
3866.00,0.0008
3865.00,0.0008
3864.00,0.0008
3863.00,0.0008
3862.00,0.0008
3861.00,0.0008
3860.00,0.0008
3859.00,0.0008
3858.00,0.0008
3857.00,0.0008
3856.00,0.0008
3855.00,0.0008
3854.00,0.0008
3853.00,0.0008
3852.00,0.0008
3851.00,0.0008
3850.00,0.0008
3849.00,0.0008
3848.00,0.0008
3847.00,0.0008
3846.00,0.0008
3845.00,0.0008
3844.00,0.0008
3843.00,0.0008
3842.00,0.0008
3841.00,0.0007
3840.00,0.0007
3839.00,0.0007
3838.00,0.0007
3837.00,0.0007
3836.00,0.0007
3835.00,0.0007
3834.00,0.0007
3833.00,0.0008
3832.00,0.0008
3831.00,0.0008
3830.00,0.0008
3829.00,0.0008
3828.00,0.0007
3827.00,0.0007
3826.00,0.0007
3825.00,0.0007
3824.00,0.0007
3823.00,0.0008
3822.00,0.0008
3821.00,0.0008
3820.00,0.0008
3819.00,0.0008
3818.00,0.0009
3817.00,0.0009
3816.00,0.0008
3815.00,0.0008
3814.00,0.0008
3813.00,0.0008
3812.00,0.0008
3811.00,0.0008
3810.00,0.0008
3809.00,0.0008
3808.00,0.0007
3807.00,0.0007
3806.00,0.0007
3805.00,0.0007
3804.00,0.0007
3803.00,0.0008
3802.00,0.0007
3801.00,0.0007
3800.00,0.0007
3799.00,0.0007
3798.00,0.0007
3797.00,0.0007
3796.00,0.0007
3795.00,0.0007
3794.00,0.0007
3793.00,0.0007
3792.00,0.0007
3791.00,0.0007
3790.00,0.0007
3789.00,0.0008
3788.00,0.0008
3787.00,0.0007
3786.00,0.0007
3785.00,0.0007
3784.00,0.0007
3783.00,0.0007
3782.00,0.0007
3781.00,0.0007
3780.00,0.0008
3779.00,0.0008
3778.00,0.0008
3777.00,0.0008
3776.00,0.0008
3775.00,0.0008
3774.00,0.0008
3773.00,0.0008
3772.00,0.0008
3771.00,0.0008
3770.00,0.0008
3769.00,0.0008
3768.00,0.0008
3767.00,0.0008
3766.00,0.0008
3765.00,0.0008
3764.00,0.0008
3763.00,0.0008
3762.00,0.0008
3761.00,0.0009
3760.00,0.0009
3759.00,0.0009
3758.00,0.0009
3757.00,0.0009
3756.00,0.0009
3755.00,0.0009
3754.00,0.0009
3753.00,0.0009
3752.00,0.0009
3751.00,0.0009
3750.00,0.0009
3749.00,0.0010
3748.00,0.0010
3747.00,0.0011
3746.00,0.0011
3745.00,0.0011
3744.00,0.0010
3743.00,0.0010
3742.00,0.0010
3741.00,0.0010
3740.00,0.0009
3739.00,0.0009
3738.00,0.0009
3737.00,0.0009
3736.00,0.0009
3735.00,0.0009
3734.00,0.0009
3733.00,0.0009
3732.00,0.0009
3731.00,0.0009
3730.00,0.0009
3729.00,0.0009
3728.00,0.0009
3727.00,0.0009
3726.00,0.0009
3725.00,0.0008
3724.00,0.0009
3723.00,0.0009
3722.00,0.0009
3721.00,0.0008
3720.00,0.0008
3719.00,0.0007
3718.00,0.0007
3717.00,0.0007
3716.00,0.0007
3715.00,0.0008
3714.00,0.0008
3713.00,0.0008
3712.00,0.0009
3711.00,0.0008
3710.00,0.0008
3709.00,0.0008
3708.00,0.0008
3707.00,0.0008
3706.00,0.0008
3705.00,0.0008
3704.00,0.0008
3703.00,0.0008
3702.00,0.0008
3701.00,0.0008
3700.00,0.0008
3699.00,0.0008
3698.00,0.0008
3697.00,0.0008
3696.00,0.0008
3695.00,0.0009
3694.00,0.0009
3693.00,0.0009
3692.00,0.0009
3691.00,0.0009
3690.00,0.0009
3689.00,0.0009
3688.00,0.0009
3687.00,0.0010
3686.00,0.0011
3685.00,0.0011
3684.00,0.0011
3683.00,0.0011
3682.00,0.0011
3681.00,0.0011
3680.00,0.0012
3679.00,0.0012
3678.00,0.0013
3677.00,0.0014
3676.00,0.0014
3675.00,0.0014
3674.00,0.0014
3673.00,0.0014
3672.00,0.0015
3671.00,0.0015
3670.00,0.0015
3669.00,0.0015
3668.00,0.0014
3667.00,0.0014
3666.00,0.0014
3665.00,0.0013
3664.00,0.0013
3663.00,0.0013
3662.00,0.0013
3661.00,0.0013
3660.00,0.0013
3659.00,0.0014
3658.00,0.0014
3657.00,0.0015
3656.00,0.0016
3655.00,0.0017
3654.00,0.0018
3653.00,0.0018
3652.00,0.0019
3651.00,0.0019
3650.00,0.0019
3649.00,0.0019
3648.00,0.0019
3647.00,0.0019
3646.00,0.0019
3645.00,0.0019
3644.00,0.0019
3643.00,0.0019
3642.00,0.0019
3641.00,0.0020
3640.00,0.0020
3639.00,0.0020
3638.00,0.0020
3637.00,0.0021
3636.00,0.0021
3635.00,0.0021
3634.00,0.0022
3633.00,0.0023
3632.00,0.0024
3631.00,0.0025
3630.00,0.0026
3629.00,0.0027
3628.00,0.0027
3627.00,0.0028
3626.00,0.0028
3625.00,0.0028
3624.00,0.0028
3623.00,0.0028
3622.00,0.0028
3621.00,0.0028
3620.00,0.0029
3619.00,0.0030
3618.00,0.0031
3617.00,0.0032
3616.00,0.0033
3615.00,0.0033
3614.00,0.0034
3613.00,0.0034
3612.00,0.0034
3611.00,0.0035
3610.00,0.0035
3609.00,0.0036
3608.00,0.0037
3607.00,0.0038
3606.00,0.0038
3605.00,0.0039
3604.00,0.0039
3603.00,0.0039
3602.00,0.0039
3601.00,0.0039
3600.00,0.0040
3599.00,0.0040
3598.00,0.0041
3597.00,0.0041
3596.00,0.0042
3595.00,0.0043
3594.00,0.0043
3593.00,0.0044
3592.00,0.0045
3591.00,0.0045
3590.00,0.0046
3589.00,0.0047
3588.00,0.0048
3587.00,0.0049
3586.00,0.0050
3585.00,0.0051
3584.00,0.0052
3583.00,0.0052
3582.00,0.0053
3581.00,0.0053
3580.00,0.0054
3579.00,0.0055
3578.00,0.0055
3577.00,0.0055
3576.00,0.0056
3575.00,0.0056
3574.00,0.0057
3573.00,0.0058
3572.00,0.0059
3571.00,0.0060
3570.00,0.0061
3569.00,0.0062
3568.00,0.0063
3567.00,0.0065
3566.00,0.0066
3565.00,0.0067
3564.00,0.0067
3563.00,0.0068
3562.00,0.0068
3561.00,0.0069
3560.00,0.0069
3559.00,0.0070
3558.00,0.0070
3557.00,0.0071
3556.00,0.0072
3555.00,0.0073
3554.00,0.0074
3553.00,0.0075
3552.00,0.0076
3551.00,0.0077
3550.00,0.0079
3549.00,0.0080
3548.00,0.0081
3547.00,0.0082
3546.00,0.0083
3545.00,0.0083
3544.00,0.0084
3543.00,0.0085
3542.00,0.0086
3541.00,0.0087
3540.00,0.0088
3539.00,0.0088
3538.00,0.0089
3537.00,0.0090
3536.00,0.0091
3535.00,0.0092
3534.00,0.0094
3533.00,0.0095
3532.00,0.0096
3531.00,0.0096
3530.00,0.0097
3529.00,0.0098
3528.00,0.0099
3527.00,0.0101
3526.00,0.0102
3525.00,0.0104
3524.00,0.0105
3523.00,0.0105
3522.00,0.0106
3521.00,0.0107
3520.00,0.0107
3519.00,0.0108
3518.00,0.0110
3517.00,0.0111
3516.00,0.0112
3515.00,0.0113
3514.00,0.0114
3513.00,0.0115
3512.00,0.0116
3511.00,0.0117
3510.00,0.0118
3509.00,0.0120
3508.00,0.0121
3507.00,0.0122
3506.00,0.0123
3505.00,0.0124
3504.00,0.0126
3503.00,0.0127
3502.00,0.0128
3501.00,0.0129
3500.00,0.0130
3499.00,0.0131
3498.00,0.0133
3497.00,0.0134
3496.00,0.0134
3495.00,0.0135
3494.00,0.0135
3493.00,0.0137
3492.00,0.0138
3491.00,0.0139
3490.00,0.0140
3489.00,0.0142
3488.00,0.0143
3487.00,0.0143
3486.00,0.0144
3485.00,0.0145
3484.00,0.0145
3483.00,0.0146
3482.00,0.0147
3481.00,0.0148
3480.00,0.0150
3479.00,0.0151
3478.00,0.0152
3477.00,0.0153
3476.00,0.0154
3475.00,0.0154
3474.00,0.0155
3473.00,0.0156
3472.00,0.0157
3471.00,0.0158
3470.00,0.0159
3469.00,0.0160
3468.00,0.0160
3467.00,0.0161
3466.00,0.0162
3465.00,0.0163
3464.00,0.0164
3463.00,0.0165
3462.00,0.0166
3461.00,0.0167
3460.00,0.0167
3459.00,0.0168
3458.00,0.0168
3457.00,0.0169
3456.00,0.0171
3455.00,0.0172
3454.00,0.0173
3453.00,0.0174
3452.00,0.0175
3451.00,0.0175
3450.00,0.0176
3449.00,0.0176
3448.00,0.0177
3447.00,0.0178
3446.00,0.0179
3445.00,0.0180
3444.00,0.0180
3443.00,0.0181
3442.00,0.0181
3441.00,0.0182
3440.00,0.0183
3439.00,0.0183
3438.00,0.0184
3437.00,0.0184
3436.00,0.0185
3435.00,0.0186
3434.00,0.0187
3433.00,0.0187
3432.00,0.0188
3431.00,0.0189
3430.00,0.0190
3429.00,0.0190
3428.00,0.0190
3427.00,0.0191
3426.00,0.0192
3425.00,0.0192
3424.00,0.0193
3423.00,0.0194
3422.00,0.0195
3421.00,0.0196
3420.00,0.0197
3419.00,0.0197
3418.00,0.0198
3417.00,0.0198
3416.00,0.0198
3415.00,0.0199
3414.00,0.0199
3413.00,0.0199
3412.00,0.0200
3411.00,0.0201
3410.00,0.0201
3409.00,0.0202
3408.00,0.0202
3407.00,0.0203
3406.00,0.0203
3405.00,0.0203
3404.00,0.0203
3403.00,0.0203
3402.00,0.0204
3401.00,0.0204
3400.00,0.0204
3399.00,0.0205
3398.00,0.0205
3397.00,0.0206
3396.00,0.0206
3395.00,0.0206
3394.00,0.0206
3393.00,0.0207
3392.00,0.0207
3391.00,0.0208
3390.00,0.0208
3389.00,0.0209
3388.00,0.0209
3387.00,0.0210
3386.00,0.0210
3385.00,0.0210
3384.00,0.0210
3383.00,0.0210
3382.00,0.0211
3381.00,0.0211
3380.00,0.0212
3379.00,0.0212
3378.00,0.0213
3377.00,0.0213
3376.00,0.0213
3375.00,0.0213
3374.00,0.0213
3373.00,0.0213
3372.00,0.0213
3371.00,0.0214
3370.00,0.0214
3369.00,0.0214
3368.00,0.0214
3367.00,0.0214
3366.00,0.0214
3365.00,0.0214
3364.00,0.0214
3363.00,0.0214
3362.00,0.0214
3361.00,0.0214
3360.00,0.0215
3359.00,0.0214
3358.00,0.0214
3357.00,0.0214
3356.00,0.0214
3355.00,0.0214
3354.00,0.0215
3353.00,0.0215
3352.00,0.0215
3351.00,0.0214
3350.00,0.0214
3349.00,0.0214
3348.00,0.0214
3347.00,0.0214
3346.00,0.0214
3345.00,0.0213
3344.00,0.0213
3343.00,0.0212
3342.00,0.0212
3341.00,0.0211
3340.00,0.0211
3339.00,0.0211
3338.00,0.0211
3337.00,0.0211
3336.00,0.0211
3335.00,0.0210
3334.00,0.0210
3333.00,0.0209
3332.00,0.0209
3331.00,0.0208
3330.00,0.0208
3329.00,0.0208
3328.00,0.0207
3327.00,0.0207
3326.00,0.0207
3325.00,0.0206
3324.00,0.0206
3323.00,0.0206
3322.00,0.0205
3321.00,0.0204
3320.00,0.0204
3319.00,0.0203
3318.00,0.0203
3317.00,0.0203
3316.00,0.0203
3315.00,0.0203
3314.00,0.0203
3313.00,0.0202
3312.00,0.0202
3311.00,0.0201
3310.00,0.0201
3309.00,0.0201
3308.00,0.0201
3307.00,0.0200
3306.00,0.0200
3305.00,0.0200
3304.00,0.0199
3303.00,0.0199
3302.00,0.0199
3301.00,0.0199
3300.00,0.0198
3299.00,0.0197
3298.00,0.0196
3297.00,0.0195
3296.00,0.0194
3295.00,0.0193
3294.00,0.0193
3293.00,0.0192
3292.00,0.0191
3291.00,0.0190
3290.00,0.0189
3289.00,0.0189
3288.00,0.0188
3287.00,0.0187
3286.00,0.0187
3285.00,0.0186
3284.00,0.0186
3283.00,0.0185
3282.00,0.0185
3281.00,0.0184
3280.00,0.0183
3279.00,0.0182
3278.00,0.0181
3277.00,0.0181
3276.00,0.0180
3275.00,0.0179
3274.00,0.0178
3273.00,0.0177
3272.00,0.0177
3271.00,0.0176
3270.00,0.0176
3269.00,0.0175
3268.00,0.0175
3267.00,0.0174
3266.00,0.0174
3265.00,0.0173
3264.00,0.0172
3263.00,0.0172
3262.00,0.0171
3261.00,0.0170
3260.00,0.0169
3259.00,0.0168
3258.00,0.0168
3257.00,0.0167
3256.00,0.0167
3255.00,0.0166
3254.00,0.0166
3253.00,0.0165
3252.00,0.0164
3251.00,0.0163
3250.00,0.0163
3249.00,0.0162
3248.00,0.0162
3247.00,0.0161
3246.00,0.0160
3245.00,0.0160
3244.00,0.0159
3243.00,0.0158
3242.00,0.0157
3241.00,0.0157
3240.00,0.0156
3239.00,0.0155
3238.00,0.0155
3237.00,0.0154
3236.00,0.0154
3235.00,0.0153
3234.00,0.0153
3233.00,0.0152
3232.00,0.0152
3231.00,0.0151
3230.00,0.0151
3229.00,0.0150
3228.00,0.0150
3227.00,0.0149
3226.00,0.0148
3225.00,0.0148
3224.00,0.0148
3223.00,0.0147
3222.00,0.0147
3221.00,0.0147
3220.00,0.0146
3219.00,0.0146
3218.00,0.0145
3217.00,0.0145
3216.00,0.0145
3215.00,0.0145
3214.00,0.0145
3213.00,0.0145
3212.00,0.0145
3211.00,0.0144
3210.00,0.0144
3209.00,0.0144
3208.00,0.0143
3207.00,0.0143
3206.00,0.0142
3205.00,0.0142
3204.00,0.0141
3203.00,0.0141
3202.00,0.0141
3201.00,0.0141
3200.00,0.0140
3199.00,0.0140
3198.00,0.0139
3197.00,0.0138
3196.00,0.0138
3195.00,0.0137
3194.00,0.0137
3193.00,0.0136
3192.00,0.0136
3191.00,0.0135
3190.00,0.0135
3189.00,0.0135
3188.00,0.0134
3187.00,0.0134
3186.00,0.0134
3185.00,0.0134
3184.00,0.0133
3183.00,0.0132
3182.00,0.0132
3181.00,0.0131
3180.00,0.0131
3179.00,0.0130
3178.00,0.0130
3177.00,0.0130
3176.00,0.0129
3175.00,0.0128
3174.00,0.0127
3173.00,0.0127
3172.00,0.0126
3171.00,0.0125
3170.00,0.0124
3169.00,0.0124
3168.00,0.0124
3167.00,0.0124
3166.00,0.0123
3165.00,0.0123
3164.00,0.0122
3163.00,0.0121
3162.00,0.0120
3161.00,0.0119
3160.00,0.0119
3159.00,0.0118
3158.00,0.0118
3157.00,0.0117
3156.00,0.0117
3155.00,0.0116
3154.00,0.0115
3153.00,0.0115
3152.00,0.0115
3151.00,0.0114
3150.00,0.0114
3149.00,0.0114
3148.00,0.0113
3147.00,0.0113
3146.00,0.0112
3145.00,0.0111
3144.00,0.0111
3143.00,0.0110
3142.00,0.0110
3141.00,0.0109
3140.00,0.0109
3139.00,0.0108
3138.00,0.0107
3137.00,0.0107
3136.00,0.0106
3135.00,0.0106
3134.00,0.0105
3133.00,0.0104
3132.00,0.0104
3131.00,0.0103
3130.00,0.0103
3129.00,0.0102
3128.00,0.0102
3127.00,0.0101
3126.00,0.0100
3125.00,0.0100
3124.00,0.0099
3123.00,0.0099
3122.00,0.0098
3121.00,0.0098
3120.00,0.0097
3119.00,0.0097
3118.00,0.0096
3117.00,0.0096
3116.00,0.0095
3115.00,0.0095
3114.00,0.0094
3113.00,0.0094
3112.00,0.0094
3111.00,0.0093
3110.00,0.0092
3109.00,0.0091
3108.00,0.0091
3107.00,0.0090
3106.00,0.0090
3105.00,0.0090
3104.00,0.0089
3103.00,0.0089
3102.00,0.0088
3101.00,0.0087
3100.00,0.0087
3099.00,0.0086
3098.00,0.0086
3097.00,0.0086
3096.00,0.0085
3095.00,0.0085
3094.00,0.0084
3093.00,0.0084
3092.00,0.0083
3091.00,0.0083
3090.00,0.0083
3089.00,0.0082
3088.00,0.0082
3087.00,0.0081
3086.00,0.0080
3085.00,0.0080
3084.00,0.0079
3083.00,0.0079
3082.00,0.0079
3081.00,0.0078
3080.00,0.0078
3079.00,0.0078
3078.00,0.0078
3077.00,0.0078
3076.00,0.0079
3075.00,0.0079
3074.00,0.0079
3073.00,0.0079
3072.00,0.0079
3071.00,0.0080
3070.00,0.0080
3069.00,0.0080
3068.00,0.0080
3067.00,0.0081
3066.00,0.0081
3065.00,0.0081
3064.00,0.0080
3063.00,0.0080
3062.00,0.0080
3061.00,0.0080
3060.00,0.0080
3059.00,0.0080
3058.00,0.0080
3057.00,0.0079
3056.00,0.0079
3055.00,0.0079
3054.00,0.0079
3053.00,0.0079
3052.00,0.0079
3051.00,0.0079
3050.00,0.0080
3049.00,0.0080
3048.00,0.0080
3047.00,0.0080
3046.00,0.0081
3045.00,0.0081
3044.00,0.0082
3043.00,0.0082
3042.00,0.0082
3041.00,0.0082
3040.00,0.0083
3039.00,0.0083
3038.00,0.0084
3037.00,0.0084
3036.00,0.0085
3035.00,0.0085
3034.00,0.0085
3033.00,0.0086
3032.00,0.0086
3031.00,0.0087
3030.00,0.0087
3029.00,0.0087
3028.00,0.0088
3027.00,0.0088
3026.00,0.0088
3025.00,0.0089
3024.00,0.0089
3023.00,0.0090
3022.00,0.0090
3021.00,0.0091
3020.00,0.0091
3019.00,0.0092
3018.00,0.0092
3017.00,0.0092
3016.00,0.0092
3015.00,0.0092
3014.00,0.0092
3013.00,0.0093
3012.00,0.0094
3011.00,0.0095
3010.00,0.0096
3009.00,0.0096
3008.00,0.0097
3007.00,0.0098
3006.00,0.0099
3005.00,0.0100
3004.00,0.0101
3003.00,0.0102
3002.00,0.0103
3001.00,0.0105
3000.00,0.0106
2999.00,0.0108
2998.00,0.0111
2997.00,0.0113
2996.00,0.0116
2995.00,0.0120
2994.00,0.0124
2993.00,0.0128
2992.00,0.0133
2991.00,0.0137
2990.00,0.0142
2989.00,0.0148
2988.00,0.0154
2987.00,0.0160
2986.00,0.0168
2985.00,0.0176
2984.00,0.0185
2983.00,0.0195
2982.00,0.0207
2981.00,0.0220
2980.00,0.0236
2979.00,0.0254
2978.00,0.0274
2977.00,0.0296
2976.00,0.0322
2975.00,0.0351
2974.00,0.0385
2973.00,0.0424
2972.00,0.0467
2971.00,0.0517
2970.00,0.0571
2969.00,0.0632
2968.00,0.0698
2967.00,0.0770
2966.00,0.0845
2965.00,0.0922
2964.00,0.0998
2963.00,0.1070
2962.00,0.1132
2961.00,0.1182
2960.00,0.1219
2959.00,0.1246
2958.00,0.1268
2957.00,0.1289
2956.00,0.1317
2955.00,0.1353
2954.00,0.1397
2953.00,0.1444
2952.00,0.1487
2951.00,0.1516
2950.00,0.1522
2949.00,0.1502
2948.00,0.1455
2947.00,0.1388
2946.00,0.1310
2945.00,0.1230
2944.00,0.1157
2943.00,0.1098
2942.00,0.1055
2941.00,0.1030
2940.00,0.1021
2939.00,0.1027
2938.00,0.1048
2937.00,0.1081
2936.00,0.1127
2935.00,0.1183
2934.00,0.1248
2933.00,0.1322
2932.00,0.1404
2931.00,0.1493
2930.00,0.1586
2929.00,0.1681
2928.00,0.1776
2927.00,0.1868
2926.00,0.1955
2925.00,0.2037
2924.00,0.2114
2923.00,0.2186
2922.00,0.2253
2921.00,0.2313
2920.00,0.2362
2919.00,0.2392
2918.00,0.2397
2917.00,0.2373
2916.00,0.2321
2915.00,0.2245
2914.00,0.2155
2913.00,0.2062
2912.00,0.1975
2911.00,0.1896
2910.00,0.1828
2909.00,0.1769
2908.00,0.1715
2907.00,0.1664
2906.00,0.1614
2905.00,0.1563
2904.00,0.1511
2903.00,0.1458
2902.00,0.1405
2901.00,0.1353
2900.00,0.1301
2899.00,0.1252
2898.00,0.1205
2897.00,0.1162
2896.00,0.1122
2895.00,0.1086
2894.00,0.1055
2893.00,0.1029
2892.00,0.1007
2891.00,0.0988
2890.00,0.0974
2889.00,0.0963
2888.00,0.0955
2887.00,0.0949
2886.00,0.0946
2885.00,0.0946
2884.00,0.0949
2883.00,0.0955
2882.00,0.0965
2881.00,0.0976
2880.00,0.0988
2879.00,0.0998
2878.00,0.1004
2877.00,0.1007
2876.00,0.1007
2875.00,0.1006
2874.00,0.1008
2873.00,0.1014
2872.00,0.1025
2871.00,0.1039
2870.00,0.1056
2869.00,0.1073
2868.00,0.1086
2867.00,0.1092
2866.00,0.1087
2865.00,0.1068
2864.00,0.1040
2863.00,0.1006
2862.00,0.0974
2861.00,0.0948
2860.00,0.0933
2859.00,0.0927
2858.00,0.0929
2857.00,0.0937
2856.00,0.0948
2855.00,0.0960
2854.00,0.0969
2853.00,0.0975
2852.00,0.0976
2851.00,0.0972
2850.00,0.0962
2849.00,0.0948
2848.00,0.0934
2847.00,0.0922
2846.00,0.0918
2845.00,0.0924
2844.00,0.0938
2843.00,0.0960
2842.00,0.0984
2841.00,0.1005
2840.00,0.1018
2839.00,0.1018
2838.00,0.0999
2837.00,0.0960
2836.00,0.0904
2835.00,0.0833
2834.00,0.0755
2833.00,0.0676
2832.00,0.0602
2831.00,0.0536
2830.00,0.0480
2829.00,0.0434
2828.00,0.0395
2827.00,0.0364
2826.00,0.0338
2825.00,0.0316
2824.00,0.0297
2823.00,0.0281
2822.00,0.0266
2821.00,0.0254
2820.00,0.0243
2819.00,0.0233
2818.00,0.0224
2817.00,0.0217
2816.00,0.0210
2815.00,0.0204
2814.00,0.0198
2813.00,0.0192
2812.00,0.0187
2811.00,0.0182
2810.00,0.0178
2809.00,0.0173
2808.00,0.0168
2807.00,0.0163
2806.00,0.0157
2805.00,0.0152
2804.00,0.0146
2803.00,0.0141
2802.00,0.0137
2801.00,0.0133
2800.00,0.0130
2799.00,0.0127
2798.00,0.0125
2797.00,0.0122
2796.00,0.0120
2795.00,0.0118
2794.00,0.0116
2793.00,0.0113
2792.00,0.0110
2791.00,0.0107
2790.00,0.0104
2789.00,0.0100
2788.00,0.0097
2787.00,0.0095
2786.00,0.0092
2785.00,0.0090
2784.00,0.0088
2783.00,0.0086
2782.00,0.0084
2781.00,0.0082
2780.00,0.0080
2779.00,0.0079
2778.00,0.0077
2777.00,0.0076
2776.00,0.0074
2775.00,0.0073
2774.00,0.0072
2773.00,0.0071
2772.00,0.0071
2771.00,0.0071
2770.00,0.0070
2769.00,0.0070
2768.00,0.0069
2767.00,0.0069
2766.00,0.0068
2765.00,0.0068
2764.00,0.0067
2763.00,0.0067
2762.00,0.0066
2761.00,0.0065
2760.00,0.0065
2759.00,0.0064
2758.00,0.0064
2757.00,0.0064
2756.00,0.0064
2755.00,0.0064
2754.00,0.0064
2753.00,0.0064
2752.00,0.0063
2751.00,0.0063
2750.00,0.0062
2749.00,0.0062
2748.00,0.0062
2747.00,0.0062
2746.00,0.0062
2745.00,0.0063
2744.00,0.0063
2743.00,0.0064
2742.00,0.0065
2741.00,0.0066
2740.00,0.0067
2739.00,0.0067
2738.00,0.0068
2737.00,0.0069
2736.00,0.0069
2735.00,0.0070
2734.00,0.0071
2733.00,0.0072
2732.00,0.0073
2731.00,0.0074
2730.00,0.0075
2729.00,0.0077
2728.00,0.0078
2727.00,0.0080
2726.00,0.0082
2725.00,0.0084
2724.00,0.0085
2723.00,0.0085
2722.00,0.0084
2721.00,0.0083
2720.00,0.0081
2719.00,0.0078
2718.00,0.0076
2717.00,0.0074
2716.00,0.0072
2715.00,0.0070
2714.00,0.0068
2713.00,0.0066
2712.00,0.0064
2711.00,0.0063
2710.00,0.0061
2709.00,0.0060
2708.00,0.0058
2707.00,0.0058
2706.00,0.0057
2705.00,0.0057
2704.00,0.0056
2703.00,0.0055
2702.00,0.0055
2701.00,0.0054
2700.00,0.0053
2699.00,0.0053
2698.00,0.0053
2697.00,0.0053
2696.00,0.0052
2695.00,0.0052
2694.00,0.0052
2693.00,0.0053
2692.00,0.0053
2691.00,0.0053
2690.00,0.0053
2689.00,0.0052
2688.00,0.0052
2687.00,0.0052
2686.00,0.0052
2685.00,0.0052
2684.00,0.0052
2683.00,0.0052
2682.00,0.0052
2681.00,0.0052
2680.00,0.0052
2679.00,0.0052
2678.00,0.0052
2677.00,0.0052
2676.00,0.0052
2675.00,0.0052
2674.00,0.0051
2673.00,0.0051
2672.00,0.0050
2671.00,0.0050
2670.00,0.0050
2669.00,0.0050
2668.00,0.0050
2667.00,0.0050
2666.00,0.0050
2665.00,0.0050
2664.00,0.0051
2663.00,0.0051
2662.00,0.0052
2661.00,0.0052
2660.00,0.0053
2659.00,0.0052
2658.00,0.0052
2657.00,0.0051
2656.00,0.0051
2655.00,0.0050
2654.00,0.0050
2653.00,0.0049
2652.00,0.0049
2651.00,0.0049
2650.00,0.0048
2649.00,0.0048
2648.00,0.0047
2647.00,0.0047
2646.00,0.0047
2645.00,0.0046
2644.00,0.0046
2643.00,0.0045
2642.00,0.0045
2641.00,0.0045
2640.00,0.0044
2639.00,0.0044
2638.00,0.0044
2637.00,0.0043
2636.00,0.0043
2635.00,0.0043
2634.00,0.0044
2633.00,0.0044
2632.00,0.0044
2631.00,0.0043
2630.00,0.0043
2629.00,0.0043
2628.00,0.0042
2627.00,0.0042
2626.00,0.0042
2625.00,0.0042
2624.00,0.0043
2623.00,0.0043
2622.00,0.0043
2621.00,0.0042
2620.00,0.0042
2619.00,0.0042
2618.00,0.0042
2617.00,0.0042
2616.00,0.0042
2615.00,0.0042
2614.00,0.0042
2613.00,0.0042
2612.00,0.0042
2611.00,0.0042
2610.00,0.0041
2609.00,0.0040
2608.00,0.0040
2607.00,0.0039
2606.00,0.0039
2605.00,0.0038
2604.00,0.0037
2603.00,0.0036
2602.00,0.0036
2601.00,0.0036
2600.00,0.0036
2599.00,0.0036
2598.00,0.0036
2597.00,0.0035
2596.00,0.0035
2595.00,0.0035
2594.00,0.0035
2593.00,0.0035
2592.00,0.0035
2591.00,0.0036
2590.00,0.0037
2589.00,0.0037
2588.00,0.0038
2587.00,0.0039
2586.00,0.0039
2585.00,0.0039
2584.00,0.0039
2583.00,0.0039
2582.00,0.0039
2581.00,0.0039
2580.00,0.0038
2579.00,0.0038
2578.00,0.0037
2577.00,0.0036
2576.00,0.0035
2575.00,0.0034
2574.00,0.0033
2573.00,0.0033
2572.00,0.0032
2571.00,0.0031
2570.00,0.0030
2569.00,0.0029
2568.00,0.0029
2567.00,0.0029
2566.00,0.0028
2565.00,0.0028
2564.00,0.0028
2563.00,0.0027
2562.00,0.0027
2561.00,0.0027
2560.00,0.0026
2559.00,0.0026
2558.00,0.0025
2557.00,0.0025
2556.00,0.0025
2555.00,0.0025
2554.00,0.0025
2553.00,0.0024
2552.00,0.0024
2551.00,0.0023
2550.00,0.0023
2549.00,0.0023
2548.00,0.0023
2547.00,0.0023
2546.00,0.0023
2545.00,0.0023
2544.00,0.0023
2543.00,0.0022
2542.00,0.0022
2541.00,0.0022
2540.00,0.0022
2539.00,0.0022
2538.00,0.0021
2537.00,0.0021
2536.00,0.0021
2535.00,0.0021
2534.00,0.0021
2533.00,0.0021
2532.00,0.0020
2531.00,0.0020
2530.00,0.0020
2529.00,0.0019
2528.00,0.0019
2527.00,0.0019
2526.00,0.0019
2525.00,0.0018
2524.00,0.0018
2523.00,0.0019
2522.00,0.0018
2521.00,0.0018
2520.00,0.0017
2519.00,0.0017
2518.00,0.0016
2517.00,0.0015
2516.00,0.0015
2515.00,0.0016
2514.00,0.0016
2513.00,0.0016
2512.00,0.0017
2511.00,0.0016
2510.00,0.0016
2509.00,0.0015
2508.00,0.0014
2507.00,0.0013
2506.00,0.0013
2505.00,0.0012
2504.00,0.0013
2503.00,0.0013
2502.00,0.0014
2501.00,0.0014
2500.00,0.0015
2499.00,0.0015
2498.00,0.0015
2497.00,0.0014
2496.00,0.0014
2495.00,0.0014
2494.00,0.0014
2493.00,0.0014
2492.00,0.0014
2491.00,0.0014
2490.00,0.0014
2489.00,0.0014
2488.00,0.0014
2487.00,0.0014
2486.00,0.0014
2485.00,0.0014
2484.00,0.0015
2483.00,0.0015
2482.00,0.0015
2481.00,0.0014
2480.00,0.0013
2479.00,0.0013
2478.00,0.0012
2477.00,0.0012
2476.00,0.0012
2475.00,0.0012
2474.00,0.0012
2473.00,0.0013
2472.00,0.0013
2471.00,0.0013
2470.00,0.0013
2469.00,0.0013
2468.00,0.0013
2467.00,0.0014
2466.00,0.0013
2465.00,0.0013
2464.00,0.0013
2463.00,0.0013
2462.00,0.0013
2461.00,0.0013
2460.00,0.0013
2459.00,0.0013
2458.00,0.0013
2457.00,0.0014
2456.00,0.0014
2455.00,0.0015
2454.00,0.0015
2453.00,0.0015
2452.00,0.0015
2451.00,0.0015
2450.00,0.0015
2449.00,0.0016
2448.00,0.0016
2447.00,0.0015
2446.00,0.0015
2445.00,0.0014
2444.00,0.0014
2443.00,0.0014
2442.00,0.0013
2441.00,0.0013
2440.00,0.0013
2439.00,0.0013
2438.00,0.0014
2437.00,0.0014
2436.00,0.0014
2435.00,0.0014
2434.00,0.0014
2433.00,0.0015
2432.00,0.0015
2431.00,0.0015
2430.00,0.0015
2429.00,0.0015
2428.00,0.0015
2427.00,0.0015
2426.00,0.0014
2425.00,0.0014
2424.00,0.0014
2423.00,0.0013
2422.00,0.0013
2421.00,0.0013
2420.00,0.0013
2419.00,0.0013
2418.00,0.0013
2417.00,0.0013
2416.00,0.0013
2415.00,0.0014
2414.00,0.0014
2413.00,0.0014
2412.00,0.0014
2411.00,0.0014
2410.00,0.0014
2409.00,0.0013
2408.00,0.0012
2407.00,0.0011
2406.00,0.0010
2405.00,0.0011
2404.00,0.0011
2403.00,0.0012
2402.00,0.0012
2401.00,0.0012
2400.00,0.0012
2399.00,0.0011
2398.00,0.0011
2397.00,0.0011
2396.00,0.0011
2395.00,0.0011
2394.00,0.0011
2393.00,0.0011
2392.00,0.0011
2391.00,0.0011
2390.00,0.0010
2389.00,0.0011
2388.00,0.0011
2387.00,0.0011
2386.00,0.0011
2385.00,0.0010
2384.00,0.0010
2383.00,0.0010
2382.00,0.0010
2381.00,0.0010
2380.00,0.0010
2379.00,0.0010
2378.00,0.0010
2377.00,0.0010
2376.00,0.0009
2375.00,0.0009
2374.00,0.0009
2373.00,0.0010
2372.00,0.0010
2371.00,0.0010
2370.00,0.0009
2369.00,0.0009
2368.00,0.0008
2367.00,0.0008
2366.00,0.0009
2365.00,0.0009
2364.00,0.0009
2363.00,0.0010
2362.00,0.0010
2361.00,0.0011
2360.00,0.0011
2359.00,0.0011
2358.00,0.0010
2357.00,0.0009
2356.00,0.0008
2355.00,0.0006
2354.00,0.0005
2353.00,0.0003
2352.00,0.0002
2351.00,0.0001
2350.00,0.0002
2349.00,0.0005
2348.00,0.0009
2347.00,0.0013
2346.00,0.0015
2345.00,0.0015
2344.00,0.0014
2343.00,0.0013
2342.00,0.0012
2341.00,0.0012
2340.00,0.0011
2339.00,0.0011
2338.00,0.0011
2337.00,0.0011
2336.00,0.0011
2335.00,0.0010
2334.00,0.0010
2333.00,0.0009
2332.00,0.0008
2331.00,0.0008
2330.00,0.0007
2329.00,0.0007
2328.00,0.0008
2327.00,0.0012
2326.00,0.0017
2325.00,0.0021
2324.00,0.0023
2323.00,0.0022
2322.00,0.0019
2321.00,0.0016
2320.00,0.0014
2319.00,0.0013
2318.00,0.0012
2317.00,0.0012
2316.00,0.0013
2315.00,0.0013
2314.00,0.0012
2313.00,0.0012
2312.00,0.0011
2311.00,0.0011
2310.00,0.0010
2309.00,0.0010
2308.00,0.0010
2307.00,0.0010
2306.00,0.0010
2305.00,0.0011
2304.00,0.0011
2303.00,0.0012
2302.00,0.0012
2301.00,0.0012
2300.00,0.0012
2299.00,0.0012
2298.00,0.0012
2297.00,0.0012
2296.00,0.0013
2295.00,0.0014
2294.00,0.0016
2293.00,0.0017
2292.00,0.0018
2291.00,0.0019
2290.00,0.0020
2289.00,0.0021
2288.00,0.0022
2287.00,0.0022
2286.00,0.0022
2285.00,0.0022
2284.00,0.0021
2283.00,0.0020
2282.00,0.0019
2281.00,0.0019
2280.00,0.0019
2279.00,0.0020
2278.00,0.0020
2277.00,0.0020
2276.00,0.0019
2275.00,0.0019
2274.00,0.0018
2273.00,0.0017
2272.00,0.0016
2271.00,0.0015
2270.00,0.0014
2269.00,0.0013
2268.00,0.0013
2267.00,0.0012
2266.00,0.0011
2265.00,0.0011
2264.00,0.0012
2263.00,0.0013
2262.00,0.0013
2261.00,0.0014
2260.00,0.0015
2259.00,0.0015
2258.00,0.0015
2257.00,0.0015
2256.00,0.0015
2255.00,0.0014
2254.00,0.0013
2253.00,0.0013
2252.00,0.0013
2251.00,0.0012
2250.00,0.0011
2249.00,0.0011
2248.00,0.0011
2247.00,0.0011
2246.00,0.0010
2245.00,0.0010
2244.00,0.0010
2243.00,0.0011
2242.00,0.0012
2241.00,0.0013
2240.00,0.0012
2239.00,0.0012
2238.00,0.0011
2237.00,0.0011
2236.00,0.0011
2235.00,0.0012
2234.00,0.0013
2233.00,0.0014
2232.00,0.0013
2231.00,0.0012
2230.00,0.0011
2229.00,0.0011
2228.00,0.0010
2227.00,0.0009
2226.00,0.0009
2225.00,0.0009
2224.00,0.0010
2223.00,0.0011
2222.00,0.0010
2221.00,0.0009
2220.00,0.0009
2219.00,0.0009
2218.00,0.0009
2217.00,0.0009
2216.00,0.0009
2215.00,0.0010
2214.00,0.0012
2213.00,0.0014
2212.00,0.0015
2211.00,0.0014
2210.00,0.0012
2209.00,0.0008
2208.00,0.0005
2207.00,0.0003
2206.00,0.0004
2205.00,0.0006
2204.00,0.0008
2203.00,0.0010
2202.00,0.0010
2201.00,0.0010
2200.00,0.0011
2199.00,0.0011
2198.00,0.0013
2197.00,0.0015
2196.00,0.0016
2195.00,0.0015
2194.00,0.0013
2193.00,0.0011
2192.00,0.0010
2191.00,0.0010
2190.00,0.0011
2189.00,0.0012
2188.00,0.0014
2187.00,0.0015
2186.00,0.0015
2185.00,0.0014
2184.00,0.0013
2183.00,0.0012
2182.00,0.0011
2181.00,0.0013
2180.00,0.0015
2179.00,0.0018
2178.00,0.0019
2177.00,0.0018
2176.00,0.0015
2175.00,0.0014
2174.00,0.0015
2173.00,0.0017
2172.00,0.0017
2171.00,0.0016
2170.00,0.0015
2169.00,0.0017
2168.00,0.0018
2167.00,0.0018
2166.00,0.0017
2165.00,0.0018
2164.00,0.0022
2163.00,0.0028
2162.00,0.0030
2161.00,0.0027
2160.00,0.0016
2159.00,0.0000
2158.00,-0.0014
2157.00,-0.0021
2156.00,-0.0021
2155.00,-0.0017
2154.00,-0.0012
2153.00,-0.0009
2152.00,-0.0007
2151.00,-0.0007
2150.00,-0.0006
2149.00,-0.0005
2148.00,-0.0006
2147.00,-0.0008
2146.00,-0.0010
2145.00,-0.0012
2144.00,-0.0012
2143.00,-0.0012
2142.00,-0.0010
2141.00,-0.0008
2140.00,-0.0006
2139.00,-0.0005
2138.00,-0.0004
2137.00,-0.0004
2136.00,-0.0006
2135.00,-0.0007
2134.00,-0.0007
2133.00,-0.0006
2132.00,-0.0004
2131.00,-0.0002
2130.00,0.0000
2129.00,0.0001
2128.00,0.0001
2127.00,-0.0000
2126.00,-0.0001
2125.00,-0.0001
2124.00,0.0001
2123.00,0.0002
2122.00,0.0003
2121.00,0.0004
2120.00,0.0005
2119.00,0.0006
2118.00,0.0007
2117.00,0.0009
2116.00,0.0011
2115.00,0.0013
2114.00,0.0013
2113.00,0.0013
2112.00,0.0012
2111.00,0.0011
2110.00,0.0010
2109.00,0.0009
2108.00,0.0009
2107.00,0.0009
2106.00,0.0009
2105.00,0.0009
2104.00,0.0009
2103.00,0.0008
2102.00,0.0008
2101.00,0.0008
2100.00,0.0009
2099.00,0.0009
2098.00,0.0008
2097.00,0.0007
2096.00,0.0005
2095.00,0.0004
2094.00,0.0003
2093.00,0.0004
2092.00,0.0006
2091.00,0.0006
2090.00,0.0006
2089.00,0.0006
2088.00,0.0007
2087.00,0.0009
2086.00,0.0010
2085.00,0.0011
2084.00,0.0011
2083.00,0.0011
2082.00,0.0010
2081.00,0.0010
2080.00,0.0011
2079.00,0.0012
2078.00,0.0012
2077.00,0.0011
2076.00,0.0008
2075.00,0.0006
2074.00,0.0005
2073.00,0.0004
2072.00,0.0004
2071.00,0.0003
2070.00,0.0001
2069.00,-0.0000
2068.00,0.0000
2067.00,0.0003
2066.00,0.0006
2065.00,0.0008
2064.00,0.0008
2063.00,0.0006
2062.00,0.0005
2061.00,0.0006
2060.00,0.0008
2059.00,0.0009
2058.00,0.0009
2057.00,0.0009
2056.00,0.0007
2055.00,0.0005
2054.00,0.0005
2053.00,0.0010
2052.00,0.0015
2051.00,0.0018
2050.00,0.0018
2049.00,0.0015
2048.00,0.0012
2047.00,0.0009
2046.00,0.0007
2045.00,0.0005
2044.00,0.0003
2043.00,0.0003
2042.00,0.0003
2041.00,0.0003
2040.00,0.0003
2039.00,0.0004
2038.00,0.0006
2037.00,0.0009
2036.00,0.0011
2035.00,0.0011
2034.00,0.0007
2033.00,0.0003
2032.00,-0.0001
2031.00,-0.0005
2030.00,-0.0009
2029.00,-0.0011
2028.00,-0.0011
2027.00,-0.0011
2026.00,-0.0011
2025.00,-0.0010
2024.00,-0.0009
2023.00,-0.0008
2022.00,-0.0007
2021.00,-0.0007
2020.00,-0.0007
2019.00,-0.0007
2018.00,-0.0006
2017.00,-0.0004
2016.00,-0.0003
2015.00,-0.0004
2014.00,-0.0005
2013.00,-0.0005
2012.00,-0.0004
2011.00,-0.0001
2010.00,0.0000
2009.00,-0.0000
2008.00,-0.0004
2007.00,-0.0010
2006.00,-0.0015
2005.00,-0.0017
2004.00,-0.0015
2003.00,-0.0012
2002.00,-0.0009
2001.00,-0.0008
2000.00,-0.0007
1999.00,-0.0006
1998.00,-0.0007
1997.00,-0.0008
1996.00,-0.0010
1995.00,-0.0012
1994.00,-0.0012
1993.00,-0.0009
1992.00,-0.0004
1991.00,0.0001
1990.00,0.0005
1989.00,0.0008
1988.00,0.0010
1987.00,0.0011
1986.00,0.0012
1985.00,0.0013
1984.00,0.0014
1983.00,0.0015
1982.00,0.0016
1981.00,0.0017
1980.00,0.0015
1979.00,0.0009
1978.00,0.0000
1977.00,-0.0006
1976.00,-0.0008
1975.00,-0.0008
1974.00,-0.0006
1973.00,-0.0005
1972.00,-0.0006
1971.00,-0.0009
1970.00,-0.0011
1969.00,-0.0013
1968.00,-0.0013
1967.00,-0.0013
1966.00,-0.0013
1965.00,-0.0013
1964.00,-0.0013
1963.00,-0.0013
1962.00,-0.0014
1961.00,-0.0015
1960.00,-0.0015
1959.00,-0.0015
1958.00,-0.0015
1957.00,-0.0014
1956.00,-0.0013
1955.00,-0.0013
1954.00,-0.0013
1953.00,-0.0010
1952.00,-0.0008
1951.00,-0.0006
1950.00,-0.0006
1949.00,-0.0008
1948.00,-0.0010
1947.00,-0.0013
1946.00,-0.0014
1945.00,-0.0015
1944.00,-0.0014
1943.00,-0.0012
1942.00,-0.0011
1941.00,-0.0009
1940.00,-0.0008
1939.00,-0.0008
1938.00,-0.0008
1937.00,-0.0007
1936.00,-0.0007
1935.00,-0.0007
1934.00,-0.0006
1933.00,-0.0005
1932.00,-0.0004
1931.00,-0.0004
1930.00,-0.0004
1929.00,-0.0004
1928.00,-0.0004
1927.00,-0.0003
1926.00,-0.0002
1925.00,-0.0001
1924.00,-0.0000
1923.00,0.0000
1922.00,0.0001
1921.00,0.0001
1920.00,0.0000
1919.00,-0.0001
1918.00,-0.0002
1917.00,-0.0001
1916.00,0.0001
1915.00,0.0001
1914.00,-0.0000
1913.00,-0.0000
1912.00,0.0001
1911.00,0.0002
1910.00,0.0003
1909.00,0.0003
1908.00,0.0002
1907.00,0.0002
1906.00,0.0002
1905.00,0.0002
1904.00,0.0002
1903.00,0.0002
1902.00,0.0003
1901.00,0.0003
1900.00,0.0004
1899.00,0.0004
1898.00,0.0003
1897.00,0.0002
1896.00,0.0001
1895.00,-0.0001
1894.00,-0.0002
1893.00,-0.0002
1892.00,-0.0002
1891.00,-0.0001
1890.00,-0.0001
1889.00,0.0001
1888.00,0.0002
1887.00,0.0003
1886.00,0.0003
1885.00,0.0003
1884.00,0.0002
1883.00,0.0002
1882.00,0.0002
1881.00,0.0003
1880.00,0.0003
1879.00,0.0003
1878.00,0.0002
1877.00,0.0002
1876.00,0.0002
1875.00,0.0002
1874.00,0.0002
1873.00,0.0003
1872.00,0.0004
1871.00,0.0005
1870.00,0.0005
1869.00,0.0005
1868.00,0.0004
1867.00,0.0003
1866.00,0.0002
1865.00,0.0002
1864.00,0.0003
1863.00,0.0004
1862.00,0.0004
1861.00,0.0004
1860.00,0.0004
1859.00,0.0004
1858.00,0.0003
1857.00,0.0003
1856.00,0.0003
1855.00,0.0002
1854.00,0.0002
1853.00,0.0003
1852.00,0.0004
1851.00,0.0005
1850.00,0.0005
1849.00,0.0005
1848.00,0.0005
1847.00,0.0005
1846.00,0.0005
1845.00,0.0005
1844.00,0.0006
1843.00,0.0006
1842.00,0.0006
1841.00,0.0006
1840.00,0.0005
1839.00,0.0005
1838.00,0.0005
1837.00,0.0005
1836.00,0.0006
1835.00,0.0006
1834.00,0.0006
1833.00,0.0007
1832.00,0.0007
1831.00,0.0007
1830.00,0.0007
1829.00,0.0007
1828.00,0.0008
1827.00,0.0008
1826.00,0.0008
1825.00,0.0007
1824.00,0.0007
1823.00,0.0007
1822.00,0.0007
1821.00,0.0006
1820.00,0.0006
1819.00,0.0005
1818.00,0.0004
1817.00,0.0003
1816.00,0.0004
1815.00,0.0005
1814.00,0.0006
1813.00,0.0007
1812.00,0.0008
1811.00,0.0008
1810.00,0.0008
1809.00,0.0008
1808.00,0.0008
1807.00,0.0008
1806.00,0.0009
1805.00,0.0010
1804.00,0.0010
1803.00,0.0011
1802.00,0.0011
1801.00,0.0010
1800.00,0.0011
1799.00,0.0011
1798.00,0.0012
1797.00,0.0012
1796.00,0.0013
1795.00,0.0013
1794.00,0.0013
1793.00,0.0014
1792.00,0.0014
1791.00,0.0014
1790.00,0.0014
1789.00,0.0014
1788.00,0.0014
1787.00,0.0014
1786.00,0.0015
1785.00,0.0015
1784.00,0.0015
1783.00,0.0015
1782.00,0.0014
1781.00,0.0015
1780.00,0.0015
1779.00,0.0015
1778.00,0.0015
1777.00,0.0015
1776.00,0.0016
1775.00,0.0017
1774.00,0.0018
1773.00,0.0020
1772.00,0.0021
1771.00,0.0022
1770.00,0.0022
1769.00,0.0022
1768.00,0.0023
1767.00,0.0024
1766.00,0.0024
1765.00,0.0024
1764.00,0.0025
1763.00,0.0025
1762.00,0.0025
1761.00,0.0026
1760.00,0.0026
1759.00,0.0027
1758.00,0.0028
1757.00,0.0029
1756.00,0.0030
1755.00,0.0032
1754.00,0.0033
1753.00,0.0036
1752.00,0.0039
1751.00,0.0042
1750.00,0.0044
1749.00,0.0045
1748.00,0.0047
1747.00,0.0048
1746.00,0.0051
1745.00,0.0053
1744.00,0.0056
1743.00,0.0059
1742.00,0.0061
1741.00,0.0064
1740.00,0.0067
1739.00,0.0069
1738.00,0.0070
1737.00,0.0071
1736.00,0.0073
1735.00,0.0073
1734.00,0.0074
1733.00,0.0074
1732.00,0.0073
1731.00,0.0071
1730.00,0.0069
1729.00,0.0068
1728.00,0.0066
1727.00,0.0065
1726.00,0.0065
1725.00,0.0064
1724.00,0.0064
1723.00,0.0063
1722.00,0.0062
1721.00,0.0061
1720.00,0.0061
1719.00,0.0059
1718.00,0.0058
1717.00,0.0057
1716.00,0.0056
1715.00,0.0054
1714.00,0.0053
1713.00,0.0051
1712.00,0.0051
1711.00,0.0050
1710.00,0.0050
1709.00,0.0050
1708.00,0.0050
1707.00,0.0050
1706.00,0.0049
1705.00,0.0049
1704.00,0.0050
1703.00,0.0051
1702.00,0.0052
1701.00,0.0053
1700.00,0.0055
1699.00,0.0057
1698.00,0.0057
1697.00,0.0058
1696.00,0.0058
1695.00,0.0059
1694.00,0.0060
1693.00,0.0061
1692.00,0.0062
1691.00,0.0063
1690.00,0.0065
1689.00,0.0067
1688.00,0.0069
1687.00,0.0071
1686.00,0.0073
1685.00,0.0077
1684.00,0.0081
1683.00,0.0084
1682.00,0.0086
1681.00,0.0088
1680.00,0.0090
1679.00,0.0093
1678.00,0.0096
1677.00,0.0099
1676.00,0.0103
1675.00,0.0106
1674.00,0.0109
1673.00,0.0111
1672.00,0.0113
1671.00,0.0116
1670.00,0.0119
1669.00,0.0121
1668.00,0.0123
1667.00,0.0125
1666.00,0.0126
1665.00,0.0128
1664.00,0.0131
1663.00,0.0133
1662.00,0.0135
1661.00,0.0136
1660.00,0.0138
1659.00,0.0139
1658.00,0.0141
1657.00,0.0144
1656.00,0.0147
1655.00,0.0150
1654.00,0.0153
1653.00,0.0156
1652.00,0.0159
1651.00,0.0160
1650.00,0.0160
1649.00,0.0161
1648.00,0.0162
1647.00,0.0165
1646.00,0.0166
1645.00,0.0169
1644.00,0.0171
1643.00,0.0174
1642.00,0.0176
1641.00,0.0179
1640.00,0.0182
1639.00,0.0184
1638.00,0.0186
1637.00,0.0188
1636.00,0.0190
1635.00,0.0190
1634.00,0.0189
1633.00,0.0188
1632.00,0.0187
1631.00,0.0186
1630.00,0.0185
1629.00,0.0185
1628.00,0.0186
1627.00,0.0185
1626.00,0.0185
1625.00,0.0185
1624.00,0.0185
1623.00,0.0185
1622.00,0.0184
1621.00,0.0184
1620.00,0.0183
1619.00,0.0182
1618.00,0.0182
1617.00,0.0183
1616.00,0.0184
1615.00,0.0185
1614.00,0.0185
1613.00,0.0185
1612.00,0.0186
1611.00,0.0187
1610.00,0.0187
1609.00,0.0187
1608.00,0.0187
1607.00,0.0186
1606.00,0.0186
1605.00,0.0185
1604.00,0.0185
1603.00,0.0184
1602.00,0.0182
1601.00,0.0181
1600.00,0.0180
1599.00,0.0179
1598.00,0.0177
1597.00,0.0176
1596.00,0.0174
1595.00,0.0172
1594.00,0.0170
1593.00,0.0169
1592.00,0.0167
1591.00,0.0165
1590.00,0.0163
1589.00,0.0162
1588.00,0.0161
1587.00,0.0160
1586.00,0.0159
1585.00,0.0159
1584.00,0.0159
1583.00,0.0159
1582.00,0.0159
1581.00,0.0159
1580.00,0.0159
1579.00,0.0160
1578.00,0.0160
1577.00,0.0161
1576.00,0.0161
1575.00,0.0160
1574.00,0.0160
1573.00,0.0160
1572.00,0.0161
1571.00,0.0162
1570.00,0.0163
1569.00,0.0165
1568.00,0.0167
1567.00,0.0169
1566.00,0.0171
1565.00,0.0172
1564.00,0.0174
1563.00,0.0176
1562.00,0.0178
1561.00,0.0181
1560.00,0.0186
1559.00,0.0191
1558.00,0.0194
1557.00,0.0196
1556.00,0.0197
1555.00,0.0198
1554.00,0.0198
1553.00,0.0199
1552.00,0.0201
1551.00,0.0202
1550.00,0.0203
1549.00,0.0203
1548.00,0.0204
1547.00,0.0204
1546.00,0.0204
1545.00,0.0203
1544.00,0.0203
1543.00,0.0201
1542.00,0.0199
1541.00,0.0196
1540.00,0.0190
1539.00,0.0183
1538.00,0.0177
1537.00,0.0173
1536.00,0.0169
1535.00,0.0165
1534.00,0.0159
1533.00,0.0153
1532.00,0.0149
1531.00,0.0145
1530.00,0.0142
1529.00,0.0139
1528.00,0.0137
1527.00,0.0134
1526.00,0.0130
1525.00,0.0128
1524.00,0.0126
1523.00,0.0123
1522.00,0.0120
1521.00,0.0117
1520.00,0.0116
1519.00,0.0114
1518.00,0.0113
1517.00,0.0112
1516.00,0.0111
1515.00,0.0110
1514.00,0.0109
1513.00,0.0109
1512.00,0.0109
1511.00,0.0109
1510.00,0.0110
1509.00,0.0111
1508.00,0.0112
1507.00,0.0112
1506.00,0.0111
1505.00,0.0113
1504.00,0.0116
1503.00,0.0119
1502.00,0.0122
1501.00,0.0128
1500.00,0.0134
1499.00,0.0141
1498.00,0.0150
1497.00,0.0160
1496.00,0.0171
1495.00,0.0181
1494.00,0.0189
1493.00,0.0197
1492.00,0.0205
1491.00,0.0212
1490.00,0.0219
1489.00,0.0226
1488.00,0.0232
1487.00,0.0236
1486.00,0.0241
1485.00,0.0246
1484.00,0.0252
1483.00,0.0257
1482.00,0.0265
1481.00,0.0274
1480.00,0.0284
1479.00,0.0295
1478.00,0.0309
1477.00,0.0328
1476.00,0.0351
1475.00,0.0379
1474.00,0.0416
1473.00,0.0469
1472.00,0.0532
1471.00,0.0592
1470.00,0.0649
1469.00,0.0707
1468.00,0.0768
1467.00,0.0832
1466.00,0.0903
1465.00,0.0976
1464.00,0.1039
1463.00,0.1082
1462.00,0.1110
1461.00,0.1130
1460.00,0.1145
1459.00,0.1157
1458.00,0.1167
1457.00,0.1174
1456.00,0.1172
1455.00,0.1162
1454.00,0.1149
1453.00,0.1131
1452.00,0.1107
1451.00,0.1075
1450.00,0.1033
1449.00,0.0976
1448.00,0.0902
1447.00,0.0823
1446.00,0.0749
1445.00,0.0684
1444.00,0.0627
1443.00,0.0580
1442.00,0.0543
1441.00,0.0516
1440.00,0.0498
1439.00,0.0489
1438.00,0.0485
1437.00,0.0482
1436.00,0.0470
1435.00,0.0447
1434.00,0.0414
1433.00,0.0376
1432.00,0.0337
1431.00,0.0302
1430.00,0.0274
1429.00,0.0253
1428.00,0.0238
1427.00,0.0229
1426.00,0.0224
1425.00,0.0219
1424.00,0.0215
1423.00,0.0213
1422.00,0.0212
1421.00,0.0212
1420.00,0.0210
1419.00,0.0208
1418.00,0.0205
1417.00,0.0201
1416.00,0.0197
1415.00,0.0194
1414.00,0.0192
1413.00,0.0189
1412.00,0.0186
1411.00,0.0184
1410.00,0.0182
1409.00,0.0180
1408.00,0.0178
1407.00,0.0177
1406.00,0.0177
1405.00,0.0177
1404.00,0.0176
1403.00,0.0176
1402.00,0.0177
1401.00,0.0178
1400.00,0.0179
1399.00,0.0180
1398.00,0.0181
1397.00,0.0182
1396.00,0.0182
1395.00,0.0185
1394.00,0.0188
1393.00,0.0191
1392.00,0.0195
1391.00,0.0201
1390.00,0.0210
1389.00,0.0221
1388.00,0.0237
1387.00,0.0262
1386.00,0.0295
1385.00,0.0340
1384.00,0.0402
1383.00,0.0489
1382.00,0.0605
1381.00,0.0756
1380.00,0.0943
1379.00,0.1158
1378.00,0.1372
1377.00,0.1534
1376.00,0.1597
1375.00,0.1534
1374.00,0.1363
1373.00,0.1150
1372.00,0.0951
1371.00,0.0785
1370.00,0.0652
1369.00,0.0549
1368.00,0.0478
1367.00,0.0434
1366.00,0.0409
1365.00,0.0398
1364.00,0.0399
1363.00,0.0409
1362.00,0.0424
1361.00,0.0441
1360.00,0.0454
1359.00,0.0459
1358.00,0.0451
1357.00,0.0430
1356.00,0.0402
1355.00,0.0370
1354.00,0.0339
1353.00,0.0312
1352.00,0.0290
1351.00,0.0273
1350.00,0.0259
1349.00,0.0247
1348.00,0.0238
1347.00,0.0231
1346.00,0.0224
1345.00,0.0218
1344.00,0.0211
1343.00,0.0204
1342.00,0.0197
1341.00,0.0190
1340.00,0.0185
1339.00,0.0181
1338.00,0.0177
1337.00,0.0174
1336.00,0.0173
1335.00,0.0174
1334.00,0.0175
1333.00,0.0177
1332.00,0.0180
1331.00,0.0182
1330.00,0.0182
1329.00,0.0181
1328.00,0.0178
1327.00,0.0174
1326.00,0.0170
1325.00,0.0166
1324.00,0.0161
1323.00,0.0157
1322.00,0.0153
1321.00,0.0150
1320.00,0.0148
1319.00,0.0146
1318.00,0.0145
1317.00,0.0144
1316.00,0.0143
1315.00,0.0142
1314.00,0.0142
1313.00,0.0142
1312.00,0.0144
1311.00,0.0146
1310.00,0.0151
1309.00,0.0157
1308.00,0.0166
1307.00,0.0176
1306.00,0.0187
1305.00,0.0194
1304.00,0.0195
1303.00,0.0192
1302.00,0.0187
1301.00,0.0181
1300.00,0.0178
1299.00,0.0176
1298.00,0.0175
1297.00,0.0175
1296.00,0.0174
1295.00,0.0172
1294.00,0.0168
1293.00,0.0164
1292.00,0.0160
1291.00,0.0156
1290.00,0.0153
1289.00,0.0149
1288.00,0.0147
1287.00,0.0144
1286.00,0.0142
1285.00,0.0141
1284.00,0.0139
1283.00,0.0138
1282.00,0.0137
1281.00,0.0136
1280.00,0.0135
1279.00,0.0135
1278.00,0.0134
1277.00,0.0133
1276.00,0.0132
1275.00,0.0131
1274.00,0.0131
1273.00,0.0131
1272.00,0.0133
1271.00,0.0135
1270.00,0.0137
1269.00,0.0139
1268.00,0.0141
1267.00,0.0144
1266.00,0.0148
1265.00,0.0152
1264.00,0.0156
1263.00,0.0160
1262.00,0.0164
1261.00,0.0169
1260.00,0.0175
1259.00,0.0181
1258.00,0.0187
1257.00,0.0193
1256.00,0.0196
1255.00,0.0195
1254.00,0.0190
1253.00,0.0182
1252.00,0.0175
1251.00,0.0168
1250.00,0.0163
1249.00,0.0159
1248.00,0.0156
1247.00,0.0154
1246.00,0.0152
1245.00,0.0151
1244.00,0.0150
1243.00,0.0149
1242.00,0.0148
1241.00,0.0146
1240.00,0.0144
1239.00,0.0142
1238.00,0.0141
1237.00,0.0141
1236.00,0.0141
1235.00,0.0142
1234.00,0.0142
1233.00,0.0142
1232.00,0.0143
1231.00,0.0143
1230.00,0.0144
1229.00,0.0146
1228.00,0.0148
1227.00,0.0150
1226.00,0.0153
1225.00,0.0156
1224.00,0.0159
1223.00,0.0163
1222.00,0.0167
1221.00,0.0171
1220.00,0.0173
1219.00,0.0174
1218.00,0.0174
1217.00,0.0172
1216.00,0.0168
1215.00,0.0164
1214.00,0.0159
1213.00,0.0155
1212.00,0.0151
1211.00,0.0148
1210.00,0.0145
1209.00,0.0143
1208.00,0.0142
1207.00,0.0141
1206.00,0.0140
1205.00,0.0139
1204.00,0.0139
1203.00,0.0139
1202.00,0.0140
1201.00,0.0141
1200.00,0.0142
1199.00,0.0144
1198.00,0.0145
1197.00,0.0146
1196.00,0.0146
1195.00,0.0146
1194.00,0.0147
1193.00,0.0147
1192.00,0.0147
1191.00,0.0148
1190.00,0.0148
1189.00,0.0148
1188.00,0.0148
1187.00,0.0148
1186.00,0.0148
1185.00,0.0149
1184.00,0.0149
1183.00,0.0150
1182.00,0.0151
1181.00,0.0153
1180.00,0.0156
1179.00,0.0161
1178.00,0.0167
1177.00,0.0175
1176.00,0.0185
1175.00,0.0198
1174.00,0.0215
1173.00,0.0238
1172.00,0.0265
1171.00,0.0296
1170.00,0.0328
1169.00,0.0354
1168.00,0.0370
1167.00,0.0374
1166.00,0.0367
1165.00,0.0354
1164.00,0.0339
1163.00,0.0324
1162.00,0.0311
1161.00,0.0300
1160.00,0.0293
1159.00,0.0287
1158.00,0.0283
1157.00,0.0281
1156.00,0.0281
1155.00,0.0281
1154.00,0.0282
1153.00,0.0281
1152.00,0.0280
1151.00,0.0277
1150.00,0.0272
1149.00,0.0265
1148.00,0.0258
1147.00,0.0251
1146.00,0.0245
1145.00,0.0240
1144.00,0.0235
1143.00,0.0230
1142.00,0.0225
1141.00,0.0221
1140.00,0.0217
1139.00,0.0214
1138.00,0.0212
1137.00,0.0210
1136.00,0.0209
1135.00,0.0209
1134.00,0.0209
1133.00,0.0209
1132.00,0.0210
1131.00,0.0212
1130.00,0.0215
1129.00,0.0218
1128.00,0.0221
1127.00,0.0224
1126.00,0.0228
1125.00,0.0232
1124.00,0.0236
1123.00,0.0241
1122.00,0.0247
1121.00,0.0252
1120.00,0.0257
1119.00,0.0259
1118.00,0.0261
1117.00,0.0261
1116.00,0.0260
1115.00,0.0259
1114.00,0.0258
1113.00,0.0257
1112.00,0.0256
1111.00,0.0256
1110.00,0.0256
1109.00,0.0257
1108.00,0.0260
1107.00,0.0263
1106.00,0.0266
1105.00,0.0270
1104.00,0.0272
1103.00,0.0272
1102.00,0.0271
1101.00,0.0267
1100.00,0.0262
1099.00,0.0256
1098.00,0.0250
1097.00,0.0245
1096.00,0.0240
1095.00,0.0237
1094.00,0.0233
1093.00,0.0230
1092.00,0.0228
1091.00,0.0225
1090.00,0.0222
1089.00,0.0220
1088.00,0.0218
1087.00,0.0216
1086.00,0.0215
1085.00,0.0213
1084.00,0.0212
1083.00,0.0210
1082.00,0.0208
1081.00,0.0206
1080.00,0.0204
1079.00,0.0201
1078.00,0.0199
1077.00,0.0196
1076.00,0.0193
1075.00,0.0191
1074.00,0.0189
1073.00,0.0187
1072.00,0.0185
1071.00,0.0183
1070.00,0.0181
1069.00,0.0179
1068.00,0.0178
1067.00,0.0177
1066.00,0.0177
1065.00,0.0177
1064.00,0.0177
1063.00,0.0177
1062.00,0.0177
1061.00,0.0177
1060.00,0.0177
1059.00,0.0178
1058.00,0.0178
1057.00,0.0178
1056.00,0.0179
1055.00,0.0179
1054.00,0.0180
1053.00,0.0180
1052.00,0.0181
1051.00,0.0183
1050.00,0.0186
1049.00,0.0189
1048.00,0.0194
1047.00,0.0198
1046.00,0.0202
1045.00,0.0205
1044.00,0.0207
1043.00,0.0207
1042.00,0.0206
1041.00,0.0204
1040.00,0.0203
1039.00,0.0202
1038.00,0.0202
1037.00,0.0202
1036.00,0.0201
1035.00,0.0200
1034.00,0.0198
1033.00,0.0196
1032.00,0.0193
1031.00,0.0191
1030.00,0.0189
1029.00,0.0187
1028.00,0.0186
1027.00,0.0185
1026.00,0.0185
1025.00,0.0184
1024.00,0.0184
1023.00,0.0185
1022.00,0.0186
1021.00,0.0187
1020.00,0.0188
1019.00,0.0189
1018.00,0.0190
1017.00,0.0190
1016.00,0.0189
1015.00,0.0189
1014.00,0.0188
1013.00,0.0189
1012.00,0.0190
1011.00,0.0191
1010.00,0.0192
1009.00,0.0193
1008.00,0.0195
1007.00,0.0199
1006.00,0.0204
1005.00,0.0213
1004.00,0.0227
1003.00,0.0248
1002.00,0.0276
1001.00,0.0312
1000.00,0.0351
999.00,0.0385
998.00,0.0402
997.00,0.0396
996.00,0.0369
995.00,0.0329
994.00,0.0288
993.00,0.0252
992.00,0.0224
991.00,0.0204
990.00,0.0191
989.00,0.0181
988.00,0.0175
987.00,0.0170
986.00,0.0168
985.00,0.0168
984.00,0.0170
983.00,0.0174
982.00,0.0183
981.00,0.0195
980.00,0.0214
979.00,0.0240
978.00,0.0272
977.00,0.0310
976.00,0.0351
975.00,0.0392
974.00,0.0424
973.00,0.0438
972.00,0.0428
971.00,0.0394
970.00,0.0346
969.00,0.0297
968.00,0.0255
967.00,0.0223
966.00,0.0199
965.00,0.0182
964.00,0.0170
963.00,0.0161
962.00,0.0155
961.00,0.0150
960.00,0.0146
959.00,0.0143
958.00,0.0140
957.00,0.0137
956.00,0.0134
955.00,0.0133
954.00,0.0131
953.00,0.0131
952.00,0.0130
951.00,0.0129
950.00,0.0128
949.00,0.0127
948.00,0.0126
947.00,0.0127
946.00,0.0129
945.00,0.0131
944.00,0.0134
943.00,0.0137
942.00,0.0139
941.00,0.0141
940.00,0.0141
939.00,0.0139
938.00,0.0136
937.00,0.0132
936.00,0.0128
935.00,0.0125
934.00,0.0123
933.00,0.0121
932.00,0.0120
931.00,0.0119
930.00,0.0118
929.00,0.0118
928.00,0.0117
927.00,0.0116
926.00,0.0116
925.00,0.0115
924.00,0.0115
923.00,0.0116
922.00,0.0115
921.00,0.0115
920.00,0.0114
919.00,0.0113
918.00,0.0113
917.00,0.0114
916.00,0.0115
915.00,0.0116
914.00,0.0116
913.00,0.0116
912.00,0.0117
911.00,0.0120
910.00,0.0122
909.00,0.0124
908.00,0.0126
907.00,0.0129
906.00,0.0134
905.00,0.0143
904.00,0.0155
903.00,0.0171
902.00,0.0187
901.00,0.0202
900.00,0.0212
899.00,0.0214
898.00,0.0208
897.00,0.0196
896.00,0.0181
895.00,0.0168
894.00,0.0156
893.00,0.0148
892.00,0.0140
891.00,0.0134
890.00,0.0130
889.00,0.0127
888.00,0.0126
887.00,0.0126
886.00,0.0126
885.00,0.0127
884.00,0.0128
883.00,0.0128
882.00,0.0127
881.00,0.0128
880.00,0.0129
879.00,0.0132
878.00,0.0135
877.00,0.0136
876.00,0.0137
875.00,0.0138
874.00,0.0137
873.00,0.0135
872.00,0.0133
871.00,0.0131
870.00,0.0129
869.00,0.0127
868.00,0.0125
867.00,0.0124
866.00,0.0123
865.00,0.0122
864.00,0.0122
863.00,0.0123
862.00,0.0124
861.00,0.0125
860.00,0.0125
859.00,0.0126
858.00,0.0127
857.00,0.0128
856.00,0.0129
855.00,0.0130
854.00,0.0131
853.00,0.0132
852.00,0.0133
851.00,0.0136
850.00,0.0141
849.00,0.0148
848.00,0.0157
847.00,0.0171
846.00,0.0190
845.00,0.0219
844.00,0.0262
843.00,0.0314
842.00,0.0361
841.00,0.0382
840.00,0.0365
839.00,0.0318
838.00,0.0264
837.00,0.0219
836.00,0.0189
835.00,0.0171
834.00,0.0161
833.00,0.0156
832.00,0.0152
831.00,0.0149
830.00,0.0145
829.00,0.0143
828.00,0.0140
827.00,0.0138
826.00,0.0137
825.00,0.0136
824.00,0.0136
823.00,0.0136
822.00,0.0136
821.00,0.0137
820.00,0.0139
819.00,0.0141
818.00,0.0145
817.00,0.0151
816.00,0.0160
815.00,0.0170
814.00,0.0183
813.00,0.0198
812.00,0.0213
811.00,0.0229
810.00,0.0241
809.00,0.0247
808.00,0.0245
807.00,0.0236
806.00,0.0221
805.00,0.0204
804.00,0.0190
803.00,0.0179
802.00,0.0171
801.00,0.0165
800.00,0.0161
799.00,0.0157
798.00,0.0153
797.00,0.0149
796.00,0.0144
795.00,0.0141
794.00,0.0138
793.00,0.0137
792.00,0.0137
791.00,0.0137
790.00,0.0136
789.00,0.0134
788.00,0.0132
787.00,0.0131
786.00,0.0132
785.00,0.0133
784.00,0.0133
783.00,0.0132
782.00,0.0130
781.00,0.0130
780.00,0.0129
779.00,0.0129
778.00,0.0127
777.00,0.0126
776.00,0.0125
775.00,0.0124
774.00,0.0123
773.00,0.0122
772.00,0.0121
771.00,0.0121
770.00,0.0121
769.00,0.0122
768.00,0.0123
767.00,0.0124
766.00,0.0125
765.00,0.0127
764.00,0.0129
763.00,0.0130
762.00,0.0130
761.00,0.0129
760.00,0.0128
759.00,0.0129
758.00,0.0130
757.00,0.0133
756.00,0.0135
755.00,0.0137
754.00,0.0140
753.00,0.0141
752.00,0.0143
751.00,0.0144
750.00,0.0145
749.00,0.0147
748.00,0.0150
747.00,0.0155
746.00,0.0159
745.00,0.0162
744.00,0.0166
743.00,0.0170
742.00,0.0175
741.00,0.0180
740.00,0.0187
739.00,0.0195
738.00,0.0202
737.00,0.0210
736.00,0.0217
735.00,0.0225
734.00,0.0234
733.00,0.0242
732.00,0.0250
731.00,0.0258
730.00,0.0265
729.00,0.0270
728.00,0.0274
727.00,0.0276
726.00,0.0278
725.00,0.0281
724.00,0.0285
723.00,0.0288
722.00,0.0289
721.00,0.0287
720.00,0.0280
719.00,0.0268
718.00,0.0253
717.00,0.0239
716.00,0.0227
715.00,0.0219
714.00,0.0214
713.00,0.0210
712.00,0.0206
711.00,0.0204
710.00,0.0203
709.00,0.0205
708.00,0.0208
707.00,0.0212
706.00,0.0215
705.00,0.0217
704.00,0.0216
703.00,0.0212
702.00,0.0206
701.00,0.0197
700.00,0.0188
699.00,0.0181
698.00,0.0175
697.00,0.0172
696.00,0.0170
695.00,0.0169
694.00,0.0168
693.00,0.0166
692.00,0.0165
691.00,0.0165
690.00,0.0167
689.00,0.0168
688.00,0.0168
687.00,0.0167
686.00,0.0166
685.00,0.0165
684.00,0.0166
683.00,0.0167
682.00,0.0167
681.00,0.0167
680.00,0.0166
679.00,0.0166
678.00,0.0167
677.00,0.0169
676.00,0.0171
675.00,0.0173
674.00,0.0175
673.00,0.0176
672.00,0.0177
671.00,0.0178
670.00,0.0178
669.00,0.0176
668.00,0.0171
667.00,0.0166
666.00,0.0167
665.00,0.0169
664.00,0.0171
663.00,0.0172
662.00,0.0171
661.00,0.0168
660.00,0.0164
659.00,0.0160
658.00,0.0158
657.00,0.0158
656.00,0.0160
655.00,0.0163
654.00,0.0166
653.00,0.0168
652.00,0.0167
651.00,0.0165
650.00,0.0164
649.00,0.0164
648.00,0.0164
647.00,0.0165
646.00,0.0165
645.00,0.0164
644.00,0.0163
643.00,0.0163
642.00,0.0164
641.00,0.0166
640.00,0.0168
639.00,0.0168
638.00,0.0167
637.00,0.0165
636.00,0.0165
635.00,0.0167
634.00,0.0170
633.00,0.0171
632.00,0.0171
631.00,0.0170
630.00,0.0171
629.00,0.0172
628.00,0.0172
627.00,0.0170
626.00,0.0168
625.00,0.0166
624.00,0.0167
623.00,0.0170
622.00,0.0172
621.00,0.0173
620.00,0.0172
619.00,0.0171
618.00,0.0171
617.00,0.0171
616.00,0.0171
615.00,0.0170
614.00,0.0170
613.00,0.0171
612.00,0.0173
611.00,0.0175
610.00,0.0177
609.00,0.0176
608.00,0.0175
607.00,0.0173
606.00,0.0173
605.00,0.0175
604.00,0.0178
603.00,0.0177
602.00,0.0173
601.00,0.0168
600.00,0.0166
599.00,0.0168
598.00,0.0171
597.00,0.0173
596.00,0.0173
595.00,0.0171
594.00,0.0170
593.00,0.0171
592.00,0.0173
591.00,0.0175
590.00,0.0177
589.00,0.0177
588.00,0.0178
587.00,0.0177
586.00,0.0176
585.00,0.0177
584.00,0.0179
583.00,0.0180
582.00,0.0181
581.00,0.0179
580.00,0.0176
579.00,0.0173
578.00,0.0173
577.00,0.0173
576.00,0.0174
575.00,0.0175
574.00,0.0176
573.00,0.0176
572.00,0.0175
571.00,0.0174
570.00,0.0174
569.00,0.0176
568.00,0.0178
567.00,0.0180
566.00,0.0180
565.00,0.0180
564.00,0.0179
563.00,0.0177
562.00,0.0175
561.00,0.0174
560.00,0.0174
559.00,0.0171
558.00,0.0168
557.00,0.0166
556.00,0.0166
555.00,0.0168
554.00,0.0169
553.00,0.0171
552.00,0.0172
551.00,0.0173
550.00,0.0172
549.00,0.0169
548.00,0.0166
547.00,0.0166
546.00,0.0168
545.00,0.0170
544.00,0.0172
543.00,0.0174
542.00,0.0177
541.00,0.0182
540.00,0.0186
539.00,0.0190
538.00,0.0192
537.00,0.0193
536.00,0.0193
535.00,0.0194
534.00,0.0193
533.00,0.0192
532.00,0.0191
531.00,0.0189
530.00,0.0187
529.00,0.0185
528.00,0.0183
527.00,0.0182
526.00,0.0180
525.00,0.0177
524.00,0.0173
523.00,0.0168
522.00,0.0163
521.00,0.0162
520.00,0.0163
519.00,0.0168
518.00,0.0172
517.00,0.0173
516.00,0.0170
515.00,0.0167
514.00,0.0164
513.00,0.0164
512.00,0.0165
511.00,0.0167
510.00,0.0169
509.00,0.0171
508.00,0.0172
507.00,0.0170
506.00,0.0164
505.00,0.0156
504.00,0.0150
503.00,0.0147
502.00,0.0146
501.00,0.0145
500.00,0.0148
499.00,0.0154
498.00,0.0162
497.00,0.0169
496.00,0.0173
495.00,0.0171
494.00,0.0164
493.00,0.0156
492.00,0.0154
491.00,0.0159
490.00,0.0167
489.00,0.0171
488.00,0.0168
487.00,0.0160
486.00,0.0151
485.00,0.0147
484.00,0.0151
483.00,0.0158
482.00,0.0162
481.00,0.0159
480.00,0.0152
479.00,0.0151
478.00,0.0160
477.00,0.0175
476.00,0.0190
475.00,0.0202
474.00,0.0210
473.00,0.0216
472.00,0.0224
471.00,0.0233
470.00,0.0240
469.00,0.0243
468.00,0.0240
467.00,0.0233
466.00,0.0227
465.00,0.0228
464.00,0.0237
463.00,0.0251
462.00,0.0260
461.00,0.0261
460.00,0.0259
459.00,0.0258
458.00,0.0260
457.00,0.0262
456.00,0.0262
455.00,0.0264
454.00,0.0266
453.00,0.0265
452.00,0.0259
451.00,0.0248
450.00,0.0233
