Created as New Dataset,Sample 186 By Administrator Date Wednesday, September 03 2025
cm-1,A
4000.00,0.0009
3999.00,0.0009
3998.00,0.0009
3997.00,0.0008
3996.00,0.0008
3995.00,0.0008
3994.00,0.0008
3993.00,0.0008
3992.00,0.0008
3991.00,0.0009
3990.00,0.0009
3989.00,0.0008
3988.00,0.0008
3987.00,0.0008
3986.00,0.0008
3985.00,0.0008
3984.00,0.0009
3983.00,0.0009
3982.00,0.0008
3981.00,0.0008
3980.00,0.0008
3979.00,0.0007
3978.00,0.0008
3977.00,0.0008
3976.00,0.0008
3975.00,0.0008
3974.00,0.0008
3973.00,0.0008
3972.00,0.0008
3971.00,0.0007
3970.00,0.0007
3969.00,0.0007
3968.00,0.0007
3967.00,0.0006
3966.00,0.0006
3965.00,0.0007
3964.00,0.0007
3963.00,0.0007
3962.00,0.0007
3961.00,0.0007
3960.00,0.0007
3959.00,0.0007
3958.00,0.0007
3957.00,0.0007
3956.00,0.0006
3955.00,0.0006
3954.00,0.0006
3953.00,0.0007
3952.00,0.0007
3951.00,0.0007
3950.00,0.0007
3949.00,0.0007
3948.00,0.0007
3947.00,0.0007
3946.00,0.0007
3945.00,0.0007
3944.00,0.0007
3943.00,0.0007
3942.00,0.0007
3941.00,0.0007
3940.00,0.0008
3939.00,0.0008
3938.00,0.0008
3937.00,0.0008
3936.00,0.0008
3935.00,0.0008
3934.00,0.0008
3933.00,0.0008
3932.00,0.0008
3931.00,0.0008
3930.00,0.0008
3929.00,0.0008
3928.00,0.0008
3927.00,0.0007
3926.00,0.0007
3925.00,0.0007
3924.00,0.0007
3923.00,0.0007
3922.00,0.0007
3921.00,0.0007
3920.00,0.0007
3919.00,0.0007
3918.00,0.0007
3917.00,0.0007
3916.00,0.0007
3915.00,0.0007
3914.00,0.0008
3913.00,0.0008
3912.00,0.0008
3911.00,0.0008
3910.00,0.0008
3909.00,0.0008
3908.00,0.0008
3907.00,0.0007
3906.00,0.0007
3905.00,0.0007
3904.00,0.0006
3903.00,0.0006
3902.00,0.0006
3901.00,0.0006
3900.00,0.0006
3899.00,0.0006
3898.00,0.0006
3897.00,0.0006
3896.00,0.0007
3895.00,0.0007
3894.00,0.0007
3893.00,0.0008
3892.00,0.0008
3891.00,0.0008
3890.00,0.0007
3889.00,0.0007
3888.00,0.0007
3887.00,0.0007
3886.00,0.0007
3885.00,0.0007
3884.00,0.0007
3883.00,0.0007
3882.00,0.0007
3881.00,0.0007
3880.00,0.0007
3879.00,0.0006
3878.00,0.0006
3877.00,0.0006
3876.00,0.0006
3875.00,0.0006
3874.00,0.0006
3873.00,0.0007
3872.00,0.0007
3871.00,0.0006
3870.00,0.0006
3869.00,0.0005
3868.00,0.0005
3867.00,0.0005
3866.00,0.0006
3865.00,0.0006
3864.00,0.0006
3863.00,0.0006
3862.00,0.0006
3861.00,0.0006
3860.00,0.0007
3859.00,0.0006
3858.00,0.0006
3857.00,0.0005
3856.00,0.0005
3855.00,0.0005
3854.00,0.0005
3853.00,0.0005
3852.00,0.0005
3851.00,0.0005
3850.00,0.0006
3849.00,0.0006
3848.00,0.0006
3847.00,0.0007
3846.00,0.0007
3845.00,0.0007
3844.00,0.0007
3843.00,0.0007
3842.00,0.0006
3841.00,0.0006
3840.00,0.0006
3839.00,0.0006
3838.00,0.0005
3837.00,0.0005
3836.00,0.0005
3835.00,0.0005
3834.00,0.0005
3833.00,0.0005
3832.00,0.0005
3831.00,0.0006
3830.00,0.0006
3829.00,0.0006
3828.00,0.0006
3827.00,0.0006
3826.00,0.0006
3825.00,0.0006
3824.00,0.0005
3823.00,0.0005
3822.00,0.0005
3821.00,0.0005
3820.00,0.0005
3819.00,0.0005
3818.00,0.0005
3817.00,0.0005
3816.00,0.0006
3815.00,0.0006
3814.00,0.0006
3813.00,0.0006
3812.00,0.0006
3811.00,0.0006
3810.00,0.0006
3809.00,0.0006
3808.00,0.0006
3807.00,0.0006
3806.00,0.0006
3805.00,0.0005
3804.00,0.0005
3803.00,0.0005
3802.00,0.0006
3801.00,0.0005
3800.00,0.0005
3799.00,0.0005
3798.00,0.0005
3797.00,0.0006
3796.00,0.0006
3795.00,0.0006
3794.00,0.0006
3793.00,0.0006
3792.00,0.0006
3791.00,0.0007
3790.00,0.0007
3789.00,0.0006
3788.00,0.0006
3787.00,0.0006
3786.00,0.0006
3785.00,0.0006
3784.00,0.0007
3783.00,0.0007
3782.00,0.0007
3781.00,0.0007
3780.00,0.0007
3779.00,0.0007
3778.00,0.0007
3777.00,0.0007
3776.00,0.0007
3775.00,0.0007
3774.00,0.0007
3773.00,0.0007
3772.00,0.0007
3771.00,0.0007
3770.00,0.0007
3769.00,0.0007
3768.00,0.0007
3767.00,0.0007
3766.00,0.0007
3765.00,0.0007
3764.00,0.0007
3763.00,0.0007
3762.00,0.0007
3761.00,0.0008
3760.00,0.0008
3759.00,0.0007
3758.00,0.0007
3757.00,0.0006
3756.00,0.0006
3755.00,0.0006
3754.00,0.0005
3753.00,0.0005
3752.00,0.0004
3751.00,0.0004
3750.00,0.0004
3749.00,0.0004
3748.00,0.0003
3747.00,0.0003
3746.00,0.0003
3745.00,0.0003
3744.00,0.0003
3743.00,0.0003
3742.00,0.0003
3741.00,0.0004
3740.00,0.0004
3739.00,0.0004
3738.00,0.0004
3737.00,0.0004
3736.00,0.0005
3735.00,0.0005
3734.00,0.0004
3733.00,0.0004
3732.00,0.0004
3731.00,0.0004
3730.00,0.0004
3729.00,0.0004
3728.00,0.0005
3727.00,0.0005
3726.00,0.0005
3725.00,0.0005
3724.00,0.0005
3723.00,0.0005
3722.00,0.0005
3721.00,0.0005
3720.00,0.0005
3719.00,0.0005
3718.00,0.0005
3717.00,0.0006
3716.00,0.0006
3715.00,0.0006
3714.00,0.0005
3713.00,0.0005
3712.00,0.0005
3711.00,0.0004
3710.00,0.0003
3709.00,0.0003
3708.00,0.0003
3707.00,0.0003
3706.00,0.0004
3705.00,0.0004
3704.00,0.0004
3703.00,0.0004
3702.00,0.0004
3701.00,0.0004
3700.00,0.0005
3699.00,0.0005
3698.00,0.0005
3697.00,0.0005
3696.00,0.0005
3695.00,0.0005
3694.00,0.0005
3693.00,0.0005
3692.00,0.0005
3691.00,0.0005
3690.00,0.0005
3689.00,0.0005
3688.00,0.0005
3687.00,0.0004
3686.00,0.0004
3685.00,0.0004
3684.00,0.0004
3683.00,0.0005
3682.00,0.0005
3681.00,0.0005
3680.00,0.0005
3679.00,0.0005
3678.00,0.0005
3677.00,0.0005
3676.00,0.0004
3675.00,0.0004
3674.00,0.0003
3673.00,0.0003
3672.00,0.0003
3671.00,0.0004
3670.00,0.0004
3669.00,0.0004
3668.00,0.0004
3667.00,0.0005
3666.00,0.0005
3665.00,0.0005
3664.00,0.0005
3663.00,0.0005
3662.00,0.0005
3661.00,0.0005
3660.00,0.0005
3659.00,0.0004
3658.00,0.0004
3657.00,0.0004
3656.00,0.0004
3655.00,0.0004
3654.00,0.0004
3653.00,0.0004
3652.00,0.0004
3651.00,0.0003
3650.00,0.0003
3649.00,0.0003
3648.00,0.0002
3647.00,0.0003
3646.00,0.0003
3645.00,0.0003
3644.00,0.0004
3643.00,0.0004
3642.00,0.0004
3641.00,0.0004
3640.00,0.0004
3639.00,0.0004
3638.00,0.0005
3637.00,0.0005
3636.00,0.0005
3635.00,0.0005
3634.00,0.0005
3633.00,0.0004
3632.00,0.0004
3631.00,0.0003
3630.00,0.0003
3629.00,0.0003
3628.00,0.0003
3627.00,0.0003
3626.00,0.0004
3625.00,0.0004
3624.00,0.0005
3623.00,0.0005
3622.00,0.0005
3621.00,0.0005
3620.00,0.0005
3619.00,0.0005
3618.00,0.0004
3617.00,0.0004
3616.00,0.0004
3615.00,0.0004
3614.00,0.0005
3613.00,0.0005
3612.00,0.0006
3611.00,0.0006
3610.00,0.0006
3609.00,0.0007
3608.00,0.0007
3607.00,0.0006
3606.00,0.0006
3605.00,0.0006
3604.00,0.0006
3603.00,0.0006
3602.00,0.0006
3601.00,0.0006
3600.00,0.0006
3599.00,0.0007
3598.00,0.0007
3597.00,0.0007
3596.00,0.0007
3595.00,0.0007
3594.00,0.0007
3593.00,0.0007
3592.00,0.0007
3591.00,0.0007
3590.00,0.0007
3589.00,0.0006
3588.00,0.0006
3587.00,0.0007
3586.00,0.0007
3585.00,0.0007
3584.00,0.0007
3583.00,0.0007
3582.00,0.0007
3581.00,0.0007
3580.00,0.0008
3579.00,0.0008
3578.00,0.0008
3577.00,0.0009
3576.00,0.0009
3575.00,0.0009
3574.00,0.0009
3573.00,0.0009
3572.00,0.0009
3571.00,0.0009
3570.00,0.0009
3569.00,0.0010
3568.00,0.0010
3567.00,0.0009
3566.00,0.0009
3565.00,0.0009
3564.00,0.0009
3563.00,0.0010
3562.00,0.0010
3561.00,0.0010
3560.00,0.0010
3559.00,0.0011
3558.00,0.0011
3557.00,0.0011
3556.00,0.0011
3555.00,0.0011
3554.00,0.0011
3553.00,0.0011
3552.00,0.0011
3551.00,0.0012
3550.00,0.0012
3549.00,0.0013
3548.00,0.0013
3547.00,0.0012
3546.00,0.0012
3545.00,0.0012
3544.00,0.0012
3543.00,0.0013
3542.00,0.0013
3541.00,0.0013
3540.00,0.0014
3539.00,0.0014
3538.00,0.0014
3537.00,0.0015
3536.00,0.0015
3535.00,0.0015
3534.00,0.0015
3533.00,0.0015
3532.00,0.0015
3531.00,0.0015
3530.00,0.0015
3529.00,0.0015
3528.00,0.0015
3527.00,0.0016
3526.00,0.0016
3525.00,0.0017
3524.00,0.0017
3523.00,0.0017
3522.00,0.0017
3521.00,0.0017
3520.00,0.0017
3519.00,0.0017
3518.00,0.0017
3517.00,0.0017
3516.00,0.0018
3515.00,0.0018
3514.00,0.0018
3513.00,0.0018
3512.00,0.0018
3511.00,0.0019
3510.00,0.0019
3509.00,0.0019
3508.00,0.0019
3507.00,0.0019
3506.00,0.0019
3505.00,0.0019
3504.00,0.0020
3503.00,0.0020
3502.00,0.0021
3501.00,0.0021
3500.00,0.0021
3499.00,0.0021
3498.00,0.0021
3497.00,0.0021
3496.00,0.0021
3495.00,0.0020
3494.00,0.0020
3493.00,0.0020
3492.00,0.0020
3491.00,0.0020
3490.00,0.0021
3489.00,0.0021
3488.00,0.0022
3487.00,0.0022
3486.00,0.0022
3485.00,0.0022
3484.00,0.0022
3483.00,0.0023
3482.00,0.0023
3481.00,0.0023
3480.00,0.0023
3479.00,0.0023
3478.00,0.0023
3477.00,0.0023
3476.00,0.0023
3475.00,0.0023
3474.00,0.0024
3473.00,0.0024
3472.00,0.0025
3471.00,0.0025
3470.00,0.0025
3469.00,0.0025
3468.00,0.0025
3467.00,0.0025
3466.00,0.0025
3465.00,0.0025
3464.00,0.0025
3463.00,0.0025
3462.00,0.0025
3461.00,0.0025
3460.00,0.0025
3459.00,0.0026
3458.00,0.0026
3457.00,0.0027
3456.00,0.0027
3455.00,0.0028
3454.00,0.0028
3453.00,0.0028
3452.00,0.0028
3451.00,0.0028
3450.00,0.0028
3449.00,0.0028
3448.00,0.0028
3447.00,0.0028
3446.00,0.0028
3445.00,0.0028
3444.00,0.0028
3443.00,0.0028
3442.00,0.0028
3441.00,0.0029
3440.00,0.0029
3439.00,0.0029
3438.00,0.0029
3437.00,0.0029
3436.00,0.0029
3435.00,0.0029
3434.00,0.0029
3433.00,0.0030
3432.00,0.0030
3431.00,0.0030
3430.00,0.0030
3429.00,0.0030
3428.00,0.0030
3427.00,0.0031
3426.00,0.0031
3425.00,0.0031
3424.00,0.0031
3423.00,0.0031
3422.00,0.0031
3421.00,0.0031
3420.00,0.0032
3419.00,0.0032
3418.00,0.0032
3417.00,0.0032
3416.00,0.0032
3415.00,0.0032
3414.00,0.0032
3413.00,0.0033
3412.00,0.0033
3411.00,0.0033
3410.00,0.0033
3409.00,0.0033
3408.00,0.0033
3407.00,0.0032
3406.00,0.0033
3405.00,0.0033
3404.00,0.0033
3403.00,0.0033
3402.00,0.0034
3401.00,0.0034
3400.00,0.0034
3399.00,0.0034
3398.00,0.0034
3397.00,0.0034
3396.00,0.0034
3395.00,0.0034
3394.00,0.0034
3393.00,0.0034
3392.00,0.0034
3391.00,0.0033
3390.00,0.0033
3389.00,0.0033
3388.00,0.0033
3387.00,0.0034
3386.00,0.0034
3385.00,0.0034
3384.00,0.0034
3383.00,0.0034
3382.00,0.0033
3381.00,0.0033
3380.00,0.0033
3379.00,0.0033
3378.00,0.0034
3377.00,0.0034
3376.00,0.0034
3375.00,0.0034
3374.00,0.0034
3373.00,0.0034
3372.00,0.0034
3371.00,0.0034
3370.00,0.0034
3369.00,0.0034
3368.00,0.0034
3367.00,0.0035
3366.00,0.0035
3365.00,0.0034
3364.00,0.0034
3363.00,0.0034
3362.00,0.0035
3361.00,0.0035
3360.00,0.0035
3359.00,0.0035
3358.00,0.0035
3357.00,0.0034
3356.00,0.0034
3355.00,0.0034
3354.00,0.0034
3353.00,0.0034
3352.00,0.0034
3351.00,0.0034
3350.00,0.0034
3349.00,0.0034
3348.00,0.0034
3347.00,0.0034
3346.00,0.0034
3345.00,0.0034
3344.00,0.0033
3343.00,0.0033
3342.00,0.0033
3341.00,0.0033
3340.00,0.0033
3339.00,0.0033
3338.00,0.0033
3337.00,0.0033
3336.00,0.0033
3335.00,0.0032
3334.00,0.0033
3333.00,0.0033
3332.00,0.0033
3331.00,0.0033
3330.00,0.0032
3329.00,0.0032
3328.00,0.0032
3327.00,0.0032
3326.00,0.0032
3325.00,0.0032
3324.00,0.0032
3323.00,0.0032
3322.00,0.0032
3321.00,0.0032
3320.00,0.0032
3319.00,0.0032
3318.00,0.0032
3317.00,0.0032
3316.00,0.0032
3315.00,0.0032
3314.00,0.0032
3313.00,0.0032
3312.00,0.0032
3311.00,0.0032
3310.00,0.0032
3309.00,0.0032
3308.00,0.0032
3307.00,0.0032
3306.00,0.0032
3305.00,0.0033
3304.00,0.0033
3303.00,0.0033
3302.00,0.0033
3301.00,0.0033
3300.00,0.0033
3299.00,0.0033
3298.00,0.0032
3297.00,0.0032
3296.00,0.0031
3295.00,0.0031
3294.00,0.0031
3293.00,0.0030
3292.00,0.0030
3291.00,0.0030
3290.00,0.0030
3289.00,0.0029
3288.00,0.0030
3287.00,0.0030
3286.00,0.0030
3285.00,0.0030
3284.00,0.0031
3283.00,0.0031
3282.00,0.0031
3281.00,0.0030
3280.00,0.0030
3279.00,0.0030
3278.00,0.0029
3277.00,0.0029
3276.00,0.0029
3275.00,0.0029
3274.00,0.0029
3273.00,0.0029
3272.00,0.0029
3271.00,0.0029
3270.00,0.0029
3269.00,0.0028
3268.00,0.0028
3267.00,0.0028
3266.00,0.0028
3265.00,0.0027
3264.00,0.0027
3263.00,0.0027
3262.00,0.0027
3261.00,0.0027
3260.00,0.0028
3259.00,0.0028
3258.00,0.0028
3257.00,0.0028
3256.00,0.0028
3255.00,0.0028
3254.00,0.0027
3253.00,0.0027
3252.00,0.0027
3251.00,0.0026
3250.00,0.0026
3249.00,0.0026
3248.00,0.0026
3247.00,0.0025
3246.00,0.0025
3245.00,0.0025
3244.00,0.0025
3243.00,0.0026
3242.00,0.0026
3241.00,0.0026
3240.00,0.0026
3239.00,0.0026
3238.00,0.0026
3237.00,0.0027
3236.00,0.0027
3235.00,0.0027
3234.00,0.0027
3233.00,0.0027
3232.00,0.0027
3231.00,0.0027
3230.00,0.0027
3229.00,0.0027
3228.00,0.0027
3227.00,0.0027
3226.00,0.0028
3225.00,0.0028
3224.00,0.0028
3223.00,0.0028
3222.00,0.0028
3221.00,0.0028
3220.00,0.0028
3219.00,0.0029
3218.00,0.0029
3217.00,0.0029
3216.00,0.0029
3215.00,0.0029
3214.00,0.0029
3213.00,0.0029
3212.00,0.0030
3211.00,0.0030
3210.00,0.0031
3209.00,0.0031
3208.00,0.0031
3207.00,0.0031
3206.00,0.0031
3205.00,0.0031
3204.00,0.0031
3203.00,0.0031
3202.00,0.0031
3201.00,0.0031
3200.00,0.0031
3199.00,0.0031
3198.00,0.0031
3197.00,0.0031
3196.00,0.0032
3195.00,0.0032
3194.00,0.0032
3193.00,0.0032
3192.00,0.0032
3191.00,0.0032
3190.00,0.0032
3189.00,0.0032
3188.00,0.0032
3187.00,0.0032
3186.00,0.0032
3185.00,0.0032
3184.00,0.0031
3183.00,0.0031
3182.00,0.0031
3181.00,0.0031
3180.00,0.0031
3179.00,0.0030
3178.00,0.0030
3177.00,0.0030
3176.00,0.0029
3175.00,0.0029
3174.00,0.0029
3173.00,0.0029
3172.00,0.0029
3171.00,0.0029
3170.00,0.0029
3169.00,0.0029
3168.00,0.0029
3167.00,0.0029
3166.00,0.0029
3165.00,0.0029
3164.00,0.0028
3163.00,0.0028
3162.00,0.0028
3161.00,0.0028
3160.00,0.0028
3159.00,0.0028
3158.00,0.0028
3157.00,0.0028
3156.00,0.0028
3155.00,0.0028
3154.00,0.0029
3153.00,0.0029
3152.00,0.0029
3151.00,0.0029
3150.00,0.0029
3149.00,0.0029
3148.00,0.0029
3147.00,0.0029
3146.00,0.0029
3145.00,0.0028
3144.00,0.0029
3143.00,0.0029
3142.00,0.0029
3141.00,0.0028
3140.00,0.0028
3139.00,0.0028
3138.00,0.0028
3137.00,0.0028
3136.00,0.0027
3135.00,0.0027
3134.00,0.0027
3133.00,0.0027
3132.00,0.0026
3131.00,0.0026
3130.00,0.0026
3129.00,0.0026
3128.00,0.0026
3127.00,0.0026
3126.00,0.0026
3125.00,0.0026
3124.00,0.0026
3123.00,0.0026
3122.00,0.0025
3121.00,0.0025
3120.00,0.0025
3119.00,0.0025
3118.00,0.0025
3117.00,0.0024
3116.00,0.0024
3115.00,0.0024
3114.00,0.0024
3113.00,0.0025
3112.00,0.0024
3111.00,0.0024
3110.00,0.0024
3109.00,0.0024
3108.00,0.0024
3107.00,0.0024
3106.00,0.0023
3105.00,0.0023
3104.00,0.0022
3103.00,0.0022
3102.00,0.0021
3101.00,0.0022
3100.00,0.0022
3099.00,0.0022
3098.00,0.0022
3097.00,0.0022
3096.00,0.0022
3095.00,0.0023
3094.00,0.0023
3093.00,0.0023
3092.00,0.0023
3091.00,0.0023
3090.00,0.0023
3089.00,0.0023
3088.00,0.0023
3087.00,0.0023
3086.00,0.0023
3085.00,0.0023
3084.00,0.0023
3083.00,0.0023
3082.00,0.0023
3081.00,0.0022
3080.00,0.0022
3079.00,0.0022
3078.00,0.0022
3077.00,0.0023
3076.00,0.0023
3075.00,0.0023
3074.00,0.0023
3073.00,0.0023
3072.00,0.0024
3071.00,0.0024
3070.00,0.0024
3069.00,0.0024
3068.00,0.0024
3067.00,0.0024
3066.00,0.0025
3065.00,0.0025
3064.00,0.0025
3063.00,0.0025
3062.00,0.0025
3061.00,0.0025
3060.00,0.0025
3059.00,0.0026
3058.00,0.0026
3057.00,0.0027
3056.00,0.0027
3055.00,0.0027
3054.00,0.0027
3053.00,0.0027
3052.00,0.0027
3051.00,0.0027
3050.00,0.0027
3049.00,0.0027
3048.00,0.0028
3047.00,0.0028
3046.00,0.0028
3045.00,0.0028
3044.00,0.0028
3043.00,0.0029
3042.00,0.0029
3041.00,0.0029
3040.00,0.0029
3039.00,0.0030
3038.00,0.0030
3037.00,0.0031
3036.00,0.0031
3035.00,0.0031
3034.00,0.0031
3033.00,0.0031
3032.00,0.0031
3031.00,0.0032
3030.00,0.0032
3029.00,0.0033
3028.00,0.0034
3027.00,0.0034
3026.00,0.0035
3025.00,0.0036
3024.00,0.0036
3023.00,0.0037
3022.00,0.0039
3021.00,0.0040
3020.00,0.0040
3019.00,0.0041
3018.00,0.0042
3017.00,0.0043
3016.00,0.0044
3015.00,0.0045
3014.00,0.0046
3013.00,0.0047
3012.00,0.0048
3011.00,0.0049
3010.00,0.0051
3009.00,0.0052
3008.00,0.0053
3007.00,0.0055
3006.00,0.0056
3005.00,0.0058
3004.00,0.0060
3003.00,0.0062
3002.00,0.0064
3001.00,0.0067
3000.00,0.0069
2999.00,0.0072
2998.00,0.0075
2997.00,0.0079
2996.00,0.0083
2995.00,0.0087
2994.00,0.0091
2993.00,0.0096
2992.00,0.0101
2991.00,0.0107
2990.00,0.0114
2989.00,0.0121
2988.00,0.0129
2987.00,0.0137
2986.00,0.0147
2985.00,0.0158
2984.00,0.0171
2983.00,0.0185
2982.00,0.0201
2981.00,0.0220
2980.00,0.0240
2979.00,0.0264
2978.00,0.0290
2977.00,0.0321
2976.00,0.0356
2975.00,0.0396
2974.00,0.0443
2973.00,0.0496
2972.00,0.0556
2971.00,0.0624
2970.00,0.0701
2969.00,0.0787
2968.00,0.0880
2967.00,0.0982
2966.00,0.1091
2965.00,0.1206
2964.00,0.1322
2963.00,0.1435
2962.00,0.1538
2961.00,0.1627
2960.00,0.1697
2959.00,0.1748
2958.00,0.1783
2957.00,0.1807
2956.00,0.1828
2955.00,0.1851
2954.00,0.1877
2953.00,0.1903
2952.00,0.1922
2951.00,0.1926
2950.00,0.1906
2949.00,0.1855
2948.00,0.1774
2947.00,0.1668
2946.00,0.1548
2945.00,0.1424
2944.00,0.1309
2943.00,0.1210
2942.00,0.1134
2941.00,0.1081
2940.00,0.1052
2939.00,0.1044
2938.00,0.1055
2937.00,0.1082
2936.00,0.1125
2935.00,0.1182
2934.00,0.1251
2933.00,0.1332
2932.00,0.1422
2931.00,0.1520
2930.00,0.1622
2929.00,0.1726
2928.00,0.1829
2927.00,0.1928
2926.00,0.2022
2925.00,0.2111
2924.00,0.2195
2923.00,0.2275
2922.00,0.2352
2921.00,0.2424
2920.00,0.2485
2919.00,0.2528
2918.00,0.2546
2917.00,0.2535
2916.00,0.2495
2915.00,0.2432
2914.00,0.2354
2913.00,0.2271
2912.00,0.2190
2911.00,0.2117
2910.00,0.2053
2909.00,0.1996
2908.00,0.1944
2907.00,0.1892
2906.00,0.1839
2905.00,0.1783
2904.00,0.1722
2903.00,0.1659
2902.00,0.1593
2901.00,0.1527
2900.00,0.1462
2899.00,0.1399
2898.00,0.1341
2897.00,0.1287
2896.00,0.1238
2895.00,0.1196
2894.00,0.1159
2893.00,0.1128
2892.00,0.1103
2891.00,0.1083
2890.00,0.1069
2889.00,0.1059
2888.00,0.1053
2887.00,0.1050
2886.00,0.1050
2885.00,0.1054
2884.00,0.1061
2883.00,0.1072
2882.00,0.1087
2881.00,0.1103
2880.00,0.1118
2879.00,0.1130
2878.00,0.1136
2877.00,0.1135
2876.00,0.1129
2875.00,0.1122
2874.00,0.1116
2873.00,0.1116
2872.00,0.1123
2871.00,0.1136
2870.00,0.1153
2869.00,0.1168
2868.00,0.1175
2867.00,0.1168
2866.00,0.1142
2865.00,0.1096
2864.00,0.1035
2863.00,0.0966
2862.00,0.0900
2861.00,0.0842
2860.00,0.0799
2859.00,0.0770
2858.00,0.0755
2857.00,0.0751
2856.00,0.0757
2855.00,0.0770
2854.00,0.0787
2853.00,0.0808
2852.00,0.0828
2851.00,0.0847
2850.00,0.0863
2849.00,0.0876
2848.00,0.0889
2847.00,0.0907
2846.00,0.0934
2845.00,0.0972
2844.00,0.1021
2843.00,0.1077
2842.00,0.1137
2841.00,0.1193
2840.00,0.1236
2839.00,0.1259
2838.00,0.1254
2837.00,0.1218
2836.00,0.1150
2835.00,0.1058
2834.00,0.0950
2833.00,0.0839
2832.00,0.0734
2831.00,0.0641
2830.00,0.0562
2829.00,0.0497
2828.00,0.0445
2827.00,0.0402
2826.00,0.0368
2825.00,0.0339
2824.00,0.0315
2823.00,0.0294
2822.00,0.0276
2821.00,0.0261
2820.00,0.0248
2819.00,0.0236
2818.00,0.0226
2817.00,0.0217
2816.00,0.0209
2815.00,0.0202
2814.00,0.0196
2813.00,0.0190
2812.00,0.0184
2811.00,0.0179
2810.00,0.0174
2809.00,0.0168
2808.00,0.0163
2807.00,0.0157
2806.00,0.0151
2805.00,0.0145
2804.00,0.0138
2803.00,0.0132
2802.00,0.0127
2801.00,0.0122
2800.00,0.0118
2799.00,0.0115
2798.00,0.0113
2797.00,0.0111
2796.00,0.0109
2795.00,0.0107
2794.00,0.0104
2793.00,0.0101
2792.00,0.0097
2791.00,0.0094
2790.00,0.0090
2789.00,0.0087
2788.00,0.0084
2787.00,0.0081
2786.00,0.0078
2785.00,0.0075
2784.00,0.0073
2783.00,0.0070
2782.00,0.0068
2781.00,0.0066
2780.00,0.0064
2779.00,0.0062
2778.00,0.0061
2777.00,0.0060
2776.00,0.0059
2775.00,0.0058
2774.00,0.0057
2773.00,0.0056
2772.00,0.0055
2771.00,0.0055
2770.00,0.0054
2769.00,0.0054
2768.00,0.0053
2767.00,0.0053
2766.00,0.0053
2765.00,0.0052
2764.00,0.0052
2763.00,0.0052
2762.00,0.0052
2761.00,0.0051
2760.00,0.0051
2759.00,0.0050
2758.00,0.0050
2757.00,0.0050
2756.00,0.0050
2755.00,0.0050
2754.00,0.0049
2753.00,0.0049
2752.00,0.0049
2751.00,0.0049
2750.00,0.0049
2749.00,0.0049
2748.00,0.0049
2747.00,0.0049
2746.00,0.0050
2745.00,0.0050
2744.00,0.0051
2743.00,0.0051
2742.00,0.0052
2741.00,0.0054
2740.00,0.0055
2739.00,0.0056
2738.00,0.0057
2737.00,0.0059
2736.00,0.0060
2735.00,0.0061
2734.00,0.0062
2733.00,0.0064
2732.00,0.0066
2731.00,0.0067
2730.00,0.0069
2729.00,0.0072
2728.00,0.0074
2727.00,0.0076
2726.00,0.0079
2725.00,0.0081
2724.00,0.0082
2723.00,0.0083
2722.00,0.0082
2721.00,0.0081
2720.00,0.0078
2719.00,0.0075
2718.00,0.0072
2717.00,0.0069
2716.00,0.0066
2715.00,0.0063
2714.00,0.0061
2713.00,0.0059
2712.00,0.0057
2711.00,0.0056
2710.00,0.0054
2709.00,0.0053
2708.00,0.0052
2707.00,0.0050
2706.00,0.0049
2705.00,0.0049
2704.00,0.0048
2703.00,0.0047
2702.00,0.0045
2701.00,0.0045
2700.00,0.0044
2699.00,0.0044
2698.00,0.0043
2697.00,0.0043
2696.00,0.0043
2695.00,0.0043
2694.00,0.0043
2693.00,0.0043
2692.00,0.0044
2691.00,0.0044
2690.00,0.0044
2689.00,0.0044
2688.00,0.0044
2687.00,0.0044
2686.00,0.0044
2685.00,0.0044
2684.00,0.0044
2683.00,0.0044
2682.00,0.0044
2681.00,0.0044
2680.00,0.0043
2679.00,0.0044
2678.00,0.0044
2677.00,0.0044
2676.00,0.0044
2675.00,0.0043
2674.00,0.0043
2673.00,0.0042
2672.00,0.0042
2671.00,0.0042
2670.00,0.0042
2669.00,0.0042
2668.00,0.0042
2667.00,0.0043
2666.00,0.0043
2665.00,0.0044
2664.00,0.0045
2663.00,0.0045
2662.00,0.0045
2661.00,0.0046
2660.00,0.0046
2659.00,0.0046
2658.00,0.0046
2657.00,0.0045
2656.00,0.0045
2655.00,0.0044
2654.00,0.0044
2653.00,0.0043
2652.00,0.0043
2651.00,0.0043
2650.00,0.0042
2649.00,0.0042
2648.00,0.0042
2647.00,0.0041
2646.00,0.0041
2645.00,0.0041
2644.00,0.0041
2643.00,0.0040
2642.00,0.0039
2641.00,0.0039
2640.00,0.0038
2639.00,0.0038
2638.00,0.0038
2637.00,0.0038
2636.00,0.0038
2635.00,0.0037
2634.00,0.0037
2633.00,0.0037
2632.00,0.0037
2631.00,0.0037
2630.00,0.0037
2629.00,0.0038
2628.00,0.0038
2627.00,0.0038
2626.00,0.0038
2625.00,0.0038
2624.00,0.0038
2623.00,0.0038
2622.00,0.0038
2621.00,0.0038
2620.00,0.0039
2619.00,0.0039
2618.00,0.0039
2617.00,0.0038
2616.00,0.0038
2615.00,0.0037
2614.00,0.0037
2613.00,0.0037
2612.00,0.0037
2611.00,0.0036
2610.00,0.0035
2609.00,0.0034
2608.00,0.0033
2607.00,0.0033
2606.00,0.0032
2605.00,0.0031
2604.00,0.0031
2603.00,0.0030
2602.00,0.0030
2601.00,0.0030
2600.00,0.0030
2599.00,0.0029
2598.00,0.0029
2597.00,0.0029
2596.00,0.0029
2595.00,0.0029
2594.00,0.0029
2593.00,0.0030
2592.00,0.0030
2591.00,0.0031
2590.00,0.0032
2589.00,0.0032
2588.00,0.0032
2587.00,0.0033
2586.00,0.0034
2585.00,0.0034
2584.00,0.0035
2583.00,0.0035
2582.00,0.0035
2581.00,0.0035
2580.00,0.0035
2579.00,0.0035
2578.00,0.0034
2577.00,0.0033
2576.00,0.0032
2575.00,0.0031
2574.00,0.0029
2573.00,0.0028
2572.00,0.0027
2571.00,0.0026
2570.00,0.0026
2569.00,0.0025
2568.00,0.0025
2567.00,0.0024
2566.00,0.0024
2565.00,0.0023
2564.00,0.0022
2563.00,0.0022
2562.00,0.0022
2561.00,0.0022
2560.00,0.0022
2559.00,0.0022
2558.00,0.0022
2557.00,0.0022
2556.00,0.0021
2555.00,0.0021
2554.00,0.0020
2553.00,0.0019
2552.00,0.0019
2551.00,0.0018
2550.00,0.0017
2549.00,0.0017
2548.00,0.0017
2547.00,0.0017
2546.00,0.0018
2545.00,0.0018
2544.00,0.0018
2543.00,0.0018
2542.00,0.0017
2541.00,0.0016
2540.00,0.0015
2539.00,0.0015
2538.00,0.0014
2537.00,0.0014
2536.00,0.0014
2535.00,0.0014
2534.00,0.0013
2533.00,0.0013
2532.00,0.0013
2531.00,0.0013
2530.00,0.0013
2529.00,0.0013
2528.00,0.0013
2527.00,0.0012
2526.00,0.0011
2525.00,0.0011
2524.00,0.0011
2523.00,0.0011
2522.00,0.0011
2521.00,0.0010
2520.00,0.0010
2519.00,0.0010
2518.00,0.0010
2517.00,0.0011
2516.00,0.0011
2515.00,0.0011
2514.00,0.0011
2513.00,0.0010
2512.00,0.0010
2511.00,0.0010
2510.00,0.0009
2509.00,0.0009
2508.00,0.0009
2507.00,0.0009
2506.00,0.0009
2505.00,0.0009
2504.00,0.0009
2503.00,0.0009
2502.00,0.0009
2501.00,0.0010
2500.00,0.0009
2499.00,0.0009
2498.00,0.0009
2497.00,0.0009
2496.00,0.0009
2495.00,0.0008
2494.00,0.0008
2493.00,0.0008
2492.00,0.0008
2491.00,0.0008
2490.00,0.0008
2489.00,0.0008
2488.00,0.0008
2487.00,0.0008
2486.00,0.0008
2485.00,0.0008
2484.00,0.0007
2483.00,0.0007
2482.00,0.0007
2481.00,0.0007
2480.00,0.0007
2479.00,0.0007
2478.00,0.0007
2477.00,0.0007
2476.00,0.0007
2475.00,0.0007
2474.00,0.0007
2473.00,0.0007
2472.00,0.0007
2471.00,0.0007
2470.00,0.0007
2469.00,0.0007
2468.00,0.0007
2467.00,0.0008
2466.00,0.0008
2465.00,0.0008
2464.00,0.0009
2463.00,0.0009
2462.00,0.0009
2461.00,0.0010
2460.00,0.0011
2459.00,0.0011
2458.00,0.0012
2457.00,0.0011
2456.00,0.0010
2455.00,0.0010
2454.00,0.0009
2453.00,0.0009
2452.00,0.0010
2451.00,0.0010
2450.00,0.0011
2449.00,0.0011
2448.00,0.0011
2447.00,0.0011
2446.00,0.0011
2445.00,0.0011
2444.00,0.0011
2443.00,0.0011
2442.00,0.0011
2441.00,0.0011
2440.00,0.0010
2439.00,0.0010
2438.00,0.0009
2437.00,0.0010
2436.00,0.0010
2435.00,0.0011
2434.00,0.0011
2433.00,0.0011
2432.00,0.0012
2431.00,0.0012
2430.00,0.0012
2429.00,0.0012
2428.00,0.0012
2427.00,0.0011
2426.00,0.0010
2425.00,0.0010
2424.00,0.0010
2423.00,0.0010
2422.00,0.0010
2421.00,0.0009
2420.00,0.0009
2419.00,0.0008
2418.00,0.0007
2417.00,0.0007
2416.00,0.0007
2415.00,0.0007
2414.00,0.0007
2413.00,0.0007
2412.00,0.0008
2411.00,0.0009
2410.00,0.0009
2409.00,0.0010
2408.00,0.0010
2407.00,0.0009
2406.00,0.0008
2405.00,0.0008
2404.00,0.0008
2403.00,0.0008
2402.00,0.0008
2401.00,0.0008
2400.00,0.0007
2399.00,0.0007
2398.00,0.0007
2397.00,0.0007
2396.00,0.0007
2395.00,0.0007
2394.00,0.0006
2393.00,0.0006
2392.00,0.0006
2391.00,0.0006
2390.00,0.0006
2389.00,0.0006
2388.00,0.0005
2387.00,0.0005
2386.00,0.0005
2385.00,0.0005
2384.00,0.0005
2383.00,0.0005
2382.00,0.0004
2381.00,0.0004
2380.00,0.0004
2379.00,0.0004
2378.00,0.0004
2377.00,0.0005
2376.00,0.0005
2375.00,0.0005
2374.00,0.0005
2373.00,0.0005
2372.00,0.0004
2371.00,0.0004
2370.00,0.0003
2369.00,0.0002
2368.00,0.0002
2367.00,0.0002
2366.00,0.0003
2365.00,0.0004
2364.00,0.0005
2363.00,0.0006
2362.00,0.0006
2361.00,0.0006
2360.00,0.0006
2359.00,0.0006
2358.00,0.0006
2357.00,0.0006
2356.00,0.0006
2355.00,0.0006
2354.00,0.0006
2353.00,0.0006
2352.00,0.0006
2351.00,0.0007
2350.00,0.0007
2349.00,0.0007
2348.00,0.0006
2347.00,0.0007
2346.00,0.0008
2345.00,0.0009
2344.00,0.0010
2343.00,0.0011
2342.00,0.0011
2341.00,0.0011
2340.00,0.0011
2339.00,0.0010
2338.00,0.0010
2337.00,0.0009
2336.00,0.0008
2335.00,0.0008
2334.00,0.0008
2333.00,0.0008
2332.00,0.0008
2331.00,0.0008
2330.00,0.0008
2329.00,0.0009
2328.00,0.0011
2327.00,0.0015
2326.00,0.0019
2325.00,0.0022
2324.00,0.0024
2323.00,0.0022
2322.00,0.0020
2321.00,0.0018
2320.00,0.0017
2319.00,0.0017
2318.00,0.0016
2317.00,0.0016
2316.00,0.0015
2315.00,0.0014
2314.00,0.0014
2313.00,0.0014
2312.00,0.0013
2311.00,0.0012
2310.00,0.0011
2309.00,0.0011
2308.00,0.0010
2307.00,0.0010
2306.00,0.0010
2305.00,0.0011
2304.00,0.0012
2303.00,0.0012
2302.00,0.0012
2301.00,0.0012
2300.00,0.0011
2299.00,0.0011
2298.00,0.0012
2297.00,0.0012
2296.00,0.0013
2295.00,0.0013
2294.00,0.0014
2293.00,0.0015
2292.00,0.0016
2291.00,0.0017
2290.00,0.0018
2289.00,0.0018
2288.00,0.0018
2287.00,0.0018
2286.00,0.0018
2285.00,0.0017
2284.00,0.0016
2283.00,0.0014
2282.00,0.0014
2281.00,0.0014
2280.00,0.0014
2279.00,0.0013
2278.00,0.0013
2277.00,0.0012
2276.00,0.0012
2275.00,0.0013
2274.00,0.0014
2273.00,0.0014
2272.00,0.0013
2271.00,0.0012
2270.00,0.0011
2269.00,0.0011
2268.00,0.0011
2267.00,0.0011
2266.00,0.0010
2265.00,0.0010
2264.00,0.0009
2263.00,0.0009
2262.00,0.0009
2261.00,0.0010
2260.00,0.0011
2259.00,0.0012
2258.00,0.0012
2257.00,0.0011
2256.00,0.0010
2255.00,0.0010
2254.00,0.0009
2253.00,0.0009
2252.00,0.0009
2251.00,0.0010
2250.00,0.0010
2249.00,0.0011
2248.00,0.0011
2247.00,0.0010
2246.00,0.0009
2245.00,0.0008
2244.00,0.0008
2243.00,0.0008
2242.00,0.0008
2241.00,0.0007
2240.00,0.0007
2239.00,0.0007
2238.00,0.0007
2237.00,0.0007
2236.00,0.0008
2235.00,0.0008
2234.00,0.0009
2233.00,0.0010
2232.00,0.0011
2231.00,0.0011
2230.00,0.0011
2229.00,0.0010
2228.00,0.0008
2227.00,0.0006
2226.00,0.0005
2225.00,0.0004
2224.00,0.0005
2223.00,0.0006
2222.00,0.0007
2221.00,0.0007
2220.00,0.0007
2219.00,0.0007
2218.00,0.0006
2217.00,0.0005
2216.00,0.0004
2215.00,0.0003
2214.00,0.0002
2213.00,0.0002
2212.00,0.0004
2211.00,0.0005
2210.00,0.0005
2209.00,0.0005
2208.00,0.0004
2207.00,0.0004
2206.00,0.0004
2205.00,0.0004
2204.00,0.0004
2203.00,0.0003
2202.00,0.0002
2201.00,0.0002
2200.00,0.0003
2199.00,0.0006
2198.00,0.0007
2197.00,0.0008
2196.00,0.0008
2195.00,0.0007
2194.00,0.0007
2193.00,0.0007
2192.00,0.0008
2191.00,0.0009
2190.00,0.0011
2189.00,0.0013
2188.00,0.0014
2187.00,0.0015
2186.00,0.0015
2185.00,0.0015
2184.00,0.0014
2183.00,0.0010
2182.00,0.0006
2181.00,0.0002
2180.00,0.0001
2179.00,0.0001
2178.00,0.0002
2177.00,0.0002
2176.00,0.0000
2175.00,-0.0001
2174.00,0.0001
2173.00,0.0005
2172.00,0.0010
2171.00,0.0012
2170.00,0.0013
2169.00,0.0013
2168.00,0.0014
2167.00,0.0015
2166.00,0.0016
2165.00,0.0017
2164.00,0.0019
2163.00,0.0022
2162.00,0.0023
2161.00,0.0019
2160.00,0.0008
2159.00,-0.0008
2158.00,-0.0022
2157.00,-0.0029
2156.00,-0.0030
2155.00,-0.0029
2154.00,-0.0025
2153.00,-0.0021
2152.00,-0.0017
2151.00,-0.0014
2150.00,-0.0012
2149.00,-0.0010
2148.00,-0.0010
2147.00,-0.0012
2146.00,-0.0014
2145.00,-0.0016
2144.00,-0.0015
2143.00,-0.0014
2142.00,-0.0014
2141.00,-0.0014
2140.00,-0.0014
2139.00,-0.0014
2138.00,-0.0014
2137.00,-0.0014
2136.00,-0.0015
2135.00,-0.0018
2134.00,-0.0021
2133.00,-0.0023
2132.00,-0.0023
2131.00,-0.0020
2130.00,-0.0016
2129.00,-0.0013
2128.00,-0.0010
2127.00,-0.0009
2126.00,-0.0008
2125.00,-0.0007
2124.00,-0.0006
2123.00,-0.0006
2122.00,-0.0005
2121.00,-0.0004
2120.00,-0.0003
2119.00,-0.0002
2118.00,-0.0002
2117.00,-0.0002
2116.00,-0.0001
2115.00,-0.0000
2114.00,0.0000
2113.00,0.0001
2112.00,0.0003
2111.00,0.0004
2110.00,0.0005
2109.00,0.0005
2108.00,0.0004
2107.00,0.0003
2106.00,0.0002
2105.00,0.0001
2104.00,0.0001
2103.00,0.0001
2102.00,0.0001
2101.00,0.0001
2100.00,0.0001
2099.00,0.0002
2098.00,0.0002
2097.00,0.0001
2096.00,-0.0001
2095.00,-0.0002
2094.00,-0.0002
2093.00,-0.0001
2092.00,0.0000
2091.00,0.0001
2090.00,0.0000
2089.00,-0.0001
2088.00,-0.0002
2087.00,-0.0001
2086.00,-0.0001
2085.00,-0.0000
2084.00,-0.0000
2083.00,-0.0000
2082.00,-0.0000
2081.00,0.0000
2080.00,0.0000
2079.00,0.0000
2078.00,0.0001
2077.00,0.0001
2076.00,0.0002
2075.00,0.0002
2074.00,0.0001
2073.00,-0.0000
2072.00,-0.0001
2071.00,-0.0001
2070.00,-0.0001
2069.00,0.0000
2068.00,0.0001
2067.00,0.0002
2066.00,0.0002
2065.00,0.0001
2064.00,0.0001
2063.00,0.0001
2062.00,0.0002
2061.00,0.0003
2060.00,0.0003
2059.00,0.0002
2058.00,0.0001
2057.00,0.0001
2056.00,0.0001
2055.00,0.0002
2054.00,0.0005
2053.00,0.0009
2052.00,0.0015
2051.00,0.0019
2050.00,0.0018
2049.00,0.0015
2048.00,0.0010
2047.00,0.0006
2046.00,0.0003
2045.00,0.0003
2044.00,0.0003
2043.00,0.0004
2042.00,0.0004
2041.00,0.0003
2040.00,-0.0000
2039.00,-0.0004
2038.00,-0.0006
2037.00,-0.0008
2036.00,-0.0007
2035.00,-0.0006
2034.00,-0.0006
2033.00,-0.0006
2032.00,-0.0007
2031.00,-0.0008
2030.00,-0.0009
2029.00,-0.0009
2028.00,-0.0008
2027.00,-0.0007
2026.00,-0.0008
2025.00,-0.0009
2024.00,-0.0010
2023.00,-0.0010
2022.00,-0.0009
2021.00,-0.0008
2020.00,-0.0008
2019.00,-0.0010
2018.00,-0.0013
2017.00,-0.0014
2016.00,-0.0013
2015.00,-0.0011
2014.00,-0.0010
2013.00,-0.0010
2012.00,-0.0009
2011.00,-0.0008
2010.00,-0.0008
2009.00,-0.0010
2008.00,-0.0014
2007.00,-0.0021
2006.00,-0.0026
2005.00,-0.0028
2004.00,-0.0026
2003.00,-0.0022
2002.00,-0.0018
2001.00,-0.0014
2000.00,-0.0011
1999.00,-0.0010
1998.00,-0.0011
1997.00,-0.0013
1996.00,-0.0014
1995.00,-0.0015
1994.00,-0.0016
1993.00,-0.0016
1992.00,-0.0014
1991.00,-0.0012
1990.00,-0.0010
1989.00,-0.0009
1988.00,-0.0008
1987.00,-0.0009
1986.00,-0.0009
1985.00,-0.0008
1984.00,-0.0005
1983.00,-0.0000
1982.00,0.0005
1981.00,0.0008
1980.00,0.0008
1979.00,0.0003
1978.00,-0.0006
1977.00,-0.0014
1976.00,-0.0018
1975.00,-0.0017
1974.00,-0.0016
1973.00,-0.0015
1972.00,-0.0015
1971.00,-0.0016
1970.00,-0.0016
1969.00,-0.0015
1968.00,-0.0014
1967.00,-0.0013
1966.00,-0.0013
1965.00,-0.0012
1964.00,-0.0011
1963.00,-0.0009
1962.00,-0.0009
1961.00,-0.0011
1960.00,-0.0013
1959.00,-0.0015
1958.00,-0.0017
1957.00,-0.0018
1956.00,-0.0019
1955.00,-0.0019
1954.00,-0.0019
1953.00,-0.0019
1952.00,-0.0019
1951.00,-0.0020
1950.00,-0.0020
1949.00,-0.0020
1948.00,-0.0020
1947.00,-0.0020
1946.00,-0.0019
1945.00,-0.0018
1944.00,-0.0016
1943.00,-0.0015
1942.00,-0.0015
1941.00,-0.0016
1940.00,-0.0015
1939.00,-0.0014
1938.00,-0.0012
1937.00,-0.0009
1936.00,-0.0009
1935.00,-0.0009
1934.00,-0.0010
1933.00,-0.0009
1932.00,-0.0009
1931.00,-0.0008
1930.00,-0.0008
1929.00,-0.0008
1928.00,-0.0008
1927.00,-0.0009
1926.00,-0.0009
1925.00,-0.0009
1924.00,-0.0008
1923.00,-0.0006
1922.00,-0.0005
1921.00,-0.0005
1920.00,-0.0005
1919.00,-0.0005
1918.00,-0.0005
1917.00,-0.0005
1916.00,-0.0005
1915.00,-0.0005
1914.00,-0.0005
1913.00,-0.0005
1912.00,-0.0004
1911.00,-0.0004
1910.00,-0.0003
1909.00,-0.0003
1908.00,-0.0004
1907.00,-0.0004
1906.00,-0.0005
1905.00,-0.0005
1904.00,-0.0004
1903.00,-0.0003
1902.00,-0.0003
1901.00,-0.0003
1900.00,-0.0002
1899.00,-0.0002
1898.00,-0.0002
1897.00,-0.0002
1896.00,-0.0002
1895.00,-0.0002
1894.00,-0.0002
1893.00,-0.0002
1892.00,-0.0002
1891.00,-0.0003
1890.00,-0.0004
1889.00,-0.0004
1888.00,-0.0004
1887.00,-0.0004
1886.00,-0.0005
1885.00,-0.0006
1884.00,-0.0006
1883.00,-0.0006
1882.00,-0.0005
1881.00,-0.0005
1880.00,-0.0004
1879.00,-0.0003
1878.00,-0.0003
1877.00,-0.0003
1876.00,-0.0003
1875.00,-0.0003
1874.00,-0.0004
1873.00,-0.0004
1872.00,-0.0004
1871.00,-0.0004
1870.00,-0.0003
1869.00,-0.0002
1868.00,-0.0001
1867.00,-0.0000
1866.00,-0.0000
1865.00,-0.0000
1864.00,-0.0000
1863.00,-0.0001
1862.00,-0.0001
1861.00,-0.0001
1860.00,-0.0002
1859.00,-0.0002
1858.00,-0.0001
1857.00,-0.0001
1856.00,-0.0000
1855.00,0.0000
1854.00,0.0001
1853.00,0.0001
1852.00,0.0001
1851.00,0.0001
1850.00,0.0001
1849.00,0.0000
1848.00,0.0000
1847.00,-0.0000
1846.00,-0.0000
1845.00,0.0000
1844.00,0.0000
1843.00,-0.0000
1842.00,-0.0001
1841.00,-0.0002
1840.00,-0.0002
1839.00,-0.0002
1838.00,-0.0001
1837.00,-0.0000
1836.00,0.0000
1835.00,0.0000
1834.00,-0.0000
1833.00,-0.0001
1832.00,-0.0001
1831.00,-0.0000
1830.00,0.0001
1829.00,0.0002
1828.00,0.0003
1827.00,0.0003
1826.00,0.0003
1825.00,0.0004
1824.00,0.0004
1823.00,0.0003
1822.00,0.0002
1821.00,0.0002
1820.00,0.0001
1819.00,0.0000
1818.00,-0.0001
1817.00,-0.0001
1816.00,-0.0001
1815.00,-0.0000
1814.00,0.0000
1813.00,0.0001
1812.00,0.0001
1811.00,0.0002
1810.00,0.0002
1809.00,0.0003
1808.00,0.0003
1807.00,0.0003
1806.00,0.0003
1805.00,0.0003
1804.00,0.0003
1803.00,0.0003
1802.00,0.0003
1801.00,0.0003
1800.00,0.0003
1799.00,0.0003
1798.00,0.0004
1797.00,0.0004
1796.00,0.0004
1795.00,0.0004
1794.00,0.0004
1793.00,0.0003
1792.00,0.0003
1791.00,0.0004
1790.00,0.0004
1789.00,0.0005
1788.00,0.0005
1787.00,0.0005
1786.00,0.0005
1785.00,0.0005
1784.00,0.0006
1783.00,0.0006
1782.00,0.0006
1781.00,0.0005
1780.00,0.0005
1779.00,0.0005
1778.00,0.0005
1777.00,0.0005
1776.00,0.0006
1775.00,0.0005
1774.00,0.0005
1773.00,0.0006
1772.00,0.0007
1771.00,0.0007
1770.00,0.0007
1769.00,0.0007
1768.00,0.0007
1767.00,0.0007
1766.00,0.0007
1765.00,0.0007
1764.00,0.0007
1763.00,0.0008
1762.00,0.0008
1761.00,0.0008
1760.00,0.0009
1759.00,0.0009
1758.00,0.0009
1757.00,0.0010
1756.00,0.0009
1755.00,0.0009
1754.00,0.0009
1753.00,0.0010
1752.00,0.0011
1751.00,0.0011
1750.00,0.0012
1749.00,0.0012
1748.00,0.0012
1747.00,0.0012
1746.00,0.0012
1745.00,0.0012
1744.00,0.0012
1743.00,0.0013
1742.00,0.0013
1741.00,0.0013
1740.00,0.0014
1739.00,0.0014
1738.00,0.0014
1737.00,0.0014
1736.00,0.0014
1735.00,0.0014
1734.00,0.0014
1733.00,0.0014
1732.00,0.0014
1731.00,0.0014
1730.00,0.0014
1729.00,0.0014
1728.00,0.0015
1727.00,0.0016
1726.00,0.0017
1725.00,0.0018
1724.00,0.0018
1723.00,0.0019
1722.00,0.0019
1721.00,0.0019
1720.00,0.0019
1719.00,0.0018
1718.00,0.0018
1717.00,0.0018
1716.00,0.0017
1715.00,0.0017
1714.00,0.0017
1713.00,0.0017
1712.00,0.0017
1711.00,0.0017
1710.00,0.0017
1709.00,0.0017
1708.00,0.0017
1707.00,0.0017
1706.00,0.0017
1705.00,0.0018
1704.00,0.0018
1703.00,0.0018
1702.00,0.0018
1701.00,0.0018
1700.00,0.0019
1699.00,0.0019
1698.00,0.0019
1697.00,0.0019
1696.00,0.0020
1695.00,0.0020
1694.00,0.0021
1693.00,0.0021
1692.00,0.0022
1691.00,0.0022
1690.00,0.0023
1689.00,0.0023
1688.00,0.0023
1687.00,0.0023
1686.00,0.0023
1685.00,0.0023
1684.00,0.0023
1683.00,0.0024
1682.00,0.0024
1681.00,0.0025
1680.00,0.0025
1679.00,0.0026
1678.00,0.0026
1677.00,0.0026
1676.00,0.0027
1675.00,0.0027
1674.00,0.0028
1673.00,0.0029
1672.00,0.0029
1671.00,0.0030
1670.00,0.0030
1669.00,0.0029
1668.00,0.0029
1667.00,0.0029
1666.00,0.0029
1665.00,0.0030
1664.00,0.0030
1663.00,0.0030
1662.00,0.0030
1661.00,0.0031
1660.00,0.0031
1659.00,0.0032
1658.00,0.0033
1657.00,0.0034
1656.00,0.0034
1655.00,0.0035
1654.00,0.0035
1653.00,0.0035
1652.00,0.0035
1651.00,0.0036
1650.00,0.0036
1649.00,0.0037
1648.00,0.0038
1647.00,0.0040
1646.00,0.0041
1645.00,0.0042
1644.00,0.0042
1643.00,0.0043
1642.00,0.0043
1641.00,0.0043
1640.00,0.0044
1639.00,0.0045
1638.00,0.0045
1637.00,0.0045
1636.00,0.0046
1635.00,0.0045
1634.00,0.0044
1633.00,0.0044
1632.00,0.0043
1631.00,0.0043
1630.00,0.0042
1629.00,0.0042
1628.00,0.0042
1627.00,0.0041
1626.00,0.0041
1625.00,0.0040
1624.00,0.0040
1623.00,0.0040
1622.00,0.0040
1621.00,0.0040
1620.00,0.0040
1619.00,0.0039
1618.00,0.0039
1617.00,0.0039
1616.00,0.0039
1615.00,0.0039
1614.00,0.0038
1613.00,0.0038
1612.00,0.0039
1611.00,0.0039
1610.00,0.0039
1609.00,0.0039
1608.00,0.0039
1607.00,0.0039
1606.00,0.0039
1605.00,0.0038
1604.00,0.0038
1603.00,0.0038
1602.00,0.0037
1601.00,0.0037
1600.00,0.0037
1599.00,0.0037
1598.00,0.0037
1597.00,0.0037
1596.00,0.0037
1595.00,0.0037
1594.00,0.0036
1593.00,0.0036
1592.00,0.0036
1591.00,0.0036
1590.00,0.0036
1589.00,0.0037
1588.00,0.0037
1587.00,0.0037
1586.00,0.0037
1585.00,0.0037
1584.00,0.0038
1583.00,0.0038
1582.00,0.0039
1581.00,0.0039
1580.00,0.0040
1579.00,0.0041
1578.00,0.0041
1577.00,0.0042
1576.00,0.0042
1575.00,0.0042
1574.00,0.0042
1573.00,0.0042
1572.00,0.0043
1571.00,0.0043
1570.00,0.0044
1569.00,0.0044
1568.00,0.0044
1567.00,0.0044
1566.00,0.0044
1565.00,0.0044
1564.00,0.0045
1563.00,0.0045
1562.00,0.0044
1561.00,0.0044
1560.00,0.0044
1559.00,0.0044
1558.00,0.0044
1557.00,0.0045
1556.00,0.0046
1555.00,0.0047
1554.00,0.0047
1553.00,0.0048
1552.00,0.0049
1551.00,0.0049
1550.00,0.0050
1549.00,0.0050
1548.00,0.0051
1547.00,0.0051
1546.00,0.0052
1545.00,0.0053
1544.00,0.0054
1543.00,0.0053
1542.00,0.0052
1541.00,0.0052
1540.00,0.0052
1539.00,0.0050
1538.00,0.0049
1537.00,0.0048
1536.00,0.0048
1535.00,0.0047
1534.00,0.0046
1533.00,0.0045
1532.00,0.0044
1531.00,0.0044
1530.00,0.0044
1529.00,0.0045
1528.00,0.0045
1527.00,0.0045
1526.00,0.0044
1525.00,0.0044
1524.00,0.0044
1523.00,0.0044
1522.00,0.0045
1521.00,0.0045
1520.00,0.0045
1519.00,0.0046
1518.00,0.0046
1517.00,0.0046
1516.00,0.0047
1515.00,0.0048
1514.00,0.0048
1513.00,0.0049
1512.00,0.0050
1511.00,0.0051
1510.00,0.0051
1509.00,0.0052
1508.00,0.0053
1507.00,0.0054
1506.00,0.0054
1505.00,0.0055
1504.00,0.0058
1503.00,0.0059
1502.00,0.0061
1501.00,0.0064
1500.00,0.0066
1499.00,0.0067
1498.00,0.0069
1497.00,0.0072
1496.00,0.0075
1495.00,0.0078
1494.00,0.0081
1493.00,0.0084
1492.00,0.0087
1491.00,0.0091
1490.00,0.0094
1489.00,0.0098
1488.00,0.0103
1487.00,0.0108
1486.00,0.0113
1485.00,0.0119
1484.00,0.0125
1483.00,0.0132
1482.00,0.0141
1481.00,0.0151
1480.00,0.0162
1479.00,0.0174
1478.00,0.0188
1477.00,0.0208
1476.00,0.0234
1475.00,0.0264
1474.00,0.0305
1473.00,0.0361
1472.00,0.0427
1471.00,0.0490
1470.00,0.0551
1469.00,0.0616
1468.00,0.0685
1467.00,0.0761
1466.00,0.0845
1465.00,0.0935
1464.00,0.1013
1463.00,0.1069
1462.00,0.1105
1461.00,0.1130
1460.00,0.1147
1459.00,0.1160
1458.00,0.1172
1457.00,0.1185
1456.00,0.1190
1455.00,0.1188
1454.00,0.1180
1453.00,0.1167
1452.00,0.1145
1451.00,0.1111
1450.00,0.1061
1449.00,0.0992
1448.00,0.0903
1447.00,0.0808
1446.00,0.0720
1445.00,0.0644
1444.00,0.0578
1443.00,0.0524
1442.00,0.0482
1441.00,0.0452
1440.00,0.0432
1439.00,0.0422
1438.00,0.0418
1437.00,0.0415
1436.00,0.0402
1435.00,0.0376
1434.00,0.0342
1433.00,0.0302
1432.00,0.0260
1431.00,0.0223
1430.00,0.0194
1429.00,0.0172
1428.00,0.0157
1427.00,0.0147
1426.00,0.0140
1425.00,0.0134
1424.00,0.0128
1423.00,0.0124
1422.00,0.0121
1421.00,0.0119
1420.00,0.0116
1419.00,0.0114
1418.00,0.0113
1417.00,0.0110
1416.00,0.0108
1415.00,0.0107
1414.00,0.0106
1413.00,0.0105
1412.00,0.0103
1411.00,0.0102
1410.00,0.0101
1409.00,0.0101
1408.00,0.0101
1407.00,0.0101
1406.00,0.0102
1405.00,0.0102
1404.00,0.0101
1403.00,0.0101
1402.00,0.0102
1401.00,0.0103
1400.00,0.0104
1399.00,0.0106
1398.00,0.0109
1397.00,0.0111
1396.00,0.0113
1395.00,0.0116
1394.00,0.0121
1393.00,0.0125
1392.00,0.0130
1391.00,0.0137
1390.00,0.0148
1389.00,0.0163
1388.00,0.0184
1387.00,0.0216
1386.00,0.0260
1385.00,0.0317
1384.00,0.0395
1383.00,0.0505
1382.00,0.0650
1381.00,0.0833
1380.00,0.1052
1379.00,0.1291
1378.00,0.1512
1377.00,0.1661
1376.00,0.1695
1375.00,0.1594
1374.00,0.1387
1373.00,0.1147
1372.00,0.0929
1371.00,0.0750
1370.00,0.0608
1369.00,0.0500
1368.00,0.0425
1367.00,0.0378
1366.00,0.0352
1365.00,0.0341
1364.00,0.0342
1363.00,0.0354
1362.00,0.0371
1361.00,0.0390
1360.00,0.0404
1359.00,0.0408
1358.00,0.0398
1357.00,0.0375
1356.00,0.0343
1355.00,0.0308
1354.00,0.0274
1353.00,0.0245
1352.00,0.0221
1351.00,0.0201
1350.00,0.0185
1349.00,0.0171
1348.00,0.0160
1347.00,0.0151
1346.00,0.0142
1345.00,0.0135
1344.00,0.0129
1343.00,0.0124
1342.00,0.0120
1341.00,0.0118
1340.00,0.0115
1339.00,0.0113
1338.00,0.0112
1337.00,0.0112
1336.00,0.0112
1335.00,0.0113
1334.00,0.0116
1333.00,0.0119
1332.00,0.0123
1331.00,0.0125
1330.00,0.0126
1329.00,0.0125
1328.00,0.0122
1327.00,0.0118
1326.00,0.0113
1325.00,0.0108
1324.00,0.0103
1323.00,0.0098
1322.00,0.0094
1321.00,0.0091
1320.00,0.0089
1319.00,0.0087
1318.00,0.0086
1317.00,0.0085
1316.00,0.0084
1315.00,0.0084
1314.00,0.0084
1313.00,0.0084
1312.00,0.0085
1311.00,0.0088
1310.00,0.0093
1309.00,0.0101
1308.00,0.0112
1307.00,0.0126
1306.00,0.0139
1305.00,0.0148
1304.00,0.0150
1303.00,0.0146
1302.00,0.0138
1301.00,0.0131
1300.00,0.0126
1299.00,0.0123
1298.00,0.0123
1297.00,0.0122
1296.00,0.0121
1295.00,0.0117
1294.00,0.0113
1293.00,0.0108
1292.00,0.0103
1291.00,0.0099
1290.00,0.0095
1289.00,0.0092
1288.00,0.0089
1287.00,0.0086
1286.00,0.0084
1285.00,0.0082
1284.00,0.0080
1283.00,0.0079
1282.00,0.0079
1281.00,0.0078
1280.00,0.0077
1279.00,0.0076
1278.00,0.0075
1277.00,0.0075
1276.00,0.0075
1275.00,0.0075
1274.00,0.0075
1273.00,0.0075
1272.00,0.0075
1271.00,0.0075
1270.00,0.0077
1269.00,0.0079
1268.00,0.0081
1267.00,0.0084
1266.00,0.0086
1265.00,0.0090
1264.00,0.0093
1263.00,0.0098
1262.00,0.0102
1261.00,0.0107
1260.00,0.0114
1259.00,0.0122
1258.00,0.0130
1257.00,0.0138
1256.00,0.0141
1255.00,0.0138
1254.00,0.0130
1253.00,0.0119
1252.00,0.0108
1251.00,0.0099
1250.00,0.0091
1249.00,0.0086
1248.00,0.0082
1247.00,0.0079
1246.00,0.0077
1245.00,0.0075
1244.00,0.0073
1243.00,0.0072
1242.00,0.0071
1241.00,0.0070
1240.00,0.0069
1239.00,0.0068
1238.00,0.0068
1237.00,0.0068
1236.00,0.0068
1235.00,0.0068
1234.00,0.0068
1233.00,0.0068
1232.00,0.0068
1231.00,0.0068
1230.00,0.0069
1229.00,0.0070
1228.00,0.0071
1227.00,0.0073
1226.00,0.0075
1225.00,0.0078
1224.00,0.0081
1223.00,0.0084
1222.00,0.0086
1221.00,0.0088
1220.00,0.0090
1219.00,0.0091
1218.00,0.0091
1217.00,0.0090
1216.00,0.0087
1215.00,0.0084
1214.00,0.0081
1213.00,0.0078
1212.00,0.0076
1211.00,0.0075
1210.00,0.0074
1209.00,0.0073
1208.00,0.0072
1207.00,0.0071
1206.00,0.0070
1205.00,0.0069
1204.00,0.0068
1203.00,0.0068
1202.00,0.0068
1201.00,0.0068
1200.00,0.0068
1199.00,0.0068
1198.00,0.0068
1197.00,0.0068
1196.00,0.0068
1195.00,0.0069
1194.00,0.0069
1193.00,0.0069
1192.00,0.0069
1191.00,0.0069
1190.00,0.0070
1189.00,0.0070
1188.00,0.0070
1187.00,0.0070
1186.00,0.0071
1185.00,0.0072
1184.00,0.0073
1183.00,0.0075
1182.00,0.0078
1181.00,0.0081
1180.00,0.0086
1179.00,0.0092
1178.00,0.0099
1177.00,0.0109
1176.00,0.0122
1175.00,0.0141
1174.00,0.0165
1173.00,0.0196
1172.00,0.0232
1171.00,0.0272
1170.00,0.0310
1169.00,0.0341
1168.00,0.0359
1167.00,0.0363
1166.00,0.0353
1165.00,0.0334
1164.00,0.0310
1163.00,0.0287
1162.00,0.0267
1161.00,0.0249
1160.00,0.0235
1159.00,0.0224
1158.00,0.0216
1157.00,0.0210
1156.00,0.0206
1155.00,0.0202
1154.00,0.0199
1153.00,0.0195
1152.00,0.0190
1151.00,0.0183
1150.00,0.0173
1149.00,0.0163
1148.00,0.0153
1147.00,0.0144
1146.00,0.0136
1145.00,0.0129
1144.00,0.0121
1143.00,0.0114
1142.00,0.0108
1141.00,0.0102
1140.00,0.0097
1139.00,0.0093
1138.00,0.0089
1137.00,0.0085
1136.00,0.0082
1135.00,0.0079
1134.00,0.0077
1133.00,0.0076
1132.00,0.0074
1131.00,0.0074
1130.00,0.0073
1129.00,0.0073
1128.00,0.0074
1127.00,0.0074
1126.00,0.0074
1125.00,0.0075
1124.00,0.0075
1123.00,0.0075
1122.00,0.0076
1121.00,0.0077
1120.00,0.0078
1119.00,0.0078
1118.00,0.0078
1117.00,0.0079
1116.00,0.0080
1115.00,0.0081
1114.00,0.0083
1113.00,0.0085
1112.00,0.0088
1111.00,0.0090
1110.00,0.0093
1109.00,0.0097
1108.00,0.0101
1107.00,0.0107
1106.00,0.0112
1105.00,0.0118
1104.00,0.0122
1103.00,0.0124
1102.00,0.0124
1101.00,0.0121
1100.00,0.0116
1099.00,0.0111
1098.00,0.0105
1097.00,0.0099
1096.00,0.0095
1095.00,0.0092
1094.00,0.0090
1093.00,0.0088
1092.00,0.0086
1091.00,0.0083
1090.00,0.0082
1089.00,0.0081
1088.00,0.0080
1087.00,0.0080
1086.00,0.0080
1085.00,0.0079
1084.00,0.0079
1083.00,0.0079
1082.00,0.0078
1081.00,0.0077
1080.00,0.0076
1079.00,0.0075
1078.00,0.0074
1077.00,0.0073
1076.00,0.0072
1075.00,0.0073
1074.00,0.0073
1073.00,0.0073
1072.00,0.0072
1071.00,0.0071
1070.00,0.0070
1069.00,0.0069
1068.00,0.0068
1067.00,0.0068
1066.00,0.0068
1065.00,0.0068
1064.00,0.0068
1063.00,0.0068
1062.00,0.0069
1061.00,0.0070
1060.00,0.0070
1059.00,0.0070
1058.00,0.0071
1057.00,0.0071
1056.00,0.0073
1055.00,0.0074
1054.00,0.0076
1053.00,0.0077
1052.00,0.0079
1051.00,0.0082
1050.00,0.0084
1049.00,0.0087
1048.00,0.0091
1047.00,0.0094
1046.00,0.0097
1045.00,0.0099
1044.00,0.0099
1043.00,0.0097
1042.00,0.0094
1041.00,0.0091
1040.00,0.0088
1039.00,0.0086
1038.00,0.0085
1037.00,0.0084
1036.00,0.0083
1035.00,0.0083
1034.00,0.0083
1033.00,0.0082
1032.00,0.0081
1031.00,0.0080
1030.00,0.0078
1029.00,0.0077
1028.00,0.0076
1027.00,0.0076
1026.00,0.0076
1025.00,0.0076
1024.00,0.0076
1023.00,0.0077
1022.00,0.0078
1021.00,0.0079
1020.00,0.0080
1019.00,0.0081
1018.00,0.0082
1017.00,0.0082
1016.00,0.0083
1015.00,0.0085
1014.00,0.0087
1013.00,0.0090
1012.00,0.0093
1011.00,0.0096
1010.00,0.0099
1009.00,0.0103
1008.00,0.0109
1007.00,0.0118
1006.00,0.0130
1005.00,0.0147
1004.00,0.0168
1003.00,0.0197
1002.00,0.0235
1001.00,0.0282
1000.00,0.0333
999.00,0.0379
998.00,0.0403
997.00,0.0399
996.00,0.0368
995.00,0.0321
994.00,0.0269
993.00,0.0224
992.00,0.0188
991.00,0.0161
990.00,0.0142
989.00,0.0129
988.00,0.0122
987.00,0.0119
986.00,0.0117
985.00,0.0118
984.00,0.0122
983.00,0.0129
982.00,0.0141
981.00,0.0159
980.00,0.0183
979.00,0.0216
978.00,0.0257
977.00,0.0308
976.00,0.0364
975.00,0.0419
974.00,0.0462
973.00,0.0481
972.00,0.0467
971.00,0.0422
970.00,0.0360
969.00,0.0296
968.00,0.0240
967.00,0.0198
966.00,0.0168
965.00,0.0147
964.00,0.0132
963.00,0.0121
962.00,0.0112
961.00,0.0105
960.00,0.0098
959.00,0.0093
958.00,0.0088
957.00,0.0085
956.00,0.0083
955.00,0.0082
954.00,0.0080
953.00,0.0078
952.00,0.0077
951.00,0.0076
950.00,0.0074
949.00,0.0073
948.00,0.0071
947.00,0.0070
946.00,0.0071
945.00,0.0073
944.00,0.0076
943.00,0.0081
942.00,0.0084
941.00,0.0086
940.00,0.0085
939.00,0.0084
938.00,0.0080
937.00,0.0076
936.00,0.0071
935.00,0.0067
934.00,0.0064
933.00,0.0063
932.00,0.0061
931.00,0.0060
930.00,0.0059
929.00,0.0058
928.00,0.0058
927.00,0.0058
926.00,0.0058
925.00,0.0058
924.00,0.0057
923.00,0.0057
922.00,0.0057
921.00,0.0057
920.00,0.0056
919.00,0.0057
918.00,0.0058
917.00,0.0059
916.00,0.0059
915.00,0.0060
914.00,0.0061
913.00,0.0063
912.00,0.0065
911.00,0.0067
910.00,0.0068
909.00,0.0070
908.00,0.0072
907.00,0.0076
906.00,0.0082
905.00,0.0091
904.00,0.0103
903.00,0.0118
902.00,0.0135
901.00,0.0150
900.00,0.0160
899.00,0.0162
898.00,0.0155
897.00,0.0141
896.00,0.0125
895.00,0.0109
894.00,0.0096
893.00,0.0088
892.00,0.0082
891.00,0.0077
890.00,0.0074
889.00,0.0072
888.00,0.0070
887.00,0.0069
886.00,0.0068
885.00,0.0067
884.00,0.0067
883.00,0.0068
882.00,0.0068
881.00,0.0069
880.00,0.0069
879.00,0.0070
878.00,0.0070
877.00,0.0071
876.00,0.0073
875.00,0.0075
874.00,0.0077
873.00,0.0078
872.00,0.0077
871.00,0.0075
870.00,0.0074
869.00,0.0075
868.00,0.0076
867.00,0.0077
866.00,0.0078
865.00,0.0078
864.00,0.0078
863.00,0.0078
862.00,0.0079
861.00,0.0081
860.00,0.0083
859.00,0.0085
858.00,0.0088
857.00,0.0090
856.00,0.0090
855.00,0.0091
854.00,0.0093
853.00,0.0096
852.00,0.0101
851.00,0.0107
850.00,0.0114
849.00,0.0122
848.00,0.0132
847.00,0.0148
846.00,0.0174
845.00,0.0215
844.00,0.0273
843.00,0.0342
842.00,0.0400
841.00,0.0421
840.00,0.0394
839.00,0.0333
838.00,0.0264
837.00,0.0208
836.00,0.0170
835.00,0.0147
834.00,0.0133
833.00,0.0123
832.00,0.0116
831.00,0.0112
830.00,0.0108
829.00,0.0105
828.00,0.0103
827.00,0.0101
826.00,0.0100
825.00,0.0099
824.00,0.0099
823.00,0.0099
822.00,0.0100
821.00,0.0101
820.00,0.0103
819.00,0.0105
818.00,0.0108
817.00,0.0113
816.00,0.0119
815.00,0.0129
814.00,0.0144
813.00,0.0161
812.00,0.0179
811.00,0.0195
810.00,0.0207
809.00,0.0212
808.00,0.0208
807.00,0.0197
806.00,0.0181
805.00,0.0163
804.00,0.0148
803.00,0.0137
802.00,0.0128
801.00,0.0122
800.00,0.0117
799.00,0.0112
798.00,0.0109
797.00,0.0106
796.00,0.0103
795.00,0.0101
794.00,0.0098
793.00,0.0094
792.00,0.0090
791.00,0.0085
790.00,0.0080
789.00,0.0077
788.00,0.0075
787.00,0.0074
786.00,0.0074
785.00,0.0072
784.00,0.0070
783.00,0.0067
782.00,0.0065
781.00,0.0063
780.00,0.0062
779.00,0.0062
778.00,0.0061
777.00,0.0060
776.00,0.0060
775.00,0.0061
774.00,0.0061
773.00,0.0062
772.00,0.0061
771.00,0.0060
770.00,0.0060
769.00,0.0061
768.00,0.0063
767.00,0.0064
766.00,0.0065
765.00,0.0065
764.00,0.0064
763.00,0.0062
762.00,0.0061
761.00,0.0061
760.00,0.0061
759.00,0.0061
758.00,0.0062
757.00,0.0062
756.00,0.0062
755.00,0.0063
754.00,0.0064
753.00,0.0065
752.00,0.0067
751.00,0.0069
750.00,0.0071
749.00,0.0073
748.00,0.0075
747.00,0.0077
746.00,0.0078
745.00,0.0079
744.00,0.0081
743.00,0.0083
742.00,0.0087
741.00,0.0090
740.00,0.0092
739.00,0.0095
738.00,0.0097
737.00,0.0100
736.00,0.0105
735.00,0.0110
734.00,0.0116
733.00,0.0121
732.00,0.0128
731.00,0.0135
730.00,0.0142
729.00,0.0147
728.00,0.0149
727.00,0.0150
726.00,0.0150
725.00,0.0152
724.00,0.0155
723.00,0.0160
722.00,0.0167
721.00,0.0172
720.00,0.0172
719.00,0.0165
718.00,0.0154
717.00,0.0142
716.00,0.0131
715.00,0.0122
714.00,0.0115
713.00,0.0111
712.00,0.0108
711.00,0.0106
710.00,0.0103
709.00,0.0100
708.00,0.0097
707.00,0.0096
706.00,0.0095
705.00,0.0094
704.00,0.0092
703.00,0.0089
702.00,0.0087
701.00,0.0086
700.00,0.0086
699.00,0.0086
698.00,0.0086
697.00,0.0086
696.00,0.0084
695.00,0.0082
694.00,0.0080
693.00,0.0079
692.00,0.0080
691.00,0.0081
690.00,0.0082
689.00,0.0082
688.00,0.0082
687.00,0.0082
686.00,0.0083
685.00,0.0085
684.00,0.0087
683.00,0.0086
682.00,0.0084
681.00,0.0082
680.00,0.0081
679.00,0.0079
678.00,0.0077
677.00,0.0075
676.00,0.0074
675.00,0.0074
674.00,0.0074
673.00,0.0075
672.00,0.0076
671.00,0.0078
670.00,0.0081
669.00,0.0086
668.00,0.0090
667.00,0.0091
666.00,0.0087
665.00,0.0083
664.00,0.0082
663.00,0.0082
662.00,0.0082
661.00,0.0081
660.00,0.0080
659.00,0.0078
658.00,0.0077
657.00,0.0075
656.00,0.0074
655.00,0.0074
654.00,0.0075
653.00,0.0076
652.00,0.0076
651.00,0.0075
650.00,0.0075
649.00,0.0076
648.00,0.0078
647.00,0.0079
646.00,0.0080
645.00,0.0079
644.00,0.0079
643.00,0.0078
642.00,0.0077
641.00,0.0076
640.00,0.0076
639.00,0.0077
638.00,0.0078
637.00,0.0080
636.00,0.0082
635.00,0.0083
634.00,0.0084
633.00,0.0083
632.00,0.0083
631.00,0.0082
630.00,0.0080
629.00,0.0078
628.00,0.0078
627.00,0.0079
626.00,0.0080
625.00,0.0083
624.00,0.0084
623.00,0.0085
622.00,0.0083
621.00,0.0081
620.00,0.0079
619.00,0.0077
618.00,0.0076
617.00,0.0075
616.00,0.0074
615.00,0.0074
614.00,0.0074
613.00,0.0074
612.00,0.0074
611.00,0.0074
610.00,0.0075
609.00,0.0076
608.00,0.0077
607.00,0.0076
606.00,0.0076
605.00,0.0076
604.00,0.0077
603.00,0.0078
602.00,0.0080
601.00,0.0080
600.00,0.0081
599.00,0.0081
598.00,0.0080
597.00,0.0078
596.00,0.0077
595.00,0.0077
594.00,0.0078
593.00,0.0077
592.00,0.0075
591.00,0.0073
590.00,0.0073
589.00,0.0074
588.00,0.0077
587.00,0.0078
586.00,0.0078
585.00,0.0076
584.00,0.0075
583.00,0.0074
582.00,0.0075
581.00,0.0078
580.00,0.0080
579.00,0.0081
578.00,0.0079
577.00,0.0078
576.00,0.0079
575.00,0.0082
574.00,0.0085
573.00,0.0086
572.00,0.0085
571.00,0.0083
570.00,0.0081
569.00,0.0080
568.00,0.0080
567.00,0.0081
566.00,0.0082
565.00,0.0084
564.00,0.0083
563.00,0.0080
562.00,0.0077
561.00,0.0075
560.00,0.0075
559.00,0.0078
558.00,0.0080
557.00,0.0080
556.00,0.0081
555.00,0.0082
554.00,0.0083
553.00,0.0085
552.00,0.0086
551.00,0.0086
550.00,0.0085
549.00,0.0083
548.00,0.0081
547.00,0.0079
546.00,0.0079
545.00,0.0077
544.00,0.0073
543.00,0.0069
542.00,0.0068
541.00,0.0071
540.00,0.0077
539.00,0.0082
538.00,0.0084
537.00,0.0085
536.00,0.0087
535.00,0.0090
534.00,0.0095
533.00,0.0099
532.00,0.0102
531.00,0.0102
530.00,0.0100
529.00,0.0097
528.00,0.0095
527.00,0.0094
526.00,0.0094
525.00,0.0095
524.00,0.0093
523.00,0.0088
522.00,0.0084
521.00,0.0080
520.00,0.0076
519.00,0.0074
518.00,0.0076
517.00,0.0084
516.00,0.0093
515.00,0.0100
514.00,0.0100
513.00,0.0095
512.00,0.0088
511.00,0.0082
510.00,0.0081
509.00,0.0084
508.00,0.0086
507.00,0.0086
506.00,0.0084
505.00,0.0084
504.00,0.0086
503.00,0.0086
502.00,0.0083
501.00,0.0076
500.00,0.0069
499.00,0.0062
498.00,0.0057
497.00,0.0056
496.00,0.0060
495.00,0.0066
494.00,0.0071
493.00,0.0072
492.00,0.0072
491.00,0.0069
490.00,0.0065
489.00,0.0061
488.00,0.0058
487.00,0.0059
486.00,0.0064
485.00,0.0073
484.00,0.0080
483.00,0.0085
482.00,0.0087
481.00,0.0087
480.00,0.0087
479.00,0.0084
478.00,0.0078
477.00,0.0073
476.00,0.0069
475.00,0.0067
474.00,0.0065
473.00,0.0063
472.00,0.0065
471.00,0.0071
470.00,0.0080
469.00,0.0089
468.00,0.0101
467.00,0.0114
466.00,0.0121
465.00,0.0120
464.00,0.0115
463.00,0.0114
462.00,0.0119
461.00,0.0128
460.00,0.0136
459.00,0.0141
458.00,0.0143
457.00,0.0142
456.00,0.0138
455.00,0.0134
454.00,0.0134
453.00,0.0136
452.00,0.0135
451.00,0.0129
450.00,0.0120
