Created as New Dataset,Sample 213 By Administrator Date Wednesday, September 03 2025
cm-1,A
4000.00,0.0008
3999.00,0.0008
3998.00,0.0008
3997.00,0.0008
3996.00,0.0009
3995.00,0.0009
3994.00,0.0009
3993.00,0.0009
3992.00,0.0009
3991.00,0.0009
3990.00,0.0008
3989.00,0.0008
3988.00,0.0008
3987.00,0.0008
3986.00,0.0008
3985.00,0.0008
3984.00,0.0007
3983.00,0.0007
3982.00,0.0007
3981.00,0.0007
3980.00,0.0007
3979.00,0.0007
3978.00,0.0007
3977.00,0.0007
3976.00,0.0007
3975.00,0.0007
3974.00,0.0007
3973.00,0.0007
3972.00,0.0007
3971.00,0.0007
3970.00,0.0007
3969.00,0.0006
3968.00,0.0006
3967.00,0.0006
3966.00,0.0007
3965.00,0.0007
3964.00,0.0007
3963.00,0.0007
3962.00,0.0007
3961.00,0.0007
3960.00,0.0007
3959.00,0.0006
3958.00,0.0006
3957.00,0.0006
3956.00,0.0006
3955.00,0.0006
3954.00,0.0006
3953.00,0.0006
3952.00,0.0006
3951.00,0.0006
3950.00,0.0006
3949.00,0.0006
3948.00,0.0006
3947.00,0.0006
3946.00,0.0006
3945.00,0.0006
3944.00,0.0006
3943.00,0.0006
3942.00,0.0006
3941.00,0.0006
3940.00,0.0006
3939.00,0.0007
3938.00,0.0007
3937.00,0.0007
3936.00,0.0007
3935.00,0.0007
3934.00,0.0007
3933.00,0.0007
3932.00,0.0008
3931.00,0.0008
3930.00,0.0008
3929.00,0.0008
3928.00,0.0008
3927.00,0.0008
3926.00,0.0008
3925.00,0.0008
3924.00,0.0008
3923.00,0.0007
3922.00,0.0007
3921.00,0.0007
3920.00,0.0007
3919.00,0.0007
3918.00,0.0008
3917.00,0.0007
3916.00,0.0007
3915.00,0.0007
3914.00,0.0007
3913.00,0.0007
3912.00,0.0007
3911.00,0.0007
3910.00,0.0007
3909.00,0.0007
3908.00,0.0007
3907.00,0.0007
3906.00,0.0008
3905.00,0.0008
3904.00,0.0008
3903.00,0.0008
3902.00,0.0009
3901.00,0.0009
3900.00,0.0009
3899.00,0.0008
3898.00,0.0008
3897.00,0.0008
3896.00,0.0007
3895.00,0.0007
3894.00,0.0007
3893.00,0.0007
3892.00,0.0007
3891.00,0.0007
3890.00,0.0007
3889.00,0.0006
3888.00,0.0006
3887.00,0.0006
3886.00,0.0006
3885.00,0.0006
3884.00,0.0007
3883.00,0.0006
3882.00,0.0006
3881.00,0.0006
3880.00,0.0006
3879.00,0.0007
3878.00,0.0007
3877.00,0.0006
3876.00,0.0006
3875.00,0.0006
3874.00,0.0006
3873.00,0.0007
3872.00,0.0007
3871.00,0.0007
3870.00,0.0007
3869.00,0.0007
3868.00,0.0007
3867.00,0.0007
3866.00,0.0007
3865.00,0.0007
3864.00,0.0007
3863.00,0.0007
3862.00,0.0007
3861.00,0.0007
3860.00,0.0007
3859.00,0.0007
3858.00,0.0007
3857.00,0.0007
3856.00,0.0007
3855.00,0.0007
3854.00,0.0007
3853.00,0.0007
3852.00,0.0007
3851.00,0.0007
3850.00,0.0007
3849.00,0.0007
3848.00,0.0007
3847.00,0.0006
3846.00,0.0006
3845.00,0.0006
3844.00,0.0006
3843.00,0.0006
3842.00,0.0006
3841.00,0.0006
3840.00,0.0006
3839.00,0.0006
3838.00,0.0006
3837.00,0.0006
3836.00,0.0006
3835.00,0.0006
3834.00,0.0006
3833.00,0.0006
3832.00,0.0006
3831.00,0.0006
3830.00,0.0006
3829.00,0.0006
3828.00,0.0006
3827.00,0.0006
3826.00,0.0006
3825.00,0.0006
3824.00,0.0006
3823.00,0.0006
3822.00,0.0006
3821.00,0.0006
3820.00,0.0007
3819.00,0.0007
3818.00,0.0006
3817.00,0.0006
3816.00,0.0006
3815.00,0.0006
3814.00,0.0006
3813.00,0.0006
3812.00,0.0006
3811.00,0.0006
3810.00,0.0006
3809.00,0.0006
3808.00,0.0007
3807.00,0.0007
3806.00,0.0007
3805.00,0.0007
3804.00,0.0006
3803.00,0.0005
3802.00,0.0005
3801.00,0.0006
3800.00,0.0006
3799.00,0.0006
3798.00,0.0006
3797.00,0.0005
3796.00,0.0005
3795.00,0.0005
3794.00,0.0005
3793.00,0.0006
3792.00,0.0006
3791.00,0.0006
3790.00,0.0006
3789.00,0.0006
3788.00,0.0006
3787.00,0.0006
3786.00,0.0006
3785.00,0.0006
3784.00,0.0006
3783.00,0.0006
3782.00,0.0006
3781.00,0.0006
3780.00,0.0006
3779.00,0.0006
3778.00,0.0006
3777.00,0.0006
3776.00,0.0006
3775.00,0.0006
3774.00,0.0007
3773.00,0.0007
3772.00,0.0007
3771.00,0.0007
3770.00,0.0007
3769.00,0.0007
3768.00,0.0007
3767.00,0.0007
3766.00,0.0007
3765.00,0.0007
3764.00,0.0007
3763.00,0.0007
3762.00,0.0007
3761.00,0.0007
3760.00,0.0007
3759.00,0.0007
3758.00,0.0007
3757.00,0.0007
3756.00,0.0007
3755.00,0.0007
3754.00,0.0008
3753.00,0.0008
3752.00,0.0008
3751.00,0.0008
3750.00,0.0008
3749.00,0.0008
3748.00,0.0008
3747.00,0.0007
3746.00,0.0007
3745.00,0.0007
3744.00,0.0007
3743.00,0.0007
3742.00,0.0007
3741.00,0.0007
3740.00,0.0007
3739.00,0.0007
3738.00,0.0007
3737.00,0.0007
3736.00,0.0007
3735.00,0.0007
3734.00,0.0006
3733.00,0.0006
3732.00,0.0007
3731.00,0.0007
3730.00,0.0007
3729.00,0.0007
3728.00,0.0007
3727.00,0.0007
3726.00,0.0007
3725.00,0.0007
3724.00,0.0006
3723.00,0.0006
3722.00,0.0005
3721.00,0.0005
3720.00,0.0005
3719.00,0.0005
3718.00,0.0005
3717.00,0.0006
3716.00,0.0006
3715.00,0.0006
3714.00,0.0006
3713.00,0.0007
3712.00,0.0007
3711.00,0.0007
3710.00,0.0006
3709.00,0.0006
3708.00,0.0005
3707.00,0.0005
3706.00,0.0004
3705.00,0.0004
3704.00,0.0004
3703.00,0.0004
3702.00,0.0005
3701.00,0.0005
3700.00,0.0006
3699.00,0.0006
3698.00,0.0005
3697.00,0.0005
3696.00,0.0005
3695.00,0.0005
3694.00,0.0005
3693.00,0.0005
3692.00,0.0004
3691.00,0.0004
3690.00,0.0004
3689.00,0.0005
3688.00,0.0005
3687.00,0.0006
3686.00,0.0006
3685.00,0.0006
3684.00,0.0006
3683.00,0.0006
3682.00,0.0006
3681.00,0.0006
3680.00,0.0006
3679.00,0.0006
3678.00,0.0007
3677.00,0.0007
3676.00,0.0006
3675.00,0.0006
3674.00,0.0007
3673.00,0.0006
3672.00,0.0006
3671.00,0.0006
3670.00,0.0006
3669.00,0.0006
3668.00,0.0006
3667.00,0.0006
3666.00,0.0006
3665.00,0.0006
3664.00,0.0006
3663.00,0.0006
3662.00,0.0006
3661.00,0.0006
3660.00,0.0006
3659.00,0.0006
3658.00,0.0006
3657.00,0.0005
3656.00,0.0005
3655.00,0.0005
3654.00,0.0005
3653.00,0.0006
3652.00,0.0006
3651.00,0.0006
3650.00,0.0007
3649.00,0.0007
3648.00,0.0006
3647.00,0.0006
3646.00,0.0006
3645.00,0.0006
3644.00,0.0006
3643.00,0.0006
3642.00,0.0006
3641.00,0.0006
3640.00,0.0006
3639.00,0.0006
3638.00,0.0006
3637.00,0.0006
3636.00,0.0006
3635.00,0.0006
3634.00,0.0006
3633.00,0.0006
3632.00,0.0007
3631.00,0.0007
3630.00,0.0006
3629.00,0.0006
3628.00,0.0006
3627.00,0.0006
3626.00,0.0006
3625.00,0.0006
3624.00,0.0006
3623.00,0.0007
3622.00,0.0008
3621.00,0.0008
3620.00,0.0008
3619.00,0.0008
3618.00,0.0008
3617.00,0.0008
3616.00,0.0008
3615.00,0.0009
3614.00,0.0009
3613.00,0.0010
3612.00,0.0011
3611.00,0.0011
3610.00,0.0011
3609.00,0.0010
3608.00,0.0010
3607.00,0.0009
3606.00,0.0009
3605.00,0.0009
3604.00,0.0009
3603.00,0.0009
3602.00,0.0009
3601.00,0.0009
3600.00,0.0009
3599.00,0.0009
3598.00,0.0009
3597.00,0.0009
3596.00,0.0009
3595.00,0.0009
3594.00,0.0010
3593.00,0.0010
3592.00,0.0011
3591.00,0.0011
3590.00,0.0011
3589.00,0.0011
3588.00,0.0011
3587.00,0.0011
3586.00,0.0011
3585.00,0.0011
3584.00,0.0011
3583.00,0.0011
3582.00,0.0011
3581.00,0.0011
3580.00,0.0011
3579.00,0.0011
3578.00,0.0011
3577.00,0.0012
3576.00,0.0012
3575.00,0.0012
3574.00,0.0013
3573.00,0.0013
3572.00,0.0013
3571.00,0.0013
3570.00,0.0014
3569.00,0.0014
3568.00,0.0014
3567.00,0.0014
3566.00,0.0014
3565.00,0.0014
3564.00,0.0015
3563.00,0.0015
3562.00,0.0015
3561.00,0.0015
3560.00,0.0015
3559.00,0.0015
3558.00,0.0015
3557.00,0.0016
3556.00,0.0016
3555.00,0.0016
3554.00,0.0017
3553.00,0.0017
3552.00,0.0017
3551.00,0.0017
3550.00,0.0017
3549.00,0.0018
3548.00,0.0018
3547.00,0.0018
3546.00,0.0019
3545.00,0.0018
3544.00,0.0018
3543.00,0.0019
3542.00,0.0019
3541.00,0.0019
3540.00,0.0019
3539.00,0.0019
3538.00,0.0019
3537.00,0.0019
3536.00,0.0019
3535.00,0.0020
3534.00,0.0020
3533.00,0.0021
3532.00,0.0021
3531.00,0.0022
3530.00,0.0022
3529.00,0.0022
3528.00,0.0022
3527.00,0.0023
3526.00,0.0023
3525.00,0.0023
3524.00,0.0022
3523.00,0.0022
3522.00,0.0022
3521.00,0.0022
3520.00,0.0022
3519.00,0.0022
3518.00,0.0023
3517.00,0.0023
3516.00,0.0023
3515.00,0.0023
3514.00,0.0024
3513.00,0.0024
3512.00,0.0024
3511.00,0.0025
3510.00,0.0025
3509.00,0.0025
3508.00,0.0025
3507.00,0.0025
3506.00,0.0026
3505.00,0.0026
3504.00,0.0026
3503.00,0.0026
3502.00,0.0026
3501.00,0.0027
3500.00,0.0027
3499.00,0.0027
3498.00,0.0028
3497.00,0.0028
3496.00,0.0028
3495.00,0.0028
3494.00,0.0028
3493.00,0.0028
3492.00,0.0028
3491.00,0.0029
3490.00,0.0029
3489.00,0.0029
3488.00,0.0029
3487.00,0.0029
3486.00,0.0029
3485.00,0.0029
3484.00,0.0030
3483.00,0.0031
3482.00,0.0032
3481.00,0.0032
3480.00,0.0033
3479.00,0.0032
3478.00,0.0032
3477.00,0.0032
3476.00,0.0031
3475.00,0.0031
3474.00,0.0032
3473.00,0.0032
3472.00,0.0033
3471.00,0.0033
3470.00,0.0033
3469.00,0.0033
3468.00,0.0033
3467.00,0.0033
3466.00,0.0033
3465.00,0.0034
3464.00,0.0035
3463.00,0.0035
3462.00,0.0036
3461.00,0.0036
3460.00,0.0036
3459.00,0.0036
3458.00,0.0036
3457.00,0.0036
3456.00,0.0036
3455.00,0.0036
3454.00,0.0036
3453.00,0.0037
3452.00,0.0037
3451.00,0.0036
3450.00,0.0036
3449.00,0.0036
3448.00,0.0036
3447.00,0.0037
3446.00,0.0037
3445.00,0.0037
3444.00,0.0038
3443.00,0.0038
3442.00,0.0038
3441.00,0.0039
3440.00,0.0039
3439.00,0.0039
3438.00,0.0040
3437.00,0.0040
3436.00,0.0040
3435.00,0.0040
3434.00,0.0040
3433.00,0.0040
3432.00,0.0040
3431.00,0.0040
3430.00,0.0040
3429.00,0.0039
3428.00,0.0039
3427.00,0.0040
3426.00,0.0040
3425.00,0.0041
3424.00,0.0041
3423.00,0.0042
3422.00,0.0041
3421.00,0.0041
3420.00,0.0042
3419.00,0.0042
3418.00,0.0042
3417.00,0.0042
3416.00,0.0043
3415.00,0.0043
3414.00,0.0043
3413.00,0.0043
3412.00,0.0043
3411.00,0.0043
3410.00,0.0044
3409.00,0.0044
3408.00,0.0044
3407.00,0.0044
3406.00,0.0044
3405.00,0.0044
3404.00,0.0044
3403.00,0.0044
3402.00,0.0045
3401.00,0.0045
3400.00,0.0046
3399.00,0.0046
3398.00,0.0046
3397.00,0.0046
3396.00,0.0046
3395.00,0.0045
3394.00,0.0045
3393.00,0.0045
3392.00,0.0045
3391.00,0.0045
3390.00,0.0046
3389.00,0.0046
3388.00,0.0046
3387.00,0.0046
3386.00,0.0046
3385.00,0.0046
3384.00,0.0046
3383.00,0.0045
3382.00,0.0045
3381.00,0.0045
3380.00,0.0045
3379.00,0.0045
3378.00,0.0045
3377.00,0.0045
3376.00,0.0045
3375.00,0.0045
3374.00,0.0044
3373.00,0.0044
3372.00,0.0044
3371.00,0.0044
3370.00,0.0044
3369.00,0.0044
3368.00,0.0045
3367.00,0.0045
3366.00,0.0045
3365.00,0.0045
3364.00,0.0045
3363.00,0.0045
3362.00,0.0045
3361.00,0.0045
3360.00,0.0045
3359.00,0.0045
3358.00,0.0045
3357.00,0.0045
3356.00,0.0044
3355.00,0.0044
3354.00,0.0044
3353.00,0.0044
3352.00,0.0044
3351.00,0.0044
3350.00,0.0044
3349.00,0.0044
3348.00,0.0044
3347.00,0.0044
3346.00,0.0044
3345.00,0.0044
3344.00,0.0044
3343.00,0.0044
3342.00,0.0044
3341.00,0.0044
3340.00,0.0044
3339.00,0.0044
3338.00,0.0044
3337.00,0.0044
3336.00,0.0044
3335.00,0.0044
3334.00,0.0044
3333.00,0.0043
3332.00,0.0043
3331.00,0.0043
3330.00,0.0042
3329.00,0.0042
3328.00,0.0042
3327.00,0.0042
3326.00,0.0042
3325.00,0.0042
3324.00,0.0042
3323.00,0.0041
3322.00,0.0041
3321.00,0.0041
3320.00,0.0041
3319.00,0.0041
3318.00,0.0041
3317.00,0.0041
3316.00,0.0041
3315.00,0.0041
3314.00,0.0041
3313.00,0.0041
3312.00,0.0041
3311.00,0.0041
3310.00,0.0042
3309.00,0.0042
3308.00,0.0043
3307.00,0.0043
3306.00,0.0043
3305.00,0.0043
3304.00,0.0042
3303.00,0.0042
3302.00,0.0042
3301.00,0.0042
3300.00,0.0042
3299.00,0.0042
3298.00,0.0041
3297.00,0.0041
3296.00,0.0040
3295.00,0.0040
3294.00,0.0040
3293.00,0.0040
3292.00,0.0040
3291.00,0.0040
3290.00,0.0040
3289.00,0.0040
3288.00,0.0040
3287.00,0.0039
3286.00,0.0039
3285.00,0.0039
3284.00,0.0039
3283.00,0.0039
3282.00,0.0039
3281.00,0.0039
3280.00,0.0038
3279.00,0.0038
3278.00,0.0038
3277.00,0.0037
3276.00,0.0037
3275.00,0.0036
3274.00,0.0036
3273.00,0.0036
3272.00,0.0036
3271.00,0.0036
3270.00,0.0036
3269.00,0.0036
3268.00,0.0036
3267.00,0.0037
3266.00,0.0036
3265.00,0.0036
3264.00,0.0036
3263.00,0.0035
3262.00,0.0035
3261.00,0.0035
3260.00,0.0035
3259.00,0.0034
3258.00,0.0034
3257.00,0.0034
3256.00,0.0034
3255.00,0.0034
3254.00,0.0034
3253.00,0.0034
3252.00,0.0034
3251.00,0.0034
3250.00,0.0034
3249.00,0.0034
3248.00,0.0034
3247.00,0.0033
3246.00,0.0033
3245.00,0.0033
3244.00,0.0033
3243.00,0.0033
3242.00,0.0032
3241.00,0.0032
3240.00,0.0032
3239.00,0.0032
3238.00,0.0033
3237.00,0.0033
3236.00,0.0033
3235.00,0.0034
3234.00,0.0034
3233.00,0.0033
3232.00,0.0033
3231.00,0.0033
3230.00,0.0034
3229.00,0.0034
3228.00,0.0034
3227.00,0.0034
3226.00,0.0034
3225.00,0.0034
3224.00,0.0034
3223.00,0.0035
3222.00,0.0035
3221.00,0.0035
3220.00,0.0035
3219.00,0.0035
3218.00,0.0035
3217.00,0.0035
3216.00,0.0036
3215.00,0.0036
3214.00,0.0037
3213.00,0.0037
3212.00,0.0037
3211.00,0.0038
3210.00,0.0038
3209.00,0.0038
3208.00,0.0038
3207.00,0.0038
3206.00,0.0038
3205.00,0.0038
3204.00,0.0038
3203.00,0.0038
3202.00,0.0038
3201.00,0.0038
3200.00,0.0037
3199.00,0.0037
3198.00,0.0037
3197.00,0.0037
3196.00,0.0037
3195.00,0.0037
3194.00,0.0037
3193.00,0.0038
3192.00,0.0038
3191.00,0.0037
3190.00,0.0037
3189.00,0.0036
3188.00,0.0036
3187.00,0.0036
3186.00,0.0037
3185.00,0.0037
3184.00,0.0037
3183.00,0.0037
3182.00,0.0036
3181.00,0.0036
3180.00,0.0036
3179.00,0.0035
3178.00,0.0035
3177.00,0.0035
3176.00,0.0035
3175.00,0.0035
3174.00,0.0035
3173.00,0.0035
3172.00,0.0034
3171.00,0.0034
3170.00,0.0034
3169.00,0.0034
3168.00,0.0033
3167.00,0.0033
3166.00,0.0033
3165.00,0.0033
3164.00,0.0034
3163.00,0.0034
3162.00,0.0034
3161.00,0.0034
3160.00,0.0033
3159.00,0.0033
3158.00,0.0033
3157.00,0.0032
3156.00,0.0032
3155.00,0.0032
3154.00,0.0032
3153.00,0.0032
3152.00,0.0032
3151.00,0.0032
3150.00,0.0032
3149.00,0.0033
3148.00,0.0033
3147.00,0.0033
3146.00,0.0033
3145.00,0.0033
3144.00,0.0032
3143.00,0.0032
3142.00,0.0031
3141.00,0.0031
3140.00,0.0031
3139.00,0.0031
3138.00,0.0032
3137.00,0.0031
3136.00,0.0031
3135.00,0.0030
3134.00,0.0030
3133.00,0.0030
3132.00,0.0030
3131.00,0.0030
3130.00,0.0030
3129.00,0.0030
3128.00,0.0029
3127.00,0.0029
3126.00,0.0029
3125.00,0.0028
3124.00,0.0028
3123.00,0.0028
3122.00,0.0028
3121.00,0.0027
3120.00,0.0027
3119.00,0.0027
3118.00,0.0027
3117.00,0.0027
3116.00,0.0027
3115.00,0.0027
3114.00,0.0027
3113.00,0.0026
3112.00,0.0026
3111.00,0.0026
3110.00,0.0026
3109.00,0.0026
3108.00,0.0026
3107.00,0.0026
3106.00,0.0026
3105.00,0.0026
3104.00,0.0026
3103.00,0.0026
3102.00,0.0026
3101.00,0.0026
3100.00,0.0026
3099.00,0.0026
3098.00,0.0026
3097.00,0.0026
3096.00,0.0026
3095.00,0.0026
3094.00,0.0026
3093.00,0.0026
3092.00,0.0026
3091.00,0.0026
3090.00,0.0025
3089.00,0.0025
3088.00,0.0024
3087.00,0.0024
3086.00,0.0024
3085.00,0.0025
3084.00,0.0025
3083.00,0.0025
3082.00,0.0025
3081.00,0.0026
3080.00,0.0026
3079.00,0.0026
3078.00,0.0026
3077.00,0.0026
3076.00,0.0026
3075.00,0.0026
3074.00,0.0026
3073.00,0.0026
3072.00,0.0026
3071.00,0.0026
3070.00,0.0026
3069.00,0.0026
3068.00,0.0027
3067.00,0.0027
3066.00,0.0027
3065.00,0.0027
3064.00,0.0027
3063.00,0.0028
3062.00,0.0028
3061.00,0.0028
3060.00,0.0028
3059.00,0.0028
3058.00,0.0028
3057.00,0.0028
3056.00,0.0028
3055.00,0.0028
3054.00,0.0028
3053.00,0.0029
3052.00,0.0029
3051.00,0.0029
3050.00,0.0029
3049.00,0.0030
3048.00,0.0030
3047.00,0.0030
3046.00,0.0030
3045.00,0.0030
3044.00,0.0031
3043.00,0.0032
3042.00,0.0032
3041.00,0.0033
3040.00,0.0033
3039.00,0.0033
3038.00,0.0033
3037.00,0.0033
3036.00,0.0034
3035.00,0.0034
3034.00,0.0034
3033.00,0.0034
3032.00,0.0035
3031.00,0.0035
3030.00,0.0036
3029.00,0.0036
3028.00,0.0036
3027.00,0.0037
3026.00,0.0037
3025.00,0.0038
3024.00,0.0038
3023.00,0.0039
3022.00,0.0040
3021.00,0.0041
3020.00,0.0042
3019.00,0.0043
3018.00,0.0044
3017.00,0.0044
3016.00,0.0045
3015.00,0.0046
3014.00,0.0046
3013.00,0.0047
3012.00,0.0049
3011.00,0.0050
3010.00,0.0052
3009.00,0.0053
3008.00,0.0054
3007.00,0.0056
3006.00,0.0057
3005.00,0.0059
3004.00,0.0060
3003.00,0.0062
3002.00,0.0065
3001.00,0.0067
3000.00,0.0069
2999.00,0.0072
2998.00,0.0074
2997.00,0.0077
2996.00,0.0081
2995.00,0.0085
2994.00,0.0089
2993.00,0.0094
2992.00,0.0098
2991.00,0.0104
2990.00,0.0110
2989.00,0.0117
2988.00,0.0124
2987.00,0.0132
2986.00,0.0141
2985.00,0.0151
2984.00,0.0162
2983.00,0.0174
2982.00,0.0188
2981.00,0.0204
2980.00,0.0223
2979.00,0.0244
2978.00,0.0268
2977.00,0.0294
2976.00,0.0325
2975.00,0.0359
2974.00,0.0398
2973.00,0.0443
2972.00,0.0493
2971.00,0.0550
2970.00,0.0612
2969.00,0.0680
2968.00,0.0753
2967.00,0.0830
2966.00,0.0909
2965.00,0.0988
2964.00,0.1063
2963.00,0.1132
2962.00,0.1191
2961.00,0.1240
2960.00,0.1282
2959.00,0.1321
2958.00,0.1363
2957.00,0.1413
2956.00,0.1476
2955.00,0.1552
2954.00,0.1640
2953.00,0.1731
2952.00,0.1815
2951.00,0.1877
2950.00,0.1905
2949.00,0.1890
2948.00,0.1831
2947.00,0.1734
2946.00,0.1612
2945.00,0.1481
2944.00,0.1356
2943.00,0.1248
2942.00,0.1164
2941.00,0.1106
2940.00,0.1073
2939.00,0.1064
2938.00,0.1075
2937.00,0.1105
2936.00,0.1152
2935.00,0.1214
2934.00,0.1291
2933.00,0.1381
2932.00,0.1483
2931.00,0.1595
2930.00,0.1715
2929.00,0.1839
2928.00,0.1965
2927.00,0.2090
2926.00,0.2213
2925.00,0.2333
2924.00,0.2452
2923.00,0.2571
2922.00,0.2691
2921.00,0.2807
2920.00,0.2913
2919.00,0.2995
2918.00,0.3040
2917.00,0.3038
2916.00,0.2986
2915.00,0.2892
2914.00,0.2770
2913.00,0.2635
2912.00,0.2502
2911.00,0.2378
2910.00,0.2267
2909.00,0.2168
2908.00,0.2078
2907.00,0.1994
2906.00,0.1913
2905.00,0.1835
2904.00,0.1758
2903.00,0.1683
2902.00,0.1611
2901.00,0.1541
2900.00,0.1475
2899.00,0.1412
2898.00,0.1354
2897.00,0.1301
2896.00,0.1253
2895.00,0.1211
2894.00,0.1176
2893.00,0.1147
2892.00,0.1125
2891.00,0.1108
2890.00,0.1097
2889.00,0.1090
2888.00,0.1088
2887.00,0.1088
2886.00,0.1092
2885.00,0.1100
2884.00,0.1112
2883.00,0.1130
2882.00,0.1152
2881.00,0.1177
2880.00,0.1203
2879.00,0.1226
2878.00,0.1241
2877.00,0.1246
2876.00,0.1243
2875.00,0.1236
2874.00,0.1229
2873.00,0.1229
2872.00,0.1236
2871.00,0.1252
2870.00,0.1272
2869.00,0.1293
2868.00,0.1306
2867.00,0.1304
2866.00,0.1279
2865.00,0.1230
2864.00,0.1161
2863.00,0.1080
2862.00,0.1000
2861.00,0.0929
2860.00,0.0874
2859.00,0.0836
2858.00,0.0814
2857.00,0.0806
2856.00,0.0810
2855.00,0.0822
2854.00,0.0841
2853.00,0.0864
2852.00,0.0888
2851.00,0.0909
2850.00,0.0923
2849.00,0.0932
2848.00,0.0938
2847.00,0.0945
2846.00,0.0961
2845.00,0.0987
2844.00,0.1025
2843.00,0.1071
2842.00,0.1121
2841.00,0.1168
2840.00,0.1205
2839.00,0.1223
2838.00,0.1216
2837.00,0.1179
2836.00,0.1114
2835.00,0.1025
2834.00,0.0922
2833.00,0.0815
2832.00,0.0713
2831.00,0.0623
2830.00,0.0547
2829.00,0.0484
2828.00,0.0434
2827.00,0.0392
2826.00,0.0359
2825.00,0.0331
2824.00,0.0308
2823.00,0.0289
2822.00,0.0272
2821.00,0.0258
2820.00,0.0245
2819.00,0.0234
2818.00,0.0224
2817.00,0.0216
2816.00,0.0208
2815.00,0.0201
2814.00,0.0195
2813.00,0.0189
2812.00,0.0184
2811.00,0.0178
2810.00,0.0172
2809.00,0.0166
2808.00,0.0160
2807.00,0.0153
2806.00,0.0147
2805.00,0.0140
2804.00,0.0134
2803.00,0.0128
2802.00,0.0123
2801.00,0.0118
2800.00,0.0114
2799.00,0.0111
2798.00,0.0108
2797.00,0.0106
2796.00,0.0103
2795.00,0.0101
2794.00,0.0098
2793.00,0.0095
2792.00,0.0093
2791.00,0.0090
2790.00,0.0087
2789.00,0.0084
2788.00,0.0081
2787.00,0.0079
2786.00,0.0076
2785.00,0.0074
2784.00,0.0071
2783.00,0.0069
2782.00,0.0067
2781.00,0.0065
2780.00,0.0063
2779.00,0.0061
2778.00,0.0060
2777.00,0.0059
2776.00,0.0058
2775.00,0.0057
2774.00,0.0056
2773.00,0.0056
2772.00,0.0055
2771.00,0.0054
2770.00,0.0054
2769.00,0.0053
2768.00,0.0053
2767.00,0.0053
2766.00,0.0053
2765.00,0.0053
2764.00,0.0052
2763.00,0.0052
2762.00,0.0051
2761.00,0.0051
2760.00,0.0051
2759.00,0.0051
2758.00,0.0050
2757.00,0.0050
2756.00,0.0049
2755.00,0.0049
2754.00,0.0049
2753.00,0.0049
2752.00,0.0049
2751.00,0.0050
2750.00,0.0050
2749.00,0.0050
2748.00,0.0050
2747.00,0.0050
2746.00,0.0050
2745.00,0.0051
2744.00,0.0051
2743.00,0.0052
2742.00,0.0053
2741.00,0.0054
2740.00,0.0055
2739.00,0.0056
2738.00,0.0057
2737.00,0.0058
2736.00,0.0060
2735.00,0.0061
2734.00,0.0063
2733.00,0.0065
2732.00,0.0067
2731.00,0.0069
2730.00,0.0071
2729.00,0.0073
2728.00,0.0076
2727.00,0.0079
2726.00,0.0082
2725.00,0.0084
2724.00,0.0086
2723.00,0.0086
2722.00,0.0086
2721.00,0.0084
2720.00,0.0081
2719.00,0.0078
2718.00,0.0074
2717.00,0.0071
2716.00,0.0069
2715.00,0.0066
2714.00,0.0063
2713.00,0.0061
2712.00,0.0059
2711.00,0.0057
2710.00,0.0055
2709.00,0.0053
2708.00,0.0052
2707.00,0.0051
2706.00,0.0050
2705.00,0.0049
2704.00,0.0048
2703.00,0.0046
2702.00,0.0045
2701.00,0.0044
2700.00,0.0044
2699.00,0.0043
2698.00,0.0043
2697.00,0.0043
2696.00,0.0043
2695.00,0.0043
2694.00,0.0043
2693.00,0.0043
2692.00,0.0043
2691.00,0.0042
2690.00,0.0042
2689.00,0.0042
2688.00,0.0042
2687.00,0.0042
2686.00,0.0042
2685.00,0.0042
2684.00,0.0042
2683.00,0.0043
2682.00,0.0043
2681.00,0.0043
2680.00,0.0043
2679.00,0.0044
2678.00,0.0044
2677.00,0.0044
2676.00,0.0044
2675.00,0.0043
2674.00,0.0043
2673.00,0.0043
2672.00,0.0043
2671.00,0.0043
2670.00,0.0043
2669.00,0.0043
2668.00,0.0043
2667.00,0.0043
2666.00,0.0043
2665.00,0.0043
2664.00,0.0043
2663.00,0.0044
2662.00,0.0045
2661.00,0.0045
2660.00,0.0046
2659.00,0.0046
2658.00,0.0046
2657.00,0.0046
2656.00,0.0046
2655.00,0.0045
2654.00,0.0045
2653.00,0.0044
2652.00,0.0044
2651.00,0.0044
2650.00,0.0043
2649.00,0.0043
2648.00,0.0042
2647.00,0.0042
2646.00,0.0041
2645.00,0.0041
2644.00,0.0040
2643.00,0.0039
2642.00,0.0039
2641.00,0.0038
2640.00,0.0037
2639.00,0.0037
2638.00,0.0037
2637.00,0.0037
2636.00,0.0037
2635.00,0.0037
2634.00,0.0037
2633.00,0.0037
2632.00,0.0037
2631.00,0.0037
2630.00,0.0037
2629.00,0.0037
2628.00,0.0038
2627.00,0.0038
2626.00,0.0039
2625.00,0.0039
2624.00,0.0039
2623.00,0.0039
2622.00,0.0039
2621.00,0.0039
2620.00,0.0039
2619.00,0.0039
2618.00,0.0039
2617.00,0.0039
2616.00,0.0039
2615.00,0.0038
2614.00,0.0038
2613.00,0.0038
2612.00,0.0038
2611.00,0.0037
2610.00,0.0036
2609.00,0.0035
2608.00,0.0034
2607.00,0.0033
2606.00,0.0033
2605.00,0.0032
2604.00,0.0032
2603.00,0.0031
2602.00,0.0030
2601.00,0.0030
2600.00,0.0030
2599.00,0.0029
2598.00,0.0029
2597.00,0.0029
2596.00,0.0029
2595.00,0.0030
2594.00,0.0031
2593.00,0.0031
2592.00,0.0032
2591.00,0.0032
2590.00,0.0033
2589.00,0.0033
2588.00,0.0034
2587.00,0.0035
2586.00,0.0036
2585.00,0.0037
2584.00,0.0037
2583.00,0.0038
2582.00,0.0038
2581.00,0.0038
2580.00,0.0037
2579.00,0.0036
2578.00,0.0035
2577.00,0.0033
2576.00,0.0032
2575.00,0.0031
2574.00,0.0030
2573.00,0.0029
2572.00,0.0028
2571.00,0.0027
2570.00,0.0026
2569.00,0.0025
2568.00,0.0025
2567.00,0.0025
2566.00,0.0024
2565.00,0.0024
2564.00,0.0024
2563.00,0.0024
2562.00,0.0024
2561.00,0.0024
2560.00,0.0023
2559.00,0.0022
2558.00,0.0022
2557.00,0.0021
2556.00,0.0022
2555.00,0.0022
2554.00,0.0021
2553.00,0.0020
2552.00,0.0019
2551.00,0.0018
2550.00,0.0018
2549.00,0.0017
2548.00,0.0017
2547.00,0.0017
2546.00,0.0017
2545.00,0.0017
2544.00,0.0017
2543.00,0.0017
2542.00,0.0016
2541.00,0.0016
2540.00,0.0015
2539.00,0.0015
2538.00,0.0015
2537.00,0.0014
2536.00,0.0014
2535.00,0.0014
2534.00,0.0013
2533.00,0.0013
2532.00,0.0012
2531.00,0.0012
2530.00,0.0012
2529.00,0.0012
2528.00,0.0013
2527.00,0.0013
2526.00,0.0013
2525.00,0.0013
2524.00,0.0013
2523.00,0.0012
2522.00,0.0012
2521.00,0.0012
2520.00,0.0012
2519.00,0.0012
2518.00,0.0012
2517.00,0.0012
2516.00,0.0011
2515.00,0.0011
2514.00,0.0010
2513.00,0.0010
2512.00,0.0009
2511.00,0.0009
2510.00,0.0009
2509.00,0.0009
2508.00,0.0010
2507.00,0.0010
2506.00,0.0010
2505.00,0.0010
2504.00,0.0009
2503.00,0.0009
2502.00,0.0009
2501.00,0.0009
2500.00,0.0009
2499.00,0.0009
2498.00,0.0010
2497.00,0.0010
2496.00,0.0009
2495.00,0.0009
2494.00,0.0009
2493.00,0.0008
2492.00,0.0008
2491.00,0.0008
2490.00,0.0008
2489.00,0.0007
2488.00,0.0007
2487.00,0.0007
2486.00,0.0007
2485.00,0.0007
2484.00,0.0008
2483.00,0.0008
2482.00,0.0008
2481.00,0.0008
2480.00,0.0008
2479.00,0.0008
2478.00,0.0008
2477.00,0.0008
2476.00,0.0008
2475.00,0.0008
2474.00,0.0008
2473.00,0.0008
2472.00,0.0008
2471.00,0.0008
2470.00,0.0008
2469.00,0.0008
2468.00,0.0008
2467.00,0.0009
2466.00,0.0009
2465.00,0.0009
2464.00,0.0008
2463.00,0.0008
2462.00,0.0007
2461.00,0.0007
2460.00,0.0008
2459.00,0.0008
2458.00,0.0009
2457.00,0.0010
2456.00,0.0010
2455.00,0.0010
2454.00,0.0010
2453.00,0.0010
2452.00,0.0010
2451.00,0.0010
2450.00,0.0010
2449.00,0.0010
2448.00,0.0009
2447.00,0.0009
2446.00,0.0009
2445.00,0.0009
2444.00,0.0010
2443.00,0.0010
2442.00,0.0009
2441.00,0.0009
2440.00,0.0010
2439.00,0.0010
2438.00,0.0010
2437.00,0.0010
2436.00,0.0010
2435.00,0.0010
2434.00,0.0010
2433.00,0.0010
2432.00,0.0010
2431.00,0.0010
2430.00,0.0010
2429.00,0.0010
2428.00,0.0010
2427.00,0.0010
2426.00,0.0010
2425.00,0.0009
2424.00,0.0009
2423.00,0.0009
2422.00,0.0009
2421.00,0.0009
2420.00,0.0010
2419.00,0.0009
2418.00,0.0009
2417.00,0.0009
2416.00,0.0008
2415.00,0.0008
2414.00,0.0007
2413.00,0.0007
2412.00,0.0008
2411.00,0.0008
2410.00,0.0008
2409.00,0.0008
2408.00,0.0007
2407.00,0.0007
2406.00,0.0006
2405.00,0.0007
2404.00,0.0007
2403.00,0.0007
2402.00,0.0007
2401.00,0.0007
2400.00,0.0007
2399.00,0.0007
2398.00,0.0007
2397.00,0.0007
2396.00,0.0007
2395.00,0.0007
2394.00,0.0007
2393.00,0.0006
2392.00,0.0006
2391.00,0.0005
2390.00,0.0005
2389.00,0.0005
2388.00,0.0005
2387.00,0.0005
2386.00,0.0005
2385.00,0.0005
2384.00,0.0005
2383.00,0.0005
2382.00,0.0005
2381.00,0.0005
2380.00,0.0005
2379.00,0.0005
2378.00,0.0004
2377.00,0.0004
2376.00,0.0005
2375.00,0.0005
2374.00,0.0006
2373.00,0.0006
2372.00,0.0006
2371.00,0.0005
2370.00,0.0005
2369.00,0.0004
2368.00,0.0004
2367.00,0.0004
2366.00,0.0005
2365.00,0.0005
2364.00,0.0006
2363.00,0.0006
2362.00,0.0006
2361.00,0.0007
2360.00,0.0007
2359.00,0.0008
2358.00,0.0008
2357.00,0.0008
2356.00,0.0008
2355.00,0.0008
2354.00,0.0007
2353.00,0.0007
2352.00,0.0007
2351.00,0.0007
2350.00,0.0008
2349.00,0.0007
2348.00,0.0007
2347.00,0.0008
2346.00,0.0008
2345.00,0.0009
2344.00,0.0010
2343.00,0.0010
2342.00,0.0010
2341.00,0.0010
2340.00,0.0010
2339.00,0.0011
2338.00,0.0011
2337.00,0.0011
2336.00,0.0012
2335.00,0.0011
2334.00,0.0010
2333.00,0.0009
2332.00,0.0008
2331.00,0.0008
2330.00,0.0009
2329.00,0.0010
2328.00,0.0012
2327.00,0.0015
2326.00,0.0019
2325.00,0.0023
2324.00,0.0024
2323.00,0.0024
2322.00,0.0022
2321.00,0.0019
2320.00,0.0017
2319.00,0.0016
2318.00,0.0016
2317.00,0.0016
2316.00,0.0015
2315.00,0.0014
2314.00,0.0013
2313.00,0.0013
2312.00,0.0013
2311.00,0.0012
2310.00,0.0012
2309.00,0.0011
2308.00,0.0011
2307.00,0.0012
2306.00,0.0012
2305.00,0.0013
2304.00,0.0013
2303.00,0.0013
2302.00,0.0012
2301.00,0.0013
2300.00,0.0013
2299.00,0.0013
2298.00,0.0013
2297.00,0.0012
2296.00,0.0013
2295.00,0.0013
2294.00,0.0014
2293.00,0.0015
2292.00,0.0016
2291.00,0.0016
2290.00,0.0017
2289.00,0.0018
2288.00,0.0019
2287.00,0.0020
2286.00,0.0021
2285.00,0.0021
2284.00,0.0020
2283.00,0.0019
2282.00,0.0018
2281.00,0.0017
2280.00,0.0016
2279.00,0.0015
2278.00,0.0015
2277.00,0.0015
2276.00,0.0014
2275.00,0.0014
2274.00,0.0012
2273.00,0.0011
2272.00,0.0009
2271.00,0.0008
2270.00,0.0008
2269.00,0.0009
2268.00,0.0010
2267.00,0.0010
2266.00,0.0010
2265.00,0.0010
2264.00,0.0011
2263.00,0.0012
2262.00,0.0013
2261.00,0.0013
2260.00,0.0013
2259.00,0.0013
2258.00,0.0012
2257.00,0.0011
2256.00,0.0010
2255.00,0.0008
2254.00,0.0008
2253.00,0.0008
2252.00,0.0008
2251.00,0.0009
2250.00,0.0010
2249.00,0.0009
2248.00,0.0008
2247.00,0.0007
2246.00,0.0006
2245.00,0.0006
2244.00,0.0006
2243.00,0.0007
2242.00,0.0007
2241.00,0.0008
2240.00,0.0008
2239.00,0.0009
2238.00,0.0010
2237.00,0.0011
2236.00,0.0011
2235.00,0.0010
2234.00,0.0009
2233.00,0.0007
2232.00,0.0006
2231.00,0.0005
2230.00,0.0005
2229.00,0.0007
2228.00,0.0009
2227.00,0.0009
2226.00,0.0009
2225.00,0.0008
2224.00,0.0007
2223.00,0.0007
2222.00,0.0006
2221.00,0.0007
2220.00,0.0008
2219.00,0.0009
2218.00,0.0009
2217.00,0.0009
2216.00,0.0008
2215.00,0.0006
2214.00,0.0005
2213.00,0.0005
2212.00,0.0004
2211.00,0.0002
2210.00,0.0001
2209.00,0.0000
2208.00,0.0001
2207.00,0.0003
2206.00,0.0005
2205.00,0.0006
2204.00,0.0007
2203.00,0.0007
2202.00,0.0006
2201.00,0.0006
2200.00,0.0006
2199.00,0.0006
2198.00,0.0005
2197.00,0.0005
2196.00,0.0005
2195.00,0.0005
2194.00,0.0006
2193.00,0.0006
2192.00,0.0007
2191.00,0.0007
2190.00,0.0008
2189.00,0.0009
2188.00,0.0011
2187.00,0.0011
2186.00,0.0010
2185.00,0.0010
2184.00,0.0008
2183.00,0.0005
2182.00,0.0002
2181.00,-0.0000
2180.00,-0.0001
2179.00,0.0001
2178.00,0.0002
2177.00,0.0002
2176.00,0.0001
2175.00,-0.0001
2174.00,-0.0002
2173.00,-0.0001
2172.00,0.0002
2171.00,0.0007
2170.00,0.0013
2169.00,0.0017
2168.00,0.0019
2167.00,0.0017
2166.00,0.0013
2165.00,0.0012
2164.00,0.0014
2163.00,0.0017
2162.00,0.0018
2161.00,0.0014
2160.00,0.0003
2159.00,-0.0012
2158.00,-0.0024
2157.00,-0.0030
2156.00,-0.0031
2155.00,-0.0028
2154.00,-0.0025
2153.00,-0.0023
2152.00,-0.0022
2151.00,-0.0021
2150.00,-0.0021
2149.00,-0.0021
2148.00,-0.0020
2147.00,-0.0018
2146.00,-0.0017
2145.00,-0.0015
2144.00,-0.0015
2143.00,-0.0014
2142.00,-0.0014
2141.00,-0.0013
2140.00,-0.0012
2139.00,-0.0011
2138.00,-0.0011
2137.00,-0.0012
2136.00,-0.0014
2135.00,-0.0016
2134.00,-0.0018
2133.00,-0.0019
2132.00,-0.0019
2131.00,-0.0018
2130.00,-0.0017
2129.00,-0.0015
2128.00,-0.0013
2127.00,-0.0011
2126.00,-0.0010
2125.00,-0.0009
2124.00,-0.0007
2123.00,-0.0006
2122.00,-0.0006
2121.00,-0.0005
2120.00,-0.0005
2119.00,-0.0005
2118.00,-0.0003
2117.00,-0.0002
2116.00,-0.0001
2115.00,-0.0000
2114.00,0.0000
2113.00,0.0001
2112.00,0.0001
2111.00,0.0001
2110.00,0.0002
2109.00,0.0001
2108.00,0.0001
2107.00,0.0001
2106.00,0.0001
2105.00,0.0001
2104.00,0.0002
2103.00,0.0002
2102.00,0.0002
2101.00,0.0002
2100.00,0.0002
2099.00,0.0003
2098.00,0.0002
2097.00,0.0001
2096.00,-0.0000
2095.00,-0.0002
2094.00,-0.0004
2093.00,-0.0005
2092.00,-0.0005
2091.00,-0.0006
2090.00,-0.0006
2089.00,-0.0005
2088.00,-0.0004
2087.00,-0.0002
2086.00,-0.0001
2085.00,0.0001
2084.00,0.0002
2083.00,0.0002
2082.00,0.0001
2081.00,0.0001
2080.00,0.0001
2079.00,0.0002
2078.00,0.0003
2077.00,0.0003
2076.00,0.0003
2075.00,0.0002
2074.00,0.0002
2073.00,0.0002
2072.00,0.0002
2071.00,0.0001
2070.00,-0.0000
2069.00,-0.0001
2068.00,-0.0001
2067.00,-0.0001
2066.00,-0.0002
2065.00,-0.0002
2064.00,-0.0003
2063.00,-0.0003
2062.00,-0.0004
2061.00,-0.0004
2060.00,-0.0004
2059.00,-0.0004
2058.00,-0.0003
2057.00,-0.0001
2056.00,0.0000
2055.00,0.0001
2054.00,0.0002
2053.00,0.0005
2052.00,0.0009
2051.00,0.0012
2050.00,0.0011
2049.00,0.0007
2048.00,0.0003
2047.00,-0.0001
2046.00,-0.0003
2045.00,-0.0004
2044.00,-0.0003
2043.00,-0.0001
2042.00,0.0003
2041.00,0.0007
2040.00,0.0009
2039.00,0.0009
2038.00,0.0007
2037.00,0.0004
2036.00,0.0001
2035.00,-0.0002
2034.00,-0.0003
2033.00,-0.0003
2032.00,-0.0002
2031.00,-0.0002
2030.00,-0.0002
2029.00,-0.0004
2028.00,-0.0008
2027.00,-0.0013
2026.00,-0.0017
2025.00,-0.0017
2024.00,-0.0013
2023.00,-0.0008
2022.00,-0.0004
2021.00,-0.0003
2020.00,-0.0002
2019.00,-0.0002
2018.00,-0.0002
2017.00,-0.0002
2016.00,-0.0003
2015.00,-0.0004
2014.00,-0.0007
2013.00,-0.0008
2012.00,-0.0009
2011.00,-0.0008
2010.00,-0.0007
2009.00,-0.0007
2008.00,-0.0009
2007.00,-0.0012
2006.00,-0.0016
2005.00,-0.0017
2004.00,-0.0016
2003.00,-0.0014
2002.00,-0.0012
2001.00,-0.0011
2000.00,-0.0010
1999.00,-0.0009
1998.00,-0.0009
1997.00,-0.0009
1996.00,-0.0009
1995.00,-0.0010
1994.00,-0.0011
1993.00,-0.0009
1992.00,-0.0005
1991.00,-0.0001
1990.00,0.0001
1989.00,0.0001
1988.00,-0.0000
1987.00,-0.0001
1986.00,-0.0000
1985.00,0.0001
1984.00,0.0003
1983.00,0.0004
1982.00,0.0007
1981.00,0.0009
1980.00,0.0011
1979.00,0.0009
1978.00,0.0002
1977.00,-0.0006
1976.00,-0.0014
1975.00,-0.0020
1974.00,-0.0022
1973.00,-0.0021
1972.00,-0.0018
1971.00,-0.0014
1970.00,-0.0013
1969.00,-0.0014
1968.00,-0.0015
1967.00,-0.0015
1966.00,-0.0014
1965.00,-0.0011
1964.00,-0.0009
1963.00,-0.0008
1962.00,-0.0009
1961.00,-0.0011
1960.00,-0.0014
1959.00,-0.0016
1958.00,-0.0017
1957.00,-0.0017
1956.00,-0.0017
1955.00,-0.0017
1954.00,-0.0016
1953.00,-0.0015
1952.00,-0.0013
1951.00,-0.0012
1950.00,-0.0011
1949.00,-0.0011
1948.00,-0.0012
1947.00,-0.0014
1946.00,-0.0016
1945.00,-0.0017
1944.00,-0.0016
1943.00,-0.0016
1942.00,-0.0014
1941.00,-0.0013
1940.00,-0.0012
1939.00,-0.0012
1938.00,-0.0012
1937.00,-0.0013
1936.00,-0.0014
1935.00,-0.0014
1934.00,-0.0012
1933.00,-0.0010
1932.00,-0.0008
1931.00,-0.0008
1930.00,-0.0007
1929.00,-0.0006
1928.00,-0.0006
1927.00,-0.0006
1926.00,-0.0006
1925.00,-0.0007
1924.00,-0.0007
1923.00,-0.0006
1922.00,-0.0006
1921.00,-0.0004
1920.00,-0.0003
1919.00,-0.0003
1918.00,-0.0004
1917.00,-0.0004
1916.00,-0.0005
1915.00,-0.0005
1914.00,-0.0005
1913.00,-0.0006
1912.00,-0.0006
1911.00,-0.0006
1910.00,-0.0006
1909.00,-0.0006
1908.00,-0.0005
1907.00,-0.0005
1906.00,-0.0004
1905.00,-0.0003
1904.00,-0.0003
1903.00,-0.0003
1902.00,-0.0004
1901.00,-0.0004
1900.00,-0.0004
1899.00,-0.0003
1898.00,-0.0002
1897.00,-0.0001
1896.00,-0.0001
1895.00,-0.0001
1894.00,-0.0001
1893.00,-0.0001
1892.00,-0.0002
1891.00,-0.0002
1890.00,-0.0003
1889.00,-0.0003
1888.00,-0.0003
1887.00,-0.0004
1886.00,-0.0005
1885.00,-0.0005
1884.00,-0.0004
1883.00,-0.0004
1882.00,-0.0003
1881.00,-0.0002
1880.00,-0.0001
1879.00,-0.0001
1878.00,-0.0002
1877.00,-0.0003
1876.00,-0.0004
1875.00,-0.0004
1874.00,-0.0003
1873.00,-0.0002
1872.00,-0.0001
1871.00,-0.0001
1870.00,-0.0001
1869.00,-0.0001
1868.00,-0.0001
1867.00,-0.0001
1866.00,-0.0001
1865.00,-0.0001
1864.00,-0.0000
1863.00,-0.0001
1862.00,-0.0001
1861.00,-0.0001
1860.00,-0.0002
1859.00,-0.0002
1858.00,-0.0002
1857.00,-0.0002
1856.00,-0.0002
1855.00,-0.0002
1854.00,-0.0002
1853.00,-0.0002
1852.00,-0.0002
1851.00,-0.0002
1850.00,-0.0002
1849.00,-0.0001
1848.00,-0.0001
1847.00,0.0000
1846.00,0.0000
1845.00,0.0000
1844.00,0.0000
1843.00,0.0000
1842.00,0.0000
1841.00,0.0000
1840.00,0.0000
1839.00,0.0000
1838.00,0.0001
1837.00,0.0002
1836.00,0.0003
1835.00,0.0003
1834.00,0.0003
1833.00,0.0002
1832.00,0.0001
1831.00,0.0001
1830.00,0.0001
1829.00,0.0001
1828.00,0.0002
1827.00,0.0002
1826.00,0.0002
1825.00,0.0002
1824.00,0.0002
1823.00,0.0001
1822.00,0.0001
1821.00,0.0001
1820.00,0.0001
1819.00,0.0001
1818.00,0.0000
1817.00,0.0000
1816.00,-0.0000
1815.00,-0.0000
1814.00,-0.0000
1813.00,0.0000
1812.00,0.0001
1811.00,0.0001
1810.00,0.0002
1809.00,0.0003
1808.00,0.0003
1807.00,0.0002
1806.00,0.0002
1805.00,0.0002
1804.00,0.0003
1803.00,0.0003
1802.00,0.0004
1801.00,0.0004
1800.00,0.0004
1799.00,0.0004
1798.00,0.0004
1797.00,0.0004
1796.00,0.0005
1795.00,0.0005
1794.00,0.0005
1793.00,0.0005
1792.00,0.0005
1791.00,0.0005
1790.00,0.0005
1789.00,0.0006
1788.00,0.0006
1787.00,0.0006
1786.00,0.0006
1785.00,0.0006
1784.00,0.0006
1783.00,0.0006
1782.00,0.0006
1781.00,0.0006
1780.00,0.0007
1779.00,0.0007
1778.00,0.0007
1777.00,0.0006
1776.00,0.0006
1775.00,0.0006
1774.00,0.0006
1773.00,0.0006
1772.00,0.0006
1771.00,0.0007
1770.00,0.0007
1769.00,0.0008
1768.00,0.0008
1767.00,0.0007
1766.00,0.0007
1765.00,0.0007
1764.00,0.0008
1763.00,0.0008
1762.00,0.0008
1761.00,0.0008
1760.00,0.0009
1759.00,0.0009
1758.00,0.0010
1757.00,0.0011
1756.00,0.0011
1755.00,0.0011
1754.00,0.0011
1753.00,0.0011
1752.00,0.0011
1751.00,0.0011
1750.00,0.0012
1749.00,0.0012
1748.00,0.0013
1747.00,0.0014
1746.00,0.0014
1745.00,0.0014
1744.00,0.0013
1743.00,0.0013
1742.00,0.0013
1741.00,0.0013
1740.00,0.0013
1739.00,0.0013
1738.00,0.0013
1737.00,0.0013
1736.00,0.0013
1735.00,0.0014
1734.00,0.0014
1733.00,0.0015
1732.00,0.0016
1731.00,0.0016
1730.00,0.0016
1729.00,0.0017
1728.00,0.0017
1727.00,0.0017
1726.00,0.0017
1725.00,0.0018
1724.00,0.0019
1723.00,0.0019
1722.00,0.0019
1721.00,0.0019
1720.00,0.0019
1719.00,0.0019
1718.00,0.0020
1717.00,0.0019
1716.00,0.0019
1715.00,0.0018
1714.00,0.0019
1713.00,0.0019
1712.00,0.0020
1711.00,0.0021
1710.00,0.0021
1709.00,0.0021
1708.00,0.0021
1707.00,0.0021
1706.00,0.0020
1705.00,0.0020
1704.00,0.0021
1703.00,0.0021
1702.00,0.0021
1701.00,0.0022
1700.00,0.0022
1699.00,0.0022
1698.00,0.0022
1697.00,0.0023
1696.00,0.0024
1695.00,0.0024
1694.00,0.0025
1693.00,0.0026
1692.00,0.0026
1691.00,0.0027
1690.00,0.0028
1689.00,0.0029
1688.00,0.0029
1687.00,0.0030
1686.00,0.0029
1685.00,0.0029
1684.00,0.0029
1683.00,0.0029
1682.00,0.0029
1681.00,0.0031
1680.00,0.0032
1679.00,0.0032
1678.00,0.0033
1677.00,0.0033
1676.00,0.0034
1675.00,0.0035
1674.00,0.0036
1673.00,0.0036
1672.00,0.0037
1671.00,0.0037
1670.00,0.0037
1669.00,0.0037
1668.00,0.0037
1667.00,0.0038
1666.00,0.0038
1665.00,0.0038
1664.00,0.0038
1663.00,0.0038
1662.00,0.0038
1661.00,0.0039
1660.00,0.0040
1659.00,0.0040
1658.00,0.0040
1657.00,0.0040
1656.00,0.0041
1655.00,0.0041
1654.00,0.0042
1653.00,0.0043
1652.00,0.0044
1651.00,0.0044
1650.00,0.0045
1649.00,0.0046
1648.00,0.0049
1647.00,0.0051
1646.00,0.0052
1645.00,0.0053
1644.00,0.0052
1643.00,0.0052
1642.00,0.0052
1641.00,0.0052
1640.00,0.0053
1639.00,0.0053
1638.00,0.0054
1637.00,0.0054
1636.00,0.0055
1635.00,0.0054
1634.00,0.0053
1633.00,0.0053
1632.00,0.0053
1631.00,0.0053
1630.00,0.0052
1629.00,0.0051
1628.00,0.0051
1627.00,0.0050
1626.00,0.0050
1625.00,0.0050
1624.00,0.0050
1623.00,0.0050
1622.00,0.0049
1621.00,0.0049
1620.00,0.0048
1619.00,0.0048
1618.00,0.0047
1617.00,0.0046
1616.00,0.0046
1615.00,0.0045
1614.00,0.0045
1613.00,0.0045
1612.00,0.0045
1611.00,0.0045
1610.00,0.0045
1609.00,0.0046
1608.00,0.0046
1607.00,0.0046
1606.00,0.0046
1605.00,0.0046
1604.00,0.0046
1603.00,0.0046
1602.00,0.0046
1601.00,0.0045
1600.00,0.0045
1599.00,0.0045
1598.00,0.0045
1597.00,0.0045
1596.00,0.0044
1595.00,0.0044
1594.00,0.0044
1593.00,0.0044
1592.00,0.0045
1591.00,0.0045
1590.00,0.0045
1589.00,0.0046
1588.00,0.0047
1587.00,0.0048
1586.00,0.0049
1585.00,0.0050
1584.00,0.0051
1583.00,0.0052
1582.00,0.0054
1581.00,0.0055
1580.00,0.0056
1579.00,0.0057
1578.00,0.0057
1577.00,0.0057
1576.00,0.0057
1575.00,0.0057
1574.00,0.0056
1573.00,0.0056
1572.00,0.0056
1571.00,0.0056
1570.00,0.0055
1569.00,0.0055
1568.00,0.0055
1567.00,0.0054
1566.00,0.0053
1565.00,0.0053
1564.00,0.0053
1563.00,0.0054
1562.00,0.0054
1561.00,0.0054
1560.00,0.0055
1559.00,0.0056
1558.00,0.0056
1557.00,0.0056
1556.00,0.0057
1555.00,0.0058
1554.00,0.0058
1553.00,0.0058
1552.00,0.0059
1551.00,0.0059
1550.00,0.0061
1549.00,0.0062
1548.00,0.0063
1547.00,0.0065
1546.00,0.0067
1545.00,0.0069
1544.00,0.0071
1543.00,0.0072
1542.00,0.0071
1541.00,0.0070
1540.00,0.0069
1539.00,0.0066
1538.00,0.0064
1537.00,0.0062
1536.00,0.0061
1535.00,0.0060
1534.00,0.0057
1533.00,0.0056
1532.00,0.0054
1531.00,0.0053
1530.00,0.0052
1529.00,0.0052
1528.00,0.0052
1527.00,0.0051
1526.00,0.0051
1525.00,0.0051
1524.00,0.0051
1523.00,0.0051
1522.00,0.0051
1521.00,0.0052
1520.00,0.0052
1519.00,0.0053
1518.00,0.0053
1517.00,0.0054
1516.00,0.0055
1515.00,0.0055
1514.00,0.0055
1513.00,0.0055
1512.00,0.0056
1511.00,0.0057
1510.00,0.0058
1509.00,0.0059
1508.00,0.0060
1507.00,0.0061
1506.00,0.0061
1505.00,0.0063
1504.00,0.0064
1503.00,0.0066
1502.00,0.0068
1501.00,0.0070
1500.00,0.0073
1499.00,0.0075
1498.00,0.0077
1497.00,0.0081
1496.00,0.0084
1495.00,0.0087
1494.00,0.0089
1493.00,0.0093
1492.00,0.0097
1491.00,0.0101
1490.00,0.0105
1489.00,0.0110
1488.00,0.0115
1487.00,0.0120
1486.00,0.0126
1485.00,0.0133
1484.00,0.0140
1483.00,0.0148
1482.00,0.0157
1481.00,0.0168
1480.00,0.0180
1479.00,0.0193
1478.00,0.0209
1477.00,0.0230
1476.00,0.0256
1475.00,0.0288
1474.00,0.0329
1473.00,0.0388
1472.00,0.0456
1471.00,0.0522
1470.00,0.0587
1469.00,0.0656
1468.00,0.0730
1467.00,0.0811
1466.00,0.0903
1465.00,0.1001
1464.00,0.1086
1463.00,0.1144
1462.00,0.1179
1461.00,0.1201
1460.00,0.1215
1459.00,0.1221
1458.00,0.1224
1457.00,0.1222
1456.00,0.1212
1455.00,0.1196
1454.00,0.1178
1453.00,0.1155
1452.00,0.1123
1451.00,0.1080
1450.00,0.1025
1449.00,0.0952
1448.00,0.0862
1447.00,0.0769
1446.00,0.0687
1445.00,0.0617
1444.00,0.0558
1443.00,0.0510
1442.00,0.0474
1441.00,0.0450
1440.00,0.0436
1439.00,0.0432
1438.00,0.0436
1437.00,0.0441
1436.00,0.0434
1435.00,0.0410
1434.00,0.0374
1433.00,0.0331
1432.00,0.0285
1431.00,0.0244
1430.00,0.0213
1429.00,0.0189
1428.00,0.0173
1427.00,0.0162
1426.00,0.0155
1425.00,0.0149
1424.00,0.0144
1423.00,0.0141
1422.00,0.0139
1421.00,0.0137
1420.00,0.0135
1419.00,0.0132
1418.00,0.0129
1417.00,0.0126
1416.00,0.0123
1415.00,0.0121
1414.00,0.0119
1413.00,0.0118
1412.00,0.0116
1411.00,0.0115
1410.00,0.0114
1409.00,0.0113
1408.00,0.0111
1407.00,0.0111
1406.00,0.0112
1405.00,0.0112
1404.00,0.0111
1403.00,0.0112
1402.00,0.0113
1401.00,0.0114
1400.00,0.0114
1399.00,0.0116
1398.00,0.0118
1397.00,0.0120
1396.00,0.0122
1395.00,0.0126
1394.00,0.0130
1393.00,0.0135
1392.00,0.0139
1391.00,0.0147
1390.00,0.0157
1389.00,0.0171
1388.00,0.0191
1387.00,0.0222
1386.00,0.0264
1385.00,0.0319
1384.00,0.0397
1383.00,0.0508
1382.00,0.0660
1381.00,0.0860
1380.00,0.1111
1379.00,0.1403
1378.00,0.1692
1377.00,0.1910
1376.00,0.1993
1375.00,0.1900
1374.00,0.1661
1373.00,0.1367
1372.00,0.1096
1371.00,0.0872
1370.00,0.0695
1369.00,0.0562
1368.00,0.0471
1367.00,0.0415
1366.00,0.0385
1365.00,0.0373
1364.00,0.0375
1363.00,0.0389
1362.00,0.0411
1361.00,0.0436
1360.00,0.0454
1359.00,0.0460
1358.00,0.0450
1357.00,0.0423
1356.00,0.0385
1355.00,0.0343
1354.00,0.0302
1353.00,0.0267
1352.00,0.0239
1351.00,0.0216
1350.00,0.0197
1349.00,0.0182
1348.00,0.0169
1347.00,0.0159
1346.00,0.0150
1345.00,0.0143
1344.00,0.0137
1343.00,0.0131
1342.00,0.0127
1341.00,0.0123
1340.00,0.0120
1339.00,0.0118
1338.00,0.0116
1337.00,0.0116
1336.00,0.0116
1335.00,0.0118
1334.00,0.0122
1333.00,0.0126
1332.00,0.0130
1331.00,0.0134
1330.00,0.0135
1329.00,0.0133
1328.00,0.0130
1327.00,0.0125
1326.00,0.0120
1325.00,0.0114
1324.00,0.0108
1323.00,0.0102
1322.00,0.0098
1321.00,0.0095
1320.00,0.0092
1319.00,0.0091
1318.00,0.0089
1317.00,0.0088
1316.00,0.0087
1315.00,0.0086
1314.00,0.0086
1313.00,0.0086
1312.00,0.0086
1311.00,0.0087
1310.00,0.0090
1309.00,0.0095
1308.00,0.0101
1307.00,0.0109
1306.00,0.0117
1305.00,0.0123
1304.00,0.0125
1303.00,0.0124
1302.00,0.0122
1301.00,0.0121
1300.00,0.0121
1299.00,0.0122
1298.00,0.0124
1297.00,0.0125
1296.00,0.0125
1295.00,0.0122
1294.00,0.0118
1293.00,0.0114
1292.00,0.0108
1291.00,0.0103
1290.00,0.0099
1289.00,0.0095
1288.00,0.0091
1287.00,0.0089
1286.00,0.0087
1285.00,0.0085
1284.00,0.0084
1283.00,0.0082
1282.00,0.0080
1281.00,0.0079
1280.00,0.0078
1279.00,0.0077
1278.00,0.0076
1277.00,0.0076
1276.00,0.0076
1275.00,0.0076
1274.00,0.0076
1273.00,0.0075
1272.00,0.0075
1271.00,0.0076
1270.00,0.0077
1269.00,0.0079
1268.00,0.0082
1267.00,0.0084
1266.00,0.0087
1265.00,0.0090
1264.00,0.0092
1263.00,0.0096
1262.00,0.0099
1261.00,0.0103
1260.00,0.0106
1259.00,0.0110
1258.00,0.0114
1257.00,0.0116
1256.00,0.0117
1255.00,0.0114
1254.00,0.0110
1253.00,0.0104
1252.00,0.0098
1251.00,0.0092
1250.00,0.0088
1249.00,0.0084
1248.00,0.0082
1247.00,0.0080
1246.00,0.0079
1245.00,0.0078
1244.00,0.0076
1243.00,0.0075
1242.00,0.0075
1241.00,0.0074
1240.00,0.0074
1239.00,0.0074
1238.00,0.0073
1237.00,0.0073
1236.00,0.0073
1235.00,0.0073
1234.00,0.0073
1233.00,0.0073
1232.00,0.0074
1231.00,0.0075
1230.00,0.0076
1229.00,0.0078
1228.00,0.0080
1227.00,0.0082
1226.00,0.0085
1225.00,0.0088
1224.00,0.0091
1223.00,0.0095
1222.00,0.0098
1221.00,0.0101
1220.00,0.0102
1219.00,0.0102
1218.00,0.0101
1217.00,0.0099
1216.00,0.0097
1215.00,0.0094
1214.00,0.0091
1213.00,0.0088
1212.00,0.0086
1211.00,0.0084
1210.00,0.0082
1209.00,0.0080
1208.00,0.0079
1207.00,0.0077
1206.00,0.0076
1205.00,0.0076
1204.00,0.0076
1203.00,0.0076
1202.00,0.0076
1201.00,0.0076
1200.00,0.0076
1199.00,0.0076
1198.00,0.0076
1197.00,0.0076
1196.00,0.0076
1195.00,0.0076
1194.00,0.0076
1193.00,0.0076
1192.00,0.0076
1191.00,0.0075
1190.00,0.0075
1189.00,0.0074
1188.00,0.0074
1187.00,0.0074
1186.00,0.0075
1185.00,0.0075
1184.00,0.0076
1183.00,0.0077
1182.00,0.0077
1181.00,0.0078
1180.00,0.0080
1179.00,0.0084
1178.00,0.0089
1177.00,0.0095
1176.00,0.0104
1175.00,0.0115
1174.00,0.0129
1173.00,0.0147
1172.00,0.0168
1171.00,0.0191
1170.00,0.0214
1169.00,0.0232
1168.00,0.0244
1167.00,0.0248
1166.00,0.0244
1165.00,0.0235
1164.00,0.0224
1163.00,0.0213
1162.00,0.0204
1161.00,0.0197
1160.00,0.0191
1159.00,0.0188
1158.00,0.0186
1157.00,0.0185
1156.00,0.0185
1155.00,0.0185
1154.00,0.0185
1153.00,0.0183
1152.00,0.0179
1151.00,0.0173
1150.00,0.0166
1149.00,0.0159
1148.00,0.0151
1147.00,0.0142
1146.00,0.0134
1145.00,0.0127
1144.00,0.0119
1143.00,0.0112
1142.00,0.0106
1141.00,0.0100
1140.00,0.0095
1139.00,0.0091
1138.00,0.0088
1137.00,0.0086
1136.00,0.0084
1135.00,0.0082
1134.00,0.0081
1133.00,0.0080
1132.00,0.0079
1131.00,0.0078
1130.00,0.0079
1129.00,0.0079
1128.00,0.0079
1127.00,0.0080
1126.00,0.0080
1125.00,0.0081
1124.00,0.0082
1123.00,0.0083
1122.00,0.0083
1121.00,0.0084
1120.00,0.0084
1119.00,0.0084
1118.00,0.0085
1117.00,0.0086
1116.00,0.0088
1115.00,0.0089
1114.00,0.0090
1113.00,0.0092
1112.00,0.0094
1111.00,0.0097
1110.00,0.0100
1109.00,0.0105
1108.00,0.0110
1107.00,0.0116
1106.00,0.0123
1105.00,0.0130
1104.00,0.0135
1103.00,0.0139
1102.00,0.0139
1101.00,0.0135
1100.00,0.0129
1099.00,0.0122
1098.00,0.0115
1097.00,0.0109
1096.00,0.0104
1095.00,0.0101
1094.00,0.0098
1093.00,0.0095
1092.00,0.0093
1091.00,0.0091
1090.00,0.0089
1089.00,0.0087
1088.00,0.0086
1087.00,0.0085
1086.00,0.0084
1085.00,0.0083
1084.00,0.0083
1083.00,0.0083
1082.00,0.0083
1081.00,0.0082
1080.00,0.0080
1079.00,0.0078
1078.00,0.0077
1077.00,0.0077
1076.00,0.0077
1075.00,0.0076
1074.00,0.0076
1073.00,0.0075
1072.00,0.0075
1071.00,0.0075
1070.00,0.0076
1069.00,0.0076
1068.00,0.0076
1067.00,0.0076
1066.00,0.0075
1065.00,0.0075
1064.00,0.0075
1063.00,0.0075
1062.00,0.0075
1061.00,0.0074
1060.00,0.0073
1059.00,0.0073
1058.00,0.0073
1057.00,0.0073
1056.00,0.0074
1055.00,0.0076
1054.00,0.0077
1053.00,0.0078
1052.00,0.0080
1051.00,0.0081
1050.00,0.0083
1049.00,0.0084
1048.00,0.0085
1047.00,0.0087
1046.00,0.0089
1045.00,0.0090
1044.00,0.0091
1043.00,0.0091
1042.00,0.0090
1041.00,0.0089
1040.00,0.0089
1039.00,0.0089
1038.00,0.0090
1037.00,0.0090
1036.00,0.0090
1035.00,0.0089
1034.00,0.0088
1033.00,0.0087
1032.00,0.0086
1031.00,0.0085
1030.00,0.0083
1029.00,0.0081
1028.00,0.0079
1027.00,0.0078
1026.00,0.0079
1025.00,0.0080
1024.00,0.0080
1023.00,0.0080
1022.00,0.0080
1021.00,0.0081
1020.00,0.0081
1019.00,0.0082
1018.00,0.0083
1017.00,0.0084
1016.00,0.0085
1015.00,0.0087
1014.00,0.0089
1013.00,0.0091
1012.00,0.0093
1011.00,0.0095
1010.00,0.0097
1009.00,0.0098
1008.00,0.0100
1007.00,0.0104
1006.00,0.0110
1005.00,0.0118
1004.00,0.0131
1003.00,0.0148
1002.00,0.0170
1001.00,0.0196
1000.00,0.0223
999.00,0.0245
998.00,0.0254
997.00,0.0249
996.00,0.0229
995.00,0.0201
994.00,0.0173
993.00,0.0148
992.00,0.0129
991.00,0.0115
990.00,0.0105
989.00,0.0098
988.00,0.0093
987.00,0.0091
986.00,0.0091
985.00,0.0094
984.00,0.0099
983.00,0.0106
982.00,0.0117
981.00,0.0131
980.00,0.0150
979.00,0.0175
978.00,0.0205
977.00,0.0239
976.00,0.0274
975.00,0.0305
974.00,0.0326
973.00,0.0331
972.00,0.0316
971.00,0.0284
970.00,0.0245
969.00,0.0207
968.00,0.0175
967.00,0.0151
966.00,0.0134
965.00,0.0121
964.00,0.0111
963.00,0.0104
962.00,0.0098
961.00,0.0093
960.00,0.0089
959.00,0.0087
958.00,0.0085
957.00,0.0083
956.00,0.0081
955.00,0.0078
954.00,0.0075
953.00,0.0073
952.00,0.0071
951.00,0.0071
950.00,0.0071
949.00,0.0072
948.00,0.0073
947.00,0.0074
946.00,0.0075
945.00,0.0078
944.00,0.0081
943.00,0.0085
942.00,0.0088
941.00,0.0091
940.00,0.0092
939.00,0.0091
938.00,0.0087
937.00,0.0081
936.00,0.0075
935.00,0.0071
934.00,0.0067
933.00,0.0066
932.00,0.0065
931.00,0.0064
930.00,0.0063
929.00,0.0061
928.00,0.0059
927.00,0.0058
926.00,0.0058
925.00,0.0059
924.00,0.0060
923.00,0.0060
922.00,0.0060
921.00,0.0060
920.00,0.0060
919.00,0.0060
918.00,0.0060
917.00,0.0060
916.00,0.0061
915.00,0.0062
914.00,0.0063
913.00,0.0064
912.00,0.0065
911.00,0.0067
910.00,0.0070
909.00,0.0073
908.00,0.0077
907.00,0.0083
906.00,0.0090
905.00,0.0101
904.00,0.0116
903.00,0.0135
902.00,0.0156
901.00,0.0175
900.00,0.0187
899.00,0.0189
898.00,0.0180
897.00,0.0163
896.00,0.0142
895.00,0.0123
894.00,0.0107
893.00,0.0095
892.00,0.0088
891.00,0.0083
890.00,0.0080
889.00,0.0077
888.00,0.0075
887.00,0.0074
886.00,0.0073
885.00,0.0073
884.00,0.0072
883.00,0.0072
882.00,0.0072
881.00,0.0072
880.00,0.0072
879.00,0.0072
878.00,0.0072
877.00,0.0073
876.00,0.0074
875.00,0.0075
874.00,0.0076
873.00,0.0078
872.00,0.0079
871.00,0.0079
870.00,0.0079
869.00,0.0078
868.00,0.0077
867.00,0.0077
866.00,0.0077
865.00,0.0078
864.00,0.0078
863.00,0.0078
862.00,0.0078
861.00,0.0078
860.00,0.0079
859.00,0.0081
858.00,0.0084
857.00,0.0086
856.00,0.0088
855.00,0.0089
854.00,0.0089
853.00,0.0090
852.00,0.0092
851.00,0.0094
850.00,0.0097
849.00,0.0101
848.00,0.0108
847.00,0.0117
846.00,0.0131
845.00,0.0153
844.00,0.0183
843.00,0.0217
842.00,0.0244
841.00,0.0251
840.00,0.0235
839.00,0.0202
838.00,0.0167
837.00,0.0141
836.00,0.0124
835.00,0.0115
834.00,0.0110
833.00,0.0108
832.00,0.0106
831.00,0.0105
830.00,0.0104
829.00,0.0102
828.00,0.0100
827.00,0.0099
826.00,0.0099
825.00,0.0099
824.00,0.0099
823.00,0.0098
822.00,0.0098
821.00,0.0099
820.00,0.0102
819.00,0.0107
818.00,0.0113
817.00,0.0120
816.00,0.0128
815.00,0.0141
814.00,0.0157
813.00,0.0177
812.00,0.0199
811.00,0.0219
810.00,0.0234
809.00,0.0239
808.00,0.0235
807.00,0.0221
806.00,0.0202
805.00,0.0181
804.00,0.0162
803.00,0.0146
802.00,0.0134
801.00,0.0125
800.00,0.0118
799.00,0.0115
798.00,0.0113
797.00,0.0111
796.00,0.0108
795.00,0.0104
794.00,0.0100
793.00,0.0097
792.00,0.0093
791.00,0.0090
790.00,0.0087
789.00,0.0084
788.00,0.0081
787.00,0.0077
786.00,0.0074
785.00,0.0071
784.00,0.0069
783.00,0.0066
782.00,0.0064
781.00,0.0063
780.00,0.0064
779.00,0.0065
778.00,0.0065
777.00,0.0066
776.00,0.0066
775.00,0.0067
774.00,0.0067
773.00,0.0066
772.00,0.0065
771.00,0.0064
770.00,0.0065
769.00,0.0065
768.00,0.0065
767.00,0.0065
766.00,0.0064
765.00,0.0063
764.00,0.0063
763.00,0.0063
762.00,0.0065
761.00,0.0066
760.00,0.0068
759.00,0.0068
758.00,0.0068
757.00,0.0067
756.00,0.0069
755.00,0.0072
754.00,0.0075
753.00,0.0076
752.00,0.0076
751.00,0.0076
750.00,0.0075
749.00,0.0076
748.00,0.0079
747.00,0.0081
746.00,0.0084
745.00,0.0085
744.00,0.0086
743.00,0.0087
742.00,0.0089
741.00,0.0091
740.00,0.0095
739.00,0.0099
738.00,0.0104
737.00,0.0108
736.00,0.0113
735.00,0.0116
734.00,0.0121
733.00,0.0127
732.00,0.0135
731.00,0.0145
730.00,0.0152
729.00,0.0156
728.00,0.0157
727.00,0.0156
726.00,0.0156
725.00,0.0159
724.00,0.0165
723.00,0.0173
722.00,0.0182
721.00,0.0188
720.00,0.0187
719.00,0.0178
718.00,0.0163
717.00,0.0148
716.00,0.0137
715.00,0.0130
714.00,0.0126
713.00,0.0122
712.00,0.0119
711.00,0.0115
710.00,0.0111
709.00,0.0107
708.00,0.0105
707.00,0.0103
706.00,0.0101
705.00,0.0098
704.00,0.0096
703.00,0.0095
702.00,0.0095
701.00,0.0094
700.00,0.0093
699.00,0.0092
698.00,0.0091
697.00,0.0092
696.00,0.0092
695.00,0.0093
694.00,0.0092
693.00,0.0091
692.00,0.0091
691.00,0.0091
690.00,0.0093
689.00,0.0094
688.00,0.0094
687.00,0.0093
686.00,0.0092
685.00,0.0092
684.00,0.0093
683.00,0.0095
682.00,0.0097
681.00,0.0096
680.00,0.0095
679.00,0.0094
678.00,0.0094
677.00,0.0094
676.00,0.0094
675.00,0.0093
674.00,0.0092
673.00,0.0090
672.00,0.0089
671.00,0.0089
670.00,0.0089
669.00,0.0087
668.00,0.0085
667.00,0.0086
666.00,0.0087
665.00,0.0088
664.00,0.0087
663.00,0.0086
662.00,0.0085
661.00,0.0084
660.00,0.0084
659.00,0.0083
658.00,0.0082
657.00,0.0082
656.00,0.0082
655.00,0.0082
654.00,0.0082
653.00,0.0083
652.00,0.0084
651.00,0.0084
650.00,0.0083
649.00,0.0082
648.00,0.0082
647.00,0.0083
646.00,0.0084
645.00,0.0085
644.00,0.0086
643.00,0.0086
642.00,0.0087
641.00,0.0088
640.00,0.0089
639.00,0.0089
638.00,0.0089
637.00,0.0088
636.00,0.0086
635.00,0.0084
634.00,0.0084
633.00,0.0085
632.00,0.0086
631.00,0.0087
630.00,0.0086
629.00,0.0084
628.00,0.0081
627.00,0.0080
626.00,0.0081
625.00,0.0080
624.00,0.0079
623.00,0.0078
622.00,0.0078
621.00,0.0079
620.00,0.0080
619.00,0.0082
618.00,0.0083
617.00,0.0082
616.00,0.0081
615.00,0.0079
614.00,0.0077
613.00,0.0077
612.00,0.0077
611.00,0.0076
610.00,0.0076
609.00,0.0075
608.00,0.0076
607.00,0.0077
606.00,0.0079
605.00,0.0080
604.00,0.0082
603.00,0.0082
602.00,0.0081
601.00,0.0079
600.00,0.0078
599.00,0.0076
598.00,0.0075
597.00,0.0076
596.00,0.0078
595.00,0.0080
594.00,0.0081
593.00,0.0080
592.00,0.0077
591.00,0.0076
590.00,0.0077
589.00,0.0079
588.00,0.0081
587.00,0.0080
586.00,0.0078
585.00,0.0076
584.00,0.0076
583.00,0.0078
582.00,0.0080
581.00,0.0082
580.00,0.0081
579.00,0.0080
578.00,0.0079
577.00,0.0079
576.00,0.0080
575.00,0.0081
574.00,0.0080
573.00,0.0078
572.00,0.0075
571.00,0.0073
570.00,0.0071
569.00,0.0069
568.00,0.0070
567.00,0.0072
566.00,0.0076
565.00,0.0079
564.00,0.0082
563.00,0.0084
562.00,0.0083
561.00,0.0081
560.00,0.0079
559.00,0.0077
558.00,0.0078
557.00,0.0081
556.00,0.0083
555.00,0.0082
554.00,0.0079
553.00,0.0075
552.00,0.0074
551.00,0.0074
550.00,0.0075
549.00,0.0076
548.00,0.0076
547.00,0.0076
546.00,0.0075
545.00,0.0072
544.00,0.0069
543.00,0.0067
542.00,0.0070
541.00,0.0077
540.00,0.0087
539.00,0.0095
538.00,0.0100
537.00,0.0100
536.00,0.0100
535.00,0.0099
534.00,0.0098
533.00,0.0097
532.00,0.0095
531.00,0.0093
530.00,0.0091
529.00,0.0090
528.00,0.0090
527.00,0.0090
526.00,0.0088
525.00,0.0082
524.00,0.0076
523.00,0.0074
522.00,0.0078
521.00,0.0085
520.00,0.0091
519.00,0.0090
518.00,0.0083
517.00,0.0073
516.00,0.0067
515.00,0.0066
514.00,0.0069
513.00,0.0072
512.00,0.0076
511.00,0.0080
510.00,0.0081
509.00,0.0077
508.00,0.0070
507.00,0.0064
506.00,0.0065
505.00,0.0069
504.00,0.0073
503.00,0.0074
502.00,0.0072
501.00,0.0067
500.00,0.0061
499.00,0.0057
498.00,0.0057
497.00,0.0060
496.00,0.0067
495.00,0.0074
494.00,0.0079
493.00,0.0080
492.00,0.0078
491.00,0.0074
490.00,0.0069
489.00,0.0067
488.00,0.0069
487.00,0.0075
486.00,0.0081
485.00,0.0083
484.00,0.0078
483.00,0.0072
482.00,0.0068
481.00,0.0067
480.00,0.0068
479.00,0.0069
478.00,0.0071
477.00,0.0079
476.00,0.0088
475.00,0.0095
474.00,0.0092
473.00,0.0081
472.00,0.0073
471.00,0.0073
470.00,0.0079
469.00,0.0083
468.00,0.0085
467.00,0.0089
466.00,0.0098
465.00,0.0109
464.00,0.0121
463.00,0.0134
462.00,0.0146
461.00,0.0153
460.00,0.0155
459.00,0.0151
458.00,0.0145
457.00,0.0141
456.00,0.0139
455.00,0.0140
454.00,0.0141
453.00,0.0136
452.00,0.0122
451.00,0.0106
450.00,0.0096
