Created as New Dataset,Sample 206 By Administrator Date Wednesday, September 03 2025
cm-1,A
4000.00,0.0012
3999.00,0.0012
3998.00,0.0012
3997.00,0.0011
3996.00,0.0011
3995.00,0.0011
3994.00,0.0011
3993.00,0.0011
3992.00,0.0012
3991.00,0.0011
3990.00,0.0011
3989.00,0.0011
3988.00,0.0011
3987.00,0.0011
3986.00,0.0011
3985.00,0.0011
3984.00,0.0011
3983.00,0.0011
3982.00,0.0011
3981.00,0.0011
3980.00,0.0011
3979.00,0.0011
3978.00,0.0011
3977.00,0.0011
3976.00,0.0011
3975.00,0.0011
3974.00,0.0011
3973.00,0.0011
3972.00,0.0011
3971.00,0.0010
3970.00,0.0010
3969.00,0.0009
3968.00,0.0009
3967.00,0.0009
3966.00,0.0009
3965.00,0.0010
3964.00,0.0010
3963.00,0.0010
3962.00,0.0011
3961.00,0.0011
3960.00,0.0010
3959.00,0.0010
3958.00,0.0010
3957.00,0.0009
3956.00,0.0009
3955.00,0.0009
3954.00,0.0008
3953.00,0.0009
3952.00,0.0009
3951.00,0.0009
3950.00,0.0010
3949.00,0.0010
3948.00,0.0010
3947.00,0.0010
3946.00,0.0010
3945.00,0.0009
3944.00,0.0009
3943.00,0.0010
3942.00,0.0010
3941.00,0.0011
3940.00,0.0011
3939.00,0.0011
3938.00,0.0011
3937.00,0.0010
3936.00,0.0010
3935.00,0.0010
3934.00,0.0011
3933.00,0.0011
3932.00,0.0011
3931.00,0.0011
3930.00,0.0011
3929.00,0.0011
3928.00,0.0010
3927.00,0.0010
3926.00,0.0010
3925.00,0.0010
3924.00,0.0010
3923.00,0.0010
3922.00,0.0010
3921.00,0.0010
3920.00,0.0010
3919.00,0.0010
3918.00,0.0010
3917.00,0.0010
3916.00,0.0010
3915.00,0.0010
3914.00,0.0010
3913.00,0.0010
3912.00,0.0010
3911.00,0.0010
3910.00,0.0010
3909.00,0.0010
3908.00,0.0010
3907.00,0.0010
3906.00,0.0010
3905.00,0.0010
3904.00,0.0011
3903.00,0.0012
3902.00,0.0012
3901.00,0.0012
3900.00,0.0011
3899.00,0.0011
3898.00,0.0011
3897.00,0.0010
3896.00,0.0011
3895.00,0.0011
3894.00,0.0011
3893.00,0.0010
3892.00,0.0010
3891.00,0.0011
3890.00,0.0011
3889.00,0.0011
3888.00,0.0012
3887.00,0.0011
3886.00,0.0012
3885.00,0.0012
3884.00,0.0012
3883.00,0.0012
3882.00,0.0011
3881.00,0.0011
3880.00,0.0011
3879.00,0.0011
3878.00,0.0011
3877.00,0.0010
3876.00,0.0010
3875.00,0.0010
3874.00,0.0011
3873.00,0.0012
3872.00,0.0012
3871.00,0.0012
3870.00,0.0011
3869.00,0.0011
3868.00,0.0011
3867.00,0.0011
3866.00,0.0010
3865.00,0.0010
3864.00,0.0010
3863.00,0.0010
3862.00,0.0010
3861.00,0.0010
3860.00,0.0010
3859.00,0.0010
3858.00,0.0010
3857.00,0.0010
3856.00,0.0010
3855.00,0.0010
3854.00,0.0010
3853.00,0.0010
3852.00,0.0010
3851.00,0.0010
3850.00,0.0010
3849.00,0.0010
3848.00,0.0010
3847.00,0.0010
3846.00,0.0010
3845.00,0.0010
3844.00,0.0011
3843.00,0.0011
3842.00,0.0012
3841.00,0.0012
3840.00,0.0012
3839.00,0.0012
3838.00,0.0012
3837.00,0.0011
3836.00,0.0011
3835.00,0.0010
3834.00,0.0009
3833.00,0.0009
3832.00,0.0009
3831.00,0.0010
3830.00,0.0010
3829.00,0.0010
3828.00,0.0009
3827.00,0.0009
3826.00,0.0009
3825.00,0.0010
3824.00,0.0010
3823.00,0.0010
3822.00,0.0010
3821.00,0.0010
3820.00,0.0011
3819.00,0.0010
3818.00,0.0010
3817.00,0.0009
3816.00,0.0010
3815.00,0.0010
3814.00,0.0010
3813.00,0.0010
3812.00,0.0010
3811.00,0.0010
3810.00,0.0010
3809.00,0.0010
3808.00,0.0010
3807.00,0.0010
3806.00,0.0010
3805.00,0.0010
3804.00,0.0010
3803.00,0.0010
3802.00,0.0010
3801.00,0.0010
3800.00,0.0010
3799.00,0.0009
3798.00,0.0009
3797.00,0.0009
3796.00,0.0009
3795.00,0.0010
3794.00,0.0010
3793.00,0.0009
3792.00,0.0009
3791.00,0.0009
3790.00,0.0009
3789.00,0.0009
3788.00,0.0009
3787.00,0.0009
3786.00,0.0009
3785.00,0.0010
3784.00,0.0010
3783.00,0.0010
3782.00,0.0010
3781.00,0.0010
3780.00,0.0010
3779.00,0.0010
3778.00,0.0010
3777.00,0.0010
3776.00,0.0010
3775.00,0.0010
3774.00,0.0010
3773.00,0.0010
3772.00,0.0010
3771.00,0.0010
3770.00,0.0011
3769.00,0.0011
3768.00,0.0011
3767.00,0.0012
3766.00,0.0011
3765.00,0.0011
3764.00,0.0011
3763.00,0.0011
3762.00,0.0011
3761.00,0.0012
3760.00,0.0012
3759.00,0.0012
3758.00,0.0012
3757.00,0.0012
3756.00,0.0012
3755.00,0.0012
3754.00,0.0012
3753.00,0.0012
3752.00,0.0012
3751.00,0.0012
3750.00,0.0012
3749.00,0.0012
3748.00,0.0013
3747.00,0.0012
3746.00,0.0012
3745.00,0.0011
3744.00,0.0011
3743.00,0.0011
3742.00,0.0010
3741.00,0.0010
3740.00,0.0010
3739.00,0.0010
3738.00,0.0010
3737.00,0.0010
3736.00,0.0011
3735.00,0.0011
3734.00,0.0011
3733.00,0.0011
3732.00,0.0010
3731.00,0.0009
3730.00,0.0009
3729.00,0.0008
3728.00,0.0008
3727.00,0.0008
3726.00,0.0008
3725.00,0.0009
3724.00,0.0009
3723.00,0.0010
3722.00,0.0010
3721.00,0.0010
3720.00,0.0009
3719.00,0.0009
3718.00,0.0009
3717.00,0.0009
3716.00,0.0010
3715.00,0.0010
3714.00,0.0010
3713.00,0.0011
3712.00,0.0010
3711.00,0.0010
3710.00,0.0009
3709.00,0.0009
3708.00,0.0008
3707.00,0.0009
3706.00,0.0009
3705.00,0.0009
3704.00,0.0009
3703.00,0.0008
3702.00,0.0008
3701.00,0.0008
3700.00,0.0008
3699.00,0.0008
3698.00,0.0009
3697.00,0.0009
3696.00,0.0009
3695.00,0.0009
3694.00,0.0009
3693.00,0.0009
3692.00,0.0009
3691.00,0.0010
3690.00,0.0010
3689.00,0.0010
3688.00,0.0010
3687.00,0.0010
3686.00,0.0009
3685.00,0.0008
3684.00,0.0008
3683.00,0.0008
3682.00,0.0008
3681.00,0.0009
3680.00,0.0009
3679.00,0.0010
3678.00,0.0010
3677.00,0.0010
3676.00,0.0010
3675.00,0.0010
3674.00,0.0010
3673.00,0.0010
3672.00,0.0010
3671.00,0.0010
3670.00,0.0010
3669.00,0.0010
3668.00,0.0009
3667.00,0.0009
3666.00,0.0008
3665.00,0.0008
3664.00,0.0008
3663.00,0.0008
3662.00,0.0008
3661.00,0.0008
3660.00,0.0008
3659.00,0.0008
3658.00,0.0009
3657.00,0.0009
3656.00,0.0009
3655.00,0.0010
3654.00,0.0010
3653.00,0.0011
3652.00,0.0011
3651.00,0.0010
3650.00,0.0010
3649.00,0.0010
3648.00,0.0010
3647.00,0.0010
3646.00,0.0010
3645.00,0.0010
3644.00,0.0010
3643.00,0.0009
3642.00,0.0009
3641.00,0.0009
3640.00,0.0009
3639.00,0.0009
3638.00,0.0009
3637.00,0.0010
3636.00,0.0010
3635.00,0.0010
3634.00,0.0011
3633.00,0.0011
3632.00,0.0012
3631.00,0.0013
3630.00,0.0013
3629.00,0.0013
3628.00,0.0012
3627.00,0.0012
3626.00,0.0012
3625.00,0.0012
3624.00,0.0013
3623.00,0.0013
3622.00,0.0013
3621.00,0.0013
3620.00,0.0012
3619.00,0.0012
3618.00,0.0012
3617.00,0.0012
3616.00,0.0012
3615.00,0.0013
3614.00,0.0014
3613.00,0.0015
3612.00,0.0015
3611.00,0.0015
3610.00,0.0015
3609.00,0.0015
3608.00,0.0015
3607.00,0.0015
3606.00,0.0014
3605.00,0.0014
3604.00,0.0014
3603.00,0.0014
3602.00,0.0013
3601.00,0.0013
3600.00,0.0014
3599.00,0.0014
3598.00,0.0015
3597.00,0.0015
3596.00,0.0015
3595.00,0.0015
3594.00,0.0015
3593.00,0.0016
3592.00,0.0016
3591.00,0.0016
3590.00,0.0015
3589.00,0.0015
3588.00,0.0015
3587.00,0.0015
3586.00,0.0015
3585.00,0.0015
3584.00,0.0015
3583.00,0.0016
3582.00,0.0016
3581.00,0.0016
3580.00,0.0017
3579.00,0.0017
3578.00,0.0017
3577.00,0.0018
3576.00,0.0018
3575.00,0.0018
3574.00,0.0019
3573.00,0.0019
3572.00,0.0019
3571.00,0.0020
3570.00,0.0020
3569.00,0.0021
3568.00,0.0021
3567.00,0.0021
3566.00,0.0020
3565.00,0.0020
3564.00,0.0020
3563.00,0.0021
3562.00,0.0021
3561.00,0.0021
3560.00,0.0021
3559.00,0.0021
3558.00,0.0022
3557.00,0.0022
3556.00,0.0022
3555.00,0.0022
3554.00,0.0022
3553.00,0.0022
3552.00,0.0022
3551.00,0.0023
3550.00,0.0023
3549.00,0.0023
3548.00,0.0024
3547.00,0.0024
3546.00,0.0024
3545.00,0.0025
3544.00,0.0025
3543.00,0.0025
3542.00,0.0025
3541.00,0.0025
3540.00,0.0025
3539.00,0.0025
3538.00,0.0025
3537.00,0.0025
3536.00,0.0026
3535.00,0.0026
3534.00,0.0026
3533.00,0.0027
3532.00,0.0027
3531.00,0.0027
3530.00,0.0027
3529.00,0.0027
3528.00,0.0028
3527.00,0.0028
3526.00,0.0029
3525.00,0.0029
3524.00,0.0029
3523.00,0.0029
3522.00,0.0029
3521.00,0.0029
3520.00,0.0030
3519.00,0.0030
3518.00,0.0031
3517.00,0.0031
3516.00,0.0031
3515.00,0.0031
3514.00,0.0031
3513.00,0.0031
3512.00,0.0031
3511.00,0.0032
3510.00,0.0032
3509.00,0.0032
3508.00,0.0032
3507.00,0.0032
3506.00,0.0033
3505.00,0.0033
3504.00,0.0033
3503.00,0.0034
3502.00,0.0034
3501.00,0.0034
3500.00,0.0034
3499.00,0.0034
3498.00,0.0034
3497.00,0.0035
3496.00,0.0035
3495.00,0.0036
3494.00,0.0036
3493.00,0.0035
3492.00,0.0035
3491.00,0.0035
3490.00,0.0036
3489.00,0.0036
3488.00,0.0037
3487.00,0.0037
3486.00,0.0037
3485.00,0.0037
3484.00,0.0038
3483.00,0.0038
3482.00,0.0038
3481.00,0.0038
3480.00,0.0038
3479.00,0.0038
3478.00,0.0038
3477.00,0.0038
3476.00,0.0038
3475.00,0.0039
3474.00,0.0039
3473.00,0.0040
3472.00,0.0040
3471.00,0.0041
3470.00,0.0041
3469.00,0.0041
3468.00,0.0041
3467.00,0.0042
3466.00,0.0042
3465.00,0.0042
3464.00,0.0042
3463.00,0.0041
3462.00,0.0041
3461.00,0.0041
3460.00,0.0041
3459.00,0.0042
3458.00,0.0043
3457.00,0.0043
3456.00,0.0044
3455.00,0.0044
3454.00,0.0044
3453.00,0.0044
3452.00,0.0044
3451.00,0.0045
3450.00,0.0045
3449.00,0.0046
3448.00,0.0046
3447.00,0.0046
3446.00,0.0046
3445.00,0.0046
3444.00,0.0046
3443.00,0.0047
3442.00,0.0047
3441.00,0.0047
3440.00,0.0047
3439.00,0.0047
3438.00,0.0047
3437.00,0.0047
3436.00,0.0047
3435.00,0.0048
3434.00,0.0048
3433.00,0.0048
3432.00,0.0049
3431.00,0.0049
3430.00,0.0049
3429.00,0.0049
3428.00,0.0049
3427.00,0.0050
3426.00,0.0050
3425.00,0.0050
3424.00,0.0050
3423.00,0.0050
3422.00,0.0051
3421.00,0.0051
3420.00,0.0051
3419.00,0.0051
3418.00,0.0051
3417.00,0.0051
3416.00,0.0052
3415.00,0.0052
3414.00,0.0052
3413.00,0.0052
3412.00,0.0053
3411.00,0.0053
3410.00,0.0053
3409.00,0.0053
3408.00,0.0053
3407.00,0.0053
3406.00,0.0054
3405.00,0.0054
3404.00,0.0054
3403.00,0.0054
3402.00,0.0054
3401.00,0.0054
3400.00,0.0055
3399.00,0.0055
3398.00,0.0055
3397.00,0.0055
3396.00,0.0056
3395.00,0.0056
3394.00,0.0056
3393.00,0.0056
3392.00,0.0055
3391.00,0.0055
3390.00,0.0055
3389.00,0.0055
3388.00,0.0055
3387.00,0.0055
3386.00,0.0055
3385.00,0.0056
3384.00,0.0056
3383.00,0.0055
3382.00,0.0055
3381.00,0.0055
3380.00,0.0055
3379.00,0.0055
3378.00,0.0055
3377.00,0.0055
3376.00,0.0056
3375.00,0.0056
3374.00,0.0056
3373.00,0.0056
3372.00,0.0056
3371.00,0.0056
3370.00,0.0056
3369.00,0.0056
3368.00,0.0057
3367.00,0.0057
3366.00,0.0057
3365.00,0.0057
3364.00,0.0057
3363.00,0.0057
3362.00,0.0057
3361.00,0.0057
3360.00,0.0057
3359.00,0.0058
3358.00,0.0057
3357.00,0.0057
3356.00,0.0057
3355.00,0.0057
3354.00,0.0057
3353.00,0.0057
3352.00,0.0057
3351.00,0.0057
3350.00,0.0057
3349.00,0.0057
3348.00,0.0057
3347.00,0.0057
3346.00,0.0057
3345.00,0.0057
3344.00,0.0057
3343.00,0.0057
3342.00,0.0057
3341.00,0.0057
3340.00,0.0057
3339.00,0.0057
3338.00,0.0057
3337.00,0.0057
3336.00,0.0057
3335.00,0.0057
3334.00,0.0057
3333.00,0.0057
3332.00,0.0057
3331.00,0.0057
3330.00,0.0057
3329.00,0.0056
3328.00,0.0056
3327.00,0.0056
3326.00,0.0056
3325.00,0.0056
3324.00,0.0056
3323.00,0.0056
3322.00,0.0056
3321.00,0.0055
3320.00,0.0055
3319.00,0.0055
3318.00,0.0055
3317.00,0.0056
3316.00,0.0056
3315.00,0.0056
3314.00,0.0056
3313.00,0.0056
3312.00,0.0056
3311.00,0.0056
3310.00,0.0056
3309.00,0.0056
3308.00,0.0056
3307.00,0.0057
3306.00,0.0057
3305.00,0.0057
3304.00,0.0057
3303.00,0.0057
3302.00,0.0057
3301.00,0.0057
3300.00,0.0057
3299.00,0.0057
3298.00,0.0056
3297.00,0.0056
3296.00,0.0055
3295.00,0.0055
3294.00,0.0055
3293.00,0.0054
3292.00,0.0054
3291.00,0.0053
3290.00,0.0053
3289.00,0.0053
3288.00,0.0053
3287.00,0.0053
3286.00,0.0053
3285.00,0.0053
3284.00,0.0052
3283.00,0.0052
3282.00,0.0052
3281.00,0.0053
3280.00,0.0052
3279.00,0.0052
3278.00,0.0052
3277.00,0.0051
3276.00,0.0051
3275.00,0.0051
3274.00,0.0051
3273.00,0.0051
3272.00,0.0051
3271.00,0.0051
3270.00,0.0051
3269.00,0.0051
3268.00,0.0051
3267.00,0.0050
3266.00,0.0050
3265.00,0.0050
3264.00,0.0050
3263.00,0.0050
3262.00,0.0050
3261.00,0.0050
3260.00,0.0050
3259.00,0.0050
3258.00,0.0049
3257.00,0.0049
3256.00,0.0049
3255.00,0.0049
3254.00,0.0048
3253.00,0.0048
3252.00,0.0048
3251.00,0.0047
3250.00,0.0047
3249.00,0.0047
3248.00,0.0047
3247.00,0.0046
3246.00,0.0046
3245.00,0.0046
3244.00,0.0046
3243.00,0.0046
3242.00,0.0047
3241.00,0.0047
3240.00,0.0047
3239.00,0.0047
3238.00,0.0046
3237.00,0.0046
3236.00,0.0046
3235.00,0.0046
3234.00,0.0046
3233.00,0.0046
3232.00,0.0046
3231.00,0.0046
3230.00,0.0046
3229.00,0.0046
3228.00,0.0046
3227.00,0.0046
3226.00,0.0046
3225.00,0.0046
3224.00,0.0046
3223.00,0.0047
3222.00,0.0047
3221.00,0.0047
3220.00,0.0048
3219.00,0.0048
3218.00,0.0048
3217.00,0.0048
3216.00,0.0047
3215.00,0.0047
3214.00,0.0047
3213.00,0.0048
3212.00,0.0048
3211.00,0.0049
3210.00,0.0049
3209.00,0.0050
3208.00,0.0050
3207.00,0.0050
3206.00,0.0050
3205.00,0.0051
3204.00,0.0051
3203.00,0.0051
3202.00,0.0051
3201.00,0.0050
3200.00,0.0050
3199.00,0.0050
3198.00,0.0050
3197.00,0.0050
3196.00,0.0050
3195.00,0.0050
3194.00,0.0051
3193.00,0.0051
3192.00,0.0051
3191.00,0.0051
3190.00,0.0051
3189.00,0.0050
3188.00,0.0050
3187.00,0.0050
3186.00,0.0050
3185.00,0.0050
3184.00,0.0050
3183.00,0.0050
3182.00,0.0050
3181.00,0.0049
3180.00,0.0049
3179.00,0.0048
3178.00,0.0047
3177.00,0.0047
3176.00,0.0047
3175.00,0.0047
3174.00,0.0047
3173.00,0.0047
3172.00,0.0047
3171.00,0.0046
3170.00,0.0046
3169.00,0.0046
3168.00,0.0046
3167.00,0.0046
3166.00,0.0046
3165.00,0.0045
3164.00,0.0045
3163.00,0.0045
3162.00,0.0046
3161.00,0.0046
3160.00,0.0045
3159.00,0.0045
3158.00,0.0045
3157.00,0.0045
3156.00,0.0045
3155.00,0.0044
3154.00,0.0044
3153.00,0.0044
3152.00,0.0044
3151.00,0.0044
3150.00,0.0045
3149.00,0.0045
3148.00,0.0045
3147.00,0.0045
3146.00,0.0044
3145.00,0.0044
3144.00,0.0044
3143.00,0.0044
3142.00,0.0043
3141.00,0.0043
3140.00,0.0043
3139.00,0.0042
3138.00,0.0042
3137.00,0.0042
3136.00,0.0042
3135.00,0.0042
3134.00,0.0042
3133.00,0.0041
3132.00,0.0041
3131.00,0.0041
3130.00,0.0041
3129.00,0.0040
3128.00,0.0040
3127.00,0.0040
3126.00,0.0040
3125.00,0.0040
3124.00,0.0040
3123.00,0.0039
3122.00,0.0039
3121.00,0.0039
3120.00,0.0038
3119.00,0.0038
3118.00,0.0038
3117.00,0.0037
3116.00,0.0037
3115.00,0.0037
3114.00,0.0037
3113.00,0.0037
3112.00,0.0037
3111.00,0.0037
3110.00,0.0037
3109.00,0.0037
3108.00,0.0037
3107.00,0.0037
3106.00,0.0036
3105.00,0.0036
3104.00,0.0035
3103.00,0.0035
3102.00,0.0035
3101.00,0.0035
3100.00,0.0035
3099.00,0.0035
3098.00,0.0035
3097.00,0.0035
3096.00,0.0035
3095.00,0.0035
3094.00,0.0035
3093.00,0.0035
3092.00,0.0035
3091.00,0.0035
3090.00,0.0035
3089.00,0.0035
3088.00,0.0035
3087.00,0.0035
3086.00,0.0035
3085.00,0.0035
3084.00,0.0034
3083.00,0.0034
3082.00,0.0034
3081.00,0.0033
3080.00,0.0033
3079.00,0.0034
3078.00,0.0034
3077.00,0.0034
3076.00,0.0035
3075.00,0.0034
3074.00,0.0034
3073.00,0.0034
3072.00,0.0034
3071.00,0.0034
3070.00,0.0035
3069.00,0.0035
3068.00,0.0035
3067.00,0.0035
3066.00,0.0036
3065.00,0.0036
3064.00,0.0036
3063.00,0.0036
3062.00,0.0036
3061.00,0.0036
3060.00,0.0036
3059.00,0.0036
3058.00,0.0036
3057.00,0.0037
3056.00,0.0037
3055.00,0.0037
3054.00,0.0037
3053.00,0.0037
3052.00,0.0037
3051.00,0.0037
3050.00,0.0037
3049.00,0.0038
3048.00,0.0038
3047.00,0.0038
3046.00,0.0038
3045.00,0.0038
3044.00,0.0038
3043.00,0.0039
3042.00,0.0039
3041.00,0.0040
3040.00,0.0040
3039.00,0.0040
3038.00,0.0041
3037.00,0.0041
3036.00,0.0041
3035.00,0.0041
3034.00,0.0041
3033.00,0.0041
3032.00,0.0042
3031.00,0.0042
3030.00,0.0042
3029.00,0.0043
3028.00,0.0043
3027.00,0.0044
3026.00,0.0045
3025.00,0.0046
3024.00,0.0047
3023.00,0.0048
3022.00,0.0048
3021.00,0.0049
3020.00,0.0049
3019.00,0.0049
3018.00,0.0050
3017.00,0.0050
3016.00,0.0051
3015.00,0.0052
3014.00,0.0053
3013.00,0.0054
3012.00,0.0055
3011.00,0.0056
3010.00,0.0057
3009.00,0.0058
3008.00,0.0059
3007.00,0.0060
3006.00,0.0061
3005.00,0.0063
3004.00,0.0064
3003.00,0.0066
3002.00,0.0068
3001.00,0.0070
3000.00,0.0072
2999.00,0.0074
2998.00,0.0077
2997.00,0.0081
2996.00,0.0084
2995.00,0.0088
2994.00,0.0092
2993.00,0.0096
2992.00,0.0101
2991.00,0.0106
2990.00,0.0112
2989.00,0.0119
2988.00,0.0127
2987.00,0.0135
2986.00,0.0144
2985.00,0.0154
2984.00,0.0164
2983.00,0.0176
2982.00,0.0191
2981.00,0.0208
2980.00,0.0228
2979.00,0.0251
2978.00,0.0277
2977.00,0.0307
2976.00,0.0340
2975.00,0.0378
2974.00,0.0421
2973.00,0.0471
2972.00,0.0527
2971.00,0.0591
2970.00,0.0662
2969.00,0.0741
2968.00,0.0827
2967.00,0.0920
2966.00,0.1018
2965.00,0.1120
2964.00,0.1222
2963.00,0.1319
2962.00,0.1406
2961.00,0.1478
2960.00,0.1535
2959.00,0.1578
2958.00,0.1612
2957.00,0.1642
2956.00,0.1675
2955.00,0.1714
2954.00,0.1759
2953.00,0.1806
2952.00,0.1846
2951.00,0.1869
2950.00,0.1864
2949.00,0.1827
2948.00,0.1757
2947.00,0.1658
2946.00,0.1542
2945.00,0.1421
2944.00,0.1307
2943.00,0.1211
2942.00,0.1136
2941.00,0.1085
2940.00,0.1057
2939.00,0.1050
2938.00,0.1062
2937.00,0.1091
2936.00,0.1136
2935.00,0.1194
2934.00,0.1266
2933.00,0.1349
2932.00,0.1443
2931.00,0.1544
2930.00,0.1651
2929.00,0.1761
2928.00,0.1870
2927.00,0.1976
2926.00,0.2077
2925.00,0.2175
2924.00,0.2268
2923.00,0.2359
2922.00,0.2447
2921.00,0.2528
2920.00,0.2599
2919.00,0.2649
2918.00,0.2670
2917.00,0.2657
2916.00,0.2611
2915.00,0.2536
2914.00,0.2444
2913.00,0.2346
2912.00,0.2250
2911.00,0.2163
2910.00,0.2087
2909.00,0.2019
2908.00,0.1956
2907.00,0.1897
2906.00,0.1837
2905.00,0.1776
2904.00,0.1712
2903.00,0.1647
2902.00,0.1582
2901.00,0.1516
2900.00,0.1453
2899.00,0.1392
2898.00,0.1335
2897.00,0.1282
2896.00,0.1234
2895.00,0.1192
2894.00,0.1156
2893.00,0.1126
2892.00,0.1101
2891.00,0.1083
2890.00,0.1069
2889.00,0.1059
2888.00,0.1054
2887.00,0.1051
2886.00,0.1052
2885.00,0.1056
2884.00,0.1064
2883.00,0.1077
2882.00,0.1093
2881.00,0.1112
2880.00,0.1131
2879.00,0.1146
2878.00,0.1155
2877.00,0.1156
2876.00,0.1151
2875.00,0.1144
2874.00,0.1139
2873.00,0.1139
2872.00,0.1146
2871.00,0.1159
2870.00,0.1176
2869.00,0.1192
2868.00,0.1201
2867.00,0.1195
2866.00,0.1171
2865.00,0.1126
2864.00,0.1066
2863.00,0.0997
2862.00,0.0930
2861.00,0.0872
2860.00,0.0828
2859.00,0.0799
2858.00,0.0785
2857.00,0.0782
2856.00,0.0789
2855.00,0.0803
2854.00,0.0822
2853.00,0.0845
2852.00,0.0867
2851.00,0.0886
2850.00,0.0900
2849.00,0.0909
2848.00,0.0916
2847.00,0.0927
2846.00,0.0946
2845.00,0.0976
2844.00,0.1017
2843.00,0.1067
2842.00,0.1120
2841.00,0.1171
2840.00,0.1210
2839.00,0.1230
2838.00,0.1225
2837.00,0.1189
2836.00,0.1124
2835.00,0.1035
2834.00,0.0931
2833.00,0.0824
2832.00,0.0722
2831.00,0.0631
2830.00,0.0555
2829.00,0.0492
2828.00,0.0441
2827.00,0.0400
2826.00,0.0366
2825.00,0.0338
2824.00,0.0314
2823.00,0.0294
2822.00,0.0277
2821.00,0.0262
2820.00,0.0249
2819.00,0.0238
2818.00,0.0228
2817.00,0.0219
2816.00,0.0212
2815.00,0.0205
2814.00,0.0198
2813.00,0.0192
2812.00,0.0187
2811.00,0.0181
2810.00,0.0176
2809.00,0.0170
2808.00,0.0165
2807.00,0.0159
2806.00,0.0153
2805.00,0.0147
2804.00,0.0141
2803.00,0.0135
2802.00,0.0129
2801.00,0.0125
2800.00,0.0121
2799.00,0.0118
2798.00,0.0115
2797.00,0.0113
2796.00,0.0111
2795.00,0.0108
2794.00,0.0106
2793.00,0.0103
2792.00,0.0100
2791.00,0.0097
2790.00,0.0094
2789.00,0.0090
2788.00,0.0087
2787.00,0.0084
2786.00,0.0082
2785.00,0.0079
2784.00,0.0077
2783.00,0.0074
2782.00,0.0072
2781.00,0.0069
2780.00,0.0068
2779.00,0.0066
2778.00,0.0065
2777.00,0.0064
2776.00,0.0063
2775.00,0.0061
2774.00,0.0060
2773.00,0.0060
2772.00,0.0059
2771.00,0.0059
2770.00,0.0059
2769.00,0.0058
2768.00,0.0058
2767.00,0.0057
2766.00,0.0057
2765.00,0.0056
2764.00,0.0056
2763.00,0.0056
2762.00,0.0056
2761.00,0.0055
2760.00,0.0055
2759.00,0.0054
2758.00,0.0054
2757.00,0.0054
2756.00,0.0054
2755.00,0.0054
2754.00,0.0054
2753.00,0.0054
2752.00,0.0053
2751.00,0.0053
2750.00,0.0053
2749.00,0.0053
2748.00,0.0053
2747.00,0.0053
2746.00,0.0054
2745.00,0.0054
2744.00,0.0055
2743.00,0.0055
2742.00,0.0056
2741.00,0.0058
2740.00,0.0059
2739.00,0.0060
2738.00,0.0061
2737.00,0.0063
2736.00,0.0064
2735.00,0.0064
2734.00,0.0066
2733.00,0.0067
2732.00,0.0069
2731.00,0.0070
2730.00,0.0073
2729.00,0.0075
2728.00,0.0077
2727.00,0.0080
2726.00,0.0082
2725.00,0.0084
2724.00,0.0086
2723.00,0.0086
2722.00,0.0085
2721.00,0.0084
2720.00,0.0082
2719.00,0.0079
2718.00,0.0076
2717.00,0.0073
2716.00,0.0070
2715.00,0.0067
2714.00,0.0065
2713.00,0.0063
2712.00,0.0061
2711.00,0.0060
2710.00,0.0058
2709.00,0.0057
2708.00,0.0056
2707.00,0.0055
2706.00,0.0053
2705.00,0.0052
2704.00,0.0050
2703.00,0.0049
2702.00,0.0048
2701.00,0.0047
2700.00,0.0047
2699.00,0.0046
2698.00,0.0046
2697.00,0.0046
2696.00,0.0046
2695.00,0.0046
2694.00,0.0046
2693.00,0.0046
2692.00,0.0046
2691.00,0.0047
2690.00,0.0047
2689.00,0.0046
2688.00,0.0046
2687.00,0.0046
2686.00,0.0046
2685.00,0.0046
2684.00,0.0046
2683.00,0.0046
2682.00,0.0046
2681.00,0.0046
2680.00,0.0046
2679.00,0.0047
2678.00,0.0047
2677.00,0.0047
2676.00,0.0046
2675.00,0.0046
2674.00,0.0046
2673.00,0.0046
2672.00,0.0045
2671.00,0.0045
2670.00,0.0045
2669.00,0.0045
2668.00,0.0045
2667.00,0.0045
2666.00,0.0046
2665.00,0.0047
2664.00,0.0048
2663.00,0.0048
2662.00,0.0048
2661.00,0.0048
2660.00,0.0048
2659.00,0.0048
2658.00,0.0048
2657.00,0.0048
2656.00,0.0048
2655.00,0.0047
2654.00,0.0046
2653.00,0.0046
2652.00,0.0045
2651.00,0.0045
2650.00,0.0045
2649.00,0.0045
2648.00,0.0045
2647.00,0.0044
2646.00,0.0044
2645.00,0.0043
2644.00,0.0042
2643.00,0.0042
2642.00,0.0041
2641.00,0.0041
2640.00,0.0040
2639.00,0.0040
2638.00,0.0040
2637.00,0.0040
2636.00,0.0041
2635.00,0.0041
2634.00,0.0041
2633.00,0.0041
2632.00,0.0041
2631.00,0.0041
2630.00,0.0041
2629.00,0.0041
2628.00,0.0041
2627.00,0.0041
2626.00,0.0041
2625.00,0.0040
2624.00,0.0040
2623.00,0.0040
2622.00,0.0040
2621.00,0.0041
2620.00,0.0041
2619.00,0.0041
2618.00,0.0041
2617.00,0.0041
2616.00,0.0040
2615.00,0.0040
2614.00,0.0040
2613.00,0.0039
2612.00,0.0039
2611.00,0.0038
2610.00,0.0038
2609.00,0.0037
2608.00,0.0037
2607.00,0.0036
2606.00,0.0035
2605.00,0.0034
2604.00,0.0034
2603.00,0.0033
2602.00,0.0032
2601.00,0.0032
2600.00,0.0033
2599.00,0.0033
2598.00,0.0033
2597.00,0.0033
2596.00,0.0033
2595.00,0.0033
2594.00,0.0033
2593.00,0.0033
2592.00,0.0034
2591.00,0.0034
2590.00,0.0035
2589.00,0.0035
2588.00,0.0036
2587.00,0.0037
2586.00,0.0038
2585.00,0.0039
2584.00,0.0039
2583.00,0.0039
2582.00,0.0038
2581.00,0.0038
2580.00,0.0038
2579.00,0.0038
2578.00,0.0037
2577.00,0.0037
2576.00,0.0035
2575.00,0.0034
2574.00,0.0033
2573.00,0.0032
2572.00,0.0031
2571.00,0.0030
2570.00,0.0029
2569.00,0.0029
2568.00,0.0028
2567.00,0.0028
2566.00,0.0027
2565.00,0.0026
2564.00,0.0026
2563.00,0.0026
2562.00,0.0025
2561.00,0.0026
2560.00,0.0026
2559.00,0.0025
2558.00,0.0025
2557.00,0.0024
2556.00,0.0024
2555.00,0.0022
2554.00,0.0021
2553.00,0.0021
2552.00,0.0021
2551.00,0.0021
2550.00,0.0021
2549.00,0.0020
2548.00,0.0020
2547.00,0.0020
2546.00,0.0020
2545.00,0.0020
2544.00,0.0020
2543.00,0.0020
2542.00,0.0019
2541.00,0.0019
2540.00,0.0018
2539.00,0.0017
2538.00,0.0017
2537.00,0.0017
2536.00,0.0017
2535.00,0.0016
2534.00,0.0016
2533.00,0.0015
2532.00,0.0015
2531.00,0.0015
2530.00,0.0016
2529.00,0.0017
2528.00,0.0017
2527.00,0.0016
2526.00,0.0016
2525.00,0.0015
2524.00,0.0015
2523.00,0.0015
2522.00,0.0014
2521.00,0.0014
2520.00,0.0013
2519.00,0.0013
2518.00,0.0013
2517.00,0.0013
2516.00,0.0014
2515.00,0.0013
2514.00,0.0013
2513.00,0.0013
2512.00,0.0013
2511.00,0.0013
2510.00,0.0013
2509.00,0.0012
2508.00,0.0012
2507.00,0.0012
2506.00,0.0012
2505.00,0.0012
2504.00,0.0012
2503.00,0.0012
2502.00,0.0012
2501.00,0.0012
2500.00,0.0012
2499.00,0.0011
2498.00,0.0011
2497.00,0.0012
2496.00,0.0012
2495.00,0.0012
2494.00,0.0012
2493.00,0.0012
2492.00,0.0012
2491.00,0.0012
2490.00,0.0012
2489.00,0.0012
2488.00,0.0012
2487.00,0.0012
2486.00,0.0011
2485.00,0.0011
2484.00,0.0010
2483.00,0.0010
2482.00,0.0010
2481.00,0.0010
2480.00,0.0010
2479.00,0.0010
2478.00,0.0010
2477.00,0.0010
2476.00,0.0010
2475.00,0.0011
2474.00,0.0011
2473.00,0.0011
2472.00,0.0011
2471.00,0.0010
2470.00,0.0010
2469.00,0.0011
2468.00,0.0011
2467.00,0.0011
2466.00,0.0011
2465.00,0.0011
2464.00,0.0011
2463.00,0.0012
2462.00,0.0012
2461.00,0.0012
2460.00,0.0012
2459.00,0.0013
2458.00,0.0012
2457.00,0.0012
2456.00,0.0011
2455.00,0.0011
2454.00,0.0012
2453.00,0.0012
2452.00,0.0013
2451.00,0.0013
2450.00,0.0013
2449.00,0.0013
2448.00,0.0012
2447.00,0.0011
2446.00,0.0011
2445.00,0.0011
2444.00,0.0011
2443.00,0.0012
2442.00,0.0012
2441.00,0.0012
2440.00,0.0012
2439.00,0.0012
2438.00,0.0012
2437.00,0.0012
2436.00,0.0013
2435.00,0.0013
2434.00,0.0013
2433.00,0.0014
2432.00,0.0014
2431.00,0.0015
2430.00,0.0015
2429.00,0.0015
2428.00,0.0014
2427.00,0.0013
2426.00,0.0013
2425.00,0.0012
2424.00,0.0012
2423.00,0.0012
2422.00,0.0012
2421.00,0.0012
2420.00,0.0012
2419.00,0.0011
2418.00,0.0011
2417.00,0.0011
2416.00,0.0011
2415.00,0.0011
2414.00,0.0010
2413.00,0.0011
2412.00,0.0011
2411.00,0.0011
2410.00,0.0012
2409.00,0.0011
2408.00,0.0011
2407.00,0.0011
2406.00,0.0010
2405.00,0.0010
2404.00,0.0010
2403.00,0.0010
2402.00,0.0010
2401.00,0.0010
2400.00,0.0009
2399.00,0.0009
2398.00,0.0009
2397.00,0.0009
2396.00,0.0009
2395.00,0.0010
2394.00,0.0010
2393.00,0.0009
2392.00,0.0009
2391.00,0.0009
2390.00,0.0009
2389.00,0.0009
2388.00,0.0009
2387.00,0.0009
2386.00,0.0008
2385.00,0.0008
2384.00,0.0007
2383.00,0.0007
2382.00,0.0006
2381.00,0.0006
2380.00,0.0005
2379.00,0.0005
2378.00,0.0006
2377.00,0.0006
2376.00,0.0007
2375.00,0.0007
2374.00,0.0007
2373.00,0.0007
2372.00,0.0007
2371.00,0.0007
2370.00,0.0006
2369.00,0.0005
2368.00,0.0005
2367.00,0.0005
2366.00,0.0006
2365.00,0.0006
2364.00,0.0007
2363.00,0.0007
2362.00,0.0008
2361.00,0.0009
2360.00,0.0009
2359.00,0.0010
2358.00,0.0010
2357.00,0.0009
2356.00,0.0009
2355.00,0.0009
2354.00,0.0009
2353.00,0.0008
2352.00,0.0008
2351.00,0.0008
2350.00,0.0009
2349.00,0.0009
2348.00,0.0008
2347.00,0.0008
2346.00,0.0008
2345.00,0.0009
2344.00,0.0010
2343.00,0.0011
2342.00,0.0012
2341.00,0.0012
2340.00,0.0011
2339.00,0.0011
2338.00,0.0010
2337.00,0.0011
2336.00,0.0011
2335.00,0.0012
2334.00,0.0012
2333.00,0.0011
2332.00,0.0011
2331.00,0.0010
2330.00,0.0010
2329.00,0.0010
2328.00,0.0011
2327.00,0.0014
2326.00,0.0018
2325.00,0.0022
2324.00,0.0023
2323.00,0.0023
2322.00,0.0021
2321.00,0.0019
2320.00,0.0018
2319.00,0.0017
2318.00,0.0017
2317.00,0.0016
2316.00,0.0014
2315.00,0.0013
2314.00,0.0012
2313.00,0.0012
2312.00,0.0011
2311.00,0.0010
2310.00,0.0010
2309.00,0.0010
2308.00,0.0010
2307.00,0.0010
2306.00,0.0011
2305.00,0.0011
2304.00,0.0012
2303.00,0.0012
2302.00,0.0013
2301.00,0.0013
2300.00,0.0013
2299.00,0.0013
2298.00,0.0014
2297.00,0.0014
2296.00,0.0015
2295.00,0.0015
2294.00,0.0015
2293.00,0.0015
2292.00,0.0015
2291.00,0.0016
2290.00,0.0016
2289.00,0.0017
2288.00,0.0018
2287.00,0.0019
2286.00,0.0020
2285.00,0.0019
2284.00,0.0018
2283.00,0.0017
2282.00,0.0016
2281.00,0.0017
2280.00,0.0017
2279.00,0.0017
2278.00,0.0016
2277.00,0.0015
2276.00,0.0015
2275.00,0.0015
2274.00,0.0015
2273.00,0.0014
2272.00,0.0014
2271.00,0.0013
2270.00,0.0013
2269.00,0.0014
2268.00,0.0013
2267.00,0.0013
2266.00,0.0012
2265.00,0.0011
2264.00,0.0010
2263.00,0.0010
2262.00,0.0011
2261.00,0.0012
2260.00,0.0013
2259.00,0.0014
2258.00,0.0014
2257.00,0.0013
2256.00,0.0013
2255.00,0.0012
2254.00,0.0011
2253.00,0.0010
2252.00,0.0010
2251.00,0.0010
2250.00,0.0009
2249.00,0.0009
2248.00,0.0009
2247.00,0.0009
2246.00,0.0009
2245.00,0.0010
2244.00,0.0011
2243.00,0.0011
2242.00,0.0012
2241.00,0.0012
2240.00,0.0012
2239.00,0.0012
2238.00,0.0011
2237.00,0.0011
2236.00,0.0011
2235.00,0.0011
2234.00,0.0011
2233.00,0.0011
2232.00,0.0012
2231.00,0.0013
2230.00,0.0013
2229.00,0.0012
2228.00,0.0011
2227.00,0.0009
2226.00,0.0008
2225.00,0.0008
2224.00,0.0008
2223.00,0.0008
2222.00,0.0008
2221.00,0.0008
2220.00,0.0007
2219.00,0.0007
2218.00,0.0006
2217.00,0.0006
2216.00,0.0006
2215.00,0.0006
2214.00,0.0008
2213.00,0.0009
2212.00,0.0010
2211.00,0.0010
2210.00,0.0008
2209.00,0.0007
2208.00,0.0007
2207.00,0.0007
2206.00,0.0008
2205.00,0.0008
2204.00,0.0007
2203.00,0.0007
2202.00,0.0008
2201.00,0.0009
2200.00,0.0010
2199.00,0.0012
2198.00,0.0012
2197.00,0.0011
2196.00,0.0009
2195.00,0.0008
2194.00,0.0009
2193.00,0.0010
2192.00,0.0013
2191.00,0.0015
2190.00,0.0017
2189.00,0.0018
2188.00,0.0018
2187.00,0.0018
2186.00,0.0018
2185.00,0.0018
2184.00,0.0016
2183.00,0.0013
2182.00,0.0009
2181.00,0.0005
2180.00,0.0005
2179.00,0.0006
2178.00,0.0008
2177.00,0.0009
2176.00,0.0008
2175.00,0.0007
2174.00,0.0007
2173.00,0.0009
2172.00,0.0012
2171.00,0.0015
2170.00,0.0017
2169.00,0.0018
2168.00,0.0019
2167.00,0.0018
2166.00,0.0018
2165.00,0.0018
2164.00,0.0019
2163.00,0.0022
2162.00,0.0025
2161.00,0.0022
2160.00,0.0012
2159.00,-0.0003
2158.00,-0.0015
2157.00,-0.0021
2156.00,-0.0021
2155.00,-0.0018
2154.00,-0.0015
2153.00,-0.0012
2152.00,-0.0009
2151.00,-0.0008
2150.00,-0.0008
2149.00,-0.0008
2148.00,-0.0009
2147.00,-0.0010
2146.00,-0.0011
2145.00,-0.0011
2144.00,-0.0010
2143.00,-0.0008
2142.00,-0.0007
2141.00,-0.0006
2140.00,-0.0008
2139.00,-0.0011
2138.00,-0.0014
2137.00,-0.0015
2136.00,-0.0016
2135.00,-0.0017
2134.00,-0.0018
2133.00,-0.0020
2132.00,-0.0019
2131.00,-0.0017
2130.00,-0.0014
2129.00,-0.0010
2128.00,-0.0008
2127.00,-0.0006
2126.00,-0.0005
2125.00,-0.0004
2124.00,-0.0004
2123.00,-0.0005
2122.00,-0.0005
2121.00,-0.0005
2120.00,-0.0004
2119.00,-0.0004
2118.00,-0.0003
2117.00,-0.0002
2116.00,0.0000
2115.00,0.0002
2114.00,0.0003
2113.00,0.0004
2112.00,0.0004
2111.00,0.0005
2110.00,0.0006
2109.00,0.0007
2108.00,0.0007
2107.00,0.0006
2106.00,0.0005
2105.00,0.0004
2104.00,0.0003
2103.00,0.0002
2102.00,0.0002
2101.00,0.0003
2100.00,0.0003
2099.00,0.0003
2098.00,0.0002
2097.00,0.0002
2096.00,0.0001
2095.00,-0.0000
2094.00,-0.0001
2093.00,-0.0000
2092.00,0.0001
2091.00,0.0002
2090.00,0.0002
2089.00,0.0002
2088.00,0.0001
2087.00,0.0000
2086.00,-0.0000
2085.00,-0.0001
2084.00,-0.0001
2083.00,-0.0001
2082.00,-0.0000
2081.00,0.0001
2080.00,0.0003
2079.00,0.0004
2078.00,0.0004
2077.00,0.0005
2076.00,0.0005
2075.00,0.0003
2074.00,0.0001
2073.00,-0.0000
2072.00,-0.0000
2071.00,0.0000
2070.00,0.0002
2069.00,0.0003
2068.00,0.0003
2067.00,0.0002
2066.00,0.0001
2065.00,0.0001
2064.00,0.0001
2063.00,0.0001
2062.00,0.0003
2061.00,0.0005
2060.00,0.0006
2059.00,0.0006
2058.00,0.0005
2057.00,0.0004
2056.00,0.0005
2055.00,0.0006
2054.00,0.0007
2053.00,0.0010
2052.00,0.0013
2051.00,0.0016
2050.00,0.0017
2049.00,0.0014
2048.00,0.0012
2047.00,0.0009
2046.00,0.0007
2045.00,0.0004
2044.00,0.0002
2043.00,0.0001
2042.00,0.0001
2041.00,0.0002
2040.00,0.0002
2039.00,0.0001
2038.00,-0.0001
2037.00,-0.0002
2036.00,-0.0003
2035.00,-0.0003
2034.00,-0.0005
2033.00,-0.0007
2032.00,-0.0009
2031.00,-0.0010
2030.00,-0.0010
2029.00,-0.0007
2028.00,-0.0005
2027.00,-0.0005
2026.00,-0.0007
2025.00,-0.0010
2024.00,-0.0011
2023.00,-0.0010
2022.00,-0.0009
2021.00,-0.0007
2020.00,-0.0007
2019.00,-0.0008
2018.00,-0.0009
2017.00,-0.0009
2016.00,-0.0008
2015.00,-0.0008
2014.00,-0.0009
2013.00,-0.0010
2012.00,-0.0011
2011.00,-0.0011
2010.00,-0.0011
2009.00,-0.0011
2008.00,-0.0012
2007.00,-0.0015
2006.00,-0.0018
2005.00,-0.0018
2004.00,-0.0016
2003.00,-0.0014
2002.00,-0.0014
2001.00,-0.0013
2000.00,-0.0013
1999.00,-0.0013
1998.00,-0.0013
1997.00,-0.0014
1996.00,-0.0014
1995.00,-0.0014
1994.00,-0.0012
1993.00,-0.0010
1992.00,-0.0007
1991.00,-0.0006
1990.00,-0.0006
1989.00,-0.0007
1988.00,-0.0008
1987.00,-0.0008
1986.00,-0.0007
1985.00,-0.0004
1984.00,0.0001
1983.00,0.0006
1982.00,0.0009
1981.00,0.0010
1980.00,0.0006
1979.00,-0.0001
1978.00,-0.0009
1977.00,-0.0015
1976.00,-0.0017
1975.00,-0.0016
1974.00,-0.0015
1973.00,-0.0014
1972.00,-0.0014
1971.00,-0.0015
1970.00,-0.0016
1969.00,-0.0015
1968.00,-0.0013
1967.00,-0.0010
1966.00,-0.0009
1965.00,-0.0008
1964.00,-0.0008
1963.00,-0.0009
1962.00,-0.0011
1961.00,-0.0013
1960.00,-0.0014
1959.00,-0.0014
1958.00,-0.0014
1957.00,-0.0015
1956.00,-0.0015
1955.00,-0.0016
1954.00,-0.0016
1953.00,-0.0016
1952.00,-0.0016
1951.00,-0.0016
1950.00,-0.0015
1949.00,-0.0014
1948.00,-0.0013
1947.00,-0.0013
1946.00,-0.0013
1945.00,-0.0013
1944.00,-0.0012
1943.00,-0.0012
1942.00,-0.0012
1941.00,-0.0012
1940.00,-0.0013
1939.00,-0.0012
1938.00,-0.0011
1937.00,-0.0010
1936.00,-0.0008
1935.00,-0.0008
1934.00,-0.0007
1933.00,-0.0007
1932.00,-0.0006
1931.00,-0.0007
1930.00,-0.0008
1929.00,-0.0009
1928.00,-0.0008
1927.00,-0.0007
1926.00,-0.0006
1925.00,-0.0005
1924.00,-0.0004
1923.00,-0.0003
1922.00,-0.0002
1921.00,-0.0002
1920.00,-0.0001
1919.00,-0.0002
1918.00,-0.0001
1917.00,-0.0001
1916.00,-0.0000
1915.00,-0.0000
1914.00,-0.0001
1913.00,-0.0001
1912.00,-0.0002
1911.00,-0.0002
1910.00,-0.0001
1909.00,-0.0001
1908.00,-0.0001
1907.00,-0.0001
1906.00,-0.0002
1905.00,-0.0002
1904.00,-0.0001
1903.00,-0.0000
1902.00,0.0001
1901.00,0.0001
1900.00,0.0001
1899.00,0.0000
1898.00,0.0000
1897.00,-0.0000
1896.00,-0.0000
1895.00,-0.0001
1894.00,-0.0001
1893.00,-0.0000
1892.00,-0.0000
1891.00,0.0000
1890.00,0.0000
1889.00,0.0001
1888.00,0.0001
1887.00,0.0001
1886.00,0.0001
1885.00,0.0000
1884.00,-0.0000
1883.00,-0.0001
1882.00,-0.0001
1881.00,-0.0001
1880.00,-0.0002
1879.00,-0.0002
1878.00,-0.0001
1877.00,-0.0001
1876.00,0.0000
1875.00,0.0001
1874.00,0.0001
1873.00,0.0002
1872.00,0.0002
1871.00,0.0001
1870.00,0.0001
1869.00,0.0002
1868.00,0.0002
1867.00,0.0003
1866.00,0.0003
1865.00,0.0003
1864.00,0.0002
1863.00,0.0001
1862.00,0.0000
1861.00,0.0000
1860.00,0.0000
1859.00,0.0001
1858.00,0.0002
1857.00,0.0002
1856.00,0.0002
1855.00,0.0002
1854.00,0.0002
1853.00,0.0003
1852.00,0.0003
1851.00,0.0003
1850.00,0.0003
1849.00,0.0002
1848.00,0.0002
1847.00,0.0002
1846.00,0.0002
1845.00,0.0003
1844.00,0.0004
1843.00,0.0004
1842.00,0.0003
1841.00,0.0002
1840.00,0.0002
1839.00,0.0002
1838.00,0.0003
1837.00,0.0003
1836.00,0.0003
1835.00,0.0003
1834.00,0.0004
1833.00,0.0004
1832.00,0.0004
1831.00,0.0004
1830.00,0.0005
1829.00,0.0006
1828.00,0.0006
1827.00,0.0006
1826.00,0.0006
1825.00,0.0006
1824.00,0.0006
1823.00,0.0006
1822.00,0.0006
1821.00,0.0005
1820.00,0.0005
1819.00,0.0003
1818.00,0.0002
1817.00,0.0002
1816.00,0.0002
1815.00,0.0002
1814.00,0.0002
1813.00,0.0003
1812.00,0.0003
1811.00,0.0004
1810.00,0.0005
1809.00,0.0005
1808.00,0.0006
1807.00,0.0006
1806.00,0.0006
1805.00,0.0007
1804.00,0.0007
1803.00,0.0007
1802.00,0.0007
1801.00,0.0006
1800.00,0.0007
1799.00,0.0007
1798.00,0.0008
1797.00,0.0008
1796.00,0.0009
1795.00,0.0008
1794.00,0.0008
1793.00,0.0007
1792.00,0.0007
1791.00,0.0007
1790.00,0.0007
1789.00,0.0008
1788.00,0.0008
1787.00,0.0008
1786.00,0.0008
1785.00,0.0009
1784.00,0.0008
1783.00,0.0008
1782.00,0.0008
1781.00,0.0008
1780.00,0.0008
1779.00,0.0008
1778.00,0.0008
1777.00,0.0008
1776.00,0.0008
1775.00,0.0008
1774.00,0.0008
1773.00,0.0009
1772.00,0.0009
1771.00,0.0010
1770.00,0.0011
1769.00,0.0012
1768.00,0.0013
1767.00,0.0012
1766.00,0.0011
1765.00,0.0011
1764.00,0.0010
1763.00,0.0010
1762.00,0.0010
1761.00,0.0011
1760.00,0.0011
1759.00,0.0011
1758.00,0.0011
1757.00,0.0012
1756.00,0.0012
1755.00,0.0013
1754.00,0.0013
1753.00,0.0015
1752.00,0.0016
1751.00,0.0017
1750.00,0.0016
1749.00,0.0016
1748.00,0.0017
1747.00,0.0017
1746.00,0.0017
1745.00,0.0017
1744.00,0.0018
1743.00,0.0018
1742.00,0.0018
1741.00,0.0018
1740.00,0.0019
1739.00,0.0020
1738.00,0.0020
1737.00,0.0020
1736.00,0.0020
1735.00,0.0020
1734.00,0.0021
1733.00,0.0021
1732.00,0.0022
1731.00,0.0022
1730.00,0.0022
1729.00,0.0023
1728.00,0.0023
1727.00,0.0024
1726.00,0.0024
1725.00,0.0024
1724.00,0.0024
1723.00,0.0025
1722.00,0.0025
1721.00,0.0026
1720.00,0.0026
1719.00,0.0025
1718.00,0.0025
1717.00,0.0025
1716.00,0.0024
1715.00,0.0024
1714.00,0.0024
1713.00,0.0023
1712.00,0.0024
1711.00,0.0024
1710.00,0.0024
1709.00,0.0025
1708.00,0.0025
1707.00,0.0025
1706.00,0.0025
1705.00,0.0025
1704.00,0.0026
1703.00,0.0026
1702.00,0.0027
1701.00,0.0028
1700.00,0.0029
1699.00,0.0029
1698.00,0.0030
1697.00,0.0030
1696.00,0.0030
1695.00,0.0031
1694.00,0.0031
1693.00,0.0032
1692.00,0.0033
1691.00,0.0034
1690.00,0.0035
1689.00,0.0036
1688.00,0.0037
1687.00,0.0038
1686.00,0.0038
1685.00,0.0039
1684.00,0.0041
1683.00,0.0042
1682.00,0.0043
1681.00,0.0044
1680.00,0.0045
1679.00,0.0046
1678.00,0.0046
1677.00,0.0047
1676.00,0.0048
1675.00,0.0049
1674.00,0.0050
1673.00,0.0051
1672.00,0.0052
1671.00,0.0053
1670.00,0.0054
1669.00,0.0055
1668.00,0.0055
1667.00,0.0056
1666.00,0.0056
1665.00,0.0057
1664.00,0.0057
1663.00,0.0058
1662.00,0.0058
1661.00,0.0058
1660.00,0.0058
1659.00,0.0058
1658.00,0.0059
1657.00,0.0060
1656.00,0.0062
1655.00,0.0063
1654.00,0.0064
1653.00,0.0064
1652.00,0.0064
1651.00,0.0065
1650.00,0.0065
1649.00,0.0067
1648.00,0.0068
1647.00,0.0070
1646.00,0.0071
1645.00,0.0071
1644.00,0.0072
1643.00,0.0072
1642.00,0.0073
1641.00,0.0073
1640.00,0.0073
1639.00,0.0074
1638.00,0.0075
1637.00,0.0075
1636.00,0.0075
1635.00,0.0074
1634.00,0.0073
1633.00,0.0073
1632.00,0.0073
1631.00,0.0073
1630.00,0.0073
1629.00,0.0072
1628.00,0.0072
1627.00,0.0072
1626.00,0.0071
1625.00,0.0071
1624.00,0.0070
1623.00,0.0070
1622.00,0.0070
1621.00,0.0070
1620.00,0.0069
1619.00,0.0069
1618.00,0.0068
1617.00,0.0068
1616.00,0.0068
1615.00,0.0068
1614.00,0.0068
1613.00,0.0068
1612.00,0.0068
1611.00,0.0068
1610.00,0.0068
1609.00,0.0068
1608.00,0.0068
1607.00,0.0068
1606.00,0.0068
1605.00,0.0068
1604.00,0.0068
1603.00,0.0068
1602.00,0.0068
1601.00,0.0068
1600.00,0.0067
1599.00,0.0067
1598.00,0.0067
1597.00,0.0067
1596.00,0.0067
1595.00,0.0066
1594.00,0.0066
1593.00,0.0067
1592.00,0.0067
1591.00,0.0068
1590.00,0.0068
1589.00,0.0068
1588.00,0.0069
1587.00,0.0070
1586.00,0.0070
1585.00,0.0071
1584.00,0.0072
1583.00,0.0074
1582.00,0.0075
1581.00,0.0077
1580.00,0.0079
1579.00,0.0080
1578.00,0.0081
1577.00,0.0081
1576.00,0.0080
1575.00,0.0079
1574.00,0.0079
1573.00,0.0078
1572.00,0.0078
1571.00,0.0078
1570.00,0.0077
1569.00,0.0076
1568.00,0.0076
1567.00,0.0076
1566.00,0.0075
1565.00,0.0075
1564.00,0.0076
1563.00,0.0076
1562.00,0.0076
1561.00,0.0076
1560.00,0.0077
1559.00,0.0077
1558.00,0.0078
1557.00,0.0079
1556.00,0.0080
1555.00,0.0081
1554.00,0.0082
1553.00,0.0082
1552.00,0.0083
1551.00,0.0084
1550.00,0.0085
1549.00,0.0086
1548.00,0.0088
1547.00,0.0090
1546.00,0.0092
1545.00,0.0094
1544.00,0.0095
1543.00,0.0096
1542.00,0.0096
1541.00,0.0096
1540.00,0.0094
1539.00,0.0090
1538.00,0.0086
1537.00,0.0083
1536.00,0.0081
1535.00,0.0079
1534.00,0.0076
1533.00,0.0072
1532.00,0.0070
1531.00,0.0068
1530.00,0.0067
1529.00,0.0066
1528.00,0.0066
1527.00,0.0065
1526.00,0.0065
1525.00,0.0065
1524.00,0.0065
1523.00,0.0065
1522.00,0.0065
1521.00,0.0065
1520.00,0.0065
1519.00,0.0065
1518.00,0.0065
1517.00,0.0065
1516.00,0.0066
1515.00,0.0066
1514.00,0.0066
1513.00,0.0066
1512.00,0.0067
1511.00,0.0067
1510.00,0.0068
1509.00,0.0069
1508.00,0.0071
1507.00,0.0073
1506.00,0.0073
1505.00,0.0073
1504.00,0.0074
1503.00,0.0076
1502.00,0.0077
1501.00,0.0079
1500.00,0.0082
1499.00,0.0084
1498.00,0.0086
1497.00,0.0090
1496.00,0.0093
1495.00,0.0096
1494.00,0.0098
1493.00,0.0101
1492.00,0.0105
1491.00,0.0109
1490.00,0.0113
1489.00,0.0118
1488.00,0.0123
1487.00,0.0128
1486.00,0.0133
1485.00,0.0140
1484.00,0.0147
1483.00,0.0154
1482.00,0.0163
1481.00,0.0175
1480.00,0.0187
1479.00,0.0200
1478.00,0.0215
1477.00,0.0236
1476.00,0.0262
1475.00,0.0293
1474.00,0.0333
1473.00,0.0390
1472.00,0.0455
1471.00,0.0519
1470.00,0.0580
1469.00,0.0645
1468.00,0.0715
1467.00,0.0791
1466.00,0.0876
1465.00,0.0967
1464.00,0.1045
1463.00,0.1099
1462.00,0.1134
1461.00,0.1158
1460.00,0.1174
1459.00,0.1185
1458.00,0.1195
1457.00,0.1204
1456.00,0.1204
1455.00,0.1197
1454.00,0.1186
1453.00,0.1170
1452.00,0.1144
1451.00,0.1108
1450.00,0.1057
1449.00,0.0988
1448.00,0.0901
1447.00,0.0808
1446.00,0.0722
1445.00,0.0649
1444.00,0.0586
1443.00,0.0534
1442.00,0.0495
1441.00,0.0468
1440.00,0.0451
1439.00,0.0443
1438.00,0.0442
1437.00,0.0440
1436.00,0.0429
1435.00,0.0404
1434.00,0.0370
1433.00,0.0329
1432.00,0.0286
1431.00,0.0248
1430.00,0.0219
1429.00,0.0197
1428.00,0.0182
1427.00,0.0172
1426.00,0.0165
1425.00,0.0159
1424.00,0.0154
1423.00,0.0150
1422.00,0.0148
1421.00,0.0145
1420.00,0.0142
1419.00,0.0139
1418.00,0.0137
1417.00,0.0134
1416.00,0.0131
1415.00,0.0129
1414.00,0.0127
1413.00,0.0125
1412.00,0.0123
1411.00,0.0122
1410.00,0.0122
1409.00,0.0121
1408.00,0.0120
1407.00,0.0120
1406.00,0.0120
1405.00,0.0120
1404.00,0.0119
1403.00,0.0119
1402.00,0.0119
1401.00,0.0119
1400.00,0.0119
1399.00,0.0121
1398.00,0.0123
1397.00,0.0125
1396.00,0.0126
1395.00,0.0129
1394.00,0.0133
1393.00,0.0137
1392.00,0.0142
1391.00,0.0149
1390.00,0.0159
1389.00,0.0173
1388.00,0.0194
1387.00,0.0225
1386.00,0.0267
1385.00,0.0323
1384.00,0.0401
1383.00,0.0509
1382.00,0.0656
1381.00,0.0843
1380.00,0.1071
1379.00,0.1324
1378.00,0.1561
1377.00,0.1727
1376.00,0.1771
1375.00,0.1670
1374.00,0.1454
1373.00,0.1201
1372.00,0.0971
1371.00,0.0783
1370.00,0.0634
1369.00,0.0521
1368.00,0.0443
1367.00,0.0395
1366.00,0.0368
1365.00,0.0357
1364.00,0.0358
1363.00,0.0370
1362.00,0.0388
1361.00,0.0408
1360.00,0.0423
1359.00,0.0427
1358.00,0.0417
1357.00,0.0394
1356.00,0.0362
1355.00,0.0325
1354.00,0.0290
1353.00,0.0260
1352.00,0.0235
1351.00,0.0215
1350.00,0.0198
1349.00,0.0184
1348.00,0.0173
1347.00,0.0164
1346.00,0.0155
1345.00,0.0148
1344.00,0.0142
1343.00,0.0137
1342.00,0.0133
1341.00,0.0130
1340.00,0.0128
1339.00,0.0126
1338.00,0.0124
1337.00,0.0123
1336.00,0.0124
1335.00,0.0125
1334.00,0.0128
1333.00,0.0131
1332.00,0.0134
1331.00,0.0137
1330.00,0.0138
1329.00,0.0137
1328.00,0.0134
1327.00,0.0129
1326.00,0.0124
1325.00,0.0118
1324.00,0.0113
1323.00,0.0109
1322.00,0.0106
1321.00,0.0103
1320.00,0.0102
1319.00,0.0100
1318.00,0.0099
1317.00,0.0097
1316.00,0.0096
1315.00,0.0095
1314.00,0.0095
1313.00,0.0095
1312.00,0.0095
1311.00,0.0098
1310.00,0.0102
1309.00,0.0108
1308.00,0.0118
1307.00,0.0130
1306.00,0.0141
1305.00,0.0149
1304.00,0.0152
1303.00,0.0149
1302.00,0.0143
1301.00,0.0137
1300.00,0.0133
1299.00,0.0132
1298.00,0.0132
1297.00,0.0132
1296.00,0.0131
1295.00,0.0128
1294.00,0.0124
1293.00,0.0119
1292.00,0.0114
1291.00,0.0109
1290.00,0.0105
1289.00,0.0102
1288.00,0.0099
1287.00,0.0096
1286.00,0.0094
1285.00,0.0092
1284.00,0.0090
1283.00,0.0089
1282.00,0.0088
1281.00,0.0087
1280.00,0.0087
1279.00,0.0086
1278.00,0.0086
1277.00,0.0086
1276.00,0.0085
1275.00,0.0084
1274.00,0.0084
1273.00,0.0084
1272.00,0.0085
1271.00,0.0086
1270.00,0.0088
1269.00,0.0090
1268.00,0.0092
1267.00,0.0095
1266.00,0.0098
1265.00,0.0101
1264.00,0.0104
1263.00,0.0107
1262.00,0.0111
1261.00,0.0115
1260.00,0.0121
1259.00,0.0127
1258.00,0.0135
1257.00,0.0141
1256.00,0.0143
1255.00,0.0140
1254.00,0.0133
1253.00,0.0123
1252.00,0.0113
1251.00,0.0105
1250.00,0.0099
1249.00,0.0094
1248.00,0.0091
1247.00,0.0088
1246.00,0.0086
1245.00,0.0085
1244.00,0.0083
1243.00,0.0082
1242.00,0.0081
1241.00,0.0080
1240.00,0.0078
1239.00,0.0078
1238.00,0.0078
1237.00,0.0078
1236.00,0.0079
1235.00,0.0079
1234.00,0.0079
1233.00,0.0078
1232.00,0.0079
1231.00,0.0080
1230.00,0.0081
1229.00,0.0082
1228.00,0.0083
1227.00,0.0085
1226.00,0.0087
1225.00,0.0090
1224.00,0.0093
1223.00,0.0096
1222.00,0.0100
1221.00,0.0102
1220.00,0.0103
1219.00,0.0104
1218.00,0.0103
1217.00,0.0101
1216.00,0.0099
1215.00,0.0096
1214.00,0.0094
1213.00,0.0092
1212.00,0.0090
1211.00,0.0088
1210.00,0.0086
1209.00,0.0085
1208.00,0.0084
1207.00,0.0082
1206.00,0.0082
1205.00,0.0081
1204.00,0.0081
1203.00,0.0080
1202.00,0.0080
1201.00,0.0079
1200.00,0.0079
1199.00,0.0079
1198.00,0.0080
1197.00,0.0080
1196.00,0.0080
1195.00,0.0080
1194.00,0.0080
1193.00,0.0081
1192.00,0.0081
1191.00,0.0081
1190.00,0.0081
1189.00,0.0081
1188.00,0.0080
1187.00,0.0080
1186.00,0.0080
1185.00,0.0080
1184.00,0.0082
1183.00,0.0084
1182.00,0.0087
1181.00,0.0090
1180.00,0.0093
1179.00,0.0098
1178.00,0.0105
1177.00,0.0113
1176.00,0.0125
1175.00,0.0141
1174.00,0.0162
1173.00,0.0189
1172.00,0.0222
1171.00,0.0257
1170.00,0.0291
1169.00,0.0318
1168.00,0.0334
1167.00,0.0336
1166.00,0.0326
1165.00,0.0310
1164.00,0.0290
1163.00,0.0272
1162.00,0.0255
1161.00,0.0241
1160.00,0.0230
1159.00,0.0221
1158.00,0.0215
1157.00,0.0211
1156.00,0.0208
1155.00,0.0206
1154.00,0.0204
1153.00,0.0202
1152.00,0.0198
1151.00,0.0191
1150.00,0.0182
1149.00,0.0172
1148.00,0.0162
1147.00,0.0154
1146.00,0.0146
1145.00,0.0139
1144.00,0.0132
1143.00,0.0125
1142.00,0.0119
1141.00,0.0115
1140.00,0.0111
1139.00,0.0107
1138.00,0.0103
1137.00,0.0099
1136.00,0.0096
1135.00,0.0094
1134.00,0.0093
1133.00,0.0092
1132.00,0.0092
1131.00,0.0092
1130.00,0.0092
1129.00,0.0092
1128.00,0.0093
1127.00,0.0093
1126.00,0.0094
1125.00,0.0095
1124.00,0.0096
1123.00,0.0097
1122.00,0.0098
1121.00,0.0099
1120.00,0.0100
1119.00,0.0101
1118.00,0.0101
1117.00,0.0103
1116.00,0.0104
1115.00,0.0105
1114.00,0.0107
1113.00,0.0109
1112.00,0.0111
1111.00,0.0113
1110.00,0.0117
1109.00,0.0121
1108.00,0.0125
1107.00,0.0131
1106.00,0.0137
1105.00,0.0142
1104.00,0.0147
1103.00,0.0150
1102.00,0.0149
1101.00,0.0146
1100.00,0.0140
1099.00,0.0134
1098.00,0.0129
1097.00,0.0124
1096.00,0.0120
1095.00,0.0117
1094.00,0.0114
1093.00,0.0112
1092.00,0.0109
1091.00,0.0107
1090.00,0.0105
1089.00,0.0103
1088.00,0.0101
1087.00,0.0100
1086.00,0.0099
1085.00,0.0099
1084.00,0.0099
1083.00,0.0099
1082.00,0.0098
1081.00,0.0097
1080.00,0.0096
1079.00,0.0095
1078.00,0.0094
1077.00,0.0092
1076.00,0.0091
1075.00,0.0091
1074.00,0.0090
1073.00,0.0090
1072.00,0.0089
1071.00,0.0089
1070.00,0.0088
1069.00,0.0087
1068.00,0.0086
1067.00,0.0086
1066.00,0.0086
1065.00,0.0087
1064.00,0.0087
1063.00,0.0088
1062.00,0.0088
1061.00,0.0088
1060.00,0.0089
1059.00,0.0090
1058.00,0.0091
1057.00,0.0092
1056.00,0.0093
1055.00,0.0094
1054.00,0.0095
1053.00,0.0096
1052.00,0.0097
1051.00,0.0099
1050.00,0.0101
1049.00,0.0104
1048.00,0.0107
1047.00,0.0110
1046.00,0.0114
1045.00,0.0116
1044.00,0.0117
1043.00,0.0117
1042.00,0.0115
1041.00,0.0113
1040.00,0.0111
1039.00,0.0109
1038.00,0.0108
1037.00,0.0108
1036.00,0.0108
1035.00,0.0107
1034.00,0.0107
1033.00,0.0105
1032.00,0.0103
1031.00,0.0102
1030.00,0.0100
1029.00,0.0100
1028.00,0.0099
1027.00,0.0098
1026.00,0.0098
1025.00,0.0097
1024.00,0.0097
1023.00,0.0096
1022.00,0.0096
1021.00,0.0096
1020.00,0.0097
1019.00,0.0098
1018.00,0.0099
1017.00,0.0100
1016.00,0.0102
1015.00,0.0103
1014.00,0.0106
1013.00,0.0108
1012.00,0.0111
1011.00,0.0113
1010.00,0.0115
1009.00,0.0119
1008.00,0.0124
1007.00,0.0130
1006.00,0.0139
1005.00,0.0151
1004.00,0.0169
1003.00,0.0194
1002.00,0.0227
1001.00,0.0268
1000.00,0.0312
999.00,0.0350
998.00,0.0369
997.00,0.0363
996.00,0.0334
995.00,0.0292
994.00,0.0249
993.00,0.0210
992.00,0.0180
991.00,0.0157
990.00,0.0141
989.00,0.0130
988.00,0.0124
987.00,0.0121
986.00,0.0120
985.00,0.0121
984.00,0.0125
983.00,0.0132
982.00,0.0143
981.00,0.0158
980.00,0.0179
979.00,0.0209
978.00,0.0248
977.00,0.0294
976.00,0.0344
975.00,0.0391
974.00,0.0426
973.00,0.0439
972.00,0.0424
971.00,0.0383
970.00,0.0328
969.00,0.0271
968.00,0.0222
967.00,0.0186
966.00,0.0161
965.00,0.0143
964.00,0.0130
963.00,0.0120
962.00,0.0112
961.00,0.0104
960.00,0.0098
959.00,0.0093
958.00,0.0090
957.00,0.0088
956.00,0.0086
955.00,0.0085
954.00,0.0083
953.00,0.0081
952.00,0.0080
951.00,0.0078
950.00,0.0077
949.00,0.0076
948.00,0.0075
947.00,0.0075
946.00,0.0076
945.00,0.0078
944.00,0.0082
943.00,0.0085
942.00,0.0088
941.00,0.0089
940.00,0.0089
939.00,0.0088
938.00,0.0085
937.00,0.0081
936.00,0.0077
935.00,0.0074
934.00,0.0071
933.00,0.0069
932.00,0.0068
931.00,0.0067
930.00,0.0066
929.00,0.0065
928.00,0.0064
927.00,0.0064
926.00,0.0063
925.00,0.0063
924.00,0.0063
923.00,0.0063
922.00,0.0064
921.00,0.0064
920.00,0.0065
919.00,0.0066
918.00,0.0067
917.00,0.0067
916.00,0.0067
915.00,0.0067
914.00,0.0067
913.00,0.0068
912.00,0.0070
911.00,0.0072
910.00,0.0073
909.00,0.0075
908.00,0.0078
907.00,0.0083
906.00,0.0090
905.00,0.0100
904.00,0.0113
903.00,0.0129
902.00,0.0146
901.00,0.0162
900.00,0.0173
899.00,0.0174
898.00,0.0167
897.00,0.0153
896.00,0.0136
895.00,0.0120
894.00,0.0107
893.00,0.0097
892.00,0.0091
891.00,0.0087
890.00,0.0084
889.00,0.0082
888.00,0.0080
887.00,0.0078
886.00,0.0076
885.00,0.0075
884.00,0.0074
883.00,0.0074
882.00,0.0075
881.00,0.0076
880.00,0.0078
879.00,0.0079
878.00,0.0080
877.00,0.0081
876.00,0.0082
875.00,0.0084
874.00,0.0085
873.00,0.0085
872.00,0.0084
871.00,0.0082
870.00,0.0081
869.00,0.0080
868.00,0.0081
867.00,0.0081
866.00,0.0082
865.00,0.0083
864.00,0.0084
863.00,0.0086
862.00,0.0087
861.00,0.0088
860.00,0.0089
859.00,0.0090
858.00,0.0092
857.00,0.0093
856.00,0.0094
855.00,0.0095
854.00,0.0098
853.00,0.0100
852.00,0.0104
851.00,0.0109
850.00,0.0115
849.00,0.0121
848.00,0.0130
847.00,0.0143
846.00,0.0166
845.00,0.0202
844.00,0.0253
843.00,0.0311
842.00,0.0358
841.00,0.0373
840.00,0.0349
839.00,0.0297
838.00,0.0241
837.00,0.0195
836.00,0.0164
835.00,0.0145
834.00,0.0132
833.00,0.0124
832.00,0.0119
831.00,0.0114
830.00,0.0110
829.00,0.0108
828.00,0.0107
827.00,0.0107
826.00,0.0106
825.00,0.0105
824.00,0.0105
823.00,0.0105
822.00,0.0107
821.00,0.0109
820.00,0.0111
819.00,0.0113
818.00,0.0117
817.00,0.0123
816.00,0.0131
815.00,0.0141
814.00,0.0155
813.00,0.0172
812.00,0.0190
811.00,0.0207
810.00,0.0219
809.00,0.0225
808.00,0.0222
807.00,0.0212
806.00,0.0196
805.00,0.0178
804.00,0.0162
803.00,0.0150
802.00,0.0141
801.00,0.0134
800.00,0.0129
799.00,0.0124
798.00,0.0121
797.00,0.0117
796.00,0.0114
795.00,0.0110
794.00,0.0106
793.00,0.0102
792.00,0.0098
791.00,0.0094
790.00,0.0090
789.00,0.0087
788.00,0.0085
787.00,0.0083
786.00,0.0081
785.00,0.0078
784.00,0.0077
783.00,0.0076
782.00,0.0076
781.00,0.0075
780.00,0.0074
779.00,0.0072
778.00,0.0070
777.00,0.0068
776.00,0.0067
775.00,0.0067
774.00,0.0067
773.00,0.0067
772.00,0.0068
771.00,0.0068
770.00,0.0069
769.00,0.0070
768.00,0.0071
767.00,0.0071
766.00,0.0072
765.00,0.0072
764.00,0.0073
763.00,0.0073
762.00,0.0072
761.00,0.0071
760.00,0.0070
759.00,0.0070
758.00,0.0070
757.00,0.0071
756.00,0.0072
755.00,0.0074
754.00,0.0076
753.00,0.0077
752.00,0.0079
751.00,0.0081
750.00,0.0082
749.00,0.0084
748.00,0.0086
747.00,0.0087
746.00,0.0088
745.00,0.0089
744.00,0.0090
743.00,0.0093
742.00,0.0096
741.00,0.0100
740.00,0.0104
739.00,0.0108
738.00,0.0111
737.00,0.0115
736.00,0.0120
735.00,0.0125
734.00,0.0129
733.00,0.0135
732.00,0.0141
731.00,0.0148
730.00,0.0155
729.00,0.0160
728.00,0.0162
727.00,0.0163
726.00,0.0165
725.00,0.0169
724.00,0.0175
723.00,0.0181
722.00,0.0188
721.00,0.0192
720.00,0.0191
719.00,0.0183
718.00,0.0171
717.00,0.0158
716.00,0.0147
715.00,0.0137
714.00,0.0130
713.00,0.0126
712.00,0.0123
711.00,0.0121
710.00,0.0118
709.00,0.0115
708.00,0.0112
707.00,0.0109
706.00,0.0107
705.00,0.0106
704.00,0.0105
703.00,0.0103
702.00,0.0101
701.00,0.0101
700.00,0.0101
699.00,0.0101
698.00,0.0100
697.00,0.0098
696.00,0.0096
695.00,0.0095
694.00,0.0095
693.00,0.0095
692.00,0.0095
691.00,0.0096
690.00,0.0096
689.00,0.0097
688.00,0.0096
687.00,0.0096
686.00,0.0097
685.00,0.0098
684.00,0.0099
683.00,0.0098
682.00,0.0096
681.00,0.0093
680.00,0.0093
679.00,0.0093
678.00,0.0095
677.00,0.0096
676.00,0.0097
675.00,0.0096
674.00,0.0096
673.00,0.0097
672.00,0.0098
671.00,0.0098
670.00,0.0099
669.00,0.0100
668.00,0.0103
667.00,0.0104
666.00,0.0102
665.00,0.0100
664.00,0.0098
663.00,0.0096
662.00,0.0095
661.00,0.0095
660.00,0.0095
659.00,0.0095
658.00,0.0096
657.00,0.0096
656.00,0.0096
655.00,0.0095
654.00,0.0093
653.00,0.0090
652.00,0.0088
651.00,0.0087
650.00,0.0087
649.00,0.0090
648.00,0.0093
647.00,0.0096
646.00,0.0097
645.00,0.0097
644.00,0.0095
643.00,0.0095
642.00,0.0095
641.00,0.0095
640.00,0.0094
639.00,0.0093
638.00,0.0093
637.00,0.0092
636.00,0.0093
635.00,0.0093
634.00,0.0093
633.00,0.0093
632.00,0.0094
631.00,0.0094
630.00,0.0094
629.00,0.0092
628.00,0.0090
627.00,0.0090
626.00,0.0090
625.00,0.0092
624.00,0.0095
623.00,0.0097
622.00,0.0098
621.00,0.0096
620.00,0.0094
619.00,0.0092
618.00,0.0091
617.00,0.0091
616.00,0.0090
615.00,0.0089
614.00,0.0089
613.00,0.0089
612.00,0.0089
611.00,0.0088
610.00,0.0087
609.00,0.0087
608.00,0.0089
607.00,0.0090
606.00,0.0091
605.00,0.0091
604.00,0.0091
603.00,0.0092
602.00,0.0094
601.00,0.0096
600.00,0.0097
599.00,0.0097
598.00,0.0096
597.00,0.0094
596.00,0.0094
595.00,0.0094
594.00,0.0093
593.00,0.0092
592.00,0.0088
591.00,0.0085
590.00,0.0084
589.00,0.0086
588.00,0.0087
587.00,0.0086
586.00,0.0085
585.00,0.0085
584.00,0.0087
583.00,0.0090
582.00,0.0092
581.00,0.0092
580.00,0.0091
579.00,0.0090
578.00,0.0089
577.00,0.0088
576.00,0.0088
575.00,0.0090
574.00,0.0092
573.00,0.0093
572.00,0.0093
571.00,0.0091
570.00,0.0091
569.00,0.0092
568.00,0.0093
567.00,0.0095
566.00,0.0096
565.00,0.0097
564.00,0.0095
563.00,0.0090
562.00,0.0086
561.00,0.0085
560.00,0.0087
559.00,0.0089
558.00,0.0091
557.00,0.0092
556.00,0.0093
555.00,0.0095
554.00,0.0097
553.00,0.0098
552.00,0.0099
551.00,0.0098
550.00,0.0097
549.00,0.0094
548.00,0.0092
547.00,0.0089
546.00,0.0088
545.00,0.0089
544.00,0.0089
543.00,0.0089
542.00,0.0089
541.00,0.0089
540.00,0.0091
539.00,0.0093
538.00,0.0096
537.00,0.0097
536.00,0.0098
535.00,0.0100
534.00,0.0104
533.00,0.0109
532.00,0.0111
531.00,0.0111
530.00,0.0109
529.00,0.0108
528.00,0.0107
527.00,0.0108
526.00,0.0110
525.00,0.0111
524.00,0.0109
523.00,0.0104
522.00,0.0098
521.00,0.0094
520.00,0.0092
519.00,0.0092
518.00,0.0096
517.00,0.0100
516.00,0.0102
515.00,0.0101
514.00,0.0099
513.00,0.0099
512.00,0.0100
511.00,0.0098
510.00,0.0094
509.00,0.0091
508.00,0.0089
507.00,0.0087
506.00,0.0085
505.00,0.0084
504.00,0.0085
503.00,0.0088
502.00,0.0088
501.00,0.0084
500.00,0.0077
499.00,0.0070
498.00,0.0068
497.00,0.0071
496.00,0.0077
495.00,0.0080
494.00,0.0080
493.00,0.0074
492.00,0.0068
491.00,0.0065
490.00,0.0067
489.00,0.0073
488.00,0.0081
487.00,0.0086
486.00,0.0088
485.00,0.0087
484.00,0.0086
483.00,0.0087
482.00,0.0090
481.00,0.0094
480.00,0.0096
479.00,0.0093
478.00,0.0087
477.00,0.0081
476.00,0.0077
475.00,0.0075
474.00,0.0074
473.00,0.0071
472.00,0.0069
471.00,0.0068
470.00,0.0071
469.00,0.0078
468.00,0.0089
467.00,0.0104
466.00,0.0118
465.00,0.0124
464.00,0.0121
463.00,0.0116
462.00,0.0118
461.00,0.0131
460.00,0.0151
459.00,0.0166
458.00,0.0169
457.00,0.0161
456.00,0.0150
455.00,0.0145
454.00,0.0146
453.00,0.0145
452.00,0.0139
451.00,0.0128
450.00,0.0119
