Created as New Dataset,Sample 236 By Administrator Date Wednesday, September 03 2025
cm-1,A
4000.00,0.0009
3999.00,0.0009
3998.00,0.0008
3997.00,0.0008
3996.00,0.0008
3995.00,0.0008
3994.00,0.0008
3993.00,0.0008
3992.00,0.0008
3991.00,0.0008
3990.00,0.0008
3989.00,0.0008
3988.00,0.0008
3987.00,0.0008
3986.00,0.0008
3985.00,0.0008
3984.00,0.0008
3983.00,0.0008
3982.00,0.0007
3981.00,0.0007
3980.00,0.0007
3979.00,0.0007
3978.00,0.0007
3977.00,0.0007
3976.00,0.0007
3975.00,0.0007
3974.00,0.0007
3973.00,0.0007
3972.00,0.0007
3971.00,0.0007
3970.00,0.0007
3969.00,0.0007
3968.00,0.0007
3967.00,0.0008
3966.00,0.0008
3965.00,0.0008
3964.00,0.0008
3963.00,0.0008
3962.00,0.0008
3961.00,0.0007
3960.00,0.0007
3959.00,0.0006
3958.00,0.0006
3957.00,0.0006
3956.00,0.0006
3955.00,0.0007
3954.00,0.0007
3953.00,0.0007
3952.00,0.0007
3951.00,0.0007
3950.00,0.0007
3949.00,0.0007
3948.00,0.0007
3947.00,0.0007
3946.00,0.0006
3945.00,0.0006
3944.00,0.0006
3943.00,0.0006
3942.00,0.0006
3941.00,0.0006
3940.00,0.0006
3939.00,0.0007
3938.00,0.0007
3937.00,0.0007
3936.00,0.0007
3935.00,0.0007
3934.00,0.0007
3933.00,0.0007
3932.00,0.0007
3931.00,0.0007
3930.00,0.0007
3929.00,0.0007
3928.00,0.0007
3927.00,0.0007
3926.00,0.0007
3925.00,0.0006
3924.00,0.0006
3923.00,0.0006
3922.00,0.0007
3921.00,0.0007
3920.00,0.0007
3919.00,0.0007
3918.00,0.0007
3917.00,0.0006
3916.00,0.0006
3915.00,0.0006
3914.00,0.0007
3913.00,0.0007
3912.00,0.0007
3911.00,0.0007
3910.00,0.0007
3909.00,0.0007
3908.00,0.0007
3907.00,0.0006
3906.00,0.0006
3905.00,0.0006
3904.00,0.0005
3903.00,0.0005
3902.00,0.0005
3901.00,0.0005
3900.00,0.0005
3899.00,0.0005
3898.00,0.0005
3897.00,0.0005
3896.00,0.0006
3895.00,0.0006
3894.00,0.0006
3893.00,0.0006
3892.00,0.0006
3891.00,0.0007
3890.00,0.0007
3889.00,0.0007
3888.00,0.0007
3887.00,0.0007
3886.00,0.0006
3885.00,0.0006
3884.00,0.0006
3883.00,0.0006
3882.00,0.0006
3881.00,0.0007
3880.00,0.0006
3879.00,0.0006
3878.00,0.0006
3877.00,0.0006
3876.00,0.0006
3875.00,0.0006
3874.00,0.0006
3873.00,0.0005
3872.00,0.0005
3871.00,0.0004
3870.00,0.0005
3869.00,0.0005
3868.00,0.0005
3867.00,0.0005
3866.00,0.0006
3865.00,0.0006
3864.00,0.0006
3863.00,0.0006
3862.00,0.0005
3861.00,0.0005
3860.00,0.0005
3859.00,0.0004
3858.00,0.0004
3857.00,0.0004
3856.00,0.0003
3855.00,0.0003
3854.00,0.0003
3853.00,0.0003
3852.00,0.0003
3851.00,0.0003
3850.00,0.0004
3849.00,0.0004
3848.00,0.0005
3847.00,0.0005
3846.00,0.0006
3845.00,0.0006
3844.00,0.0005
3843.00,0.0005
3842.00,0.0005
3841.00,0.0005
3840.00,0.0005
3839.00,0.0005
3838.00,0.0005
3837.00,0.0004
3836.00,0.0004
3835.00,0.0004
3834.00,0.0004
3833.00,0.0004
3832.00,0.0004
3831.00,0.0005
3830.00,0.0005
3829.00,0.0005
3828.00,0.0005
3827.00,0.0005
3826.00,0.0005
3825.00,0.0004
3824.00,0.0004
3823.00,0.0004
3822.00,0.0004
3821.00,0.0005
3820.00,0.0005
3819.00,0.0005
3818.00,0.0005
3817.00,0.0005
3816.00,0.0005
3815.00,0.0005
3814.00,0.0005
3813.00,0.0005
3812.00,0.0005
3811.00,0.0005
3810.00,0.0006
3809.00,0.0006
3808.00,0.0006
3807.00,0.0006
3806.00,0.0005
3805.00,0.0005
3804.00,0.0005
3803.00,0.0005
3802.00,0.0005
3801.00,0.0005
3800.00,0.0005
3799.00,0.0005
3798.00,0.0005
3797.00,0.0005
3796.00,0.0005
3795.00,0.0005
3794.00,0.0005
3793.00,0.0005
3792.00,0.0006
3791.00,0.0006
3790.00,0.0007
3789.00,0.0007
3788.00,0.0007
3787.00,0.0007
3786.00,0.0007
3785.00,0.0007
3784.00,0.0007
3783.00,0.0007
3782.00,0.0007
3781.00,0.0007
3780.00,0.0006
3779.00,0.0006
3778.00,0.0006
3777.00,0.0006
3776.00,0.0007
3775.00,0.0007
3774.00,0.0007
3773.00,0.0007
3772.00,0.0007
3771.00,0.0006
3770.00,0.0006
3769.00,0.0007
3768.00,0.0007
3767.00,0.0007
3766.00,0.0007
3765.00,0.0007
3764.00,0.0006
3763.00,0.0006
3762.00,0.0006
3761.00,0.0006
3760.00,0.0007
3759.00,0.0006
3758.00,0.0006
3757.00,0.0006
3756.00,0.0005
3755.00,0.0005
3754.00,0.0004
3753.00,0.0004
3752.00,0.0003
3751.00,0.0003
3750.00,0.0002
3749.00,0.0002
3748.00,0.0002
3747.00,0.0002
3746.00,0.0002
3745.00,0.0003
3744.00,0.0003
3743.00,0.0004
3742.00,0.0004
3741.00,0.0004
3740.00,0.0004
3739.00,0.0004
3738.00,0.0004
3737.00,0.0004
3736.00,0.0004
3735.00,0.0003
3734.00,0.0003
3733.00,0.0003
3732.00,0.0003
3731.00,0.0003
3730.00,0.0004
3729.00,0.0004
3728.00,0.0004
3727.00,0.0004
3726.00,0.0004
3725.00,0.0004
3724.00,0.0004
3723.00,0.0004
3722.00,0.0004
3721.00,0.0005
3720.00,0.0005
3719.00,0.0005
3718.00,0.0005
3717.00,0.0005
3716.00,0.0005
3715.00,0.0004
3714.00,0.0004
3713.00,0.0003
3712.00,0.0003
3711.00,0.0003
3710.00,0.0003
3709.00,0.0002
3708.00,0.0002
3707.00,0.0003
3706.00,0.0003
3705.00,0.0003
3704.00,0.0004
3703.00,0.0004
3702.00,0.0004
3701.00,0.0004
3700.00,0.0005
3699.00,0.0005
3698.00,0.0005
3697.00,0.0005
3696.00,0.0005
3695.00,0.0005
3694.00,0.0004
3693.00,0.0004
3692.00,0.0003
3691.00,0.0003
3690.00,0.0002
3689.00,0.0002
3688.00,0.0002
3687.00,0.0003
3686.00,0.0004
3685.00,0.0004
3684.00,0.0005
3683.00,0.0005
3682.00,0.0005
3681.00,0.0004
3680.00,0.0004
3679.00,0.0004
3678.00,0.0005
3677.00,0.0005
3676.00,0.0005
3675.00,0.0004
3674.00,0.0004
3673.00,0.0004
3672.00,0.0003
3671.00,0.0003
3670.00,0.0003
3669.00,0.0003
3668.00,0.0003
3667.00,0.0003
3666.00,0.0004
3665.00,0.0004
3664.00,0.0005
3663.00,0.0005
3662.00,0.0005
3661.00,0.0005
3660.00,0.0005
3659.00,0.0004
3658.00,0.0004
3657.00,0.0003
3656.00,0.0003
3655.00,0.0003
3654.00,0.0003
3653.00,0.0003
3652.00,0.0003
3651.00,0.0003
3650.00,0.0004
3649.00,0.0004
3648.00,0.0004
3647.00,0.0004
3646.00,0.0005
3645.00,0.0005
3644.00,0.0005
3643.00,0.0005
3642.00,0.0005
3641.00,0.0005
3640.00,0.0005
3639.00,0.0005
3638.00,0.0005
3637.00,0.0005
3636.00,0.0005
3635.00,0.0005
3634.00,0.0005
3633.00,0.0005
3632.00,0.0004
3631.00,0.0004
3630.00,0.0004
3629.00,0.0004
3628.00,0.0004
3627.00,0.0004
3626.00,0.0005
3625.00,0.0005
3624.00,0.0005
3623.00,0.0005
3622.00,0.0005
3621.00,0.0005
3620.00,0.0005
3619.00,0.0005
3618.00,0.0005
3617.00,0.0005
3616.00,0.0005
3615.00,0.0005
3614.00,0.0006
3613.00,0.0006
3612.00,0.0006
3611.00,0.0006
3610.00,0.0006
3609.00,0.0006
3608.00,0.0006
3607.00,0.0007
3606.00,0.0007
3605.00,0.0007
3604.00,0.0007
3603.00,0.0008
3602.00,0.0008
3601.00,0.0008
3600.00,0.0007
3599.00,0.0007
3598.00,0.0007
3597.00,0.0007
3596.00,0.0007
3595.00,0.0008
3594.00,0.0008
3593.00,0.0008
3592.00,0.0008
3591.00,0.0008
3590.00,0.0008
3589.00,0.0009
3588.00,0.0009
3587.00,0.0009
3586.00,0.0009
3585.00,0.0009
3584.00,0.0009
3583.00,0.0009
3582.00,0.0009
3581.00,0.0009
3580.00,0.0009
3579.00,0.0009
3578.00,0.0009
3577.00,0.0010
3576.00,0.0010
3575.00,0.0010
3574.00,0.0010
3573.00,0.0010
3572.00,0.0010
3571.00,0.0011
3570.00,0.0011
3569.00,0.0011
3568.00,0.0011
3567.00,0.0011
3566.00,0.0011
3565.00,0.0011
3564.00,0.0011
3563.00,0.0012
3562.00,0.0012
3561.00,0.0012
3560.00,0.0013
3559.00,0.0013
3558.00,0.0013
3557.00,0.0013
3556.00,0.0013
3555.00,0.0013
3554.00,0.0013
3553.00,0.0013
3552.00,0.0013
3551.00,0.0014
3550.00,0.0014
3549.00,0.0014
3548.00,0.0015
3547.00,0.0015
3546.00,0.0015
3545.00,0.0016
3544.00,0.0016
3543.00,0.0016
3542.00,0.0016
3541.00,0.0017
3540.00,0.0016
3539.00,0.0016
3538.00,0.0016
3537.00,0.0016
3536.00,0.0016
3535.00,0.0016
3534.00,0.0017
3533.00,0.0017
3532.00,0.0017
3531.00,0.0017
3530.00,0.0018
3529.00,0.0018
3528.00,0.0018
3527.00,0.0018
3526.00,0.0018
3525.00,0.0018
3524.00,0.0018
3523.00,0.0018
3522.00,0.0018
3521.00,0.0018
3520.00,0.0019
3519.00,0.0019
3518.00,0.0019
3517.00,0.0020
3516.00,0.0020
3515.00,0.0020
3514.00,0.0020
3513.00,0.0021
3512.00,0.0021
3511.00,0.0021
3510.00,0.0021
3509.00,0.0021
3508.00,0.0021
3507.00,0.0021
3506.00,0.0021
3505.00,0.0021
3504.00,0.0021
3503.00,0.0021
3502.00,0.0022
3501.00,0.0022
3500.00,0.0023
3499.00,0.0023
3498.00,0.0023
3497.00,0.0023
3496.00,0.0023
3495.00,0.0023
3494.00,0.0023
3493.00,0.0024
3492.00,0.0024
3491.00,0.0024
3490.00,0.0024
3489.00,0.0024
3488.00,0.0024
3487.00,0.0024
3486.00,0.0025
3485.00,0.0025
3484.00,0.0025
3483.00,0.0024
3482.00,0.0024
3481.00,0.0024
3480.00,0.0025
3479.00,0.0025
3478.00,0.0026
3477.00,0.0026
3476.00,0.0027
3475.00,0.0027
3474.00,0.0027
3473.00,0.0027
3472.00,0.0027
3471.00,0.0027
3470.00,0.0027
3469.00,0.0028
3468.00,0.0028
3467.00,0.0028
3466.00,0.0028
3465.00,0.0028
3464.00,0.0028
3463.00,0.0029
3462.00,0.0029
3461.00,0.0029
3460.00,0.0029
3459.00,0.0029
3458.00,0.0029
3457.00,0.0029
3456.00,0.0029
3455.00,0.0030
3454.00,0.0030
3453.00,0.0030
3452.00,0.0030
3451.00,0.0030
3450.00,0.0030
3449.00,0.0031
3448.00,0.0031
3447.00,0.0031
3446.00,0.0031
3445.00,0.0031
3444.00,0.0031
3443.00,0.0031
3442.00,0.0031
3441.00,0.0032
3440.00,0.0033
3439.00,0.0033
3438.00,0.0034
3437.00,0.0034
3436.00,0.0034
3435.00,0.0033
3434.00,0.0033
3433.00,0.0033
3432.00,0.0033
3431.00,0.0033
3430.00,0.0034
3429.00,0.0034
3428.00,0.0034
3427.00,0.0035
3426.00,0.0035
3425.00,0.0035
3424.00,0.0035
3423.00,0.0034
3422.00,0.0034
3421.00,0.0034
3420.00,0.0034
3419.00,0.0034
3418.00,0.0034
3417.00,0.0034
3416.00,0.0034
3415.00,0.0035
3414.00,0.0036
3413.00,0.0036
3412.00,0.0036
3411.00,0.0036
3410.00,0.0036
3409.00,0.0036
3408.00,0.0036
3407.00,0.0036
3406.00,0.0037
3405.00,0.0037
3404.00,0.0037
3403.00,0.0038
3402.00,0.0038
3401.00,0.0038
3400.00,0.0038
3399.00,0.0038
3398.00,0.0038
3397.00,0.0038
3396.00,0.0039
3395.00,0.0039
3394.00,0.0039
3393.00,0.0039
3392.00,0.0038
3391.00,0.0038
3390.00,0.0038
3389.00,0.0038
3388.00,0.0038
3387.00,0.0038
3386.00,0.0039
3385.00,0.0039
3384.00,0.0038
3383.00,0.0038
3382.00,0.0038
3381.00,0.0038
3380.00,0.0038
3379.00,0.0038
3378.00,0.0038
3377.00,0.0038
3376.00,0.0038
3375.00,0.0038
3374.00,0.0038
3373.00,0.0039
3372.00,0.0039
3371.00,0.0039
3370.00,0.0039
3369.00,0.0039
3368.00,0.0038
3367.00,0.0038
3366.00,0.0038
3365.00,0.0038
3364.00,0.0038
3363.00,0.0039
3362.00,0.0039
3361.00,0.0039
3360.00,0.0039
3359.00,0.0039
3358.00,0.0039
3357.00,0.0039
3356.00,0.0039
3355.00,0.0039
3354.00,0.0039
3353.00,0.0039
3352.00,0.0039
3351.00,0.0039
3350.00,0.0039
3349.00,0.0038
3348.00,0.0038
3347.00,0.0038
3346.00,0.0038
3345.00,0.0037
3344.00,0.0037
3343.00,0.0037
3342.00,0.0038
3341.00,0.0038
3340.00,0.0038
3339.00,0.0038
3338.00,0.0038
3337.00,0.0038
3336.00,0.0038
3335.00,0.0038
3334.00,0.0038
3333.00,0.0037
3332.00,0.0037
3331.00,0.0037
3330.00,0.0037
3329.00,0.0036
3328.00,0.0036
3327.00,0.0036
3326.00,0.0036
3325.00,0.0036
3324.00,0.0036
3323.00,0.0036
3322.00,0.0036
3321.00,0.0036
3320.00,0.0036
3319.00,0.0036
3318.00,0.0036
3317.00,0.0036
3316.00,0.0036
3315.00,0.0036
3314.00,0.0036
3313.00,0.0036
3312.00,0.0036
3311.00,0.0037
3310.00,0.0037
3309.00,0.0037
3308.00,0.0037
3307.00,0.0037
3306.00,0.0037
3305.00,0.0037
3304.00,0.0038
3303.00,0.0038
3302.00,0.0038
3301.00,0.0038
3300.00,0.0038
3299.00,0.0037
3298.00,0.0037
3297.00,0.0036
3296.00,0.0036
3295.00,0.0036
3294.00,0.0035
3293.00,0.0035
3292.00,0.0035
3291.00,0.0035
3290.00,0.0035
3289.00,0.0035
3288.00,0.0035
3287.00,0.0035
3286.00,0.0035
3285.00,0.0035
3284.00,0.0035
3283.00,0.0035
3282.00,0.0034
3281.00,0.0034
3280.00,0.0034
3279.00,0.0034
3278.00,0.0034
3277.00,0.0033
3276.00,0.0033
3275.00,0.0033
3274.00,0.0033
3273.00,0.0033
3272.00,0.0033
3271.00,0.0032
3270.00,0.0032
3269.00,0.0031
3268.00,0.0031
3267.00,0.0031
3266.00,0.0031
3265.00,0.0031
3264.00,0.0031
3263.00,0.0031
3262.00,0.0031
3261.00,0.0031
3260.00,0.0031
3259.00,0.0031
3258.00,0.0031
3257.00,0.0030
3256.00,0.0030
3255.00,0.0030
3254.00,0.0030
3253.00,0.0030
3252.00,0.0030
3251.00,0.0030
3250.00,0.0030
3249.00,0.0030
3248.00,0.0030
3247.00,0.0030
3246.00,0.0030
3245.00,0.0030
3244.00,0.0030
3243.00,0.0029
3242.00,0.0029
3241.00,0.0029
3240.00,0.0030
3239.00,0.0030
3238.00,0.0030
3237.00,0.0030
3236.00,0.0030
3235.00,0.0030
3234.00,0.0030
3233.00,0.0030
3232.00,0.0030
3231.00,0.0030
3230.00,0.0031
3229.00,0.0031
3228.00,0.0031
3227.00,0.0031
3226.00,0.0031
3225.00,0.0031
3224.00,0.0031
3223.00,0.0030
3222.00,0.0030
3221.00,0.0030
3220.00,0.0031
3219.00,0.0032
3218.00,0.0032
3217.00,0.0033
3216.00,0.0033
3215.00,0.0033
3214.00,0.0033
3213.00,0.0033
3212.00,0.0033
3211.00,0.0033
3210.00,0.0033
3209.00,0.0034
3208.00,0.0034
3207.00,0.0034
3206.00,0.0034
3205.00,0.0034
3204.00,0.0034
3203.00,0.0034
3202.00,0.0035
3201.00,0.0035
3200.00,0.0035
3199.00,0.0035
3198.00,0.0035
3197.00,0.0035
3196.00,0.0035
3195.00,0.0035
3194.00,0.0035
3193.00,0.0035
3192.00,0.0034
3191.00,0.0034
3190.00,0.0034
3189.00,0.0034
3188.00,0.0034
3187.00,0.0034
3186.00,0.0034
3185.00,0.0034
3184.00,0.0033
3183.00,0.0033
3182.00,0.0033
3181.00,0.0033
3180.00,0.0032
3179.00,0.0032
3178.00,0.0032
3177.00,0.0032
3176.00,0.0032
3175.00,0.0032
3174.00,0.0032
3173.00,0.0032
3172.00,0.0032
3171.00,0.0031
3170.00,0.0031
3169.00,0.0031
3168.00,0.0031
3167.00,0.0031
3166.00,0.0031
3165.00,0.0031
3164.00,0.0031
3163.00,0.0031
3162.00,0.0031
3161.00,0.0031
3160.00,0.0030
3159.00,0.0030
3158.00,0.0031
3157.00,0.0031
3156.00,0.0030
3155.00,0.0030
3154.00,0.0030
3153.00,0.0030
3152.00,0.0030
3151.00,0.0030
3150.00,0.0030
3149.00,0.0031
3148.00,0.0030
3147.00,0.0030
3146.00,0.0030
3145.00,0.0029
3144.00,0.0029
3143.00,0.0029
3142.00,0.0029
3141.00,0.0030
3140.00,0.0030
3139.00,0.0030
3138.00,0.0030
3137.00,0.0030
3136.00,0.0029
3135.00,0.0029
3134.00,0.0029
3133.00,0.0029
3132.00,0.0029
3131.00,0.0028
3130.00,0.0028
3129.00,0.0028
3128.00,0.0027
3127.00,0.0027
3126.00,0.0027
3125.00,0.0027
3124.00,0.0027
3123.00,0.0026
3122.00,0.0026
3121.00,0.0026
3120.00,0.0026
3119.00,0.0026
3118.00,0.0026
3117.00,0.0025
3116.00,0.0025
3115.00,0.0025
3114.00,0.0025
3113.00,0.0024
3112.00,0.0024
3111.00,0.0024
3110.00,0.0024
3109.00,0.0024
3108.00,0.0024
3107.00,0.0024
3106.00,0.0024
3105.00,0.0024
3104.00,0.0024
3103.00,0.0024
3102.00,0.0024
3101.00,0.0024
3100.00,0.0024
3099.00,0.0023
3098.00,0.0023
3097.00,0.0023
3096.00,0.0023
3095.00,0.0024
3094.00,0.0024
3093.00,0.0023
3092.00,0.0023
3091.00,0.0023
3090.00,0.0023
3089.00,0.0023
3088.00,0.0023
3087.00,0.0023
3086.00,0.0022
3085.00,0.0022
3084.00,0.0022
3083.00,0.0022
3082.00,0.0023
3081.00,0.0023
3080.00,0.0023
3079.00,0.0024
3078.00,0.0024
3077.00,0.0024
3076.00,0.0024
3075.00,0.0025
3074.00,0.0025
3073.00,0.0025
3072.00,0.0024
3071.00,0.0024
3070.00,0.0024
3069.00,0.0025
3068.00,0.0025
3067.00,0.0025
3066.00,0.0025
3065.00,0.0025
3064.00,0.0025
3063.00,0.0025
3062.00,0.0026
3061.00,0.0026
3060.00,0.0026
3059.00,0.0026
3058.00,0.0027
3057.00,0.0027
3056.00,0.0027
3055.00,0.0027
3054.00,0.0027
3053.00,0.0028
3052.00,0.0028
3051.00,0.0028
3050.00,0.0028
3049.00,0.0028
3048.00,0.0029
3047.00,0.0029
3046.00,0.0029
3045.00,0.0029
3044.00,0.0029
3043.00,0.0029
3042.00,0.0029
3041.00,0.0030
3040.00,0.0030
3039.00,0.0031
3038.00,0.0031
3037.00,0.0032
3036.00,0.0032
3035.00,0.0032
3034.00,0.0032
3033.00,0.0033
3032.00,0.0033
3031.00,0.0034
3030.00,0.0035
3029.00,0.0035
3028.00,0.0035
3027.00,0.0036
3026.00,0.0036
3025.00,0.0037
3024.00,0.0038
3023.00,0.0039
3022.00,0.0039
3021.00,0.0040
3020.00,0.0040
3019.00,0.0041
3018.00,0.0042
3017.00,0.0043
3016.00,0.0044
3015.00,0.0045
3014.00,0.0046
3013.00,0.0047
3012.00,0.0048
3011.00,0.0050
3010.00,0.0051
3009.00,0.0053
3008.00,0.0054
3007.00,0.0056
3006.00,0.0058
3005.00,0.0060
3004.00,0.0061
3003.00,0.0063
3002.00,0.0065
3001.00,0.0067
3000.00,0.0070
2999.00,0.0073
2998.00,0.0076
2997.00,0.0080
2996.00,0.0083
2995.00,0.0087
2994.00,0.0091
2993.00,0.0097
2992.00,0.0102
2991.00,0.0108
2990.00,0.0114
2989.00,0.0121
2988.00,0.0128
2987.00,0.0137
2986.00,0.0147
2985.00,0.0158
2984.00,0.0170
2983.00,0.0184
2982.00,0.0200
2981.00,0.0217
2980.00,0.0238
2979.00,0.0261
2978.00,0.0287
2977.00,0.0317
2976.00,0.0352
2975.00,0.0391
2974.00,0.0437
2973.00,0.0489
2972.00,0.0548
2971.00,0.0616
2970.00,0.0692
2969.00,0.0776
2968.00,0.0869
2967.00,0.0970
2966.00,0.1079
2965.00,0.1194
2964.00,0.1312
2963.00,0.1428
2962.00,0.1536
2961.00,0.1630
2960.00,0.1705
2959.00,0.1761
2958.00,0.1800
2957.00,0.1826
2956.00,0.1845
2955.00,0.1863
2954.00,0.1883
2953.00,0.1902
2952.00,0.1916
2951.00,0.1915
2950.00,0.1891
2949.00,0.1839
2948.00,0.1758
2947.00,0.1653
2946.00,0.1534
2945.00,0.1413
2944.00,0.1300
2943.00,0.1204
2942.00,0.1130
2941.00,0.1080
2940.00,0.1052
2939.00,0.1045
2938.00,0.1057
2937.00,0.1085
2936.00,0.1128
2935.00,0.1185
2934.00,0.1255
2933.00,0.1336
2932.00,0.1426
2931.00,0.1523
2930.00,0.1625
2929.00,0.1728
2928.00,0.1830
2927.00,0.1929
2926.00,0.2022
2925.00,0.2110
2924.00,0.2193
2923.00,0.2273
2922.00,0.2349
2921.00,0.2420
2920.00,0.2481
2919.00,0.2524
2918.00,0.2542
2917.00,0.2531
2916.00,0.2491
2915.00,0.2428
2914.00,0.2349
2913.00,0.2265
2912.00,0.2183
2911.00,0.2109
2910.00,0.2044
2909.00,0.1987
2908.00,0.1935
2907.00,0.1883
2906.00,0.1830
2905.00,0.1774
2904.00,0.1715
2903.00,0.1652
2902.00,0.1587
2901.00,0.1521
2900.00,0.1457
2899.00,0.1395
2898.00,0.1336
2897.00,0.1281
2896.00,0.1232
2895.00,0.1188
2894.00,0.1151
2893.00,0.1121
2892.00,0.1096
2891.00,0.1077
2890.00,0.1063
2889.00,0.1052
2888.00,0.1046
2887.00,0.1042
2886.00,0.1042
2885.00,0.1045
2884.00,0.1053
2883.00,0.1064
2882.00,0.1079
2881.00,0.1095
2880.00,0.1111
2879.00,0.1124
2878.00,0.1130
2877.00,0.1131
2876.00,0.1125
2875.00,0.1118
2874.00,0.1112
2873.00,0.1112
2872.00,0.1118
2871.00,0.1131
2870.00,0.1147
2869.00,0.1163
2868.00,0.1171
2867.00,0.1166
2866.00,0.1143
2865.00,0.1100
2864.00,0.1041
2863.00,0.0975
2862.00,0.0911
2861.00,0.0855
2860.00,0.0813
2859.00,0.0785
2858.00,0.0771
2857.00,0.0768
2856.00,0.0774
2855.00,0.0787
2854.00,0.0805
2853.00,0.0825
2852.00,0.0845
2851.00,0.0863
2850.00,0.0877
2849.00,0.0888
2848.00,0.0898
2847.00,0.0913
2846.00,0.0936
2845.00,0.0971
2844.00,0.1018
2843.00,0.1074
2842.00,0.1134
2841.00,0.1191
2840.00,0.1237
2839.00,0.1262
2838.00,0.1260
2837.00,0.1225
2836.00,0.1159
2835.00,0.1067
2834.00,0.0959
2833.00,0.0847
2832.00,0.0741
2831.00,0.0647
2830.00,0.0567
2829.00,0.0501
2828.00,0.0448
2827.00,0.0405
2826.00,0.0370
2825.00,0.0341
2824.00,0.0317
2823.00,0.0296
2822.00,0.0278
2821.00,0.0263
2820.00,0.0249
2819.00,0.0238
2818.00,0.0228
2817.00,0.0219
2816.00,0.0211
2815.00,0.0204
2814.00,0.0197
2813.00,0.0191
2812.00,0.0186
2811.00,0.0181
2810.00,0.0176
2809.00,0.0171
2808.00,0.0165
2807.00,0.0159
2806.00,0.0152
2805.00,0.0145
2804.00,0.0139
2803.00,0.0133
2802.00,0.0128
2801.00,0.0123
2800.00,0.0120
2799.00,0.0117
2798.00,0.0114
2797.00,0.0112
2796.00,0.0110
2795.00,0.0108
2794.00,0.0106
2793.00,0.0103
2792.00,0.0099
2791.00,0.0096
2790.00,0.0092
2789.00,0.0088
2788.00,0.0085
2787.00,0.0081
2786.00,0.0078
2785.00,0.0075
2784.00,0.0073
2783.00,0.0070
2782.00,0.0068
2781.00,0.0066
2780.00,0.0065
2779.00,0.0063
2778.00,0.0061
2777.00,0.0060
2776.00,0.0059
2775.00,0.0057
2774.00,0.0056
2773.00,0.0055
2772.00,0.0055
2771.00,0.0054
2770.00,0.0054
2769.00,0.0054
2768.00,0.0054
2767.00,0.0053
2766.00,0.0053
2765.00,0.0053
2764.00,0.0052
2763.00,0.0052
2762.00,0.0051
2761.00,0.0051
2760.00,0.0050
2759.00,0.0050
2758.00,0.0050
2757.00,0.0050
2756.00,0.0050
2755.00,0.0050
2754.00,0.0049
2753.00,0.0049
2752.00,0.0049
2751.00,0.0049
2750.00,0.0049
2749.00,0.0049
2748.00,0.0049
2747.00,0.0049
2746.00,0.0049
2745.00,0.0050
2744.00,0.0051
2743.00,0.0052
2742.00,0.0053
2741.00,0.0054
2740.00,0.0056
2739.00,0.0056
2738.00,0.0057
2737.00,0.0058
2736.00,0.0059
2735.00,0.0061
2734.00,0.0062
2733.00,0.0064
2732.00,0.0065
2731.00,0.0067
2730.00,0.0069
2729.00,0.0071
2728.00,0.0074
2727.00,0.0076
2726.00,0.0079
2725.00,0.0081
2724.00,0.0082
2723.00,0.0082
2722.00,0.0082
2721.00,0.0080
2720.00,0.0078
2719.00,0.0075
2718.00,0.0072
2717.00,0.0069
2716.00,0.0066
2715.00,0.0064
2714.00,0.0061
2713.00,0.0059
2712.00,0.0057
2711.00,0.0056
2710.00,0.0054
2709.00,0.0052
2708.00,0.0051
2707.00,0.0050
2706.00,0.0049
2705.00,0.0049
2704.00,0.0048
2703.00,0.0047
2702.00,0.0047
2701.00,0.0046
2700.00,0.0045
2699.00,0.0044
2698.00,0.0044
2697.00,0.0043
2696.00,0.0043
2695.00,0.0043
2694.00,0.0043
2693.00,0.0043
2692.00,0.0043
2691.00,0.0043
2690.00,0.0044
2689.00,0.0044
2688.00,0.0043
2687.00,0.0043
2686.00,0.0043
2685.00,0.0044
2684.00,0.0044
2683.00,0.0044
2682.00,0.0044
2681.00,0.0044
2680.00,0.0044
2679.00,0.0044
2678.00,0.0044
2677.00,0.0044
2676.00,0.0044
2675.00,0.0043
2674.00,0.0043
2673.00,0.0043
2672.00,0.0042
2671.00,0.0042
2670.00,0.0042
2669.00,0.0042
2668.00,0.0042
2667.00,0.0042
2666.00,0.0042
2665.00,0.0043
2664.00,0.0044
2663.00,0.0044
2662.00,0.0045
2661.00,0.0046
2660.00,0.0047
2659.00,0.0047
2658.00,0.0047
2657.00,0.0046
2656.00,0.0046
2655.00,0.0045
2654.00,0.0045
2653.00,0.0044
2652.00,0.0044
2651.00,0.0043
2650.00,0.0043
2649.00,0.0042
2648.00,0.0042
2647.00,0.0041
2646.00,0.0041
2645.00,0.0041
2644.00,0.0041
2643.00,0.0040
2642.00,0.0039
2641.00,0.0039
2640.00,0.0038
2639.00,0.0038
2638.00,0.0038
2637.00,0.0038
2636.00,0.0038
2635.00,0.0038
2634.00,0.0038
2633.00,0.0037
2632.00,0.0037
2631.00,0.0037
2630.00,0.0037
2629.00,0.0038
2628.00,0.0038
2627.00,0.0038
2626.00,0.0038
2625.00,0.0038
2624.00,0.0038
2623.00,0.0038
2622.00,0.0038
2621.00,0.0038
2620.00,0.0039
2619.00,0.0039
2618.00,0.0039
2617.00,0.0039
2616.00,0.0039
2615.00,0.0039
2614.00,0.0039
2613.00,0.0039
2612.00,0.0038
2611.00,0.0037
2610.00,0.0036
2609.00,0.0035
2608.00,0.0034
2607.00,0.0033
2606.00,0.0032
2605.00,0.0031
2604.00,0.0031
2603.00,0.0030
2602.00,0.0030
2601.00,0.0030
2600.00,0.0030
2599.00,0.0029
2598.00,0.0029
2597.00,0.0029
2596.00,0.0029
2595.00,0.0030
2594.00,0.0030
2593.00,0.0030
2592.00,0.0031
2591.00,0.0031
2590.00,0.0031
2589.00,0.0032
2588.00,0.0032
2587.00,0.0033
2586.00,0.0034
2585.00,0.0035
2584.00,0.0035
2583.00,0.0036
2582.00,0.0036
2581.00,0.0036
2580.00,0.0036
2579.00,0.0035
2578.00,0.0034
2577.00,0.0034
2576.00,0.0033
2575.00,0.0032
2574.00,0.0030
2573.00,0.0029
2572.00,0.0028
2571.00,0.0026
2570.00,0.0025
2569.00,0.0025
2568.00,0.0024
2567.00,0.0023
2566.00,0.0023
2565.00,0.0022
2564.00,0.0022
2563.00,0.0022
2562.00,0.0022
2561.00,0.0022
2560.00,0.0021
2559.00,0.0022
2558.00,0.0022
2557.00,0.0022
2556.00,0.0023
2555.00,0.0023
2554.00,0.0022
2553.00,0.0021
2552.00,0.0021
2551.00,0.0019
2550.00,0.0019
2549.00,0.0018
2548.00,0.0017
2547.00,0.0017
2546.00,0.0017
2545.00,0.0016
2544.00,0.0016
2543.00,0.0015
2542.00,0.0015
2541.00,0.0015
2540.00,0.0015
2539.00,0.0015
2538.00,0.0015
2537.00,0.0015
2536.00,0.0015
2535.00,0.0015
2534.00,0.0016
2533.00,0.0016
2532.00,0.0015
2531.00,0.0015
2530.00,0.0014
2529.00,0.0013
2528.00,0.0013
2527.00,0.0013
2526.00,0.0014
2525.00,0.0014
2524.00,0.0014
2523.00,0.0014
2522.00,0.0013
2521.00,0.0012
2520.00,0.0011
2519.00,0.0010
2518.00,0.0009
2517.00,0.0009
2516.00,0.0009
2515.00,0.0010
2514.00,0.0009
2513.00,0.0010
2512.00,0.0010
2511.00,0.0010
2510.00,0.0010
2509.00,0.0010
2508.00,0.0010
2507.00,0.0009
2506.00,0.0009
2505.00,0.0009
2504.00,0.0009
2503.00,0.0008
2502.00,0.0008
2501.00,0.0008
2500.00,0.0009
2499.00,0.0009
2498.00,0.0010
2497.00,0.0010
2496.00,0.0010
2495.00,0.0010
2494.00,0.0009
2493.00,0.0009
2492.00,0.0008
2491.00,0.0008
2490.00,0.0008
2489.00,0.0008
2488.00,0.0009
2487.00,0.0009
2486.00,0.0009
2485.00,0.0009
2484.00,0.0009
2483.00,0.0009
2482.00,0.0008
2481.00,0.0008
2480.00,0.0007
2479.00,0.0007
2478.00,0.0007
2477.00,0.0007
2476.00,0.0007
2475.00,0.0008
2474.00,0.0008
2473.00,0.0008
2472.00,0.0008
2471.00,0.0008
2470.00,0.0008
2469.00,0.0008
2468.00,0.0008
2467.00,0.0008
2466.00,0.0008
2465.00,0.0008
2464.00,0.0009
2463.00,0.0009
2462.00,0.0009
2461.00,0.0009
2460.00,0.0009
2459.00,0.0009
2458.00,0.0009
2457.00,0.0010
2456.00,0.0010
2455.00,0.0010
2454.00,0.0009
2453.00,0.0009
2452.00,0.0008
2451.00,0.0008
2450.00,0.0009
2449.00,0.0009
2448.00,0.0009
2447.00,0.0009
2446.00,0.0008
2445.00,0.0008
2444.00,0.0008
2443.00,0.0008
2442.00,0.0009
2441.00,0.0010
2440.00,0.0010
2439.00,0.0010
2438.00,0.0010
2437.00,0.0010
2436.00,0.0010
2435.00,0.0010
2434.00,0.0010
2433.00,0.0010
2432.00,0.0010
2431.00,0.0011
2430.00,0.0011
2429.00,0.0012
2428.00,0.0012
2427.00,0.0012
2426.00,0.0011
2425.00,0.0011
2424.00,0.0010
2423.00,0.0009
2422.00,0.0008
2421.00,0.0008
2420.00,0.0008
2419.00,0.0008
2418.00,0.0008
2417.00,0.0009
2416.00,0.0009
2415.00,0.0009
2414.00,0.0009
2413.00,0.0009
2412.00,0.0009
2411.00,0.0008
2410.00,0.0008
2409.00,0.0008
2408.00,0.0008
2407.00,0.0008
2406.00,0.0007
2405.00,0.0007
2404.00,0.0007
2403.00,0.0006
2402.00,0.0006
2401.00,0.0007
2400.00,0.0007
2399.00,0.0007
2398.00,0.0007
2397.00,0.0006
2396.00,0.0007
2395.00,0.0007
2394.00,0.0007
2393.00,0.0007
2392.00,0.0007
2391.00,0.0007
2390.00,0.0007
2389.00,0.0007
2388.00,0.0007
2387.00,0.0006
2386.00,0.0005
2385.00,0.0004
2384.00,0.0004
2383.00,0.0003
2382.00,0.0003
2381.00,0.0003
2380.00,0.0003
2379.00,0.0003
2378.00,0.0003
2377.00,0.0003
2376.00,0.0003
2375.00,0.0003
2374.00,0.0003
2373.00,0.0003
2372.00,0.0002
2371.00,0.0002
2370.00,0.0001
2369.00,0.0001
2368.00,0.0001
2367.00,0.0002
2366.00,0.0003
2365.00,0.0003
2364.00,0.0003
2363.00,0.0003
2362.00,0.0003
2361.00,0.0003
2360.00,0.0003
2359.00,0.0003
2358.00,0.0004
2357.00,0.0004
2356.00,0.0004
2355.00,0.0003
2354.00,0.0003
2353.00,0.0003
2352.00,0.0004
2351.00,0.0005
2350.00,0.0006
2349.00,0.0006
2348.00,0.0005
2347.00,0.0005
2346.00,0.0005
2345.00,0.0006
2344.00,0.0006
2343.00,0.0006
2342.00,0.0006
2341.00,0.0007
2340.00,0.0007
2339.00,0.0007
2338.00,0.0007
2337.00,0.0007
2336.00,0.0008
2335.00,0.0008
2334.00,0.0008
2333.00,0.0007
2332.00,0.0007
2331.00,0.0006
2330.00,0.0006
2329.00,0.0006
2328.00,0.0008
2327.00,0.0012
2326.00,0.0016
2325.00,0.0020
2324.00,0.0021
2323.00,0.0020
2322.00,0.0018
2321.00,0.0016
2320.00,0.0015
2319.00,0.0014
2318.00,0.0013
2317.00,0.0012
2316.00,0.0011
2315.00,0.0010
2314.00,0.0009
2313.00,0.0008
2312.00,0.0006
2311.00,0.0006
2310.00,0.0006
2309.00,0.0006
2308.00,0.0007
2307.00,0.0008
2306.00,0.0008
2305.00,0.0009
2304.00,0.0010
2303.00,0.0010
2302.00,0.0009
2301.00,0.0009
2300.00,0.0008
2299.00,0.0008
2298.00,0.0008
2297.00,0.0009
2296.00,0.0010
2295.00,0.0012
2294.00,0.0013
2293.00,0.0014
2292.00,0.0014
2291.00,0.0015
2290.00,0.0016
2289.00,0.0017
2288.00,0.0018
2287.00,0.0018
2286.00,0.0018
2285.00,0.0017
2284.00,0.0016
2283.00,0.0015
2282.00,0.0014
2281.00,0.0013
2280.00,0.0012
2279.00,0.0011
2278.00,0.0011
2277.00,0.0011
2276.00,0.0011
2275.00,0.0011
2274.00,0.0011
2273.00,0.0011
2272.00,0.0012
2271.00,0.0012
2270.00,0.0013
2269.00,0.0013
2268.00,0.0013
2267.00,0.0013
2266.00,0.0012
2265.00,0.0012
2264.00,0.0012
2263.00,0.0012
2262.00,0.0012
2261.00,0.0011
2260.00,0.0010
2259.00,0.0010
2258.00,0.0011
2257.00,0.0011
2256.00,0.0011
2255.00,0.0010
2254.00,0.0009
2253.00,0.0009
2252.00,0.0009
2251.00,0.0009
2250.00,0.0009
2249.00,0.0009
2248.00,0.0008
2247.00,0.0008
2246.00,0.0007
2245.00,0.0007
2244.00,0.0006
2243.00,0.0006
2242.00,0.0006
2241.00,0.0008
2240.00,0.0009
2239.00,0.0009
2238.00,0.0010
2237.00,0.0010
2236.00,0.0010
2235.00,0.0010
2234.00,0.0008
2233.00,0.0007
2232.00,0.0007
2231.00,0.0007
2230.00,0.0007
2229.00,0.0006
2228.00,0.0005
2227.00,0.0003
2226.00,0.0003
2225.00,0.0003
2224.00,0.0003
2223.00,0.0004
2222.00,0.0004
2221.00,0.0004
2220.00,0.0004
2219.00,0.0002
2218.00,0.0001
2217.00,0.0001
2216.00,0.0001
2215.00,0.0002
2214.00,0.0003
2213.00,0.0004
2212.00,0.0006
2211.00,0.0007
2210.00,0.0008
2209.00,0.0007
2208.00,0.0006
2207.00,0.0006
2206.00,0.0006
2205.00,0.0007
2204.00,0.0008
2203.00,0.0008
2202.00,0.0008
2201.00,0.0007
2200.00,0.0006
2199.00,0.0005
2198.00,0.0004
2197.00,0.0005
2196.00,0.0006
2195.00,0.0006
2194.00,0.0005
2193.00,0.0005
2192.00,0.0005
2191.00,0.0005
2190.00,0.0004
2189.00,0.0004
2188.00,0.0005
2187.00,0.0008
2186.00,0.0012
2185.00,0.0014
2184.00,0.0011
2183.00,0.0006
2182.00,0.0001
2181.00,-0.0000
2180.00,0.0001
2179.00,0.0002
2178.00,0.0003
2177.00,0.0003
2176.00,0.0002
2175.00,0.0003
2174.00,0.0004
2173.00,0.0005
2172.00,0.0006
2171.00,0.0008
2170.00,0.0011
2169.00,0.0013
2168.00,0.0014
2167.00,0.0013
2166.00,0.0012
2165.00,0.0011
2164.00,0.0013
2163.00,0.0015
2162.00,0.0017
2161.00,0.0013
2160.00,0.0002
2159.00,-0.0015
2158.00,-0.0030
2157.00,-0.0036
2156.00,-0.0034
2155.00,-0.0029
2154.00,-0.0024
2153.00,-0.0022
2152.00,-0.0022
2151.00,-0.0023
2150.00,-0.0022
2149.00,-0.0021
2148.00,-0.0018
2147.00,-0.0016
2146.00,-0.0017
2145.00,-0.0018
2144.00,-0.0019
2143.00,-0.0019
2142.00,-0.0018
2141.00,-0.0016
2140.00,-0.0015
2139.00,-0.0016
2138.00,-0.0017
2137.00,-0.0018
2136.00,-0.0019
2135.00,-0.0020
2134.00,-0.0020
2133.00,-0.0019
2132.00,-0.0017
2131.00,-0.0015
2130.00,-0.0014
2129.00,-0.0012
2128.00,-0.0011
2127.00,-0.0009
2126.00,-0.0008
2125.00,-0.0008
2124.00,-0.0007
2123.00,-0.0006
2122.00,-0.0005
2121.00,-0.0005
2120.00,-0.0006
2119.00,-0.0006
2118.00,-0.0006
2117.00,-0.0004
2116.00,-0.0003
2115.00,-0.0001
2114.00,0.0000
2113.00,0.0001
2112.00,0.0001
2111.00,0.0001
2110.00,0.0001
2109.00,0.0001
2108.00,0.0001
2107.00,0.0001
2106.00,0.0001
2105.00,0.0002
2104.00,0.0003
2103.00,0.0003
2102.00,0.0002
2101.00,0.0001
2100.00,-0.0000
2099.00,-0.0002
2098.00,-0.0003
2097.00,-0.0005
2096.00,-0.0006
2095.00,-0.0007
2094.00,-0.0006
2093.00,-0.0004
2092.00,-0.0002
2091.00,0.0000
2090.00,0.0001
2089.00,0.0001
2088.00,0.0001
2087.00,0.0000
2086.00,-0.0000
2085.00,-0.0000
2084.00,-0.0000
2083.00,0.0000
2082.00,0.0001
2081.00,0.0001
2080.00,0.0002
2079.00,0.0001
2078.00,0.0000
2077.00,-0.0001
2076.00,-0.0001
2075.00,-0.0002
2074.00,-0.0003
2073.00,-0.0003
2072.00,-0.0004
2071.00,-0.0003
2070.00,-0.0002
2069.00,-0.0001
2068.00,-0.0001
2067.00,-0.0001
2066.00,-0.0003
2065.00,-0.0003
2064.00,-0.0003
2063.00,-0.0003
2062.00,-0.0002
2061.00,-0.0000
2060.00,0.0001
2059.00,0.0002
2058.00,0.0003
2057.00,0.0004
2056.00,0.0004
2055.00,0.0004
2054.00,0.0003
2053.00,0.0004
2052.00,0.0007
2051.00,0.0009
2050.00,0.0007
2049.00,0.0003
2048.00,-0.0001
2047.00,-0.0004
2046.00,-0.0005
2045.00,-0.0004
2044.00,-0.0001
2043.00,0.0001
2042.00,0.0003
2041.00,0.0004
2040.00,0.0003
2039.00,0.0002
2038.00,-0.0000
2037.00,-0.0002
2036.00,-0.0004
2035.00,-0.0007
2034.00,-0.0008
2033.00,-0.0007
2032.00,-0.0004
2031.00,-0.0003
2030.00,-0.0004
2029.00,-0.0006
2028.00,-0.0008
2027.00,-0.0009
2026.00,-0.0009
2025.00,-0.0009
2024.00,-0.0009
2023.00,-0.0010
2022.00,-0.0013
2021.00,-0.0015
2020.00,-0.0015
2019.00,-0.0014
2018.00,-0.0013
2017.00,-0.0011
2016.00,-0.0010
2015.00,-0.0008
2014.00,-0.0008
2013.00,-0.0009
2012.00,-0.0010
2011.00,-0.0009
2010.00,-0.0010
2009.00,-0.0011
2008.00,-0.0014
2007.00,-0.0018
2006.00,-0.0020
2005.00,-0.0021
2004.00,-0.0021
2003.00,-0.0022
2002.00,-0.0023
2001.00,-0.0022
2000.00,-0.0021
1999.00,-0.0020
1998.00,-0.0019
1997.00,-0.0020
1996.00,-0.0021
1995.00,-0.0023
1994.00,-0.0023
1993.00,-0.0022
1992.00,-0.0018
1991.00,-0.0015
1990.00,-0.0013
1989.00,-0.0011
1988.00,-0.0010
1987.00,-0.0010
1986.00,-0.0010
1985.00,-0.0009
1984.00,-0.0007
1983.00,-0.0003
1982.00,0.0002
1981.00,0.0007
1980.00,0.0011
1979.00,0.0009
1978.00,0.0003
1977.00,-0.0006
1976.00,-0.0013
1975.00,-0.0019
1974.00,-0.0022
1973.00,-0.0022
1972.00,-0.0020
1971.00,-0.0017
1970.00,-0.0015
1969.00,-0.0014
1968.00,-0.0013
1967.00,-0.0013
1966.00,-0.0013
1965.00,-0.0014
1964.00,-0.0016
1963.00,-0.0018
1962.00,-0.0019
1961.00,-0.0019
1960.00,-0.0019
1959.00,-0.0019
1958.00,-0.0021
1957.00,-0.0022
1956.00,-0.0022
1955.00,-0.0021
1954.00,-0.0021
1953.00,-0.0021
1952.00,-0.0021
1951.00,-0.0021
1950.00,-0.0021
1949.00,-0.0022
1948.00,-0.0023
1947.00,-0.0024
1946.00,-0.0026
1945.00,-0.0026
1944.00,-0.0024
1943.00,-0.0022
1942.00,-0.0020
1941.00,-0.0017
1940.00,-0.0015
1939.00,-0.0014
1938.00,-0.0014
1937.00,-0.0014
1936.00,-0.0013
1935.00,-0.0013
1934.00,-0.0013
1933.00,-0.0013
1932.00,-0.0013
1931.00,-0.0012
1930.00,-0.0011
1929.00,-0.0010
1928.00,-0.0009
1927.00,-0.0009
1926.00,-0.0009
1925.00,-0.0009
1924.00,-0.0010
1923.00,-0.0010
1922.00,-0.0010
1921.00,-0.0009
1920.00,-0.0008
1919.00,-0.0006
1918.00,-0.0005
1917.00,-0.0005
1916.00,-0.0005
1915.00,-0.0006
1914.00,-0.0007
1913.00,-0.0007
1912.00,-0.0007
1911.00,-0.0007
1910.00,-0.0006
1909.00,-0.0005
1908.00,-0.0004
1907.00,-0.0004
1906.00,-0.0005
1905.00,-0.0006
1904.00,-0.0006
1903.00,-0.0007
1902.00,-0.0006
1901.00,-0.0005
1900.00,-0.0004
1899.00,-0.0004
1898.00,-0.0004
1897.00,-0.0004
1896.00,-0.0003
1895.00,-0.0003
1894.00,-0.0003
1893.00,-0.0003
1892.00,-0.0003
1891.00,-0.0004
1890.00,-0.0004
1889.00,-0.0005
1888.00,-0.0006
1887.00,-0.0006
1886.00,-0.0006
1885.00,-0.0004
1884.00,-0.0003
1883.00,-0.0003
1882.00,-0.0003
1881.00,-0.0002
1880.00,-0.0002
1879.00,-0.0001
1878.00,-0.0002
1877.00,-0.0002
1876.00,-0.0003
1875.00,-0.0004
1874.00,-0.0004
1873.00,-0.0004
1872.00,-0.0002
1871.00,-0.0001
1870.00,-0.0000
1869.00,-0.0000
1868.00,-0.0001
1867.00,-0.0003
1866.00,-0.0004
1865.00,-0.0004
1864.00,-0.0004
1863.00,-0.0003
1862.00,-0.0003
1861.00,-0.0003
1860.00,-0.0003
1859.00,-0.0003
1858.00,-0.0003
1857.00,-0.0002
1856.00,-0.0001
1855.00,-0.0001
1854.00,-0.0001
1853.00,-0.0002
1852.00,-0.0003
1851.00,-0.0003
1850.00,-0.0003
1849.00,-0.0002
1848.00,-0.0001
1847.00,-0.0001
1846.00,-0.0000
1845.00,0.0000
1844.00,0.0001
1843.00,0.0001
1842.00,0.0001
1841.00,0.0001
1840.00,0.0001
1839.00,0.0001
1838.00,0.0000
1837.00,0.0000
1836.00,0.0001
1835.00,0.0001
1834.00,0.0001
1833.00,0.0001
1832.00,0.0000
1831.00,0.0000
1830.00,0.0000
1829.00,0.0001
1828.00,0.0001
1827.00,0.0000
1826.00,0.0001
1825.00,0.0001
1824.00,0.0002
1823.00,0.0002
1822.00,0.0002
1821.00,0.0001
1820.00,-0.0000
1819.00,-0.0002
1818.00,-0.0003
1817.00,-0.0004
1816.00,-0.0004
1815.00,-0.0003
1814.00,-0.0002
1813.00,-0.0001
1812.00,-0.0000
1811.00,0.0000
1810.00,-0.0000
1809.00,0.0000
1808.00,0.0001
1807.00,0.0001
1806.00,0.0001
1805.00,0.0001
1804.00,0.0001
1803.00,0.0001
1802.00,0.0001
1801.00,0.0001
1800.00,0.0002
1799.00,0.0003
1798.00,0.0003
1797.00,0.0003
1796.00,0.0003
1795.00,0.0003
1794.00,0.0003
1793.00,0.0004
1792.00,0.0005
1791.00,0.0005
1790.00,0.0005
1789.00,0.0005
1788.00,0.0006
1787.00,0.0006
1786.00,0.0007
1785.00,0.0007
1784.00,0.0007
1783.00,0.0006
1782.00,0.0006
1781.00,0.0006
1780.00,0.0006
1779.00,0.0006
1778.00,0.0006
1777.00,0.0007
1776.00,0.0007
1775.00,0.0007
1774.00,0.0006
1773.00,0.0006
1772.00,0.0006
1771.00,0.0006
1770.00,0.0007
1769.00,0.0007
1768.00,0.0007
1767.00,0.0007
1766.00,0.0007
1765.00,0.0008
1764.00,0.0008
1763.00,0.0008
1762.00,0.0008
1761.00,0.0008
1760.00,0.0008
1759.00,0.0009
1758.00,0.0009
1757.00,0.0009
1756.00,0.0009
1755.00,0.0009
1754.00,0.0010
1753.00,0.0011
1752.00,0.0012
1751.00,0.0012
1750.00,0.0012
1749.00,0.0012
1748.00,0.0013
1747.00,0.0013
1746.00,0.0013
1745.00,0.0014
1744.00,0.0014
1743.00,0.0015
1742.00,0.0015
1741.00,0.0016
1740.00,0.0018
1739.00,0.0018
1738.00,0.0018
1737.00,0.0019
1736.00,0.0019
1735.00,0.0020
1734.00,0.0020
1733.00,0.0020
1732.00,0.0020
1731.00,0.0020
1730.00,0.0020
1729.00,0.0020
1728.00,0.0020
1727.00,0.0020
1726.00,0.0021
1725.00,0.0021
1724.00,0.0022
1723.00,0.0022
1722.00,0.0022
1721.00,0.0022
1720.00,0.0022
1719.00,0.0021
1718.00,0.0021
1717.00,0.0020
1716.00,0.0020
1715.00,0.0019
1714.00,0.0018
1713.00,0.0018
1712.00,0.0019
1711.00,0.0019
1710.00,0.0020
1709.00,0.0020
1708.00,0.0020
1707.00,0.0020
1706.00,0.0019
1705.00,0.0019
1704.00,0.0019
1703.00,0.0020
1702.00,0.0019
1701.00,0.0020
1700.00,0.0020
1699.00,0.0020
1698.00,0.0020
1697.00,0.0021
1696.00,0.0021
1695.00,0.0022
1694.00,0.0022
1693.00,0.0022
1692.00,0.0022
1691.00,0.0023
1690.00,0.0023
1689.00,0.0023
1688.00,0.0023
1687.00,0.0023
1686.00,0.0023
1685.00,0.0024
1684.00,0.0024
1683.00,0.0025
1682.00,0.0025
1681.00,0.0025
1680.00,0.0026
1679.00,0.0027
1678.00,0.0028
1677.00,0.0029
1676.00,0.0029
1675.00,0.0029
1674.00,0.0029
1673.00,0.0029
1672.00,0.0029
1671.00,0.0029
1670.00,0.0029
1669.00,0.0030
1668.00,0.0031
1667.00,0.0031
1666.00,0.0032
1665.00,0.0032
1664.00,0.0033
1663.00,0.0033
1662.00,0.0033
1661.00,0.0033
1660.00,0.0034
1659.00,0.0034
1658.00,0.0035
1657.00,0.0036
1656.00,0.0037
1655.00,0.0037
1654.00,0.0037
1653.00,0.0038
1652.00,0.0038
1651.00,0.0039
1650.00,0.0039
1649.00,0.0040
1648.00,0.0041
1647.00,0.0043
1646.00,0.0044
1645.00,0.0044
1644.00,0.0045
1643.00,0.0045
1642.00,0.0045
1641.00,0.0046
1640.00,0.0047
1639.00,0.0047
1638.00,0.0047
1637.00,0.0047
1636.00,0.0047
1635.00,0.0048
1634.00,0.0047
1633.00,0.0047
1632.00,0.0046
1631.00,0.0046
1630.00,0.0045
1629.00,0.0044
1628.00,0.0044
1627.00,0.0043
1626.00,0.0042
1625.00,0.0042
1624.00,0.0042
1623.00,0.0042
1622.00,0.0041
1621.00,0.0041
1620.00,0.0041
1619.00,0.0041
1618.00,0.0041
1617.00,0.0041
1616.00,0.0041
1615.00,0.0041
1614.00,0.0041
1613.00,0.0041
1612.00,0.0041
1611.00,0.0041
1610.00,0.0041
1609.00,0.0040
1608.00,0.0040
1607.00,0.0040
1606.00,0.0040
1605.00,0.0040
1604.00,0.0040
1603.00,0.0040
1602.00,0.0040
1601.00,0.0040
1600.00,0.0040
1599.00,0.0040
1598.00,0.0040
1597.00,0.0040
1596.00,0.0040
1595.00,0.0040
1594.00,0.0040
1593.00,0.0040
1592.00,0.0040
1591.00,0.0041
1590.00,0.0041
1589.00,0.0042
1588.00,0.0043
1587.00,0.0044
1586.00,0.0046
1585.00,0.0048
1584.00,0.0050
1583.00,0.0052
1582.00,0.0054
1581.00,0.0056
1580.00,0.0058
1579.00,0.0060
1578.00,0.0061
1577.00,0.0061
1576.00,0.0061
1575.00,0.0060
1574.00,0.0059
1573.00,0.0058
1572.00,0.0057
1571.00,0.0056
1570.00,0.0054
1569.00,0.0053
1568.00,0.0052
1567.00,0.0051
1566.00,0.0051
1565.00,0.0050
1564.00,0.0050
1563.00,0.0051
1562.00,0.0051
1561.00,0.0051
1560.00,0.0051
1559.00,0.0051
1558.00,0.0050
1557.00,0.0050
1556.00,0.0051
1555.00,0.0052
1554.00,0.0053
1553.00,0.0053
1552.00,0.0054
1551.00,0.0054
1550.00,0.0055
1549.00,0.0056
1548.00,0.0058
1547.00,0.0060
1546.00,0.0063
1545.00,0.0066
1544.00,0.0068
1543.00,0.0069
1542.00,0.0070
1541.00,0.0070
1540.00,0.0070
1539.00,0.0067
1538.00,0.0064
1537.00,0.0061
1536.00,0.0059
1535.00,0.0057
1534.00,0.0054
1533.00,0.0051
1532.00,0.0050
1531.00,0.0048
1530.00,0.0048
1529.00,0.0048
1528.00,0.0047
1527.00,0.0047
1526.00,0.0046
1525.00,0.0046
1524.00,0.0047
1523.00,0.0048
1522.00,0.0048
1521.00,0.0048
1520.00,0.0047
1519.00,0.0046
1518.00,0.0046
1517.00,0.0047
1516.00,0.0048
1515.00,0.0049
1514.00,0.0050
1513.00,0.0051
1512.00,0.0052
1511.00,0.0052
1510.00,0.0052
1509.00,0.0053
1508.00,0.0053
1507.00,0.0053
1506.00,0.0054
1505.00,0.0055
1504.00,0.0057
1503.00,0.0059
1502.00,0.0060
1501.00,0.0063
1500.00,0.0065
1499.00,0.0068
1498.00,0.0070
1497.00,0.0073
1496.00,0.0076
1495.00,0.0079
1494.00,0.0081
1493.00,0.0084
1492.00,0.0088
1491.00,0.0091
1490.00,0.0095
1489.00,0.0099
1488.00,0.0105
1487.00,0.0111
1486.00,0.0116
1485.00,0.0123
1484.00,0.0131
1483.00,0.0139
1482.00,0.0148
1481.00,0.0160
1480.00,0.0173
1479.00,0.0186
1478.00,0.0202
1477.00,0.0222
1476.00,0.0247
1475.00,0.0277
1474.00,0.0316
1473.00,0.0371
1472.00,0.0435
1471.00,0.0497
1470.00,0.0558
1469.00,0.0621
1468.00,0.0690
1467.00,0.0764
1466.00,0.0847
1465.00,0.0936
1464.00,0.1014
1463.00,0.1068
1462.00,0.1103
1461.00,0.1129
1460.00,0.1147
1459.00,0.1161
1458.00,0.1175
1457.00,0.1189
1456.00,0.1195
1455.00,0.1192
1454.00,0.1186
1453.00,0.1174
1452.00,0.1154
1451.00,0.1122
1450.00,0.1074
1449.00,0.1005
1448.00,0.0915
1447.00,0.0818
1446.00,0.0728
1445.00,0.0650
1444.00,0.0582
1443.00,0.0525
1442.00,0.0482
1441.00,0.0452
1440.00,0.0433
1439.00,0.0424
1438.00,0.0421
1437.00,0.0419
1436.00,0.0406
1435.00,0.0381
1434.00,0.0347
1433.00,0.0306
1432.00,0.0265
1431.00,0.0227
1430.00,0.0198
1429.00,0.0176
1428.00,0.0160
1427.00,0.0150
1426.00,0.0143
1425.00,0.0137
1424.00,0.0132
1423.00,0.0128
1422.00,0.0126
1421.00,0.0124
1420.00,0.0121
1419.00,0.0119
1418.00,0.0117
1417.00,0.0114
1416.00,0.0110
1415.00,0.0109
1414.00,0.0108
1413.00,0.0106
1412.00,0.0105
1411.00,0.0104
1410.00,0.0103
1409.00,0.0102
1408.00,0.0101
1407.00,0.0101
1406.00,0.0101
1405.00,0.0101
1404.00,0.0100
1403.00,0.0101
1402.00,0.0102
1401.00,0.0104
1400.00,0.0105
1399.00,0.0107
1398.00,0.0109
1397.00,0.0111
1396.00,0.0113
1395.00,0.0116
1394.00,0.0120
1393.00,0.0125
1392.00,0.0131
1391.00,0.0139
1390.00,0.0150
1389.00,0.0165
1388.00,0.0186
1387.00,0.0217
1386.00,0.0259
1385.00,0.0315
1384.00,0.0391
1383.00,0.0499
1382.00,0.0641
1381.00,0.0822
1380.00,0.1040
1379.00,0.1280
1378.00,0.1500
1377.00,0.1651
1376.00,0.1686
1375.00,0.1587
1374.00,0.1383
1373.00,0.1144
1372.00,0.0928
1371.00,0.0750
1370.00,0.0608
1369.00,0.0500
1368.00,0.0425
1367.00,0.0378
1366.00,0.0352
1365.00,0.0341
1364.00,0.0343
1363.00,0.0354
1362.00,0.0371
1361.00,0.0391
1360.00,0.0405
1359.00,0.0409
1358.00,0.0400
1357.00,0.0377
1356.00,0.0345
1355.00,0.0310
1354.00,0.0276
1353.00,0.0246
1352.00,0.0221
1351.00,0.0201
1350.00,0.0185
1349.00,0.0171
1348.00,0.0159
1347.00,0.0150
1346.00,0.0142
1345.00,0.0135
1344.00,0.0129
1343.00,0.0125
1342.00,0.0121
1341.00,0.0118
1340.00,0.0115
1339.00,0.0113
1338.00,0.0112
1337.00,0.0112
1336.00,0.0112
1335.00,0.0114
1334.00,0.0117
1333.00,0.0120
1332.00,0.0124
1331.00,0.0126
1330.00,0.0127
1329.00,0.0127
1328.00,0.0125
1327.00,0.0121
1326.00,0.0117
1325.00,0.0111
1324.00,0.0106
1323.00,0.0101
1322.00,0.0097
1321.00,0.0094
1320.00,0.0091
1319.00,0.0090
1318.00,0.0089
1317.00,0.0087
1316.00,0.0086
1315.00,0.0086
1314.00,0.0086
1313.00,0.0086
1312.00,0.0088
1311.00,0.0092
1310.00,0.0097
1309.00,0.0106
1308.00,0.0118
1307.00,0.0133
1306.00,0.0147
1305.00,0.0156
1304.00,0.0157
1303.00,0.0152
1302.00,0.0144
1301.00,0.0136
1300.00,0.0130
1299.00,0.0127
1298.00,0.0126
1297.00,0.0125
1296.00,0.0123
1295.00,0.0121
1294.00,0.0117
1293.00,0.0112
1292.00,0.0108
1291.00,0.0103
1290.00,0.0098
1289.00,0.0095
1288.00,0.0091
1287.00,0.0088
1286.00,0.0086
1285.00,0.0084
1284.00,0.0083
1283.00,0.0082
1282.00,0.0081
1281.00,0.0080
1280.00,0.0079
1279.00,0.0078
1278.00,0.0078
1277.00,0.0077
1276.00,0.0077
1275.00,0.0077
1274.00,0.0077
1273.00,0.0078
1272.00,0.0078
1271.00,0.0079
1270.00,0.0081
1269.00,0.0083
1268.00,0.0086
1267.00,0.0089
1266.00,0.0093
1265.00,0.0097
1264.00,0.0100
1263.00,0.0104
1262.00,0.0109
1261.00,0.0114
1260.00,0.0121
1259.00,0.0129
1258.00,0.0138
1257.00,0.0145
1256.00,0.0147
1255.00,0.0144
1254.00,0.0135
1253.00,0.0124
1252.00,0.0113
1251.00,0.0103
1250.00,0.0096
1249.00,0.0091
1248.00,0.0087
1247.00,0.0084
1246.00,0.0082
1245.00,0.0081
1244.00,0.0079
1243.00,0.0078
1242.00,0.0076
1241.00,0.0075
1240.00,0.0074
1239.00,0.0073
1238.00,0.0073
1237.00,0.0072
1236.00,0.0072
1235.00,0.0072
1234.00,0.0072
1233.00,0.0073
1232.00,0.0073
1231.00,0.0073
1230.00,0.0074
1229.00,0.0075
1228.00,0.0076
1227.00,0.0077
1226.00,0.0079
1225.00,0.0082
1224.00,0.0085
1223.00,0.0089
1222.00,0.0092
1221.00,0.0095
1220.00,0.0096
1219.00,0.0097
1218.00,0.0096
1217.00,0.0095
1216.00,0.0092
1215.00,0.0090
1214.00,0.0087
1213.00,0.0084
1212.00,0.0082
1211.00,0.0080
1210.00,0.0078
1209.00,0.0076
1208.00,0.0075
1207.00,0.0074
1206.00,0.0073
1205.00,0.0073
1204.00,0.0072
1203.00,0.0072
1202.00,0.0072
1201.00,0.0072
1200.00,0.0073
1199.00,0.0073
1198.00,0.0074
1197.00,0.0074
1196.00,0.0074
1195.00,0.0075
1194.00,0.0075
1193.00,0.0075
1192.00,0.0075
1191.00,0.0075
1190.00,0.0076
1189.00,0.0076
1188.00,0.0077
1187.00,0.0078
1186.00,0.0079
1185.00,0.0080
1184.00,0.0081
1183.00,0.0083
1182.00,0.0085
1181.00,0.0089
1180.00,0.0093
1179.00,0.0099
1178.00,0.0107
1177.00,0.0116
1176.00,0.0130
1175.00,0.0148
1174.00,0.0173
1173.00,0.0203
1172.00,0.0240
1171.00,0.0282
1170.00,0.0323
1169.00,0.0356
1168.00,0.0376
1167.00,0.0380
1166.00,0.0368
1165.00,0.0346
1164.00,0.0320
1163.00,0.0295
1162.00,0.0273
1161.00,0.0255
1160.00,0.0240
1159.00,0.0229
1158.00,0.0220
1157.00,0.0213
1156.00,0.0209
1155.00,0.0205
1154.00,0.0202
1153.00,0.0198
1152.00,0.0192
1151.00,0.0185
1150.00,0.0176
1149.00,0.0165
1148.00,0.0155
1147.00,0.0144
1146.00,0.0135
1145.00,0.0126
1144.00,0.0119
1143.00,0.0113
1142.00,0.0108
1141.00,0.0103
1140.00,0.0099
1139.00,0.0095
1138.00,0.0091
1137.00,0.0087
1136.00,0.0084
1135.00,0.0082
1134.00,0.0080
1133.00,0.0079
1132.00,0.0078
1131.00,0.0078
1130.00,0.0078
1129.00,0.0078
1128.00,0.0079
1127.00,0.0079
1126.00,0.0080
1125.00,0.0081
1124.00,0.0082
1123.00,0.0082
1122.00,0.0082
1121.00,0.0083
1120.00,0.0083
1119.00,0.0085
1118.00,0.0085
1117.00,0.0086
1116.00,0.0087
1115.00,0.0088
1114.00,0.0089
1113.00,0.0091
1112.00,0.0093
1111.00,0.0095
1110.00,0.0098
1109.00,0.0102
1108.00,0.0107
1107.00,0.0112
1106.00,0.0118
1105.00,0.0124
1104.00,0.0128
1103.00,0.0131
1102.00,0.0131
1101.00,0.0128
1100.00,0.0124
1099.00,0.0118
1098.00,0.0112
1097.00,0.0107
1096.00,0.0102
1095.00,0.0098
1094.00,0.0095
1093.00,0.0091
1092.00,0.0089
1091.00,0.0087
1090.00,0.0087
1089.00,0.0087
1088.00,0.0087
1087.00,0.0087
1086.00,0.0087
1085.00,0.0087
1084.00,0.0086
1083.00,0.0085
1082.00,0.0084
1081.00,0.0082
1080.00,0.0081
1079.00,0.0081
1078.00,0.0081
1077.00,0.0081
1076.00,0.0081
1075.00,0.0081
1074.00,0.0081
1073.00,0.0081
1072.00,0.0081
1071.00,0.0080
1070.00,0.0080
1069.00,0.0080
1068.00,0.0080
1067.00,0.0080
1066.00,0.0081
1065.00,0.0082
1064.00,0.0083
1063.00,0.0083
1062.00,0.0084
1061.00,0.0084
1060.00,0.0085
1059.00,0.0085
1058.00,0.0087
1057.00,0.0089
1056.00,0.0091
1055.00,0.0094
1054.00,0.0096
1053.00,0.0099
1052.00,0.0102
1051.00,0.0105
1050.00,0.0110
1049.00,0.0116
1048.00,0.0122
1047.00,0.0129
1046.00,0.0134
1045.00,0.0138
1044.00,0.0139
1043.00,0.0137
1042.00,0.0133
1041.00,0.0128
1040.00,0.0124
1039.00,0.0122
1038.00,0.0122
1037.00,0.0122
1036.00,0.0123
1035.00,0.0122
1034.00,0.0121
1033.00,0.0119
1032.00,0.0118
1031.00,0.0117
1030.00,0.0117
1029.00,0.0117
1028.00,0.0117
1027.00,0.0118
1026.00,0.0120
1025.00,0.0123
1024.00,0.0125
1023.00,0.0129
1022.00,0.0131
1021.00,0.0134
1020.00,0.0136
1019.00,0.0137
1018.00,0.0138
1017.00,0.0139
1016.00,0.0139
1015.00,0.0140
1014.00,0.0140
1013.00,0.0140
1012.00,0.0140
1011.00,0.0140
1010.00,0.0141
1009.00,0.0143
1008.00,0.0147
1007.00,0.0154
1006.00,0.0163
1005.00,0.0177
1004.00,0.0196
1003.00,0.0224
1002.00,0.0263
1001.00,0.0312
1000.00,0.0366
999.00,0.0412
998.00,0.0438
997.00,0.0433
996.00,0.0400
995.00,0.0350
994.00,0.0295
993.00,0.0247
992.00,0.0209
991.00,0.0181
990.00,0.0163
989.00,0.0150
988.00,0.0142
987.00,0.0137
986.00,0.0135
985.00,0.0135
984.00,0.0138
983.00,0.0144
982.00,0.0155
981.00,0.0171
980.00,0.0195
979.00,0.0227
978.00,0.0269
977.00,0.0319
976.00,0.0375
975.00,0.0431
974.00,0.0476
973.00,0.0497
972.00,0.0485
971.00,0.0440
970.00,0.0375
969.00,0.0308
968.00,0.0250
967.00,0.0206
966.00,0.0174
965.00,0.0151
964.00,0.0135
963.00,0.0123
962.00,0.0114
961.00,0.0108
960.00,0.0103
959.00,0.0100
958.00,0.0096
957.00,0.0093
956.00,0.0089
955.00,0.0086
954.00,0.0084
953.00,0.0082
952.00,0.0080
951.00,0.0080
950.00,0.0079
949.00,0.0078
948.00,0.0077
947.00,0.0077
946.00,0.0078
945.00,0.0080
944.00,0.0083
943.00,0.0086
942.00,0.0089
941.00,0.0091
940.00,0.0091
939.00,0.0089
938.00,0.0084
937.00,0.0079
936.00,0.0074
935.00,0.0070
934.00,0.0066
933.00,0.0064
932.00,0.0061
931.00,0.0060
930.00,0.0060
929.00,0.0061
928.00,0.0061
927.00,0.0062
926.00,0.0062
925.00,0.0061
924.00,0.0060
923.00,0.0060
922.00,0.0060
921.00,0.0060
920.00,0.0060
919.00,0.0061
918.00,0.0062
917.00,0.0063
916.00,0.0062
915.00,0.0062
914.00,0.0062
913.00,0.0064
912.00,0.0066
911.00,0.0068
910.00,0.0070
909.00,0.0072
908.00,0.0074
907.00,0.0078
906.00,0.0084
905.00,0.0094
904.00,0.0106
903.00,0.0122
902.00,0.0138
901.00,0.0153
900.00,0.0163
899.00,0.0166
898.00,0.0160
897.00,0.0147
896.00,0.0131
895.00,0.0114
894.00,0.0100
893.00,0.0089
892.00,0.0082
891.00,0.0078
890.00,0.0076
889.00,0.0075
888.00,0.0074
887.00,0.0073
886.00,0.0071
885.00,0.0069
884.00,0.0068
883.00,0.0067
882.00,0.0067
881.00,0.0067
880.00,0.0068
879.00,0.0070
878.00,0.0073
877.00,0.0075
876.00,0.0076
875.00,0.0076
874.00,0.0076
873.00,0.0075
872.00,0.0075
871.00,0.0074
870.00,0.0074
869.00,0.0074
868.00,0.0075
867.00,0.0076
866.00,0.0077
865.00,0.0078
864.00,0.0080
863.00,0.0081
862.00,0.0083
861.00,0.0084
860.00,0.0085
859.00,0.0087
858.00,0.0088
857.00,0.0089
856.00,0.0091
855.00,0.0093
854.00,0.0095
853.00,0.0098
852.00,0.0102
851.00,0.0107
850.00,0.0113
849.00,0.0121
848.00,0.0132
847.00,0.0149
846.00,0.0175
845.00,0.0217
844.00,0.0277
843.00,0.0351
842.00,0.0416
841.00,0.0444
840.00,0.0420
839.00,0.0356
838.00,0.0281
837.00,0.0219
836.00,0.0177
835.00,0.0151
834.00,0.0135
833.00,0.0125
832.00,0.0119
831.00,0.0115
830.00,0.0113
829.00,0.0111
828.00,0.0108
827.00,0.0106
826.00,0.0104
825.00,0.0103
824.00,0.0102
823.00,0.0102
822.00,0.0103
821.00,0.0104
820.00,0.0106
819.00,0.0109
818.00,0.0113
817.00,0.0117
816.00,0.0124
815.00,0.0133
814.00,0.0147
813.00,0.0163
812.00,0.0183
811.00,0.0201
810.00,0.0215
809.00,0.0220
808.00,0.0216
807.00,0.0204
806.00,0.0187
805.00,0.0169
804.00,0.0152
803.00,0.0139
802.00,0.0129
801.00,0.0121
800.00,0.0116
799.00,0.0112
798.00,0.0109
797.00,0.0106
796.00,0.0103
795.00,0.0099
794.00,0.0096
793.00,0.0091
792.00,0.0087
791.00,0.0083
790.00,0.0080
789.00,0.0078
788.00,0.0076
787.00,0.0075
786.00,0.0073
785.00,0.0071
784.00,0.0069
783.00,0.0067
782.00,0.0066
781.00,0.0064
780.00,0.0064
779.00,0.0063
778.00,0.0063
777.00,0.0063
776.00,0.0063
775.00,0.0064
774.00,0.0064
773.00,0.0065
772.00,0.0065
771.00,0.0066
770.00,0.0066
769.00,0.0066
768.00,0.0065
767.00,0.0065
766.00,0.0064
765.00,0.0063
764.00,0.0062
763.00,0.0062
762.00,0.0063
761.00,0.0065
760.00,0.0067
759.00,0.0068
758.00,0.0068
757.00,0.0070
756.00,0.0072
755.00,0.0074
754.00,0.0075
753.00,0.0075
752.00,0.0075
751.00,0.0076
750.00,0.0078
749.00,0.0079
748.00,0.0080
747.00,0.0081
746.00,0.0082
745.00,0.0084
744.00,0.0085
743.00,0.0087
742.00,0.0089
741.00,0.0092
740.00,0.0095
739.00,0.0099
738.00,0.0103
737.00,0.0107
736.00,0.0111
735.00,0.0115
734.00,0.0120
733.00,0.0127
732.00,0.0135
731.00,0.0143
730.00,0.0148
729.00,0.0150
728.00,0.0150
727.00,0.0150
726.00,0.0153
725.00,0.0156
724.00,0.0161
723.00,0.0166
722.00,0.0171
721.00,0.0173
720.00,0.0171
719.00,0.0164
718.00,0.0153
717.00,0.0141
716.00,0.0130
715.00,0.0120
714.00,0.0113
713.00,0.0110
712.00,0.0109
711.00,0.0108
710.00,0.0107
709.00,0.0104
708.00,0.0100
707.00,0.0097
706.00,0.0095
705.00,0.0095
704.00,0.0096
703.00,0.0095
702.00,0.0094
701.00,0.0092
700.00,0.0092
699.00,0.0091
698.00,0.0090
697.00,0.0089
696.00,0.0089
695.00,0.0089
694.00,0.0091
693.00,0.0093
692.00,0.0094
691.00,0.0095
690.00,0.0095
689.00,0.0094
688.00,0.0093
687.00,0.0091
686.00,0.0089
685.00,0.0088
684.00,0.0089
683.00,0.0091
682.00,0.0093
681.00,0.0094
680.00,0.0094
679.00,0.0094
678.00,0.0093
677.00,0.0093
676.00,0.0093
675.00,0.0095
674.00,0.0098
673.00,0.0100
672.00,0.0101
671.00,0.0103
670.00,0.0106
669.00,0.0107
668.00,0.0106
667.00,0.0100
666.00,0.0094
665.00,0.0090
664.00,0.0089
663.00,0.0090
662.00,0.0090
661.00,0.0089
660.00,0.0087
659.00,0.0085
658.00,0.0085
657.00,0.0086
656.00,0.0087
655.00,0.0087
654.00,0.0087
653.00,0.0087
652.00,0.0086
651.00,0.0084
650.00,0.0083
649.00,0.0082
648.00,0.0081
647.00,0.0082
646.00,0.0083
645.00,0.0084
644.00,0.0084
643.00,0.0084
642.00,0.0084
641.00,0.0084
640.00,0.0083
639.00,0.0081
638.00,0.0079
637.00,0.0077
636.00,0.0075
635.00,0.0072
634.00,0.0072
633.00,0.0076
632.00,0.0082
631.00,0.0087
630.00,0.0089
629.00,0.0090
628.00,0.0091
627.00,0.0091
626.00,0.0092
625.00,0.0091
624.00,0.0090
623.00,0.0088
622.00,0.0086
621.00,0.0085
620.00,0.0083
619.00,0.0081
618.00,0.0080
617.00,0.0079
616.00,0.0079
615.00,0.0079
614.00,0.0079
613.00,0.0079
612.00,0.0080
611.00,0.0082
610.00,0.0084
609.00,0.0085
608.00,0.0084
607.00,0.0082
606.00,0.0080
605.00,0.0080
604.00,0.0082
603.00,0.0084
602.00,0.0086
601.00,0.0085
600.00,0.0084
599.00,0.0083
598.00,0.0083
597.00,0.0082
596.00,0.0081
595.00,0.0080
594.00,0.0080
593.00,0.0081
592.00,0.0082
591.00,0.0082
590.00,0.0081
589.00,0.0081
588.00,0.0082
587.00,0.0085
586.00,0.0089
585.00,0.0091
584.00,0.0090
583.00,0.0087
582.00,0.0085
581.00,0.0084
580.00,0.0084
579.00,0.0083
578.00,0.0082
577.00,0.0082
576.00,0.0083
575.00,0.0084
574.00,0.0086
573.00,0.0086
572.00,0.0086
571.00,0.0087
570.00,0.0088
569.00,0.0088
568.00,0.0088
567.00,0.0086
566.00,0.0085
565.00,0.0084
564.00,0.0083
563.00,0.0082
562.00,0.0080
561.00,0.0077
560.00,0.0073
559.00,0.0071
558.00,0.0069
557.00,0.0070
556.00,0.0073
555.00,0.0079
554.00,0.0087
553.00,0.0092
552.00,0.0093
551.00,0.0090
550.00,0.0086
549.00,0.0083
548.00,0.0083
547.00,0.0084
546.00,0.0086
545.00,0.0087
544.00,0.0088
543.00,0.0090
542.00,0.0094
541.00,0.0098
540.00,0.0103
539.00,0.0108
538.00,0.0113
537.00,0.0116
536.00,0.0118
535.00,0.0116
534.00,0.0113
533.00,0.0109
532.00,0.0107
531.00,0.0107
530.00,0.0109
529.00,0.0112
528.00,0.0114
527.00,0.0112
526.00,0.0106
525.00,0.0100
524.00,0.0098
523.00,0.0099
522.00,0.0099
521.00,0.0097
520.00,0.0093
519.00,0.0088
518.00,0.0084
517.00,0.0081
516.00,0.0080
515.00,0.0080
514.00,0.0081
513.00,0.0080
512.00,0.0078
511.00,0.0075
510.00,0.0074
509.00,0.0075
508.00,0.0077
507.00,0.0082
506.00,0.0087
505.00,0.0093
504.00,0.0097
503.00,0.0097
502.00,0.0093
501.00,0.0090
500.00,0.0092
499.00,0.0097
498.00,0.0101
497.00,0.0100
496.00,0.0095
495.00,0.0087
494.00,0.0081
493.00,0.0079
492.00,0.0080
491.00,0.0080
490.00,0.0078
489.00,0.0072
488.00,0.0068
487.00,0.0070
486.00,0.0078
485.00,0.0090
484.00,0.0103
483.00,0.0112
482.00,0.0116
481.00,0.0115
480.00,0.0109
479.00,0.0101
478.00,0.0093
477.00,0.0087
476.00,0.0083
475.00,0.0081
474.00,0.0084
473.00,0.0096
472.00,0.0115
471.00,0.0133
470.00,0.0145
469.00,0.0153
468.00,0.0161
467.00,0.0169
466.00,0.0171
465.00,0.0168
464.00,0.0162
463.00,0.0163
462.00,0.0170
461.00,0.0177
460.00,0.0177
459.00,0.0168
458.00,0.0160
457.00,0.0159
456.00,0.0167
455.00,0.0177
454.00,0.0187
453.00,0.0194
452.00,0.0197
451.00,0.0194
450.00,0.0183
