Created as New Dataset,Sample 188 By Administrator Date Wednesday, September 03 2025
cm-1,A
4000.00,0.0009
3999.00,0.0009
3998.00,0.0009
3997.00,0.0009
3996.00,0.0009
3995.00,0.0009
3994.00,0.0009
3993.00,0.0009
3992.00,0.0009
3991.00,0.0009
3990.00,0.0009
3989.00,0.0009
3988.00,0.0009
3987.00,0.0009
3986.00,0.0009
3985.00,0.0009
3984.00,0.0009
3983.00,0.0009
3982.00,0.0008
3981.00,0.0008
3980.00,0.0008
3979.00,0.0007
3978.00,0.0007
3977.00,0.0008
3976.00,0.0008
3975.00,0.0008
3974.00,0.0008
3973.00,0.0008
3972.00,0.0008
3971.00,0.0007
3970.00,0.0007
3969.00,0.0007
3968.00,0.0006
3967.00,0.0006
3966.00,0.0007
3965.00,0.0007
3964.00,0.0007
3963.00,0.0007
3962.00,0.0007
3961.00,0.0008
3960.00,0.0008
3959.00,0.0007
3958.00,0.0007
3957.00,0.0007
3956.00,0.0006
3955.00,0.0006
3954.00,0.0006
3953.00,0.0006
3952.00,0.0006
3951.00,0.0006
3950.00,0.0007
3949.00,0.0007
3948.00,0.0007
3947.00,0.0007
3946.00,0.0007
3945.00,0.0007
3944.00,0.0007
3943.00,0.0007
3942.00,0.0008
3941.00,0.0008
3940.00,0.0008
3939.00,0.0008
3938.00,0.0007
3937.00,0.0007
3936.00,0.0007
3935.00,0.0007
3934.00,0.0007
3933.00,0.0007
3932.00,0.0007
3931.00,0.0008
3930.00,0.0008
3929.00,0.0008
3928.00,0.0008
3927.00,0.0007
3926.00,0.0007
3925.00,0.0007
3924.00,0.0007
3923.00,0.0007
3922.00,0.0007
3921.00,0.0007
3920.00,0.0008
3919.00,0.0008
3918.00,0.0008
3917.00,0.0008
3916.00,0.0007
3915.00,0.0007
3914.00,0.0007
3913.00,0.0007
3912.00,0.0007
3911.00,0.0008
3910.00,0.0008
3909.00,0.0008
3908.00,0.0007
3907.00,0.0007
3906.00,0.0006
3905.00,0.0006
3904.00,0.0006
3903.00,0.0006
3902.00,0.0006
3901.00,0.0006
3900.00,0.0007
3899.00,0.0007
3898.00,0.0007
3897.00,0.0007
3896.00,0.0007
3895.00,0.0007
3894.00,0.0007
3893.00,0.0007
3892.00,0.0007
3891.00,0.0007
3890.00,0.0007
3889.00,0.0007
3888.00,0.0007
3887.00,0.0007
3886.00,0.0007
3885.00,0.0007
3884.00,0.0007
3883.00,0.0007
3882.00,0.0007
3881.00,0.0007
3880.00,0.0007
3879.00,0.0007
3878.00,0.0007
3877.00,0.0007
3876.00,0.0007
3875.00,0.0007
3874.00,0.0008
3873.00,0.0007
3872.00,0.0007
3871.00,0.0007
3870.00,0.0006
3869.00,0.0006
3868.00,0.0006
3867.00,0.0006
3866.00,0.0006
3865.00,0.0006
3864.00,0.0006
3863.00,0.0006
3862.00,0.0006
3861.00,0.0006
3860.00,0.0006
3859.00,0.0006
3858.00,0.0006
3857.00,0.0005
3856.00,0.0004
3855.00,0.0004
3854.00,0.0004
3853.00,0.0004
3852.00,0.0004
3851.00,0.0004
3850.00,0.0005
3849.00,0.0005
3848.00,0.0006
3847.00,0.0006
3846.00,0.0006
3845.00,0.0006
3844.00,0.0006
3843.00,0.0006
3842.00,0.0006
3841.00,0.0006
3840.00,0.0006
3839.00,0.0006
3838.00,0.0006
3837.00,0.0006
3836.00,0.0005
3835.00,0.0005
3834.00,0.0005
3833.00,0.0005
3832.00,0.0005
3831.00,0.0005
3830.00,0.0005
3829.00,0.0005
3828.00,0.0005
3827.00,0.0006
3826.00,0.0006
3825.00,0.0006
3824.00,0.0006
3823.00,0.0006
3822.00,0.0006
3821.00,0.0006
3820.00,0.0005
3819.00,0.0005
3818.00,0.0005
3817.00,0.0005
3816.00,0.0006
3815.00,0.0006
3814.00,0.0006
3813.00,0.0007
3812.00,0.0007
3811.00,0.0007
3810.00,0.0007
3809.00,0.0006
3808.00,0.0007
3807.00,0.0007
3806.00,0.0006
3805.00,0.0005
3804.00,0.0005
3803.00,0.0004
3802.00,0.0005
3801.00,0.0005
3800.00,0.0005
3799.00,0.0005
3798.00,0.0005
3797.00,0.0006
3796.00,0.0006
3795.00,0.0006
3794.00,0.0006
3793.00,0.0006
3792.00,0.0006
3791.00,0.0006
3790.00,0.0006
3789.00,0.0006
3788.00,0.0006
3787.00,0.0006
3786.00,0.0006
3785.00,0.0007
3784.00,0.0007
3783.00,0.0007
3782.00,0.0007
3781.00,0.0007
3780.00,0.0007
3779.00,0.0007
3778.00,0.0007
3777.00,0.0007
3776.00,0.0007
3775.00,0.0007
3774.00,0.0007
3773.00,0.0007
3772.00,0.0007
3771.00,0.0007
3770.00,0.0007
3769.00,0.0007
3768.00,0.0007
3767.00,0.0007
3766.00,0.0007
3765.00,0.0007
3764.00,0.0007
3763.00,0.0007
3762.00,0.0007
3761.00,0.0007
3760.00,0.0007
3759.00,0.0007
3758.00,0.0007
3757.00,0.0007
3756.00,0.0006
3755.00,0.0006
3754.00,0.0006
3753.00,0.0006
3752.00,0.0006
3751.00,0.0006
3750.00,0.0006
3749.00,0.0006
3748.00,0.0005
3747.00,0.0005
3746.00,0.0005
3745.00,0.0006
3744.00,0.0006
3743.00,0.0005
3742.00,0.0005
3741.00,0.0004
3740.00,0.0004
3739.00,0.0004
3738.00,0.0004
3737.00,0.0004
3736.00,0.0005
3735.00,0.0005
3734.00,0.0005
3733.00,0.0004
3732.00,0.0004
3731.00,0.0004
3730.00,0.0004
3729.00,0.0003
3728.00,0.0003
3727.00,0.0004
3726.00,0.0004
3725.00,0.0004
3724.00,0.0004
3723.00,0.0004
3722.00,0.0004
3721.00,0.0005
3720.00,0.0005
3719.00,0.0005
3718.00,0.0006
3717.00,0.0006
3716.00,0.0006
3715.00,0.0006
3714.00,0.0005
3713.00,0.0005
3712.00,0.0005
3711.00,0.0004
3710.00,0.0004
3709.00,0.0004
3708.00,0.0004
3707.00,0.0004
3706.00,0.0005
3705.00,0.0005
3704.00,0.0005
3703.00,0.0005
3702.00,0.0005
3701.00,0.0005
3700.00,0.0005
3699.00,0.0005
3698.00,0.0005
3697.00,0.0005
3696.00,0.0005
3695.00,0.0004
3694.00,0.0004
3693.00,0.0003
3692.00,0.0003
3691.00,0.0003
3690.00,0.0004
3689.00,0.0004
3688.00,0.0005
3687.00,0.0005
3686.00,0.0005
3685.00,0.0005
3684.00,0.0006
3683.00,0.0006
3682.00,0.0006
3681.00,0.0006
3680.00,0.0005
3679.00,0.0004
3678.00,0.0003
3677.00,0.0003
3676.00,0.0003
3675.00,0.0004
3674.00,0.0004
3673.00,0.0004
3672.00,0.0004
3671.00,0.0005
3670.00,0.0005
3669.00,0.0004
3668.00,0.0004
3667.00,0.0004
3666.00,0.0004
3665.00,0.0004
3664.00,0.0005
3663.00,0.0005
3662.00,0.0005
3661.00,0.0005
3660.00,0.0005
3659.00,0.0005
3658.00,0.0005
3657.00,0.0005
3656.00,0.0005
3655.00,0.0005
3654.00,0.0005
3653.00,0.0004
3652.00,0.0004
3651.00,0.0003
3650.00,0.0003
3649.00,0.0002
3648.00,0.0002
3647.00,0.0002
3646.00,0.0002
3645.00,0.0003
3644.00,0.0003
3643.00,0.0004
3642.00,0.0004
3641.00,0.0004
3640.00,0.0004
3639.00,0.0005
3638.00,0.0005
3637.00,0.0005
3636.00,0.0005
3635.00,0.0004
3634.00,0.0004
3633.00,0.0004
3632.00,0.0004
3631.00,0.0004
3630.00,0.0004
3629.00,0.0004
3628.00,0.0004
3627.00,0.0004
3626.00,0.0004
3625.00,0.0004
3624.00,0.0005
3623.00,0.0005
3622.00,0.0005
3621.00,0.0005
3620.00,0.0005
3619.00,0.0005
3618.00,0.0005
3617.00,0.0005
3616.00,0.0004
3615.00,0.0004
3614.00,0.0005
3613.00,0.0005
3612.00,0.0005
3611.00,0.0006
3610.00,0.0006
3609.00,0.0006
3608.00,0.0006
3607.00,0.0006
3606.00,0.0006
3605.00,0.0006
3604.00,0.0006
3603.00,0.0006
3602.00,0.0006
3601.00,0.0006
3600.00,0.0007
3599.00,0.0007
3598.00,0.0007
3597.00,0.0006
3596.00,0.0006
3595.00,0.0006
3594.00,0.0006
3593.00,0.0006
3592.00,0.0006
3591.00,0.0006
3590.00,0.0006
3589.00,0.0006
3588.00,0.0006
3587.00,0.0006
3586.00,0.0007
3585.00,0.0007
3584.00,0.0008
3583.00,0.0008
3582.00,0.0008
3581.00,0.0008
3580.00,0.0008
3579.00,0.0008
3578.00,0.0009
3577.00,0.0009
3576.00,0.0009
3575.00,0.0009
3574.00,0.0009
3573.00,0.0009
3572.00,0.0009
3571.00,0.0009
3570.00,0.0009
3569.00,0.0008
3568.00,0.0008
3567.00,0.0008
3566.00,0.0008
3565.00,0.0008
3564.00,0.0009
3563.00,0.0009
3562.00,0.0010
3561.00,0.0010
3560.00,0.0010
3559.00,0.0011
3558.00,0.0011
3557.00,0.0011
3556.00,0.0011
3555.00,0.0011
3554.00,0.0011
3553.00,0.0011
3552.00,0.0011
3551.00,0.0012
3550.00,0.0012
3549.00,0.0012
3548.00,0.0013
3547.00,0.0013
3546.00,0.0013
3545.00,0.0013
3544.00,0.0012
3543.00,0.0012
3542.00,0.0012
3541.00,0.0013
3540.00,0.0013
3539.00,0.0013
3538.00,0.0013
3537.00,0.0014
3536.00,0.0014
3535.00,0.0014
3534.00,0.0014
3533.00,0.0014
3532.00,0.0015
3531.00,0.0015
3530.00,0.0015
3529.00,0.0015
3528.00,0.0015
3527.00,0.0016
3526.00,0.0016
3525.00,0.0016
3524.00,0.0016
3523.00,0.0016
3522.00,0.0016
3521.00,0.0016
3520.00,0.0017
3519.00,0.0017
3518.00,0.0017
3517.00,0.0018
3516.00,0.0018
3515.00,0.0018
3514.00,0.0017
3513.00,0.0018
3512.00,0.0018
3511.00,0.0018
3510.00,0.0018
3509.00,0.0018
3508.00,0.0018
3507.00,0.0018
3506.00,0.0018
3505.00,0.0019
3504.00,0.0019
3503.00,0.0019
3502.00,0.0019
3501.00,0.0019
3500.00,0.0019
3499.00,0.0019
3498.00,0.0020
3497.00,0.0020
3496.00,0.0020
3495.00,0.0020
3494.00,0.0021
3493.00,0.0020
3492.00,0.0020
3491.00,0.0020
3490.00,0.0020
3489.00,0.0021
3488.00,0.0021
3487.00,0.0021
3486.00,0.0022
3485.00,0.0022
3484.00,0.0022
3483.00,0.0022
3482.00,0.0022
3481.00,0.0022
3480.00,0.0022
3479.00,0.0023
3478.00,0.0023
3477.00,0.0023
3476.00,0.0023
3475.00,0.0023
3474.00,0.0023
3473.00,0.0024
3472.00,0.0024
3471.00,0.0024
3470.00,0.0024
3469.00,0.0024
3468.00,0.0024
3467.00,0.0024
3466.00,0.0024
3465.00,0.0024
3464.00,0.0024
3463.00,0.0024
3462.00,0.0024
3461.00,0.0025
3460.00,0.0025
3459.00,0.0025
3458.00,0.0026
3457.00,0.0026
3456.00,0.0026
3455.00,0.0026
3454.00,0.0026
3453.00,0.0027
3452.00,0.0027
3451.00,0.0027
3450.00,0.0027
3449.00,0.0027
3448.00,0.0027
3447.00,0.0027
3446.00,0.0027
3445.00,0.0027
3444.00,0.0027
3443.00,0.0028
3442.00,0.0028
3441.00,0.0029
3440.00,0.0029
3439.00,0.0029
3438.00,0.0029
3437.00,0.0028
3436.00,0.0028
3435.00,0.0028
3434.00,0.0028
3433.00,0.0029
3432.00,0.0029
3431.00,0.0030
3430.00,0.0030
3429.00,0.0031
3428.00,0.0031
3427.00,0.0031
3426.00,0.0031
3425.00,0.0031
3424.00,0.0031
3423.00,0.0031
3422.00,0.0031
3421.00,0.0032
3420.00,0.0032
3419.00,0.0031
3418.00,0.0031
3417.00,0.0031
3416.00,0.0031
3415.00,0.0032
3414.00,0.0032
3413.00,0.0032
3412.00,0.0033
3411.00,0.0033
3410.00,0.0033
3409.00,0.0033
3408.00,0.0033
3407.00,0.0033
3406.00,0.0033
3405.00,0.0033
3404.00,0.0033
3403.00,0.0033
3402.00,0.0033
3401.00,0.0033
3400.00,0.0033
3399.00,0.0033
3398.00,0.0034
3397.00,0.0034
3396.00,0.0034
3395.00,0.0034
3394.00,0.0034
3393.00,0.0034
3392.00,0.0034
3391.00,0.0034
3390.00,0.0033
3389.00,0.0033
3388.00,0.0033
3387.00,0.0033
3386.00,0.0033
3385.00,0.0033
3384.00,0.0033
3383.00,0.0033
3382.00,0.0033
3381.00,0.0033
3380.00,0.0033
3379.00,0.0033
3378.00,0.0033
3377.00,0.0033
3376.00,0.0033
3375.00,0.0033
3374.00,0.0033
3373.00,0.0033
3372.00,0.0034
3371.00,0.0034
3370.00,0.0034
3369.00,0.0034
3368.00,0.0034
3367.00,0.0034
3366.00,0.0034
3365.00,0.0034
3364.00,0.0034
3363.00,0.0034
3362.00,0.0034
3361.00,0.0034
3360.00,0.0034
3359.00,0.0034
3358.00,0.0034
3357.00,0.0034
3356.00,0.0034
3355.00,0.0034
3354.00,0.0034
3353.00,0.0035
3352.00,0.0035
3351.00,0.0035
3350.00,0.0035
3349.00,0.0035
3348.00,0.0035
3347.00,0.0035
3346.00,0.0034
3345.00,0.0034
3344.00,0.0034
3343.00,0.0034
3342.00,0.0034
3341.00,0.0034
3340.00,0.0034
3339.00,0.0034
3338.00,0.0034
3337.00,0.0033
3336.00,0.0033
3335.00,0.0033
3334.00,0.0033
3333.00,0.0033
3332.00,0.0033
3331.00,0.0033
3330.00,0.0033
3329.00,0.0033
3328.00,0.0033
3327.00,0.0033
3326.00,0.0033
3325.00,0.0033
3324.00,0.0033
3323.00,0.0032
3322.00,0.0032
3321.00,0.0032
3320.00,0.0032
3319.00,0.0032
3318.00,0.0032
3317.00,0.0032
3316.00,0.0032
3315.00,0.0032
3314.00,0.0032
3313.00,0.0032
3312.00,0.0032
3311.00,0.0032
3310.00,0.0032
3309.00,0.0032
3308.00,0.0032
3307.00,0.0033
3306.00,0.0033
3305.00,0.0033
3304.00,0.0033
3303.00,0.0033
3302.00,0.0033
3301.00,0.0033
3300.00,0.0033
3299.00,0.0032
3298.00,0.0032
3297.00,0.0032
3296.00,0.0032
3295.00,0.0031
3294.00,0.0031
3293.00,0.0031
3292.00,0.0030
3291.00,0.0030
3290.00,0.0030
3289.00,0.0030
3288.00,0.0030
3287.00,0.0030
3286.00,0.0031
3285.00,0.0031
3284.00,0.0030
3283.00,0.0030
3282.00,0.0030
3281.00,0.0030
3280.00,0.0030
3279.00,0.0030
3278.00,0.0030
3277.00,0.0030
3276.00,0.0030
3275.00,0.0029
3274.00,0.0029
3273.00,0.0029
3272.00,0.0029
3271.00,0.0029
3270.00,0.0029
3269.00,0.0029
3268.00,0.0029
3267.00,0.0029
3266.00,0.0028
3265.00,0.0028
3264.00,0.0028
3263.00,0.0028
3262.00,0.0028
3261.00,0.0028
3260.00,0.0029
3259.00,0.0029
3258.00,0.0029
3257.00,0.0029
3256.00,0.0029
3255.00,0.0029
3254.00,0.0029
3253.00,0.0028
3252.00,0.0028
3251.00,0.0028
3250.00,0.0027
3249.00,0.0027
3248.00,0.0027
3247.00,0.0027
3246.00,0.0026
3245.00,0.0026
3244.00,0.0026
3243.00,0.0027
3242.00,0.0027
3241.00,0.0027
3240.00,0.0027
3239.00,0.0027
3238.00,0.0027
3237.00,0.0027
3236.00,0.0027
3235.00,0.0027
3234.00,0.0026
3233.00,0.0026
3232.00,0.0027
3231.00,0.0027
3230.00,0.0027
3229.00,0.0028
3228.00,0.0028
3227.00,0.0028
3226.00,0.0029
3225.00,0.0029
3224.00,0.0029
3223.00,0.0029
3222.00,0.0029
3221.00,0.0029
3220.00,0.0029
3219.00,0.0029
3218.00,0.0029
3217.00,0.0029
3216.00,0.0029
3215.00,0.0029
3214.00,0.0029
3213.00,0.0029
3212.00,0.0030
3211.00,0.0030
3210.00,0.0031
3209.00,0.0031
3208.00,0.0031
3207.00,0.0031
3206.00,0.0032
3205.00,0.0032
3204.00,0.0032
3203.00,0.0032
3202.00,0.0032
3201.00,0.0032
3200.00,0.0032
3199.00,0.0032
3198.00,0.0032
3197.00,0.0032
3196.00,0.0032
3195.00,0.0032
3194.00,0.0032
3193.00,0.0032
3192.00,0.0032
3191.00,0.0032
3190.00,0.0033
3189.00,0.0032
3188.00,0.0032
3187.00,0.0032
3186.00,0.0031
3185.00,0.0031
3184.00,0.0031
3183.00,0.0030
3182.00,0.0030
3181.00,0.0030
3180.00,0.0030
3179.00,0.0030
3178.00,0.0030
3177.00,0.0031
3176.00,0.0031
3175.00,0.0031
3174.00,0.0030
3173.00,0.0030
3172.00,0.0029
3171.00,0.0029
3170.00,0.0029
3169.00,0.0029
3168.00,0.0029
3167.00,0.0029
3166.00,0.0029
3165.00,0.0029
3164.00,0.0028
3163.00,0.0028
3162.00,0.0029
3161.00,0.0029
3160.00,0.0029
3159.00,0.0029
3158.00,0.0029
3157.00,0.0028
3156.00,0.0028
3155.00,0.0028
3154.00,0.0028
3153.00,0.0029
3152.00,0.0029
3151.00,0.0029
3150.00,0.0030
3149.00,0.0029
3148.00,0.0029
3147.00,0.0029
3146.00,0.0029
3145.00,0.0029
3144.00,0.0029
3143.00,0.0030
3142.00,0.0030
3141.00,0.0029
3140.00,0.0028
3139.00,0.0028
3138.00,0.0027
3137.00,0.0027
3136.00,0.0027
3135.00,0.0027
3134.00,0.0027
3133.00,0.0027
3132.00,0.0027
3131.00,0.0027
3130.00,0.0027
3129.00,0.0027
3128.00,0.0026
3127.00,0.0026
3126.00,0.0026
3125.00,0.0026
3124.00,0.0026
3123.00,0.0026
3122.00,0.0026
3121.00,0.0025
3120.00,0.0025
3119.00,0.0025
3118.00,0.0025
3117.00,0.0025
3116.00,0.0024
3115.00,0.0024
3114.00,0.0024
3113.00,0.0024
3112.00,0.0024
3111.00,0.0024
3110.00,0.0024
3109.00,0.0024
3108.00,0.0023
3107.00,0.0023
3106.00,0.0023
3105.00,0.0023
3104.00,0.0023
3103.00,0.0022
3102.00,0.0022
3101.00,0.0022
3100.00,0.0023
3099.00,0.0023
3098.00,0.0023
3097.00,0.0023
3096.00,0.0023
3095.00,0.0023
3094.00,0.0023
3093.00,0.0023
3092.00,0.0023
3091.00,0.0023
3090.00,0.0023
3089.00,0.0023
3088.00,0.0024
3087.00,0.0024
3086.00,0.0024
3085.00,0.0024
3084.00,0.0023
3083.00,0.0023
3082.00,0.0022
3081.00,0.0022
3080.00,0.0022
3079.00,0.0023
3078.00,0.0023
3077.00,0.0023
3076.00,0.0023
3075.00,0.0023
3074.00,0.0023
3073.00,0.0023
3072.00,0.0024
3071.00,0.0024
3070.00,0.0024
3069.00,0.0024
3068.00,0.0024
3067.00,0.0025
3066.00,0.0025
3065.00,0.0025
3064.00,0.0026
3063.00,0.0026
3062.00,0.0026
3061.00,0.0026
3060.00,0.0026
3059.00,0.0026
3058.00,0.0026
3057.00,0.0027
3056.00,0.0027
3055.00,0.0027
3054.00,0.0027
3053.00,0.0027
3052.00,0.0028
3051.00,0.0028
3050.00,0.0028
3049.00,0.0028
3048.00,0.0028
3047.00,0.0028
3046.00,0.0028
3045.00,0.0028
3044.00,0.0029
3043.00,0.0029
3042.00,0.0030
3041.00,0.0030
3040.00,0.0030
3039.00,0.0031
3038.00,0.0031
3037.00,0.0031
3036.00,0.0031
3035.00,0.0031
3034.00,0.0031
3033.00,0.0031
3032.00,0.0032
3031.00,0.0032
3030.00,0.0033
3029.00,0.0034
3028.00,0.0035
3027.00,0.0036
3026.00,0.0036
3025.00,0.0037
3024.00,0.0037
3023.00,0.0038
3022.00,0.0039
3021.00,0.0040
3020.00,0.0040
3019.00,0.0041
3018.00,0.0042
3017.00,0.0043
3016.00,0.0044
3015.00,0.0045
3014.00,0.0046
3013.00,0.0047
3012.00,0.0048
3011.00,0.0049
3010.00,0.0050
3009.00,0.0051
3008.00,0.0052
3007.00,0.0054
3006.00,0.0055
3005.00,0.0057
3004.00,0.0059
3003.00,0.0061
3002.00,0.0063
3001.00,0.0065
3000.00,0.0067
2999.00,0.0070
2998.00,0.0073
2997.00,0.0076
2996.00,0.0079
2995.00,0.0083
2994.00,0.0087
2993.00,0.0092
2992.00,0.0097
2991.00,0.0102
2990.00,0.0108
2989.00,0.0114
2988.00,0.0122
2987.00,0.0130
2986.00,0.0139
2985.00,0.0149
2984.00,0.0160
2983.00,0.0172
2982.00,0.0186
2981.00,0.0202
2980.00,0.0221
2979.00,0.0242
2978.00,0.0265
2977.00,0.0292
2976.00,0.0322
2975.00,0.0357
2974.00,0.0397
2973.00,0.0442
2972.00,0.0493
2971.00,0.0549
2970.00,0.0612
2969.00,0.0680
2968.00,0.0752
2967.00,0.0829
2966.00,0.0907
2965.00,0.0985
2964.00,0.1059
2963.00,0.1127
2962.00,0.1185
2961.00,0.1234
2960.00,0.1275
2959.00,0.1315
2958.00,0.1359
2957.00,0.1412
2956.00,0.1478
2955.00,0.1559
2954.00,0.1651
2953.00,0.1746
2952.00,0.1833
2951.00,0.1899
2950.00,0.1929
2949.00,0.1915
2948.00,0.1855
2947.00,0.1757
2946.00,0.1632
2945.00,0.1498
2944.00,0.1370
2943.00,0.1259
2942.00,0.1173
2941.00,0.1113
2940.00,0.1079
2939.00,0.1069
2938.00,0.1079
2937.00,0.1108
2936.00,0.1155
2935.00,0.1217
2934.00,0.1294
2933.00,0.1384
2932.00,0.1487
2931.00,0.1601
2930.00,0.1722
2929.00,0.1848
2928.00,0.1975
2927.00,0.2102
2926.00,0.2227
2925.00,0.2349
2924.00,0.2469
2923.00,0.2589
2922.00,0.2711
2921.00,0.2830
2920.00,0.2938
2919.00,0.3023
2918.00,0.3071
2917.00,0.3071
2916.00,0.3020
2915.00,0.2926
2914.00,0.2803
2913.00,0.2667
2912.00,0.2532
2911.00,0.2405
2910.00,0.2292
2909.00,0.2191
2908.00,0.2098
2907.00,0.2012
2906.00,0.1930
2905.00,0.1850
2904.00,0.1771
2903.00,0.1695
2902.00,0.1622
2901.00,0.1551
2900.00,0.1484
2899.00,0.1421
2898.00,0.1363
2897.00,0.1309
2896.00,0.1261
2895.00,0.1220
2894.00,0.1184
2893.00,0.1155
2892.00,0.1133
2891.00,0.1116
2890.00,0.1105
2889.00,0.1099
2888.00,0.1097
2887.00,0.1099
2886.00,0.1103
2885.00,0.1112
2884.00,0.1125
2883.00,0.1143
2882.00,0.1166
2881.00,0.1193
2880.00,0.1220
2879.00,0.1243
2878.00,0.1258
2877.00,0.1263
2876.00,0.1260
2875.00,0.1252
2874.00,0.1246
2873.00,0.1246
2872.00,0.1253
2871.00,0.1268
2870.00,0.1289
2869.00,0.1310
2868.00,0.1323
2867.00,0.1321
2866.00,0.1295
2865.00,0.1245
2864.00,0.1173
2863.00,0.1090
2862.00,0.1007
2861.00,0.0933
2860.00,0.0874
2859.00,0.0833
2858.00,0.0810
2857.00,0.0800
2856.00,0.0803
2855.00,0.0814
2854.00,0.0832
2853.00,0.0854
2852.00,0.0877
2851.00,0.0897
2850.00,0.0912
2849.00,0.0922
2848.00,0.0929
2847.00,0.0939
2846.00,0.0958
2845.00,0.0987
2844.00,0.1028
2843.00,0.1077
2842.00,0.1129
2841.00,0.1177
2840.00,0.1215
2839.00,0.1234
2838.00,0.1227
2837.00,0.1191
2836.00,0.1125
2835.00,0.1035
2834.00,0.0931
2833.00,0.0822
2832.00,0.0720
2831.00,0.0628
2830.00,0.0551
2829.00,0.0488
2828.00,0.0436
2827.00,0.0395
2826.00,0.0361
2825.00,0.0333
2824.00,0.0309
2823.00,0.0290
2822.00,0.0273
2821.00,0.0258
2820.00,0.0246
2819.00,0.0235
2818.00,0.0225
2817.00,0.0217
2816.00,0.0210
2815.00,0.0203
2814.00,0.0196
2813.00,0.0190
2812.00,0.0184
2811.00,0.0179
2810.00,0.0173
2809.00,0.0167
2808.00,0.0161
2807.00,0.0155
2806.00,0.0148
2805.00,0.0141
2804.00,0.0135
2803.00,0.0129
2802.00,0.0123
2801.00,0.0118
2800.00,0.0114
2799.00,0.0111
2798.00,0.0108
2797.00,0.0105
2796.00,0.0103
2795.00,0.0100
2794.00,0.0098
2793.00,0.0095
2792.00,0.0092
2791.00,0.0089
2790.00,0.0086
2789.00,0.0084
2788.00,0.0081
2787.00,0.0078
2786.00,0.0076
2785.00,0.0074
2784.00,0.0072
2783.00,0.0069
2782.00,0.0067
2781.00,0.0065
2780.00,0.0064
2779.00,0.0062
2778.00,0.0061
2777.00,0.0060
2776.00,0.0059
2775.00,0.0058
2774.00,0.0057
2773.00,0.0056
2772.00,0.0056
2771.00,0.0055
2770.00,0.0055
2769.00,0.0055
2768.00,0.0054
2767.00,0.0054
2766.00,0.0053
2765.00,0.0053
2764.00,0.0052
2763.00,0.0052
2762.00,0.0052
2761.00,0.0051
2760.00,0.0051
2759.00,0.0051
2758.00,0.0051
2757.00,0.0051
2756.00,0.0051
2755.00,0.0051
2754.00,0.0051
2753.00,0.0050
2752.00,0.0050
2751.00,0.0049
2750.00,0.0049
2749.00,0.0049
2748.00,0.0049
2747.00,0.0050
2746.00,0.0050
2745.00,0.0051
2744.00,0.0051
2743.00,0.0052
2742.00,0.0053
2741.00,0.0054
2740.00,0.0055
2739.00,0.0056
2738.00,0.0057
2737.00,0.0059
2736.00,0.0060
2735.00,0.0062
2734.00,0.0064
2733.00,0.0065
2732.00,0.0067
2731.00,0.0070
2730.00,0.0073
2729.00,0.0075
2728.00,0.0078
2727.00,0.0081
2726.00,0.0083
2725.00,0.0085
2724.00,0.0086
2723.00,0.0087
2722.00,0.0086
2721.00,0.0084
2720.00,0.0082
2719.00,0.0079
2718.00,0.0075
2717.00,0.0072
2716.00,0.0069
2715.00,0.0066
2714.00,0.0063
2713.00,0.0061
2712.00,0.0059
2711.00,0.0057
2710.00,0.0055
2709.00,0.0054
2708.00,0.0052
2707.00,0.0051
2706.00,0.0050
2705.00,0.0049
2704.00,0.0047
2703.00,0.0046
2702.00,0.0045
2701.00,0.0044
2700.00,0.0044
2699.00,0.0043
2698.00,0.0043
2697.00,0.0042
2696.00,0.0042
2695.00,0.0042
2694.00,0.0042
2693.00,0.0042
2692.00,0.0043
2691.00,0.0043
2690.00,0.0043
2689.00,0.0043
2688.00,0.0043
2687.00,0.0043
2686.00,0.0043
2685.00,0.0042
2684.00,0.0042
2683.00,0.0042
2682.00,0.0042
2681.00,0.0043
2680.00,0.0043
2679.00,0.0043
2678.00,0.0043
2677.00,0.0043
2676.00,0.0043
2675.00,0.0043
2674.00,0.0043
2673.00,0.0043
2672.00,0.0043
2671.00,0.0042
2670.00,0.0042
2669.00,0.0042
2668.00,0.0043
2667.00,0.0043
2666.00,0.0043
2665.00,0.0044
2664.00,0.0045
2663.00,0.0046
2662.00,0.0046
2661.00,0.0046
2660.00,0.0046
2659.00,0.0046
2658.00,0.0046
2657.00,0.0045
2656.00,0.0045
2655.00,0.0045
2654.00,0.0044
2653.00,0.0043
2652.00,0.0043
2651.00,0.0042
2650.00,0.0042
2649.00,0.0042
2648.00,0.0041
2647.00,0.0041
2646.00,0.0041
2645.00,0.0040
2644.00,0.0040
2643.00,0.0040
2642.00,0.0039
2641.00,0.0039
2640.00,0.0038
2639.00,0.0038
2638.00,0.0037
2637.00,0.0038
2636.00,0.0038
2635.00,0.0038
2634.00,0.0038
2633.00,0.0038
2632.00,0.0038
2631.00,0.0037
2630.00,0.0038
2629.00,0.0038
2628.00,0.0038
2627.00,0.0038
2626.00,0.0038
2625.00,0.0038
2624.00,0.0038
2623.00,0.0038
2622.00,0.0038
2621.00,0.0038
2620.00,0.0038
2619.00,0.0038
2618.00,0.0039
2617.00,0.0039
2616.00,0.0039
2615.00,0.0038
2614.00,0.0038
2613.00,0.0038
2612.00,0.0038
2611.00,0.0037
2610.00,0.0036
2609.00,0.0035
2608.00,0.0034
2607.00,0.0033
2606.00,0.0033
2605.00,0.0032
2604.00,0.0031
2603.00,0.0030
2602.00,0.0030
2601.00,0.0030
2600.00,0.0031
2599.00,0.0032
2598.00,0.0032
2597.00,0.0031
2596.00,0.0031
2595.00,0.0031
2594.00,0.0031
2593.00,0.0032
2592.00,0.0033
2591.00,0.0033
2590.00,0.0034
2589.00,0.0034
2588.00,0.0035
2587.00,0.0036
2586.00,0.0037
2585.00,0.0038
2584.00,0.0038
2583.00,0.0038
2582.00,0.0038
2581.00,0.0038
2580.00,0.0038
2579.00,0.0037
2578.00,0.0036
2577.00,0.0035
2576.00,0.0033
2575.00,0.0032
2574.00,0.0030
2573.00,0.0030
2572.00,0.0029
2571.00,0.0028
2570.00,0.0027
2569.00,0.0026
2568.00,0.0025
2567.00,0.0025
2566.00,0.0024
2565.00,0.0023
2564.00,0.0023
2563.00,0.0023
2562.00,0.0023
2561.00,0.0023
2560.00,0.0023
2559.00,0.0023
2558.00,0.0023
2557.00,0.0022
2556.00,0.0021
2555.00,0.0020
2554.00,0.0020
2553.00,0.0019
2552.00,0.0019
2551.00,0.0018
2550.00,0.0018
2549.00,0.0017
2548.00,0.0017
2547.00,0.0018
2546.00,0.0018
2545.00,0.0018
2544.00,0.0018
2543.00,0.0018
2542.00,0.0017
2541.00,0.0017
2540.00,0.0016
2539.00,0.0015
2538.00,0.0015
2537.00,0.0015
2536.00,0.0014
2535.00,0.0014
2534.00,0.0013
2533.00,0.0013
2532.00,0.0013
2531.00,0.0013
2530.00,0.0014
2529.00,0.0014
2528.00,0.0014
2527.00,0.0013
2526.00,0.0013
2525.00,0.0012
2524.00,0.0012
2523.00,0.0012
2522.00,0.0011
2521.00,0.0011
2520.00,0.0010
2519.00,0.0009
2518.00,0.0009
2517.00,0.0010
2516.00,0.0010
2515.00,0.0010
2514.00,0.0010
2513.00,0.0010
2512.00,0.0010
2511.00,0.0010
2510.00,0.0010
2509.00,0.0010
2508.00,0.0010
2507.00,0.0009
2506.00,0.0009
2505.00,0.0009
2504.00,0.0009
2503.00,0.0009
2502.00,0.0009
2501.00,0.0009
2500.00,0.0009
2499.00,0.0009
2498.00,0.0009
2497.00,0.0009
2496.00,0.0009
2495.00,0.0009
2494.00,0.0008
2493.00,0.0009
2492.00,0.0009
2491.00,0.0010
2490.00,0.0009
2489.00,0.0009
2488.00,0.0008
2487.00,0.0008
2486.00,0.0009
2485.00,0.0009
2484.00,0.0010
2483.00,0.0010
2482.00,0.0010
2481.00,0.0010
2480.00,0.0010
2479.00,0.0009
2478.00,0.0009
2477.00,0.0009
2476.00,0.0009
2475.00,0.0008
2474.00,0.0008
2473.00,0.0008
2472.00,0.0008
2471.00,0.0008
2470.00,0.0008
2469.00,0.0009
2468.00,0.0009
2467.00,0.0009
2466.00,0.0009
2465.00,0.0009
2464.00,0.0009
2463.00,0.0009
2462.00,0.0010
2461.00,0.0010
2460.00,0.0010
2459.00,0.0010
2458.00,0.0010
2457.00,0.0009
2456.00,0.0009
2455.00,0.0009
2454.00,0.0009
2453.00,0.0009
2452.00,0.0010
2451.00,0.0010
2450.00,0.0010
2449.00,0.0010
2448.00,0.0010
2447.00,0.0010
2446.00,0.0011
2445.00,0.0011
2444.00,0.0011
2443.00,0.0011
2442.00,0.0011
2441.00,0.0011
2440.00,0.0010
2439.00,0.0010
2438.00,0.0010
2437.00,0.0010
2436.00,0.0011
2435.00,0.0011
2434.00,0.0011
2433.00,0.0011
2432.00,0.0011
2431.00,0.0012
2430.00,0.0012
2429.00,0.0012
2428.00,0.0012
2427.00,0.0011
2426.00,0.0010
2425.00,0.0009
2424.00,0.0009
2423.00,0.0009
2422.00,0.0009
2421.00,0.0009
2420.00,0.0009
2419.00,0.0009
2418.00,0.0009
2417.00,0.0008
2416.00,0.0008
2415.00,0.0008
2414.00,0.0009
2413.00,0.0009
2412.00,0.0009
2411.00,0.0009
2410.00,0.0009
2409.00,0.0009
2408.00,0.0009
2407.00,0.0008
2406.00,0.0007
2405.00,0.0006
2404.00,0.0006
2403.00,0.0006
2402.00,0.0007
2401.00,0.0007
2400.00,0.0007
2399.00,0.0007
2398.00,0.0007
2397.00,0.0007
2396.00,0.0007
2395.00,0.0007
2394.00,0.0007
2393.00,0.0006
2392.00,0.0006
2391.00,0.0006
2390.00,0.0006
2389.00,0.0006
2388.00,0.0006
2387.00,0.0007
2386.00,0.0007
2385.00,0.0007
2384.00,0.0006
2383.00,0.0004
2382.00,0.0003
2381.00,0.0002
2380.00,0.0002
2379.00,0.0002
2378.00,0.0003
2377.00,0.0003
2376.00,0.0003
2375.00,0.0003
2374.00,0.0002
2373.00,0.0002
2372.00,0.0002
2371.00,0.0001
2370.00,0.0000
2369.00,-0.0000
2368.00,-0.0000
2367.00,-0.0000
2366.00,-0.0000
2365.00,0.0000
2364.00,0.0001
2363.00,0.0001
2362.00,0.0002
2361.00,0.0002
2360.00,0.0002
2359.00,0.0002
2358.00,0.0001
2357.00,0.0001
2356.00,0.0002
2355.00,0.0002
2354.00,0.0001
2353.00,0.0000
2352.00,-0.0000
2351.00,-0.0000
2350.00,0.0000
2349.00,0.0001
2348.00,0.0001
2347.00,0.0001
2346.00,0.0001
2345.00,0.0003
2344.00,0.0004
2343.00,0.0004
2342.00,0.0005
2341.00,0.0005
2340.00,0.0006
2339.00,0.0006
2338.00,0.0005
2337.00,0.0005
2336.00,0.0005
2335.00,0.0005
2334.00,0.0004
2333.00,0.0005
2332.00,0.0005
2331.00,0.0006
2330.00,0.0007
2329.00,0.0007
2328.00,0.0009
2327.00,0.0012
2326.00,0.0016
2325.00,0.0019
2324.00,0.0021
2323.00,0.0021
2322.00,0.0019
2321.00,0.0017
2320.00,0.0016
2319.00,0.0015
2318.00,0.0015
2317.00,0.0015
2316.00,0.0014
2315.00,0.0013
2314.00,0.0012
2313.00,0.0011
2312.00,0.0011
2311.00,0.0011
2310.00,0.0010
2309.00,0.0010
2308.00,0.0010
2307.00,0.0010
2306.00,0.0010
2305.00,0.0010
2304.00,0.0010
2303.00,0.0010
2302.00,0.0011
2301.00,0.0012
2300.00,0.0013
2299.00,0.0013
2298.00,0.0013
2297.00,0.0013
2296.00,0.0013
2295.00,0.0014
2294.00,0.0014
2293.00,0.0015
2292.00,0.0015
2291.00,0.0015
2290.00,0.0016
2289.00,0.0016
2288.00,0.0017
2287.00,0.0017
2286.00,0.0018
2285.00,0.0018
2284.00,0.0017
2283.00,0.0016
2282.00,0.0015
2281.00,0.0014
2280.00,0.0014
2279.00,0.0014
2278.00,0.0014
2277.00,0.0014
2276.00,0.0013
2275.00,0.0013
2274.00,0.0012
2273.00,0.0012
2272.00,0.0012
2271.00,0.0011
2270.00,0.0012
2269.00,0.0012
2268.00,0.0012
2267.00,0.0012
2266.00,0.0011
2265.00,0.0010
2264.00,0.0009
2263.00,0.0009
2262.00,0.0010
2261.00,0.0012
2260.00,0.0013
2259.00,0.0014
2258.00,0.0014
2257.00,0.0014
2256.00,0.0012
2255.00,0.0010
2254.00,0.0009
2253.00,0.0007
2252.00,0.0007
2251.00,0.0007
2250.00,0.0007
2249.00,0.0008
2248.00,0.0008
2247.00,0.0008
2246.00,0.0007
2245.00,0.0008
2244.00,0.0008
2243.00,0.0008
2242.00,0.0008
2241.00,0.0008
2240.00,0.0008
2239.00,0.0007
2238.00,0.0007
2237.00,0.0006
2236.00,0.0006
2235.00,0.0007
2234.00,0.0009
2233.00,0.0011
2232.00,0.0012
2231.00,0.0012
2230.00,0.0011
2229.00,0.0010
2228.00,0.0009
2227.00,0.0007
2226.00,0.0005
2225.00,0.0004
2224.00,0.0004
2223.00,0.0004
2222.00,0.0004
2221.00,0.0004
2220.00,0.0005
2219.00,0.0005
2218.00,0.0006
2217.00,0.0006
2216.00,0.0005
2215.00,0.0003
2214.00,0.0001
2213.00,0.0000
2212.00,0.0001
2211.00,0.0001
2210.00,0.0001
2209.00,0.0002
2208.00,0.0002
2207.00,0.0004
2206.00,0.0006
2205.00,0.0008
2204.00,0.0008
2203.00,0.0006
2202.00,0.0005
2201.00,0.0005
2200.00,0.0006
2199.00,0.0008
2198.00,0.0009
2197.00,0.0010
2196.00,0.0010
2195.00,0.0008
2194.00,0.0007
2193.00,0.0006
2192.00,0.0006
2191.00,0.0007
2190.00,0.0009
2189.00,0.0011
2188.00,0.0012
2187.00,0.0012
2186.00,0.0011
2185.00,0.0009
2184.00,0.0007
2183.00,0.0005
2182.00,0.0002
2181.00,-0.0001
2180.00,-0.0002
2179.00,-0.0002
2178.00,-0.0000
2177.00,0.0001
2176.00,0.0000
2175.00,-0.0002
2174.00,-0.0002
2173.00,0.0001
2172.00,0.0006
2171.00,0.0011
2170.00,0.0014
2169.00,0.0017
2168.00,0.0019
2167.00,0.0022
2166.00,0.0023
2165.00,0.0023
2164.00,0.0022
2163.00,0.0022
2162.00,0.0022
2161.00,0.0019
2160.00,0.0009
2159.00,-0.0006
2158.00,-0.0021
2157.00,-0.0029
2156.00,-0.0031
2155.00,-0.0028
2154.00,-0.0023
2153.00,-0.0017
2152.00,-0.0012
2151.00,-0.0009
2150.00,-0.0007
2149.00,-0.0007
2148.00,-0.0008
2147.00,-0.0012
2146.00,-0.0016
2145.00,-0.0018
2144.00,-0.0017
2143.00,-0.0014
2142.00,-0.0012
2141.00,-0.0012
2140.00,-0.0014
2139.00,-0.0016
2138.00,-0.0018
2137.00,-0.0018
2136.00,-0.0019
2135.00,-0.0022
2134.00,-0.0025
2133.00,-0.0026
2132.00,-0.0025
2131.00,-0.0021
2130.00,-0.0017
2129.00,-0.0013
2128.00,-0.0010
2127.00,-0.0008
2126.00,-0.0008
2125.00,-0.0007
2124.00,-0.0007
2123.00,-0.0007
2122.00,-0.0008
2121.00,-0.0007
2120.00,-0.0006
2119.00,-0.0005
2118.00,-0.0004
2117.00,-0.0003
2116.00,-0.0001
2115.00,-0.0001
2114.00,-0.0000
2113.00,0.0000
2112.00,0.0001
2111.00,0.0002
2110.00,0.0003
2109.00,0.0002
2108.00,0.0002
2107.00,0.0001
2106.00,0.0001
2105.00,0.0002
2104.00,0.0002
2103.00,0.0002
2102.00,0.0002
2101.00,0.0002
2100.00,0.0002
2099.00,0.0001
2098.00,0.0000
2097.00,-0.0001
2096.00,-0.0003
2095.00,-0.0004
2094.00,-0.0005
2093.00,-0.0004
2092.00,-0.0002
2091.00,-0.0001
2090.00,0.0000
2089.00,0.0001
2088.00,0.0001
2087.00,0.0000
2086.00,-0.0000
2085.00,-0.0001
2084.00,-0.0001
2083.00,-0.0001
2082.00,-0.0000
2081.00,0.0001
2080.00,0.0003
2079.00,0.0004
2078.00,0.0004
2077.00,0.0005
2076.00,0.0005
2075.00,0.0004
2074.00,0.0002
2073.00,-0.0000
2072.00,-0.0002
2071.00,-0.0004
2070.00,-0.0004
2069.00,-0.0002
2068.00,-0.0001
2067.00,-0.0000
2066.00,-0.0001
2065.00,-0.0002
2064.00,-0.0003
2063.00,-0.0004
2062.00,-0.0005
2061.00,-0.0003
2060.00,-0.0001
2059.00,0.0001
2058.00,0.0001
2057.00,0.0001
2056.00,0.0002
2055.00,0.0002
2054.00,0.0004
2053.00,0.0008
2052.00,0.0012
2051.00,0.0013
2050.00,0.0012
2049.00,0.0008
2048.00,0.0004
2047.00,0.0001
2046.00,-0.0001
2045.00,-0.0002
2044.00,-0.0002
2043.00,-0.0000
2042.00,0.0001
2041.00,0.0001
2040.00,-0.0000
2039.00,-0.0002
2038.00,-0.0005
2037.00,-0.0006
2036.00,-0.0007
2035.00,-0.0008
2034.00,-0.0008
2033.00,-0.0007
2032.00,-0.0006
2031.00,-0.0006
2030.00,-0.0008
2029.00,-0.0009
2028.00,-0.0009
2027.00,-0.0010
2026.00,-0.0011
2025.00,-0.0013
2024.00,-0.0014
2023.00,-0.0015
2022.00,-0.0016
2021.00,-0.0016
2020.00,-0.0015
2019.00,-0.0015
2018.00,-0.0016
2017.00,-0.0014
2016.00,-0.0012
2015.00,-0.0009
2014.00,-0.0007
2013.00,-0.0008
2012.00,-0.0010
2011.00,-0.0011
2010.00,-0.0010
2009.00,-0.0010
2008.00,-0.0011
2007.00,-0.0015
2006.00,-0.0018
2005.00,-0.0018
2004.00,-0.0017
2003.00,-0.0016
2002.00,-0.0016
2001.00,-0.0016
2000.00,-0.0015
1999.00,-0.0013
1998.00,-0.0012
1997.00,-0.0012
1996.00,-0.0011
1995.00,-0.0010
1994.00,-0.0008
1993.00,-0.0007
1992.00,-0.0006
1991.00,-0.0005
1990.00,-0.0004
1989.00,-0.0003
1988.00,-0.0003
1987.00,-0.0004
1986.00,-0.0005
1985.00,-0.0003
1984.00,0.0001
1983.00,0.0005
1982.00,0.0008
1981.00,0.0008
1980.00,0.0005
1979.00,-0.0002
1978.00,-0.0010
1977.00,-0.0015
1976.00,-0.0015
1975.00,-0.0013
1974.00,-0.0011
1973.00,-0.0011
1972.00,-0.0013
1971.00,-0.0014
1970.00,-0.0016
1969.00,-0.0017
1968.00,-0.0017
1967.00,-0.0016
1966.00,-0.0015
1965.00,-0.0013
1964.00,-0.0013
1963.00,-0.0013
1962.00,-0.0014
1961.00,-0.0015
1960.00,-0.0015
1959.00,-0.0017
1958.00,-0.0019
1957.00,-0.0020
1956.00,-0.0021
1955.00,-0.0021
1954.00,-0.0020
1953.00,-0.0017
1952.00,-0.0015
1951.00,-0.0015
1950.00,-0.0015
1949.00,-0.0016
1948.00,-0.0017
1947.00,-0.0017
1946.00,-0.0017
1945.00,-0.0017
1944.00,-0.0016
1943.00,-0.0015
1942.00,-0.0014
1941.00,-0.0014
1940.00,-0.0013
1939.00,-0.0011
1938.00,-0.0009
1937.00,-0.0008
1936.00,-0.0008
1935.00,-0.0009
1934.00,-0.0010
1933.00,-0.0010
1932.00,-0.0010
1931.00,-0.0010
1930.00,-0.0011
1929.00,-0.0011
1928.00,-0.0011
1927.00,-0.0010
1926.00,-0.0009
1925.00,-0.0007
1924.00,-0.0005
1923.00,-0.0004
1922.00,-0.0003
1921.00,-0.0003
1920.00,-0.0004
1919.00,-0.0004
1918.00,-0.0005
1917.00,-0.0004
1916.00,-0.0004
1915.00,-0.0003
1914.00,-0.0003
1913.00,-0.0003
1912.00,-0.0002
1911.00,-0.0002
1910.00,-0.0002
1909.00,-0.0003
1908.00,-0.0004
1907.00,-0.0005
1906.00,-0.0006
1905.00,-0.0005
1904.00,-0.0004
1903.00,-0.0002
1902.00,-0.0002
1901.00,-0.0002
1900.00,-0.0002
1899.00,-0.0002
1898.00,-0.0003
1897.00,-0.0002
1896.00,-0.0002
1895.00,-0.0002
1894.00,-0.0002
1893.00,-0.0002
1892.00,-0.0003
1891.00,-0.0003
1890.00,-0.0003
1889.00,-0.0003
1888.00,-0.0002
1887.00,-0.0002
1886.00,-0.0002
1885.00,-0.0002
1884.00,-0.0002
1883.00,-0.0002
1882.00,-0.0003
1881.00,-0.0003
1880.00,-0.0003
1879.00,-0.0003
1878.00,-0.0003
1877.00,-0.0002
1876.00,-0.0002
1875.00,-0.0002
1874.00,-0.0002
1873.00,-0.0002
1872.00,-0.0001
1871.00,-0.0001
1870.00,-0.0000
1869.00,-0.0000
1868.00,0.0000
1867.00,0.0001
1866.00,0.0001
1865.00,0.0000
1864.00,0.0000
1863.00,-0.0001
1862.00,-0.0001
1861.00,-0.0002
1860.00,-0.0001
1859.00,-0.0001
1858.00,0.0000
1857.00,0.0001
1856.00,0.0001
1855.00,0.0001
1854.00,0.0001
1853.00,0.0000
1852.00,-0.0000
1851.00,-0.0000
1850.00,-0.0001
1849.00,-0.0001
1848.00,-0.0001
1847.00,-0.0000
1846.00,0.0001
1845.00,0.0001
1844.00,0.0002
1843.00,0.0001
1842.00,0.0000
1841.00,-0.0001
1840.00,-0.0002
1839.00,-0.0002
1838.00,-0.0002
1837.00,-0.0001
1836.00,-0.0001
1835.00,-0.0000
1834.00,-0.0000
1833.00,-0.0000
1832.00,0.0000
1831.00,0.0001
1830.00,0.0002
1829.00,0.0003
1828.00,0.0003
1827.00,0.0002
1826.00,0.0002
1825.00,0.0002
1824.00,0.0002
1823.00,0.0003
1822.00,0.0003
1821.00,0.0002
1820.00,0.0002
1819.00,0.0001
1818.00,-0.0000
1817.00,-0.0001
1816.00,-0.0001
1815.00,-0.0000
1814.00,0.0000
1813.00,0.0001
1812.00,0.0001
1811.00,0.0002
1810.00,0.0002
1809.00,0.0003
1808.00,0.0003
1807.00,0.0003
1806.00,0.0004
1805.00,0.0004
1804.00,0.0004
1803.00,0.0004
1802.00,0.0003
1801.00,0.0003
1800.00,0.0003
1799.00,0.0004
1798.00,0.0004
1797.00,0.0004
1796.00,0.0004
1795.00,0.0004
1794.00,0.0003
1793.00,0.0003
1792.00,0.0004
1791.00,0.0005
1790.00,0.0006
1789.00,0.0007
1788.00,0.0006
1787.00,0.0006
1786.00,0.0005
1785.00,0.0005
1784.00,0.0005
1783.00,0.0005
1782.00,0.0006
1781.00,0.0006
1780.00,0.0006
1779.00,0.0006
1778.00,0.0006
1777.00,0.0006
1776.00,0.0005
1775.00,0.0005
1774.00,0.0005
1773.00,0.0006
1772.00,0.0006
1771.00,0.0007
1770.00,0.0007
1769.00,0.0007
1768.00,0.0008
1767.00,0.0008
1766.00,0.0007
1765.00,0.0007
1764.00,0.0007
1763.00,0.0008
1762.00,0.0008
1761.00,0.0008
1760.00,0.0009
1759.00,0.0009
1758.00,0.0009
1757.00,0.0009
1756.00,0.0009
1755.00,0.0009
1754.00,0.0009
1753.00,0.0010
1752.00,0.0010
1751.00,0.0011
1750.00,0.0010
1749.00,0.0010
1748.00,0.0011
1747.00,0.0011
1746.00,0.0011
1745.00,0.0010
1744.00,0.0010
1743.00,0.0011
1742.00,0.0011
1741.00,0.0012
1740.00,0.0013
1739.00,0.0013
1738.00,0.0013
1737.00,0.0013
1736.00,0.0013
1735.00,0.0013
1734.00,0.0014
1733.00,0.0014
1732.00,0.0013
1731.00,0.0013
1730.00,0.0014
1729.00,0.0015
1728.00,0.0016
1727.00,0.0017
1726.00,0.0017
1725.00,0.0018
1724.00,0.0018
1723.00,0.0018
1722.00,0.0018
1721.00,0.0018
1720.00,0.0018
1719.00,0.0018
1718.00,0.0018
1717.00,0.0018
1716.00,0.0018
1715.00,0.0018
1714.00,0.0018
1713.00,0.0018
1712.00,0.0018
1711.00,0.0018
1710.00,0.0018
1709.00,0.0018
1708.00,0.0018
1707.00,0.0019
1706.00,0.0019
1705.00,0.0019
1704.00,0.0019
1703.00,0.0019
1702.00,0.0019
1701.00,0.0020
1700.00,0.0020
1699.00,0.0020
1698.00,0.0021
1697.00,0.0021
1696.00,0.0021
1695.00,0.0022
1694.00,0.0022
1693.00,0.0022
1692.00,0.0022
1691.00,0.0023
1690.00,0.0023
1689.00,0.0024
1688.00,0.0024
1687.00,0.0024
1686.00,0.0024
1685.00,0.0025
1684.00,0.0026
1683.00,0.0027
1682.00,0.0027
1681.00,0.0027
1680.00,0.0028
1679.00,0.0028
1678.00,0.0029
1677.00,0.0029
1676.00,0.0030
1675.00,0.0030
1674.00,0.0030
1673.00,0.0031
1672.00,0.0032
1671.00,0.0033
1670.00,0.0033
1669.00,0.0033
1668.00,0.0033
1667.00,0.0033
1666.00,0.0033
1665.00,0.0034
1664.00,0.0034
1663.00,0.0034
1662.00,0.0034
1661.00,0.0034
1660.00,0.0034
1659.00,0.0034
1658.00,0.0035
1657.00,0.0035
1656.00,0.0036
1655.00,0.0036
1654.00,0.0037
1653.00,0.0038
1652.00,0.0039
1651.00,0.0039
1650.00,0.0040
1649.00,0.0041
1648.00,0.0043
1647.00,0.0044
1646.00,0.0045
1645.00,0.0045
1644.00,0.0045
1643.00,0.0045
1642.00,0.0045
1641.00,0.0046
1640.00,0.0046
1639.00,0.0047
1638.00,0.0047
1637.00,0.0048
1636.00,0.0048
1635.00,0.0047
1634.00,0.0047
1633.00,0.0046
1632.00,0.0046
1631.00,0.0045
1630.00,0.0045
1629.00,0.0044
1628.00,0.0044
1627.00,0.0044
1626.00,0.0044
1625.00,0.0044
1624.00,0.0043
1623.00,0.0043
1622.00,0.0042
1621.00,0.0042
1620.00,0.0042
1619.00,0.0042
1618.00,0.0041
1617.00,0.0041
1616.00,0.0042
1615.00,0.0042
1614.00,0.0041
1613.00,0.0041
1612.00,0.0041
1611.00,0.0041
1610.00,0.0041
1609.00,0.0041
1608.00,0.0041
1607.00,0.0041
1606.00,0.0040
1605.00,0.0040
1604.00,0.0040
1603.00,0.0040
1602.00,0.0040
1601.00,0.0040
1600.00,0.0040
1599.00,0.0039
1598.00,0.0039
1597.00,0.0040
1596.00,0.0040
1595.00,0.0040
1594.00,0.0039
1593.00,0.0039
1592.00,0.0039
1591.00,0.0039
1590.00,0.0039
1589.00,0.0039
1588.00,0.0040
1587.00,0.0040
1586.00,0.0041
1585.00,0.0041
1584.00,0.0042
1583.00,0.0042
1582.00,0.0042
1581.00,0.0043
1580.00,0.0044
1579.00,0.0044
1578.00,0.0044
1577.00,0.0044
1576.00,0.0045
1575.00,0.0044
1574.00,0.0044
1573.00,0.0045
1572.00,0.0045
1571.00,0.0046
1570.00,0.0046
1569.00,0.0046
1568.00,0.0047
1567.00,0.0047
1566.00,0.0047
1565.00,0.0047
1564.00,0.0048
1563.00,0.0047
1562.00,0.0047
1561.00,0.0047
1560.00,0.0047
1559.00,0.0047
1558.00,0.0047
1557.00,0.0048
1556.00,0.0048
1555.00,0.0049
1554.00,0.0049
1553.00,0.0050
1552.00,0.0051
1551.00,0.0052
1550.00,0.0052
1549.00,0.0052
1548.00,0.0053
1547.00,0.0054
1546.00,0.0054
1545.00,0.0055
1544.00,0.0055
1543.00,0.0055
1542.00,0.0055
1541.00,0.0055
1540.00,0.0055
1539.00,0.0052
1538.00,0.0050
1537.00,0.0049
1536.00,0.0049
1535.00,0.0049
1534.00,0.0048
1533.00,0.0047
1532.00,0.0046
1531.00,0.0045
1530.00,0.0044
1529.00,0.0044
1528.00,0.0045
1527.00,0.0045
1526.00,0.0045
1525.00,0.0045
1524.00,0.0046
1523.00,0.0046
1522.00,0.0046
1521.00,0.0046
1520.00,0.0047
1519.00,0.0047
1518.00,0.0047
1517.00,0.0047
1516.00,0.0048
1515.00,0.0048
1514.00,0.0048
1513.00,0.0049
1512.00,0.0050
1511.00,0.0050
1510.00,0.0050
1509.00,0.0051
1508.00,0.0053
1507.00,0.0054
1506.00,0.0055
1505.00,0.0057
1504.00,0.0060
1503.00,0.0061
1502.00,0.0063
1501.00,0.0065
1500.00,0.0068
1499.00,0.0069
1498.00,0.0071
1497.00,0.0074
1496.00,0.0077
1495.00,0.0079
1494.00,0.0081
1493.00,0.0084
1492.00,0.0088
1491.00,0.0091
1490.00,0.0095
1489.00,0.0100
1488.00,0.0105
1487.00,0.0110
1486.00,0.0115
1485.00,0.0121
1484.00,0.0127
1483.00,0.0135
1482.00,0.0143
1481.00,0.0154
1480.00,0.0165
1479.00,0.0177
1478.00,0.0192
1477.00,0.0213
1476.00,0.0239
1475.00,0.0271
1474.00,0.0314
1473.00,0.0373
1472.00,0.0442
1471.00,0.0509
1470.00,0.0574
1469.00,0.0644
1468.00,0.0719
1467.00,0.0801
1466.00,0.0895
1465.00,0.0995
1464.00,0.1081
1463.00,0.1141
1462.00,0.1177
1461.00,0.1199
1460.00,0.1212
1459.00,0.1218
1458.00,0.1219
1457.00,0.1216
1456.00,0.1205
1455.00,0.1190
1454.00,0.1172
1453.00,0.1149
1452.00,0.1116
1451.00,0.1073
1450.00,0.1016
1449.00,0.0942
1448.00,0.0852
1447.00,0.0758
1446.00,0.0675
1445.00,0.0605
1444.00,0.0546
1443.00,0.0498
1442.00,0.0462
1441.00,0.0437
1440.00,0.0423
1439.00,0.0420
1438.00,0.0424
1437.00,0.0429
1436.00,0.0422
1435.00,0.0399
1434.00,0.0363
1433.00,0.0318
1432.00,0.0272
1431.00,0.0231
1430.00,0.0199
1429.00,0.0175
1428.00,0.0159
1427.00,0.0149
1426.00,0.0142
1425.00,0.0136
1424.00,0.0130
1423.00,0.0126
1422.00,0.0124
1421.00,0.0121
1420.00,0.0118
1419.00,0.0115
1418.00,0.0114
1417.00,0.0111
1416.00,0.0109
1415.00,0.0108
1414.00,0.0107
1413.00,0.0105
1412.00,0.0104
1411.00,0.0103
1410.00,0.0103
1409.00,0.0103
1408.00,0.0102
1407.00,0.0102
1406.00,0.0103
1405.00,0.0103
1404.00,0.0102
1403.00,0.0102
1402.00,0.0103
1401.00,0.0104
1400.00,0.0104
1399.00,0.0106
1398.00,0.0109
1397.00,0.0111
1396.00,0.0113
1395.00,0.0117
1394.00,0.0122
1393.00,0.0126
1392.00,0.0131
1391.00,0.0139
1390.00,0.0149
1389.00,0.0163
1388.00,0.0184
1387.00,0.0216
1386.00,0.0258
1385.00,0.0315
1384.00,0.0394
1383.00,0.0506
1382.00,0.0660
1381.00,0.0861
1380.00,0.1116
1379.00,0.1412
1378.00,0.1707
1377.00,0.1932
1376.00,0.2018
1375.00,0.1926
1374.00,0.1683
1373.00,0.1383
1372.00,0.1106
1371.00,0.0878
1370.00,0.0697
1369.00,0.0562
1368.00,0.0469
1367.00,0.0412
1366.00,0.0381
1365.00,0.0369
1364.00,0.0372
1363.00,0.0387
1362.00,0.0410
1361.00,0.0436
1360.00,0.0455
1359.00,0.0461
1358.00,0.0450
1357.00,0.0423
1356.00,0.0385
1355.00,0.0343
1354.00,0.0301
1353.00,0.0266
1352.00,0.0237
1351.00,0.0213
1350.00,0.0194
1349.00,0.0179
1348.00,0.0167
1347.00,0.0156
1346.00,0.0147
1345.00,0.0139
1344.00,0.0132
1343.00,0.0127
1342.00,0.0123
1341.00,0.0120
1340.00,0.0117
1339.00,0.0115
1338.00,0.0113
1337.00,0.0112
1336.00,0.0113
1335.00,0.0115
1334.00,0.0119
1333.00,0.0123
1332.00,0.0127
1331.00,0.0130
1330.00,0.0132
1329.00,0.0130
1328.00,0.0126
1327.00,0.0121
1326.00,0.0115
1325.00,0.0109
1324.00,0.0103
1323.00,0.0099
1322.00,0.0095
1321.00,0.0092
1320.00,0.0089
1319.00,0.0087
1318.00,0.0085
1317.00,0.0083
1316.00,0.0083
1315.00,0.0082
1314.00,0.0082
1313.00,0.0082
1312.00,0.0083
1311.00,0.0084
1310.00,0.0086
1309.00,0.0090
1308.00,0.0097
1307.00,0.0105
1306.00,0.0113
1305.00,0.0118
1304.00,0.0121
1303.00,0.0120
1302.00,0.0118
1301.00,0.0116
1300.00,0.0116
1299.00,0.0118
1298.00,0.0120
1297.00,0.0122
1296.00,0.0122
1295.00,0.0119
1294.00,0.0115
1293.00,0.0110
1292.00,0.0104
1291.00,0.0099
1290.00,0.0095
1289.00,0.0091
1288.00,0.0088
1287.00,0.0086
1286.00,0.0084
1285.00,0.0082
1284.00,0.0080
1283.00,0.0079
1282.00,0.0078
1281.00,0.0077
1280.00,0.0075
1279.00,0.0074
1278.00,0.0073
1277.00,0.0073
1276.00,0.0072
1275.00,0.0072
1274.00,0.0072
1273.00,0.0072
1272.00,0.0072
1271.00,0.0072
1270.00,0.0073
1269.00,0.0075
1268.00,0.0076
1267.00,0.0079
1266.00,0.0081
1265.00,0.0083
1264.00,0.0086
1263.00,0.0088
1262.00,0.0091
1261.00,0.0094
1260.00,0.0098
1259.00,0.0102
1258.00,0.0106
1257.00,0.0109
1256.00,0.0111
1255.00,0.0109
1254.00,0.0104
1253.00,0.0098
1252.00,0.0092
1251.00,0.0087
1250.00,0.0083
1249.00,0.0079
1248.00,0.0077
1247.00,0.0076
1246.00,0.0074
1245.00,0.0073
1244.00,0.0071
1243.00,0.0070
1242.00,0.0069
1241.00,0.0068
1240.00,0.0067
1239.00,0.0067
1238.00,0.0067
1237.00,0.0068
1236.00,0.0067
1235.00,0.0067
1234.00,0.0066
1233.00,0.0066
1232.00,0.0067
1231.00,0.0068
1230.00,0.0069
1229.00,0.0070
1228.00,0.0072
1227.00,0.0074
1226.00,0.0076
1225.00,0.0079
1224.00,0.0082
1223.00,0.0085
1222.00,0.0088
1221.00,0.0091
1220.00,0.0093
1219.00,0.0094
1218.00,0.0094
1217.00,0.0092
1216.00,0.0089
1215.00,0.0086
1214.00,0.0083
1213.00,0.0080
1212.00,0.0078
1211.00,0.0075
1210.00,0.0074
1209.00,0.0072
1208.00,0.0071
1207.00,0.0070
1206.00,0.0069
1205.00,0.0068
1204.00,0.0067
1203.00,0.0066
1202.00,0.0065
1201.00,0.0065
1200.00,0.0065
1199.00,0.0065
1198.00,0.0065
1197.00,0.0065
1196.00,0.0065
1195.00,0.0065
1194.00,0.0065
1193.00,0.0065
1192.00,0.0065
1191.00,0.0065
1190.00,0.0065
1189.00,0.0064
1188.00,0.0064
1187.00,0.0063
1186.00,0.0064
1185.00,0.0064
1184.00,0.0065
1183.00,0.0067
1182.00,0.0068
1181.00,0.0070
1180.00,0.0073
1179.00,0.0076
1178.00,0.0081
1177.00,0.0087
1176.00,0.0095
1175.00,0.0106
1174.00,0.0121
1173.00,0.0139
1172.00,0.0160
1171.00,0.0183
1170.00,0.0205
1169.00,0.0223
1168.00,0.0234
1167.00,0.0238
1166.00,0.0234
1165.00,0.0226
1164.00,0.0216
1163.00,0.0206
1162.00,0.0198
1161.00,0.0191
1160.00,0.0186
1159.00,0.0183
1158.00,0.0181
1157.00,0.0180
1156.00,0.0179
1155.00,0.0179
1154.00,0.0179
1153.00,0.0179
1152.00,0.0176
1151.00,0.0170
1150.00,0.0162
1149.00,0.0152
1148.00,0.0143
1147.00,0.0135
1146.00,0.0127
1145.00,0.0120
1144.00,0.0113
1143.00,0.0107
1142.00,0.0102
1141.00,0.0097
1140.00,0.0093
1139.00,0.0090
1138.00,0.0086
1137.00,0.0082
1136.00,0.0079
1135.00,0.0076
1134.00,0.0074
1133.00,0.0073
1132.00,0.0071
1131.00,0.0070
1130.00,0.0070
1129.00,0.0070
1128.00,0.0071
1127.00,0.0072
1126.00,0.0073
1125.00,0.0074
1124.00,0.0074
1123.00,0.0074
1122.00,0.0074
1121.00,0.0074
1120.00,0.0074
1119.00,0.0075
1118.00,0.0076
1117.00,0.0077
1116.00,0.0079
1115.00,0.0080
1114.00,0.0082
1113.00,0.0085
1112.00,0.0088
1111.00,0.0091
1110.00,0.0095
1109.00,0.0098
1108.00,0.0103
1107.00,0.0109
1106.00,0.0116
1105.00,0.0123
1104.00,0.0129
1103.00,0.0132
1102.00,0.0131
1101.00,0.0126
1100.00,0.0120
1099.00,0.0112
1098.00,0.0105
1097.00,0.0099
1096.00,0.0095
1095.00,0.0092
1094.00,0.0090
1093.00,0.0087
1092.00,0.0085
1091.00,0.0083
1090.00,0.0081
1089.00,0.0080
1088.00,0.0080
1087.00,0.0079
1086.00,0.0077
1085.00,0.0076
1084.00,0.0076
1083.00,0.0076
1082.00,0.0076
1081.00,0.0075
1080.00,0.0075
1079.00,0.0074
1078.00,0.0073
1077.00,0.0072
1076.00,0.0071
1075.00,0.0070
1074.00,0.0069
1073.00,0.0069
1072.00,0.0068
1071.00,0.0067
1070.00,0.0066
1069.00,0.0065
1068.00,0.0065
1067.00,0.0065
1066.00,0.0065
1065.00,0.0065
1064.00,0.0065
1063.00,0.0065
1062.00,0.0066
1061.00,0.0067
1060.00,0.0067
1059.00,0.0067
1058.00,0.0067
1057.00,0.0067
1056.00,0.0067
1055.00,0.0067
1054.00,0.0068
1053.00,0.0068
1052.00,0.0069
1051.00,0.0071
1050.00,0.0072
1049.00,0.0074
1048.00,0.0076
1047.00,0.0078
1046.00,0.0081
1045.00,0.0082
1044.00,0.0083
1043.00,0.0082
1042.00,0.0082
1041.00,0.0081
1040.00,0.0080
1039.00,0.0080
1038.00,0.0080
1037.00,0.0080
1036.00,0.0080
1035.00,0.0079
1034.00,0.0078
1033.00,0.0076
1032.00,0.0075
1031.00,0.0074
1030.00,0.0073
1029.00,0.0073
1028.00,0.0072
1027.00,0.0072
1026.00,0.0072
1025.00,0.0072
1024.00,0.0072
1023.00,0.0073
1022.00,0.0074
1021.00,0.0074
1020.00,0.0075
1019.00,0.0075
1018.00,0.0076
1017.00,0.0076
1016.00,0.0076
1015.00,0.0076
1014.00,0.0077
1013.00,0.0079
1012.00,0.0081
1011.00,0.0083
1010.00,0.0085
1009.00,0.0088
1008.00,0.0091
1007.00,0.0096
1006.00,0.0103
1005.00,0.0112
1004.00,0.0125
1003.00,0.0141
1002.00,0.0161
1001.00,0.0186
1000.00,0.0213
999.00,0.0234
998.00,0.0244
997.00,0.0238
996.00,0.0220
995.00,0.0194
994.00,0.0167
993.00,0.0144
992.00,0.0125
991.00,0.0111
990.00,0.0101
989.00,0.0095
988.00,0.0092
987.00,0.0091
986.00,0.0091
985.00,0.0093
984.00,0.0098
983.00,0.0104
982.00,0.0114
981.00,0.0127
980.00,0.0145
979.00,0.0168
978.00,0.0198
977.00,0.0231
976.00,0.0265
975.00,0.0295
974.00,0.0315
973.00,0.0319
972.00,0.0305
971.00,0.0276
970.00,0.0238
969.00,0.0201
968.00,0.0170
967.00,0.0147
966.00,0.0130
965.00,0.0118
964.00,0.0108
963.00,0.0101
962.00,0.0095
961.00,0.0090
960.00,0.0086
959.00,0.0082
958.00,0.0080
957.00,0.0078
956.00,0.0077
955.00,0.0076
954.00,0.0075
953.00,0.0074
952.00,0.0072
951.00,0.0072
950.00,0.0071
949.00,0.0071
948.00,0.0070
947.00,0.0070
946.00,0.0072
945.00,0.0074
944.00,0.0079
943.00,0.0083
942.00,0.0087
941.00,0.0089
940.00,0.0089
939.00,0.0087
938.00,0.0083
937.00,0.0078
936.00,0.0073
935.00,0.0068
934.00,0.0065
933.00,0.0063
932.00,0.0062
931.00,0.0061
930.00,0.0060
929.00,0.0059
928.00,0.0058
927.00,0.0058
926.00,0.0058
925.00,0.0057
924.00,0.0057
923.00,0.0056
922.00,0.0056
921.00,0.0056
920.00,0.0057
919.00,0.0057
918.00,0.0058
917.00,0.0058
916.00,0.0059
915.00,0.0059
914.00,0.0060
913.00,0.0061
912.00,0.0063
911.00,0.0065
910.00,0.0068
909.00,0.0070
908.00,0.0073
907.00,0.0078
906.00,0.0085
905.00,0.0095
904.00,0.0110
903.00,0.0130
902.00,0.0151
901.00,0.0171
900.00,0.0183
899.00,0.0185
898.00,0.0176
897.00,0.0159
896.00,0.0139
895.00,0.0120
894.00,0.0106
893.00,0.0095
892.00,0.0087
891.00,0.0080
890.00,0.0075
889.00,0.0071
888.00,0.0068
887.00,0.0066
886.00,0.0066
885.00,0.0066
884.00,0.0067
883.00,0.0067
882.00,0.0068
881.00,0.0069
880.00,0.0069
879.00,0.0069
878.00,0.0069
877.00,0.0070
876.00,0.0072
875.00,0.0074
874.00,0.0075
873.00,0.0075
872.00,0.0074
871.00,0.0072
870.00,0.0071
869.00,0.0071
868.00,0.0072
867.00,0.0073
866.00,0.0074
865.00,0.0074
864.00,0.0075
863.00,0.0076
862.00,0.0077
861.00,0.0077
860.00,0.0078
859.00,0.0078
858.00,0.0079
857.00,0.0080
856.00,0.0081
855.00,0.0082
854.00,0.0084
853.00,0.0086
852.00,0.0089
851.00,0.0092
850.00,0.0096
849.00,0.0100
848.00,0.0104
847.00,0.0112
846.00,0.0125
845.00,0.0146
844.00,0.0177
843.00,0.0210
842.00,0.0236
841.00,0.0242
840.00,0.0225
839.00,0.0193
838.00,0.0161
837.00,0.0136
836.00,0.0120
835.00,0.0110
834.00,0.0104
833.00,0.0100
832.00,0.0098
831.00,0.0096
830.00,0.0094
829.00,0.0092
828.00,0.0090
827.00,0.0090
826.00,0.0090
825.00,0.0090
824.00,0.0091
823.00,0.0092
822.00,0.0093
821.00,0.0095
820.00,0.0099
819.00,0.0103
818.00,0.0108
817.00,0.0114
816.00,0.0123
815.00,0.0136
814.00,0.0153
813.00,0.0173
812.00,0.0194
811.00,0.0214
810.00,0.0229
809.00,0.0236
808.00,0.0233
807.00,0.0220
806.00,0.0200
805.00,0.0179
804.00,0.0160
803.00,0.0145
802.00,0.0134
801.00,0.0125
800.00,0.0118
799.00,0.0111
798.00,0.0107
797.00,0.0103
796.00,0.0101
795.00,0.0099
794.00,0.0096
793.00,0.0093
792.00,0.0088
791.00,0.0083
790.00,0.0079
789.00,0.0076
788.00,0.0074
787.00,0.0073
786.00,0.0072
785.00,0.0070
784.00,0.0068
783.00,0.0067
782.00,0.0065
781.00,0.0064
780.00,0.0063
779.00,0.0063
778.00,0.0062
777.00,0.0061
776.00,0.0061
775.00,0.0060
774.00,0.0060
773.00,0.0061
772.00,0.0062
771.00,0.0063
770.00,0.0063
769.00,0.0062
768.00,0.0061
767.00,0.0060
766.00,0.0061
765.00,0.0063
764.00,0.0063
763.00,0.0062
762.00,0.0060
761.00,0.0059
760.00,0.0059
759.00,0.0059
758.00,0.0061
757.00,0.0063
756.00,0.0064
755.00,0.0064
754.00,0.0065
753.00,0.0066
752.00,0.0068
751.00,0.0070
750.00,0.0073
749.00,0.0074
748.00,0.0076
747.00,0.0077
746.00,0.0078
745.00,0.0080
744.00,0.0082
743.00,0.0085
742.00,0.0088
741.00,0.0092
740.00,0.0095
739.00,0.0099
738.00,0.0101
737.00,0.0104
736.00,0.0107
735.00,0.0111
734.00,0.0116
733.00,0.0122
732.00,0.0128
731.00,0.0135
730.00,0.0141
729.00,0.0145
728.00,0.0147
727.00,0.0148
726.00,0.0149
725.00,0.0153
724.00,0.0160
723.00,0.0169
722.00,0.0177
721.00,0.0182
720.00,0.0181
719.00,0.0174
718.00,0.0161
717.00,0.0147
716.00,0.0134
715.00,0.0123
714.00,0.0117
713.00,0.0112
712.00,0.0109
711.00,0.0106
710.00,0.0102
709.00,0.0099
708.00,0.0097
707.00,0.0095
706.00,0.0094
705.00,0.0093
704.00,0.0092
703.00,0.0091
702.00,0.0091
701.00,0.0091
700.00,0.0090
699.00,0.0089
698.00,0.0087
697.00,0.0085
696.00,0.0084
695.00,0.0084
694.00,0.0084
693.00,0.0084
692.00,0.0084
691.00,0.0083
690.00,0.0081
689.00,0.0080
688.00,0.0079
687.00,0.0080
686.00,0.0082
685.00,0.0083
684.00,0.0084
683.00,0.0083
682.00,0.0082
681.00,0.0081
680.00,0.0081
679.00,0.0082
678.00,0.0083
677.00,0.0082
676.00,0.0082
675.00,0.0081
674.00,0.0081
673.00,0.0081
672.00,0.0080
671.00,0.0080
670.00,0.0081
669.00,0.0084
668.00,0.0088
667.00,0.0090
666.00,0.0088
665.00,0.0085
664.00,0.0083
663.00,0.0081
662.00,0.0078
661.00,0.0075
660.00,0.0073
659.00,0.0073
658.00,0.0075
657.00,0.0077
656.00,0.0079
655.00,0.0080
654.00,0.0079
653.00,0.0077
652.00,0.0075
651.00,0.0074
650.00,0.0075
649.00,0.0077
648.00,0.0081
647.00,0.0084
646.00,0.0084
645.00,0.0083
644.00,0.0080
643.00,0.0078
642.00,0.0078
641.00,0.0078
640.00,0.0078
639.00,0.0078
638.00,0.0079
637.00,0.0079
636.00,0.0080
635.00,0.0080
634.00,0.0080
633.00,0.0080
632.00,0.0080
631.00,0.0081
630.00,0.0080
629.00,0.0078
628.00,0.0076
627.00,0.0074
626.00,0.0075
625.00,0.0076
624.00,0.0079
623.00,0.0081
622.00,0.0083
621.00,0.0084
620.00,0.0082
619.00,0.0078
618.00,0.0074
617.00,0.0070
616.00,0.0068
615.00,0.0068
614.00,0.0070
613.00,0.0072
612.00,0.0072
611.00,0.0070
610.00,0.0069
609.00,0.0069
608.00,0.0070
607.00,0.0071
606.00,0.0072
605.00,0.0073
604.00,0.0074
603.00,0.0075
602.00,0.0077
601.00,0.0079
600.00,0.0078
599.00,0.0076
598.00,0.0074
597.00,0.0071
596.00,0.0070
595.00,0.0069
594.00,0.0068
593.00,0.0065
592.00,0.0062
591.00,0.0062
590.00,0.0065
589.00,0.0069
588.00,0.0071
587.00,0.0070
586.00,0.0068
585.00,0.0067
584.00,0.0066
583.00,0.0067
582.00,0.0068
581.00,0.0070
580.00,0.0071
579.00,0.0071
578.00,0.0070
577.00,0.0069
576.00,0.0068
575.00,0.0069
574.00,0.0071
573.00,0.0072
572.00,0.0072
571.00,0.0071
570.00,0.0072
569.00,0.0073
568.00,0.0074
567.00,0.0075
566.00,0.0076
565.00,0.0077
564.00,0.0076
563.00,0.0073
562.00,0.0070
561.00,0.0069
560.00,0.0070
559.00,0.0071
558.00,0.0071
557.00,0.0070
556.00,0.0068
555.00,0.0069
554.00,0.0073
553.00,0.0078
552.00,0.0082
551.00,0.0082
550.00,0.0079
549.00,0.0074
548.00,0.0068
547.00,0.0065
546.00,0.0066
545.00,0.0070
544.00,0.0072
543.00,0.0071
542.00,0.0068
541.00,0.0066
540.00,0.0067
539.00,0.0070
538.00,0.0073
537.00,0.0073
536.00,0.0072
535.00,0.0073
534.00,0.0078
533.00,0.0083
532.00,0.0086
531.00,0.0086
530.00,0.0085
529.00,0.0084
528.00,0.0085
527.00,0.0087
526.00,0.0089
525.00,0.0091
524.00,0.0091
523.00,0.0087
522.00,0.0082
521.00,0.0075
520.00,0.0069
519.00,0.0065
518.00,0.0068
517.00,0.0077
516.00,0.0086
515.00,0.0090
514.00,0.0089
513.00,0.0086
512.00,0.0085
511.00,0.0085
510.00,0.0088
509.00,0.0090
508.00,0.0087
507.00,0.0078
506.00,0.0066
505.00,0.0058
504.00,0.0055
503.00,0.0058
502.00,0.0061
501.00,0.0061
500.00,0.0058
499.00,0.0053
498.00,0.0050
497.00,0.0052
496.00,0.0058
495.00,0.0063
494.00,0.0065
493.00,0.0063
492.00,0.0062
491.00,0.0061
490.00,0.0058
489.00,0.0052
488.00,0.0046
487.00,0.0042
486.00,0.0042
485.00,0.0046
484.00,0.0053
483.00,0.0063
482.00,0.0075
481.00,0.0084
480.00,0.0087
479.00,0.0085
478.00,0.0082
477.00,0.0079
476.00,0.0075
475.00,0.0068
474.00,0.0058
473.00,0.0046
472.00,0.0036
471.00,0.0033
470.00,0.0039
469.00,0.0051
468.00,0.0070
467.00,0.0090
466.00,0.0105
465.00,0.0108
464.00,0.0107
463.00,0.0113
462.00,0.0133
461.00,0.0161
460.00,0.0180
459.00,0.0180
458.00,0.0165
457.00,0.0149
456.00,0.0140
455.00,0.0138
454.00,0.0139
453.00,0.0138
452.00,0.0133
451.00,0.0124
450.00,0.0114
