Created as New Dataset,Sample 226 By Administrator Date Wednesday, September 03 2025
cm-1,A
4000.00,0.0010
3999.00,0.0010
3998.00,0.0011
3997.00,0.0011
3996.00,0.0010
3995.00,0.0010
3994.00,0.0010
3993.00,0.0010
3992.00,0.0010
3991.00,0.0010
3990.00,0.0010
3989.00,0.0010
3988.00,0.0010
3987.00,0.0010
3986.00,0.0010
3985.00,0.0010
3984.00,0.0010
3983.00,0.0010
3982.00,0.0009
3981.00,0.0009
3980.00,0.0009
3979.00,0.0009
3978.00,0.0009
3977.00,0.0009
3976.00,0.0009
3975.00,0.0009
3974.00,0.0009
3973.00,0.0009
3972.00,0.0009
3971.00,0.0009
3970.00,0.0009
3969.00,0.0009
3968.00,0.0009
3967.00,0.0009
3966.00,0.0009
3965.00,0.0009
3964.00,0.0009
3963.00,0.0009
3962.00,0.0009
3961.00,0.0009
3960.00,0.0009
3959.00,0.0009
3958.00,0.0009
3957.00,0.0008
3956.00,0.0008
3955.00,0.0008
3954.00,0.0009
3953.00,0.0009
3952.00,0.0009
3951.00,0.0009
3950.00,0.0009
3949.00,0.0009
3948.00,0.0009
3947.00,0.0009
3946.00,0.0009
3945.00,0.0008
3944.00,0.0008
3943.00,0.0008
3942.00,0.0008
3941.00,0.0008
3940.00,0.0008
3939.00,0.0009
3938.00,0.0009
3937.00,0.0010
3936.00,0.0010
3935.00,0.0010
3934.00,0.0011
3933.00,0.0011
3932.00,0.0011
3931.00,0.0011
3930.00,0.0010
3929.00,0.0010
3928.00,0.0010
3927.00,0.0010
3926.00,0.0009
3925.00,0.0009
3924.00,0.0009
3923.00,0.0009
3922.00,0.0009
3921.00,0.0009
3920.00,0.0009
3919.00,0.0010
3918.00,0.0010
3917.00,0.0009
3916.00,0.0009
3915.00,0.0010
3914.00,0.0010
3913.00,0.0010
3912.00,0.0010
3911.00,0.0010
3910.00,0.0010
3909.00,0.0010
3908.00,0.0009
3907.00,0.0009
3906.00,0.0009
3905.00,0.0010
3904.00,0.0010
3903.00,0.0011
3902.00,0.0011
3901.00,0.0011
3900.00,0.0010
3899.00,0.0010
3898.00,0.0010
3897.00,0.0010
3896.00,0.0009
3895.00,0.0009
3894.00,0.0009
3893.00,0.0009
3892.00,0.0009
3891.00,0.0009
3890.00,0.0009
3889.00,0.0009
3888.00,0.0009
3887.00,0.0009
3886.00,0.0009
3885.00,0.0010
3884.00,0.0010
3883.00,0.0010
3882.00,0.0009
3881.00,0.0009
3880.00,0.0009
3879.00,0.0009
3878.00,0.0009
3877.00,0.0009
3876.00,0.0009
3875.00,0.0009
3874.00,0.0009
3873.00,0.0010
3872.00,0.0010
3871.00,0.0011
3870.00,0.0010
3869.00,0.0010
3868.00,0.0010
3867.00,0.0010
3866.00,0.0010
3865.00,0.0009
3864.00,0.0009
3863.00,0.0010
3862.00,0.0010
3861.00,0.0010
3860.00,0.0010
3859.00,0.0010
3858.00,0.0010
3857.00,0.0009
3856.00,0.0009
3855.00,0.0009
3854.00,0.0009
3853.00,0.0009
3852.00,0.0009
3851.00,0.0009
3850.00,0.0009
3849.00,0.0009
3848.00,0.0009
3847.00,0.0009
3846.00,0.0009
3845.00,0.0009
3844.00,0.0009
3843.00,0.0010
3842.00,0.0010
3841.00,0.0010
3840.00,0.0010
3839.00,0.0010
3838.00,0.0009
3837.00,0.0009
3836.00,0.0009
3835.00,0.0009
3834.00,0.0009
3833.00,0.0009
3832.00,0.0008
3831.00,0.0008
3830.00,0.0008
3829.00,0.0008
3828.00,0.0009
3827.00,0.0009
3826.00,0.0009
3825.00,0.0009
3824.00,0.0010
3823.00,0.0010
3822.00,0.0010
3821.00,0.0009
3820.00,0.0009
3819.00,0.0009
3818.00,0.0009
3817.00,0.0009
3816.00,0.0009
3815.00,0.0009
3814.00,0.0009
3813.00,0.0009
3812.00,0.0008
3811.00,0.0008
3810.00,0.0009
3809.00,0.0009
3808.00,0.0010
3807.00,0.0010
3806.00,0.0010
3805.00,0.0010
3804.00,0.0009
3803.00,0.0009
3802.00,0.0008
3801.00,0.0009
3800.00,0.0009
3799.00,0.0009
3798.00,0.0009
3797.00,0.0009
3796.00,0.0008
3795.00,0.0008
3794.00,0.0008
3793.00,0.0008
3792.00,0.0008
3791.00,0.0008
3790.00,0.0008
3789.00,0.0009
3788.00,0.0009
3787.00,0.0009
3786.00,0.0009
3785.00,0.0009
3784.00,0.0008
3783.00,0.0008
3782.00,0.0008
3781.00,0.0008
3780.00,0.0008
3779.00,0.0008
3778.00,0.0008
3777.00,0.0009
3776.00,0.0009
3775.00,0.0009
3774.00,0.0009
3773.00,0.0009
3772.00,0.0009
3771.00,0.0009
3770.00,0.0009
3769.00,0.0009
3768.00,0.0009
3767.00,0.0009
3766.00,0.0009
3765.00,0.0009
3764.00,0.0009
3763.00,0.0010
3762.00,0.0010
3761.00,0.0010
3760.00,0.0010
3759.00,0.0010
3758.00,0.0010
3757.00,0.0010
3756.00,0.0010
3755.00,0.0011
3754.00,0.0011
3753.00,0.0012
3752.00,0.0012
3751.00,0.0013
3750.00,0.0013
3749.00,0.0013
3748.00,0.0013
3747.00,0.0012
3746.00,0.0012
3745.00,0.0011
3744.00,0.0011
3743.00,0.0011
3742.00,0.0011
3741.00,0.0011
3740.00,0.0012
3739.00,0.0012
3738.00,0.0011
3737.00,0.0011
3736.00,0.0010
3735.00,0.0010
3734.00,0.0010
3733.00,0.0010
3732.00,0.0010
3731.00,0.0010
3730.00,0.0010
3729.00,0.0010
3728.00,0.0010
3727.00,0.0010
3726.00,0.0009
3725.00,0.0009
3724.00,0.0009
3723.00,0.0008
3722.00,0.0008
3721.00,0.0008
3720.00,0.0008
3719.00,0.0008
3718.00,0.0008
3717.00,0.0008
3716.00,0.0008
3715.00,0.0008
3714.00,0.0008
3713.00,0.0008
3712.00,0.0008
3711.00,0.0008
3710.00,0.0008
3709.00,0.0008
3708.00,0.0008
3707.00,0.0008
3706.00,0.0008
3705.00,0.0007
3704.00,0.0007
3703.00,0.0007
3702.00,0.0007
3701.00,0.0007
3700.00,0.0008
3699.00,0.0008
3698.00,0.0008
3697.00,0.0008
3696.00,0.0008
3695.00,0.0008
3694.00,0.0009
3693.00,0.0009
3692.00,0.0009
3691.00,0.0009
3690.00,0.0009
3689.00,0.0009
3688.00,0.0009
3687.00,0.0008
3686.00,0.0008
3685.00,0.0008
3684.00,0.0008
3683.00,0.0008
3682.00,0.0009
3681.00,0.0009
3680.00,0.0010
3679.00,0.0010
3678.00,0.0010
3677.00,0.0011
3676.00,0.0010
3675.00,0.0010
3674.00,0.0010
3673.00,0.0010
3672.00,0.0010
3671.00,0.0010
3670.00,0.0009
3669.00,0.0009
3668.00,0.0009
3667.00,0.0009
3666.00,0.0008
3665.00,0.0008
3664.00,0.0008
3663.00,0.0008
3662.00,0.0008
3661.00,0.0008
3660.00,0.0008
3659.00,0.0008
3658.00,0.0008
3657.00,0.0008
3656.00,0.0008
3655.00,0.0008
3654.00,0.0008
3653.00,0.0008
3652.00,0.0008
3651.00,0.0008
3650.00,0.0009
3649.00,0.0010
3648.00,0.0010
3647.00,0.0009
3646.00,0.0009
3645.00,0.0009
3644.00,0.0008
3643.00,0.0008
3642.00,0.0008
3641.00,0.0008
3640.00,0.0008
3639.00,0.0009
3638.00,0.0009
3637.00,0.0009
3636.00,0.0009
3635.00,0.0009
3634.00,0.0010
3633.00,0.0010
3632.00,0.0011
3631.00,0.0012
3630.00,0.0012
3629.00,0.0012
3628.00,0.0012
3627.00,0.0012
3626.00,0.0012
3625.00,0.0012
3624.00,0.0011
3623.00,0.0011
3622.00,0.0011
3621.00,0.0011
3620.00,0.0011
3619.00,0.0012
3618.00,0.0012
3617.00,0.0013
3616.00,0.0013
3615.00,0.0014
3614.00,0.0014
3613.00,0.0014
3612.00,0.0015
3611.00,0.0015
3610.00,0.0015
3609.00,0.0014
3608.00,0.0013
3607.00,0.0013
3606.00,0.0012
3605.00,0.0012
3604.00,0.0012
3603.00,0.0013
3602.00,0.0013
3601.00,0.0013
3600.00,0.0013
3599.00,0.0014
3598.00,0.0014
3597.00,0.0014
3596.00,0.0014
3595.00,0.0014
3594.00,0.0015
3593.00,0.0015
3592.00,0.0016
3591.00,0.0016
3590.00,0.0017
3589.00,0.0016
3588.00,0.0016
3587.00,0.0016
3586.00,0.0016
3585.00,0.0016
3584.00,0.0016
3583.00,0.0016
3582.00,0.0016
3581.00,0.0016
3580.00,0.0016
3579.00,0.0016
3578.00,0.0017
3577.00,0.0017
3576.00,0.0017
3575.00,0.0017
3574.00,0.0017
3573.00,0.0018
3572.00,0.0018
3571.00,0.0018
3570.00,0.0018
3569.00,0.0018
3568.00,0.0019
3567.00,0.0019
3566.00,0.0019
3565.00,0.0020
3564.00,0.0020
3563.00,0.0020
3562.00,0.0020
3561.00,0.0020
3560.00,0.0020
3559.00,0.0021
3558.00,0.0021
3557.00,0.0021
3556.00,0.0022
3555.00,0.0022
3554.00,0.0022
3553.00,0.0023
3552.00,0.0023
3551.00,0.0023
3550.00,0.0024
3549.00,0.0024
3548.00,0.0025
3547.00,0.0025
3546.00,0.0026
3545.00,0.0026
3544.00,0.0026
3543.00,0.0026
3542.00,0.0026
3541.00,0.0026
3540.00,0.0026
3539.00,0.0026
3538.00,0.0026
3537.00,0.0026
3536.00,0.0027
3535.00,0.0027
3534.00,0.0028
3533.00,0.0028
3532.00,0.0028
3531.00,0.0028
3530.00,0.0028
3529.00,0.0029
3528.00,0.0030
3527.00,0.0030
3526.00,0.0030
3525.00,0.0030
3524.00,0.0030
3523.00,0.0030
3522.00,0.0030
3521.00,0.0030
3520.00,0.0031
3519.00,0.0031
3518.00,0.0031
3517.00,0.0031
3516.00,0.0031
3515.00,0.0032
3514.00,0.0032
3513.00,0.0033
3512.00,0.0033
3511.00,0.0033
3510.00,0.0034
3509.00,0.0034
3508.00,0.0034
3507.00,0.0035
3506.00,0.0035
3505.00,0.0036
3504.00,0.0036
3503.00,0.0036
3502.00,0.0036
3501.00,0.0036
3500.00,0.0037
3499.00,0.0037
3498.00,0.0037
3497.00,0.0038
3496.00,0.0038
3495.00,0.0038
3494.00,0.0038
3493.00,0.0038
3492.00,0.0038
3491.00,0.0039
3490.00,0.0039
3489.00,0.0040
3488.00,0.0040
3487.00,0.0040
3486.00,0.0040
3485.00,0.0040
3484.00,0.0041
3483.00,0.0041
3482.00,0.0042
3481.00,0.0042
3480.00,0.0042
3479.00,0.0042
3478.00,0.0042
3477.00,0.0042
3476.00,0.0042
3475.00,0.0042
3474.00,0.0043
3473.00,0.0043
3472.00,0.0044
3471.00,0.0045
3470.00,0.0045
3469.00,0.0045
3468.00,0.0045
3467.00,0.0045
3466.00,0.0045
3465.00,0.0046
3464.00,0.0046
3463.00,0.0047
3462.00,0.0047
3461.00,0.0048
3460.00,0.0048
3459.00,0.0048
3458.00,0.0048
3457.00,0.0048
3456.00,0.0048
3455.00,0.0048
3454.00,0.0048
3453.00,0.0048
3452.00,0.0048
3451.00,0.0048
3450.00,0.0048
3449.00,0.0049
3448.00,0.0049
3447.00,0.0050
3446.00,0.0050
3445.00,0.0050
3444.00,0.0051
3443.00,0.0051
3442.00,0.0051
3441.00,0.0051
3440.00,0.0051
3439.00,0.0052
3438.00,0.0052
3437.00,0.0052
3436.00,0.0053
3435.00,0.0053
3434.00,0.0053
3433.00,0.0053
3432.00,0.0053
3431.00,0.0053
3430.00,0.0053
3429.00,0.0053
3428.00,0.0053
3427.00,0.0053
3426.00,0.0054
3425.00,0.0055
3424.00,0.0055
3423.00,0.0055
3422.00,0.0056
3421.00,0.0056
3420.00,0.0056
3419.00,0.0056
3418.00,0.0056
3417.00,0.0056
3416.00,0.0057
3415.00,0.0057
3414.00,0.0057
3413.00,0.0057
3412.00,0.0057
3411.00,0.0057
3410.00,0.0058
3409.00,0.0058
3408.00,0.0058
3407.00,0.0058
3406.00,0.0058
3405.00,0.0058
3404.00,0.0058
3403.00,0.0058
3402.00,0.0058
3401.00,0.0059
3400.00,0.0059
3399.00,0.0060
3398.00,0.0060
3397.00,0.0059
3396.00,0.0059
3395.00,0.0059
3394.00,0.0059
3393.00,0.0059
3392.00,0.0059
3391.00,0.0059
3390.00,0.0059
3389.00,0.0060
3388.00,0.0060
3387.00,0.0060
3386.00,0.0060
3385.00,0.0060
3384.00,0.0060
3383.00,0.0060
3382.00,0.0059
3381.00,0.0060
3380.00,0.0060
3379.00,0.0060
3378.00,0.0061
3377.00,0.0061
3376.00,0.0060
3375.00,0.0060
3374.00,0.0060
3373.00,0.0060
3372.00,0.0059
3371.00,0.0059
3370.00,0.0059
3369.00,0.0059
3368.00,0.0059
3367.00,0.0059
3366.00,0.0060
3365.00,0.0060
3364.00,0.0060
3363.00,0.0060
3362.00,0.0060
3361.00,0.0060
3360.00,0.0060
3359.00,0.0060
3358.00,0.0060
3357.00,0.0060
3356.00,0.0060
3355.00,0.0060
3354.00,0.0060
3353.00,0.0060
3352.00,0.0060
3351.00,0.0060
3350.00,0.0059
3349.00,0.0059
3348.00,0.0059
3347.00,0.0059
3346.00,0.0059
3345.00,0.0060
3344.00,0.0059
3343.00,0.0059
3342.00,0.0059
3341.00,0.0059
3340.00,0.0059
3339.00,0.0059
3338.00,0.0059
3337.00,0.0059
3336.00,0.0059
3335.00,0.0059
3334.00,0.0059
3333.00,0.0058
3332.00,0.0058
3331.00,0.0058
3330.00,0.0057
3329.00,0.0057
3328.00,0.0057
3327.00,0.0058
3326.00,0.0058
3325.00,0.0058
3324.00,0.0057
3323.00,0.0057
3322.00,0.0057
3321.00,0.0056
3320.00,0.0056
3319.00,0.0056
3318.00,0.0056
3317.00,0.0056
3316.00,0.0056
3315.00,0.0056
3314.00,0.0056
3313.00,0.0056
3312.00,0.0056
3311.00,0.0056
3310.00,0.0056
3309.00,0.0057
3308.00,0.0057
3307.00,0.0057
3306.00,0.0057
3305.00,0.0058
3304.00,0.0058
3303.00,0.0058
3302.00,0.0058
3301.00,0.0058
3300.00,0.0058
3299.00,0.0058
3298.00,0.0057
3297.00,0.0056
3296.00,0.0055
3295.00,0.0055
3294.00,0.0054
3293.00,0.0054
3292.00,0.0054
3291.00,0.0054
3290.00,0.0054
3289.00,0.0054
3288.00,0.0054
3287.00,0.0054
3286.00,0.0053
3285.00,0.0053
3284.00,0.0053
3283.00,0.0053
3282.00,0.0053
3281.00,0.0052
3280.00,0.0052
3279.00,0.0052
3278.00,0.0051
3277.00,0.0051
3276.00,0.0051
3275.00,0.0050
3274.00,0.0050
3273.00,0.0050
3272.00,0.0050
3271.00,0.0050
3270.00,0.0050
3269.00,0.0050
3268.00,0.0050
3267.00,0.0050
3266.00,0.0049
3265.00,0.0049
3264.00,0.0049
3263.00,0.0049
3262.00,0.0048
3261.00,0.0048
3260.00,0.0048
3259.00,0.0048
3258.00,0.0048
3257.00,0.0048
3256.00,0.0047
3255.00,0.0047
3254.00,0.0047
3253.00,0.0046
3252.00,0.0046
3251.00,0.0046
3250.00,0.0046
3249.00,0.0046
3248.00,0.0046
3247.00,0.0046
3246.00,0.0046
3245.00,0.0046
3244.00,0.0046
3243.00,0.0045
3242.00,0.0045
3241.00,0.0045
3240.00,0.0045
3239.00,0.0045
3238.00,0.0045
3237.00,0.0045
3236.00,0.0045
3235.00,0.0045
3234.00,0.0045
3233.00,0.0045
3232.00,0.0045
3231.00,0.0045
3230.00,0.0045
3229.00,0.0045
3228.00,0.0045
3227.00,0.0045
3226.00,0.0045
3225.00,0.0045
3224.00,0.0045
3223.00,0.0046
3222.00,0.0046
3221.00,0.0047
3220.00,0.0047
3219.00,0.0047
3218.00,0.0047
3217.00,0.0047
3216.00,0.0047
3215.00,0.0047
3214.00,0.0047
3213.00,0.0047
3212.00,0.0048
3211.00,0.0048
3210.00,0.0048
3209.00,0.0048
3208.00,0.0048
3207.00,0.0048
3206.00,0.0048
3205.00,0.0048
3204.00,0.0048
3203.00,0.0048
3202.00,0.0048
3201.00,0.0048
3200.00,0.0048
3199.00,0.0048
3198.00,0.0048
3197.00,0.0048
3196.00,0.0048
3195.00,0.0048
3194.00,0.0048
3193.00,0.0049
3192.00,0.0049
3191.00,0.0048
3190.00,0.0048
3189.00,0.0047
3188.00,0.0047
3187.00,0.0047
3186.00,0.0047
3185.00,0.0047
3184.00,0.0047
3183.00,0.0047
3182.00,0.0047
3181.00,0.0046
3180.00,0.0045
3179.00,0.0045
3178.00,0.0045
3177.00,0.0045
3176.00,0.0045
3175.00,0.0045
3174.00,0.0044
3173.00,0.0044
3172.00,0.0044
3171.00,0.0044
3170.00,0.0044
3169.00,0.0043
3168.00,0.0043
3167.00,0.0043
3166.00,0.0043
3165.00,0.0043
3164.00,0.0043
3163.00,0.0043
3162.00,0.0043
3161.00,0.0043
3160.00,0.0043
3159.00,0.0042
3158.00,0.0042
3157.00,0.0042
3156.00,0.0042
3155.00,0.0042
3154.00,0.0042
3153.00,0.0042
3152.00,0.0042
3151.00,0.0042
3150.00,0.0042
3149.00,0.0041
3148.00,0.0041
3147.00,0.0041
3146.00,0.0042
3145.00,0.0041
3144.00,0.0041
3143.00,0.0041
3142.00,0.0040
3141.00,0.0040
3140.00,0.0040
3139.00,0.0041
3138.00,0.0041
3137.00,0.0040
3136.00,0.0040
3135.00,0.0040
3134.00,0.0040
3133.00,0.0039
3132.00,0.0039
3131.00,0.0039
3130.00,0.0039
3129.00,0.0038
3128.00,0.0038
3127.00,0.0038
3126.00,0.0038
3125.00,0.0038
3124.00,0.0037
3123.00,0.0037
3122.00,0.0037
3121.00,0.0037
3120.00,0.0037
3119.00,0.0036
3118.00,0.0036
3117.00,0.0036
3116.00,0.0035
3115.00,0.0035
3114.00,0.0035
3113.00,0.0035
3112.00,0.0034
3111.00,0.0034
3110.00,0.0034
3109.00,0.0033
3108.00,0.0033
3107.00,0.0034
3106.00,0.0034
3105.00,0.0034
3104.00,0.0034
3103.00,0.0034
3102.00,0.0034
3101.00,0.0034
3100.00,0.0033
3099.00,0.0033
3098.00,0.0033
3097.00,0.0033
3096.00,0.0033
3095.00,0.0033
3094.00,0.0033
3093.00,0.0033
3092.00,0.0033
3091.00,0.0033
3090.00,0.0032
3089.00,0.0032
3088.00,0.0032
3087.00,0.0032
3086.00,0.0032
3085.00,0.0032
3084.00,0.0032
3083.00,0.0032
3082.00,0.0032
3081.00,0.0031
3080.00,0.0031
3079.00,0.0032
3078.00,0.0032
3077.00,0.0033
3076.00,0.0033
3075.00,0.0033
3074.00,0.0033
3073.00,0.0033
3072.00,0.0033
3071.00,0.0033
3070.00,0.0033
3069.00,0.0033
3068.00,0.0033
3067.00,0.0033
3066.00,0.0034
3065.00,0.0034
3064.00,0.0034
3063.00,0.0034
3062.00,0.0035
3061.00,0.0035
3060.00,0.0035
3059.00,0.0035
3058.00,0.0035
3057.00,0.0035
3056.00,0.0035
3055.00,0.0035
3054.00,0.0035
3053.00,0.0035
3052.00,0.0035
3051.00,0.0035
3050.00,0.0036
3049.00,0.0036
3048.00,0.0036
3047.00,0.0036
3046.00,0.0036
3045.00,0.0036
3044.00,0.0036
3043.00,0.0037
3042.00,0.0037
3041.00,0.0038
3040.00,0.0038
3039.00,0.0038
3038.00,0.0039
3037.00,0.0039
3036.00,0.0040
3035.00,0.0040
3034.00,0.0041
3033.00,0.0041
3032.00,0.0041
3031.00,0.0041
3030.00,0.0042
3029.00,0.0042
3028.00,0.0042
3027.00,0.0043
3026.00,0.0044
3025.00,0.0044
3024.00,0.0045
3023.00,0.0045
3022.00,0.0046
3021.00,0.0047
3020.00,0.0048
3019.00,0.0049
3018.00,0.0049
3017.00,0.0050
3016.00,0.0051
3015.00,0.0051
3014.00,0.0052
3013.00,0.0053
3012.00,0.0054
3011.00,0.0055
3010.00,0.0057
3009.00,0.0058
3008.00,0.0059
3007.00,0.0060
3006.00,0.0062
3005.00,0.0063
3004.00,0.0065
3003.00,0.0067
3002.00,0.0069
3001.00,0.0070
3000.00,0.0072
2999.00,0.0074
2998.00,0.0077
2997.00,0.0080
2996.00,0.0084
2995.00,0.0088
2994.00,0.0092
2993.00,0.0097
2992.00,0.0101
2991.00,0.0107
2990.00,0.0113
2989.00,0.0119
2988.00,0.0127
2987.00,0.0135
2986.00,0.0144
2985.00,0.0153
2984.00,0.0164
2983.00,0.0176
2982.00,0.0190
2981.00,0.0207
2980.00,0.0226
2979.00,0.0248
2978.00,0.0273
2977.00,0.0301
2976.00,0.0333
2975.00,0.0369
2974.00,0.0410
2973.00,0.0457
2972.00,0.0510
2971.00,0.0570
2970.00,0.0638
2969.00,0.0712
2968.00,0.0793
2967.00,0.0879
2966.00,0.0970
2965.00,0.1062
2964.00,0.1154
2963.00,0.1239
2962.00,0.1315
2961.00,0.1378
2960.00,0.1428
2959.00,0.1469
2958.00,0.1506
2957.00,0.1544
2956.00,0.1588
2955.00,0.1641
2954.00,0.1702
2953.00,0.1765
2952.00,0.1821
2951.00,0.1860
2950.00,0.1869
2949.00,0.1841
2948.00,0.1777
2947.00,0.1680
2946.00,0.1564
2945.00,0.1440
2944.00,0.1323
2943.00,0.1223
2942.00,0.1146
2941.00,0.1094
2940.00,0.1065
2939.00,0.1058
2938.00,0.1071
2937.00,0.1102
2936.00,0.1148
2935.00,0.1209
2934.00,0.1283
2933.00,0.1369
2932.00,0.1466
2931.00,0.1572
2930.00,0.1684
2929.00,0.1799
2928.00,0.1913
2927.00,0.2025
2926.00,0.2132
2925.00,0.2236
2924.00,0.2336
2923.00,0.2434
2922.00,0.2530
2921.00,0.2621
2920.00,0.2700
2919.00,0.2757
2918.00,0.2783
2917.00,0.2772
2916.00,0.2723
2915.00,0.2643
2914.00,0.2543
2913.00,0.2434
2912.00,0.2327
2911.00,0.2229
2910.00,0.2140
2909.00,0.2062
2908.00,0.1990
2907.00,0.1922
2906.00,0.1856
2905.00,0.1789
2904.00,0.1721
2903.00,0.1652
2902.00,0.1585
2901.00,0.1518
2900.00,0.1454
2899.00,0.1392
2898.00,0.1335
2897.00,0.1282
2896.00,0.1235
2895.00,0.1193
2894.00,0.1158
2893.00,0.1128
2892.00,0.1105
2891.00,0.1087
2890.00,0.1074
2889.00,0.1066
2888.00,0.1061
2887.00,0.1060
2886.00,0.1062
2885.00,0.1068
2884.00,0.1078
2883.00,0.1093
2882.00,0.1112
2881.00,0.1135
2880.00,0.1157
2879.00,0.1177
2878.00,0.1189
2877.00,0.1194
2876.00,0.1190
2875.00,0.1183
2874.00,0.1177
2873.00,0.1176
2872.00,0.1182
2871.00,0.1195
2870.00,0.1213
2869.00,0.1230
2868.00,0.1239
2867.00,0.1235
2866.00,0.1210
2865.00,0.1164
2864.00,0.1101
2863.00,0.1029
2862.00,0.0958
2861.00,0.0896
2860.00,0.0849
2859.00,0.0818
2858.00,0.0801
2857.00,0.0797
2856.00,0.0802
2855.00,0.0814
2854.00,0.0832
2853.00,0.0851
2852.00,0.0871
2851.00,0.0888
2850.00,0.0900
2849.00,0.0907
2848.00,0.0913
2847.00,0.0922
2846.00,0.0940
2845.00,0.0968
2844.00,0.1008
2843.00,0.1057
2842.00,0.1109
2841.00,0.1159
2840.00,0.1199
2839.00,0.1221
2838.00,0.1218
2837.00,0.1185
2836.00,0.1122
2835.00,0.1035
2834.00,0.0932
2833.00,0.0825
2832.00,0.0723
2831.00,0.0632
2830.00,0.0554
2829.00,0.0490
2828.00,0.0439
2827.00,0.0397
2826.00,0.0363
2825.00,0.0335
2824.00,0.0311
2823.00,0.0291
2822.00,0.0275
2821.00,0.0260
2820.00,0.0248
2819.00,0.0237
2818.00,0.0227
2817.00,0.0219
2816.00,0.0211
2815.00,0.0204
2814.00,0.0198
2813.00,0.0192
2812.00,0.0186
2811.00,0.0180
2810.00,0.0175
2809.00,0.0169
2808.00,0.0164
2807.00,0.0157
2806.00,0.0151
2805.00,0.0144
2804.00,0.0138
2803.00,0.0132
2802.00,0.0127
2801.00,0.0123
2800.00,0.0119
2799.00,0.0116
2798.00,0.0113
2797.00,0.0110
2796.00,0.0108
2795.00,0.0106
2794.00,0.0103
2793.00,0.0101
2792.00,0.0098
2791.00,0.0094
2790.00,0.0091
2789.00,0.0088
2788.00,0.0085
2787.00,0.0083
2786.00,0.0080
2785.00,0.0077
2784.00,0.0074
2783.00,0.0072
2782.00,0.0069
2781.00,0.0068
2780.00,0.0066
2779.00,0.0065
2778.00,0.0064
2777.00,0.0063
2776.00,0.0062
2775.00,0.0061
2774.00,0.0060
2773.00,0.0059
2772.00,0.0058
2771.00,0.0058
2770.00,0.0057
2769.00,0.0057
2768.00,0.0057
2767.00,0.0057
2766.00,0.0056
2765.00,0.0056
2764.00,0.0055
2763.00,0.0055
2762.00,0.0054
2761.00,0.0054
2760.00,0.0053
2759.00,0.0053
2758.00,0.0052
2757.00,0.0052
2756.00,0.0052
2755.00,0.0052
2754.00,0.0052
2753.00,0.0052
2752.00,0.0052
2751.00,0.0052
2750.00,0.0052
2749.00,0.0052
2748.00,0.0052
2747.00,0.0053
2746.00,0.0053
2745.00,0.0053
2744.00,0.0054
2743.00,0.0055
2742.00,0.0056
2741.00,0.0057
2740.00,0.0058
2739.00,0.0059
2738.00,0.0060
2737.00,0.0061
2736.00,0.0062
2735.00,0.0064
2734.00,0.0065
2733.00,0.0067
2732.00,0.0069
2731.00,0.0071
2730.00,0.0073
2729.00,0.0075
2728.00,0.0077
2727.00,0.0080
2726.00,0.0083
2725.00,0.0085
2724.00,0.0087
2723.00,0.0087
2722.00,0.0087
2721.00,0.0085
2720.00,0.0082
2719.00,0.0079
2718.00,0.0076
2717.00,0.0073
2716.00,0.0070
2715.00,0.0067
2714.00,0.0065
2713.00,0.0062
2712.00,0.0060
2711.00,0.0059
2710.00,0.0057
2709.00,0.0056
2708.00,0.0054
2707.00,0.0053
2706.00,0.0052
2705.00,0.0051
2704.00,0.0050
2703.00,0.0049
2702.00,0.0048
2701.00,0.0047
2700.00,0.0047
2699.00,0.0046
2698.00,0.0046
2697.00,0.0046
2696.00,0.0046
2695.00,0.0046
2694.00,0.0046
2693.00,0.0046
2692.00,0.0046
2691.00,0.0046
2690.00,0.0046
2689.00,0.0046
2688.00,0.0046
2687.00,0.0045
2686.00,0.0045
2685.00,0.0045
2684.00,0.0046
2683.00,0.0046
2682.00,0.0046
2681.00,0.0046
2680.00,0.0046
2679.00,0.0046
2678.00,0.0046
2677.00,0.0046
2676.00,0.0046
2675.00,0.0045
2674.00,0.0045
2673.00,0.0045
2672.00,0.0045
2671.00,0.0045
2670.00,0.0045
2669.00,0.0045
2668.00,0.0046
2667.00,0.0046
2666.00,0.0046
2665.00,0.0046
2664.00,0.0046
2663.00,0.0047
2662.00,0.0047
2661.00,0.0048
2660.00,0.0048
2659.00,0.0048
2658.00,0.0048
2657.00,0.0048
2656.00,0.0047
2655.00,0.0047
2654.00,0.0047
2653.00,0.0046
2652.00,0.0046
2651.00,0.0045
2650.00,0.0045
2649.00,0.0044
2648.00,0.0044
2647.00,0.0044
2646.00,0.0043
2645.00,0.0043
2644.00,0.0042
2643.00,0.0042
2642.00,0.0041
2641.00,0.0040
2640.00,0.0040
2639.00,0.0039
2638.00,0.0039
2637.00,0.0039
2636.00,0.0039
2635.00,0.0040
2634.00,0.0040
2633.00,0.0040
2632.00,0.0040
2631.00,0.0040
2630.00,0.0040
2629.00,0.0040
2628.00,0.0040
2627.00,0.0041
2626.00,0.0041
2625.00,0.0041
2624.00,0.0041
2623.00,0.0041
2622.00,0.0041
2621.00,0.0041
2620.00,0.0041
2619.00,0.0041
2618.00,0.0041
2617.00,0.0041
2616.00,0.0041
2615.00,0.0041
2614.00,0.0040
2613.00,0.0040
2612.00,0.0040
2611.00,0.0039
2610.00,0.0039
2609.00,0.0038
2608.00,0.0036
2607.00,0.0035
2606.00,0.0035
2605.00,0.0034
2604.00,0.0033
2603.00,0.0032
2602.00,0.0032
2601.00,0.0032
2600.00,0.0032
2599.00,0.0032
2598.00,0.0032
2597.00,0.0032
2596.00,0.0032
2595.00,0.0032
2594.00,0.0033
2593.00,0.0033
2592.00,0.0034
2591.00,0.0035
2590.00,0.0035
2589.00,0.0036
2588.00,0.0036
2587.00,0.0037
2586.00,0.0038
2585.00,0.0039
2584.00,0.0039
2583.00,0.0039
2582.00,0.0039
2581.00,0.0039
2580.00,0.0038
2579.00,0.0037
2578.00,0.0036
2577.00,0.0034
2576.00,0.0033
2575.00,0.0032
2574.00,0.0031
2573.00,0.0031
2572.00,0.0031
2571.00,0.0030
2570.00,0.0030
2569.00,0.0028
2568.00,0.0027
2567.00,0.0026
2566.00,0.0025
2565.00,0.0025
2564.00,0.0025
2563.00,0.0025
2562.00,0.0025
2561.00,0.0025
2560.00,0.0024
2559.00,0.0024
2558.00,0.0024
2557.00,0.0023
2556.00,0.0023
2555.00,0.0024
2554.00,0.0024
2553.00,0.0023
2552.00,0.0023
2551.00,0.0022
2550.00,0.0021
2549.00,0.0020
2548.00,0.0019
2547.00,0.0018
2546.00,0.0018
2545.00,0.0018
2544.00,0.0018
2543.00,0.0018
2542.00,0.0018
2541.00,0.0017
2540.00,0.0017
2539.00,0.0016
2538.00,0.0016
2537.00,0.0016
2536.00,0.0015
2535.00,0.0015
2534.00,0.0015
2533.00,0.0015
2532.00,0.0015
2531.00,0.0015
2530.00,0.0015
2529.00,0.0015
2528.00,0.0015
2527.00,0.0015
2526.00,0.0015
2525.00,0.0015
2524.00,0.0015
2523.00,0.0015
2522.00,0.0015
2521.00,0.0015
2520.00,0.0015
2519.00,0.0014
2518.00,0.0014
2517.00,0.0014
2516.00,0.0014
2515.00,0.0013
2514.00,0.0013
2513.00,0.0012
2512.00,0.0012
2511.00,0.0012
2510.00,0.0012
2509.00,0.0012
2508.00,0.0012
2507.00,0.0012
2506.00,0.0012
2505.00,0.0012
2504.00,0.0012
2503.00,0.0011
2502.00,0.0011
2501.00,0.0011
2500.00,0.0011
2499.00,0.0012
2498.00,0.0012
2497.00,0.0012
2496.00,0.0011
2495.00,0.0010
2494.00,0.0010
2493.00,0.0010
2492.00,0.0011
2491.00,0.0011
2490.00,0.0011
2489.00,0.0011
2488.00,0.0010
2487.00,0.0009
2486.00,0.0009
2485.00,0.0009
2484.00,0.0010
2483.00,0.0010
2482.00,0.0010
2481.00,0.0010
2480.00,0.0010
2479.00,0.0010
2478.00,0.0010
2477.00,0.0010
2476.00,0.0010
2475.00,0.0010
2474.00,0.0010
2473.00,0.0010
2472.00,0.0010
2471.00,0.0011
2470.00,0.0011
2469.00,0.0011
2468.00,0.0012
2467.00,0.0012
2466.00,0.0012
2465.00,0.0011
2464.00,0.0011
2463.00,0.0010
2462.00,0.0010
2461.00,0.0010
2460.00,0.0010
2459.00,0.0010
2458.00,0.0011
2457.00,0.0013
2456.00,0.0014
2455.00,0.0014
2454.00,0.0013
2453.00,0.0012
2452.00,0.0012
2451.00,0.0011
2450.00,0.0011
2449.00,0.0011
2448.00,0.0011
2447.00,0.0011
2446.00,0.0011
2445.00,0.0011
2444.00,0.0011
2443.00,0.0010
2442.00,0.0010
2441.00,0.0009
2440.00,0.0009
2439.00,0.0010
2438.00,0.0011
2437.00,0.0012
2436.00,0.0012
2435.00,0.0013
2434.00,0.0013
2433.00,0.0013
2432.00,0.0013
2431.00,0.0013
2430.00,0.0013
2429.00,0.0012
2428.00,0.0012
2427.00,0.0011
2426.00,0.0011
2425.00,0.0011
2424.00,0.0010
2423.00,0.0010
2422.00,0.0010
2421.00,0.0011
2420.00,0.0011
2419.00,0.0011
2418.00,0.0010
2417.00,0.0010
2416.00,0.0010
2415.00,0.0010
2414.00,0.0010
2413.00,0.0010
2412.00,0.0010
2411.00,0.0010
2410.00,0.0009
2409.00,0.0009
2408.00,0.0009
2407.00,0.0010
2406.00,0.0010
2405.00,0.0010
2404.00,0.0010
2403.00,0.0010
2402.00,0.0010
2401.00,0.0009
2400.00,0.0009
2399.00,0.0009
2398.00,0.0009
2397.00,0.0009
2396.00,0.0008
2395.00,0.0008
2394.00,0.0008
2393.00,0.0007
2392.00,0.0007
2391.00,0.0007
2390.00,0.0007
2389.00,0.0007
2388.00,0.0007
2387.00,0.0007
2386.00,0.0006
2385.00,0.0006
2384.00,0.0006
2383.00,0.0006
2382.00,0.0006
2381.00,0.0006
2380.00,0.0006
2379.00,0.0006
2378.00,0.0005
2377.00,0.0005
2376.00,0.0005
2375.00,0.0005
2374.00,0.0005
2373.00,0.0006
2372.00,0.0006
2371.00,0.0006
2370.00,0.0006
2369.00,0.0005
2368.00,0.0004
2367.00,0.0004
2366.00,0.0004
2365.00,0.0005
2364.00,0.0006
2363.00,0.0006
2362.00,0.0006
2361.00,0.0006
2360.00,0.0007
2359.00,0.0007
2358.00,0.0007
2357.00,0.0007
2356.00,0.0007
2355.00,0.0007
2354.00,0.0007
2353.00,0.0007
2352.00,0.0007
2351.00,0.0007
2350.00,0.0007
2349.00,0.0008
2348.00,0.0008
2347.00,0.0008
2346.00,0.0008
2345.00,0.0009
2344.00,0.0009
2343.00,0.0010
2342.00,0.0010
2341.00,0.0010
2340.00,0.0010
2339.00,0.0011
2338.00,0.0011
2337.00,0.0011
2336.00,0.0011
2335.00,0.0010
2334.00,0.0010
2333.00,0.0009
2332.00,0.0009
2331.00,0.0009
2330.00,0.0009
2329.00,0.0010
2328.00,0.0012
2327.00,0.0015
2326.00,0.0019
2325.00,0.0023
2324.00,0.0024
2323.00,0.0023
2322.00,0.0022
2321.00,0.0020
2320.00,0.0018
2319.00,0.0017
2318.00,0.0017
2317.00,0.0016
2316.00,0.0015
2315.00,0.0015
2314.00,0.0014
2313.00,0.0014
2312.00,0.0014
2311.00,0.0013
2310.00,0.0013
2309.00,0.0012
2308.00,0.0012
2307.00,0.0013
2306.00,0.0013
2305.00,0.0013
2304.00,0.0013
2303.00,0.0013
2302.00,0.0013
2301.00,0.0014
2300.00,0.0014
2299.00,0.0015
2298.00,0.0014
2297.00,0.0014
2296.00,0.0014
2295.00,0.0015
2294.00,0.0016
2293.00,0.0017
2292.00,0.0017
2291.00,0.0018
2290.00,0.0019
2289.00,0.0020
2288.00,0.0020
2287.00,0.0021
2286.00,0.0021
2285.00,0.0021
2284.00,0.0020
2283.00,0.0020
2282.00,0.0019
2281.00,0.0018
2280.00,0.0016
2279.00,0.0015
2278.00,0.0014
2277.00,0.0014
2276.00,0.0014
2275.00,0.0013
2274.00,0.0013
2273.00,0.0012
2272.00,0.0012
2271.00,0.0012
2270.00,0.0011
2269.00,0.0012
2268.00,0.0013
2267.00,0.0014
2266.00,0.0014
2265.00,0.0013
2264.00,0.0014
2263.00,0.0015
2262.00,0.0016
2261.00,0.0016
2260.00,0.0016
2259.00,0.0016
2258.00,0.0015
2257.00,0.0014
2256.00,0.0012
2255.00,0.0010
2254.00,0.0009
2253.00,0.0009
2252.00,0.0009
2251.00,0.0009
2250.00,0.0010
2249.00,0.0011
2248.00,0.0011
2247.00,0.0011
2246.00,0.0010
2245.00,0.0009
2244.00,0.0009
2243.00,0.0010
2242.00,0.0010
2241.00,0.0010
2240.00,0.0010
2239.00,0.0009
2238.00,0.0010
2237.00,0.0010
2236.00,0.0011
2235.00,0.0011
2234.00,0.0010
2233.00,0.0010
2232.00,0.0009
2231.00,0.0008
2230.00,0.0007
2229.00,0.0008
2228.00,0.0009
2227.00,0.0010
2226.00,0.0011
2225.00,0.0012
2224.00,0.0013
2223.00,0.0013
2222.00,0.0011
2221.00,0.0008
2220.00,0.0007
2219.00,0.0007
2218.00,0.0008
2217.00,0.0009
2216.00,0.0009
2215.00,0.0008
2214.00,0.0007
2213.00,0.0007
2212.00,0.0006
2211.00,0.0005
2210.00,0.0004
2209.00,0.0005
2208.00,0.0007
2207.00,0.0008
2206.00,0.0010
2205.00,0.0011
2204.00,0.0011
2203.00,0.0010
2202.00,0.0009
2201.00,0.0008
2200.00,0.0010
2199.00,0.0011
2198.00,0.0011
2197.00,0.0010
2196.00,0.0008
2195.00,0.0007
2194.00,0.0008
2193.00,0.0010
2192.00,0.0013
2191.00,0.0015
2190.00,0.0017
2189.00,0.0019
2188.00,0.0021
2187.00,0.0021
2186.00,0.0019
2185.00,0.0016
2184.00,0.0012
2183.00,0.0007
2182.00,0.0004
2181.00,0.0002
2180.00,0.0003
2179.00,0.0004
2178.00,0.0004
2177.00,0.0002
2176.00,0.0000
2175.00,-0.0003
2174.00,-0.0004
2173.00,-0.0004
2172.00,-0.0001
2171.00,0.0005
2170.00,0.0011
2169.00,0.0017
2168.00,0.0020
2167.00,0.0022
2166.00,0.0021
2165.00,0.0020
2164.00,0.0019
2163.00,0.0019
2162.00,0.0017
2161.00,0.0013
2160.00,0.0002
2159.00,-0.0011
2158.00,-0.0021
2157.00,-0.0025
2156.00,-0.0025
2155.00,-0.0024
2154.00,-0.0022
2153.00,-0.0020
2152.00,-0.0016
2151.00,-0.0014
2150.00,-0.0013
2149.00,-0.0014
2148.00,-0.0014
2147.00,-0.0014
2146.00,-0.0013
2145.00,-0.0012
2144.00,-0.0012
2143.00,-0.0012
2142.00,-0.0013
2141.00,-0.0013
2140.00,-0.0012
2139.00,-0.0010
2138.00,-0.0009
2137.00,-0.0008
2136.00,-0.0009
2135.00,-0.0011
2134.00,-0.0014
2133.00,-0.0016
2132.00,-0.0016
2131.00,-0.0015
2130.00,-0.0014
2129.00,-0.0011
2128.00,-0.0009
2127.00,-0.0008
2126.00,-0.0006
2125.00,-0.0006
2124.00,-0.0007
2123.00,-0.0007
2122.00,-0.0007
2121.00,-0.0005
2120.00,-0.0004
2119.00,-0.0002
2118.00,-0.0001
2117.00,-0.0000
2116.00,0.0001
2115.00,0.0002
2114.00,0.0003
2113.00,0.0003
2112.00,0.0003
2111.00,0.0004
2110.00,0.0004
2109.00,0.0004
2108.00,0.0004
2107.00,0.0005
2106.00,0.0005
2105.00,0.0006
2104.00,0.0006
2103.00,0.0006
2102.00,0.0006
2101.00,0.0005
2100.00,0.0004
2099.00,0.0003
2098.00,0.0003
2097.00,0.0002
2096.00,0.0001
2095.00,0.0000
2094.00,0.0000
2093.00,0.0001
2092.00,0.0001
2091.00,0.0001
2090.00,0.0001
2089.00,0.0001
2088.00,0.0001
2087.00,0.0001
2086.00,0.0002
2085.00,0.0002
2084.00,0.0001
2083.00,0.0002
2082.00,0.0002
2081.00,0.0004
2080.00,0.0006
2079.00,0.0007
2078.00,0.0007
2077.00,0.0006
2076.00,0.0005
2075.00,0.0004
2074.00,0.0003
2073.00,0.0002
2072.00,0.0002
2071.00,0.0003
2070.00,0.0003
2069.00,0.0004
2068.00,0.0004
2067.00,0.0003
2066.00,0.0002
2065.00,0.0001
2064.00,0.0001
2063.00,-0.0000
2062.00,-0.0001
2061.00,-0.0002
2060.00,-0.0002
2059.00,-0.0002
2058.00,-0.0001
2057.00,0.0001
2056.00,0.0002
2055.00,0.0003
2054.00,0.0004
2053.00,0.0008
2052.00,0.0013
2051.00,0.0015
2050.00,0.0014
2049.00,0.0010
2048.00,0.0006
2047.00,0.0003
2046.00,-0.0000
2045.00,-0.0002
2044.00,-0.0001
2043.00,0.0000
2042.00,0.0003
2041.00,0.0007
2040.00,0.0010
2039.00,0.0011
2038.00,0.0009
2037.00,0.0006
2036.00,0.0003
2035.00,0.0000
2034.00,-0.0001
2033.00,-0.0002
2032.00,-0.0004
2031.00,-0.0007
2030.00,-0.0010
2029.00,-0.0012
2028.00,-0.0013
2027.00,-0.0013
2026.00,-0.0011
2025.00,-0.0007
2024.00,-0.0003
2023.00,-0.0000
2022.00,0.0001
2021.00,0.0000
2020.00,-0.0000
2019.00,-0.0001
2018.00,-0.0002
2017.00,-0.0002
2016.00,-0.0002
2015.00,-0.0003
2014.00,-0.0004
2013.00,-0.0004
2012.00,-0.0004
2011.00,-0.0003
2010.00,-0.0003
2009.00,-0.0004
2008.00,-0.0008
2007.00,-0.0012
2006.00,-0.0015
2005.00,-0.0017
2004.00,-0.0016
2003.00,-0.0014
2002.00,-0.0011
2001.00,-0.0009
2000.00,-0.0007
1999.00,-0.0008
1998.00,-0.0009
1997.00,-0.0011
1996.00,-0.0012
1995.00,-0.0013
1994.00,-0.0014
1993.00,-0.0014
1992.00,-0.0011
1991.00,-0.0006
1990.00,-0.0002
1989.00,0.0001
1988.00,0.0003
1987.00,0.0004
1986.00,0.0005
1985.00,0.0005
1984.00,0.0005
1983.00,0.0005
1982.00,0.0008
1981.00,0.0012
1980.00,0.0015
1979.00,0.0014
1978.00,0.0008
1977.00,-0.0002
1976.00,-0.0011
1975.00,-0.0017
1974.00,-0.0020
1973.00,-0.0019
1972.00,-0.0017
1971.00,-0.0016
1970.00,-0.0016
1969.00,-0.0017
1968.00,-0.0016
1967.00,-0.0014
1966.00,-0.0012
1965.00,-0.0009
1964.00,-0.0007
1963.00,-0.0008
1962.00,-0.0010
1961.00,-0.0014
1960.00,-0.0017
1959.00,-0.0019
1958.00,-0.0020
1957.00,-0.0021
1956.00,-0.0021
1955.00,-0.0020
1954.00,-0.0018
1953.00,-0.0015
1952.00,-0.0013
1951.00,-0.0012
1950.00,-0.0012
1949.00,-0.0013
1948.00,-0.0014
1947.00,-0.0013
1946.00,-0.0012
1945.00,-0.0011
1944.00,-0.0009
1943.00,-0.0010
1942.00,-0.0010
1941.00,-0.0010
1940.00,-0.0009
1939.00,-0.0009
1938.00,-0.0009
1937.00,-0.0010
1936.00,-0.0011
1935.00,-0.0010
1934.00,-0.0010
1933.00,-0.0008
1932.00,-0.0006
1931.00,-0.0005
1930.00,-0.0004
1929.00,-0.0004
1928.00,-0.0004
1927.00,-0.0004
1926.00,-0.0005
1925.00,-0.0006
1924.00,-0.0007
1923.00,-0.0007
1922.00,-0.0007
1921.00,-0.0005
1920.00,-0.0004
1919.00,-0.0003
1918.00,-0.0004
1917.00,-0.0004
1916.00,-0.0004
1915.00,-0.0004
1914.00,-0.0003
1913.00,-0.0002
1912.00,-0.0002
1911.00,-0.0002
1910.00,-0.0001
1909.00,-0.0001
1908.00,-0.0001
1907.00,-0.0002
1906.00,-0.0002
1905.00,-0.0002
1904.00,-0.0001
1903.00,-0.0001
1902.00,-0.0002
1901.00,-0.0002
1900.00,-0.0002
1899.00,-0.0002
1898.00,-0.0001
1897.00,-0.0001
1896.00,-0.0000
1895.00,0.0000
1894.00,0.0001
1893.00,0.0001
1892.00,0.0001
1891.00,0.0000
1890.00,-0.0000
1889.00,-0.0000
1888.00,-0.0000
1887.00,-0.0001
1886.00,-0.0001
1885.00,-0.0001
1884.00,-0.0000
1883.00,0.0000
1882.00,0.0001
1881.00,0.0001
1880.00,0.0001
1879.00,0.0001
1878.00,-0.0000
1877.00,-0.0001
1876.00,-0.0002
1875.00,-0.0001
1874.00,-0.0000
1873.00,0.0001
1872.00,0.0001
1871.00,0.0001
1870.00,0.0002
1869.00,0.0002
1868.00,0.0001
1867.00,0.0001
1866.00,0.0000
1865.00,-0.0000
1864.00,-0.0000
1863.00,-0.0000
1862.00,-0.0000
1861.00,0.0000
1860.00,0.0000
1859.00,-0.0000
1858.00,-0.0001
1857.00,-0.0001
1856.00,-0.0000
1855.00,0.0001
1854.00,0.0001
1853.00,0.0001
1852.00,0.0002
1851.00,0.0002
1850.00,0.0002
1849.00,0.0002
1848.00,0.0002
1847.00,0.0002
1846.00,0.0002
1845.00,0.0002
1844.00,0.0002
1843.00,0.0003
1842.00,0.0003
1841.00,0.0003
1840.00,0.0003
1839.00,0.0002
1838.00,0.0002
1837.00,0.0003
1836.00,0.0003
1835.00,0.0004
1834.00,0.0004
1833.00,0.0003
1832.00,0.0003
1831.00,0.0002
1830.00,0.0002
1829.00,0.0002
1828.00,0.0002
1827.00,0.0001
1826.00,0.0001
1825.00,0.0001
1824.00,0.0002
1823.00,0.0003
1822.00,0.0003
1821.00,0.0003
1820.00,0.0003
1819.00,0.0002
1818.00,0.0002
1817.00,0.0002
1816.00,0.0002
1815.00,0.0002
1814.00,0.0003
1813.00,0.0003
1812.00,0.0003
1811.00,0.0003
1810.00,0.0004
1809.00,0.0005
1808.00,0.0005
1807.00,0.0005
1806.00,0.0005
1805.00,0.0005
1804.00,0.0005
1803.00,0.0005
1802.00,0.0005
1801.00,0.0005
1800.00,0.0005
1799.00,0.0005
1798.00,0.0005
1797.00,0.0005
1796.00,0.0006
1795.00,0.0006
1794.00,0.0007
1793.00,0.0008
1792.00,0.0008
1791.00,0.0009
1790.00,0.0009
1789.00,0.0009
1788.00,0.0009
1787.00,0.0009
1786.00,0.0009
1785.00,0.0009
1784.00,0.0008
1783.00,0.0008
1782.00,0.0008
1781.00,0.0008
1780.00,0.0008
1779.00,0.0009
1778.00,0.0009
1777.00,0.0009
1776.00,0.0008
1775.00,0.0008
1774.00,0.0008
1773.00,0.0008
1772.00,0.0008
1771.00,0.0008
1770.00,0.0008
1769.00,0.0009
1768.00,0.0009
1767.00,0.0009
1766.00,0.0010
1765.00,0.0010
1764.00,0.0010
1763.00,0.0010
1762.00,0.0011
1761.00,0.0011
1760.00,0.0012
1759.00,0.0012
1758.00,0.0012
1757.00,0.0013
1756.00,0.0014
1755.00,0.0014
1754.00,0.0014
1753.00,0.0015
1752.00,0.0015
1751.00,0.0015
1750.00,0.0015
1749.00,0.0015
1748.00,0.0016
1747.00,0.0016
1746.00,0.0015
1745.00,0.0016
1744.00,0.0016
1743.00,0.0016
1742.00,0.0016
1741.00,0.0017
1740.00,0.0017
1739.00,0.0017
1738.00,0.0017
1737.00,0.0018
1736.00,0.0019
1735.00,0.0019
1734.00,0.0019
1733.00,0.0019
1732.00,0.0019
1731.00,0.0019
1730.00,0.0019
1729.00,0.0019
1728.00,0.0020
1727.00,0.0021
1726.00,0.0021
1725.00,0.0022
1724.00,0.0022
1723.00,0.0022
1722.00,0.0022
1721.00,0.0022
1720.00,0.0022
1719.00,0.0022
1718.00,0.0022
1717.00,0.0023
1716.00,0.0022
1715.00,0.0022
1714.00,0.0022
1713.00,0.0023
1712.00,0.0023
1711.00,0.0024
1710.00,0.0024
1709.00,0.0024
1708.00,0.0025
1707.00,0.0024
1706.00,0.0024
1705.00,0.0023
1704.00,0.0024
1703.00,0.0024
1702.00,0.0025
1701.00,0.0026
1700.00,0.0027
1699.00,0.0027
1698.00,0.0027
1697.00,0.0027
1696.00,0.0027
1695.00,0.0028
1694.00,0.0029
1693.00,0.0031
1692.00,0.0032
1691.00,0.0033
1690.00,0.0034
1689.00,0.0035
1688.00,0.0035
1687.00,0.0035
1686.00,0.0035
1685.00,0.0035
1684.00,0.0035
1683.00,0.0035
1682.00,0.0037
1681.00,0.0038
1680.00,0.0040
1679.00,0.0042
1678.00,0.0042
1677.00,0.0043
1676.00,0.0044
1675.00,0.0045
1674.00,0.0046
1673.00,0.0047
1672.00,0.0048
1671.00,0.0049
1670.00,0.0049
1669.00,0.0049
1668.00,0.0049
1667.00,0.0049
1666.00,0.0050
1665.00,0.0050
1664.00,0.0050
1663.00,0.0050
1662.00,0.0051
1661.00,0.0051
1660.00,0.0052
1659.00,0.0053
1658.00,0.0053
1657.00,0.0054
1656.00,0.0054
1655.00,0.0054
1654.00,0.0055
1653.00,0.0056
1652.00,0.0057
1651.00,0.0057
1650.00,0.0059
1649.00,0.0060
1648.00,0.0061
1647.00,0.0063
1646.00,0.0064
1645.00,0.0064
1644.00,0.0065
1643.00,0.0065
1642.00,0.0066
1641.00,0.0066
1640.00,0.0067
1639.00,0.0068
1638.00,0.0069
1637.00,0.0069
1636.00,0.0069
1635.00,0.0068
1634.00,0.0067
1633.00,0.0066
1632.00,0.0066
1631.00,0.0065
1630.00,0.0065
1629.00,0.0064
1628.00,0.0064
1627.00,0.0064
1626.00,0.0063
1625.00,0.0063
1624.00,0.0063
1623.00,0.0062
1622.00,0.0061
1621.00,0.0061
1620.00,0.0061
1619.00,0.0061
1618.00,0.0061
1617.00,0.0060
1616.00,0.0060
1615.00,0.0059
1614.00,0.0059
1613.00,0.0059
1612.00,0.0059
1611.00,0.0059
1610.00,0.0059
1609.00,0.0059
1608.00,0.0059
1607.00,0.0060
1606.00,0.0059
1605.00,0.0059
1604.00,0.0059
1603.00,0.0059
1602.00,0.0059
1601.00,0.0058
1600.00,0.0058
1599.00,0.0058
1598.00,0.0058
1597.00,0.0057
1596.00,0.0057
1595.00,0.0056
1594.00,0.0056
1593.00,0.0056
1592.00,0.0055
1591.00,0.0055
1590.00,0.0055
1589.00,0.0055
1588.00,0.0056
1587.00,0.0056
1586.00,0.0056
1585.00,0.0056
1584.00,0.0056
1583.00,0.0056
1582.00,0.0056
1581.00,0.0057
1580.00,0.0057
1579.00,0.0058
1578.00,0.0058
1577.00,0.0059
1576.00,0.0059
1575.00,0.0059
1574.00,0.0059
1573.00,0.0059
1572.00,0.0060
1571.00,0.0061
1570.00,0.0061
1569.00,0.0062
1568.00,0.0062
1567.00,0.0063
1566.00,0.0063
1565.00,0.0063
1564.00,0.0063
1563.00,0.0063
1562.00,0.0064
1561.00,0.0064
1560.00,0.0064
1559.00,0.0065
1558.00,0.0065
1557.00,0.0066
1556.00,0.0067
1555.00,0.0068
1554.00,0.0069
1553.00,0.0069
1552.00,0.0069
1551.00,0.0070
1550.00,0.0070
1549.00,0.0071
1548.00,0.0072
1547.00,0.0072
1546.00,0.0072
1545.00,0.0072
1544.00,0.0073
1543.00,0.0073
1542.00,0.0072
1541.00,0.0071
1540.00,0.0069
1539.00,0.0066
1538.00,0.0064
1537.00,0.0063
1536.00,0.0063
1535.00,0.0062
1534.00,0.0061
1533.00,0.0059
1532.00,0.0058
1531.00,0.0058
1530.00,0.0057
1529.00,0.0056
1528.00,0.0056
1527.00,0.0055
1526.00,0.0055
1525.00,0.0055
1524.00,0.0056
1523.00,0.0056
1522.00,0.0056
1521.00,0.0056
1520.00,0.0056
1519.00,0.0056
1518.00,0.0056
1517.00,0.0056
1516.00,0.0057
1515.00,0.0058
1514.00,0.0059
1513.00,0.0060
1512.00,0.0061
1511.00,0.0061
1510.00,0.0061
1509.00,0.0062
1508.00,0.0063
1507.00,0.0063
1506.00,0.0062
1505.00,0.0064
1504.00,0.0067
1503.00,0.0069
1502.00,0.0072
1501.00,0.0074
1500.00,0.0077
1499.00,0.0078
1498.00,0.0081
1497.00,0.0085
1496.00,0.0088
1495.00,0.0091
1494.00,0.0093
1493.00,0.0096
1492.00,0.0100
1491.00,0.0104
1490.00,0.0108
1489.00,0.0114
1488.00,0.0119
1487.00,0.0123
1486.00,0.0128
1485.00,0.0134
1484.00,0.0141
1483.00,0.0148
1482.00,0.0156
1481.00,0.0167
1480.00,0.0178
1479.00,0.0190
1478.00,0.0205
1477.00,0.0225
1476.00,0.0251
1475.00,0.0281
1474.00,0.0322
1473.00,0.0379
1472.00,0.0446
1471.00,0.0511
1470.00,0.0574
1469.00,0.0641
1468.00,0.0712
1467.00,0.0790
1466.00,0.0877
1465.00,0.0972
1464.00,0.1054
1463.00,0.1111
1462.00,0.1146
1461.00,0.1168
1460.00,0.1183
1459.00,0.1191
1458.00,0.1198
1457.00,0.1202
1456.00,0.1198
1455.00,0.1187
1454.00,0.1174
1453.00,0.1156
1452.00,0.1130
1451.00,0.1091
1450.00,0.1038
1449.00,0.0967
1448.00,0.0878
1447.00,0.0785
1446.00,0.0701
1445.00,0.0630
1444.00,0.0569
1443.00,0.0518
1442.00,0.0479
1441.00,0.0453
1440.00,0.0438
1439.00,0.0432
1438.00,0.0432
1437.00,0.0432
1436.00,0.0422
1435.00,0.0397
1434.00,0.0363
1433.00,0.0322
1432.00,0.0279
1431.00,0.0240
1430.00,0.0209
1429.00,0.0186
1428.00,0.0170
1427.00,0.0160
1426.00,0.0153
1425.00,0.0147
1424.00,0.0142
1423.00,0.0138
1422.00,0.0136
1421.00,0.0134
1420.00,0.0130
1419.00,0.0127
1418.00,0.0125
1417.00,0.0122
1416.00,0.0120
1415.00,0.0119
1414.00,0.0119
1413.00,0.0117
1412.00,0.0115
1411.00,0.0113
1410.00,0.0113
1409.00,0.0112
1408.00,0.0111
1407.00,0.0111
1406.00,0.0111
1405.00,0.0111
1404.00,0.0111
1403.00,0.0111
1402.00,0.0112
1401.00,0.0113
1400.00,0.0114
1399.00,0.0115
1398.00,0.0117
1397.00,0.0119
1396.00,0.0120
1395.00,0.0124
1394.00,0.0129
1393.00,0.0134
1392.00,0.0139
1391.00,0.0147
1390.00,0.0157
1389.00,0.0171
1388.00,0.0191
1387.00,0.0222
1386.00,0.0265
1385.00,0.0321
1384.00,0.0399
1383.00,0.0509
1382.00,0.0659
1381.00,0.0853
1380.00,0.1093
1379.00,0.1362
1378.00,0.1619
1377.00,0.1801
1376.00,0.1854
1375.00,0.1750
1374.00,0.1521
1373.00,0.1251
1372.00,0.1007
1371.00,0.0808
1370.00,0.0650
1369.00,0.0531
1368.00,0.0450
1367.00,0.0399
1366.00,0.0372
1365.00,0.0360
1364.00,0.0362
1363.00,0.0374
1362.00,0.0394
1361.00,0.0415
1360.00,0.0432
1359.00,0.0438
1358.00,0.0428
1357.00,0.0404
1356.00,0.0370
1355.00,0.0331
1354.00,0.0294
1353.00,0.0262
1352.00,0.0236
1351.00,0.0214
1350.00,0.0197
1349.00,0.0182
1348.00,0.0171
1347.00,0.0161
1346.00,0.0152
1345.00,0.0145
1344.00,0.0139
1343.00,0.0133
1342.00,0.0129
1341.00,0.0125
1340.00,0.0122
1339.00,0.0120
1338.00,0.0119
1337.00,0.0119
1336.00,0.0120
1335.00,0.0122
1334.00,0.0125
1333.00,0.0129
1332.00,0.0133
1331.00,0.0136
1330.00,0.0137
1329.00,0.0136
1328.00,0.0133
1327.00,0.0128
1326.00,0.0123
1325.00,0.0117
1324.00,0.0111
1323.00,0.0106
1322.00,0.0102
1321.00,0.0099
1320.00,0.0097
1319.00,0.0095
1318.00,0.0094
1317.00,0.0092
1316.00,0.0091
1315.00,0.0091
1314.00,0.0090
1313.00,0.0091
1312.00,0.0091
1311.00,0.0093
1310.00,0.0097
1309.00,0.0103
1308.00,0.0112
1307.00,0.0123
1306.00,0.0133
1305.00,0.0140
1304.00,0.0142
1303.00,0.0140
1302.00,0.0136
1301.00,0.0132
1300.00,0.0130
1299.00,0.0129
1298.00,0.0129
1297.00,0.0129
1296.00,0.0129
1295.00,0.0127
1294.00,0.0124
1293.00,0.0119
1292.00,0.0114
1291.00,0.0109
1290.00,0.0104
1289.00,0.0100
1288.00,0.0097
1287.00,0.0094
1286.00,0.0092
1285.00,0.0091
1284.00,0.0089
1283.00,0.0088
1282.00,0.0086
1281.00,0.0085
1280.00,0.0084
1279.00,0.0083
1278.00,0.0082
1277.00,0.0082
1276.00,0.0082
1275.00,0.0082
1274.00,0.0082
1273.00,0.0083
1272.00,0.0083
1271.00,0.0084
1270.00,0.0085
1269.00,0.0087
1268.00,0.0090
1267.00,0.0093
1266.00,0.0096
1265.00,0.0100
1264.00,0.0104
1263.00,0.0108
1262.00,0.0112
1261.00,0.0116
1260.00,0.0121
1259.00,0.0126
1258.00,0.0131
1257.00,0.0135
1256.00,0.0136
1255.00,0.0133
1254.00,0.0126
1253.00,0.0118
1252.00,0.0110
1251.00,0.0102
1250.00,0.0097
1249.00,0.0093
1248.00,0.0089
1247.00,0.0087
1246.00,0.0085
1245.00,0.0083
1244.00,0.0081
1243.00,0.0080
1242.00,0.0079
1241.00,0.0079
1240.00,0.0079
1239.00,0.0078
1238.00,0.0077
1237.00,0.0076
1236.00,0.0076
1235.00,0.0075
1234.00,0.0075
1233.00,0.0075
1232.00,0.0075
1231.00,0.0076
1230.00,0.0077
1229.00,0.0079
1228.00,0.0081
1227.00,0.0083
1226.00,0.0085
1225.00,0.0088
1224.00,0.0091
1223.00,0.0094
1222.00,0.0097
1221.00,0.0099
1220.00,0.0100
1219.00,0.0100
1218.00,0.0099
1217.00,0.0098
1216.00,0.0095
1215.00,0.0093
1214.00,0.0091
1213.00,0.0088
1212.00,0.0085
1211.00,0.0083
1210.00,0.0082
1209.00,0.0080
1208.00,0.0079
1207.00,0.0077
1206.00,0.0076
1205.00,0.0075
1204.00,0.0075
1203.00,0.0075
1202.00,0.0074
1201.00,0.0074
1200.00,0.0074
1199.00,0.0074
1198.00,0.0074
1197.00,0.0074
1196.00,0.0074
1195.00,0.0074
1194.00,0.0074
1193.00,0.0074
1192.00,0.0074
1191.00,0.0074
1190.00,0.0074
1189.00,0.0074
1188.00,0.0074
1187.00,0.0073
1186.00,0.0074
1185.00,0.0074
1184.00,0.0076
1183.00,0.0078
1182.00,0.0079
1181.00,0.0081
1180.00,0.0084
1179.00,0.0088
1178.00,0.0094
1177.00,0.0102
1176.00,0.0113
1175.00,0.0127
1174.00,0.0146
1173.00,0.0169
1172.00,0.0197
1171.00,0.0227
1170.00,0.0256
1169.00,0.0280
1168.00,0.0294
1167.00,0.0297
1166.00,0.0291
1165.00,0.0277
1164.00,0.0261
1163.00,0.0245
1162.00,0.0231
1161.00,0.0220
1160.00,0.0212
1159.00,0.0206
1158.00,0.0202
1157.00,0.0199
1156.00,0.0198
1155.00,0.0197
1154.00,0.0196
1153.00,0.0193
1152.00,0.0189
1151.00,0.0183
1150.00,0.0176
1149.00,0.0168
1148.00,0.0160
1147.00,0.0151
1146.00,0.0144
1145.00,0.0136
1144.00,0.0129
1143.00,0.0122
1142.00,0.0115
1141.00,0.0109
1140.00,0.0104
1139.00,0.0100
1138.00,0.0097
1137.00,0.0094
1136.00,0.0092
1135.00,0.0090
1134.00,0.0089
1133.00,0.0088
1132.00,0.0088
1131.00,0.0087
1130.00,0.0087
1129.00,0.0087
1128.00,0.0086
1127.00,0.0087
1126.00,0.0087
1125.00,0.0089
1124.00,0.0091
1123.00,0.0092
1122.00,0.0093
1121.00,0.0093
1120.00,0.0093
1119.00,0.0094
1118.00,0.0096
1117.00,0.0098
1116.00,0.0099
1115.00,0.0101
1114.00,0.0102
1113.00,0.0104
1112.00,0.0107
1111.00,0.0110
1110.00,0.0114
1109.00,0.0118
1108.00,0.0123
1107.00,0.0129
1106.00,0.0135
1105.00,0.0141
1104.00,0.0146
1103.00,0.0149
1102.00,0.0148
1101.00,0.0145
1100.00,0.0139
1099.00,0.0132
1098.00,0.0126
1097.00,0.0120
1096.00,0.0116
1095.00,0.0112
1094.00,0.0109
1093.00,0.0107
1092.00,0.0106
1091.00,0.0104
1090.00,0.0102
1089.00,0.0100
1088.00,0.0098
1087.00,0.0097
1086.00,0.0096
1085.00,0.0096
1084.00,0.0096
1083.00,0.0096
1082.00,0.0096
1081.00,0.0094
1080.00,0.0093
1079.00,0.0091
1078.00,0.0089
1077.00,0.0087
1076.00,0.0086
1075.00,0.0086
1074.00,0.0085
1073.00,0.0085
1072.00,0.0084
1071.00,0.0084
1070.00,0.0084
1069.00,0.0085
1068.00,0.0085
1067.00,0.0084
1066.00,0.0084
1065.00,0.0084
1064.00,0.0084
1063.00,0.0084
1062.00,0.0084
1061.00,0.0084
1060.00,0.0085
1059.00,0.0086
1058.00,0.0086
1057.00,0.0086
1056.00,0.0085
1055.00,0.0085
1054.00,0.0086
1053.00,0.0088
1052.00,0.0090
1051.00,0.0093
1050.00,0.0095
1049.00,0.0098
1048.00,0.0100
1047.00,0.0103
1046.00,0.0106
1045.00,0.0107
1044.00,0.0107
1043.00,0.0105
1042.00,0.0103
1041.00,0.0101
1040.00,0.0100
1039.00,0.0099
1038.00,0.0099
1037.00,0.0099
1036.00,0.0099
1035.00,0.0099
1034.00,0.0099
1033.00,0.0098
1032.00,0.0097
1031.00,0.0096
1030.00,0.0094
1029.00,0.0093
1028.00,0.0091
1027.00,0.0091
1026.00,0.0091
1025.00,0.0091
1024.00,0.0092
1023.00,0.0092
1022.00,0.0093
1021.00,0.0093
1020.00,0.0093
1019.00,0.0094
1018.00,0.0095
1017.00,0.0096
1016.00,0.0096
1015.00,0.0097
1014.00,0.0098
1013.00,0.0100
1012.00,0.0102
1011.00,0.0104
1010.00,0.0107
1009.00,0.0111
1008.00,0.0114
1007.00,0.0119
1006.00,0.0126
1005.00,0.0137
1004.00,0.0154
1003.00,0.0176
1002.00,0.0206
1001.00,0.0242
1000.00,0.0280
999.00,0.0310
998.00,0.0326
997.00,0.0320
996.00,0.0294
995.00,0.0258
994.00,0.0219
993.00,0.0186
992.00,0.0161
991.00,0.0142
990.00,0.0129
989.00,0.0119
988.00,0.0113
987.00,0.0109
986.00,0.0109
985.00,0.0112
984.00,0.0115
983.00,0.0122
982.00,0.0132
981.00,0.0147
980.00,0.0168
979.00,0.0196
978.00,0.0232
977.00,0.0272
976.00,0.0316
975.00,0.0356
974.00,0.0385
973.00,0.0394
972.00,0.0379
971.00,0.0343
970.00,0.0295
969.00,0.0246
968.00,0.0204
967.00,0.0173
966.00,0.0150
965.00,0.0133
964.00,0.0121
963.00,0.0112
962.00,0.0106
961.00,0.0100
960.00,0.0096
959.00,0.0093
958.00,0.0090
957.00,0.0087
956.00,0.0085
955.00,0.0082
954.00,0.0079
953.00,0.0076
952.00,0.0074
951.00,0.0073
950.00,0.0073
949.00,0.0074
948.00,0.0076
947.00,0.0076
946.00,0.0078
945.00,0.0080
944.00,0.0083
943.00,0.0088
942.00,0.0092
941.00,0.0094
940.00,0.0094
939.00,0.0092
938.00,0.0088
937.00,0.0083
936.00,0.0078
935.00,0.0074
934.00,0.0071
933.00,0.0069
932.00,0.0068
931.00,0.0068
930.00,0.0067
929.00,0.0067
928.00,0.0066
927.00,0.0066
926.00,0.0066
925.00,0.0066
924.00,0.0066
923.00,0.0065
922.00,0.0065
921.00,0.0065
920.00,0.0065
919.00,0.0066
918.00,0.0066
917.00,0.0066
916.00,0.0066
915.00,0.0067
914.00,0.0068
913.00,0.0069
912.00,0.0071
911.00,0.0073
910.00,0.0075
909.00,0.0078
908.00,0.0081
907.00,0.0086
906.00,0.0094
905.00,0.0105
904.00,0.0119
903.00,0.0135
902.00,0.0154
901.00,0.0170
900.00,0.0181
899.00,0.0183
898.00,0.0174
897.00,0.0158
896.00,0.0139
895.00,0.0121
894.00,0.0107
893.00,0.0097
892.00,0.0090
891.00,0.0086
890.00,0.0083
889.00,0.0080
888.00,0.0078
887.00,0.0077
886.00,0.0076
885.00,0.0076
884.00,0.0076
883.00,0.0076
882.00,0.0076
881.00,0.0076
880.00,0.0076
879.00,0.0076
878.00,0.0076
877.00,0.0076
876.00,0.0077
875.00,0.0078
874.00,0.0080
873.00,0.0080
872.00,0.0081
871.00,0.0081
870.00,0.0080
869.00,0.0080
868.00,0.0080
867.00,0.0080
866.00,0.0082
865.00,0.0082
864.00,0.0083
863.00,0.0084
862.00,0.0085
861.00,0.0087
860.00,0.0089
859.00,0.0091
858.00,0.0093
857.00,0.0093
856.00,0.0092
855.00,0.0092
854.00,0.0093
853.00,0.0095
852.00,0.0098
851.00,0.0103
850.00,0.0108
849.00,0.0114
848.00,0.0122
847.00,0.0134
846.00,0.0153
845.00,0.0184
844.00,0.0228
843.00,0.0277
842.00,0.0317
841.00,0.0330
840.00,0.0308
839.00,0.0263
838.00,0.0213
837.00,0.0173
836.00,0.0148
835.00,0.0133
834.00,0.0124
833.00,0.0119
832.00,0.0115
831.00,0.0113
830.00,0.0112
829.00,0.0110
828.00,0.0108
827.00,0.0106
826.00,0.0105
825.00,0.0105
824.00,0.0105
823.00,0.0106
822.00,0.0107
821.00,0.0108
820.00,0.0111
819.00,0.0114
818.00,0.0119
817.00,0.0125
816.00,0.0132
815.00,0.0143
814.00,0.0158
813.00,0.0177
812.00,0.0199
811.00,0.0218
810.00,0.0232
809.00,0.0237
808.00,0.0232
807.00,0.0220
806.00,0.0203
805.00,0.0185
804.00,0.0169
803.00,0.0156
802.00,0.0146
801.00,0.0138
800.00,0.0131
799.00,0.0125
798.00,0.0120
797.00,0.0117
796.00,0.0113
795.00,0.0110
794.00,0.0107
793.00,0.0103
792.00,0.0100
791.00,0.0096
790.00,0.0092
789.00,0.0089
788.00,0.0085
787.00,0.0082
786.00,0.0079
785.00,0.0076
784.00,0.0074
783.00,0.0071
782.00,0.0070
781.00,0.0069
780.00,0.0070
779.00,0.0071
778.00,0.0072
777.00,0.0071
776.00,0.0070
775.00,0.0070
774.00,0.0070
773.00,0.0069
772.00,0.0069
771.00,0.0070
770.00,0.0070
769.00,0.0070
768.00,0.0069
767.00,0.0068
766.00,0.0067
765.00,0.0067
764.00,0.0067
763.00,0.0067
762.00,0.0068
761.00,0.0070
760.00,0.0072
759.00,0.0073
758.00,0.0072
757.00,0.0072
756.00,0.0072
755.00,0.0074
754.00,0.0076
753.00,0.0079
752.00,0.0080
751.00,0.0080
750.00,0.0081
749.00,0.0083
748.00,0.0085
747.00,0.0087
746.00,0.0089
745.00,0.0090
744.00,0.0092
743.00,0.0095
742.00,0.0097
741.00,0.0100
740.00,0.0103
739.00,0.0106
738.00,0.0111
737.00,0.0117
736.00,0.0122
735.00,0.0126
734.00,0.0129
733.00,0.0134
732.00,0.0141
731.00,0.0151
730.00,0.0159
729.00,0.0163
728.00,0.0163
727.00,0.0162
726.00,0.0163
725.00,0.0165
724.00,0.0170
723.00,0.0177
722.00,0.0184
721.00,0.0190
720.00,0.0188
719.00,0.0178
718.00,0.0165
717.00,0.0152
716.00,0.0143
715.00,0.0137
714.00,0.0131
713.00,0.0126
712.00,0.0122
711.00,0.0119
710.00,0.0116
709.00,0.0113
708.00,0.0110
707.00,0.0107
706.00,0.0105
705.00,0.0104
704.00,0.0103
703.00,0.0103
702.00,0.0101
701.00,0.0099
700.00,0.0097
699.00,0.0096
698.00,0.0096
697.00,0.0099
696.00,0.0101
695.00,0.0102
694.00,0.0102
693.00,0.0100
692.00,0.0098
691.00,0.0097
690.00,0.0097
689.00,0.0098
688.00,0.0098
687.00,0.0097
686.00,0.0096
685.00,0.0096
684.00,0.0097
683.00,0.0098
682.00,0.0098
681.00,0.0098
680.00,0.0098
679.00,0.0098
678.00,0.0098
677.00,0.0099
676.00,0.0099
675.00,0.0099
674.00,0.0098
673.00,0.0097
672.00,0.0096
671.00,0.0096
670.00,0.0095
669.00,0.0091
668.00,0.0088
667.00,0.0087
666.00,0.0088
665.00,0.0090
664.00,0.0090
663.00,0.0091
662.00,0.0091
661.00,0.0090
660.00,0.0090
659.00,0.0089
658.00,0.0088
657.00,0.0089
656.00,0.0088
655.00,0.0086
654.00,0.0084
653.00,0.0083
652.00,0.0085
651.00,0.0087
650.00,0.0088
649.00,0.0088
648.00,0.0087
647.00,0.0087
646.00,0.0088
645.00,0.0088
644.00,0.0089
643.00,0.0090
642.00,0.0090
641.00,0.0089
640.00,0.0089
639.00,0.0090
638.00,0.0090
637.00,0.0090
636.00,0.0089
635.00,0.0088
634.00,0.0087
633.00,0.0087
632.00,0.0087
631.00,0.0088
630.00,0.0089
629.00,0.0090
628.00,0.0091
627.00,0.0092
626.00,0.0094
625.00,0.0095
624.00,0.0094
623.00,0.0092
622.00,0.0089
621.00,0.0087
620.00,0.0086
619.00,0.0087
618.00,0.0090
617.00,0.0092
616.00,0.0093
615.00,0.0093
614.00,0.0093
613.00,0.0094
612.00,0.0094
611.00,0.0093
610.00,0.0090
609.00,0.0085
608.00,0.0082
607.00,0.0081
606.00,0.0085
605.00,0.0090
604.00,0.0095
603.00,0.0097
602.00,0.0096
601.00,0.0093
600.00,0.0088
599.00,0.0082
598.00,0.0078
597.00,0.0077
596.00,0.0079
595.00,0.0081
594.00,0.0084
593.00,0.0086
592.00,0.0087
591.00,0.0088
590.00,0.0089
589.00,0.0090
588.00,0.0092
587.00,0.0092
586.00,0.0090
585.00,0.0088
584.00,0.0087
583.00,0.0089
582.00,0.0092
581.00,0.0095
580.00,0.0095
579.00,0.0094
578.00,0.0092
577.00,0.0091
576.00,0.0090
575.00,0.0091
574.00,0.0091
573.00,0.0091
572.00,0.0091
571.00,0.0091
570.00,0.0091
569.00,0.0092
568.00,0.0094
567.00,0.0095
566.00,0.0095
565.00,0.0094
564.00,0.0093
563.00,0.0093
562.00,0.0092
561.00,0.0091
560.00,0.0090
559.00,0.0089
558.00,0.0090
557.00,0.0092
556.00,0.0094
555.00,0.0092
554.00,0.0089
553.00,0.0086
552.00,0.0085
551.00,0.0085
550.00,0.0086
549.00,0.0087
548.00,0.0089
547.00,0.0093
546.00,0.0094
545.00,0.0093
544.00,0.0089
543.00,0.0086
542.00,0.0088
541.00,0.0092
540.00,0.0097
539.00,0.0100
538.00,0.0101
537.00,0.0101
536.00,0.0102
535.00,0.0104
534.00,0.0106
533.00,0.0107
532.00,0.0108
531.00,0.0106
530.00,0.0105
529.00,0.0106
528.00,0.0108
527.00,0.0110
526.00,0.0109
525.00,0.0105
524.00,0.0101
523.00,0.0098
522.00,0.0097
521.00,0.0097
520.00,0.0097
519.00,0.0093
518.00,0.0084
517.00,0.0075
516.00,0.0070
515.00,0.0071
514.00,0.0077
513.00,0.0083
512.00,0.0089
511.00,0.0091
510.00,0.0093
509.00,0.0093
508.00,0.0092
507.00,0.0088
506.00,0.0082
505.00,0.0078
504.00,0.0079
503.00,0.0084
502.00,0.0090
501.00,0.0092
500.00,0.0089
499.00,0.0081
498.00,0.0075
497.00,0.0072
496.00,0.0075
495.00,0.0081
494.00,0.0085
493.00,0.0085
492.00,0.0082
491.00,0.0078
490.00,0.0076
489.00,0.0076
488.00,0.0077
487.00,0.0077
486.00,0.0077
485.00,0.0074
484.00,0.0069
483.00,0.0067
482.00,0.0072
481.00,0.0082
480.00,0.0090
479.00,0.0091
478.00,0.0086
477.00,0.0086
476.00,0.0092
475.00,0.0100
474.00,0.0103
473.00,0.0098
472.00,0.0091
471.00,0.0087
470.00,0.0090
469.00,0.0100
468.00,0.0114
467.00,0.0126
466.00,0.0130
465.00,0.0131
464.00,0.0135
463.00,0.0145
462.00,0.0151
461.00,0.0150
460.00,0.0146
459.00,0.0147
458.00,0.0156
457.00,0.0165
456.00,0.0168
455.00,0.0163
454.00,0.0153
453.00,0.0138
452.00,0.0119
451.00,0.0103
450.00,0.0093
