Created as New Dataset,Sample 018 By Administrator Date Wednesday, September 03 2025
cm-1,A
4000.00,0.0012
3999.00,0.0011
3998.00,0.0011
3997.00,0.0011
3996.00,0.0011
3995.00,0.0010
3994.00,0.0011
3993.00,0.0011
3992.00,0.0011
3991.00,0.0011
3990.00,0.0011
3989.00,0.0011
3988.00,0.0011
3987.00,0.0011
3986.00,0.0011
3985.00,0.0011
3984.00,0.0011
3983.00,0.0011
3982.00,0.0010
3981.00,0.0010
3980.00,0.0010
3979.00,0.0010
3978.00,0.0010
3977.00,0.0011
3976.00,0.0011
3975.00,0.0010
3974.00,0.0010
3973.00,0.0010
3972.00,0.0009
3971.00,0.0009
3970.00,0.0009
3969.00,0.0009
3968.00,0.0010
3967.00,0.0010
3966.00,0.0010
3965.00,0.0010
3964.00,0.0010
3963.00,0.0010
3962.00,0.0010
3961.00,0.0010
3960.00,0.0010
3959.00,0.0010
3958.00,0.0010
3957.00,0.0011
3956.00,0.0011
3955.00,0.0011
3954.00,0.0010
3953.00,0.0010
3952.00,0.0010
3951.00,0.0010
3950.00,0.0010
3949.00,0.0010
3948.00,0.0010
3947.00,0.0010
3946.00,0.0010
3945.00,0.0010
3944.00,0.0010
3943.00,0.0011
3942.00,0.0011
3941.00,0.0011
3940.00,0.0010
3939.00,0.0010
3938.00,0.0010
3937.00,0.0010
3936.00,0.0010
3935.00,0.0011
3934.00,0.0011
3933.00,0.0011
3932.00,0.0011
3931.00,0.0011
3930.00,0.0010
3929.00,0.0010
3928.00,0.0010
3927.00,0.0011
3926.00,0.0011
3925.00,0.0011
3924.00,0.0011
3923.00,0.0011
3922.00,0.0010
3921.00,0.0010
3920.00,0.0009
3919.00,0.0009
3918.00,0.0010
3917.00,0.0010
3916.00,0.0010
3915.00,0.0010
3914.00,0.0010
3913.00,0.0010
3912.00,0.0010
3911.00,0.0011
3910.00,0.0011
3909.00,0.0010
3908.00,0.0010
3907.00,0.0010
3906.00,0.0010
3905.00,0.0010
3904.00,0.0010
3903.00,0.0010
3902.00,0.0010
3901.00,0.0010
3900.00,0.0010
3899.00,0.0010
3898.00,0.0010
3897.00,0.0010
3896.00,0.0010
3895.00,0.0010
3894.00,0.0010
3893.00,0.0009
3892.00,0.0009
3891.00,0.0009
3890.00,0.0009
3889.00,0.0009
3888.00,0.0009
3887.00,0.0009
3886.00,0.0009
3885.00,0.0010
3884.00,0.0009
3883.00,0.0009
3882.00,0.0009
3881.00,0.0010
3880.00,0.0010
3879.00,0.0010
3878.00,0.0010
3877.00,0.0009
3876.00,0.0009
3875.00,0.0010
3874.00,0.0010
3873.00,0.0010
3872.00,0.0009
3871.00,0.0009
3870.00,0.0009
3869.00,0.0008
3868.00,0.0008
3867.00,0.0008
3866.00,0.0008
3865.00,0.0008
3864.00,0.0009
3863.00,0.0009
3862.00,0.0009
3861.00,0.0009
3860.00,0.0009
3859.00,0.0009
3858.00,0.0009
3857.00,0.0009
3856.00,0.0009
3855.00,0.0009
3854.00,0.0009
3853.00,0.0009
3852.00,0.0008
3851.00,0.0008
3850.00,0.0008
3849.00,0.0008
3848.00,0.0009
3847.00,0.0009
3846.00,0.0009
3845.00,0.0009
3844.00,0.0009
3843.00,0.0009
3842.00,0.0010
3841.00,0.0010
3840.00,0.0009
3839.00,0.0009
3838.00,0.0009
3837.00,0.0009
3836.00,0.0009
3835.00,0.0009
3834.00,0.0009
3833.00,0.0009
3832.00,0.0009
3831.00,0.0009
3830.00,0.0009
3829.00,0.0009
3828.00,0.0010
3827.00,0.0010
3826.00,0.0010
3825.00,0.0010
3824.00,0.0009
3823.00,0.0009
3822.00,0.0008
3821.00,0.0008
3820.00,0.0008
3819.00,0.0008
3818.00,0.0007
3817.00,0.0008
3816.00,0.0008
3815.00,0.0009
3814.00,0.0009
3813.00,0.0010
3812.00,0.0010
3811.00,0.0010
3810.00,0.0010
3809.00,0.0010
3808.00,0.0010
3807.00,0.0010
3806.00,0.0009
3805.00,0.0009
3804.00,0.0008
3803.00,0.0008
3802.00,0.0008
3801.00,0.0008
3800.00,0.0008
3799.00,0.0008
3798.00,0.0008
3797.00,0.0008
3796.00,0.0008
3795.00,0.0008
3794.00,0.0009
3793.00,0.0009
3792.00,0.0010
3791.00,0.0010
3790.00,0.0010
3789.00,0.0010
3788.00,0.0010
3787.00,0.0010
3786.00,0.0010
3785.00,0.0010
3784.00,0.0010
3783.00,0.0009
3782.00,0.0009
3781.00,0.0009
3780.00,0.0009
3779.00,0.0009
3778.00,0.0009
3777.00,0.0009
3776.00,0.0010
3775.00,0.0010
3774.00,0.0010
3773.00,0.0010
3772.00,0.0009
3771.00,0.0009
3770.00,0.0009
3769.00,0.0009
3768.00,0.0009
3767.00,0.0009
3766.00,0.0010
3765.00,0.0010
3764.00,0.0010
3763.00,0.0010
3762.00,0.0009
3761.00,0.0009
3760.00,0.0009
3759.00,0.0009
3758.00,0.0008
3757.00,0.0008
3756.00,0.0008
3755.00,0.0008
3754.00,0.0008
3753.00,0.0008
3752.00,0.0008
3751.00,0.0008
3750.00,0.0008
3749.00,0.0008
3748.00,0.0007
3747.00,0.0007
3746.00,0.0007
3745.00,0.0008
3744.00,0.0008
3743.00,0.0009
3742.00,0.0009
3741.00,0.0009
3740.00,0.0010
3739.00,0.0010
3738.00,0.0010
3737.00,0.0009
3736.00,0.0009
3735.00,0.0009
3734.00,0.0008
3733.00,0.0008
3732.00,0.0008
3731.00,0.0008
3730.00,0.0008
3729.00,0.0008
3728.00,0.0008
3727.00,0.0009
3726.00,0.0009
3725.00,0.0010
3724.00,0.0010
3723.00,0.0009
3722.00,0.0009
3721.00,0.0009
3720.00,0.0008
3719.00,0.0008
3718.00,0.0009
3717.00,0.0009
3716.00,0.0008
3715.00,0.0008
3714.00,0.0008
3713.00,0.0008
3712.00,0.0008
3711.00,0.0007
3710.00,0.0007
3709.00,0.0007
3708.00,0.0007
3707.00,0.0008
3706.00,0.0008
3705.00,0.0008
3704.00,0.0008
3703.00,0.0008
3702.00,0.0008
3701.00,0.0008
3700.00,0.0009
3699.00,0.0009
3698.00,0.0009
3697.00,0.0010
3696.00,0.0011
3695.00,0.0011
3694.00,0.0012
3693.00,0.0012
3692.00,0.0012
3691.00,0.0012
3690.00,0.0012
3689.00,0.0012
3688.00,0.0012
3687.00,0.0013
3686.00,0.0014
3685.00,0.0015
3684.00,0.0016
3683.00,0.0017
3682.00,0.0018
3681.00,0.0019
3680.00,0.0020
3679.00,0.0021
3678.00,0.0022
3677.00,0.0023
3676.00,0.0024
3675.00,0.0026
3674.00,0.0026
3673.00,0.0026
3672.00,0.0027
3671.00,0.0027
3670.00,0.0028
3669.00,0.0028
3668.00,0.0028
3667.00,0.0028
3666.00,0.0029
3665.00,0.0030
3664.00,0.0031
3663.00,0.0032
3662.00,0.0033
3661.00,0.0033
3660.00,0.0033
3659.00,0.0033
3658.00,0.0033
3657.00,0.0033
3656.00,0.0033
3655.00,0.0034
3654.00,0.0033
3653.00,0.0033
3652.00,0.0033
3651.00,0.0032
3650.00,0.0031
3649.00,0.0031
3648.00,0.0030
3647.00,0.0029
3646.00,0.0029
3645.00,0.0028
3644.00,0.0027
3643.00,0.0027
3642.00,0.0026
3641.00,0.0026
3640.00,0.0026
3639.00,0.0027
3638.00,0.0028
3637.00,0.0027
3636.00,0.0026
3635.00,0.0024
3634.00,0.0022
3633.00,0.0020
3632.00,0.0018
3631.00,0.0017
3630.00,0.0017
3629.00,0.0017
3628.00,0.0016
3627.00,0.0016
3626.00,0.0015
3625.00,0.0016
3624.00,0.0016
3623.00,0.0016
3622.00,0.0016
3621.00,0.0015
3620.00,0.0015
3619.00,0.0015
3618.00,0.0015
3617.00,0.0015
3616.00,0.0015
3615.00,0.0015
3614.00,0.0015
3613.00,0.0015
3612.00,0.0016
3611.00,0.0016
3610.00,0.0016
3609.00,0.0016
3608.00,0.0015
3607.00,0.0015
3606.00,0.0014
3605.00,0.0014
3604.00,0.0014
3603.00,0.0014
3602.00,0.0015
3601.00,0.0015
3600.00,0.0015
3599.00,0.0015
3598.00,0.0015
3597.00,0.0015
3596.00,0.0015
3595.00,0.0015
3594.00,0.0015
3593.00,0.0015
3592.00,0.0015
3591.00,0.0015
3590.00,0.0015
3589.00,0.0016
3588.00,0.0017
3587.00,0.0017
3586.00,0.0017
3585.00,0.0017
3584.00,0.0017
3583.00,0.0017
3582.00,0.0017
3581.00,0.0018
3580.00,0.0018
3579.00,0.0018
3578.00,0.0018
3577.00,0.0019
3576.00,0.0019
3575.00,0.0019
3574.00,0.0019
3573.00,0.0020
3572.00,0.0020
3571.00,0.0020
3570.00,0.0021
3569.00,0.0021
3568.00,0.0021
3567.00,0.0021
3566.00,0.0021
3565.00,0.0021
3564.00,0.0021
3563.00,0.0021
3562.00,0.0022
3561.00,0.0022
3560.00,0.0023
3559.00,0.0023
3558.00,0.0023
3557.00,0.0024
3556.00,0.0024
3555.00,0.0024
3554.00,0.0024
3553.00,0.0024
3552.00,0.0024
3551.00,0.0024
3550.00,0.0024
3549.00,0.0024
3548.00,0.0024
3547.00,0.0024
3546.00,0.0025
3545.00,0.0025
3544.00,0.0025
3543.00,0.0025
3542.00,0.0025
3541.00,0.0025
3540.00,0.0025
3539.00,0.0025
3538.00,0.0026
3537.00,0.0026
3536.00,0.0026
3535.00,0.0026
3534.00,0.0026
3533.00,0.0026
3532.00,0.0026
3531.00,0.0026
3530.00,0.0026
3529.00,0.0027
3528.00,0.0027
3527.00,0.0027
3526.00,0.0028
3525.00,0.0028
3524.00,0.0028
3523.00,0.0028
3522.00,0.0028
3521.00,0.0029
3520.00,0.0029
3519.00,0.0029
3518.00,0.0029
3517.00,0.0029
3516.00,0.0029
3515.00,0.0029
3514.00,0.0029
3513.00,0.0030
3512.00,0.0030
3511.00,0.0030
3510.00,0.0030
3509.00,0.0030
3508.00,0.0030
3507.00,0.0030
3506.00,0.0031
3505.00,0.0031
3504.00,0.0032
3503.00,0.0032
3502.00,0.0032
3501.00,0.0032
3500.00,0.0032
3499.00,0.0032
3498.00,0.0032
3497.00,0.0032
3496.00,0.0032
3495.00,0.0032
3494.00,0.0032
3493.00,0.0033
3492.00,0.0033
3491.00,0.0034
3490.00,0.0034
3489.00,0.0035
3488.00,0.0035
3487.00,0.0035
3486.00,0.0035
3485.00,0.0035
3484.00,0.0035
3483.00,0.0035
3482.00,0.0035
3481.00,0.0035
3480.00,0.0035
3479.00,0.0035
3478.00,0.0035
3477.00,0.0035
3476.00,0.0036
3475.00,0.0036
3474.00,0.0036
3473.00,0.0036
3472.00,0.0036
3471.00,0.0037
3470.00,0.0037
3469.00,0.0037
3468.00,0.0038
3467.00,0.0038
3466.00,0.0038
3465.00,0.0038
3464.00,0.0039
3463.00,0.0039
3462.00,0.0039
3461.00,0.0039
3460.00,0.0039
3459.00,0.0039
3458.00,0.0039
3457.00,0.0039
3456.00,0.0039
3455.00,0.0040
3454.00,0.0040
3453.00,0.0041
3452.00,0.0041
3451.00,0.0041
3450.00,0.0041
3449.00,0.0041
3448.00,0.0041
3447.00,0.0041
3446.00,0.0041
3445.00,0.0041
3444.00,0.0041
3443.00,0.0041
3442.00,0.0041
3441.00,0.0041
3440.00,0.0042
3439.00,0.0042
3438.00,0.0043
3437.00,0.0043
3436.00,0.0043
3435.00,0.0043
3434.00,0.0044
3433.00,0.0044
3432.00,0.0044
3431.00,0.0044
3430.00,0.0044
3429.00,0.0044
3428.00,0.0044
3427.00,0.0045
3426.00,0.0045
3425.00,0.0045
3424.00,0.0045
3423.00,0.0045
3422.00,0.0045
3421.00,0.0045
3420.00,0.0045
3419.00,0.0045
3418.00,0.0045
3417.00,0.0045
3416.00,0.0045
3415.00,0.0045
3414.00,0.0045
3413.00,0.0046
3412.00,0.0046
3411.00,0.0046
3410.00,0.0047
3409.00,0.0047
3408.00,0.0046
3407.00,0.0046
3406.00,0.0046
3405.00,0.0046
3404.00,0.0046
3403.00,0.0046
3402.00,0.0046
3401.00,0.0047
3400.00,0.0047
3399.00,0.0047
3398.00,0.0047
3397.00,0.0047
3396.00,0.0047
3395.00,0.0047
3394.00,0.0047
3393.00,0.0047
3392.00,0.0047
3391.00,0.0047
3390.00,0.0047
3389.00,0.0047
3388.00,0.0047
3387.00,0.0047
3386.00,0.0047
3385.00,0.0047
3384.00,0.0047
3383.00,0.0048
3382.00,0.0048
3381.00,0.0047
3380.00,0.0047
3379.00,0.0047
3378.00,0.0048
3377.00,0.0048
3376.00,0.0048
3375.00,0.0048
3374.00,0.0048
3373.00,0.0048
3372.00,0.0048
3371.00,0.0048
3370.00,0.0048
3369.00,0.0049
3368.00,0.0049
3367.00,0.0049
3366.00,0.0048
3365.00,0.0049
3364.00,0.0049
3363.00,0.0049
3362.00,0.0049
3361.00,0.0049
3360.00,0.0049
3359.00,0.0049
3358.00,0.0049
3357.00,0.0049
3356.00,0.0049
3355.00,0.0049
3354.00,0.0049
3353.00,0.0049
3352.00,0.0049
3351.00,0.0049
3350.00,0.0049
3349.00,0.0050
3348.00,0.0050
3347.00,0.0049
3346.00,0.0049
3345.00,0.0049
3344.00,0.0049
3343.00,0.0049
3342.00,0.0048
3341.00,0.0048
3340.00,0.0048
3339.00,0.0049
3338.00,0.0049
3337.00,0.0050
3336.00,0.0050
3335.00,0.0050
3334.00,0.0050
3333.00,0.0049
3332.00,0.0049
3331.00,0.0048
3330.00,0.0048
3329.00,0.0048
3328.00,0.0048
3327.00,0.0048
3326.00,0.0048
3325.00,0.0047
3324.00,0.0047
3323.00,0.0046
3322.00,0.0046
3321.00,0.0046
3320.00,0.0045
3319.00,0.0045
3318.00,0.0046
3317.00,0.0046
3316.00,0.0047
3315.00,0.0047
3314.00,0.0047
3313.00,0.0047
3312.00,0.0047
3311.00,0.0046
3310.00,0.0046
3309.00,0.0045
3308.00,0.0046
3307.00,0.0046
3306.00,0.0047
3305.00,0.0047
3304.00,0.0047
3303.00,0.0047
3302.00,0.0047
3301.00,0.0047
3300.00,0.0046
3299.00,0.0046
3298.00,0.0046
3297.00,0.0046
3296.00,0.0046
3295.00,0.0046
3294.00,0.0046
3293.00,0.0046
3292.00,0.0046
3291.00,0.0046
3290.00,0.0046
3289.00,0.0046
3288.00,0.0046
3287.00,0.0045
3286.00,0.0045
3285.00,0.0045
3284.00,0.0045
3283.00,0.0044
3282.00,0.0044
3281.00,0.0044
3280.00,0.0043
3279.00,0.0043
3278.00,0.0044
3277.00,0.0044
3276.00,0.0044
3275.00,0.0044
3274.00,0.0044
3273.00,0.0044
3272.00,0.0043
3271.00,0.0043
3270.00,0.0042
3269.00,0.0042
3268.00,0.0042
3267.00,0.0042
3266.00,0.0042
3265.00,0.0042
3264.00,0.0042
3263.00,0.0042
3262.00,0.0042
3261.00,0.0042
3260.00,0.0042
3259.00,0.0042
3258.00,0.0042
3257.00,0.0042
3256.00,0.0041
3255.00,0.0041
3254.00,0.0041
3253.00,0.0041
3252.00,0.0042
3251.00,0.0042
3250.00,0.0042
3249.00,0.0041
3248.00,0.0041
3247.00,0.0041
3246.00,0.0041
3245.00,0.0041
3244.00,0.0040
3243.00,0.0040
3242.00,0.0040
3241.00,0.0040
3240.00,0.0040
3239.00,0.0041
3238.00,0.0041
3237.00,0.0041
3236.00,0.0041
3235.00,0.0041
3234.00,0.0041
3233.00,0.0042
3232.00,0.0042
3231.00,0.0042
3230.00,0.0042
3229.00,0.0042
3228.00,0.0042
3227.00,0.0042
3226.00,0.0042
3225.00,0.0043
3224.00,0.0043
3223.00,0.0043
3222.00,0.0043
3221.00,0.0043
3220.00,0.0043
3219.00,0.0043
3218.00,0.0044
3217.00,0.0044
3216.00,0.0044
3215.00,0.0044
3214.00,0.0045
3213.00,0.0045
3212.00,0.0046
3211.00,0.0046
3210.00,0.0045
3209.00,0.0045
3208.00,0.0045
3207.00,0.0045
3206.00,0.0045
3205.00,0.0045
3204.00,0.0045
3203.00,0.0045
3202.00,0.0046
3201.00,0.0046
3200.00,0.0046
3199.00,0.0046
3198.00,0.0046
3197.00,0.0045
3196.00,0.0045
3195.00,0.0045
3194.00,0.0045
3193.00,0.0045
3192.00,0.0045
3191.00,0.0045
3190.00,0.0044
3189.00,0.0044
3188.00,0.0043
3187.00,0.0043
3186.00,0.0043
3185.00,0.0043
3184.00,0.0043
3183.00,0.0042
3182.00,0.0042
3181.00,0.0042
3180.00,0.0042
3179.00,0.0042
3178.00,0.0042
3177.00,0.0042
3176.00,0.0042
3175.00,0.0042
3174.00,0.0041
3173.00,0.0041
3172.00,0.0041
3171.00,0.0041
3170.00,0.0041
3169.00,0.0041
3168.00,0.0040
3167.00,0.0040
3166.00,0.0039
3165.00,0.0039
3164.00,0.0039
3163.00,0.0039
3162.00,0.0039
3161.00,0.0039
3160.00,0.0039
3159.00,0.0039
3158.00,0.0039
3157.00,0.0039
3156.00,0.0039
3155.00,0.0039
3154.00,0.0038
3153.00,0.0038
3152.00,0.0038
3151.00,0.0038
3150.00,0.0038
3149.00,0.0038
3148.00,0.0038
3147.00,0.0038
3146.00,0.0038
3145.00,0.0038
3144.00,0.0038
3143.00,0.0038
3142.00,0.0038
3141.00,0.0038
3140.00,0.0038
3139.00,0.0038
3138.00,0.0038
3137.00,0.0037
3136.00,0.0037
3135.00,0.0037
3134.00,0.0036
3133.00,0.0036
3132.00,0.0035
3131.00,0.0035
3130.00,0.0035
3129.00,0.0035
3128.00,0.0035
3127.00,0.0035
3126.00,0.0035
3125.00,0.0035
3124.00,0.0035
3123.00,0.0035
3122.00,0.0034
3121.00,0.0034
3120.00,0.0034
3119.00,0.0034
3118.00,0.0034
3117.00,0.0034
3116.00,0.0034
3115.00,0.0034
3114.00,0.0033
3113.00,0.0033
3112.00,0.0033
3111.00,0.0033
3110.00,0.0033
3109.00,0.0032
3108.00,0.0032
3107.00,0.0032
3106.00,0.0032
3105.00,0.0032
3104.00,0.0032
3103.00,0.0032
3102.00,0.0032
3101.00,0.0032
3100.00,0.0033
3099.00,0.0032
3098.00,0.0032
3097.00,0.0032
3096.00,0.0032
3095.00,0.0032
3094.00,0.0033
3093.00,0.0032
3092.00,0.0032
3091.00,0.0032
3090.00,0.0032
3089.00,0.0032
3088.00,0.0032
3087.00,0.0032
3086.00,0.0032
3085.00,0.0032
3084.00,0.0032
3083.00,0.0032
3082.00,0.0033
3081.00,0.0033
3080.00,0.0033
3079.00,0.0033
3078.00,0.0033
3077.00,0.0033
3076.00,0.0032
3075.00,0.0032
3074.00,0.0032
3073.00,0.0033
3072.00,0.0033
3071.00,0.0033
3070.00,0.0033
3069.00,0.0033
3068.00,0.0033
3067.00,0.0033
3066.00,0.0033
3065.00,0.0033
3064.00,0.0033
3063.00,0.0033
3062.00,0.0034
3061.00,0.0034
3060.00,0.0034
3059.00,0.0034
3058.00,0.0034
3057.00,0.0034
3056.00,0.0035
3055.00,0.0035
3054.00,0.0035
3053.00,0.0036
3052.00,0.0036
3051.00,0.0036
3050.00,0.0036
3049.00,0.0037
3048.00,0.0037
3047.00,0.0037
3046.00,0.0037
3045.00,0.0037
3044.00,0.0037
3043.00,0.0037
3042.00,0.0037
3041.00,0.0038
3040.00,0.0038
3039.00,0.0039
3038.00,0.0039
3037.00,0.0040
3036.00,0.0040
3035.00,0.0040
3034.00,0.0041
3033.00,0.0041
3032.00,0.0041
3031.00,0.0042
3030.00,0.0043
3029.00,0.0043
3028.00,0.0044
3027.00,0.0045
3026.00,0.0046
3025.00,0.0047
3024.00,0.0048
3023.00,0.0049
3022.00,0.0051
3021.00,0.0052
3020.00,0.0054
3019.00,0.0056
3018.00,0.0058
3017.00,0.0060
3016.00,0.0064
3015.00,0.0067
3014.00,0.0072
3013.00,0.0077
3012.00,0.0082
3011.00,0.0087
3010.00,0.0093
3009.00,0.0100
3008.00,0.0107
3007.00,0.0115
3006.00,0.0123
3005.00,0.0132
3004.00,0.0141
3003.00,0.0150
3002.00,0.0158
3001.00,0.0167
3000.00,0.0176
2999.00,0.0184
2998.00,0.0192
2997.00,0.0200
2996.00,0.0208
2995.00,0.0216
2994.00,0.0223
2993.00,0.0231
2992.00,0.0239
2991.00,0.0248
2990.00,0.0257
2989.00,0.0267
2988.00,0.0279
2987.00,0.0293
2986.00,0.0314
2985.00,0.0341
2984.00,0.0373
2983.00,0.0406
2982.00,0.0434
2981.00,0.0454
2980.00,0.0466
2979.00,0.0475
2978.00,0.0486
2977.00,0.0502
2976.00,0.0526
2975.00,0.0557
2974.00,0.0597
2973.00,0.0644
2972.00,0.0696
2971.00,0.0750
2970.00,0.0805
2969.00,0.0863
2968.00,0.0927
2967.00,0.0997
2966.00,0.1072
2965.00,0.1147
2964.00,0.1220
2963.00,0.1287
2962.00,0.1345
2961.00,0.1393
2960.00,0.1433
2959.00,0.1468
2958.00,0.1504
2957.00,0.1544
2956.00,0.1593
2955.00,0.1653
2954.00,0.1721
2953.00,0.1791
2952.00,0.1853
2951.00,0.1896
2950.00,0.1910
2949.00,0.1887
2948.00,0.1826
2947.00,0.1731
2946.00,0.1615
2945.00,0.1490
2944.00,0.1371
2943.00,0.1269
2942.00,0.1188
2941.00,0.1133
2940.00,0.1101
2939.00,0.1091
2938.00,0.1100
2937.00,0.1128
2936.00,0.1171
2935.00,0.1229
2934.00,0.1301
2933.00,0.1385
2932.00,0.1479
2931.00,0.1582
2930.00,0.1691
2929.00,0.1802
2928.00,0.1913
2927.00,0.2021
2926.00,0.2127
2925.00,0.2229
2924.00,0.2329
2923.00,0.2428
2922.00,0.2527
2921.00,0.2622
2920.00,0.2707
2919.00,0.2771
2918.00,0.2804
2917.00,0.2798
2916.00,0.2751
2915.00,0.2671
2914.00,0.2567
2913.00,0.2454
2912.00,0.2343
2911.00,0.2240
2910.00,0.2147
2909.00,0.2065
2908.00,0.1989
2907.00,0.1918
2906.00,0.1850
2905.00,0.1782
2904.00,0.1715
2903.00,0.1648
2902.00,0.1583
2901.00,0.1520
2900.00,0.1459
2899.00,0.1402
2898.00,0.1348
2897.00,0.1299
2896.00,0.1256
2895.00,0.1218
2894.00,0.1187
2893.00,0.1162
2892.00,0.1143
2891.00,0.1128
2890.00,0.1118
2889.00,0.1112
2888.00,0.1109
2887.00,0.1109
2886.00,0.1113
2885.00,0.1120
2884.00,0.1131
2883.00,0.1146
2882.00,0.1164
2881.00,0.1185
2880.00,0.1205
2879.00,0.1222
2878.00,0.1233
2877.00,0.1236
2876.00,0.1232
2875.00,0.1225
2874.00,0.1218
2873.00,0.1217
2872.00,0.1223
2871.00,0.1235
2870.00,0.1252
2869.00,0.1268
2868.00,0.1277
2867.00,0.1271
2866.00,0.1244
2865.00,0.1195
2864.00,0.1127
2863.00,0.1049
2862.00,0.0972
2861.00,0.0903
2860.00,0.0847
2859.00,0.0807
2858.00,0.0781
2857.00,0.0768
2856.00,0.0765
2855.00,0.0771
2854.00,0.0782
2853.00,0.0798
2852.00,0.0815
2851.00,0.0831
2850.00,0.0844
2849.00,0.0854
2848.00,0.0864
2847.00,0.0877
2846.00,0.0898
2845.00,0.0928
2844.00,0.0969
2843.00,0.1017
2842.00,0.1068
2841.00,0.1117
2840.00,0.1155
2839.00,0.1176
2838.00,0.1172
2837.00,0.1140
2836.00,0.1079
2835.00,0.0996
2834.00,0.0898
2833.00,0.0796
2832.00,0.0699
2831.00,0.0613
2830.00,0.0540
2829.00,0.0479
2828.00,0.0430
2827.00,0.0390
2826.00,0.0357
2825.00,0.0331
2824.00,0.0309
2823.00,0.0290
2822.00,0.0274
2821.00,0.0260
2820.00,0.0247
2819.00,0.0237
2818.00,0.0227
2817.00,0.0219
2816.00,0.0212
2815.00,0.0206
2814.00,0.0200
2813.00,0.0194
2812.00,0.0188
2811.00,0.0183
2810.00,0.0177
2809.00,0.0172
2808.00,0.0166
2807.00,0.0160
2806.00,0.0154
2805.00,0.0148
2804.00,0.0142
2803.00,0.0136
2802.00,0.0131
2801.00,0.0127
2800.00,0.0123
2799.00,0.0120
2798.00,0.0117
2797.00,0.0114
2796.00,0.0112
2795.00,0.0110
2794.00,0.0107
2793.00,0.0105
2792.00,0.0102
2791.00,0.0099
2790.00,0.0096
2789.00,0.0093
2788.00,0.0090
2787.00,0.0087
2786.00,0.0084
2785.00,0.0082
2784.00,0.0080
2783.00,0.0077
2782.00,0.0075
2781.00,0.0073
2780.00,0.0072
2779.00,0.0071
2778.00,0.0069
2777.00,0.0068
2776.00,0.0067
2775.00,0.0066
2774.00,0.0065
2773.00,0.0064
2772.00,0.0064
2771.00,0.0063
2770.00,0.0063
2769.00,0.0063
2768.00,0.0063
2767.00,0.0063
2766.00,0.0062
2765.00,0.0062
2764.00,0.0061
2763.00,0.0061
2762.00,0.0061
2761.00,0.0060
2760.00,0.0060
2759.00,0.0059
2758.00,0.0058
2757.00,0.0058
2756.00,0.0058
2755.00,0.0058
2754.00,0.0058
2753.00,0.0058
2752.00,0.0058
2751.00,0.0058
2750.00,0.0057
2749.00,0.0057
2748.00,0.0057
2747.00,0.0057
2746.00,0.0057
2745.00,0.0058
2744.00,0.0059
2743.00,0.0060
2742.00,0.0061
2741.00,0.0062
2740.00,0.0063
2739.00,0.0064
2738.00,0.0065
2737.00,0.0066
2736.00,0.0068
2735.00,0.0069
2734.00,0.0071
2733.00,0.0072
2732.00,0.0074
2731.00,0.0076
2730.00,0.0078
2729.00,0.0081
2728.00,0.0083
2727.00,0.0086
2726.00,0.0088
2725.00,0.0090
2724.00,0.0092
2723.00,0.0092
2722.00,0.0091
2721.00,0.0089
2720.00,0.0086
2719.00,0.0083
2718.00,0.0080
2717.00,0.0077
2716.00,0.0074
2715.00,0.0072
2714.00,0.0069
2713.00,0.0067
2712.00,0.0065
2711.00,0.0063
2710.00,0.0061
2709.00,0.0060
2708.00,0.0058
2707.00,0.0057
2706.00,0.0056
2705.00,0.0055
2704.00,0.0054
2703.00,0.0053
2702.00,0.0052
2701.00,0.0052
2700.00,0.0051
2699.00,0.0050
2698.00,0.0050
2697.00,0.0050
2696.00,0.0050
2695.00,0.0050
2694.00,0.0049
2693.00,0.0049
2692.00,0.0049
2691.00,0.0049
2690.00,0.0049
2689.00,0.0049
2688.00,0.0049
2687.00,0.0049
2686.00,0.0049
2685.00,0.0049
2684.00,0.0049
2683.00,0.0050
2682.00,0.0051
2681.00,0.0051
2680.00,0.0051
2679.00,0.0051
2678.00,0.0051
2677.00,0.0051
2676.00,0.0051
2675.00,0.0051
2674.00,0.0051
2673.00,0.0051
2672.00,0.0051
2671.00,0.0051
2670.00,0.0051
2669.00,0.0051
2668.00,0.0052
2667.00,0.0052
2666.00,0.0052
2665.00,0.0052
2664.00,0.0053
2663.00,0.0053
2662.00,0.0054
2661.00,0.0055
2660.00,0.0055
2659.00,0.0055
2658.00,0.0055
2657.00,0.0054
2656.00,0.0053
2655.00,0.0053
2654.00,0.0052
2653.00,0.0052
2652.00,0.0051
2651.00,0.0051
2650.00,0.0051
2649.00,0.0050
2648.00,0.0050
2647.00,0.0049
2646.00,0.0049
2645.00,0.0048
2644.00,0.0048
2643.00,0.0047
2642.00,0.0047
2641.00,0.0046
2640.00,0.0046
2639.00,0.0046
2638.00,0.0045
2637.00,0.0045
2636.00,0.0044
2635.00,0.0044
2634.00,0.0044
2633.00,0.0044
2632.00,0.0044
2631.00,0.0044
2630.00,0.0044
2629.00,0.0044
2628.00,0.0043
2627.00,0.0043
2626.00,0.0043
2625.00,0.0043
2624.00,0.0044
2623.00,0.0045
2622.00,0.0045
2621.00,0.0045
2620.00,0.0045
2619.00,0.0045
2618.00,0.0045
2617.00,0.0045
2616.00,0.0044
2615.00,0.0044
2614.00,0.0044
2613.00,0.0044
2612.00,0.0043
2611.00,0.0043
2610.00,0.0042
2609.00,0.0041
2608.00,0.0041
2607.00,0.0040
2606.00,0.0039
2605.00,0.0039
2604.00,0.0038
2603.00,0.0038
2602.00,0.0038
2601.00,0.0037
2600.00,0.0037
2599.00,0.0036
2598.00,0.0035
2597.00,0.0035
2596.00,0.0035
2595.00,0.0035
2594.00,0.0035
2593.00,0.0035
2592.00,0.0036
2591.00,0.0037
2590.00,0.0038
2589.00,0.0039
2588.00,0.0039
2587.00,0.0040
2586.00,0.0040
2585.00,0.0041
2584.00,0.0042
2583.00,0.0042
2582.00,0.0042
2581.00,0.0042
2580.00,0.0041
2579.00,0.0041
2578.00,0.0040
2577.00,0.0039
2576.00,0.0038
2575.00,0.0036
2574.00,0.0035
2573.00,0.0034
2572.00,0.0033
2571.00,0.0032
2570.00,0.0031
2569.00,0.0030
2568.00,0.0028
2567.00,0.0028
2566.00,0.0027
2565.00,0.0027
2564.00,0.0027
2563.00,0.0027
2562.00,0.0027
2561.00,0.0027
2560.00,0.0027
2559.00,0.0027
2558.00,0.0026
2557.00,0.0026
2556.00,0.0026
2555.00,0.0026
2554.00,0.0025
2553.00,0.0025
2552.00,0.0024
2551.00,0.0024
2550.00,0.0024
2549.00,0.0024
2548.00,0.0023
2547.00,0.0023
2546.00,0.0022
2545.00,0.0022
2544.00,0.0021
2543.00,0.0021
2542.00,0.0021
2541.00,0.0021
2540.00,0.0021
2539.00,0.0021
2538.00,0.0021
2537.00,0.0021
2536.00,0.0021
2535.00,0.0021
2534.00,0.0021
2533.00,0.0021
2532.00,0.0020
2531.00,0.0019
2530.00,0.0019
2529.00,0.0018
2528.00,0.0018
2527.00,0.0017
2526.00,0.0017
2525.00,0.0017
2524.00,0.0017
2523.00,0.0017
2522.00,0.0017
2521.00,0.0017
2520.00,0.0017
2519.00,0.0017
2518.00,0.0017
2517.00,0.0017
2516.00,0.0017
2515.00,0.0016
2514.00,0.0016
2513.00,0.0015
2512.00,0.0015
2511.00,0.0015
2510.00,0.0015
2509.00,0.0014
2508.00,0.0014
2507.00,0.0014
2506.00,0.0014
2505.00,0.0014
2504.00,0.0014
2503.00,0.0014
2502.00,0.0014
2501.00,0.0014
2500.00,0.0014
2499.00,0.0014
2498.00,0.0014
2497.00,0.0015
2496.00,0.0015
2495.00,0.0015
2494.00,0.0015
2493.00,0.0015
2492.00,0.0016
2491.00,0.0016
2490.00,0.0016
2489.00,0.0015
2488.00,0.0015
2487.00,0.0014
2486.00,0.0014
2485.00,0.0013
2484.00,0.0013
2483.00,0.0013
2482.00,0.0013
2481.00,0.0013
2480.00,0.0013
2479.00,0.0013
2478.00,0.0012
2477.00,0.0012
2476.00,0.0012
2475.00,0.0011
2474.00,0.0012
2473.00,0.0012
2472.00,0.0013
2471.00,0.0012
2470.00,0.0012
2469.00,0.0012
2468.00,0.0013
2467.00,0.0013
2466.00,0.0013
2465.00,0.0013
2464.00,0.0012
2463.00,0.0012
2462.00,0.0012
2461.00,0.0012
2460.00,0.0012
2459.00,0.0013
2458.00,0.0013
2457.00,0.0014
2456.00,0.0015
2455.00,0.0015
2454.00,0.0015
2453.00,0.0015
2452.00,0.0014
2451.00,0.0014
2450.00,0.0014
2449.00,0.0014
2448.00,0.0013
2447.00,0.0013
2446.00,0.0012
2445.00,0.0011
2444.00,0.0011
2443.00,0.0011
2442.00,0.0012
2441.00,0.0013
2440.00,0.0013
2439.00,0.0013
2438.00,0.0013
2437.00,0.0014
2436.00,0.0014
2435.00,0.0015
2434.00,0.0016
2433.00,0.0016
2432.00,0.0016
2431.00,0.0015
2430.00,0.0015
2429.00,0.0014
2428.00,0.0014
2427.00,0.0014
2426.00,0.0015
2425.00,0.0015
2424.00,0.0015
2423.00,0.0015
2422.00,0.0015
2421.00,0.0015
2420.00,0.0015
2419.00,0.0014
2418.00,0.0013
2417.00,0.0013
2416.00,0.0012
2415.00,0.0012
2414.00,0.0012
2413.00,0.0013
2412.00,0.0013
2411.00,0.0013
2410.00,0.0013
2409.00,0.0013
2408.00,0.0013
2407.00,0.0013
2406.00,0.0012
2405.00,0.0012
2404.00,0.0012
2403.00,0.0012
2402.00,0.0012
2401.00,0.0012
2400.00,0.0011
2399.00,0.0011
2398.00,0.0011
2397.00,0.0011
2396.00,0.0010
2395.00,0.0010
2394.00,0.0010
2393.00,0.0010
2392.00,0.0011
2391.00,0.0011
2390.00,0.0011
2389.00,0.0011
2388.00,0.0011
2387.00,0.0010
2386.00,0.0010
2385.00,0.0009
2384.00,0.0009
2383.00,0.0009
2382.00,0.0009
2381.00,0.0008
2380.00,0.0008
2379.00,0.0009
2378.00,0.0009
2377.00,0.0010
2376.00,0.0010
2375.00,0.0010
2374.00,0.0010
2373.00,0.0009
2372.00,0.0009
2371.00,0.0009
2370.00,0.0008
2369.00,0.0009
2368.00,0.0009
2367.00,0.0010
2366.00,0.0009
2365.00,0.0009
2364.00,0.0010
2363.00,0.0010
2362.00,0.0011
2361.00,0.0012
2360.00,0.0012
2359.00,0.0012
2358.00,0.0012
2357.00,0.0011
2356.00,0.0010
2355.00,0.0010
2354.00,0.0009
2353.00,0.0009
2352.00,0.0010
2351.00,0.0011
2350.00,0.0012
2349.00,0.0012
2348.00,0.0012
2347.00,0.0012
2346.00,0.0012
2345.00,0.0013
2344.00,0.0013
2343.00,0.0013
2342.00,0.0013
2341.00,0.0013
2340.00,0.0013
2339.00,0.0014
2338.00,0.0014
2337.00,0.0015
2336.00,0.0014
2335.00,0.0014
2334.00,0.0013
2333.00,0.0012
2332.00,0.0012
2331.00,0.0013
2330.00,0.0014
2329.00,0.0015
2328.00,0.0016
2327.00,0.0018
2326.00,0.0021
2325.00,0.0024
2324.00,0.0025
2323.00,0.0025
2322.00,0.0023
2321.00,0.0021
2320.00,0.0020
2319.00,0.0019
2318.00,0.0019
2317.00,0.0018
2316.00,0.0018
2315.00,0.0017
2314.00,0.0017
2313.00,0.0016
2312.00,0.0016
2311.00,0.0015
2310.00,0.0015
2309.00,0.0014
2308.00,0.0013
2307.00,0.0013
2306.00,0.0013
2305.00,0.0013
2304.00,0.0014
2303.00,0.0015
2302.00,0.0016
2301.00,0.0016
2300.00,0.0017
2299.00,0.0017
2298.00,0.0017
2297.00,0.0017
2296.00,0.0017
2295.00,0.0017
2294.00,0.0017
2293.00,0.0018
2292.00,0.0018
2291.00,0.0018
2290.00,0.0018
2289.00,0.0019
2288.00,0.0020
2287.00,0.0021
2286.00,0.0022
2285.00,0.0023
2284.00,0.0023
2283.00,0.0023
2282.00,0.0021
2281.00,0.0020
2280.00,0.0018
2279.00,0.0018
2278.00,0.0017
2277.00,0.0017
2276.00,0.0016
2275.00,0.0015
2274.00,0.0013
2273.00,0.0013
2272.00,0.0013
2271.00,0.0014
2270.00,0.0015
2269.00,0.0015
2268.00,0.0015
2267.00,0.0014
2266.00,0.0012
2265.00,0.0011
2264.00,0.0010
2263.00,0.0011
2262.00,0.0012
2261.00,0.0014
2260.00,0.0015
2259.00,0.0015
2258.00,0.0015
2257.00,0.0014
2256.00,0.0013
2255.00,0.0012
2254.00,0.0010
2253.00,0.0010
2252.00,0.0009
2251.00,0.0010
2250.00,0.0011
2249.00,0.0011
2248.00,0.0012
2247.00,0.0012
2246.00,0.0011
2245.00,0.0011
2244.00,0.0010
2243.00,0.0010
2242.00,0.0010
2241.00,0.0010
2240.00,0.0009
2239.00,0.0007
2238.00,0.0006
2237.00,0.0006
2236.00,0.0007
2235.00,0.0009
2234.00,0.0010
2233.00,0.0010
2232.00,0.0011
2231.00,0.0011
2230.00,0.0010
2229.00,0.0009
2228.00,0.0008
2227.00,0.0008
2226.00,0.0008
2225.00,0.0010
2224.00,0.0013
2223.00,0.0014
2222.00,0.0014
2221.00,0.0014
2220.00,0.0013
2219.00,0.0012
2218.00,0.0011
2217.00,0.0010
2216.00,0.0009
2215.00,0.0008
2214.00,0.0008
2213.00,0.0008
2212.00,0.0008
2211.00,0.0009
2210.00,0.0009
2209.00,0.0009
2208.00,0.0008
2207.00,0.0009
2206.00,0.0010
2205.00,0.0011
2204.00,0.0012
2203.00,0.0011
2202.00,0.0009
2201.00,0.0008
2200.00,0.0007
2199.00,0.0007
2198.00,0.0006
2197.00,0.0007
2196.00,0.0009
2195.00,0.0011
2194.00,0.0011
2193.00,0.0011
2192.00,0.0010
2191.00,0.0010
2190.00,0.0011
2189.00,0.0013
2188.00,0.0014
2187.00,0.0013
2186.00,0.0012
2185.00,0.0011
2184.00,0.0012
2183.00,0.0011
2182.00,0.0008
2181.00,0.0005
2180.00,0.0002
2179.00,0.0001
2178.00,0.0002
2177.00,0.0004
2176.00,0.0004
2175.00,0.0003
2174.00,0.0002
2173.00,0.0003
2172.00,0.0006
2171.00,0.0011
2170.00,0.0015
2169.00,0.0018
2168.00,0.0018
2167.00,0.0017
2166.00,0.0015
2165.00,0.0014
2164.00,0.0013
2163.00,0.0015
2162.00,0.0018
2161.00,0.0017
2160.00,0.0009
2159.00,-0.0005
2158.00,-0.0020
2157.00,-0.0028
2156.00,-0.0029
2155.00,-0.0026
2154.00,-0.0022
2153.00,-0.0019
2152.00,-0.0016
2151.00,-0.0014
2150.00,-0.0011
2149.00,-0.0008
2148.00,-0.0006
2147.00,-0.0005
2146.00,-0.0006
2145.00,-0.0006
2144.00,-0.0006
2143.00,-0.0005
2142.00,-0.0006
2141.00,-0.0006
2140.00,-0.0007
2139.00,-0.0008
2138.00,-0.0010
2137.00,-0.0012
2136.00,-0.0014
2135.00,-0.0015
2134.00,-0.0016
2133.00,-0.0016
2132.00,-0.0014
2131.00,-0.0011
2130.00,-0.0008
2129.00,-0.0006
2128.00,-0.0005
2127.00,-0.0004
2126.00,-0.0003
2125.00,-0.0004
2124.00,-0.0004
2123.00,-0.0005
2122.00,-0.0005
2121.00,-0.0005
2120.00,-0.0005
2119.00,-0.0004
2118.00,-0.0002
2117.00,-0.0000
2116.00,0.0002
2115.00,0.0004
2114.00,0.0005
2113.00,0.0006
2112.00,0.0006
2111.00,0.0005
2110.00,0.0004
2109.00,0.0004
2108.00,0.0004
2107.00,0.0004
2106.00,0.0005
2105.00,0.0006
2104.00,0.0006
2103.00,0.0006
2102.00,0.0004
2101.00,0.0004
2100.00,0.0004
2099.00,0.0005
2098.00,0.0005
2097.00,0.0004
2096.00,0.0002
2095.00,-0.0001
2094.00,-0.0003
2093.00,-0.0004
2092.00,-0.0002
2091.00,-0.0001
2090.00,0.0001
2089.00,0.0002
2088.00,0.0004
2087.00,0.0005
2086.00,0.0005
2085.00,0.0005
2084.00,0.0005
2083.00,0.0004
2082.00,0.0005
2081.00,0.0005
2080.00,0.0006
2079.00,0.0006
2078.00,0.0006
2077.00,0.0007
2076.00,0.0008
2075.00,0.0008
2074.00,0.0008
2073.00,0.0007
2072.00,0.0007
2071.00,0.0007
2070.00,0.0006
2069.00,0.0005
2068.00,0.0004
2067.00,0.0001
2066.00,0.0000
2065.00,0.0001
2064.00,0.0002
2063.00,0.0003
2062.00,0.0003
2061.00,0.0004
2060.00,0.0005
2059.00,0.0005
2058.00,0.0005
2057.00,0.0004
2056.00,0.0003
2055.00,0.0001
2054.00,0.0001
2053.00,0.0004
2052.00,0.0009
2051.00,0.0014
2050.00,0.0017
2049.00,0.0016
2048.00,0.0014
2047.00,0.0011
2046.00,0.0007
2045.00,0.0005
2044.00,0.0004
2043.00,0.0004
2042.00,0.0003
2041.00,0.0001
2040.00,0.0000
2039.00,0.0002
2038.00,0.0004
2037.00,0.0004
2036.00,0.0004
2035.00,0.0002
2034.00,0.0002
2033.00,0.0002
2032.00,0.0002
2031.00,0.0001
2030.00,-0.0001
2029.00,-0.0005
2028.00,-0.0007
2027.00,-0.0008
2026.00,-0.0006
2025.00,-0.0004
2024.00,-0.0003
2023.00,-0.0006
2022.00,-0.0010
2021.00,-0.0014
2020.00,-0.0015
2019.00,-0.0014
2018.00,-0.0011
2017.00,-0.0008
2016.00,-0.0004
2015.00,-0.0003
2014.00,-0.0003
2013.00,-0.0003
2012.00,-0.0001
2011.00,0.0000
2010.00,0.0000
2009.00,-0.0001
2008.00,-0.0004
2007.00,-0.0007
2006.00,-0.0009
2005.00,-0.0009
2004.00,-0.0007
2003.00,-0.0006
2002.00,-0.0007
2001.00,-0.0009
2000.00,-0.0010
1999.00,-0.0010
1998.00,-0.0008
1997.00,-0.0007
1996.00,-0.0006
1995.00,-0.0006
1994.00,-0.0005
1993.00,-0.0003
1992.00,-0.0002
1991.00,-0.0001
1990.00,-0.0001
1989.00,-0.0000
1988.00,0.0002
1987.00,0.0004
1986.00,0.0007
1985.00,0.0009
1984.00,0.0011
1983.00,0.0012
1982.00,0.0012
1981.00,0.0012
1980.00,0.0009
1979.00,0.0005
1978.00,-0.0001
1977.00,-0.0004
1976.00,-0.0004
1975.00,-0.0004
1974.00,-0.0005
1973.00,-0.0006
1972.00,-0.0006
1971.00,-0.0007
1970.00,-0.0007
1969.00,-0.0008
1968.00,-0.0009
1967.00,-0.0011
1966.00,-0.0013
1965.00,-0.0014
1964.00,-0.0014
1963.00,-0.0014
1962.00,-0.0014
1961.00,-0.0014
1960.00,-0.0014
1959.00,-0.0014
1958.00,-0.0014
1957.00,-0.0012
1956.00,-0.0010
1955.00,-0.0010
1954.00,-0.0010
1953.00,-0.0010
1952.00,-0.0009
1951.00,-0.0008
1950.00,-0.0007
1949.00,-0.0008
1948.00,-0.0009
1947.00,-0.0010
1946.00,-0.0010
1945.00,-0.0009
1944.00,-0.0007
1943.00,-0.0006
1942.00,-0.0006
1941.00,-0.0006
1940.00,-0.0005
1939.00,-0.0004
1938.00,-0.0005
1937.00,-0.0006
1936.00,-0.0007
1935.00,-0.0007
1934.00,-0.0007
1933.00,-0.0007
1932.00,-0.0006
1931.00,-0.0006
1930.00,-0.0005
1929.00,-0.0004
1928.00,-0.0003
1927.00,-0.0003
1926.00,-0.0003
1925.00,-0.0003
1924.00,-0.0003
1923.00,-0.0001
1922.00,-0.0000
1921.00,0.0001
1920.00,0.0002
1919.00,0.0003
1918.00,0.0003
1917.00,0.0002
1916.00,0.0001
1915.00,0.0000
1914.00,-0.0000
1913.00,-0.0001
1912.00,-0.0000
1911.00,0.0000
1910.00,0.0001
1909.00,0.0002
1908.00,0.0002
1907.00,0.0003
1906.00,0.0003
1905.00,0.0003
1904.00,0.0002
1903.00,0.0001
1902.00,-0.0001
1901.00,-0.0001
1900.00,-0.0001
1899.00,0.0001
1898.00,0.0003
1897.00,0.0004
1896.00,0.0004
1895.00,0.0003
1894.00,0.0002
1893.00,0.0002
1892.00,0.0002
1891.00,0.0002
1890.00,0.0003
1889.00,0.0003
1888.00,0.0003
1887.00,0.0003
1886.00,0.0003
1885.00,0.0003
1884.00,0.0003
1883.00,0.0003
1882.00,0.0002
1881.00,0.0002
1880.00,0.0003
1879.00,0.0003
1878.00,0.0004
1877.00,0.0004
1876.00,0.0004
1875.00,0.0004
1874.00,0.0003
1873.00,0.0003
1872.00,0.0002
1871.00,0.0001
1870.00,0.0001
1869.00,0.0001
1868.00,0.0002
1867.00,0.0003
1866.00,0.0004
1865.00,0.0004
1864.00,0.0005
1863.00,0.0004
1862.00,0.0004
1861.00,0.0003
1860.00,0.0002
1859.00,0.0002
1858.00,0.0003
1857.00,0.0004
1856.00,0.0004
1855.00,0.0004
1854.00,0.0004
1853.00,0.0005
1852.00,0.0005
1851.00,0.0005
1850.00,0.0005
1849.00,0.0004
1848.00,0.0004
1847.00,0.0005
1846.00,0.0005
1845.00,0.0006
1844.00,0.0007
1843.00,0.0007
1842.00,0.0006
1841.00,0.0005
1840.00,0.0005
1839.00,0.0005
1838.00,0.0005
1837.00,0.0005
1836.00,0.0006
1835.00,0.0007
1834.00,0.0007
1833.00,0.0007
1832.00,0.0007
1831.00,0.0008
1830.00,0.0008
1829.00,0.0009
1828.00,0.0009
1827.00,0.0008
1826.00,0.0008
1825.00,0.0008
1824.00,0.0008
1823.00,0.0008
1822.00,0.0008
1821.00,0.0008
1820.00,0.0007
1819.00,0.0006
1818.00,0.0006
1817.00,0.0005
1816.00,0.0005
1815.00,0.0005
1814.00,0.0005
1813.00,0.0005
1812.00,0.0006
1811.00,0.0007
1810.00,0.0007
1809.00,0.0008
1808.00,0.0008
1807.00,0.0008
1806.00,0.0008
1805.00,0.0008
1804.00,0.0009
1803.00,0.0009
1802.00,0.0009
1801.00,0.0010
1800.00,0.0010
1799.00,0.0009
1798.00,0.0009
1797.00,0.0010
1796.00,0.0010
1795.00,0.0010
1794.00,0.0010
1793.00,0.0010
1792.00,0.0010
1791.00,0.0010
1790.00,0.0011
1789.00,0.0011
1788.00,0.0011
1787.00,0.0011
1786.00,0.0012
1785.00,0.0012
1784.00,0.0013
1783.00,0.0013
1782.00,0.0013
1781.00,0.0014
1780.00,0.0014
1779.00,0.0013
1778.00,0.0013
1777.00,0.0013
1776.00,0.0014
1775.00,0.0015
1774.00,0.0016
1773.00,0.0017
1772.00,0.0017
1771.00,0.0017
1770.00,0.0017
1769.00,0.0017
1768.00,0.0017
1767.00,0.0018
1766.00,0.0017
1765.00,0.0017
1764.00,0.0018
1763.00,0.0018
1762.00,0.0019
1761.00,0.0020
1760.00,0.0020
1759.00,0.0021
1758.00,0.0023
1757.00,0.0024
1756.00,0.0026
1755.00,0.0027
1754.00,0.0027
1753.00,0.0029
1752.00,0.0031
1751.00,0.0032
1750.00,0.0033
1749.00,0.0033
1748.00,0.0033
1747.00,0.0033
1746.00,0.0033
1745.00,0.0034
1744.00,0.0034
1743.00,0.0034
1742.00,0.0034
1741.00,0.0034
1740.00,0.0034
1739.00,0.0035
1738.00,0.0035
1737.00,0.0034
1736.00,0.0034
1735.00,0.0034
1734.00,0.0034
1733.00,0.0033
1732.00,0.0033
1731.00,0.0032
1730.00,0.0032
1729.00,0.0031
1728.00,0.0030
1727.00,0.0030
1726.00,0.0030
1725.00,0.0031
1724.00,0.0031
1723.00,0.0032
1722.00,0.0032
1721.00,0.0031
1720.00,0.0031
1719.00,0.0030
1718.00,0.0030
1717.00,0.0030
1716.00,0.0030
1715.00,0.0030
1714.00,0.0030
1713.00,0.0030
1712.00,0.0030
1711.00,0.0030
1710.00,0.0029
1709.00,0.0029
1708.00,0.0029
1707.00,0.0029
1706.00,0.0028
1705.00,0.0029
1704.00,0.0029
1703.00,0.0029
1702.00,0.0030
1701.00,0.0031
1700.00,0.0032
1699.00,0.0032
1698.00,0.0032
1697.00,0.0032
1696.00,0.0033
1695.00,0.0035
1694.00,0.0035
1693.00,0.0036
1692.00,0.0036
1691.00,0.0037
1690.00,0.0039
1689.00,0.0040
1688.00,0.0042
1687.00,0.0042
1686.00,0.0043
1685.00,0.0043
1684.00,0.0045
1683.00,0.0045
1682.00,0.0046
1681.00,0.0046
1680.00,0.0048
1679.00,0.0049
1678.00,0.0050
1677.00,0.0051
1676.00,0.0051
1675.00,0.0052
1674.00,0.0052
1673.00,0.0052
1672.00,0.0052
1671.00,0.0052
1670.00,0.0053
1669.00,0.0053
1668.00,0.0054
1667.00,0.0055
1666.00,0.0055
1665.00,0.0055
1664.00,0.0056
1663.00,0.0056
1662.00,0.0056
1661.00,0.0056
1660.00,0.0057
1659.00,0.0057
1658.00,0.0058
1657.00,0.0059
1656.00,0.0059
1655.00,0.0060
1654.00,0.0060
1653.00,0.0060
1652.00,0.0060
1651.00,0.0061
1650.00,0.0061
1649.00,0.0061
1648.00,0.0063
1647.00,0.0064
1646.00,0.0064
1645.00,0.0065
1644.00,0.0065
1643.00,0.0065
1642.00,0.0066
1641.00,0.0066
1640.00,0.0067
1639.00,0.0068
1638.00,0.0069
1637.00,0.0069
1636.00,0.0070
1635.00,0.0070
1634.00,0.0069
1633.00,0.0069
1632.00,0.0068
1631.00,0.0068
1630.00,0.0068
1629.00,0.0068
1628.00,0.0069
1627.00,0.0069
1626.00,0.0069
1625.00,0.0069
1624.00,0.0069
1623.00,0.0069
1622.00,0.0068
1621.00,0.0068
1620.00,0.0068
1619.00,0.0068
1618.00,0.0068
1617.00,0.0067
1616.00,0.0067
1615.00,0.0067
1614.00,0.0066
1613.00,0.0067
1612.00,0.0067
1611.00,0.0068
1610.00,0.0068
1609.00,0.0068
1608.00,0.0068
1607.00,0.0068
1606.00,0.0068
1605.00,0.0068
1604.00,0.0068
1603.00,0.0068
1602.00,0.0068
1601.00,0.0067
1600.00,0.0068
1599.00,0.0068
1598.00,0.0069
1597.00,0.0069
1596.00,0.0069
1595.00,0.0069
1594.00,0.0069
1593.00,0.0070
1592.00,0.0071
1591.00,0.0072
1590.00,0.0073
1589.00,0.0075
1588.00,0.0076
1587.00,0.0078
1586.00,0.0080
1585.00,0.0083
1584.00,0.0087
1583.00,0.0091
1582.00,0.0095
1581.00,0.0099
1580.00,0.0103
1579.00,0.0106
1578.00,0.0108
1577.00,0.0109
1576.00,0.0108
1575.00,0.0106
1574.00,0.0103
1573.00,0.0101
1572.00,0.0098
1571.00,0.0095
1570.00,0.0091
1569.00,0.0087
1568.00,0.0084
1567.00,0.0082
1566.00,0.0081
1565.00,0.0080
1564.00,0.0079
1563.00,0.0079
1562.00,0.0079
1561.00,0.0079
1560.00,0.0078
1559.00,0.0077
1558.00,0.0075
1557.00,0.0075
1556.00,0.0076
1555.00,0.0077
1554.00,0.0078
1553.00,0.0078
1552.00,0.0079
1551.00,0.0081
1550.00,0.0083
1549.00,0.0086
1548.00,0.0089
1547.00,0.0092
1546.00,0.0097
1545.00,0.0102
1544.00,0.0108
1543.00,0.0112
1542.00,0.0115
1541.00,0.0116
1540.00,0.0113
1539.00,0.0108
1538.00,0.0103
1537.00,0.0099
1536.00,0.0095
1535.00,0.0090
1534.00,0.0084
1533.00,0.0079
1532.00,0.0075
1531.00,0.0073
1530.00,0.0071
1529.00,0.0070
1528.00,0.0069
1527.00,0.0067
1526.00,0.0066
1525.00,0.0065
1524.00,0.0065
1523.00,0.0065
1522.00,0.0065
1521.00,0.0066
1520.00,0.0066
1519.00,0.0065
1518.00,0.0065
1517.00,0.0066
1516.00,0.0067
1515.00,0.0067
1514.00,0.0068
1513.00,0.0069
1512.00,0.0070
1511.00,0.0070
1510.00,0.0071
1509.00,0.0072
1508.00,0.0074
1507.00,0.0074
1506.00,0.0074
1505.00,0.0075
1504.00,0.0077
1503.00,0.0078
1502.00,0.0080
1501.00,0.0083
1500.00,0.0086
1499.00,0.0089
1498.00,0.0093
1497.00,0.0097
1496.00,0.0101
1495.00,0.0104
1494.00,0.0107
1493.00,0.0110
1492.00,0.0115
1491.00,0.0120
1490.00,0.0125
1489.00,0.0132
1488.00,0.0138
1487.00,0.0144
1486.00,0.0150
1485.00,0.0158
1484.00,0.0167
1483.00,0.0176
1482.00,0.0187
1481.00,0.0201
1480.00,0.0216
1479.00,0.0231
1478.00,0.0248
1477.00,0.0270
1476.00,0.0298
1475.00,0.0329
1474.00,0.0370
1473.00,0.0425
1472.00,0.0488
1471.00,0.0547
1470.00,0.0604
1469.00,0.0665
1468.00,0.0734
1467.00,0.0811
1466.00,0.0901
1465.00,0.1000
1464.00,0.1085
1463.00,0.1144
1462.00,0.1179
1461.00,0.1202
1460.00,0.1216
1459.00,0.1224
1458.00,0.1229
1457.00,0.1231
1456.00,0.1224
1455.00,0.1211
1454.00,0.1194
1453.00,0.1172
1452.00,0.1140
1451.00,0.1099
1450.00,0.1045
1449.00,0.0973
1448.00,0.0884
1447.00,0.0791
1446.00,0.0708
1445.00,0.0639
1444.00,0.0580
1443.00,0.0532
1442.00,0.0497
1441.00,0.0473
1440.00,0.0459
1439.00,0.0454
1438.00,0.0457
1437.00,0.0461
1436.00,0.0454
1435.00,0.0431
1434.00,0.0395
1433.00,0.0352
1432.00,0.0307
1431.00,0.0267
1430.00,0.0236
1429.00,0.0213
1428.00,0.0198
1427.00,0.0188
1426.00,0.0183
1425.00,0.0178
1424.00,0.0173
1423.00,0.0171
1422.00,0.0169
1421.00,0.0167
1420.00,0.0165
1419.00,0.0163
1418.00,0.0162
1417.00,0.0160
1416.00,0.0159
1415.00,0.0158
1414.00,0.0158
1413.00,0.0158
1412.00,0.0157
1411.00,0.0157
1410.00,0.0159
1409.00,0.0160
1408.00,0.0160
1407.00,0.0162
1406.00,0.0165
1405.00,0.0169
1404.00,0.0172
1403.00,0.0177
1402.00,0.0182
1401.00,0.0186
1400.00,0.0191
1399.00,0.0198
1398.00,0.0204
1397.00,0.0210
1396.00,0.0216
1395.00,0.0224
1394.00,0.0231
1393.00,0.0237
1392.00,0.0243
1391.00,0.0250
1390.00,0.0260
1389.00,0.0275
1388.00,0.0296
1387.00,0.0328
1386.00,0.0371
1385.00,0.0426
1384.00,0.0504
1383.00,0.0614
1382.00,0.0763
1381.00,0.0957
1380.00,0.1198
1379.00,0.1473
1378.00,0.1738
1377.00,0.1932
1376.00,0.1997
1375.00,0.1899
1374.00,0.1667
1373.00,0.1387
1372.00,0.1129
1371.00,0.0917
1370.00,0.0746
1369.00,0.0617
1368.00,0.0528
1367.00,0.0472
1366.00,0.0441
1365.00,0.0427
1364.00,0.0427
1363.00,0.0439
1362.00,0.0459
1361.00,0.0481
1360.00,0.0497
1359.00,0.0501
1358.00,0.0489
1357.00,0.0463
1356.00,0.0425
1355.00,0.0384
1354.00,0.0343
1353.00,0.0309
1352.00,0.0281
1351.00,0.0258
1350.00,0.0239
1349.00,0.0223
1348.00,0.0210
1347.00,0.0199
1346.00,0.0189
1345.00,0.0182
1344.00,0.0175
1343.00,0.0170
1342.00,0.0165
1341.00,0.0161
1340.00,0.0158
1339.00,0.0156
1338.00,0.0155
1337.00,0.0155
1336.00,0.0155
1335.00,0.0156
1334.00,0.0158
1333.00,0.0161
1332.00,0.0164
1331.00,0.0167
1330.00,0.0168
1329.00,0.0166
1328.00,0.0162
1327.00,0.0155
1326.00,0.0149
1325.00,0.0142
1324.00,0.0136
1323.00,0.0130
1322.00,0.0126
1321.00,0.0122
1320.00,0.0119
1319.00,0.0117
1318.00,0.0115
1317.00,0.0113
1316.00,0.0111
1315.00,0.0109
1314.00,0.0109
1313.00,0.0108
1312.00,0.0108
1311.00,0.0109
1310.00,0.0112
1309.00,0.0116
1308.00,0.0123
1307.00,0.0132
1306.00,0.0142
1305.00,0.0148
1304.00,0.0151
1303.00,0.0149
1302.00,0.0146
1301.00,0.0143
1300.00,0.0143
1299.00,0.0144
1298.00,0.0145
1297.00,0.0146
1296.00,0.0145
1295.00,0.0143
1294.00,0.0139
1293.00,0.0135
1292.00,0.0130
1291.00,0.0125
1290.00,0.0121
1289.00,0.0118
1288.00,0.0116
1287.00,0.0114
1286.00,0.0112
1285.00,0.0110
1284.00,0.0108
1283.00,0.0107
1282.00,0.0106
1281.00,0.0106
1280.00,0.0107
1279.00,0.0107
1278.00,0.0109
1277.00,0.0109
1276.00,0.0111
1275.00,0.0112
1274.00,0.0114
1273.00,0.0116
1272.00,0.0118
1271.00,0.0121
1270.00,0.0125
1269.00,0.0128
1268.00,0.0132
1267.00,0.0136
1266.00,0.0140
1265.00,0.0144
1264.00,0.0149
1263.00,0.0153
1262.00,0.0157
1261.00,0.0160
1260.00,0.0165
1259.00,0.0170
1258.00,0.0177
1257.00,0.0182
1256.00,0.0186
1255.00,0.0186
1254.00,0.0182
1253.00,0.0176
1252.00,0.0170
1251.00,0.0164
1250.00,0.0158
1249.00,0.0154
1248.00,0.0150
1247.00,0.0146
1246.00,0.0143
1245.00,0.0141
1244.00,0.0140
1243.00,0.0139
1242.00,0.0138
1241.00,0.0137
1240.00,0.0136
1239.00,0.0134
1238.00,0.0133
1237.00,0.0132
1236.00,0.0130
1235.00,0.0129
1234.00,0.0128
1233.00,0.0127
1232.00,0.0126
1231.00,0.0125
1230.00,0.0125
1229.00,0.0124
1228.00,0.0124
1227.00,0.0124
1226.00,0.0125
1225.00,0.0127
1224.00,0.0129
1223.00,0.0132
1222.00,0.0134
1221.00,0.0136
1220.00,0.0137
1219.00,0.0137
1218.00,0.0135
1217.00,0.0132
1216.00,0.0128
1215.00,0.0125
1214.00,0.0121
1213.00,0.0118
1212.00,0.0115
1211.00,0.0112
1210.00,0.0111
1209.00,0.0109
1208.00,0.0108
1207.00,0.0107
1206.00,0.0107
1205.00,0.0106
1204.00,0.0105
1203.00,0.0105
1202.00,0.0105
1201.00,0.0106
1200.00,0.0107
1199.00,0.0108
1198.00,0.0109
1197.00,0.0111
1196.00,0.0111
1195.00,0.0112
1194.00,0.0112
1193.00,0.0113
1192.00,0.0114
1191.00,0.0115
1190.00,0.0116
1189.00,0.0118
1188.00,0.0120
1187.00,0.0122
1186.00,0.0126
1185.00,0.0129
1184.00,0.0132
1183.00,0.0135
1182.00,0.0139
1181.00,0.0143
1180.00,0.0148
1179.00,0.0154
1178.00,0.0162
1177.00,0.0170
1176.00,0.0181
1175.00,0.0195
1174.00,0.0214
1173.00,0.0236
1172.00,0.0262
1171.00,0.0290
1170.00,0.0317
1169.00,0.0340
1168.00,0.0354
1167.00,0.0358
1166.00,0.0354
1165.00,0.0344
1164.00,0.0332
1163.00,0.0321
1162.00,0.0311
1161.00,0.0304
1160.00,0.0300
1159.00,0.0297
1158.00,0.0296
1157.00,0.0296
1156.00,0.0296
1155.00,0.0295
1154.00,0.0294
1153.00,0.0291
1152.00,0.0287
1151.00,0.0281
1150.00,0.0273
1149.00,0.0263
1148.00,0.0254
1147.00,0.0244
1146.00,0.0234
1145.00,0.0224
1144.00,0.0215
1143.00,0.0207
1142.00,0.0200
1141.00,0.0193
1140.00,0.0188
1139.00,0.0182
1138.00,0.0177
1137.00,0.0172
1136.00,0.0166
1135.00,0.0162
1134.00,0.0159
1133.00,0.0157
1132.00,0.0156
1131.00,0.0155
1130.00,0.0155
1129.00,0.0154
1128.00,0.0153
1127.00,0.0152
1126.00,0.0152
1125.00,0.0151
1124.00,0.0150
1123.00,0.0149
1122.00,0.0148
1121.00,0.0148
1120.00,0.0148
1119.00,0.0147
1118.00,0.0147
1117.00,0.0146
1116.00,0.0145
1115.00,0.0145
1114.00,0.0145
1113.00,0.0146
1112.00,0.0147
1111.00,0.0149
1110.00,0.0151
1109.00,0.0154
1108.00,0.0158
1107.00,0.0164
1106.00,0.0171
1105.00,0.0178
1104.00,0.0184
1103.00,0.0186
1102.00,0.0186
1101.00,0.0183
1100.00,0.0180
1099.00,0.0176
1098.00,0.0171
1097.00,0.0168
1096.00,0.0165
1095.00,0.0163
1094.00,0.0162
1093.00,0.0161
1092.00,0.0161
1091.00,0.0161
1090.00,0.0161
1089.00,0.0162
1088.00,0.0162
1087.00,0.0162
1086.00,0.0162
1085.00,0.0162
1084.00,0.0163
1083.00,0.0163
1082.00,0.0163
1081.00,0.0163
1080.00,0.0161
1079.00,0.0160
1078.00,0.0158
1077.00,0.0158
1076.00,0.0158
1075.00,0.0159
1074.00,0.0159
1073.00,0.0159
1072.00,0.0159
1071.00,0.0157
1070.00,0.0156
1069.00,0.0154
1068.00,0.0151
1067.00,0.0148
1066.00,0.0145
1065.00,0.0143
1064.00,0.0142
1063.00,0.0141
1062.00,0.0141
1061.00,0.0141
1060.00,0.0141
1059.00,0.0141
1058.00,0.0141
1057.00,0.0140
1056.00,0.0139
1055.00,0.0139
1054.00,0.0140
1053.00,0.0141
1052.00,0.0143
1051.00,0.0144
1050.00,0.0145
1049.00,0.0146
1048.00,0.0148
1047.00,0.0150
1046.00,0.0152
1045.00,0.0153
1044.00,0.0153
1043.00,0.0152
1042.00,0.0150
1041.00,0.0148
1040.00,0.0147
1039.00,0.0147
1038.00,0.0147
1037.00,0.0147
1036.00,0.0147
1035.00,0.0146
1034.00,0.0144
1033.00,0.0142
1032.00,0.0140
1031.00,0.0137
1030.00,0.0136
1029.00,0.0135
1028.00,0.0134
1027.00,0.0134
1026.00,0.0135
1025.00,0.0137
1024.00,0.0140
1023.00,0.0143
1022.00,0.0146
1021.00,0.0148
1020.00,0.0148
1019.00,0.0149
1018.00,0.0149
1017.00,0.0150
1016.00,0.0150
1015.00,0.0151
1014.00,0.0152
1013.00,0.0152
1012.00,0.0153
1011.00,0.0153
1010.00,0.0153
1009.00,0.0152
1008.00,0.0153
1007.00,0.0155
1006.00,0.0160
1005.00,0.0168
1004.00,0.0180
1003.00,0.0197
1002.00,0.0220
1001.00,0.0248
1000.00,0.0279
999.00,0.0304
998.00,0.0316
997.00,0.0309
996.00,0.0285
995.00,0.0253
994.00,0.0220
993.00,0.0192
992.00,0.0169
991.00,0.0153
990.00,0.0141
989.00,0.0133
988.00,0.0128
987.00,0.0126
986.00,0.0126
985.00,0.0129
984.00,0.0135
983.00,0.0143
982.00,0.0155
981.00,0.0172
980.00,0.0195
979.00,0.0224
978.00,0.0260
977.00,0.0301
976.00,0.0344
975.00,0.0384
974.00,0.0412
973.00,0.0423
972.00,0.0412
971.00,0.0383
970.00,0.0344
969.00,0.0304
968.00,0.0270
967.00,0.0243
966.00,0.0222
965.00,0.0207
964.00,0.0196
963.00,0.0187
962.00,0.0181
961.00,0.0177
960.00,0.0175
959.00,0.0174
958.00,0.0175
957.00,0.0175
956.00,0.0174
955.00,0.0173
954.00,0.0172
953.00,0.0170
952.00,0.0167
951.00,0.0164
950.00,0.0162
949.00,0.0160
948.00,0.0159
947.00,0.0159
946.00,0.0158
945.00,0.0159
944.00,0.0160
943.00,0.0162
942.00,0.0164
941.00,0.0164
940.00,0.0162
939.00,0.0156
938.00,0.0149
937.00,0.0141
936.00,0.0133
935.00,0.0126
934.00,0.0119
933.00,0.0113
932.00,0.0107
931.00,0.0102
930.00,0.0097
929.00,0.0094
928.00,0.0091
927.00,0.0089
926.00,0.0088
925.00,0.0086
924.00,0.0084
923.00,0.0082
922.00,0.0080
921.00,0.0079
920.00,0.0078
919.00,0.0076
918.00,0.0075
917.00,0.0074
916.00,0.0074
915.00,0.0075
914.00,0.0076
913.00,0.0078
912.00,0.0079
911.00,0.0081
910.00,0.0083
909.00,0.0085
908.00,0.0088
907.00,0.0092
906.00,0.0099
905.00,0.0109
904.00,0.0123
903.00,0.0141
902.00,0.0160
901.00,0.0177
900.00,0.0189
899.00,0.0190
898.00,0.0182
897.00,0.0166
896.00,0.0147
895.00,0.0129
894.00,0.0114
893.00,0.0102
892.00,0.0094
891.00,0.0088
890.00,0.0084
889.00,0.0082
888.00,0.0081
887.00,0.0081
886.00,0.0080
885.00,0.0079
884.00,0.0079
883.00,0.0078
882.00,0.0079
881.00,0.0079
880.00,0.0079
879.00,0.0079
878.00,0.0079
877.00,0.0080
876.00,0.0082
875.00,0.0084
874.00,0.0085
873.00,0.0085
872.00,0.0085
871.00,0.0084
870.00,0.0082
869.00,0.0081
868.00,0.0081
867.00,0.0081
866.00,0.0082
865.00,0.0083
864.00,0.0083
863.00,0.0083
862.00,0.0084
861.00,0.0085
860.00,0.0087
859.00,0.0089
858.00,0.0090
857.00,0.0091
856.00,0.0092
855.00,0.0094
854.00,0.0096
853.00,0.0097
852.00,0.0100
851.00,0.0103
850.00,0.0106
849.00,0.0110
848.00,0.0117
847.00,0.0129
846.00,0.0148
845.00,0.0175
844.00,0.0211
843.00,0.0251
842.00,0.0282
841.00,0.0290
840.00,0.0270
839.00,0.0234
838.00,0.0195
837.00,0.0166
836.00,0.0147
835.00,0.0136
834.00,0.0131
833.00,0.0128
832.00,0.0127
831.00,0.0125
830.00,0.0123
829.00,0.0122
828.00,0.0120
827.00,0.0119
826.00,0.0117
825.00,0.0115
824.00,0.0114
823.00,0.0114
822.00,0.0115
821.00,0.0116
820.00,0.0119
819.00,0.0123
818.00,0.0128
817.00,0.0135
816.00,0.0144
815.00,0.0156
814.00,0.0171
813.00,0.0189
812.00,0.0209
811.00,0.0227
810.00,0.0241
809.00,0.0246
808.00,0.0242
807.00,0.0230
806.00,0.0213
805.00,0.0193
804.00,0.0175
803.00,0.0160
802.00,0.0150
801.00,0.0142
800.00,0.0136
799.00,0.0130
798.00,0.0123
797.00,0.0117
796.00,0.0112
795.00,0.0108
794.00,0.0105
793.00,0.0102
792.00,0.0098
791.00,0.0094
790.00,0.0090
789.00,0.0087
788.00,0.0084
787.00,0.0082
786.00,0.0080
785.00,0.0078
784.00,0.0076
783.00,0.0074
782.00,0.0072
781.00,0.0070
780.00,0.0070
779.00,0.0071
778.00,0.0072
777.00,0.0072
776.00,0.0072
775.00,0.0071
774.00,0.0071
773.00,0.0070
772.00,0.0070
771.00,0.0069
770.00,0.0070
769.00,0.0070
768.00,0.0071
767.00,0.0072
766.00,0.0073
765.00,0.0073
764.00,0.0075
763.00,0.0076
762.00,0.0077
761.00,0.0077
760.00,0.0077
759.00,0.0076
758.00,0.0076
757.00,0.0077
756.00,0.0077
755.00,0.0079
754.00,0.0080
753.00,0.0082
752.00,0.0083
751.00,0.0084
750.00,0.0085
749.00,0.0086
748.00,0.0086
747.00,0.0086
746.00,0.0085
745.00,0.0086
744.00,0.0088
743.00,0.0092
742.00,0.0096
741.00,0.0099
740.00,0.0103
739.00,0.0107
738.00,0.0111
737.00,0.0115
736.00,0.0118
735.00,0.0121
734.00,0.0125
733.00,0.0129
732.00,0.0135
731.00,0.0140
730.00,0.0144
729.00,0.0146
728.00,0.0147
727.00,0.0148
726.00,0.0151
725.00,0.0154
724.00,0.0157
723.00,0.0158
722.00,0.0159
721.00,0.0160
720.00,0.0159
719.00,0.0154
718.00,0.0146
717.00,0.0137
716.00,0.0128
715.00,0.0121
714.00,0.0116
713.00,0.0112
712.00,0.0110
711.00,0.0110
710.00,0.0109
709.00,0.0108
708.00,0.0107
707.00,0.0107
706.00,0.0107
705.00,0.0107
704.00,0.0108
703.00,0.0108
702.00,0.0106
701.00,0.0105
700.00,0.0103
699.00,0.0102
698.00,0.0102
697.00,0.0102
696.00,0.0101
695.00,0.0101
694.00,0.0100
693.00,0.0099
692.00,0.0099
691.00,0.0101
690.00,0.0103
689.00,0.0104
688.00,0.0104
687.00,0.0103
686.00,0.0102
685.00,0.0102
684.00,0.0103
683.00,0.0105
682.00,0.0107
681.00,0.0107
680.00,0.0106
679.00,0.0104
678.00,0.0104
677.00,0.0104
676.00,0.0106
675.00,0.0109
674.00,0.0113
673.00,0.0116
672.00,0.0117
671.00,0.0117
670.00,0.0115
669.00,0.0112
668.00,0.0111
667.00,0.0112
666.00,0.0111
665.00,0.0109
664.00,0.0106
663.00,0.0104
662.00,0.0102
661.00,0.0100
660.00,0.0099
659.00,0.0098
658.00,0.0099
657.00,0.0100
656.00,0.0101
655.00,0.0099
654.00,0.0097
653.00,0.0095
652.00,0.0094
651.00,0.0094
650.00,0.0095
649.00,0.0096
648.00,0.0098
647.00,0.0099
646.00,0.0098
645.00,0.0096
644.00,0.0093
643.00,0.0090
642.00,0.0087
641.00,0.0086
640.00,0.0085
639.00,0.0088
638.00,0.0093
637.00,0.0097
636.00,0.0098
635.00,0.0096
634.00,0.0093
633.00,0.0089
632.00,0.0088
631.00,0.0089
630.00,0.0090
629.00,0.0091
628.00,0.0091
627.00,0.0090
626.00,0.0090
625.00,0.0090
624.00,0.0090
623.00,0.0088
622.00,0.0086
621.00,0.0086
620.00,0.0086
619.00,0.0088
618.00,0.0091
617.00,0.0093
616.00,0.0094
615.00,0.0093
614.00,0.0091
613.00,0.0089
612.00,0.0087
611.00,0.0087
610.00,0.0089
609.00,0.0090
608.00,0.0091
607.00,0.0092
606.00,0.0093
605.00,0.0094
604.00,0.0094
603.00,0.0094
602.00,0.0093
601.00,0.0091
600.00,0.0088
599.00,0.0086
598.00,0.0085
597.00,0.0087
596.00,0.0089
595.00,0.0090
594.00,0.0090
593.00,0.0090
592.00,0.0088
591.00,0.0086
590.00,0.0085
589.00,0.0086
588.00,0.0087
587.00,0.0088
586.00,0.0088
585.00,0.0088
584.00,0.0090
583.00,0.0093
582.00,0.0096
581.00,0.0097
580.00,0.0096
579.00,0.0093
578.00,0.0091
577.00,0.0091
576.00,0.0091
575.00,0.0092
574.00,0.0091
573.00,0.0089
572.00,0.0087
571.00,0.0086
570.00,0.0087
569.00,0.0089
568.00,0.0090
567.00,0.0090
566.00,0.0090
565.00,0.0090
564.00,0.0089
563.00,0.0089
562.00,0.0087
561.00,0.0085
560.00,0.0084
559.00,0.0085
558.00,0.0085
557.00,0.0085
556.00,0.0084
555.00,0.0084
554.00,0.0087
553.00,0.0092
552.00,0.0098
551.00,0.0101
550.00,0.0102
549.00,0.0101
548.00,0.0099
547.00,0.0097
546.00,0.0095
545.00,0.0092
544.00,0.0091
543.00,0.0092
542.00,0.0093
541.00,0.0093
540.00,0.0092
539.00,0.0092
538.00,0.0094
537.00,0.0097
536.00,0.0102
535.00,0.0107
534.00,0.0111
533.00,0.0114
532.00,0.0116
531.00,0.0117
530.00,0.0117
529.00,0.0117
528.00,0.0117
527.00,0.0117
526.00,0.0117
525.00,0.0113
524.00,0.0107
523.00,0.0104
522.00,0.0102
521.00,0.0100
520.00,0.0097
519.00,0.0093
518.00,0.0093
517.00,0.0096
516.00,0.0098
515.00,0.0099
514.00,0.0097
513.00,0.0094
512.00,0.0091
511.00,0.0093
510.00,0.0100
509.00,0.0106
508.00,0.0106
507.00,0.0099
506.00,0.0092
505.00,0.0090
504.00,0.0092
503.00,0.0095
502.00,0.0096
501.00,0.0097
500.00,0.0099
499.00,0.0099
498.00,0.0099
497.00,0.0098
496.00,0.0100
495.00,0.0104
494.00,0.0111
493.00,0.0118
492.00,0.0120
491.00,0.0114
490.00,0.0102
489.00,0.0090
488.00,0.0089
487.00,0.0100
486.00,0.0120
485.00,0.0137
484.00,0.0142
483.00,0.0132
482.00,0.0116
481.00,0.0103
480.00,0.0096
479.00,0.0098
478.00,0.0106
477.00,0.0120
476.00,0.0135
475.00,0.0148
474.00,0.0153
473.00,0.0151
472.00,0.0149
471.00,0.0150
470.00,0.0155
469.00,0.0159
468.00,0.0161
467.00,0.0165
466.00,0.0176
465.00,0.0188
464.00,0.0196
463.00,0.0194
462.00,0.0189
461.00,0.0187
460.00,0.0191
459.00,0.0198
458.00,0.0204
457.00,0.0207
456.00,0.0208
455.00,0.0207
454.00,0.0207
453.00,0.0206
452.00,0.0200
451.00,0.0189
450.00,0.0175
