Created as New Dataset,Sample 042 By Administrator Date Thursday, September 04 2025
cm-1,A
4000.00,0.0008
3999.00,0.0008
3998.00,0.0008
3997.00,0.0009
3996.00,0.0009
3995.00,0.0009
3994.00,0.0009
3993.00,0.0009
3992.00,0.0009
3991.00,0.0009
3990.00,0.0008
3989.00,0.0008
3988.00,0.0008
3987.00,0.0007
3986.00,0.0007
3985.00,0.0007
3984.00,0.0007
3983.00,0.0007
3982.00,0.0007
3981.00,0.0007
3980.00,0.0007
3979.00,0.0007
3978.00,0.0007
3977.00,0.0007
3976.00,0.0007
3975.00,0.0007
3974.00,0.0007
3973.00,0.0007
3972.00,0.0007
3971.00,0.0007
3970.00,0.0007
3969.00,0.0007
3968.00,0.0007
3967.00,0.0007
3966.00,0.0007
3965.00,0.0007
3964.00,0.0006
3963.00,0.0006
3962.00,0.0006
3961.00,0.0006
3960.00,0.0006
3959.00,0.0007
3958.00,0.0007
3957.00,0.0007
3956.00,0.0006
3955.00,0.0006
3954.00,0.0006
3953.00,0.0006
3952.00,0.0006
3951.00,0.0006
3950.00,0.0006
3949.00,0.0006
3948.00,0.0006
3947.00,0.0006
3946.00,0.0006
3945.00,0.0006
3944.00,0.0006
3943.00,0.0006
3942.00,0.0007
3941.00,0.0007
3940.00,0.0007
3939.00,0.0006
3938.00,0.0006
3937.00,0.0006
3936.00,0.0006
3935.00,0.0006
3934.00,0.0006
3933.00,0.0006
3932.00,0.0006
3931.00,0.0006
3930.00,0.0006
3929.00,0.0007
3928.00,0.0007
3927.00,0.0007
3926.00,0.0007
3925.00,0.0006
3924.00,0.0006
3923.00,0.0006
3922.00,0.0006
3921.00,0.0006
3920.00,0.0006
3919.00,0.0006
3918.00,0.0006
3917.00,0.0006
3916.00,0.0007
3915.00,0.0006
3914.00,0.0006
3913.00,0.0006
3912.00,0.0006
3911.00,0.0006
3910.00,0.0006
3909.00,0.0006
3908.00,0.0006
3907.00,0.0007
3906.00,0.0006
3905.00,0.0006
3904.00,0.0006
3903.00,0.0006
3902.00,0.0006
3901.00,0.0006
3900.00,0.0006
3899.00,0.0006
3898.00,0.0006
3897.00,0.0006
3896.00,0.0006
3895.00,0.0006
3894.00,0.0006
3893.00,0.0006
3892.00,0.0006
3891.00,0.0006
3890.00,0.0006
3889.00,0.0006
3888.00,0.0006
3887.00,0.0006
3886.00,0.0006
3885.00,0.0006
3884.00,0.0006
3883.00,0.0006
3882.00,0.0006
3881.00,0.0006
3880.00,0.0006
3879.00,0.0006
3878.00,0.0006
3877.00,0.0006
3876.00,0.0005
3875.00,0.0005
3874.00,0.0005
3873.00,0.0006
3872.00,0.0006
3871.00,0.0005
3870.00,0.0005
3869.00,0.0005
3868.00,0.0005
3867.00,0.0005
3866.00,0.0005
3865.00,0.0005
3864.00,0.0006
3863.00,0.0006
3862.00,0.0006
3861.00,0.0005
3860.00,0.0005
3859.00,0.0005
3858.00,0.0005
3857.00,0.0006
3856.00,0.0006
3855.00,0.0006
3854.00,0.0005
3853.00,0.0005
3852.00,0.0005
3851.00,0.0005
3850.00,0.0005
3849.00,0.0004
3848.00,0.0005
3847.00,0.0005
3846.00,0.0005
3845.00,0.0006
3844.00,0.0006
3843.00,0.0006
3842.00,0.0005
3841.00,0.0005
3840.00,0.0005
3839.00,0.0004
3838.00,0.0004
3837.00,0.0004
3836.00,0.0004
3835.00,0.0005
3834.00,0.0005
3833.00,0.0005
3832.00,0.0005
3831.00,0.0005
3830.00,0.0005
3829.00,0.0004
3828.00,0.0004
3827.00,0.0004
3826.00,0.0004
3825.00,0.0005
3824.00,0.0005
3823.00,0.0005
3822.00,0.0005
3821.00,0.0005
3820.00,0.0005
3819.00,0.0005
3818.00,0.0005
3817.00,0.0005
3816.00,0.0005
3815.00,0.0005
3814.00,0.0005
3813.00,0.0006
3812.00,0.0006
3811.00,0.0006
3810.00,0.0006
3809.00,0.0006
3808.00,0.0006
3807.00,0.0006
3806.00,0.0006
3805.00,0.0006
3804.00,0.0006
3803.00,0.0006
3802.00,0.0005
3801.00,0.0005
3800.00,0.0005
3799.00,0.0005
3798.00,0.0005
3797.00,0.0005
3796.00,0.0005
3795.00,0.0005
3794.00,0.0005
3793.00,0.0005
3792.00,0.0005
3791.00,0.0005
3790.00,0.0005
3789.00,0.0005
3788.00,0.0006
3787.00,0.0006
3786.00,0.0005
3785.00,0.0005
3784.00,0.0005
3783.00,0.0005
3782.00,0.0005
3781.00,0.0005
3780.00,0.0005
3779.00,0.0005
3778.00,0.0005
3777.00,0.0005
3776.00,0.0006
3775.00,0.0006
3774.00,0.0006
3773.00,0.0006
3772.00,0.0006
3771.00,0.0006
3770.00,0.0006
3769.00,0.0006
3768.00,0.0006
3767.00,0.0007
3766.00,0.0007
3765.00,0.0007
3764.00,0.0007
3763.00,0.0006
3762.00,0.0006
3761.00,0.0006
3760.00,0.0005
3759.00,0.0005
3758.00,0.0004
3757.00,0.0004
3756.00,0.0004
3755.00,0.0004
3754.00,0.0004
3753.00,0.0004
3752.00,0.0004
3751.00,0.0005
3750.00,0.0005
3749.00,0.0004
3748.00,0.0005
3747.00,0.0005
3746.00,0.0005
3745.00,0.0004
3744.00,0.0004
3743.00,0.0004
3742.00,0.0004
3741.00,0.0004
3740.00,0.0004
3739.00,0.0004
3738.00,0.0004
3737.00,0.0003
3736.00,0.0003
3735.00,0.0003
3734.00,0.0004
3733.00,0.0004
3732.00,0.0003
3731.00,0.0003
3730.00,0.0003
3729.00,0.0003
3728.00,0.0003
3727.00,0.0003
3726.00,0.0003
3725.00,0.0003
3724.00,0.0003
3723.00,0.0003
3722.00,0.0003
3721.00,0.0003
3720.00,0.0004
3719.00,0.0004
3718.00,0.0004
3717.00,0.0004
3716.00,0.0004
3715.00,0.0004
3714.00,0.0003
3713.00,0.0003
3712.00,0.0003
3711.00,0.0004
3710.00,0.0004
3709.00,0.0004
3708.00,0.0004
3707.00,0.0004
3706.00,0.0004
3705.00,0.0004
3704.00,0.0005
3703.00,0.0005
3702.00,0.0005
3701.00,0.0005
3700.00,0.0005
3699.00,0.0004
3698.00,0.0004
3697.00,0.0004
3696.00,0.0004
3695.00,0.0004
3694.00,0.0004
3693.00,0.0004
3692.00,0.0004
3691.00,0.0005
3690.00,0.0005
3689.00,0.0005
3688.00,0.0005
3687.00,0.0005
3686.00,0.0005
3685.00,0.0005
3684.00,0.0005
3683.00,0.0005
3682.00,0.0004
3681.00,0.0004
3680.00,0.0004
3679.00,0.0004
3678.00,0.0004
3677.00,0.0003
3676.00,0.0003
3675.00,0.0003
3674.00,0.0002
3673.00,0.0002
3672.00,0.0002
3671.00,0.0003
3670.00,0.0003
3669.00,0.0004
3668.00,0.0004
3667.00,0.0004
3666.00,0.0004
3665.00,0.0004
3664.00,0.0004
3663.00,0.0004
3662.00,0.0004
3661.00,0.0004
3660.00,0.0004
3659.00,0.0004
3658.00,0.0005
3657.00,0.0005
3656.00,0.0005
3655.00,0.0004
3654.00,0.0004
3653.00,0.0004
3652.00,0.0003
3651.00,0.0002
3650.00,0.0002
3649.00,0.0002
3648.00,0.0002
3647.00,0.0003
3646.00,0.0003
3645.00,0.0004
3644.00,0.0005
3643.00,0.0005
3642.00,0.0005
3641.00,0.0006
3640.00,0.0006
3639.00,0.0006
3638.00,0.0005
3637.00,0.0005
3636.00,0.0005
3635.00,0.0005
3634.00,0.0005
3633.00,0.0005
3632.00,0.0005
3631.00,0.0005
3630.00,0.0006
3629.00,0.0006
3628.00,0.0007
3627.00,0.0007
3626.00,0.0007
3625.00,0.0007
3624.00,0.0007
3623.00,0.0006
3622.00,0.0006
3621.00,0.0006
3620.00,0.0006
3619.00,0.0006
3618.00,0.0007
3617.00,0.0007
3616.00,0.0008
3615.00,0.0008
3614.00,0.0008
3613.00,0.0008
3612.00,0.0008
3611.00,0.0008
3610.00,0.0008
3609.00,0.0008
3608.00,0.0009
3607.00,0.0009
3606.00,0.0010
3605.00,0.0010
3604.00,0.0010
3603.00,0.0010
3602.00,0.0010
3601.00,0.0010
3600.00,0.0011
3599.00,0.0011
3598.00,0.0011
3597.00,0.0011
3596.00,0.0011
3595.00,0.0011
3594.00,0.0011
3593.00,0.0011
3592.00,0.0011
3591.00,0.0011
3590.00,0.0011
3589.00,0.0011
3588.00,0.0010
3587.00,0.0011
3586.00,0.0011
3585.00,0.0011
3584.00,0.0012
3583.00,0.0012
3582.00,0.0013
3581.00,0.0013
3580.00,0.0013
3579.00,0.0013
3578.00,0.0013
3577.00,0.0013
3576.00,0.0014
3575.00,0.0014
3574.00,0.0014
3573.00,0.0014
3572.00,0.0015
3571.00,0.0015
3570.00,0.0015
3569.00,0.0015
3568.00,0.0015
3567.00,0.0014
3566.00,0.0014
3565.00,0.0015
3564.00,0.0015
3563.00,0.0015
3562.00,0.0016
3561.00,0.0017
3560.00,0.0017
3559.00,0.0017
3558.00,0.0018
3557.00,0.0018
3556.00,0.0018
3555.00,0.0018
3554.00,0.0019
3553.00,0.0019
3552.00,0.0019
3551.00,0.0019
3550.00,0.0019
3549.00,0.0019
3548.00,0.0019
3547.00,0.0019
3546.00,0.0020
3545.00,0.0020
3544.00,0.0021
3543.00,0.0021
3542.00,0.0021
3541.00,0.0021
3540.00,0.0021
3539.00,0.0021
3538.00,0.0022
3537.00,0.0022
3536.00,0.0022
3535.00,0.0023
3534.00,0.0023
3533.00,0.0023
3532.00,0.0023
3531.00,0.0023
3530.00,0.0024
3529.00,0.0024
3528.00,0.0024
3527.00,0.0024
3526.00,0.0025
3525.00,0.0025
3524.00,0.0025
3523.00,0.0025
3522.00,0.0025
3521.00,0.0026
3520.00,0.0026
3519.00,0.0026
3518.00,0.0026
3517.00,0.0027
3516.00,0.0027
3515.00,0.0028
3514.00,0.0028
3513.00,0.0029
3512.00,0.0029
3511.00,0.0029
3510.00,0.0029
3509.00,0.0028
3508.00,0.0028
3507.00,0.0028
3506.00,0.0028
3505.00,0.0028
3504.00,0.0029
3503.00,0.0030
3502.00,0.0030
3501.00,0.0031
3500.00,0.0031
3499.00,0.0031
3498.00,0.0031
3497.00,0.0031
3496.00,0.0031
3495.00,0.0031
3494.00,0.0032
3493.00,0.0032
3492.00,0.0032
3491.00,0.0032
3490.00,0.0032
3489.00,0.0032
3488.00,0.0033
3487.00,0.0033
3486.00,0.0033
3485.00,0.0034
3484.00,0.0034
3483.00,0.0035
3482.00,0.0035
3481.00,0.0036
3480.00,0.0036
3479.00,0.0037
3478.00,0.0037
3477.00,0.0037
3476.00,0.0037
3475.00,0.0037
3474.00,0.0037
3473.00,0.0037
3472.00,0.0037
3471.00,0.0037
3470.00,0.0038
3469.00,0.0038
3468.00,0.0039
3467.00,0.0039
3466.00,0.0039
3465.00,0.0039
3464.00,0.0039
3463.00,0.0039
3462.00,0.0040
3461.00,0.0040
3460.00,0.0040
3459.00,0.0040
3458.00,0.0040
3457.00,0.0040
3456.00,0.0040
3455.00,0.0040
3454.00,0.0041
3453.00,0.0041
3452.00,0.0042
3451.00,0.0042
3450.00,0.0042
3449.00,0.0042
3448.00,0.0042
3447.00,0.0043
3446.00,0.0044
3445.00,0.0044
3444.00,0.0044
3443.00,0.0045
3442.00,0.0045
3441.00,0.0045
3440.00,0.0045
3439.00,0.0045
3438.00,0.0045
3437.00,0.0045
3436.00,0.0045
3435.00,0.0045
3434.00,0.0045
3433.00,0.0046
3432.00,0.0046
3431.00,0.0047
3430.00,0.0047
3429.00,0.0047
3428.00,0.0048
3427.00,0.0048
3426.00,0.0048
3425.00,0.0048
3424.00,0.0048
3423.00,0.0049
3422.00,0.0049
3421.00,0.0049
3420.00,0.0049
3419.00,0.0050
3418.00,0.0050
3417.00,0.0051
3416.00,0.0051
3415.00,0.0051
3414.00,0.0051
3413.00,0.0052
3412.00,0.0052
3411.00,0.0052
3410.00,0.0053
3409.00,0.0054
3408.00,0.0054
3407.00,0.0055
3406.00,0.0055
3405.00,0.0056
3404.00,0.0056
3403.00,0.0057
3402.00,0.0058
3401.00,0.0058
3400.00,0.0059
3399.00,0.0059
3398.00,0.0060
3397.00,0.0060
3396.00,0.0060
3395.00,0.0060
3394.00,0.0060
3393.00,0.0060
3392.00,0.0060
3391.00,0.0059
3390.00,0.0059
3389.00,0.0059
3388.00,0.0059
3387.00,0.0058
3386.00,0.0058
3385.00,0.0057
3384.00,0.0057
3383.00,0.0056
3382.00,0.0056
3381.00,0.0056
3380.00,0.0056
3379.00,0.0055
3378.00,0.0055
3377.00,0.0056
3376.00,0.0056
3375.00,0.0056
3374.00,0.0056
3373.00,0.0056
3372.00,0.0056
3371.00,0.0056
3370.00,0.0056
3369.00,0.0056
3368.00,0.0056
3367.00,0.0056
3366.00,0.0056
3365.00,0.0056
3364.00,0.0056
3363.00,0.0056
3362.00,0.0056
3361.00,0.0056
3360.00,0.0056
3359.00,0.0055
3358.00,0.0055
3357.00,0.0055
3356.00,0.0055
3355.00,0.0056
3354.00,0.0056
3353.00,0.0056
3352.00,0.0056
3351.00,0.0056
3350.00,0.0056
3349.00,0.0056
3348.00,0.0056
3347.00,0.0056
3346.00,0.0056
3345.00,0.0056
3344.00,0.0056
3343.00,0.0056
3342.00,0.0056
3341.00,0.0056
3340.00,0.0056
3339.00,0.0056
3338.00,0.0056
3337.00,0.0056
3336.00,0.0056
3335.00,0.0056
3334.00,0.0056
3333.00,0.0056
3332.00,0.0056
3331.00,0.0055
3330.00,0.0055
3329.00,0.0056
3328.00,0.0056
3327.00,0.0056
3326.00,0.0055
3325.00,0.0055
3324.00,0.0055
3323.00,0.0055
3322.00,0.0055
3321.00,0.0055
3320.00,0.0055
3319.00,0.0055
3318.00,0.0055
3317.00,0.0055
3316.00,0.0055
3315.00,0.0055
3314.00,0.0055
3313.00,0.0055
3312.00,0.0055
3311.00,0.0055
3310.00,0.0055
3309.00,0.0055
3308.00,0.0056
3307.00,0.0056
3306.00,0.0056
3305.00,0.0056
3304.00,0.0056
3303.00,0.0056
3302.00,0.0056
3301.00,0.0056
3300.00,0.0056
3299.00,0.0055
3298.00,0.0055
3297.00,0.0055
3296.00,0.0055
3295.00,0.0055
3294.00,0.0054
3293.00,0.0054
3292.00,0.0053
3291.00,0.0052
3290.00,0.0052
3289.00,0.0052
3288.00,0.0052
3287.00,0.0052
3286.00,0.0052
3285.00,0.0052
3284.00,0.0051
3283.00,0.0051
3282.00,0.0051
3281.00,0.0050
3280.00,0.0050
3279.00,0.0049
3278.00,0.0050
3277.00,0.0050
3276.00,0.0050
3275.00,0.0050
3274.00,0.0050
3273.00,0.0050
3272.00,0.0049
3271.00,0.0049
3270.00,0.0049
3269.00,0.0049
3268.00,0.0049
3267.00,0.0049
3266.00,0.0048
3265.00,0.0048
3264.00,0.0048
3263.00,0.0047
3262.00,0.0047
3261.00,0.0047
3260.00,0.0048
3259.00,0.0048
3258.00,0.0047
3257.00,0.0047
3256.00,0.0046
3255.00,0.0046
3254.00,0.0046
3253.00,0.0046
3252.00,0.0046
3251.00,0.0045
3250.00,0.0045
3249.00,0.0045
3248.00,0.0045
3247.00,0.0045
3246.00,0.0045
3245.00,0.0045
3244.00,0.0045
3243.00,0.0045
3242.00,0.0045
3241.00,0.0045
3240.00,0.0045
3239.00,0.0045
3238.00,0.0044
3237.00,0.0044
3236.00,0.0044
3235.00,0.0044
3234.00,0.0044
3233.00,0.0045
3232.00,0.0045
3231.00,0.0045
3230.00,0.0045
3229.00,0.0046
3228.00,0.0046
3227.00,0.0047
3226.00,0.0048
3225.00,0.0048
3224.00,0.0048
3223.00,0.0048
3222.00,0.0048
3221.00,0.0048
3220.00,0.0048
3219.00,0.0048
3218.00,0.0048
3217.00,0.0048
3216.00,0.0048
3215.00,0.0048
3214.00,0.0049
3213.00,0.0049
3212.00,0.0050
3211.00,0.0051
3210.00,0.0051
3209.00,0.0052
3208.00,0.0052
3207.00,0.0052
3206.00,0.0052
3205.00,0.0051
3204.00,0.0051
3203.00,0.0052
3202.00,0.0052
3201.00,0.0053
3200.00,0.0053
3199.00,0.0053
3198.00,0.0052
3197.00,0.0052
3196.00,0.0052
3195.00,0.0052
3194.00,0.0053
3193.00,0.0053
3192.00,0.0053
3191.00,0.0053
3190.00,0.0053
3189.00,0.0053
3188.00,0.0053
3187.00,0.0053
3186.00,0.0053
3185.00,0.0053
3184.00,0.0053
3183.00,0.0053
3182.00,0.0052
3181.00,0.0052
3180.00,0.0051
3179.00,0.0051
3178.00,0.0051
3177.00,0.0050
3176.00,0.0050
3175.00,0.0050
3174.00,0.0050
3173.00,0.0049
3172.00,0.0049
3171.00,0.0048
3170.00,0.0048
3169.00,0.0047
3168.00,0.0047
3167.00,0.0046
3166.00,0.0046
3165.00,0.0046
3164.00,0.0046
3163.00,0.0046
3162.00,0.0046
3161.00,0.0046
3160.00,0.0046
3159.00,0.0045
3158.00,0.0045
3157.00,0.0045
3156.00,0.0044
3155.00,0.0044
3154.00,0.0044
3153.00,0.0044
3152.00,0.0044
3151.00,0.0044
3150.00,0.0044
3149.00,0.0044
3148.00,0.0044
3147.00,0.0044
3146.00,0.0043
3145.00,0.0043
3144.00,0.0042
3143.00,0.0042
3142.00,0.0042
3141.00,0.0042
3140.00,0.0042
3139.00,0.0042
3138.00,0.0042
3137.00,0.0042
3136.00,0.0042
3135.00,0.0041
3134.00,0.0041
3133.00,0.0041
3132.00,0.0041
3131.00,0.0040
3130.00,0.0040
3129.00,0.0040
3128.00,0.0039
3127.00,0.0039
3126.00,0.0039
3125.00,0.0038
3124.00,0.0038
3123.00,0.0038
3122.00,0.0038
3121.00,0.0037
3120.00,0.0037
3119.00,0.0036
3118.00,0.0036
3117.00,0.0036
3116.00,0.0036
3115.00,0.0036
3114.00,0.0036
3113.00,0.0036
3112.00,0.0035
3111.00,0.0034
3110.00,0.0034
3109.00,0.0033
3108.00,0.0033
3107.00,0.0033
3106.00,0.0033
3105.00,0.0034
3104.00,0.0034
3103.00,0.0034
3102.00,0.0034
3101.00,0.0034
3100.00,0.0034
3099.00,0.0034
3098.00,0.0033
3097.00,0.0033
3096.00,0.0033
3095.00,0.0033
3094.00,0.0033
3093.00,0.0033
3092.00,0.0033
3091.00,0.0033
3090.00,0.0033
3089.00,0.0033
3088.00,0.0033
3087.00,0.0033
3086.00,0.0032
3085.00,0.0032
3084.00,0.0032
3083.00,0.0032
3082.00,0.0032
3081.00,0.0033
3080.00,0.0033
3079.00,0.0033
3078.00,0.0034
3077.00,0.0033
3076.00,0.0033
3075.00,0.0033
3074.00,0.0033
3073.00,0.0034
3072.00,0.0034
3071.00,0.0034
3070.00,0.0034
3069.00,0.0034
3068.00,0.0034
3067.00,0.0034
3066.00,0.0034
3065.00,0.0034
3064.00,0.0034
3063.00,0.0034
3062.00,0.0035
3061.00,0.0036
3060.00,0.0036
3059.00,0.0036
3058.00,0.0036
3057.00,0.0036
3056.00,0.0036
3055.00,0.0036
3054.00,0.0036
3053.00,0.0036
3052.00,0.0036
3051.00,0.0036
3050.00,0.0036
3049.00,0.0036
3048.00,0.0037
3047.00,0.0036
3046.00,0.0036
3045.00,0.0037
3044.00,0.0037
3043.00,0.0037
3042.00,0.0038
3041.00,0.0038
3040.00,0.0038
3039.00,0.0038
3038.00,0.0038
3037.00,0.0037
3036.00,0.0037
3035.00,0.0038
3034.00,0.0039
3033.00,0.0039
3032.00,0.0040
3031.00,0.0040
3030.00,0.0041
3029.00,0.0041
3028.00,0.0042
3027.00,0.0042
3026.00,0.0043
3025.00,0.0044
3024.00,0.0044
3023.00,0.0045
3022.00,0.0046
3021.00,0.0046
3020.00,0.0047
3019.00,0.0048
3018.00,0.0048
3017.00,0.0049
3016.00,0.0050
3015.00,0.0051
3014.00,0.0052
3013.00,0.0053
3012.00,0.0054
3011.00,0.0055
3010.00,0.0056
3009.00,0.0057
3008.00,0.0058
3007.00,0.0059
3006.00,0.0061
3005.00,0.0062
3004.00,0.0064
3003.00,0.0065
3002.00,0.0067
3001.00,0.0069
3000.00,0.0072
2999.00,0.0074
2998.00,0.0077
2997.00,0.0079
2996.00,0.0082
2995.00,0.0085
2994.00,0.0089
2993.00,0.0094
2992.00,0.0099
2991.00,0.0105
2990.00,0.0111
2989.00,0.0118
2988.00,0.0126
2987.00,0.0134
2986.00,0.0143
2985.00,0.0153
2984.00,0.0164
2983.00,0.0176
2982.00,0.0191
2981.00,0.0208
2980.00,0.0228
2979.00,0.0251
2978.00,0.0277
2977.00,0.0307
2976.00,0.0341
2975.00,0.0380
2974.00,0.0424
2973.00,0.0475
2972.00,0.0533
2971.00,0.0599
2970.00,0.0673
2969.00,0.0755
2968.00,0.0846
2967.00,0.0943
2966.00,0.1048
2965.00,0.1158
2964.00,0.1269
2963.00,0.1377
2962.00,0.1475
2961.00,0.1559
2960.00,0.1626
2959.00,0.1674
2958.00,0.1708
2957.00,0.1733
2956.00,0.1755
2955.00,0.1780
2954.00,0.1810
2953.00,0.1841
2952.00,0.1865
2951.00,0.1873
2950.00,0.1857
2949.00,0.1810
2948.00,0.1733
2947.00,0.1631
2946.00,0.1515
2945.00,0.1396
2944.00,0.1285
2943.00,0.1190
2942.00,0.1116
2941.00,0.1066
2940.00,0.1038
2939.00,0.1031
2938.00,0.1043
2937.00,0.1071
2936.00,0.1114
2935.00,0.1170
2934.00,0.1239
2933.00,0.1319
2932.00,0.1409
2931.00,0.1506
2930.00,0.1608
2929.00,0.1713
2928.00,0.1817
2927.00,0.1917
2926.00,0.2014
2925.00,0.2106
2924.00,0.2193
2923.00,0.2278
2922.00,0.2359
2921.00,0.2434
2920.00,0.2497
2919.00,0.2542
2918.00,0.2560
2917.00,0.2548
2916.00,0.2505
2915.00,0.2437
2914.00,0.2354
2913.00,0.2266
2912.00,0.2181
2911.00,0.2104
2910.00,0.2036
2909.00,0.1977
2908.00,0.1923
2907.00,0.1870
2906.00,0.1816
2905.00,0.1760
2904.00,0.1699
2903.00,0.1636
2902.00,0.1571
2901.00,0.1506
2900.00,0.1442
2899.00,0.1381
2898.00,0.1324
2897.00,0.1271
2896.00,0.1223
2895.00,0.1180
2894.00,0.1144
2893.00,0.1113
2892.00,0.1089
2891.00,0.1069
2890.00,0.1055
2889.00,0.1044
2888.00,0.1037
2887.00,0.1034
2886.00,0.1034
2885.00,0.1037
2884.00,0.1044
2883.00,0.1055
2882.00,0.1069
2881.00,0.1085
2880.00,0.1101
2879.00,0.1113
2878.00,0.1120
2877.00,0.1119
2876.00,0.1113
2875.00,0.1106
2874.00,0.1101
2873.00,0.1102
2872.00,0.1109
2871.00,0.1123
2870.00,0.1139
2869.00,0.1154
2868.00,0.1162
2867.00,0.1156
2866.00,0.1132
2865.00,0.1089
2864.00,0.1030
2863.00,0.0965
2862.00,0.0901
2861.00,0.0845
2860.00,0.0803
2859.00,0.0776
2858.00,0.0763
2857.00,0.0762
2856.00,0.0770
2855.00,0.0785
2854.00,0.0805
2853.00,0.0827
2852.00,0.0850
2851.00,0.0870
2850.00,0.0886
2849.00,0.0898
2848.00,0.0908
2847.00,0.0920
2846.00,0.0941
2845.00,0.0972
2844.00,0.1014
2843.00,0.1066
2842.00,0.1121
2841.00,0.1173
2840.00,0.1214
2839.00,0.1234
2838.00,0.1228
2837.00,0.1191
2836.00,0.1125
2835.00,0.1034
2834.00,0.0930
2833.00,0.0822
2832.00,0.0720
2831.00,0.0629
2830.00,0.0553
2829.00,0.0490
2828.00,0.0439
2827.00,0.0398
2826.00,0.0364
2825.00,0.0337
2824.00,0.0313
2823.00,0.0293
2822.00,0.0276
2821.00,0.0261
2820.00,0.0248
2819.00,0.0237
2818.00,0.0227
2817.00,0.0218
2816.00,0.0210
2815.00,0.0203
2814.00,0.0196
2813.00,0.0190
2812.00,0.0185
2811.00,0.0180
2810.00,0.0175
2809.00,0.0170
2808.00,0.0165
2807.00,0.0159
2806.00,0.0153
2805.00,0.0147
2804.00,0.0140
2803.00,0.0134
2802.00,0.0129
2801.00,0.0124
2800.00,0.0121
2799.00,0.0118
2798.00,0.0115
2797.00,0.0113
2796.00,0.0111
2795.00,0.0108
2794.00,0.0105
2793.00,0.0102
2792.00,0.0099
2791.00,0.0096
2790.00,0.0093
2789.00,0.0089
2788.00,0.0086
2787.00,0.0082
2786.00,0.0079
2785.00,0.0077
2784.00,0.0075
2783.00,0.0073
2782.00,0.0071
2781.00,0.0069
2780.00,0.0067
2779.00,0.0065
2778.00,0.0063
2777.00,0.0062
2776.00,0.0060
2775.00,0.0059
2774.00,0.0059
2773.00,0.0058
2772.00,0.0057
2771.00,0.0057
2770.00,0.0056
2769.00,0.0056
2768.00,0.0055
2767.00,0.0055
2766.00,0.0055
2765.00,0.0055
2764.00,0.0055
2763.00,0.0055
2762.00,0.0054
2761.00,0.0054
2760.00,0.0053
2759.00,0.0053
2758.00,0.0052
2757.00,0.0052
2756.00,0.0052
2755.00,0.0052
2754.00,0.0052
2753.00,0.0052
2752.00,0.0052
2751.00,0.0051
2750.00,0.0051
2749.00,0.0051
2748.00,0.0051
2747.00,0.0051
2746.00,0.0051
2745.00,0.0052
2744.00,0.0052
2743.00,0.0053
2742.00,0.0054
2741.00,0.0055
2740.00,0.0057
2739.00,0.0058
2738.00,0.0060
2737.00,0.0061
2736.00,0.0062
2735.00,0.0063
2734.00,0.0064
2733.00,0.0065
2732.00,0.0067
2731.00,0.0069
2730.00,0.0071
2729.00,0.0073
2728.00,0.0075
2727.00,0.0078
2726.00,0.0080
2725.00,0.0082
2724.00,0.0084
2723.00,0.0084
2722.00,0.0083
2721.00,0.0082
2720.00,0.0080
2719.00,0.0076
2718.00,0.0073
2717.00,0.0070
2716.00,0.0068
2715.00,0.0066
2714.00,0.0064
2713.00,0.0062
2712.00,0.0060
2711.00,0.0058
2710.00,0.0056
2709.00,0.0054
2708.00,0.0053
2707.00,0.0052
2706.00,0.0051
2705.00,0.0050
2704.00,0.0049
2703.00,0.0048
2702.00,0.0047
2701.00,0.0046
2700.00,0.0045
2699.00,0.0045
2698.00,0.0045
2697.00,0.0045
2696.00,0.0045
2695.00,0.0045
2694.00,0.0045
2693.00,0.0045
2692.00,0.0045
2691.00,0.0045
2690.00,0.0045
2689.00,0.0045
2688.00,0.0045
2687.00,0.0045
2686.00,0.0045
2685.00,0.0045
2684.00,0.0045
2683.00,0.0045
2682.00,0.0046
2681.00,0.0046
2680.00,0.0046
2679.00,0.0046
2678.00,0.0046
2677.00,0.0046
2676.00,0.0046
2675.00,0.0045
2674.00,0.0045
2673.00,0.0045
2672.00,0.0044
2671.00,0.0044
2670.00,0.0044
2669.00,0.0044
2668.00,0.0045
2667.00,0.0045
2666.00,0.0045
2665.00,0.0046
2664.00,0.0046
2663.00,0.0046
2662.00,0.0046
2661.00,0.0046
2660.00,0.0047
2659.00,0.0047
2658.00,0.0047
2657.00,0.0047
2656.00,0.0046
2655.00,0.0046
2654.00,0.0045
2653.00,0.0045
2652.00,0.0044
2651.00,0.0043
2650.00,0.0043
2649.00,0.0043
2648.00,0.0042
2647.00,0.0042
2646.00,0.0041
2645.00,0.0041
2644.00,0.0041
2643.00,0.0041
2642.00,0.0041
2641.00,0.0041
2640.00,0.0040
2639.00,0.0040
2638.00,0.0039
2637.00,0.0038
2636.00,0.0038
2635.00,0.0038
2634.00,0.0037
2633.00,0.0038
2632.00,0.0038
2631.00,0.0038
2630.00,0.0038
2629.00,0.0037
2628.00,0.0038
2627.00,0.0038
2626.00,0.0039
2625.00,0.0039
2624.00,0.0039
2623.00,0.0039
2622.00,0.0039
2621.00,0.0039
2620.00,0.0039
2619.00,0.0039
2618.00,0.0040
2617.00,0.0040
2616.00,0.0040
2615.00,0.0040
2614.00,0.0039
2613.00,0.0038
2612.00,0.0038
2611.00,0.0038
2610.00,0.0037
2609.00,0.0036
2608.00,0.0035
2607.00,0.0034
2606.00,0.0033
2605.00,0.0033
2604.00,0.0033
2603.00,0.0033
2602.00,0.0032
2601.00,0.0032
2600.00,0.0032
2599.00,0.0031
2598.00,0.0031
2597.00,0.0031
2596.00,0.0030
2595.00,0.0030
2594.00,0.0030
2593.00,0.0030
2592.00,0.0031
2591.00,0.0032
2590.00,0.0033
2589.00,0.0034
2588.00,0.0034
2587.00,0.0035
2586.00,0.0035
2585.00,0.0036
2584.00,0.0036
2583.00,0.0036
2582.00,0.0036
2581.00,0.0037
2580.00,0.0036
2579.00,0.0036
2578.00,0.0035
2577.00,0.0034
2576.00,0.0033
2575.00,0.0032
2574.00,0.0031
2573.00,0.0030
2572.00,0.0029
2571.00,0.0028
2570.00,0.0027
2569.00,0.0026
2568.00,0.0025
2567.00,0.0025
2566.00,0.0024
2565.00,0.0024
2564.00,0.0023
2563.00,0.0023
2562.00,0.0022
2561.00,0.0021
2560.00,0.0020
2559.00,0.0020
2558.00,0.0020
2557.00,0.0020
2556.00,0.0020
2555.00,0.0020
2554.00,0.0020
2553.00,0.0020
2552.00,0.0020
2551.00,0.0020
2550.00,0.0020
2549.00,0.0020
2548.00,0.0020
2547.00,0.0020
2546.00,0.0020
2545.00,0.0020
2544.00,0.0019
2543.00,0.0018
2542.00,0.0018
2541.00,0.0017
2540.00,0.0017
2539.00,0.0016
2538.00,0.0016
2537.00,0.0015
2536.00,0.0015
2535.00,0.0015
2534.00,0.0015
2533.00,0.0014
2532.00,0.0015
2531.00,0.0015
2530.00,0.0015
2529.00,0.0014
2528.00,0.0014
2527.00,0.0013
2526.00,0.0013
2525.00,0.0014
2524.00,0.0014
2523.00,0.0014
2522.00,0.0013
2521.00,0.0013
2520.00,0.0012
2519.00,0.0012
2518.00,0.0013
2517.00,0.0013
2516.00,0.0013
2515.00,0.0013
2514.00,0.0012
2513.00,0.0011
2512.00,0.0011
2511.00,0.0011
2510.00,0.0010
2509.00,0.0010
2508.00,0.0011
2507.00,0.0010
2506.00,0.0010
2505.00,0.0010
2504.00,0.0010
2503.00,0.0010
2502.00,0.0010
2501.00,0.0010
2500.00,0.0009
2499.00,0.0009
2498.00,0.0010
2497.00,0.0010
2496.00,0.0010
2495.00,0.0010
2494.00,0.0009
2493.00,0.0009
2492.00,0.0009
2491.00,0.0008
2490.00,0.0009
2489.00,0.0009
2488.00,0.0009
2487.00,0.0009
2486.00,0.0009
2485.00,0.0009
2484.00,0.0010
2483.00,0.0009
2482.00,0.0009
2481.00,0.0009
2480.00,0.0009
2479.00,0.0008
2478.00,0.0007
2477.00,0.0007
2476.00,0.0007
2475.00,0.0007
2474.00,0.0008
2473.00,0.0009
2472.00,0.0009
2471.00,0.0009
2470.00,0.0009
2469.00,0.0008
2468.00,0.0007
2467.00,0.0007
2466.00,0.0007
2465.00,0.0008
2464.00,0.0008
2463.00,0.0009
2462.00,0.0009
2461.00,0.0010
2460.00,0.0010
2459.00,0.0011
2458.00,0.0011
2457.00,0.0011
2456.00,0.0010
2455.00,0.0010
2454.00,0.0010
2453.00,0.0010
2452.00,0.0010
2451.00,0.0010
2450.00,0.0010
2449.00,0.0011
2448.00,0.0011
2447.00,0.0011
2446.00,0.0011
2445.00,0.0011
2444.00,0.0011
2443.00,0.0011
2442.00,0.0010
2441.00,0.0010
2440.00,0.0010
2439.00,0.0010
2438.00,0.0010
2437.00,0.0010
2436.00,0.0010
2435.00,0.0011
2434.00,0.0011
2433.00,0.0011
2432.00,0.0010
2431.00,0.0010
2430.00,0.0010
2429.00,0.0010
2428.00,0.0010
2427.00,0.0010
2426.00,0.0011
2425.00,0.0011
2424.00,0.0010
2423.00,0.0010
2422.00,0.0010
2421.00,0.0009
2420.00,0.0009
2419.00,0.0009
2418.00,0.0009
2417.00,0.0009
2416.00,0.0009
2415.00,0.0009
2414.00,0.0008
2413.00,0.0008
2412.00,0.0008
2411.00,0.0009
2410.00,0.0009
2409.00,0.0009
2408.00,0.0009
2407.00,0.0008
2406.00,0.0008
2405.00,0.0008
2404.00,0.0008
2403.00,0.0007
2402.00,0.0007
2401.00,0.0007
2400.00,0.0007
2399.00,0.0008
2398.00,0.0009
2397.00,0.0009
2396.00,0.0009
2395.00,0.0009
2394.00,0.0009
2393.00,0.0008
2392.00,0.0008
2391.00,0.0008
2390.00,0.0008
2389.00,0.0007
2388.00,0.0007
2387.00,0.0006
2386.00,0.0005
2385.00,0.0005
2384.00,0.0005
2383.00,0.0005
2382.00,0.0004
2381.00,0.0004
2380.00,0.0003
2379.00,0.0003
2378.00,0.0002
2377.00,0.0002
2376.00,0.0002
2375.00,0.0003
2374.00,0.0003
2373.00,0.0003
2372.00,0.0003
2371.00,0.0004
2370.00,0.0004
2369.00,0.0003
2368.00,0.0003
2367.00,0.0003
2366.00,0.0003
2365.00,0.0004
2364.00,0.0004
2363.00,0.0003
2362.00,0.0004
2361.00,0.0004
2360.00,0.0005
2359.00,0.0005
2358.00,0.0005
2357.00,0.0005
2356.00,0.0005
2355.00,0.0005
2354.00,0.0004
2353.00,0.0004
2352.00,0.0004
2351.00,0.0004
2350.00,0.0005
2349.00,0.0005
2348.00,0.0006
2347.00,0.0006
2346.00,0.0006
2345.00,0.0006
2344.00,0.0006
2343.00,0.0007
2342.00,0.0007
2341.00,0.0007
2340.00,0.0007
2339.00,0.0007
2338.00,0.0008
2337.00,0.0008
2336.00,0.0009
2335.00,0.0009
2334.00,0.0008
2333.00,0.0008
2332.00,0.0008
2331.00,0.0007
2330.00,0.0007
2329.00,0.0007
2328.00,0.0008
2327.00,0.0012
2326.00,0.0016
2325.00,0.0020
2324.00,0.0022
2323.00,0.0022
2322.00,0.0019
2321.00,0.0017
2320.00,0.0015
2319.00,0.0014
2318.00,0.0014
2317.00,0.0013
2316.00,0.0013
2315.00,0.0012
2314.00,0.0012
2313.00,0.0011
2312.00,0.0011
2311.00,0.0011
2310.00,0.0011
2309.00,0.0011
2308.00,0.0012
2307.00,0.0012
2306.00,0.0011
2305.00,0.0011
2304.00,0.0011
2303.00,0.0010
2302.00,0.0011
2301.00,0.0011
2300.00,0.0012
2299.00,0.0012
2298.00,0.0012
2297.00,0.0012
2296.00,0.0013
2295.00,0.0013
2294.00,0.0013
2293.00,0.0013
2292.00,0.0014
2291.00,0.0014
2290.00,0.0015
2289.00,0.0016
2288.00,0.0017
2287.00,0.0018
2286.00,0.0018
2285.00,0.0019
2284.00,0.0018
2283.00,0.0017
2282.00,0.0015
2281.00,0.0015
2280.00,0.0015
2279.00,0.0015
2278.00,0.0014
2277.00,0.0014
2276.00,0.0013
2275.00,0.0013
2274.00,0.0013
2273.00,0.0014
2272.00,0.0014
2271.00,0.0015
2270.00,0.0015
2269.00,0.0014
2268.00,0.0012
2267.00,0.0009
2266.00,0.0007
2265.00,0.0007
2264.00,0.0007
2263.00,0.0009
2262.00,0.0010
2261.00,0.0012
2260.00,0.0012
2259.00,0.0011
2258.00,0.0010
2257.00,0.0010
2256.00,0.0009
2255.00,0.0009
2254.00,0.0009
2253.00,0.0009
2252.00,0.0009
2251.00,0.0009
2250.00,0.0008
2249.00,0.0008
2248.00,0.0007
2247.00,0.0007
2246.00,0.0007
2245.00,0.0007
2244.00,0.0006
2243.00,0.0006
2242.00,0.0006
2241.00,0.0007
2240.00,0.0008
2239.00,0.0008
2238.00,0.0009
2237.00,0.0009
2236.00,0.0009
2235.00,0.0009
2234.00,0.0009
2233.00,0.0008
2232.00,0.0008
2231.00,0.0009
2230.00,0.0010
2229.00,0.0010
2228.00,0.0009
2227.00,0.0008
2226.00,0.0007
2225.00,0.0008
2224.00,0.0008
2223.00,0.0008
2222.00,0.0007
2221.00,0.0007
2220.00,0.0006
2219.00,0.0006
2218.00,0.0006
2217.00,0.0007
2216.00,0.0007
2215.00,0.0007
2214.00,0.0006
2213.00,0.0006
2212.00,0.0005
2211.00,0.0005
2210.00,0.0005
2209.00,0.0006
2208.00,0.0007
2207.00,0.0007
2206.00,0.0007
2205.00,0.0007
2204.00,0.0006
2203.00,0.0004
2202.00,0.0003
2201.00,0.0003
2200.00,0.0005
2199.00,0.0007
2198.00,0.0009
2197.00,0.0010
2196.00,0.0010
2195.00,0.0009
2194.00,0.0008
2193.00,0.0008
2192.00,0.0008
2191.00,0.0009
2190.00,0.0008
2189.00,0.0008
2188.00,0.0007
2187.00,0.0006
2186.00,0.0006
2185.00,0.0006
2184.00,0.0006
2183.00,0.0004
2182.00,0.0002
2181.00,0.0001
2180.00,-0.0000
2179.00,-0.0000
2178.00,-0.0001
2177.00,-0.0001
2176.00,-0.0002
2175.00,-0.0002
2174.00,-0.0001
2173.00,0.0001
2172.00,0.0003
2171.00,0.0006
2170.00,0.0010
2169.00,0.0015
2168.00,0.0017
2167.00,0.0018
2166.00,0.0018
2165.00,0.0018
2164.00,0.0020
2163.00,0.0021
2162.00,0.0020
2161.00,0.0013
2160.00,-0.0000
2159.00,-0.0016
2158.00,-0.0027
2157.00,-0.0030
2156.00,-0.0026
2155.00,-0.0020
2154.00,-0.0014
2153.00,-0.0011
2152.00,-0.0009
2151.00,-0.0009
2150.00,-0.0008
2149.00,-0.0007
2148.00,-0.0007
2147.00,-0.0010
2146.00,-0.0012
2145.00,-0.0013
2144.00,-0.0012
2143.00,-0.0011
2142.00,-0.0011
2141.00,-0.0011
2140.00,-0.0011
2139.00,-0.0011
2138.00,-0.0012
2137.00,-0.0014
2136.00,-0.0016
2135.00,-0.0018
2134.00,-0.0019
2133.00,-0.0018
2132.00,-0.0017
2131.00,-0.0014
2130.00,-0.0012
2129.00,-0.0010
2128.00,-0.0009
2127.00,-0.0009
2126.00,-0.0009
2125.00,-0.0008
2124.00,-0.0007
2123.00,-0.0006
2122.00,-0.0005
2121.00,-0.0004
2120.00,-0.0003
2119.00,-0.0002
2118.00,-0.0002
2117.00,-0.0001
2116.00,0.0000
2115.00,0.0001
2114.00,0.0002
2113.00,0.0003
2112.00,0.0004
2111.00,0.0003
2110.00,0.0002
2109.00,0.0001
2108.00,-0.0000
2107.00,0.0000
2106.00,0.0002
2105.00,0.0003
2104.00,0.0004
2103.00,0.0003
2102.00,0.0002
2101.00,0.0002
2100.00,0.0002
2099.00,0.0002
2098.00,0.0000
2097.00,-0.0001
2096.00,-0.0002
2095.00,-0.0003
2094.00,-0.0004
2093.00,-0.0004
2092.00,-0.0003
2091.00,-0.0002
2090.00,-0.0001
2089.00,-0.0000
2088.00,0.0001
2087.00,0.0001
2086.00,0.0002
2085.00,0.0002
2084.00,0.0001
2083.00,0.0001
2082.00,0.0000
2081.00,0.0001
2080.00,0.0002
2079.00,0.0004
2078.00,0.0005
2077.00,0.0005
2076.00,0.0004
2075.00,0.0003
2074.00,0.0002
2073.00,0.0003
2072.00,0.0002
2071.00,0.0001
2070.00,-0.0000
2069.00,-0.0001
2068.00,-0.0001
2067.00,-0.0002
2066.00,-0.0002
2065.00,-0.0002
2064.00,-0.0002
2063.00,-0.0001
2062.00,-0.0000
2061.00,0.0001
2060.00,0.0002
2059.00,0.0003
2058.00,0.0003
2057.00,0.0004
2056.00,0.0004
2055.00,0.0005
2054.00,0.0006
2053.00,0.0008
2052.00,0.0010
2051.00,0.0010
2050.00,0.0008
2049.00,0.0005
2048.00,0.0003
2047.00,0.0001
2046.00,0.0000
2045.00,-0.0000
2044.00,0.0000
2043.00,0.0001
2042.00,0.0001
2041.00,-0.0001
2040.00,-0.0003
2039.00,-0.0005
2038.00,-0.0006
2037.00,-0.0007
2036.00,-0.0007
2035.00,-0.0009
2034.00,-0.0011
2033.00,-0.0012
2032.00,-0.0013
2031.00,-0.0013
2030.00,-0.0013
2029.00,-0.0014
2028.00,-0.0014
2027.00,-0.0013
2026.00,-0.0011
2025.00,-0.0008
2024.00,-0.0006
2023.00,-0.0005
2022.00,-0.0006
2021.00,-0.0007
2020.00,-0.0007
2019.00,-0.0007
2018.00,-0.0007
2017.00,-0.0006
2016.00,-0.0006
2015.00,-0.0007
2014.00,-0.0008
2013.00,-0.0009
2012.00,-0.0010
2011.00,-0.0012
2010.00,-0.0014
2009.00,-0.0018
2008.00,-0.0022
2007.00,-0.0025
2006.00,-0.0026
2005.00,-0.0024
2004.00,-0.0020
2003.00,-0.0017
2002.00,-0.0016
2001.00,-0.0015
2000.00,-0.0015
1999.00,-0.0014
1998.00,-0.0014
1997.00,-0.0014
1996.00,-0.0014
1995.00,-0.0015
1994.00,-0.0015
1993.00,-0.0013
1992.00,-0.0008
1991.00,-0.0005
1990.00,-0.0003
1989.00,-0.0002
1988.00,-0.0002
1987.00,-0.0003
1986.00,-0.0004
1985.00,-0.0004
1984.00,-0.0002
1983.00,0.0001
1982.00,0.0004
1981.00,0.0005
1980.00,0.0004
1979.00,0.0000
1978.00,-0.0004
1977.00,-0.0007
1976.00,-0.0008
1975.00,-0.0008
1974.00,-0.0007
1973.00,-0.0007
1972.00,-0.0007
1971.00,-0.0007
1970.00,-0.0008
1969.00,-0.0008
1968.00,-0.0009
1967.00,-0.0009
1966.00,-0.0009
1965.00,-0.0010
1964.00,-0.0013
1963.00,-0.0016
1962.00,-0.0017
1961.00,-0.0017
1960.00,-0.0017
1959.00,-0.0017
1958.00,-0.0018
1957.00,-0.0017
1956.00,-0.0017
1955.00,-0.0016
1954.00,-0.0015
1953.00,-0.0014
1952.00,-0.0013
1951.00,-0.0012
1950.00,-0.0013
1949.00,-0.0013
1948.00,-0.0013
1947.00,-0.0013
1946.00,-0.0013
1945.00,-0.0012
1944.00,-0.0012
1943.00,-0.0012
1942.00,-0.0012
1941.00,-0.0011
1940.00,-0.0011
1939.00,-0.0012
1938.00,-0.0012
1937.00,-0.0012
1936.00,-0.0011
1935.00,-0.0010
1934.00,-0.0009
1933.00,-0.0009
1932.00,-0.0009
1931.00,-0.0009
1930.00,-0.0010
1929.00,-0.0010
1928.00,-0.0009
1927.00,-0.0008
1926.00,-0.0007
1925.00,-0.0005
1924.00,-0.0004
1923.00,-0.0003
1922.00,-0.0002
1921.00,-0.0002
1920.00,-0.0002
1919.00,-0.0003
1918.00,-0.0004
1917.00,-0.0004
1916.00,-0.0004
1915.00,-0.0004
1914.00,-0.0003
1913.00,-0.0003
1912.00,-0.0002
1911.00,-0.0002
1910.00,-0.0001
1909.00,0.0000
1908.00,0.0001
1907.00,0.0001
1906.00,-0.0000
1905.00,-0.0000
1904.00,-0.0000
1903.00,-0.0000
1902.00,-0.0000
1901.00,-0.0001
1900.00,-0.0001
1899.00,-0.0002
1898.00,-0.0002
1897.00,-0.0002
1896.00,-0.0001
1895.00,-0.0001
1894.00,-0.0001
1893.00,-0.0001
1892.00,0.0000
1891.00,0.0000
1890.00,0.0000
1889.00,-0.0000
1888.00,-0.0001
1887.00,-0.0001
1886.00,-0.0002
1885.00,-0.0002
1884.00,-0.0001
1883.00,-0.0001
1882.00,-0.0000
1881.00,0.0000
1880.00,0.0001
1879.00,0.0000
1878.00,0.0000
1877.00,0.0000
1876.00,0.0000
1875.00,0.0000
1874.00,0.0000
1873.00,-0.0000
1872.00,-0.0000
1871.00,-0.0001
1870.00,-0.0001
1869.00,-0.0001
1868.00,-0.0001
1867.00,-0.0000
1866.00,-0.0001
1865.00,-0.0001
1864.00,-0.0001
1863.00,-0.0001
1862.00,-0.0001
1861.00,0.0000
1860.00,0.0001
1859.00,0.0002
1858.00,0.0002
1857.00,0.0002
1856.00,0.0002
1855.00,0.0002
1854.00,0.0002
1853.00,0.0001
1852.00,0.0001
1851.00,0.0000
1850.00,0.0000
1849.00,0.0000
1848.00,0.0001
1847.00,0.0001
1846.00,0.0002
1845.00,0.0002
1844.00,0.0003
1843.00,0.0003
1842.00,0.0002
1841.00,0.0002
1840.00,0.0001
1839.00,0.0001
1838.00,0.0002
1837.00,0.0003
1836.00,0.0003
1835.00,0.0004
1834.00,0.0004
1833.00,0.0004
1832.00,0.0003
1831.00,0.0003
1830.00,0.0003
1829.00,0.0004
1828.00,0.0004
1827.00,0.0005
1826.00,0.0005
1825.00,0.0005
1824.00,0.0005
1823.00,0.0004
1822.00,0.0004
1821.00,0.0003
1820.00,0.0002
1819.00,0.0001
1818.00,0.0000
1817.00,0.0000
1816.00,0.0001
1815.00,0.0001
1814.00,0.0002
1813.00,0.0002
1812.00,0.0003
1811.00,0.0004
1810.00,0.0004
1809.00,0.0004
1808.00,0.0004
1807.00,0.0003
1806.00,0.0003
1805.00,0.0003
1804.00,0.0004
1803.00,0.0004
1802.00,0.0004
1801.00,0.0004
1800.00,0.0005
1799.00,0.0005
1798.00,0.0005
1797.00,0.0005
1796.00,0.0005
1795.00,0.0005
1794.00,0.0005
1793.00,0.0005
1792.00,0.0007
1791.00,0.0008
1790.00,0.0008
1789.00,0.0008
1788.00,0.0008
1787.00,0.0008
1786.00,0.0007
1785.00,0.0007
1784.00,0.0006
1783.00,0.0006
1782.00,0.0006
1781.00,0.0007
1780.00,0.0007
1779.00,0.0007
1778.00,0.0007
1777.00,0.0007
1776.00,0.0008
1775.00,0.0009
1774.00,0.0009
1773.00,0.0009
1772.00,0.0009
1771.00,0.0010
1770.00,0.0010
1769.00,0.0010
1768.00,0.0010
1767.00,0.0010
1766.00,0.0010
1765.00,0.0010
1764.00,0.0010
1763.00,0.0011
1762.00,0.0011
1761.00,0.0011
1760.00,0.0011
1759.00,0.0011
1758.00,0.0011
1757.00,0.0011
1756.00,0.0011
1755.00,0.0011
1754.00,0.0012
1753.00,0.0012
1752.00,0.0012
1751.00,0.0012
1750.00,0.0013
1749.00,0.0014
1748.00,0.0014
1747.00,0.0015
1746.00,0.0015
1745.00,0.0016
1744.00,0.0016
1743.00,0.0017
1742.00,0.0017
1741.00,0.0017
1740.00,0.0017
1739.00,0.0017
1738.00,0.0018
1737.00,0.0018
1736.00,0.0018
1735.00,0.0018
1734.00,0.0018
1733.00,0.0019
1732.00,0.0020
1731.00,0.0021
1730.00,0.0022
1729.00,0.0022
1728.00,0.0023
1727.00,0.0023
1726.00,0.0023
1725.00,0.0024
1724.00,0.0024
1723.00,0.0024
1722.00,0.0024
1721.00,0.0024
1720.00,0.0024
1719.00,0.0024
1718.00,0.0024
1717.00,0.0025
1716.00,0.0025
1715.00,0.0025
1714.00,0.0025
1713.00,0.0025
1712.00,0.0025
1711.00,0.0025
1710.00,0.0025
1709.00,0.0025
1708.00,0.0025
1707.00,0.0026
1706.00,0.0027
1705.00,0.0028
1704.00,0.0029
1703.00,0.0030
1702.00,0.0030
1701.00,0.0030
1700.00,0.0030
1699.00,0.0030
1698.00,0.0030
1697.00,0.0031
1696.00,0.0031
1695.00,0.0032
1694.00,0.0031
1693.00,0.0032
1692.00,0.0032
1691.00,0.0033
1690.00,0.0034
1689.00,0.0035
1688.00,0.0036
1687.00,0.0038
1686.00,0.0038
1685.00,0.0039
1684.00,0.0040
1683.00,0.0042
1682.00,0.0042
1681.00,0.0043
1680.00,0.0044
1679.00,0.0045
1678.00,0.0045
1677.00,0.0046
1676.00,0.0046
1675.00,0.0047
1674.00,0.0048
1673.00,0.0050
1672.00,0.0050
1671.00,0.0051
1670.00,0.0052
1669.00,0.0053
1668.00,0.0054
1667.00,0.0055
1666.00,0.0055
1665.00,0.0055
1664.00,0.0056
1663.00,0.0057
1662.00,0.0058
1661.00,0.0060
1660.00,0.0061
1659.00,0.0061
1658.00,0.0061
1657.00,0.0062
1656.00,0.0063
1655.00,0.0064
1654.00,0.0066
1653.00,0.0071
1652.00,0.0076
1651.00,0.0077
1650.00,0.0079
1649.00,0.0081
1648.00,0.0084
1647.00,0.0088
1646.00,0.0090
1645.00,0.0090
1644.00,0.0089
1643.00,0.0087
1642.00,0.0085
1641.00,0.0083
1640.00,0.0081
1639.00,0.0080
1638.00,0.0079
1637.00,0.0078
1636.00,0.0078
1635.00,0.0078
1634.00,0.0078
1633.00,0.0077
1632.00,0.0077
1631.00,0.0077
1630.00,0.0077
1629.00,0.0077
1628.00,0.0077
1627.00,0.0076
1626.00,0.0075
1625.00,0.0074
1624.00,0.0072
1623.00,0.0071
1622.00,0.0070
1621.00,0.0069
1620.00,0.0069
1619.00,0.0069
1618.00,0.0069
1617.00,0.0069
1616.00,0.0069
1615.00,0.0068
1614.00,0.0068
1613.00,0.0068
1612.00,0.0068
1611.00,0.0067
1610.00,0.0067
1609.00,0.0067
1608.00,0.0067
1607.00,0.0067
1606.00,0.0066
1605.00,0.0066
1604.00,0.0066
1603.00,0.0066
1602.00,0.0066
1601.00,0.0066
1600.00,0.0066
1599.00,0.0066
1598.00,0.0066
1597.00,0.0066
1596.00,0.0066
1595.00,0.0066
1594.00,0.0066
1593.00,0.0066
1592.00,0.0066
1591.00,0.0066
1590.00,0.0066
1589.00,0.0066
1588.00,0.0067
1587.00,0.0067
1586.00,0.0068
1585.00,0.0069
1584.00,0.0070
1583.00,0.0071
1582.00,0.0072
1581.00,0.0073
1580.00,0.0075
1579.00,0.0077
1578.00,0.0078
1577.00,0.0078
1576.00,0.0079
1575.00,0.0078
1574.00,0.0077
1573.00,0.0076
1572.00,0.0075
1571.00,0.0074
1570.00,0.0073
1569.00,0.0072
1568.00,0.0072
1567.00,0.0072
1566.00,0.0072
1565.00,0.0071
1564.00,0.0071
1563.00,0.0071
1562.00,0.0072
1561.00,0.0072
1560.00,0.0072
1559.00,0.0072
1558.00,0.0073
1557.00,0.0073
1556.00,0.0073
1555.00,0.0074
1554.00,0.0074
1553.00,0.0075
1552.00,0.0076
1551.00,0.0077
1550.00,0.0078
1549.00,0.0079
1548.00,0.0080
1547.00,0.0081
1546.00,0.0082
1545.00,0.0085
1544.00,0.0087
1543.00,0.0088
1542.00,0.0088
1541.00,0.0088
1540.00,0.0088
1539.00,0.0087
1538.00,0.0085
1537.00,0.0082
1536.00,0.0080
1535.00,0.0077
1534.00,0.0073
1533.00,0.0071
1532.00,0.0069
1531.00,0.0068
1530.00,0.0066
1529.00,0.0065
1528.00,0.0064
1527.00,0.0064
1526.00,0.0063
1525.00,0.0063
1524.00,0.0063
1523.00,0.0063
1522.00,0.0062
1521.00,0.0063
1520.00,0.0064
1519.00,0.0063
1518.00,0.0063
1517.00,0.0063
1516.00,0.0064
1515.00,0.0064
1514.00,0.0063
1513.00,0.0063
1512.00,0.0064
1511.00,0.0064
1510.00,0.0064
1509.00,0.0065
1508.00,0.0067
1507.00,0.0069
1506.00,0.0070
1505.00,0.0070
1504.00,0.0071
1503.00,0.0072
1502.00,0.0073
1501.00,0.0074
1500.00,0.0077
1499.00,0.0079
1498.00,0.0081
1497.00,0.0085
1496.00,0.0089
1495.00,0.0092
1494.00,0.0094
1493.00,0.0097
1492.00,0.0101
1491.00,0.0104
1490.00,0.0108
1489.00,0.0113
1488.00,0.0119
1487.00,0.0123
1486.00,0.0128
1485.00,0.0134
1484.00,0.0141
1483.00,0.0148
1482.00,0.0157
1481.00,0.0168
1480.00,0.0180
1479.00,0.0193
1478.00,0.0207
1477.00,0.0227
1476.00,0.0252
1475.00,0.0281
1474.00,0.0321
1473.00,0.0379
1472.00,0.0447
1471.00,0.0511
1470.00,0.0572
1469.00,0.0635
1468.00,0.0702
1467.00,0.0774
1466.00,0.0856
1465.00,0.0944
1464.00,0.1021
1463.00,0.1074
1462.00,0.1108
1461.00,0.1132
1460.00,0.1149
1459.00,0.1162
1458.00,0.1174
1457.00,0.1186
1456.00,0.1190
1455.00,0.1186
1454.00,0.1178
1453.00,0.1164
1452.00,0.1141
1451.00,0.1107
1450.00,0.1060
1449.00,0.0992
1448.00,0.0904
1447.00,0.0810
1446.00,0.0724
1445.00,0.0649
1444.00,0.0584
1443.00,0.0530
1442.00,0.0490
1441.00,0.0461
1440.00,0.0442
1439.00,0.0433
1438.00,0.0430
1437.00,0.0427
1436.00,0.0415
1435.00,0.0390
1434.00,0.0357
1433.00,0.0318
1432.00,0.0277
1431.00,0.0240
1430.00,0.0211
1429.00,0.0190
1428.00,0.0175
1427.00,0.0165
1426.00,0.0159
1425.00,0.0154
1424.00,0.0150
1423.00,0.0147
1422.00,0.0146
1421.00,0.0145
1420.00,0.0142
1419.00,0.0139
1418.00,0.0137
1417.00,0.0133
1416.00,0.0130
1415.00,0.0127
1414.00,0.0126
1413.00,0.0123
1412.00,0.0121
1411.00,0.0120
1410.00,0.0119
1409.00,0.0117
1408.00,0.0115
1407.00,0.0115
1406.00,0.0115
1405.00,0.0114
1404.00,0.0113
1403.00,0.0114
1402.00,0.0115
1401.00,0.0115
1400.00,0.0115
1399.00,0.0117
1398.00,0.0119
1397.00,0.0120
1396.00,0.0121
1395.00,0.0124
1394.00,0.0129
1393.00,0.0133
1392.00,0.0138
1391.00,0.0146
1390.00,0.0156
1389.00,0.0169
1388.00,0.0190
1387.00,0.0222
1386.00,0.0264
1385.00,0.0320
1384.00,0.0396
1383.00,0.0502
1382.00,0.0645
1381.00,0.0825
1380.00,0.1042
1379.00,0.1280
1378.00,0.1502
1377.00,0.1654
1376.00,0.1692
1375.00,0.1594
1374.00,0.1388
1373.00,0.1147
1372.00,0.0931
1371.00,0.0754
1370.00,0.0613
1369.00,0.0506
1368.00,0.0431
1367.00,0.0384
1366.00,0.0359
1365.00,0.0348
1364.00,0.0350
1363.00,0.0361
1362.00,0.0379
1361.00,0.0398
1360.00,0.0412
1359.00,0.0416
1358.00,0.0406
1357.00,0.0384
1356.00,0.0353
1355.00,0.0318
1354.00,0.0284
1353.00,0.0254
1352.00,0.0231
1351.00,0.0211
1350.00,0.0195
1349.00,0.0181
1348.00,0.0170
1347.00,0.0160
1346.00,0.0152
1345.00,0.0145
1344.00,0.0140
1343.00,0.0135
1342.00,0.0131
1341.00,0.0128
1340.00,0.0125
1339.00,0.0123
1338.00,0.0121
1337.00,0.0120
1336.00,0.0120
1335.00,0.0121
1334.00,0.0123
1333.00,0.0126
1332.00,0.0130
1331.00,0.0134
1330.00,0.0136
1329.00,0.0136
1328.00,0.0133
1327.00,0.0129
1326.00,0.0123
1325.00,0.0118
1324.00,0.0113
1323.00,0.0109
1322.00,0.0106
1321.00,0.0103
1320.00,0.0101
1319.00,0.0099
1318.00,0.0097
1317.00,0.0096
1316.00,0.0095
1315.00,0.0095
1314.00,0.0095
1313.00,0.0095
1312.00,0.0097
1311.00,0.0100
1310.00,0.0104
1309.00,0.0111
1308.00,0.0122
1307.00,0.0135
1306.00,0.0149
1305.00,0.0158
1304.00,0.0161
1303.00,0.0157
1302.00,0.0149
1301.00,0.0142
1300.00,0.0136
1299.00,0.0133
1298.00,0.0132
1297.00,0.0131
1296.00,0.0129
1295.00,0.0126
1294.00,0.0122
1293.00,0.0118
1292.00,0.0114
1291.00,0.0109
1290.00,0.0105
1289.00,0.0101
1288.00,0.0098
1287.00,0.0095
1286.00,0.0093
1285.00,0.0091
1284.00,0.0090
1283.00,0.0088
1282.00,0.0087
1281.00,0.0086
1280.00,0.0085
1279.00,0.0085
1278.00,0.0084
1277.00,0.0084
1276.00,0.0084
1275.00,0.0084
1274.00,0.0084
1273.00,0.0084
1272.00,0.0084
1271.00,0.0085
1270.00,0.0086
1269.00,0.0089
1268.00,0.0092
1267.00,0.0095
1266.00,0.0099
1265.00,0.0103
1264.00,0.0106
1263.00,0.0110
1262.00,0.0114
1261.00,0.0118
1260.00,0.0125
1259.00,0.0132
1258.00,0.0140
1257.00,0.0147
1256.00,0.0149
1255.00,0.0146
1254.00,0.0138
1253.00,0.0127
1252.00,0.0117
1251.00,0.0108
1250.00,0.0102
1249.00,0.0097
1248.00,0.0093
1247.00,0.0090
1246.00,0.0088
1245.00,0.0086
1244.00,0.0084
1243.00,0.0083
1242.00,0.0082
1241.00,0.0081
1240.00,0.0080
1239.00,0.0079
1238.00,0.0078
1237.00,0.0078
1236.00,0.0078
1235.00,0.0078
1234.00,0.0078
1233.00,0.0079
1232.00,0.0080
1231.00,0.0080
1230.00,0.0081
1229.00,0.0082
1228.00,0.0084
1227.00,0.0086
1226.00,0.0088
1225.00,0.0090
1224.00,0.0093
1223.00,0.0096
1222.00,0.0099
1221.00,0.0101
1220.00,0.0103
1219.00,0.0103
1218.00,0.0102
1217.00,0.0101
1216.00,0.0098
1215.00,0.0096
1214.00,0.0093
1213.00,0.0090
1212.00,0.0088
1211.00,0.0086
1210.00,0.0084
1209.00,0.0083
1208.00,0.0083
1207.00,0.0082
1206.00,0.0081
1205.00,0.0081
1204.00,0.0081
1203.00,0.0080
1202.00,0.0080
1201.00,0.0079
1200.00,0.0078
1199.00,0.0077
1198.00,0.0077
1197.00,0.0077
1196.00,0.0078
1195.00,0.0078
1194.00,0.0079
1193.00,0.0079
1192.00,0.0079
1191.00,0.0079
1190.00,0.0078
1189.00,0.0078
1188.00,0.0079
1187.00,0.0080
1186.00,0.0081
1185.00,0.0082
1184.00,0.0083
1183.00,0.0084
1182.00,0.0086
1181.00,0.0089
1180.00,0.0093
1179.00,0.0098
1178.00,0.0106
1177.00,0.0115
1176.00,0.0129
1175.00,0.0147
1174.00,0.0171
1173.00,0.0200
1172.00,0.0235
1171.00,0.0274
1170.00,0.0311
1169.00,0.0342
1168.00,0.0361
1167.00,0.0364
1166.00,0.0354
1165.00,0.0334
1164.00,0.0310
1163.00,0.0287
1162.00,0.0267
1161.00,0.0252
1160.00,0.0239
1159.00,0.0229
1158.00,0.0221
1157.00,0.0215
1156.00,0.0211
1155.00,0.0209
1154.00,0.0206
1153.00,0.0202
1152.00,0.0197
1151.00,0.0190
1150.00,0.0182
1149.00,0.0173
1148.00,0.0163
1147.00,0.0154
1146.00,0.0145
1145.00,0.0138
1144.00,0.0131
1143.00,0.0124
1142.00,0.0118
1141.00,0.0112
1140.00,0.0107
1139.00,0.0103
1138.00,0.0100
1137.00,0.0097
1136.00,0.0095
1135.00,0.0093
1134.00,0.0092
1133.00,0.0091
1132.00,0.0091
1131.00,0.0090
1130.00,0.0091
1129.00,0.0091
1128.00,0.0092
1127.00,0.0093
1126.00,0.0094
1125.00,0.0094
1124.00,0.0095
1123.00,0.0097
1122.00,0.0098
1121.00,0.0098
1120.00,0.0098
1119.00,0.0098
1118.00,0.0099
1117.00,0.0100
1116.00,0.0101
1115.00,0.0103
1114.00,0.0105
1113.00,0.0107
1112.00,0.0109
1111.00,0.0111
1110.00,0.0113
1109.00,0.0116
1108.00,0.0121
1107.00,0.0126
1106.00,0.0132
1105.00,0.0137
1104.00,0.0141
1103.00,0.0144
1102.00,0.0143
1101.00,0.0140
1100.00,0.0135
1099.00,0.0129
1098.00,0.0124
1097.00,0.0119
1096.00,0.0115
1095.00,0.0112
1094.00,0.0110
1093.00,0.0108
1092.00,0.0106
1091.00,0.0104
1090.00,0.0102
1089.00,0.0101
1088.00,0.0100
1087.00,0.0099
1086.00,0.0098
1085.00,0.0097
1084.00,0.0097
1083.00,0.0098
1082.00,0.0098
1081.00,0.0098
1080.00,0.0097
1079.00,0.0096
1078.00,0.0094
1077.00,0.0091
1076.00,0.0090
1075.00,0.0088
1074.00,0.0087
1073.00,0.0087
1072.00,0.0087
1071.00,0.0087
1070.00,0.0088
1069.00,0.0088
1068.00,0.0088
1067.00,0.0088
1066.00,0.0089
1065.00,0.0088
1064.00,0.0088
1063.00,0.0087
1062.00,0.0087
1061.00,0.0087
1060.00,0.0087
1059.00,0.0087
1058.00,0.0088
1057.00,0.0089
1056.00,0.0090
1055.00,0.0091
1054.00,0.0092
1053.00,0.0093
1052.00,0.0094
1051.00,0.0096
1050.00,0.0099
1049.00,0.0103
1048.00,0.0106
1047.00,0.0110
1046.00,0.0112
1045.00,0.0115
1044.00,0.0116
1043.00,0.0115
1042.00,0.0113
1041.00,0.0110
1040.00,0.0108
1039.00,0.0107
1038.00,0.0106
1037.00,0.0106
1036.00,0.0105
1035.00,0.0104
1034.00,0.0102
1033.00,0.0101
1032.00,0.0099
1031.00,0.0098
1030.00,0.0098
1029.00,0.0098
1028.00,0.0097
1027.00,0.0097
1026.00,0.0096
1025.00,0.0096
1024.00,0.0096
1023.00,0.0096
1022.00,0.0097
1021.00,0.0098
1020.00,0.0098
1019.00,0.0098
1018.00,0.0099
1017.00,0.0100
1016.00,0.0102
1015.00,0.0104
1014.00,0.0106
1013.00,0.0108
1012.00,0.0110
1011.00,0.0112
1010.00,0.0114
1009.00,0.0117
1008.00,0.0123
1007.00,0.0131
1006.00,0.0142
1005.00,0.0156
1004.00,0.0177
1003.00,0.0205
1002.00,0.0242
1001.00,0.0288
1000.00,0.0338
999.00,0.0380
998.00,0.0403
997.00,0.0398
996.00,0.0367
995.00,0.0319
994.00,0.0269
993.00,0.0225
992.00,0.0191
991.00,0.0167
990.00,0.0151
989.00,0.0140
988.00,0.0131
987.00,0.0126
986.00,0.0123
985.00,0.0124
984.00,0.0127
983.00,0.0134
982.00,0.0145
981.00,0.0163
980.00,0.0187
979.00,0.0218
978.00,0.0259
977.00,0.0307
976.00,0.0361
975.00,0.0415
974.00,0.0457
973.00,0.0476
972.00,0.0462
971.00,0.0419
970.00,0.0358
969.00,0.0295
968.00,0.0240
967.00,0.0198
966.00,0.0168
965.00,0.0145
964.00,0.0129
963.00,0.0118
962.00,0.0110
961.00,0.0104
960.00,0.0099
959.00,0.0095
958.00,0.0091
957.00,0.0088
956.00,0.0085
955.00,0.0082
954.00,0.0079
953.00,0.0076
952.00,0.0075
951.00,0.0075
950.00,0.0075
949.00,0.0076
948.00,0.0075
947.00,0.0075
946.00,0.0076
945.00,0.0078
944.00,0.0081
943.00,0.0084
942.00,0.0086
941.00,0.0088
940.00,0.0088
939.00,0.0086
938.00,0.0083
937.00,0.0079
936.00,0.0075
935.00,0.0073
934.00,0.0070
933.00,0.0068
932.00,0.0066
931.00,0.0065
930.00,0.0064
929.00,0.0063
928.00,0.0062
927.00,0.0062
926.00,0.0062
925.00,0.0062
924.00,0.0062
923.00,0.0063
922.00,0.0062
921.00,0.0062
920.00,0.0062
919.00,0.0063
918.00,0.0064
917.00,0.0065
916.00,0.0066
915.00,0.0067
914.00,0.0068
913.00,0.0069
912.00,0.0070
911.00,0.0071
910.00,0.0072
909.00,0.0075
908.00,0.0078
907.00,0.0082
906.00,0.0089
905.00,0.0098
904.00,0.0110
903.00,0.0125
902.00,0.0142
901.00,0.0158
900.00,0.0168
899.00,0.0169
898.00,0.0162
897.00,0.0148
896.00,0.0132
895.00,0.0118
894.00,0.0105
893.00,0.0095
892.00,0.0087
891.00,0.0082
890.00,0.0079
889.00,0.0078
888.00,0.0077
887.00,0.0076
886.00,0.0075
885.00,0.0073
884.00,0.0073
883.00,0.0074
882.00,0.0076
881.00,0.0077
880.00,0.0079
879.00,0.0080
878.00,0.0080
877.00,0.0081
876.00,0.0082
875.00,0.0082
874.00,0.0082
873.00,0.0081
872.00,0.0080
871.00,0.0080
870.00,0.0079
869.00,0.0079
868.00,0.0079
867.00,0.0080
866.00,0.0083
865.00,0.0085
864.00,0.0086
863.00,0.0087
862.00,0.0087
861.00,0.0087
860.00,0.0088
859.00,0.0090
858.00,0.0092
857.00,0.0094
856.00,0.0095
855.00,0.0096
854.00,0.0098
853.00,0.0102
852.00,0.0107
851.00,0.0113
850.00,0.0119
849.00,0.0126
848.00,0.0136
847.00,0.0151
846.00,0.0176
845.00,0.0215
844.00,0.0272
843.00,0.0340
842.00,0.0397
841.00,0.0419
840.00,0.0394
839.00,0.0335
838.00,0.0268
837.00,0.0213
836.00,0.0177
835.00,0.0154
834.00,0.0140
833.00,0.0131
832.00,0.0125
831.00,0.0120
830.00,0.0118
829.00,0.0116
828.00,0.0115
827.00,0.0113
826.00,0.0112
825.00,0.0112
824.00,0.0112
823.00,0.0113
822.00,0.0113
821.00,0.0114
820.00,0.0116
819.00,0.0118
818.00,0.0122
817.00,0.0127
816.00,0.0135
815.00,0.0145
814.00,0.0157
813.00,0.0173
812.00,0.0190
811.00,0.0206
810.00,0.0217
809.00,0.0221
808.00,0.0218
807.00,0.0208
806.00,0.0195
805.00,0.0179
804.00,0.0164
803.00,0.0151
802.00,0.0140
801.00,0.0133
800.00,0.0128
799.00,0.0124
798.00,0.0120
797.00,0.0117
796.00,0.0114
795.00,0.0111
794.00,0.0107
793.00,0.0103
792.00,0.0098
791.00,0.0094
790.00,0.0090
789.00,0.0088
788.00,0.0086
787.00,0.0084
786.00,0.0081
785.00,0.0079
784.00,0.0077
783.00,0.0076
782.00,0.0074
781.00,0.0072
780.00,0.0070
779.00,0.0069
778.00,0.0069
777.00,0.0070
776.00,0.0071
775.00,0.0072
774.00,0.0072
773.00,0.0072
772.00,0.0073
771.00,0.0073
770.00,0.0074
769.00,0.0074
768.00,0.0074
767.00,0.0073
766.00,0.0073
765.00,0.0073
764.00,0.0074
763.00,0.0074
762.00,0.0075
761.00,0.0075
760.00,0.0075
759.00,0.0075
758.00,0.0075
757.00,0.0075
756.00,0.0075
755.00,0.0075
754.00,0.0076
753.00,0.0078
752.00,0.0080
751.00,0.0082
750.00,0.0084
749.00,0.0086
748.00,0.0087
747.00,0.0088
746.00,0.0088
745.00,0.0089
744.00,0.0090
743.00,0.0092
742.00,0.0096
741.00,0.0101
740.00,0.0105
739.00,0.0109
738.00,0.0112
737.00,0.0114
736.00,0.0116
735.00,0.0119
734.00,0.0124
733.00,0.0132
732.00,0.0142
731.00,0.0151
730.00,0.0157
729.00,0.0161
728.00,0.0163
727.00,0.0163
726.00,0.0165
725.00,0.0168
724.00,0.0174
723.00,0.0182
722.00,0.0190
721.00,0.0193
720.00,0.0190
719.00,0.0180
718.00,0.0167
717.00,0.0153
716.00,0.0142
715.00,0.0133
714.00,0.0126
713.00,0.0120
712.00,0.0116
711.00,0.0113
710.00,0.0112
709.00,0.0112
708.00,0.0112
707.00,0.0112
706.00,0.0112
705.00,0.0111
704.00,0.0110
703.00,0.0108
702.00,0.0106
701.00,0.0103
700.00,0.0101
699.00,0.0099
698.00,0.0098
697.00,0.0097
696.00,0.0098
695.00,0.0098
694.00,0.0099
693.00,0.0099
692.00,0.0098
691.00,0.0097
690.00,0.0096
689.00,0.0095
688.00,0.0095
687.00,0.0097
686.00,0.0098
685.00,0.0098
684.00,0.0098
683.00,0.0098
682.00,0.0097
681.00,0.0096
680.00,0.0095
679.00,0.0095
678.00,0.0096
677.00,0.0097
676.00,0.0097
675.00,0.0097
674.00,0.0098
673.00,0.0098
672.00,0.0098
671.00,0.0099
670.00,0.0099
669.00,0.0098
668.00,0.0096
667.00,0.0097
666.00,0.0099
665.00,0.0099
664.00,0.0098
663.00,0.0097
662.00,0.0095
661.00,0.0095
660.00,0.0095
659.00,0.0096
658.00,0.0097
657.00,0.0097
656.00,0.0096
655.00,0.0095
654.00,0.0096
653.00,0.0098
652.00,0.0099
651.00,0.0098
650.00,0.0097
649.00,0.0096
648.00,0.0096
647.00,0.0097
646.00,0.0098
645.00,0.0098
644.00,0.0097
643.00,0.0094
642.00,0.0092
641.00,0.0090
640.00,0.0089
639.00,0.0090
638.00,0.0091
637.00,0.0092
636.00,0.0092
635.00,0.0091
634.00,0.0092
633.00,0.0092
632.00,0.0094
631.00,0.0096
630.00,0.0099
629.00,0.0100
628.00,0.0098
627.00,0.0095
626.00,0.0093
625.00,0.0093
624.00,0.0094
623.00,0.0094
622.00,0.0094
621.00,0.0093
620.00,0.0093
619.00,0.0093
618.00,0.0093
617.00,0.0093
616.00,0.0093
615.00,0.0093
614.00,0.0092
613.00,0.0091
612.00,0.0091
611.00,0.0091
610.00,0.0091
609.00,0.0090
608.00,0.0088
607.00,0.0086
606.00,0.0085
605.00,0.0086
604.00,0.0087
603.00,0.0088
602.00,0.0089
601.00,0.0090
600.00,0.0091
599.00,0.0093
598.00,0.0094
597.00,0.0094
596.00,0.0091
595.00,0.0087
594.00,0.0084
593.00,0.0085
592.00,0.0088
591.00,0.0092
590.00,0.0097
589.00,0.0100
588.00,0.0103
587.00,0.0104
586.00,0.0101
585.00,0.0098
584.00,0.0094
583.00,0.0092
582.00,0.0091
581.00,0.0091
580.00,0.0093
579.00,0.0096
578.00,0.0098
577.00,0.0097
576.00,0.0094
575.00,0.0093
574.00,0.0093
573.00,0.0094
572.00,0.0095
571.00,0.0096
570.00,0.0096
569.00,0.0096
568.00,0.0096
567.00,0.0095
566.00,0.0094
565.00,0.0093
564.00,0.0094
563.00,0.0095
562.00,0.0096
561.00,0.0096
560.00,0.0096
559.00,0.0096
558.00,0.0095
557.00,0.0092
556.00,0.0088
555.00,0.0085
554.00,0.0086
553.00,0.0090
552.00,0.0093
551.00,0.0094
550.00,0.0094
549.00,0.0095
548.00,0.0095
547.00,0.0095
546.00,0.0093
545.00,0.0093
544.00,0.0095
543.00,0.0099
542.00,0.0100
541.00,0.0098
540.00,0.0095
539.00,0.0093
538.00,0.0092
537.00,0.0093
536.00,0.0097
535.00,0.0103
534.00,0.0107
533.00,0.0107
532.00,0.0104
531.00,0.0102
530.00,0.0102
529.00,0.0103
528.00,0.0105
527.00,0.0109
526.00,0.0113
525.00,0.0114
524.00,0.0111
523.00,0.0107
522.00,0.0102
521.00,0.0098
520.00,0.0094
519.00,0.0092
518.00,0.0090
517.00,0.0089
516.00,0.0089
515.00,0.0088
514.00,0.0086
513.00,0.0084
512.00,0.0084
511.00,0.0087
510.00,0.0087
509.00,0.0084
508.00,0.0079
507.00,0.0076
506.00,0.0078
505.00,0.0081
504.00,0.0086
503.00,0.0092
502.00,0.0095
501.00,0.0094
500.00,0.0089
499.00,0.0084
498.00,0.0081
497.00,0.0080
496.00,0.0079
495.00,0.0080
494.00,0.0085
493.00,0.0090
492.00,0.0090
491.00,0.0085
490.00,0.0079
489.00,0.0077
488.00,0.0080
487.00,0.0084
486.00,0.0084
485.00,0.0081
484.00,0.0079
483.00,0.0077
482.00,0.0075
481.00,0.0070
480.00,0.0064
479.00,0.0060
478.00,0.0058
477.00,0.0054
476.00,0.0048
475.00,0.0042
474.00,0.0040
473.00,0.0041
472.00,0.0047
471.00,0.0060
470.00,0.0080
469.00,0.0098
468.00,0.0106
467.00,0.0103
466.00,0.0097
465.00,0.0091
464.00,0.0088
463.00,0.0091
462.00,0.0105
461.00,0.0130
460.00,0.0157
459.00,0.0172
458.00,0.0168
457.00,0.0152
456.00,0.0138
455.00,0.0130
454.00,0.0125
453.00,0.0122
452.00,0.0121
451.00,0.0120
450.00,0.0120
