Created as New Dataset,Sample 045 By Administrator Date Thursday, September 04 2025
cm-1,A
4000.00,0.0008
3999.00,0.0008
3998.00,0.0008
3997.00,0.0008
3996.00,0.0007
3995.00,0.0007
3994.00,0.0007
3993.00,0.0008
3992.00,0.0008
3991.00,0.0008
3990.00,0.0008
3989.00,0.0008
3988.00,0.0007
3987.00,0.0007
3986.00,0.0007
3985.00,0.0007
3984.00,0.0007
3983.00,0.0007
3982.00,0.0007
3981.00,0.0007
3980.00,0.0007
3979.00,0.0007
3978.00,0.0007
3977.00,0.0007
3976.00,0.0006
3975.00,0.0006
3974.00,0.0006
3973.00,0.0006
3972.00,0.0006
3971.00,0.0006
3970.00,0.0007
3969.00,0.0007
3968.00,0.0007
3967.00,0.0007
3966.00,0.0007
3965.00,0.0007
3964.00,0.0006
3963.00,0.0006
3962.00,0.0006
3961.00,0.0005
3960.00,0.0005
3959.00,0.0005
3958.00,0.0006
3957.00,0.0006
3956.00,0.0006
3955.00,0.0006
3954.00,0.0006
3953.00,0.0006
3952.00,0.0006
3951.00,0.0006
3950.00,0.0005
3949.00,0.0005
3948.00,0.0005
3947.00,0.0005
3946.00,0.0005
3945.00,0.0005
3944.00,0.0005
3943.00,0.0006
3942.00,0.0006
3941.00,0.0005
3940.00,0.0005
3939.00,0.0005
3938.00,0.0005
3937.00,0.0006
3936.00,0.0006
3935.00,0.0006
3934.00,0.0005
3933.00,0.0005
3932.00,0.0006
3931.00,0.0006
3930.00,0.0006
3929.00,0.0006
3928.00,0.0006
3927.00,0.0006
3926.00,0.0006
3925.00,0.0006
3924.00,0.0006
3923.00,0.0006
3922.00,0.0007
3921.00,0.0007
3920.00,0.0007
3919.00,0.0006
3918.00,0.0006
3917.00,0.0006
3916.00,0.0006
3915.00,0.0006
3914.00,0.0006
3913.00,0.0006
3912.00,0.0006
3911.00,0.0006
3910.00,0.0006
3909.00,0.0006
3908.00,0.0006
3907.00,0.0006
3906.00,0.0005
3905.00,0.0005
3904.00,0.0005
3903.00,0.0004
3902.00,0.0004
3901.00,0.0004
3900.00,0.0004
3899.00,0.0004
3898.00,0.0005
3897.00,0.0005
3896.00,0.0005
3895.00,0.0005
3894.00,0.0006
3893.00,0.0006
3892.00,0.0005
3891.00,0.0005
3890.00,0.0005
3889.00,0.0005
3888.00,0.0005
3887.00,0.0005
3886.00,0.0005
3885.00,0.0005
3884.00,0.0005
3883.00,0.0005
3882.00,0.0005
3881.00,0.0006
3880.00,0.0006
3879.00,0.0005
3878.00,0.0005
3877.00,0.0005
3876.00,0.0005
3875.00,0.0004
3874.00,0.0004
3873.00,0.0004
3872.00,0.0004
3871.00,0.0004
3870.00,0.0004
3869.00,0.0004
3868.00,0.0004
3867.00,0.0004
3866.00,0.0004
3865.00,0.0004
3864.00,0.0004
3863.00,0.0004
3862.00,0.0004
3861.00,0.0004
3860.00,0.0005
3859.00,0.0005
3858.00,0.0006
3857.00,0.0006
3856.00,0.0006
3855.00,0.0005
3854.00,0.0005
3853.00,0.0004
3852.00,0.0004
3851.00,0.0004
3850.00,0.0004
3849.00,0.0004
3848.00,0.0004
3847.00,0.0005
3846.00,0.0005
3845.00,0.0005
3844.00,0.0004
3843.00,0.0004
3842.00,0.0004
3841.00,0.0003
3840.00,0.0003
3839.00,0.0003
3838.00,0.0003
3837.00,0.0004
3836.00,0.0004
3835.00,0.0005
3834.00,0.0005
3833.00,0.0005
3832.00,0.0005
3831.00,0.0005
3830.00,0.0005
3829.00,0.0005
3828.00,0.0004
3827.00,0.0005
3826.00,0.0005
3825.00,0.0005
3824.00,0.0005
3823.00,0.0004
3822.00,0.0004
3821.00,0.0004
3820.00,0.0005
3819.00,0.0005
3818.00,0.0005
3817.00,0.0005
3816.00,0.0004
3815.00,0.0004
3814.00,0.0004
3813.00,0.0004
3812.00,0.0005
3811.00,0.0005
3810.00,0.0005
3809.00,0.0005
3808.00,0.0005
3807.00,0.0005
3806.00,0.0005
3805.00,0.0005
3804.00,0.0004
3803.00,0.0004
3802.00,0.0004
3801.00,0.0004
3800.00,0.0004
3799.00,0.0004
3798.00,0.0005
3797.00,0.0005
3796.00,0.0005
3795.00,0.0005
3794.00,0.0005
3793.00,0.0005
3792.00,0.0005
3791.00,0.0005
3790.00,0.0005
3789.00,0.0005
3788.00,0.0006
3787.00,0.0006
3786.00,0.0006
3785.00,0.0005
3784.00,0.0005
3783.00,0.0005
3782.00,0.0005
3781.00,0.0005
3780.00,0.0005
3779.00,0.0005
3778.00,0.0005
3777.00,0.0005
3776.00,0.0005
3775.00,0.0005
3774.00,0.0006
3773.00,0.0006
3772.00,0.0006
3771.00,0.0006
3770.00,0.0006
3769.00,0.0006
3768.00,0.0006
3767.00,0.0006
3766.00,0.0006
3765.00,0.0006
3764.00,0.0006
3763.00,0.0006
3762.00,0.0006
3761.00,0.0005
3760.00,0.0005
3759.00,0.0005
3758.00,0.0005
3757.00,0.0005
3756.00,0.0005
3755.00,0.0005
3754.00,0.0005
3753.00,0.0005
3752.00,0.0005
3751.00,0.0005
3750.00,0.0004
3749.00,0.0004
3748.00,0.0004
3747.00,0.0004
3746.00,0.0004
3745.00,0.0004
3744.00,0.0004
3743.00,0.0004
3742.00,0.0004
3741.00,0.0004
3740.00,0.0004
3739.00,0.0004
3738.00,0.0004
3737.00,0.0003
3736.00,0.0003
3735.00,0.0004
3734.00,0.0004
3733.00,0.0004
3732.00,0.0003
3731.00,0.0003
3730.00,0.0003
3729.00,0.0002
3728.00,0.0002
3727.00,0.0002
3726.00,0.0002
3725.00,0.0003
3724.00,0.0003
3723.00,0.0004
3722.00,0.0004
3721.00,0.0004
3720.00,0.0004
3719.00,0.0004
3718.00,0.0004
3717.00,0.0004
3716.00,0.0003
3715.00,0.0003
3714.00,0.0002
3713.00,0.0002
3712.00,0.0002
3711.00,0.0003
3710.00,0.0003
3709.00,0.0003
3708.00,0.0003
3707.00,0.0004
3706.00,0.0004
3705.00,0.0004
3704.00,0.0004
3703.00,0.0004
3702.00,0.0005
3701.00,0.0005
3700.00,0.0005
3699.00,0.0004
3698.00,0.0004
3697.00,0.0004
3696.00,0.0004
3695.00,0.0003
3694.00,0.0003
3693.00,0.0004
3692.00,0.0004
3691.00,0.0005
3690.00,0.0005
3689.00,0.0006
3688.00,0.0006
3687.00,0.0006
3686.00,0.0006
3685.00,0.0005
3684.00,0.0005
3683.00,0.0004
3682.00,0.0004
3681.00,0.0004
3680.00,0.0003
3679.00,0.0003
3678.00,0.0003
3677.00,0.0003
3676.00,0.0002
3675.00,0.0002
3674.00,0.0002
3673.00,0.0002
3672.00,0.0002
3671.00,0.0002
3670.00,0.0002
3669.00,0.0003
3668.00,0.0003
3667.00,0.0003
3666.00,0.0003
3665.00,0.0004
3664.00,0.0004
3663.00,0.0004
3662.00,0.0003
3661.00,0.0003
3660.00,0.0002
3659.00,0.0002
3658.00,0.0002
3657.00,0.0002
3656.00,0.0003
3655.00,0.0003
3654.00,0.0003
3653.00,0.0002
3652.00,0.0002
3651.00,0.0001
3650.00,0.0001
3649.00,0.0001
3648.00,0.0001
3647.00,0.0002
3646.00,0.0003
3645.00,0.0003
3644.00,0.0004
3643.00,0.0004
3642.00,0.0005
3641.00,0.0005
3640.00,0.0006
3639.00,0.0006
3638.00,0.0005
3637.00,0.0005
3636.00,0.0005
3635.00,0.0005
3634.00,0.0005
3633.00,0.0005
3632.00,0.0005
3631.00,0.0005
3630.00,0.0005
3629.00,0.0005
3628.00,0.0005
3627.00,0.0005
3626.00,0.0005
3625.00,0.0006
3624.00,0.0006
3623.00,0.0006
3622.00,0.0006
3621.00,0.0006
3620.00,0.0006
3619.00,0.0006
3618.00,0.0007
3617.00,0.0007
3616.00,0.0008
3615.00,0.0008
3614.00,0.0008
3613.00,0.0008
3612.00,0.0008
3611.00,0.0008
3610.00,0.0008
3609.00,0.0009
3608.00,0.0009
3607.00,0.0010
3606.00,0.0010
3605.00,0.0010
3604.00,0.0010
3603.00,0.0010
3602.00,0.0010
3601.00,0.0010
3600.00,0.0011
3599.00,0.0011
3598.00,0.0011
3597.00,0.0012
3596.00,0.0011
3595.00,0.0011
3594.00,0.0011
3593.00,0.0012
3592.00,0.0012
3591.00,0.0012
3590.00,0.0012
3589.00,0.0012
3588.00,0.0012
3587.00,0.0012
3586.00,0.0013
3585.00,0.0013
3584.00,0.0013
3583.00,0.0013
3582.00,0.0013
3581.00,0.0014
3580.00,0.0014
3579.00,0.0014
3578.00,0.0014
3577.00,0.0015
3576.00,0.0015
3575.00,0.0015
3574.00,0.0015
3573.00,0.0015
3572.00,0.0015
3571.00,0.0016
3570.00,0.0016
3569.00,0.0016
3568.00,0.0016
3567.00,0.0016
3566.00,0.0017
3565.00,0.0017
3564.00,0.0017
3563.00,0.0017
3562.00,0.0018
3561.00,0.0018
3560.00,0.0019
3559.00,0.0019
3558.00,0.0020
3557.00,0.0020
3556.00,0.0021
3555.00,0.0021
3554.00,0.0021
3553.00,0.0021
3552.00,0.0021
3551.00,0.0021
3550.00,0.0021
3549.00,0.0021
3548.00,0.0021
3547.00,0.0021
3546.00,0.0022
3545.00,0.0022
3544.00,0.0023
3543.00,0.0023
3542.00,0.0023
3541.00,0.0023
3540.00,0.0024
3539.00,0.0024
3538.00,0.0024
3537.00,0.0025
3536.00,0.0025
3535.00,0.0025
3534.00,0.0025
3533.00,0.0025
3532.00,0.0025
3531.00,0.0026
3530.00,0.0026
3529.00,0.0026
3528.00,0.0027
3527.00,0.0027
3526.00,0.0027
3525.00,0.0028
3524.00,0.0028
3523.00,0.0029
3522.00,0.0029
3521.00,0.0029
3520.00,0.0030
3519.00,0.0030
3518.00,0.0030
3517.00,0.0030
3516.00,0.0030
3515.00,0.0030
3514.00,0.0031
3513.00,0.0031
3512.00,0.0032
3511.00,0.0032
3510.00,0.0032
3509.00,0.0032
3508.00,0.0032
3507.00,0.0032
3506.00,0.0032
3505.00,0.0032
3504.00,0.0032
3503.00,0.0033
3502.00,0.0034
3501.00,0.0034
3500.00,0.0034
3499.00,0.0035
3498.00,0.0035
3497.00,0.0035
3496.00,0.0035
3495.00,0.0036
3494.00,0.0036
3493.00,0.0037
3492.00,0.0037
3491.00,0.0037
3490.00,0.0037
3489.00,0.0037
3488.00,0.0037
3487.00,0.0037
3486.00,0.0038
3485.00,0.0038
3484.00,0.0038
3483.00,0.0039
3482.00,0.0040
3481.00,0.0040
3480.00,0.0040
3479.00,0.0041
3478.00,0.0041
3477.00,0.0041
3476.00,0.0041
3475.00,0.0041
3474.00,0.0042
3473.00,0.0042
3472.00,0.0042
3471.00,0.0042
3470.00,0.0042
3469.00,0.0043
3468.00,0.0043
3467.00,0.0043
3466.00,0.0043
3465.00,0.0043
3464.00,0.0044
3463.00,0.0044
3462.00,0.0044
3461.00,0.0045
3460.00,0.0045
3459.00,0.0045
3458.00,0.0045
3457.00,0.0046
3456.00,0.0046
3455.00,0.0046
3454.00,0.0046
3453.00,0.0047
3452.00,0.0047
3451.00,0.0047
3450.00,0.0047
3449.00,0.0047
3448.00,0.0048
3447.00,0.0048
3446.00,0.0048
3445.00,0.0048
3444.00,0.0048
3443.00,0.0049
3442.00,0.0049
3441.00,0.0049
3440.00,0.0049
3439.00,0.0050
3438.00,0.0050
3437.00,0.0051
3436.00,0.0051
3435.00,0.0050
3434.00,0.0050
3433.00,0.0051
3432.00,0.0051
3431.00,0.0052
3430.00,0.0053
3429.00,0.0053
3428.00,0.0054
3427.00,0.0054
3426.00,0.0054
3425.00,0.0053
3424.00,0.0053
3423.00,0.0053
3422.00,0.0054
3421.00,0.0054
3420.00,0.0055
3419.00,0.0056
3418.00,0.0056
3417.00,0.0056
3416.00,0.0056
3415.00,0.0057
3414.00,0.0057
3413.00,0.0057
3412.00,0.0057
3411.00,0.0057
3410.00,0.0057
3409.00,0.0058
3408.00,0.0058
3407.00,0.0058
3406.00,0.0059
3405.00,0.0059
3404.00,0.0059
3403.00,0.0059
3402.00,0.0059
3401.00,0.0059
3400.00,0.0059
3399.00,0.0059
3398.00,0.0060
3397.00,0.0060
3396.00,0.0060
3395.00,0.0060
3394.00,0.0061
3393.00,0.0061
3392.00,0.0061
3391.00,0.0061
3390.00,0.0061
3389.00,0.0061
3388.00,0.0061
3387.00,0.0061
3386.00,0.0061
3385.00,0.0060
3384.00,0.0060
3383.00,0.0060
3382.00,0.0060
3381.00,0.0060
3380.00,0.0060
3379.00,0.0060
3378.00,0.0061
3377.00,0.0061
3376.00,0.0062
3375.00,0.0062
3374.00,0.0061
3373.00,0.0062
3372.00,0.0062
3371.00,0.0062
3370.00,0.0062
3369.00,0.0062
3368.00,0.0062
3367.00,0.0062
3366.00,0.0062
3365.00,0.0062
3364.00,0.0062
3363.00,0.0062
3362.00,0.0061
3361.00,0.0061
3360.00,0.0062
3359.00,0.0062
3358.00,0.0062
3357.00,0.0062
3356.00,0.0062
3355.00,0.0062
3354.00,0.0062
3353.00,0.0062
3352.00,0.0062
3351.00,0.0062
3350.00,0.0062
3349.00,0.0063
3348.00,0.0063
3347.00,0.0062
3346.00,0.0062
3345.00,0.0062
3344.00,0.0062
3343.00,0.0062
3342.00,0.0062
3341.00,0.0063
3340.00,0.0063
3339.00,0.0063
3338.00,0.0063
3337.00,0.0063
3336.00,0.0063
3335.00,0.0063
3334.00,0.0063
3333.00,0.0063
3332.00,0.0063
3331.00,0.0063
3330.00,0.0062
3329.00,0.0062
3328.00,0.0062
3327.00,0.0062
3326.00,0.0062
3325.00,0.0061
3324.00,0.0061
3323.00,0.0061
3322.00,0.0062
3321.00,0.0062
3320.00,0.0062
3319.00,0.0062
3318.00,0.0062
3317.00,0.0061
3316.00,0.0061
3315.00,0.0061
3314.00,0.0061
3313.00,0.0061
3312.00,0.0062
3311.00,0.0062
3310.00,0.0061
3309.00,0.0062
3308.00,0.0062
3307.00,0.0062
3306.00,0.0062
3305.00,0.0062
3304.00,0.0062
3303.00,0.0062
3302.00,0.0063
3301.00,0.0063
3300.00,0.0062
3299.00,0.0062
3298.00,0.0062
3297.00,0.0062
3296.00,0.0061
3295.00,0.0060
3294.00,0.0060
3293.00,0.0059
3292.00,0.0059
3291.00,0.0059
3290.00,0.0058
3289.00,0.0058
3288.00,0.0059
3287.00,0.0058
3286.00,0.0058
3285.00,0.0058
3284.00,0.0058
3283.00,0.0057
3282.00,0.0057
3281.00,0.0057
3280.00,0.0056
3279.00,0.0056
3278.00,0.0056
3277.00,0.0056
3276.00,0.0056
3275.00,0.0056
3274.00,0.0056
3273.00,0.0055
3272.00,0.0055
3271.00,0.0055
3270.00,0.0054
3269.00,0.0054
3268.00,0.0054
3267.00,0.0054
3266.00,0.0054
3265.00,0.0054
3264.00,0.0054
3263.00,0.0054
3262.00,0.0054
3261.00,0.0054
3260.00,0.0054
3259.00,0.0054
3258.00,0.0053
3257.00,0.0052
3256.00,0.0052
3255.00,0.0051
3254.00,0.0051
3253.00,0.0051
3252.00,0.0051
3251.00,0.0051
3250.00,0.0050
3249.00,0.0050
3248.00,0.0050
3247.00,0.0050
3246.00,0.0050
3245.00,0.0050
3244.00,0.0050
3243.00,0.0050
3242.00,0.0050
3241.00,0.0050
3240.00,0.0050
3239.00,0.0050
3238.00,0.0050
3237.00,0.0050
3236.00,0.0049
3235.00,0.0049
3234.00,0.0049
3233.00,0.0049
3232.00,0.0050
3231.00,0.0050
3230.00,0.0050
3229.00,0.0050
3228.00,0.0051
3227.00,0.0051
3226.00,0.0052
3225.00,0.0052
3224.00,0.0052
3223.00,0.0052
3222.00,0.0052
3221.00,0.0052
3220.00,0.0052
3219.00,0.0052
3218.00,0.0053
3217.00,0.0052
3216.00,0.0052
3215.00,0.0052
3214.00,0.0053
3213.00,0.0053
3212.00,0.0054
3211.00,0.0054
3210.00,0.0055
3209.00,0.0054
3208.00,0.0054
3207.00,0.0054
3206.00,0.0053
3205.00,0.0053
3204.00,0.0053
3203.00,0.0053
3202.00,0.0053
3201.00,0.0054
3200.00,0.0054
3199.00,0.0054
3198.00,0.0054
3197.00,0.0054
3196.00,0.0054
3195.00,0.0054
3194.00,0.0054
3193.00,0.0054
3192.00,0.0054
3191.00,0.0054
3190.00,0.0053
3189.00,0.0053
3188.00,0.0053
3187.00,0.0053
3186.00,0.0053
3185.00,0.0053
3184.00,0.0052
3183.00,0.0052
3182.00,0.0051
3181.00,0.0051
3180.00,0.0052
3179.00,0.0051
3178.00,0.0051
3177.00,0.0051
3176.00,0.0050
3175.00,0.0050
3174.00,0.0050
3173.00,0.0049
3172.00,0.0049
3171.00,0.0048
3170.00,0.0048
3169.00,0.0048
3168.00,0.0048
3167.00,0.0048
3166.00,0.0048
3165.00,0.0048
3164.00,0.0048
3163.00,0.0048
3162.00,0.0048
3161.00,0.0048
3160.00,0.0048
3159.00,0.0047
3158.00,0.0047
3157.00,0.0046
3156.00,0.0046
3155.00,0.0047
3154.00,0.0047
3153.00,0.0047
3152.00,0.0047
3151.00,0.0046
3150.00,0.0046
3149.00,0.0046
3148.00,0.0046
3147.00,0.0045
3146.00,0.0045
3145.00,0.0044
3144.00,0.0044
3143.00,0.0044
3142.00,0.0044
3141.00,0.0044
3140.00,0.0044
3139.00,0.0044
3138.00,0.0044
3137.00,0.0043
3136.00,0.0043
3135.00,0.0043
3134.00,0.0043
3133.00,0.0042
3132.00,0.0042
3131.00,0.0042
3130.00,0.0042
3129.00,0.0042
3128.00,0.0041
3127.00,0.0041
3126.00,0.0041
3125.00,0.0041
3124.00,0.0041
3123.00,0.0040
3122.00,0.0040
3121.00,0.0040
3120.00,0.0040
3119.00,0.0039
3118.00,0.0039
3117.00,0.0038
3116.00,0.0038
3115.00,0.0038
3114.00,0.0038
3113.00,0.0039
3112.00,0.0038
3111.00,0.0038
3110.00,0.0037
3109.00,0.0037
3108.00,0.0036
3107.00,0.0036
3106.00,0.0036
3105.00,0.0036
3104.00,0.0037
3103.00,0.0037
3102.00,0.0037
3101.00,0.0036
3100.00,0.0036
3099.00,0.0036
3098.00,0.0036
3097.00,0.0036
3096.00,0.0035
3095.00,0.0035
3094.00,0.0035
3093.00,0.0035
3092.00,0.0035
3091.00,0.0035
3090.00,0.0035
3089.00,0.0035
3088.00,0.0035
3087.00,0.0035
3086.00,0.0035
3085.00,0.0035
3084.00,0.0034
3083.00,0.0034
3082.00,0.0034
3081.00,0.0035
3080.00,0.0035
3079.00,0.0035
3078.00,0.0035
3077.00,0.0035
3076.00,0.0035
3075.00,0.0035
3074.00,0.0035
3073.00,0.0035
3072.00,0.0035
3071.00,0.0036
3070.00,0.0036
3069.00,0.0035
3068.00,0.0035
3067.00,0.0035
3066.00,0.0035
3065.00,0.0036
3064.00,0.0036
3063.00,0.0036
3062.00,0.0037
3061.00,0.0037
3060.00,0.0037
3059.00,0.0037
3058.00,0.0037
3057.00,0.0037
3056.00,0.0036
3055.00,0.0036
3054.00,0.0036
3053.00,0.0036
3052.00,0.0037
3051.00,0.0037
3050.00,0.0038
3049.00,0.0038
3048.00,0.0038
3047.00,0.0038
3046.00,0.0038
3045.00,0.0038
3044.00,0.0039
3043.00,0.0039
3042.00,0.0039
3041.00,0.0040
3040.00,0.0040
3039.00,0.0040
3038.00,0.0040
3037.00,0.0040
3036.00,0.0040
3035.00,0.0040
3034.00,0.0041
3033.00,0.0041
3032.00,0.0041
3031.00,0.0042
3030.00,0.0043
3029.00,0.0043
3028.00,0.0044
3027.00,0.0044
3026.00,0.0045
3025.00,0.0045
3024.00,0.0045
3023.00,0.0046
3022.00,0.0046
3021.00,0.0047
3020.00,0.0048
3019.00,0.0049
3018.00,0.0049
3017.00,0.0050
3016.00,0.0051
3015.00,0.0052
3014.00,0.0053
3013.00,0.0053
3012.00,0.0054
3011.00,0.0055
3010.00,0.0055
3009.00,0.0056
3008.00,0.0057
3007.00,0.0058
3006.00,0.0059
3005.00,0.0060
3004.00,0.0061
3003.00,0.0062
3002.00,0.0063
3001.00,0.0065
3000.00,0.0067
2999.00,0.0069
2998.00,0.0071
2997.00,0.0074
2996.00,0.0077
2995.00,0.0080
2994.00,0.0083
2993.00,0.0087
2992.00,0.0092
2991.00,0.0097
2990.00,0.0103
2989.00,0.0109
2988.00,0.0116
2987.00,0.0124
2986.00,0.0132
2985.00,0.0140
2984.00,0.0149
2983.00,0.0159
2982.00,0.0172
2981.00,0.0187
2980.00,0.0206
2979.00,0.0227
2978.00,0.0251
2977.00,0.0278
2976.00,0.0309
2975.00,0.0343
2974.00,0.0382
2973.00,0.0426
2972.00,0.0476
2971.00,0.0531
2970.00,0.0593
2969.00,0.0661
2968.00,0.0733
2967.00,0.0808
2966.00,0.0886
2965.00,0.0964
2964.00,0.1038
2963.00,0.1106
2962.00,0.1165
2961.00,0.1215
2960.00,0.1258
2959.00,0.1298
2958.00,0.1341
2957.00,0.1391
2956.00,0.1453
2955.00,0.1527
2954.00,0.1610
2953.00,0.1697
2952.00,0.1775
2951.00,0.1832
2950.00,0.1857
2949.00,0.1842
2948.00,0.1786
2947.00,0.1694
2946.00,0.1578
2945.00,0.1453
2944.00,0.1333
2943.00,0.1230
2942.00,0.1149
2941.00,0.1093
2940.00,0.1062
2939.00,0.1054
2938.00,0.1066
2937.00,0.1095
2936.00,0.1141
2935.00,0.1203
2934.00,0.1278
2933.00,0.1367
2932.00,0.1467
2931.00,0.1577
2930.00,0.1695
2929.00,0.1816
2928.00,0.1938
2927.00,0.2058
2926.00,0.2176
2925.00,0.2290
2924.00,0.2403
2923.00,0.2516
2922.00,0.2628
2921.00,0.2737
2920.00,0.2834
2919.00,0.2909
2918.00,0.2950
2917.00,0.2947
2916.00,0.2899
2915.00,0.2812
2914.00,0.2699
2913.00,0.2574
2912.00,0.2449
2911.00,0.2332
2910.00,0.2226
2909.00,0.2130
2908.00,0.2043
2907.00,0.1961
2906.00,0.1883
2905.00,0.1806
2904.00,0.1731
2903.00,0.1658
2902.00,0.1587
2901.00,0.1519
2900.00,0.1454
2899.00,0.1393
2898.00,0.1336
2897.00,0.1284
2896.00,0.1238
2895.00,0.1197
2894.00,0.1163
2893.00,0.1134
2892.00,0.1111
2891.00,0.1095
2890.00,0.1083
2889.00,0.1076
2888.00,0.1072
2887.00,0.1072
2886.00,0.1076
2885.00,0.1084
2884.00,0.1097
2883.00,0.1115
2882.00,0.1138
2881.00,0.1164
2880.00,0.1192
2879.00,0.1215
2878.00,0.1231
2877.00,0.1238
2876.00,0.1235
2875.00,0.1229
2874.00,0.1223
2873.00,0.1222
2872.00,0.1228
2871.00,0.1242
2870.00,0.1261
2869.00,0.1280
2868.00,0.1292
2867.00,0.1289
2866.00,0.1264
2865.00,0.1216
2864.00,0.1148
2863.00,0.1070
2862.00,0.0992
2861.00,0.0923
2860.00,0.0869
2859.00,0.0832
2858.00,0.0811
2857.00,0.0803
2856.00,0.0807
2855.00,0.0819
2854.00,0.0837
2853.00,0.0858
2852.00,0.0879
2851.00,0.0897
2850.00,0.0910
2849.00,0.0917
2848.00,0.0921
2847.00,0.0929
2846.00,0.0944
2845.00,0.0969
2844.00,0.1006
2843.00,0.1052
2842.00,0.1102
2841.00,0.1150
2840.00,0.1188
2839.00,0.1208
2838.00,0.1204
2837.00,0.1171
2836.00,0.1109
2835.00,0.1023
2834.00,0.0922
2833.00,0.0816
2832.00,0.0714
2831.00,0.0624
2830.00,0.0548
2829.00,0.0485
2828.00,0.0434
2827.00,0.0393
2826.00,0.0359
2825.00,0.0332
2824.00,0.0309
2823.00,0.0290
2822.00,0.0273
2821.00,0.0259
2820.00,0.0247
2819.00,0.0236
2818.00,0.0227
2817.00,0.0218
2816.00,0.0211
2815.00,0.0204
2814.00,0.0197
2813.00,0.0192
2812.00,0.0186
2811.00,0.0181
2810.00,0.0175
2809.00,0.0169
2808.00,0.0163
2807.00,0.0156
2806.00,0.0150
2805.00,0.0143
2804.00,0.0137
2803.00,0.0131
2802.00,0.0126
2801.00,0.0121
2800.00,0.0117
2799.00,0.0113
2798.00,0.0111
2797.00,0.0108
2796.00,0.0106
2795.00,0.0103
2794.00,0.0101
2793.00,0.0098
2792.00,0.0095
2791.00,0.0093
2790.00,0.0090
2789.00,0.0086
2788.00,0.0083
2787.00,0.0080
2786.00,0.0078
2785.00,0.0076
2784.00,0.0074
2783.00,0.0072
2782.00,0.0070
2781.00,0.0069
2780.00,0.0067
2779.00,0.0065
2778.00,0.0064
2777.00,0.0063
2776.00,0.0061
2775.00,0.0060
2774.00,0.0060
2773.00,0.0059
2772.00,0.0058
2771.00,0.0058
2770.00,0.0057
2769.00,0.0057
2768.00,0.0056
2767.00,0.0056
2766.00,0.0056
2765.00,0.0056
2764.00,0.0055
2763.00,0.0055
2762.00,0.0055
2761.00,0.0054
2760.00,0.0054
2759.00,0.0053
2758.00,0.0053
2757.00,0.0053
2756.00,0.0053
2755.00,0.0053
2754.00,0.0053
2753.00,0.0053
2752.00,0.0053
2751.00,0.0052
2750.00,0.0052
2749.00,0.0052
2748.00,0.0052
2747.00,0.0052
2746.00,0.0052
2745.00,0.0053
2744.00,0.0053
2743.00,0.0054
2742.00,0.0055
2741.00,0.0056
2740.00,0.0057
2739.00,0.0059
2738.00,0.0060
2737.00,0.0062
2736.00,0.0063
2735.00,0.0064
2734.00,0.0066
2733.00,0.0067
2732.00,0.0069
2731.00,0.0071
2730.00,0.0074
2729.00,0.0076
2728.00,0.0079
2727.00,0.0081
2726.00,0.0084
2725.00,0.0086
2724.00,0.0087
2723.00,0.0088
2722.00,0.0087
2721.00,0.0086
2720.00,0.0083
2719.00,0.0080
2718.00,0.0076
2717.00,0.0073
2716.00,0.0070
2715.00,0.0068
2714.00,0.0066
2713.00,0.0064
2712.00,0.0061
2711.00,0.0059
2710.00,0.0057
2709.00,0.0055
2708.00,0.0053
2707.00,0.0052
2706.00,0.0051
2705.00,0.0050
2704.00,0.0049
2703.00,0.0048
2702.00,0.0047
2701.00,0.0047
2700.00,0.0046
2699.00,0.0045
2698.00,0.0045
2697.00,0.0045
2696.00,0.0044
2695.00,0.0044
2694.00,0.0044
2693.00,0.0044
2692.00,0.0044
2691.00,0.0044
2690.00,0.0044
2689.00,0.0044
2688.00,0.0044
2687.00,0.0044
2686.00,0.0044
2685.00,0.0044
2684.00,0.0044
2683.00,0.0045
2682.00,0.0045
2681.00,0.0045
2680.00,0.0045
2679.00,0.0045
2678.00,0.0045
2677.00,0.0045
2676.00,0.0045
2675.00,0.0045
2674.00,0.0044
2673.00,0.0044
2672.00,0.0044
2671.00,0.0044
2670.00,0.0045
2669.00,0.0045
2668.00,0.0045
2667.00,0.0045
2666.00,0.0045
2665.00,0.0045
2664.00,0.0046
2663.00,0.0046
2662.00,0.0046
2661.00,0.0047
2660.00,0.0047
2659.00,0.0048
2658.00,0.0048
2657.00,0.0047
2656.00,0.0047
2655.00,0.0046
2654.00,0.0046
2653.00,0.0046
2652.00,0.0045
2651.00,0.0045
2650.00,0.0044
2649.00,0.0043
2648.00,0.0043
2647.00,0.0042
2646.00,0.0041
2645.00,0.0041
2644.00,0.0040
2643.00,0.0040
2642.00,0.0040
2641.00,0.0040
2640.00,0.0039
2639.00,0.0039
2638.00,0.0038
2637.00,0.0038
2636.00,0.0038
2635.00,0.0038
2634.00,0.0038
2633.00,0.0038
2632.00,0.0038
2631.00,0.0038
2630.00,0.0038
2629.00,0.0038
2628.00,0.0038
2627.00,0.0038
2626.00,0.0039
2625.00,0.0039
2624.00,0.0040
2623.00,0.0040
2622.00,0.0039
2621.00,0.0039
2620.00,0.0039
2619.00,0.0039
2618.00,0.0040
2617.00,0.0039
2616.00,0.0039
2615.00,0.0039
2614.00,0.0039
2613.00,0.0039
2612.00,0.0038
2611.00,0.0038
2610.00,0.0037
2609.00,0.0037
2608.00,0.0036
2607.00,0.0034
2606.00,0.0034
2605.00,0.0033
2604.00,0.0033
2603.00,0.0033
2602.00,0.0032
2601.00,0.0032
2600.00,0.0032
2599.00,0.0032
2598.00,0.0032
2597.00,0.0032
2596.00,0.0032
2595.00,0.0031
2594.00,0.0031
2593.00,0.0031
2592.00,0.0031
2591.00,0.0033
2590.00,0.0034
2589.00,0.0036
2588.00,0.0036
2587.00,0.0037
2586.00,0.0037
2585.00,0.0038
2584.00,0.0038
2583.00,0.0039
2582.00,0.0039
2581.00,0.0040
2580.00,0.0039
2579.00,0.0039
2578.00,0.0037
2577.00,0.0035
2576.00,0.0033
2575.00,0.0031
2574.00,0.0030
2573.00,0.0029
2572.00,0.0029
2571.00,0.0028
2570.00,0.0028
2569.00,0.0027
2568.00,0.0026
2567.00,0.0025
2566.00,0.0025
2565.00,0.0025
2564.00,0.0025
2563.00,0.0024
2562.00,0.0023
2561.00,0.0022
2560.00,0.0022
2559.00,0.0021
2558.00,0.0021
2557.00,0.0021
2556.00,0.0021
2555.00,0.0021
2554.00,0.0021
2553.00,0.0021
2552.00,0.0021
2551.00,0.0021
2550.00,0.0021
2549.00,0.0020
2548.00,0.0020
2547.00,0.0020
2546.00,0.0019
2545.00,0.0019
2544.00,0.0019
2543.00,0.0019
2542.00,0.0018
2541.00,0.0018
2540.00,0.0017
2539.00,0.0017
2538.00,0.0017
2537.00,0.0017
2536.00,0.0016
2535.00,0.0016
2534.00,0.0016
2533.00,0.0015
2532.00,0.0015
2531.00,0.0014
2530.00,0.0014
2529.00,0.0014
2528.00,0.0013
2527.00,0.0013
2526.00,0.0013
2525.00,0.0013
2524.00,0.0013
2523.00,0.0013
2522.00,0.0013
2521.00,0.0013
2520.00,0.0013
2519.00,0.0013
2518.00,0.0013
2517.00,0.0012
2516.00,0.0012
2515.00,0.0011
2514.00,0.0011
2513.00,0.0011
2512.00,0.0011
2511.00,0.0011
2510.00,0.0011
2509.00,0.0011
2508.00,0.0010
2507.00,0.0010
2506.00,0.0010
2505.00,0.0010
2504.00,0.0010
2503.00,0.0011
2502.00,0.0010
2501.00,0.0010
2500.00,0.0010
2499.00,0.0010
2498.00,0.0010
2497.00,0.0010
2496.00,0.0010
2495.00,0.0010
2494.00,0.0009
2493.00,0.0009
2492.00,0.0009
2491.00,0.0009
2490.00,0.0009
2489.00,0.0010
2488.00,0.0010
2487.00,0.0010
2486.00,0.0010
2485.00,0.0010
2484.00,0.0010
2483.00,0.0010
2482.00,0.0010
2481.00,0.0009
2480.00,0.0009
2479.00,0.0009
2478.00,0.0009
2477.00,0.0008
2476.00,0.0008
2475.00,0.0008
2474.00,0.0008
2473.00,0.0008
2472.00,0.0008
2471.00,0.0008
2470.00,0.0007
2469.00,0.0007
2468.00,0.0007
2467.00,0.0007
2466.00,0.0008
2465.00,0.0008
2464.00,0.0009
2463.00,0.0010
2462.00,0.0010
2461.00,0.0011
2460.00,0.0012
2459.00,0.0012
2458.00,0.0011
2457.00,0.0011
2456.00,0.0010
2455.00,0.0010
2454.00,0.0011
2453.00,0.0011
2452.00,0.0011
2451.00,0.0010
2450.00,0.0010
2449.00,0.0010
2448.00,0.0010
2447.00,0.0010
2446.00,0.0010
2445.00,0.0010
2444.00,0.0010
2443.00,0.0010
2442.00,0.0011
2441.00,0.0011
2440.00,0.0011
2439.00,0.0010
2438.00,0.0010
2437.00,0.0010
2436.00,0.0010
2435.00,0.0011
2434.00,0.0012
2433.00,0.0012
2432.00,0.0011
2431.00,0.0010
2430.00,0.0009
2429.00,0.0009
2428.00,0.0009
2427.00,0.0009
2426.00,0.0009
2425.00,0.0010
2424.00,0.0010
2423.00,0.0010
2422.00,0.0009
2421.00,0.0009
2420.00,0.0008
2419.00,0.0007
2418.00,0.0007
2417.00,0.0008
2416.00,0.0009
2415.00,0.0009
2414.00,0.0009
2413.00,0.0009
2412.00,0.0009
2411.00,0.0009
2410.00,0.0009
2409.00,0.0009
2408.00,0.0009
2407.00,0.0008
2406.00,0.0008
2405.00,0.0008
2404.00,0.0007
2403.00,0.0007
2402.00,0.0006
2401.00,0.0006
2400.00,0.0006
2399.00,0.0007
2398.00,0.0007
2397.00,0.0008
2396.00,0.0009
2395.00,0.0009
2394.00,0.0009
2393.00,0.0009
2392.00,0.0009
2391.00,0.0008
2390.00,0.0008
2389.00,0.0007
2388.00,0.0006
2387.00,0.0005
2386.00,0.0005
2385.00,0.0004
2384.00,0.0004
2383.00,0.0003
2382.00,0.0003
2381.00,0.0002
2380.00,0.0001
2379.00,0.0001
2378.00,0.0001
2377.00,0.0001
2376.00,0.0002
2375.00,0.0002
2374.00,0.0002
2373.00,0.0002
2372.00,0.0002
2371.00,0.0002
2370.00,0.0002
2369.00,0.0001
2368.00,0.0001
2367.00,0.0001
2366.00,0.0001
2365.00,0.0001
2364.00,0.0001
2363.00,0.0001
2362.00,0.0001
2361.00,0.0002
2360.00,0.0002
2359.00,0.0002
2358.00,0.0002
2357.00,0.0002
2356.00,0.0002
2355.00,0.0002
2354.00,0.0002
2353.00,0.0002
2352.00,0.0002
2351.00,0.0002
2350.00,0.0002
2349.00,0.0003
2348.00,0.0003
2347.00,0.0003
2346.00,0.0003
2345.00,0.0003
2344.00,0.0004
2343.00,0.0004
2342.00,0.0005
2341.00,0.0005
2340.00,0.0005
2339.00,0.0005
2338.00,0.0005
2337.00,0.0005
2336.00,0.0005
2335.00,0.0005
2334.00,0.0006
2333.00,0.0006
2332.00,0.0005
2331.00,0.0005
2330.00,0.0004
2329.00,0.0005
2328.00,0.0007
2327.00,0.0011
2326.00,0.0015
2325.00,0.0018
2324.00,0.0019
2323.00,0.0018
2322.00,0.0016
2321.00,0.0014
2320.00,0.0013
2319.00,0.0012
2318.00,0.0012
2317.00,0.0011
2316.00,0.0011
2315.00,0.0010
2314.00,0.0009
2313.00,0.0009
2312.00,0.0009
2311.00,0.0009
2310.00,0.0009
2309.00,0.0009
2308.00,0.0009
2307.00,0.0010
2306.00,0.0010
2305.00,0.0011
2304.00,0.0010
2303.00,0.0010
2302.00,0.0010
2301.00,0.0010
2300.00,0.0011
2299.00,0.0012
2298.00,0.0012
2297.00,0.0013
2296.00,0.0013
2295.00,0.0013
2294.00,0.0013
2293.00,0.0013
2292.00,0.0013
2291.00,0.0014
2290.00,0.0015
2289.00,0.0016
2288.00,0.0017
2287.00,0.0017
2286.00,0.0017
2285.00,0.0017
2284.00,0.0016
2283.00,0.0015
2282.00,0.0014
2281.00,0.0014
2280.00,0.0014
2279.00,0.0014
2278.00,0.0015
2277.00,0.0015
2276.00,0.0015
2275.00,0.0015
2274.00,0.0015
2273.00,0.0015
2272.00,0.0015
2271.00,0.0015
2270.00,0.0014
2269.00,0.0013
2268.00,0.0011
2267.00,0.0010
2266.00,0.0010
2265.00,0.0010
2264.00,0.0010
2263.00,0.0011
2262.00,0.0012
2261.00,0.0012
2260.00,0.0013
2259.00,0.0013
2258.00,0.0013
2257.00,0.0012
2256.00,0.0012
2255.00,0.0011
2254.00,0.0010
2253.00,0.0010
2252.00,0.0009
2251.00,0.0008
2250.00,0.0007
2249.00,0.0007
2248.00,0.0007
2247.00,0.0008
2246.00,0.0009
2245.00,0.0009
2244.00,0.0009
2243.00,0.0008
2242.00,0.0007
2241.00,0.0007
2240.00,0.0008
2239.00,0.0008
2238.00,0.0009
2237.00,0.0009
2236.00,0.0009
2235.00,0.0009
2234.00,0.0009
2233.00,0.0008
2232.00,0.0008
2231.00,0.0009
2230.00,0.0009
2229.00,0.0008
2228.00,0.0007
2227.00,0.0005
2226.00,0.0006
2225.00,0.0007
2224.00,0.0009
2223.00,0.0010
2222.00,0.0010
2221.00,0.0009
2220.00,0.0008
2219.00,0.0007
2218.00,0.0005
2217.00,0.0004
2216.00,0.0003
2215.00,0.0003
2214.00,0.0004
2213.00,0.0005
2212.00,0.0007
2211.00,0.0007
2210.00,0.0007
2209.00,0.0007
2208.00,0.0007
2207.00,0.0007
2206.00,0.0008
2205.00,0.0009
2204.00,0.0008
2203.00,0.0006
2202.00,0.0005
2201.00,0.0005
2200.00,0.0006
2199.00,0.0006
2198.00,0.0006
2197.00,0.0007
2196.00,0.0008
2195.00,0.0009
2194.00,0.0010
2193.00,0.0010
2192.00,0.0011
2191.00,0.0011
2190.00,0.0010
2189.00,0.0010
2188.00,0.0010
2187.00,0.0010
2186.00,0.0010
2185.00,0.0009
2184.00,0.0006
2183.00,0.0002
2182.00,-0.0002
2181.00,-0.0004
2180.00,-0.0004
2179.00,-0.0003
2178.00,-0.0003
2177.00,-0.0004
2176.00,-0.0005
2175.00,-0.0005
2174.00,-0.0003
2173.00,0.0000
2172.00,0.0005
2171.00,0.0009
2170.00,0.0013
2169.00,0.0016
2168.00,0.0017
2167.00,0.0017
2166.00,0.0016
2165.00,0.0017
2164.00,0.0019
2163.00,0.0021
2162.00,0.0022
2161.00,0.0018
2160.00,0.0008
2159.00,-0.0007
2158.00,-0.0020
2157.00,-0.0026
2156.00,-0.0026
2155.00,-0.0023
2154.00,-0.0020
2153.00,-0.0017
2152.00,-0.0014
2151.00,-0.0012
2150.00,-0.0009
2149.00,-0.0007
2148.00,-0.0006
2147.00,-0.0008
2146.00,-0.0010
2145.00,-0.0011
2144.00,-0.0012
2143.00,-0.0012
2142.00,-0.0011
2141.00,-0.0011
2140.00,-0.0010
2139.00,-0.0010
2138.00,-0.0010
2137.00,-0.0012
2136.00,-0.0014
2135.00,-0.0017
2134.00,-0.0019
2133.00,-0.0019
2132.00,-0.0019
2131.00,-0.0018
2130.00,-0.0016
2129.00,-0.0014
2128.00,-0.0011
2127.00,-0.0009
2126.00,-0.0008
2125.00,-0.0007
2124.00,-0.0007
2123.00,-0.0006
2122.00,-0.0004
2121.00,-0.0002
2120.00,-0.0000
2119.00,0.0001
2118.00,0.0002
2117.00,0.0002
2116.00,0.0003
2115.00,0.0003
2114.00,0.0003
2113.00,0.0003
2112.00,0.0003
2111.00,0.0003
2110.00,0.0002
2109.00,0.0002
2108.00,0.0001
2107.00,0.0001
2106.00,0.0001
2105.00,0.0002
2104.00,0.0003
2103.00,0.0004
2102.00,0.0005
2101.00,0.0005
2100.00,0.0004
2099.00,0.0003
2098.00,0.0001
2097.00,-0.0000
2096.00,-0.0002
2095.00,-0.0004
2094.00,-0.0004
2093.00,-0.0003
2092.00,-0.0002
2091.00,-0.0001
2090.00,-0.0001
2089.00,-0.0000
2088.00,0.0001
2087.00,0.0002
2086.00,0.0002
2085.00,0.0001
2084.00,0.0001
2083.00,0.0001
2082.00,0.0001
2081.00,0.0002
2080.00,0.0003
2079.00,0.0003
2078.00,0.0004
2077.00,0.0004
2076.00,0.0003
2075.00,0.0002
2074.00,0.0001
2073.00,0.0002
2072.00,0.0002
2071.00,0.0002
2070.00,0.0001
2069.00,-0.0000
2068.00,-0.0001
2067.00,-0.0001
2066.00,-0.0002
2065.00,-0.0002
2064.00,-0.0002
2063.00,-0.0001
2062.00,-0.0001
2061.00,-0.0000
2060.00,0.0000
2059.00,0.0001
2058.00,0.0002
2057.00,0.0004
2056.00,0.0006
2055.00,0.0006
2054.00,0.0007
2053.00,0.0010
2052.00,0.0013
2051.00,0.0013
2050.00,0.0009
2049.00,0.0004
2048.00,-0.0001
2047.00,-0.0003
2046.00,-0.0002
2045.00,0.0001
2044.00,0.0004
2043.00,0.0004
2042.00,0.0001
2041.00,-0.0003
2040.00,-0.0007
2039.00,-0.0007
2038.00,-0.0006
2037.00,-0.0003
2036.00,-0.0001
2035.00,-0.0003
2034.00,-0.0007
2033.00,-0.0010
2032.00,-0.0011
2031.00,-0.0011
2030.00,-0.0010
2029.00,-0.0011
2028.00,-0.0011
2027.00,-0.0012
2026.00,-0.0011
2025.00,-0.0009
2024.00,-0.0009
2023.00,-0.0011
2022.00,-0.0014
2021.00,-0.0015
2020.00,-0.0014
2019.00,-0.0011
2018.00,-0.0007
2017.00,-0.0005
2016.00,-0.0006
2015.00,-0.0008
2014.00,-0.0009
2013.00,-0.0010
2012.00,-0.0010
2011.00,-0.0010
2010.00,-0.0011
2009.00,-0.0012
2008.00,-0.0015
2007.00,-0.0019
2006.00,-0.0021
2005.00,-0.0020
2004.00,-0.0019
2003.00,-0.0018
2002.00,-0.0018
2001.00,-0.0017
2000.00,-0.0015
1999.00,-0.0013
1998.00,-0.0011
1997.00,-0.0010
1996.00,-0.0011
1995.00,-0.0011
1994.00,-0.0011
1993.00,-0.0008
1992.00,-0.0006
1991.00,-0.0005
1990.00,-0.0006
1989.00,-0.0005
1988.00,-0.0005
1987.00,-0.0004
1986.00,-0.0003
1985.00,-0.0001
1984.00,0.0003
1983.00,0.0006
1982.00,0.0006
1981.00,0.0005
1980.00,0.0002
1979.00,-0.0002
1978.00,-0.0007
1977.00,-0.0012
1976.00,-0.0016
1975.00,-0.0019
1974.00,-0.0019
1973.00,-0.0016
1972.00,-0.0014
1971.00,-0.0012
1970.00,-0.0011
1969.00,-0.0011
1968.00,-0.0011
1967.00,-0.0012
1966.00,-0.0013
1965.00,-0.0013
1964.00,-0.0014
1963.00,-0.0015
1962.00,-0.0017
1961.00,-0.0019
1960.00,-0.0020
1959.00,-0.0021
1958.00,-0.0022
1957.00,-0.0021
1956.00,-0.0019
1955.00,-0.0016
1954.00,-0.0013
1953.00,-0.0012
1952.00,-0.0012
1951.00,-0.0013
1950.00,-0.0014
1949.00,-0.0014
1948.00,-0.0014
1947.00,-0.0013
1946.00,-0.0012
1945.00,-0.0013
1944.00,-0.0014
1943.00,-0.0015
1942.00,-0.0014
1941.00,-0.0011
1940.00,-0.0010
1939.00,-0.0010
1938.00,-0.0012
1937.00,-0.0012
1936.00,-0.0012
1935.00,-0.0011
1934.00,-0.0011
1933.00,-0.0011
1932.00,-0.0011
1931.00,-0.0011
1930.00,-0.0011
1929.00,-0.0010
1928.00,-0.0009
1927.00,-0.0008
1926.00,-0.0007
1925.00,-0.0006
1924.00,-0.0005
1923.00,-0.0004
1922.00,-0.0003
1921.00,-0.0002
1920.00,-0.0003
1919.00,-0.0004
1918.00,-0.0004
1917.00,-0.0004
1916.00,-0.0002
1915.00,-0.0002
1914.00,-0.0001
1913.00,-0.0001
1912.00,-0.0000
1911.00,0.0000
1910.00,0.0001
1909.00,0.0001
1908.00,0.0001
1907.00,0.0001
1906.00,-0.0000
1905.00,-0.0001
1904.00,-0.0001
1903.00,-0.0002
1902.00,-0.0002
1901.00,-0.0002
1900.00,-0.0001
1899.00,-0.0001
1898.00,-0.0000
1897.00,-0.0001
1896.00,-0.0001
1895.00,-0.0002
1894.00,-0.0002
1893.00,-0.0002
1892.00,-0.0002
1891.00,-0.0001
1890.00,-0.0001
1889.00,-0.0002
1888.00,-0.0002
1887.00,-0.0002
1886.00,-0.0001
1885.00,-0.0001
1884.00,-0.0001
1883.00,-0.0001
1882.00,-0.0001
1881.00,-0.0001
1880.00,-0.0001
1879.00,-0.0001
1878.00,-0.0002
1877.00,-0.0002
1876.00,-0.0002
1875.00,-0.0002
1874.00,-0.0001
1873.00,-0.0001
1872.00,-0.0001
1871.00,0.0000
1870.00,0.0000
1869.00,0.0001
1868.00,0.0000
1867.00,-0.0000
1866.00,-0.0001
1865.00,-0.0001
1864.00,-0.0001
1863.00,-0.0000
1862.00,0.0000
1861.00,0.0001
1860.00,0.0001
1859.00,0.0002
1858.00,0.0002
1857.00,0.0002
1856.00,0.0002
1855.00,0.0001
1854.00,0.0001
1853.00,0.0000
1852.00,0.0000
1851.00,0.0000
1850.00,0.0001
1849.00,0.0001
1848.00,0.0001
1847.00,0.0001
1846.00,0.0001
1845.00,0.0002
1844.00,0.0002
1843.00,0.0001
1842.00,0.0001
1841.00,0.0001
1840.00,0.0001
1839.00,0.0002
1838.00,0.0002
1837.00,0.0003
1836.00,0.0003
1835.00,0.0003
1834.00,0.0003
1833.00,0.0003
1832.00,0.0003
1831.00,0.0002
1830.00,0.0002
1829.00,0.0003
1828.00,0.0004
1827.00,0.0004
1826.00,0.0004
1825.00,0.0005
1824.00,0.0005
1823.00,0.0004
1822.00,0.0004
1821.00,0.0003
1820.00,0.0002
1819.00,0.0001
1818.00,0.0000
1817.00,-0.0000
1816.00,0.0000
1815.00,0.0001
1814.00,0.0002
1813.00,0.0003
1812.00,0.0004
1811.00,0.0004
1810.00,0.0004
1809.00,0.0004
1808.00,0.0004
1807.00,0.0004
1806.00,0.0004
1805.00,0.0004
1804.00,0.0004
1803.00,0.0005
1802.00,0.0005
1801.00,0.0005
1800.00,0.0004
1799.00,0.0004
1798.00,0.0004
1797.00,0.0004
1796.00,0.0005
1795.00,0.0005
1794.00,0.0005
1793.00,0.0006
1792.00,0.0007
1791.00,0.0008
1790.00,0.0008
1789.00,0.0008
1788.00,0.0008
1787.00,0.0008
1786.00,0.0007
1785.00,0.0006
1784.00,0.0006
1783.00,0.0006
1782.00,0.0006
1781.00,0.0006
1780.00,0.0006
1779.00,0.0006
1778.00,0.0007
1777.00,0.0007
1776.00,0.0008
1775.00,0.0009
1774.00,0.0009
1773.00,0.0009
1772.00,0.0009
1771.00,0.0009
1770.00,0.0008
1769.00,0.0008
1768.00,0.0009
1767.00,0.0009
1766.00,0.0009
1765.00,0.0009
1764.00,0.0010
1763.00,0.0010
1762.00,0.0010
1761.00,0.0010
1760.00,0.0010
1759.00,0.0011
1758.00,0.0011
1757.00,0.0011
1756.00,0.0011
1755.00,0.0011
1754.00,0.0011
1753.00,0.0011
1752.00,0.0012
1751.00,0.0012
1750.00,0.0012
1749.00,0.0013
1748.00,0.0014
1747.00,0.0015
1746.00,0.0015
1745.00,0.0016
1744.00,0.0017
1743.00,0.0017
1742.00,0.0018
1741.00,0.0018
1740.00,0.0017
1739.00,0.0017
1738.00,0.0018
1737.00,0.0018
1736.00,0.0018
1735.00,0.0018
1734.00,0.0018
1733.00,0.0019
1732.00,0.0021
1731.00,0.0022
1730.00,0.0023
1729.00,0.0024
1728.00,0.0024
1727.00,0.0025
1726.00,0.0025
1725.00,0.0025
1724.00,0.0025
1723.00,0.0025
1722.00,0.0026
1721.00,0.0026
1720.00,0.0027
1719.00,0.0026
1718.00,0.0026
1717.00,0.0025
1716.00,0.0025
1715.00,0.0025
1714.00,0.0025
1713.00,0.0025
1712.00,0.0025
1711.00,0.0025
1710.00,0.0025
1709.00,0.0026
1708.00,0.0026
1707.00,0.0027
1706.00,0.0027
1705.00,0.0028
1704.00,0.0029
1703.00,0.0029
1702.00,0.0030
1701.00,0.0030
1700.00,0.0031
1699.00,0.0031
1698.00,0.0031
1697.00,0.0031
1696.00,0.0032
1695.00,0.0033
1694.00,0.0033
1693.00,0.0034
1692.00,0.0035
1691.00,0.0037
1690.00,0.0038
1689.00,0.0039
1688.00,0.0040
1687.00,0.0041
1686.00,0.0043
1685.00,0.0043
1684.00,0.0045
1683.00,0.0045
1682.00,0.0046
1681.00,0.0047
1680.00,0.0049
1679.00,0.0050
1678.00,0.0051
1677.00,0.0051
1676.00,0.0052
1675.00,0.0052
1674.00,0.0053
1673.00,0.0054
1672.00,0.0055
1671.00,0.0055
1670.00,0.0056
1669.00,0.0058
1668.00,0.0059
1667.00,0.0060
1666.00,0.0061
1665.00,0.0061
1664.00,0.0062
1663.00,0.0063
1662.00,0.0063
1661.00,0.0064
1660.00,0.0065
1659.00,0.0065
1658.00,0.0066
1657.00,0.0066
1656.00,0.0067
1655.00,0.0067
1654.00,0.0068
1653.00,0.0072
1652.00,0.0075
1651.00,0.0076
1650.00,0.0076
1649.00,0.0077
1648.00,0.0079
1647.00,0.0081
1646.00,0.0082
1645.00,0.0082
1644.00,0.0082
1643.00,0.0082
1642.00,0.0082
1641.00,0.0081
1640.00,0.0081
1639.00,0.0081
1638.00,0.0081
1637.00,0.0081
1636.00,0.0081
1635.00,0.0080
1634.00,0.0080
1633.00,0.0080
1632.00,0.0080
1631.00,0.0079
1630.00,0.0079
1629.00,0.0079
1628.00,0.0079
1627.00,0.0079
1626.00,0.0078
1625.00,0.0078
1624.00,0.0077
1623.00,0.0076
1622.00,0.0075
1621.00,0.0075
1620.00,0.0075
1619.00,0.0075
1618.00,0.0075
1617.00,0.0076
1616.00,0.0076
1615.00,0.0076
1614.00,0.0075
1613.00,0.0075
1612.00,0.0075
1611.00,0.0075
1610.00,0.0075
1609.00,0.0075
1608.00,0.0076
1607.00,0.0076
1606.00,0.0075
1605.00,0.0075
1604.00,0.0075
1603.00,0.0075
1602.00,0.0075
1601.00,0.0075
1600.00,0.0075
1599.00,0.0075
1598.00,0.0075
1597.00,0.0075
1596.00,0.0075
1595.00,0.0074
1594.00,0.0073
1593.00,0.0073
1592.00,0.0073
1591.00,0.0073
1590.00,0.0073
1589.00,0.0072
1588.00,0.0072
1587.00,0.0072
1586.00,0.0072
1585.00,0.0072
1584.00,0.0072
1583.00,0.0072
1582.00,0.0071
1581.00,0.0071
1580.00,0.0072
1579.00,0.0072
1578.00,0.0073
1577.00,0.0073
1576.00,0.0072
1575.00,0.0072
1574.00,0.0072
1573.00,0.0072
1572.00,0.0072
1571.00,0.0072
1570.00,0.0072
1569.00,0.0072
1568.00,0.0072
1567.00,0.0072
1566.00,0.0072
1565.00,0.0073
1564.00,0.0073
1563.00,0.0074
1562.00,0.0074
1561.00,0.0074
1560.00,0.0074
1559.00,0.0074
1558.00,0.0075
1557.00,0.0075
1556.00,0.0076
1555.00,0.0076
1554.00,0.0077
1553.00,0.0077
1552.00,0.0078
1551.00,0.0078
1550.00,0.0079
1549.00,0.0079
1548.00,0.0080
1547.00,0.0080
1546.00,0.0080
1545.00,0.0081
1544.00,0.0081
1543.00,0.0080
1542.00,0.0079
1541.00,0.0079
1540.00,0.0080
1539.00,0.0079
1538.00,0.0077
1537.00,0.0076
1536.00,0.0075
1535.00,0.0074
1534.00,0.0072
1533.00,0.0071
1532.00,0.0070
1531.00,0.0069
1530.00,0.0068
1529.00,0.0067
1528.00,0.0067
1527.00,0.0067
1526.00,0.0066
1525.00,0.0066
1524.00,0.0066
1523.00,0.0066
1522.00,0.0065
1521.00,0.0066
1520.00,0.0066
1519.00,0.0066
1518.00,0.0065
1517.00,0.0066
1516.00,0.0066
1515.00,0.0066
1514.00,0.0065
1513.00,0.0065
1512.00,0.0066
1511.00,0.0067
1510.00,0.0067
1509.00,0.0069
1508.00,0.0071
1507.00,0.0072
1506.00,0.0073
1505.00,0.0074
1504.00,0.0075
1503.00,0.0076
1502.00,0.0078
1501.00,0.0080
1500.00,0.0083
1499.00,0.0085
1498.00,0.0087
1497.00,0.0091
1496.00,0.0096
1495.00,0.0099
1494.00,0.0102
1493.00,0.0105
1492.00,0.0108
1491.00,0.0111
1490.00,0.0115
1489.00,0.0121
1488.00,0.0126
1487.00,0.0130
1486.00,0.0134
1485.00,0.0140
1484.00,0.0146
1483.00,0.0153
1482.00,0.0161
1481.00,0.0172
1480.00,0.0183
1479.00,0.0196
1478.00,0.0211
1477.00,0.0231
1476.00,0.0256
1475.00,0.0286
1474.00,0.0327
1473.00,0.0386
1472.00,0.0457
1471.00,0.0525
1470.00,0.0590
1469.00,0.0657
1468.00,0.0730
1467.00,0.0810
1466.00,0.0901
1465.00,0.0999
1464.00,0.1084
1463.00,0.1142
1462.00,0.1178
1461.00,0.1201
1460.00,0.1215
1459.00,0.1222
1458.00,0.1224
1457.00,0.1222
1456.00,0.1213
1455.00,0.1199
1454.00,0.1181
1453.00,0.1159
1452.00,0.1127
1451.00,0.1085
1450.00,0.1029
1449.00,0.0956
1448.00,0.0866
1447.00,0.0773
1446.00,0.0692
1445.00,0.0624
1444.00,0.0566
1443.00,0.0519
1442.00,0.0484
1441.00,0.0460
1440.00,0.0447
1439.00,0.0442
1438.00,0.0446
1437.00,0.0451
1436.00,0.0445
1435.00,0.0423
1434.00,0.0388
1433.00,0.0345
1432.00,0.0299
1431.00,0.0258
1430.00,0.0227
1429.00,0.0203
1428.00,0.0188
1427.00,0.0178
1426.00,0.0172
1425.00,0.0166
1424.00,0.0161
1423.00,0.0157
1422.00,0.0155
1421.00,0.0153
1420.00,0.0149
1419.00,0.0146
1418.00,0.0144
1417.00,0.0141
1416.00,0.0138
1415.00,0.0136
1414.00,0.0135
1413.00,0.0134
1412.00,0.0132
1411.00,0.0131
1410.00,0.0129
1409.00,0.0127
1408.00,0.0125
1407.00,0.0124
1406.00,0.0124
1405.00,0.0124
1404.00,0.0123
1403.00,0.0123
1402.00,0.0123
1401.00,0.0123
1400.00,0.0123
1399.00,0.0125
1398.00,0.0127
1397.00,0.0128
1396.00,0.0130
1395.00,0.0133
1394.00,0.0137
1393.00,0.0141
1392.00,0.0145
1391.00,0.0152
1390.00,0.0162
1389.00,0.0175
1388.00,0.0196
1387.00,0.0227
1386.00,0.0269
1385.00,0.0325
1384.00,0.0403
1383.00,0.0514
1382.00,0.0666
1381.00,0.0867
1380.00,0.1119
1379.00,0.1409
1378.00,0.1694
1377.00,0.1906
1376.00,0.1982
1375.00,0.1885
1374.00,0.1644
1373.00,0.1351
1372.00,0.1085
1371.00,0.0867
1370.00,0.0695
1369.00,0.0565
1368.00,0.0475
1367.00,0.0420
1366.00,0.0389
1365.00,0.0377
1364.00,0.0380
1363.00,0.0394
1362.00,0.0417
1361.00,0.0440
1360.00,0.0458
1359.00,0.0464
1358.00,0.0454
1357.00,0.0428
1356.00,0.0391
1355.00,0.0349
1354.00,0.0309
1353.00,0.0275
1352.00,0.0248
1351.00,0.0225
1350.00,0.0207
1349.00,0.0192
1348.00,0.0179
1347.00,0.0168
1346.00,0.0159
1345.00,0.0152
1344.00,0.0146
1343.00,0.0141
1342.00,0.0136
1341.00,0.0131
1340.00,0.0128
1339.00,0.0126
1338.00,0.0124
1337.00,0.0124
1336.00,0.0125
1335.00,0.0127
1334.00,0.0130
1333.00,0.0134
1332.00,0.0138
1331.00,0.0142
1330.00,0.0143
1329.00,0.0142
1328.00,0.0139
1327.00,0.0134
1326.00,0.0128
1325.00,0.0121
1324.00,0.0115
1323.00,0.0110
1322.00,0.0106
1321.00,0.0104
1320.00,0.0102
1319.00,0.0100
1318.00,0.0098
1317.00,0.0096
1316.00,0.0096
1315.00,0.0095
1314.00,0.0096
1313.00,0.0096
1312.00,0.0097
1311.00,0.0098
1310.00,0.0100
1309.00,0.0104
1308.00,0.0111
1307.00,0.0119
1306.00,0.0126
1305.00,0.0132
1304.00,0.0134
1303.00,0.0134
1302.00,0.0131
1301.00,0.0130
1300.00,0.0129
1299.00,0.0130
1298.00,0.0131
1297.00,0.0132
1296.00,0.0132
1295.00,0.0130
1294.00,0.0127
1293.00,0.0123
1292.00,0.0117
1291.00,0.0112
1290.00,0.0107
1289.00,0.0103
1288.00,0.0100
1287.00,0.0097
1286.00,0.0095
1285.00,0.0093
1284.00,0.0091
1283.00,0.0089
1282.00,0.0087
1281.00,0.0086
1280.00,0.0085
1279.00,0.0085
1278.00,0.0084
1277.00,0.0084
1276.00,0.0083
1275.00,0.0083
1274.00,0.0083
1273.00,0.0083
1272.00,0.0083
1271.00,0.0084
1270.00,0.0085
1269.00,0.0087
1268.00,0.0089
1267.00,0.0092
1266.00,0.0095
1265.00,0.0097
1264.00,0.0100
1263.00,0.0103
1262.00,0.0106
1261.00,0.0109
1260.00,0.0112
1259.00,0.0116
1258.00,0.0120
1257.00,0.0123
1256.00,0.0123
1255.00,0.0120
1254.00,0.0115
1253.00,0.0109
1252.00,0.0103
1251.00,0.0098
1250.00,0.0094
1249.00,0.0091
1248.00,0.0089
1247.00,0.0087
1246.00,0.0085
1245.00,0.0084
1244.00,0.0083
1243.00,0.0082
1242.00,0.0082
1241.00,0.0080
1240.00,0.0079
1239.00,0.0078
1238.00,0.0077
1237.00,0.0076
1236.00,0.0076
1235.00,0.0077
1234.00,0.0078
1233.00,0.0079
1232.00,0.0079
1231.00,0.0080
1230.00,0.0081
1229.00,0.0082
1228.00,0.0084
1227.00,0.0086
1226.00,0.0088
1225.00,0.0091
1224.00,0.0095
1223.00,0.0098
1222.00,0.0102
1221.00,0.0105
1220.00,0.0107
1219.00,0.0108
1218.00,0.0107
1217.00,0.0104
1216.00,0.0101
1215.00,0.0098
1214.00,0.0095
1213.00,0.0092
1212.00,0.0089
1211.00,0.0086
1210.00,0.0084
1209.00,0.0083
1208.00,0.0082
1207.00,0.0081
1206.00,0.0081
1205.00,0.0080
1204.00,0.0080
1203.00,0.0079
1202.00,0.0079
1201.00,0.0078
1200.00,0.0078
1199.00,0.0077
1198.00,0.0077
1197.00,0.0077
1196.00,0.0078
1195.00,0.0078
1194.00,0.0078
1193.00,0.0078
1192.00,0.0077
1191.00,0.0077
1190.00,0.0076
1189.00,0.0076
1188.00,0.0076
1187.00,0.0076
1186.00,0.0076
1185.00,0.0077
1184.00,0.0077
1183.00,0.0077
1182.00,0.0078
1181.00,0.0080
1180.00,0.0082
1179.00,0.0086
1178.00,0.0091
1177.00,0.0098
1176.00,0.0107
1175.00,0.0118
1174.00,0.0133
1173.00,0.0151
1172.00,0.0171
1171.00,0.0194
1170.00,0.0216
1169.00,0.0233
1168.00,0.0244
1167.00,0.0247
1166.00,0.0244
1165.00,0.0236
1164.00,0.0226
1163.00,0.0216
1162.00,0.0207
1161.00,0.0201
1160.00,0.0197
1159.00,0.0193
1158.00,0.0191
1157.00,0.0190
1156.00,0.0190
1155.00,0.0191
1154.00,0.0191
1153.00,0.0190
1152.00,0.0187
1151.00,0.0181
1150.00,0.0174
1149.00,0.0166
1148.00,0.0157
1147.00,0.0148
1146.00,0.0140
1145.00,0.0133
1144.00,0.0126
1143.00,0.0120
1142.00,0.0114
1141.00,0.0109
1140.00,0.0104
1139.00,0.0101
1138.00,0.0098
1137.00,0.0096
1136.00,0.0094
1135.00,0.0093
1134.00,0.0092
1133.00,0.0091
1132.00,0.0091
1131.00,0.0092
1130.00,0.0093
1129.00,0.0094
1128.00,0.0095
1127.00,0.0097
1126.00,0.0099
1125.00,0.0100
1124.00,0.0101
1123.00,0.0103
1122.00,0.0104
1121.00,0.0105
1120.00,0.0105
1119.00,0.0105
1118.00,0.0106
1117.00,0.0106
1116.00,0.0108
1115.00,0.0109
1114.00,0.0111
1113.00,0.0112
1112.00,0.0114
1111.00,0.0115
1110.00,0.0118
1109.00,0.0123
1108.00,0.0128
1107.00,0.0135
1106.00,0.0142
1105.00,0.0149
1104.00,0.0155
1103.00,0.0157
1102.00,0.0156
1101.00,0.0152
1100.00,0.0146
1099.00,0.0139
1098.00,0.0133
1097.00,0.0127
1096.00,0.0122
1095.00,0.0117
1094.00,0.0114
1093.00,0.0111
1092.00,0.0109
1091.00,0.0108
1090.00,0.0106
1089.00,0.0105
1088.00,0.0103
1087.00,0.0102
1086.00,0.0102
1085.00,0.0102
1084.00,0.0102
1083.00,0.0102
1082.00,0.0102
1081.00,0.0100
1080.00,0.0099
1079.00,0.0098
1078.00,0.0097
1077.00,0.0095
1076.00,0.0093
1075.00,0.0091
1074.00,0.0090
1073.00,0.0089
1072.00,0.0088
1071.00,0.0088
1070.00,0.0088
1069.00,0.0088
1068.00,0.0088
1067.00,0.0089
1066.00,0.0088
1065.00,0.0088
1064.00,0.0088
1063.00,0.0088
1062.00,0.0088
1061.00,0.0088
1060.00,0.0088
1059.00,0.0088
1058.00,0.0089
1057.00,0.0089
1056.00,0.0089
1055.00,0.0090
1054.00,0.0090
1053.00,0.0092
1052.00,0.0093
1051.00,0.0095
1050.00,0.0097
1049.00,0.0099
1048.00,0.0101
1047.00,0.0103
1046.00,0.0105
1045.00,0.0106
1044.00,0.0106
1043.00,0.0106
1042.00,0.0105
1041.00,0.0104
1040.00,0.0103
1039.00,0.0103
1038.00,0.0104
1037.00,0.0104
1036.00,0.0104
1035.00,0.0103
1034.00,0.0101
1033.00,0.0100
1032.00,0.0098
1031.00,0.0097
1030.00,0.0096
1029.00,0.0095
1028.00,0.0094
1027.00,0.0094
1026.00,0.0094
1025.00,0.0094
1024.00,0.0094
1023.00,0.0094
1022.00,0.0094
1021.00,0.0094
1020.00,0.0094
1019.00,0.0094
1018.00,0.0094
1017.00,0.0094
1016.00,0.0095
1015.00,0.0095
1014.00,0.0096
1013.00,0.0098
1012.00,0.0099
1011.00,0.0100
1010.00,0.0102
1009.00,0.0104
1008.00,0.0107
1007.00,0.0112
1006.00,0.0118
1005.00,0.0126
1004.00,0.0138
1003.00,0.0154
1002.00,0.0176
1001.00,0.0201
1000.00,0.0228
999.00,0.0249
998.00,0.0258
997.00,0.0252
996.00,0.0232
995.00,0.0204
994.00,0.0176
993.00,0.0152
992.00,0.0134
991.00,0.0122
990.00,0.0114
989.00,0.0109
988.00,0.0106
987.00,0.0103
986.00,0.0102
985.00,0.0102
984.00,0.0104
983.00,0.0110
982.00,0.0120
981.00,0.0134
980.00,0.0154
979.00,0.0178
978.00,0.0208
977.00,0.0241
976.00,0.0275
975.00,0.0304
974.00,0.0323
973.00,0.0326
972.00,0.0311
971.00,0.0280
970.00,0.0243
969.00,0.0206
968.00,0.0175
967.00,0.0151
966.00,0.0133
965.00,0.0119
964.00,0.0109
963.00,0.0101
962.00,0.0095
961.00,0.0091
960.00,0.0088
959.00,0.0086
958.00,0.0084
957.00,0.0082
956.00,0.0079
955.00,0.0076
954.00,0.0073
953.00,0.0072
952.00,0.0071
951.00,0.0071
950.00,0.0071
949.00,0.0071
948.00,0.0072
947.00,0.0073
946.00,0.0075
945.00,0.0079
944.00,0.0083
943.00,0.0087
942.00,0.0090
941.00,0.0092
940.00,0.0092
939.00,0.0090
938.00,0.0086
937.00,0.0081
936.00,0.0076
935.00,0.0072
934.00,0.0069
933.00,0.0067
932.00,0.0066
931.00,0.0066
930.00,0.0066
929.00,0.0065
928.00,0.0063
927.00,0.0062
926.00,0.0062
925.00,0.0062
924.00,0.0063
923.00,0.0063
922.00,0.0063
921.00,0.0063
920.00,0.0063
919.00,0.0064
918.00,0.0066
917.00,0.0067
916.00,0.0067
915.00,0.0068
914.00,0.0069
913.00,0.0071
912.00,0.0072
911.00,0.0074
910.00,0.0076
909.00,0.0078
908.00,0.0081
907.00,0.0086
906.00,0.0094
905.00,0.0105
904.00,0.0120
903.00,0.0140
902.00,0.0161
901.00,0.0181
900.00,0.0193
899.00,0.0195
898.00,0.0185
897.00,0.0167
896.00,0.0147
895.00,0.0128
894.00,0.0112
893.00,0.0100
892.00,0.0092
891.00,0.0086
890.00,0.0083
889.00,0.0080
888.00,0.0079
887.00,0.0078
886.00,0.0077
885.00,0.0076
884.00,0.0075
883.00,0.0075
882.00,0.0075
881.00,0.0077
880.00,0.0078
879.00,0.0079
878.00,0.0080
877.00,0.0082
876.00,0.0084
875.00,0.0085
874.00,0.0086
873.00,0.0086
872.00,0.0085
871.00,0.0085
870.00,0.0085
869.00,0.0084
868.00,0.0082
867.00,0.0081
866.00,0.0081
865.00,0.0083
864.00,0.0084
863.00,0.0085
862.00,0.0085
861.00,0.0085
860.00,0.0085
859.00,0.0087
858.00,0.0089
857.00,0.0091
856.00,0.0093
855.00,0.0093
854.00,0.0094
853.00,0.0095
852.00,0.0097
851.00,0.0100
850.00,0.0104
849.00,0.0108
848.00,0.0114
847.00,0.0122
846.00,0.0135
845.00,0.0157
844.00,0.0187
843.00,0.0222
842.00,0.0248
841.00,0.0254
840.00,0.0237
839.00,0.0205
838.00,0.0173
837.00,0.0147
836.00,0.0130
835.00,0.0120
834.00,0.0114
833.00,0.0111
832.00,0.0109
831.00,0.0107
830.00,0.0106
829.00,0.0105
828.00,0.0105
827.00,0.0105
826.00,0.0106
825.00,0.0106
824.00,0.0106
823.00,0.0107
822.00,0.0109
821.00,0.0111
820.00,0.0114
819.00,0.0117
818.00,0.0121
817.00,0.0128
816.00,0.0137
815.00,0.0148
814.00,0.0163
813.00,0.0182
812.00,0.0204
811.00,0.0224
810.00,0.0240
809.00,0.0246
808.00,0.0243
807.00,0.0231
806.00,0.0213
805.00,0.0192
804.00,0.0172
803.00,0.0154
802.00,0.0140
801.00,0.0132
800.00,0.0127
799.00,0.0124
798.00,0.0121
797.00,0.0117
796.00,0.0113
795.00,0.0109
794.00,0.0105
793.00,0.0102
792.00,0.0098
791.00,0.0094
790.00,0.0090
789.00,0.0088
788.00,0.0086
787.00,0.0084
786.00,0.0082
785.00,0.0079
784.00,0.0077
783.00,0.0076
782.00,0.0074
781.00,0.0072
780.00,0.0071
779.00,0.0071
778.00,0.0071
777.00,0.0070
776.00,0.0070
775.00,0.0069
774.00,0.0070
773.00,0.0070
772.00,0.0071
771.00,0.0072
770.00,0.0073
769.00,0.0073
768.00,0.0073
767.00,0.0072
766.00,0.0072
765.00,0.0072
764.00,0.0073
763.00,0.0074
762.00,0.0075
761.00,0.0076
760.00,0.0076
759.00,0.0076
758.00,0.0076
757.00,0.0076
756.00,0.0078
755.00,0.0079
754.00,0.0080
753.00,0.0082
752.00,0.0083
751.00,0.0085
750.00,0.0087
749.00,0.0089
748.00,0.0091
747.00,0.0091
746.00,0.0091
745.00,0.0091
744.00,0.0093
743.00,0.0096
742.00,0.0099
741.00,0.0103
740.00,0.0106
739.00,0.0109
738.00,0.0112
737.00,0.0116
736.00,0.0120
735.00,0.0123
734.00,0.0128
733.00,0.0136
732.00,0.0145
731.00,0.0154
730.00,0.0160
729.00,0.0162
728.00,0.0161
727.00,0.0161
726.00,0.0164
725.00,0.0170
724.00,0.0178
723.00,0.0189
722.00,0.0199
721.00,0.0204
720.00,0.0201
719.00,0.0189
718.00,0.0174
717.00,0.0158
716.00,0.0147
715.00,0.0138
714.00,0.0133
713.00,0.0128
712.00,0.0124
711.00,0.0120
710.00,0.0117
709.00,0.0115
708.00,0.0115
707.00,0.0117
706.00,0.0118
705.00,0.0118
704.00,0.0116
703.00,0.0113
702.00,0.0110
701.00,0.0108
700.00,0.0106
699.00,0.0102
698.00,0.0099
697.00,0.0097
696.00,0.0097
695.00,0.0099
694.00,0.0100
693.00,0.0101
692.00,0.0099
691.00,0.0097
690.00,0.0096
689.00,0.0095
688.00,0.0096
687.00,0.0097
686.00,0.0097
685.00,0.0097
684.00,0.0096
683.00,0.0096
682.00,0.0095
681.00,0.0095
680.00,0.0095
679.00,0.0096
678.00,0.0097
677.00,0.0097
676.00,0.0098
675.00,0.0097
674.00,0.0097
673.00,0.0096
672.00,0.0096
671.00,0.0096
670.00,0.0095
669.00,0.0095
668.00,0.0096
667.00,0.0100
666.00,0.0102
665.00,0.0102
664.00,0.0100
663.00,0.0098
662.00,0.0097
661.00,0.0096
660.00,0.0094
659.00,0.0092
658.00,0.0090
657.00,0.0088
656.00,0.0088
655.00,0.0090
654.00,0.0094
653.00,0.0098
652.00,0.0101
651.00,0.0103
650.00,0.0102
649.00,0.0100
648.00,0.0098
647.00,0.0097
646.00,0.0097
645.00,0.0097
644.00,0.0095
643.00,0.0094
642.00,0.0093
641.00,0.0093
640.00,0.0092
639.00,0.0090
638.00,0.0088
637.00,0.0086
636.00,0.0085
635.00,0.0086
634.00,0.0089
633.00,0.0091
632.00,0.0093
631.00,0.0094
630.00,0.0096
629.00,0.0097
628.00,0.0097
627.00,0.0096
626.00,0.0094
625.00,0.0092
624.00,0.0091
623.00,0.0091
622.00,0.0092
621.00,0.0092
620.00,0.0092
619.00,0.0090
618.00,0.0088
617.00,0.0088
616.00,0.0088
615.00,0.0089
614.00,0.0090
613.00,0.0090
612.00,0.0092
611.00,0.0093
610.00,0.0093
609.00,0.0090
608.00,0.0085
607.00,0.0081
606.00,0.0080
605.00,0.0082
604.00,0.0085
603.00,0.0087
602.00,0.0089
601.00,0.0091
600.00,0.0094
599.00,0.0096
598.00,0.0095
597.00,0.0094
596.00,0.0093
595.00,0.0091
594.00,0.0090
593.00,0.0088
592.00,0.0088
591.00,0.0088
590.00,0.0089
589.00,0.0092
588.00,0.0096
587.00,0.0096
586.00,0.0094
585.00,0.0089
584.00,0.0086
583.00,0.0085
582.00,0.0087
581.00,0.0090
580.00,0.0092
579.00,0.0092
578.00,0.0089
577.00,0.0085
576.00,0.0082
575.00,0.0082
574.00,0.0085
573.00,0.0088
572.00,0.0090
571.00,0.0090
570.00,0.0090
569.00,0.0091
568.00,0.0093
567.00,0.0092
566.00,0.0091
565.00,0.0090
564.00,0.0090
563.00,0.0092
562.00,0.0093
561.00,0.0092
560.00,0.0092
559.00,0.0092
558.00,0.0092
557.00,0.0090
556.00,0.0086
555.00,0.0083
554.00,0.0083
553.00,0.0086
552.00,0.0086
551.00,0.0083
550.00,0.0080
549.00,0.0078
548.00,0.0080
547.00,0.0084
546.00,0.0086
545.00,0.0088
544.00,0.0089
543.00,0.0089
542.00,0.0087
541.00,0.0083
540.00,0.0080
539.00,0.0078
538.00,0.0081
537.00,0.0087
536.00,0.0094
535.00,0.0100
534.00,0.0102
533.00,0.0099
532.00,0.0094
531.00,0.0091
530.00,0.0091
529.00,0.0098
528.00,0.0108
527.00,0.0117
526.00,0.0118
525.00,0.0112
524.00,0.0103
523.00,0.0096
522.00,0.0093
521.00,0.0093
520.00,0.0092
519.00,0.0090
518.00,0.0087
517.00,0.0082
516.00,0.0079
515.00,0.0074
514.00,0.0070
513.00,0.0067
512.00,0.0066
511.00,0.0068
510.00,0.0070
509.00,0.0070
508.00,0.0071
507.00,0.0072
506.00,0.0074
505.00,0.0077
504.00,0.0079
503.00,0.0079
502.00,0.0077
501.00,0.0076
500.00,0.0076
499.00,0.0079
498.00,0.0081
497.00,0.0082
496.00,0.0082
495.00,0.0082
494.00,0.0084
493.00,0.0084
492.00,0.0083
491.00,0.0081
490.00,0.0080
489.00,0.0081
488.00,0.0083
487.00,0.0083
486.00,0.0079
485.00,0.0072
484.00,0.0067
483.00,0.0069
482.00,0.0073
481.00,0.0074
480.00,0.0070
479.00,0.0063
478.00,0.0056
477.00,0.0052
476.00,0.0050
475.00,0.0051
474.00,0.0054
473.00,0.0057
472.00,0.0064
471.00,0.0077
470.00,0.0095
469.00,0.0109
468.00,0.0113
467.00,0.0109
466.00,0.0103
465.00,0.0100
464.00,0.0100
463.00,0.0101
462.00,0.0109
461.00,0.0124
460.00,0.0144
459.00,0.0157
458.00,0.0157
457.00,0.0147
456.00,0.0136
455.00,0.0128
454.00,0.0123
453.00,0.0116
452.00,0.0109
451.00,0.0102
450.00,0.0098
