Created as New Dataset,Sample 009 By Administrator Date Thursday, September 04 2025
cm-1,A
4000.00,0.0007
3999.00,0.0007
3998.00,0.0007
3997.00,0.0007
3996.00,0.0007
3995.00,0.0007
3994.00,0.0008
3993.00,0.0008
3992.00,0.0008
3991.00,0.0008
3990.00,0.0008
3989.00,0.0008
3988.00,0.0008
3987.00,0.0007
3986.00,0.0007
3985.00,0.0007
3984.00,0.0007
3983.00,0.0007
3982.00,0.0007
3981.00,0.0007
3980.00,0.0007
3979.00,0.0007
3978.00,0.0007
3977.00,0.0007
3976.00,0.0007
3975.00,0.0007
3974.00,0.0007
3973.00,0.0006
3972.00,0.0006
3971.00,0.0006
3970.00,0.0006
3969.00,0.0006
3968.00,0.0007
3967.00,0.0007
3966.00,0.0007
3965.00,0.0007
3964.00,0.0007
3963.00,0.0007
3962.00,0.0006
3961.00,0.0006
3960.00,0.0006
3959.00,0.0006
3958.00,0.0006
3957.00,0.0006
3956.00,0.0005
3955.00,0.0005
3954.00,0.0005
3953.00,0.0005
3952.00,0.0006
3951.00,0.0006
3950.00,0.0006
3949.00,0.0006
3948.00,0.0006
3947.00,0.0006
3946.00,0.0006
3945.00,0.0006
3944.00,0.0006
3943.00,0.0006
3942.00,0.0006
3941.00,0.0006
3940.00,0.0006
3939.00,0.0006
3938.00,0.0006
3937.00,0.0006
3936.00,0.0006
3935.00,0.0006
3934.00,0.0006
3933.00,0.0006
3932.00,0.0006
3931.00,0.0007
3930.00,0.0007
3929.00,0.0007
3928.00,0.0007
3927.00,0.0007
3926.00,0.0007
3925.00,0.0007
3924.00,0.0007
3923.00,0.0007
3922.00,0.0007
3921.00,0.0007
3920.00,0.0007
3919.00,0.0007
3918.00,0.0007
3917.00,0.0007
3916.00,0.0006
3915.00,0.0006
3914.00,0.0006
3913.00,0.0006
3912.00,0.0006
3911.00,0.0006
3910.00,0.0006
3909.00,0.0007
3908.00,0.0007
3907.00,0.0008
3906.00,0.0008
3905.00,0.0008
3904.00,0.0008
3903.00,0.0008
3902.00,0.0008
3901.00,0.0007
3900.00,0.0006
3899.00,0.0006
3898.00,0.0005
3897.00,0.0005
3896.00,0.0006
3895.00,0.0006
3894.00,0.0006
3893.00,0.0007
3892.00,0.0006
3891.00,0.0006
3890.00,0.0006
3889.00,0.0006
3888.00,0.0006
3887.00,0.0007
3886.00,0.0007
3885.00,0.0007
3884.00,0.0007
3883.00,0.0007
3882.00,0.0007
3881.00,0.0007
3880.00,0.0006
3879.00,0.0006
3878.00,0.0006
3877.00,0.0006
3876.00,0.0006
3875.00,0.0006
3874.00,0.0006
3873.00,0.0006
3872.00,0.0006
3871.00,0.0007
3870.00,0.0007
3869.00,0.0007
3868.00,0.0007
3867.00,0.0007
3866.00,0.0007
3865.00,0.0007
3864.00,0.0007
3863.00,0.0007
3862.00,0.0007
3861.00,0.0007
3860.00,0.0006
3859.00,0.0006
3858.00,0.0006
3857.00,0.0006
3856.00,0.0007
3855.00,0.0006
3854.00,0.0006
3853.00,0.0006
3852.00,0.0006
3851.00,0.0006
3850.00,0.0007
3849.00,0.0007
3848.00,0.0007
3847.00,0.0006
3846.00,0.0006
3845.00,0.0006
3844.00,0.0006
3843.00,0.0006
3842.00,0.0006
3841.00,0.0006
3840.00,0.0006
3839.00,0.0006
3838.00,0.0006
3837.00,0.0006
3836.00,0.0006
3835.00,0.0006
3834.00,0.0006
3833.00,0.0006
3832.00,0.0006
3831.00,0.0006
3830.00,0.0006
3829.00,0.0006
3828.00,0.0007
3827.00,0.0007
3826.00,0.0007
3825.00,0.0007
3824.00,0.0007
3823.00,0.0007
3822.00,0.0007
3821.00,0.0006
3820.00,0.0006
3819.00,0.0006
3818.00,0.0006
3817.00,0.0006
3816.00,0.0006
3815.00,0.0006
3814.00,0.0007
3813.00,0.0007
3812.00,0.0007
3811.00,0.0007
3810.00,0.0007
3809.00,0.0007
3808.00,0.0007
3807.00,0.0006
3806.00,0.0006
3805.00,0.0006
3804.00,0.0007
3803.00,0.0007
3802.00,0.0007
3801.00,0.0006
3800.00,0.0006
3799.00,0.0006
3798.00,0.0006
3797.00,0.0006
3796.00,0.0006
3795.00,0.0006
3794.00,0.0005
3793.00,0.0005
3792.00,0.0005
3791.00,0.0005
3790.00,0.0006
3789.00,0.0006
3788.00,0.0006
3787.00,0.0006
3786.00,0.0006
3785.00,0.0006
3784.00,0.0006
3783.00,0.0006
3782.00,0.0006
3781.00,0.0007
3780.00,0.0007
3779.00,0.0007
3778.00,0.0006
3777.00,0.0006
3776.00,0.0006
3775.00,0.0006
3774.00,0.0005
3773.00,0.0006
3772.00,0.0006
3771.00,0.0006
3770.00,0.0006
3769.00,0.0007
3768.00,0.0007
3767.00,0.0008
3766.00,0.0007
3765.00,0.0007
3764.00,0.0007
3763.00,0.0007
3762.00,0.0007
3761.00,0.0007
3760.00,0.0007
3759.00,0.0007
3758.00,0.0006
3757.00,0.0006
3756.00,0.0006
3755.00,0.0006
3754.00,0.0006
3753.00,0.0007
3752.00,0.0007
3751.00,0.0007
3750.00,0.0007
3749.00,0.0008
3748.00,0.0008
3747.00,0.0008
3746.00,0.0008
3745.00,0.0007
3744.00,0.0007
3743.00,0.0007
3742.00,0.0007
3741.00,0.0007
3740.00,0.0007
3739.00,0.0006
3738.00,0.0006
3737.00,0.0006
3736.00,0.0007
3735.00,0.0007
3734.00,0.0006
3733.00,0.0006
3732.00,0.0006
3731.00,0.0006
3730.00,0.0007
3729.00,0.0007
3728.00,0.0006
3727.00,0.0006
3726.00,0.0006
3725.00,0.0006
3724.00,0.0006
3723.00,0.0006
3722.00,0.0005
3721.00,0.0005
3720.00,0.0005
3719.00,0.0005
3718.00,0.0005
3717.00,0.0005
3716.00,0.0005
3715.00,0.0005
3714.00,0.0005
3713.00,0.0004
3712.00,0.0004
3711.00,0.0005
3710.00,0.0005
3709.00,0.0005
3708.00,0.0005
3707.00,0.0005
3706.00,0.0005
3705.00,0.0005
3704.00,0.0005
3703.00,0.0005
3702.00,0.0005
3701.00,0.0005
3700.00,0.0005
3699.00,0.0005
3698.00,0.0005
3697.00,0.0005
3696.00,0.0006
3695.00,0.0006
3694.00,0.0006
3693.00,0.0006
3692.00,0.0006
3691.00,0.0006
3690.00,0.0005
3689.00,0.0004
3688.00,0.0004
3687.00,0.0004
3686.00,0.0004
3685.00,0.0005
3684.00,0.0005
3683.00,0.0005
3682.00,0.0004
3681.00,0.0004
3680.00,0.0005
3679.00,0.0005
3678.00,0.0006
3677.00,0.0007
3676.00,0.0007
3675.00,0.0007
3674.00,0.0007
3673.00,0.0007
3672.00,0.0007
3671.00,0.0006
3670.00,0.0006
3669.00,0.0005
3668.00,0.0005
3667.00,0.0004
3666.00,0.0004
3665.00,0.0004
3664.00,0.0004
3663.00,0.0004
3662.00,0.0004
3661.00,0.0004
3660.00,0.0004
3659.00,0.0004
3658.00,0.0005
3657.00,0.0005
3656.00,0.0005
3655.00,0.0005
3654.00,0.0005
3653.00,0.0006
3652.00,0.0006
3651.00,0.0006
3650.00,0.0006
3649.00,0.0006
3648.00,0.0006
3647.00,0.0006
3646.00,0.0005
3645.00,0.0005
3644.00,0.0005
3643.00,0.0005
3642.00,0.0004
3641.00,0.0005
3640.00,0.0005
3639.00,0.0005
3638.00,0.0005
3637.00,0.0005
3636.00,0.0005
3635.00,0.0005
3634.00,0.0005
3633.00,0.0006
3632.00,0.0007
3631.00,0.0008
3630.00,0.0008
3629.00,0.0008
3628.00,0.0007
3627.00,0.0007
3626.00,0.0007
3625.00,0.0007
3624.00,0.0007
3623.00,0.0007
3622.00,0.0007
3621.00,0.0008
3620.00,0.0008
3619.00,0.0008
3618.00,0.0008
3617.00,0.0008
3616.00,0.0008
3615.00,0.0008
3614.00,0.0008
3613.00,0.0007
3612.00,0.0007
3611.00,0.0007
3610.00,0.0007
3609.00,0.0008
3608.00,0.0009
3607.00,0.0009
3606.00,0.0009
3605.00,0.0009
3604.00,0.0009
3603.00,0.0010
3602.00,0.0010
3601.00,0.0010
3600.00,0.0010
3599.00,0.0010
3598.00,0.0009
3597.00,0.0009
3596.00,0.0009
3595.00,0.0009
3594.00,0.0009
3593.00,0.0009
3592.00,0.0009
3591.00,0.0009
3590.00,0.0010
3589.00,0.0010
3588.00,0.0011
3587.00,0.0011
3586.00,0.0012
3585.00,0.0012
3584.00,0.0012
3583.00,0.0012
3582.00,0.0012
3581.00,0.0012
3580.00,0.0012
3579.00,0.0012
3578.00,0.0012
3577.00,0.0012
3576.00,0.0012
3575.00,0.0012
3574.00,0.0012
3573.00,0.0013
3572.00,0.0013
3571.00,0.0014
3570.00,0.0014
3569.00,0.0014
3568.00,0.0014
3567.00,0.0015
3566.00,0.0015
3565.00,0.0015
3564.00,0.0015
3563.00,0.0015
3562.00,0.0015
3561.00,0.0015
3560.00,0.0015
3559.00,0.0015
3558.00,0.0015
3557.00,0.0015
3556.00,0.0016
3555.00,0.0016
3554.00,0.0016
3553.00,0.0016
3552.00,0.0017
3551.00,0.0017
3550.00,0.0018
3549.00,0.0019
3548.00,0.0019
3547.00,0.0019
3546.00,0.0019
3545.00,0.0019
3544.00,0.0019
3543.00,0.0019
3542.00,0.0019
3541.00,0.0019
3540.00,0.0019
3539.00,0.0019
3538.00,0.0019
3537.00,0.0019
3536.00,0.0019
3535.00,0.0020
3534.00,0.0020
3533.00,0.0020
3532.00,0.0020
3531.00,0.0020
3530.00,0.0020
3529.00,0.0020
3528.00,0.0020
3527.00,0.0020
3526.00,0.0021
3525.00,0.0021
3524.00,0.0021
3523.00,0.0022
3522.00,0.0022
3521.00,0.0022
3520.00,0.0022
3519.00,0.0022
3518.00,0.0022
3517.00,0.0022
3516.00,0.0022
3515.00,0.0022
3514.00,0.0022
3513.00,0.0022
3512.00,0.0022
3511.00,0.0023
3510.00,0.0023
3509.00,0.0024
3508.00,0.0024
3507.00,0.0025
3506.00,0.0025
3505.00,0.0025
3504.00,0.0025
3503.00,0.0025
3502.00,0.0025
3501.00,0.0025
3500.00,0.0026
3499.00,0.0026
3498.00,0.0027
3497.00,0.0027
3496.00,0.0026
3495.00,0.0026
3494.00,0.0027
3493.00,0.0027
3492.00,0.0028
3491.00,0.0028
3490.00,0.0028
3489.00,0.0028
3488.00,0.0028
3487.00,0.0028
3486.00,0.0029
3485.00,0.0029
3484.00,0.0029
3483.00,0.0029
3482.00,0.0029
3481.00,0.0029
3480.00,0.0030
3479.00,0.0030
3478.00,0.0030
3477.00,0.0031
3476.00,0.0031
3475.00,0.0031
3474.00,0.0031
3473.00,0.0031
3472.00,0.0031
3471.00,0.0031
3470.00,0.0031
3469.00,0.0031
3468.00,0.0031
3467.00,0.0031
3466.00,0.0032
3465.00,0.0032
3464.00,0.0032
3463.00,0.0032
3462.00,0.0032
3461.00,0.0032
3460.00,0.0033
3459.00,0.0033
3458.00,0.0033
3457.00,0.0034
3456.00,0.0034
3455.00,0.0034
3454.00,0.0034
3453.00,0.0034
3452.00,0.0035
3451.00,0.0035
3450.00,0.0035
3449.00,0.0035
3448.00,0.0035
3447.00,0.0035
3446.00,0.0035
3445.00,0.0035
3444.00,0.0035
3443.00,0.0036
3442.00,0.0036
3441.00,0.0036
3440.00,0.0036
3439.00,0.0036
3438.00,0.0036
3437.00,0.0036
3436.00,0.0036
3435.00,0.0036
3434.00,0.0037
3433.00,0.0037
3432.00,0.0037
3431.00,0.0037
3430.00,0.0037
3429.00,0.0037
3428.00,0.0037
3427.00,0.0038
3426.00,0.0038
3425.00,0.0039
3424.00,0.0039
3423.00,0.0039
3422.00,0.0039
3421.00,0.0039
3420.00,0.0040
3419.00,0.0040
3418.00,0.0041
3417.00,0.0041
3416.00,0.0040
3415.00,0.0040
3414.00,0.0040
3413.00,0.0040
3412.00,0.0040
3411.00,0.0041
3410.00,0.0041
3409.00,0.0041
3408.00,0.0041
3407.00,0.0041
3406.00,0.0040
3405.00,0.0040
3404.00,0.0040
3403.00,0.0040
3402.00,0.0040
3401.00,0.0040
3400.00,0.0040
3399.00,0.0040
3398.00,0.0041
3397.00,0.0041
3396.00,0.0041
3395.00,0.0041
3394.00,0.0041
3393.00,0.0041
3392.00,0.0041
3391.00,0.0042
3390.00,0.0042
3389.00,0.0042
3388.00,0.0042
3387.00,0.0042
3386.00,0.0043
3385.00,0.0043
3384.00,0.0043
3383.00,0.0043
3382.00,0.0043
3381.00,0.0043
3380.00,0.0043
3379.00,0.0043
3378.00,0.0044
3377.00,0.0044
3376.00,0.0044
3375.00,0.0044
3374.00,0.0044
3373.00,0.0045
3372.00,0.0045
3371.00,0.0045
3370.00,0.0045
3369.00,0.0045
3368.00,0.0045
3367.00,0.0045
3366.00,0.0045
3365.00,0.0045
3364.00,0.0045
3363.00,0.0045
3362.00,0.0045
3361.00,0.0045
3360.00,0.0045
3359.00,0.0045
3358.00,0.0045
3357.00,0.0045
3356.00,0.0045
3355.00,0.0045
3354.00,0.0046
3353.00,0.0046
3352.00,0.0046
3351.00,0.0046
3350.00,0.0046
3349.00,0.0047
3348.00,0.0047
3347.00,0.0047
3346.00,0.0047
3345.00,0.0047
3344.00,0.0046
3343.00,0.0046
3342.00,0.0046
3341.00,0.0046
3340.00,0.0046
3339.00,0.0047
3338.00,0.0046
3337.00,0.0046
3336.00,0.0046
3335.00,0.0046
3334.00,0.0046
3333.00,0.0046
3332.00,0.0046
3331.00,0.0045
3330.00,0.0045
3329.00,0.0045
3328.00,0.0045
3327.00,0.0045
3326.00,0.0045
3325.00,0.0045
3324.00,0.0045
3323.00,0.0045
3322.00,0.0045
3321.00,0.0045
3320.00,0.0045
3319.00,0.0045
3318.00,0.0045
3317.00,0.0045
3316.00,0.0046
3315.00,0.0046
3314.00,0.0045
3313.00,0.0045
3312.00,0.0045
3311.00,0.0045
3310.00,0.0045
3309.00,0.0046
3308.00,0.0046
3307.00,0.0046
3306.00,0.0047
3305.00,0.0047
3304.00,0.0047
3303.00,0.0047
3302.00,0.0048
3301.00,0.0047
3300.00,0.0047
3299.00,0.0047
3298.00,0.0046
3297.00,0.0046
3296.00,0.0046
3295.00,0.0046
3294.00,0.0046
3293.00,0.0046
3292.00,0.0045
3291.00,0.0045
3290.00,0.0045
3289.00,0.0044
3288.00,0.0044
3287.00,0.0044
3286.00,0.0044
3285.00,0.0043
3284.00,0.0043
3283.00,0.0044
3282.00,0.0044
3281.00,0.0043
3280.00,0.0043
3279.00,0.0042
3278.00,0.0042
3277.00,0.0041
3276.00,0.0041
3275.00,0.0041
3274.00,0.0041
3273.00,0.0041
3272.00,0.0041
3271.00,0.0041
3270.00,0.0041
3269.00,0.0041
3268.00,0.0040
3267.00,0.0040
3266.00,0.0040
3265.00,0.0040
3264.00,0.0040
3263.00,0.0040
3262.00,0.0040
3261.00,0.0040
3260.00,0.0040
3259.00,0.0040
3258.00,0.0040
3257.00,0.0039
3256.00,0.0039
3255.00,0.0039
3254.00,0.0039
3253.00,0.0038
3252.00,0.0038
3251.00,0.0037
3250.00,0.0037
3249.00,0.0037
3248.00,0.0038
3247.00,0.0038
3246.00,0.0038
3245.00,0.0038
3244.00,0.0037
3243.00,0.0037
3242.00,0.0037
3241.00,0.0037
3240.00,0.0037
3239.00,0.0037
3238.00,0.0037
3237.00,0.0037
3236.00,0.0038
3235.00,0.0038
3234.00,0.0038
3233.00,0.0038
3232.00,0.0038
3231.00,0.0038
3230.00,0.0038
3229.00,0.0038
3228.00,0.0038
3227.00,0.0038
3226.00,0.0038
3225.00,0.0038
3224.00,0.0038
3223.00,0.0038
3222.00,0.0039
3221.00,0.0039
3220.00,0.0039
3219.00,0.0040
3218.00,0.0040
3217.00,0.0040
3216.00,0.0040
3215.00,0.0040
3214.00,0.0040
3213.00,0.0040
3212.00,0.0041
3211.00,0.0041
3210.00,0.0042
3209.00,0.0042
3208.00,0.0042
3207.00,0.0042
3206.00,0.0042
3205.00,0.0042
3204.00,0.0042
3203.00,0.0043
3202.00,0.0042
3201.00,0.0042
3200.00,0.0042
3199.00,0.0041
3198.00,0.0041
3197.00,0.0042
3196.00,0.0042
3195.00,0.0042
3194.00,0.0041
3193.00,0.0041
3192.00,0.0041
3191.00,0.0041
3190.00,0.0041
3189.00,0.0041
3188.00,0.0040
3187.00,0.0040
3186.00,0.0040
3185.00,0.0040
3184.00,0.0040
3183.00,0.0040
3182.00,0.0040
3181.00,0.0041
3180.00,0.0041
3179.00,0.0040
3178.00,0.0040
3177.00,0.0040
3176.00,0.0039
3175.00,0.0039
3174.00,0.0038
3173.00,0.0038
3172.00,0.0038
3171.00,0.0038
3170.00,0.0038
3169.00,0.0038
3168.00,0.0038
3167.00,0.0038
3166.00,0.0038
3165.00,0.0038
3164.00,0.0038
3163.00,0.0038
3162.00,0.0038
3161.00,0.0037
3160.00,0.0037
3159.00,0.0037
3158.00,0.0037
3157.00,0.0038
3156.00,0.0038
3155.00,0.0038
3154.00,0.0037
3153.00,0.0037
3152.00,0.0037
3151.00,0.0038
3150.00,0.0038
3149.00,0.0038
3148.00,0.0038
3147.00,0.0038
3146.00,0.0038
3145.00,0.0037
3144.00,0.0037
3143.00,0.0037
3142.00,0.0037
3141.00,0.0036
3140.00,0.0036
3139.00,0.0036
3138.00,0.0035
3137.00,0.0036
3136.00,0.0036
3135.00,0.0036
3134.00,0.0035
3133.00,0.0035
3132.00,0.0035
3131.00,0.0035
3130.00,0.0035
3129.00,0.0034
3128.00,0.0034
3127.00,0.0034
3126.00,0.0033
3125.00,0.0033
3124.00,0.0033
3123.00,0.0033
3122.00,0.0032
3121.00,0.0032
3120.00,0.0032
3119.00,0.0032
3118.00,0.0032
3117.00,0.0032
3116.00,0.0031
3115.00,0.0031
3114.00,0.0031
3113.00,0.0031
3112.00,0.0031
3111.00,0.0030
3110.00,0.0030
3109.00,0.0030
3108.00,0.0030
3107.00,0.0030
3106.00,0.0030
3105.00,0.0030
3104.00,0.0030
3103.00,0.0030
3102.00,0.0030
3101.00,0.0029
3100.00,0.0029
3099.00,0.0029
3098.00,0.0030
3097.00,0.0030
3096.00,0.0029
3095.00,0.0029
3094.00,0.0029
3093.00,0.0029
3092.00,0.0029
3091.00,0.0029
3090.00,0.0029
3089.00,0.0030
3088.00,0.0030
3087.00,0.0030
3086.00,0.0030
3085.00,0.0029
3084.00,0.0029
3083.00,0.0029
3082.00,0.0029
3081.00,0.0029
3080.00,0.0029
3079.00,0.0029
3078.00,0.0029
3077.00,0.0029
3076.00,0.0029
3075.00,0.0029
3074.00,0.0029
3073.00,0.0029
3072.00,0.0029
3071.00,0.0030
3070.00,0.0030
3069.00,0.0030
3068.00,0.0030
3067.00,0.0030
3066.00,0.0030
3065.00,0.0030
3064.00,0.0031
3063.00,0.0031
3062.00,0.0031
3061.00,0.0031
3060.00,0.0031
3059.00,0.0031
3058.00,0.0031
3057.00,0.0031
3056.00,0.0031
3055.00,0.0032
3054.00,0.0032
3053.00,0.0032
3052.00,0.0033
3051.00,0.0033
3050.00,0.0033
3049.00,0.0033
3048.00,0.0033
3047.00,0.0033
3046.00,0.0033
3045.00,0.0034
3044.00,0.0034
3043.00,0.0034
3042.00,0.0034
3041.00,0.0034
3040.00,0.0035
3039.00,0.0035
3038.00,0.0036
3037.00,0.0036
3036.00,0.0036
3035.00,0.0036
3034.00,0.0036
3033.00,0.0037
3032.00,0.0037
3031.00,0.0037
3030.00,0.0038
3029.00,0.0038
3028.00,0.0039
3027.00,0.0040
3026.00,0.0040
3025.00,0.0041
3024.00,0.0041
3023.00,0.0042
3022.00,0.0043
3021.00,0.0044
3020.00,0.0045
3019.00,0.0045
3018.00,0.0046
3017.00,0.0046
3016.00,0.0047
3015.00,0.0047
3014.00,0.0049
3013.00,0.0050
3012.00,0.0051
3011.00,0.0053
3010.00,0.0054
3009.00,0.0055
3008.00,0.0057
3007.00,0.0058
3006.00,0.0060
3005.00,0.0061
3004.00,0.0063
3003.00,0.0065
3002.00,0.0067
3001.00,0.0069
3000.00,0.0071
2999.00,0.0073
2998.00,0.0076
2997.00,0.0080
2996.00,0.0084
2995.00,0.0088
2994.00,0.0092
2993.00,0.0097
2992.00,0.0102
2991.00,0.0108
2990.00,0.0114
2989.00,0.0120
2988.00,0.0128
2987.00,0.0136
2986.00,0.0146
2985.00,0.0156
2984.00,0.0168
2983.00,0.0182
2982.00,0.0197
2981.00,0.0215
2980.00,0.0234
2979.00,0.0257
2978.00,0.0283
2977.00,0.0312
2976.00,0.0346
2975.00,0.0384
2974.00,0.0429
2973.00,0.0479
2972.00,0.0537
2971.00,0.0602
2970.00,0.0675
2969.00,0.0756
2968.00,0.0844
2967.00,0.0940
2966.00,0.1042
2965.00,0.1149
2964.00,0.1257
2963.00,0.1359
2962.00,0.1450
2961.00,0.1523
2960.00,0.1577
2959.00,0.1613
2958.00,0.1636
2957.00,0.1656
2956.00,0.1679
2955.00,0.1712
2954.00,0.1755
2953.00,0.1802
2952.00,0.1843
2951.00,0.1866
2950.00,0.1859
2949.00,0.1817
2948.00,0.1740
2947.00,0.1635
2946.00,0.1515
2945.00,0.1392
2944.00,0.1279
2943.00,0.1183
2942.00,0.1109
2941.00,0.1058
2940.00,0.1029
2939.00,0.1020
2938.00,0.1030
2937.00,0.1055
2936.00,0.1096
2935.00,0.1150
2934.00,0.1217
2933.00,0.1295
2932.00,0.1384
2931.00,0.1482
2930.00,0.1585
2929.00,0.1692
2928.00,0.1800
2927.00,0.1904
2926.00,0.2005
2925.00,0.2103
2924.00,0.2197
2923.00,0.2291
2922.00,0.2382
2921.00,0.2469
2920.00,0.2544
2919.00,0.2598
2918.00,0.2620
2917.00,0.2607
2916.00,0.2558
2915.00,0.2480
2914.00,0.2386
2913.00,0.2287
2912.00,0.2193
2911.00,0.2111
2910.00,0.2040
2909.00,0.1979
2908.00,0.1924
2907.00,0.1870
2906.00,0.1815
2905.00,0.1757
2904.00,0.1695
2903.00,0.1631
2902.00,0.1566
2901.00,0.1502
2900.00,0.1439
2899.00,0.1379
2898.00,0.1322
2897.00,0.1269
2896.00,0.1221
2895.00,0.1180
2894.00,0.1144
2893.00,0.1115
2892.00,0.1091
2891.00,0.1072
2890.00,0.1059
2889.00,0.1049
2888.00,0.1043
2887.00,0.1040
2886.00,0.1039
2885.00,0.1042
2884.00,0.1048
2883.00,0.1058
2882.00,0.1071
2881.00,0.1084
2880.00,0.1097
2879.00,0.1105
2878.00,0.1108
2877.00,0.1105
2876.00,0.1098
2875.00,0.1091
2874.00,0.1087
2873.00,0.1090
2872.00,0.1100
2871.00,0.1115
2870.00,0.1134
2869.00,0.1152
2868.00,0.1163
2867.00,0.1160
2866.00,0.1137
2865.00,0.1096
2864.00,0.1038
2863.00,0.0972
2862.00,0.0908
2861.00,0.0852
2860.00,0.0809
2859.00,0.0780
2858.00,0.0765
2857.00,0.0761
2856.00,0.0767
2855.00,0.0780
2854.00,0.0799
2853.00,0.0820
2852.00,0.0842
2851.00,0.0862
2850.00,0.0878
2849.00,0.0890
2848.00,0.0902
2847.00,0.0918
2846.00,0.0942
2845.00,0.0977
2844.00,0.1021
2843.00,0.1073
2842.00,0.1126
2841.00,0.1172
2840.00,0.1205
2839.00,0.1216
2838.00,0.1200
2837.00,0.1155
2836.00,0.1083
2835.00,0.0991
2834.00,0.0889
2833.00,0.0786
2832.00,0.0690
2831.00,0.0605
2830.00,0.0534
2829.00,0.0475
2828.00,0.0428
2827.00,0.0389
2826.00,0.0357
2825.00,0.0330
2824.00,0.0308
2823.00,0.0289
2822.00,0.0273
2821.00,0.0258
2820.00,0.0245
2819.00,0.0234
2818.00,0.0224
2817.00,0.0215
2816.00,0.0208
2815.00,0.0201
2814.00,0.0195
2813.00,0.0190
2812.00,0.0184
2811.00,0.0179
2810.00,0.0174
2809.00,0.0168
2808.00,0.0163
2807.00,0.0157
2806.00,0.0151
2805.00,0.0145
2804.00,0.0139
2803.00,0.0133
2802.00,0.0128
2801.00,0.0124
2800.00,0.0120
2799.00,0.0117
2798.00,0.0114
2797.00,0.0112
2796.00,0.0109
2795.00,0.0107
2794.00,0.0105
2793.00,0.0102
2792.00,0.0099
2791.00,0.0095
2790.00,0.0092
2789.00,0.0088
2788.00,0.0085
2787.00,0.0082
2786.00,0.0079
2785.00,0.0076
2784.00,0.0074
2783.00,0.0071
2782.00,0.0069
2781.00,0.0067
2780.00,0.0066
2779.00,0.0064
2778.00,0.0063
2777.00,0.0061
2776.00,0.0060
2775.00,0.0059
2774.00,0.0058
2773.00,0.0057
2772.00,0.0057
2771.00,0.0056
2770.00,0.0055
2769.00,0.0055
2768.00,0.0054
2767.00,0.0054
2766.00,0.0054
2765.00,0.0053
2764.00,0.0053
2763.00,0.0053
2762.00,0.0052
2761.00,0.0052
2760.00,0.0052
2759.00,0.0051
2758.00,0.0051
2757.00,0.0051
2756.00,0.0051
2755.00,0.0051
2754.00,0.0051
2753.00,0.0051
2752.00,0.0051
2751.00,0.0051
2750.00,0.0050
2749.00,0.0050
2748.00,0.0050
2747.00,0.0050
2746.00,0.0050
2745.00,0.0051
2744.00,0.0052
2743.00,0.0053
2742.00,0.0054
2741.00,0.0055
2740.00,0.0056
2739.00,0.0057
2738.00,0.0058
2737.00,0.0059
2736.00,0.0061
2735.00,0.0062
2734.00,0.0063
2733.00,0.0065
2732.00,0.0066
2731.00,0.0068
2730.00,0.0070
2729.00,0.0072
2728.00,0.0074
2727.00,0.0077
2726.00,0.0080
2725.00,0.0082
2724.00,0.0083
2723.00,0.0083
2722.00,0.0083
2721.00,0.0081
2720.00,0.0078
2719.00,0.0075
2718.00,0.0072
2717.00,0.0069
2716.00,0.0067
2715.00,0.0064
2714.00,0.0062
2713.00,0.0060
2712.00,0.0058
2711.00,0.0056
2710.00,0.0055
2709.00,0.0053
2708.00,0.0052
2707.00,0.0051
2706.00,0.0050
2705.00,0.0050
2704.00,0.0049
2703.00,0.0048
2702.00,0.0047
2701.00,0.0046
2700.00,0.0045
2699.00,0.0045
2698.00,0.0044
2697.00,0.0044
2696.00,0.0044
2695.00,0.0044
2694.00,0.0044
2693.00,0.0044
2692.00,0.0044
2691.00,0.0044
2690.00,0.0044
2689.00,0.0044
2688.00,0.0044
2687.00,0.0044
2686.00,0.0044
2685.00,0.0044
2684.00,0.0044
2683.00,0.0044
2682.00,0.0045
2681.00,0.0045
2680.00,0.0045
2679.00,0.0045
2678.00,0.0045
2677.00,0.0045
2676.00,0.0045
2675.00,0.0045
2674.00,0.0045
2673.00,0.0044
2672.00,0.0044
2671.00,0.0044
2670.00,0.0044
2669.00,0.0044
2668.00,0.0044
2667.00,0.0044
2666.00,0.0044
2665.00,0.0045
2664.00,0.0045
2663.00,0.0046
2662.00,0.0047
2661.00,0.0047
2660.00,0.0047
2659.00,0.0047
2658.00,0.0047
2657.00,0.0047
2656.00,0.0046
2655.00,0.0045
2654.00,0.0045
2653.00,0.0044
2652.00,0.0043
2651.00,0.0043
2650.00,0.0043
2649.00,0.0043
2648.00,0.0042
2647.00,0.0042
2646.00,0.0042
2645.00,0.0042
2644.00,0.0041
2643.00,0.0040
2642.00,0.0040
2641.00,0.0040
2640.00,0.0040
2639.00,0.0039
2638.00,0.0039
2637.00,0.0039
2636.00,0.0038
2635.00,0.0038
2634.00,0.0038
2633.00,0.0038
2632.00,0.0038
2631.00,0.0038
2630.00,0.0038
2629.00,0.0038
2628.00,0.0039
2627.00,0.0039
2626.00,0.0039
2625.00,0.0039
2624.00,0.0039
2623.00,0.0039
2622.00,0.0040
2621.00,0.0040
2620.00,0.0040
2619.00,0.0040
2618.00,0.0039
2617.00,0.0039
2616.00,0.0039
2615.00,0.0039
2614.00,0.0039
2613.00,0.0039
2612.00,0.0038
2611.00,0.0038
2610.00,0.0037
2609.00,0.0036
2608.00,0.0035
2607.00,0.0035
2606.00,0.0034
2605.00,0.0033
2604.00,0.0032
2603.00,0.0032
2602.00,0.0031
2601.00,0.0031
2600.00,0.0031
2599.00,0.0031
2598.00,0.0032
2597.00,0.0032
2596.00,0.0032
2595.00,0.0031
2594.00,0.0031
2593.00,0.0031
2592.00,0.0031
2591.00,0.0031
2590.00,0.0032
2589.00,0.0034
2588.00,0.0035
2587.00,0.0036
2586.00,0.0036
2585.00,0.0036
2584.00,0.0036
2583.00,0.0037
2582.00,0.0037
2581.00,0.0036
2580.00,0.0036
2579.00,0.0035
2578.00,0.0034
2577.00,0.0033
2576.00,0.0032
2575.00,0.0031
2574.00,0.0031
2573.00,0.0030
2572.00,0.0029
2571.00,0.0027
2570.00,0.0026
2569.00,0.0026
2568.00,0.0026
2567.00,0.0026
2566.00,0.0026
2565.00,0.0026
2564.00,0.0025
2563.00,0.0024
2562.00,0.0024
2561.00,0.0023
2560.00,0.0022
2559.00,0.0022
2558.00,0.0022
2557.00,0.0021
2556.00,0.0021
2555.00,0.0021
2554.00,0.0020
2553.00,0.0020
2552.00,0.0020
2551.00,0.0020
2550.00,0.0020
2549.00,0.0020
2548.00,0.0020
2547.00,0.0019
2546.00,0.0018
2545.00,0.0017
2544.00,0.0017
2543.00,0.0017
2542.00,0.0017
2541.00,0.0018
2540.00,0.0018
2539.00,0.0017
2538.00,0.0017
2537.00,0.0016
2536.00,0.0016
2535.00,0.0016
2534.00,0.0016
2533.00,0.0016
2532.00,0.0016
2531.00,0.0016
2530.00,0.0015
2529.00,0.0015
2528.00,0.0014
2527.00,0.0014
2526.00,0.0014
2525.00,0.0013
2524.00,0.0014
2523.00,0.0014
2522.00,0.0013
2521.00,0.0013
2520.00,0.0012
2519.00,0.0011
2518.00,0.0011
2517.00,0.0011
2516.00,0.0011
2515.00,0.0011
2514.00,0.0011
2513.00,0.0010
2512.00,0.0010
2511.00,0.0010
2510.00,0.0010
2509.00,0.0010
2508.00,0.0009
2507.00,0.0009
2506.00,0.0008
2505.00,0.0008
2504.00,0.0008
2503.00,0.0009
2502.00,0.0009
2501.00,0.0010
2500.00,0.0010
2499.00,0.0010
2498.00,0.0010
2497.00,0.0010
2496.00,0.0010
2495.00,0.0011
2494.00,0.0011
2493.00,0.0010
2492.00,0.0010
2491.00,0.0010
2490.00,0.0010
2489.00,0.0010
2488.00,0.0010
2487.00,0.0010
2486.00,0.0010
2485.00,0.0010
2484.00,0.0011
2483.00,0.0011
2482.00,0.0010
2481.00,0.0009
2480.00,0.0008
2479.00,0.0008
2478.00,0.0008
2477.00,0.0008
2476.00,0.0008
2475.00,0.0007
2474.00,0.0007
2473.00,0.0007
2472.00,0.0007
2471.00,0.0007
2470.00,0.0007
2469.00,0.0007
2468.00,0.0008
2467.00,0.0008
2466.00,0.0008
2465.00,0.0008
2464.00,0.0008
2463.00,0.0008
2462.00,0.0008
2461.00,0.0008
2460.00,0.0009
2459.00,0.0009
2458.00,0.0009
2457.00,0.0009
2456.00,0.0009
2455.00,0.0009
2454.00,0.0009
2453.00,0.0010
2452.00,0.0010
2451.00,0.0010
2450.00,0.0010
2449.00,0.0010
2448.00,0.0010
2447.00,0.0010
2446.00,0.0010
2445.00,0.0010
2444.00,0.0010
2443.00,0.0010
2442.00,0.0010
2441.00,0.0009
2440.00,0.0009
2439.00,0.0008
2438.00,0.0009
2437.00,0.0010
2436.00,0.0010
2435.00,0.0011
2434.00,0.0011
2433.00,0.0011
2432.00,0.0011
2431.00,0.0011
2430.00,0.0011
2429.00,0.0011
2428.00,0.0011
2427.00,0.0011
2426.00,0.0010
2425.00,0.0010
2424.00,0.0009
2423.00,0.0009
2422.00,0.0008
2421.00,0.0008
2420.00,0.0008
2419.00,0.0009
2418.00,0.0009
2417.00,0.0009
2416.00,0.0010
2415.00,0.0010
2414.00,0.0010
2413.00,0.0010
2412.00,0.0010
2411.00,0.0010
2410.00,0.0009
2409.00,0.0009
2408.00,0.0008
2407.00,0.0008
2406.00,0.0008
2405.00,0.0008
2404.00,0.0009
2403.00,0.0009
2402.00,0.0009
2401.00,0.0008
2400.00,0.0007
2399.00,0.0006
2398.00,0.0006
2397.00,0.0007
2396.00,0.0008
2395.00,0.0008
2394.00,0.0008
2393.00,0.0008
2392.00,0.0008
2391.00,0.0007
2390.00,0.0007
2389.00,0.0006
2388.00,0.0006
2387.00,0.0006
2386.00,0.0006
2385.00,0.0005
2384.00,0.0005
2383.00,0.0004
2382.00,0.0004
2381.00,0.0004
2380.00,0.0005
2379.00,0.0005
2378.00,0.0006
2377.00,0.0005
2376.00,0.0005
2375.00,0.0005
2374.00,0.0004
2373.00,0.0004
2372.00,0.0004
2371.00,0.0005
2370.00,0.0005
2369.00,0.0004
2368.00,0.0004
2367.00,0.0004
2366.00,0.0004
2365.00,0.0004
2364.00,0.0005
2363.00,0.0005
2362.00,0.0006
2361.00,0.0006
2360.00,0.0005
2359.00,0.0005
2358.00,0.0005
2357.00,0.0005
2356.00,0.0005
2355.00,0.0005
2354.00,0.0005
2353.00,0.0005
2352.00,0.0005
2351.00,0.0004
2350.00,0.0002
2349.00,0.0001
2348.00,0.0002
2347.00,0.0005
2346.00,0.0009
2345.00,0.0012
2344.00,0.0013
2343.00,0.0012
2342.00,0.0010
2341.00,0.0008
2340.00,0.0007
2339.00,0.0007
2338.00,0.0007
2337.00,0.0008
2336.00,0.0008
2335.00,0.0008
2334.00,0.0007
2333.00,0.0006
2332.00,0.0006
2331.00,0.0007
2330.00,0.0007
2329.00,0.0007
2328.00,0.0008
2327.00,0.0010
2326.00,0.0014
2325.00,0.0018
2324.00,0.0020
2323.00,0.0019
2322.00,0.0017
2321.00,0.0014
2320.00,0.0011
2319.00,0.0010
2318.00,0.0009
2317.00,0.0008
2316.00,0.0008
2315.00,0.0007
2314.00,0.0007
2313.00,0.0007
2312.00,0.0007
2311.00,0.0006
2310.00,0.0005
2309.00,0.0004
2308.00,0.0003
2307.00,0.0003
2306.00,0.0003
2305.00,0.0004
2304.00,0.0005
2303.00,0.0006
2302.00,0.0007
2301.00,0.0008
2300.00,0.0008
2299.00,0.0007
2298.00,0.0007
2297.00,0.0008
2296.00,0.0009
2295.00,0.0010
2294.00,0.0012
2293.00,0.0013
2292.00,0.0015
2291.00,0.0016
2290.00,0.0016
2289.00,0.0017
2288.00,0.0018
2287.00,0.0019
2286.00,0.0018
2285.00,0.0017
2284.00,0.0016
2283.00,0.0016
2282.00,0.0016
2281.00,0.0016
2280.00,0.0016
2279.00,0.0015
2278.00,0.0015
2277.00,0.0014
2276.00,0.0013
2275.00,0.0013
2274.00,0.0013
2273.00,0.0013
2272.00,0.0013
2271.00,0.0012
2270.00,0.0012
2269.00,0.0011
2268.00,0.0010
2267.00,0.0009
2266.00,0.0009
2265.00,0.0009
2264.00,0.0009
2263.00,0.0010
2262.00,0.0011
2261.00,0.0011
2260.00,0.0011
2259.00,0.0011
2258.00,0.0011
2257.00,0.0011
2256.00,0.0011
2255.00,0.0010
2254.00,0.0009
2253.00,0.0008
2252.00,0.0008
2251.00,0.0008
2250.00,0.0008
2249.00,0.0008
2248.00,0.0007
2247.00,0.0007
2246.00,0.0006
2245.00,0.0007
2244.00,0.0007
2243.00,0.0008
2242.00,0.0009
2241.00,0.0009
2240.00,0.0010
2239.00,0.0010
2238.00,0.0010
2237.00,0.0009
2236.00,0.0009
2235.00,0.0009
2234.00,0.0009
2233.00,0.0008
2232.00,0.0007
2231.00,0.0007
2230.00,0.0006
2229.00,0.0006
2228.00,0.0006
2227.00,0.0006
2226.00,0.0005
2225.00,0.0006
2224.00,0.0007
2223.00,0.0008
2222.00,0.0008
2221.00,0.0008
2220.00,0.0007
2219.00,0.0007
2218.00,0.0006
2217.00,0.0006
2216.00,0.0006
2215.00,0.0007
2214.00,0.0007
2213.00,0.0008
2212.00,0.0007
2211.00,0.0006
2210.00,0.0005
2209.00,0.0005
2208.00,0.0005
2207.00,0.0005
2206.00,0.0004
2205.00,0.0003
2204.00,0.0002
2203.00,0.0001
2202.00,0.0001
2201.00,0.0001
2200.00,0.0002
2199.00,0.0003
2198.00,0.0004
2197.00,0.0004
2196.00,0.0003
2195.00,0.0004
2194.00,0.0006
2193.00,0.0007
2192.00,0.0008
2191.00,0.0009
2190.00,0.0009
2189.00,0.0009
2188.00,0.0008
2187.00,0.0006
2186.00,0.0003
2185.00,0.0001
2184.00,-0.0001
2183.00,-0.0001
2182.00,0.0000
2181.00,0.0002
2180.00,0.0004
2179.00,0.0006
2178.00,0.0007
2177.00,0.0007
2176.00,0.0006
2175.00,0.0005
2174.00,0.0005
2173.00,0.0006
2172.00,0.0006
2171.00,0.0007
2170.00,0.0009
2169.00,0.0012
2168.00,0.0013
2167.00,0.0012
2166.00,0.0010
2165.00,0.0010
2164.00,0.0014
2163.00,0.0019
2162.00,0.0021
2161.00,0.0017
2160.00,0.0006
2159.00,-0.0009
2158.00,-0.0021
2157.00,-0.0025
2156.00,-0.0024
2155.00,-0.0020
2154.00,-0.0017
2153.00,-0.0014
2152.00,-0.0013
2151.00,-0.0012
2150.00,-0.0012
2149.00,-0.0012
2148.00,-0.0014
2147.00,-0.0016
2146.00,-0.0018
2145.00,-0.0019
2144.00,-0.0019
2143.00,-0.0017
2142.00,-0.0013
2141.00,-0.0010
2140.00,-0.0008
2139.00,-0.0009
2138.00,-0.0011
2137.00,-0.0013
2136.00,-0.0016
2135.00,-0.0019
2134.00,-0.0021
2133.00,-0.0021
2132.00,-0.0019
2131.00,-0.0017
2130.00,-0.0014
2129.00,-0.0011
2128.00,-0.0010
2127.00,-0.0009
2126.00,-0.0009
2125.00,-0.0008
2124.00,-0.0007
2123.00,-0.0006
2122.00,-0.0004
2121.00,-0.0003
2120.00,-0.0002
2119.00,-0.0002
2118.00,-0.0001
2117.00,0.0000
2116.00,0.0002
2115.00,0.0004
2114.00,0.0005
2113.00,0.0005
2112.00,0.0004
2111.00,0.0003
2110.00,0.0001
2109.00,-0.0000
2108.00,-0.0001
2107.00,-0.0001
2106.00,-0.0001
2105.00,0.0000
2104.00,0.0001
2103.00,0.0001
2102.00,0.0000
2101.00,0.0000
2100.00,-0.0000
2099.00,-0.0001
2098.00,-0.0003
2097.00,-0.0005
2096.00,-0.0006
2095.00,-0.0007
2094.00,-0.0006
2093.00,-0.0004
2092.00,-0.0002
2091.00,-0.0000
2090.00,0.0001
2089.00,0.0001
2088.00,0.0002
2087.00,0.0002
2086.00,0.0002
2085.00,0.0003
2084.00,0.0003
2083.00,0.0004
2082.00,0.0004
2081.00,0.0005
2080.00,0.0007
2079.00,0.0007
2078.00,0.0007
2077.00,0.0004
2076.00,0.0002
2075.00,-0.0000
2074.00,-0.0002
2073.00,-0.0003
2072.00,-0.0004
2071.00,-0.0005
2070.00,-0.0007
2069.00,-0.0007
2068.00,-0.0006
2067.00,-0.0004
2066.00,-0.0001
2065.00,0.0001
2064.00,0.0001
2063.00,0.0000
2062.00,-0.0001
2061.00,-0.0001
2060.00,-0.0001
2059.00,0.0000
2058.00,0.0000
2057.00,-0.0001
2056.00,-0.0003
2055.00,-0.0004
2054.00,-0.0002
2053.00,0.0003
2052.00,0.0009
2051.00,0.0012
2050.00,0.0011
2049.00,0.0007
2048.00,0.0004
2047.00,0.0002
2046.00,0.0000
2045.00,-0.0001
2044.00,-0.0003
2043.00,-0.0004
2042.00,-0.0005
2041.00,-0.0005
2040.00,-0.0004
2039.00,-0.0003
2038.00,-0.0001
2037.00,0.0001
2036.00,0.0002
2035.00,0.0001
2034.00,-0.0002
2033.00,-0.0005
2032.00,-0.0008
2031.00,-0.0012
2030.00,-0.0016
2029.00,-0.0019
2028.00,-0.0021
2027.00,-0.0020
2026.00,-0.0019
2025.00,-0.0019
2024.00,-0.0020
2023.00,-0.0021
2022.00,-0.0022
2021.00,-0.0021
2020.00,-0.0020
2019.00,-0.0018
2018.00,-0.0017
2017.00,-0.0015
2016.00,-0.0014
2015.00,-0.0015
2014.00,-0.0015
2013.00,-0.0014
2012.00,-0.0012
2011.00,-0.0010
2010.00,-0.0008
2009.00,-0.0008
2008.00,-0.0011
2007.00,-0.0017
2006.00,-0.0022
2005.00,-0.0024
2004.00,-0.0021
2003.00,-0.0017
2002.00,-0.0015
2001.00,-0.0015
2000.00,-0.0016
1999.00,-0.0017
1998.00,-0.0017
1997.00,-0.0017
1996.00,-0.0016
1995.00,-0.0015
1994.00,-0.0015
1993.00,-0.0013
1992.00,-0.0011
1991.00,-0.0009
1990.00,-0.0007
1989.00,-0.0005
1988.00,-0.0003
1987.00,-0.0002
1986.00,-0.0000
1985.00,0.0002
1984.00,0.0003
1983.00,0.0005
1982.00,0.0006
1981.00,0.0007
1980.00,0.0006
1979.00,0.0003
1978.00,-0.0002
1977.00,-0.0005
1976.00,-0.0007
1975.00,-0.0009
1974.00,-0.0013
1973.00,-0.0016
1972.00,-0.0018
1971.00,-0.0018
1970.00,-0.0019
1969.00,-0.0020
1968.00,-0.0021
1967.00,-0.0023
1966.00,-0.0022
1965.00,-0.0020
1964.00,-0.0018
1963.00,-0.0017
1962.00,-0.0017
1961.00,-0.0017
1960.00,-0.0017
1959.00,-0.0016
1958.00,-0.0015
1957.00,-0.0014
1956.00,-0.0013
1955.00,-0.0014
1954.00,-0.0014
1953.00,-0.0014
1952.00,-0.0014
1951.00,-0.0014
1950.00,-0.0014
1949.00,-0.0015
1948.00,-0.0015
1947.00,-0.0017
1946.00,-0.0019
1945.00,-0.0020
1944.00,-0.0020
1943.00,-0.0018
1942.00,-0.0016
1941.00,-0.0014
1940.00,-0.0014
1939.00,-0.0015
1938.00,-0.0016
1937.00,-0.0016
1936.00,-0.0016
1935.00,-0.0014
1934.00,-0.0012
1933.00,-0.0011
1932.00,-0.0010
1931.00,-0.0010
1930.00,-0.0010
1929.00,-0.0009
1928.00,-0.0007
1927.00,-0.0006
1926.00,-0.0005
1925.00,-0.0005
1924.00,-0.0006
1923.00,-0.0008
1922.00,-0.0008
1921.00,-0.0008
1920.00,-0.0008
1919.00,-0.0008
1918.00,-0.0006
1917.00,-0.0004
1916.00,-0.0002
1915.00,-0.0001
1914.00,-0.0002
1913.00,-0.0003
1912.00,-0.0003
1911.00,-0.0003
1910.00,-0.0003
1909.00,-0.0003
1908.00,-0.0003
1907.00,-0.0002
1906.00,-0.0002
1905.00,-0.0002
1904.00,-0.0002
1903.00,-0.0002
1902.00,-0.0001
1901.00,-0.0001
1900.00,-0.0001
1899.00,-0.0002
1898.00,-0.0002
1897.00,-0.0002
1896.00,-0.0003
1895.00,-0.0003
1894.00,-0.0004
1893.00,-0.0004
1892.00,-0.0003
1891.00,-0.0003
1890.00,-0.0003
1889.00,-0.0002
1888.00,-0.0001
1887.00,0.0000
1886.00,0.0000
1885.00,-0.0001
1884.00,-0.0001
1883.00,-0.0002
1882.00,-0.0002
1881.00,-0.0001
1880.00,-0.0001
1879.00,-0.0001
1878.00,-0.0002
1877.00,-0.0002
1876.00,-0.0001
1875.00,-0.0001
1874.00,-0.0001
1873.00,0.0000
1872.00,0.0001
1871.00,0.0001
1870.00,-0.0000
1869.00,-0.0001
1868.00,-0.0001
1867.00,-0.0002
1866.00,-0.0002
1865.00,-0.0002
1864.00,-0.0001
1863.00,0.0000
1862.00,0.0001
1861.00,0.0001
1860.00,0.0001
1859.00,0.0001
1858.00,0.0001
1857.00,0.0001
1856.00,0.0000
1855.00,-0.0001
1854.00,-0.0001
1853.00,-0.0001
1852.00,-0.0001
1851.00,0.0000
1850.00,0.0001
1849.00,0.0001
1848.00,0.0000
1847.00,-0.0001
1846.00,-0.0001
1845.00,-0.0002
1844.00,-0.0001
1843.00,0.0000
1842.00,0.0001
1841.00,0.0001
1840.00,0.0001
1839.00,0.0001
1838.00,0.0001
1837.00,0.0001
1836.00,0.0002
1835.00,0.0002
1834.00,0.0002
1833.00,0.0001
1832.00,0.0001
1831.00,0.0001
1830.00,0.0001
1829.00,0.0001
1828.00,0.0001
1827.00,0.0002
1826.00,0.0002
1825.00,0.0002
1824.00,0.0002
1823.00,0.0002
1822.00,0.0003
1821.00,0.0002
1820.00,0.0002
1819.00,0.0001
1818.00,-0.0001
1817.00,-0.0001
1816.00,-0.0000
1815.00,0.0000
1814.00,0.0001
1813.00,0.0001
1812.00,0.0002
1811.00,0.0002
1810.00,0.0002
1809.00,0.0003
1808.00,0.0004
1807.00,0.0004
1806.00,0.0004
1805.00,0.0004
1804.00,0.0004
1803.00,0.0004
1802.00,0.0004
1801.00,0.0004
1800.00,0.0005
1799.00,0.0005
1798.00,0.0005
1797.00,0.0005
1796.00,0.0006
1795.00,0.0006
1794.00,0.0006
1793.00,0.0007
1792.00,0.0007
1791.00,0.0007
1790.00,0.0007
1789.00,0.0007
1788.00,0.0007
1787.00,0.0007
1786.00,0.0007
1785.00,0.0008
1784.00,0.0008
1783.00,0.0008
1782.00,0.0008
1781.00,0.0008
1780.00,0.0008
1779.00,0.0008
1778.00,0.0008
1777.00,0.0008
1776.00,0.0007
1775.00,0.0008
1774.00,0.0008
1773.00,0.0009
1772.00,0.0010
1771.00,0.0010
1770.00,0.0011
1769.00,0.0011
1768.00,0.0011
1767.00,0.0011
1766.00,0.0011
1765.00,0.0012
1764.00,0.0012
1763.00,0.0012
1762.00,0.0012
1761.00,0.0012
1760.00,0.0013
1759.00,0.0014
1758.00,0.0014
1757.00,0.0014
1756.00,0.0015
1755.00,0.0015
1754.00,0.0016
1753.00,0.0017
1752.00,0.0018
1751.00,0.0019
1750.00,0.0020
1749.00,0.0020
1748.00,0.0021
1747.00,0.0021
1746.00,0.0021
1745.00,0.0021
1744.00,0.0021
1743.00,0.0022
1742.00,0.0022
1741.00,0.0023
1740.00,0.0024
1739.00,0.0024
1738.00,0.0024
1737.00,0.0025
1736.00,0.0025
1735.00,0.0025
1734.00,0.0025
1733.00,0.0026
1732.00,0.0026
1731.00,0.0026
1730.00,0.0026
1729.00,0.0025
1728.00,0.0025
1727.00,0.0025
1726.00,0.0026
1725.00,0.0026
1724.00,0.0027
1723.00,0.0027
1722.00,0.0028
1721.00,0.0028
1720.00,0.0028
1719.00,0.0027
1718.00,0.0027
1717.00,0.0027
1716.00,0.0027
1715.00,0.0026
1714.00,0.0026
1713.00,0.0025
1712.00,0.0025
1711.00,0.0025
1710.00,0.0025
1709.00,0.0025
1708.00,0.0025
1707.00,0.0025
1706.00,0.0025
1705.00,0.0025
1704.00,0.0026
1703.00,0.0026
1702.00,0.0027
1701.00,0.0027
1700.00,0.0027
1699.00,0.0028
1698.00,0.0028
1697.00,0.0028
1696.00,0.0028
1695.00,0.0028
1694.00,0.0029
1693.00,0.0029
1692.00,0.0029
1691.00,0.0030
1690.00,0.0031
1689.00,0.0031
1688.00,0.0032
1687.00,0.0032
1686.00,0.0033
1685.00,0.0034
1684.00,0.0035
1683.00,0.0036
1682.00,0.0036
1681.00,0.0036
1680.00,0.0037
1679.00,0.0037
1678.00,0.0038
1677.00,0.0039
1676.00,0.0040
1675.00,0.0041
1674.00,0.0042
1673.00,0.0042
1672.00,0.0043
1671.00,0.0044
1670.00,0.0044
1669.00,0.0044
1668.00,0.0044
1667.00,0.0045
1666.00,0.0045
1665.00,0.0046
1664.00,0.0047
1663.00,0.0047
1662.00,0.0048
1661.00,0.0048
1660.00,0.0048
1659.00,0.0048
1658.00,0.0049
1657.00,0.0050
1656.00,0.0051
1655.00,0.0052
1654.00,0.0053
1653.00,0.0053
1652.00,0.0053
1651.00,0.0054
1650.00,0.0054
1649.00,0.0054
1648.00,0.0054
1647.00,0.0055
1646.00,0.0055
1645.00,0.0056
1644.00,0.0057
1643.00,0.0058
1642.00,0.0060
1641.00,0.0062
1640.00,0.0064
1639.00,0.0066
1638.00,0.0067
1637.00,0.0068
1636.00,0.0069
1635.00,0.0067
1634.00,0.0066
1633.00,0.0065
1632.00,0.0065
1631.00,0.0064
1630.00,0.0064
1629.00,0.0064
1628.00,0.0064
1627.00,0.0064
1626.00,0.0063
1625.00,0.0063
1624.00,0.0064
1623.00,0.0063
1622.00,0.0063
1621.00,0.0062
1620.00,0.0062
1619.00,0.0062
1618.00,0.0062
1617.00,0.0062
1616.00,0.0062
1615.00,0.0062
1614.00,0.0061
1613.00,0.0061
1612.00,0.0062
1611.00,0.0062
1610.00,0.0063
1609.00,0.0063
1608.00,0.0063
1607.00,0.0063
1606.00,0.0063
1605.00,0.0063
1604.00,0.0063
1603.00,0.0063
1602.00,0.0063
1601.00,0.0064
1600.00,0.0064
1599.00,0.0064
1598.00,0.0064
1597.00,0.0063
1596.00,0.0063
1595.00,0.0063
1594.00,0.0064
1593.00,0.0064
1592.00,0.0065
1591.00,0.0065
1590.00,0.0065
1589.00,0.0066
1588.00,0.0068
1587.00,0.0070
1586.00,0.0072
1585.00,0.0074
1584.00,0.0077
1583.00,0.0080
1582.00,0.0083
1581.00,0.0086
1580.00,0.0089
1579.00,0.0092
1578.00,0.0093
1577.00,0.0093
1576.00,0.0093
1575.00,0.0091
1574.00,0.0089
1573.00,0.0087
1572.00,0.0085
1571.00,0.0083
1570.00,0.0080
1569.00,0.0078
1568.00,0.0077
1567.00,0.0077
1566.00,0.0077
1565.00,0.0076
1564.00,0.0076
1563.00,0.0076
1562.00,0.0076
1561.00,0.0076
1560.00,0.0076
1559.00,0.0076
1558.00,0.0076
1557.00,0.0076
1556.00,0.0077
1555.00,0.0077
1554.00,0.0077
1553.00,0.0078
1552.00,0.0080
1551.00,0.0082
1550.00,0.0084
1549.00,0.0087
1548.00,0.0090
1547.00,0.0092
1546.00,0.0095
1545.00,0.0098
1544.00,0.0102
1543.00,0.0105
1542.00,0.0107
1541.00,0.0107
1540.00,0.0105
1539.00,0.0100
1538.00,0.0096
1537.00,0.0092
1536.00,0.0088
1535.00,0.0084
1534.00,0.0078
1533.00,0.0074
1532.00,0.0071
1531.00,0.0069
1530.00,0.0067
1529.00,0.0067
1528.00,0.0066
1527.00,0.0065
1526.00,0.0064
1525.00,0.0064
1524.00,0.0064
1523.00,0.0063
1522.00,0.0063
1521.00,0.0062
1520.00,0.0062
1519.00,0.0062
1518.00,0.0062
1517.00,0.0062
1516.00,0.0062
1515.00,0.0063
1514.00,0.0063
1513.00,0.0064
1512.00,0.0066
1511.00,0.0067
1510.00,0.0068
1509.00,0.0069
1508.00,0.0071
1507.00,0.0071
1506.00,0.0071
1505.00,0.0072
1504.00,0.0073
1503.00,0.0075
1502.00,0.0076
1501.00,0.0079
1500.00,0.0082
1499.00,0.0084
1498.00,0.0086
1497.00,0.0090
1496.00,0.0095
1495.00,0.0098
1494.00,0.0101
1493.00,0.0105
1492.00,0.0109
1491.00,0.0113
1490.00,0.0117
1489.00,0.0123
1488.00,0.0129
1487.00,0.0134
1486.00,0.0140
1485.00,0.0147
1484.00,0.0155
1483.00,0.0163
1482.00,0.0174
1481.00,0.0187
1480.00,0.0201
1479.00,0.0216
1478.00,0.0232
1477.00,0.0254
1476.00,0.0280
1475.00,0.0310
1474.00,0.0349
1473.00,0.0403
1472.00,0.0466
1471.00,0.0526
1470.00,0.0584
1469.00,0.0646
1468.00,0.0713
1467.00,0.0787
1466.00,0.0870
1465.00,0.0959
1464.00,0.1037
1463.00,0.1091
1462.00,0.1125
1461.00,0.1149
1460.00,0.1167
1459.00,0.1179
1458.00,0.1191
1457.00,0.1201
1456.00,0.1205
1455.00,0.1201
1454.00,0.1193
1453.00,0.1181
1452.00,0.1160
1451.00,0.1128
1450.00,0.1083
1449.00,0.1017
1448.00,0.0931
1447.00,0.0837
1446.00,0.0751
1445.00,0.0675
1444.00,0.0610
1443.00,0.0556
1442.00,0.0514
1441.00,0.0484
1440.00,0.0465
1439.00,0.0455
1438.00,0.0453
1437.00,0.0450
1436.00,0.0439
1435.00,0.0415
1434.00,0.0381
1433.00,0.0341
1432.00,0.0299
1431.00,0.0262
1430.00,0.0232
1429.00,0.0210
1428.00,0.0194
1427.00,0.0184
1426.00,0.0178
1425.00,0.0172
1424.00,0.0166
1423.00,0.0162
1422.00,0.0159
1421.00,0.0156
1420.00,0.0152
1419.00,0.0149
1418.00,0.0145
1417.00,0.0142
1416.00,0.0139
1415.00,0.0136
1414.00,0.0135
1413.00,0.0133
1412.00,0.0130
1411.00,0.0128
1410.00,0.0127
1409.00,0.0125
1408.00,0.0123
1407.00,0.0123
1406.00,0.0123
1405.00,0.0122
1404.00,0.0121
1403.00,0.0121
1402.00,0.0122
1401.00,0.0122
1400.00,0.0122
1399.00,0.0123
1398.00,0.0125
1397.00,0.0127
1396.00,0.0128
1395.00,0.0131
1394.00,0.0135
1393.00,0.0139
1392.00,0.0144
1391.00,0.0151
1390.00,0.0161
1389.00,0.0175
1388.00,0.0195
1387.00,0.0225
1386.00,0.0265
1385.00,0.0319
1384.00,0.0393
1383.00,0.0496
1382.00,0.0633
1381.00,0.0807
1380.00,0.1020
1379.00,0.1262
1378.00,0.1498
1377.00,0.1671
1376.00,0.1729
1375.00,0.1644
1374.00,0.1440
1373.00,0.1195
1372.00,0.0970
1371.00,0.0784
1370.00,0.0636
1369.00,0.0522
1368.00,0.0444
1367.00,0.0395
1366.00,0.0368
1365.00,0.0357
1364.00,0.0359
1363.00,0.0370
1362.00,0.0388
1361.00,0.0407
1360.00,0.0422
1359.00,0.0426
1358.00,0.0417
1357.00,0.0394
1356.00,0.0361
1355.00,0.0324
1354.00,0.0289
1353.00,0.0258
1352.00,0.0234
1351.00,0.0214
1350.00,0.0198
1349.00,0.0184
1348.00,0.0173
1347.00,0.0163
1346.00,0.0154
1345.00,0.0147
1344.00,0.0140
1343.00,0.0136
1342.00,0.0132
1341.00,0.0129
1340.00,0.0126
1339.00,0.0125
1338.00,0.0123
1337.00,0.0122
1336.00,0.0122
1335.00,0.0123
1334.00,0.0125
1333.00,0.0129
1332.00,0.0133
1331.00,0.0136
1330.00,0.0137
1329.00,0.0136
1328.00,0.0133
1327.00,0.0129
1326.00,0.0124
1325.00,0.0119
1324.00,0.0114
1323.00,0.0109
1322.00,0.0106
1321.00,0.0103
1320.00,0.0101
1319.00,0.0099
1318.00,0.0097
1317.00,0.0096
1316.00,0.0095
1315.00,0.0094
1314.00,0.0094
1313.00,0.0094
1312.00,0.0095
1311.00,0.0098
1310.00,0.0103
1309.00,0.0110
1308.00,0.0121
1307.00,0.0134
1306.00,0.0147
1305.00,0.0155
1304.00,0.0157
1303.00,0.0152
1302.00,0.0145
1301.00,0.0138
1300.00,0.0134
1299.00,0.0131
1298.00,0.0131
1297.00,0.0130
1296.00,0.0128
1295.00,0.0125
1294.00,0.0121
1293.00,0.0117
1292.00,0.0113
1291.00,0.0108
1290.00,0.0105
1289.00,0.0102
1288.00,0.0099
1287.00,0.0097
1286.00,0.0094
1285.00,0.0092
1284.00,0.0091
1283.00,0.0090
1282.00,0.0089
1281.00,0.0088
1280.00,0.0087
1279.00,0.0086
1278.00,0.0086
1277.00,0.0085
1276.00,0.0084
1275.00,0.0083
1274.00,0.0084
1273.00,0.0084
1272.00,0.0086
1271.00,0.0088
1270.00,0.0089
1269.00,0.0091
1268.00,0.0093
1267.00,0.0096
1266.00,0.0099
1265.00,0.0103
1264.00,0.0107
1263.00,0.0110
1262.00,0.0114
1261.00,0.0119
1260.00,0.0124
1259.00,0.0131
1258.00,0.0138
1257.00,0.0144
1256.00,0.0147
1255.00,0.0144
1254.00,0.0137
1253.00,0.0127
1252.00,0.0117
1251.00,0.0109
1250.00,0.0103
1249.00,0.0098
1248.00,0.0094
1247.00,0.0092
1246.00,0.0090
1245.00,0.0088
1244.00,0.0087
1243.00,0.0086
1242.00,0.0085
1241.00,0.0084
1240.00,0.0084
1239.00,0.0083
1238.00,0.0083
1237.00,0.0083
1236.00,0.0083
1235.00,0.0084
1234.00,0.0085
1233.00,0.0086
1232.00,0.0086
1231.00,0.0087
1230.00,0.0087
1229.00,0.0089
1228.00,0.0090
1227.00,0.0092
1226.00,0.0094
1225.00,0.0096
1224.00,0.0099
1223.00,0.0102
1222.00,0.0105
1221.00,0.0107
1220.00,0.0108
1219.00,0.0109
1218.00,0.0108
1217.00,0.0106
1216.00,0.0104
1215.00,0.0101
1214.00,0.0099
1213.00,0.0097
1212.00,0.0095
1211.00,0.0093
1210.00,0.0092
1209.00,0.0091
1208.00,0.0090
1207.00,0.0089
1206.00,0.0089
1205.00,0.0089
1204.00,0.0088
1203.00,0.0088
1202.00,0.0088
1201.00,0.0089
1200.00,0.0089
1199.00,0.0090
1198.00,0.0090
1197.00,0.0091
1196.00,0.0091
1195.00,0.0091
1194.00,0.0091
1193.00,0.0091
1192.00,0.0091
1191.00,0.0091
1190.00,0.0091
1189.00,0.0091
1188.00,0.0091
1187.00,0.0092
1186.00,0.0092
1185.00,0.0093
1184.00,0.0094
1183.00,0.0095
1182.00,0.0097
1181.00,0.0100
1180.00,0.0104
1179.00,0.0108
1178.00,0.0115
1177.00,0.0124
1176.00,0.0136
1175.00,0.0153
1174.00,0.0175
1173.00,0.0204
1172.00,0.0239
1171.00,0.0278
1170.00,0.0317
1169.00,0.0349
1168.00,0.0368
1167.00,0.0371
1166.00,0.0360
1165.00,0.0340
1164.00,0.0317
1163.00,0.0294
1162.00,0.0273
1161.00,0.0256
1160.00,0.0243
1159.00,0.0232
1158.00,0.0225
1157.00,0.0220
1156.00,0.0216
1155.00,0.0213
1154.00,0.0211
1153.00,0.0207
1152.00,0.0202
1151.00,0.0196
1150.00,0.0188
1149.00,0.0178
1148.00,0.0168
1147.00,0.0158
1146.00,0.0148
1145.00,0.0140
1144.00,0.0133
1143.00,0.0127
1142.00,0.0122
1141.00,0.0117
1140.00,0.0112
1139.00,0.0108
1138.00,0.0105
1137.00,0.0102
1136.00,0.0100
1135.00,0.0098
1134.00,0.0096
1133.00,0.0094
1132.00,0.0093
1131.00,0.0093
1130.00,0.0094
1129.00,0.0095
1128.00,0.0095
1127.00,0.0096
1126.00,0.0096
1125.00,0.0096
1124.00,0.0096
1123.00,0.0096
1122.00,0.0097
1121.00,0.0098
1120.00,0.0100
1119.00,0.0102
1118.00,0.0104
1117.00,0.0105
1116.00,0.0106
1115.00,0.0108
1114.00,0.0109
1113.00,0.0111
1112.00,0.0112
1111.00,0.0114
1110.00,0.0116
1109.00,0.0119
1108.00,0.0123
1107.00,0.0128
1106.00,0.0133
1105.00,0.0138
1104.00,0.0142
1103.00,0.0144
1102.00,0.0143
1101.00,0.0140
1100.00,0.0135
1099.00,0.0130
1098.00,0.0125
1097.00,0.0121
1096.00,0.0117
1095.00,0.0114
1094.00,0.0112
1093.00,0.0110
1092.00,0.0108
1091.00,0.0106
1090.00,0.0104
1089.00,0.0101
1088.00,0.0099
1087.00,0.0099
1086.00,0.0098
1085.00,0.0099
1084.00,0.0099
1083.00,0.0098
1082.00,0.0097
1081.00,0.0096
1080.00,0.0094
1079.00,0.0092
1078.00,0.0090
1077.00,0.0089
1076.00,0.0089
1075.00,0.0089
1074.00,0.0090
1073.00,0.0090
1072.00,0.0089
1071.00,0.0089
1070.00,0.0089
1069.00,0.0089
1068.00,0.0089
1067.00,0.0089
1066.00,0.0090
1065.00,0.0090
1064.00,0.0091
1063.00,0.0091
1062.00,0.0092
1061.00,0.0094
1060.00,0.0095
1059.00,0.0097
1058.00,0.0098
1057.00,0.0099
1056.00,0.0101
1055.00,0.0102
1054.00,0.0104
1053.00,0.0106
1052.00,0.0109
1051.00,0.0113
1050.00,0.0117
1049.00,0.0122
1048.00,0.0127
1047.00,0.0132
1046.00,0.0137
1045.00,0.0140
1044.00,0.0142
1043.00,0.0141
1042.00,0.0139
1041.00,0.0137
1040.00,0.0135
1039.00,0.0134
1038.00,0.0133
1037.00,0.0132
1036.00,0.0132
1035.00,0.0131
1034.00,0.0130
1033.00,0.0129
1032.00,0.0127
1031.00,0.0126
1030.00,0.0126
1029.00,0.0126
1028.00,0.0126
1027.00,0.0127
1026.00,0.0128
1025.00,0.0130
1024.00,0.0132
1023.00,0.0134
1022.00,0.0136
1021.00,0.0138
1020.00,0.0141
1019.00,0.0143
1018.00,0.0145
1017.00,0.0145
1016.00,0.0145
1015.00,0.0145
1014.00,0.0146
1013.00,0.0147
1012.00,0.0148
1011.00,0.0150
1010.00,0.0151
1009.00,0.0151
1008.00,0.0154
1007.00,0.0158
1006.00,0.0165
1005.00,0.0177
1004.00,0.0195
1003.00,0.0222
1002.00,0.0258
1001.00,0.0304
1000.00,0.0354
999.00,0.0396
998.00,0.0418
997.00,0.0412
996.00,0.0378
995.00,0.0329
994.00,0.0278
993.00,0.0233
992.00,0.0199
991.00,0.0175
990.00,0.0158
989.00,0.0147
988.00,0.0139
987.00,0.0135
986.00,0.0133
985.00,0.0133
984.00,0.0136
983.00,0.0142
982.00,0.0153
981.00,0.0169
980.00,0.0192
979.00,0.0222
978.00,0.0261
977.00,0.0307
976.00,0.0359
975.00,0.0412
974.00,0.0454
973.00,0.0474
972.00,0.0462
971.00,0.0420
970.00,0.0360
969.00,0.0297
968.00,0.0242
967.00,0.0201
966.00,0.0171
965.00,0.0149
964.00,0.0134
963.00,0.0124
962.00,0.0116
961.00,0.0109
960.00,0.0104
959.00,0.0100
958.00,0.0097
957.00,0.0094
956.00,0.0092
955.00,0.0090
954.00,0.0087
953.00,0.0085
952.00,0.0083
951.00,0.0082
950.00,0.0082
949.00,0.0081
948.00,0.0081
947.00,0.0082
946.00,0.0083
945.00,0.0086
944.00,0.0088
943.00,0.0091
942.00,0.0093
941.00,0.0095
940.00,0.0094
939.00,0.0092
938.00,0.0088
937.00,0.0083
936.00,0.0079
935.00,0.0076
934.00,0.0073
933.00,0.0070
932.00,0.0068
931.00,0.0067
930.00,0.0067
929.00,0.0066
928.00,0.0065
927.00,0.0065
926.00,0.0064
925.00,0.0064
924.00,0.0065
923.00,0.0066
922.00,0.0066
921.00,0.0065
920.00,0.0064
919.00,0.0063
918.00,0.0063
917.00,0.0064
916.00,0.0066
915.00,0.0067
914.00,0.0068
913.00,0.0068
912.00,0.0069
911.00,0.0070
910.00,0.0072
909.00,0.0074
908.00,0.0076
907.00,0.0080
906.00,0.0086
905.00,0.0095
904.00,0.0108
903.00,0.0123
902.00,0.0140
901.00,0.0156
900.00,0.0167
899.00,0.0169
898.00,0.0163
897.00,0.0150
896.00,0.0134
895.00,0.0119
894.00,0.0107
893.00,0.0098
892.00,0.0091
891.00,0.0086
890.00,0.0083
889.00,0.0081
888.00,0.0079
887.00,0.0078
886.00,0.0077
885.00,0.0076
884.00,0.0076
883.00,0.0076
882.00,0.0077
881.00,0.0077
880.00,0.0079
879.00,0.0081
878.00,0.0083
877.00,0.0085
876.00,0.0086
875.00,0.0087
874.00,0.0087
873.00,0.0087
872.00,0.0086
871.00,0.0085
870.00,0.0084
869.00,0.0082
868.00,0.0082
867.00,0.0082
866.00,0.0082
865.00,0.0082
864.00,0.0082
863.00,0.0083
862.00,0.0085
861.00,0.0086
860.00,0.0088
859.00,0.0089
858.00,0.0091
857.00,0.0093
856.00,0.0095
855.00,0.0097
854.00,0.0099
853.00,0.0101
852.00,0.0103
851.00,0.0108
850.00,0.0113
849.00,0.0121
848.00,0.0133
847.00,0.0148
846.00,0.0172
845.00,0.0208
844.00,0.0262
843.00,0.0328
842.00,0.0387
841.00,0.0413
840.00,0.0392
839.00,0.0335
838.00,0.0267
837.00,0.0210
836.00,0.0172
835.00,0.0149
834.00,0.0136
833.00,0.0127
832.00,0.0122
831.00,0.0117
830.00,0.0113
829.00,0.0109
828.00,0.0106
827.00,0.0104
826.00,0.0104
825.00,0.0105
824.00,0.0105
823.00,0.0106
822.00,0.0106
821.00,0.0108
820.00,0.0109
819.00,0.0111
818.00,0.0115
817.00,0.0121
816.00,0.0129
815.00,0.0139
814.00,0.0152
813.00,0.0167
812.00,0.0182
811.00,0.0198
810.00,0.0210
809.00,0.0217
808.00,0.0216
807.00,0.0205
806.00,0.0189
805.00,0.0172
804.00,0.0157
803.00,0.0145
802.00,0.0136
801.00,0.0131
800.00,0.0127
799.00,0.0122
798.00,0.0118
797.00,0.0113
796.00,0.0108
795.00,0.0104
794.00,0.0101
793.00,0.0098
792.00,0.0096
791.00,0.0093
790.00,0.0090
789.00,0.0086
788.00,0.0083
787.00,0.0080
786.00,0.0077
785.00,0.0076
784.00,0.0075
783.00,0.0073
782.00,0.0071
781.00,0.0070
780.00,0.0069
779.00,0.0068
778.00,0.0068
777.00,0.0068
776.00,0.0069
775.00,0.0070
774.00,0.0070
773.00,0.0069
772.00,0.0068
771.00,0.0068
770.00,0.0069
769.00,0.0070
768.00,0.0071
767.00,0.0071
766.00,0.0070
765.00,0.0070
764.00,0.0070
763.00,0.0069
762.00,0.0068
761.00,0.0068
760.00,0.0069
759.00,0.0070
758.00,0.0072
757.00,0.0074
756.00,0.0075
755.00,0.0077
754.00,0.0079
753.00,0.0081
752.00,0.0082
751.00,0.0083
750.00,0.0083
749.00,0.0084
748.00,0.0086
747.00,0.0087
746.00,0.0088
745.00,0.0088
744.00,0.0089
743.00,0.0091
742.00,0.0094
741.00,0.0098
740.00,0.0103
739.00,0.0107
738.00,0.0111
737.00,0.0115
736.00,0.0118
735.00,0.0122
734.00,0.0126
733.00,0.0131
732.00,0.0138
731.00,0.0146
730.00,0.0152
729.00,0.0155
728.00,0.0156
727.00,0.0157
726.00,0.0159
725.00,0.0163
724.00,0.0168
723.00,0.0174
722.00,0.0179
721.00,0.0181
720.00,0.0179
719.00,0.0173
718.00,0.0163
717.00,0.0152
716.00,0.0141
715.00,0.0133
714.00,0.0127
713.00,0.0124
712.00,0.0121
711.00,0.0118
710.00,0.0115
709.00,0.0111
708.00,0.0108
707.00,0.0105
706.00,0.0104
705.00,0.0102
704.00,0.0102
703.00,0.0102
702.00,0.0101
701.00,0.0099
700.00,0.0098
699.00,0.0096
698.00,0.0096
697.00,0.0096
696.00,0.0097
695.00,0.0098
694.00,0.0099
693.00,0.0099
692.00,0.0099
691.00,0.0099
690.00,0.0100
689.00,0.0101
688.00,0.0103
687.00,0.0103
686.00,0.0102
685.00,0.0101
684.00,0.0100
683.00,0.0100
682.00,0.0100
681.00,0.0100
680.00,0.0100
679.00,0.0101
678.00,0.0103
677.00,0.0105
676.00,0.0106
675.00,0.0107
674.00,0.0107
673.00,0.0106
672.00,0.0104
671.00,0.0103
670.00,0.0104
669.00,0.0107
668.00,0.0108
667.00,0.0106
666.00,0.0102
665.00,0.0100
664.00,0.0099
663.00,0.0100
662.00,0.0099
661.00,0.0097
660.00,0.0095
659.00,0.0092
658.00,0.0091
657.00,0.0089
656.00,0.0088
655.00,0.0088
654.00,0.0089
653.00,0.0091
652.00,0.0092
651.00,0.0091
650.00,0.0088
649.00,0.0086
648.00,0.0085
647.00,0.0085
646.00,0.0086
645.00,0.0086
644.00,0.0086
643.00,0.0085
642.00,0.0084
641.00,0.0084
640.00,0.0084
639.00,0.0084
638.00,0.0084
637.00,0.0085
636.00,0.0086
635.00,0.0086
634.00,0.0087
633.00,0.0087
632.00,0.0086
631.00,0.0086
630.00,0.0087
629.00,0.0089
628.00,0.0089
627.00,0.0088
626.00,0.0088
625.00,0.0089
624.00,0.0092
623.00,0.0096
622.00,0.0098
621.00,0.0096
620.00,0.0092
619.00,0.0090
618.00,0.0091
617.00,0.0093
616.00,0.0093
615.00,0.0091
614.00,0.0088
613.00,0.0086
612.00,0.0087
611.00,0.0087
610.00,0.0087
609.00,0.0086
608.00,0.0084
607.00,0.0083
606.00,0.0083
605.00,0.0085
604.00,0.0087
603.00,0.0087
602.00,0.0086
601.00,0.0085
600.00,0.0084
599.00,0.0085
598.00,0.0086
597.00,0.0086
596.00,0.0084
595.00,0.0081
594.00,0.0079
593.00,0.0079
592.00,0.0081
591.00,0.0083
590.00,0.0085
589.00,0.0088
588.00,0.0090
587.00,0.0092
586.00,0.0091
585.00,0.0089
584.00,0.0088
583.00,0.0089
582.00,0.0089
581.00,0.0089
580.00,0.0088
579.00,0.0087
578.00,0.0088
577.00,0.0088
576.00,0.0089
575.00,0.0090
574.00,0.0092
573.00,0.0093
572.00,0.0094
571.00,0.0093
570.00,0.0093
569.00,0.0094
568.00,0.0095
567.00,0.0095
566.00,0.0095
565.00,0.0094
564.00,0.0093
563.00,0.0093
562.00,0.0095
561.00,0.0096
560.00,0.0096
559.00,0.0093
558.00,0.0090
557.00,0.0088
556.00,0.0088
555.00,0.0091
554.00,0.0094
553.00,0.0097
552.00,0.0100
551.00,0.0102
550.00,0.0102
549.00,0.0101
548.00,0.0099
547.00,0.0098
546.00,0.0098
545.00,0.0099
544.00,0.0099
543.00,0.0098
542.00,0.0099
541.00,0.0103
540.00,0.0110
539.00,0.0117
538.00,0.0120
537.00,0.0120
536.00,0.0120
535.00,0.0120
534.00,0.0122
533.00,0.0123
532.00,0.0122
531.00,0.0119
530.00,0.0115
529.00,0.0112
528.00,0.0111
527.00,0.0110
526.00,0.0110
525.00,0.0109
524.00,0.0107
523.00,0.0104
522.00,0.0099
521.00,0.0094
520.00,0.0092
519.00,0.0095
518.00,0.0099
517.00,0.0100
516.00,0.0095
515.00,0.0089
514.00,0.0085
513.00,0.0084
512.00,0.0085
511.00,0.0085
510.00,0.0083
509.00,0.0082
508.00,0.0084
507.00,0.0088
506.00,0.0091
505.00,0.0089
504.00,0.0086
503.00,0.0083
502.00,0.0085
501.00,0.0089
500.00,0.0093
499.00,0.0095
498.00,0.0093
497.00,0.0088
496.00,0.0082
495.00,0.0076
494.00,0.0071
493.00,0.0069
492.00,0.0074
491.00,0.0086
490.00,0.0099
489.00,0.0106
488.00,0.0105
487.00,0.0100
486.00,0.0095
485.00,0.0093
484.00,0.0096
483.00,0.0103
482.00,0.0109
481.00,0.0111
480.00,0.0111
479.00,0.0117
478.00,0.0129
477.00,0.0143
476.00,0.0153
475.00,0.0156
474.00,0.0154
473.00,0.0151
472.00,0.0153
471.00,0.0162
470.00,0.0174
469.00,0.0181
468.00,0.0181
467.00,0.0180
466.00,0.0185
465.00,0.0196
464.00,0.0205
463.00,0.0204
462.00,0.0194
461.00,0.0178
460.00,0.0166
459.00,0.0163
458.00,0.0171
457.00,0.0181
456.00,0.0188
455.00,0.0191
454.00,0.0191
453.00,0.0191
452.00,0.0189
451.00,0.0183
450.00,0.0175
