Created as New Dataset,Sample 184 By Administrator Date Wednesday, September 03 2025
cm-1,A
4000.00,0.0010
3999.00,0.0010
3998.00,0.0010
3997.00,0.0009
3996.00,0.0009
3995.00,0.0009
3994.00,0.0009
3993.00,0.0009
3992.00,0.0009
3991.00,0.0009
3990.00,0.0009
3989.00,0.0009
3988.00,0.0009
3987.00,0.0009
3986.00,0.0009
3985.00,0.0009
3984.00,0.0009
3983.00,0.0008
3982.00,0.0008
3981.00,0.0008
3980.00,0.0008
3979.00,0.0008
3978.00,0.0008
3977.00,0.0008
3976.00,0.0008
3975.00,0.0008
3974.00,0.0008
3973.00,0.0008
3972.00,0.0007
3971.00,0.0007
3970.00,0.0007
3969.00,0.0007
3968.00,0.0007
3967.00,0.0007
3966.00,0.0007
3965.00,0.0007
3964.00,0.0007
3963.00,0.0007
3962.00,0.0007
3961.00,0.0007
3960.00,0.0007
3959.00,0.0007
3958.00,0.0007
3957.00,0.0007
3956.00,0.0007
3955.00,0.0007
3954.00,0.0007
3953.00,0.0007
3952.00,0.0007
3951.00,0.0007
3950.00,0.0007
3949.00,0.0007
3948.00,0.0007
3947.00,0.0007
3946.00,0.0007
3945.00,0.0006
3944.00,0.0006
3943.00,0.0007
3942.00,0.0007
3941.00,0.0007
3940.00,0.0007
3939.00,0.0007
3938.00,0.0007
3937.00,0.0007
3936.00,0.0007
3935.00,0.0007
3934.00,0.0007
3933.00,0.0007
3932.00,0.0008
3931.00,0.0008
3930.00,0.0008
3929.00,0.0007
3928.00,0.0007
3927.00,0.0007
3926.00,0.0007
3925.00,0.0007
3924.00,0.0007
3923.00,0.0007
3922.00,0.0008
3921.00,0.0008
3920.00,0.0008
3919.00,0.0008
3918.00,0.0008
3917.00,0.0008
3916.00,0.0008
3915.00,0.0008
3914.00,0.0007
3913.00,0.0007
3912.00,0.0007
3911.00,0.0007
3910.00,0.0007
3909.00,0.0007
3908.00,0.0007
3907.00,0.0007
3906.00,0.0006
3905.00,0.0005
3904.00,0.0005
3903.00,0.0005
3902.00,0.0005
3901.00,0.0005
3900.00,0.0005
3899.00,0.0005
3898.00,0.0006
3897.00,0.0006
3896.00,0.0006
3895.00,0.0006
3894.00,0.0007
3893.00,0.0007
3892.00,0.0007
3891.00,0.0007
3890.00,0.0007
3889.00,0.0007
3888.00,0.0007
3887.00,0.0007
3886.00,0.0007
3885.00,0.0007
3884.00,0.0007
3883.00,0.0007
3882.00,0.0007
3881.00,0.0007
3880.00,0.0007
3879.00,0.0007
3878.00,0.0006
3877.00,0.0006
3876.00,0.0006
3875.00,0.0006
3874.00,0.0006
3873.00,0.0006
3872.00,0.0006
3871.00,0.0006
3870.00,0.0006
3869.00,0.0006
3868.00,0.0006
3867.00,0.0006
3866.00,0.0006
3865.00,0.0006
3864.00,0.0006
3863.00,0.0006
3862.00,0.0006
3861.00,0.0006
3860.00,0.0006
3859.00,0.0006
3858.00,0.0006
3857.00,0.0006
3856.00,0.0006
3855.00,0.0006
3854.00,0.0006
3853.00,0.0006
3852.00,0.0006
3851.00,0.0006
3850.00,0.0006
3849.00,0.0006
3848.00,0.0006
3847.00,0.0006
3846.00,0.0006
3845.00,0.0006
3844.00,0.0006
3843.00,0.0006
3842.00,0.0006
3841.00,0.0006
3840.00,0.0007
3839.00,0.0007
3838.00,0.0007
3837.00,0.0006
3836.00,0.0006
3835.00,0.0005
3834.00,0.0005
3833.00,0.0005
3832.00,0.0006
3831.00,0.0006
3830.00,0.0006
3829.00,0.0005
3828.00,0.0005
3827.00,0.0005
3826.00,0.0005
3825.00,0.0005
3824.00,0.0006
3823.00,0.0005
3822.00,0.0005
3821.00,0.0006
3820.00,0.0006
3819.00,0.0006
3818.00,0.0006
3817.00,0.0006
3816.00,0.0006
3815.00,0.0006
3814.00,0.0006
3813.00,0.0006
3812.00,0.0006
3811.00,0.0006
3810.00,0.0006
3809.00,0.0006
3808.00,0.0006
3807.00,0.0006
3806.00,0.0006
3805.00,0.0006
3804.00,0.0005
3803.00,0.0005
3802.00,0.0005
3801.00,0.0005
3800.00,0.0005
3799.00,0.0005
3798.00,0.0005
3797.00,0.0005
3796.00,0.0006
3795.00,0.0006
3794.00,0.0006
3793.00,0.0006
3792.00,0.0006
3791.00,0.0007
3790.00,0.0007
3789.00,0.0007
3788.00,0.0007
3787.00,0.0006
3786.00,0.0006
3785.00,0.0006
3784.00,0.0006
3783.00,0.0006
3782.00,0.0006
3781.00,0.0006
3780.00,0.0006
3779.00,0.0006
3778.00,0.0007
3777.00,0.0007
3776.00,0.0007
3775.00,0.0007
3774.00,0.0007
3773.00,0.0007
3772.00,0.0007
3771.00,0.0007
3770.00,0.0007
3769.00,0.0006
3768.00,0.0007
3767.00,0.0007
3766.00,0.0007
3765.00,0.0007
3764.00,0.0007
3763.00,0.0007
3762.00,0.0007
3761.00,0.0007
3760.00,0.0007
3759.00,0.0006
3758.00,0.0006
3757.00,0.0006
3756.00,0.0006
3755.00,0.0007
3754.00,0.0008
3753.00,0.0008
3752.00,0.0008
3751.00,0.0007
3750.00,0.0006
3749.00,0.0005
3748.00,0.0004
3747.00,0.0004
3746.00,0.0004
3745.00,0.0005
3744.00,0.0005
3743.00,0.0005
3742.00,0.0005
3741.00,0.0005
3740.00,0.0004
3739.00,0.0004
3738.00,0.0004
3737.00,0.0003
3736.00,0.0004
3735.00,0.0004
3734.00,0.0004
3733.00,0.0004
3732.00,0.0004
3731.00,0.0004
3730.00,0.0003
3729.00,0.0003
3728.00,0.0003
3727.00,0.0003
3726.00,0.0004
3725.00,0.0004
3724.00,0.0004
3723.00,0.0004
3722.00,0.0004
3721.00,0.0004
3720.00,0.0004
3719.00,0.0004
3718.00,0.0004
3717.00,0.0004
3716.00,0.0005
3715.00,0.0005
3714.00,0.0004
3713.00,0.0004
3712.00,0.0003
3711.00,0.0003
3710.00,0.0002
3709.00,0.0002
3708.00,0.0003
3707.00,0.0004
3706.00,0.0004
3705.00,0.0005
3704.00,0.0004
3703.00,0.0004
3702.00,0.0004
3701.00,0.0003
3700.00,0.0004
3699.00,0.0004
3698.00,0.0004
3697.00,0.0004
3696.00,0.0004
3695.00,0.0004
3694.00,0.0004
3693.00,0.0004
3692.00,0.0004
3691.00,0.0004
3690.00,0.0005
3689.00,0.0005
3688.00,0.0006
3687.00,0.0006
3686.00,0.0005
3685.00,0.0005
3684.00,0.0005
3683.00,0.0005
3682.00,0.0005
3681.00,0.0005
3680.00,0.0005
3679.00,0.0005
3678.00,0.0004
3677.00,0.0004
3676.00,0.0003
3675.00,0.0003
3674.00,0.0004
3673.00,0.0004
3672.00,0.0004
3671.00,0.0005
3670.00,0.0005
3669.00,0.0004
3668.00,0.0004
3667.00,0.0005
3666.00,0.0005
3665.00,0.0005
3664.00,0.0005
3663.00,0.0005
3662.00,0.0004
3661.00,0.0004
3660.00,0.0004
3659.00,0.0004
3658.00,0.0003
3657.00,0.0003
3656.00,0.0003
3655.00,0.0004
3654.00,0.0004
3653.00,0.0004
3652.00,0.0003
3651.00,0.0003
3650.00,0.0002
3649.00,0.0002
3648.00,0.0002
3647.00,0.0002
3646.00,0.0002
3645.00,0.0003
3644.00,0.0003
3643.00,0.0003
3642.00,0.0003
3641.00,0.0003
3640.00,0.0003
3639.00,0.0003
3638.00,0.0003
3637.00,0.0003
3636.00,0.0003
3635.00,0.0003
3634.00,0.0003
3633.00,0.0003
3632.00,0.0004
3631.00,0.0004
3630.00,0.0004
3629.00,0.0004
3628.00,0.0004
3627.00,0.0004
3626.00,0.0004
3625.00,0.0004
3624.00,0.0004
3623.00,0.0004
3622.00,0.0004
3621.00,0.0004
3620.00,0.0004
3619.00,0.0004
3618.00,0.0004
3617.00,0.0004
3616.00,0.0004
3615.00,0.0004
3614.00,0.0005
3613.00,0.0005
3612.00,0.0006
3611.00,0.0006
3610.00,0.0006
3609.00,0.0006
3608.00,0.0006
3607.00,0.0006
3606.00,0.0006
3605.00,0.0006
3604.00,0.0006
3603.00,0.0006
3602.00,0.0006
3601.00,0.0005
3600.00,0.0005
3599.00,0.0005
3598.00,0.0005
3597.00,0.0005
3596.00,0.0006
3595.00,0.0006
3594.00,0.0006
3593.00,0.0006
3592.00,0.0007
3591.00,0.0006
3590.00,0.0006
3589.00,0.0005
3588.00,0.0005
3587.00,0.0005
3586.00,0.0005
3585.00,0.0006
3584.00,0.0006
3583.00,0.0006
3582.00,0.0006
3581.00,0.0007
3580.00,0.0007
3579.00,0.0008
3578.00,0.0008
3577.00,0.0008
3576.00,0.0009
3575.00,0.0008
3574.00,0.0008
3573.00,0.0008
3572.00,0.0008
3571.00,0.0008
3570.00,0.0008
3569.00,0.0008
3568.00,0.0007
3567.00,0.0007
3566.00,0.0007
3565.00,0.0007
3564.00,0.0008
3563.00,0.0008
3562.00,0.0009
3561.00,0.0010
3560.00,0.0010
3559.00,0.0010
3558.00,0.0010
3557.00,0.0010
3556.00,0.0010
3555.00,0.0010
3554.00,0.0010
3553.00,0.0010
3552.00,0.0010
3551.00,0.0011
3550.00,0.0011
3549.00,0.0011
3548.00,0.0011
3547.00,0.0011
3546.00,0.0012
3545.00,0.0012
3544.00,0.0012
3543.00,0.0012
3542.00,0.0012
3541.00,0.0013
3540.00,0.0013
3539.00,0.0013
3538.00,0.0013
3537.00,0.0013
3536.00,0.0013
3535.00,0.0013
3534.00,0.0013
3533.00,0.0013
3532.00,0.0013
3531.00,0.0014
3530.00,0.0014
3529.00,0.0014
3528.00,0.0015
3527.00,0.0015
3526.00,0.0015
3525.00,0.0015
3524.00,0.0015
3523.00,0.0015
3522.00,0.0015
3521.00,0.0015
3520.00,0.0016
3519.00,0.0016
3518.00,0.0017
3517.00,0.0017
3516.00,0.0017
3515.00,0.0017
3514.00,0.0017
3513.00,0.0017
3512.00,0.0017
3511.00,0.0017
3510.00,0.0017
3509.00,0.0017
3508.00,0.0017
3507.00,0.0017
3506.00,0.0017
3505.00,0.0018
3504.00,0.0018
3503.00,0.0018
3502.00,0.0018
3501.00,0.0019
3500.00,0.0019
3499.00,0.0019
3498.00,0.0019
3497.00,0.0020
3496.00,0.0020
3495.00,0.0019
3494.00,0.0019
3493.00,0.0019
3492.00,0.0019
3491.00,0.0019
3490.00,0.0019
3489.00,0.0019
3488.00,0.0020
3487.00,0.0020
3486.00,0.0020
3485.00,0.0020
3484.00,0.0020
3483.00,0.0020
3482.00,0.0021
3481.00,0.0021
3480.00,0.0021
3479.00,0.0021
3478.00,0.0021
3477.00,0.0021
3476.00,0.0022
3475.00,0.0022
3474.00,0.0022
3473.00,0.0022
3472.00,0.0023
3471.00,0.0023
3470.00,0.0023
3469.00,0.0023
3468.00,0.0023
3467.00,0.0023
3466.00,0.0023
3465.00,0.0023
3464.00,0.0023
3463.00,0.0023
3462.00,0.0024
3461.00,0.0024
3460.00,0.0024
3459.00,0.0025
3458.00,0.0025
3457.00,0.0025
3456.00,0.0025
3455.00,0.0026
3454.00,0.0026
3453.00,0.0026
3452.00,0.0026
3451.00,0.0026
3450.00,0.0026
3449.00,0.0026
3448.00,0.0026
3447.00,0.0026
3446.00,0.0026
3445.00,0.0026
3444.00,0.0026
3443.00,0.0027
3442.00,0.0027
3441.00,0.0028
3440.00,0.0028
3439.00,0.0028
3438.00,0.0028
3437.00,0.0028
3436.00,0.0028
3435.00,0.0028
3434.00,0.0028
3433.00,0.0028
3432.00,0.0028
3431.00,0.0028
3430.00,0.0028
3429.00,0.0028
3428.00,0.0028
3427.00,0.0029
3426.00,0.0029
3425.00,0.0029
3424.00,0.0029
3423.00,0.0030
3422.00,0.0030
3421.00,0.0030
3420.00,0.0030
3419.00,0.0030
3418.00,0.0030
3417.00,0.0030
3416.00,0.0030
3415.00,0.0030
3414.00,0.0031
3413.00,0.0031
3412.00,0.0031
3411.00,0.0031
3410.00,0.0032
3409.00,0.0032
3408.00,0.0032
3407.00,0.0032
3406.00,0.0032
3405.00,0.0032
3404.00,0.0032
3403.00,0.0032
3402.00,0.0032
3401.00,0.0032
3400.00,0.0032
3399.00,0.0033
3398.00,0.0033
3397.00,0.0033
3396.00,0.0033
3395.00,0.0034
3394.00,0.0034
3393.00,0.0033
3392.00,0.0033
3391.00,0.0032
3390.00,0.0032
3389.00,0.0032
3388.00,0.0032
3387.00,0.0032
3386.00,0.0031
3385.00,0.0031
3384.00,0.0031
3383.00,0.0031
3382.00,0.0031
3381.00,0.0032
3380.00,0.0032
3379.00,0.0032
3378.00,0.0032
3377.00,0.0032
3376.00,0.0032
3375.00,0.0031
3374.00,0.0031
3373.00,0.0031
3372.00,0.0031
3371.00,0.0031
3370.00,0.0031
3369.00,0.0031
3368.00,0.0031
3367.00,0.0031
3366.00,0.0031
3365.00,0.0031
3364.00,0.0031
3363.00,0.0031
3362.00,0.0031
3361.00,0.0031
3360.00,0.0031
3359.00,0.0031
3358.00,0.0031
3357.00,0.0031
3356.00,0.0031
3355.00,0.0032
3354.00,0.0032
3353.00,0.0032
3352.00,0.0031
3351.00,0.0031
3350.00,0.0031
3349.00,0.0031
3348.00,0.0031
3347.00,0.0031
3346.00,0.0031
3345.00,0.0031
3344.00,0.0031
3343.00,0.0031
3342.00,0.0031
3341.00,0.0031
3340.00,0.0031
3339.00,0.0031
3338.00,0.0030
3337.00,0.0030
3336.00,0.0030
3335.00,0.0030
3334.00,0.0030
3333.00,0.0030
3332.00,0.0030
3331.00,0.0030
3330.00,0.0030
3329.00,0.0030
3328.00,0.0030
3327.00,0.0030
3326.00,0.0030
3325.00,0.0030
3324.00,0.0030
3323.00,0.0030
3322.00,0.0029
3321.00,0.0029
3320.00,0.0029
3319.00,0.0029
3318.00,0.0029
3317.00,0.0029
3316.00,0.0029
3315.00,0.0029
3314.00,0.0029
3313.00,0.0029
3312.00,0.0029
3311.00,0.0029
3310.00,0.0029
3309.00,0.0029
3308.00,0.0029
3307.00,0.0029
3306.00,0.0029
3305.00,0.0029
3304.00,0.0030
3303.00,0.0030
3302.00,0.0030
3301.00,0.0030
3300.00,0.0030
3299.00,0.0029
3298.00,0.0029
3297.00,0.0029
3296.00,0.0028
3295.00,0.0028
3294.00,0.0028
3293.00,0.0028
3292.00,0.0027
3291.00,0.0027
3290.00,0.0027
3289.00,0.0027
3288.00,0.0028
3287.00,0.0028
3286.00,0.0028
3285.00,0.0028
3284.00,0.0028
3283.00,0.0028
3282.00,0.0028
3281.00,0.0028
3280.00,0.0027
3279.00,0.0027
3278.00,0.0027
3277.00,0.0026
3276.00,0.0026
3275.00,0.0026
3274.00,0.0026
3273.00,0.0027
3272.00,0.0027
3271.00,0.0027
3270.00,0.0027
3269.00,0.0027
3268.00,0.0026
3267.00,0.0026
3266.00,0.0025
3265.00,0.0025
3264.00,0.0025
3263.00,0.0025
3262.00,0.0025
3261.00,0.0025
3260.00,0.0026
3259.00,0.0025
3258.00,0.0025
3257.00,0.0025
3256.00,0.0025
3255.00,0.0025
3254.00,0.0025
3253.00,0.0025
3252.00,0.0025
3251.00,0.0025
3250.00,0.0024
3249.00,0.0024
3248.00,0.0024
3247.00,0.0024
3246.00,0.0024
3245.00,0.0024
3244.00,0.0024
3243.00,0.0024
3242.00,0.0024
3241.00,0.0024
3240.00,0.0024
3239.00,0.0024
3238.00,0.0024
3237.00,0.0024
3236.00,0.0024
3235.00,0.0024
3234.00,0.0024
3233.00,0.0025
3232.00,0.0025
3231.00,0.0025
3230.00,0.0025
3229.00,0.0025
3228.00,0.0025
3227.00,0.0025
3226.00,0.0025
3225.00,0.0026
3224.00,0.0026
3223.00,0.0026
3222.00,0.0027
3221.00,0.0027
3220.00,0.0027
3219.00,0.0028
3218.00,0.0028
3217.00,0.0028
3216.00,0.0028
3215.00,0.0028
3214.00,0.0028
3213.00,0.0028
3212.00,0.0028
3211.00,0.0028
3210.00,0.0029
3209.00,0.0029
3208.00,0.0029
3207.00,0.0029
3206.00,0.0030
3205.00,0.0030
3204.00,0.0030
3203.00,0.0030
3202.00,0.0030
3201.00,0.0031
3200.00,0.0031
3199.00,0.0030
3198.00,0.0030
3197.00,0.0030
3196.00,0.0030
3195.00,0.0031
3194.00,0.0031
3193.00,0.0031
3192.00,0.0031
3191.00,0.0031
3190.00,0.0031
3189.00,0.0031
3188.00,0.0031
3187.00,0.0031
3186.00,0.0031
3185.00,0.0031
3184.00,0.0031
3183.00,0.0030
3182.00,0.0030
3181.00,0.0030
3180.00,0.0030
3179.00,0.0030
3178.00,0.0029
3177.00,0.0029
3176.00,0.0029
3175.00,0.0029
3174.00,0.0028
3173.00,0.0028
3172.00,0.0028
3171.00,0.0028
3170.00,0.0028
3169.00,0.0028
3168.00,0.0028
3167.00,0.0028
3166.00,0.0028
3165.00,0.0028
3164.00,0.0028
3163.00,0.0027
3162.00,0.0027
3161.00,0.0027
3160.00,0.0027
3159.00,0.0026
3158.00,0.0026
3157.00,0.0026
3156.00,0.0026
3155.00,0.0026
3154.00,0.0026
3153.00,0.0026
3152.00,0.0026
3151.00,0.0027
3150.00,0.0027
3149.00,0.0027
3148.00,0.0027
3147.00,0.0027
3146.00,0.0027
3145.00,0.0027
3144.00,0.0027
3143.00,0.0027
3142.00,0.0027
3141.00,0.0027
3140.00,0.0026
3139.00,0.0026
3138.00,0.0026
3137.00,0.0026
3136.00,0.0026
3135.00,0.0026
3134.00,0.0026
3133.00,0.0025
3132.00,0.0025
3131.00,0.0025
3130.00,0.0025
3129.00,0.0025
3128.00,0.0024
3127.00,0.0024
3126.00,0.0024
3125.00,0.0024
3124.00,0.0024
3123.00,0.0024
3122.00,0.0024
3121.00,0.0024
3120.00,0.0024
3119.00,0.0024
3118.00,0.0023
3117.00,0.0023
3116.00,0.0023
3115.00,0.0023
3114.00,0.0023
3113.00,0.0023
3112.00,0.0023
3111.00,0.0023
3110.00,0.0022
3109.00,0.0022
3108.00,0.0022
3107.00,0.0021
3106.00,0.0021
3105.00,0.0021
3104.00,0.0021
3103.00,0.0021
3102.00,0.0021
3101.00,0.0021
3100.00,0.0021
3099.00,0.0021
3098.00,0.0022
3097.00,0.0022
3096.00,0.0022
3095.00,0.0022
3094.00,0.0022
3093.00,0.0022
3092.00,0.0022
3091.00,0.0022
3090.00,0.0022
3089.00,0.0022
3088.00,0.0022
3087.00,0.0021
3086.00,0.0021
3085.00,0.0021
3084.00,0.0021
3083.00,0.0021
3082.00,0.0021
3081.00,0.0021
3080.00,0.0021
3079.00,0.0021
3078.00,0.0021
3077.00,0.0021
3076.00,0.0022
3075.00,0.0022
3074.00,0.0022
3073.00,0.0022
3072.00,0.0023
3071.00,0.0023
3070.00,0.0023
3069.00,0.0024
3068.00,0.0024
3067.00,0.0024
3066.00,0.0024
3065.00,0.0024
3064.00,0.0024
3063.00,0.0025
3062.00,0.0025
3061.00,0.0025
3060.00,0.0024
3059.00,0.0025
3058.00,0.0025
3057.00,0.0025
3056.00,0.0026
3055.00,0.0026
3054.00,0.0026
3053.00,0.0026
3052.00,0.0026
3051.00,0.0026
3050.00,0.0026
3049.00,0.0026
3048.00,0.0027
3047.00,0.0027
3046.00,0.0027
3045.00,0.0027
3044.00,0.0028
3043.00,0.0028
3042.00,0.0029
3041.00,0.0029
3040.00,0.0029
3039.00,0.0030
3038.00,0.0030
3037.00,0.0030
3036.00,0.0030
3035.00,0.0030
3034.00,0.0030
3033.00,0.0030
3032.00,0.0031
3031.00,0.0031
3030.00,0.0032
3029.00,0.0033
3028.00,0.0034
3027.00,0.0034
3026.00,0.0035
3025.00,0.0036
3024.00,0.0036
3023.00,0.0037
3022.00,0.0038
3021.00,0.0038
3020.00,0.0039
3019.00,0.0039
3018.00,0.0040
3017.00,0.0041
3016.00,0.0043
3015.00,0.0044
3014.00,0.0046
3013.00,0.0047
3012.00,0.0048
3011.00,0.0049
3010.00,0.0050
3009.00,0.0052
3008.00,0.0053
3007.00,0.0054
3006.00,0.0056
3005.00,0.0057
3004.00,0.0059
3003.00,0.0061
3002.00,0.0063
3001.00,0.0066
3000.00,0.0068
2999.00,0.0071
2998.00,0.0074
2997.00,0.0077
2996.00,0.0081
2995.00,0.0085
2994.00,0.0090
2993.00,0.0094
2992.00,0.0099
2991.00,0.0105
2990.00,0.0111
2989.00,0.0117
2988.00,0.0125
2987.00,0.0134
2986.00,0.0144
2985.00,0.0154
2984.00,0.0166
2983.00,0.0180
2982.00,0.0195
2981.00,0.0212
2980.00,0.0232
2979.00,0.0254
2978.00,0.0279
2977.00,0.0308
2976.00,0.0341
2975.00,0.0379
2974.00,0.0422
2973.00,0.0472
2972.00,0.0528
2971.00,0.0591
2970.00,0.0661
2969.00,0.0738
2968.00,0.0822
2967.00,0.0913
2966.00,0.1008
2965.00,0.1105
2964.00,0.1200
2963.00,0.1289
2962.00,0.1367
2961.00,0.1432
2960.00,0.1483
2959.00,0.1523
2958.00,0.1557
2957.00,0.1593
2956.00,0.1636
2955.00,0.1690
2954.00,0.1753
2953.00,0.1818
2952.00,0.1876
2951.00,0.1915
2950.00,0.1923
2949.00,0.1892
2948.00,0.1823
2947.00,0.1721
2946.00,0.1598
2945.00,0.1468
2944.00,0.1345
2943.00,0.1239
2942.00,0.1157
2941.00,0.1101
2940.00,0.1069
2939.00,0.1059
2938.00,0.1069
2937.00,0.1098
2936.00,0.1142
2935.00,0.1203
2934.00,0.1277
2933.00,0.1364
2932.00,0.1462
2931.00,0.1569
2930.00,0.1682
2929.00,0.1798
2928.00,0.1915
2927.00,0.2030
2926.00,0.2141
2925.00,0.2247
2924.00,0.2351
2923.00,0.2453
2922.00,0.2552
2921.00,0.2647
2920.00,0.2730
2919.00,0.2792
2918.00,0.2822
2917.00,0.2813
2916.00,0.2764
2915.00,0.2682
2914.00,0.2579
2913.00,0.2467
2912.00,0.2358
2911.00,0.2258
2910.00,0.2170
2909.00,0.2091
2908.00,0.2020
2907.00,0.1953
2906.00,0.1885
2905.00,0.1817
2904.00,0.1747
2903.00,0.1677
2902.00,0.1608
2901.00,0.1540
2900.00,0.1475
2899.00,0.1412
2898.00,0.1353
2897.00,0.1299
2896.00,0.1250
2895.00,0.1208
2894.00,0.1172
2893.00,0.1142
2892.00,0.1118
2891.00,0.1100
2890.00,0.1088
2889.00,0.1079
2888.00,0.1075
2887.00,0.1075
2886.00,0.1077
2885.00,0.1084
2884.00,0.1094
2883.00,0.1109
2882.00,0.1128
2881.00,0.1150
2880.00,0.1172
2879.00,0.1190
2878.00,0.1200
2877.00,0.1203
2876.00,0.1198
2875.00,0.1190
2874.00,0.1184
2873.00,0.1184
2872.00,0.1190
2871.00,0.1204
2870.00,0.1223
2869.00,0.1240
2868.00,0.1250
2867.00,0.1245
2866.00,0.1219
2865.00,0.1170
2864.00,0.1103
2863.00,0.1026
2862.00,0.0951
2861.00,0.0885
2860.00,0.0834
2859.00,0.0799
2858.00,0.0780
2857.00,0.0773
2856.00,0.0777
2855.00,0.0789
2854.00,0.0807
2853.00,0.0828
2852.00,0.0850
2851.00,0.0870
2850.00,0.0886
2849.00,0.0899
2848.00,0.0910
2847.00,0.0924
2846.00,0.0947
2845.00,0.0981
2844.00,0.1025
2843.00,0.1078
2842.00,0.1134
2841.00,0.1187
2840.00,0.1228
2839.00,0.1249
2838.00,0.1244
2837.00,0.1208
2836.00,0.1141
2835.00,0.1050
2834.00,0.0944
2833.00,0.0834
2832.00,0.0729
2831.00,0.0636
2830.00,0.0558
2829.00,0.0494
2828.00,0.0442
2827.00,0.0399
2826.00,0.0365
2825.00,0.0336
2824.00,0.0312
2823.00,0.0292
2822.00,0.0275
2821.00,0.0260
2820.00,0.0247
2819.00,0.0236
2818.00,0.0226
2817.00,0.0217
2816.00,0.0209
2815.00,0.0202
2814.00,0.0196
2813.00,0.0190
2812.00,0.0184
2811.00,0.0178
2810.00,0.0173
2809.00,0.0167
2808.00,0.0162
2807.00,0.0156
2806.00,0.0149
2805.00,0.0143
2804.00,0.0137
2803.00,0.0131
2802.00,0.0125
2801.00,0.0120
2800.00,0.0117
2799.00,0.0113
2798.00,0.0111
2797.00,0.0108
2796.00,0.0106
2795.00,0.0104
2794.00,0.0101
2793.00,0.0098
2792.00,0.0095
2791.00,0.0092
2790.00,0.0089
2789.00,0.0086
2788.00,0.0082
2787.00,0.0079
2786.00,0.0077
2785.00,0.0074
2784.00,0.0072
2783.00,0.0070
2782.00,0.0068
2781.00,0.0066
2780.00,0.0064
2779.00,0.0063
2778.00,0.0061
2777.00,0.0060
2776.00,0.0059
2775.00,0.0058
2774.00,0.0057
2773.00,0.0056
2772.00,0.0056
2771.00,0.0055
2770.00,0.0054
2769.00,0.0054
2768.00,0.0053
2767.00,0.0053
2766.00,0.0053
2765.00,0.0053
2764.00,0.0052
2763.00,0.0052
2762.00,0.0051
2761.00,0.0051
2760.00,0.0051
2759.00,0.0050
2758.00,0.0050
2757.00,0.0050
2756.00,0.0050
2755.00,0.0050
2754.00,0.0050
2753.00,0.0050
2752.00,0.0049
2751.00,0.0049
2750.00,0.0049
2749.00,0.0049
2748.00,0.0049
2747.00,0.0050
2746.00,0.0050
2745.00,0.0050
2744.00,0.0051
2743.00,0.0052
2742.00,0.0053
2741.00,0.0054
2740.00,0.0055
2739.00,0.0056
2738.00,0.0058
2737.00,0.0059
2736.00,0.0061
2735.00,0.0062
2734.00,0.0064
2733.00,0.0065
2732.00,0.0067
2731.00,0.0069
2730.00,0.0071
2729.00,0.0073
2728.00,0.0076
2727.00,0.0079
2726.00,0.0082
2725.00,0.0084
2724.00,0.0085
2723.00,0.0085
2722.00,0.0084
2721.00,0.0083
2720.00,0.0081
2719.00,0.0078
2718.00,0.0075
2717.00,0.0071
2716.00,0.0068
2715.00,0.0065
2714.00,0.0063
2713.00,0.0061
2712.00,0.0059
2711.00,0.0057
2710.00,0.0055
2709.00,0.0054
2708.00,0.0052
2707.00,0.0051
2706.00,0.0049
2705.00,0.0048
2704.00,0.0047
2703.00,0.0047
2702.00,0.0046
2701.00,0.0045
2700.00,0.0044
2699.00,0.0044
2698.00,0.0044
2697.00,0.0043
2696.00,0.0043
2695.00,0.0043
2694.00,0.0043
2693.00,0.0043
2692.00,0.0043
2691.00,0.0043
2690.00,0.0043
2689.00,0.0043
2688.00,0.0043
2687.00,0.0043
2686.00,0.0043
2685.00,0.0043
2684.00,0.0043
2683.00,0.0043
2682.00,0.0043
2681.00,0.0043
2680.00,0.0043
2679.00,0.0043
2678.00,0.0044
2677.00,0.0044
2676.00,0.0044
2675.00,0.0043
2674.00,0.0043
2673.00,0.0043
2672.00,0.0043
2671.00,0.0043
2670.00,0.0042
2669.00,0.0042
2668.00,0.0042
2667.00,0.0042
2666.00,0.0043
2665.00,0.0044
2664.00,0.0045
2663.00,0.0045
2662.00,0.0046
2661.00,0.0046
2660.00,0.0046
2659.00,0.0046
2658.00,0.0046
2657.00,0.0046
2656.00,0.0046
2655.00,0.0045
2654.00,0.0044
2653.00,0.0044
2652.00,0.0043
2651.00,0.0043
2650.00,0.0043
2649.00,0.0042
2648.00,0.0042
2647.00,0.0042
2646.00,0.0041
2645.00,0.0041
2644.00,0.0040
2643.00,0.0040
2642.00,0.0039
2641.00,0.0039
2640.00,0.0038
2639.00,0.0038
2638.00,0.0038
2637.00,0.0038
2636.00,0.0038
2635.00,0.0038
2634.00,0.0037
2633.00,0.0037
2632.00,0.0037
2631.00,0.0037
2630.00,0.0037
2629.00,0.0037
2628.00,0.0038
2627.00,0.0038
2626.00,0.0038
2625.00,0.0038
2624.00,0.0038
2623.00,0.0038
2622.00,0.0038
2621.00,0.0038
2620.00,0.0039
2619.00,0.0039
2618.00,0.0039
2617.00,0.0039
2616.00,0.0039
2615.00,0.0038
2614.00,0.0038
2613.00,0.0038
2612.00,0.0037
2611.00,0.0036
2610.00,0.0035
2609.00,0.0035
2608.00,0.0034
2607.00,0.0033
2606.00,0.0033
2605.00,0.0032
2604.00,0.0031
2603.00,0.0030
2602.00,0.0030
2601.00,0.0030
2600.00,0.0030
2599.00,0.0030
2598.00,0.0030
2597.00,0.0030
2596.00,0.0030
2595.00,0.0030
2594.00,0.0030
2593.00,0.0031
2592.00,0.0031
2591.00,0.0032
2590.00,0.0032
2589.00,0.0032
2588.00,0.0033
2587.00,0.0034
2586.00,0.0035
2585.00,0.0036
2584.00,0.0036
2583.00,0.0036
2582.00,0.0036
2581.00,0.0036
2580.00,0.0036
2579.00,0.0036
2578.00,0.0036
2577.00,0.0035
2576.00,0.0033
2575.00,0.0032
2574.00,0.0030
2573.00,0.0029
2572.00,0.0028
2571.00,0.0027
2570.00,0.0027
2569.00,0.0026
2568.00,0.0026
2567.00,0.0025
2566.00,0.0025
2565.00,0.0024
2564.00,0.0023
2563.00,0.0023
2562.00,0.0022
2561.00,0.0023
2560.00,0.0023
2559.00,0.0024
2558.00,0.0024
2557.00,0.0023
2556.00,0.0023
2555.00,0.0022
2554.00,0.0021
2553.00,0.0020
2552.00,0.0019
2551.00,0.0019
2550.00,0.0018
2549.00,0.0018
2548.00,0.0018
2547.00,0.0018
2546.00,0.0018
2545.00,0.0018
2544.00,0.0018
2543.00,0.0018
2542.00,0.0018
2541.00,0.0017
2540.00,0.0017
2539.00,0.0016
2538.00,0.0016
2537.00,0.0016
2536.00,0.0015
2535.00,0.0015
2534.00,0.0014
2533.00,0.0014
2532.00,0.0013
2531.00,0.0014
2530.00,0.0014
2529.00,0.0014
2528.00,0.0015
2527.00,0.0014
2526.00,0.0014
2525.00,0.0014
2524.00,0.0013
2523.00,0.0012
2522.00,0.0011
2521.00,0.0010
2520.00,0.0009
2519.00,0.0009
2518.00,0.0010
2517.00,0.0010
2516.00,0.0010
2515.00,0.0010
2514.00,0.0010
2513.00,0.0010
2512.00,0.0010
2511.00,0.0010
2510.00,0.0009
2509.00,0.0009
2508.00,0.0009
2507.00,0.0009
2506.00,0.0009
2505.00,0.0009
2504.00,0.0009
2503.00,0.0009
2502.00,0.0009
2501.00,0.0010
2500.00,0.0010
2499.00,0.0010
2498.00,0.0010
2497.00,0.0010
2496.00,0.0010
2495.00,0.0010
2494.00,0.0010
2493.00,0.0010
2492.00,0.0010
2491.00,0.0010
2490.00,0.0010
2489.00,0.0009
2488.00,0.0009
2487.00,0.0009
2486.00,0.0009
2485.00,0.0009
2484.00,0.0008
2483.00,0.0008
2482.00,0.0009
2481.00,0.0009
2480.00,0.0009
2479.00,0.0009
2478.00,0.0008
2477.00,0.0008
2476.00,0.0007
2475.00,0.0008
2474.00,0.0008
2473.00,0.0008
2472.00,0.0008
2471.00,0.0007
2470.00,0.0007
2469.00,0.0007
2468.00,0.0007
2467.00,0.0008
2466.00,0.0008
2465.00,0.0008
2464.00,0.0009
2463.00,0.0009
2462.00,0.0009
2461.00,0.0009
2460.00,0.0010
2459.00,0.0010
2458.00,0.0011
2457.00,0.0011
2456.00,0.0010
2455.00,0.0010
2454.00,0.0011
2453.00,0.0011
2452.00,0.0011
2451.00,0.0011
2450.00,0.0011
2449.00,0.0011
2448.00,0.0010
2447.00,0.0010
2446.00,0.0010
2445.00,0.0010
2444.00,0.0010
2443.00,0.0011
2442.00,0.0011
2441.00,0.0010
2440.00,0.0010
2439.00,0.0009
2438.00,0.0009
2437.00,0.0009
2436.00,0.0010
2435.00,0.0010
2434.00,0.0010
2433.00,0.0010
2432.00,0.0011
2431.00,0.0012
2430.00,0.0012
2429.00,0.0013
2428.00,0.0013
2427.00,0.0012
2426.00,0.0011
2425.00,0.0010
2424.00,0.0010
2423.00,0.0010
2422.00,0.0010
2421.00,0.0010
2420.00,0.0009
2419.00,0.0008
2418.00,0.0008
2417.00,0.0007
2416.00,0.0007
2415.00,0.0007
2414.00,0.0007
2413.00,0.0008
2412.00,0.0008
2411.00,0.0008
2410.00,0.0009
2409.00,0.0009
2408.00,0.0009
2407.00,0.0008
2406.00,0.0008
2405.00,0.0007
2404.00,0.0007
2403.00,0.0007
2402.00,0.0007
2401.00,0.0007
2400.00,0.0007
2399.00,0.0007
2398.00,0.0007
2397.00,0.0007
2396.00,0.0007
2395.00,0.0007
2394.00,0.0007
2393.00,0.0007
2392.00,0.0007
2391.00,0.0007
2390.00,0.0006
2389.00,0.0006
2388.00,0.0006
2387.00,0.0006
2386.00,0.0005
2385.00,0.0005
2384.00,0.0005
2383.00,0.0004
2382.00,0.0003
2381.00,0.0003
2380.00,0.0002
2379.00,0.0002
2378.00,0.0002
2377.00,0.0003
2376.00,0.0003
2375.00,0.0003
2374.00,0.0003
2373.00,0.0003
2372.00,0.0002
2371.00,0.0001
2370.00,0.0000
2369.00,-0.0001
2368.00,-0.0001
2367.00,-0.0001
2366.00,-0.0001
2365.00,-0.0001
2364.00,-0.0000
2363.00,0.0001
2362.00,0.0002
2361.00,0.0003
2360.00,0.0003
2359.00,0.0002
2358.00,0.0002
2357.00,0.0002
2356.00,0.0003
2355.00,0.0003
2354.00,0.0003
2353.00,0.0003
2352.00,0.0003
2351.00,0.0003
2350.00,0.0003
2349.00,0.0003
2348.00,0.0003
2347.00,0.0003
2346.00,0.0003
2345.00,0.0004
2344.00,0.0005
2343.00,0.0005
2342.00,0.0006
2341.00,0.0006
2340.00,0.0007
2339.00,0.0007
2338.00,0.0007
2337.00,0.0007
2336.00,0.0007
2335.00,0.0007
2334.00,0.0007
2333.00,0.0007
2332.00,0.0007
2331.00,0.0006
2330.00,0.0006
2329.00,0.0006
2328.00,0.0008
2327.00,0.0012
2326.00,0.0016
2325.00,0.0020
2324.00,0.0022
2323.00,0.0021
2322.00,0.0019
2321.00,0.0016
2320.00,0.0014
2319.00,0.0013
2318.00,0.0013
2317.00,0.0013
2316.00,0.0012
2315.00,0.0011
2314.00,0.0010
2313.00,0.0009
2312.00,0.0009
2311.00,0.0008
2310.00,0.0007
2309.00,0.0007
2308.00,0.0007
2307.00,0.0007
2306.00,0.0007
2305.00,0.0007
2304.00,0.0008
2303.00,0.0008
2302.00,0.0009
2301.00,0.0009
2300.00,0.0008
2299.00,0.0008
2298.00,0.0008
2297.00,0.0009
2296.00,0.0010
2295.00,0.0012
2294.00,0.0012
2293.00,0.0013
2292.00,0.0014
2291.00,0.0015
2290.00,0.0015
2289.00,0.0016
2288.00,0.0017
2287.00,0.0018
2286.00,0.0018
2285.00,0.0018
2284.00,0.0017
2283.00,0.0016
2282.00,0.0015
2281.00,0.0014
2280.00,0.0013
2279.00,0.0012
2278.00,0.0011
2277.00,0.0012
2276.00,0.0013
2275.00,0.0013
2274.00,0.0014
2273.00,0.0013
2272.00,0.0013
2271.00,0.0012
2270.00,0.0011
2269.00,0.0011
2268.00,0.0010
2267.00,0.0010
2266.00,0.0009
2265.00,0.0008
2264.00,0.0008
2263.00,0.0009
2262.00,0.0010
2261.00,0.0011
2260.00,0.0012
2259.00,0.0012
2258.00,0.0012
2257.00,0.0012
2256.00,0.0011
2255.00,0.0011
2254.00,0.0010
2253.00,0.0010
2252.00,0.0009
2251.00,0.0009
2250.00,0.0008
2249.00,0.0008
2248.00,0.0008
2247.00,0.0009
2246.00,0.0009
2245.00,0.0010
2244.00,0.0010
2243.00,0.0010
2242.00,0.0009
2241.00,0.0008
2240.00,0.0007
2239.00,0.0007
2238.00,0.0006
2237.00,0.0006
2236.00,0.0005
2235.00,0.0006
2234.00,0.0007
2233.00,0.0009
2232.00,0.0010
2231.00,0.0011
2230.00,0.0010
2229.00,0.0009
2228.00,0.0007
2227.00,0.0005
2226.00,0.0004
2225.00,0.0004
2224.00,0.0004
2223.00,0.0005
2222.00,0.0005
2221.00,0.0006
2220.00,0.0006
2219.00,0.0007
2218.00,0.0006
2217.00,0.0006
2216.00,0.0006
2215.00,0.0006
2214.00,0.0008
2213.00,0.0009
2212.00,0.0011
2211.00,0.0011
2210.00,0.0009
2209.00,0.0007
2208.00,0.0006
2207.00,0.0005
2206.00,0.0004
2205.00,0.0003
2204.00,0.0002
2203.00,-0.0000
2202.00,-0.0001
2201.00,-0.0000
2200.00,0.0001
2199.00,0.0003
2198.00,0.0005
2197.00,0.0007
2196.00,0.0009
2195.00,0.0010
2194.00,0.0010
2193.00,0.0010
2192.00,0.0008
2191.00,0.0007
2190.00,0.0007
2189.00,0.0009
2188.00,0.0012
2187.00,0.0014
2186.00,0.0014
2185.00,0.0014
2184.00,0.0012
2183.00,0.0008
2182.00,0.0003
2181.00,-0.0001
2180.00,-0.0002
2179.00,-0.0002
2178.00,-0.0000
2177.00,0.0001
2176.00,0.0001
2175.00,0.0001
2174.00,0.0002
2173.00,0.0004
2172.00,0.0007
2171.00,0.0008
2170.00,0.0009
2169.00,0.0009
2168.00,0.0010
2167.00,0.0010
2166.00,0.0009
2165.00,0.0008
2164.00,0.0009
2163.00,0.0012
2162.00,0.0014
2161.00,0.0011
2160.00,0.0000
2159.00,-0.0013
2158.00,-0.0024
2157.00,-0.0028
2156.00,-0.0026
2155.00,-0.0023
2154.00,-0.0020
2153.00,-0.0017
2152.00,-0.0016
2151.00,-0.0015
2150.00,-0.0014
2149.00,-0.0014
2148.00,-0.0014
2147.00,-0.0015
2146.00,-0.0015
2145.00,-0.0014
2144.00,-0.0012
2143.00,-0.0010
2142.00,-0.0009
2141.00,-0.0009
2140.00,-0.0010
2139.00,-0.0012
2138.00,-0.0014
2137.00,-0.0015
2136.00,-0.0016
2135.00,-0.0019
2134.00,-0.0021
2133.00,-0.0022
2132.00,-0.0021
2131.00,-0.0018
2130.00,-0.0014
2129.00,-0.0011
2128.00,-0.0010
2127.00,-0.0009
2126.00,-0.0008
2125.00,-0.0007
2124.00,-0.0007
2123.00,-0.0007
2122.00,-0.0007
2121.00,-0.0007
2120.00,-0.0006
2119.00,-0.0005
2118.00,-0.0004
2117.00,-0.0003
2116.00,-0.0002
2115.00,-0.0001
2114.00,-0.0001
2113.00,-0.0001
2112.00,-0.0000
2111.00,0.0001
2110.00,0.0002
2109.00,0.0002
2108.00,0.0001
2107.00,0.0001
2106.00,0.0001
2105.00,0.0002
2104.00,0.0003
2103.00,0.0003
2102.00,0.0003
2101.00,0.0003
2100.00,0.0003
2099.00,0.0003
2098.00,0.0002
2097.00,0.0001
2096.00,-0.0001
2095.00,-0.0003
2094.00,-0.0004
2093.00,-0.0004
2092.00,-0.0004
2091.00,-0.0003
2090.00,-0.0003
2089.00,-0.0003
2088.00,-0.0002
2087.00,-0.0002
2086.00,-0.0002
2085.00,-0.0002
2084.00,-0.0001
2083.00,-0.0000
2082.00,0.0001
2081.00,0.0002
2080.00,0.0002
2079.00,0.0001
2078.00,0.0001
2077.00,0.0002
2076.00,0.0002
2075.00,0.0002
2074.00,0.0001
2073.00,0.0000
2072.00,-0.0000
2071.00,-0.0000
2070.00,-0.0000
2069.00,0.0001
2068.00,0.0002
2067.00,0.0002
2066.00,0.0001
2065.00,-0.0000
2064.00,-0.0001
2063.00,-0.0001
2062.00,0.0000
2061.00,0.0002
2060.00,0.0004
2059.00,0.0006
2058.00,0.0007
2057.00,0.0007
2056.00,0.0006
2055.00,0.0005
2054.00,0.0005
2053.00,0.0008
2052.00,0.0013
2051.00,0.0016
2050.00,0.0015
2049.00,0.0011
2048.00,0.0008
2047.00,0.0005
2046.00,0.0004
2045.00,0.0002
2044.00,0.0001
2043.00,-0.0000
2042.00,-0.0000
2041.00,-0.0001
2040.00,-0.0001
2039.00,-0.0002
2038.00,-0.0003
2037.00,-0.0003
2036.00,-0.0005
2035.00,-0.0007
2034.00,-0.0008
2033.00,-0.0007
2032.00,-0.0006
2031.00,-0.0006
2030.00,-0.0005
2029.00,-0.0005
2028.00,-0.0003
2027.00,-0.0002
2026.00,-0.0003
2025.00,-0.0005
2024.00,-0.0009
2023.00,-0.0011
2022.00,-0.0013
2021.00,-0.0013
2020.00,-0.0013
2019.00,-0.0013
2018.00,-0.0012
2017.00,-0.0009
2016.00,-0.0007
2015.00,-0.0005
2014.00,-0.0005
2013.00,-0.0005
2012.00,-0.0005
2011.00,-0.0006
2010.00,-0.0007
2009.00,-0.0010
2008.00,-0.0013
2007.00,-0.0016
2006.00,-0.0018
2005.00,-0.0020
2004.00,-0.0020
2003.00,-0.0019
2002.00,-0.0017
2001.00,-0.0015
2000.00,-0.0013
1999.00,-0.0013
1998.00,-0.0014
1997.00,-0.0015
1996.00,-0.0016
1995.00,-0.0016
1994.00,-0.0016
1993.00,-0.0015
1992.00,-0.0013
1991.00,-0.0012
1990.00,-0.0011
1989.00,-0.0011
1988.00,-0.0010
1987.00,-0.0010
1986.00,-0.0010
1985.00,-0.0008
1984.00,-0.0003
1983.00,0.0002
1982.00,0.0008
1981.00,0.0012
1980.00,0.0012
1979.00,0.0006
1978.00,-0.0002
1977.00,-0.0009
1976.00,-0.0011
1975.00,-0.0010
1974.00,-0.0010
1973.00,-0.0010
1972.00,-0.0011
1971.00,-0.0013
1970.00,-0.0015
1969.00,-0.0016
1968.00,-0.0016
1967.00,-0.0015
1966.00,-0.0014
1965.00,-0.0012
1964.00,-0.0010
1963.00,-0.0008
1962.00,-0.0008
1961.00,-0.0011
1960.00,-0.0015
1959.00,-0.0018
1958.00,-0.0021
1957.00,-0.0022
1956.00,-0.0022
1955.00,-0.0022
1954.00,-0.0021
1953.00,-0.0019
1952.00,-0.0017
1951.00,-0.0016
1950.00,-0.0016
1949.00,-0.0017
1948.00,-0.0018
1947.00,-0.0019
1946.00,-0.0019
1945.00,-0.0017
1944.00,-0.0015
1943.00,-0.0012
1942.00,-0.0010
1941.00,-0.0010
1940.00,-0.0011
1939.00,-0.0011
1938.00,-0.0011
1937.00,-0.0010
1936.00,-0.0009
1935.00,-0.0009
1934.00,-0.0008
1933.00,-0.0007
1932.00,-0.0008
1931.00,-0.0009
1930.00,-0.0011
1929.00,-0.0011
1928.00,-0.0012
1927.00,-0.0011
1926.00,-0.0011
1925.00,-0.0010
1924.00,-0.0009
1923.00,-0.0008
1922.00,-0.0007
1921.00,-0.0006
1920.00,-0.0005
1919.00,-0.0005
1918.00,-0.0005
1917.00,-0.0004
1916.00,-0.0003
1915.00,-0.0003
1914.00,-0.0003
1913.00,-0.0003
1912.00,-0.0004
1911.00,-0.0004
1910.00,-0.0004
1909.00,-0.0004
1908.00,-0.0003
1907.00,-0.0003
1906.00,-0.0004
1905.00,-0.0004
1904.00,-0.0003
1903.00,-0.0002
1902.00,-0.0001
1901.00,-0.0001
1900.00,-0.0001
1899.00,-0.0001
1898.00,-0.0002
1897.00,-0.0002
1896.00,-0.0002
1895.00,-0.0002
1894.00,-0.0003
1893.00,-0.0002
1892.00,-0.0002
1891.00,-0.0003
1890.00,-0.0003
1889.00,-0.0003
1888.00,-0.0003
1887.00,-0.0003
1886.00,-0.0003
1885.00,-0.0003
1884.00,-0.0004
1883.00,-0.0004
1882.00,-0.0004
1881.00,-0.0004
1880.00,-0.0003
1879.00,-0.0003
1878.00,-0.0003
1877.00,-0.0003
1876.00,-0.0002
1875.00,-0.0002
1874.00,-0.0002
1873.00,-0.0002
1872.00,-0.0002
1871.00,-0.0001
1870.00,-0.0001
1869.00,-0.0001
1868.00,0.0000
1867.00,0.0001
1866.00,0.0001
1865.00,0.0001
1864.00,0.0001
1863.00,-0.0001
1862.00,-0.0002
1861.00,-0.0003
1860.00,-0.0003
1859.00,-0.0002
1858.00,-0.0001
1857.00,-0.0000
1856.00,0.0000
1855.00,0.0000
1854.00,0.0000
1853.00,0.0001
1852.00,0.0001
1851.00,0.0002
1850.00,0.0001
1849.00,0.0000
1848.00,-0.0000
1847.00,-0.0001
1846.00,-0.0000
1845.00,0.0000
1844.00,0.0000
1843.00,0.0000
1842.00,-0.0000
1841.00,-0.0001
1840.00,-0.0001
1839.00,-0.0001
1838.00,-0.0000
1837.00,0.0001
1836.00,0.0001
1835.00,0.0001
1834.00,0.0001
1833.00,0.0000
1832.00,0.0000
1831.00,0.0001
1830.00,0.0002
1829.00,0.0003
1828.00,0.0003
1827.00,0.0003
1826.00,0.0003
1825.00,0.0003
1824.00,0.0003
1823.00,0.0003
1822.00,0.0003
1821.00,0.0003
1820.00,0.0002
1819.00,0.0001
1818.00,-0.0000
1817.00,-0.0001
1816.00,-0.0001
1815.00,-0.0000
1814.00,0.0000
1813.00,0.0001
1812.00,0.0002
1811.00,0.0003
1810.00,0.0003
1809.00,0.0003
1808.00,0.0003
1807.00,0.0003
1806.00,0.0003
1805.00,0.0003
1804.00,0.0003
1803.00,0.0003
1802.00,0.0003
1801.00,0.0003
1800.00,0.0003
1799.00,0.0004
1798.00,0.0004
1797.00,0.0004
1796.00,0.0004
1795.00,0.0004
1794.00,0.0004
1793.00,0.0004
1792.00,0.0004
1791.00,0.0004
1790.00,0.0005
1789.00,0.0005
1788.00,0.0005
1787.00,0.0005
1786.00,0.0005
1785.00,0.0005
1784.00,0.0005
1783.00,0.0005
1782.00,0.0005
1781.00,0.0005
1780.00,0.0005
1779.00,0.0005
1778.00,0.0005
1777.00,0.0005
1776.00,0.0005
1775.00,0.0005
1774.00,0.0005
1773.00,0.0005
1772.00,0.0006
1771.00,0.0007
1770.00,0.0008
1769.00,0.0009
1768.00,0.0009
1767.00,0.0009
1766.00,0.0008
1765.00,0.0008
1764.00,0.0008
1763.00,0.0008
1762.00,0.0008
1761.00,0.0008
1760.00,0.0008
1759.00,0.0009
1758.00,0.0009
1757.00,0.0010
1756.00,0.0010
1755.00,0.0010
1754.00,0.0010
1753.00,0.0011
1752.00,0.0011
1751.00,0.0012
1750.00,0.0012
1749.00,0.0013
1748.00,0.0013
1747.00,0.0013
1746.00,0.0012
1745.00,0.0013
1744.00,0.0013
1743.00,0.0013
1742.00,0.0013
1741.00,0.0013
1740.00,0.0014
1739.00,0.0014
1738.00,0.0014
1737.00,0.0014
1736.00,0.0014
1735.00,0.0014
1734.00,0.0014
1733.00,0.0014
1732.00,0.0014
1731.00,0.0014
1730.00,0.0014
1729.00,0.0015
1728.00,0.0016
1727.00,0.0016
1726.00,0.0017
1725.00,0.0017
1724.00,0.0018
1723.00,0.0018
1722.00,0.0018
1721.00,0.0018
1720.00,0.0018
1719.00,0.0017
1718.00,0.0017
1717.00,0.0017
1716.00,0.0017
1715.00,0.0017
1714.00,0.0017
1713.00,0.0017
1712.00,0.0018
1711.00,0.0018
1710.00,0.0018
1709.00,0.0019
1708.00,0.0019
1707.00,0.0019
1706.00,0.0019
1705.00,0.0019
1704.00,0.0019
1703.00,0.0019
1702.00,0.0019
1701.00,0.0019
1700.00,0.0019
1699.00,0.0019
1698.00,0.0019
1697.00,0.0020
1696.00,0.0020
1695.00,0.0020
1694.00,0.0020
1693.00,0.0021
1692.00,0.0022
1691.00,0.0023
1690.00,0.0024
1689.00,0.0024
1688.00,0.0024
1687.00,0.0023
1686.00,0.0023
1685.00,0.0023
1684.00,0.0023
1683.00,0.0023
1682.00,0.0024
1681.00,0.0024
1680.00,0.0025
1679.00,0.0025
1678.00,0.0025
1677.00,0.0025
1676.00,0.0026
1675.00,0.0026
1674.00,0.0027
1673.00,0.0027
1672.00,0.0028
1671.00,0.0029
1670.00,0.0030
1669.00,0.0030
1668.00,0.0030
1667.00,0.0030
1666.00,0.0030
1665.00,0.0030
1664.00,0.0031
1663.00,0.0031
1662.00,0.0031
1661.00,0.0031
1660.00,0.0031
1659.00,0.0032
1658.00,0.0033
1657.00,0.0034
1656.00,0.0034
1655.00,0.0035
1654.00,0.0036
1653.00,0.0037
1652.00,0.0038
1651.00,0.0038
1650.00,0.0039
1649.00,0.0040
1648.00,0.0042
1647.00,0.0044
1646.00,0.0045
1645.00,0.0045
1644.00,0.0045
1643.00,0.0044
1642.00,0.0044
1641.00,0.0044
1640.00,0.0044
1639.00,0.0044
1638.00,0.0045
1637.00,0.0045
1636.00,0.0045
1635.00,0.0044
1634.00,0.0043
1633.00,0.0043
1632.00,0.0043
1631.00,0.0042
1630.00,0.0041
1629.00,0.0041
1628.00,0.0041
1627.00,0.0040
1626.00,0.0040
1625.00,0.0039
1624.00,0.0039
1623.00,0.0038
1622.00,0.0038
1621.00,0.0038
1620.00,0.0037
1619.00,0.0037
1618.00,0.0037
1617.00,0.0037
1616.00,0.0037
1615.00,0.0037
1614.00,0.0036
1613.00,0.0036
1612.00,0.0036
1611.00,0.0036
1610.00,0.0036
1609.00,0.0037
1608.00,0.0036
1607.00,0.0036
1606.00,0.0035
1605.00,0.0035
1604.00,0.0035
1603.00,0.0035
1602.00,0.0034
1601.00,0.0034
1600.00,0.0034
1599.00,0.0034
1598.00,0.0034
1597.00,0.0034
1596.00,0.0034
1595.00,0.0034
1594.00,0.0033
1593.00,0.0033
1592.00,0.0034
1591.00,0.0034
1590.00,0.0034
1589.00,0.0034
1588.00,0.0034
1587.00,0.0035
1586.00,0.0035
1585.00,0.0035
1584.00,0.0036
1583.00,0.0037
1582.00,0.0037
1581.00,0.0038
1580.00,0.0039
1579.00,0.0039
1578.00,0.0040
1577.00,0.0040
1576.00,0.0041
1575.00,0.0040
1574.00,0.0040
1573.00,0.0040
1572.00,0.0041
1571.00,0.0041
1570.00,0.0041
1569.00,0.0041
1568.00,0.0042
1567.00,0.0041
1566.00,0.0041
1565.00,0.0041
1564.00,0.0041
1563.00,0.0041
1562.00,0.0041
1561.00,0.0042
1560.00,0.0042
1559.00,0.0041
1558.00,0.0041
1557.00,0.0041
1556.00,0.0042
1555.00,0.0042
1554.00,0.0042
1553.00,0.0043
1552.00,0.0043
1551.00,0.0044
1550.00,0.0045
1549.00,0.0046
1548.00,0.0047
1547.00,0.0047
1546.00,0.0048
1545.00,0.0049
1544.00,0.0049
1543.00,0.0049
1542.00,0.0049
1541.00,0.0050
1540.00,0.0049
1539.00,0.0048
1538.00,0.0046
1537.00,0.0045
1536.00,0.0045
1535.00,0.0045
1534.00,0.0043
1533.00,0.0042
1532.00,0.0041
1531.00,0.0041
1530.00,0.0040
1529.00,0.0041
1528.00,0.0041
1527.00,0.0042
1526.00,0.0042
1525.00,0.0043
1524.00,0.0043
1523.00,0.0044
1522.00,0.0044
1521.00,0.0044
1520.00,0.0045
1519.00,0.0045
1518.00,0.0045
1517.00,0.0045
1516.00,0.0046
1515.00,0.0046
1514.00,0.0047
1513.00,0.0048
1512.00,0.0049
1511.00,0.0049
1510.00,0.0050
1509.00,0.0052
1508.00,0.0054
1507.00,0.0055
1506.00,0.0056
1505.00,0.0057
1504.00,0.0058
1503.00,0.0059
1502.00,0.0061
1501.00,0.0063
1500.00,0.0066
1499.00,0.0067
1498.00,0.0069
1497.00,0.0073
1496.00,0.0076
1495.00,0.0079
1494.00,0.0081
1493.00,0.0084
1492.00,0.0087
1491.00,0.0090
1490.00,0.0094
1489.00,0.0098
1488.00,0.0103
1487.00,0.0108
1486.00,0.0113
1485.00,0.0119
1484.00,0.0126
1483.00,0.0132
1482.00,0.0141
1481.00,0.0151
1480.00,0.0163
1479.00,0.0175
1478.00,0.0190
1477.00,0.0211
1476.00,0.0237
1475.00,0.0268
1474.00,0.0309
1473.00,0.0367
1472.00,0.0435
1471.00,0.0500
1470.00,0.0564
1469.00,0.0631
1468.00,0.0703
1467.00,0.0782
1466.00,0.0870
1465.00,0.0964
1464.00,0.1047
1463.00,0.1104
1462.00,0.1141
1461.00,0.1165
1460.00,0.1182
1459.00,0.1191
1458.00,0.1198
1457.00,0.1202
1456.00,0.1199
1455.00,0.1189
1454.00,0.1176
1453.00,0.1158
1452.00,0.1131
1451.00,0.1093
1450.00,0.1041
1449.00,0.0970
1448.00,0.0880
1447.00,0.0785
1446.00,0.0699
1445.00,0.0625
1444.00,0.0562
1443.00,0.0510
1442.00,0.0471
1441.00,0.0444
1440.00,0.0428
1439.00,0.0421
1438.00,0.0421
1437.00,0.0422
1436.00,0.0412
1435.00,0.0387
1434.00,0.0352
1433.00,0.0310
1432.00,0.0266
1431.00,0.0227
1430.00,0.0197
1429.00,0.0175
1428.00,0.0159
1427.00,0.0149
1426.00,0.0142
1425.00,0.0136
1424.00,0.0130
1423.00,0.0126
1422.00,0.0123
1421.00,0.0120
1420.00,0.0117
1419.00,0.0115
1418.00,0.0113
1417.00,0.0111
1416.00,0.0108
1415.00,0.0107
1414.00,0.0107
1413.00,0.0105
1412.00,0.0103
1411.00,0.0102
1410.00,0.0102
1409.00,0.0102
1408.00,0.0101
1407.00,0.0101
1406.00,0.0102
1405.00,0.0101
1404.00,0.0101
1403.00,0.0101
1402.00,0.0103
1401.00,0.0104
1400.00,0.0104
1399.00,0.0106
1398.00,0.0108
1397.00,0.0110
1396.00,0.0112
1395.00,0.0116
1394.00,0.0121
1393.00,0.0125
1392.00,0.0131
1391.00,0.0138
1390.00,0.0149
1389.00,0.0163
1388.00,0.0184
1387.00,0.0216
1386.00,0.0259
1385.00,0.0316
1384.00,0.0395
1383.00,0.0506
1382.00,0.0657
1381.00,0.0851
1380.00,0.1090
1379.00,0.1361
1378.00,0.1620
1377.00,0.1807
1376.00,0.1865
1375.00,0.1765
1374.00,0.1536
1373.00,0.1264
1372.00,0.1015
1371.00,0.0812
1370.00,0.0651
1369.00,0.0530
1368.00,0.0446
1367.00,0.0394
1366.00,0.0366
1365.00,0.0355
1364.00,0.0357
1363.00,0.0370
1362.00,0.0390
1361.00,0.0412
1360.00,0.0428
1359.00,0.0433
1358.00,0.0423
1357.00,0.0398
1356.00,0.0363
1355.00,0.0324
1354.00,0.0286
1353.00,0.0254
1352.00,0.0227
1351.00,0.0206
1350.00,0.0189
1349.00,0.0174
1348.00,0.0162
1347.00,0.0152
1346.00,0.0143
1345.00,0.0135
1344.00,0.0129
1343.00,0.0124
1342.00,0.0120
1341.00,0.0117
1340.00,0.0114
1339.00,0.0112
1338.00,0.0111
1337.00,0.0111
1336.00,0.0111
1335.00,0.0113
1334.00,0.0116
1333.00,0.0120
1332.00,0.0124
1331.00,0.0127
1330.00,0.0128
1329.00,0.0127
1328.00,0.0124
1327.00,0.0119
1326.00,0.0113
1325.00,0.0108
1324.00,0.0102
1323.00,0.0097
1322.00,0.0094
1321.00,0.0091
1320.00,0.0088
1319.00,0.0086
1318.00,0.0084
1317.00,0.0083
1316.00,0.0082
1315.00,0.0081
1314.00,0.0082
1313.00,0.0082
1312.00,0.0083
1311.00,0.0084
1310.00,0.0088
1309.00,0.0094
1308.00,0.0104
1307.00,0.0114
1306.00,0.0125
1305.00,0.0132
1304.00,0.0135
1303.00,0.0132
1302.00,0.0127
1301.00,0.0123
1300.00,0.0120
1299.00,0.0120
1298.00,0.0121
1297.00,0.0121
1296.00,0.0120
1295.00,0.0117
1294.00,0.0113
1293.00,0.0108
1292.00,0.0103
1291.00,0.0099
1290.00,0.0094
1289.00,0.0091
1288.00,0.0088
1287.00,0.0085
1286.00,0.0083
1285.00,0.0081
1284.00,0.0080
1283.00,0.0078
1282.00,0.0077
1281.00,0.0076
1280.00,0.0075
1279.00,0.0074
1278.00,0.0074
1277.00,0.0073
1276.00,0.0072
1275.00,0.0072
1274.00,0.0072
1273.00,0.0071
1272.00,0.0072
1271.00,0.0073
1270.00,0.0074
1269.00,0.0076
1268.00,0.0078
1267.00,0.0080
1266.00,0.0083
1265.00,0.0085
1264.00,0.0088
1263.00,0.0091
1262.00,0.0095
1261.00,0.0099
1260.00,0.0105
1259.00,0.0111
1258.00,0.0118
1257.00,0.0123
1256.00,0.0125
1255.00,0.0123
1254.00,0.0116
1253.00,0.0108
1252.00,0.0099
1251.00,0.0092
1250.00,0.0086
1249.00,0.0082
1248.00,0.0079
1247.00,0.0077
1246.00,0.0075
1245.00,0.0074
1244.00,0.0072
1243.00,0.0071
1242.00,0.0070
1241.00,0.0069
1240.00,0.0068
1239.00,0.0068
1238.00,0.0067
1237.00,0.0067
1236.00,0.0067
1235.00,0.0066
1234.00,0.0067
1233.00,0.0067
1232.00,0.0068
1231.00,0.0069
1230.00,0.0071
1229.00,0.0072
1228.00,0.0073
1227.00,0.0074
1226.00,0.0076
1225.00,0.0079
1224.00,0.0082
1223.00,0.0086
1222.00,0.0089
1221.00,0.0091
1220.00,0.0093
1219.00,0.0094
1218.00,0.0093
1217.00,0.0091
1216.00,0.0088
1215.00,0.0085
1214.00,0.0082
1213.00,0.0080
1212.00,0.0078
1211.00,0.0076
1210.00,0.0074
1209.00,0.0072
1208.00,0.0071
1207.00,0.0069
1206.00,0.0068
1205.00,0.0068
1204.00,0.0068
1203.00,0.0067
1202.00,0.0067
1201.00,0.0067
1200.00,0.0066
1199.00,0.0066
1198.00,0.0067
1197.00,0.0067
1196.00,0.0068
1195.00,0.0068
1194.00,0.0069
1193.00,0.0069
1192.00,0.0068
1191.00,0.0068
1190.00,0.0068
1189.00,0.0068
1188.00,0.0068
1187.00,0.0067
1186.00,0.0067
1185.00,0.0068
1184.00,0.0069
1183.00,0.0071
1182.00,0.0073
1181.00,0.0076
1180.00,0.0079
1179.00,0.0084
1178.00,0.0090
1177.00,0.0099
1176.00,0.0110
1175.00,0.0124
1174.00,0.0143
1173.00,0.0167
1172.00,0.0196
1171.00,0.0228
1170.00,0.0259
1169.00,0.0284
1168.00,0.0299
1167.00,0.0302
1166.00,0.0295
1165.00,0.0281
1164.00,0.0264
1163.00,0.0247
1162.00,0.0232
1161.00,0.0219
1160.00,0.0209
1159.00,0.0202
1158.00,0.0197
1157.00,0.0193
1156.00,0.0191
1155.00,0.0189
1154.00,0.0187
1153.00,0.0184
1152.00,0.0179
1151.00,0.0173
1150.00,0.0164
1149.00,0.0155
1148.00,0.0146
1147.00,0.0137
1146.00,0.0130
1145.00,0.0122
1144.00,0.0115
1143.00,0.0109
1142.00,0.0103
1141.00,0.0098
1140.00,0.0093
1139.00,0.0089
1138.00,0.0084
1137.00,0.0080
1136.00,0.0077
1135.00,0.0074
1134.00,0.0073
1133.00,0.0072
1132.00,0.0071
1131.00,0.0070
1130.00,0.0069
1129.00,0.0069
1128.00,0.0068
1127.00,0.0068
1126.00,0.0069
1125.00,0.0070
1124.00,0.0072
1123.00,0.0072
1122.00,0.0073
1121.00,0.0072
1120.00,0.0072
1119.00,0.0072
1118.00,0.0073
1117.00,0.0073
1116.00,0.0074
1115.00,0.0075
1114.00,0.0077
1113.00,0.0080
1112.00,0.0082
1111.00,0.0085
1110.00,0.0088
1109.00,0.0092
1108.00,0.0097
1107.00,0.0103
1106.00,0.0109
1105.00,0.0115
1104.00,0.0120
1103.00,0.0122
1102.00,0.0122
1101.00,0.0119
1100.00,0.0113
1099.00,0.0107
1098.00,0.0101
1097.00,0.0095
1096.00,0.0092
1095.00,0.0089
1094.00,0.0087
1093.00,0.0085
1092.00,0.0082
1091.00,0.0080
1090.00,0.0078
1089.00,0.0077
1088.00,0.0077
1087.00,0.0076
1086.00,0.0076
1085.00,0.0075
1084.00,0.0075
1083.00,0.0075
1082.00,0.0074
1081.00,0.0074
1080.00,0.0074
1079.00,0.0073
1078.00,0.0072
1077.00,0.0072
1076.00,0.0071
1075.00,0.0070
1074.00,0.0069
1073.00,0.0069
1072.00,0.0068
1071.00,0.0067
1070.00,0.0067
1069.00,0.0066
1068.00,0.0065
1067.00,0.0065
1066.00,0.0064
1065.00,0.0065
1064.00,0.0066
1063.00,0.0067
1062.00,0.0068
1061.00,0.0068
1060.00,0.0067
1059.00,0.0067
1058.00,0.0067
1057.00,0.0068
1056.00,0.0069
1055.00,0.0070
1054.00,0.0072
1053.00,0.0073
1052.00,0.0075
1051.00,0.0076
1050.00,0.0077
1049.00,0.0079
1048.00,0.0081
1047.00,0.0084
1046.00,0.0087
1045.00,0.0089
1044.00,0.0089
1043.00,0.0089
1042.00,0.0087
1041.00,0.0085
1040.00,0.0083
1039.00,0.0082
1038.00,0.0081
1037.00,0.0080
1036.00,0.0080
1035.00,0.0080
1034.00,0.0079
1033.00,0.0078
1032.00,0.0076
1031.00,0.0074
1030.00,0.0073
1029.00,0.0072
1028.00,0.0072
1027.00,0.0072
1026.00,0.0072
1025.00,0.0073
1024.00,0.0073
1023.00,0.0074
1022.00,0.0074
1021.00,0.0075
1020.00,0.0075
1019.00,0.0076
1018.00,0.0077
1017.00,0.0078
1016.00,0.0079
1015.00,0.0079
1014.00,0.0081
1013.00,0.0083
1012.00,0.0086
1011.00,0.0090
1010.00,0.0094
1009.00,0.0098
1008.00,0.0103
1007.00,0.0110
1006.00,0.0118
1005.00,0.0131
1004.00,0.0147
1003.00,0.0170
1002.00,0.0200
1001.00,0.0238
1000.00,0.0278
999.00,0.0312
998.00,0.0328
997.00,0.0322
996.00,0.0295
995.00,0.0257
994.00,0.0217
993.00,0.0182
992.00,0.0155
991.00,0.0135
990.00,0.0121
989.00,0.0112
988.00,0.0107
987.00,0.0105
986.00,0.0104
985.00,0.0106
984.00,0.0110
983.00,0.0117
982.00,0.0127
981.00,0.0142
980.00,0.0163
979.00,0.0191
978.00,0.0228
977.00,0.0271
976.00,0.0317
975.00,0.0360
974.00,0.0391
973.00,0.0402
972.00,0.0387
971.00,0.0350
970.00,0.0299
969.00,0.0248
968.00,0.0205
967.00,0.0172
966.00,0.0148
965.00,0.0131
964.00,0.0118
963.00,0.0110
962.00,0.0103
961.00,0.0097
960.00,0.0092
959.00,0.0088
958.00,0.0085
957.00,0.0083
956.00,0.0081
955.00,0.0080
954.00,0.0078
953.00,0.0077
952.00,0.0075
951.00,0.0074
950.00,0.0073
949.00,0.0072
948.00,0.0071
947.00,0.0071
946.00,0.0072
945.00,0.0074
944.00,0.0078
943.00,0.0082
942.00,0.0086
941.00,0.0088
940.00,0.0088
939.00,0.0086
938.00,0.0082
937.00,0.0077
936.00,0.0072
935.00,0.0068
934.00,0.0066
933.00,0.0064
932.00,0.0063
931.00,0.0061
930.00,0.0059
929.00,0.0058
928.00,0.0057
927.00,0.0057
926.00,0.0057
925.00,0.0057
924.00,0.0057
923.00,0.0057
922.00,0.0058
921.00,0.0059
920.00,0.0059
919.00,0.0060
918.00,0.0060
917.00,0.0061
916.00,0.0061
915.00,0.0061
914.00,0.0061
913.00,0.0062
912.00,0.0064
911.00,0.0066
910.00,0.0067
909.00,0.0068
908.00,0.0071
907.00,0.0075
906.00,0.0082
905.00,0.0093
904.00,0.0107
903.00,0.0125
902.00,0.0144
901.00,0.0162
900.00,0.0174
899.00,0.0176
898.00,0.0168
897.00,0.0153
896.00,0.0134
895.00,0.0117
894.00,0.0104
893.00,0.0093
892.00,0.0085
891.00,0.0079
890.00,0.0075
889.00,0.0072
888.00,0.0071
887.00,0.0070
886.00,0.0069
885.00,0.0068
884.00,0.0068
883.00,0.0068
882.00,0.0068
881.00,0.0068
880.00,0.0069
879.00,0.0071
878.00,0.0072
877.00,0.0073
876.00,0.0073
875.00,0.0073
874.00,0.0074
873.00,0.0074
872.00,0.0074
871.00,0.0074
870.00,0.0074
869.00,0.0073
868.00,0.0074
867.00,0.0074
866.00,0.0075
865.00,0.0075
864.00,0.0076
863.00,0.0078
862.00,0.0079
861.00,0.0080
860.00,0.0081
859.00,0.0082
858.00,0.0083
857.00,0.0084
856.00,0.0084
855.00,0.0085
854.00,0.0087
853.00,0.0090
852.00,0.0094
851.00,0.0099
850.00,0.0104
849.00,0.0111
848.00,0.0119
847.00,0.0131
846.00,0.0151
845.00,0.0182
844.00,0.0227
843.00,0.0278
842.00,0.0320
841.00,0.0333
840.00,0.0311
839.00,0.0264
838.00,0.0213
837.00,0.0173
836.00,0.0146
835.00,0.0130
834.00,0.0119
833.00,0.0113
832.00,0.0108
831.00,0.0104
830.00,0.0100
829.00,0.0098
828.00,0.0096
827.00,0.0094
826.00,0.0094
825.00,0.0094
824.00,0.0094
823.00,0.0094
822.00,0.0095
821.00,0.0098
820.00,0.0101
819.00,0.0104
818.00,0.0108
817.00,0.0114
816.00,0.0122
815.00,0.0134
814.00,0.0149
813.00,0.0167
812.00,0.0185
811.00,0.0203
810.00,0.0215
809.00,0.0221
808.00,0.0217
807.00,0.0205
806.00,0.0188
805.00,0.0170
804.00,0.0155
803.00,0.0142
802.00,0.0132
801.00,0.0124
800.00,0.0118
799.00,0.0112
798.00,0.0107
797.00,0.0103
796.00,0.0100
795.00,0.0097
794.00,0.0093
793.00,0.0089
792.00,0.0084
791.00,0.0080
790.00,0.0077
789.00,0.0074
788.00,0.0073
787.00,0.0072
786.00,0.0071
785.00,0.0069
784.00,0.0067
783.00,0.0065
782.00,0.0064
781.00,0.0062
780.00,0.0061
779.00,0.0060
778.00,0.0060
777.00,0.0059
776.00,0.0059
775.00,0.0059
774.00,0.0060
773.00,0.0061
772.00,0.0062
771.00,0.0063
770.00,0.0062
769.00,0.0061
768.00,0.0061
767.00,0.0062
766.00,0.0063
765.00,0.0064
764.00,0.0064
763.00,0.0062
762.00,0.0060
761.00,0.0058
760.00,0.0058
759.00,0.0059
758.00,0.0061
757.00,0.0063
756.00,0.0064
755.00,0.0065
754.00,0.0066
753.00,0.0068
752.00,0.0069
751.00,0.0071
750.00,0.0073
749.00,0.0075
748.00,0.0077
747.00,0.0078
746.00,0.0078
745.00,0.0079
744.00,0.0080
743.00,0.0081
742.00,0.0084
741.00,0.0088
740.00,0.0091
739.00,0.0095
738.00,0.0098
737.00,0.0102
736.00,0.0106
735.00,0.0110
734.00,0.0115
733.00,0.0121
732.00,0.0129
731.00,0.0137
730.00,0.0145
729.00,0.0148
728.00,0.0149
727.00,0.0149
726.00,0.0151
725.00,0.0155
724.00,0.0161
723.00,0.0167
722.00,0.0173
721.00,0.0176
720.00,0.0174
719.00,0.0166
718.00,0.0154
717.00,0.0142
716.00,0.0132
715.00,0.0125
714.00,0.0119
713.00,0.0114
712.00,0.0109
711.00,0.0104
710.00,0.0101
709.00,0.0098
708.00,0.0097
707.00,0.0096
706.00,0.0095
705.00,0.0094
704.00,0.0092
703.00,0.0090
702.00,0.0088
701.00,0.0087
700.00,0.0087
699.00,0.0086
698.00,0.0085
697.00,0.0083
696.00,0.0081
695.00,0.0080
694.00,0.0081
693.00,0.0081
692.00,0.0081
691.00,0.0081
690.00,0.0080
689.00,0.0080
688.00,0.0081
687.00,0.0083
686.00,0.0085
685.00,0.0086
684.00,0.0086
683.00,0.0085
682.00,0.0083
681.00,0.0081
680.00,0.0078
679.00,0.0076
678.00,0.0076
677.00,0.0077
676.00,0.0078
675.00,0.0079
674.00,0.0080
673.00,0.0080
672.00,0.0080
671.00,0.0080
670.00,0.0082
669.00,0.0086
668.00,0.0090
667.00,0.0091
666.00,0.0088
665.00,0.0084
664.00,0.0082
663.00,0.0081
662.00,0.0081
661.00,0.0080
660.00,0.0079
659.00,0.0078
658.00,0.0077
657.00,0.0077
656.00,0.0078
655.00,0.0080
654.00,0.0081
653.00,0.0080
652.00,0.0078
651.00,0.0076
650.00,0.0076
649.00,0.0077
648.00,0.0080
647.00,0.0082
646.00,0.0082
645.00,0.0081
644.00,0.0078
643.00,0.0076
642.00,0.0075
641.00,0.0077
640.00,0.0080
639.00,0.0081
638.00,0.0081
637.00,0.0079
636.00,0.0079
635.00,0.0080
634.00,0.0081
633.00,0.0082
632.00,0.0082
631.00,0.0081
630.00,0.0079
629.00,0.0076
628.00,0.0075
627.00,0.0077
626.00,0.0079
625.00,0.0082
624.00,0.0083
623.00,0.0085
622.00,0.0086
621.00,0.0086
620.00,0.0084
619.00,0.0080
618.00,0.0076
617.00,0.0073
616.00,0.0071
615.00,0.0071
614.00,0.0072
613.00,0.0072
612.00,0.0071
611.00,0.0069
610.00,0.0068
609.00,0.0069
608.00,0.0071
607.00,0.0074
606.00,0.0078
605.00,0.0081
604.00,0.0081
603.00,0.0078
602.00,0.0075
601.00,0.0074
600.00,0.0075
599.00,0.0077
598.00,0.0078
597.00,0.0078
596.00,0.0077
595.00,0.0076
594.00,0.0076
593.00,0.0075
592.00,0.0072
591.00,0.0070
590.00,0.0069
589.00,0.0070
588.00,0.0071
587.00,0.0071
586.00,0.0072
585.00,0.0074
584.00,0.0076
583.00,0.0077
582.00,0.0077
581.00,0.0077
580.00,0.0077
579.00,0.0077
578.00,0.0076
577.00,0.0075
576.00,0.0073
575.00,0.0071
574.00,0.0070
573.00,0.0069
572.00,0.0071
571.00,0.0074
570.00,0.0076
569.00,0.0076
568.00,0.0076
567.00,0.0078
566.00,0.0082
565.00,0.0085
564.00,0.0084
563.00,0.0080
562.00,0.0077
561.00,0.0075
560.00,0.0072
559.00,0.0070
558.00,0.0067
557.00,0.0068
556.00,0.0070
555.00,0.0074
554.00,0.0077
553.00,0.0077
552.00,0.0077
551.00,0.0078
550.00,0.0079
549.00,0.0080
548.00,0.0081
547.00,0.0081
546.00,0.0081
545.00,0.0081
544.00,0.0081
543.00,0.0080
542.00,0.0080
541.00,0.0081
540.00,0.0082
539.00,0.0084
538.00,0.0085
537.00,0.0086
536.00,0.0086
535.00,0.0086
534.00,0.0088
533.00,0.0090
532.00,0.0092
531.00,0.0090
530.00,0.0087
529.00,0.0084
528.00,0.0084
527.00,0.0086
526.00,0.0088
525.00,0.0088
524.00,0.0085
523.00,0.0082
522.00,0.0082
521.00,0.0083
520.00,0.0084
519.00,0.0083
518.00,0.0079
517.00,0.0077
516.00,0.0077
515.00,0.0078
514.00,0.0078
513.00,0.0077
512.00,0.0076
511.00,0.0075
510.00,0.0073
509.00,0.0071
508.00,0.0070
507.00,0.0067
506.00,0.0064
505.00,0.0062
504.00,0.0061
503.00,0.0059
502.00,0.0056
501.00,0.0052
500.00,0.0052
499.00,0.0056
498.00,0.0063
497.00,0.0071
496.00,0.0078
495.00,0.0082
494.00,0.0083
493.00,0.0079
492.00,0.0072
491.00,0.0066
490.00,0.0060
489.00,0.0058
488.00,0.0059
487.00,0.0061
486.00,0.0059
485.00,0.0054
484.00,0.0050
483.00,0.0052
482.00,0.0062
481.00,0.0072
480.00,0.0078
479.00,0.0079
478.00,0.0079
477.00,0.0079
476.00,0.0077
475.00,0.0072
474.00,0.0065
473.00,0.0060
472.00,0.0061
471.00,0.0069
470.00,0.0076
469.00,0.0079
468.00,0.0081
467.00,0.0089
466.00,0.0100
465.00,0.0108
464.00,0.0107
463.00,0.0107
462.00,0.0113
461.00,0.0127
460.00,0.0141
459.00,0.0149
458.00,0.0151
457.00,0.0148
456.00,0.0143
455.00,0.0138
454.00,0.0136
453.00,0.0136
452.00,0.0135
451.00,0.0130
450.00,0.0124
