Created as New Dataset,Sample 007 By Administrator Date Thursday, September 04 2025
cm-1,A
4000.00,0.0008
3999.00,0.0008
3998.00,0.0008
3997.00,0.0008
3996.00,0.0009
3995.00,0.0009
3994.00,0.0009
3993.00,0.0009
3992.00,0.0008
3991.00,0.0008
3990.00,0.0008
3989.00,0.0008
3988.00,0.0008
3987.00,0.0008
3986.00,0.0007
3985.00,0.0007
3984.00,0.0007
3983.00,0.0008
3982.00,0.0008
3981.00,0.0008
3980.00,0.0008
3979.00,0.0008
3978.00,0.0007
3977.00,0.0007
3976.00,0.0007
3975.00,0.0007
3974.00,0.0007
3973.00,0.0007
3972.00,0.0007
3971.00,0.0007
3970.00,0.0007
3969.00,0.0007
3968.00,0.0007
3967.00,0.0007
3966.00,0.0007
3965.00,0.0007
3964.00,0.0007
3963.00,0.0007
3962.00,0.0007
3961.00,0.0007
3960.00,0.0007
3959.00,0.0007
3958.00,0.0007
3957.00,0.0007
3956.00,0.0007
3955.00,0.0007
3954.00,0.0007
3953.00,0.0007
3952.00,0.0007
3951.00,0.0007
3950.00,0.0007
3949.00,0.0007
3948.00,0.0007
3947.00,0.0007
3946.00,0.0007
3945.00,0.0006
3944.00,0.0006
3943.00,0.0006
3942.00,0.0006
3941.00,0.0007
3940.00,0.0006
3939.00,0.0006
3938.00,0.0006
3937.00,0.0006
3936.00,0.0007
3935.00,0.0007
3934.00,0.0007
3933.00,0.0007
3932.00,0.0007
3931.00,0.0007
3930.00,0.0007
3929.00,0.0007
3928.00,0.0007
3927.00,0.0007
3926.00,0.0007
3925.00,0.0007
3924.00,0.0007
3923.00,0.0007
3922.00,0.0007
3921.00,0.0007
3920.00,0.0007
3919.00,0.0007
3918.00,0.0007
3917.00,0.0007
3916.00,0.0007
3915.00,0.0007
3914.00,0.0007
3913.00,0.0007
3912.00,0.0007
3911.00,0.0007
3910.00,0.0007
3909.00,0.0007
3908.00,0.0007
3907.00,0.0006
3906.00,0.0006
3905.00,0.0006
3904.00,0.0006
3903.00,0.0006
3902.00,0.0006
3901.00,0.0006
3900.00,0.0006
3899.00,0.0006
3898.00,0.0006
3897.00,0.0007
3896.00,0.0007
3895.00,0.0007
3894.00,0.0007
3893.00,0.0007
3892.00,0.0007
3891.00,0.0007
3890.00,0.0007
3889.00,0.0006
3888.00,0.0006
3887.00,0.0006
3886.00,0.0006
3885.00,0.0006
3884.00,0.0006
3883.00,0.0007
3882.00,0.0007
3881.00,0.0006
3880.00,0.0006
3879.00,0.0007
3878.00,0.0007
3877.00,0.0007
3876.00,0.0007
3875.00,0.0006
3874.00,0.0006
3873.00,0.0005
3872.00,0.0005
3871.00,0.0005
3870.00,0.0005
3869.00,0.0005
3868.00,0.0006
3867.00,0.0006
3866.00,0.0006
3865.00,0.0006
3864.00,0.0006
3863.00,0.0006
3862.00,0.0006
3861.00,0.0006
3860.00,0.0006
3859.00,0.0006
3858.00,0.0006
3857.00,0.0007
3856.00,0.0007
3855.00,0.0007
3854.00,0.0006
3853.00,0.0006
3852.00,0.0006
3851.00,0.0006
3850.00,0.0006
3849.00,0.0006
3848.00,0.0006
3847.00,0.0006
3846.00,0.0006
3845.00,0.0005
3844.00,0.0005
3843.00,0.0005
3842.00,0.0005
3841.00,0.0005
3840.00,0.0006
3839.00,0.0006
3838.00,0.0006
3837.00,0.0006
3836.00,0.0006
3835.00,0.0006
3834.00,0.0006
3833.00,0.0006
3832.00,0.0006
3831.00,0.0005
3830.00,0.0005
3829.00,0.0005
3828.00,0.0005
3827.00,0.0005
3826.00,0.0005
3825.00,0.0005
3824.00,0.0005
3823.00,0.0005
3822.00,0.0005
3821.00,0.0005
3820.00,0.0005
3819.00,0.0005
3818.00,0.0005
3817.00,0.0005
3816.00,0.0006
3815.00,0.0006
3814.00,0.0007
3813.00,0.0007
3812.00,0.0007
3811.00,0.0006
3810.00,0.0006
3809.00,0.0006
3808.00,0.0006
3807.00,0.0006
3806.00,0.0006
3805.00,0.0006
3804.00,0.0005
3803.00,0.0005
3802.00,0.0005
3801.00,0.0005
3800.00,0.0006
3799.00,0.0006
3798.00,0.0006
3797.00,0.0006
3796.00,0.0006
3795.00,0.0006
3794.00,0.0006
3793.00,0.0006
3792.00,0.0006
3791.00,0.0006
3790.00,0.0006
3789.00,0.0006
3788.00,0.0006
3787.00,0.0006
3786.00,0.0006
3785.00,0.0006
3784.00,0.0006
3783.00,0.0006
3782.00,0.0006
3781.00,0.0006
3780.00,0.0006
3779.00,0.0006
3778.00,0.0006
3777.00,0.0006
3776.00,0.0006
3775.00,0.0006
3774.00,0.0006
3773.00,0.0006
3772.00,0.0006
3771.00,0.0006
3770.00,0.0006
3769.00,0.0006
3768.00,0.0006
3767.00,0.0006
3766.00,0.0006
3765.00,0.0006
3764.00,0.0006
3763.00,0.0006
3762.00,0.0006
3761.00,0.0006
3760.00,0.0006
3759.00,0.0005
3758.00,0.0005
3757.00,0.0006
3756.00,0.0006
3755.00,0.0007
3754.00,0.0007
3753.00,0.0007
3752.00,0.0007
3751.00,0.0007
3750.00,0.0006
3749.00,0.0006
3748.00,0.0007
3747.00,0.0007
3746.00,0.0006
3745.00,0.0006
3744.00,0.0006
3743.00,0.0006
3742.00,0.0005
3741.00,0.0005
3740.00,0.0005
3739.00,0.0005
3738.00,0.0004
3737.00,0.0004
3736.00,0.0004
3735.00,0.0004
3734.00,0.0004
3733.00,0.0004
3732.00,0.0004
3731.00,0.0004
3730.00,0.0004
3729.00,0.0004
3728.00,0.0004
3727.00,0.0004
3726.00,0.0004
3725.00,0.0005
3724.00,0.0005
3723.00,0.0005
3722.00,0.0006
3721.00,0.0006
3720.00,0.0006
3719.00,0.0006
3718.00,0.0006
3717.00,0.0005
3716.00,0.0005
3715.00,0.0005
3714.00,0.0005
3713.00,0.0005
3712.00,0.0004
3711.00,0.0004
3710.00,0.0004
3709.00,0.0004
3708.00,0.0004
3707.00,0.0004
3706.00,0.0005
3705.00,0.0005
3704.00,0.0005
3703.00,0.0005
3702.00,0.0005
3701.00,0.0005
3700.00,0.0005
3699.00,0.0005
3698.00,0.0004
3697.00,0.0004
3696.00,0.0005
3695.00,0.0005
3694.00,0.0005
3693.00,0.0005
3692.00,0.0005
3691.00,0.0005
3690.00,0.0005
3689.00,0.0006
3688.00,0.0006
3687.00,0.0006
3686.00,0.0006
3685.00,0.0006
3684.00,0.0006
3683.00,0.0006
3682.00,0.0006
3681.00,0.0006
3680.00,0.0006
3679.00,0.0006
3678.00,0.0006
3677.00,0.0006
3676.00,0.0006
3675.00,0.0007
3674.00,0.0007
3673.00,0.0007
3672.00,0.0006
3671.00,0.0005
3670.00,0.0005
3669.00,0.0006
3668.00,0.0007
3667.00,0.0007
3666.00,0.0007
3665.00,0.0008
3664.00,0.0008
3663.00,0.0008
3662.00,0.0008
3661.00,0.0008
3660.00,0.0008
3659.00,0.0008
3658.00,0.0008
3657.00,0.0008
3656.00,0.0008
3655.00,0.0008
3654.00,0.0007
3653.00,0.0007
3652.00,0.0007
3651.00,0.0007
3650.00,0.0007
3649.00,0.0008
3648.00,0.0009
3647.00,0.0009
3646.00,0.0009
3645.00,0.0009
3644.00,0.0009
3643.00,0.0009
3642.00,0.0008
3641.00,0.0008
3640.00,0.0008
3639.00,0.0008
3638.00,0.0008
3637.00,0.0008
3636.00,0.0007
3635.00,0.0008
3634.00,0.0008
3633.00,0.0008
3632.00,0.0009
3631.00,0.0009
3630.00,0.0009
3629.00,0.0009
3628.00,0.0009
3627.00,0.0009
3626.00,0.0009
3625.00,0.0009
3624.00,0.0009
3623.00,0.0009
3622.00,0.0009
3621.00,0.0009
3620.00,0.0008
3619.00,0.0008
3618.00,0.0008
3617.00,0.0008
3616.00,0.0008
3615.00,0.0009
3614.00,0.0009
3613.00,0.0010
3612.00,0.0010
3611.00,0.0011
3610.00,0.0011
3609.00,0.0012
3608.00,0.0012
3607.00,0.0012
3606.00,0.0012
3605.00,0.0012
3604.00,0.0012
3603.00,0.0012
3602.00,0.0012
3601.00,0.0012
3600.00,0.0012
3599.00,0.0012
3598.00,0.0012
3597.00,0.0012
3596.00,0.0013
3595.00,0.0013
3594.00,0.0013
3593.00,0.0014
3592.00,0.0014
3591.00,0.0014
3590.00,0.0014
3589.00,0.0014
3588.00,0.0015
3587.00,0.0015
3586.00,0.0015
3585.00,0.0016
3584.00,0.0016
3583.00,0.0016
3582.00,0.0017
3581.00,0.0017
3580.00,0.0017
3579.00,0.0017
3578.00,0.0016
3577.00,0.0016
3576.00,0.0016
3575.00,0.0017
3574.00,0.0018
3573.00,0.0018
3572.00,0.0019
3571.00,0.0019
3570.00,0.0019
3569.00,0.0020
3568.00,0.0020
3567.00,0.0020
3566.00,0.0021
3565.00,0.0021
3564.00,0.0021
3563.00,0.0021
3562.00,0.0021
3561.00,0.0021
3560.00,0.0022
3559.00,0.0022
3558.00,0.0022
3557.00,0.0023
3556.00,0.0023
3555.00,0.0023
3554.00,0.0024
3553.00,0.0025
3552.00,0.0025
3551.00,0.0026
3550.00,0.0026
3549.00,0.0026
3548.00,0.0026
3547.00,0.0026
3546.00,0.0026
3545.00,0.0027
3544.00,0.0028
3543.00,0.0028
3542.00,0.0028
3541.00,0.0028
3540.00,0.0028
3539.00,0.0028
3538.00,0.0029
3537.00,0.0029
3536.00,0.0030
3535.00,0.0030
3534.00,0.0031
3533.00,0.0031
3532.00,0.0031
3531.00,0.0031
3530.00,0.0031
3529.00,0.0032
3528.00,0.0032
3527.00,0.0033
3526.00,0.0033
3525.00,0.0033
3524.00,0.0034
3523.00,0.0034
3522.00,0.0034
3521.00,0.0035
3520.00,0.0035
3519.00,0.0035
3518.00,0.0036
3517.00,0.0036
3516.00,0.0037
3515.00,0.0037
3514.00,0.0038
3513.00,0.0039
3512.00,0.0039
3511.00,0.0039
3510.00,0.0040
3509.00,0.0040
3508.00,0.0040
3507.00,0.0041
3506.00,0.0041
3505.00,0.0041
3504.00,0.0042
3503.00,0.0042
3502.00,0.0042
3501.00,0.0043
3500.00,0.0043
3499.00,0.0043
3498.00,0.0043
3497.00,0.0043
3496.00,0.0043
3495.00,0.0044
3494.00,0.0044
3493.00,0.0045
3492.00,0.0046
3491.00,0.0046
3490.00,0.0046
3489.00,0.0047
3488.00,0.0048
3487.00,0.0048
3486.00,0.0049
3485.00,0.0049
3484.00,0.0049
3483.00,0.0049
3482.00,0.0050
3481.00,0.0050
3480.00,0.0050
3479.00,0.0050
3478.00,0.0050
3477.00,0.0051
3476.00,0.0051
3475.00,0.0052
3474.00,0.0052
3473.00,0.0053
3472.00,0.0053
3471.00,0.0054
3470.00,0.0054
3469.00,0.0054
3468.00,0.0054
3467.00,0.0055
3466.00,0.0055
3465.00,0.0056
3464.00,0.0056
3463.00,0.0057
3462.00,0.0057
3461.00,0.0057
3460.00,0.0057
3459.00,0.0057
3458.00,0.0057
3457.00,0.0057
3456.00,0.0057
3455.00,0.0057
3454.00,0.0058
3453.00,0.0058
3452.00,0.0059
3451.00,0.0059
3450.00,0.0060
3449.00,0.0060
3448.00,0.0061
3447.00,0.0061
3446.00,0.0061
3445.00,0.0061
3444.00,0.0061
3443.00,0.0060
3442.00,0.0060
3441.00,0.0061
3440.00,0.0061
3439.00,0.0062
3438.00,0.0062
3437.00,0.0063
3436.00,0.0063
3435.00,0.0063
3434.00,0.0064
3433.00,0.0064
3432.00,0.0064
3431.00,0.0064
3430.00,0.0064
3429.00,0.0065
3428.00,0.0065
3427.00,0.0066
3426.00,0.0066
3425.00,0.0067
3424.00,0.0067
3423.00,0.0067
3422.00,0.0067
3421.00,0.0067
3420.00,0.0067
3419.00,0.0067
3418.00,0.0067
3417.00,0.0068
3416.00,0.0068
3415.00,0.0068
3414.00,0.0069
3413.00,0.0069
3412.00,0.0069
3411.00,0.0070
3410.00,0.0070
3409.00,0.0070
3408.00,0.0071
3407.00,0.0071
3406.00,0.0071
3405.00,0.0071
3404.00,0.0071
3403.00,0.0071
3402.00,0.0071
3401.00,0.0072
3400.00,0.0072
3399.00,0.0072
3398.00,0.0073
3397.00,0.0073
3396.00,0.0073
3395.00,0.0073
3394.00,0.0073
3393.00,0.0072
3392.00,0.0072
3391.00,0.0072
3390.00,0.0072
3389.00,0.0072
3388.00,0.0072
3387.00,0.0072
3386.00,0.0072
3385.00,0.0072
3384.00,0.0072
3383.00,0.0073
3382.00,0.0073
3381.00,0.0072
3380.00,0.0072
3379.00,0.0072
3378.00,0.0072
3377.00,0.0072
3376.00,0.0072
3375.00,0.0072
3374.00,0.0072
3373.00,0.0072
3372.00,0.0072
3371.00,0.0072
3370.00,0.0072
3369.00,0.0072
3368.00,0.0072
3367.00,0.0072
3366.00,0.0072
3365.00,0.0072
3364.00,0.0072
3363.00,0.0072
3362.00,0.0072
3361.00,0.0072
3360.00,0.0072
3359.00,0.0072
3358.00,0.0072
3357.00,0.0073
3356.00,0.0073
3355.00,0.0073
3354.00,0.0073
3353.00,0.0072
3352.00,0.0072
3351.00,0.0072
3350.00,0.0072
3349.00,0.0072
3348.00,0.0072
3347.00,0.0072
3346.00,0.0071
3345.00,0.0071
3344.00,0.0071
3343.00,0.0071
3342.00,0.0072
3341.00,0.0071
3340.00,0.0071
3339.00,0.0071
3338.00,0.0071
3337.00,0.0071
3336.00,0.0071
3335.00,0.0070
3334.00,0.0070
3333.00,0.0069
3332.00,0.0069
3331.00,0.0070
3330.00,0.0070
3329.00,0.0070
3328.00,0.0070
3327.00,0.0069
3326.00,0.0069
3325.00,0.0069
3324.00,0.0069
3323.00,0.0068
3322.00,0.0068
3321.00,0.0068
3320.00,0.0068
3319.00,0.0068
3318.00,0.0068
3317.00,0.0067
3316.00,0.0067
3315.00,0.0067
3314.00,0.0067
3313.00,0.0067
3312.00,0.0067
3311.00,0.0067
3310.00,0.0067
3309.00,0.0067
3308.00,0.0068
3307.00,0.0068
3306.00,0.0068
3305.00,0.0068
3304.00,0.0068
3303.00,0.0068
3302.00,0.0068
3301.00,0.0068
3300.00,0.0068
3299.00,0.0068
3298.00,0.0067
3297.00,0.0067
3296.00,0.0066
3295.00,0.0066
3294.00,0.0065
3293.00,0.0065
3292.00,0.0065
3291.00,0.0065
3290.00,0.0064
3289.00,0.0064
3288.00,0.0063
3287.00,0.0063
3286.00,0.0062
3285.00,0.0062
3284.00,0.0061
3283.00,0.0061
3282.00,0.0061
3281.00,0.0061
3280.00,0.0061
3279.00,0.0061
3278.00,0.0061
3277.00,0.0060
3276.00,0.0060
3275.00,0.0060
3274.00,0.0060
3273.00,0.0060
3272.00,0.0060
3271.00,0.0060
3270.00,0.0059
3269.00,0.0059
3268.00,0.0059
3267.00,0.0058
3266.00,0.0058
3265.00,0.0058
3264.00,0.0058
3263.00,0.0057
3262.00,0.0057
3261.00,0.0057
3260.00,0.0057
3259.00,0.0057
3258.00,0.0057
3257.00,0.0056
3256.00,0.0056
3255.00,0.0056
3254.00,0.0056
3253.00,0.0055
3252.00,0.0055
3251.00,0.0055
3250.00,0.0055
3249.00,0.0055
3248.00,0.0055
3247.00,0.0055
3246.00,0.0054
3245.00,0.0054
3244.00,0.0054
3243.00,0.0053
3242.00,0.0053
3241.00,0.0053
3240.00,0.0053
3239.00,0.0053
3238.00,0.0053
3237.00,0.0053
3236.00,0.0053
3235.00,0.0053
3234.00,0.0053
3233.00,0.0053
3232.00,0.0052
3231.00,0.0052
3230.00,0.0053
3229.00,0.0053
3228.00,0.0053
3227.00,0.0054
3226.00,0.0054
3225.00,0.0053
3224.00,0.0053
3223.00,0.0052
3222.00,0.0052
3221.00,0.0052
3220.00,0.0052
3219.00,0.0053
3218.00,0.0053
3217.00,0.0053
3216.00,0.0054
3215.00,0.0054
3214.00,0.0054
3213.00,0.0054
3212.00,0.0054
3211.00,0.0054
3210.00,0.0054
3209.00,0.0054
3208.00,0.0053
3207.00,0.0053
3206.00,0.0053
3205.00,0.0054
3204.00,0.0054
3203.00,0.0054
3202.00,0.0054
3201.00,0.0053
3200.00,0.0054
3199.00,0.0054
3198.00,0.0054
3197.00,0.0054
3196.00,0.0054
3195.00,0.0054
3194.00,0.0054
3193.00,0.0054
3192.00,0.0053
3191.00,0.0053
3190.00,0.0053
3189.00,0.0053
3188.00,0.0053
3187.00,0.0053
3186.00,0.0052
3185.00,0.0052
3184.00,0.0052
3183.00,0.0051
3182.00,0.0051
3181.00,0.0051
3180.00,0.0051
3179.00,0.0051
3178.00,0.0051
3177.00,0.0051
3176.00,0.0050
3175.00,0.0050
3174.00,0.0050
3173.00,0.0049
3172.00,0.0049
3171.00,0.0049
3170.00,0.0048
3169.00,0.0048
3168.00,0.0048
3167.00,0.0048
3166.00,0.0047
3165.00,0.0047
3164.00,0.0046
3163.00,0.0046
3162.00,0.0046
3161.00,0.0046
3160.00,0.0046
3159.00,0.0046
3158.00,0.0046
3157.00,0.0046
3156.00,0.0046
3155.00,0.0047
3154.00,0.0047
3153.00,0.0046
3152.00,0.0046
3151.00,0.0045
3150.00,0.0045
3149.00,0.0044
3148.00,0.0044
3147.00,0.0045
3146.00,0.0044
3145.00,0.0044
3144.00,0.0044
3143.00,0.0044
3142.00,0.0044
3141.00,0.0044
3140.00,0.0043
3139.00,0.0043
3138.00,0.0043
3137.00,0.0043
3136.00,0.0043
3135.00,0.0043
3134.00,0.0042
3133.00,0.0042
3132.00,0.0042
3131.00,0.0041
3130.00,0.0041
3129.00,0.0041
3128.00,0.0041
3127.00,0.0040
3126.00,0.0040
3125.00,0.0040
3124.00,0.0039
3123.00,0.0039
3122.00,0.0039
3121.00,0.0039
3120.00,0.0039
3119.00,0.0038
3118.00,0.0038
3117.00,0.0037
3116.00,0.0037
3115.00,0.0037
3114.00,0.0037
3113.00,0.0036
3112.00,0.0036
3111.00,0.0036
3110.00,0.0036
3109.00,0.0036
3108.00,0.0036
3107.00,0.0036
3106.00,0.0036
3105.00,0.0036
3104.00,0.0036
3103.00,0.0036
3102.00,0.0036
3101.00,0.0036
3100.00,0.0035
3099.00,0.0035
3098.00,0.0035
3097.00,0.0034
3096.00,0.0034
3095.00,0.0034
3094.00,0.0034
3093.00,0.0034
3092.00,0.0034
3091.00,0.0034
3090.00,0.0034
3089.00,0.0034
3088.00,0.0034
3087.00,0.0035
3086.00,0.0035
3085.00,0.0034
3084.00,0.0034
3083.00,0.0034
3082.00,0.0034
3081.00,0.0034
3080.00,0.0033
3079.00,0.0033
3078.00,0.0033
3077.00,0.0033
3076.00,0.0033
3075.00,0.0034
3074.00,0.0034
3073.00,0.0034
3072.00,0.0035
3071.00,0.0035
3070.00,0.0035
3069.00,0.0035
3068.00,0.0035
3067.00,0.0035
3066.00,0.0035
3065.00,0.0035
3064.00,0.0036
3063.00,0.0036
3062.00,0.0036
3061.00,0.0037
3060.00,0.0037
3059.00,0.0037
3058.00,0.0037
3057.00,0.0037
3056.00,0.0037
3055.00,0.0038
3054.00,0.0038
3053.00,0.0038
3052.00,0.0038
3051.00,0.0038
3050.00,0.0038
3049.00,0.0038
3048.00,0.0038
3047.00,0.0039
3046.00,0.0039
3045.00,0.0039
3044.00,0.0039
3043.00,0.0040
3042.00,0.0040
3041.00,0.0040
3040.00,0.0041
3039.00,0.0041
3038.00,0.0041
3037.00,0.0042
3036.00,0.0042
3035.00,0.0042
3034.00,0.0043
3033.00,0.0043
3032.00,0.0043
3031.00,0.0044
3030.00,0.0044
3029.00,0.0044
3028.00,0.0045
3027.00,0.0046
3026.00,0.0046
3025.00,0.0047
3024.00,0.0048
3023.00,0.0048
3022.00,0.0049
3021.00,0.0050
3020.00,0.0051
3019.00,0.0051
3018.00,0.0052
3017.00,0.0053
3016.00,0.0054
3015.00,0.0055
3014.00,0.0056
3013.00,0.0058
3012.00,0.0059
3011.00,0.0061
3010.00,0.0062
3009.00,0.0064
3008.00,0.0066
3007.00,0.0068
3006.00,0.0070
3005.00,0.0073
3004.00,0.0075
3003.00,0.0077
3002.00,0.0079
3001.00,0.0082
3000.00,0.0084
2999.00,0.0087
2998.00,0.0090
2997.00,0.0093
2996.00,0.0096
2995.00,0.0100
2994.00,0.0104
2993.00,0.0109
2992.00,0.0114
2991.00,0.0120
2990.00,0.0126
2989.00,0.0133
2988.00,0.0141
2987.00,0.0149
2986.00,0.0159
2985.00,0.0169
2984.00,0.0181
2983.00,0.0194
2982.00,0.0209
2981.00,0.0224
2980.00,0.0241
2979.00,0.0260
2978.00,0.0281
2977.00,0.0305
2976.00,0.0333
2975.00,0.0366
2974.00,0.0403
2973.00,0.0446
2972.00,0.0494
2971.00,0.0547
2970.00,0.0606
2969.00,0.0669
2968.00,0.0737
2967.00,0.0808
2966.00,0.0881
2965.00,0.0953
2964.00,0.1022
2963.00,0.1084
2962.00,0.1138
2961.00,0.1184
2960.00,0.1223
2959.00,0.1261
2958.00,0.1303
2957.00,0.1354
2956.00,0.1418
2955.00,0.1496
2954.00,0.1584
2953.00,0.1676
2952.00,0.1759
2951.00,0.1822
2950.00,0.1852
2949.00,0.1840
2948.00,0.1786
2947.00,0.1695
2946.00,0.1580
2945.00,0.1457
2944.00,0.1338
2943.00,0.1236
2942.00,0.1157
2941.00,0.1103
2940.00,0.1074
2939.00,0.1068
2938.00,0.1081
2937.00,0.1112
2936.00,0.1158
2935.00,0.1219
2934.00,0.1295
2933.00,0.1383
2932.00,0.1483
2931.00,0.1593
2930.00,0.1710
2929.00,0.1833
2928.00,0.1956
2927.00,0.2078
2926.00,0.2198
2925.00,0.2315
2924.00,0.2430
2923.00,0.2546
2922.00,0.2663
2921.00,0.2776
2920.00,0.2880
2919.00,0.2960
2918.00,0.3006
2917.00,0.3005
2916.00,0.2957
2915.00,0.2867
2914.00,0.2748
2913.00,0.2616
2912.00,0.2484
2911.00,0.2360
2910.00,0.2248
2909.00,0.2148
2908.00,0.2057
2907.00,0.1972
2906.00,0.1891
2905.00,0.1813
2904.00,0.1737
2903.00,0.1663
2902.00,0.1591
2901.00,0.1523
2900.00,0.1459
2899.00,0.1398
2898.00,0.1342
2897.00,0.1291
2896.00,0.1245
2895.00,0.1204
2894.00,0.1170
2893.00,0.1141
2892.00,0.1119
2891.00,0.1102
2890.00,0.1091
2889.00,0.1085
2888.00,0.1082
2887.00,0.1082
2886.00,0.1086
2885.00,0.1093
2884.00,0.1105
2883.00,0.1122
2882.00,0.1144
2881.00,0.1169
2880.00,0.1195
2879.00,0.1217
2878.00,0.1233
2877.00,0.1239
2876.00,0.1237
2875.00,0.1231
2874.00,0.1226
2873.00,0.1226
2872.00,0.1233
2871.00,0.1248
2870.00,0.1269
2869.00,0.1290
2868.00,0.1304
2867.00,0.1304
2866.00,0.1283
2865.00,0.1238
2864.00,0.1174
2863.00,0.1098
2862.00,0.1022
2861.00,0.0956
2860.00,0.0904
2859.00,0.0868
2858.00,0.0848
2857.00,0.0841
2856.00,0.0844
2855.00,0.0855
2854.00,0.0871
2853.00,0.0889
2852.00,0.0907
2851.00,0.0922
2850.00,0.0931
2849.00,0.0934
2848.00,0.0936
2847.00,0.0940
2846.00,0.0953
2845.00,0.0976
2844.00,0.1010
2843.00,0.1053
2842.00,0.1099
2841.00,0.1142
2840.00,0.1176
2839.00,0.1192
2838.00,0.1185
2837.00,0.1150
2836.00,0.1086
2835.00,0.1001
2834.00,0.0901
2833.00,0.0799
2832.00,0.0701
2831.00,0.0614
2830.00,0.0540
2829.00,0.0479
2828.00,0.0430
2827.00,0.0390
2826.00,0.0357
2825.00,0.0330
2824.00,0.0308
2823.00,0.0289
2822.00,0.0272
2821.00,0.0258
2820.00,0.0246
2819.00,0.0235
2818.00,0.0226
2817.00,0.0218
2816.00,0.0211
2815.00,0.0204
2814.00,0.0198
2813.00,0.0192
2812.00,0.0186
2811.00,0.0180
2810.00,0.0174
2809.00,0.0168
2808.00,0.0162
2807.00,0.0155
2806.00,0.0149
2805.00,0.0142
2804.00,0.0136
2803.00,0.0131
2802.00,0.0126
2801.00,0.0121
2800.00,0.0117
2799.00,0.0114
2798.00,0.0111
2797.00,0.0108
2796.00,0.0106
2795.00,0.0103
2794.00,0.0101
2793.00,0.0098
2792.00,0.0095
2791.00,0.0092
2790.00,0.0089
2789.00,0.0086
2788.00,0.0084
2787.00,0.0081
2786.00,0.0079
2785.00,0.0077
2784.00,0.0075
2783.00,0.0073
2782.00,0.0071
2781.00,0.0069
2780.00,0.0067
2779.00,0.0066
2778.00,0.0064
2777.00,0.0063
2776.00,0.0061
2775.00,0.0060
2774.00,0.0059
2773.00,0.0058
2772.00,0.0058
2771.00,0.0057
2770.00,0.0057
2769.00,0.0057
2768.00,0.0057
2767.00,0.0057
2766.00,0.0056
2765.00,0.0056
2764.00,0.0056
2763.00,0.0055
2762.00,0.0054
2761.00,0.0054
2760.00,0.0053
2759.00,0.0053
2758.00,0.0053
2757.00,0.0053
2756.00,0.0054
2755.00,0.0054
2754.00,0.0053
2753.00,0.0052
2752.00,0.0052
2751.00,0.0051
2750.00,0.0051
2749.00,0.0051
2748.00,0.0051
2747.00,0.0052
2746.00,0.0052
2745.00,0.0053
2744.00,0.0054
2743.00,0.0054
2742.00,0.0055
2741.00,0.0056
2740.00,0.0058
2739.00,0.0059
2738.00,0.0060
2737.00,0.0061
2736.00,0.0063
2735.00,0.0064
2734.00,0.0066
2733.00,0.0067
2732.00,0.0069
2731.00,0.0071
2730.00,0.0073
2729.00,0.0076
2728.00,0.0078
2727.00,0.0081
2726.00,0.0084
2725.00,0.0086
2724.00,0.0087
2723.00,0.0088
2722.00,0.0087
2721.00,0.0085
2720.00,0.0083
2719.00,0.0080
2718.00,0.0077
2717.00,0.0074
2716.00,0.0070
2715.00,0.0067
2714.00,0.0065
2713.00,0.0062
2712.00,0.0060
2711.00,0.0058
2710.00,0.0057
2709.00,0.0055
2708.00,0.0054
2707.00,0.0053
2706.00,0.0052
2705.00,0.0051
2704.00,0.0049
2703.00,0.0048
2702.00,0.0047
2701.00,0.0047
2700.00,0.0046
2699.00,0.0045
2698.00,0.0044
2697.00,0.0044
2696.00,0.0044
2695.00,0.0044
2694.00,0.0044
2693.00,0.0044
2692.00,0.0044
2691.00,0.0044
2690.00,0.0044
2689.00,0.0045
2688.00,0.0045
2687.00,0.0045
2686.00,0.0044
2685.00,0.0044
2684.00,0.0044
2683.00,0.0044
2682.00,0.0044
2681.00,0.0045
2680.00,0.0045
2679.00,0.0045
2678.00,0.0045
2677.00,0.0045
2676.00,0.0045
2675.00,0.0044
2674.00,0.0044
2673.00,0.0044
2672.00,0.0044
2671.00,0.0044
2670.00,0.0044
2669.00,0.0044
2668.00,0.0044
2667.00,0.0044
2666.00,0.0045
2665.00,0.0045
2664.00,0.0046
2663.00,0.0047
2662.00,0.0048
2661.00,0.0048
2660.00,0.0048
2659.00,0.0048
2658.00,0.0047
2657.00,0.0047
2656.00,0.0047
2655.00,0.0046
2654.00,0.0046
2653.00,0.0045
2652.00,0.0044
2651.00,0.0044
2650.00,0.0044
2649.00,0.0043
2648.00,0.0043
2647.00,0.0042
2646.00,0.0042
2645.00,0.0041
2644.00,0.0041
2643.00,0.0041
2642.00,0.0041
2641.00,0.0040
2640.00,0.0040
2639.00,0.0039
2638.00,0.0039
2637.00,0.0038
2636.00,0.0038
2635.00,0.0038
2634.00,0.0038
2633.00,0.0038
2632.00,0.0038
2631.00,0.0039
2630.00,0.0039
2629.00,0.0039
2628.00,0.0039
2627.00,0.0039
2626.00,0.0039
2625.00,0.0039
2624.00,0.0040
2623.00,0.0040
2622.00,0.0040
2621.00,0.0040
2620.00,0.0040
2619.00,0.0040
2618.00,0.0040
2617.00,0.0039
2616.00,0.0039
2615.00,0.0039
2614.00,0.0039
2613.00,0.0038
2612.00,0.0038
2611.00,0.0037
2610.00,0.0037
2609.00,0.0036
2608.00,0.0036
2607.00,0.0036
2606.00,0.0035
2605.00,0.0034
2604.00,0.0033
2603.00,0.0033
2602.00,0.0032
2601.00,0.0032
2600.00,0.0032
2599.00,0.0032
2598.00,0.0032
2597.00,0.0032
2596.00,0.0032
2595.00,0.0032
2594.00,0.0033
2593.00,0.0033
2592.00,0.0034
2591.00,0.0034
2590.00,0.0034
2589.00,0.0035
2588.00,0.0035
2587.00,0.0036
2586.00,0.0037
2585.00,0.0038
2584.00,0.0039
2583.00,0.0040
2582.00,0.0039
2581.00,0.0038
2580.00,0.0037
2579.00,0.0036
2578.00,0.0036
2577.00,0.0035
2576.00,0.0034
2575.00,0.0034
2574.00,0.0032
2573.00,0.0031
2572.00,0.0030
2571.00,0.0029
2570.00,0.0028
2569.00,0.0027
2568.00,0.0027
2567.00,0.0026
2566.00,0.0025
2565.00,0.0025
2564.00,0.0024
2563.00,0.0024
2562.00,0.0024
2561.00,0.0024
2560.00,0.0023
2559.00,0.0023
2558.00,0.0022
2557.00,0.0021
2556.00,0.0021
2555.00,0.0021
2554.00,0.0022
2553.00,0.0022
2552.00,0.0022
2551.00,0.0021
2550.00,0.0021
2549.00,0.0020
2548.00,0.0019
2547.00,0.0019
2546.00,0.0018
2545.00,0.0018
2544.00,0.0018
2543.00,0.0018
2542.00,0.0018
2541.00,0.0017
2540.00,0.0017
2539.00,0.0016
2538.00,0.0015
2537.00,0.0015
2536.00,0.0015
2535.00,0.0015
2534.00,0.0016
2533.00,0.0015
2532.00,0.0015
2531.00,0.0014
2530.00,0.0014
2529.00,0.0014
2528.00,0.0014
2527.00,0.0014
2526.00,0.0014
2525.00,0.0014
2524.00,0.0014
2523.00,0.0013
2522.00,0.0013
2521.00,0.0012
2520.00,0.0012
2519.00,0.0012
2518.00,0.0011
2517.00,0.0010
2516.00,0.0010
2515.00,0.0009
2514.00,0.0010
2513.00,0.0010
2512.00,0.0011
2511.00,0.0011
2510.00,0.0010
2509.00,0.0010
2508.00,0.0010
2507.00,0.0010
2506.00,0.0009
2505.00,0.0009
2504.00,0.0009
2503.00,0.0008
2502.00,0.0008
2501.00,0.0008
2500.00,0.0009
2499.00,0.0009
2498.00,0.0009
2497.00,0.0009
2496.00,0.0009
2495.00,0.0010
2494.00,0.0010
2493.00,0.0011
2492.00,0.0012
2491.00,0.0012
2490.00,0.0011
2489.00,0.0011
2488.00,0.0011
2487.00,0.0010
2486.00,0.0010
2485.00,0.0009
2484.00,0.0008
2483.00,0.0008
2482.00,0.0008
2481.00,0.0008
2480.00,0.0008
2479.00,0.0009
2478.00,0.0009
2477.00,0.0010
2476.00,0.0010
2475.00,0.0010
2474.00,0.0010
2473.00,0.0009
2472.00,0.0009
2471.00,0.0009
2470.00,0.0009
2469.00,0.0008
2468.00,0.0008
2467.00,0.0008
2466.00,0.0008
2465.00,0.0009
2464.00,0.0009
2463.00,0.0009
2462.00,0.0010
2461.00,0.0010
2460.00,0.0010
2459.00,0.0011
2458.00,0.0012
2457.00,0.0012
2456.00,0.0012
2455.00,0.0011
2454.00,0.0011
2453.00,0.0011
2452.00,0.0011
2451.00,0.0011
2450.00,0.0010
2449.00,0.0010
2448.00,0.0010
2447.00,0.0011
2446.00,0.0011
2445.00,0.0011
2444.00,0.0011
2443.00,0.0010
2442.00,0.0009
2441.00,0.0009
2440.00,0.0009
2439.00,0.0010
2438.00,0.0010
2437.00,0.0011
2436.00,0.0011
2435.00,0.0011
2434.00,0.0011
2433.00,0.0012
2432.00,0.0012
2431.00,0.0012
2430.00,0.0012
2429.00,0.0012
2428.00,0.0011
2427.00,0.0011
2426.00,0.0010
2425.00,0.0010
2424.00,0.0010
2423.00,0.0010
2422.00,0.0010
2421.00,0.0010
2420.00,0.0010
2419.00,0.0010
2418.00,0.0009
2417.00,0.0009
2416.00,0.0009
2415.00,0.0009
2414.00,0.0010
2413.00,0.0010
2412.00,0.0011
2411.00,0.0010
2410.00,0.0010
2409.00,0.0009
2408.00,0.0008
2407.00,0.0008
2406.00,0.0008
2405.00,0.0009
2404.00,0.0009
2403.00,0.0009
2402.00,0.0009
2401.00,0.0009
2400.00,0.0008
2399.00,0.0008
2398.00,0.0007
2397.00,0.0007
2396.00,0.0007
2395.00,0.0007
2394.00,0.0007
2393.00,0.0007
2392.00,0.0007
2391.00,0.0007
2390.00,0.0007
2389.00,0.0007
2388.00,0.0007
2387.00,0.0007
2386.00,0.0007
2385.00,0.0007
2384.00,0.0006
2383.00,0.0005
2382.00,0.0005
2381.00,0.0004
2380.00,0.0004
2379.00,0.0004
2378.00,0.0004
2377.00,0.0004
2376.00,0.0004
2375.00,0.0004
2374.00,0.0004
2373.00,0.0004
2372.00,0.0004
2371.00,0.0004
2370.00,0.0004
2369.00,0.0003
2368.00,0.0003
2367.00,0.0002
2366.00,0.0001
2365.00,0.0001
2364.00,0.0001
2363.00,0.0002
2362.00,0.0003
2361.00,0.0003
2360.00,0.0004
2359.00,0.0004
2358.00,0.0004
2357.00,0.0004
2356.00,0.0004
2355.00,0.0004
2354.00,0.0005
2353.00,0.0004
2352.00,0.0003
2351.00,0.0003
2350.00,0.0003
2349.00,0.0004
2348.00,0.0005
2347.00,0.0006
2346.00,0.0007
2345.00,0.0006
2344.00,0.0006
2343.00,0.0006
2342.00,0.0006
2341.00,0.0007
2340.00,0.0007
2339.00,0.0007
2338.00,0.0007
2337.00,0.0007
2336.00,0.0008
2335.00,0.0008
2334.00,0.0009
2333.00,0.0008
2332.00,0.0008
2331.00,0.0006
2330.00,0.0006
2329.00,0.0006
2328.00,0.0007
2327.00,0.0011
2326.00,0.0015
2325.00,0.0019
2324.00,0.0021
2323.00,0.0020
2322.00,0.0017
2321.00,0.0015
2320.00,0.0013
2319.00,0.0013
2318.00,0.0012
2317.00,0.0012
2316.00,0.0011
2315.00,0.0011
2314.00,0.0010
2313.00,0.0008
2312.00,0.0007
2311.00,0.0006
2310.00,0.0006
2309.00,0.0006
2308.00,0.0006
2307.00,0.0007
2306.00,0.0007
2305.00,0.0008
2304.00,0.0009
2303.00,0.0009
2302.00,0.0009
2301.00,0.0009
2300.00,0.0009
2299.00,0.0008
2298.00,0.0009
2297.00,0.0009
2296.00,0.0010
2295.00,0.0011
2294.00,0.0012
2293.00,0.0013
2292.00,0.0014
2291.00,0.0016
2290.00,0.0017
2289.00,0.0018
2288.00,0.0019
2287.00,0.0019
2286.00,0.0020
2285.00,0.0020
2284.00,0.0020
2283.00,0.0019
2282.00,0.0018
2281.00,0.0017
2280.00,0.0017
2279.00,0.0016
2278.00,0.0016
2277.00,0.0015
2276.00,0.0014
2275.00,0.0014
2274.00,0.0015
2273.00,0.0016
2272.00,0.0016
2271.00,0.0016
2270.00,0.0014
2269.00,0.0014
2268.00,0.0013
2267.00,0.0012
2266.00,0.0010
2265.00,0.0010
2264.00,0.0010
2263.00,0.0011
2262.00,0.0012
2261.00,0.0013
2260.00,0.0013
2259.00,0.0012
2258.00,0.0012
2257.00,0.0012
2256.00,0.0012
2255.00,0.0011
2254.00,0.0009
2253.00,0.0006
2252.00,0.0005
2251.00,0.0005
2250.00,0.0006
2249.00,0.0008
2248.00,0.0009
2247.00,0.0010
2246.00,0.0010
2245.00,0.0009
2244.00,0.0008
2243.00,0.0006
2242.00,0.0005
2241.00,0.0005
2240.00,0.0006
2239.00,0.0008
2238.00,0.0009
2237.00,0.0010
2236.00,0.0011
2235.00,0.0011
2234.00,0.0011
2233.00,0.0012
2232.00,0.0012
2231.00,0.0011
2230.00,0.0010
2229.00,0.0009
2228.00,0.0008
2227.00,0.0008
2226.00,0.0007
2225.00,0.0007
2224.00,0.0007
2223.00,0.0008
2222.00,0.0009
2221.00,0.0010
2220.00,0.0009
2219.00,0.0008
2218.00,0.0006
2217.00,0.0006
2216.00,0.0005
2215.00,0.0006
2214.00,0.0008
2213.00,0.0009
2212.00,0.0010
2211.00,0.0010
2210.00,0.0009
2209.00,0.0008
2208.00,0.0006
2207.00,0.0006
2206.00,0.0007
2205.00,0.0008
2204.00,0.0009
2203.00,0.0009
2202.00,0.0009
2201.00,0.0009
2200.00,0.0010
2199.00,0.0011
2198.00,0.0012
2197.00,0.0011
2196.00,0.0011
2195.00,0.0011
2194.00,0.0011
2193.00,0.0012
2192.00,0.0012
2191.00,0.0012
2190.00,0.0013
2189.00,0.0014
2188.00,0.0015
2187.00,0.0013
2186.00,0.0010
2185.00,0.0007
2184.00,0.0003
2183.00,0.0001
2182.00,0.0000
2181.00,0.0002
2180.00,0.0004
2179.00,0.0007
2178.00,0.0007
2177.00,0.0006
2176.00,0.0002
2175.00,-0.0000
2174.00,-0.0001
2173.00,0.0001
2172.00,0.0005
2171.00,0.0008
2170.00,0.0010
2169.00,0.0012
2168.00,0.0013
2167.00,0.0014
2166.00,0.0014
2165.00,0.0016
2164.00,0.0018
2163.00,0.0021
2162.00,0.0022
2161.00,0.0017
2160.00,0.0003
2159.00,-0.0014
2158.00,-0.0027
2157.00,-0.0032
2156.00,-0.0031
2155.00,-0.0027
2154.00,-0.0024
2153.00,-0.0021
2152.00,-0.0018
2151.00,-0.0016
2150.00,-0.0015
2149.00,-0.0014
2148.00,-0.0014
2147.00,-0.0015
2146.00,-0.0016
2145.00,-0.0016
2144.00,-0.0015
2143.00,-0.0014
2142.00,-0.0014
2141.00,-0.0014
2140.00,-0.0014
2139.00,-0.0013
2138.00,-0.0013
2137.00,-0.0014
2136.00,-0.0015
2135.00,-0.0017
2134.00,-0.0019
2133.00,-0.0019
2132.00,-0.0018
2131.00,-0.0016
2130.00,-0.0013
2129.00,-0.0010
2128.00,-0.0009
2127.00,-0.0009
2126.00,-0.0009
2125.00,-0.0009
2124.00,-0.0008
2123.00,-0.0006
2122.00,-0.0004
2121.00,-0.0003
2120.00,-0.0002
2119.00,-0.0002
2118.00,-0.0001
2117.00,0.0001
2116.00,0.0003
2115.00,0.0004
2114.00,0.0005
2113.00,0.0006
2112.00,0.0005
2111.00,0.0005
2110.00,0.0004
2109.00,0.0003
2108.00,0.0002
2107.00,0.0002
2106.00,0.0002
2105.00,0.0002
2104.00,0.0001
2103.00,0.0000
2102.00,-0.0000
2101.00,0.0000
2100.00,0.0001
2099.00,0.0001
2098.00,0.0002
2097.00,0.0001
2096.00,0.0001
2095.00,-0.0000
2094.00,-0.0001
2093.00,-0.0001
2092.00,-0.0000
2091.00,0.0000
2090.00,0.0001
2089.00,0.0002
2088.00,0.0002
2087.00,0.0002
2086.00,0.0001
2085.00,0.0001
2084.00,0.0002
2083.00,0.0003
2082.00,0.0004
2081.00,0.0006
2080.00,0.0007
2079.00,0.0009
2078.00,0.0009
2077.00,0.0008
2076.00,0.0006
2075.00,0.0005
2074.00,0.0004
2073.00,0.0004
2072.00,0.0003
2071.00,0.0003
2070.00,0.0003
2069.00,0.0003
2068.00,0.0002
2067.00,0.0001
2066.00,-0.0000
2065.00,-0.0000
2064.00,0.0001
2063.00,0.0001
2062.00,0.0002
2061.00,0.0001
2060.00,0.0001
2059.00,0.0001
2058.00,0.0001
2057.00,0.0002
2056.00,0.0002
2055.00,0.0001
2054.00,0.0001
2053.00,0.0004
2052.00,0.0008
2051.00,0.0010
2050.00,0.0009
2049.00,0.0007
2048.00,0.0006
2047.00,0.0006
2046.00,0.0006
2045.00,0.0006
2044.00,0.0007
2043.00,0.0009
2042.00,0.0011
2041.00,0.0011
2040.00,0.0009
2039.00,0.0007
2038.00,0.0005
2037.00,0.0005
2036.00,0.0005
2035.00,0.0006
2034.00,0.0006
2033.00,0.0005
2032.00,0.0002
2031.00,-0.0003
2030.00,-0.0008
2029.00,-0.0012
2028.00,-0.0014
2027.00,-0.0014
2026.00,-0.0012
2025.00,-0.0010
2024.00,-0.0008
2023.00,-0.0007
2022.00,-0.0006
2021.00,-0.0004
2020.00,-0.0003
2019.00,-0.0002
2018.00,-0.0002
2017.00,-0.0000
2016.00,0.0001
2015.00,0.0001
2014.00,-0.0001
2013.00,-0.0003
2012.00,-0.0006
2011.00,-0.0008
2010.00,-0.0010
2009.00,-0.0012
2008.00,-0.0014
2007.00,-0.0015
2006.00,-0.0014
2005.00,-0.0013
2004.00,-0.0012
2003.00,-0.0013
2002.00,-0.0013
2001.00,-0.0012
2000.00,-0.0010
1999.00,-0.0008
1998.00,-0.0007
1997.00,-0.0007
1996.00,-0.0007
1995.00,-0.0008
1994.00,-0.0007
1993.00,-0.0006
1992.00,-0.0003
1991.00,-0.0001
1990.00,0.0002
1989.00,0.0004
1988.00,0.0005
1987.00,0.0004
1986.00,0.0001
1985.00,-0.0001
1984.00,-0.0001
1983.00,-0.0000
1982.00,0.0002
1981.00,0.0005
1980.00,0.0005
1979.00,0.0002
1978.00,-0.0003
1977.00,-0.0008
1976.00,-0.0011
1975.00,-0.0012
1974.00,-0.0010
1973.00,-0.0007
1972.00,-0.0006
1971.00,-0.0006
1970.00,-0.0007
1969.00,-0.0007
1968.00,-0.0005
1967.00,-0.0004
1966.00,-0.0004
1965.00,-0.0005
1964.00,-0.0006
1963.00,-0.0008
1962.00,-0.0010
1961.00,-0.0012
1960.00,-0.0013
1959.00,-0.0015
1958.00,-0.0016
1957.00,-0.0016
1956.00,-0.0015
1955.00,-0.0014
1954.00,-0.0013
1953.00,-0.0013
1952.00,-0.0013
1951.00,-0.0013
1950.00,-0.0013
1949.00,-0.0013
1948.00,-0.0014
1947.00,-0.0015
1946.00,-0.0016
1945.00,-0.0016
1944.00,-0.0016
1943.00,-0.0015
1942.00,-0.0014
1941.00,-0.0012
1940.00,-0.0011
1939.00,-0.0010
1938.00,-0.0010
1937.00,-0.0011
1936.00,-0.0011
1935.00,-0.0012
1934.00,-0.0012
1933.00,-0.0011
1932.00,-0.0010
1931.00,-0.0009
1930.00,-0.0007
1929.00,-0.0006
1928.00,-0.0005
1927.00,-0.0004
1926.00,-0.0004
1925.00,-0.0005
1924.00,-0.0005
1923.00,-0.0005
1922.00,-0.0004
1921.00,-0.0004
1920.00,-0.0003
1919.00,-0.0003
1918.00,-0.0003
1917.00,-0.0002
1916.00,-0.0001
1915.00,-0.0001
1914.00,-0.0002
1913.00,-0.0002
1912.00,-0.0003
1911.00,-0.0003
1910.00,-0.0004
1909.00,-0.0004
1908.00,-0.0004
1907.00,-0.0004
1906.00,-0.0003
1905.00,-0.0002
1904.00,-0.0001
1903.00,-0.0001
1902.00,-0.0002
1901.00,-0.0002
1900.00,-0.0002
1899.00,-0.0002
1898.00,-0.0002
1897.00,-0.0001
1896.00,0.0000
1895.00,0.0002
1894.00,0.0003
1893.00,0.0004
1892.00,0.0003
1891.00,0.0002
1890.00,0.0001
1889.00,0.0000
1888.00,-0.0001
1887.00,-0.0001
1886.00,-0.0001
1885.00,-0.0001
1884.00,-0.0000
1883.00,-0.0000
1882.00,-0.0001
1881.00,-0.0001
1880.00,-0.0001
1879.00,-0.0001
1878.00,-0.0001
1877.00,-0.0001
1876.00,-0.0000
1875.00,0.0000
1874.00,0.0000
1873.00,0.0000
1872.00,0.0001
1871.00,0.0001
1870.00,0.0000
1869.00,0.0000
1868.00,0.0000
1867.00,0.0000
1866.00,-0.0000
1865.00,-0.0000
1864.00,-0.0000
1863.00,0.0000
1862.00,0.0001
1861.00,0.0002
1860.00,0.0002
1859.00,0.0002
1858.00,0.0002
1857.00,0.0002
1856.00,0.0001
1855.00,0.0001
1854.00,0.0001
1853.00,0.0001
1852.00,0.0002
1851.00,0.0002
1850.00,0.0002
1849.00,0.0003
1848.00,0.0003
1847.00,0.0003
1846.00,0.0002
1845.00,0.0001
1844.00,0.0001
1843.00,0.0002
1842.00,0.0002
1841.00,0.0002
1840.00,0.0002
1839.00,0.0002
1838.00,0.0003
1837.00,0.0003
1836.00,0.0003
1835.00,0.0003
1834.00,0.0003
1833.00,0.0003
1832.00,0.0003
1831.00,0.0004
1830.00,0.0004
1829.00,0.0004
1828.00,0.0004
1827.00,0.0004
1826.00,0.0003
1825.00,0.0003
1824.00,0.0003
1823.00,0.0003
1822.00,0.0003
1821.00,0.0003
1820.00,0.0003
1819.00,0.0002
1818.00,0.0001
1817.00,0.0000
1816.00,0.0000
1815.00,0.0000
1814.00,0.0001
1813.00,0.0002
1812.00,0.0003
1811.00,0.0003
1810.00,0.0003
1809.00,0.0003
1808.00,0.0003
1807.00,0.0003
1806.00,0.0004
1805.00,0.0005
1804.00,0.0005
1803.00,0.0004
1802.00,0.0004
1801.00,0.0004
1800.00,0.0005
1799.00,0.0005
1798.00,0.0006
1797.00,0.0007
1796.00,0.0007
1795.00,0.0006
1794.00,0.0006
1793.00,0.0005
1792.00,0.0005
1791.00,0.0006
1790.00,0.0007
1789.00,0.0007
1788.00,0.0008
1787.00,0.0008
1786.00,0.0008
1785.00,0.0008
1784.00,0.0008
1783.00,0.0009
1782.00,0.0009
1781.00,0.0010
1780.00,0.0010
1779.00,0.0009
1778.00,0.0009
1777.00,0.0008
1776.00,0.0008
1775.00,0.0008
1774.00,0.0009
1773.00,0.0009
1772.00,0.0010
1771.00,0.0010
1770.00,0.0010
1769.00,0.0010
1768.00,0.0010
1767.00,0.0010
1766.00,0.0010
1765.00,0.0011
1764.00,0.0012
1763.00,0.0012
1762.00,0.0013
1761.00,0.0013
1760.00,0.0012
1759.00,0.0012
1758.00,0.0012
1757.00,0.0012
1756.00,0.0013
1755.00,0.0013
1754.00,0.0013
1753.00,0.0014
1752.00,0.0014
1751.00,0.0014
1750.00,0.0015
1749.00,0.0015
1748.00,0.0016
1747.00,0.0017
1746.00,0.0017
1745.00,0.0018
1744.00,0.0018
1743.00,0.0018
1742.00,0.0019
1741.00,0.0019
1740.00,0.0019
1739.00,0.0019
1738.00,0.0020
1737.00,0.0020
1736.00,0.0020
1735.00,0.0020
1734.00,0.0021
1733.00,0.0022
1732.00,0.0022
1731.00,0.0022
1730.00,0.0021
1729.00,0.0021
1728.00,0.0022
1727.00,0.0022
1726.00,0.0023
1725.00,0.0023
1724.00,0.0023
1723.00,0.0023
1722.00,0.0023
1721.00,0.0023
1720.00,0.0024
1719.00,0.0024
1718.00,0.0024
1717.00,0.0025
1716.00,0.0024
1715.00,0.0024
1714.00,0.0024
1713.00,0.0024
1712.00,0.0024
1711.00,0.0024
1710.00,0.0024
1709.00,0.0024
1708.00,0.0024
1707.00,0.0024
1706.00,0.0024
1705.00,0.0025
1704.00,0.0026
1703.00,0.0027
1702.00,0.0027
1701.00,0.0028
1700.00,0.0028
1699.00,0.0028
1698.00,0.0028
1697.00,0.0028
1696.00,0.0029
1695.00,0.0029
1694.00,0.0030
1693.00,0.0030
1692.00,0.0031
1691.00,0.0031
1690.00,0.0032
1689.00,0.0032
1688.00,0.0033
1687.00,0.0034
1686.00,0.0034
1685.00,0.0034
1684.00,0.0035
1683.00,0.0036
1682.00,0.0037
1681.00,0.0038
1680.00,0.0040
1679.00,0.0041
1678.00,0.0042
1677.00,0.0043
1676.00,0.0044
1675.00,0.0045
1674.00,0.0046
1673.00,0.0046
1672.00,0.0047
1671.00,0.0047
1670.00,0.0048
1669.00,0.0049
1668.00,0.0050
1667.00,0.0051
1666.00,0.0051
1665.00,0.0051
1664.00,0.0051
1663.00,0.0051
1662.00,0.0051
1661.00,0.0052
1660.00,0.0053
1659.00,0.0054
1658.00,0.0055
1657.00,0.0055
1656.00,0.0056
1655.00,0.0056
1654.00,0.0057
1653.00,0.0059
1652.00,0.0061
1651.00,0.0062
1650.00,0.0063
1649.00,0.0064
1648.00,0.0065
1647.00,0.0067
1646.00,0.0068
1645.00,0.0068
1644.00,0.0069
1643.00,0.0070
1642.00,0.0071
1641.00,0.0072
1640.00,0.0073
1639.00,0.0074
1638.00,0.0074
1637.00,0.0074
1636.00,0.0074
1635.00,0.0073
1634.00,0.0072
1633.00,0.0071
1632.00,0.0071
1631.00,0.0070
1630.00,0.0070
1629.00,0.0069
1628.00,0.0068
1627.00,0.0068
1626.00,0.0067
1625.00,0.0066
1624.00,0.0066
1623.00,0.0065
1622.00,0.0064
1621.00,0.0064
1620.00,0.0064
1619.00,0.0064
1618.00,0.0064
1617.00,0.0064
1616.00,0.0063
1615.00,0.0063
1614.00,0.0063
1613.00,0.0063
1612.00,0.0063
1611.00,0.0063
1610.00,0.0063
1609.00,0.0063
1608.00,0.0063
1607.00,0.0062
1606.00,0.0062
1605.00,0.0061
1604.00,0.0061
1603.00,0.0061
1602.00,0.0060
1601.00,0.0060
1600.00,0.0060
1599.00,0.0059
1598.00,0.0059
1597.00,0.0059
1596.00,0.0059
1595.00,0.0058
1594.00,0.0058
1593.00,0.0058
1592.00,0.0057
1591.00,0.0057
1590.00,0.0057
1589.00,0.0057
1588.00,0.0057
1587.00,0.0057
1586.00,0.0056
1585.00,0.0056
1584.00,0.0056
1583.00,0.0056
1582.00,0.0056
1581.00,0.0056
1580.00,0.0057
1579.00,0.0057
1578.00,0.0058
1577.00,0.0058
1576.00,0.0059
1575.00,0.0059
1574.00,0.0059
1573.00,0.0060
1572.00,0.0060
1571.00,0.0061
1570.00,0.0062
1569.00,0.0062
1568.00,0.0063
1567.00,0.0063
1566.00,0.0063
1565.00,0.0064
1564.00,0.0064
1563.00,0.0065
1562.00,0.0065
1561.00,0.0065
1560.00,0.0065
1559.00,0.0066
1558.00,0.0067
1557.00,0.0068
1556.00,0.0069
1555.00,0.0070
1554.00,0.0070
1553.00,0.0071
1552.00,0.0072
1551.00,0.0072
1550.00,0.0071
1549.00,0.0071
1548.00,0.0072
1547.00,0.0072
1546.00,0.0072
1545.00,0.0072
1544.00,0.0072
1543.00,0.0072
1542.00,0.0071
1541.00,0.0070
1540.00,0.0068
1539.00,0.0066
1538.00,0.0065
1537.00,0.0064
1536.00,0.0064
1535.00,0.0062
1534.00,0.0060
1533.00,0.0058
1532.00,0.0058
1531.00,0.0057
1530.00,0.0057
1529.00,0.0057
1528.00,0.0057
1527.00,0.0057
1526.00,0.0056
1525.00,0.0056
1524.00,0.0056
1523.00,0.0056
1522.00,0.0056
1521.00,0.0055
1520.00,0.0056
1519.00,0.0056
1518.00,0.0056
1517.00,0.0057
1516.00,0.0057
1515.00,0.0057
1514.00,0.0057
1513.00,0.0058
1512.00,0.0058
1511.00,0.0059
1510.00,0.0060
1509.00,0.0061
1508.00,0.0063
1507.00,0.0063
1506.00,0.0063
1505.00,0.0065
1504.00,0.0067
1503.00,0.0069
1502.00,0.0071
1501.00,0.0074
1500.00,0.0078
1499.00,0.0080
1498.00,0.0083
1497.00,0.0087
1496.00,0.0091
1495.00,0.0096
1494.00,0.0099
1493.00,0.0104
1492.00,0.0108
1491.00,0.0112
1490.00,0.0116
1489.00,0.0121
1488.00,0.0127
1487.00,0.0132
1486.00,0.0137
1485.00,0.0143
1484.00,0.0149
1483.00,0.0156
1482.00,0.0164
1481.00,0.0174
1480.00,0.0186
1479.00,0.0198
1478.00,0.0213
1477.00,0.0233
1476.00,0.0259
1475.00,0.0290
1474.00,0.0332
1473.00,0.0391
1472.00,0.0460
1471.00,0.0527
1470.00,0.0591
1469.00,0.0659
1468.00,0.0732
1467.00,0.0812
1466.00,0.0903
1465.00,0.1000
1464.00,0.1084
1463.00,0.1142
1462.00,0.1176
1461.00,0.1198
1460.00,0.1211
1459.00,0.1217
1458.00,0.1218
1457.00,0.1215
1456.00,0.1203
1455.00,0.1187
1454.00,0.1169
1453.00,0.1146
1452.00,0.1114
1451.00,0.1072
1450.00,0.1017
1449.00,0.0944
1448.00,0.0854
1447.00,0.0761
1446.00,0.0680
1445.00,0.0611
1444.00,0.0553
1443.00,0.0506
1442.00,0.0471
1441.00,0.0447
1440.00,0.0432
1439.00,0.0428
1438.00,0.0431
1437.00,0.0436
1436.00,0.0431
1435.00,0.0409
1434.00,0.0374
1433.00,0.0330
1432.00,0.0283
1431.00,0.0242
1430.00,0.0210
1429.00,0.0187
1428.00,0.0171
1427.00,0.0161
1426.00,0.0155
1425.00,0.0149
1424.00,0.0143
1423.00,0.0140
1422.00,0.0138
1421.00,0.0135
1420.00,0.0132
1419.00,0.0130
1418.00,0.0128
1417.00,0.0125
1416.00,0.0123
1415.00,0.0122
1414.00,0.0121
1413.00,0.0120
1412.00,0.0118
1411.00,0.0117
1410.00,0.0117
1409.00,0.0116
1408.00,0.0115
1407.00,0.0115
1406.00,0.0116
1405.00,0.0116
1404.00,0.0116
1403.00,0.0117
1402.00,0.0119
1401.00,0.0121
1400.00,0.0122
1399.00,0.0124
1398.00,0.0126
1397.00,0.0127
1396.00,0.0129
1395.00,0.0133
1394.00,0.0139
1393.00,0.0144
1392.00,0.0149
1391.00,0.0157
1390.00,0.0167
1389.00,0.0180
1388.00,0.0200
1387.00,0.0230
1386.00,0.0271
1385.00,0.0326
1384.00,0.0402
1383.00,0.0511
1382.00,0.0660
1381.00,0.0856
1380.00,0.1104
1379.00,0.1394
1378.00,0.1685
1377.00,0.1909
1376.00,0.1999
1375.00,0.1913
1374.00,0.1677
1373.00,0.1383
1372.00,0.1111
1371.00,0.0886
1370.00,0.0707
1369.00,0.0572
1368.00,0.0480
1367.00,0.0424
1366.00,0.0393
1365.00,0.0381
1364.00,0.0383
1363.00,0.0398
1362.00,0.0420
1361.00,0.0445
1360.00,0.0464
1359.00,0.0471
1358.00,0.0460
1357.00,0.0433
1356.00,0.0395
1355.00,0.0352
1354.00,0.0311
1353.00,0.0277
1352.00,0.0249
1351.00,0.0226
1350.00,0.0207
1349.00,0.0192
1348.00,0.0180
1347.00,0.0170
1346.00,0.0162
1345.00,0.0155
1344.00,0.0149
1343.00,0.0143
1342.00,0.0138
1341.00,0.0133
1340.00,0.0129
1339.00,0.0126
1338.00,0.0124
1337.00,0.0123
1336.00,0.0124
1335.00,0.0126
1334.00,0.0129
1333.00,0.0133
1332.00,0.0137
1331.00,0.0141
1330.00,0.0142
1329.00,0.0140
1328.00,0.0137
1327.00,0.0132
1326.00,0.0126
1325.00,0.0119
1324.00,0.0113
1323.00,0.0108
1322.00,0.0104
1321.00,0.0101
1320.00,0.0099
1319.00,0.0098
1318.00,0.0096
1317.00,0.0094
1316.00,0.0093
1315.00,0.0092
1314.00,0.0091
1313.00,0.0092
1312.00,0.0093
1311.00,0.0095
1310.00,0.0098
1309.00,0.0102
1308.00,0.0108
1307.00,0.0115
1306.00,0.0122
1305.00,0.0128
1304.00,0.0130
1303.00,0.0130
1302.00,0.0128
1301.00,0.0127
1300.00,0.0127
1299.00,0.0128
1298.00,0.0130
1297.00,0.0131
1296.00,0.0131
1295.00,0.0129
1294.00,0.0126
1293.00,0.0121
1292.00,0.0116
1291.00,0.0110
1290.00,0.0105
1289.00,0.0102
1288.00,0.0099
1287.00,0.0096
1286.00,0.0094
1285.00,0.0093
1284.00,0.0091
1283.00,0.0089
1282.00,0.0087
1281.00,0.0087
1280.00,0.0086
1279.00,0.0085
1278.00,0.0084
1277.00,0.0084
1276.00,0.0083
1275.00,0.0083
1274.00,0.0083
1273.00,0.0083
1272.00,0.0084
1271.00,0.0085
1270.00,0.0086
1269.00,0.0088
1268.00,0.0090
1267.00,0.0093
1266.00,0.0095
1265.00,0.0099
1264.00,0.0102
1263.00,0.0106
1262.00,0.0109
1261.00,0.0112
1260.00,0.0115
1259.00,0.0118
1258.00,0.0121
1257.00,0.0123
1256.00,0.0124
1255.00,0.0123
1254.00,0.0119
1253.00,0.0114
1252.00,0.0108
1251.00,0.0104
1250.00,0.0100
1249.00,0.0097
1248.00,0.0095
1247.00,0.0093
1246.00,0.0092
1245.00,0.0090
1244.00,0.0089
1243.00,0.0087
1242.00,0.0086
1241.00,0.0085
1240.00,0.0084
1239.00,0.0083
1238.00,0.0082
1237.00,0.0082
1236.00,0.0081
1235.00,0.0081
1234.00,0.0081
1233.00,0.0082
1232.00,0.0082
1231.00,0.0082
1230.00,0.0082
1229.00,0.0082
1228.00,0.0084
1227.00,0.0086
1226.00,0.0088
1225.00,0.0092
1224.00,0.0095
1223.00,0.0099
1222.00,0.0102
1221.00,0.0105
1220.00,0.0107
1219.00,0.0107
1218.00,0.0105
1217.00,0.0103
1216.00,0.0100
1215.00,0.0096
1214.00,0.0093
1213.00,0.0090
1212.00,0.0087
1211.00,0.0084
1210.00,0.0082
1209.00,0.0080
1208.00,0.0079
1207.00,0.0078
1206.00,0.0077
1205.00,0.0077
1204.00,0.0076
1203.00,0.0075
1202.00,0.0075
1201.00,0.0074
1200.00,0.0073
1199.00,0.0073
1198.00,0.0073
1197.00,0.0072
1196.00,0.0072
1195.00,0.0072
1194.00,0.0073
1193.00,0.0073
1192.00,0.0073
1191.00,0.0073
1190.00,0.0073
1189.00,0.0072
1188.00,0.0072
1187.00,0.0072
1186.00,0.0072
1185.00,0.0073
1184.00,0.0075
1183.00,0.0076
1182.00,0.0078
1181.00,0.0079
1180.00,0.0082
1179.00,0.0085
1178.00,0.0090
1177.00,0.0097
1176.00,0.0104
1175.00,0.0114
1174.00,0.0127
1173.00,0.0144
1172.00,0.0165
1171.00,0.0188
1170.00,0.0210
1169.00,0.0228
1168.00,0.0240
1167.00,0.0243
1166.00,0.0240
1165.00,0.0233
1164.00,0.0225
1163.00,0.0216
1162.00,0.0209
1161.00,0.0203
1160.00,0.0200
1159.00,0.0197
1158.00,0.0196
1157.00,0.0196
1156.00,0.0197
1155.00,0.0198
1154.00,0.0198
1153.00,0.0198
1152.00,0.0195
1151.00,0.0191
1150.00,0.0184
1149.00,0.0176
1148.00,0.0168
1147.00,0.0159
1146.00,0.0150
1145.00,0.0142
1144.00,0.0134
1143.00,0.0128
1142.00,0.0123
1141.00,0.0118
1140.00,0.0113
1139.00,0.0109
1138.00,0.0106
1137.00,0.0104
1136.00,0.0102
1135.00,0.0100
1134.00,0.0099
1133.00,0.0099
1132.00,0.0098
1131.00,0.0097
1130.00,0.0097
1129.00,0.0097
1128.00,0.0098
1127.00,0.0099
1126.00,0.0100
1125.00,0.0101
1124.00,0.0102
1123.00,0.0104
1122.00,0.0105
1121.00,0.0107
1120.00,0.0109
1119.00,0.0111
1118.00,0.0113
1117.00,0.0114
1116.00,0.0114
1115.00,0.0115
1114.00,0.0116
1113.00,0.0117
1112.00,0.0118
1111.00,0.0120
1110.00,0.0122
1109.00,0.0125
1108.00,0.0130
1107.00,0.0135
1106.00,0.0141
1105.00,0.0148
1104.00,0.0153
1103.00,0.0156
1102.00,0.0155
1101.00,0.0151
1100.00,0.0146
1099.00,0.0140
1098.00,0.0134
1097.00,0.0127
1096.00,0.0122
1095.00,0.0118
1094.00,0.0115
1093.00,0.0113
1092.00,0.0111
1091.00,0.0109
1090.00,0.0107
1089.00,0.0106
1088.00,0.0106
1087.00,0.0105
1086.00,0.0104
1085.00,0.0103
1084.00,0.0102
1083.00,0.0101
1082.00,0.0101
1081.00,0.0100
1080.00,0.0100
1079.00,0.0100
1078.00,0.0099
1077.00,0.0097
1076.00,0.0095
1075.00,0.0093
1074.00,0.0093
1073.00,0.0091
1072.00,0.0090
1071.00,0.0089
1070.00,0.0089
1069.00,0.0090
1068.00,0.0089
1067.00,0.0089
1066.00,0.0088
1065.00,0.0088
1064.00,0.0088
1063.00,0.0088
1062.00,0.0089
1061.00,0.0088
1060.00,0.0088
1059.00,0.0088
1058.00,0.0089
1057.00,0.0089
1056.00,0.0088
1055.00,0.0087
1054.00,0.0086
1053.00,0.0086
1052.00,0.0086
1051.00,0.0087
1050.00,0.0089
1049.00,0.0090
1048.00,0.0092
1047.00,0.0094
1046.00,0.0096
1045.00,0.0099
1044.00,0.0100
1043.00,0.0100
1042.00,0.0099
1041.00,0.0098
1040.00,0.0097
1039.00,0.0096
1038.00,0.0096
1037.00,0.0096
1036.00,0.0096
1035.00,0.0096
1034.00,0.0096
1033.00,0.0095
1032.00,0.0094
1031.00,0.0093
1030.00,0.0092
1029.00,0.0089
1028.00,0.0087
1027.00,0.0086
1026.00,0.0086
1025.00,0.0086
1024.00,0.0087
1023.00,0.0088
1022.00,0.0089
1021.00,0.0090
1020.00,0.0090
1019.00,0.0091
1018.00,0.0092
1017.00,0.0092
1016.00,0.0093
1015.00,0.0094
1014.00,0.0094
1013.00,0.0095
1012.00,0.0096
1011.00,0.0097
1010.00,0.0099
1009.00,0.0102
1008.00,0.0105
1007.00,0.0110
1006.00,0.0115
1005.00,0.0123
1004.00,0.0133
1003.00,0.0148
1002.00,0.0168
1001.00,0.0192
1000.00,0.0218
999.00,0.0239
998.00,0.0249
997.00,0.0243
996.00,0.0223
995.00,0.0197
994.00,0.0170
993.00,0.0148
992.00,0.0132
991.00,0.0121
990.00,0.0113
989.00,0.0108
988.00,0.0105
987.00,0.0103
986.00,0.0103
985.00,0.0104
984.00,0.0108
983.00,0.0115
982.00,0.0125
981.00,0.0138
980.00,0.0155
979.00,0.0177
978.00,0.0204
977.00,0.0236
976.00,0.0269
975.00,0.0299
974.00,0.0319
973.00,0.0323
972.00,0.0310
971.00,0.0283
970.00,0.0248
969.00,0.0213
968.00,0.0184
967.00,0.0162
966.00,0.0145
965.00,0.0132
964.00,0.0123
963.00,0.0115
962.00,0.0109
961.00,0.0104
960.00,0.0100
959.00,0.0097
958.00,0.0096
957.00,0.0094
956.00,0.0093
955.00,0.0091
954.00,0.0090
953.00,0.0089
952.00,0.0089
951.00,0.0089
950.00,0.0088
949.00,0.0088
948.00,0.0088
947.00,0.0089
946.00,0.0091
945.00,0.0093
944.00,0.0097
943.00,0.0102
942.00,0.0106
941.00,0.0109
940.00,0.0109
939.00,0.0106
938.00,0.0101
937.00,0.0095
936.00,0.0089
935.00,0.0084
934.00,0.0080
933.00,0.0077
932.00,0.0075
931.00,0.0074
930.00,0.0072
929.00,0.0071
928.00,0.0070
927.00,0.0070
926.00,0.0071
925.00,0.0070
924.00,0.0069
923.00,0.0069
922.00,0.0069
921.00,0.0070
920.00,0.0071
919.00,0.0072
918.00,0.0072
917.00,0.0072
916.00,0.0072
915.00,0.0072
914.00,0.0073
913.00,0.0075
912.00,0.0077
911.00,0.0079
910.00,0.0082
909.00,0.0086
908.00,0.0090
907.00,0.0095
906.00,0.0102
905.00,0.0112
904.00,0.0126
903.00,0.0144
902.00,0.0165
901.00,0.0184
900.00,0.0197
899.00,0.0200
898.00,0.0192
897.00,0.0175
896.00,0.0154
895.00,0.0133
894.00,0.0116
893.00,0.0103
892.00,0.0095
891.00,0.0090
890.00,0.0087
889.00,0.0086
888.00,0.0085
887.00,0.0084
886.00,0.0082
885.00,0.0081
884.00,0.0080
883.00,0.0079
882.00,0.0079
881.00,0.0079
880.00,0.0080
879.00,0.0080
878.00,0.0080
877.00,0.0081
876.00,0.0082
875.00,0.0083
874.00,0.0084
873.00,0.0084
872.00,0.0083
871.00,0.0082
870.00,0.0081
869.00,0.0081
868.00,0.0081
867.00,0.0081
866.00,0.0081
865.00,0.0082
864.00,0.0083
863.00,0.0083
862.00,0.0083
861.00,0.0084
860.00,0.0086
859.00,0.0088
858.00,0.0090
857.00,0.0090
856.00,0.0090
855.00,0.0090
854.00,0.0091
853.00,0.0093
852.00,0.0095
851.00,0.0098
850.00,0.0101
849.00,0.0105
848.00,0.0112
847.00,0.0121
846.00,0.0134
845.00,0.0153
844.00,0.0179
843.00,0.0209
842.00,0.0232
841.00,0.0238
840.00,0.0223
839.00,0.0196
838.00,0.0167
837.00,0.0144
836.00,0.0129
835.00,0.0119
834.00,0.0112
833.00,0.0108
832.00,0.0106
831.00,0.0105
830.00,0.0104
829.00,0.0103
828.00,0.0103
827.00,0.0103
826.00,0.0105
825.00,0.0105
824.00,0.0105
823.00,0.0103
822.00,0.0103
821.00,0.0104
820.00,0.0107
819.00,0.0110
818.00,0.0115
817.00,0.0123
816.00,0.0133
815.00,0.0147
814.00,0.0165
813.00,0.0186
812.00,0.0207
811.00,0.0227
810.00,0.0242
809.00,0.0248
808.00,0.0244
807.00,0.0231
806.00,0.0211
805.00,0.0189
804.00,0.0169
803.00,0.0152
802.00,0.0140
801.00,0.0132
800.00,0.0125
799.00,0.0120
798.00,0.0116
797.00,0.0112
796.00,0.0109
795.00,0.0106
794.00,0.0103
793.00,0.0100
792.00,0.0096
791.00,0.0092
790.00,0.0088
789.00,0.0085
788.00,0.0084
787.00,0.0083
786.00,0.0083
785.00,0.0083
784.00,0.0082
783.00,0.0080
782.00,0.0078
781.00,0.0076
780.00,0.0075
779.00,0.0075
778.00,0.0075
777.00,0.0074
776.00,0.0073
775.00,0.0072
774.00,0.0071
773.00,0.0071
772.00,0.0071
771.00,0.0073
770.00,0.0074
769.00,0.0076
768.00,0.0078
767.00,0.0079
766.00,0.0079
765.00,0.0077
764.00,0.0075
763.00,0.0073
762.00,0.0073
761.00,0.0075
760.00,0.0077
759.00,0.0080
758.00,0.0081
757.00,0.0082
756.00,0.0083
755.00,0.0082
754.00,0.0082
753.00,0.0082
752.00,0.0084
751.00,0.0086
750.00,0.0088
749.00,0.0089
748.00,0.0089
747.00,0.0090
746.00,0.0091
745.00,0.0094
744.00,0.0096
743.00,0.0100
742.00,0.0104
741.00,0.0108
740.00,0.0112
739.00,0.0116
738.00,0.0120
737.00,0.0124
736.00,0.0127
735.00,0.0130
734.00,0.0135
733.00,0.0142
732.00,0.0150
731.00,0.0157
730.00,0.0163
729.00,0.0168
728.00,0.0170
727.00,0.0173
726.00,0.0175
725.00,0.0178
724.00,0.0183
723.00,0.0190
722.00,0.0197
721.00,0.0201
720.00,0.0199
719.00,0.0189
718.00,0.0175
717.00,0.0160
716.00,0.0147
715.00,0.0138
714.00,0.0132
713.00,0.0127
712.00,0.0123
711.00,0.0121
710.00,0.0120
709.00,0.0121
708.00,0.0121
707.00,0.0121
706.00,0.0121
705.00,0.0119
704.00,0.0117
703.00,0.0115
702.00,0.0112
701.00,0.0108
700.00,0.0105
699.00,0.0103
698.00,0.0101
697.00,0.0101
696.00,0.0100
695.00,0.0099
694.00,0.0099
693.00,0.0100
692.00,0.0100
691.00,0.0100
690.00,0.0099
689.00,0.0097
688.00,0.0096
687.00,0.0098
686.00,0.0100
685.00,0.0101
684.00,0.0101
683.00,0.0100
682.00,0.0099
681.00,0.0098
680.00,0.0097
679.00,0.0098
678.00,0.0100
677.00,0.0101
676.00,0.0102
675.00,0.0100
674.00,0.0097
673.00,0.0094
672.00,0.0091
671.00,0.0091
670.00,0.0092
669.00,0.0094
668.00,0.0097
667.00,0.0099
666.00,0.0100
665.00,0.0100
664.00,0.0099
663.00,0.0098
662.00,0.0098
661.00,0.0098
660.00,0.0097
659.00,0.0096
658.00,0.0094
657.00,0.0092
656.00,0.0092
655.00,0.0092
654.00,0.0093
653.00,0.0094
652.00,0.0096
651.00,0.0097
650.00,0.0098
649.00,0.0099
648.00,0.0098
647.00,0.0098
646.00,0.0097
645.00,0.0098
644.00,0.0099
643.00,0.0099
642.00,0.0098
641.00,0.0096
640.00,0.0095
639.00,0.0094
638.00,0.0094
637.00,0.0093
636.00,0.0093
635.00,0.0094
634.00,0.0095
633.00,0.0096
632.00,0.0096
631.00,0.0095
630.00,0.0094
629.00,0.0092
628.00,0.0090
627.00,0.0089
626.00,0.0090
625.00,0.0092
624.00,0.0095
623.00,0.0096
622.00,0.0097
621.00,0.0098
620.00,0.0100
619.00,0.0102
618.00,0.0104
617.00,0.0104
616.00,0.0102
615.00,0.0099
614.00,0.0094
613.00,0.0090
612.00,0.0086
611.00,0.0084
610.00,0.0082
609.00,0.0081
608.00,0.0081
607.00,0.0081
606.00,0.0081
605.00,0.0080
604.00,0.0079
603.00,0.0080
602.00,0.0083
601.00,0.0087
600.00,0.0091
599.00,0.0095
598.00,0.0098
597.00,0.0099
596.00,0.0099
595.00,0.0099
594.00,0.0099
593.00,0.0098
592.00,0.0096
591.00,0.0094
590.00,0.0092
589.00,0.0092
588.00,0.0091
587.00,0.0090
586.00,0.0088
585.00,0.0086
584.00,0.0086
583.00,0.0087
582.00,0.0089
581.00,0.0090
580.00,0.0090
579.00,0.0090
578.00,0.0090
577.00,0.0092
576.00,0.0094
575.00,0.0094
574.00,0.0097
573.00,0.0102
572.00,0.0107
571.00,0.0108
570.00,0.0106
569.00,0.0102
568.00,0.0101
567.00,0.0101
566.00,0.0102
565.00,0.0100
564.00,0.0095
563.00,0.0089
562.00,0.0085
561.00,0.0084
560.00,0.0085
559.00,0.0085
558.00,0.0084
557.00,0.0085
556.00,0.0086
555.00,0.0087
554.00,0.0085
553.00,0.0082
552.00,0.0081
551.00,0.0084
550.00,0.0089
549.00,0.0094
548.00,0.0097
547.00,0.0098
546.00,0.0097
545.00,0.0094
544.00,0.0090
543.00,0.0087
542.00,0.0086
541.00,0.0087
540.00,0.0087
539.00,0.0088
538.00,0.0091
537.00,0.0094
536.00,0.0097
535.00,0.0098
534.00,0.0096
533.00,0.0093
532.00,0.0091
531.00,0.0091
530.00,0.0093
529.00,0.0096
528.00,0.0099
527.00,0.0105
526.00,0.0112
525.00,0.0118
524.00,0.0120
523.00,0.0119
522.00,0.0115
521.00,0.0110
520.00,0.0105
519.00,0.0101
518.00,0.0098
517.00,0.0095
516.00,0.0089
515.00,0.0083
514.00,0.0080
513.00,0.0079
512.00,0.0081
511.00,0.0082
510.00,0.0081
509.00,0.0079
508.00,0.0080
507.00,0.0084
506.00,0.0089
505.00,0.0095
504.00,0.0103
503.00,0.0112
502.00,0.0120
501.00,0.0120
500.00,0.0114
499.00,0.0106
498.00,0.0099
497.00,0.0092
496.00,0.0087
495.00,0.0085
494.00,0.0087
493.00,0.0090
492.00,0.0090
491.00,0.0086
490.00,0.0078
489.00,0.0069
488.00,0.0059
487.00,0.0055
486.00,0.0057
485.00,0.0064
484.00,0.0068
483.00,0.0065
482.00,0.0061
481.00,0.0063
480.00,0.0074
479.00,0.0092
478.00,0.0112
477.00,0.0130
476.00,0.0140
475.00,0.0139
474.00,0.0127
473.00,0.0113
472.00,0.0106
471.00,0.0107
470.00,0.0107
469.00,0.0103
468.00,0.0096
467.00,0.0088
466.00,0.0083
465.00,0.0080
464.00,0.0083
463.00,0.0092
462.00,0.0106
461.00,0.0121
460.00,0.0135
459.00,0.0148
458.00,0.0160
457.00,0.0167
456.00,0.0164
455.00,0.0154
454.00,0.0146
453.00,0.0144
452.00,0.0148
451.00,0.0150
450.00,0.0146
