Created as New Dataset,Sample 005 By Administrator Date Thursday, September 04 2025
cm-1,A
4000.00,0.0011
3999.00,0.0011
3998.00,0.0011
3997.00,0.0011
3996.00,0.0011
3995.00,0.0011
3994.00,0.0011
3993.00,0.0011
3992.00,0.0011
3991.00,0.0011
3990.00,0.0011
3989.00,0.0010
3988.00,0.0010
3987.00,0.0010
3986.00,0.0010
3985.00,0.0010
3984.00,0.0010
3983.00,0.0010
3982.00,0.0010
3981.00,0.0010
3980.00,0.0009
3979.00,0.0009
3978.00,0.0009
3977.00,0.0009
3976.00,0.0009
3975.00,0.0009
3974.00,0.0008
3973.00,0.0008
3972.00,0.0008
3971.00,0.0008
3970.00,0.0009
3969.00,0.0009
3968.00,0.0009
3967.00,0.0009
3966.00,0.0010
3965.00,0.0009
3964.00,0.0009
3963.00,0.0009
3962.00,0.0009
3961.00,0.0009
3960.00,0.0009
3959.00,0.0008
3958.00,0.0009
3957.00,0.0009
3956.00,0.0009
3955.00,0.0009
3954.00,0.0009
3953.00,0.0009
3952.00,0.0009
3951.00,0.0009
3950.00,0.0009
3949.00,0.0009
3948.00,0.0009
3947.00,0.0009
3946.00,0.0009
3945.00,0.0009
3944.00,0.0009
3943.00,0.0009
3942.00,0.0009
3941.00,0.0010
3940.00,0.0010
3939.00,0.0010
3938.00,0.0009
3937.00,0.0009
3936.00,0.0009
3935.00,0.0009
3934.00,0.0009
3933.00,0.0009
3932.00,0.0009
3931.00,0.0010
3930.00,0.0010
3929.00,0.0010
3928.00,0.0010
3927.00,0.0010
3926.00,0.0010
3925.00,0.0010
3924.00,0.0010
3923.00,0.0009
3922.00,0.0009
3921.00,0.0009
3920.00,0.0009
3919.00,0.0009
3918.00,0.0009
3917.00,0.0009
3916.00,0.0010
3915.00,0.0010
3914.00,0.0010
3913.00,0.0010
3912.00,0.0009
3911.00,0.0009
3910.00,0.0009
3909.00,0.0009
3908.00,0.0009
3907.00,0.0010
3906.00,0.0010
3905.00,0.0011
3904.00,0.0011
3903.00,0.0010
3902.00,0.0010
3901.00,0.0010
3900.00,0.0010
3899.00,0.0009
3898.00,0.0009
3897.00,0.0009
3896.00,0.0010
3895.00,0.0010
3894.00,0.0010
3893.00,0.0009
3892.00,0.0009
3891.00,0.0009
3890.00,0.0009
3889.00,0.0010
3888.00,0.0010
3887.00,0.0010
3886.00,0.0010
3885.00,0.0010
3884.00,0.0010
3883.00,0.0009
3882.00,0.0009
3881.00,0.0009
3880.00,0.0009
3879.00,0.0008
3878.00,0.0008
3877.00,0.0009
3876.00,0.0009
3875.00,0.0009
3874.00,0.0009
3873.00,0.0009
3872.00,0.0009
3871.00,0.0009
3870.00,0.0009
3869.00,0.0008
3868.00,0.0008
3867.00,0.0008
3866.00,0.0009
3865.00,0.0009
3864.00,0.0009
3863.00,0.0009
3862.00,0.0009
3861.00,0.0009
3860.00,0.0009
3859.00,0.0009
3858.00,0.0009
3857.00,0.0009
3856.00,0.0009
3855.00,0.0009
3854.00,0.0009
3853.00,0.0009
3852.00,0.0009
3851.00,0.0009
3850.00,0.0009
3849.00,0.0009
3848.00,0.0009
3847.00,0.0009
3846.00,0.0009
3845.00,0.0009
3844.00,0.0009
3843.00,0.0009
3842.00,0.0009
3841.00,0.0009
3840.00,0.0009
3839.00,0.0009
3838.00,0.0009
3837.00,0.0008
3836.00,0.0008
3835.00,0.0008
3834.00,0.0008
3833.00,0.0009
3832.00,0.0009
3831.00,0.0009
3830.00,0.0009
3829.00,0.0009
3828.00,0.0009
3827.00,0.0009
3826.00,0.0009
3825.00,0.0009
3824.00,0.0009
3823.00,0.0009
3822.00,0.0010
3821.00,0.0010
3820.00,0.0010
3819.00,0.0010
3818.00,0.0010
3817.00,0.0010
3816.00,0.0010
3815.00,0.0010
3814.00,0.0010
3813.00,0.0010
3812.00,0.0010
3811.00,0.0009
3810.00,0.0009
3809.00,0.0009
3808.00,0.0010
3807.00,0.0010
3806.00,0.0010
3805.00,0.0010
3804.00,0.0010
3803.00,0.0010
3802.00,0.0009
3801.00,0.0009
3800.00,0.0009
3799.00,0.0009
3798.00,0.0009
3797.00,0.0009
3796.00,0.0010
3795.00,0.0010
3794.00,0.0010
3793.00,0.0010
3792.00,0.0009
3791.00,0.0009
3790.00,0.0008
3789.00,0.0008
3788.00,0.0008
3787.00,0.0008
3786.00,0.0008
3785.00,0.0008
3784.00,0.0008
3783.00,0.0008
3782.00,0.0008
3781.00,0.0008
3780.00,0.0008
3779.00,0.0008
3778.00,0.0009
3777.00,0.0009
3776.00,0.0009
3775.00,0.0009
3774.00,0.0009
3773.00,0.0009
3772.00,0.0009
3771.00,0.0010
3770.00,0.0010
3769.00,0.0010
3768.00,0.0010
3767.00,0.0010
3766.00,0.0010
3765.00,0.0009
3764.00,0.0009
3763.00,0.0009
3762.00,0.0009
3761.00,0.0008
3760.00,0.0008
3759.00,0.0008
3758.00,0.0008
3757.00,0.0008
3756.00,0.0008
3755.00,0.0009
3754.00,0.0009
3753.00,0.0009
3752.00,0.0009
3751.00,0.0009
3750.00,0.0009
3749.00,0.0009
3748.00,0.0008
3747.00,0.0008
3746.00,0.0007
3745.00,0.0008
3744.00,0.0008
3743.00,0.0008
3742.00,0.0009
3741.00,0.0009
3740.00,0.0009
3739.00,0.0009
3738.00,0.0009
3737.00,0.0009
3736.00,0.0009
3735.00,0.0008
3734.00,0.0007
3733.00,0.0006
3732.00,0.0006
3731.00,0.0006
3730.00,0.0007
3729.00,0.0007
3728.00,0.0007
3727.00,0.0008
3726.00,0.0008
3725.00,0.0008
3724.00,0.0008
3723.00,0.0007
3722.00,0.0007
3721.00,0.0007
3720.00,0.0008
3719.00,0.0008
3718.00,0.0008
3717.00,0.0007
3716.00,0.0007
3715.00,0.0007
3714.00,0.0006
3713.00,0.0006
3712.00,0.0006
3711.00,0.0006
3710.00,0.0006
3709.00,0.0007
3708.00,0.0007
3707.00,0.0007
3706.00,0.0007
3705.00,0.0007
3704.00,0.0007
3703.00,0.0007
3702.00,0.0007
3701.00,0.0006
3700.00,0.0006
3699.00,0.0006
3698.00,0.0007
3697.00,0.0007
3696.00,0.0008
3695.00,0.0008
3694.00,0.0008
3693.00,0.0008
3692.00,0.0008
3691.00,0.0008
3690.00,0.0008
3689.00,0.0009
3688.00,0.0009
3687.00,0.0009
3686.00,0.0009
3685.00,0.0010
3684.00,0.0011
3683.00,0.0011
3682.00,0.0012
3681.00,0.0012
3680.00,0.0013
3679.00,0.0014
3678.00,0.0015
3677.00,0.0015
3676.00,0.0016
3675.00,0.0016
3674.00,0.0016
3673.00,0.0016
3672.00,0.0016
3671.00,0.0016
3670.00,0.0016
3669.00,0.0017
3668.00,0.0017
3667.00,0.0017
3666.00,0.0017
3665.00,0.0017
3664.00,0.0017
3663.00,0.0017
3662.00,0.0017
3661.00,0.0018
3660.00,0.0018
3659.00,0.0018
3658.00,0.0018
3657.00,0.0018
3656.00,0.0017
3655.00,0.0017
3654.00,0.0016
3653.00,0.0017
3652.00,0.0017
3651.00,0.0018
3650.00,0.0017
3649.00,0.0017
3648.00,0.0017
3647.00,0.0016
3646.00,0.0016
3645.00,0.0016
3644.00,0.0016
3643.00,0.0016
3642.00,0.0016
3641.00,0.0015
3640.00,0.0015
3639.00,0.0015
3638.00,0.0014
3637.00,0.0014
3636.00,0.0013
3635.00,0.0012
3634.00,0.0011
3633.00,0.0011
3632.00,0.0010
3631.00,0.0010
3630.00,0.0009
3629.00,0.0009
3628.00,0.0008
3627.00,0.0008
3626.00,0.0008
3625.00,0.0008
3624.00,0.0008
3623.00,0.0008
3622.00,0.0009
3621.00,0.0009
3620.00,0.0009
3619.00,0.0008
3618.00,0.0008
3617.00,0.0008
3616.00,0.0008
3615.00,0.0008
3614.00,0.0008
3613.00,0.0009
3612.00,0.0009
3611.00,0.0009
3610.00,0.0009
3609.00,0.0009
3608.00,0.0008
3607.00,0.0008
3606.00,0.0008
3605.00,0.0008
3604.00,0.0008
3603.00,0.0008
3602.00,0.0009
3601.00,0.0009
3600.00,0.0009
3599.00,0.0009
3598.00,0.0009
3597.00,0.0009
3596.00,0.0009
3595.00,0.0009
3594.00,0.0009
3593.00,0.0009
3592.00,0.0009
3591.00,0.0009
3590.00,0.0008
3589.00,0.0008
3588.00,0.0007
3587.00,0.0008
3586.00,0.0008
3585.00,0.0009
3584.00,0.0009
3583.00,0.0010
3582.00,0.0010
3581.00,0.0011
3580.00,0.0011
3579.00,0.0011
3578.00,0.0011
3577.00,0.0010
3576.00,0.0010
3575.00,0.0010
3574.00,0.0010
3573.00,0.0010
3572.00,0.0010
3571.00,0.0011
3570.00,0.0011
3569.00,0.0011
3568.00,0.0011
3567.00,0.0011
3566.00,0.0011
3565.00,0.0011
3564.00,0.0012
3563.00,0.0012
3562.00,0.0012
3561.00,0.0012
3560.00,0.0012
3559.00,0.0012
3558.00,0.0012
3557.00,0.0012
3556.00,0.0012
3555.00,0.0012
3554.00,0.0013
3553.00,0.0013
3552.00,0.0013
3551.00,0.0013
3550.00,0.0013
3549.00,0.0014
3548.00,0.0014
3547.00,0.0014
3546.00,0.0014
3545.00,0.0014
3544.00,0.0015
3543.00,0.0015
3542.00,0.0015
3541.00,0.0015
3540.00,0.0015
3539.00,0.0015
3538.00,0.0015
3537.00,0.0015
3536.00,0.0015
3535.00,0.0015
3534.00,0.0015
3533.00,0.0015
3532.00,0.0016
3531.00,0.0016
3530.00,0.0016
3529.00,0.0016
3528.00,0.0016
3527.00,0.0016
3526.00,0.0016
3525.00,0.0017
3524.00,0.0017
3523.00,0.0017
3522.00,0.0017
3521.00,0.0017
3520.00,0.0017
3519.00,0.0017
3518.00,0.0017
3517.00,0.0017
3516.00,0.0017
3515.00,0.0017
3514.00,0.0017
3513.00,0.0017
3512.00,0.0017
3511.00,0.0017
3510.00,0.0017
3509.00,0.0017
3508.00,0.0018
3507.00,0.0018
3506.00,0.0018
3505.00,0.0019
3504.00,0.0019
3503.00,0.0020
3502.00,0.0020
3501.00,0.0020
3500.00,0.0020
3499.00,0.0020
3498.00,0.0020
3497.00,0.0020
3496.00,0.0020
3495.00,0.0020
3494.00,0.0020
3493.00,0.0020
3492.00,0.0020
3491.00,0.0020
3490.00,0.0021
3489.00,0.0021
3488.00,0.0021
3487.00,0.0021
3486.00,0.0022
3485.00,0.0022
3484.00,0.0022
3483.00,0.0022
3482.00,0.0023
3481.00,0.0023
3480.00,0.0023
3479.00,0.0023
3478.00,0.0023
3477.00,0.0022
3476.00,0.0022
3475.00,0.0022
3474.00,0.0021
3473.00,0.0021
3472.00,0.0022
3471.00,0.0022
3470.00,0.0022
3469.00,0.0022
3468.00,0.0023
3467.00,0.0023
3466.00,0.0024
3465.00,0.0024
3464.00,0.0024
3463.00,0.0024
3462.00,0.0024
3461.00,0.0024
3460.00,0.0024
3459.00,0.0024
3458.00,0.0024
3457.00,0.0025
3456.00,0.0025
3455.00,0.0026
3454.00,0.0026
3453.00,0.0026
3452.00,0.0026
3451.00,0.0026
3450.00,0.0026
3449.00,0.0026
3448.00,0.0026
3447.00,0.0026
3446.00,0.0026
3445.00,0.0026
3444.00,0.0026
3443.00,0.0027
3442.00,0.0027
3441.00,0.0027
3440.00,0.0027
3439.00,0.0027
3438.00,0.0028
3437.00,0.0028
3436.00,0.0028
3435.00,0.0028
3434.00,0.0028
3433.00,0.0028
3432.00,0.0028
3431.00,0.0028
3430.00,0.0029
3429.00,0.0029
3428.00,0.0029
3427.00,0.0030
3426.00,0.0030
3425.00,0.0030
3424.00,0.0031
3423.00,0.0031
3422.00,0.0031
3421.00,0.0031
3420.00,0.0030
3419.00,0.0030
3418.00,0.0030
3417.00,0.0030
3416.00,0.0030
3415.00,0.0030
3414.00,0.0031
3413.00,0.0032
3412.00,0.0032
3411.00,0.0033
3410.00,0.0033
3409.00,0.0033
3408.00,0.0033
3407.00,0.0033
3406.00,0.0033
3405.00,0.0034
3404.00,0.0034
3403.00,0.0035
3402.00,0.0036
3401.00,0.0036
3400.00,0.0037
3399.00,0.0037
3398.00,0.0037
3397.00,0.0037
3396.00,0.0037
3395.00,0.0036
3394.00,0.0036
3393.00,0.0036
3392.00,0.0036
3391.00,0.0036
3390.00,0.0036
3389.00,0.0036
3388.00,0.0036
3387.00,0.0036
3386.00,0.0036
3385.00,0.0036
3384.00,0.0035
3383.00,0.0035
3382.00,0.0034
3381.00,0.0034
3380.00,0.0033
3379.00,0.0033
3378.00,0.0033
3377.00,0.0033
3376.00,0.0033
3375.00,0.0033
3374.00,0.0033
3373.00,0.0033
3372.00,0.0033
3371.00,0.0033
3370.00,0.0033
3369.00,0.0034
3368.00,0.0034
3367.00,0.0034
3366.00,0.0034
3365.00,0.0034
3364.00,0.0034
3363.00,0.0034
3362.00,0.0034
3361.00,0.0033
3360.00,0.0033
3359.00,0.0033
3358.00,0.0033
3357.00,0.0033
3356.00,0.0033
3355.00,0.0033
3354.00,0.0033
3353.00,0.0033
3352.00,0.0033
3351.00,0.0033
3350.00,0.0033
3349.00,0.0033
3348.00,0.0033
3347.00,0.0032
3346.00,0.0032
3345.00,0.0032
3344.00,0.0033
3343.00,0.0033
3342.00,0.0033
3341.00,0.0033
3340.00,0.0032
3339.00,0.0032
3338.00,0.0032
3337.00,0.0032
3336.00,0.0032
3335.00,0.0032
3334.00,0.0032
3333.00,0.0032
3332.00,0.0032
3331.00,0.0031
3330.00,0.0031
3329.00,0.0031
3328.00,0.0031
3327.00,0.0031
3326.00,0.0031
3325.00,0.0031
3324.00,0.0031
3323.00,0.0031
3322.00,0.0031
3321.00,0.0031
3320.00,0.0031
3319.00,0.0031
3318.00,0.0031
3317.00,0.0031
3316.00,0.0031
3315.00,0.0031
3314.00,0.0031
3313.00,0.0031
3312.00,0.0031
3311.00,0.0031
3310.00,0.0031
3309.00,0.0031
3308.00,0.0031
3307.00,0.0031
3306.00,0.0031
3305.00,0.0032
3304.00,0.0032
3303.00,0.0032
3302.00,0.0032
3301.00,0.0032
3300.00,0.0032
3299.00,0.0032
3298.00,0.0032
3297.00,0.0031
3296.00,0.0031
3295.00,0.0031
3294.00,0.0031
3293.00,0.0031
3292.00,0.0031
3291.00,0.0031
3290.00,0.0030
3289.00,0.0030
3288.00,0.0030
3287.00,0.0029
3286.00,0.0029
3285.00,0.0029
3284.00,0.0030
3283.00,0.0030
3282.00,0.0030
3281.00,0.0030
3280.00,0.0030
3279.00,0.0029
3278.00,0.0029
3277.00,0.0029
3276.00,0.0028
3275.00,0.0028
3274.00,0.0028
3273.00,0.0028
3272.00,0.0028
3271.00,0.0028
3270.00,0.0028
3269.00,0.0028
3268.00,0.0028
3267.00,0.0028
3266.00,0.0029
3265.00,0.0029
3264.00,0.0028
3263.00,0.0028
3262.00,0.0027
3261.00,0.0026
3260.00,0.0026
3259.00,0.0026
3258.00,0.0026
3257.00,0.0027
3256.00,0.0027
3255.00,0.0027
3254.00,0.0027
3253.00,0.0026
3252.00,0.0026
3251.00,0.0027
3250.00,0.0027
3249.00,0.0027
3248.00,0.0027
3247.00,0.0027
3246.00,0.0027
3245.00,0.0027
3244.00,0.0027
3243.00,0.0027
3242.00,0.0027
3241.00,0.0027
3240.00,0.0027
3239.00,0.0027
3238.00,0.0027
3237.00,0.0027
3236.00,0.0027
3235.00,0.0027
3234.00,0.0027
3233.00,0.0028
3232.00,0.0028
3231.00,0.0028
3230.00,0.0029
3229.00,0.0029
3228.00,0.0029
3227.00,0.0029
3226.00,0.0029
3225.00,0.0029
3224.00,0.0029
3223.00,0.0030
3222.00,0.0031
3221.00,0.0031
3220.00,0.0032
3219.00,0.0033
3218.00,0.0033
3217.00,0.0033
3216.00,0.0033
3215.00,0.0033
3214.00,0.0033
3213.00,0.0033
3212.00,0.0033
3211.00,0.0033
3210.00,0.0034
3209.00,0.0034
3208.00,0.0035
3207.00,0.0035
3206.00,0.0035
3205.00,0.0036
3204.00,0.0036
3203.00,0.0036
3202.00,0.0036
3201.00,0.0036
3200.00,0.0036
3199.00,0.0036
3198.00,0.0036
3197.00,0.0036
3196.00,0.0036
3195.00,0.0036
3194.00,0.0036
3193.00,0.0036
3192.00,0.0036
3191.00,0.0037
3190.00,0.0037
3189.00,0.0037
3188.00,0.0037
3187.00,0.0037
3186.00,0.0037
3185.00,0.0037
3184.00,0.0036
3183.00,0.0036
3182.00,0.0035
3181.00,0.0035
3180.00,0.0034
3179.00,0.0034
3178.00,0.0034
3177.00,0.0033
3176.00,0.0033
3175.00,0.0033
3174.00,0.0033
3173.00,0.0032
3172.00,0.0032
3171.00,0.0032
3170.00,0.0032
3169.00,0.0032
3168.00,0.0031
3167.00,0.0031
3166.00,0.0030
3165.00,0.0030
3164.00,0.0030
3163.00,0.0031
3162.00,0.0031
3161.00,0.0031
3160.00,0.0031
3159.00,0.0031
3158.00,0.0031
3157.00,0.0031
3156.00,0.0031
3155.00,0.0031
3154.00,0.0031
3153.00,0.0031
3152.00,0.0031
3151.00,0.0031
3150.00,0.0031
3149.00,0.0031
3148.00,0.0030
3147.00,0.0030
3146.00,0.0030
3145.00,0.0030
3144.00,0.0031
3143.00,0.0031
3142.00,0.0030
3141.00,0.0030
3140.00,0.0030
3139.00,0.0029
3138.00,0.0029
3137.00,0.0029
3136.00,0.0029
3135.00,0.0028
3134.00,0.0028
3133.00,0.0028
3132.00,0.0028
3131.00,0.0028
3130.00,0.0027
3129.00,0.0027
3128.00,0.0027
3127.00,0.0026
3126.00,0.0026
3125.00,0.0026
3124.00,0.0026
3123.00,0.0026
3122.00,0.0026
3121.00,0.0026
3120.00,0.0026
3119.00,0.0026
3118.00,0.0025
3117.00,0.0025
3116.00,0.0024
3115.00,0.0024
3114.00,0.0024
3113.00,0.0024
3112.00,0.0024
3111.00,0.0024
3110.00,0.0024
3109.00,0.0024
3108.00,0.0024
3107.00,0.0024
3106.00,0.0024
3105.00,0.0024
3104.00,0.0023
3103.00,0.0023
3102.00,0.0023
3101.00,0.0023
3100.00,0.0024
3099.00,0.0024
3098.00,0.0024
3097.00,0.0024
3096.00,0.0024
3095.00,0.0024
3094.00,0.0024
3093.00,0.0024
3092.00,0.0025
3091.00,0.0025
3090.00,0.0025
3089.00,0.0025
3088.00,0.0025
3087.00,0.0024
3086.00,0.0024
3085.00,0.0024
3084.00,0.0025
3083.00,0.0025
3082.00,0.0024
3081.00,0.0024
3080.00,0.0024
3079.00,0.0024
3078.00,0.0024
3077.00,0.0024
3076.00,0.0024
3075.00,0.0024
3074.00,0.0024
3073.00,0.0025
3072.00,0.0025
3071.00,0.0025
3070.00,0.0026
3069.00,0.0026
3068.00,0.0026
3067.00,0.0026
3066.00,0.0026
3065.00,0.0026
3064.00,0.0026
3063.00,0.0026
3062.00,0.0026
3061.00,0.0027
3060.00,0.0027
3059.00,0.0027
3058.00,0.0027
3057.00,0.0027
3056.00,0.0028
3055.00,0.0028
3054.00,0.0028
3053.00,0.0028
3052.00,0.0028
3051.00,0.0028
3050.00,0.0028
3049.00,0.0029
3048.00,0.0029
3047.00,0.0029
3046.00,0.0029
3045.00,0.0029
3044.00,0.0029
3043.00,0.0030
3042.00,0.0030
3041.00,0.0030
3040.00,0.0031
3039.00,0.0031
3038.00,0.0031
3037.00,0.0032
3036.00,0.0032
3035.00,0.0032
3034.00,0.0033
3033.00,0.0033
3032.00,0.0034
3031.00,0.0035
3030.00,0.0035
3029.00,0.0036
3028.00,0.0036
3027.00,0.0037
3026.00,0.0037
3025.00,0.0038
3024.00,0.0039
3023.00,0.0039
3022.00,0.0040
3021.00,0.0042
3020.00,0.0043
3019.00,0.0045
3018.00,0.0047
3017.00,0.0049
3016.00,0.0052
3015.00,0.0054
3014.00,0.0056
3013.00,0.0059
3012.00,0.0063
3011.00,0.0066
3010.00,0.0070
3009.00,0.0074
3008.00,0.0077
3007.00,0.0082
3006.00,0.0086
3005.00,0.0091
3004.00,0.0096
3003.00,0.0101
3002.00,0.0106
3001.00,0.0111
3000.00,0.0117
2999.00,0.0123
2998.00,0.0128
2997.00,0.0133
2996.00,0.0139
2995.00,0.0145
2994.00,0.0151
2993.00,0.0157
2992.00,0.0164
2991.00,0.0171
2990.00,0.0179
2989.00,0.0188
2988.00,0.0198
2987.00,0.0210
2986.00,0.0225
2985.00,0.0244
2984.00,0.0266
2983.00,0.0289
2982.00,0.0311
2981.00,0.0330
2980.00,0.0348
2979.00,0.0366
2978.00,0.0387
2977.00,0.0413
2976.00,0.0444
2975.00,0.0483
2974.00,0.0530
2973.00,0.0584
2972.00,0.0644
2971.00,0.0711
2970.00,0.0784
2969.00,0.0864
2968.00,0.0952
2967.00,0.1050
2966.00,0.1156
2965.00,0.1269
2964.00,0.1384
2963.00,0.1498
2962.00,0.1603
2961.00,0.1694
2960.00,0.1767
2959.00,0.1820
2958.00,0.1856
2957.00,0.1880
2956.00,0.1897
2955.00,0.1915
2954.00,0.1935
2953.00,0.1955
2952.00,0.1968
2951.00,0.1967
2950.00,0.1942
2949.00,0.1888
2948.00,0.1805
2947.00,0.1697
2946.00,0.1575
2945.00,0.1451
2944.00,0.1336
2943.00,0.1238
2942.00,0.1163
2941.00,0.1111
2940.00,0.1083
2939.00,0.1076
2938.00,0.1088
2937.00,0.1116
2936.00,0.1160
2935.00,0.1218
2934.00,0.1288
2933.00,0.1369
2932.00,0.1459
2931.00,0.1557
2930.00,0.1660
2929.00,0.1764
2928.00,0.1867
2927.00,0.1966
2926.00,0.2060
2925.00,0.2148
2924.00,0.2232
2923.00,0.2313
2922.00,0.2390
2921.00,0.2461
2920.00,0.2522
2919.00,0.2564
2918.00,0.2582
2917.00,0.2571
2916.00,0.2532
2915.00,0.2468
2914.00,0.2391
2913.00,0.2307
2912.00,0.2227
2911.00,0.2154
2910.00,0.2090
2909.00,0.2033
2908.00,0.1981
2907.00,0.1930
2906.00,0.1877
2905.00,0.1821
2904.00,0.1760
2903.00,0.1697
2902.00,0.1631
2901.00,0.1565
2900.00,0.1500
2899.00,0.1437
2898.00,0.1378
2897.00,0.1324
2896.00,0.1275
2895.00,0.1232
2894.00,0.1195
2893.00,0.1164
2892.00,0.1140
2891.00,0.1121
2890.00,0.1106
2889.00,0.1096
2888.00,0.1089
2887.00,0.1085
2886.00,0.1085
2885.00,0.1088
2884.00,0.1095
2883.00,0.1105
2882.00,0.1118
2881.00,0.1132
2880.00,0.1146
2879.00,0.1156
2878.00,0.1162
2877.00,0.1160
2876.00,0.1154
2875.00,0.1146
2874.00,0.1140
2873.00,0.1140
2872.00,0.1146
2871.00,0.1158
2870.00,0.1174
2869.00,0.1189
2868.00,0.1196
2867.00,0.1190
2866.00,0.1165
2865.00,0.1121
2864.00,0.1061
2863.00,0.0994
2862.00,0.0929
2861.00,0.0872
2860.00,0.0828
2859.00,0.0799
2858.00,0.0785
2857.00,0.0781
2856.00,0.0787
2855.00,0.0800
2854.00,0.0818
2853.00,0.0838
2852.00,0.0858
2851.00,0.0875
2850.00,0.0890
2849.00,0.0900
2848.00,0.0911
2847.00,0.0925
2846.00,0.0949
2845.00,0.0984
2844.00,0.1031
2843.00,0.1087
2842.00,0.1146
2841.00,0.1203
2840.00,0.1248
2839.00,0.1272
2838.00,0.1269
2837.00,0.1233
2836.00,0.1166
2835.00,0.1074
2834.00,0.0967
2833.00,0.0855
2832.00,0.0749
2831.00,0.0654
2830.00,0.0574
2829.00,0.0508
2828.00,0.0455
2827.00,0.0412
2826.00,0.0377
2825.00,0.0348
2824.00,0.0323
2823.00,0.0302
2822.00,0.0284
2821.00,0.0268
2820.00,0.0254
2819.00,0.0243
2818.00,0.0232
2817.00,0.0224
2816.00,0.0216
2815.00,0.0209
2814.00,0.0202
2813.00,0.0196
2812.00,0.0191
2811.00,0.0186
2810.00,0.0180
2809.00,0.0175
2808.00,0.0169
2807.00,0.0163
2806.00,0.0157
2805.00,0.0150
2804.00,0.0144
2803.00,0.0138
2802.00,0.0132
2801.00,0.0127
2800.00,0.0124
2799.00,0.0121
2798.00,0.0118
2797.00,0.0116
2796.00,0.0114
2795.00,0.0112
2794.00,0.0109
2793.00,0.0106
2792.00,0.0102
2791.00,0.0099
2790.00,0.0095
2789.00,0.0092
2788.00,0.0089
2787.00,0.0085
2786.00,0.0082
2785.00,0.0080
2784.00,0.0077
2783.00,0.0075
2782.00,0.0072
2781.00,0.0070
2780.00,0.0068
2779.00,0.0066
2778.00,0.0064
2777.00,0.0063
2776.00,0.0062
2775.00,0.0061
2774.00,0.0060
2773.00,0.0060
2772.00,0.0059
2771.00,0.0059
2770.00,0.0058
2769.00,0.0058
2768.00,0.0057
2767.00,0.0057
2766.00,0.0057
2765.00,0.0056
2764.00,0.0056
2763.00,0.0055
2762.00,0.0055
2761.00,0.0054
2760.00,0.0054
2759.00,0.0054
2758.00,0.0054
2757.00,0.0054
2756.00,0.0053
2755.00,0.0053
2754.00,0.0053
2753.00,0.0053
2752.00,0.0052
2751.00,0.0052
2750.00,0.0052
2749.00,0.0052
2748.00,0.0052
2747.00,0.0052
2746.00,0.0053
2745.00,0.0054
2744.00,0.0054
2743.00,0.0055
2742.00,0.0056
2741.00,0.0057
2740.00,0.0058
2739.00,0.0059
2738.00,0.0061
2737.00,0.0062
2736.00,0.0063
2735.00,0.0064
2734.00,0.0066
2733.00,0.0067
2732.00,0.0069
2731.00,0.0070
2730.00,0.0072
2729.00,0.0075
2728.00,0.0078
2727.00,0.0080
2726.00,0.0083
2725.00,0.0085
2724.00,0.0087
2723.00,0.0087
2722.00,0.0086
2721.00,0.0084
2720.00,0.0082
2719.00,0.0078
2718.00,0.0075
2717.00,0.0072
2716.00,0.0069
2715.00,0.0067
2714.00,0.0065
2713.00,0.0063
2712.00,0.0061
2711.00,0.0059
2710.00,0.0058
2709.00,0.0056
2708.00,0.0055
2707.00,0.0054
2706.00,0.0053
2705.00,0.0052
2704.00,0.0051
2703.00,0.0050
2702.00,0.0049
2701.00,0.0048
2700.00,0.0048
2699.00,0.0048
2698.00,0.0047
2697.00,0.0047
2696.00,0.0047
2695.00,0.0047
2694.00,0.0047
2693.00,0.0047
2692.00,0.0046
2691.00,0.0046
2690.00,0.0047
2689.00,0.0047
2688.00,0.0047
2687.00,0.0047
2686.00,0.0047
2685.00,0.0047
2684.00,0.0047
2683.00,0.0047
2682.00,0.0047
2681.00,0.0047
2680.00,0.0047
2679.00,0.0048
2678.00,0.0048
2677.00,0.0048
2676.00,0.0048
2675.00,0.0047
2674.00,0.0047
2673.00,0.0047
2672.00,0.0046
2671.00,0.0046
2670.00,0.0046
2669.00,0.0046
2668.00,0.0046
2667.00,0.0046
2666.00,0.0047
2665.00,0.0048
2664.00,0.0048
2663.00,0.0049
2662.00,0.0049
2661.00,0.0049
2660.00,0.0050
2659.00,0.0050
2658.00,0.0050
2657.00,0.0049
2656.00,0.0049
2655.00,0.0048
2654.00,0.0047
2653.00,0.0046
2652.00,0.0046
2651.00,0.0045
2650.00,0.0045
2649.00,0.0045
2648.00,0.0045
2647.00,0.0045
2646.00,0.0045
2645.00,0.0044
2644.00,0.0044
2643.00,0.0043
2642.00,0.0043
2641.00,0.0042
2640.00,0.0042
2639.00,0.0042
2638.00,0.0041
2637.00,0.0041
2636.00,0.0040
2635.00,0.0040
2634.00,0.0040
2633.00,0.0040
2632.00,0.0041
2631.00,0.0041
2630.00,0.0041
2629.00,0.0041
2628.00,0.0041
2627.00,0.0041
2626.00,0.0041
2625.00,0.0041
2624.00,0.0041
2623.00,0.0041
2622.00,0.0041
2621.00,0.0041
2620.00,0.0041
2619.00,0.0041
2618.00,0.0041
2617.00,0.0041
2616.00,0.0041
2615.00,0.0041
2614.00,0.0040
2613.00,0.0040
2612.00,0.0040
2611.00,0.0039
2610.00,0.0038
2609.00,0.0037
2608.00,0.0036
2607.00,0.0035
2606.00,0.0034
2605.00,0.0033
2604.00,0.0032
2603.00,0.0032
2602.00,0.0032
2601.00,0.0032
2600.00,0.0032
2599.00,0.0031
2598.00,0.0031
2597.00,0.0031
2596.00,0.0031
2595.00,0.0031
2594.00,0.0032
2593.00,0.0032
2592.00,0.0032
2591.00,0.0032
2590.00,0.0033
2589.00,0.0034
2588.00,0.0035
2587.00,0.0036
2586.00,0.0038
2585.00,0.0038
2584.00,0.0039
2583.00,0.0039
2582.00,0.0039
2581.00,0.0039
2580.00,0.0038
2579.00,0.0036
2578.00,0.0035
2577.00,0.0033
2576.00,0.0032
2575.00,0.0031
2574.00,0.0030
2573.00,0.0029
2572.00,0.0028
2571.00,0.0027
2570.00,0.0026
2569.00,0.0025
2568.00,0.0025
2567.00,0.0026
2566.00,0.0026
2565.00,0.0025
2564.00,0.0025
2563.00,0.0024
2562.00,0.0024
2561.00,0.0025
2560.00,0.0025
2559.00,0.0025
2558.00,0.0024
2557.00,0.0023
2556.00,0.0022
2555.00,0.0022
2554.00,0.0021
2553.00,0.0021
2552.00,0.0021
2551.00,0.0021
2550.00,0.0020
2549.00,0.0020
2548.00,0.0019
2547.00,0.0019
2546.00,0.0020
2545.00,0.0020
2544.00,0.0020
2543.00,0.0019
2542.00,0.0019
2541.00,0.0018
2540.00,0.0018
2539.00,0.0018
2538.00,0.0018
2537.00,0.0018
2536.00,0.0017
2535.00,0.0017
2534.00,0.0017
2533.00,0.0017
2532.00,0.0016
2531.00,0.0016
2530.00,0.0016
2529.00,0.0015
2528.00,0.0015
2527.00,0.0014
2526.00,0.0014
2525.00,0.0013
2524.00,0.0013
2523.00,0.0014
2522.00,0.0014
2521.00,0.0014
2520.00,0.0014
2519.00,0.0014
2518.00,0.0013
2517.00,0.0013
2516.00,0.0012
2515.00,0.0012
2514.00,0.0012
2513.00,0.0012
2512.00,0.0012
2511.00,0.0013
2510.00,0.0012
2509.00,0.0012
2508.00,0.0012
2507.00,0.0012
2506.00,0.0011
2505.00,0.0011
2504.00,0.0010
2503.00,0.0010
2502.00,0.0010
2501.00,0.0011
2500.00,0.0011
2499.00,0.0011
2498.00,0.0011
2497.00,0.0011
2496.00,0.0011
2495.00,0.0012
2494.00,0.0012
2493.00,0.0011
2492.00,0.0011
2491.00,0.0010
2490.00,0.0010
2489.00,0.0010
2488.00,0.0010
2487.00,0.0010
2486.00,0.0011
2485.00,0.0011
2484.00,0.0010
2483.00,0.0009
2482.00,0.0009
2481.00,0.0009
2480.00,0.0009
2479.00,0.0010
2478.00,0.0010
2477.00,0.0011
2476.00,0.0011
2475.00,0.0010
2474.00,0.0009
2473.00,0.0008
2472.00,0.0008
2471.00,0.0008
2470.00,0.0008
2469.00,0.0009
2468.00,0.0010
2467.00,0.0011
2466.00,0.0011
2465.00,0.0010
2464.00,0.0010
2463.00,0.0009
2462.00,0.0009
2461.00,0.0010
2460.00,0.0010
2459.00,0.0010
2458.00,0.0011
2457.00,0.0011
2456.00,0.0011
2455.00,0.0011
2454.00,0.0011
2453.00,0.0011
2452.00,0.0011
2451.00,0.0012
2450.00,0.0012
2449.00,0.0012
2448.00,0.0012
2447.00,0.0012
2446.00,0.0011
2445.00,0.0011
2444.00,0.0011
2443.00,0.0011
2442.00,0.0012
2441.00,0.0012
2440.00,0.0012
2439.00,0.0012
2438.00,0.0012
2437.00,0.0012
2436.00,0.0013
2435.00,0.0014
2434.00,0.0014
2433.00,0.0013
2432.00,0.0013
2431.00,0.0013
2430.00,0.0013
2429.00,0.0013
2428.00,0.0013
2427.00,0.0013
2426.00,0.0013
2425.00,0.0012
2424.00,0.0012
2423.00,0.0011
2422.00,0.0011
2421.00,0.0011
2420.00,0.0011
2419.00,0.0011
2418.00,0.0011
2417.00,0.0011
2416.00,0.0011
2415.00,0.0011
2414.00,0.0010
2413.00,0.0010
2412.00,0.0011
2411.00,0.0011
2410.00,0.0011
2409.00,0.0011
2408.00,0.0010
2407.00,0.0010
2406.00,0.0010
2405.00,0.0009
2404.00,0.0010
2403.00,0.0010
2402.00,0.0010
2401.00,0.0011
2400.00,0.0011
2399.00,0.0011
2398.00,0.0010
2397.00,0.0010
2396.00,0.0009
2395.00,0.0009
2394.00,0.0009
2393.00,0.0009
2392.00,0.0010
2391.00,0.0010
2390.00,0.0010
2389.00,0.0010
2388.00,0.0010
2387.00,0.0009
2386.00,0.0009
2385.00,0.0008
2384.00,0.0007
2383.00,0.0006
2382.00,0.0005
2381.00,0.0003
2380.00,0.0002
2379.00,0.0000
2378.00,-0.0001
2377.00,-0.0002
2376.00,-0.0002
2375.00,-0.0002
2374.00,-0.0002
2373.00,-0.0001
2372.00,-0.0000
2371.00,-0.0000
2370.00,-0.0001
2369.00,-0.0003
2368.00,-0.0003
2367.00,-0.0003
2366.00,-0.0003
2365.00,-0.0001
2364.00,-0.0001
2363.00,-0.0001
2362.00,-0.0001
2361.00,-0.0002
2360.00,-0.0002
2359.00,-0.0002
2358.00,-0.0002
2357.00,-0.0002
2356.00,-0.0001
2355.00,-0.0001
2354.00,-0.0001
2353.00,-0.0001
2352.00,-0.0001
2351.00,-0.0001
2350.00,-0.0001
2349.00,-0.0000
2348.00,0.0000
2347.00,0.0000
2346.00,0.0000
2345.00,-0.0000
2344.00,-0.0001
2343.00,-0.0001
2342.00,-0.0000
2341.00,0.0000
2340.00,0.0001
2339.00,0.0002
2338.00,0.0003
2337.00,0.0003
2336.00,0.0004
2335.00,0.0004
2334.00,0.0003
2333.00,0.0003
2332.00,0.0003
2331.00,0.0003
2330.00,0.0003
2329.00,0.0004
2328.00,0.0006
2327.00,0.0009
2326.00,0.0013
2325.00,0.0016
2324.00,0.0017
2323.00,0.0017
2322.00,0.0015
2321.00,0.0014
2320.00,0.0013
2319.00,0.0012
2318.00,0.0012
2317.00,0.0011
2316.00,0.0010
2315.00,0.0009
2314.00,0.0009
2313.00,0.0009
2312.00,0.0009
2311.00,0.0008
2310.00,0.0008
2309.00,0.0008
2308.00,0.0009
2307.00,0.0010
2306.00,0.0011
2305.00,0.0012
2304.00,0.0013
2303.00,0.0013
2302.00,0.0013
2301.00,0.0013
2300.00,0.0013
2299.00,0.0013
2298.00,0.0013
2297.00,0.0012
2296.00,0.0013
2295.00,0.0013
2294.00,0.0014
2293.00,0.0015
2292.00,0.0016
2291.00,0.0017
2290.00,0.0018
2289.00,0.0020
2288.00,0.0021
2287.00,0.0021
2286.00,0.0021
2285.00,0.0020
2284.00,0.0018
2283.00,0.0017
2282.00,0.0017
2281.00,0.0016
2280.00,0.0016
2279.00,0.0016
2278.00,0.0016
2277.00,0.0017
2276.00,0.0017
2275.00,0.0017
2274.00,0.0016
2273.00,0.0014
2272.00,0.0012
2271.00,0.0011
2270.00,0.0011
2269.00,0.0011
2268.00,0.0011
2267.00,0.0010
2266.00,0.0008
2265.00,0.0007
2264.00,0.0007
2263.00,0.0008
2262.00,0.0009
2261.00,0.0011
2260.00,0.0013
2259.00,0.0015
2258.00,0.0016
2257.00,0.0016
2256.00,0.0015
2255.00,0.0013
2254.00,0.0011
2253.00,0.0010
2252.00,0.0010
2251.00,0.0010
2250.00,0.0010
2249.00,0.0011
2248.00,0.0012
2247.00,0.0012
2246.00,0.0013
2245.00,0.0013
2244.00,0.0012
2243.00,0.0011
2242.00,0.0011
2241.00,0.0012
2240.00,0.0013
2239.00,0.0013
2238.00,0.0012
2237.00,0.0010
2236.00,0.0008
2235.00,0.0008
2234.00,0.0008
2233.00,0.0010
2232.00,0.0012
2231.00,0.0012
2230.00,0.0011
2229.00,0.0011
2228.00,0.0010
2227.00,0.0010
2226.00,0.0011
2225.00,0.0011
2224.00,0.0010
2223.00,0.0010
2222.00,0.0010
2221.00,0.0010
2220.00,0.0011
2219.00,0.0011
2218.00,0.0011
2217.00,0.0011
2216.00,0.0011
2215.00,0.0010
2214.00,0.0008
2213.00,0.0006
2212.00,0.0005
2211.00,0.0005
2210.00,0.0005
2209.00,0.0005
2208.00,0.0005
2207.00,0.0004
2206.00,0.0004
2205.00,0.0005
2204.00,0.0007
2203.00,0.0009
2202.00,0.0010
2201.00,0.0009
2200.00,0.0009
2199.00,0.0008
2198.00,0.0009
2197.00,0.0011
2196.00,0.0011
2195.00,0.0011
2194.00,0.0011
2193.00,0.0010
2192.00,0.0011
2191.00,0.0012
2190.00,0.0015
2189.00,0.0017
2188.00,0.0018
2187.00,0.0018
2186.00,0.0017
2185.00,0.0016
2184.00,0.0015
2183.00,0.0012
2182.00,0.0009
2181.00,0.0006
2180.00,0.0007
2179.00,0.0009
2178.00,0.0012
2177.00,0.0012
2176.00,0.0009
2175.00,0.0006
2174.00,0.0004
2173.00,0.0005
2172.00,0.0007
2171.00,0.0010
2170.00,0.0013
2169.00,0.0016
2168.00,0.0018
2167.00,0.0018
2166.00,0.0017
2165.00,0.0016
2164.00,0.0015
2163.00,0.0014
2162.00,0.0011
2161.00,0.0005
2160.00,-0.0005
2159.00,-0.0016
2158.00,-0.0025
2157.00,-0.0028
2156.00,-0.0028
2155.00,-0.0025
2154.00,-0.0022
2153.00,-0.0019
2152.00,-0.0016
2151.00,-0.0014
2150.00,-0.0013
2149.00,-0.0013
2148.00,-0.0013
2147.00,-0.0013
2146.00,-0.0012
2145.00,-0.0012
2144.00,-0.0012
2143.00,-0.0014
2142.00,-0.0014
2141.00,-0.0014
2140.00,-0.0013
2139.00,-0.0012
2138.00,-0.0012
2137.00,-0.0013
2136.00,-0.0016
2135.00,-0.0019
2134.00,-0.0021
2133.00,-0.0019
2132.00,-0.0016
2131.00,-0.0013
2130.00,-0.0010
2129.00,-0.0008
2128.00,-0.0007
2127.00,-0.0006
2126.00,-0.0005
2125.00,-0.0004
2124.00,-0.0003
2123.00,-0.0002
2122.00,-0.0002
2121.00,-0.0003
2120.00,-0.0003
2119.00,-0.0002
2118.00,0.0000
2117.00,0.0002
2116.00,0.0003
2115.00,0.0003
2114.00,0.0003
2113.00,0.0003
2112.00,0.0003
2111.00,0.0003
2110.00,0.0002
2109.00,0.0002
2108.00,0.0001
2107.00,0.0002
2106.00,0.0003
2105.00,0.0003
2104.00,0.0002
2103.00,0.0001
2102.00,0.0001
2101.00,0.0001
2100.00,0.0002
2099.00,0.0003
2098.00,0.0003
2097.00,0.0001
2096.00,-0.0001
2095.00,-0.0004
2094.00,-0.0004
2093.00,-0.0003
2092.00,-0.0001
2091.00,-0.0000
2090.00,-0.0000
2089.00,-0.0000
2088.00,-0.0000
2087.00,0.0000
2086.00,0.0001
2085.00,0.0002
2084.00,0.0003
2083.00,0.0004
2082.00,0.0004
2081.00,0.0004
2080.00,0.0003
2079.00,0.0001
2078.00,-0.0001
2077.00,-0.0001
2076.00,-0.0002
2075.00,-0.0002
2074.00,-0.0002
2073.00,-0.0001
2072.00,-0.0000
2071.00,0.0001
2070.00,0.0003
2069.00,0.0004
2068.00,0.0003
2067.00,0.0003
2066.00,0.0002
2065.00,0.0001
2064.00,-0.0001
2063.00,-0.0003
2062.00,-0.0004
2061.00,-0.0003
2060.00,-0.0001
2059.00,0.0000
2058.00,0.0001
2057.00,0.0002
2056.00,0.0003
2055.00,0.0003
2054.00,0.0004
2053.00,0.0005
2052.00,0.0007
2051.00,0.0007
2050.00,0.0005
2049.00,0.0002
2048.00,-0.0001
2047.00,-0.0003
2046.00,-0.0003
2045.00,-0.0002
2044.00,0.0000
2043.00,0.0002
2042.00,0.0003
2041.00,0.0003
2040.00,0.0002
2039.00,0.0001
2038.00,0.0001
2037.00,-0.0000
2036.00,-0.0003
2035.00,-0.0006
2034.00,-0.0009
2033.00,-0.0010
2032.00,-0.0009
2031.00,-0.0009
2030.00,-0.0010
2029.00,-0.0012
2028.00,-0.0014
2027.00,-0.0015
2026.00,-0.0015
2025.00,-0.0014
2024.00,-0.0014
2023.00,-0.0013
2022.00,-0.0012
2021.00,-0.0011
2020.00,-0.0009
2019.00,-0.0007
2018.00,-0.0005
2017.00,-0.0003
2016.00,-0.0002
2015.00,-0.0001
2014.00,-0.0001
2013.00,-0.0002
2012.00,-0.0003
2011.00,-0.0006
2010.00,-0.0009
2009.00,-0.0012
2008.00,-0.0015
2007.00,-0.0017
2006.00,-0.0016
2005.00,-0.0014
2004.00,-0.0013
2003.00,-0.0013
2002.00,-0.0014
2001.00,-0.0015
2000.00,-0.0017
1999.00,-0.0018
1998.00,-0.0019
1997.00,-0.0019
1996.00,-0.0018
1995.00,-0.0017
1994.00,-0.0015
1993.00,-0.0013
1992.00,-0.0010
1991.00,-0.0009
1990.00,-0.0009
1989.00,-0.0010
1988.00,-0.0009
1987.00,-0.0008
1986.00,-0.0006
1985.00,-0.0003
1984.00,0.0001
1983.00,0.0005
1982.00,0.0009
1981.00,0.0012
1980.00,0.0011
1979.00,0.0006
1978.00,-0.0001
1977.00,-0.0007
1976.00,-0.0011
1975.00,-0.0013
1974.00,-0.0011
1973.00,-0.0009
1972.00,-0.0007
1971.00,-0.0008
1970.00,-0.0011
1969.00,-0.0015
1968.00,-0.0017
1967.00,-0.0017
1966.00,-0.0016
1965.00,-0.0014
1964.00,-0.0013
1963.00,-0.0013
1962.00,-0.0013
1961.00,-0.0013
1960.00,-0.0014
1959.00,-0.0015
1958.00,-0.0014
1957.00,-0.0013
1956.00,-0.0012
1955.00,-0.0011
1954.00,-0.0012
1953.00,-0.0013
1952.00,-0.0013
1951.00,-0.0014
1950.00,-0.0015
1949.00,-0.0015
1948.00,-0.0014
1947.00,-0.0013
1946.00,-0.0013
1945.00,-0.0012
1944.00,-0.0012
1943.00,-0.0010
1942.00,-0.0008
1941.00,-0.0006
1940.00,-0.0005
1939.00,-0.0005
1938.00,-0.0005
1937.00,-0.0005
1936.00,-0.0004
1935.00,-0.0004
1934.00,-0.0005
1933.00,-0.0006
1932.00,-0.0007
1931.00,-0.0007
1930.00,-0.0008
1929.00,-0.0009
1928.00,-0.0008
1927.00,-0.0007
1926.00,-0.0006
1925.00,-0.0006
1924.00,-0.0006
1923.00,-0.0006
1922.00,-0.0005
1921.00,-0.0004
1920.00,-0.0002
1919.00,0.0000
1918.00,0.0002
1917.00,0.0002
1916.00,0.0002
1915.00,0.0001
1914.00,-0.0001
1913.00,-0.0002
1912.00,-0.0003
1911.00,-0.0003
1910.00,-0.0003
1909.00,-0.0002
1908.00,-0.0002
1907.00,-0.0002
1906.00,-0.0002
1905.00,-0.0002
1904.00,-0.0002
1903.00,-0.0002
1902.00,-0.0001
1901.00,-0.0001
1900.00,0.0000
1899.00,0.0000
1898.00,-0.0000
1897.00,-0.0000
1896.00,0.0000
1895.00,0.0001
1894.00,0.0001
1893.00,0.0001
1892.00,0.0001
1891.00,0.0001
1890.00,0.0000
1889.00,-0.0000
1888.00,-0.0000
1887.00,-0.0000
1886.00,-0.0000
1885.00,-0.0000
1884.00,0.0000
1883.00,-0.0000
1882.00,-0.0001
1881.00,-0.0001
1880.00,-0.0002
1879.00,-0.0002
1878.00,-0.0002
1877.00,-0.0002
1876.00,-0.0001
1875.00,-0.0001
1874.00,-0.0000
1873.00,0.0001
1872.00,0.0002
1871.00,0.0002
1870.00,0.0001
1869.00,-0.0000
1868.00,-0.0001
1867.00,-0.0000
1866.00,0.0001
1865.00,0.0001
1864.00,0.0001
1863.00,0.0001
1862.00,0.0000
1861.00,0.0000
1860.00,0.0000
1859.00,0.0000
1858.00,0.0001
1857.00,0.0001
1856.00,0.0002
1855.00,0.0002
1854.00,0.0002
1853.00,0.0003
1852.00,0.0004
1851.00,0.0004
1850.00,0.0004
1849.00,0.0003
1848.00,0.0003
1847.00,0.0004
1846.00,0.0003
1845.00,0.0003
1844.00,0.0003
1843.00,0.0003
1842.00,0.0004
1841.00,0.0003
1840.00,0.0003
1839.00,0.0003
1838.00,0.0003
1837.00,0.0004
1836.00,0.0005
1835.00,0.0005
1834.00,0.0005
1833.00,0.0005
1832.00,0.0005
1831.00,0.0005
1830.00,0.0005
1829.00,0.0005
1828.00,0.0004
1827.00,0.0004
1826.00,0.0004
1825.00,0.0005
1824.00,0.0005
1823.00,0.0006
1822.00,0.0005
1821.00,0.0005
1820.00,0.0004
1819.00,0.0004
1818.00,0.0003
1817.00,0.0002
1816.00,0.0002
1815.00,0.0003
1814.00,0.0004
1813.00,0.0004
1812.00,0.0005
1811.00,0.0005
1810.00,0.0005
1809.00,0.0005
1808.00,0.0005
1807.00,0.0005
1806.00,0.0005
1805.00,0.0005
1804.00,0.0005
1803.00,0.0005
1802.00,0.0005
1801.00,0.0005
1800.00,0.0006
1799.00,0.0006
1798.00,0.0006
1797.00,0.0006
1796.00,0.0005
1795.00,0.0005
1794.00,0.0005
1793.00,0.0006
1792.00,0.0006
1791.00,0.0007
1790.00,0.0008
1789.00,0.0009
1788.00,0.0009
1787.00,0.0009
1786.00,0.0009
1785.00,0.0009
1784.00,0.0009
1783.00,0.0009
1782.00,0.0009
1781.00,0.0009
1780.00,0.0009
1779.00,0.0009
1778.00,0.0009
1777.00,0.0009
1776.00,0.0009
1775.00,0.0009
1774.00,0.0009
1773.00,0.0010
1772.00,0.0010
1771.00,0.0011
1770.00,0.0011
1769.00,0.0012
1768.00,0.0012
1767.00,0.0013
1766.00,0.0013
1765.00,0.0014
1764.00,0.0014
1763.00,0.0014
1762.00,0.0014
1761.00,0.0014
1760.00,0.0014
1759.00,0.0014
1758.00,0.0015
1757.00,0.0016
1756.00,0.0017
1755.00,0.0019
1754.00,0.0019
1753.00,0.0020
1752.00,0.0021
1751.00,0.0021
1750.00,0.0021
1749.00,0.0022
1748.00,0.0023
1747.00,0.0023
1746.00,0.0023
1745.00,0.0023
1744.00,0.0023
1743.00,0.0024
1742.00,0.0024
1741.00,0.0024
1740.00,0.0024
1739.00,0.0024
1738.00,0.0024
1737.00,0.0024
1736.00,0.0024
1735.00,0.0024
1734.00,0.0024
1733.00,0.0024
1732.00,0.0024
1731.00,0.0024
1730.00,0.0024
1729.00,0.0024
1728.00,0.0024
1727.00,0.0024
1726.00,0.0024
1725.00,0.0024
1724.00,0.0025
1723.00,0.0025
1722.00,0.0026
1721.00,0.0025
1720.00,0.0025
1719.00,0.0025
1718.00,0.0025
1717.00,0.0025
1716.00,0.0025
1715.00,0.0025
1714.00,0.0023
1713.00,0.0023
1712.00,0.0022
1711.00,0.0022
1710.00,0.0022
1709.00,0.0022
1708.00,0.0022
1707.00,0.0022
1706.00,0.0022
1705.00,0.0022
1704.00,0.0023
1703.00,0.0023
1702.00,0.0023
1701.00,0.0024
1700.00,0.0025
1699.00,0.0025
1698.00,0.0025
1697.00,0.0025
1696.00,0.0025
1695.00,0.0026
1694.00,0.0026
1693.00,0.0026
1692.00,0.0026
1691.00,0.0027
1690.00,0.0027
1689.00,0.0027
1688.00,0.0028
1687.00,0.0028
1686.00,0.0027
1685.00,0.0028
1684.00,0.0029
1683.00,0.0030
1682.00,0.0030
1681.00,0.0031
1680.00,0.0031
1679.00,0.0032
1678.00,0.0032
1677.00,0.0032
1676.00,0.0033
1675.00,0.0034
1674.00,0.0034
1673.00,0.0035
1672.00,0.0036
1671.00,0.0036
1670.00,0.0036
1669.00,0.0036
1668.00,0.0036
1667.00,0.0035
1666.00,0.0035
1665.00,0.0036
1664.00,0.0036
1663.00,0.0036
1662.00,0.0037
1661.00,0.0037
1660.00,0.0038
1659.00,0.0039
1658.00,0.0039
1657.00,0.0040
1656.00,0.0040
1655.00,0.0041
1654.00,0.0042
1653.00,0.0044
1652.00,0.0045
1651.00,0.0047
1650.00,0.0049
1649.00,0.0051
1648.00,0.0053
1647.00,0.0056
1646.00,0.0057
1645.00,0.0056
1644.00,0.0055
1643.00,0.0053
1642.00,0.0052
1641.00,0.0051
1640.00,0.0050
1639.00,0.0050
1638.00,0.0050
1637.00,0.0050
1636.00,0.0050
1635.00,0.0049
1634.00,0.0048
1633.00,0.0048
1632.00,0.0048
1631.00,0.0048
1630.00,0.0047
1629.00,0.0047
1628.00,0.0046
1627.00,0.0045
1626.00,0.0044
1625.00,0.0043
1624.00,0.0043
1623.00,0.0042
1622.00,0.0042
1621.00,0.0042
1620.00,0.0041
1619.00,0.0041
1618.00,0.0040
1617.00,0.0039
1616.00,0.0039
1615.00,0.0039
1614.00,0.0039
1613.00,0.0039
1612.00,0.0039
1611.00,0.0039
1610.00,0.0039
1609.00,0.0038
1608.00,0.0038
1607.00,0.0038
1606.00,0.0038
1605.00,0.0038
1604.00,0.0037
1603.00,0.0037
1602.00,0.0037
1601.00,0.0037
1600.00,0.0038
1599.00,0.0038
1598.00,0.0038
1597.00,0.0038
1596.00,0.0038
1595.00,0.0038
1594.00,0.0038
1593.00,0.0038
1592.00,0.0038
1591.00,0.0038
1590.00,0.0038
1589.00,0.0038
1588.00,0.0039
1587.00,0.0039
1586.00,0.0039
1585.00,0.0040
1584.00,0.0041
1583.00,0.0042
1582.00,0.0043
1581.00,0.0044
1580.00,0.0046
1579.00,0.0047
1578.00,0.0048
1577.00,0.0048
1576.00,0.0048
1575.00,0.0048
1574.00,0.0047
1573.00,0.0047
1572.00,0.0047
1571.00,0.0047
1570.00,0.0046
1569.00,0.0045
1568.00,0.0045
1567.00,0.0045
1566.00,0.0045
1565.00,0.0045
1564.00,0.0045
1563.00,0.0045
1562.00,0.0045
1561.00,0.0045
1560.00,0.0045
1559.00,0.0045
1558.00,0.0044
1557.00,0.0044
1556.00,0.0045
1555.00,0.0045
1554.00,0.0045
1553.00,0.0046
1552.00,0.0047
1551.00,0.0048
1550.00,0.0049
1549.00,0.0050
1548.00,0.0051
1547.00,0.0052
1546.00,0.0053
1545.00,0.0055
1544.00,0.0056
1543.00,0.0056
1542.00,0.0056
1541.00,0.0057
1540.00,0.0057
1539.00,0.0055
1538.00,0.0053
1537.00,0.0052
1536.00,0.0051
1535.00,0.0050
1534.00,0.0049
1533.00,0.0048
1532.00,0.0047
1531.00,0.0046
1530.00,0.0045
1529.00,0.0045
1528.00,0.0045
1527.00,0.0045
1526.00,0.0044
1525.00,0.0045
1524.00,0.0046
1523.00,0.0046
1522.00,0.0046
1521.00,0.0047
1520.00,0.0047
1519.00,0.0047
1518.00,0.0048
1517.00,0.0049
1516.00,0.0050
1515.00,0.0051
1514.00,0.0050
1513.00,0.0050
1512.00,0.0051
1511.00,0.0051
1510.00,0.0052
1509.00,0.0054
1508.00,0.0056
1507.00,0.0057
1506.00,0.0057
1505.00,0.0058
1504.00,0.0060
1503.00,0.0062
1502.00,0.0063
1501.00,0.0065
1500.00,0.0068
1499.00,0.0070
1498.00,0.0072
1497.00,0.0076
1496.00,0.0080
1495.00,0.0083
1494.00,0.0085
1493.00,0.0088
1492.00,0.0091
1491.00,0.0095
1490.00,0.0099
1489.00,0.0104
1488.00,0.0109
1487.00,0.0113
1486.00,0.0118
1485.00,0.0124
1484.00,0.0131
1483.00,0.0138
1482.00,0.0147
1481.00,0.0158
1480.00,0.0169
1479.00,0.0181
1478.00,0.0197
1477.00,0.0218
1476.00,0.0245
1475.00,0.0277
1474.00,0.0318
1473.00,0.0376
1472.00,0.0443
1471.00,0.0505
1470.00,0.0565
1469.00,0.0628
1468.00,0.0696
1467.00,0.0771
1466.00,0.0855
1465.00,0.0947
1464.00,0.1028
1463.00,0.1083
1462.00,0.1119
1461.00,0.1143
1460.00,0.1160
1459.00,0.1173
1458.00,0.1186
1457.00,0.1199
1456.00,0.1204
1455.00,0.1200
1454.00,0.1193
1453.00,0.1181
1452.00,0.1160
1451.00,0.1127
1450.00,0.1080
1449.00,0.1011
1448.00,0.0920
1447.00,0.0821
1446.00,0.0731
1445.00,0.0653
1444.00,0.0586
1443.00,0.0530
1442.00,0.0487
1441.00,0.0457
1440.00,0.0437
1439.00,0.0427
1438.00,0.0424
1437.00,0.0420
1436.00,0.0408
1435.00,0.0383
1434.00,0.0349
1433.00,0.0309
1432.00,0.0266
1431.00,0.0228
1430.00,0.0199
1429.00,0.0177
1428.00,0.0162
1427.00,0.0153
1426.00,0.0147
1425.00,0.0142
1424.00,0.0137
1423.00,0.0134
1422.00,0.0133
1421.00,0.0131
1420.00,0.0129
1419.00,0.0126
1418.00,0.0125
1417.00,0.0122
1416.00,0.0120
1415.00,0.0119
1414.00,0.0119
1413.00,0.0119
1412.00,0.0117
1411.00,0.0117
1410.00,0.0117
1409.00,0.0117
1408.00,0.0117
1407.00,0.0118
1406.00,0.0120
1405.00,0.0121
1404.00,0.0123
1403.00,0.0126
1402.00,0.0129
1401.00,0.0133
1400.00,0.0135
1399.00,0.0139
1398.00,0.0143
1397.00,0.0146
1396.00,0.0150
1395.00,0.0156
1394.00,0.0163
1393.00,0.0168
1392.00,0.0173
1391.00,0.0180
1390.00,0.0190
1389.00,0.0205
1388.00,0.0226
1387.00,0.0258
1386.00,0.0301
1385.00,0.0359
1384.00,0.0437
1383.00,0.0545
1382.00,0.0689
1381.00,0.0871
1380.00,0.1089
1379.00,0.1329
1378.00,0.1549
1377.00,0.1698
1376.00,0.1732
1375.00,0.1630
1374.00,0.1421
1373.00,0.1179
1372.00,0.0962
1371.00,0.0783
1370.00,0.0639
1369.00,0.0529
1368.00,0.0452
1367.00,0.0403
1366.00,0.0376
1365.00,0.0364
1364.00,0.0364
1363.00,0.0374
1362.00,0.0391
1361.00,0.0410
1360.00,0.0424
1359.00,0.0428
1358.00,0.0418
1357.00,0.0395
1356.00,0.0363
1355.00,0.0327
1354.00,0.0292
1353.00,0.0261
1352.00,0.0236
1351.00,0.0216
1350.00,0.0199
1349.00,0.0184
1348.00,0.0172
1347.00,0.0162
1346.00,0.0154
1345.00,0.0148
1344.00,0.0142
1343.00,0.0137
1342.00,0.0133
1341.00,0.0129
1340.00,0.0126
1339.00,0.0124
1338.00,0.0123
1337.00,0.0122
1336.00,0.0123
1335.00,0.0125
1334.00,0.0127
1333.00,0.0130
1332.00,0.0134
1331.00,0.0137
1330.00,0.0138
1329.00,0.0137
1328.00,0.0134
1327.00,0.0129
1326.00,0.0124
1325.00,0.0119
1324.00,0.0113
1323.00,0.0108
1322.00,0.0104
1321.00,0.0100
1320.00,0.0098
1319.00,0.0095
1318.00,0.0094
1317.00,0.0093
1316.00,0.0092
1315.00,0.0092
1314.00,0.0092
1313.00,0.0092
1312.00,0.0094
1311.00,0.0097
1310.00,0.0102
1309.00,0.0111
1308.00,0.0123
1307.00,0.0138
1306.00,0.0152
1305.00,0.0161
1304.00,0.0163
1303.00,0.0158
1302.00,0.0150
1301.00,0.0142
1300.00,0.0137
1299.00,0.0134
1298.00,0.0133
1297.00,0.0132
1296.00,0.0131
1295.00,0.0128
1294.00,0.0124
1293.00,0.0119
1292.00,0.0114
1291.00,0.0109
1290.00,0.0105
1289.00,0.0101
1288.00,0.0099
1287.00,0.0097
1286.00,0.0095
1285.00,0.0093
1284.00,0.0092
1283.00,0.0091
1282.00,0.0090
1281.00,0.0089
1280.00,0.0089
1279.00,0.0089
1278.00,0.0089
1277.00,0.0089
1276.00,0.0089
1275.00,0.0091
1274.00,0.0092
1273.00,0.0093
1272.00,0.0095
1271.00,0.0097
1270.00,0.0099
1269.00,0.0102
1268.00,0.0105
1267.00,0.0108
1266.00,0.0112
1265.00,0.0116
1264.00,0.0120
1263.00,0.0125
1262.00,0.0130
1261.00,0.0136
1260.00,0.0143
1259.00,0.0151
1258.00,0.0161
1257.00,0.0168
1256.00,0.0172
1255.00,0.0170
1254.00,0.0162
1253.00,0.0151
1252.00,0.0140
1251.00,0.0130
1250.00,0.0122
1249.00,0.0116
1248.00,0.0112
1247.00,0.0109
1246.00,0.0106
1245.00,0.0103
1244.00,0.0101
1243.00,0.0100
1242.00,0.0098
1241.00,0.0097
1240.00,0.0096
1239.00,0.0095
1238.00,0.0094
1237.00,0.0093
1236.00,0.0092
1235.00,0.0092
1234.00,0.0091
1233.00,0.0091
1232.00,0.0090
1231.00,0.0090
1230.00,0.0090
1229.00,0.0090
1228.00,0.0091
1227.00,0.0092
1226.00,0.0093
1225.00,0.0094
1224.00,0.0096
1223.00,0.0099
1222.00,0.0102
1221.00,0.0104
1220.00,0.0106
1219.00,0.0106
1218.00,0.0106
1217.00,0.0104
1216.00,0.0101
1215.00,0.0098
1214.00,0.0095
1213.00,0.0092
1212.00,0.0090
1211.00,0.0087
1210.00,0.0085
1209.00,0.0084
1208.00,0.0083
1207.00,0.0083
1206.00,0.0083
1205.00,0.0083
1204.00,0.0082
1203.00,0.0082
1202.00,0.0082
1201.00,0.0081
1200.00,0.0081
1199.00,0.0081
1198.00,0.0081
1197.00,0.0081
1196.00,0.0082
1195.00,0.0083
1194.00,0.0084
1193.00,0.0085
1192.00,0.0085
1191.00,0.0086
1190.00,0.0088
1189.00,0.0089
1188.00,0.0091
1187.00,0.0092
1186.00,0.0094
1185.00,0.0096
1184.00,0.0098
1183.00,0.0101
1182.00,0.0104
1181.00,0.0109
1180.00,0.0114
1179.00,0.0121
1178.00,0.0129
1177.00,0.0139
1176.00,0.0153
1175.00,0.0173
1174.00,0.0198
1173.00,0.0230
1172.00,0.0268
1171.00,0.0310
1170.00,0.0351
1169.00,0.0384
1168.00,0.0405
1167.00,0.0409
1166.00,0.0398
1165.00,0.0378
1164.00,0.0353
1163.00,0.0329
1162.00,0.0307
1161.00,0.0290
1160.00,0.0276
1159.00,0.0266
1158.00,0.0258
1157.00,0.0252
1156.00,0.0248
1155.00,0.0245
1154.00,0.0242
1153.00,0.0239
1152.00,0.0233
1151.00,0.0225
1150.00,0.0215
1149.00,0.0204
1148.00,0.0193
1147.00,0.0183
1146.00,0.0173
1145.00,0.0164
1144.00,0.0156
1143.00,0.0148
1142.00,0.0141
1141.00,0.0135
1140.00,0.0129
1139.00,0.0124
1138.00,0.0120
1137.00,0.0116
1136.00,0.0112
1135.00,0.0109
1134.00,0.0106
1133.00,0.0104
1132.00,0.0102
1131.00,0.0101
1130.00,0.0101
1129.00,0.0100
1128.00,0.0100
1127.00,0.0099
1126.00,0.0099
1125.00,0.0099
1124.00,0.0099
1123.00,0.0098
1122.00,0.0098
1121.00,0.0098
1120.00,0.0098
1119.00,0.0098
1118.00,0.0098
1117.00,0.0099
1116.00,0.0099
1115.00,0.0099
1114.00,0.0100
1113.00,0.0101
1112.00,0.0103
1111.00,0.0105
1110.00,0.0107
1109.00,0.0111
1108.00,0.0116
1107.00,0.0121
1106.00,0.0128
1105.00,0.0134
1104.00,0.0139
1103.00,0.0141
1102.00,0.0141
1101.00,0.0138
1100.00,0.0134
1099.00,0.0129
1098.00,0.0124
1097.00,0.0120
1096.00,0.0116
1095.00,0.0114
1094.00,0.0112
1093.00,0.0111
1092.00,0.0111
1091.00,0.0110
1090.00,0.0110
1089.00,0.0109
1088.00,0.0108
1087.00,0.0108
1086.00,0.0108
1085.00,0.0109
1084.00,0.0110
1083.00,0.0110
1082.00,0.0110
1081.00,0.0109
1080.00,0.0107
1079.00,0.0106
1078.00,0.0105
1077.00,0.0105
1076.00,0.0105
1075.00,0.0105
1074.00,0.0105
1073.00,0.0106
1072.00,0.0105
1071.00,0.0103
1070.00,0.0102
1069.00,0.0101
1068.00,0.0100
1067.00,0.0100
1066.00,0.0100
1065.00,0.0100
1064.00,0.0101
1063.00,0.0103
1062.00,0.0105
1061.00,0.0106
1060.00,0.0105
1059.00,0.0104
1058.00,0.0104
1057.00,0.0104
1056.00,0.0105
1055.00,0.0107
1054.00,0.0109
1053.00,0.0111
1052.00,0.0114
1051.00,0.0116
1050.00,0.0119
1049.00,0.0122
1048.00,0.0127
1047.00,0.0132
1046.00,0.0137
1045.00,0.0140
1044.00,0.0141
1043.00,0.0139
1042.00,0.0136
1041.00,0.0132
1040.00,0.0129
1039.00,0.0126
1038.00,0.0125
1037.00,0.0124
1036.00,0.0123
1035.00,0.0122
1034.00,0.0120
1033.00,0.0119
1032.00,0.0118
1031.00,0.0118
1030.00,0.0118
1029.00,0.0119
1028.00,0.0120
1027.00,0.0121
1026.00,0.0122
1025.00,0.0124
1024.00,0.0126
1023.00,0.0129
1022.00,0.0131
1021.00,0.0134
1020.00,0.0137
1019.00,0.0139
1018.00,0.0141
1017.00,0.0142
1016.00,0.0143
1015.00,0.0143
1014.00,0.0143
1013.00,0.0143
1012.00,0.0143
1011.00,0.0143
1010.00,0.0145
1009.00,0.0147
1008.00,0.0151
1007.00,0.0156
1006.00,0.0165
1005.00,0.0178
1004.00,0.0198
1003.00,0.0226
1002.00,0.0265
1001.00,0.0313
1000.00,0.0366
999.00,0.0413
998.00,0.0439
997.00,0.0434
996.00,0.0401
995.00,0.0351
994.00,0.0297
993.00,0.0248
992.00,0.0210
991.00,0.0183
990.00,0.0163
989.00,0.0150
988.00,0.0142
987.00,0.0137
986.00,0.0135
985.00,0.0136
984.00,0.0140
983.00,0.0148
982.00,0.0162
981.00,0.0181
980.00,0.0207
979.00,0.0240
978.00,0.0282
977.00,0.0334
976.00,0.0391
975.00,0.0449
974.00,0.0496
973.00,0.0519
972.00,0.0509
971.00,0.0468
970.00,0.0406
969.00,0.0340
968.00,0.0283
967.00,0.0238
966.00,0.0207
965.00,0.0185
964.00,0.0169
963.00,0.0157
962.00,0.0148
961.00,0.0142
960.00,0.0137
959.00,0.0134
958.00,0.0131
957.00,0.0129
956.00,0.0127
955.00,0.0125
954.00,0.0123
953.00,0.0121
952.00,0.0119
951.00,0.0117
950.00,0.0116
949.00,0.0114
948.00,0.0113
947.00,0.0112
946.00,0.0112
945.00,0.0112
944.00,0.0114
943.00,0.0117
942.00,0.0119
941.00,0.0121
940.00,0.0120
939.00,0.0117
938.00,0.0112
937.00,0.0106
936.00,0.0100
935.00,0.0094
934.00,0.0089
933.00,0.0085
932.00,0.0081
931.00,0.0078
930.00,0.0075
929.00,0.0074
928.00,0.0072
927.00,0.0071
926.00,0.0070
925.00,0.0069
924.00,0.0068
923.00,0.0068
922.00,0.0067
921.00,0.0066
920.00,0.0066
919.00,0.0066
918.00,0.0067
917.00,0.0068
916.00,0.0068
915.00,0.0069
914.00,0.0070
913.00,0.0071
912.00,0.0072
911.00,0.0073
910.00,0.0074
909.00,0.0075
908.00,0.0077
907.00,0.0080
906.00,0.0086
905.00,0.0093
904.00,0.0105
903.00,0.0121
902.00,0.0139
901.00,0.0156
900.00,0.0167
899.00,0.0168
898.00,0.0160
897.00,0.0145
896.00,0.0128
895.00,0.0113
894.00,0.0101
893.00,0.0091
892.00,0.0085
891.00,0.0081
890.00,0.0079
889.00,0.0077
888.00,0.0075
887.00,0.0074
886.00,0.0073
885.00,0.0073
884.00,0.0073
883.00,0.0074
882.00,0.0074
881.00,0.0074
880.00,0.0074
879.00,0.0074
878.00,0.0074
877.00,0.0073
876.00,0.0072
875.00,0.0072
874.00,0.0073
873.00,0.0075
872.00,0.0077
871.00,0.0079
870.00,0.0079
869.00,0.0078
868.00,0.0077
867.00,0.0077
866.00,0.0078
865.00,0.0079
864.00,0.0081
863.00,0.0082
862.00,0.0084
861.00,0.0084
860.00,0.0085
859.00,0.0087
858.00,0.0090
857.00,0.0092
856.00,0.0094
855.00,0.0096
854.00,0.0098
853.00,0.0101
852.00,0.0105
851.00,0.0109
850.00,0.0115
849.00,0.0122
848.00,0.0133
847.00,0.0150
846.00,0.0177
845.00,0.0219
844.00,0.0279
843.00,0.0351
842.00,0.0414
841.00,0.0442
840.00,0.0420
839.00,0.0359
838.00,0.0285
837.00,0.0222
836.00,0.0181
835.00,0.0157
834.00,0.0144
833.00,0.0136
832.00,0.0130
831.00,0.0124
830.00,0.0119
829.00,0.0114
828.00,0.0111
827.00,0.0108
826.00,0.0107
825.00,0.0107
824.00,0.0108
823.00,0.0109
822.00,0.0111
821.00,0.0114
820.00,0.0116
819.00,0.0118
818.00,0.0120
817.00,0.0124
816.00,0.0131
815.00,0.0141
814.00,0.0154
813.00,0.0170
812.00,0.0188
811.00,0.0205
810.00,0.0218
809.00,0.0223
808.00,0.0219
807.00,0.0208
806.00,0.0193
805.00,0.0177
804.00,0.0163
803.00,0.0150
802.00,0.0140
801.00,0.0132
800.00,0.0125
799.00,0.0120
798.00,0.0115
797.00,0.0111
796.00,0.0107
795.00,0.0103
794.00,0.0099
793.00,0.0096
792.00,0.0092
791.00,0.0088
790.00,0.0085
789.00,0.0082
788.00,0.0079
787.00,0.0076
786.00,0.0074
785.00,0.0072
784.00,0.0070
783.00,0.0069
782.00,0.0068
781.00,0.0067
780.00,0.0065
779.00,0.0064
778.00,0.0063
777.00,0.0063
776.00,0.0064
775.00,0.0064
774.00,0.0064
773.00,0.0064
772.00,0.0065
771.00,0.0066
770.00,0.0067
769.00,0.0067
768.00,0.0066
767.00,0.0066
766.00,0.0066
765.00,0.0065
764.00,0.0065
763.00,0.0065
762.00,0.0065
761.00,0.0066
760.00,0.0067
759.00,0.0068
758.00,0.0069
757.00,0.0069
756.00,0.0070
755.00,0.0071
754.00,0.0072
753.00,0.0073
752.00,0.0074
751.00,0.0076
750.00,0.0077
749.00,0.0079
748.00,0.0080
747.00,0.0080
746.00,0.0080
745.00,0.0080
744.00,0.0082
743.00,0.0086
742.00,0.0090
741.00,0.0094
740.00,0.0098
739.00,0.0101
738.00,0.0104
737.00,0.0107
736.00,0.0110
735.00,0.0115
734.00,0.0120
733.00,0.0127
732.00,0.0134
731.00,0.0142
730.00,0.0147
729.00,0.0149
728.00,0.0149
727.00,0.0149
726.00,0.0150
725.00,0.0152
724.00,0.0156
723.00,0.0162
722.00,0.0166
721.00,0.0169
720.00,0.0167
719.00,0.0161
718.00,0.0151
717.00,0.0139
716.00,0.0129
715.00,0.0121
714.00,0.0116
713.00,0.0112
712.00,0.0108
711.00,0.0105
710.00,0.0103
709.00,0.0101
708.00,0.0100
707.00,0.0099
706.00,0.0098
705.00,0.0097
704.00,0.0096
703.00,0.0095
702.00,0.0094
701.00,0.0093
700.00,0.0091
699.00,0.0090
698.00,0.0090
697.00,0.0091
696.00,0.0091
695.00,0.0091
694.00,0.0090
693.00,0.0089
692.00,0.0088
691.00,0.0087
690.00,0.0087
689.00,0.0087
688.00,0.0088
687.00,0.0088
686.00,0.0087
685.00,0.0086
684.00,0.0087
683.00,0.0089
682.00,0.0091
681.00,0.0091
680.00,0.0090
679.00,0.0088
678.00,0.0086
677.00,0.0086
676.00,0.0088
675.00,0.0092
674.00,0.0096
673.00,0.0098
672.00,0.0099
671.00,0.0099
670.00,0.0097
669.00,0.0095
668.00,0.0094
667.00,0.0095
666.00,0.0095
665.00,0.0093
664.00,0.0091
663.00,0.0089
662.00,0.0089
661.00,0.0088
660.00,0.0086
659.00,0.0083
658.00,0.0081
657.00,0.0081
656.00,0.0082
655.00,0.0083
654.00,0.0083
653.00,0.0082
652.00,0.0081
651.00,0.0081
650.00,0.0081
649.00,0.0080
648.00,0.0079
647.00,0.0079
646.00,0.0079
645.00,0.0081
644.00,0.0083
643.00,0.0083
642.00,0.0082
641.00,0.0081
640.00,0.0081
639.00,0.0083
638.00,0.0084
637.00,0.0084
636.00,0.0083
635.00,0.0082
634.00,0.0083
633.00,0.0084
632.00,0.0084
631.00,0.0082
630.00,0.0079
629.00,0.0077
628.00,0.0076
627.00,0.0075
626.00,0.0075
625.00,0.0075
624.00,0.0077
623.00,0.0079
622.00,0.0080
621.00,0.0081
620.00,0.0081
619.00,0.0082
618.00,0.0083
617.00,0.0083
616.00,0.0082
615.00,0.0079
614.00,0.0077
613.00,0.0077
612.00,0.0078
611.00,0.0079
610.00,0.0081
609.00,0.0081
608.00,0.0081
607.00,0.0081
606.00,0.0083
605.00,0.0085
604.00,0.0086
603.00,0.0085
602.00,0.0082
601.00,0.0080
600.00,0.0080
599.00,0.0081
598.00,0.0083
597.00,0.0082
596.00,0.0081
595.00,0.0081
594.00,0.0081
593.00,0.0081
592.00,0.0081
591.00,0.0082
590.00,0.0084
589.00,0.0083
588.00,0.0080
587.00,0.0077
586.00,0.0076
585.00,0.0077
584.00,0.0081
583.00,0.0085
582.00,0.0088
581.00,0.0090
580.00,0.0089
579.00,0.0087
578.00,0.0086
577.00,0.0087
576.00,0.0089
575.00,0.0090
574.00,0.0090
573.00,0.0090
572.00,0.0090
571.00,0.0092
570.00,0.0093
569.00,0.0094
568.00,0.0092
567.00,0.0088
566.00,0.0084
565.00,0.0083
564.00,0.0083
563.00,0.0083
562.00,0.0080
561.00,0.0078
560.00,0.0079
559.00,0.0082
558.00,0.0085
557.00,0.0086
556.00,0.0085
555.00,0.0084
554.00,0.0085
553.00,0.0089
552.00,0.0093
551.00,0.0095
550.00,0.0096
549.00,0.0097
548.00,0.0097
547.00,0.0098
546.00,0.0098
545.00,0.0098
544.00,0.0097
543.00,0.0096
542.00,0.0097
541.00,0.0100
540.00,0.0105
539.00,0.0110
538.00,0.0112
537.00,0.0110
536.00,0.0109
535.00,0.0110
534.00,0.0114
533.00,0.0119
532.00,0.0123
531.00,0.0125
530.00,0.0124
529.00,0.0120
528.00,0.0115
527.00,0.0111
526.00,0.0109
525.00,0.0106
524.00,0.0101
523.00,0.0097
522.00,0.0094
521.00,0.0094
520.00,0.0093
519.00,0.0092
518.00,0.0092
517.00,0.0094
516.00,0.0095
515.00,0.0095
514.00,0.0092
513.00,0.0088
512.00,0.0086
511.00,0.0085
510.00,0.0084
509.00,0.0080
508.00,0.0076
507.00,0.0074
506.00,0.0074
505.00,0.0076
504.00,0.0080
503.00,0.0086
502.00,0.0093
501.00,0.0097
500.00,0.0096
499.00,0.0092
498.00,0.0087
497.00,0.0083
496.00,0.0083
495.00,0.0086
494.00,0.0092
493.00,0.0096
492.00,0.0097
491.00,0.0094
490.00,0.0089
489.00,0.0085
488.00,0.0085
487.00,0.0090
486.00,0.0095
485.00,0.0096
484.00,0.0094
483.00,0.0097
482.00,0.0104
481.00,0.0112
480.00,0.0115
479.00,0.0111
478.00,0.0105
477.00,0.0102
476.00,0.0104
475.00,0.0111
474.00,0.0117
473.00,0.0120
472.00,0.0120
471.00,0.0125
470.00,0.0140
469.00,0.0160
468.00,0.0176
467.00,0.0184
466.00,0.0181
465.00,0.0173
464.00,0.0166
463.00,0.0166
462.00,0.0175
461.00,0.0185
460.00,0.0193
459.00,0.0197
458.00,0.0202
457.00,0.0208
456.00,0.0212
455.00,0.0212
454.00,0.0208
453.00,0.0198
452.00,0.0181
451.00,0.0165
450.00,0.0154
