Created as New Dataset,Sample 018 By Administrator Date Thursday, September 04 2025
cm-1,A
4000.00,0.0012
3999.00,0.0012
3998.00,0.0012
3997.00,0.0012
3996.00,0.0011
3995.00,0.0011
3994.00,0.0011
3993.00,0.0011
3992.00,0.0012
3991.00,0.0012
3990.00,0.0012
3989.00,0.0012
3988.00,0.0012
3987.00,0.0012
3986.00,0.0011
3985.00,0.0011
3984.00,0.0011
3983.00,0.0011
3982.00,0.0011
3981.00,0.0011
3980.00,0.0010
3979.00,0.0010
3978.00,0.0010
3977.00,0.0010
3976.00,0.0010
3975.00,0.0010
3974.00,0.0010
3973.00,0.0010
3972.00,0.0010
3971.00,0.0010
3970.00,0.0010
3969.00,0.0010
3968.00,0.0010
3967.00,0.0010
3966.00,0.0010
3965.00,0.0010
3964.00,0.0010
3963.00,0.0010
3962.00,0.0010
3961.00,0.0010
3960.00,0.0010
3959.00,0.0010
3958.00,0.0009
3957.00,0.0010
3956.00,0.0010
3955.00,0.0010
3954.00,0.0010
3953.00,0.0011
3952.00,0.0011
3951.00,0.0010
3950.00,0.0010
3949.00,0.0010
3948.00,0.0009
3947.00,0.0009
3946.00,0.0009
3945.00,0.0009
3944.00,0.0009
3943.00,0.0009
3942.00,0.0009
3941.00,0.0009
3940.00,0.0009
3939.00,0.0010
3938.00,0.0010
3937.00,0.0010
3936.00,0.0010
3935.00,0.0010
3934.00,0.0010
3933.00,0.0010
3932.00,0.0011
3931.00,0.0011
3930.00,0.0011
3929.00,0.0011
3928.00,0.0011
3927.00,0.0011
3926.00,0.0011
3925.00,0.0011
3924.00,0.0011
3923.00,0.0011
3922.00,0.0011
3921.00,0.0011
3920.00,0.0010
3919.00,0.0010
3918.00,0.0010
3917.00,0.0010
3916.00,0.0011
3915.00,0.0011
3914.00,0.0011
3913.00,0.0011
3912.00,0.0011
3911.00,0.0010
3910.00,0.0011
3909.00,0.0011
3908.00,0.0011
3907.00,0.0011
3906.00,0.0012
3905.00,0.0012
3904.00,0.0013
3903.00,0.0013
3902.00,0.0013
3901.00,0.0012
3900.00,0.0011
3899.00,0.0010
3898.00,0.0010
3897.00,0.0011
3896.00,0.0011
3895.00,0.0011
3894.00,0.0011
3893.00,0.0011
3892.00,0.0011
3891.00,0.0011
3890.00,0.0011
3889.00,0.0011
3888.00,0.0011
3887.00,0.0011
3886.00,0.0011
3885.00,0.0011
3884.00,0.0011
3883.00,0.0011
3882.00,0.0011
3881.00,0.0011
3880.00,0.0011
3879.00,0.0011
3878.00,0.0011
3877.00,0.0011
3876.00,0.0011
3875.00,0.0011
3874.00,0.0012
3873.00,0.0013
3872.00,0.0013
3871.00,0.0012
3870.00,0.0012
3869.00,0.0012
3868.00,0.0012
3867.00,0.0012
3866.00,0.0011
3865.00,0.0011
3864.00,0.0011
3863.00,0.0011
3862.00,0.0011
3861.00,0.0011
3860.00,0.0011
3859.00,0.0011
3858.00,0.0012
3857.00,0.0012
3856.00,0.0012
3855.00,0.0012
3854.00,0.0012
3853.00,0.0012
3852.00,0.0012
3851.00,0.0012
3850.00,0.0011
3849.00,0.0011
3848.00,0.0011
3847.00,0.0011
3846.00,0.0011
3845.00,0.0011
3844.00,0.0011
3843.00,0.0011
3842.00,0.0012
3841.00,0.0012
3840.00,0.0012
3839.00,0.0012
3838.00,0.0012
3837.00,0.0012
3836.00,0.0011
3835.00,0.0011
3834.00,0.0011
3833.00,0.0011
3832.00,0.0011
3831.00,0.0011
3830.00,0.0011
3829.00,0.0011
3828.00,0.0011
3827.00,0.0011
3826.00,0.0012
3825.00,0.0012
3824.00,0.0013
3823.00,0.0013
3822.00,0.0013
3821.00,0.0013
3820.00,0.0013
3819.00,0.0013
3818.00,0.0013
3817.00,0.0012
3816.00,0.0012
3815.00,0.0012
3814.00,0.0012
3813.00,0.0011
3812.00,0.0011
3811.00,0.0011
3810.00,0.0012
3809.00,0.0012
3808.00,0.0012
3807.00,0.0013
3806.00,0.0013
3805.00,0.0013
3804.00,0.0013
3803.00,0.0012
3802.00,0.0012
3801.00,0.0012
3800.00,0.0012
3799.00,0.0012
3798.00,0.0011
3797.00,0.0011
3796.00,0.0011
3795.00,0.0011
3794.00,0.0011
3793.00,0.0011
3792.00,0.0010
3791.00,0.0010
3790.00,0.0010
3789.00,0.0010
3788.00,0.0010
3787.00,0.0010
3786.00,0.0010
3785.00,0.0010
3784.00,0.0010
3783.00,0.0010
3782.00,0.0010
3781.00,0.0010
3780.00,0.0010
3779.00,0.0010
3778.00,0.0009
3777.00,0.0009
3776.00,0.0009
3775.00,0.0009
3774.00,0.0010
3773.00,0.0010
3772.00,0.0011
3771.00,0.0011
3770.00,0.0011
3769.00,0.0011
3768.00,0.0011
3767.00,0.0011
3766.00,0.0011
3765.00,0.0011
3764.00,0.0011
3763.00,0.0011
3762.00,0.0011
3761.00,0.0011
3760.00,0.0011
3759.00,0.0011
3758.00,0.0011
3757.00,0.0012
3756.00,0.0012
3755.00,0.0013
3754.00,0.0013
3753.00,0.0013
3752.00,0.0013
3751.00,0.0013
3750.00,0.0012
3749.00,0.0012
3748.00,0.0012
3747.00,0.0011
3746.00,0.0011
3745.00,0.0011
3744.00,0.0011
3743.00,0.0012
3742.00,0.0012
3741.00,0.0012
3740.00,0.0012
3739.00,0.0012
3738.00,0.0012
3737.00,0.0013
3736.00,0.0013
3735.00,0.0013
3734.00,0.0013
3733.00,0.0012
3732.00,0.0012
3731.00,0.0012
3730.00,0.0011
3729.00,0.0011
3728.00,0.0010
3727.00,0.0010
3726.00,0.0010
3725.00,0.0009
3724.00,0.0009
3723.00,0.0009
3722.00,0.0009
3721.00,0.0009
3720.00,0.0010
3719.00,0.0010
3718.00,0.0010
3717.00,0.0010
3716.00,0.0010
3715.00,0.0010
3714.00,0.0010
3713.00,0.0011
3712.00,0.0011
3711.00,0.0011
3710.00,0.0011
3709.00,0.0010
3708.00,0.0010
3707.00,0.0010
3706.00,0.0010
3705.00,0.0010
3704.00,0.0010
3703.00,0.0009
3702.00,0.0009
3701.00,0.0009
3700.00,0.0010
3699.00,0.0010
3698.00,0.0010
3697.00,0.0010
3696.00,0.0010
3695.00,0.0010
3694.00,0.0010
3693.00,0.0011
3692.00,0.0011
3691.00,0.0011
3690.00,0.0011
3689.00,0.0012
3688.00,0.0012
3687.00,0.0013
3686.00,0.0014
3685.00,0.0014
3684.00,0.0015
3683.00,0.0015
3682.00,0.0016
3681.00,0.0016
3680.00,0.0017
3679.00,0.0019
3678.00,0.0021
3677.00,0.0023
3676.00,0.0025
3675.00,0.0025
3674.00,0.0025
3673.00,0.0024
3672.00,0.0023
3671.00,0.0023
3670.00,0.0022
3669.00,0.0022
3668.00,0.0022
3667.00,0.0022
3666.00,0.0022
3665.00,0.0022
3664.00,0.0022
3663.00,0.0022
3662.00,0.0022
3661.00,0.0022
3660.00,0.0023
3659.00,0.0023
3658.00,0.0024
3657.00,0.0024
3656.00,0.0024
3655.00,0.0024
3654.00,0.0024
3653.00,0.0024
3652.00,0.0024
3651.00,0.0025
3650.00,0.0025
3649.00,0.0026
3648.00,0.0025
3647.00,0.0024
3646.00,0.0023
3645.00,0.0023
3644.00,0.0022
3643.00,0.0022
3642.00,0.0022
3641.00,0.0021
3640.00,0.0021
3639.00,0.0021
3638.00,0.0021
3637.00,0.0020
3636.00,0.0020
3635.00,0.0019
3634.00,0.0018
3633.00,0.0018
3632.00,0.0018
3631.00,0.0018
3630.00,0.0017
3629.00,0.0017
3628.00,0.0017
3627.00,0.0017
3626.00,0.0017
3625.00,0.0017
3624.00,0.0017
3623.00,0.0017
3622.00,0.0017
3621.00,0.0017
3620.00,0.0017
3619.00,0.0018
3618.00,0.0018
3617.00,0.0018
3616.00,0.0018
3615.00,0.0018
3614.00,0.0018
3613.00,0.0018
3612.00,0.0018
3611.00,0.0018
3610.00,0.0018
3609.00,0.0018
3608.00,0.0018
3607.00,0.0018
3606.00,0.0018
3605.00,0.0018
3604.00,0.0018
3603.00,0.0018
3602.00,0.0018
3601.00,0.0018
3600.00,0.0018
3599.00,0.0018
3598.00,0.0018
3597.00,0.0018
3596.00,0.0018
3595.00,0.0018
3594.00,0.0018
3593.00,0.0019
3592.00,0.0019
3591.00,0.0019
3590.00,0.0019
3589.00,0.0020
3588.00,0.0020
3587.00,0.0020
3586.00,0.0020
3585.00,0.0020
3584.00,0.0021
3583.00,0.0021
3582.00,0.0021
3581.00,0.0021
3580.00,0.0022
3579.00,0.0022
3578.00,0.0022
3577.00,0.0022
3576.00,0.0022
3575.00,0.0023
3574.00,0.0023
3573.00,0.0023
3572.00,0.0023
3571.00,0.0024
3570.00,0.0024
3569.00,0.0024
3568.00,0.0024
3567.00,0.0025
3566.00,0.0025
3565.00,0.0026
3564.00,0.0026
3563.00,0.0026
3562.00,0.0027
3561.00,0.0027
3560.00,0.0027
3559.00,0.0027
3558.00,0.0027
3557.00,0.0027
3556.00,0.0027
3555.00,0.0027
3554.00,0.0028
3553.00,0.0028
3552.00,0.0028
3551.00,0.0029
3550.00,0.0029
3549.00,0.0030
3548.00,0.0030
3547.00,0.0030
3546.00,0.0031
3545.00,0.0031
3544.00,0.0031
3543.00,0.0031
3542.00,0.0031
3541.00,0.0031
3540.00,0.0031
3539.00,0.0031
3538.00,0.0031
3537.00,0.0032
3536.00,0.0032
3535.00,0.0033
3534.00,0.0033
3533.00,0.0034
3532.00,0.0035
3531.00,0.0035
3530.00,0.0036
3529.00,0.0036
3528.00,0.0036
3527.00,0.0036
3526.00,0.0035
3525.00,0.0035
3524.00,0.0036
3523.00,0.0036
3522.00,0.0037
3521.00,0.0037
3520.00,0.0037
3519.00,0.0036
3518.00,0.0036
3517.00,0.0036
3516.00,0.0036
3515.00,0.0037
3514.00,0.0037
3513.00,0.0038
3512.00,0.0038
3511.00,0.0038
3510.00,0.0038
3509.00,0.0039
3508.00,0.0039
3507.00,0.0040
3506.00,0.0041
3505.00,0.0041
3504.00,0.0042
3503.00,0.0042
3502.00,0.0042
3501.00,0.0043
3500.00,0.0043
3499.00,0.0043
3498.00,0.0043
3497.00,0.0043
3496.00,0.0043
3495.00,0.0043
3494.00,0.0044
3493.00,0.0044
3492.00,0.0044
3491.00,0.0044
3490.00,0.0045
3489.00,0.0046
3488.00,0.0046
3487.00,0.0047
3486.00,0.0048
3485.00,0.0048
3484.00,0.0049
3483.00,0.0049
3482.00,0.0050
3481.00,0.0050
3480.00,0.0051
3479.00,0.0051
3478.00,0.0051
3477.00,0.0050
3476.00,0.0050
3475.00,0.0050
3474.00,0.0050
3473.00,0.0050
3472.00,0.0050
3471.00,0.0051
3470.00,0.0051
3469.00,0.0051
3468.00,0.0051
3467.00,0.0052
3466.00,0.0052
3465.00,0.0052
3464.00,0.0053
3463.00,0.0053
3462.00,0.0053
3461.00,0.0054
3460.00,0.0054
3459.00,0.0055
3458.00,0.0055
3457.00,0.0056
3456.00,0.0056
3455.00,0.0056
3454.00,0.0056
3453.00,0.0057
3452.00,0.0057
3451.00,0.0057
3450.00,0.0057
3449.00,0.0058
3448.00,0.0058
3447.00,0.0058
3446.00,0.0059
3445.00,0.0059
3444.00,0.0059
3443.00,0.0060
3442.00,0.0060
3441.00,0.0060
3440.00,0.0060
3439.00,0.0060
3438.00,0.0060
3437.00,0.0061
3436.00,0.0061
3435.00,0.0061
3434.00,0.0061
3433.00,0.0062
3432.00,0.0062
3431.00,0.0062
3430.00,0.0063
3429.00,0.0063
3428.00,0.0063
3427.00,0.0063
3426.00,0.0063
3425.00,0.0064
3424.00,0.0064
3423.00,0.0065
3422.00,0.0065
3421.00,0.0065
3420.00,0.0065
3419.00,0.0065
3418.00,0.0065
3417.00,0.0065
3416.00,0.0065
3415.00,0.0066
3414.00,0.0067
3413.00,0.0067
3412.00,0.0068
3411.00,0.0068
3410.00,0.0068
3409.00,0.0068
3408.00,0.0068
3407.00,0.0068
3406.00,0.0068
3405.00,0.0069
3404.00,0.0069
3403.00,0.0070
3402.00,0.0070
3401.00,0.0070
3400.00,0.0071
3399.00,0.0071
3398.00,0.0071
3397.00,0.0071
3396.00,0.0071
3395.00,0.0071
3394.00,0.0071
3393.00,0.0072
3392.00,0.0072
3391.00,0.0072
3390.00,0.0072
3389.00,0.0072
3388.00,0.0072
3387.00,0.0072
3386.00,0.0072
3385.00,0.0072
3384.00,0.0071
3383.00,0.0071
3382.00,0.0071
3381.00,0.0071
3380.00,0.0071
3379.00,0.0071
3378.00,0.0071
3377.00,0.0071
3376.00,0.0071
3375.00,0.0071
3374.00,0.0071
3373.00,0.0071
3372.00,0.0071
3371.00,0.0071
3370.00,0.0071
3369.00,0.0071
3368.00,0.0071
3367.00,0.0071
3366.00,0.0072
3365.00,0.0072
3364.00,0.0072
3363.00,0.0072
3362.00,0.0072
3361.00,0.0072
3360.00,0.0072
3359.00,0.0073
3358.00,0.0073
3357.00,0.0073
3356.00,0.0073
3355.00,0.0073
3354.00,0.0073
3353.00,0.0073
3352.00,0.0073
3351.00,0.0073
3350.00,0.0073
3349.00,0.0073
3348.00,0.0073
3347.00,0.0072
3346.00,0.0072
3345.00,0.0072
3344.00,0.0072
3343.00,0.0072
3342.00,0.0073
3341.00,0.0073
3340.00,0.0073
3339.00,0.0073
3338.00,0.0072
3337.00,0.0072
3336.00,0.0072
3335.00,0.0072
3334.00,0.0072
3333.00,0.0072
3332.00,0.0072
3331.00,0.0072
3330.00,0.0072
3329.00,0.0072
3328.00,0.0072
3327.00,0.0072
3326.00,0.0071
3325.00,0.0071
3324.00,0.0071
3323.00,0.0071
3322.00,0.0071
3321.00,0.0071
3320.00,0.0071
3319.00,0.0071
3318.00,0.0071
3317.00,0.0071
3316.00,0.0071
3315.00,0.0071
3314.00,0.0071
3313.00,0.0071
3312.00,0.0072
3311.00,0.0072
3310.00,0.0072
3309.00,0.0073
3308.00,0.0073
3307.00,0.0073
3306.00,0.0073
3305.00,0.0073
3304.00,0.0073
3303.00,0.0073
3302.00,0.0074
3301.00,0.0074
3300.00,0.0074
3299.00,0.0074
3298.00,0.0073
3297.00,0.0073
3296.00,0.0073
3295.00,0.0073
3294.00,0.0073
3293.00,0.0072
3292.00,0.0072
3291.00,0.0071
3290.00,0.0070
3289.00,0.0070
3288.00,0.0069
3287.00,0.0069
3286.00,0.0069
3285.00,0.0069
3284.00,0.0069
3283.00,0.0069
3282.00,0.0069
3281.00,0.0069
3280.00,0.0069
3279.00,0.0069
3278.00,0.0068
3277.00,0.0068
3276.00,0.0067
3275.00,0.0066
3274.00,0.0066
3273.00,0.0066
3272.00,0.0066
3271.00,0.0066
3270.00,0.0066
3269.00,0.0067
3268.00,0.0067
3267.00,0.0067
3266.00,0.0066
3265.00,0.0066
3264.00,0.0065
3263.00,0.0065
3262.00,0.0065
3261.00,0.0064
3260.00,0.0064
3259.00,0.0064
3258.00,0.0064
3257.00,0.0063
3256.00,0.0063
3255.00,0.0063
3254.00,0.0063
3253.00,0.0063
3252.00,0.0063
3251.00,0.0063
3250.00,0.0063
3249.00,0.0063
3248.00,0.0063
3247.00,0.0063
3246.00,0.0062
3245.00,0.0062
3244.00,0.0062
3243.00,0.0062
3242.00,0.0062
3241.00,0.0062
3240.00,0.0062
3239.00,0.0062
3238.00,0.0062
3237.00,0.0062
3236.00,0.0062
3235.00,0.0062
3234.00,0.0062
3233.00,0.0062
3232.00,0.0062
3231.00,0.0062
3230.00,0.0062
3229.00,0.0063
3228.00,0.0063
3227.00,0.0063
3226.00,0.0063
3225.00,0.0063
3224.00,0.0063
3223.00,0.0063
3222.00,0.0063
3221.00,0.0063
3220.00,0.0064
3219.00,0.0064
3218.00,0.0064
3217.00,0.0064
3216.00,0.0065
3215.00,0.0065
3214.00,0.0066
3213.00,0.0066
3212.00,0.0067
3211.00,0.0067
3210.00,0.0067
3209.00,0.0067
3208.00,0.0066
3207.00,0.0066
3206.00,0.0066
3205.00,0.0067
3204.00,0.0067
3203.00,0.0067
3202.00,0.0067
3201.00,0.0067
3200.00,0.0067
3199.00,0.0067
3198.00,0.0067
3197.00,0.0067
3196.00,0.0066
3195.00,0.0066
3194.00,0.0066
3193.00,0.0066
3192.00,0.0066
3191.00,0.0066
3190.00,0.0066
3189.00,0.0066
3188.00,0.0066
3187.00,0.0066
3186.00,0.0066
3185.00,0.0065
3184.00,0.0065
3183.00,0.0064
3182.00,0.0064
3181.00,0.0063
3180.00,0.0062
3179.00,0.0062
3178.00,0.0062
3177.00,0.0062
3176.00,0.0061
3175.00,0.0061
3174.00,0.0061
3173.00,0.0061
3172.00,0.0060
3171.00,0.0060
3170.00,0.0060
3169.00,0.0059
3168.00,0.0059
3167.00,0.0058
3166.00,0.0058
3165.00,0.0058
3164.00,0.0058
3163.00,0.0058
3162.00,0.0057
3161.00,0.0057
3160.00,0.0057
3159.00,0.0057
3158.00,0.0057
3157.00,0.0057
3156.00,0.0056
3155.00,0.0056
3154.00,0.0056
3153.00,0.0056
3152.00,0.0055
3151.00,0.0055
3150.00,0.0055
3149.00,0.0055
3148.00,0.0055
3147.00,0.0055
3146.00,0.0055
3145.00,0.0055
3144.00,0.0055
3143.00,0.0055
3142.00,0.0055
3141.00,0.0054
3140.00,0.0054
3139.00,0.0053
3138.00,0.0053
3137.00,0.0053
3136.00,0.0052
3135.00,0.0052
3134.00,0.0052
3133.00,0.0051
3132.00,0.0051
3131.00,0.0050
3130.00,0.0050
3129.00,0.0050
3128.00,0.0050
3127.00,0.0050
3126.00,0.0050
3125.00,0.0049
3124.00,0.0049
3123.00,0.0049
3122.00,0.0048
3121.00,0.0047
3120.00,0.0047
3119.00,0.0047
3118.00,0.0047
3117.00,0.0047
3116.00,0.0047
3115.00,0.0046
3114.00,0.0046
3113.00,0.0046
3112.00,0.0046
3111.00,0.0046
3110.00,0.0046
3109.00,0.0045
3108.00,0.0045
3107.00,0.0045
3106.00,0.0045
3105.00,0.0045
3104.00,0.0045
3103.00,0.0045
3102.00,0.0045
3101.00,0.0045
3100.00,0.0045
3099.00,0.0044
3098.00,0.0044
3097.00,0.0044
3096.00,0.0044
3095.00,0.0044
3094.00,0.0045
3093.00,0.0045
3092.00,0.0045
3091.00,0.0045
3090.00,0.0045
3089.00,0.0044
3088.00,0.0044
3087.00,0.0043
3086.00,0.0043
3085.00,0.0044
3084.00,0.0044
3083.00,0.0044
3082.00,0.0044
3081.00,0.0044
3080.00,0.0044
3079.00,0.0044
3078.00,0.0044
3077.00,0.0043
3076.00,0.0043
3075.00,0.0043
3074.00,0.0043
3073.00,0.0043
3072.00,0.0043
3071.00,0.0043
3070.00,0.0043
3069.00,0.0043
3068.00,0.0044
3067.00,0.0044
3066.00,0.0045
3065.00,0.0045
3064.00,0.0045
3063.00,0.0045
3062.00,0.0045
3061.00,0.0045
3060.00,0.0045
3059.00,0.0045
3058.00,0.0044
3057.00,0.0044
3056.00,0.0044
3055.00,0.0045
3054.00,0.0045
3053.00,0.0046
3052.00,0.0046
3051.00,0.0046
3050.00,0.0046
3049.00,0.0046
3048.00,0.0046
3047.00,0.0046
3046.00,0.0046
3045.00,0.0046
3044.00,0.0046
3043.00,0.0047
3042.00,0.0047
3041.00,0.0047
3040.00,0.0047
3039.00,0.0048
3038.00,0.0048
3037.00,0.0048
3036.00,0.0048
3035.00,0.0048
3034.00,0.0049
3033.00,0.0049
3032.00,0.0050
3031.00,0.0050
3030.00,0.0051
3029.00,0.0052
3028.00,0.0052
3027.00,0.0053
3026.00,0.0054
3025.00,0.0055
3024.00,0.0055
3023.00,0.0056
3022.00,0.0056
3021.00,0.0057
3020.00,0.0059
3019.00,0.0061
3018.00,0.0063
3017.00,0.0065
3016.00,0.0067
3015.00,0.0070
3014.00,0.0072
3013.00,0.0076
3012.00,0.0079
3011.00,0.0082
3010.00,0.0086
3009.00,0.0090
3008.00,0.0094
3007.00,0.0098
3006.00,0.0104
3005.00,0.0109
3004.00,0.0115
3003.00,0.0120
3002.00,0.0126
3001.00,0.0132
3000.00,0.0138
2999.00,0.0143
2998.00,0.0149
2997.00,0.0154
2996.00,0.0159
2995.00,0.0165
2994.00,0.0170
2993.00,0.0177
2992.00,0.0183
2991.00,0.0190
2990.00,0.0198
2989.00,0.0206
2988.00,0.0216
2987.00,0.0228
2986.00,0.0244
2985.00,0.0263
2984.00,0.0286
2983.00,0.0309
2982.00,0.0331
2981.00,0.0349
2980.00,0.0365
2979.00,0.0380
2978.00,0.0398
2977.00,0.0421
2976.00,0.0449
2975.00,0.0483
2974.00,0.0526
2973.00,0.0576
2972.00,0.0631
2971.00,0.0692
2970.00,0.0757
2969.00,0.0827
2968.00,0.0905
2967.00,0.0991
2966.00,0.1083
2965.00,0.1179
2964.00,0.1275
2963.00,0.1368
2962.00,0.1451
2961.00,0.1521
2960.00,0.1577
2959.00,0.1620
2958.00,0.1654
2957.00,0.1685
2956.00,0.1718
2955.00,0.1757
2954.00,0.1801
2953.00,0.1847
2952.00,0.1887
2951.00,0.1910
2950.00,0.1906
2949.00,0.1870
2948.00,0.1801
2947.00,0.1702
2946.00,0.1585
2945.00,0.1463
2944.00,0.1349
2943.00,0.1252
2942.00,0.1177
2941.00,0.1127
2940.00,0.1099
2939.00,0.1093
2938.00,0.1105
2937.00,0.1135
2936.00,0.1180
2935.00,0.1239
2934.00,0.1312
2933.00,0.1397
2932.00,0.1491
2931.00,0.1594
2930.00,0.1702
2929.00,0.1812
2928.00,0.1921
2927.00,0.2027
2926.00,0.2129
2925.00,0.2226
2924.00,0.2319
2923.00,0.2409
2922.00,0.2495
2921.00,0.2576
2920.00,0.2646
2919.00,0.2697
2918.00,0.2720
2917.00,0.2710
2916.00,0.2665
2915.00,0.2591
2914.00,0.2500
2913.00,0.2400
2912.00,0.2302
2911.00,0.2212
2910.00,0.2131
2909.00,0.2060
2908.00,0.1995
2907.00,0.1933
2906.00,0.1872
2905.00,0.1809
2904.00,0.1745
2903.00,0.1680
2902.00,0.1614
2901.00,0.1548
2900.00,0.1484
2899.00,0.1424
2898.00,0.1366
2897.00,0.1314
2896.00,0.1267
2895.00,0.1226
2894.00,0.1191
2893.00,0.1162
2892.00,0.1140
2891.00,0.1122
2890.00,0.1109
2889.00,0.1100
2888.00,0.1094
2887.00,0.1091
2886.00,0.1093
2885.00,0.1098
2884.00,0.1107
2883.00,0.1119
2882.00,0.1136
2881.00,0.1154
2880.00,0.1173
2879.00,0.1189
2878.00,0.1200
2877.00,0.1203
2876.00,0.1199
2875.00,0.1192
2874.00,0.1185
2873.00,0.1182
2872.00,0.1187
2871.00,0.1198
2870.00,0.1213
2869.00,0.1229
2868.00,0.1238
2867.00,0.1234
2866.00,0.1211
2865.00,0.1168
2864.00,0.1109
2863.00,0.1041
2862.00,0.0973
2861.00,0.0913
2860.00,0.0868
2859.00,0.0837
2858.00,0.0821
2857.00,0.0816
2856.00,0.0821
2855.00,0.0832
2854.00,0.0848
2853.00,0.0866
2852.00,0.0885
2851.00,0.0900
2850.00,0.0910
2849.00,0.0916
2848.00,0.0920
2847.00,0.0928
2846.00,0.0944
2845.00,0.0972
2844.00,0.1012
2843.00,0.1062
2842.00,0.1117
2841.00,0.1170
2840.00,0.1214
2839.00,0.1240
2838.00,0.1240
2837.00,0.1210
2836.00,0.1149
2835.00,0.1062
2834.00,0.0959
2833.00,0.0851
2832.00,0.0747
2831.00,0.0654
2830.00,0.0575
2829.00,0.0510
2828.00,0.0457
2827.00,0.0414
2826.00,0.0379
2825.00,0.0351
2824.00,0.0327
2823.00,0.0307
2822.00,0.0289
2821.00,0.0274
2820.00,0.0261
2819.00,0.0249
2818.00,0.0239
2817.00,0.0231
2816.00,0.0223
2815.00,0.0215
2814.00,0.0209
2813.00,0.0203
2812.00,0.0198
2811.00,0.0192
2810.00,0.0187
2809.00,0.0182
2808.00,0.0176
2807.00,0.0170
2806.00,0.0163
2805.00,0.0157
2804.00,0.0151
2803.00,0.0144
2802.00,0.0139
2801.00,0.0134
2800.00,0.0130
2799.00,0.0127
2798.00,0.0124
2797.00,0.0121
2796.00,0.0119
2795.00,0.0116
2794.00,0.0114
2793.00,0.0111
2792.00,0.0108
2791.00,0.0105
2790.00,0.0101
2789.00,0.0098
2788.00,0.0095
2787.00,0.0092
2786.00,0.0089
2785.00,0.0087
2784.00,0.0085
2783.00,0.0082
2782.00,0.0080
2781.00,0.0078
2780.00,0.0076
2779.00,0.0074
2778.00,0.0072
2777.00,0.0071
2776.00,0.0070
2775.00,0.0069
2774.00,0.0068
2773.00,0.0067
2772.00,0.0067
2771.00,0.0067
2770.00,0.0066
2769.00,0.0066
2768.00,0.0065
2767.00,0.0065
2766.00,0.0064
2765.00,0.0064
2764.00,0.0063
2763.00,0.0063
2762.00,0.0062
2761.00,0.0062
2760.00,0.0061
2759.00,0.0061
2758.00,0.0061
2757.00,0.0061
2756.00,0.0061
2755.00,0.0061
2754.00,0.0061
2753.00,0.0061
2752.00,0.0060
2751.00,0.0060
2750.00,0.0060
2749.00,0.0059
2748.00,0.0059
2747.00,0.0060
2746.00,0.0060
2745.00,0.0061
2744.00,0.0062
2743.00,0.0063
2742.00,0.0063
2741.00,0.0064
2740.00,0.0065
2739.00,0.0066
2738.00,0.0067
2737.00,0.0068
2736.00,0.0070
2735.00,0.0071
2734.00,0.0073
2733.00,0.0074
2732.00,0.0076
2731.00,0.0077
2730.00,0.0079
2729.00,0.0081
2728.00,0.0084
2727.00,0.0087
2726.00,0.0090
2725.00,0.0092
2724.00,0.0093
2723.00,0.0094
2722.00,0.0093
2721.00,0.0091
2720.00,0.0088
2719.00,0.0085
2718.00,0.0082
2717.00,0.0079
2716.00,0.0076
2715.00,0.0073
2714.00,0.0071
2713.00,0.0069
2712.00,0.0067
2711.00,0.0066
2710.00,0.0064
2709.00,0.0062
2708.00,0.0061
2707.00,0.0059
2706.00,0.0058
2705.00,0.0057
2704.00,0.0056
2703.00,0.0055
2702.00,0.0055
2701.00,0.0054
2700.00,0.0053
2699.00,0.0053
2698.00,0.0053
2697.00,0.0052
2696.00,0.0052
2695.00,0.0052
2694.00,0.0052
2693.00,0.0052
2692.00,0.0052
2691.00,0.0052
2690.00,0.0052
2689.00,0.0053
2688.00,0.0053
2687.00,0.0053
2686.00,0.0053
2685.00,0.0053
2684.00,0.0053
2683.00,0.0053
2682.00,0.0053
2681.00,0.0053
2680.00,0.0053
2679.00,0.0053
2678.00,0.0053
2677.00,0.0053
2676.00,0.0053
2675.00,0.0052
2674.00,0.0052
2673.00,0.0052
2672.00,0.0052
2671.00,0.0052
2670.00,0.0052
2669.00,0.0052
2668.00,0.0052
2667.00,0.0052
2666.00,0.0053
2665.00,0.0053
2664.00,0.0054
2663.00,0.0054
2662.00,0.0055
2661.00,0.0055
2660.00,0.0055
2659.00,0.0055
2658.00,0.0055
2657.00,0.0055
2656.00,0.0054
2655.00,0.0053
2654.00,0.0053
2653.00,0.0052
2652.00,0.0052
2651.00,0.0051
2650.00,0.0051
2649.00,0.0051
2648.00,0.0050
2647.00,0.0050
2646.00,0.0050
2645.00,0.0049
2644.00,0.0049
2643.00,0.0048
2642.00,0.0048
2641.00,0.0047
2640.00,0.0047
2639.00,0.0046
2638.00,0.0046
2637.00,0.0045
2636.00,0.0045
2635.00,0.0045
2634.00,0.0045
2633.00,0.0045
2632.00,0.0045
2631.00,0.0045
2630.00,0.0046
2629.00,0.0046
2628.00,0.0046
2627.00,0.0046
2626.00,0.0046
2625.00,0.0047
2624.00,0.0047
2623.00,0.0046
2622.00,0.0046
2621.00,0.0046
2620.00,0.0045
2619.00,0.0045
2618.00,0.0045
2617.00,0.0045
2616.00,0.0045
2615.00,0.0045
2614.00,0.0045
2613.00,0.0044
2612.00,0.0044
2611.00,0.0044
2610.00,0.0043
2609.00,0.0042
2608.00,0.0041
2607.00,0.0040
2606.00,0.0039
2605.00,0.0038
2604.00,0.0038
2603.00,0.0037
2602.00,0.0037
2601.00,0.0037
2600.00,0.0036
2599.00,0.0036
2598.00,0.0036
2597.00,0.0036
2596.00,0.0036
2595.00,0.0036
2594.00,0.0036
2593.00,0.0036
2592.00,0.0036
2591.00,0.0037
2590.00,0.0038
2589.00,0.0038
2588.00,0.0039
2587.00,0.0040
2586.00,0.0041
2585.00,0.0042
2584.00,0.0043
2583.00,0.0043
2582.00,0.0044
2581.00,0.0044
2580.00,0.0043
2579.00,0.0042
2578.00,0.0040
2577.00,0.0039
2576.00,0.0037
2575.00,0.0036
2574.00,0.0034
2573.00,0.0033
2572.00,0.0032
2571.00,0.0030
2570.00,0.0029
2569.00,0.0029
2568.00,0.0028
2567.00,0.0028
2566.00,0.0028
2565.00,0.0028
2564.00,0.0028
2563.00,0.0028
2562.00,0.0028
2561.00,0.0028
2560.00,0.0028
2559.00,0.0028
2558.00,0.0028
2557.00,0.0027
2556.00,0.0027
2555.00,0.0027
2554.00,0.0026
2553.00,0.0026
2552.00,0.0026
2551.00,0.0025
2550.00,0.0025
2549.00,0.0024
2548.00,0.0023
2547.00,0.0022
2546.00,0.0022
2545.00,0.0022
2544.00,0.0022
2543.00,0.0022
2542.00,0.0022
2541.00,0.0022
2540.00,0.0022
2539.00,0.0022
2538.00,0.0022
2537.00,0.0022
2536.00,0.0021
2535.00,0.0021
2534.00,0.0020
2533.00,0.0020
2532.00,0.0020
2531.00,0.0021
2530.00,0.0021
2529.00,0.0021
2528.00,0.0021
2527.00,0.0020
2526.00,0.0019
2525.00,0.0018
2524.00,0.0017
2523.00,0.0018
2522.00,0.0018
2521.00,0.0018
2520.00,0.0017
2519.00,0.0017
2518.00,0.0017
2517.00,0.0017
2516.00,0.0017
2515.00,0.0017
2514.00,0.0016
2513.00,0.0016
2512.00,0.0015
2511.00,0.0015
2510.00,0.0016
2509.00,0.0016
2508.00,0.0016
2507.00,0.0016
2506.00,0.0016
2505.00,0.0015
2504.00,0.0015
2503.00,0.0015
2502.00,0.0015
2501.00,0.0016
2500.00,0.0016
2499.00,0.0016
2498.00,0.0016
2497.00,0.0016
2496.00,0.0016
2495.00,0.0016
2494.00,0.0016
2493.00,0.0016
2492.00,0.0015
2491.00,0.0015
2490.00,0.0014
2489.00,0.0015
2488.00,0.0015
2487.00,0.0015
2486.00,0.0015
2485.00,0.0014
2484.00,0.0014
2483.00,0.0014
2482.00,0.0014
2481.00,0.0014
2480.00,0.0013
2479.00,0.0013
2478.00,0.0013
2477.00,0.0013
2476.00,0.0013
2475.00,0.0014
2474.00,0.0013
2473.00,0.0013
2472.00,0.0012
2471.00,0.0012
2470.00,0.0012
2469.00,0.0012
2468.00,0.0013
2467.00,0.0013
2466.00,0.0014
2465.00,0.0014
2464.00,0.0014
2463.00,0.0014
2462.00,0.0014
2461.00,0.0014
2460.00,0.0014
2459.00,0.0014
2458.00,0.0015
2457.00,0.0015
2456.00,0.0015
2455.00,0.0015
2454.00,0.0015
2453.00,0.0014
2452.00,0.0014
2451.00,0.0014
2450.00,0.0014
2449.00,0.0015
2448.00,0.0015
2447.00,0.0015
2446.00,0.0015
2445.00,0.0014
2444.00,0.0014
2443.00,0.0015
2442.00,0.0015
2441.00,0.0016
2440.00,0.0015
2439.00,0.0015
2438.00,0.0015
2437.00,0.0015
2436.00,0.0017
2435.00,0.0017
2434.00,0.0017
2433.00,0.0017
2432.00,0.0016
2431.00,0.0015
2430.00,0.0015
2429.00,0.0016
2428.00,0.0016
2427.00,0.0016
2426.00,0.0016
2425.00,0.0016
2424.00,0.0015
2423.00,0.0015
2422.00,0.0015
2421.00,0.0014
2420.00,0.0014
2419.00,0.0013
2418.00,0.0013
2417.00,0.0013
2416.00,0.0013
2415.00,0.0013
2414.00,0.0012
2413.00,0.0012
2412.00,0.0012
2411.00,0.0012
2410.00,0.0013
2409.00,0.0013
2408.00,0.0013
2407.00,0.0013
2406.00,0.0013
2405.00,0.0013
2404.00,0.0012
2403.00,0.0013
2402.00,0.0013
2401.00,0.0014
2400.00,0.0014
2399.00,0.0013
2398.00,0.0013
2397.00,0.0012
2396.00,0.0012
2395.00,0.0012
2394.00,0.0012
2393.00,0.0012
2392.00,0.0012
2391.00,0.0012
2390.00,0.0012
2389.00,0.0012
2388.00,0.0012
2387.00,0.0011
2386.00,0.0010
2385.00,0.0010
2384.00,0.0009
2383.00,0.0008
2382.00,0.0007
2381.00,0.0006
2380.00,0.0006
2379.00,0.0005
2378.00,0.0004
2377.00,0.0004
2376.00,0.0004
2375.00,0.0004
2374.00,0.0004
2373.00,0.0005
2372.00,0.0006
2371.00,0.0006
2370.00,0.0006
2369.00,0.0005
2368.00,0.0005
2367.00,0.0005
2366.00,0.0005
2365.00,0.0005
2364.00,0.0005
2363.00,0.0005
2362.00,0.0005
2361.00,0.0005
2360.00,0.0005
2359.00,0.0005
2358.00,0.0005
2357.00,0.0004
2356.00,0.0004
2355.00,0.0005
2354.00,0.0005
2353.00,0.0006
2352.00,0.0005
2351.00,0.0004
2350.00,0.0004
2349.00,0.0004
2348.00,0.0005
2347.00,0.0006
2346.00,0.0007
2345.00,0.0007
2344.00,0.0007
2343.00,0.0007
2342.00,0.0007
2341.00,0.0007
2340.00,0.0007
2339.00,0.0008
2338.00,0.0008
2337.00,0.0009
2336.00,0.0009
2335.00,0.0009
2334.00,0.0008
2333.00,0.0008
2332.00,0.0008
2331.00,0.0008
2330.00,0.0009
2329.00,0.0010
2328.00,0.0011
2327.00,0.0014
2326.00,0.0017
2325.00,0.0020
2324.00,0.0022
2323.00,0.0021
2322.00,0.0019
2321.00,0.0017
2320.00,0.0016
2319.00,0.0015
2318.00,0.0014
2317.00,0.0013
2316.00,0.0013
2315.00,0.0012
2314.00,0.0011
2313.00,0.0011
2312.00,0.0011
2311.00,0.0012
2310.00,0.0012
2309.00,0.0013
2308.00,0.0013
2307.00,0.0014
2306.00,0.0015
2305.00,0.0015
2304.00,0.0016
2303.00,0.0015
2302.00,0.0015
2301.00,0.0015
2300.00,0.0015
2299.00,0.0015
2298.00,0.0016
2297.00,0.0016
2296.00,0.0017
2295.00,0.0017
2294.00,0.0017
2293.00,0.0018
2292.00,0.0018
2291.00,0.0019
2290.00,0.0020
2289.00,0.0021
2288.00,0.0022
2287.00,0.0022
2286.00,0.0021
2285.00,0.0021
2284.00,0.0020
2283.00,0.0019
2282.00,0.0018
2281.00,0.0017
2280.00,0.0017
2279.00,0.0018
2278.00,0.0019
2277.00,0.0020
2276.00,0.0020
2275.00,0.0019
2274.00,0.0018
2273.00,0.0016
2272.00,0.0015
2271.00,0.0014
2270.00,0.0014
2269.00,0.0014
2268.00,0.0014
2267.00,0.0012
2266.00,0.0011
2265.00,0.0010
2264.00,0.0010
2263.00,0.0011
2262.00,0.0012
2261.00,0.0013
2260.00,0.0015
2259.00,0.0016
2258.00,0.0017
2257.00,0.0017
2256.00,0.0015
2255.00,0.0014
2254.00,0.0012
2253.00,0.0012
2252.00,0.0011
2251.00,0.0011
2250.00,0.0012
2249.00,0.0012
2248.00,0.0012
2247.00,0.0012
2246.00,0.0012
2245.00,0.0013
2244.00,0.0013
2243.00,0.0013
2242.00,0.0012
2241.00,0.0012
2240.00,0.0012
2239.00,0.0011
2238.00,0.0011
2237.00,0.0010
2236.00,0.0010
2235.00,0.0010
2234.00,0.0011
2233.00,0.0012
2232.00,0.0012
2231.00,0.0012
2230.00,0.0011
2229.00,0.0010
2228.00,0.0009
2227.00,0.0009
2226.00,0.0009
2225.00,0.0010
2224.00,0.0011
2223.00,0.0012
2222.00,0.0012
2221.00,0.0012
2220.00,0.0013
2219.00,0.0014
2218.00,0.0014
2217.00,0.0013
2216.00,0.0011
2215.00,0.0009
2214.00,0.0008
2213.00,0.0007
2212.00,0.0006
2211.00,0.0005
2210.00,0.0005
2209.00,0.0006
2208.00,0.0007
2207.00,0.0007
2206.00,0.0008
2205.00,0.0008
2204.00,0.0009
2203.00,0.0010
2202.00,0.0010
2201.00,0.0010
2200.00,0.0010
2199.00,0.0011
2198.00,0.0012
2197.00,0.0012
2196.00,0.0010
2195.00,0.0009
2194.00,0.0007
2193.00,0.0007
2192.00,0.0008
2191.00,0.0009
2190.00,0.0012
2189.00,0.0013
2188.00,0.0014
2187.00,0.0013
2186.00,0.0013
2185.00,0.0012
2184.00,0.0013
2183.00,0.0013
2182.00,0.0013
2181.00,0.0013
2180.00,0.0013
2179.00,0.0014
2178.00,0.0014
2177.00,0.0012
2176.00,0.0009
2175.00,0.0006
2174.00,0.0005
2173.00,0.0005
2172.00,0.0007
2171.00,0.0010
2170.00,0.0013
2169.00,0.0015
2168.00,0.0015
2167.00,0.0013
2166.00,0.0012
2165.00,0.0013
2164.00,0.0016
2163.00,0.0017
2162.00,0.0014
2161.00,0.0006
2160.00,-0.0005
2159.00,-0.0017
2158.00,-0.0026
2157.00,-0.0029
2156.00,-0.0027
2155.00,-0.0023
2154.00,-0.0020
2153.00,-0.0016
2152.00,-0.0013
2151.00,-0.0011
2150.00,-0.0009
2149.00,-0.0009
2148.00,-0.0010
2147.00,-0.0012
2146.00,-0.0012
2145.00,-0.0012
2144.00,-0.0012
2143.00,-0.0011
2142.00,-0.0009
2141.00,-0.0007
2140.00,-0.0006
2139.00,-0.0005
2138.00,-0.0006
2137.00,-0.0008
2136.00,-0.0010
2135.00,-0.0013
2134.00,-0.0014
2133.00,-0.0013
2132.00,-0.0011
2131.00,-0.0008
2130.00,-0.0005
2129.00,-0.0003
2128.00,-0.0002
2127.00,-0.0002
2126.00,-0.0003
2125.00,-0.0004
2124.00,-0.0003
2123.00,-0.0002
2122.00,-0.0001
2121.00,-0.0001
2120.00,-0.0001
2119.00,0.0000
2118.00,0.0002
2117.00,0.0004
2116.00,0.0006
2115.00,0.0007
2114.00,0.0007
2113.00,0.0007
2112.00,0.0007
2111.00,0.0006
2110.00,0.0005
2109.00,0.0004
2108.00,0.0004
2107.00,0.0005
2106.00,0.0006
2105.00,0.0006
2104.00,0.0005
2103.00,0.0005
2102.00,0.0004
2101.00,0.0005
2100.00,0.0006
2099.00,0.0006
2098.00,0.0006
2097.00,0.0004
2096.00,0.0002
2095.00,0.0001
2094.00,0.0000
2093.00,0.0001
2092.00,0.0002
2091.00,0.0002
2090.00,0.0002
2089.00,0.0002
2088.00,0.0002
2087.00,0.0002
2086.00,0.0003
2085.00,0.0004
2084.00,0.0005
2083.00,0.0005
2082.00,0.0005
2081.00,0.0005
2080.00,0.0005
2079.00,0.0004
2078.00,0.0003
2077.00,0.0003
2076.00,0.0003
2075.00,0.0003
2074.00,0.0003
2073.00,0.0003
2072.00,0.0004
2071.00,0.0004
2070.00,0.0005
2069.00,0.0005
2068.00,0.0006
2067.00,0.0006
2066.00,0.0005
2065.00,0.0005
2064.00,0.0004
2063.00,0.0002
2062.00,0.0000
2061.00,-0.0000
2060.00,0.0000
2059.00,0.0002
2058.00,0.0004
2057.00,0.0006
2056.00,0.0006
2055.00,0.0006
2054.00,0.0007
2053.00,0.0009
2052.00,0.0011
2051.00,0.0013
2050.00,0.0012
2049.00,0.0009
2048.00,0.0005
2047.00,0.0002
2046.00,0.0000
2045.00,-0.0000
2044.00,0.0000
2043.00,0.0001
2042.00,0.0002
2041.00,0.0003
2040.00,0.0003
2039.00,0.0004
2038.00,0.0005
2037.00,0.0006
2036.00,0.0006
2035.00,0.0004
2034.00,0.0002
2033.00,-0.0002
2032.00,-0.0005
2031.00,-0.0008
2030.00,-0.0010
2029.00,-0.0011
2028.00,-0.0009
2027.00,-0.0008
2026.00,-0.0008
2025.00,-0.0009
2024.00,-0.0010
2023.00,-0.0011
2022.00,-0.0010
2021.00,-0.0008
2020.00,-0.0005
2019.00,-0.0001
2018.00,0.0002
2017.00,0.0002
2016.00,0.0001
2015.00,-0.0001
2014.00,-0.0003
2013.00,-0.0003
2012.00,-0.0004
2011.00,-0.0005
2010.00,-0.0006
2009.00,-0.0008
2008.00,-0.0011
2007.00,-0.0014
2006.00,-0.0016
2005.00,-0.0016
2004.00,-0.0014
2003.00,-0.0012
2002.00,-0.0010
2001.00,-0.0008
2000.00,-0.0007
1999.00,-0.0009
1998.00,-0.0011
1997.00,-0.0012
1996.00,-0.0012
1995.00,-0.0010
1994.00,-0.0008
1993.00,-0.0006
1992.00,-0.0003
1991.00,-0.0002
1990.00,-0.0002
1989.00,-0.0002
1988.00,-0.0002
1987.00,-0.0001
1986.00,-0.0000
1985.00,0.0002
1984.00,0.0005
1983.00,0.0009
1982.00,0.0014
1981.00,0.0016
1980.00,0.0014
1979.00,0.0008
1978.00,-0.0001
1977.00,-0.0009
1976.00,-0.0014
1975.00,-0.0015
1974.00,-0.0013
1973.00,-0.0009
1972.00,-0.0005
1971.00,-0.0002
1970.00,-0.0002
1969.00,-0.0004
1968.00,-0.0006
1967.00,-0.0006
1966.00,-0.0005
1965.00,-0.0004
1964.00,-0.0003
1963.00,-0.0004
1962.00,-0.0007
1961.00,-0.0009
1960.00,-0.0012
1959.00,-0.0013
1958.00,-0.0013
1957.00,-0.0011
1956.00,-0.0010
1955.00,-0.0008
1954.00,-0.0007
1953.00,-0.0007
1952.00,-0.0007
1951.00,-0.0008
1950.00,-0.0008
1949.00,-0.0008
1948.00,-0.0008
1947.00,-0.0007
1946.00,-0.0007
1945.00,-0.0007
1944.00,-0.0008
1943.00,-0.0008
1942.00,-0.0008
1941.00,-0.0006
1940.00,-0.0004
1939.00,-0.0003
1938.00,-0.0003
1937.00,-0.0002
1936.00,-0.0002
1935.00,-0.0001
1934.00,-0.0001
1933.00,-0.0002
1932.00,-0.0003
1931.00,-0.0004
1930.00,-0.0005
1929.00,-0.0005
1928.00,-0.0004
1927.00,-0.0003
1926.00,-0.0003
1925.00,-0.0002
1924.00,-0.0002
1923.00,-0.0001
1922.00,-0.0001
1921.00,0.0000
1920.00,0.0001
1919.00,0.0002
1918.00,0.0002
1917.00,0.0002
1916.00,0.0003
1915.00,0.0003
1914.00,0.0003
1913.00,0.0003
1912.00,0.0003
1911.00,0.0002
1910.00,0.0002
1909.00,0.0002
1908.00,0.0003
1907.00,0.0004
1906.00,0.0005
1905.00,0.0005
1904.00,0.0004
1903.00,0.0003
1902.00,0.0003
1901.00,0.0004
1900.00,0.0005
1899.00,0.0005
1898.00,0.0005
1897.00,0.0004
1896.00,0.0004
1895.00,0.0004
1894.00,0.0004
1893.00,0.0005
1892.00,0.0006
1891.00,0.0006
1890.00,0.0005
1889.00,0.0004
1888.00,0.0004
1887.00,0.0003
1886.00,0.0003
1885.00,0.0003
1884.00,0.0003
1883.00,0.0003
1882.00,0.0002
1881.00,0.0001
1880.00,0.0001
1879.00,0.0002
1878.00,0.0002
1877.00,0.0003
1876.00,0.0004
1875.00,0.0005
1874.00,0.0006
1873.00,0.0006
1872.00,0.0006
1871.00,0.0005
1870.00,0.0004
1869.00,0.0003
1868.00,0.0003
1867.00,0.0002
1866.00,0.0002
1865.00,0.0002
1864.00,0.0002
1863.00,0.0002
1862.00,0.0002
1861.00,0.0003
1860.00,0.0004
1859.00,0.0004
1858.00,0.0005
1857.00,0.0005
1856.00,0.0005
1855.00,0.0005
1854.00,0.0005
1853.00,0.0005
1852.00,0.0005
1851.00,0.0005
1850.00,0.0005
1849.00,0.0005
1848.00,0.0006
1847.00,0.0006
1846.00,0.0006
1845.00,0.0006
1844.00,0.0007
1843.00,0.0007
1842.00,0.0007
1841.00,0.0007
1840.00,0.0007
1839.00,0.0007
1838.00,0.0007
1837.00,0.0007
1836.00,0.0008
1835.00,0.0008
1834.00,0.0008
1833.00,0.0007
1832.00,0.0007
1831.00,0.0007
1830.00,0.0008
1829.00,0.0008
1828.00,0.0008
1827.00,0.0008
1826.00,0.0009
1825.00,0.0010
1824.00,0.0010
1823.00,0.0010
1822.00,0.0009
1821.00,0.0009
1820.00,0.0008
1819.00,0.0007
1818.00,0.0006
1817.00,0.0005
1816.00,0.0005
1815.00,0.0005
1814.00,0.0006
1813.00,0.0007
1812.00,0.0007
1811.00,0.0008
1810.00,0.0009
1809.00,0.0009
1808.00,0.0010
1807.00,0.0010
1806.00,0.0009
1805.00,0.0009
1804.00,0.0009
1803.00,0.0009
1802.00,0.0009
1801.00,0.0009
1800.00,0.0009
1799.00,0.0009
1798.00,0.0009
1797.00,0.0009
1796.00,0.0009
1795.00,0.0010
1794.00,0.0010
1793.00,0.0010
1792.00,0.0011
1791.00,0.0011
1790.00,0.0012
1789.00,0.0013
1788.00,0.0014
1787.00,0.0014
1786.00,0.0014
1785.00,0.0014
1784.00,0.0014
1783.00,0.0014
1782.00,0.0014
1781.00,0.0014
1780.00,0.0014
1779.00,0.0014
1778.00,0.0014
1777.00,0.0014
1776.00,0.0015
1775.00,0.0015
1774.00,0.0015
1773.00,0.0015
1772.00,0.0016
1771.00,0.0016
1770.00,0.0017
1769.00,0.0017
1768.00,0.0018
1767.00,0.0019
1766.00,0.0019
1765.00,0.0020
1764.00,0.0021
1763.00,0.0021
1762.00,0.0022
1761.00,0.0022
1760.00,0.0023
1759.00,0.0024
1758.00,0.0025
1757.00,0.0027
1756.00,0.0030
1755.00,0.0032
1754.00,0.0034
1753.00,0.0036
1752.00,0.0038
1751.00,0.0040
1750.00,0.0041
1749.00,0.0043
1748.00,0.0043
1747.00,0.0043
1746.00,0.0042
1745.00,0.0042
1744.00,0.0041
1743.00,0.0041
1742.00,0.0041
1741.00,0.0041
1740.00,0.0040
1739.00,0.0040
1738.00,0.0040
1737.00,0.0040
1736.00,0.0040
1735.00,0.0039
1734.00,0.0039
1733.00,0.0039
1732.00,0.0039
1731.00,0.0039
1730.00,0.0038
1729.00,0.0038
1728.00,0.0038
1727.00,0.0038
1726.00,0.0038
1725.00,0.0038
1724.00,0.0038
1723.00,0.0039
1722.00,0.0039
1721.00,0.0039
1720.00,0.0039
1719.00,0.0038
1718.00,0.0037
1717.00,0.0037
1716.00,0.0037
1715.00,0.0037
1714.00,0.0037
1713.00,0.0036
1712.00,0.0036
1711.00,0.0036
1710.00,0.0037
1709.00,0.0037
1708.00,0.0037
1707.00,0.0038
1706.00,0.0037
1705.00,0.0038
1704.00,0.0039
1703.00,0.0040
1702.00,0.0041
1701.00,0.0042
1700.00,0.0043
1699.00,0.0044
1698.00,0.0044
1697.00,0.0045
1696.00,0.0046
1695.00,0.0046
1694.00,0.0047
1693.00,0.0048
1692.00,0.0050
1691.00,0.0051
1690.00,0.0053
1689.00,0.0055
1688.00,0.0056
1687.00,0.0057
1686.00,0.0057
1685.00,0.0059
1684.00,0.0061
1683.00,0.0062
1682.00,0.0064
1681.00,0.0065
1680.00,0.0067
1679.00,0.0068
1678.00,0.0069
1677.00,0.0070
1676.00,0.0072
1675.00,0.0074
1674.00,0.0075
1673.00,0.0077
1672.00,0.0078
1671.00,0.0080
1670.00,0.0081
1669.00,0.0081
1668.00,0.0082
1667.00,0.0082
1666.00,0.0083
1665.00,0.0083
1664.00,0.0084
1663.00,0.0086
1662.00,0.0087
1661.00,0.0088
1660.00,0.0089
1659.00,0.0090
1658.00,0.0091
1657.00,0.0091
1656.00,0.0091
1655.00,0.0091
1654.00,0.0091
1653.00,0.0093
1652.00,0.0096
1651.00,0.0098
1650.00,0.0099
1649.00,0.0101
1648.00,0.0104
1647.00,0.0106
1646.00,0.0107
1645.00,0.0107
1644.00,0.0106
1643.00,0.0105
1642.00,0.0104
1641.00,0.0103
1640.00,0.0103
1639.00,0.0103
1638.00,0.0104
1637.00,0.0105
1636.00,0.0105
1635.00,0.0105
1634.00,0.0104
1633.00,0.0103
1632.00,0.0103
1631.00,0.0102
1630.00,0.0102
1629.00,0.0101
1628.00,0.0100
1627.00,0.0100
1626.00,0.0099
1625.00,0.0099
1624.00,0.0098
1623.00,0.0098
1622.00,0.0097
1621.00,0.0096
1620.00,0.0096
1619.00,0.0096
1618.00,0.0095
1617.00,0.0095
1616.00,0.0095
1615.00,0.0095
1614.00,0.0095
1613.00,0.0096
1612.00,0.0096
1611.00,0.0096
1610.00,0.0096
1609.00,0.0097
1608.00,0.0097
1607.00,0.0097
1606.00,0.0097
1605.00,0.0097
1604.00,0.0097
1603.00,0.0097
1602.00,0.0097
1601.00,0.0097
1600.00,0.0098
1599.00,0.0098
1598.00,0.0099
1597.00,0.0099
1596.00,0.0099
1595.00,0.0099
1594.00,0.0098
1593.00,0.0098
1592.00,0.0098
1591.00,0.0098
1590.00,0.0097
1589.00,0.0097
1588.00,0.0098
1587.00,0.0098
1586.00,0.0098
1585.00,0.0098
1584.00,0.0098
1583.00,0.0099
1582.00,0.0099
1581.00,0.0100
1580.00,0.0101
1579.00,0.0101
1578.00,0.0101
1577.00,0.0101
1576.00,0.0100
1575.00,0.0099
1574.00,0.0098
1573.00,0.0096
1572.00,0.0096
1571.00,0.0094
1570.00,0.0093
1569.00,0.0093
1568.00,0.0092
1567.00,0.0092
1566.00,0.0092
1565.00,0.0091
1564.00,0.0090
1563.00,0.0089
1562.00,0.0088
1561.00,0.0087
1560.00,0.0086
1559.00,0.0086
1558.00,0.0086
1557.00,0.0086
1556.00,0.0087
1555.00,0.0088
1554.00,0.0088
1553.00,0.0088
1552.00,0.0088
1551.00,0.0088
1550.00,0.0089
1549.00,0.0090
1548.00,0.0091
1547.00,0.0092
1546.00,0.0092
1545.00,0.0093
1544.00,0.0094
1543.00,0.0094
1542.00,0.0094
1541.00,0.0094
1540.00,0.0094
1539.00,0.0091
1538.00,0.0089
1537.00,0.0087
1536.00,0.0086
1535.00,0.0084
1534.00,0.0082
1533.00,0.0080
1532.00,0.0079
1531.00,0.0078
1530.00,0.0078
1529.00,0.0077
1528.00,0.0077
1527.00,0.0076
1526.00,0.0075
1525.00,0.0075
1524.00,0.0075
1523.00,0.0076
1522.00,0.0076
1521.00,0.0076
1520.00,0.0076
1519.00,0.0075
1518.00,0.0075
1517.00,0.0075
1516.00,0.0076
1515.00,0.0075
1514.00,0.0075
1513.00,0.0076
1512.00,0.0076
1511.00,0.0077
1510.00,0.0077
1509.00,0.0078
1508.00,0.0080
1507.00,0.0081
1506.00,0.0081
1505.00,0.0083
1504.00,0.0084
1503.00,0.0086
1502.00,0.0087
1501.00,0.0090
1500.00,0.0092
1499.00,0.0095
1498.00,0.0097
1497.00,0.0101
1496.00,0.0106
1495.00,0.0108
1494.00,0.0110
1493.00,0.0113
1492.00,0.0117
1491.00,0.0121
1490.00,0.0125
1489.00,0.0130
1488.00,0.0136
1487.00,0.0140
1486.00,0.0145
1485.00,0.0152
1484.00,0.0159
1483.00,0.0166
1482.00,0.0175
1481.00,0.0185
1480.00,0.0197
1479.00,0.0209
1478.00,0.0224
1477.00,0.0246
1476.00,0.0273
1475.00,0.0306
1474.00,0.0349
1473.00,0.0407
1472.00,0.0474
1471.00,0.0537
1470.00,0.0598
1469.00,0.0661
1468.00,0.0730
1467.00,0.0806
1466.00,0.0893
1465.00,0.0988
1464.00,0.1071
1463.00,0.1127
1462.00,0.1162
1461.00,0.1185
1460.00,0.1200
1459.00,0.1209
1458.00,0.1218
1457.00,0.1225
1456.00,0.1226
1455.00,0.1219
1454.00,0.1209
1453.00,0.1193
1452.00,0.1169
1451.00,0.1133
1450.00,0.1083
1449.00,0.1014
1448.00,0.0924
1447.00,0.0829
1446.00,0.0742
1445.00,0.0668
1444.00,0.0604
1443.00,0.0551
1442.00,0.0511
1441.00,0.0482
1440.00,0.0465
1439.00,0.0457
1438.00,0.0457
1437.00,0.0458
1436.00,0.0448
1435.00,0.0426
1434.00,0.0392
1433.00,0.0352
1432.00,0.0309
1431.00,0.0270
1430.00,0.0240
1429.00,0.0217
1428.00,0.0202
1427.00,0.0192
1426.00,0.0187
1425.00,0.0182
1424.00,0.0177
1423.00,0.0174
1422.00,0.0172
1421.00,0.0170
1420.00,0.0167
1419.00,0.0165
1418.00,0.0164
1417.00,0.0162
1416.00,0.0160
1415.00,0.0159
1414.00,0.0159
1413.00,0.0158
1412.00,0.0157
1411.00,0.0157
1410.00,0.0157
1409.00,0.0157
1408.00,0.0157
1407.00,0.0158
1406.00,0.0159
1405.00,0.0160
1404.00,0.0162
1403.00,0.0164
1402.00,0.0168
1401.00,0.0170
1400.00,0.0173
1399.00,0.0176
1398.00,0.0181
1397.00,0.0184
1396.00,0.0188
1395.00,0.0194
1394.00,0.0200
1393.00,0.0205
1392.00,0.0210
1391.00,0.0217
1390.00,0.0227
1389.00,0.0241
1388.00,0.0261
1387.00,0.0292
1386.00,0.0334
1385.00,0.0390
1384.00,0.0466
1383.00,0.0574
1382.00,0.0720
1381.00,0.0909
1380.00,0.1142
1379.00,0.1402
1378.00,0.1647
1377.00,0.1818
1376.00,0.1864
1375.00,0.1759
1374.00,0.1534
1373.00,0.1272
1372.00,0.1036
1371.00,0.0844
1370.00,0.0691
1369.00,0.0574
1368.00,0.0492
1367.00,0.0441
1366.00,0.0412
1365.00,0.0399
1364.00,0.0400
1363.00,0.0411
1362.00,0.0430
1361.00,0.0450
1360.00,0.0465
1359.00,0.0470
1358.00,0.0460
1357.00,0.0436
1356.00,0.0401
1355.00,0.0362
1354.00,0.0325
1353.00,0.0292
1352.00,0.0266
1351.00,0.0245
1350.00,0.0227
1349.00,0.0213
1348.00,0.0200
1347.00,0.0190
1346.00,0.0181
1345.00,0.0173
1344.00,0.0167
1343.00,0.0161
1342.00,0.0157
1341.00,0.0152
1340.00,0.0149
1339.00,0.0146
1338.00,0.0145
1337.00,0.0144
1336.00,0.0145
1335.00,0.0147
1334.00,0.0149
1333.00,0.0153
1332.00,0.0157
1331.00,0.0161
1330.00,0.0162
1329.00,0.0162
1328.00,0.0158
1327.00,0.0154
1326.00,0.0148
1325.00,0.0142
1324.00,0.0136
1323.00,0.0130
1322.00,0.0126
1321.00,0.0123
1320.00,0.0121
1319.00,0.0119
1318.00,0.0116
1317.00,0.0114
1316.00,0.0113
1315.00,0.0113
1314.00,0.0113
1313.00,0.0114
1312.00,0.0115
1311.00,0.0117
1310.00,0.0121
1309.00,0.0129
1308.00,0.0139
1307.00,0.0152
1306.00,0.0163
1305.00,0.0170
1304.00,0.0172
1303.00,0.0168
1302.00,0.0161
1301.00,0.0156
1300.00,0.0153
1299.00,0.0152
1298.00,0.0152
1297.00,0.0152
1296.00,0.0151
1295.00,0.0149
1294.00,0.0145
1293.00,0.0140
1292.00,0.0135
1291.00,0.0130
1290.00,0.0125
1289.00,0.0122
1288.00,0.0119
1287.00,0.0117
1286.00,0.0115
1285.00,0.0113
1284.00,0.0112
1283.00,0.0111
1282.00,0.0110
1281.00,0.0109
1280.00,0.0109
1279.00,0.0109
1278.00,0.0110
1277.00,0.0110
1276.00,0.0111
1275.00,0.0113
1274.00,0.0114
1273.00,0.0115
1272.00,0.0117
1271.00,0.0119
1270.00,0.0122
1269.00,0.0126
1268.00,0.0130
1267.00,0.0134
1266.00,0.0138
1265.00,0.0143
1264.00,0.0147
1263.00,0.0151
1262.00,0.0155
1261.00,0.0159
1260.00,0.0165
1259.00,0.0172
1258.00,0.0180
1257.00,0.0186
1256.00,0.0189
1255.00,0.0187
1254.00,0.0180
1253.00,0.0171
1252.00,0.0161
1251.00,0.0153
1250.00,0.0147
1249.00,0.0141
1248.00,0.0137
1247.00,0.0133
1246.00,0.0130
1245.00,0.0127
1244.00,0.0125
1243.00,0.0123
1242.00,0.0123
1241.00,0.0122
1240.00,0.0121
1239.00,0.0120
1238.00,0.0119
1237.00,0.0118
1236.00,0.0116
1235.00,0.0116
1234.00,0.0115
1233.00,0.0115
1232.00,0.0114
1231.00,0.0113
1230.00,0.0113
1229.00,0.0113
1228.00,0.0113
1227.00,0.0114
1226.00,0.0115
1225.00,0.0116
1224.00,0.0118
1223.00,0.0121
1222.00,0.0124
1221.00,0.0126
1220.00,0.0128
1219.00,0.0128
1218.00,0.0126
1217.00,0.0124
1216.00,0.0121
1215.00,0.0118
1214.00,0.0115
1213.00,0.0112
1212.00,0.0109
1211.00,0.0107
1210.00,0.0105
1209.00,0.0104
1208.00,0.0103
1207.00,0.0102
1206.00,0.0102
1205.00,0.0101
1204.00,0.0101
1203.00,0.0101
1202.00,0.0101
1201.00,0.0100
1200.00,0.0101
1199.00,0.0101
1198.00,0.0101
1197.00,0.0102
1196.00,0.0103
1195.00,0.0103
1194.00,0.0104
1193.00,0.0105
1192.00,0.0106
1191.00,0.0106
1190.00,0.0107
1189.00,0.0109
1188.00,0.0111
1187.00,0.0113
1186.00,0.0115
1185.00,0.0117
1184.00,0.0120
1183.00,0.0122
1182.00,0.0125
1181.00,0.0129
1180.00,0.0135
1179.00,0.0141
1178.00,0.0149
1177.00,0.0159
1176.00,0.0171
1175.00,0.0187
1174.00,0.0209
1173.00,0.0236
1172.00,0.0268
1171.00,0.0304
1170.00,0.0339
1169.00,0.0367
1168.00,0.0384
1167.00,0.0388
1166.00,0.0381
1165.00,0.0365
1164.00,0.0347
1163.00,0.0328
1162.00,0.0312
1161.00,0.0299
1160.00,0.0288
1159.00,0.0281
1158.00,0.0275
1157.00,0.0271
1156.00,0.0269
1155.00,0.0268
1154.00,0.0267
1153.00,0.0265
1152.00,0.0260
1151.00,0.0253
1150.00,0.0243
1149.00,0.0233
1148.00,0.0223
1147.00,0.0213
1146.00,0.0205
1145.00,0.0197
1144.00,0.0189
1143.00,0.0181
1142.00,0.0175
1141.00,0.0170
1140.00,0.0166
1139.00,0.0161
1138.00,0.0157
1137.00,0.0153
1136.00,0.0149
1135.00,0.0146
1134.00,0.0143
1133.00,0.0141
1132.00,0.0140
1131.00,0.0140
1130.00,0.0140
1129.00,0.0141
1128.00,0.0142
1127.00,0.0142
1126.00,0.0143
1125.00,0.0143
1124.00,0.0143
1123.00,0.0142
1122.00,0.0143
1121.00,0.0143
1120.00,0.0143
1119.00,0.0144
1118.00,0.0144
1117.00,0.0144
1116.00,0.0144
1115.00,0.0144
1114.00,0.0145
1113.00,0.0146
1112.00,0.0147
1111.00,0.0149
1110.00,0.0152
1109.00,0.0155
1108.00,0.0159
1107.00,0.0165
1106.00,0.0172
1105.00,0.0178
1104.00,0.0183
1103.00,0.0186
1102.00,0.0186
1101.00,0.0182
1100.00,0.0178
1099.00,0.0172
1098.00,0.0167
1097.00,0.0163
1096.00,0.0159
1095.00,0.0157
1094.00,0.0155
1093.00,0.0154
1092.00,0.0154
1091.00,0.0153
1090.00,0.0152
1089.00,0.0150
1088.00,0.0149
1087.00,0.0148
1086.00,0.0147
1085.00,0.0148
1084.00,0.0149
1083.00,0.0150
1082.00,0.0151
1081.00,0.0150
1080.00,0.0149
1079.00,0.0147
1078.00,0.0146
1077.00,0.0145
1076.00,0.0144
1075.00,0.0143
1074.00,0.0143
1073.00,0.0142
1072.00,0.0142
1071.00,0.0140
1070.00,0.0138
1069.00,0.0136
1068.00,0.0135
1067.00,0.0134
1066.00,0.0133
1065.00,0.0133
1064.00,0.0133
1063.00,0.0135
1062.00,0.0136
1061.00,0.0136
1060.00,0.0136
1059.00,0.0135
1058.00,0.0135
1057.00,0.0135
1056.00,0.0136
1055.00,0.0138
1054.00,0.0139
1053.00,0.0141
1052.00,0.0144
1051.00,0.0147
1050.00,0.0150
1049.00,0.0153
1048.00,0.0157
1047.00,0.0162
1046.00,0.0166
1045.00,0.0168
1044.00,0.0168
1043.00,0.0166
1042.00,0.0164
1041.00,0.0161
1040.00,0.0159
1039.00,0.0158
1038.00,0.0156
1037.00,0.0154
1036.00,0.0151
1035.00,0.0150
1034.00,0.0148
1033.00,0.0147
1032.00,0.0146
1031.00,0.0146
1030.00,0.0146
1029.00,0.0146
1028.00,0.0146
1027.00,0.0146
1026.00,0.0147
1025.00,0.0148
1024.00,0.0150
1023.00,0.0152
1022.00,0.0154
1021.00,0.0157
1020.00,0.0159
1019.00,0.0162
1018.00,0.0163
1017.00,0.0163
1016.00,0.0162
1015.00,0.0161
1014.00,0.0160
1013.00,0.0159
1012.00,0.0158
1011.00,0.0158
1010.00,0.0159
1009.00,0.0161
1008.00,0.0164
1007.00,0.0169
1006.00,0.0175
1005.00,0.0186
1004.00,0.0202
1003.00,0.0225
1002.00,0.0257
1001.00,0.0297
1000.00,0.0340
999.00,0.0377
998.00,0.0395
997.00,0.0389
996.00,0.0360
995.00,0.0318
994.00,0.0273
993.00,0.0233
992.00,0.0202
991.00,0.0180
990.00,0.0164
989.00,0.0153
988.00,0.0146
987.00,0.0141
986.00,0.0139
985.00,0.0140
984.00,0.0144
983.00,0.0151
982.00,0.0163
981.00,0.0179
980.00,0.0202
979.00,0.0232
978.00,0.0270
977.00,0.0315
976.00,0.0365
975.00,0.0414
974.00,0.0452
973.00,0.0469
972.00,0.0458
971.00,0.0422
970.00,0.0370
969.00,0.0315
968.00,0.0268
967.00,0.0231
966.00,0.0205
965.00,0.0186
964.00,0.0174
963.00,0.0164
962.00,0.0156
961.00,0.0150
960.00,0.0146
959.00,0.0144
958.00,0.0143
957.00,0.0141
956.00,0.0139
955.00,0.0137
954.00,0.0136
953.00,0.0135
952.00,0.0134
951.00,0.0132
950.00,0.0131
949.00,0.0129
948.00,0.0127
947.00,0.0126
946.00,0.0126
945.00,0.0126
944.00,0.0129
943.00,0.0132
942.00,0.0135
941.00,0.0136
940.00,0.0136
939.00,0.0133
938.00,0.0128
937.00,0.0120
936.00,0.0113
935.00,0.0107
934.00,0.0103
933.00,0.0098
932.00,0.0094
931.00,0.0091
930.00,0.0089
929.00,0.0087
928.00,0.0086
927.00,0.0085
926.00,0.0084
925.00,0.0083
924.00,0.0081
923.00,0.0079
922.00,0.0078
921.00,0.0077
920.00,0.0077
919.00,0.0078
918.00,0.0078
917.00,0.0079
916.00,0.0079
915.00,0.0079
914.00,0.0079
913.00,0.0080
912.00,0.0082
911.00,0.0083
910.00,0.0085
909.00,0.0086
908.00,0.0089
907.00,0.0094
906.00,0.0100
905.00,0.0109
904.00,0.0122
903.00,0.0139
902.00,0.0157
901.00,0.0174
900.00,0.0184
899.00,0.0185
898.00,0.0177
897.00,0.0161
896.00,0.0144
895.00,0.0127
894.00,0.0114
893.00,0.0105
892.00,0.0098
891.00,0.0093
890.00,0.0090
889.00,0.0088
888.00,0.0086
887.00,0.0084
886.00,0.0082
885.00,0.0081
884.00,0.0081
883.00,0.0081
882.00,0.0082
881.00,0.0083
880.00,0.0084
879.00,0.0085
878.00,0.0086
877.00,0.0087
876.00,0.0088
875.00,0.0089
874.00,0.0091
873.00,0.0093
872.00,0.0093
871.00,0.0093
870.00,0.0093
869.00,0.0092
868.00,0.0091
867.00,0.0090
866.00,0.0091
865.00,0.0092
864.00,0.0093
863.00,0.0094
862.00,0.0096
861.00,0.0097
860.00,0.0099
859.00,0.0102
858.00,0.0105
857.00,0.0107
856.00,0.0108
855.00,0.0108
854.00,0.0109
853.00,0.0109
852.00,0.0111
851.00,0.0114
850.00,0.0119
849.00,0.0125
848.00,0.0135
847.00,0.0150
846.00,0.0174
845.00,0.0210
844.00,0.0261
843.00,0.0321
842.00,0.0372
841.00,0.0392
840.00,0.0371
839.00,0.0319
838.00,0.0259
837.00,0.0209
836.00,0.0176
835.00,0.0156
834.00,0.0146
833.00,0.0139
832.00,0.0135
831.00,0.0131
830.00,0.0127
829.00,0.0123
828.00,0.0121
827.00,0.0120
826.00,0.0121
825.00,0.0122
824.00,0.0123
823.00,0.0125
822.00,0.0126
821.00,0.0127
820.00,0.0129
819.00,0.0131
818.00,0.0133
817.00,0.0138
816.00,0.0146
815.00,0.0158
814.00,0.0174
813.00,0.0193
812.00,0.0214
811.00,0.0233
810.00,0.0248
809.00,0.0255
808.00,0.0250
807.00,0.0236
806.00,0.0217
805.00,0.0198
804.00,0.0183
803.00,0.0170
802.00,0.0160
801.00,0.0151
800.00,0.0144
799.00,0.0137
798.00,0.0132
797.00,0.0126
796.00,0.0121
795.00,0.0117
794.00,0.0114
793.00,0.0112
792.00,0.0109
791.00,0.0106
790.00,0.0103
789.00,0.0100
788.00,0.0097
787.00,0.0095
786.00,0.0093
785.00,0.0090
784.00,0.0087
783.00,0.0085
782.00,0.0084
781.00,0.0083
780.00,0.0084
779.00,0.0085
778.00,0.0085
777.00,0.0084
776.00,0.0083
775.00,0.0082
774.00,0.0081
773.00,0.0082
772.00,0.0084
771.00,0.0085
770.00,0.0085
769.00,0.0083
768.00,0.0082
767.00,0.0080
766.00,0.0080
765.00,0.0081
764.00,0.0082
763.00,0.0082
762.00,0.0082
761.00,0.0083
760.00,0.0084
759.00,0.0085
758.00,0.0087
757.00,0.0088
756.00,0.0089
755.00,0.0090
754.00,0.0091
753.00,0.0092
752.00,0.0093
751.00,0.0094
750.00,0.0094
749.00,0.0095
748.00,0.0097
747.00,0.0099
746.00,0.0100
745.00,0.0102
744.00,0.0104
743.00,0.0108
742.00,0.0112
741.00,0.0115
740.00,0.0117
739.00,0.0119
738.00,0.0122
737.00,0.0125
736.00,0.0130
735.00,0.0135
734.00,0.0140
733.00,0.0147
732.00,0.0156
731.00,0.0164
730.00,0.0170
729.00,0.0173
728.00,0.0174
727.00,0.0174
726.00,0.0175
725.00,0.0178
724.00,0.0183
723.00,0.0189
722.00,0.0194
721.00,0.0196
720.00,0.0194
719.00,0.0187
718.00,0.0177
717.00,0.0165
716.00,0.0154
715.00,0.0145
714.00,0.0138
713.00,0.0133
712.00,0.0129
711.00,0.0126
710.00,0.0125
709.00,0.0123
708.00,0.0121
707.00,0.0120
706.00,0.0120
705.00,0.0120
704.00,0.0121
703.00,0.0120
702.00,0.0119
701.00,0.0118
700.00,0.0116
699.00,0.0115
698.00,0.0115
697.00,0.0115
696.00,0.0115
695.00,0.0113
694.00,0.0112
693.00,0.0112
692.00,0.0112
691.00,0.0113
690.00,0.0114
689.00,0.0114
688.00,0.0116
687.00,0.0117
686.00,0.0116
685.00,0.0114
684.00,0.0113
683.00,0.0114
682.00,0.0116
681.00,0.0118
680.00,0.0118
679.00,0.0117
678.00,0.0116
677.00,0.0115
676.00,0.0116
675.00,0.0119
674.00,0.0122
673.00,0.0124
672.00,0.0124
671.00,0.0122
670.00,0.0118
669.00,0.0114
668.00,0.0110
667.00,0.0110
666.00,0.0112
665.00,0.0113
664.00,0.0115
663.00,0.0115
662.00,0.0115
661.00,0.0112
660.00,0.0110
659.00,0.0109
658.00,0.0109
657.00,0.0109
656.00,0.0108
655.00,0.0107
654.00,0.0107
653.00,0.0108
652.00,0.0109
651.00,0.0111
650.00,0.0112
649.00,0.0111
648.00,0.0109
647.00,0.0106
646.00,0.0105
645.00,0.0104
644.00,0.0104
643.00,0.0103
642.00,0.0103
641.00,0.0104
640.00,0.0107
639.00,0.0111
638.00,0.0112
637.00,0.0111
636.00,0.0109
635.00,0.0109
634.00,0.0111
633.00,0.0114
632.00,0.0114
631.00,0.0113
630.00,0.0111
629.00,0.0108
628.00,0.0107
627.00,0.0107
626.00,0.0107
625.00,0.0106
624.00,0.0106
623.00,0.0107
622.00,0.0108
621.00,0.0108
620.00,0.0108
619.00,0.0110
618.00,0.0112
617.00,0.0114
616.00,0.0113
615.00,0.0109
614.00,0.0105
613.00,0.0102
612.00,0.0099
611.00,0.0097
610.00,0.0095
609.00,0.0095
608.00,0.0098
607.00,0.0103
606.00,0.0107
605.00,0.0109
604.00,0.0110
603.00,0.0108
602.00,0.0107
601.00,0.0105
600.00,0.0103
599.00,0.0102
598.00,0.0103
597.00,0.0104
596.00,0.0105
595.00,0.0105
594.00,0.0105
593.00,0.0103
592.00,0.0101
591.00,0.0101
590.00,0.0103
589.00,0.0104
588.00,0.0104
587.00,0.0103
586.00,0.0104
585.00,0.0107
584.00,0.0110
583.00,0.0112
582.00,0.0112
581.00,0.0111
580.00,0.0110
579.00,0.0110
578.00,0.0110
577.00,0.0108
576.00,0.0105
575.00,0.0102
574.00,0.0101
573.00,0.0103
572.00,0.0106
571.00,0.0109
570.00,0.0111
569.00,0.0111
568.00,0.0110
567.00,0.0106
566.00,0.0103
565.00,0.0101
564.00,0.0101
563.00,0.0101
562.00,0.0100
561.00,0.0099
560.00,0.0100
559.00,0.0105
558.00,0.0110
557.00,0.0112
556.00,0.0110
555.00,0.0107
554.00,0.0107
553.00,0.0109
552.00,0.0112
551.00,0.0114
550.00,0.0115
549.00,0.0117
548.00,0.0121
547.00,0.0124
546.00,0.0125
545.00,0.0124
544.00,0.0121
543.00,0.0118
542.00,0.0117
541.00,0.0116
540.00,0.0118
539.00,0.0121
538.00,0.0124
537.00,0.0125
536.00,0.0126
535.00,0.0131
534.00,0.0137
533.00,0.0142
532.00,0.0144
531.00,0.0143
530.00,0.0140
529.00,0.0135
528.00,0.0132
527.00,0.0130
526.00,0.0130
525.00,0.0129
524.00,0.0127
523.00,0.0122
522.00,0.0117
521.00,0.0113
520.00,0.0112
519.00,0.0112
518.00,0.0116
517.00,0.0120
516.00,0.0123
515.00,0.0123
514.00,0.0118
513.00,0.0111
512.00,0.0107
511.00,0.0108
510.00,0.0113
509.00,0.0119
508.00,0.0122
507.00,0.0120
506.00,0.0113
505.00,0.0105
504.00,0.0099
503.00,0.0099
502.00,0.0100
501.00,0.0101
500.00,0.0099
499.00,0.0095
498.00,0.0094
497.00,0.0097
496.00,0.0102
495.00,0.0105
494.00,0.0102
493.00,0.0095
492.00,0.0090
491.00,0.0091
490.00,0.0096
489.00,0.0100
488.00,0.0103
487.00,0.0103
486.00,0.0101
485.00,0.0099
484.00,0.0100
483.00,0.0106
482.00,0.0112
481.00,0.0117
480.00,0.0120
479.00,0.0123
478.00,0.0124
477.00,0.0121
476.00,0.0118
475.00,0.0119
474.00,0.0125
473.00,0.0134
472.00,0.0141
471.00,0.0152
470.00,0.0169
469.00,0.0188
468.00,0.0200
467.00,0.0203
466.00,0.0200
465.00,0.0196
464.00,0.0196
463.00,0.0201
462.00,0.0208
461.00,0.0214
460.00,0.0220
459.00,0.0229
458.00,0.0239
457.00,0.0245
456.00,0.0242
455.00,0.0233
454.00,0.0218
453.00,0.0199
452.00,0.0180
451.00,0.0166
450.00,0.0157
