Created as New Dataset,Sample 013 By Administrator Date Thursday, September 04 2025
cm-1,A
4000.00,0.0019
3999.00,0.0019
3998.00,0.0019
3997.00,0.0019
3996.00,0.0019
3995.00,0.0019
3994.00,0.0019
3993.00,0.0019
3992.00,0.0019
3991.00,0.0019
3990.00,0.0019
3989.00,0.0019
3988.00,0.0019
3987.00,0.0019
3986.00,0.0019
3985.00,0.0019
3984.00,0.0019
3983.00,0.0019
3982.00,0.0019
3981.00,0.0019
3980.00,0.0019
3979.00,0.0019
3978.00,0.0019
3977.00,0.0018
3976.00,0.0018
3975.00,0.0018
3974.00,0.0018
3973.00,0.0018
3972.00,0.0018
3971.00,0.0017
3970.00,0.0017
3969.00,0.0017
3968.00,0.0017
3967.00,0.0017
3966.00,0.0018
3965.00,0.0018
3964.00,0.0018
3963.00,0.0018
3962.00,0.0018
3961.00,0.0018
3960.00,0.0018
3959.00,0.0018
3958.00,0.0018
3957.00,0.0018
3956.00,0.0018
3955.00,0.0017
3954.00,0.0017
3953.00,0.0018
3952.00,0.0018
3951.00,0.0018
3950.00,0.0019
3949.00,0.0019
3948.00,0.0018
3947.00,0.0018
3946.00,0.0018
3945.00,0.0017
3944.00,0.0017
3943.00,0.0017
3942.00,0.0018
3941.00,0.0018
3940.00,0.0018
3939.00,0.0018
3938.00,0.0018
3937.00,0.0018
3936.00,0.0019
3935.00,0.0019
3934.00,0.0019
3933.00,0.0019
3932.00,0.0018
3931.00,0.0018
3930.00,0.0018
3929.00,0.0018
3928.00,0.0018
3927.00,0.0018
3926.00,0.0018
3925.00,0.0019
3924.00,0.0018
3923.00,0.0018
3922.00,0.0018
3921.00,0.0018
3920.00,0.0018
3919.00,0.0018
3918.00,0.0017
3917.00,0.0017
3916.00,0.0017
3915.00,0.0017
3914.00,0.0018
3913.00,0.0018
3912.00,0.0018
3911.00,0.0018
3910.00,0.0018
3909.00,0.0018
3908.00,0.0018
3907.00,0.0018
3906.00,0.0018
3905.00,0.0018
3904.00,0.0018
3903.00,0.0018
3902.00,0.0018
3901.00,0.0018
3900.00,0.0018
3899.00,0.0018
3898.00,0.0018
3897.00,0.0018
3896.00,0.0018
3895.00,0.0018
3894.00,0.0018
3893.00,0.0018
3892.00,0.0018
3891.00,0.0018
3890.00,0.0018
3889.00,0.0018
3888.00,0.0018
3887.00,0.0017
3886.00,0.0017
3885.00,0.0017
3884.00,0.0018
3883.00,0.0018
3882.00,0.0018
3881.00,0.0018
3880.00,0.0018
3879.00,0.0018
3878.00,0.0018
3877.00,0.0018
3876.00,0.0019
3875.00,0.0019
3874.00,0.0018
3873.00,0.0018
3872.00,0.0017
3871.00,0.0017
3870.00,0.0017
3869.00,0.0017
3868.00,0.0018
3867.00,0.0017
3866.00,0.0017
3865.00,0.0017
3864.00,0.0017
3863.00,0.0017
3862.00,0.0018
3861.00,0.0018
3860.00,0.0018
3859.00,0.0018
3858.00,0.0018
3857.00,0.0018
3856.00,0.0018
3855.00,0.0018
3854.00,0.0018
3853.00,0.0018
3852.00,0.0017
3851.00,0.0017
3850.00,0.0017
3849.00,0.0017
3848.00,0.0017
3847.00,0.0017
3846.00,0.0018
3845.00,0.0018
3844.00,0.0018
3843.00,0.0019
3842.00,0.0019
3841.00,0.0019
3840.00,0.0019
3839.00,0.0019
3838.00,0.0018
3837.00,0.0018
3836.00,0.0017
3835.00,0.0017
3834.00,0.0017
3833.00,0.0017
3832.00,0.0017
3831.00,0.0017
3830.00,0.0017
3829.00,0.0017
3828.00,0.0017
3827.00,0.0017
3826.00,0.0018
3825.00,0.0018
3824.00,0.0018
3823.00,0.0018
3822.00,0.0018
3821.00,0.0018
3820.00,0.0018
3819.00,0.0018
3818.00,0.0018
3817.00,0.0018
3816.00,0.0018
3815.00,0.0018
3814.00,0.0018
3813.00,0.0017
3812.00,0.0017
3811.00,0.0017
3810.00,0.0018
3809.00,0.0018
3808.00,0.0018
3807.00,0.0018
3806.00,0.0018
3805.00,0.0018
3804.00,0.0018
3803.00,0.0018
3802.00,0.0018
3801.00,0.0018
3800.00,0.0018
3799.00,0.0017
3798.00,0.0017
3797.00,0.0017
3796.00,0.0017
3795.00,0.0017
3794.00,0.0017
3793.00,0.0017
3792.00,0.0017
3791.00,0.0017
3790.00,0.0017
3789.00,0.0017
3788.00,0.0017
3787.00,0.0018
3786.00,0.0018
3785.00,0.0018
3784.00,0.0018
3783.00,0.0018
3782.00,0.0017
3781.00,0.0017
3780.00,0.0017
3779.00,0.0017
3778.00,0.0017
3777.00,0.0017
3776.00,0.0017
3775.00,0.0017
3774.00,0.0017
3773.00,0.0018
3772.00,0.0018
3771.00,0.0017
3770.00,0.0017
3769.00,0.0017
3768.00,0.0017
3767.00,0.0018
3766.00,0.0018
3765.00,0.0018
3764.00,0.0018
3763.00,0.0018
3762.00,0.0018
3761.00,0.0018
3760.00,0.0018
3759.00,0.0018
3758.00,0.0017
3757.00,0.0018
3756.00,0.0018
3755.00,0.0019
3754.00,0.0019
3753.00,0.0019
3752.00,0.0019
3751.00,0.0018
3750.00,0.0018
3749.00,0.0018
3748.00,0.0018
3747.00,0.0017
3746.00,0.0017
3745.00,0.0016
3744.00,0.0016
3743.00,0.0016
3742.00,0.0016
3741.00,0.0016
3740.00,0.0016
3739.00,0.0016
3738.00,0.0016
3737.00,0.0016
3736.00,0.0016
3735.00,0.0016
3734.00,0.0016
3733.00,0.0015
3732.00,0.0015
3731.00,0.0015
3730.00,0.0015
3729.00,0.0015
3728.00,0.0015
3727.00,0.0015
3726.00,0.0016
3725.00,0.0016
3724.00,0.0016
3723.00,0.0016
3722.00,0.0016
3721.00,0.0016
3720.00,0.0016
3719.00,0.0016
3718.00,0.0016
3717.00,0.0016
3716.00,0.0016
3715.00,0.0016
3714.00,0.0016
3713.00,0.0016
3712.00,0.0016
3711.00,0.0016
3710.00,0.0016
3709.00,0.0016
3708.00,0.0015
3707.00,0.0015
3706.00,0.0015
3705.00,0.0015
3704.00,0.0015
3703.00,0.0016
3702.00,0.0016
3701.00,0.0016
3700.00,0.0016
3699.00,0.0016
3698.00,0.0016
3697.00,0.0016
3696.00,0.0016
3695.00,0.0016
3694.00,0.0016
3693.00,0.0016
3692.00,0.0016
3691.00,0.0016
3690.00,0.0016
3689.00,0.0016
3688.00,0.0015
3687.00,0.0016
3686.00,0.0016
3685.00,0.0017
3684.00,0.0017
3683.00,0.0017
3682.00,0.0017
3681.00,0.0018
3680.00,0.0018
3679.00,0.0018
3678.00,0.0018
3677.00,0.0018
3676.00,0.0018
3675.00,0.0018
3674.00,0.0018
3673.00,0.0018
3672.00,0.0018
3671.00,0.0018
3670.00,0.0018
3669.00,0.0018
3668.00,0.0018
3667.00,0.0018
3666.00,0.0018
3665.00,0.0018
3664.00,0.0017
3663.00,0.0017
3662.00,0.0017
3661.00,0.0018
3660.00,0.0018
3659.00,0.0018
3658.00,0.0018
3657.00,0.0019
3656.00,0.0019
3655.00,0.0019
3654.00,0.0020
3653.00,0.0020
3652.00,0.0020
3651.00,0.0020
3650.00,0.0020
3649.00,0.0020
3648.00,0.0020
3647.00,0.0020
3646.00,0.0020
3645.00,0.0020
3644.00,0.0020
3643.00,0.0020
3642.00,0.0019
3641.00,0.0019
3640.00,0.0019
3639.00,0.0019
3638.00,0.0019
3637.00,0.0019
3636.00,0.0019
3635.00,0.0020
3634.00,0.0020
3633.00,0.0020
3632.00,0.0020
3631.00,0.0019
3630.00,0.0019
3629.00,0.0019
3628.00,0.0020
3627.00,0.0020
3626.00,0.0021
3625.00,0.0021
3624.00,0.0021
3623.00,0.0022
3622.00,0.0022
3621.00,0.0022
3620.00,0.0022
3619.00,0.0022
3618.00,0.0022
3617.00,0.0022
3616.00,0.0022
3615.00,0.0022
3614.00,0.0022
3613.00,0.0022
3612.00,0.0022
3611.00,0.0023
3610.00,0.0024
3609.00,0.0024
3608.00,0.0025
3607.00,0.0025
3606.00,0.0024
3605.00,0.0024
3604.00,0.0024
3603.00,0.0025
3602.00,0.0025
3601.00,0.0025
3600.00,0.0025
3599.00,0.0025
3598.00,0.0025
3597.00,0.0026
3596.00,0.0026
3595.00,0.0026
3594.00,0.0026
3593.00,0.0027
3592.00,0.0027
3591.00,0.0027
3590.00,0.0027
3589.00,0.0027
3588.00,0.0028
3587.00,0.0028
3586.00,0.0028
3585.00,0.0028
3584.00,0.0028
3583.00,0.0029
3582.00,0.0029
3581.00,0.0029
3580.00,0.0030
3579.00,0.0029
3578.00,0.0029
3577.00,0.0029
3576.00,0.0030
3575.00,0.0030
3574.00,0.0031
3573.00,0.0031
3572.00,0.0032
3571.00,0.0032
3570.00,0.0032
3569.00,0.0033
3568.00,0.0033
3567.00,0.0034
3566.00,0.0034
3565.00,0.0035
3564.00,0.0035
3563.00,0.0035
3562.00,0.0036
3561.00,0.0036
3560.00,0.0036
3559.00,0.0036
3558.00,0.0036
3557.00,0.0036
3556.00,0.0037
3555.00,0.0037
3554.00,0.0038
3553.00,0.0038
3552.00,0.0039
3551.00,0.0039
3550.00,0.0039
3549.00,0.0039
3548.00,0.0040
3547.00,0.0040
3546.00,0.0040
3545.00,0.0040
3544.00,0.0040
3543.00,0.0040
3542.00,0.0041
3541.00,0.0041
3540.00,0.0041
3539.00,0.0041
3538.00,0.0041
3537.00,0.0042
3536.00,0.0042
3535.00,0.0043
3534.00,0.0044
3533.00,0.0044
3532.00,0.0044
3531.00,0.0045
3530.00,0.0045
3529.00,0.0045
3528.00,0.0045
3527.00,0.0045
3526.00,0.0046
3525.00,0.0046
3524.00,0.0047
3523.00,0.0047
3522.00,0.0047
3521.00,0.0047
3520.00,0.0047
3519.00,0.0048
3518.00,0.0048
3517.00,0.0049
3516.00,0.0049
3515.00,0.0050
3514.00,0.0050
3513.00,0.0051
3512.00,0.0052
3511.00,0.0052
3510.00,0.0052
3509.00,0.0053
3508.00,0.0053
3507.00,0.0053
3506.00,0.0053
3505.00,0.0053
3504.00,0.0054
3503.00,0.0054
3502.00,0.0054
3501.00,0.0055
3500.00,0.0055
3499.00,0.0056
3498.00,0.0056
3497.00,0.0056
3496.00,0.0056
3495.00,0.0056
3494.00,0.0057
3493.00,0.0057
3492.00,0.0058
3491.00,0.0058
3490.00,0.0058
3489.00,0.0058
3488.00,0.0059
3487.00,0.0060
3486.00,0.0060
3485.00,0.0061
3484.00,0.0061
3483.00,0.0061
3482.00,0.0061
3481.00,0.0061
3480.00,0.0061
3479.00,0.0061
3478.00,0.0062
3477.00,0.0062
3476.00,0.0062
3475.00,0.0063
3474.00,0.0064
3473.00,0.0064
3472.00,0.0065
3471.00,0.0065
3470.00,0.0065
3469.00,0.0066
3468.00,0.0066
3467.00,0.0066
3466.00,0.0066
3465.00,0.0067
3464.00,0.0067
3463.00,0.0067
3462.00,0.0068
3461.00,0.0068
3460.00,0.0068
3459.00,0.0068
3458.00,0.0069
3457.00,0.0069
3456.00,0.0069
3455.00,0.0069
3454.00,0.0070
3453.00,0.0070
3452.00,0.0070
3451.00,0.0071
3450.00,0.0071
3449.00,0.0072
3448.00,0.0072
3447.00,0.0073
3446.00,0.0073
3445.00,0.0073
3444.00,0.0073
3443.00,0.0073
3442.00,0.0073
3441.00,0.0074
3440.00,0.0074
3439.00,0.0074
3438.00,0.0075
3437.00,0.0075
3436.00,0.0075
3435.00,0.0076
3434.00,0.0076
3433.00,0.0076
3432.00,0.0076
3431.00,0.0077
3430.00,0.0077
3429.00,0.0077
3428.00,0.0078
3427.00,0.0078
3426.00,0.0078
3425.00,0.0078
3424.00,0.0078
3423.00,0.0078
3422.00,0.0079
3421.00,0.0079
3420.00,0.0079
3419.00,0.0080
3418.00,0.0080
3417.00,0.0080
3416.00,0.0081
3415.00,0.0081
3414.00,0.0081
3413.00,0.0081
3412.00,0.0081
3411.00,0.0081
3410.00,0.0082
3409.00,0.0082
3408.00,0.0082
3407.00,0.0082
3406.00,0.0083
3405.00,0.0083
3404.00,0.0083
3403.00,0.0083
3402.00,0.0083
3401.00,0.0083
3400.00,0.0083
3399.00,0.0084
3398.00,0.0084
3397.00,0.0084
3396.00,0.0084
3395.00,0.0084
3394.00,0.0084
3393.00,0.0085
3392.00,0.0085
3391.00,0.0085
3390.00,0.0085
3389.00,0.0085
3388.00,0.0085
3387.00,0.0085
3386.00,0.0085
3385.00,0.0085
3384.00,0.0085
3383.00,0.0085
3382.00,0.0086
3381.00,0.0086
3380.00,0.0086
3379.00,0.0086
3378.00,0.0086
3377.00,0.0086
3376.00,0.0086
3375.00,0.0087
3374.00,0.0087
3373.00,0.0087
3372.00,0.0087
3371.00,0.0087
3370.00,0.0087
3369.00,0.0087
3368.00,0.0087
3367.00,0.0087
3366.00,0.0087
3365.00,0.0088
3364.00,0.0088
3363.00,0.0088
3362.00,0.0087
3361.00,0.0087
3360.00,0.0087
3359.00,0.0087
3358.00,0.0088
3357.00,0.0088
3356.00,0.0088
3355.00,0.0088
3354.00,0.0088
3353.00,0.0088
3352.00,0.0088
3351.00,0.0088
3350.00,0.0088
3349.00,0.0088
3348.00,0.0088
3347.00,0.0088
3346.00,0.0088
3345.00,0.0088
3344.00,0.0088
3343.00,0.0089
3342.00,0.0089
3341.00,0.0088
3340.00,0.0088
3339.00,0.0088
3338.00,0.0088
3337.00,0.0088
3336.00,0.0088
3335.00,0.0088
3334.00,0.0087
3333.00,0.0088
3332.00,0.0088
3331.00,0.0088
3330.00,0.0088
3329.00,0.0088
3328.00,0.0088
3327.00,0.0087
3326.00,0.0087
3325.00,0.0087
3324.00,0.0087
3323.00,0.0086
3322.00,0.0086
3321.00,0.0086
3320.00,0.0086
3319.00,0.0086
3318.00,0.0086
3317.00,0.0086
3316.00,0.0086
3315.00,0.0086
3314.00,0.0086
3313.00,0.0086
3312.00,0.0086
3311.00,0.0086
3310.00,0.0086
3309.00,0.0086
3308.00,0.0086
3307.00,0.0086
3306.00,0.0087
3305.00,0.0087
3304.00,0.0087
3303.00,0.0087
3302.00,0.0087
3301.00,0.0087
3300.00,0.0087
3299.00,0.0087
3298.00,0.0087
3297.00,0.0086
3296.00,0.0085
3295.00,0.0085
3294.00,0.0085
3293.00,0.0084
3292.00,0.0084
3291.00,0.0083
3290.00,0.0084
3289.00,0.0084
3288.00,0.0084
3287.00,0.0083
3286.00,0.0083
3285.00,0.0082
3284.00,0.0082
3283.00,0.0081
3282.00,0.0081
3281.00,0.0081
3280.00,0.0080
3279.00,0.0080
3278.00,0.0080
3277.00,0.0080
3276.00,0.0080
3275.00,0.0081
3274.00,0.0081
3273.00,0.0081
3272.00,0.0081
3271.00,0.0080
3270.00,0.0080
3269.00,0.0079
3268.00,0.0079
3267.00,0.0078
3266.00,0.0078
3265.00,0.0078
3264.00,0.0078
3263.00,0.0078
3262.00,0.0078
3261.00,0.0078
3260.00,0.0078
3259.00,0.0077
3258.00,0.0077
3257.00,0.0076
3256.00,0.0075
3255.00,0.0075
3254.00,0.0075
3253.00,0.0074
3252.00,0.0074
3251.00,0.0074
3250.00,0.0074
3249.00,0.0074
3248.00,0.0073
3247.00,0.0073
3246.00,0.0073
3245.00,0.0073
3244.00,0.0073
3243.00,0.0073
3242.00,0.0072
3241.00,0.0072
3240.00,0.0072
3239.00,0.0072
3238.00,0.0072
3237.00,0.0072
3236.00,0.0072
3235.00,0.0072
3234.00,0.0072
3233.00,0.0072
3232.00,0.0072
3231.00,0.0072
3230.00,0.0072
3229.00,0.0072
3228.00,0.0072
3227.00,0.0072
3226.00,0.0072
3225.00,0.0072
3224.00,0.0072
3223.00,0.0072
3222.00,0.0072
3221.00,0.0072
3220.00,0.0072
3219.00,0.0072
3218.00,0.0072
3217.00,0.0072
3216.00,0.0072
3215.00,0.0072
3214.00,0.0072
3213.00,0.0073
3212.00,0.0073
3211.00,0.0073
3210.00,0.0073
3209.00,0.0072
3208.00,0.0072
3207.00,0.0072
3206.00,0.0072
3205.00,0.0073
3204.00,0.0073
3203.00,0.0073
3202.00,0.0073
3201.00,0.0072
3200.00,0.0072
3199.00,0.0072
3198.00,0.0072
3197.00,0.0072
3196.00,0.0072
3195.00,0.0073
3194.00,0.0072
3193.00,0.0072
3192.00,0.0072
3191.00,0.0072
3190.00,0.0071
3189.00,0.0071
3188.00,0.0071
3187.00,0.0071
3186.00,0.0070
3185.00,0.0070
3184.00,0.0070
3183.00,0.0070
3182.00,0.0069
3181.00,0.0069
3180.00,0.0069
3179.00,0.0069
3178.00,0.0068
3177.00,0.0068
3176.00,0.0068
3175.00,0.0068
3174.00,0.0068
3173.00,0.0068
3172.00,0.0068
3171.00,0.0067
3170.00,0.0067
3169.00,0.0067
3168.00,0.0066
3167.00,0.0066
3166.00,0.0065
3165.00,0.0065
3164.00,0.0065
3163.00,0.0065
3162.00,0.0065
3161.00,0.0065
3160.00,0.0065
3159.00,0.0065
3158.00,0.0064
3157.00,0.0064
3156.00,0.0064
3155.00,0.0064
3154.00,0.0064
3153.00,0.0063
3152.00,0.0063
3151.00,0.0063
3150.00,0.0063
3149.00,0.0063
3148.00,0.0063
3147.00,0.0063
3146.00,0.0063
3145.00,0.0062
3144.00,0.0062
3143.00,0.0062
3142.00,0.0061
3141.00,0.0061
3140.00,0.0061
3139.00,0.0061
3138.00,0.0061
3137.00,0.0061
3136.00,0.0061
3135.00,0.0061
3134.00,0.0060
3133.00,0.0060
3132.00,0.0059
3131.00,0.0059
3130.00,0.0059
3129.00,0.0058
3128.00,0.0058
3127.00,0.0058
3126.00,0.0057
3125.00,0.0057
3124.00,0.0057
3123.00,0.0056
3122.00,0.0056
3121.00,0.0056
3120.00,0.0055
3119.00,0.0055
3118.00,0.0055
3117.00,0.0054
3116.00,0.0054
3115.00,0.0054
3114.00,0.0054
3113.00,0.0053
3112.00,0.0053
3111.00,0.0053
3110.00,0.0054
3109.00,0.0053
3108.00,0.0053
3107.00,0.0053
3106.00,0.0053
3105.00,0.0053
3104.00,0.0053
3103.00,0.0052
3102.00,0.0052
3101.00,0.0052
3100.00,0.0051
3099.00,0.0050
3098.00,0.0050
3097.00,0.0050
3096.00,0.0050
3095.00,0.0050
3094.00,0.0050
3093.00,0.0050
3092.00,0.0050
3091.00,0.0050
3090.00,0.0051
3089.00,0.0051
3088.00,0.0051
3087.00,0.0051
3086.00,0.0051
3085.00,0.0050
3084.00,0.0050
3083.00,0.0050
3082.00,0.0050
3081.00,0.0050
3080.00,0.0050
3079.00,0.0050
3078.00,0.0050
3077.00,0.0050
3076.00,0.0050
3075.00,0.0050
3074.00,0.0050
3073.00,0.0050
3072.00,0.0050
3071.00,0.0051
3070.00,0.0051
3069.00,0.0051
3068.00,0.0051
3067.00,0.0051
3066.00,0.0051
3065.00,0.0051
3064.00,0.0051
3063.00,0.0051
3062.00,0.0052
3061.00,0.0052
3060.00,0.0052
3059.00,0.0052
3058.00,0.0053
3057.00,0.0053
3056.00,0.0053
3055.00,0.0053
3054.00,0.0052
3053.00,0.0052
3052.00,0.0052
3051.00,0.0052
3050.00,0.0052
3049.00,0.0053
3048.00,0.0053
3047.00,0.0053
3046.00,0.0053
3045.00,0.0053
3044.00,0.0053
3043.00,0.0053
3042.00,0.0053
3041.00,0.0054
3040.00,0.0054
3039.00,0.0054
3038.00,0.0055
3037.00,0.0055
3036.00,0.0056
3035.00,0.0056
3034.00,0.0056
3033.00,0.0057
3032.00,0.0057
3031.00,0.0057
3030.00,0.0057
3029.00,0.0057
3028.00,0.0057
3027.00,0.0057
3026.00,0.0058
3025.00,0.0059
3024.00,0.0060
3023.00,0.0061
3022.00,0.0062
3021.00,0.0063
3020.00,0.0063
3019.00,0.0064
3018.00,0.0064
3017.00,0.0065
3016.00,0.0065
3015.00,0.0066
3014.00,0.0067
3013.00,0.0068
3012.00,0.0070
3011.00,0.0071
3010.00,0.0073
3009.00,0.0074
3008.00,0.0076
3007.00,0.0078
3006.00,0.0080
3005.00,0.0082
3004.00,0.0084
3003.00,0.0086
3002.00,0.0088
3001.00,0.0090
3000.00,0.0093
2999.00,0.0096
2998.00,0.0099
2997.00,0.0102
2996.00,0.0106
2995.00,0.0110
2994.00,0.0113
2993.00,0.0118
2992.00,0.0123
2991.00,0.0128
2990.00,0.0135
2989.00,0.0142
2988.00,0.0150
2987.00,0.0158
2986.00,0.0167
2985.00,0.0178
2984.00,0.0190
2983.00,0.0203
2982.00,0.0218
2981.00,0.0234
2980.00,0.0252
2979.00,0.0271
2978.00,0.0294
2977.00,0.0320
2976.00,0.0350
2975.00,0.0385
2974.00,0.0425
2973.00,0.0470
2972.00,0.0520
2971.00,0.0575
2970.00,0.0636
2969.00,0.0703
2968.00,0.0774
2967.00,0.0851
2966.00,0.0931
2965.00,0.1012
2964.00,0.1091
2963.00,0.1164
2962.00,0.1227
2961.00,0.1277
2960.00,0.1316
2959.00,0.1348
2958.00,0.1377
2957.00,0.1410
2956.00,0.1452
2955.00,0.1505
2954.00,0.1565
2953.00,0.1628
2952.00,0.1684
2951.00,0.1721
2950.00,0.1730
2949.00,0.1704
2948.00,0.1645
2947.00,0.1557
2946.00,0.1452
2945.00,0.1342
2944.00,0.1239
2943.00,0.1150
2942.00,0.1081
2941.00,0.1034
2940.00,0.1009
2939.00,0.1003
2938.00,0.1015
2937.00,0.1043
2936.00,0.1085
2935.00,0.1140
2934.00,0.1207
2933.00,0.1285
2932.00,0.1372
2931.00,0.1467
2930.00,0.1568
2929.00,0.1672
2928.00,0.1776
2927.00,0.1877
2926.00,0.1975
2925.00,0.2068
2924.00,0.2158
2923.00,0.2247
2922.00,0.2333
2921.00,0.2414
2920.00,0.2484
2919.00,0.2534
2918.00,0.2555
2917.00,0.2543
2916.00,0.2497
2915.00,0.2424
2914.00,0.2333
2913.00,0.2236
2912.00,0.2141
2911.00,0.2054
2910.00,0.1976
2909.00,0.1906
2908.00,0.1843
2907.00,0.1782
2906.00,0.1723
2905.00,0.1663
2904.00,0.1603
2903.00,0.1543
2902.00,0.1483
2901.00,0.1424
2900.00,0.1367
2899.00,0.1313
2898.00,0.1262
2897.00,0.1215
2896.00,0.1173
2895.00,0.1136
2894.00,0.1103
2893.00,0.1077
2892.00,0.1055
2891.00,0.1039
2890.00,0.1027
2889.00,0.1019
2888.00,0.1015
2887.00,0.1013
2886.00,0.1015
2885.00,0.1020
2884.00,0.1028
2883.00,0.1041
2882.00,0.1056
2881.00,0.1074
2880.00,0.1091
2879.00,0.1104
2878.00,0.1111
2877.00,0.1111
2876.00,0.1106
2875.00,0.1100
2874.00,0.1096
2873.00,0.1098
2872.00,0.1106
2871.00,0.1120
2870.00,0.1138
2869.00,0.1155
2868.00,0.1164
2867.00,0.1161
2866.00,0.1139
2865.00,0.1098
2864.00,0.1042
2863.00,0.0978
2862.00,0.0914
2861.00,0.0858
2860.00,0.0816
2859.00,0.0787
2858.00,0.0772
2857.00,0.0768
2856.00,0.0772
2855.00,0.0782
2854.00,0.0796
2853.00,0.0811
2852.00,0.0827
2851.00,0.0840
2850.00,0.0849
2849.00,0.0856
2848.00,0.0862
2847.00,0.0873
2846.00,0.0891
2845.00,0.0919
2844.00,0.0955
2843.00,0.0998
2842.00,0.1043
2841.00,0.1084
2840.00,0.1114
2839.00,0.1127
2838.00,0.1118
2837.00,0.1082
2836.00,0.1022
2835.00,0.0943
2834.00,0.0852
2833.00,0.0758
2832.00,0.0670
2831.00,0.0591
2830.00,0.0524
2829.00,0.0469
2828.00,0.0424
2827.00,0.0388
2826.00,0.0357
2825.00,0.0332
2824.00,0.0311
2823.00,0.0293
2822.00,0.0278
2821.00,0.0264
2820.00,0.0252
2819.00,0.0242
2818.00,0.0233
2817.00,0.0225
2816.00,0.0218
2815.00,0.0211
2814.00,0.0205
2813.00,0.0199
2812.00,0.0194
2811.00,0.0188
2810.00,0.0183
2809.00,0.0178
2808.00,0.0172
2807.00,0.0166
2806.00,0.0160
2805.00,0.0155
2804.00,0.0149
2803.00,0.0144
2802.00,0.0140
2801.00,0.0136
2800.00,0.0132
2799.00,0.0129
2798.00,0.0126
2797.00,0.0124
2796.00,0.0121
2795.00,0.0119
2794.00,0.0117
2793.00,0.0114
2792.00,0.0111
2791.00,0.0108
2790.00,0.0105
2789.00,0.0102
2788.00,0.0099
2787.00,0.0096
2786.00,0.0094
2785.00,0.0091
2784.00,0.0089
2783.00,0.0087
2782.00,0.0085
2781.00,0.0083
2780.00,0.0081
2779.00,0.0080
2778.00,0.0079
2777.00,0.0077
2776.00,0.0076
2775.00,0.0075
2774.00,0.0074
2773.00,0.0073
2772.00,0.0073
2771.00,0.0072
2770.00,0.0071
2769.00,0.0071
2768.00,0.0070
2767.00,0.0070
2766.00,0.0070
2765.00,0.0070
2764.00,0.0069
2763.00,0.0069
2762.00,0.0068
2761.00,0.0068
2760.00,0.0067
2759.00,0.0067
2758.00,0.0067
2757.00,0.0067
2756.00,0.0067
2755.00,0.0067
2754.00,0.0067
2753.00,0.0067
2752.00,0.0066
2751.00,0.0065
2750.00,0.0065
2749.00,0.0065
2748.00,0.0065
2747.00,0.0065
2746.00,0.0066
2745.00,0.0067
2744.00,0.0067
2743.00,0.0068
2742.00,0.0068
2741.00,0.0069
2740.00,0.0070
2739.00,0.0071
2738.00,0.0072
2737.00,0.0073
2736.00,0.0075
2735.00,0.0076
2734.00,0.0078
2733.00,0.0079
2732.00,0.0080
2731.00,0.0082
2730.00,0.0084
2729.00,0.0085
2728.00,0.0087
2727.00,0.0090
2726.00,0.0092
2725.00,0.0094
2724.00,0.0095
2723.00,0.0096
2722.00,0.0095
2721.00,0.0093
2720.00,0.0091
2719.00,0.0088
2718.00,0.0086
2717.00,0.0083
2716.00,0.0081
2715.00,0.0078
2714.00,0.0076
2713.00,0.0074
2712.00,0.0072
2711.00,0.0070
2710.00,0.0069
2709.00,0.0068
2708.00,0.0067
2707.00,0.0066
2706.00,0.0065
2705.00,0.0064
2704.00,0.0063
2703.00,0.0062
2702.00,0.0061
2701.00,0.0060
2700.00,0.0059
2699.00,0.0058
2698.00,0.0058
2697.00,0.0058
2696.00,0.0058
2695.00,0.0057
2694.00,0.0057
2693.00,0.0057
2692.00,0.0057
2691.00,0.0058
2690.00,0.0058
2689.00,0.0058
2688.00,0.0058
2687.00,0.0057
2686.00,0.0057
2685.00,0.0057
2684.00,0.0057
2683.00,0.0057
2682.00,0.0058
2681.00,0.0058
2680.00,0.0058
2679.00,0.0058
2678.00,0.0058
2677.00,0.0057
2676.00,0.0057
2675.00,0.0057
2674.00,0.0056
2673.00,0.0056
2672.00,0.0056
2671.00,0.0056
2670.00,0.0056
2669.00,0.0056
2668.00,0.0057
2667.00,0.0057
2666.00,0.0057
2665.00,0.0058
2664.00,0.0058
2663.00,0.0059
2662.00,0.0059
2661.00,0.0059
2660.00,0.0060
2659.00,0.0060
2658.00,0.0059
2657.00,0.0059
2656.00,0.0059
2655.00,0.0058
2654.00,0.0058
2653.00,0.0058
2652.00,0.0057
2651.00,0.0057
2650.00,0.0056
2649.00,0.0056
2648.00,0.0055
2647.00,0.0055
2646.00,0.0054
2645.00,0.0054
2644.00,0.0054
2643.00,0.0053
2642.00,0.0053
2641.00,0.0052
2640.00,0.0052
2639.00,0.0052
2638.00,0.0051
2637.00,0.0051
2636.00,0.0051
2635.00,0.0051
2634.00,0.0051
2633.00,0.0051
2632.00,0.0051
2631.00,0.0051
2630.00,0.0051
2629.00,0.0051
2628.00,0.0051
2627.00,0.0051
2626.00,0.0051
2625.00,0.0051
2624.00,0.0052
2623.00,0.0052
2622.00,0.0052
2621.00,0.0052
2620.00,0.0052
2619.00,0.0052
2618.00,0.0052
2617.00,0.0052
2616.00,0.0051
2615.00,0.0051
2614.00,0.0051
2613.00,0.0051
2612.00,0.0051
2611.00,0.0050
2610.00,0.0049
2609.00,0.0048
2608.00,0.0048
2607.00,0.0048
2606.00,0.0048
2605.00,0.0047
2604.00,0.0046
2603.00,0.0045
2602.00,0.0044
2601.00,0.0044
2600.00,0.0044
2599.00,0.0044
2598.00,0.0044
2597.00,0.0044
2596.00,0.0044
2595.00,0.0045
2594.00,0.0045
2593.00,0.0045
2592.00,0.0046
2591.00,0.0046
2590.00,0.0047
2589.00,0.0047
2588.00,0.0047
2587.00,0.0048
2586.00,0.0049
2585.00,0.0050
2584.00,0.0050
2583.00,0.0051
2582.00,0.0050
2581.00,0.0049
2580.00,0.0048
2579.00,0.0047
2578.00,0.0047
2577.00,0.0046
2576.00,0.0045
2575.00,0.0044
2574.00,0.0043
2573.00,0.0042
2572.00,0.0042
2571.00,0.0041
2570.00,0.0041
2569.00,0.0041
2568.00,0.0040
2567.00,0.0039
2566.00,0.0038
2565.00,0.0037
2564.00,0.0037
2563.00,0.0036
2562.00,0.0036
2561.00,0.0036
2560.00,0.0036
2559.00,0.0035
2558.00,0.0035
2557.00,0.0035
2556.00,0.0035
2555.00,0.0035
2554.00,0.0035
2553.00,0.0034
2552.00,0.0034
2551.00,0.0034
2550.00,0.0034
2549.00,0.0033
2548.00,0.0033
2547.00,0.0032
2546.00,0.0032
2545.00,0.0031
2544.00,0.0031
2543.00,0.0030
2542.00,0.0030
2541.00,0.0030
2540.00,0.0030
2539.00,0.0030
2538.00,0.0030
2537.00,0.0030
2536.00,0.0030
2535.00,0.0030
2534.00,0.0030
2533.00,0.0030
2532.00,0.0029
2531.00,0.0028
2530.00,0.0028
2529.00,0.0028
2528.00,0.0029
2527.00,0.0029
2526.00,0.0029
2525.00,0.0029
2524.00,0.0029
2523.00,0.0028
2522.00,0.0028
2521.00,0.0027
2520.00,0.0027
2519.00,0.0027
2518.00,0.0026
2517.00,0.0026
2516.00,0.0026
2515.00,0.0026
2514.00,0.0026
2513.00,0.0026
2512.00,0.0026
2511.00,0.0026
2510.00,0.0026
2509.00,0.0025
2508.00,0.0025
2507.00,0.0025
2506.00,0.0024
2505.00,0.0024
2504.00,0.0024
2503.00,0.0023
2502.00,0.0023
2501.00,0.0023
2500.00,0.0023
2499.00,0.0024
2498.00,0.0024
2497.00,0.0024
2496.00,0.0024
2495.00,0.0024
2494.00,0.0024
2493.00,0.0024
2492.00,0.0025
2491.00,0.0024
2490.00,0.0024
2489.00,0.0024
2488.00,0.0023
2487.00,0.0023
2486.00,0.0023
2485.00,0.0023
2484.00,0.0022
2483.00,0.0022
2482.00,0.0022
2481.00,0.0022
2480.00,0.0022
2479.00,0.0023
2478.00,0.0023
2477.00,0.0023
2476.00,0.0023
2475.00,0.0023
2474.00,0.0023
2473.00,0.0022
2472.00,0.0022
2471.00,0.0021
2470.00,0.0021
2469.00,0.0021
2468.00,0.0021
2467.00,0.0021
2466.00,0.0021
2465.00,0.0022
2464.00,0.0022
2463.00,0.0023
2462.00,0.0023
2461.00,0.0023
2460.00,0.0024
2459.00,0.0024
2458.00,0.0024
2457.00,0.0024
2456.00,0.0024
2455.00,0.0024
2454.00,0.0024
2453.00,0.0024
2452.00,0.0024
2451.00,0.0024
2450.00,0.0023
2449.00,0.0023
2448.00,0.0023
2447.00,0.0024
2446.00,0.0024
2445.00,0.0024
2444.00,0.0024
2443.00,0.0024
2442.00,0.0024
2441.00,0.0024
2440.00,0.0025
2439.00,0.0024
2438.00,0.0024
2437.00,0.0024
2436.00,0.0023
2435.00,0.0023
2434.00,0.0024
2433.00,0.0024
2432.00,0.0025
2431.00,0.0025
2430.00,0.0025
2429.00,0.0025
2428.00,0.0024
2427.00,0.0023
2426.00,0.0023
2425.00,0.0022
2424.00,0.0022
2423.00,0.0022
2422.00,0.0022
2421.00,0.0022
2420.00,0.0023
2419.00,0.0023
2418.00,0.0022
2417.00,0.0022
2416.00,0.0022
2415.00,0.0022
2414.00,0.0023
2413.00,0.0023
2412.00,0.0023
2411.00,0.0022
2410.00,0.0022
2409.00,0.0022
2408.00,0.0022
2407.00,0.0021
2406.00,0.0021
2405.00,0.0021
2404.00,0.0021
2403.00,0.0021
2402.00,0.0021
2401.00,0.0021
2400.00,0.0021
2399.00,0.0020
2398.00,0.0020
2397.00,0.0020
2396.00,0.0019
2395.00,0.0020
2394.00,0.0020
2393.00,0.0020
2392.00,0.0020
2391.00,0.0020
2390.00,0.0020
2389.00,0.0020
2388.00,0.0020
2387.00,0.0020
2386.00,0.0019
2385.00,0.0019
2384.00,0.0019
2383.00,0.0018
2382.00,0.0018
2381.00,0.0017
2380.00,0.0017
2379.00,0.0017
2378.00,0.0017
2377.00,0.0017
2376.00,0.0017
2375.00,0.0017
2374.00,0.0017
2373.00,0.0017
2372.00,0.0017
2371.00,0.0017
2370.00,0.0018
2369.00,0.0018
2368.00,0.0017
2367.00,0.0017
2366.00,0.0016
2365.00,0.0016
2364.00,0.0016
2363.00,0.0017
2362.00,0.0017
2361.00,0.0018
2360.00,0.0018
2359.00,0.0018
2358.00,0.0018
2357.00,0.0018
2356.00,0.0018
2355.00,0.0018
2354.00,0.0018
2353.00,0.0017
2352.00,0.0016
2351.00,0.0016
2350.00,0.0017
2349.00,0.0018
2348.00,0.0020
2347.00,0.0021
2346.00,0.0021
2345.00,0.0020
2344.00,0.0019
2343.00,0.0018
2342.00,0.0019
2341.00,0.0019
2340.00,0.0020
2339.00,0.0021
2338.00,0.0021
2337.00,0.0021
2336.00,0.0022
2335.00,0.0022
2334.00,0.0021
2333.00,0.0021
2332.00,0.0020
2331.00,0.0019
2330.00,0.0019
2329.00,0.0020
2328.00,0.0022
2327.00,0.0025
2326.00,0.0029
2325.00,0.0032
2324.00,0.0034
2323.00,0.0033
2322.00,0.0030
2321.00,0.0028
2320.00,0.0026
2319.00,0.0025
2318.00,0.0025
2317.00,0.0025
2316.00,0.0025
2315.00,0.0024
2314.00,0.0023
2313.00,0.0022
2312.00,0.0021
2311.00,0.0019
2310.00,0.0019
2309.00,0.0019
2308.00,0.0019
2307.00,0.0019
2306.00,0.0020
2305.00,0.0020
2304.00,0.0020
2303.00,0.0021
2302.00,0.0020
2301.00,0.0020
2300.00,0.0020
2299.00,0.0020
2298.00,0.0021
2297.00,0.0023
2296.00,0.0024
2295.00,0.0024
2294.00,0.0025
2293.00,0.0025
2292.00,0.0026
2291.00,0.0027
2290.00,0.0028
2289.00,0.0028
2288.00,0.0028
2287.00,0.0029
2286.00,0.0030
2285.00,0.0030
2284.00,0.0030
2283.00,0.0029
2282.00,0.0028
2281.00,0.0028
2280.00,0.0027
2279.00,0.0027
2278.00,0.0026
2277.00,0.0025
2276.00,0.0025
2275.00,0.0026
2274.00,0.0026
2273.00,0.0027
2272.00,0.0027
2271.00,0.0027
2270.00,0.0027
2269.00,0.0027
2268.00,0.0026
2267.00,0.0025
2266.00,0.0024
2265.00,0.0023
2264.00,0.0023
2263.00,0.0023
2262.00,0.0024
2261.00,0.0025
2260.00,0.0026
2259.00,0.0027
2258.00,0.0027
2257.00,0.0026
2256.00,0.0024
2255.00,0.0022
2254.00,0.0021
2253.00,0.0020
2252.00,0.0019
2251.00,0.0019
2250.00,0.0019
2249.00,0.0021
2248.00,0.0022
2247.00,0.0022
2246.00,0.0022
2245.00,0.0023
2244.00,0.0023
2243.00,0.0022
2242.00,0.0022
2241.00,0.0021
2240.00,0.0021
2239.00,0.0021
2238.00,0.0021
2237.00,0.0020
2236.00,0.0019
2235.00,0.0019
2234.00,0.0020
2233.00,0.0022
2232.00,0.0023
2231.00,0.0022
2230.00,0.0021
2229.00,0.0019
2228.00,0.0018
2227.00,0.0017
2226.00,0.0017
2225.00,0.0017
2224.00,0.0018
2223.00,0.0019
2222.00,0.0020
2221.00,0.0020
2220.00,0.0020
2219.00,0.0019
2218.00,0.0017
2217.00,0.0016
2216.00,0.0016
2215.00,0.0017
2214.00,0.0019
2213.00,0.0019
2212.00,0.0019
2211.00,0.0017
2210.00,0.0016
2209.00,0.0017
2208.00,0.0018
2207.00,0.0019
2206.00,0.0022
2205.00,0.0025
2204.00,0.0027
2203.00,0.0026
2202.00,0.0025
2201.00,0.0024
2200.00,0.0022
2199.00,0.0021
2198.00,0.0020
2197.00,0.0020
2196.00,0.0021
2195.00,0.0023
2194.00,0.0025
2193.00,0.0025
2192.00,0.0025
2191.00,0.0024
2190.00,0.0026
2189.00,0.0028
2188.00,0.0030
2187.00,0.0030
2186.00,0.0027
2185.00,0.0025
2184.00,0.0022
2183.00,0.0020
2182.00,0.0019
2181.00,0.0019
2180.00,0.0021
2179.00,0.0023
2178.00,0.0023
2177.00,0.0021
2176.00,0.0019
2175.00,0.0017
2174.00,0.0016
2173.00,0.0016
2172.00,0.0018
2171.00,0.0020
2170.00,0.0024
2169.00,0.0027
2168.00,0.0030
2167.00,0.0029
2166.00,0.0028
2165.00,0.0027
2164.00,0.0028
2163.00,0.0031
2162.00,0.0031
2161.00,0.0026
2160.00,0.0015
2159.00,0.0000
2158.00,-0.0012
2157.00,-0.0017
2156.00,-0.0017
2155.00,-0.0015
2154.00,-0.0012
2153.00,-0.0010
2152.00,-0.0008
2151.00,-0.0006
2150.00,-0.0005
2149.00,-0.0004
2148.00,-0.0003
2147.00,-0.0002
2146.00,-0.0001
2145.00,0.0001
2144.00,0.0004
2143.00,0.0004
2142.00,0.0003
2141.00,0.0000
2140.00,-0.0001
2139.00,-0.0003
2138.00,-0.0003
2137.00,-0.0003
2136.00,-0.0004
2135.00,-0.0006
2134.00,-0.0008
2133.00,-0.0008
2132.00,-0.0005
2131.00,-0.0002
2130.00,0.0000
2129.00,0.0002
2128.00,0.0003
2127.00,0.0004
2126.00,0.0005
2125.00,0.0007
2124.00,0.0008
2123.00,0.0010
2122.00,0.0011
2121.00,0.0012
2120.00,0.0013
2119.00,0.0014
2118.00,0.0015
2117.00,0.0016
2116.00,0.0016
2115.00,0.0016
2114.00,0.0016
2113.00,0.0016
2112.00,0.0017
2111.00,0.0017
2110.00,0.0016
2109.00,0.0014
2108.00,0.0013
2107.00,0.0013
2106.00,0.0013
2105.00,0.0014
2104.00,0.0015
2103.00,0.0015
2102.00,0.0014
2101.00,0.0013
2100.00,0.0012
2099.00,0.0012
2098.00,0.0012
2097.00,0.0012
2096.00,0.0011
2095.00,0.0010
2094.00,0.0009
2093.00,0.0009
2092.00,0.0010
2091.00,0.0011
2090.00,0.0012
2089.00,0.0013
2088.00,0.0012
2087.00,0.0011
2086.00,0.0011
2085.00,0.0012
2084.00,0.0013
2083.00,0.0014
2082.00,0.0015
2081.00,0.0016
2080.00,0.0018
2079.00,0.0019
2078.00,0.0018
2077.00,0.0017
2076.00,0.0016
2075.00,0.0014
2074.00,0.0013
2073.00,0.0012
2072.00,0.0013
2071.00,0.0014
2070.00,0.0016
2069.00,0.0017
2068.00,0.0017
2067.00,0.0016
2066.00,0.0015
2065.00,0.0014
2064.00,0.0014
2063.00,0.0015
2062.00,0.0015
2061.00,0.0015
2060.00,0.0015
2059.00,0.0015
2058.00,0.0014
2057.00,0.0014
2056.00,0.0013
2055.00,0.0011
2054.00,0.0011
2053.00,0.0013
2052.00,0.0018
2051.00,0.0021
2050.00,0.0022
2049.00,0.0021
2048.00,0.0018
2047.00,0.0015
2046.00,0.0013
2045.00,0.0013
2044.00,0.0016
2043.00,0.0019
2042.00,0.0021
2041.00,0.0020
2040.00,0.0018
2039.00,0.0017
2038.00,0.0018
2037.00,0.0020
2036.00,0.0020
2035.00,0.0017
2034.00,0.0012
2033.00,0.0009
2032.00,0.0007
2031.00,0.0005
2030.00,0.0003
2029.00,0.0002
2028.00,0.0003
2027.00,0.0005
2026.00,0.0007
2025.00,0.0010
2024.00,0.0013
2023.00,0.0013
2022.00,0.0012
2021.00,0.0010
2020.00,0.0007
2019.00,0.0005
2018.00,0.0005
2017.00,0.0008
2016.00,0.0010
2015.00,0.0009
2014.00,0.0005
2013.00,0.0000
2012.00,-0.0004
2011.00,-0.0006
2010.00,-0.0006
2009.00,-0.0005
2008.00,-0.0004
2007.00,-0.0005
2006.00,-0.0005
2005.00,-0.0004
2004.00,-0.0003
2003.00,-0.0001
2002.00,0.0001
2001.00,0.0003
2000.00,0.0004
1999.00,0.0004
1998.00,0.0003
1997.00,0.0002
1996.00,0.0001
1995.00,0.0001
1994.00,0.0002
1993.00,0.0006
1992.00,0.0009
1991.00,0.0011
1990.00,0.0012
1989.00,0.0013
1988.00,0.0013
1987.00,0.0012
1986.00,0.0011
1985.00,0.0011
1984.00,0.0012
1983.00,0.0015
1982.00,0.0019
1981.00,0.0023
1980.00,0.0023
1979.00,0.0018
1978.00,0.0008
1977.00,-0.0001
1976.00,-0.0005
1975.00,-0.0005
1974.00,-0.0003
1973.00,-0.0000
1972.00,0.0001
1971.00,0.0000
1970.00,0.0001
1969.00,0.0003
1968.00,0.0006
1967.00,0.0009
1966.00,0.0009
1965.00,0.0008
1964.00,0.0006
1963.00,0.0002
1962.00,-0.0001
1961.00,-0.0004
1960.00,-0.0004
1959.00,-0.0003
1958.00,-0.0002
1957.00,-0.0001
1956.00,0.0000
1955.00,0.0001
1954.00,0.0001
1953.00,0.0000
1952.00,-0.0001
1951.00,-0.0003
1950.00,-0.0005
1949.00,-0.0005
1948.00,-0.0004
1947.00,-0.0003
1946.00,-0.0003
1945.00,-0.0003
1944.00,-0.0003
1943.00,-0.0002
1942.00,-0.0001
1941.00,-0.0000
1940.00,0.0000
1939.00,0.0000
1938.00,0.0000
1937.00,0.0001
1936.00,0.0001
1935.00,0.0002
1934.00,0.0002
1933.00,0.0003
1932.00,0.0004
1931.00,0.0005
1930.00,0.0007
1929.00,0.0008
1928.00,0.0009
1927.00,0.0009
1926.00,0.0009
1925.00,0.0008
1924.00,0.0008
1923.00,0.0007
1922.00,0.0008
1921.00,0.0008
1920.00,0.0008
1919.00,0.0008
1918.00,0.0009
1917.00,0.0010
1916.00,0.0011
1915.00,0.0012
1914.00,0.0012
1913.00,0.0011
1912.00,0.0011
1911.00,0.0010
1910.00,0.0009
1909.00,0.0009
1908.00,0.0009
1907.00,0.0011
1906.00,0.0012
1905.00,0.0014
1904.00,0.0014
1903.00,0.0013
1902.00,0.0011
1901.00,0.0009
1900.00,0.0009
1899.00,0.0008
1898.00,0.0009
1897.00,0.0010
1896.00,0.0012
1895.00,0.0014
1894.00,0.0015
1893.00,0.0016
1892.00,0.0016
1891.00,0.0015
1890.00,0.0013
1889.00,0.0012
1888.00,0.0011
1887.00,0.0011
1886.00,0.0011
1885.00,0.0011
1884.00,0.0011
1883.00,0.0010
1882.00,0.0010
1881.00,0.0010
1880.00,0.0011
1879.00,0.0011
1878.00,0.0012
1877.00,0.0013
1876.00,0.0014
1875.00,0.0014
1874.00,0.0013
1873.00,0.0012
1872.00,0.0011
1871.00,0.0011
1870.00,0.0012
1869.00,0.0012
1868.00,0.0013
1867.00,0.0013
1866.00,0.0012
1865.00,0.0012
1864.00,0.0012
1863.00,0.0012
1862.00,0.0012
1861.00,0.0013
1860.00,0.0014
1859.00,0.0014
1858.00,0.0014
1857.00,0.0014
1856.00,0.0014
1855.00,0.0014
1854.00,0.0014
1853.00,0.0014
1852.00,0.0013
1851.00,0.0013
1850.00,0.0013
1849.00,0.0014
1848.00,0.0014
1847.00,0.0015
1846.00,0.0015
1845.00,0.0014
1844.00,0.0014
1843.00,0.0014
1842.00,0.0014
1841.00,0.0014
1840.00,0.0014
1839.00,0.0014
1838.00,0.0014
1837.00,0.0015
1836.00,0.0015
1835.00,0.0015
1834.00,0.0015
1833.00,0.0015
1832.00,0.0015
1831.00,0.0015
1830.00,0.0015
1829.00,0.0015
1828.00,0.0015
1827.00,0.0014
1826.00,0.0014
1825.00,0.0015
1824.00,0.0015
1823.00,0.0015
1822.00,0.0016
1821.00,0.0016
1820.00,0.0016
1819.00,0.0015
1818.00,0.0014
1817.00,0.0013
1816.00,0.0013
1815.00,0.0013
1814.00,0.0014
1813.00,0.0015
1812.00,0.0015
1811.00,0.0015
1810.00,0.0015
1809.00,0.0015
1808.00,0.0016
1807.00,0.0016
1806.00,0.0017
1805.00,0.0017
1804.00,0.0018
1803.00,0.0018
1802.00,0.0018
1801.00,0.0019
1800.00,0.0019
1799.00,0.0020
1798.00,0.0020
1797.00,0.0021
1796.00,0.0021
1795.00,0.0021
1794.00,0.0021
1793.00,0.0020
1792.00,0.0019
1791.00,0.0019
1790.00,0.0020
1789.00,0.0020
1788.00,0.0021
1787.00,0.0021
1786.00,0.0020
1785.00,0.0021
1784.00,0.0021
1783.00,0.0022
1782.00,0.0022
1781.00,0.0023
1780.00,0.0022
1779.00,0.0022
1778.00,0.0021
1777.00,0.0021
1776.00,0.0021
1775.00,0.0021
1774.00,0.0021
1773.00,0.0021
1772.00,0.0021
1771.00,0.0020
1770.00,0.0020
1769.00,0.0021
1768.00,0.0022
1767.00,0.0022
1766.00,0.0023
1765.00,0.0024
1764.00,0.0024
1763.00,0.0024
1762.00,0.0023
1761.00,0.0024
1760.00,0.0024
1759.00,0.0025
1758.00,0.0025
1757.00,0.0025
1756.00,0.0026
1755.00,0.0026
1754.00,0.0027
1753.00,0.0028
1752.00,0.0029
1751.00,0.0029
1750.00,0.0029
1749.00,0.0030
1748.00,0.0030
1747.00,0.0031
1746.00,0.0031
1745.00,0.0032
1744.00,0.0033
1743.00,0.0033
1742.00,0.0033
1741.00,0.0033
1740.00,0.0034
1739.00,0.0034
1738.00,0.0034
1737.00,0.0035
1736.00,0.0035
1735.00,0.0035
1734.00,0.0036
1733.00,0.0037
1732.00,0.0037
1731.00,0.0037
1730.00,0.0036
1729.00,0.0036
1728.00,0.0036
1727.00,0.0036
1726.00,0.0036
1725.00,0.0037
1724.00,0.0037
1723.00,0.0037
1722.00,0.0037
1721.00,0.0037
1720.00,0.0037
1719.00,0.0037
1718.00,0.0036
1717.00,0.0036
1716.00,0.0037
1715.00,0.0037
1714.00,0.0036
1713.00,0.0036
1712.00,0.0037
1711.00,0.0037
1710.00,0.0038
1709.00,0.0039
1708.00,0.0039
1707.00,0.0040
1706.00,0.0040
1705.00,0.0041
1704.00,0.0041
1703.00,0.0041
1702.00,0.0041
1701.00,0.0042
1700.00,0.0043
1699.00,0.0043
1698.00,0.0043
1697.00,0.0043
1696.00,0.0044
1695.00,0.0045
1694.00,0.0046
1693.00,0.0048
1692.00,0.0049
1691.00,0.0050
1690.00,0.0050
1689.00,0.0051
1688.00,0.0053
1687.00,0.0054
1686.00,0.0055
1685.00,0.0056
1684.00,0.0057
1683.00,0.0058
1682.00,0.0059
1681.00,0.0060
1680.00,0.0061
1679.00,0.0063
1678.00,0.0064
1677.00,0.0065
1676.00,0.0067
1675.00,0.0068
1674.00,0.0070
1673.00,0.0071
1672.00,0.0071
1671.00,0.0071
1670.00,0.0072
1669.00,0.0073
1668.00,0.0075
1667.00,0.0076
1666.00,0.0077
1665.00,0.0078
1664.00,0.0079
1663.00,0.0079
1662.00,0.0080
1661.00,0.0082
1660.00,0.0083
1659.00,0.0084
1658.00,0.0085
1657.00,0.0085
1656.00,0.0086
1655.00,0.0087
1654.00,0.0088
1653.00,0.0091
1652.00,0.0093
1651.00,0.0093
1650.00,0.0093
1649.00,0.0094
1648.00,0.0095
1647.00,0.0096
1646.00,0.0098
1645.00,0.0099
1644.00,0.0100
1643.00,0.0100
1642.00,0.0101
1641.00,0.0102
1640.00,0.0103
1639.00,0.0104
1638.00,0.0104
1637.00,0.0103
1636.00,0.0103
1635.00,0.0102
1634.00,0.0102
1633.00,0.0102
1632.00,0.0102
1631.00,0.0102
1630.00,0.0101
1629.00,0.0101
1628.00,0.0100
1627.00,0.0100
1626.00,0.0099
1625.00,0.0099
1624.00,0.0098
1623.00,0.0097
1622.00,0.0097
1621.00,0.0097
1620.00,0.0097
1619.00,0.0097
1618.00,0.0096
1617.00,0.0095
1616.00,0.0095
1615.00,0.0096
1614.00,0.0096
1613.00,0.0097
1612.00,0.0097
1611.00,0.0097
1610.00,0.0097
1609.00,0.0097
1608.00,0.0097
1607.00,0.0097
1606.00,0.0097
1605.00,0.0096
1604.00,0.0096
1603.00,0.0096
1602.00,0.0096
1601.00,0.0096
1600.00,0.0096
1599.00,0.0096
1598.00,0.0095
1597.00,0.0095
1596.00,0.0096
1595.00,0.0096
1594.00,0.0095
1593.00,0.0095
1592.00,0.0096
1591.00,0.0095
1590.00,0.0095
1589.00,0.0096
1588.00,0.0096
1587.00,0.0096
1586.00,0.0096
1585.00,0.0096
1584.00,0.0096
1583.00,0.0097
1582.00,0.0097
1581.00,0.0098
1580.00,0.0098
1579.00,0.0098
1578.00,0.0098
1577.00,0.0098
1576.00,0.0098
1575.00,0.0098
1574.00,0.0098
1573.00,0.0098
1572.00,0.0098
1571.00,0.0098
1570.00,0.0098
1569.00,0.0098
1568.00,0.0099
1567.00,0.0100
1566.00,0.0100
1565.00,0.0101
1564.00,0.0101
1563.00,0.0101
1562.00,0.0101
1561.00,0.0102
1560.00,0.0103
1559.00,0.0104
1558.00,0.0105
1557.00,0.0106
1556.00,0.0107
1555.00,0.0108
1554.00,0.0110
1553.00,0.0112
1552.00,0.0114
1551.00,0.0115
1550.00,0.0116
1549.00,0.0117
1548.00,0.0117
1547.00,0.0118
1546.00,0.0118
1545.00,0.0119
1544.00,0.0120
1543.00,0.0120
1542.00,0.0120
1541.00,0.0119
1540.00,0.0118
1539.00,0.0117
1538.00,0.0115
1537.00,0.0114
1536.00,0.0113
1535.00,0.0111
1534.00,0.0109
1533.00,0.0107
1532.00,0.0106
1531.00,0.0106
1530.00,0.0105
1529.00,0.0105
1528.00,0.0105
1527.00,0.0105
1526.00,0.0104
1525.00,0.0105
1524.00,0.0106
1523.00,0.0107
1522.00,0.0107
1521.00,0.0108
1520.00,0.0108
1519.00,0.0109
1518.00,0.0110
1517.00,0.0112
1516.00,0.0113
1515.00,0.0114
1514.00,0.0114
1513.00,0.0115
1512.00,0.0116
1511.00,0.0117
1510.00,0.0117
1509.00,0.0118
1508.00,0.0121
1507.00,0.0123
1506.00,0.0125
1505.00,0.0129
1504.00,0.0132
1503.00,0.0134
1502.00,0.0137
1501.00,0.0141
1500.00,0.0145
1499.00,0.0149
1498.00,0.0152
1497.00,0.0156
1496.00,0.0162
1495.00,0.0166
1494.00,0.0170
1493.00,0.0175
1492.00,0.0180
1491.00,0.0185
1490.00,0.0191
1489.00,0.0198
1488.00,0.0205
1487.00,0.0210
1486.00,0.0215
1485.00,0.0222
1484.00,0.0229
1483.00,0.0237
1482.00,0.0246
1481.00,0.0257
1480.00,0.0270
1479.00,0.0282
1478.00,0.0297
1477.00,0.0317
1476.00,0.0342
1475.00,0.0371
1474.00,0.0411
1473.00,0.0467
1472.00,0.0533
1471.00,0.0595
1470.00,0.0654
1469.00,0.0715
1468.00,0.0780
1467.00,0.0851
1466.00,0.0931
1465.00,0.1018
1464.00,0.1093
1463.00,0.1146
1462.00,0.1180
1461.00,0.1204
1460.00,0.1220
1459.00,0.1232
1458.00,0.1244
1457.00,0.1256
1456.00,0.1258
1455.00,0.1250
1454.00,0.1237
1453.00,0.1220
1452.00,0.1196
1451.00,0.1162
1450.00,0.1116
1449.00,0.1055
1448.00,0.0979
1447.00,0.0898
1446.00,0.0824
1445.00,0.0759
1444.00,0.0703
1443.00,0.0656
1442.00,0.0620
1441.00,0.0595
1440.00,0.0579
1439.00,0.0572
1438.00,0.0572
1437.00,0.0574
1436.00,0.0568
1435.00,0.0547
1434.00,0.0515
1433.00,0.0476
1432.00,0.0435
1431.00,0.0399
1430.00,0.0370
1429.00,0.0349
1428.00,0.0333
1427.00,0.0323
1426.00,0.0316
1425.00,0.0309
1424.00,0.0302
1423.00,0.0297
1422.00,0.0294
1421.00,0.0289
1420.00,0.0285
1419.00,0.0282
1418.00,0.0279
1417.00,0.0274
1416.00,0.0269
1415.00,0.0264
1414.00,0.0260
1413.00,0.0256
1412.00,0.0251
1411.00,0.0246
1410.00,0.0242
1409.00,0.0238
1408.00,0.0234
1407.00,0.0231
1406.00,0.0228
1405.00,0.0225
1404.00,0.0222
1403.00,0.0220
1402.00,0.0220
1401.00,0.0219
1400.00,0.0218
1399.00,0.0217
1398.00,0.0217
1397.00,0.0216
1396.00,0.0216
1395.00,0.0217
1394.00,0.0220
1393.00,0.0222
1392.00,0.0225
1391.00,0.0229
1390.00,0.0236
1389.00,0.0247
1388.00,0.0264
1387.00,0.0291
1386.00,0.0329
1385.00,0.0379
1384.00,0.0450
1383.00,0.0550
1382.00,0.0686
1381.00,0.0861
1380.00,0.1078
1379.00,0.1324
1378.00,0.1561
1377.00,0.1734
1376.00,0.1791
1375.00,0.1704
1374.00,0.1499
1373.00,0.1250
1372.00,0.1022
1371.00,0.0833
1370.00,0.0682
1369.00,0.0568
1368.00,0.0488
1367.00,0.0438
1366.00,0.0410
1365.00,0.0398
1364.00,0.0399
1363.00,0.0410
1362.00,0.0428
1361.00,0.0448
1360.00,0.0462
1359.00,0.0465
1358.00,0.0455
1357.00,0.0431
1356.00,0.0398
1355.00,0.0361
1354.00,0.0325
1353.00,0.0295
1352.00,0.0271
1351.00,0.0251
1350.00,0.0235
1349.00,0.0222
1348.00,0.0211
1347.00,0.0202
1346.00,0.0195
1345.00,0.0188
1344.00,0.0182
1343.00,0.0177
1342.00,0.0172
1341.00,0.0167
1340.00,0.0163
1339.00,0.0160
1338.00,0.0157
1337.00,0.0155
1336.00,0.0155
1335.00,0.0156
1334.00,0.0158
1333.00,0.0161
1332.00,0.0164
1331.00,0.0167
1330.00,0.0167
1329.00,0.0166
1328.00,0.0162
1327.00,0.0158
1326.00,0.0153
1325.00,0.0147
1324.00,0.0142
1323.00,0.0137
1322.00,0.0134
1321.00,0.0131
1320.00,0.0129
1319.00,0.0127
1318.00,0.0126
1317.00,0.0124
1316.00,0.0123
1315.00,0.0122
1314.00,0.0121
1313.00,0.0121
1312.00,0.0122
1311.00,0.0124
1310.00,0.0128
1309.00,0.0133
1308.00,0.0141
1307.00,0.0151
1306.00,0.0161
1305.00,0.0167
1304.00,0.0170
1303.00,0.0167
1302.00,0.0163
1301.00,0.0158
1300.00,0.0155
1299.00,0.0154
1298.00,0.0154
1297.00,0.0154
1296.00,0.0153
1295.00,0.0151
1294.00,0.0148
1293.00,0.0144
1292.00,0.0139
1291.00,0.0134
1290.00,0.0130
1289.00,0.0127
1288.00,0.0125
1287.00,0.0123
1286.00,0.0121
1285.00,0.0119
1284.00,0.0117
1283.00,0.0115
1282.00,0.0114
1281.00,0.0113
1280.00,0.0112
1279.00,0.0111
1278.00,0.0110
1277.00,0.0109
1276.00,0.0109
1275.00,0.0108
1274.00,0.0108
1273.00,0.0109
1272.00,0.0109
1271.00,0.0110
1270.00,0.0111
1269.00,0.0113
1268.00,0.0115
1267.00,0.0117
1266.00,0.0120
1265.00,0.0123
1264.00,0.0126
1263.00,0.0130
1262.00,0.0134
1261.00,0.0139
1260.00,0.0144
1259.00,0.0149
1258.00,0.0155
1257.00,0.0160
1256.00,0.0162
1255.00,0.0160
1254.00,0.0154
1253.00,0.0146
1252.00,0.0139
1251.00,0.0132
1250.00,0.0128
1249.00,0.0124
1248.00,0.0121
1247.00,0.0119
1246.00,0.0118
1245.00,0.0116
1244.00,0.0115
1243.00,0.0114
1242.00,0.0112
1241.00,0.0111
1240.00,0.0110
1239.00,0.0109
1238.00,0.0109
1237.00,0.0108
1236.00,0.0108
1235.00,0.0107
1234.00,0.0107
1233.00,0.0107
1232.00,0.0107
1231.00,0.0107
1230.00,0.0108
1229.00,0.0109
1228.00,0.0110
1227.00,0.0112
1226.00,0.0114
1225.00,0.0117
1224.00,0.0119
1223.00,0.0122
1222.00,0.0125
1221.00,0.0128
1220.00,0.0130
1219.00,0.0130
1218.00,0.0129
1217.00,0.0127
1216.00,0.0124
1215.00,0.0121
1214.00,0.0118
1213.00,0.0116
1212.00,0.0113
1211.00,0.0111
1210.00,0.0109
1209.00,0.0108
1208.00,0.0107
1207.00,0.0106
1206.00,0.0105
1205.00,0.0104
1204.00,0.0104
1203.00,0.0103
1202.00,0.0103
1201.00,0.0102
1200.00,0.0102
1199.00,0.0102
1198.00,0.0102
1197.00,0.0102
1196.00,0.0102
1195.00,0.0102
1194.00,0.0103
1193.00,0.0103
1192.00,0.0103
1191.00,0.0103
1190.00,0.0103
1189.00,0.0103
1188.00,0.0103
1187.00,0.0103
1186.00,0.0104
1185.00,0.0105
1184.00,0.0106
1183.00,0.0107
1182.00,0.0109
1181.00,0.0112
1180.00,0.0116
1179.00,0.0122
1178.00,0.0129
1177.00,0.0137
1176.00,0.0147
1175.00,0.0161
1174.00,0.0179
1173.00,0.0202
1172.00,0.0230
1171.00,0.0260
1170.00,0.0288
1169.00,0.0311
1168.00,0.0325
1167.00,0.0328
1166.00,0.0322
1165.00,0.0310
1164.00,0.0296
1163.00,0.0282
1162.00,0.0270
1161.00,0.0261
1160.00,0.0254
1159.00,0.0250
1158.00,0.0247
1157.00,0.0245
1156.00,0.0243
1155.00,0.0242
1154.00,0.0241
1153.00,0.0239
1152.00,0.0235
1151.00,0.0230
1150.00,0.0223
1149.00,0.0215
1148.00,0.0206
1147.00,0.0198
1146.00,0.0189
1145.00,0.0180
1144.00,0.0173
1143.00,0.0166
1142.00,0.0160
1141.00,0.0156
1140.00,0.0151
1139.00,0.0148
1138.00,0.0145
1137.00,0.0142
1136.00,0.0141
1135.00,0.0139
1134.00,0.0138
1133.00,0.0137
1132.00,0.0137
1131.00,0.0137
1130.00,0.0138
1129.00,0.0139
1128.00,0.0141
1127.00,0.0144
1126.00,0.0145
1125.00,0.0147
1124.00,0.0147
1123.00,0.0149
1122.00,0.0151
1121.00,0.0154
1120.00,0.0157
1119.00,0.0160
1118.00,0.0162
1117.00,0.0164
1116.00,0.0164
1115.00,0.0164
1114.00,0.0165
1113.00,0.0165
1112.00,0.0165
1111.00,0.0166
1110.00,0.0167
1109.00,0.0169
1108.00,0.0171
1107.00,0.0175
1106.00,0.0179
1105.00,0.0184
1104.00,0.0187
1103.00,0.0189
1102.00,0.0189
1101.00,0.0186
1100.00,0.0181
1099.00,0.0175
1098.00,0.0169
1097.00,0.0164
1096.00,0.0160
1095.00,0.0157
1094.00,0.0154
1093.00,0.0151
1092.00,0.0149
1091.00,0.0147
1090.00,0.0146
1089.00,0.0145
1088.00,0.0144
1087.00,0.0143
1086.00,0.0142
1085.00,0.0141
1084.00,0.0140
1083.00,0.0140
1082.00,0.0139
1081.00,0.0138
1080.00,0.0138
1079.00,0.0137
1078.00,0.0135
1077.00,0.0134
1076.00,0.0132
1075.00,0.0131
1074.00,0.0130
1073.00,0.0129
1072.00,0.0128
1071.00,0.0127
1070.00,0.0127
1069.00,0.0127
1068.00,0.0127
1067.00,0.0127
1066.00,0.0126
1065.00,0.0126
1064.00,0.0126
1063.00,0.0127
1062.00,0.0128
1061.00,0.0127
1060.00,0.0126
1059.00,0.0126
1058.00,0.0126
1057.00,0.0126
1056.00,0.0126
1055.00,0.0126
1054.00,0.0126
1053.00,0.0127
1052.00,0.0128
1051.00,0.0129
1050.00,0.0130
1049.00,0.0131
1048.00,0.0133
1047.00,0.0136
1046.00,0.0140
1045.00,0.0142
1044.00,0.0142
1043.00,0.0141
1042.00,0.0140
1041.00,0.0138
1040.00,0.0137
1039.00,0.0136
1038.00,0.0135
1037.00,0.0134
1036.00,0.0134
1035.00,0.0134
1034.00,0.0134
1033.00,0.0133
1032.00,0.0131
1031.00,0.0130
1030.00,0.0127
1029.00,0.0125
1028.00,0.0123
1027.00,0.0122
1026.00,0.0122
1025.00,0.0122
1024.00,0.0122
1023.00,0.0123
1022.00,0.0123
1021.00,0.0123
1020.00,0.0123
1019.00,0.0124
1018.00,0.0124
1017.00,0.0125
1016.00,0.0126
1015.00,0.0128
1014.00,0.0128
1013.00,0.0129
1012.00,0.0131
1011.00,0.0133
1010.00,0.0135
1009.00,0.0138
1008.00,0.0142
1007.00,0.0148
1006.00,0.0156
1005.00,0.0166
1004.00,0.0181
1003.00,0.0202
1002.00,0.0230
1001.00,0.0265
1000.00,0.0303
999.00,0.0334
998.00,0.0348
997.00,0.0341
996.00,0.0315
995.00,0.0279
994.00,0.0242
993.00,0.0210
992.00,0.0186
991.00,0.0168
990.00,0.0156
989.00,0.0147
988.00,0.0141
987.00,0.0137
986.00,0.0136
985.00,0.0137
984.00,0.0141
983.00,0.0148
982.00,0.0159
981.00,0.0174
980.00,0.0194
979.00,0.0220
978.00,0.0253
977.00,0.0292
976.00,0.0333
975.00,0.0373
974.00,0.0402
973.00,0.0412
972.00,0.0399
971.00,0.0365
970.00,0.0319
969.00,0.0273
968.00,0.0233
967.00,0.0203
966.00,0.0181
965.00,0.0165
964.00,0.0153
963.00,0.0143
962.00,0.0135
961.00,0.0128
960.00,0.0123
959.00,0.0120
958.00,0.0117
957.00,0.0115
956.00,0.0113
955.00,0.0111
954.00,0.0110
953.00,0.0109
952.00,0.0109
951.00,0.0109
950.00,0.0108
949.00,0.0107
948.00,0.0106
947.00,0.0107
946.00,0.0108
945.00,0.0110
944.00,0.0112
943.00,0.0115
942.00,0.0118
941.00,0.0120
940.00,0.0120
939.00,0.0118
938.00,0.0113
937.00,0.0107
936.00,0.0102
935.00,0.0097
934.00,0.0093
933.00,0.0091
932.00,0.0089
931.00,0.0088
930.00,0.0087
929.00,0.0087
928.00,0.0087
927.00,0.0088
926.00,0.0089
925.00,0.0088
924.00,0.0088
923.00,0.0087
922.00,0.0086
921.00,0.0086
920.00,0.0087
919.00,0.0087
918.00,0.0086
917.00,0.0085
916.00,0.0085
915.00,0.0086
914.00,0.0088
913.00,0.0090
912.00,0.0092
911.00,0.0094
910.00,0.0096
909.00,0.0098
908.00,0.0100
907.00,0.0104
906.00,0.0110
905.00,0.0120
904.00,0.0133
903.00,0.0150
902.00,0.0168
901.00,0.0185
900.00,0.0195
899.00,0.0197
898.00,0.0189
897.00,0.0175
896.00,0.0158
895.00,0.0142
894.00,0.0129
893.00,0.0119
892.00,0.0112
891.00,0.0107
890.00,0.0105
889.00,0.0103
888.00,0.0102
887.00,0.0101
886.00,0.0100
885.00,0.0100
884.00,0.0102
883.00,0.0106
882.00,0.0111
881.00,0.0117
880.00,0.0123
879.00,0.0130
878.00,0.0138
877.00,0.0146
876.00,0.0153
875.00,0.0157
874.00,0.0156
873.00,0.0150
872.00,0.0141
871.00,0.0130
870.00,0.0120
869.00,0.0112
868.00,0.0107
867.00,0.0104
866.00,0.0103
865.00,0.0104
864.00,0.0105
863.00,0.0106
862.00,0.0106
861.00,0.0106
860.00,0.0106
859.00,0.0107
858.00,0.0108
857.00,0.0109
856.00,0.0110
855.00,0.0112
854.00,0.0114
853.00,0.0117
852.00,0.0121
851.00,0.0125
850.00,0.0130
849.00,0.0135
848.00,0.0144
847.00,0.0157
846.00,0.0176
845.00,0.0204
844.00,0.0243
843.00,0.0287
842.00,0.0323
841.00,0.0333
840.00,0.0312
839.00,0.0270
838.00,0.0225
837.00,0.0189
836.00,0.0165
835.00,0.0151
834.00,0.0142
833.00,0.0136
832.00,0.0132
831.00,0.0129
830.00,0.0126
829.00,0.0125
828.00,0.0124
827.00,0.0123
826.00,0.0123
825.00,0.0122
824.00,0.0121
823.00,0.0120
822.00,0.0121
821.00,0.0122
820.00,0.0124
819.00,0.0126
818.00,0.0130
817.00,0.0135
816.00,0.0144
815.00,0.0155
814.00,0.0170
813.00,0.0187
812.00,0.0205
811.00,0.0221
810.00,0.0233
809.00,0.0239
808.00,0.0236
807.00,0.0225
806.00,0.0209
805.00,0.0191
804.00,0.0175
803.00,0.0162
802.00,0.0153
801.00,0.0145
800.00,0.0139
799.00,0.0135
798.00,0.0132
797.00,0.0130
796.00,0.0129
795.00,0.0126
794.00,0.0122
793.00,0.0117
792.00,0.0113
791.00,0.0109
790.00,0.0106
789.00,0.0104
788.00,0.0102
787.00,0.0101
786.00,0.0099
785.00,0.0098
784.00,0.0097
783.00,0.0096
782.00,0.0095
781.00,0.0094
780.00,0.0092
779.00,0.0091
778.00,0.0090
777.00,0.0090
776.00,0.0090
775.00,0.0089
774.00,0.0088
773.00,0.0087
772.00,0.0088
771.00,0.0090
770.00,0.0092
769.00,0.0093
768.00,0.0093
767.00,0.0093
766.00,0.0093
765.00,0.0093
764.00,0.0093
763.00,0.0093
762.00,0.0094
761.00,0.0095
760.00,0.0096
759.00,0.0098
758.00,0.0099
757.00,0.0100
756.00,0.0101
755.00,0.0101
754.00,0.0101
753.00,0.0101
752.00,0.0102
751.00,0.0104
750.00,0.0105
749.00,0.0105
748.00,0.0106
747.00,0.0107
746.00,0.0109
745.00,0.0112
744.00,0.0115
743.00,0.0118
742.00,0.0121
741.00,0.0124
740.00,0.0127
739.00,0.0130
738.00,0.0134
737.00,0.0137
736.00,0.0139
735.00,0.0142
734.00,0.0146
733.00,0.0154
732.00,0.0163
731.00,0.0171
730.00,0.0176
729.00,0.0178
728.00,0.0179
727.00,0.0180
726.00,0.0183
725.00,0.0186
724.00,0.0191
723.00,0.0198
722.00,0.0204
721.00,0.0209
720.00,0.0209
719.00,0.0202
718.00,0.0191
717.00,0.0178
716.00,0.0169
715.00,0.0163
714.00,0.0159
713.00,0.0155
712.00,0.0151
711.00,0.0147
710.00,0.0144
709.00,0.0142
708.00,0.0141
707.00,0.0139
706.00,0.0136
705.00,0.0134
704.00,0.0133
703.00,0.0132
702.00,0.0131
701.00,0.0129
700.00,0.0126
699.00,0.0123
698.00,0.0121
697.00,0.0120
696.00,0.0120
695.00,0.0119
694.00,0.0119
693.00,0.0120
692.00,0.0122
691.00,0.0125
690.00,0.0126
689.00,0.0125
688.00,0.0123
687.00,0.0122
686.00,0.0122
685.00,0.0121
684.00,0.0121
683.00,0.0121
682.00,0.0121
681.00,0.0122
680.00,0.0122
679.00,0.0123
678.00,0.0123
677.00,0.0123
676.00,0.0123
675.00,0.0122
674.00,0.0120
673.00,0.0119
672.00,0.0118
671.00,0.0118
670.00,0.0119
669.00,0.0120
668.00,0.0121
667.00,0.0123
666.00,0.0124
665.00,0.0123
664.00,0.0123
663.00,0.0122
662.00,0.0122
661.00,0.0123
660.00,0.0123
659.00,0.0123
658.00,0.0121
657.00,0.0119
656.00,0.0118
655.00,0.0118
654.00,0.0119
653.00,0.0120
652.00,0.0122
651.00,0.0123
650.00,0.0124
649.00,0.0124
648.00,0.0123
647.00,0.0121
646.00,0.0119
645.00,0.0117
644.00,0.0116
643.00,0.0115
642.00,0.0114
641.00,0.0115
640.00,0.0116
639.00,0.0117
638.00,0.0118
637.00,0.0118
636.00,0.0119
635.00,0.0119
634.00,0.0120
633.00,0.0122
632.00,0.0123
631.00,0.0124
630.00,0.0124
629.00,0.0123
628.00,0.0120
627.00,0.0118
626.00,0.0116
625.00,0.0115
624.00,0.0116
623.00,0.0117
622.00,0.0120
621.00,0.0122
620.00,0.0123
619.00,0.0123
618.00,0.0124
617.00,0.0123
616.00,0.0121
615.00,0.0119
614.00,0.0116
613.00,0.0115
612.00,0.0116
611.00,0.0118
610.00,0.0120
609.00,0.0119
608.00,0.0116
607.00,0.0112
606.00,0.0109
605.00,0.0108
604.00,0.0110
603.00,0.0113
602.00,0.0117
601.00,0.0118
600.00,0.0118
599.00,0.0117
598.00,0.0117
597.00,0.0117
596.00,0.0117
595.00,0.0116
594.00,0.0116
593.00,0.0116
592.00,0.0118
591.00,0.0121
590.00,0.0124
589.00,0.0125
588.00,0.0126
587.00,0.0125
586.00,0.0123
585.00,0.0121
584.00,0.0119
583.00,0.0119
582.00,0.0120
581.00,0.0122
580.00,0.0123
579.00,0.0123
578.00,0.0123
577.00,0.0122
576.00,0.0122
575.00,0.0121
574.00,0.0121
573.00,0.0123
572.00,0.0124
571.00,0.0123
570.00,0.0120
569.00,0.0117
568.00,0.0115
567.00,0.0118
566.00,0.0122
565.00,0.0125
564.00,0.0126
563.00,0.0124
562.00,0.0123
561.00,0.0122
560.00,0.0122
559.00,0.0122
558.00,0.0124
557.00,0.0125
556.00,0.0125
555.00,0.0126
554.00,0.0125
553.00,0.0123
552.00,0.0118
551.00,0.0112
550.00,0.0108
549.00,0.0109
548.00,0.0114
547.00,0.0119
546.00,0.0120
545.00,0.0118
544.00,0.0113
543.00,0.0110
542.00,0.0110
541.00,0.0113
540.00,0.0116
539.00,0.0119
538.00,0.0123
537.00,0.0129
536.00,0.0135
535.00,0.0137
534.00,0.0136
533.00,0.0135
532.00,0.0133
531.00,0.0131
530.00,0.0129
529.00,0.0128
528.00,0.0131
527.00,0.0137
526.00,0.0142
525.00,0.0142
524.00,0.0137
523.00,0.0130
522.00,0.0124
521.00,0.0122
520.00,0.0122
519.00,0.0126
518.00,0.0131
517.00,0.0135
516.00,0.0134
515.00,0.0126
514.00,0.0116
513.00,0.0108
512.00,0.0105
511.00,0.0107
510.00,0.0110
509.00,0.0115
508.00,0.0121
507.00,0.0125
506.00,0.0126
505.00,0.0122
504.00,0.0120
503.00,0.0122
502.00,0.0123
501.00,0.0121
500.00,0.0115
499.00,0.0110
498.00,0.0105
497.00,0.0099
496.00,0.0092
495.00,0.0089
494.00,0.0093
493.00,0.0102
492.00,0.0110
491.00,0.0111
490.00,0.0108
489.00,0.0104
488.00,0.0102
487.00,0.0101
486.00,0.0105
485.00,0.0110
484.00,0.0112
483.00,0.0107
482.00,0.0097
481.00,0.0088
480.00,0.0085
479.00,0.0086
478.00,0.0091
477.00,0.0101
476.00,0.0112
475.00,0.0121
474.00,0.0124
473.00,0.0122
472.00,0.0124
471.00,0.0132
470.00,0.0141
469.00,0.0145
468.00,0.0144
467.00,0.0137
466.00,0.0128
465.00,0.0119
464.00,0.0118
463.00,0.0132
462.00,0.0159
461.00,0.0185
460.00,0.0199
459.00,0.0198
458.00,0.0183
457.00,0.0161
456.00,0.0142
455.00,0.0132
454.00,0.0133
453.00,0.0141
452.00,0.0147
451.00,0.0149
450.00,0.0152
