Created as New Dataset,Sample 253 By Administrator Date Wednesday, September 03 2025
cm-1,A
4000.00,0.0011
3999.00,0.0011
3998.00,0.0011
3997.00,0.0011
3996.00,0.0011
3995.00,0.0011
3994.00,0.0011
3993.00,0.0011
3992.00,0.0011
3991.00,0.0010
3990.00,0.0010
3989.00,0.0010
3988.00,0.0009
3987.00,0.0009
3986.00,0.0009
3985.00,0.0009
3984.00,0.0009
3983.00,0.0009
3982.00,0.0009
3981.00,0.0009
3980.00,0.0010
3979.00,0.0010
3978.00,0.0009
3977.00,0.0009
3976.00,0.0009
3975.00,0.0009
3974.00,0.0008
3973.00,0.0009
3972.00,0.0009
3971.00,0.0009
3970.00,0.0009
3969.00,0.0009
3968.00,0.0009
3967.00,0.0009
3966.00,0.0009
3965.00,0.0009
3964.00,0.0009
3963.00,0.0009
3962.00,0.0009
3961.00,0.0008
3960.00,0.0008
3959.00,0.0008
3958.00,0.0008
3957.00,0.0008
3956.00,0.0008
3955.00,0.0009
3954.00,0.0009
3953.00,0.0009
3952.00,0.0010
3951.00,0.0010
3950.00,0.0010
3949.00,0.0009
3948.00,0.0009
3947.00,0.0009
3946.00,0.0009
3945.00,0.0009
3944.00,0.0009
3943.00,0.0009
3942.00,0.0009
3941.00,0.0009
3940.00,0.0009
3939.00,0.0008
3938.00,0.0008
3937.00,0.0008
3936.00,0.0009
3935.00,0.0009
3934.00,0.0009
3933.00,0.0009
3932.00,0.0009
3931.00,0.0009
3930.00,0.0009
3929.00,0.0009
3928.00,0.0009
3927.00,0.0009
3926.00,0.0009
3925.00,0.0009
3924.00,0.0009
3923.00,0.0009
3922.00,0.0009
3921.00,0.0009
3920.00,0.0009
3919.00,0.0009
3918.00,0.0009
3917.00,0.0009
3916.00,0.0009
3915.00,0.0009
3914.00,0.0009
3913.00,0.0009
3912.00,0.0008
3911.00,0.0008
3910.00,0.0008
3909.00,0.0009
3908.00,0.0009
3907.00,0.0010
3906.00,0.0010
3905.00,0.0010
3904.00,0.0010
3903.00,0.0010
3902.00,0.0009
3901.00,0.0009
3900.00,0.0008
3899.00,0.0008
3898.00,0.0008
3897.00,0.0008
3896.00,0.0009
3895.00,0.0009
3894.00,0.0009
3893.00,0.0009
3892.00,0.0009
3891.00,0.0009
3890.00,0.0010
3889.00,0.0010
3888.00,0.0009
3887.00,0.0009
3886.00,0.0009
3885.00,0.0009
3884.00,0.0009
3883.00,0.0008
3882.00,0.0008
3881.00,0.0008
3880.00,0.0008
3879.00,0.0008
3878.00,0.0009
3877.00,0.0009
3876.00,0.0009
3875.00,0.0009
3874.00,0.0010
3873.00,0.0010
3872.00,0.0010
3871.00,0.0009
3870.00,0.0009
3869.00,0.0010
3868.00,0.0010
3867.00,0.0010
3866.00,0.0009
3865.00,0.0009
3864.00,0.0010
3863.00,0.0010
3862.00,0.0009
3861.00,0.0009
3860.00,0.0009
3859.00,0.0009
3858.00,0.0009
3857.00,0.0008
3856.00,0.0008
3855.00,0.0008
3854.00,0.0008
3853.00,0.0008
3852.00,0.0008
3851.00,0.0008
3850.00,0.0008
3849.00,0.0008
3848.00,0.0008
3847.00,0.0009
3846.00,0.0009
3845.00,0.0009
3844.00,0.0008
3843.00,0.0008
3842.00,0.0008
3841.00,0.0009
3840.00,0.0009
3839.00,0.0009
3838.00,0.0009
3837.00,0.0009
3836.00,0.0009
3835.00,0.0009
3834.00,0.0008
3833.00,0.0008
3832.00,0.0008
3831.00,0.0009
3830.00,0.0009
3829.00,0.0008
3828.00,0.0008
3827.00,0.0009
3826.00,0.0009
3825.00,0.0009
3824.00,0.0010
3823.00,0.0010
3822.00,0.0010
3821.00,0.0011
3820.00,0.0011
3819.00,0.0011
3818.00,0.0011
3817.00,0.0010
3816.00,0.0009
3815.00,0.0009
3814.00,0.0009
3813.00,0.0009
3812.00,0.0009
3811.00,0.0009
3810.00,0.0009
3809.00,0.0009
3808.00,0.0009
3807.00,0.0009
3806.00,0.0009
3805.00,0.0010
3804.00,0.0010
3803.00,0.0009
3802.00,0.0009
3801.00,0.0010
3800.00,0.0010
3799.00,0.0010
3798.00,0.0010
3797.00,0.0009
3796.00,0.0009
3795.00,0.0008
3794.00,0.0008
3793.00,0.0007
3792.00,0.0008
3791.00,0.0008
3790.00,0.0009
3789.00,0.0009
3788.00,0.0009
3787.00,0.0009
3786.00,0.0009
3785.00,0.0009
3784.00,0.0009
3783.00,0.0009
3782.00,0.0009
3781.00,0.0009
3780.00,0.0009
3779.00,0.0008
3778.00,0.0008
3777.00,0.0008
3776.00,0.0009
3775.00,0.0009
3774.00,0.0009
3773.00,0.0010
3772.00,0.0010
3771.00,0.0010
3770.00,0.0010
3769.00,0.0010
3768.00,0.0010
3767.00,0.0010
3766.00,0.0010
3765.00,0.0010
3764.00,0.0010
3763.00,0.0009
3762.00,0.0009
3761.00,0.0009
3760.00,0.0009
3759.00,0.0009
3758.00,0.0010
3757.00,0.0010
3756.00,0.0010
3755.00,0.0010
3754.00,0.0010
3753.00,0.0010
3752.00,0.0011
3751.00,0.0011
3750.00,0.0012
3749.00,0.0012
3748.00,0.0012
3747.00,0.0011
3746.00,0.0010
3745.00,0.0009
3744.00,0.0010
3743.00,0.0010
3742.00,0.0010
3741.00,0.0011
3740.00,0.0011
3739.00,0.0011
3738.00,0.0011
3737.00,0.0011
3736.00,0.0011
3735.00,0.0011
3734.00,0.0010
3733.00,0.0009
3732.00,0.0009
3731.00,0.0008
3730.00,0.0008
3729.00,0.0008
3728.00,0.0008
3727.00,0.0008
3726.00,0.0008
3725.00,0.0008
3724.00,0.0007
3723.00,0.0007
3722.00,0.0008
3721.00,0.0008
3720.00,0.0008
3719.00,0.0008
3718.00,0.0008
3717.00,0.0008
3716.00,0.0008
3715.00,0.0008
3714.00,0.0008
3713.00,0.0008
3712.00,0.0009
3711.00,0.0008
3710.00,0.0008
3709.00,0.0008
3708.00,0.0007
3707.00,0.0007
3706.00,0.0008
3705.00,0.0008
3704.00,0.0008
3703.00,0.0009
3702.00,0.0009
3701.00,0.0009
3700.00,0.0009
3699.00,0.0009
3698.00,0.0009
3697.00,0.0009
3696.00,0.0009
3695.00,0.0009
3694.00,0.0009
3693.00,0.0009
3692.00,0.0009
3691.00,0.0009
3690.00,0.0009
3689.00,0.0009
3688.00,0.0009
3687.00,0.0009
3686.00,0.0008
3685.00,0.0008
3684.00,0.0008
3683.00,0.0009
3682.00,0.0009
3681.00,0.0010
3680.00,0.0011
3679.00,0.0012
3678.00,0.0013
3677.00,0.0013
3676.00,0.0013
3675.00,0.0013
3674.00,0.0012
3673.00,0.0011
3672.00,0.0010
3671.00,0.0009
3670.00,0.0009
3669.00,0.0009
3668.00,0.0009
3667.00,0.0008
3666.00,0.0008
3665.00,0.0008
3664.00,0.0009
3663.00,0.0009
3662.00,0.0009
3661.00,0.0009
3660.00,0.0009
3659.00,0.0009
3658.00,0.0008
3657.00,0.0009
3656.00,0.0010
3655.00,0.0011
3654.00,0.0011
3653.00,0.0012
3652.00,0.0012
3651.00,0.0012
3650.00,0.0012
3649.00,0.0012
3648.00,0.0012
3647.00,0.0011
3646.00,0.0011
3645.00,0.0011
3644.00,0.0010
3643.00,0.0010
3642.00,0.0010
3641.00,0.0010
3640.00,0.0010
3639.00,0.0010
3638.00,0.0011
3637.00,0.0011
3636.00,0.0012
3635.00,0.0012
3634.00,0.0013
3633.00,0.0013
3632.00,0.0013
3631.00,0.0013
3630.00,0.0013
3629.00,0.0013
3628.00,0.0013
3627.00,0.0013
3626.00,0.0013
3625.00,0.0013
3624.00,0.0014
3623.00,0.0014
3622.00,0.0014
3621.00,0.0014
3620.00,0.0014
3619.00,0.0014
3618.00,0.0014
3617.00,0.0015
3616.00,0.0015
3615.00,0.0015
3614.00,0.0016
3613.00,0.0016
3612.00,0.0017
3611.00,0.0017
3610.00,0.0017
3609.00,0.0017
3608.00,0.0017
3607.00,0.0017
3606.00,0.0017
3605.00,0.0017
3604.00,0.0017
3603.00,0.0017
3602.00,0.0018
3601.00,0.0018
3600.00,0.0018
3599.00,0.0018
3598.00,0.0019
3597.00,0.0019
3596.00,0.0019
3595.00,0.0019
3594.00,0.0020
3593.00,0.0020
3592.00,0.0020
3591.00,0.0020
3590.00,0.0020
3589.00,0.0020
3588.00,0.0021
3587.00,0.0021
3586.00,0.0021
3585.00,0.0021
3584.00,0.0021
3583.00,0.0022
3582.00,0.0022
3581.00,0.0022
3580.00,0.0022
3579.00,0.0022
3578.00,0.0022
3577.00,0.0023
3576.00,0.0023
3575.00,0.0023
3574.00,0.0023
3573.00,0.0024
3572.00,0.0024
3571.00,0.0025
3570.00,0.0025
3569.00,0.0025
3568.00,0.0026
3567.00,0.0026
3566.00,0.0027
3565.00,0.0027
3564.00,0.0027
3563.00,0.0027
3562.00,0.0027
3561.00,0.0028
3560.00,0.0028
3559.00,0.0028
3558.00,0.0028
3557.00,0.0028
3556.00,0.0029
3555.00,0.0028
3554.00,0.0029
3553.00,0.0029
3552.00,0.0029
3551.00,0.0030
3550.00,0.0030
3549.00,0.0030
3548.00,0.0031
3547.00,0.0031
3546.00,0.0032
3545.00,0.0033
3544.00,0.0033
3543.00,0.0033
3542.00,0.0033
3541.00,0.0033
3540.00,0.0033
3539.00,0.0033
3538.00,0.0033
3537.00,0.0033
3536.00,0.0033
3535.00,0.0034
3534.00,0.0034
3533.00,0.0034
3532.00,0.0035
3531.00,0.0035
3530.00,0.0036
3529.00,0.0036
3528.00,0.0037
3527.00,0.0037
3526.00,0.0037
3525.00,0.0037
3524.00,0.0037
3523.00,0.0037
3522.00,0.0037
3521.00,0.0038
3520.00,0.0038
3519.00,0.0038
3518.00,0.0039
3517.00,0.0039
3516.00,0.0039
3515.00,0.0040
3514.00,0.0040
3513.00,0.0040
3512.00,0.0040
3511.00,0.0041
3510.00,0.0041
3509.00,0.0041
3508.00,0.0042
3507.00,0.0042
3506.00,0.0043
3505.00,0.0043
3504.00,0.0043
3503.00,0.0043
3502.00,0.0043
3501.00,0.0043
3500.00,0.0044
3499.00,0.0044
3498.00,0.0044
3497.00,0.0044
3496.00,0.0044
3495.00,0.0044
3494.00,0.0045
3493.00,0.0045
3492.00,0.0046
3491.00,0.0047
3490.00,0.0047
3489.00,0.0047
3488.00,0.0048
3487.00,0.0048
3486.00,0.0049
3485.00,0.0049
3484.00,0.0049
3483.00,0.0049
3482.00,0.0049
3481.00,0.0049
3480.00,0.0049
3479.00,0.0050
3478.00,0.0050
3477.00,0.0050
3476.00,0.0051
3475.00,0.0051
3474.00,0.0051
3473.00,0.0051
3472.00,0.0052
3471.00,0.0052
3470.00,0.0052
3469.00,0.0053
3468.00,0.0053
3467.00,0.0053
3466.00,0.0053
3465.00,0.0053
3464.00,0.0053
3463.00,0.0053
3462.00,0.0054
3461.00,0.0054
3460.00,0.0055
3459.00,0.0055
3458.00,0.0055
3457.00,0.0055
3456.00,0.0056
3455.00,0.0056
3454.00,0.0056
3453.00,0.0057
3452.00,0.0057
3451.00,0.0058
3450.00,0.0058
3449.00,0.0058
3448.00,0.0059
3447.00,0.0058
3446.00,0.0058
3445.00,0.0058
3444.00,0.0059
3443.00,0.0059
3442.00,0.0059
3441.00,0.0060
3440.00,0.0060
3439.00,0.0061
3438.00,0.0061
3437.00,0.0061
3436.00,0.0061
3435.00,0.0061
3434.00,0.0061
3433.00,0.0062
3432.00,0.0062
3431.00,0.0063
3430.00,0.0063
3429.00,0.0063
3428.00,0.0064
3427.00,0.0064
3426.00,0.0065
3425.00,0.0065
3424.00,0.0065
3423.00,0.0065
3422.00,0.0065
3421.00,0.0065
3420.00,0.0064
3419.00,0.0064
3418.00,0.0064
3417.00,0.0065
3416.00,0.0065
3415.00,0.0066
3414.00,0.0066
3413.00,0.0067
3412.00,0.0067
3411.00,0.0067
3410.00,0.0068
3409.00,0.0068
3408.00,0.0068
3407.00,0.0068
3406.00,0.0069
3405.00,0.0069
3404.00,0.0070
3403.00,0.0070
3402.00,0.0071
3401.00,0.0071
3400.00,0.0071
3399.00,0.0072
3398.00,0.0072
3397.00,0.0073
3396.00,0.0073
3395.00,0.0073
3394.00,0.0073
3393.00,0.0073
3392.00,0.0072
3391.00,0.0072
3390.00,0.0072
3389.00,0.0071
3388.00,0.0071
3387.00,0.0071
3386.00,0.0072
3385.00,0.0072
3384.00,0.0072
3383.00,0.0072
3382.00,0.0071
3381.00,0.0071
3380.00,0.0071
3379.00,0.0072
3378.00,0.0072
3377.00,0.0073
3376.00,0.0073
3375.00,0.0072
3374.00,0.0072
3373.00,0.0072
3372.00,0.0072
3371.00,0.0072
3370.00,0.0072
3369.00,0.0071
3368.00,0.0071
3367.00,0.0071
3366.00,0.0071
3365.00,0.0071
3364.00,0.0072
3363.00,0.0072
3362.00,0.0072
3361.00,0.0072
3360.00,0.0073
3359.00,0.0073
3358.00,0.0073
3357.00,0.0073
3356.00,0.0073
3355.00,0.0073
3354.00,0.0073
3353.00,0.0073
3352.00,0.0073
3351.00,0.0073
3350.00,0.0073
3349.00,0.0073
3348.00,0.0073
3347.00,0.0072
3346.00,0.0072
3345.00,0.0072
3344.00,0.0072
3343.00,0.0072
3342.00,0.0072
3341.00,0.0073
3340.00,0.0072
3339.00,0.0073
3338.00,0.0073
3337.00,0.0073
3336.00,0.0073
3335.00,0.0073
3334.00,0.0072
3333.00,0.0072
3332.00,0.0071
3331.00,0.0071
3330.00,0.0071
3329.00,0.0071
3328.00,0.0071
3327.00,0.0072
3326.00,0.0072
3325.00,0.0072
3324.00,0.0072
3323.00,0.0072
3322.00,0.0072
3321.00,0.0071
3320.00,0.0071
3319.00,0.0071
3318.00,0.0071
3317.00,0.0071
3316.00,0.0071
3315.00,0.0071
3314.00,0.0070
3313.00,0.0070
3312.00,0.0071
3311.00,0.0071
3310.00,0.0071
3309.00,0.0071
3308.00,0.0072
3307.00,0.0072
3306.00,0.0072
3305.00,0.0072
3304.00,0.0072
3303.00,0.0072
3302.00,0.0072
3301.00,0.0072
3300.00,0.0072
3299.00,0.0071
3298.00,0.0071
3297.00,0.0070
3296.00,0.0070
3295.00,0.0070
3294.00,0.0070
3293.00,0.0069
3292.00,0.0069
3291.00,0.0069
3290.00,0.0069
3289.00,0.0069
3288.00,0.0068
3287.00,0.0068
3286.00,0.0067
3285.00,0.0067
3284.00,0.0067
3283.00,0.0067
3282.00,0.0067
3281.00,0.0066
3280.00,0.0066
3279.00,0.0066
3278.00,0.0065
3277.00,0.0065
3276.00,0.0065
3275.00,0.0065
3274.00,0.0065
3273.00,0.0064
3272.00,0.0064
3271.00,0.0063
3270.00,0.0063
3269.00,0.0063
3268.00,0.0062
3267.00,0.0062
3266.00,0.0062
3265.00,0.0062
3264.00,0.0061
3263.00,0.0061
3262.00,0.0061
3261.00,0.0061
3260.00,0.0061
3259.00,0.0061
3258.00,0.0061
3257.00,0.0061
3256.00,0.0060
3255.00,0.0060
3254.00,0.0060
3253.00,0.0060
3252.00,0.0059
3251.00,0.0059
3250.00,0.0059
3249.00,0.0059
3248.00,0.0059
3247.00,0.0059
3246.00,0.0059
3245.00,0.0058
3244.00,0.0058
3243.00,0.0058
3242.00,0.0058
3241.00,0.0058
3240.00,0.0058
3239.00,0.0058
3238.00,0.0058
3237.00,0.0058
3236.00,0.0057
3235.00,0.0057
3234.00,0.0057
3233.00,0.0057
3232.00,0.0057
3231.00,0.0057
3230.00,0.0058
3229.00,0.0058
3228.00,0.0058
3227.00,0.0059
3226.00,0.0058
3225.00,0.0058
3224.00,0.0058
3223.00,0.0057
3222.00,0.0057
3221.00,0.0057
3220.00,0.0057
3219.00,0.0058
3218.00,0.0058
3217.00,0.0058
3216.00,0.0059
3215.00,0.0059
3214.00,0.0059
3213.00,0.0059
3212.00,0.0059
3211.00,0.0059
3210.00,0.0060
3209.00,0.0060
3208.00,0.0060
3207.00,0.0060
3206.00,0.0060
3205.00,0.0060
3204.00,0.0061
3203.00,0.0061
3202.00,0.0061
3201.00,0.0061
3200.00,0.0061
3199.00,0.0061
3198.00,0.0061
3197.00,0.0061
3196.00,0.0060
3195.00,0.0060
3194.00,0.0060
3193.00,0.0060
3192.00,0.0060
3191.00,0.0060
3190.00,0.0060
3189.00,0.0060
3188.00,0.0060
3187.00,0.0060
3186.00,0.0059
3185.00,0.0059
3184.00,0.0058
3183.00,0.0058
3182.00,0.0057
3181.00,0.0057
3180.00,0.0057
3179.00,0.0057
3178.00,0.0057
3177.00,0.0057
3176.00,0.0057
3175.00,0.0057
3174.00,0.0056
3173.00,0.0056
3172.00,0.0056
3171.00,0.0055
3170.00,0.0055
3169.00,0.0054
3168.00,0.0054
3167.00,0.0054
3166.00,0.0054
3165.00,0.0054
3164.00,0.0054
3163.00,0.0053
3162.00,0.0053
3161.00,0.0053
3160.00,0.0052
3159.00,0.0052
3158.00,0.0052
3157.00,0.0052
3156.00,0.0052
3155.00,0.0051
3154.00,0.0051
3153.00,0.0052
3152.00,0.0051
3151.00,0.0051
3150.00,0.0051
3149.00,0.0051
3148.00,0.0050
3147.00,0.0050
3146.00,0.0050
3145.00,0.0050
3144.00,0.0050
3143.00,0.0050
3142.00,0.0050
3141.00,0.0049
3140.00,0.0049
3139.00,0.0049
3138.00,0.0048
3137.00,0.0048
3136.00,0.0047
3135.00,0.0047
3134.00,0.0047
3133.00,0.0048
3132.00,0.0048
3131.00,0.0048
3130.00,0.0047
3129.00,0.0046
3128.00,0.0046
3127.00,0.0045
3126.00,0.0045
3125.00,0.0045
3124.00,0.0044
3123.00,0.0044
3122.00,0.0043
3121.00,0.0043
3120.00,0.0042
3119.00,0.0042
3118.00,0.0042
3117.00,0.0042
3116.00,0.0042
3115.00,0.0042
3114.00,0.0042
3113.00,0.0042
3112.00,0.0042
3111.00,0.0042
3110.00,0.0041
3109.00,0.0041
3108.00,0.0041
3107.00,0.0041
3106.00,0.0041
3105.00,0.0041
3104.00,0.0040
3103.00,0.0040
3102.00,0.0040
3101.00,0.0040
3100.00,0.0040
3099.00,0.0039
3098.00,0.0039
3097.00,0.0039
3096.00,0.0039
3095.00,0.0039
3094.00,0.0039
3093.00,0.0039
3092.00,0.0039
3091.00,0.0039
3090.00,0.0039
3089.00,0.0038
3088.00,0.0038
3087.00,0.0038
3086.00,0.0038
3085.00,0.0037
3084.00,0.0037
3083.00,0.0037
3082.00,0.0037
3081.00,0.0037
3080.00,0.0038
3079.00,0.0038
3078.00,0.0038
3077.00,0.0039
3076.00,0.0039
3075.00,0.0039
3074.00,0.0039
3073.00,0.0039
3072.00,0.0039
3071.00,0.0039
3070.00,0.0039
3069.00,0.0039
3068.00,0.0039
3067.00,0.0039
3066.00,0.0039
3065.00,0.0039
3064.00,0.0039
3063.00,0.0039
3062.00,0.0039
3061.00,0.0039
3060.00,0.0039
3059.00,0.0040
3058.00,0.0040
3057.00,0.0040
3056.00,0.0040
3055.00,0.0040
3054.00,0.0040
3053.00,0.0041
3052.00,0.0041
3051.00,0.0041
3050.00,0.0041
3049.00,0.0041
3048.00,0.0041
3047.00,0.0041
3046.00,0.0042
3045.00,0.0042
3044.00,0.0042
3043.00,0.0041
3042.00,0.0042
3041.00,0.0042
3040.00,0.0042
3039.00,0.0043
3038.00,0.0043
3037.00,0.0044
3036.00,0.0044
3035.00,0.0044
3034.00,0.0044
3033.00,0.0044
3032.00,0.0045
3031.00,0.0045
3030.00,0.0046
3029.00,0.0046
3028.00,0.0047
3027.00,0.0047
3026.00,0.0048
3025.00,0.0049
3024.00,0.0049
3023.00,0.0050
3022.00,0.0050
3021.00,0.0051
3020.00,0.0052
3019.00,0.0052
3018.00,0.0053
3017.00,0.0054
3016.00,0.0055
3015.00,0.0056
3014.00,0.0057
3013.00,0.0058
3012.00,0.0059
3011.00,0.0060
3010.00,0.0061
3009.00,0.0062
3008.00,0.0064
3007.00,0.0065
3006.00,0.0067
3005.00,0.0069
3004.00,0.0071
3003.00,0.0072
3002.00,0.0073
3001.00,0.0075
3000.00,0.0076
2999.00,0.0079
2998.00,0.0082
2997.00,0.0085
2996.00,0.0088
2995.00,0.0092
2994.00,0.0096
2993.00,0.0101
2992.00,0.0106
2991.00,0.0111
2990.00,0.0117
2989.00,0.0124
2988.00,0.0131
2987.00,0.0139
2986.00,0.0147
2985.00,0.0157
2984.00,0.0168
2983.00,0.0180
2982.00,0.0194
2981.00,0.0210
2980.00,0.0228
2979.00,0.0249
2978.00,0.0273
2977.00,0.0300
2976.00,0.0331
2975.00,0.0367
2974.00,0.0406
2973.00,0.0452
2972.00,0.0503
2971.00,0.0561
2970.00,0.0625
2969.00,0.0696
2968.00,0.0773
2967.00,0.0855
2966.00,0.0941
2965.00,0.1029
2964.00,0.1116
2963.00,0.1196
2962.00,0.1267
2961.00,0.1327
2960.00,0.1375
2959.00,0.1414
2958.00,0.1450
2957.00,0.1488
2956.00,0.1532
2955.00,0.1585
2954.00,0.1646
2953.00,0.1710
2952.00,0.1767
2951.00,0.1807
2950.00,0.1818
2949.00,0.1795
2948.00,0.1735
2947.00,0.1644
2946.00,0.1533
2945.00,0.1416
2944.00,0.1305
2943.00,0.1210
2942.00,0.1137
2941.00,0.1087
2940.00,0.1061
2939.00,0.1056
2938.00,0.1070
2937.00,0.1102
2936.00,0.1148
2935.00,0.1209
2934.00,0.1284
2933.00,0.1370
2932.00,0.1467
2931.00,0.1572
2930.00,0.1684
2929.00,0.1800
2928.00,0.1917
2927.00,0.2031
2926.00,0.2143
2925.00,0.2251
2924.00,0.2356
2923.00,0.2460
2922.00,0.2563
2921.00,0.2660
2920.00,0.2746
2919.00,0.2809
2918.00,0.2840
2917.00,0.2830
2916.00,0.2779
2915.00,0.2694
2914.00,0.2586
2913.00,0.2468
2912.00,0.2353
2911.00,0.2246
2910.00,0.2151
2909.00,0.2066
2908.00,0.1990
2907.00,0.1918
2906.00,0.1849
2905.00,0.1780
2904.00,0.1711
2903.00,0.1643
2902.00,0.1576
2901.00,0.1511
2900.00,0.1448
2899.00,0.1388
2898.00,0.1331
2897.00,0.1279
2896.00,0.1232
2895.00,0.1191
2894.00,0.1156
2893.00,0.1127
2892.00,0.1103
2891.00,0.1085
2890.00,0.1071
2889.00,0.1062
2888.00,0.1057
2887.00,0.1055
2886.00,0.1056
2885.00,0.1062
2884.00,0.1071
2883.00,0.1086
2882.00,0.1105
2881.00,0.1127
2880.00,0.1149
2879.00,0.1168
2878.00,0.1181
2877.00,0.1186
2876.00,0.1184
2875.00,0.1178
2874.00,0.1173
2873.00,0.1173
2872.00,0.1179
2871.00,0.1191
2870.00,0.1208
2869.00,0.1225
2868.00,0.1235
2867.00,0.1232
2866.00,0.1211
2865.00,0.1169
2864.00,0.1110
2863.00,0.1042
2862.00,0.0975
2861.00,0.0916
2860.00,0.0872
2859.00,0.0842
2858.00,0.0828
2857.00,0.0825
2856.00,0.0834
2855.00,0.0850
2854.00,0.0872
2853.00,0.0897
2852.00,0.0921
2851.00,0.0942
2850.00,0.0955
2849.00,0.0959
2848.00,0.0959
2847.00,0.0959
2846.00,0.0967
2845.00,0.0986
2844.00,0.1017
2843.00,0.1058
2842.00,0.1103
2841.00,0.1148
2840.00,0.1183
2839.00,0.1202
2838.00,0.1197
2837.00,0.1163
2836.00,0.1101
2835.00,0.1015
2834.00,0.0915
2833.00,0.0811
2832.00,0.0711
2831.00,0.0623
2830.00,0.0548
2829.00,0.0486
2828.00,0.0436
2827.00,0.0395
2826.00,0.0361
2825.00,0.0334
2824.00,0.0312
2823.00,0.0292
2822.00,0.0276
2821.00,0.0262
2820.00,0.0249
2819.00,0.0238
2818.00,0.0228
2817.00,0.0219
2816.00,0.0212
2815.00,0.0206
2814.00,0.0200
2813.00,0.0194
2812.00,0.0188
2811.00,0.0182
2810.00,0.0176
2809.00,0.0171
2808.00,0.0164
2807.00,0.0158
2806.00,0.0152
2805.00,0.0146
2804.00,0.0140
2803.00,0.0134
2802.00,0.0129
2801.00,0.0124
2800.00,0.0120
2799.00,0.0117
2798.00,0.0114
2797.00,0.0112
2796.00,0.0110
2795.00,0.0107
2794.00,0.0104
2793.00,0.0102
2792.00,0.0099
2791.00,0.0096
2790.00,0.0093
2789.00,0.0090
2788.00,0.0087
2787.00,0.0084
2786.00,0.0081
2785.00,0.0079
2784.00,0.0076
2783.00,0.0074
2782.00,0.0073
2781.00,0.0071
2780.00,0.0069
2779.00,0.0067
2778.00,0.0065
2777.00,0.0064
2776.00,0.0063
2775.00,0.0062
2774.00,0.0061
2773.00,0.0060
2772.00,0.0059
2771.00,0.0059
2770.00,0.0059
2769.00,0.0059
2768.00,0.0058
2767.00,0.0058
2766.00,0.0057
2765.00,0.0057
2764.00,0.0056
2763.00,0.0056
2762.00,0.0055
2761.00,0.0055
2760.00,0.0055
2759.00,0.0054
2758.00,0.0054
2757.00,0.0054
2756.00,0.0054
2755.00,0.0054
2754.00,0.0054
2753.00,0.0054
2752.00,0.0053
2751.00,0.0053
2750.00,0.0053
2749.00,0.0053
2748.00,0.0053
2747.00,0.0054
2746.00,0.0054
2745.00,0.0055
2744.00,0.0056
2743.00,0.0057
2742.00,0.0058
2741.00,0.0058
2740.00,0.0059
2739.00,0.0060
2738.00,0.0061
2737.00,0.0062
2736.00,0.0063
2735.00,0.0065
2734.00,0.0066
2733.00,0.0068
2732.00,0.0070
2731.00,0.0071
2730.00,0.0073
2729.00,0.0076
2728.00,0.0078
2727.00,0.0081
2726.00,0.0083
2725.00,0.0085
2724.00,0.0087
2723.00,0.0087
2722.00,0.0086
2721.00,0.0084
2720.00,0.0082
2719.00,0.0079
2718.00,0.0076
2717.00,0.0073
2716.00,0.0070
2715.00,0.0067
2714.00,0.0065
2713.00,0.0063
2712.00,0.0061
2711.00,0.0059
2710.00,0.0057
2709.00,0.0056
2708.00,0.0054
2707.00,0.0053
2706.00,0.0052
2705.00,0.0051
2704.00,0.0051
2703.00,0.0050
2702.00,0.0049
2701.00,0.0048
2700.00,0.0047
2699.00,0.0046
2698.00,0.0046
2697.00,0.0046
2696.00,0.0046
2695.00,0.0046
2694.00,0.0046
2693.00,0.0046
2692.00,0.0046
2691.00,0.0046
2690.00,0.0046
2689.00,0.0046
2688.00,0.0046
2687.00,0.0046
2686.00,0.0046
2685.00,0.0046
2684.00,0.0047
2683.00,0.0047
2682.00,0.0047
2681.00,0.0047
2680.00,0.0047
2679.00,0.0046
2678.00,0.0046
2677.00,0.0046
2676.00,0.0046
2675.00,0.0046
2674.00,0.0046
2673.00,0.0046
2672.00,0.0046
2671.00,0.0046
2670.00,0.0045
2669.00,0.0045
2668.00,0.0045
2667.00,0.0045
2666.00,0.0046
2665.00,0.0046
2664.00,0.0047
2663.00,0.0048
2662.00,0.0049
2661.00,0.0049
2660.00,0.0049
2659.00,0.0049
2658.00,0.0049
2657.00,0.0049
2656.00,0.0048
2655.00,0.0047
2654.00,0.0047
2653.00,0.0046
2652.00,0.0046
2651.00,0.0045
2650.00,0.0045
2649.00,0.0044
2648.00,0.0044
2647.00,0.0044
2646.00,0.0044
2645.00,0.0044
2644.00,0.0043
2643.00,0.0042
2642.00,0.0041
2641.00,0.0041
2640.00,0.0041
2639.00,0.0040
2638.00,0.0040
2637.00,0.0040
2636.00,0.0040
2635.00,0.0040
2634.00,0.0040
2633.00,0.0040
2632.00,0.0040
2631.00,0.0039
2630.00,0.0039
2629.00,0.0039
2628.00,0.0039
2627.00,0.0039
2626.00,0.0040
2625.00,0.0040
2624.00,0.0040
2623.00,0.0039
2622.00,0.0039
2621.00,0.0040
2620.00,0.0040
2619.00,0.0040
2618.00,0.0040
2617.00,0.0040
2616.00,0.0040
2615.00,0.0041
2614.00,0.0041
2613.00,0.0041
2612.00,0.0040
2611.00,0.0039
2610.00,0.0038
2609.00,0.0037
2608.00,0.0036
2607.00,0.0036
2606.00,0.0035
2605.00,0.0035
2604.00,0.0034
2603.00,0.0034
2602.00,0.0034
2601.00,0.0033
2600.00,0.0033
2599.00,0.0032
2598.00,0.0032
2597.00,0.0032
2596.00,0.0033
2595.00,0.0033
2594.00,0.0033
2593.00,0.0034
2592.00,0.0034
2591.00,0.0034
2590.00,0.0035
2589.00,0.0036
2588.00,0.0037
2587.00,0.0038
2586.00,0.0038
2585.00,0.0038
2584.00,0.0039
2583.00,0.0039
2582.00,0.0039
2581.00,0.0039
2580.00,0.0038
2579.00,0.0038
2578.00,0.0037
2577.00,0.0036
2576.00,0.0035
2575.00,0.0034
2574.00,0.0033
2573.00,0.0032
2572.00,0.0031
2571.00,0.0030
2570.00,0.0028
2569.00,0.0027
2568.00,0.0027
2567.00,0.0026
2566.00,0.0026
2565.00,0.0025
2564.00,0.0024
2563.00,0.0023
2562.00,0.0023
2561.00,0.0023
2560.00,0.0023
2559.00,0.0023
2558.00,0.0024
2557.00,0.0024
2556.00,0.0024
2555.00,0.0024
2554.00,0.0024
2553.00,0.0024
2552.00,0.0023
2551.00,0.0023
2550.00,0.0022
2549.00,0.0021
2548.00,0.0020
2547.00,0.0019
2546.00,0.0019
2545.00,0.0019
2544.00,0.0019
2543.00,0.0019
2542.00,0.0019
2541.00,0.0019
2540.00,0.0019
2539.00,0.0019
2538.00,0.0019
2537.00,0.0019
2536.00,0.0019
2535.00,0.0018
2534.00,0.0018
2533.00,0.0018
2532.00,0.0018
2531.00,0.0017
2530.00,0.0017
2529.00,0.0017
2528.00,0.0017
2527.00,0.0017
2526.00,0.0016
2525.00,0.0016
2524.00,0.0016
2523.00,0.0016
2522.00,0.0016
2521.00,0.0016
2520.00,0.0016
2519.00,0.0015
2518.00,0.0015
2517.00,0.0014
2516.00,0.0013
2515.00,0.0013
2514.00,0.0013
2513.00,0.0012
2512.00,0.0012
2511.00,0.0012
2510.00,0.0012
2509.00,0.0012
2508.00,0.0013
2507.00,0.0013
2506.00,0.0013
2505.00,0.0013
2504.00,0.0012
2503.00,0.0011
2502.00,0.0011
2501.00,0.0010
2500.00,0.0010
2499.00,0.0011
2498.00,0.0012
2497.00,0.0012
2496.00,0.0012
2495.00,0.0011
2494.00,0.0011
2493.00,0.0011
2492.00,0.0011
2491.00,0.0011
2490.00,0.0012
2489.00,0.0012
2488.00,0.0012
2487.00,0.0012
2486.00,0.0012
2485.00,0.0011
2484.00,0.0011
2483.00,0.0010
2482.00,0.0009
2481.00,0.0009
2480.00,0.0009
2479.00,0.0010
2478.00,0.0010
2477.00,0.0011
2476.00,0.0011
2475.00,0.0010
2474.00,0.0010
2473.00,0.0010
2472.00,0.0009
2471.00,0.0009
2470.00,0.0009
2469.00,0.0009
2468.00,0.0009
2467.00,0.0010
2466.00,0.0010
2465.00,0.0010
2464.00,0.0011
2463.00,0.0011
2462.00,0.0011
2461.00,0.0011
2460.00,0.0011
2459.00,0.0011
2458.00,0.0011
2457.00,0.0012
2456.00,0.0012
2455.00,0.0013
2454.00,0.0013
2453.00,0.0013
2452.00,0.0012
2451.00,0.0011
2450.00,0.0010
2449.00,0.0010
2448.00,0.0010
2447.00,0.0011
2446.00,0.0011
2445.00,0.0011
2444.00,0.0011
2443.00,0.0011
2442.00,0.0012
2441.00,0.0012
2440.00,0.0012
2439.00,0.0012
2438.00,0.0011
2437.00,0.0011
2436.00,0.0011
2435.00,0.0012
2434.00,0.0012
2433.00,0.0013
2432.00,0.0013
2431.00,0.0013
2430.00,0.0013
2429.00,0.0013
2428.00,0.0013
2427.00,0.0013
2426.00,0.0013
2425.00,0.0013
2424.00,0.0012
2423.00,0.0012
2422.00,0.0011
2421.00,0.0011
2420.00,0.0011
2419.00,0.0011
2418.00,0.0011
2417.00,0.0012
2416.00,0.0012
2415.00,0.0012
2414.00,0.0011
2413.00,0.0011
2412.00,0.0011
2411.00,0.0011
2410.00,0.0011
2409.00,0.0011
2408.00,0.0011
2407.00,0.0010
2406.00,0.0010
2405.00,0.0009
2404.00,0.0009
2403.00,0.0009
2402.00,0.0009
2401.00,0.0009
2400.00,0.0009
2399.00,0.0009
2398.00,0.0009
2397.00,0.0009
2396.00,0.0009
2395.00,0.0009
2394.00,0.0008
2393.00,0.0008
2392.00,0.0008
2391.00,0.0008
2390.00,0.0009
2389.00,0.0009
2388.00,0.0009
2387.00,0.0009
2386.00,0.0008
2385.00,0.0007
2384.00,0.0007
2383.00,0.0006
2382.00,0.0006
2381.00,0.0005
2380.00,0.0005
2379.00,0.0004
2378.00,0.0003
2377.00,0.0003
2376.00,0.0003
2375.00,0.0003
2374.00,0.0003
2373.00,0.0004
2372.00,0.0004
2371.00,0.0005
2370.00,0.0004
2369.00,0.0004
2368.00,0.0004
2367.00,0.0004
2366.00,0.0004
2365.00,0.0004
2364.00,0.0004
2363.00,0.0005
2362.00,0.0005
2361.00,0.0005
2360.00,0.0004
2359.00,0.0004
2358.00,0.0004
2357.00,0.0004
2356.00,0.0005
2355.00,0.0005
2354.00,0.0005
2353.00,0.0005
2352.00,0.0005
2351.00,0.0005
2350.00,0.0005
2349.00,0.0006
2348.00,0.0006
2347.00,0.0006
2346.00,0.0007
2345.00,0.0007
2344.00,0.0007
2343.00,0.0007
2342.00,0.0007
2341.00,0.0008
2340.00,0.0008
2339.00,0.0008
2338.00,0.0008
2337.00,0.0009
2336.00,0.0009
2335.00,0.0009
2334.00,0.0009
2333.00,0.0008
2332.00,0.0007
2331.00,0.0006
2330.00,0.0006
2329.00,0.0007
2328.00,0.0009
2327.00,0.0013
2326.00,0.0018
2325.00,0.0022
2324.00,0.0023
2323.00,0.0022
2322.00,0.0020
2321.00,0.0018
2320.00,0.0017
2319.00,0.0015
2318.00,0.0014
2317.00,0.0013
2316.00,0.0013
2315.00,0.0012
2314.00,0.0011
2313.00,0.0010
2312.00,0.0009
2311.00,0.0009
2310.00,0.0009
2309.00,0.0009
2308.00,0.0010
2307.00,0.0011
2306.00,0.0011
2305.00,0.0012
2304.00,0.0013
2303.00,0.0013
2302.00,0.0012
2301.00,0.0011
2300.00,0.0011
2299.00,0.0011
2298.00,0.0012
2297.00,0.0013
2296.00,0.0014
2295.00,0.0015
2294.00,0.0016
2293.00,0.0017
2292.00,0.0018
2291.00,0.0019
2290.00,0.0020
2289.00,0.0020
2288.00,0.0020
2287.00,0.0020
2286.00,0.0020
2285.00,0.0019
2284.00,0.0019
2283.00,0.0017
2282.00,0.0016
2281.00,0.0015
2280.00,0.0014
2279.00,0.0014
2278.00,0.0014
2277.00,0.0014
2276.00,0.0014
2275.00,0.0014
2274.00,0.0013
2273.00,0.0014
2272.00,0.0015
2271.00,0.0015
2270.00,0.0014
2269.00,0.0014
2268.00,0.0014
2267.00,0.0014
2266.00,0.0014
2265.00,0.0014
2264.00,0.0014
2263.00,0.0013
2262.00,0.0013
2261.00,0.0013
2260.00,0.0013
2259.00,0.0013
2258.00,0.0012
2257.00,0.0011
2256.00,0.0010
2255.00,0.0009
2254.00,0.0008
2253.00,0.0008
2252.00,0.0007
2251.00,0.0007
2250.00,0.0007
2249.00,0.0007
2248.00,0.0007
2247.00,0.0007
2246.00,0.0008
2245.00,0.0008
2244.00,0.0008
2243.00,0.0009
2242.00,0.0009
2241.00,0.0009
2240.00,0.0009
2239.00,0.0010
2238.00,0.0011
2237.00,0.0011
2236.00,0.0011
2235.00,0.0011
2234.00,0.0012
2233.00,0.0013
2232.00,0.0013
2231.00,0.0013
2230.00,0.0013
2229.00,0.0012
2228.00,0.0011
2227.00,0.0011
2226.00,0.0010
2225.00,0.0010
2224.00,0.0011
2223.00,0.0011
2222.00,0.0011
2221.00,0.0011
2220.00,0.0010
2219.00,0.0009
2218.00,0.0007
2217.00,0.0007
2216.00,0.0006
2215.00,0.0006
2214.00,0.0006
2213.00,0.0007
2212.00,0.0007
2211.00,0.0007
2210.00,0.0007
2209.00,0.0006
2208.00,0.0006
2207.00,0.0006
2206.00,0.0006
2205.00,0.0006
2204.00,0.0006
2203.00,0.0007
2202.00,0.0009
2201.00,0.0011
2200.00,0.0012
2199.00,0.0012
2198.00,0.0012
2197.00,0.0012
2196.00,0.0012
2195.00,0.0012
2194.00,0.0012
2193.00,0.0010
2192.00,0.0008
2191.00,0.0007
2190.00,0.0005
2189.00,0.0005
2188.00,0.0006
2187.00,0.0009
2186.00,0.0011
2185.00,0.0011
2184.00,0.0009
2183.00,0.0006
2182.00,0.0004
2181.00,0.0002
2180.00,0.0002
2179.00,0.0003
2178.00,0.0003
2177.00,0.0003
2176.00,0.0004
2175.00,0.0004
2174.00,0.0004
2173.00,0.0005
2172.00,0.0007
2171.00,0.0009
2170.00,0.0013
2169.00,0.0016
2168.00,0.0018
2167.00,0.0018
2166.00,0.0018
2165.00,0.0017
2164.00,0.0017
2163.00,0.0017
2162.00,0.0015
2161.00,0.0009
2160.00,-0.0004
2159.00,-0.0020
2158.00,-0.0032
2157.00,-0.0034
2156.00,-0.0030
2155.00,-0.0023
2154.00,-0.0018
2153.00,-0.0016
2152.00,-0.0016
2151.00,-0.0017
2150.00,-0.0017
2149.00,-0.0018
2148.00,-0.0018
2147.00,-0.0017
2146.00,-0.0016
2145.00,-0.0014
2144.00,-0.0011
2143.00,-0.0010
2142.00,-0.0010
2141.00,-0.0009
2140.00,-0.0010
2139.00,-0.0010
2138.00,-0.0011
2137.00,-0.0012
2136.00,-0.0014
2135.00,-0.0016
2134.00,-0.0019
2133.00,-0.0019
2132.00,-0.0017
2131.00,-0.0015
2130.00,-0.0013
2129.00,-0.0012
2128.00,-0.0010
2127.00,-0.0009
2126.00,-0.0007
2125.00,-0.0005
2124.00,-0.0003
2123.00,-0.0003
2122.00,-0.0003
2121.00,-0.0004
2120.00,-0.0004
2119.00,-0.0004
2118.00,-0.0003
2117.00,-0.0001
2116.00,0.0001
2115.00,0.0003
2114.00,0.0004
2113.00,0.0004
2112.00,0.0003
2111.00,0.0002
2110.00,0.0002
2109.00,0.0002
2108.00,0.0002
2107.00,0.0002
2106.00,0.0002
2105.00,0.0003
2104.00,0.0004
2103.00,0.0004
2102.00,0.0004
2101.00,0.0005
2100.00,0.0004
2099.00,0.0004
2098.00,0.0003
2097.00,0.0001
2096.00,-0.0002
2095.00,-0.0004
2094.00,-0.0005
2093.00,-0.0004
2092.00,-0.0002
2091.00,0.0000
2090.00,0.0001
2089.00,0.0001
2088.00,0.0001
2087.00,0.0001
2086.00,0.0002
2085.00,0.0003
2084.00,0.0003
2083.00,0.0003
2082.00,0.0004
2081.00,0.0004
2080.00,0.0004
2079.00,0.0003
2078.00,0.0001
2077.00,-0.0001
2076.00,-0.0002
2075.00,-0.0003
2074.00,-0.0003
2073.00,-0.0002
2072.00,-0.0001
2071.00,-0.0000
2070.00,0.0001
2069.00,0.0000
2068.00,-0.0000
2067.00,-0.0002
2066.00,-0.0003
2065.00,-0.0003
2064.00,-0.0003
2063.00,-0.0002
2062.00,-0.0001
2061.00,0.0001
2060.00,0.0002
2059.00,0.0003
2058.00,0.0004
2057.00,0.0005
2056.00,0.0006
2055.00,0.0005
2054.00,0.0004
2053.00,0.0005
2052.00,0.0008
2051.00,0.0011
2050.00,0.0011
2049.00,0.0008
2048.00,0.0004
2047.00,0.0000
2046.00,-0.0001
2045.00,-0.0001
2044.00,0.0001
2043.00,0.0003
2042.00,0.0005
2041.00,0.0006
2040.00,0.0006
2039.00,0.0006
2038.00,0.0005
2037.00,0.0003
2036.00,0.0000
2035.00,-0.0003
2034.00,-0.0004
2033.00,-0.0002
2032.00,-0.0000
2031.00,-0.0000
2030.00,-0.0003
2029.00,-0.0005
2028.00,-0.0006
2027.00,-0.0006
2026.00,-0.0006
2025.00,-0.0005
2024.00,-0.0004
2023.00,-0.0005
2022.00,-0.0007
2021.00,-0.0011
2020.00,-0.0013
2019.00,-0.0014
2018.00,-0.0013
2017.00,-0.0011
2016.00,-0.0008
2015.00,-0.0006
2014.00,-0.0006
2013.00,-0.0006
2012.00,-0.0006
2011.00,-0.0006
2010.00,-0.0007
2009.00,-0.0010
2008.00,-0.0013
2007.00,-0.0015
2006.00,-0.0015
2005.00,-0.0015
2004.00,-0.0015
2003.00,-0.0016
2002.00,-0.0018
2001.00,-0.0019
2000.00,-0.0017
1999.00,-0.0014
1998.00,-0.0012
1997.00,-0.0009
1996.00,-0.0008
1995.00,-0.0008
1994.00,-0.0008
1993.00,-0.0009
1992.00,-0.0008
1991.00,-0.0008
1990.00,-0.0006
1989.00,-0.0004
1988.00,-0.0002
1987.00,-0.0001
1986.00,-0.0000
1985.00,-0.0000
1984.00,0.0001
1983.00,0.0004
1982.00,0.0008
1981.00,0.0012
1980.00,0.0013
1979.00,0.0010
1978.00,0.0003
1977.00,-0.0004
1976.00,-0.0009
1975.00,-0.0013
1974.00,-0.0015
1973.00,-0.0014
1972.00,-0.0013
1971.00,-0.0013
1970.00,-0.0014
1969.00,-0.0013
1968.00,-0.0013
1967.00,-0.0013
1966.00,-0.0012
1965.00,-0.0012
1964.00,-0.0012
1963.00,-0.0013
1962.00,-0.0016
1961.00,-0.0018
1960.00,-0.0019
1959.00,-0.0020
1958.00,-0.0020
1957.00,-0.0020
1956.00,-0.0019
1955.00,-0.0019
1954.00,-0.0019
1953.00,-0.0018
1952.00,-0.0016
1951.00,-0.0013
1950.00,-0.0011
1949.00,-0.0011
1948.00,-0.0012
1947.00,-0.0015
1946.00,-0.0017
1945.00,-0.0019
1944.00,-0.0018
1943.00,-0.0016
1942.00,-0.0014
1941.00,-0.0012
1940.00,-0.0011
1939.00,-0.0011
1938.00,-0.0012
1937.00,-0.0012
1936.00,-0.0011
1935.00,-0.0009
1934.00,-0.0008
1933.00,-0.0008
1932.00,-0.0007
1931.00,-0.0006
1930.00,-0.0005
1929.00,-0.0005
1928.00,-0.0006
1927.00,-0.0007
1926.00,-0.0007
1925.00,-0.0007
1924.00,-0.0006
1923.00,-0.0005
1922.00,-0.0005
1921.00,-0.0005
1920.00,-0.0005
1919.00,-0.0004
1918.00,-0.0003
1917.00,-0.0002
1916.00,-0.0003
1915.00,-0.0004
1914.00,-0.0005
1913.00,-0.0005
1912.00,-0.0004
1911.00,-0.0003
1910.00,-0.0002
1909.00,-0.0002
1908.00,-0.0001
1907.00,-0.0001
1906.00,-0.0001
1905.00,-0.0001
1904.00,-0.0001
1903.00,-0.0001
1902.00,-0.0001
1901.00,-0.0001
1900.00,-0.0002
1899.00,-0.0003
1898.00,-0.0004
1897.00,-0.0004
1896.00,-0.0004
1895.00,-0.0003
1894.00,-0.0001
1893.00,-0.0001
1892.00,-0.0000
1891.00,-0.0001
1890.00,-0.0001
1889.00,-0.0001
1888.00,-0.0001
1887.00,-0.0001
1886.00,-0.0001
1885.00,-0.0000
1884.00,-0.0001
1883.00,-0.0001
1882.00,-0.0001
1881.00,-0.0001
1880.00,-0.0000
1879.00,0.0001
1878.00,0.0001
1877.00,0.0001
1876.00,0.0001
1875.00,0.0000
1874.00,0.0000
1873.00,0.0000
1872.00,0.0001
1871.00,0.0001
1870.00,0.0002
1869.00,0.0002
1868.00,0.0001
1867.00,0.0001
1866.00,0.0000
1865.00,-0.0000
1864.00,-0.0000
1863.00,-0.0000
1862.00,-0.0001
1861.00,-0.0001
1860.00,-0.0002
1859.00,-0.0001
1858.00,-0.0001
1857.00,0.0000
1856.00,0.0001
1855.00,0.0001
1854.00,0.0001
1853.00,0.0000
1852.00,-0.0000
1851.00,-0.0000
1850.00,-0.0000
1849.00,0.0001
1848.00,0.0002
1847.00,0.0003
1846.00,0.0003
1845.00,0.0003
1844.00,0.0002
1843.00,0.0002
1842.00,0.0003
1841.00,0.0003
1840.00,0.0003
1839.00,0.0002
1838.00,0.0002
1837.00,0.0002
1836.00,0.0002
1835.00,0.0002
1834.00,0.0003
1833.00,0.0003
1832.00,0.0003
1831.00,0.0003
1830.00,0.0003
1829.00,0.0003
1828.00,0.0003
1827.00,0.0003
1826.00,0.0003
1825.00,0.0004
1824.00,0.0005
1823.00,0.0005
1822.00,0.0005
1821.00,0.0004
1820.00,0.0004
1819.00,0.0002
1818.00,0.0001
1817.00,0.0001
1816.00,0.0001
1815.00,0.0001
1814.00,0.0001
1813.00,0.0001
1812.00,0.0001
1811.00,0.0001
1810.00,0.0002
1809.00,0.0003
1808.00,0.0003
1807.00,0.0004
1806.00,0.0004
1805.00,0.0004
1804.00,0.0004
1803.00,0.0005
1802.00,0.0005
1801.00,0.0006
1800.00,0.0006
1799.00,0.0006
1798.00,0.0007
1797.00,0.0007
1796.00,0.0007
1795.00,0.0007
1794.00,0.0007
1793.00,0.0007
1792.00,0.0008
1791.00,0.0008
1790.00,0.0008
1789.00,0.0008
1788.00,0.0008
1787.00,0.0008
1786.00,0.0009
1785.00,0.0009
1784.00,0.0009
1783.00,0.0009
1782.00,0.0008
1781.00,0.0008
1780.00,0.0009
1779.00,0.0009
1778.00,0.0009
1777.00,0.0010
1776.00,0.0010
1775.00,0.0010
1774.00,0.0010
1773.00,0.0010
1772.00,0.0010
1771.00,0.0011
1770.00,0.0012
1769.00,0.0012
1768.00,0.0012
1767.00,0.0012
1766.00,0.0012
1765.00,0.0012
1764.00,0.0012
1763.00,0.0012
1762.00,0.0012
1761.00,0.0013
1760.00,0.0013
1759.00,0.0014
1758.00,0.0015
1757.00,0.0015
1756.00,0.0016
1755.00,0.0016
1754.00,0.0017
1753.00,0.0018
1752.00,0.0019
1751.00,0.0020
1750.00,0.0021
1749.00,0.0021
1748.00,0.0022
1747.00,0.0023
1746.00,0.0023
1745.00,0.0024
1744.00,0.0024
1743.00,0.0024
1742.00,0.0024
1741.00,0.0025
1740.00,0.0025
1739.00,0.0026
1738.00,0.0027
1737.00,0.0027
1736.00,0.0028
1735.00,0.0028
1734.00,0.0028
1733.00,0.0028
1732.00,0.0028
1731.00,0.0028
1730.00,0.0027
1729.00,0.0027
1728.00,0.0028
1727.00,0.0028
1726.00,0.0029
1725.00,0.0029
1724.00,0.0030
1723.00,0.0030
1722.00,0.0030
1721.00,0.0030
1720.00,0.0030
1719.00,0.0030
1718.00,0.0030
1717.00,0.0030
1716.00,0.0030
1715.00,0.0029
1714.00,0.0028
1713.00,0.0028
1712.00,0.0028
1711.00,0.0028
1710.00,0.0028
1709.00,0.0028
1708.00,0.0029
1707.00,0.0029
1706.00,0.0029
1705.00,0.0030
1704.00,0.0031
1703.00,0.0032
1702.00,0.0033
1701.00,0.0033
1700.00,0.0034
1699.00,0.0034
1698.00,0.0034
1697.00,0.0034
1696.00,0.0035
1695.00,0.0036
1694.00,0.0037
1693.00,0.0037
1692.00,0.0038
1691.00,0.0040
1690.00,0.0041
1689.00,0.0043
1688.00,0.0044
1687.00,0.0046
1686.00,0.0046
1685.00,0.0048
1684.00,0.0050
1683.00,0.0051
1682.00,0.0051
1681.00,0.0052
1680.00,0.0054
1679.00,0.0055
1678.00,0.0056
1677.00,0.0058
1676.00,0.0059
1675.00,0.0060
1674.00,0.0061
1673.00,0.0062
1672.00,0.0063
1671.00,0.0064
1670.00,0.0064
1669.00,0.0066
1668.00,0.0067
1667.00,0.0068
1666.00,0.0068
1665.00,0.0069
1664.00,0.0070
1663.00,0.0070
1662.00,0.0071
1661.00,0.0072
1660.00,0.0073
1659.00,0.0074
1658.00,0.0075
1657.00,0.0077
1656.00,0.0078
1655.00,0.0079
1654.00,0.0080
1653.00,0.0083
1652.00,0.0084
1651.00,0.0085
1650.00,0.0085
1649.00,0.0087
1648.00,0.0089
1647.00,0.0092
1646.00,0.0093
1645.00,0.0093
1644.00,0.0092
1643.00,0.0092
1642.00,0.0091
1641.00,0.0091
1640.00,0.0091
1639.00,0.0091
1638.00,0.0091
1637.00,0.0091
1636.00,0.0091
1635.00,0.0091
1634.00,0.0091
1633.00,0.0091
1632.00,0.0090
1631.00,0.0090
1630.00,0.0090
1629.00,0.0090
1628.00,0.0089
1627.00,0.0089
1626.00,0.0088
1625.00,0.0087
1624.00,0.0087
1623.00,0.0087
1622.00,0.0086
1621.00,0.0086
1620.00,0.0085
1619.00,0.0085
1618.00,0.0084
1617.00,0.0084
1616.00,0.0084
1615.00,0.0084
1614.00,0.0084
1613.00,0.0084
1612.00,0.0084
1611.00,0.0084
1610.00,0.0085
1609.00,0.0085
1608.00,0.0085
1607.00,0.0085
1606.00,0.0085
1605.00,0.0085
1604.00,0.0085
1603.00,0.0085
1602.00,0.0085
1601.00,0.0085
1600.00,0.0086
1599.00,0.0086
1598.00,0.0086
1597.00,0.0087
1596.00,0.0087
1595.00,0.0088
1594.00,0.0088
1593.00,0.0089
1592.00,0.0090
1591.00,0.0091
1590.00,0.0092
1589.00,0.0094
1588.00,0.0097
1587.00,0.0100
1586.00,0.0103
1585.00,0.0107
1584.00,0.0112
1583.00,0.0116
1582.00,0.0121
1581.00,0.0125
1580.00,0.0129
1579.00,0.0133
1578.00,0.0134
1577.00,0.0134
1576.00,0.0133
1575.00,0.0130
1574.00,0.0127
1573.00,0.0125
1572.00,0.0122
1571.00,0.0119
1570.00,0.0115
1569.00,0.0111
1568.00,0.0108
1567.00,0.0106
1566.00,0.0104
1565.00,0.0103
1564.00,0.0103
1563.00,0.0103
1562.00,0.0104
1561.00,0.0104
1560.00,0.0104
1559.00,0.0104
1558.00,0.0105
1557.00,0.0105
1556.00,0.0106
1555.00,0.0108
1554.00,0.0110
1553.00,0.0112
1552.00,0.0114
1551.00,0.0117
1550.00,0.0120
1549.00,0.0123
1548.00,0.0127
1547.00,0.0132
1546.00,0.0137
1545.00,0.0143
1544.00,0.0150
1543.00,0.0154
1542.00,0.0157
1541.00,0.0157
1540.00,0.0152
1539.00,0.0144
1538.00,0.0136
1537.00,0.0131
1536.00,0.0126
1535.00,0.0119
1534.00,0.0112
1533.00,0.0105
1532.00,0.0100
1531.00,0.0097
1530.00,0.0094
1529.00,0.0092
1528.00,0.0090
1527.00,0.0087
1526.00,0.0085
1525.00,0.0084
1524.00,0.0084
1523.00,0.0084
1522.00,0.0083
1521.00,0.0083
1520.00,0.0083
1519.00,0.0082
1518.00,0.0082
1517.00,0.0083
1516.00,0.0084
1515.00,0.0084
1514.00,0.0084
1513.00,0.0085
1512.00,0.0086
1511.00,0.0086
1510.00,0.0086
1509.00,0.0087
1508.00,0.0088
1507.00,0.0088
1506.00,0.0089
1505.00,0.0089
1504.00,0.0091
1503.00,0.0092
1502.00,0.0093
1501.00,0.0096
1500.00,0.0099
1499.00,0.0102
1498.00,0.0105
1497.00,0.0108
1496.00,0.0111
1495.00,0.0113
1494.00,0.0116
1493.00,0.0120
1492.00,0.0124
1491.00,0.0128
1490.00,0.0133
1489.00,0.0139
1488.00,0.0146
1487.00,0.0152
1486.00,0.0158
1485.00,0.0166
1484.00,0.0175
1483.00,0.0185
1482.00,0.0196
1481.00,0.0210
1480.00,0.0226
1479.00,0.0241
1478.00,0.0259
1477.00,0.0282
1476.00,0.0310
1475.00,0.0342
1474.00,0.0384
1473.00,0.0442
1472.00,0.0508
1471.00,0.0571
1470.00,0.0632
1469.00,0.0696
1468.00,0.0766
1467.00,0.0842
1466.00,0.0927
1465.00,0.1018
1464.00,0.1097
1463.00,0.1150
1462.00,0.1183
1461.00,0.1205
1460.00,0.1219
1459.00,0.1228
1458.00,0.1233
1457.00,0.1236
1456.00,0.1230
1455.00,0.1219
1454.00,0.1205
1453.00,0.1186
1452.00,0.1158
1451.00,0.1119
1450.00,0.1067
1449.00,0.0997
1448.00,0.0909
1447.00,0.0816
1446.00,0.0733
1445.00,0.0662
1444.00,0.0602
1443.00,0.0552
1442.00,0.0515
1441.00,0.0491
1440.00,0.0476
1439.00,0.0471
1438.00,0.0474
1437.00,0.0477
1436.00,0.0469
1435.00,0.0447
1434.00,0.0413
1433.00,0.0371
1432.00,0.0328
1431.00,0.0290
1430.00,0.0259
1429.00,0.0236
1428.00,0.0219
1427.00,0.0209
1426.00,0.0202
1425.00,0.0197
1424.00,0.0192
1423.00,0.0189
1422.00,0.0188
1421.00,0.0186
1420.00,0.0184
1419.00,0.0181
1418.00,0.0178
1417.00,0.0174
1416.00,0.0169
1415.00,0.0166
1414.00,0.0163
1413.00,0.0161
1412.00,0.0158
1411.00,0.0156
1410.00,0.0153
1409.00,0.0151
1408.00,0.0148
1407.00,0.0147
1406.00,0.0146
1405.00,0.0145
1404.00,0.0143
1403.00,0.0142
1402.00,0.0143
1401.00,0.0143
1400.00,0.0143
1399.00,0.0144
1398.00,0.0146
1397.00,0.0147
1396.00,0.0148
1395.00,0.0150
1394.00,0.0154
1393.00,0.0157
1392.00,0.0162
1391.00,0.0169
1390.00,0.0179
1389.00,0.0193
1388.00,0.0213
1387.00,0.0243
1386.00,0.0283
1385.00,0.0337
1384.00,0.0412
1383.00,0.0519
1382.00,0.0666
1381.00,0.0857
1380.00,0.1094
1379.00,0.1364
1378.00,0.1624
1377.00,0.1811
1376.00,0.1870
1375.00,0.1772
1374.00,0.1547
1373.00,0.1277
1372.00,0.1032
1371.00,0.0832
1370.00,0.0672
1369.00,0.0552
1368.00,0.0469
1367.00,0.0418
1366.00,0.0390
1365.00,0.0379
1364.00,0.0380
1363.00,0.0393
1362.00,0.0413
1361.00,0.0435
1360.00,0.0452
1359.00,0.0457
1358.00,0.0447
1357.00,0.0422
1356.00,0.0387
1355.00,0.0348
1354.00,0.0311
1353.00,0.0279
1352.00,0.0253
1351.00,0.0231
1350.00,0.0213
1349.00,0.0199
1348.00,0.0187
1347.00,0.0177
1346.00,0.0169
1345.00,0.0161
1344.00,0.0155
1343.00,0.0150
1342.00,0.0146
1341.00,0.0142
1340.00,0.0139
1339.00,0.0136
1338.00,0.0134
1337.00,0.0134
1336.00,0.0135
1335.00,0.0137
1334.00,0.0140
1333.00,0.0143
1332.00,0.0147
1331.00,0.0150
1330.00,0.0151
1329.00,0.0150
1328.00,0.0146
1327.00,0.0142
1326.00,0.0137
1325.00,0.0132
1324.00,0.0127
1323.00,0.0122
1322.00,0.0119
1321.00,0.0116
1320.00,0.0113
1319.00,0.0111
1318.00,0.0109
1317.00,0.0107
1316.00,0.0106
1315.00,0.0105
1314.00,0.0104
1313.00,0.0104
1312.00,0.0105
1311.00,0.0107
1310.00,0.0110
1309.00,0.0116
1308.00,0.0125
1307.00,0.0135
1306.00,0.0144
1305.00,0.0151
1304.00,0.0153
1303.00,0.0151
1302.00,0.0147
1301.00,0.0143
1300.00,0.0141
1299.00,0.0141
1298.00,0.0142
1297.00,0.0142
1296.00,0.0141
1295.00,0.0138
1294.00,0.0135
1293.00,0.0130
1292.00,0.0125
1291.00,0.0120
1290.00,0.0116
1289.00,0.0112
1288.00,0.0109
1287.00,0.0106
1286.00,0.0103
1285.00,0.0101
1284.00,0.0099
1283.00,0.0098
1282.00,0.0098
1281.00,0.0097
1280.00,0.0096
1279.00,0.0095
1278.00,0.0094
1277.00,0.0093
1276.00,0.0092
1275.00,0.0092
1274.00,0.0092
1273.00,0.0092
1272.00,0.0092
1271.00,0.0093
1270.00,0.0094
1269.00,0.0096
1268.00,0.0098
1267.00,0.0101
1266.00,0.0104
1265.00,0.0107
1264.00,0.0110
1263.00,0.0113
1262.00,0.0117
1261.00,0.0120
1260.00,0.0125
1259.00,0.0130
1258.00,0.0136
1257.00,0.0140
1256.00,0.0142
1255.00,0.0140
1254.00,0.0134
1253.00,0.0127
1252.00,0.0119
1251.00,0.0113
1250.00,0.0108
1249.00,0.0104
1248.00,0.0102
1247.00,0.0100
1246.00,0.0098
1245.00,0.0096
1244.00,0.0095
1243.00,0.0094
1242.00,0.0093
1241.00,0.0093
1240.00,0.0093
1239.00,0.0093
1238.00,0.0093
1237.00,0.0093
1236.00,0.0093
1235.00,0.0093
1234.00,0.0093
1233.00,0.0094
1232.00,0.0095
1231.00,0.0096
1230.00,0.0097
1229.00,0.0099
1228.00,0.0100
1227.00,0.0102
1226.00,0.0104
1225.00,0.0107
1224.00,0.0111
1223.00,0.0114
1222.00,0.0118
1221.00,0.0121
1220.00,0.0124
1219.00,0.0125
1218.00,0.0124
1217.00,0.0122
1216.00,0.0119
1215.00,0.0116
1214.00,0.0113
1213.00,0.0109
1212.00,0.0106
1211.00,0.0104
1210.00,0.0102
1209.00,0.0100
1208.00,0.0099
1207.00,0.0098
1206.00,0.0097
1205.00,0.0097
1204.00,0.0097
1203.00,0.0097
1202.00,0.0097
1201.00,0.0097
1200.00,0.0098
1199.00,0.0098
1198.00,0.0098
1197.00,0.0099
1196.00,0.0099
1195.00,0.0100
1194.00,0.0100
1193.00,0.0100
1192.00,0.0101
1191.00,0.0100
1190.00,0.0100
1189.00,0.0100
1188.00,0.0100
1187.00,0.0101
1186.00,0.0101
1185.00,0.0101
1184.00,0.0102
1183.00,0.0103
1182.00,0.0105
1181.00,0.0107
1180.00,0.0110
1179.00,0.0114
1178.00,0.0119
1177.00,0.0126
1176.00,0.0136
1175.00,0.0150
1174.00,0.0168
1173.00,0.0190
1172.00,0.0217
1171.00,0.0246
1170.00,0.0274
1169.00,0.0297
1168.00,0.0310
1167.00,0.0312
1166.00,0.0304
1165.00,0.0290
1164.00,0.0274
1163.00,0.0258
1162.00,0.0245
1161.00,0.0234
1160.00,0.0227
1159.00,0.0221
1158.00,0.0218
1157.00,0.0215
1156.00,0.0214
1155.00,0.0213
1154.00,0.0211
1153.00,0.0209
1152.00,0.0204
1151.00,0.0198
1150.00,0.0190
1149.00,0.0181
1148.00,0.0172
1147.00,0.0163
1146.00,0.0154
1145.00,0.0147
1144.00,0.0140
1143.00,0.0135
1142.00,0.0131
1141.00,0.0127
1140.00,0.0123
1139.00,0.0119
1138.00,0.0116
1137.00,0.0114
1136.00,0.0112
1135.00,0.0111
1134.00,0.0110
1133.00,0.0109
1132.00,0.0109
1131.00,0.0110
1130.00,0.0111
1129.00,0.0112
1128.00,0.0113
1127.00,0.0113
1126.00,0.0114
1125.00,0.0115
1124.00,0.0116
1123.00,0.0117
1122.00,0.0117
1121.00,0.0118
1120.00,0.0119
1119.00,0.0120
1118.00,0.0121
1117.00,0.0123
1116.00,0.0124
1115.00,0.0126
1114.00,0.0128
1113.00,0.0129
1112.00,0.0130
1111.00,0.0131
1110.00,0.0134
1109.00,0.0137
1108.00,0.0142
1107.00,0.0148
1106.00,0.0154
1105.00,0.0160
1104.00,0.0164
1103.00,0.0166
1102.00,0.0166
1101.00,0.0163
1100.00,0.0158
1099.00,0.0153
1098.00,0.0146
1097.00,0.0141
1096.00,0.0135
1095.00,0.0131
1094.00,0.0127
1093.00,0.0123
1092.00,0.0121
1091.00,0.0120
1090.00,0.0119
1089.00,0.0118
1088.00,0.0117
1087.00,0.0116
1086.00,0.0116
1085.00,0.0115
1084.00,0.0115
1083.00,0.0113
1082.00,0.0112
1081.00,0.0111
1080.00,0.0110
1079.00,0.0109
1078.00,0.0109
1077.00,0.0109
1076.00,0.0108
1075.00,0.0107
1074.00,0.0106
1073.00,0.0105
1072.00,0.0105
1071.00,0.0105
1070.00,0.0104
1069.00,0.0104
1068.00,0.0104
1067.00,0.0105
1066.00,0.0106
1065.00,0.0106
1064.00,0.0107
1063.00,0.0108
1062.00,0.0109
1061.00,0.0110
1060.00,0.0110
1059.00,0.0111
1058.00,0.0113
1057.00,0.0114
1056.00,0.0117
1055.00,0.0119
1054.00,0.0121
1053.00,0.0123
1052.00,0.0125
1051.00,0.0129
1050.00,0.0133
1049.00,0.0138
1048.00,0.0143
1047.00,0.0149
1046.00,0.0153
1045.00,0.0156
1044.00,0.0157
1043.00,0.0156
1042.00,0.0155
1041.00,0.0152
1040.00,0.0150
1039.00,0.0150
1038.00,0.0151
1037.00,0.0152
1036.00,0.0153
1035.00,0.0152
1034.00,0.0150
1033.00,0.0148
1032.00,0.0145
1031.00,0.0142
1030.00,0.0141
1029.00,0.0141
1028.00,0.0141
1027.00,0.0142
1026.00,0.0143
1025.00,0.0145
1024.00,0.0147
1023.00,0.0149
1022.00,0.0151
1021.00,0.0153
1020.00,0.0154
1019.00,0.0156
1018.00,0.0157
1017.00,0.0158
1016.00,0.0158
1015.00,0.0159
1014.00,0.0159
1013.00,0.0160
1012.00,0.0161
1011.00,0.0160
1010.00,0.0160
1009.00,0.0159
1008.00,0.0160
1007.00,0.0162
1006.00,0.0167
1005.00,0.0176
1004.00,0.0189
1003.00,0.0208
1002.00,0.0235
1001.00,0.0269
1000.00,0.0304
999.00,0.0334
998.00,0.0348
997.00,0.0340
996.00,0.0314
995.00,0.0276
994.00,0.0237
993.00,0.0204
992.00,0.0179
991.00,0.0161
990.00,0.0149
989.00,0.0141
988.00,0.0135
987.00,0.0132
986.00,0.0131
985.00,0.0132
984.00,0.0135
983.00,0.0140
982.00,0.0149
981.00,0.0163
980.00,0.0183
979.00,0.0210
978.00,0.0243
977.00,0.0281
976.00,0.0323
975.00,0.0361
974.00,0.0389
973.00,0.0398
972.00,0.0383
971.00,0.0347
970.00,0.0299
969.00,0.0251
968.00,0.0211
967.00,0.0181
966.00,0.0159
965.00,0.0143
964.00,0.0131
963.00,0.0122
962.00,0.0115
961.00,0.0110
960.00,0.0106
959.00,0.0103
958.00,0.0100
957.00,0.0097
956.00,0.0095
955.00,0.0093
954.00,0.0091
953.00,0.0090
952.00,0.0088
951.00,0.0087
950.00,0.0086
949.00,0.0085
948.00,0.0085
947.00,0.0086
946.00,0.0088
945.00,0.0090
944.00,0.0093
943.00,0.0096
942.00,0.0099
941.00,0.0102
940.00,0.0102
939.00,0.0100
938.00,0.0095
937.00,0.0090
936.00,0.0085
935.00,0.0081
934.00,0.0079
933.00,0.0076
932.00,0.0074
931.00,0.0072
930.00,0.0071
929.00,0.0071
928.00,0.0071
927.00,0.0070
926.00,0.0070
925.00,0.0069
924.00,0.0068
923.00,0.0068
922.00,0.0069
921.00,0.0069
920.00,0.0070
919.00,0.0071
918.00,0.0071
917.00,0.0071
916.00,0.0071
915.00,0.0071
914.00,0.0073
913.00,0.0074
912.00,0.0076
911.00,0.0078
910.00,0.0079
909.00,0.0080
908.00,0.0083
907.00,0.0088
906.00,0.0095
905.00,0.0106
904.00,0.0120
903.00,0.0137
902.00,0.0156
901.00,0.0174
900.00,0.0186
899.00,0.0189
898.00,0.0182
897.00,0.0166
896.00,0.0147
895.00,0.0128
894.00,0.0113
893.00,0.0102
892.00,0.0093
891.00,0.0088
890.00,0.0085
889.00,0.0084
888.00,0.0082
887.00,0.0080
886.00,0.0078
885.00,0.0078
884.00,0.0078
883.00,0.0080
882.00,0.0082
881.00,0.0083
880.00,0.0085
879.00,0.0087
878.00,0.0090
877.00,0.0092
876.00,0.0093
875.00,0.0092
874.00,0.0091
873.00,0.0089
872.00,0.0088
871.00,0.0086
870.00,0.0085
869.00,0.0083
868.00,0.0082
867.00,0.0082
866.00,0.0083
865.00,0.0084
864.00,0.0086
863.00,0.0087
862.00,0.0088
861.00,0.0090
860.00,0.0091
859.00,0.0093
858.00,0.0094
857.00,0.0095
856.00,0.0095
855.00,0.0096
854.00,0.0098
853.00,0.0100
852.00,0.0104
851.00,0.0108
850.00,0.0113
849.00,0.0120
848.00,0.0128
847.00,0.0139
846.00,0.0157
845.00,0.0186
844.00,0.0227
843.00,0.0275
842.00,0.0314
841.00,0.0327
840.00,0.0305
839.00,0.0260
838.00,0.0211
837.00,0.0172
836.00,0.0148
835.00,0.0134
834.00,0.0125
833.00,0.0119
832.00,0.0116
831.00,0.0114
830.00,0.0112
829.00,0.0111
828.00,0.0110
827.00,0.0109
826.00,0.0108
825.00,0.0107
824.00,0.0106
823.00,0.0107
822.00,0.0108
821.00,0.0110
820.00,0.0113
819.00,0.0118
818.00,0.0123
817.00,0.0129
816.00,0.0136
815.00,0.0147
814.00,0.0162
813.00,0.0180
812.00,0.0201
811.00,0.0221
810.00,0.0236
809.00,0.0243
808.00,0.0239
807.00,0.0226
806.00,0.0207
805.00,0.0186
804.00,0.0167
803.00,0.0152
802.00,0.0141
801.00,0.0133
800.00,0.0129
799.00,0.0125
798.00,0.0122
797.00,0.0118
796.00,0.0113
795.00,0.0110
794.00,0.0106
793.00,0.0102
792.00,0.0098
791.00,0.0094
790.00,0.0091
789.00,0.0089
788.00,0.0087
787.00,0.0085
786.00,0.0083
785.00,0.0081
784.00,0.0079
783.00,0.0079
782.00,0.0079
781.00,0.0080
780.00,0.0080
779.00,0.0079
778.00,0.0079
777.00,0.0078
776.00,0.0077
775.00,0.0077
774.00,0.0077
773.00,0.0078
772.00,0.0078
771.00,0.0078
770.00,0.0079
769.00,0.0080
768.00,0.0081
767.00,0.0081
766.00,0.0079
765.00,0.0077
764.00,0.0075
763.00,0.0075
762.00,0.0076
761.00,0.0079
760.00,0.0081
759.00,0.0082
758.00,0.0084
757.00,0.0086
756.00,0.0089
755.00,0.0091
754.00,0.0092
753.00,0.0092
752.00,0.0092
751.00,0.0093
750.00,0.0095
749.00,0.0098
748.00,0.0099
747.00,0.0099
746.00,0.0099
745.00,0.0100
744.00,0.0102
743.00,0.0105
742.00,0.0109
741.00,0.0113
740.00,0.0116
739.00,0.0119
738.00,0.0123
737.00,0.0126
736.00,0.0131
735.00,0.0136
734.00,0.0142
733.00,0.0149
732.00,0.0157
731.00,0.0165
730.00,0.0171
729.00,0.0175
728.00,0.0177
727.00,0.0178
726.00,0.0180
725.00,0.0184
724.00,0.0189
723.00,0.0195
722.00,0.0202
721.00,0.0206
720.00,0.0205
719.00,0.0196
718.00,0.0183
717.00,0.0168
716.00,0.0155
715.00,0.0145
714.00,0.0138
713.00,0.0134
712.00,0.0133
711.00,0.0132
710.00,0.0130
709.00,0.0127
708.00,0.0124
707.00,0.0121
706.00,0.0119
705.00,0.0119
704.00,0.0118
703.00,0.0117
702.00,0.0116
701.00,0.0115
700.00,0.0115
699.00,0.0116
698.00,0.0116
697.00,0.0116
696.00,0.0116
695.00,0.0116
694.00,0.0116
693.00,0.0116
692.00,0.0117
691.00,0.0118
690.00,0.0119
689.00,0.0119
688.00,0.0119
687.00,0.0117
686.00,0.0116
685.00,0.0114
684.00,0.0114
683.00,0.0116
682.00,0.0119
681.00,0.0121
680.00,0.0121
679.00,0.0121
678.00,0.0119
677.00,0.0119
676.00,0.0120
675.00,0.0123
674.00,0.0126
673.00,0.0128
672.00,0.0128
671.00,0.0128
670.00,0.0129
669.00,0.0130
668.00,0.0129
667.00,0.0126
666.00,0.0122
665.00,0.0119
664.00,0.0117
663.00,0.0115
662.00,0.0114
661.00,0.0112
660.00,0.0111
659.00,0.0110
658.00,0.0109
657.00,0.0109
656.00,0.0109
655.00,0.0109
654.00,0.0109
653.00,0.0109
652.00,0.0110
651.00,0.0109
650.00,0.0109
649.00,0.0107
648.00,0.0106
647.00,0.0105
646.00,0.0105
645.00,0.0106
644.00,0.0108
643.00,0.0110
642.00,0.0112
641.00,0.0112
640.00,0.0110
639.00,0.0106
638.00,0.0104
637.00,0.0104
636.00,0.0105
635.00,0.0104
634.00,0.0103
633.00,0.0102
632.00,0.0104
631.00,0.0107
630.00,0.0111
629.00,0.0113
628.00,0.0113
627.00,0.0112
626.00,0.0110
625.00,0.0107
624.00,0.0104
623.00,0.0103
622.00,0.0104
621.00,0.0106
620.00,0.0107
619.00,0.0107
618.00,0.0106
617.00,0.0104
616.00,0.0104
615.00,0.0104
614.00,0.0105
613.00,0.0105
612.00,0.0104
611.00,0.0105
610.00,0.0106
609.00,0.0107
608.00,0.0108
607.00,0.0108
606.00,0.0108
605.00,0.0106
604.00,0.0105
603.00,0.0104
602.00,0.0103
601.00,0.0101
600.00,0.0099
599.00,0.0098
598.00,0.0098
597.00,0.0099
596.00,0.0100
595.00,0.0101
594.00,0.0101
593.00,0.0102
592.00,0.0105
591.00,0.0108
590.00,0.0110
589.00,0.0110
588.00,0.0110
587.00,0.0108
586.00,0.0107
585.00,0.0106
584.00,0.0106
583.00,0.0106
582.00,0.0107
581.00,0.0109
580.00,0.0111
579.00,0.0112
578.00,0.0112
577.00,0.0110
576.00,0.0108
575.00,0.0106
574.00,0.0106
573.00,0.0105
572.00,0.0106
571.00,0.0107
570.00,0.0108
569.00,0.0107
568.00,0.0106
567.00,0.0107
566.00,0.0108
565.00,0.0108
564.00,0.0107
563.00,0.0105
562.00,0.0103
561.00,0.0101
560.00,0.0098
559.00,0.0095
558.00,0.0095
557.00,0.0098
556.00,0.0102
555.00,0.0106
554.00,0.0107
553.00,0.0108
552.00,0.0108
551.00,0.0108
550.00,0.0107
549.00,0.0103
548.00,0.0101
547.00,0.0101
546.00,0.0105
545.00,0.0109
544.00,0.0111
543.00,0.0113
542.00,0.0117
541.00,0.0121
540.00,0.0124
539.00,0.0126
538.00,0.0128
537.00,0.0132
536.00,0.0136
535.00,0.0136
534.00,0.0132
533.00,0.0126
532.00,0.0119
531.00,0.0115
530.00,0.0118
529.00,0.0127
528.00,0.0139
527.00,0.0147
526.00,0.0148
525.00,0.0142
524.00,0.0135
523.00,0.0127
522.00,0.0120
521.00,0.0112
520.00,0.0105
519.00,0.0098
518.00,0.0093
517.00,0.0092
516.00,0.0093
515.00,0.0097
514.00,0.0101
513.00,0.0101
512.00,0.0097
511.00,0.0093
510.00,0.0093
509.00,0.0096
508.00,0.0100
507.00,0.0103
506.00,0.0105
505.00,0.0106
504.00,0.0104
503.00,0.0101
502.00,0.0099
501.00,0.0099
500.00,0.0102
499.00,0.0107
498.00,0.0112
497.00,0.0113
496.00,0.0108
495.00,0.0100
494.00,0.0094
493.00,0.0097
492.00,0.0104
491.00,0.0109
490.00,0.0108
489.00,0.0102
488.00,0.0098
487.00,0.0099
486.00,0.0104
485.00,0.0114
484.00,0.0125
483.00,0.0134
482.00,0.0135
481.00,0.0129
480.00,0.0117
479.00,0.0107
478.00,0.0104
477.00,0.0110
476.00,0.0122
475.00,0.0133
474.00,0.0140
473.00,0.0143
472.00,0.0147
471.00,0.0153
470.00,0.0158
469.00,0.0160
468.00,0.0162
467.00,0.0165
466.00,0.0169
465.00,0.0174
464.00,0.0180
463.00,0.0186
462.00,0.0193
461.00,0.0198
460.00,0.0198
459.00,0.0195
458.00,0.0193
457.00,0.0197
456.00,0.0205
455.00,0.0211
454.00,0.0209
453.00,0.0199
452.00,0.0181
451.00,0.0163
450.00,0.0151
