Created as New Dataset,Sample 012 By Administrator Date Thursday, September 04 2025
cm-1,A
4000.00,0.0017
3999.00,0.0017
3998.00,0.0017
3997.00,0.0017
3996.00,0.0016
3995.00,0.0016
3994.00,0.0016
3993.00,0.0017
3992.00,0.0017
3991.00,0.0017
3990.00,0.0017
3989.00,0.0017
3988.00,0.0017
3987.00,0.0017
3986.00,0.0017
3985.00,0.0016
3984.00,0.0016
3983.00,0.0015
3982.00,0.0015
3981.00,0.0015
3980.00,0.0015
3979.00,0.0016
3978.00,0.0016
3977.00,0.0016
3976.00,0.0016
3975.00,0.0016
3974.00,0.0016
3973.00,0.0016
3972.00,0.0016
3971.00,0.0016
3970.00,0.0016
3969.00,0.0015
3968.00,0.0015
3967.00,0.0015
3966.00,0.0016
3965.00,0.0016
3964.00,0.0016
3963.00,0.0016
3962.00,0.0016
3961.00,0.0016
3960.00,0.0016
3959.00,0.0015
3958.00,0.0015
3957.00,0.0015
3956.00,0.0015
3955.00,0.0015
3954.00,0.0015
3953.00,0.0015
3952.00,0.0015
3951.00,0.0015
3950.00,0.0015
3949.00,0.0015
3948.00,0.0015
3947.00,0.0015
3946.00,0.0016
3945.00,0.0016
3944.00,0.0016
3943.00,0.0016
3942.00,0.0016
3941.00,0.0016
3940.00,0.0016
3939.00,0.0015
3938.00,0.0015
3937.00,0.0015
3936.00,0.0015
3935.00,0.0016
3934.00,0.0016
3933.00,0.0017
3932.00,0.0016
3931.00,0.0016
3930.00,0.0016
3929.00,0.0016
3928.00,0.0016
3927.00,0.0017
3926.00,0.0017
3925.00,0.0017
3924.00,0.0017
3923.00,0.0017
3922.00,0.0017
3921.00,0.0017
3920.00,0.0017
3919.00,0.0016
3918.00,0.0016
3917.00,0.0015
3916.00,0.0015
3915.00,0.0015
3914.00,0.0015
3913.00,0.0015
3912.00,0.0015
3911.00,0.0015
3910.00,0.0015
3909.00,0.0015
3908.00,0.0016
3907.00,0.0016
3906.00,0.0016
3905.00,0.0017
3904.00,0.0017
3903.00,0.0017
3902.00,0.0017
3901.00,0.0017
3900.00,0.0016
3899.00,0.0016
3898.00,0.0016
3897.00,0.0016
3896.00,0.0016
3895.00,0.0016
3894.00,0.0017
3893.00,0.0016
3892.00,0.0016
3891.00,0.0016
3890.00,0.0015
3889.00,0.0015
3888.00,0.0016
3887.00,0.0016
3886.00,0.0016
3885.00,0.0016
3884.00,0.0016
3883.00,0.0016
3882.00,0.0016
3881.00,0.0016
3880.00,0.0016
3879.00,0.0015
3878.00,0.0015
3877.00,0.0015
3876.00,0.0015
3875.00,0.0015
3874.00,0.0016
3873.00,0.0016
3872.00,0.0016
3871.00,0.0016
3870.00,0.0016
3869.00,0.0016
3868.00,0.0016
3867.00,0.0016
3866.00,0.0016
3865.00,0.0016
3864.00,0.0015
3863.00,0.0015
3862.00,0.0015
3861.00,0.0015
3860.00,0.0015
3859.00,0.0015
3858.00,0.0016
3857.00,0.0016
3856.00,0.0017
3855.00,0.0017
3854.00,0.0016
3853.00,0.0016
3852.00,0.0016
3851.00,0.0016
3850.00,0.0016
3849.00,0.0016
3848.00,0.0015
3847.00,0.0015
3846.00,0.0016
3845.00,0.0016
3844.00,0.0016
3843.00,0.0016
3842.00,0.0016
3841.00,0.0016
3840.00,0.0016
3839.00,0.0016
3838.00,0.0015
3837.00,0.0015
3836.00,0.0014
3835.00,0.0014
3834.00,0.0014
3833.00,0.0015
3832.00,0.0015
3831.00,0.0015
3830.00,0.0015
3829.00,0.0015
3828.00,0.0015
3827.00,0.0015
3826.00,0.0015
3825.00,0.0015
3824.00,0.0015
3823.00,0.0016
3822.00,0.0016
3821.00,0.0015
3820.00,0.0015
3819.00,0.0016
3818.00,0.0016
3817.00,0.0016
3816.00,0.0016
3815.00,0.0016
3814.00,0.0016
3813.00,0.0016
3812.00,0.0016
3811.00,0.0016
3810.00,0.0016
3809.00,0.0016
3808.00,0.0016
3807.00,0.0016
3806.00,0.0016
3805.00,0.0016
3804.00,0.0016
3803.00,0.0016
3802.00,0.0015
3801.00,0.0015
3800.00,0.0014
3799.00,0.0015
3798.00,0.0015
3797.00,0.0015
3796.00,0.0015
3795.00,0.0015
3794.00,0.0015
3793.00,0.0015
3792.00,0.0015
3791.00,0.0015
3790.00,0.0015
3789.00,0.0016
3788.00,0.0016
3787.00,0.0016
3786.00,0.0016
3785.00,0.0016
3784.00,0.0016
3783.00,0.0016
3782.00,0.0016
3781.00,0.0016
3780.00,0.0017
3779.00,0.0017
3778.00,0.0017
3777.00,0.0017
3776.00,0.0017
3775.00,0.0016
3774.00,0.0016
3773.00,0.0016
3772.00,0.0016
3771.00,0.0016
3770.00,0.0016
3769.00,0.0016
3768.00,0.0017
3767.00,0.0017
3766.00,0.0017
3765.00,0.0017
3764.00,0.0017
3763.00,0.0017
3762.00,0.0017
3761.00,0.0017
3760.00,0.0017
3759.00,0.0016
3758.00,0.0016
3757.00,0.0015
3756.00,0.0015
3755.00,0.0015
3754.00,0.0016
3753.00,0.0016
3752.00,0.0017
3751.00,0.0017
3750.00,0.0018
3749.00,0.0018
3748.00,0.0019
3747.00,0.0019
3746.00,0.0019
3745.00,0.0019
3744.00,0.0018
3743.00,0.0018
3742.00,0.0018
3741.00,0.0017
3740.00,0.0017
3739.00,0.0017
3738.00,0.0017
3737.00,0.0017
3736.00,0.0016
3735.00,0.0016
3734.00,0.0016
3733.00,0.0016
3732.00,0.0016
3731.00,0.0015
3730.00,0.0015
3729.00,0.0015
3728.00,0.0015
3727.00,0.0015
3726.00,0.0015
3725.00,0.0015
3724.00,0.0016
3723.00,0.0016
3722.00,0.0015
3721.00,0.0015
3720.00,0.0015
3719.00,0.0015
3718.00,0.0015
3717.00,0.0015
3716.00,0.0015
3715.00,0.0015
3714.00,0.0015
3713.00,0.0015
3712.00,0.0015
3711.00,0.0015
3710.00,0.0015
3709.00,0.0015
3708.00,0.0015
3707.00,0.0015
3706.00,0.0015
3705.00,0.0015
3704.00,0.0015
3703.00,0.0015
3702.00,0.0015
3701.00,0.0015
3700.00,0.0015
3699.00,0.0015
3698.00,0.0015
3697.00,0.0015
3696.00,0.0015
3695.00,0.0015
3694.00,0.0015
3693.00,0.0015
3692.00,0.0015
3691.00,0.0014
3690.00,0.0014
3689.00,0.0014
3688.00,0.0014
3687.00,0.0014
3686.00,0.0014
3685.00,0.0015
3684.00,0.0015
3683.00,0.0015
3682.00,0.0015
3681.00,0.0015
3680.00,0.0015
3679.00,0.0016
3678.00,0.0017
3677.00,0.0018
3676.00,0.0018
3675.00,0.0017
3674.00,0.0017
3673.00,0.0016
3672.00,0.0016
3671.00,0.0015
3670.00,0.0014
3669.00,0.0014
3668.00,0.0014
3667.00,0.0014
3666.00,0.0014
3665.00,0.0014
3664.00,0.0014
3663.00,0.0015
3662.00,0.0015
3661.00,0.0015
3660.00,0.0015
3659.00,0.0015
3658.00,0.0015
3657.00,0.0016
3656.00,0.0016
3655.00,0.0016
3654.00,0.0016
3653.00,0.0016
3652.00,0.0016
3651.00,0.0017
3650.00,0.0016
3649.00,0.0016
3648.00,0.0016
3647.00,0.0016
3646.00,0.0016
3645.00,0.0016
3644.00,0.0016
3643.00,0.0016
3642.00,0.0016
3641.00,0.0016
3640.00,0.0016
3639.00,0.0016
3638.00,0.0016
3637.00,0.0016
3636.00,0.0016
3635.00,0.0016
3634.00,0.0016
3633.00,0.0017
3632.00,0.0018
3631.00,0.0019
3630.00,0.0019
3629.00,0.0019
3628.00,0.0018
3627.00,0.0018
3626.00,0.0018
3625.00,0.0018
3624.00,0.0017
3623.00,0.0017
3622.00,0.0016
3621.00,0.0017
3620.00,0.0017
3619.00,0.0017
3618.00,0.0018
3617.00,0.0018
3616.00,0.0018
3615.00,0.0018
3614.00,0.0018
3613.00,0.0019
3612.00,0.0019
3611.00,0.0019
3610.00,0.0019
3609.00,0.0020
3608.00,0.0020
3607.00,0.0020
3606.00,0.0020
3605.00,0.0020
3604.00,0.0021
3603.00,0.0021
3602.00,0.0021
3601.00,0.0020
3600.00,0.0020
3599.00,0.0020
3598.00,0.0020
3597.00,0.0020
3596.00,0.0020
3595.00,0.0020
3594.00,0.0020
3593.00,0.0020
3592.00,0.0021
3591.00,0.0021
3590.00,0.0021
3589.00,0.0022
3588.00,0.0022
3587.00,0.0023
3586.00,0.0023
3585.00,0.0023
3584.00,0.0023
3583.00,0.0023
3582.00,0.0022
3581.00,0.0022
3580.00,0.0022
3579.00,0.0023
3578.00,0.0023
3577.00,0.0023
3576.00,0.0023
3575.00,0.0023
3574.00,0.0023
3573.00,0.0023
3572.00,0.0024
3571.00,0.0024
3570.00,0.0025
3569.00,0.0025
3568.00,0.0026
3567.00,0.0026
3566.00,0.0026
3565.00,0.0027
3564.00,0.0027
3563.00,0.0027
3562.00,0.0027
3561.00,0.0027
3560.00,0.0027
3559.00,0.0027
3558.00,0.0027
3557.00,0.0027
3556.00,0.0027
3555.00,0.0028
3554.00,0.0028
3553.00,0.0028
3552.00,0.0028
3551.00,0.0029
3550.00,0.0029
3549.00,0.0030
3548.00,0.0030
3547.00,0.0031
3546.00,0.0031
3545.00,0.0031
3544.00,0.0031
3543.00,0.0031
3542.00,0.0031
3541.00,0.0031
3540.00,0.0031
3539.00,0.0031
3538.00,0.0031
3537.00,0.0031
3536.00,0.0031
3535.00,0.0032
3534.00,0.0032
3533.00,0.0032
3532.00,0.0033
3531.00,0.0033
3530.00,0.0033
3529.00,0.0033
3528.00,0.0034
3527.00,0.0034
3526.00,0.0034
3525.00,0.0034
3524.00,0.0035
3523.00,0.0035
3522.00,0.0035
3521.00,0.0035
3520.00,0.0035
3519.00,0.0035
3518.00,0.0035
3517.00,0.0036
3516.00,0.0036
3515.00,0.0036
3514.00,0.0036
3513.00,0.0036
3512.00,0.0036
3511.00,0.0037
3510.00,0.0037
3509.00,0.0037
3508.00,0.0037
3507.00,0.0038
3506.00,0.0038
3505.00,0.0038
3504.00,0.0039
3503.00,0.0039
3502.00,0.0040
3501.00,0.0040
3500.00,0.0040
3499.00,0.0041
3498.00,0.0041
3497.00,0.0041
3496.00,0.0041
3495.00,0.0041
3494.00,0.0041
3493.00,0.0041
3492.00,0.0041
3491.00,0.0042
3490.00,0.0043
3489.00,0.0043
3488.00,0.0043
3487.00,0.0043
3486.00,0.0043
3485.00,0.0043
3484.00,0.0043
3483.00,0.0043
3482.00,0.0043
3481.00,0.0043
3480.00,0.0043
3479.00,0.0044
3478.00,0.0044
3477.00,0.0045
3476.00,0.0045
3475.00,0.0045
3474.00,0.0045
3473.00,0.0046
3472.00,0.0046
3471.00,0.0046
3470.00,0.0046
3469.00,0.0046
3468.00,0.0046
3467.00,0.0047
3466.00,0.0047
3465.00,0.0047
3464.00,0.0047
3463.00,0.0047
3462.00,0.0047
3461.00,0.0047
3460.00,0.0048
3459.00,0.0048
3458.00,0.0048
3457.00,0.0049
3456.00,0.0049
3455.00,0.0050
3454.00,0.0050
3453.00,0.0050
3452.00,0.0050
3451.00,0.0050
3450.00,0.0051
3449.00,0.0051
3448.00,0.0052
3447.00,0.0052
3446.00,0.0052
3445.00,0.0052
3444.00,0.0052
3443.00,0.0052
3442.00,0.0052
3441.00,0.0052
3440.00,0.0052
3439.00,0.0052
3438.00,0.0052
3437.00,0.0052
3436.00,0.0052
3435.00,0.0052
3434.00,0.0053
3433.00,0.0053
3432.00,0.0054
3431.00,0.0054
3430.00,0.0054
3429.00,0.0054
3428.00,0.0054
3427.00,0.0054
3426.00,0.0054
3425.00,0.0054
3424.00,0.0055
3423.00,0.0055
3422.00,0.0055
3421.00,0.0056
3420.00,0.0056
3419.00,0.0056
3418.00,0.0056
3417.00,0.0057
3416.00,0.0057
3415.00,0.0057
3414.00,0.0057
3413.00,0.0057
3412.00,0.0057
3411.00,0.0057
3410.00,0.0058
3409.00,0.0058
3408.00,0.0058
3407.00,0.0058
3406.00,0.0058
3405.00,0.0057
3404.00,0.0057
3403.00,0.0057
3402.00,0.0057
3401.00,0.0057
3400.00,0.0057
3399.00,0.0057
3398.00,0.0058
3397.00,0.0058
3396.00,0.0058
3395.00,0.0058
3394.00,0.0058
3393.00,0.0058
3392.00,0.0058
3391.00,0.0058
3390.00,0.0058
3389.00,0.0059
3388.00,0.0059
3387.00,0.0059
3386.00,0.0059
3385.00,0.0059
3384.00,0.0059
3383.00,0.0060
3382.00,0.0060
3381.00,0.0060
3380.00,0.0060
3379.00,0.0061
3378.00,0.0061
3377.00,0.0061
3376.00,0.0061
3375.00,0.0061
3374.00,0.0061
3373.00,0.0061
3372.00,0.0061
3371.00,0.0061
3370.00,0.0061
3369.00,0.0061
3368.00,0.0062
3367.00,0.0062
3366.00,0.0062
3365.00,0.0062
3364.00,0.0062
3363.00,0.0062
3362.00,0.0062
3361.00,0.0063
3360.00,0.0063
3359.00,0.0063
3358.00,0.0064
3357.00,0.0064
3356.00,0.0064
3355.00,0.0064
3354.00,0.0064
3353.00,0.0065
3352.00,0.0065
3351.00,0.0065
3350.00,0.0065
3349.00,0.0065
3348.00,0.0065
3347.00,0.0066
3346.00,0.0065
3345.00,0.0065
3344.00,0.0064
3343.00,0.0064
3342.00,0.0064
3341.00,0.0064
3340.00,0.0064
3339.00,0.0064
3338.00,0.0064
3337.00,0.0064
3336.00,0.0064
3335.00,0.0064
3334.00,0.0064
3333.00,0.0064
3332.00,0.0064
3331.00,0.0063
3330.00,0.0063
3329.00,0.0063
3328.00,0.0063
3327.00,0.0064
3326.00,0.0064
3325.00,0.0064
3324.00,0.0064
3323.00,0.0064
3322.00,0.0064
3321.00,0.0063
3320.00,0.0063
3319.00,0.0063
3318.00,0.0063
3317.00,0.0063
3316.00,0.0064
3315.00,0.0064
3314.00,0.0064
3313.00,0.0063
3312.00,0.0063
3311.00,0.0063
3310.00,0.0064
3309.00,0.0064
3308.00,0.0064
3307.00,0.0064
3306.00,0.0064
3305.00,0.0064
3304.00,0.0064
3303.00,0.0064
3302.00,0.0064
3301.00,0.0064
3300.00,0.0064
3299.00,0.0064
3298.00,0.0064
3297.00,0.0064
3296.00,0.0063
3295.00,0.0063
3294.00,0.0063
3293.00,0.0063
3292.00,0.0063
3291.00,0.0063
3290.00,0.0063
3289.00,0.0062
3288.00,0.0062
3287.00,0.0062
3286.00,0.0062
3285.00,0.0062
3284.00,0.0062
3283.00,0.0062
3282.00,0.0062
3281.00,0.0062
3280.00,0.0061
3279.00,0.0061
3278.00,0.0060
3277.00,0.0060
3276.00,0.0059
3275.00,0.0059
3274.00,0.0059
3273.00,0.0059
3272.00,0.0059
3271.00,0.0059
3270.00,0.0059
3269.00,0.0059
3268.00,0.0058
3267.00,0.0058
3266.00,0.0058
3265.00,0.0057
3264.00,0.0057
3263.00,0.0056
3262.00,0.0056
3261.00,0.0056
3260.00,0.0056
3259.00,0.0056
3258.00,0.0056
3257.00,0.0057
3256.00,0.0057
3255.00,0.0057
3254.00,0.0057
3253.00,0.0057
3252.00,0.0056
3251.00,0.0055
3250.00,0.0055
3249.00,0.0055
3248.00,0.0055
3247.00,0.0056
3246.00,0.0055
3245.00,0.0055
3244.00,0.0055
3243.00,0.0055
3242.00,0.0055
3241.00,0.0055
3240.00,0.0055
3239.00,0.0055
3238.00,0.0054
3237.00,0.0054
3236.00,0.0054
3235.00,0.0055
3234.00,0.0055
3233.00,0.0055
3232.00,0.0055
3231.00,0.0055
3230.00,0.0054
3229.00,0.0054
3228.00,0.0054
3227.00,0.0054
3226.00,0.0054
3225.00,0.0055
3224.00,0.0055
3223.00,0.0056
3222.00,0.0056
3221.00,0.0057
3220.00,0.0057
3219.00,0.0057
3218.00,0.0057
3217.00,0.0057
3216.00,0.0058
3215.00,0.0058
3214.00,0.0058
3213.00,0.0058
3212.00,0.0058
3211.00,0.0058
3210.00,0.0058
3209.00,0.0058
3208.00,0.0057
3207.00,0.0057
3206.00,0.0057
3205.00,0.0058
3204.00,0.0058
3203.00,0.0058
3202.00,0.0058
3201.00,0.0058
3200.00,0.0058
3199.00,0.0057
3198.00,0.0057
3197.00,0.0057
3196.00,0.0056
3195.00,0.0056
3194.00,0.0056
3193.00,0.0056
3192.00,0.0056
3191.00,0.0057
3190.00,0.0057
3189.00,0.0057
3188.00,0.0057
3187.00,0.0056
3186.00,0.0056
3185.00,0.0055
3184.00,0.0055
3183.00,0.0055
3182.00,0.0055
3181.00,0.0055
3180.00,0.0055
3179.00,0.0055
3178.00,0.0055
3177.00,0.0054
3176.00,0.0054
3175.00,0.0054
3174.00,0.0054
3173.00,0.0054
3172.00,0.0054
3171.00,0.0053
3170.00,0.0053
3169.00,0.0053
3168.00,0.0053
3167.00,0.0053
3166.00,0.0053
3165.00,0.0053
3164.00,0.0053
3163.00,0.0053
3162.00,0.0052
3161.00,0.0052
3160.00,0.0051
3159.00,0.0051
3158.00,0.0051
3157.00,0.0051
3156.00,0.0051
3155.00,0.0051
3154.00,0.0051
3153.00,0.0052
3152.00,0.0052
3151.00,0.0052
3150.00,0.0052
3149.00,0.0051
3148.00,0.0051
3147.00,0.0051
3146.00,0.0051
3145.00,0.0051
3144.00,0.0051
3143.00,0.0051
3142.00,0.0051
3141.00,0.0050
3140.00,0.0050
3139.00,0.0049
3138.00,0.0049
3137.00,0.0048
3136.00,0.0048
3135.00,0.0048
3134.00,0.0048
3133.00,0.0048
3132.00,0.0048
3131.00,0.0048
3130.00,0.0048
3129.00,0.0048
3128.00,0.0048
3127.00,0.0047
3126.00,0.0047
3125.00,0.0047
3124.00,0.0046
3123.00,0.0046
3122.00,0.0046
3121.00,0.0045
3120.00,0.0045
3119.00,0.0044
3118.00,0.0044
3117.00,0.0044
3116.00,0.0045
3115.00,0.0045
3114.00,0.0045
3113.00,0.0045
3112.00,0.0045
3111.00,0.0044
3110.00,0.0044
3109.00,0.0043
3108.00,0.0043
3107.00,0.0043
3106.00,0.0043
3105.00,0.0043
3104.00,0.0043
3103.00,0.0043
3102.00,0.0043
3101.00,0.0043
3100.00,0.0043
3099.00,0.0043
3098.00,0.0043
3097.00,0.0043
3096.00,0.0043
3095.00,0.0043
3094.00,0.0043
3093.00,0.0042
3092.00,0.0042
3091.00,0.0042
3090.00,0.0042
3089.00,0.0042
3088.00,0.0042
3087.00,0.0042
3086.00,0.0042
3085.00,0.0041
3084.00,0.0041
3083.00,0.0041
3082.00,0.0041
3081.00,0.0041
3080.00,0.0041
3079.00,0.0041
3078.00,0.0041
3077.00,0.0042
3076.00,0.0042
3075.00,0.0042
3074.00,0.0043
3073.00,0.0043
3072.00,0.0043
3071.00,0.0042
3070.00,0.0042
3069.00,0.0042
3068.00,0.0042
3067.00,0.0042
3066.00,0.0043
3065.00,0.0043
3064.00,0.0043
3063.00,0.0043
3062.00,0.0043
3061.00,0.0043
3060.00,0.0043
3059.00,0.0043
3058.00,0.0043
3057.00,0.0043
3056.00,0.0044
3055.00,0.0044
3054.00,0.0044
3053.00,0.0044
3052.00,0.0044
3051.00,0.0044
3050.00,0.0044
3049.00,0.0045
3048.00,0.0045
3047.00,0.0045
3046.00,0.0045
3045.00,0.0046
3044.00,0.0046
3043.00,0.0046
3042.00,0.0046
3041.00,0.0046
3040.00,0.0046
3039.00,0.0046
3038.00,0.0046
3037.00,0.0047
3036.00,0.0047
3035.00,0.0047
3034.00,0.0047
3033.00,0.0047
3032.00,0.0048
3031.00,0.0048
3030.00,0.0049
3029.00,0.0050
3028.00,0.0050
3027.00,0.0051
3026.00,0.0051
3025.00,0.0052
3024.00,0.0052
3023.00,0.0053
3022.00,0.0053
3021.00,0.0054
3020.00,0.0054
3019.00,0.0055
3018.00,0.0055
3017.00,0.0055
3016.00,0.0056
3015.00,0.0057
3014.00,0.0058
3013.00,0.0059
3012.00,0.0060
3011.00,0.0062
3010.00,0.0064
3009.00,0.0065
3008.00,0.0067
3007.00,0.0068
3006.00,0.0069
3005.00,0.0070
3004.00,0.0072
3003.00,0.0074
3002.00,0.0076
3001.00,0.0078
3000.00,0.0080
2999.00,0.0082
2998.00,0.0085
2997.00,0.0088
2996.00,0.0092
2995.00,0.0096
2994.00,0.0100
2993.00,0.0105
2992.00,0.0110
2991.00,0.0115
2990.00,0.0121
2989.00,0.0127
2988.00,0.0135
2987.00,0.0143
2986.00,0.0152
2985.00,0.0162
2984.00,0.0173
2983.00,0.0186
2982.00,0.0200
2981.00,0.0217
2980.00,0.0237
2979.00,0.0259
2978.00,0.0284
2977.00,0.0313
2976.00,0.0345
2975.00,0.0382
2974.00,0.0425
2973.00,0.0473
2972.00,0.0526
2971.00,0.0585
2970.00,0.0651
2969.00,0.0722
2968.00,0.0798
2967.00,0.0879
2966.00,0.0964
2965.00,0.1051
2964.00,0.1135
2963.00,0.1212
2962.00,0.1277
2961.00,0.1328
2960.00,0.1364
2959.00,0.1392
2958.00,0.1416
2957.00,0.1445
2956.00,0.1484
2955.00,0.1536
2954.00,0.1599
2953.00,0.1667
2952.00,0.1727
2951.00,0.1767
2950.00,0.1775
2949.00,0.1745
2948.00,0.1677
2947.00,0.1579
2946.00,0.1463
2945.00,0.1343
2944.00,0.1231
2943.00,0.1136
2942.00,0.1062
2941.00,0.1011
2940.00,0.0981
2939.00,0.0971
2938.00,0.0978
2937.00,0.1002
2936.00,0.1041
2935.00,0.1093
2934.00,0.1157
2933.00,0.1232
2932.00,0.1317
2931.00,0.1410
2930.00,0.1509
2929.00,0.1610
2928.00,0.1711
2927.00,0.1810
2926.00,0.1906
2925.00,0.1998
2924.00,0.2087
2923.00,0.2176
2922.00,0.2264
2921.00,0.2348
2920.00,0.2422
2919.00,0.2477
2918.00,0.2502
2917.00,0.2492
2916.00,0.2446
2915.00,0.2371
2914.00,0.2278
2913.00,0.2179
2912.00,0.2084
2911.00,0.1999
2910.00,0.1924
2909.00,0.1858
2908.00,0.1798
2907.00,0.1740
2906.00,0.1682
2905.00,0.1623
2904.00,0.1562
2903.00,0.1499
2902.00,0.1437
2901.00,0.1376
2900.00,0.1318
2899.00,0.1262
2898.00,0.1210
2897.00,0.1162
2896.00,0.1120
2895.00,0.1084
2894.00,0.1054
2893.00,0.1030
2892.00,0.1012
2891.00,0.1000
2890.00,0.0991
2889.00,0.0987
2888.00,0.0987
2887.00,0.0989
2886.00,0.0994
2885.00,0.1001
2884.00,0.1013
2883.00,0.1028
2882.00,0.1046
2881.00,0.1064
2880.00,0.1082
2879.00,0.1094
2878.00,0.1100
2877.00,0.1100
2876.00,0.1094
2875.00,0.1087
2874.00,0.1083
2873.00,0.1085
2872.00,0.1094
2871.00,0.1109
2870.00,0.1127
2869.00,0.1144
2868.00,0.1154
2867.00,0.1150
2866.00,0.1127
2865.00,0.1083
2864.00,0.1022
2863.00,0.0950
2862.00,0.0878
2861.00,0.0813
2860.00,0.0759
2859.00,0.0719
2858.00,0.0692
2857.00,0.0676
2856.00,0.0669
2855.00,0.0669
2854.00,0.0675
2853.00,0.0685
2852.00,0.0698
2851.00,0.0712
2850.00,0.0728
2849.00,0.0745
2848.00,0.0766
2847.00,0.0793
2846.00,0.0828
2845.00,0.0872
2844.00,0.0924
2843.00,0.0980
2842.00,0.1037
2841.00,0.1086
2840.00,0.1122
2839.00,0.1138
2838.00,0.1127
2837.00,0.1090
2836.00,0.1026
2835.00,0.0943
2834.00,0.0850
2833.00,0.0756
2832.00,0.0667
2831.00,0.0589
2830.00,0.0523
2829.00,0.0468
2828.00,0.0424
2827.00,0.0387
2826.00,0.0358
2825.00,0.0333
2824.00,0.0311
2823.00,0.0293
2822.00,0.0278
2821.00,0.0264
2820.00,0.0252
2819.00,0.0242
2818.00,0.0232
2817.00,0.0224
2816.00,0.0217
2815.00,0.0210
2814.00,0.0204
2813.00,0.0199
2812.00,0.0194
2811.00,0.0188
2810.00,0.0183
2809.00,0.0177
2808.00,0.0172
2807.00,0.0166
2806.00,0.0160
2805.00,0.0154
2804.00,0.0148
2803.00,0.0142
2802.00,0.0137
2801.00,0.0133
2800.00,0.0129
2799.00,0.0126
2798.00,0.0124
2797.00,0.0121
2796.00,0.0119
2795.00,0.0116
2794.00,0.0114
2793.00,0.0111
2792.00,0.0108
2791.00,0.0105
2790.00,0.0102
2789.00,0.0098
2788.00,0.0095
2787.00,0.0092
2786.00,0.0089
2785.00,0.0087
2784.00,0.0084
2783.00,0.0082
2782.00,0.0080
2781.00,0.0078
2780.00,0.0076
2779.00,0.0075
2778.00,0.0073
2777.00,0.0072
2776.00,0.0070
2775.00,0.0069
2774.00,0.0069
2773.00,0.0068
2772.00,0.0068
2771.00,0.0067
2770.00,0.0067
2769.00,0.0066
2768.00,0.0066
2767.00,0.0066
2766.00,0.0065
2765.00,0.0065
2764.00,0.0065
2763.00,0.0064
2762.00,0.0064
2761.00,0.0063
2760.00,0.0063
2759.00,0.0062
2758.00,0.0062
2757.00,0.0062
2756.00,0.0063
2755.00,0.0063
2754.00,0.0063
2753.00,0.0062
2752.00,0.0062
2751.00,0.0061
2750.00,0.0061
2749.00,0.0061
2748.00,0.0061
2747.00,0.0061
2746.00,0.0062
2745.00,0.0063
2744.00,0.0064
2743.00,0.0064
2742.00,0.0065
2741.00,0.0066
2740.00,0.0067
2739.00,0.0068
2738.00,0.0069
2737.00,0.0070
2736.00,0.0071
2735.00,0.0072
2734.00,0.0074
2733.00,0.0075
2732.00,0.0077
2731.00,0.0078
2730.00,0.0080
2729.00,0.0082
2728.00,0.0084
2727.00,0.0087
2726.00,0.0090
2725.00,0.0092
2724.00,0.0094
2723.00,0.0094
2722.00,0.0093
2721.00,0.0092
2720.00,0.0089
2719.00,0.0086
2718.00,0.0083
2717.00,0.0080
2716.00,0.0078
2715.00,0.0075
2714.00,0.0073
2713.00,0.0071
2712.00,0.0069
2711.00,0.0067
2710.00,0.0066
2709.00,0.0064
2708.00,0.0063
2707.00,0.0062
2706.00,0.0061
2705.00,0.0060
2704.00,0.0059
2703.00,0.0058
2702.00,0.0056
2701.00,0.0055
2700.00,0.0055
2699.00,0.0054
2698.00,0.0054
2697.00,0.0054
2696.00,0.0053
2695.00,0.0053
2694.00,0.0053
2693.00,0.0053
2692.00,0.0054
2691.00,0.0054
2690.00,0.0054
2689.00,0.0054
2688.00,0.0054
2687.00,0.0053
2686.00,0.0053
2685.00,0.0054
2684.00,0.0054
2683.00,0.0054
2682.00,0.0054
2681.00,0.0054
2680.00,0.0055
2679.00,0.0055
2678.00,0.0055
2677.00,0.0055
2676.00,0.0055
2675.00,0.0055
2674.00,0.0054
2673.00,0.0054
2672.00,0.0054
2671.00,0.0054
2670.00,0.0054
2669.00,0.0054
2668.00,0.0054
2667.00,0.0054
2666.00,0.0054
2665.00,0.0055
2664.00,0.0055
2663.00,0.0056
2662.00,0.0057
2661.00,0.0057
2660.00,0.0058
2659.00,0.0058
2658.00,0.0057
2657.00,0.0057
2656.00,0.0057
2655.00,0.0056
2654.00,0.0056
2653.00,0.0055
2652.00,0.0055
2651.00,0.0054
2650.00,0.0053
2649.00,0.0053
2648.00,0.0052
2647.00,0.0052
2646.00,0.0052
2645.00,0.0052
2644.00,0.0051
2643.00,0.0051
2642.00,0.0050
2641.00,0.0050
2640.00,0.0050
2639.00,0.0049
2638.00,0.0049
2637.00,0.0049
2636.00,0.0049
2635.00,0.0049
2634.00,0.0049
2633.00,0.0049
2632.00,0.0049
2631.00,0.0049
2630.00,0.0049
2629.00,0.0049
2628.00,0.0049
2627.00,0.0049
2626.00,0.0049
2625.00,0.0049
2624.00,0.0049
2623.00,0.0049
2622.00,0.0050
2621.00,0.0050
2620.00,0.0050
2619.00,0.0051
2618.00,0.0051
2617.00,0.0051
2616.00,0.0050
2615.00,0.0050
2614.00,0.0050
2613.00,0.0050
2612.00,0.0049
2611.00,0.0048
2610.00,0.0047
2609.00,0.0047
2608.00,0.0046
2607.00,0.0046
2606.00,0.0045
2605.00,0.0045
2604.00,0.0044
2603.00,0.0044
2602.00,0.0043
2601.00,0.0043
2600.00,0.0043
2599.00,0.0043
2598.00,0.0042
2597.00,0.0042
2596.00,0.0041
2595.00,0.0041
2594.00,0.0042
2593.00,0.0042
2592.00,0.0043
2591.00,0.0044
2590.00,0.0045
2589.00,0.0046
2588.00,0.0047
2587.00,0.0048
2586.00,0.0049
2585.00,0.0049
2584.00,0.0049
2583.00,0.0049
2582.00,0.0049
2581.00,0.0048
2580.00,0.0047
2579.00,0.0046
2578.00,0.0046
2577.00,0.0045
2576.00,0.0044
2575.00,0.0043
2574.00,0.0042
2573.00,0.0041
2572.00,0.0039
2571.00,0.0039
2570.00,0.0038
2569.00,0.0037
2568.00,0.0037
2567.00,0.0037
2566.00,0.0037
2565.00,0.0036
2564.00,0.0036
2563.00,0.0036
2562.00,0.0035
2561.00,0.0034
2560.00,0.0034
2559.00,0.0033
2558.00,0.0033
2557.00,0.0033
2556.00,0.0032
2555.00,0.0032
2554.00,0.0032
2553.00,0.0032
2552.00,0.0031
2551.00,0.0031
2550.00,0.0031
2549.00,0.0030
2548.00,0.0031
2547.00,0.0031
2546.00,0.0031
2545.00,0.0030
2544.00,0.0030
2543.00,0.0030
2542.00,0.0029
2541.00,0.0029
2540.00,0.0028
2539.00,0.0028
2538.00,0.0028
2537.00,0.0028
2536.00,0.0029
2535.00,0.0028
2534.00,0.0028
2533.00,0.0028
2532.00,0.0027
2531.00,0.0027
2530.00,0.0027
2529.00,0.0027
2528.00,0.0027
2527.00,0.0027
2526.00,0.0027
2525.00,0.0028
2524.00,0.0028
2523.00,0.0028
2522.00,0.0028
2521.00,0.0027
2520.00,0.0026
2519.00,0.0025
2518.00,0.0024
2517.00,0.0024
2516.00,0.0025
2515.00,0.0025
2514.00,0.0025
2513.00,0.0024
2512.00,0.0023
2511.00,0.0023
2510.00,0.0022
2509.00,0.0022
2508.00,0.0022
2507.00,0.0022
2506.00,0.0021
2505.00,0.0021
2504.00,0.0021
2503.00,0.0022
2502.00,0.0022
2501.00,0.0022
2500.00,0.0022
2499.00,0.0022
2498.00,0.0022
2497.00,0.0021
2496.00,0.0022
2495.00,0.0022
2494.00,0.0022
2493.00,0.0022
2492.00,0.0021
2491.00,0.0021
2490.00,0.0021
2489.00,0.0021
2488.00,0.0021
2487.00,0.0021
2486.00,0.0022
2485.00,0.0022
2484.00,0.0022
2483.00,0.0022
2482.00,0.0022
2481.00,0.0021
2480.00,0.0021
2479.00,0.0020
2478.00,0.0020
2477.00,0.0020
2476.00,0.0020
2475.00,0.0020
2474.00,0.0019
2473.00,0.0019
2472.00,0.0019
2471.00,0.0019
2470.00,0.0020
2469.00,0.0020
2468.00,0.0019
2467.00,0.0019
2466.00,0.0019
2465.00,0.0019
2464.00,0.0019
2463.00,0.0019
2462.00,0.0018
2461.00,0.0018
2460.00,0.0018
2459.00,0.0019
2458.00,0.0019
2457.00,0.0020
2456.00,0.0020
2455.00,0.0021
2454.00,0.0021
2453.00,0.0021
2452.00,0.0021
2451.00,0.0021
2450.00,0.0020
2449.00,0.0020
2448.00,0.0020
2447.00,0.0020
2446.00,0.0020
2445.00,0.0020
2444.00,0.0020
2443.00,0.0020
2442.00,0.0020
2441.00,0.0020
2440.00,0.0020
2439.00,0.0020
2438.00,0.0020
2437.00,0.0021
2436.00,0.0021
2435.00,0.0021
2434.00,0.0021
2433.00,0.0021
2432.00,0.0021
2431.00,0.0020
2430.00,0.0021
2429.00,0.0021
2428.00,0.0021
2427.00,0.0021
2426.00,0.0021
2425.00,0.0021
2424.00,0.0020
2423.00,0.0019
2422.00,0.0019
2421.00,0.0018
2420.00,0.0018
2419.00,0.0018
2418.00,0.0018
2417.00,0.0018
2416.00,0.0019
2415.00,0.0019
2414.00,0.0019
2413.00,0.0020
2412.00,0.0020
2411.00,0.0019
2410.00,0.0019
2409.00,0.0019
2408.00,0.0018
2407.00,0.0017
2406.00,0.0016
2405.00,0.0017
2404.00,0.0017
2403.00,0.0018
2402.00,0.0018
2401.00,0.0018
2400.00,0.0017
2399.00,0.0016
2398.00,0.0015
2397.00,0.0015
2396.00,0.0016
2395.00,0.0016
2394.00,0.0016
2393.00,0.0015
2392.00,0.0015
2391.00,0.0015
2390.00,0.0015
2389.00,0.0015
2388.00,0.0015
2387.00,0.0016
2386.00,0.0015
2385.00,0.0015
2384.00,0.0014
2383.00,0.0013
2382.00,0.0013
2381.00,0.0013
2380.00,0.0013
2379.00,0.0013
2378.00,0.0013
2377.00,0.0013
2376.00,0.0012
2375.00,0.0012
2374.00,0.0011
2373.00,0.0012
2372.00,0.0012
2371.00,0.0012
2370.00,0.0012
2369.00,0.0012
2368.00,0.0011
2367.00,0.0011
2366.00,0.0011
2365.00,0.0011
2364.00,0.0012
2363.00,0.0012
2362.00,0.0012
2361.00,0.0011
2360.00,0.0012
2359.00,0.0012
2358.00,0.0012
2357.00,0.0012
2356.00,0.0011
2355.00,0.0009
2354.00,0.0008
2353.00,0.0006
2352.00,0.0005
2351.00,0.0004
2350.00,0.0005
2349.00,0.0008
2348.00,0.0011
2347.00,0.0015
2346.00,0.0017
2345.00,0.0017
2344.00,0.0016
2343.00,0.0015
2342.00,0.0014
2341.00,0.0014
2340.00,0.0013
2339.00,0.0013
2338.00,0.0013
2337.00,0.0014
2336.00,0.0015
2335.00,0.0015
2334.00,0.0015
2333.00,0.0015
2332.00,0.0014
2331.00,0.0014
2330.00,0.0013
2329.00,0.0013
2328.00,0.0014
2327.00,0.0018
2326.00,0.0023
2325.00,0.0028
2324.00,0.0030
2323.00,0.0029
2322.00,0.0026
2321.00,0.0022
2320.00,0.0020
2319.00,0.0018
2318.00,0.0018
2317.00,0.0018
2316.00,0.0018
2315.00,0.0018
2314.00,0.0017
2313.00,0.0017
2312.00,0.0016
2311.00,0.0015
2310.00,0.0015
2309.00,0.0014
2308.00,0.0014
2307.00,0.0013
2306.00,0.0013
2305.00,0.0013
2304.00,0.0014
2303.00,0.0015
2302.00,0.0016
2301.00,0.0018
2300.00,0.0019
2299.00,0.0019
2298.00,0.0020
2297.00,0.0021
2296.00,0.0021
2295.00,0.0022
2294.00,0.0023
2293.00,0.0024
2292.00,0.0026
2291.00,0.0027
2290.00,0.0028
2289.00,0.0029
2288.00,0.0029
2287.00,0.0029
2286.00,0.0029
2285.00,0.0028
2284.00,0.0028
2283.00,0.0027
2282.00,0.0026
2281.00,0.0026
2280.00,0.0027
2279.00,0.0027
2278.00,0.0027
2277.00,0.0027
2276.00,0.0026
2275.00,0.0024
2274.00,0.0024
2273.00,0.0023
2272.00,0.0023
2271.00,0.0023
2270.00,0.0023
2269.00,0.0022
2268.00,0.0021
2267.00,0.0019
2266.00,0.0017
2265.00,0.0017
2264.00,0.0018
2263.00,0.0019
2262.00,0.0020
2261.00,0.0021
2260.00,0.0020
2259.00,0.0020
2258.00,0.0020
2257.00,0.0020
2256.00,0.0021
2255.00,0.0020
2254.00,0.0020
2253.00,0.0020
2252.00,0.0020
2251.00,0.0019
2250.00,0.0018
2249.00,0.0017
2248.00,0.0015
2247.00,0.0014
2246.00,0.0014
2245.00,0.0014
2244.00,0.0015
2243.00,0.0017
2242.00,0.0018
2241.00,0.0018
2240.00,0.0018
2239.00,0.0018
2238.00,0.0017
2237.00,0.0017
2236.00,0.0017
2235.00,0.0018
2234.00,0.0019
2233.00,0.0019
2232.00,0.0019
2231.00,0.0019
2230.00,0.0018
2229.00,0.0016
2228.00,0.0015
2227.00,0.0015
2226.00,0.0015
2225.00,0.0017
2224.00,0.0018
2223.00,0.0018
2222.00,0.0017
2221.00,0.0016
2220.00,0.0015
2219.00,0.0015
2218.00,0.0014
2217.00,0.0013
2216.00,0.0012
2215.00,0.0012
2214.00,0.0013
2213.00,0.0014
2212.00,0.0016
2211.00,0.0016
2210.00,0.0015
2209.00,0.0015
2208.00,0.0016
2207.00,0.0017
2206.00,0.0018
2205.00,0.0018
2204.00,0.0017
2203.00,0.0015
2202.00,0.0013
2201.00,0.0012
2200.00,0.0011
2199.00,0.0011
2198.00,0.0011
2197.00,0.0012
2196.00,0.0013
2195.00,0.0015
2194.00,0.0017
2193.00,0.0017
2192.00,0.0017
2191.00,0.0018
2190.00,0.0019
2189.00,0.0022
2188.00,0.0023
2187.00,0.0022
2186.00,0.0020
2185.00,0.0016
2184.00,0.0012
2183.00,0.0009
2182.00,0.0008
2181.00,0.0009
2180.00,0.0012
2179.00,0.0013
2178.00,0.0013
2177.00,0.0012
2176.00,0.0009
2175.00,0.0009
2174.00,0.0011
2173.00,0.0014
2172.00,0.0015
2171.00,0.0015
2170.00,0.0014
2169.00,0.0015
2168.00,0.0017
2167.00,0.0017
2166.00,0.0017
2165.00,0.0019
2164.00,0.0023
2163.00,0.0028
2162.00,0.0030
2161.00,0.0025
2160.00,0.0010
2159.00,-0.0010
2158.00,-0.0027
2157.00,-0.0033
2156.00,-0.0029
2155.00,-0.0022
2154.00,-0.0014
2153.00,-0.0010
2152.00,-0.0008
2151.00,-0.0007
2150.00,-0.0006
2149.00,-0.0006
2148.00,-0.0007
2147.00,-0.0009
2146.00,-0.0011
2145.00,-0.0011
2144.00,-0.0010
2143.00,-0.0008
2142.00,-0.0006
2141.00,-0.0005
2140.00,-0.0005
2139.00,-0.0007
2138.00,-0.0007
2137.00,-0.0008
2136.00,-0.0008
2135.00,-0.0010
2134.00,-0.0012
2133.00,-0.0012
2132.00,-0.0010
2131.00,-0.0007
2130.00,-0.0005
2129.00,-0.0003
2128.00,-0.0001
2127.00,-0.0001
2126.00,-0.0001
2125.00,-0.0001
2124.00,-0.0000
2123.00,0.0001
2122.00,0.0002
2121.00,0.0004
2120.00,0.0005
2119.00,0.0006
2118.00,0.0007
2117.00,0.0008
2116.00,0.0010
2115.00,0.0011
2114.00,0.0012
2113.00,0.0012
2112.00,0.0012
2111.00,0.0011
2110.00,0.0010
2109.00,0.0009
2108.00,0.0008
2107.00,0.0008
2106.00,0.0008
2105.00,0.0008
2104.00,0.0008
2103.00,0.0008
2102.00,0.0009
2101.00,0.0010
2100.00,0.0011
2099.00,0.0012
2098.00,0.0010
2097.00,0.0008
2096.00,0.0005
2095.00,0.0004
2094.00,0.0004
2093.00,0.0005
2092.00,0.0006
2091.00,0.0007
2090.00,0.0007
2089.00,0.0008
2088.00,0.0010
2087.00,0.0012
2086.00,0.0012
2085.00,0.0012
2084.00,0.0011
2083.00,0.0009
2082.00,0.0008
2081.00,0.0009
2080.00,0.0012
2079.00,0.0014
2078.00,0.0014
2077.00,0.0014
2076.00,0.0013
2075.00,0.0012
2074.00,0.0012
2073.00,0.0011
2072.00,0.0010
2071.00,0.0009
2070.00,0.0008
2069.00,0.0008
2068.00,0.0010
2067.00,0.0010
2066.00,0.0011
2065.00,0.0011
2064.00,0.0009
2063.00,0.0007
2062.00,0.0005
2061.00,0.0005
2060.00,0.0007
2059.00,0.0008
2058.00,0.0009
2057.00,0.0008
2056.00,0.0007
2055.00,0.0005
2054.00,0.0007
2053.00,0.0012
2052.00,0.0019
2051.00,0.0024
2050.00,0.0025
2049.00,0.0022
2048.00,0.0017
2047.00,0.0014
2046.00,0.0011
2045.00,0.0008
2044.00,0.0006
2043.00,0.0004
2042.00,0.0002
2041.00,0.0001
2040.00,0.0003
2039.00,0.0006
2038.00,0.0010
2037.00,0.0012
2036.00,0.0012
2035.00,0.0009
2034.00,0.0003
2033.00,-0.0003
2032.00,-0.0007
2031.00,-0.0010
2030.00,-0.0011
2029.00,-0.0010
2028.00,-0.0008
2027.00,-0.0005
2026.00,-0.0005
2025.00,-0.0006
2024.00,-0.0008
2023.00,-0.0009
2022.00,-0.0008
2021.00,-0.0007
2020.00,-0.0006
2019.00,-0.0006
2018.00,-0.0006
2017.00,-0.0006
2016.00,-0.0007
2015.00,-0.0008
2014.00,-0.0009
2013.00,-0.0009
2012.00,-0.0008
2011.00,-0.0006
2010.00,-0.0004
2009.00,-0.0003
2008.00,-0.0006
2007.00,-0.0012
2006.00,-0.0016
2005.00,-0.0016
2004.00,-0.0011
2003.00,-0.0007
2002.00,-0.0005
2001.00,-0.0006
2000.00,-0.0008
1999.00,-0.0010
1998.00,-0.0010
1997.00,-0.0009
1996.00,-0.0009
1995.00,-0.0007
1994.00,-0.0005
1993.00,-0.0001
1992.00,0.0002
1991.00,0.0004
1990.00,0.0005
1989.00,0.0006
1988.00,0.0008
1987.00,0.0009
1986.00,0.0010
1985.00,0.0012
1984.00,0.0015
1983.00,0.0017
1982.00,0.0019
1981.00,0.0019
1980.00,0.0017
1979.00,0.0011
1978.00,0.0005
1977.00,0.0001
1976.00,0.0001
1975.00,0.0000
1974.00,-0.0002
1973.00,-0.0006
1972.00,-0.0008
1971.00,-0.0010
1970.00,-0.0011
1969.00,-0.0011
1968.00,-0.0010
1967.00,-0.0009
1966.00,-0.0008
1965.00,-0.0008
1964.00,-0.0009
1963.00,-0.0011
1962.00,-0.0013
1961.00,-0.0014
1960.00,-0.0014
1959.00,-0.0014
1958.00,-0.0013
1957.00,-0.0012
1956.00,-0.0011
1955.00,-0.0010
1954.00,-0.0010
1953.00,-0.0009
1952.00,-0.0008
1951.00,-0.0008
1950.00,-0.0008
1949.00,-0.0009
1948.00,-0.0010
1947.00,-0.0011
1946.00,-0.0013
1945.00,-0.0013
1944.00,-0.0011
1943.00,-0.0008
1942.00,-0.0006
1941.00,-0.0005
1940.00,-0.0004
1939.00,-0.0005
1938.00,-0.0005
1937.00,-0.0004
1936.00,-0.0003
1935.00,-0.0002
1934.00,-0.0002
1933.00,-0.0001
1932.00,-0.0000
1931.00,-0.0000
1930.00,-0.0001
1929.00,-0.0001
1928.00,-0.0000
1927.00,0.0000
1926.00,0.0001
1925.00,0.0002
1924.00,0.0003
1923.00,0.0002
1922.00,0.0002
1921.00,0.0001
1920.00,0.0001
1919.00,0.0000
1918.00,0.0002
1917.00,0.0004
1916.00,0.0006
1915.00,0.0006
1914.00,0.0006
1913.00,0.0005
1912.00,0.0004
1911.00,0.0004
1910.00,0.0005
1909.00,0.0006
1908.00,0.0006
1907.00,0.0007
1906.00,0.0006
1905.00,0.0006
1904.00,0.0006
1903.00,0.0006
1902.00,0.0006
1901.00,0.0006
1900.00,0.0007
1899.00,0.0008
1898.00,0.0008
1897.00,0.0008
1896.00,0.0008
1895.00,0.0006
1894.00,0.0005
1893.00,0.0004
1892.00,0.0004
1891.00,0.0004
1890.00,0.0004
1889.00,0.0005
1888.00,0.0007
1887.00,0.0009
1886.00,0.0009
1885.00,0.0009
1884.00,0.0008
1883.00,0.0007
1882.00,0.0006
1881.00,0.0006
1880.00,0.0006
1879.00,0.0006
1878.00,0.0006
1877.00,0.0007
1876.00,0.0007
1875.00,0.0008
1874.00,0.0008
1873.00,0.0008
1872.00,0.0009
1871.00,0.0008
1870.00,0.0008
1869.00,0.0007
1868.00,0.0006
1867.00,0.0006
1866.00,0.0006
1865.00,0.0007
1864.00,0.0008
1863.00,0.0008
1862.00,0.0008
1861.00,0.0008
1860.00,0.0008
1859.00,0.0008
1858.00,0.0009
1857.00,0.0009
1856.00,0.0008
1855.00,0.0008
1854.00,0.0008
1853.00,0.0008
1852.00,0.0009
1851.00,0.0010
1850.00,0.0010
1849.00,0.0009
1848.00,0.0009
1847.00,0.0008
1846.00,0.0008
1845.00,0.0008
1844.00,0.0009
1843.00,0.0010
1842.00,0.0010
1841.00,0.0010
1840.00,0.0011
1839.00,0.0011
1838.00,0.0011
1837.00,0.0011
1836.00,0.0011
1835.00,0.0011
1834.00,0.0011
1833.00,0.0011
1832.00,0.0011
1831.00,0.0011
1830.00,0.0010
1829.00,0.0010
1828.00,0.0010
1827.00,0.0010
1826.00,0.0011
1825.00,0.0011
1824.00,0.0011
1823.00,0.0011
1822.00,0.0010
1821.00,0.0010
1820.00,0.0010
1819.00,0.0009
1818.00,0.0008
1817.00,0.0007
1816.00,0.0007
1815.00,0.0008
1814.00,0.0010
1813.00,0.0011
1812.00,0.0011
1811.00,0.0012
1810.00,0.0012
1809.00,0.0012
1808.00,0.0012
1807.00,0.0013
1806.00,0.0014
1805.00,0.0015
1804.00,0.0016
1803.00,0.0016
1802.00,0.0016
1801.00,0.0016
1800.00,0.0017
1799.00,0.0018
1798.00,0.0019
1797.00,0.0019
1796.00,0.0020
1795.00,0.0021
1794.00,0.0021
1793.00,0.0021
1792.00,0.0020
1791.00,0.0020
1790.00,0.0019
1789.00,0.0019
1788.00,0.0019
1787.00,0.0019
1786.00,0.0020
1785.00,0.0020
1784.00,0.0019
1783.00,0.0019
1782.00,0.0019
1781.00,0.0019
1780.00,0.0020
1779.00,0.0021
1778.00,0.0021
1777.00,0.0021
1776.00,0.0021
1775.00,0.0021
1774.00,0.0022
1773.00,0.0023
1772.00,0.0024
1771.00,0.0025
1770.00,0.0026
1769.00,0.0026
1768.00,0.0026
1767.00,0.0026
1766.00,0.0026
1765.00,0.0026
1764.00,0.0026
1763.00,0.0026
1762.00,0.0026
1761.00,0.0027
1760.00,0.0027
1759.00,0.0028
1758.00,0.0029
1757.00,0.0030
1756.00,0.0031
1755.00,0.0031
1754.00,0.0032
1753.00,0.0034
1752.00,0.0036
1751.00,0.0037
1750.00,0.0039
1749.00,0.0041
1748.00,0.0042
1747.00,0.0043
1746.00,0.0045
1745.00,0.0046
1744.00,0.0047
1743.00,0.0047
1742.00,0.0048
1741.00,0.0049
1740.00,0.0050
1739.00,0.0052
1738.00,0.0052
1737.00,0.0053
1736.00,0.0054
1735.00,0.0055
1734.00,0.0056
1733.00,0.0056
1732.00,0.0056
1731.00,0.0055
1730.00,0.0054
1729.00,0.0053
1728.00,0.0052
1727.00,0.0052
1726.00,0.0051
1725.00,0.0051
1724.00,0.0050
1723.00,0.0050
1722.00,0.0049
1721.00,0.0048
1720.00,0.0047
1719.00,0.0047
1718.00,0.0046
1717.00,0.0046
1716.00,0.0045
1715.00,0.0044
1714.00,0.0043
1713.00,0.0042
1712.00,0.0042
1711.00,0.0042
1710.00,0.0041
1709.00,0.0041
1708.00,0.0042
1707.00,0.0042
1706.00,0.0042
1705.00,0.0042
1704.00,0.0042
1703.00,0.0042
1702.00,0.0042
1701.00,0.0042
1700.00,0.0043
1699.00,0.0044
1698.00,0.0045
1697.00,0.0045
1696.00,0.0046
1695.00,0.0046
1694.00,0.0046
1693.00,0.0047
1692.00,0.0048
1691.00,0.0048
1690.00,0.0049
1689.00,0.0050
1688.00,0.0050
1687.00,0.0051
1686.00,0.0051
1685.00,0.0052
1684.00,0.0054
1683.00,0.0054
1682.00,0.0055
1681.00,0.0055
1680.00,0.0056
1679.00,0.0057
1678.00,0.0059
1677.00,0.0060
1676.00,0.0061
1675.00,0.0062
1674.00,0.0063
1673.00,0.0063
1672.00,0.0064
1671.00,0.0065
1670.00,0.0066
1669.00,0.0066
1668.00,0.0067
1667.00,0.0067
1666.00,0.0068
1665.00,0.0069
1664.00,0.0071
1663.00,0.0072
1662.00,0.0073
1661.00,0.0073
1660.00,0.0074
1659.00,0.0074
1658.00,0.0075
1657.00,0.0076
1656.00,0.0077
1655.00,0.0078
1654.00,0.0078
1653.00,0.0078
1652.00,0.0079
1651.00,0.0080
1650.00,0.0080
1649.00,0.0080
1648.00,0.0080
1647.00,0.0080
1646.00,0.0080
1645.00,0.0081
1644.00,0.0082
1643.00,0.0083
1642.00,0.0084
1641.00,0.0086
1640.00,0.0087
1639.00,0.0089
1638.00,0.0089
1637.00,0.0090
1636.00,0.0089
1635.00,0.0088
1634.00,0.0087
1633.00,0.0087
1632.00,0.0087
1631.00,0.0087
1630.00,0.0087
1629.00,0.0088
1628.00,0.0088
1627.00,0.0088
1626.00,0.0087
1625.00,0.0087
1624.00,0.0087
1623.00,0.0087
1622.00,0.0086
1621.00,0.0086
1620.00,0.0086
1619.00,0.0086
1618.00,0.0086
1617.00,0.0086
1616.00,0.0086
1615.00,0.0086
1614.00,0.0086
1613.00,0.0087
1612.00,0.0088
1611.00,0.0088
1610.00,0.0089
1609.00,0.0089
1608.00,0.0089
1607.00,0.0089
1606.00,0.0089
1605.00,0.0089
1604.00,0.0090
1603.00,0.0090
1602.00,0.0090
1601.00,0.0091
1600.00,0.0091
1599.00,0.0091
1598.00,0.0091
1597.00,0.0090
1596.00,0.0090
1595.00,0.0090
1594.00,0.0090
1593.00,0.0091
1592.00,0.0091
1591.00,0.0091
1590.00,0.0091
1589.00,0.0091
1588.00,0.0092
1587.00,0.0093
1586.00,0.0095
1585.00,0.0097
1584.00,0.0099
1583.00,0.0101
1582.00,0.0103
1581.00,0.0105
1580.00,0.0107
1579.00,0.0108
1578.00,0.0108
1577.00,0.0108
1576.00,0.0108
1575.00,0.0106
1574.00,0.0105
1573.00,0.0104
1572.00,0.0103
1571.00,0.0102
1570.00,0.0101
1569.00,0.0101
1568.00,0.0101
1567.00,0.0101
1566.00,0.0101
1565.00,0.0102
1564.00,0.0102
1563.00,0.0102
1562.00,0.0103
1561.00,0.0103
1560.00,0.0104
1559.00,0.0105
1558.00,0.0105
1557.00,0.0106
1556.00,0.0106
1555.00,0.0107
1554.00,0.0108
1553.00,0.0110
1552.00,0.0113
1551.00,0.0115
1550.00,0.0117
1549.00,0.0119
1548.00,0.0122
1547.00,0.0124
1546.00,0.0126
1545.00,0.0128
1544.00,0.0131
1543.00,0.0134
1542.00,0.0135
1541.00,0.0136
1540.00,0.0134
1539.00,0.0131
1538.00,0.0128
1537.00,0.0126
1536.00,0.0124
1535.00,0.0122
1534.00,0.0119
1533.00,0.0118
1532.00,0.0118
1531.00,0.0117
1530.00,0.0117
1529.00,0.0117
1528.00,0.0118
1527.00,0.0117
1526.00,0.0117
1525.00,0.0117
1524.00,0.0118
1523.00,0.0118
1522.00,0.0119
1521.00,0.0120
1520.00,0.0122
1519.00,0.0124
1518.00,0.0126
1517.00,0.0128
1516.00,0.0130
1515.00,0.0132
1514.00,0.0133
1513.00,0.0135
1512.00,0.0138
1511.00,0.0140
1510.00,0.0142
1509.00,0.0144
1508.00,0.0147
1507.00,0.0151
1506.00,0.0155
1505.00,0.0159
1504.00,0.0163
1503.00,0.0166
1502.00,0.0168
1501.00,0.0172
1500.00,0.0177
1499.00,0.0181
1498.00,0.0186
1497.00,0.0193
1496.00,0.0201
1495.00,0.0207
1494.00,0.0212
1493.00,0.0217
1492.00,0.0222
1491.00,0.0228
1490.00,0.0235
1489.00,0.0244
1488.00,0.0252
1487.00,0.0259
1486.00,0.0266
1485.00,0.0274
1484.00,0.0283
1483.00,0.0293
1482.00,0.0304
1481.00,0.0318
1480.00,0.0333
1479.00,0.0347
1478.00,0.0363
1477.00,0.0385
1476.00,0.0410
1475.00,0.0438
1474.00,0.0475
1473.00,0.0528
1472.00,0.0593
1471.00,0.0655
1470.00,0.0712
1469.00,0.0772
1468.00,0.0836
1467.00,0.0907
1466.00,0.0989
1465.00,0.1079
1464.00,0.1159
1463.00,0.1214
1462.00,0.1249
1461.00,0.1272
1460.00,0.1290
1459.00,0.1306
1458.00,0.1327
1457.00,0.1352
1456.00,0.1366
1455.00,0.1364
1454.00,0.1356
1453.00,0.1344
1452.00,0.1328
1451.00,0.1304
1450.00,0.1267
1449.00,0.1213
1448.00,0.1139
1447.00,0.1057
1446.00,0.0978
1445.00,0.0907
1444.00,0.0845
1443.00,0.0793
1442.00,0.0754
1441.00,0.0727
1440.00,0.0711
1439.00,0.0703
1438.00,0.0705
1437.00,0.0711
1436.00,0.0709
1435.00,0.0689
1434.00,0.0657
1433.00,0.0616
1432.00,0.0573
1431.00,0.0535
1430.00,0.0505
1429.00,0.0483
1428.00,0.0466
1427.00,0.0456
1426.00,0.0448
1425.00,0.0441
1424.00,0.0433
1423.00,0.0427
1422.00,0.0422
1421.00,0.0417
1420.00,0.0410
1419.00,0.0403
1418.00,0.0396
1417.00,0.0388
1416.00,0.0379
1415.00,0.0371
1414.00,0.0364
1413.00,0.0355
1412.00,0.0346
1411.00,0.0337
1410.00,0.0328
1409.00,0.0320
1408.00,0.0312
1407.00,0.0305
1406.00,0.0300
1405.00,0.0294
1404.00,0.0288
1403.00,0.0283
1402.00,0.0280
1401.00,0.0276
1400.00,0.0273
1399.00,0.0270
1398.00,0.0269
1397.00,0.0266
1396.00,0.0264
1395.00,0.0262
1394.00,0.0262
1393.00,0.0262
1392.00,0.0263
1391.00,0.0266
1390.00,0.0272
1389.00,0.0281
1388.00,0.0296
1387.00,0.0321
1386.00,0.0357
1385.00,0.0408
1384.00,0.0478
1383.00,0.0578
1382.00,0.0712
1381.00,0.0885
1380.00,0.1100
1379.00,0.1349
1378.00,0.1596
1377.00,0.1786
1376.00,0.1864
1375.00,0.1795
1374.00,0.1598
1373.00,0.1346
1372.00,0.1105
1371.00,0.0901
1370.00,0.0735
1369.00,0.0607
1368.00,0.0517
1367.00,0.0461
1366.00,0.0430
1365.00,0.0417
1364.00,0.0418
1363.00,0.0430
1362.00,0.0450
1361.00,0.0472
1360.00,0.0488
1359.00,0.0491
1358.00,0.0479
1357.00,0.0451
1356.00,0.0414
1355.00,0.0372
1354.00,0.0332
1353.00,0.0298
1352.00,0.0271
1351.00,0.0248
1350.00,0.0230
1349.00,0.0215
1348.00,0.0202
1347.00,0.0192
1346.00,0.0183
1345.00,0.0175
1344.00,0.0169
1343.00,0.0163
1342.00,0.0159
1341.00,0.0155
1340.00,0.0152
1339.00,0.0149
1338.00,0.0148
1337.00,0.0147
1336.00,0.0147
1335.00,0.0149
1334.00,0.0152
1333.00,0.0156
1332.00,0.0160
1331.00,0.0164
1330.00,0.0165
1329.00,0.0163
1328.00,0.0159
1327.00,0.0155
1326.00,0.0150
1325.00,0.0144
1324.00,0.0139
1323.00,0.0134
1322.00,0.0130
1321.00,0.0127
1320.00,0.0124
1319.00,0.0122
1318.00,0.0120
1317.00,0.0119
1316.00,0.0117
1315.00,0.0116
1314.00,0.0115
1313.00,0.0115
1312.00,0.0116
1311.00,0.0119
1310.00,0.0124
1309.00,0.0131
1308.00,0.0141
1307.00,0.0153
1306.00,0.0165
1305.00,0.0172
1304.00,0.0173
1303.00,0.0169
1302.00,0.0164
1301.00,0.0159
1300.00,0.0156
1299.00,0.0155
1298.00,0.0156
1297.00,0.0157
1296.00,0.0157
1295.00,0.0155
1294.00,0.0153
1293.00,0.0149
1292.00,0.0144
1291.00,0.0140
1290.00,0.0136
1289.00,0.0133
1288.00,0.0130
1287.00,0.0128
1286.00,0.0126
1285.00,0.0123
1284.00,0.0121
1283.00,0.0119
1282.00,0.0118
1281.00,0.0117
1280.00,0.0117
1279.00,0.0117
1278.00,0.0116
1277.00,0.0116
1276.00,0.0115
1275.00,0.0114
1274.00,0.0114
1273.00,0.0115
1272.00,0.0116
1271.00,0.0118
1270.00,0.0119
1269.00,0.0121
1268.00,0.0123
1267.00,0.0125
1266.00,0.0128
1265.00,0.0131
1264.00,0.0134
1263.00,0.0137
1262.00,0.0140
1261.00,0.0144
1260.00,0.0148
1259.00,0.0154
1258.00,0.0160
1257.00,0.0164
1256.00,0.0166
1255.00,0.0163
1254.00,0.0157
1253.00,0.0148
1252.00,0.0138
1251.00,0.0131
1250.00,0.0125
1249.00,0.0121
1248.00,0.0117
1247.00,0.0114
1246.00,0.0112
1245.00,0.0111
1244.00,0.0110
1243.00,0.0109
1242.00,0.0108
1241.00,0.0107
1240.00,0.0106
1239.00,0.0105
1238.00,0.0105
1237.00,0.0105
1236.00,0.0105
1235.00,0.0106
1234.00,0.0107
1233.00,0.0107
1232.00,0.0108
1231.00,0.0108
1230.00,0.0109
1229.00,0.0110
1228.00,0.0112
1227.00,0.0114
1226.00,0.0117
1225.00,0.0120
1224.00,0.0123
1223.00,0.0127
1222.00,0.0130
1221.00,0.0133
1220.00,0.0134
1219.00,0.0135
1218.00,0.0133
1217.00,0.0130
1216.00,0.0127
1215.00,0.0123
1214.00,0.0120
1213.00,0.0117
1212.00,0.0115
1211.00,0.0113
1210.00,0.0111
1209.00,0.0110
1208.00,0.0109
1207.00,0.0109
1206.00,0.0109
1205.00,0.0109
1204.00,0.0109
1203.00,0.0109
1202.00,0.0110
1201.00,0.0111
1200.00,0.0111
1199.00,0.0112
1198.00,0.0113
1197.00,0.0114
1196.00,0.0114
1195.00,0.0113
1194.00,0.0113
1193.00,0.0113
1192.00,0.0112
1191.00,0.0112
1190.00,0.0111
1189.00,0.0110
1188.00,0.0109
1187.00,0.0108
1186.00,0.0108
1185.00,0.0108
1184.00,0.0108
1183.00,0.0109
1182.00,0.0111
1181.00,0.0113
1180.00,0.0116
1179.00,0.0122
1178.00,0.0129
1177.00,0.0138
1176.00,0.0149
1175.00,0.0165
1174.00,0.0186
1173.00,0.0212
1172.00,0.0243
1171.00,0.0278
1170.00,0.0311
1169.00,0.0337
1168.00,0.0351
1167.00,0.0352
1166.00,0.0342
1165.00,0.0326
1164.00,0.0307
1163.00,0.0289
1162.00,0.0273
1161.00,0.0259
1160.00,0.0248
1159.00,0.0240
1158.00,0.0234
1157.00,0.0231
1156.00,0.0229
1155.00,0.0228
1154.00,0.0226
1153.00,0.0224
1152.00,0.0219
1151.00,0.0212
1150.00,0.0203
1149.00,0.0193
1148.00,0.0183
1147.00,0.0173
1146.00,0.0164
1145.00,0.0157
1144.00,0.0151
1143.00,0.0146
1142.00,0.0142
1141.00,0.0137
1140.00,0.0133
1139.00,0.0130
1138.00,0.0127
1137.00,0.0124
1136.00,0.0122
1135.00,0.0121
1134.00,0.0120
1133.00,0.0120
1132.00,0.0120
1131.00,0.0121
1130.00,0.0122
1129.00,0.0123
1128.00,0.0124
1127.00,0.0125
1126.00,0.0125
1125.00,0.0126
1124.00,0.0126
1123.00,0.0127
1122.00,0.0128
1121.00,0.0129
1120.00,0.0130
1119.00,0.0131
1118.00,0.0132
1117.00,0.0133
1116.00,0.0133
1115.00,0.0134
1114.00,0.0135
1113.00,0.0135
1112.00,0.0136
1111.00,0.0138
1110.00,0.0141
1109.00,0.0145
1108.00,0.0150
1107.00,0.0156
1106.00,0.0163
1105.00,0.0168
1104.00,0.0172
1103.00,0.0174
1102.00,0.0173
1101.00,0.0170
1100.00,0.0165
1099.00,0.0159
1098.00,0.0153
1097.00,0.0148
1096.00,0.0145
1095.00,0.0142
1094.00,0.0139
1093.00,0.0137
1092.00,0.0134
1091.00,0.0132
1090.00,0.0130
1089.00,0.0128
1088.00,0.0127
1087.00,0.0127
1086.00,0.0127
1085.00,0.0127
1084.00,0.0128
1083.00,0.0128
1082.00,0.0127
1081.00,0.0126
1080.00,0.0125
1079.00,0.0124
1078.00,0.0124
1077.00,0.0123
1076.00,0.0124
1075.00,0.0125
1074.00,0.0125
1073.00,0.0124
1072.00,0.0122
1071.00,0.0121
1070.00,0.0120
1069.00,0.0120
1068.00,0.0120
1067.00,0.0120
1066.00,0.0120
1065.00,0.0120
1064.00,0.0120
1063.00,0.0120
1062.00,0.0120
1061.00,0.0121
1060.00,0.0122
1059.00,0.0124
1058.00,0.0125
1057.00,0.0127
1056.00,0.0129
1055.00,0.0131
1054.00,0.0133
1053.00,0.0135
1052.00,0.0138
1051.00,0.0142
1050.00,0.0147
1049.00,0.0153
1048.00,0.0159
1047.00,0.0165
1046.00,0.0169
1045.00,0.0172
1044.00,0.0173
1043.00,0.0172
1042.00,0.0170
1041.00,0.0167
1040.00,0.0166
1039.00,0.0164
1038.00,0.0163
1037.00,0.0162
1036.00,0.0162
1035.00,0.0161
1034.00,0.0159
1033.00,0.0157
1032.00,0.0155
1031.00,0.0153
1030.00,0.0153
1029.00,0.0154
1028.00,0.0155
1027.00,0.0157
1026.00,0.0159
1025.00,0.0161
1024.00,0.0164
1023.00,0.0167
1022.00,0.0169
1021.00,0.0172
1020.00,0.0173
1019.00,0.0174
1018.00,0.0175
1017.00,0.0175
1016.00,0.0174
1015.00,0.0173
1014.00,0.0173
1013.00,0.0173
1012.00,0.0173
1011.00,0.0173
1010.00,0.0172
1009.00,0.0173
1008.00,0.0174
1007.00,0.0178
1006.00,0.0185
1005.00,0.0197
1004.00,0.0213
1003.00,0.0237
1002.00,0.0269
1001.00,0.0309
1000.00,0.0351
999.00,0.0386
998.00,0.0401
997.00,0.0391
996.00,0.0359
995.00,0.0315
994.00,0.0270
993.00,0.0231
992.00,0.0201
991.00,0.0180
990.00,0.0166
989.00,0.0156
988.00,0.0150
987.00,0.0146
986.00,0.0144
985.00,0.0143
984.00,0.0145
983.00,0.0151
982.00,0.0161
981.00,0.0177
980.00,0.0199
979.00,0.0229
978.00,0.0266
977.00,0.0309
976.00,0.0355
975.00,0.0399
974.00,0.0431
973.00,0.0442
972.00,0.0424
971.00,0.0383
970.00,0.0329
969.00,0.0275
968.00,0.0229
967.00,0.0194
966.00,0.0169
965.00,0.0152
964.00,0.0139
963.00,0.0130
962.00,0.0124
961.00,0.0118
960.00,0.0113
959.00,0.0109
958.00,0.0106
957.00,0.0102
956.00,0.0100
955.00,0.0097
954.00,0.0096
953.00,0.0094
952.00,0.0093
951.00,0.0092
950.00,0.0091
949.00,0.0090
948.00,0.0090
947.00,0.0091
946.00,0.0093
945.00,0.0097
944.00,0.0100
943.00,0.0104
942.00,0.0108
941.00,0.0110
940.00,0.0109
939.00,0.0106
938.00,0.0100
937.00,0.0095
936.00,0.0090
935.00,0.0086
934.00,0.0082
933.00,0.0080
932.00,0.0078
931.00,0.0076
930.00,0.0076
929.00,0.0076
928.00,0.0075
927.00,0.0074
926.00,0.0074
925.00,0.0074
924.00,0.0075
923.00,0.0076
922.00,0.0076
921.00,0.0077
920.00,0.0077
919.00,0.0077
918.00,0.0077
917.00,0.0077
916.00,0.0078
915.00,0.0079
914.00,0.0080
913.00,0.0081
912.00,0.0081
911.00,0.0082
910.00,0.0084
909.00,0.0086
908.00,0.0089
907.00,0.0095
906.00,0.0103
905.00,0.0114
904.00,0.0129
903.00,0.0148
902.00,0.0168
901.00,0.0185
900.00,0.0196
899.00,0.0198
898.00,0.0189
897.00,0.0172
896.00,0.0153
895.00,0.0135
894.00,0.0121
893.00,0.0111
892.00,0.0104
891.00,0.0099
890.00,0.0096
889.00,0.0094
888.00,0.0093
887.00,0.0094
886.00,0.0096
885.00,0.0101
884.00,0.0108
883.00,0.0116
882.00,0.0126
881.00,0.0138
880.00,0.0152
879.00,0.0169
878.00,0.0185
877.00,0.0198
876.00,0.0204
875.00,0.0203
874.00,0.0197
873.00,0.0184
872.00,0.0166
871.00,0.0147
870.00,0.0129
869.00,0.0115
868.00,0.0106
867.00,0.0100
866.00,0.0098
865.00,0.0097
864.00,0.0097
863.00,0.0098
862.00,0.0099
861.00,0.0099
860.00,0.0099
859.00,0.0100
858.00,0.0101
857.00,0.0103
856.00,0.0104
855.00,0.0106
854.00,0.0108
853.00,0.0109
852.00,0.0113
851.00,0.0117
850.00,0.0124
849.00,0.0132
848.00,0.0142
847.00,0.0155
846.00,0.0176
845.00,0.0209
844.00,0.0257
843.00,0.0313
842.00,0.0361
841.00,0.0379
840.00,0.0355
839.00,0.0303
838.00,0.0244
837.00,0.0196
836.00,0.0165
835.00,0.0147
834.00,0.0137
833.00,0.0131
832.00,0.0127
831.00,0.0123
830.00,0.0120
829.00,0.0118
828.00,0.0116
827.00,0.0116
826.00,0.0116
825.00,0.0116
824.00,0.0117
823.00,0.0117
822.00,0.0117
821.00,0.0118
820.00,0.0119
819.00,0.0122
818.00,0.0126
817.00,0.0132
816.00,0.0141
815.00,0.0154
814.00,0.0171
813.00,0.0191
812.00,0.0212
811.00,0.0232
810.00,0.0245
809.00,0.0250
808.00,0.0243
807.00,0.0228
806.00,0.0208
805.00,0.0189
804.00,0.0173
803.00,0.0161
802.00,0.0152
801.00,0.0146
800.00,0.0139
799.00,0.0134
798.00,0.0129
797.00,0.0125
796.00,0.0121
795.00,0.0117
794.00,0.0113
793.00,0.0109
792.00,0.0107
791.00,0.0105
790.00,0.0102
789.00,0.0099
788.00,0.0096
787.00,0.0093
786.00,0.0091
785.00,0.0089
784.00,0.0087
783.00,0.0086
782.00,0.0085
781.00,0.0084
780.00,0.0083
779.00,0.0083
778.00,0.0083
777.00,0.0085
776.00,0.0086
775.00,0.0087
774.00,0.0087
773.00,0.0086
772.00,0.0084
771.00,0.0083
770.00,0.0083
769.00,0.0084
768.00,0.0086
767.00,0.0087
766.00,0.0088
765.00,0.0088
764.00,0.0088
763.00,0.0087
762.00,0.0085
761.00,0.0083
760.00,0.0082
759.00,0.0083
758.00,0.0085
757.00,0.0089
756.00,0.0092
755.00,0.0095
754.00,0.0097
753.00,0.0097
752.00,0.0097
751.00,0.0096
750.00,0.0096
749.00,0.0097
748.00,0.0099
747.00,0.0101
746.00,0.0102
745.00,0.0104
744.00,0.0105
743.00,0.0106
742.00,0.0108
741.00,0.0110
740.00,0.0112
739.00,0.0114
738.00,0.0115
737.00,0.0117
736.00,0.0120
735.00,0.0124
734.00,0.0129
733.00,0.0133
732.00,0.0137
731.00,0.0140
730.00,0.0142
729.00,0.0144
728.00,0.0146
727.00,0.0148
726.00,0.0152
725.00,0.0155
724.00,0.0158
723.00,0.0161
722.00,0.0163
721.00,0.0164
720.00,0.0162
719.00,0.0158
718.00,0.0153
717.00,0.0149
716.00,0.0147
715.00,0.0146
714.00,0.0145
713.00,0.0142
712.00,0.0139
711.00,0.0134
710.00,0.0131
709.00,0.0129
708.00,0.0128
707.00,0.0126
706.00,0.0125
705.00,0.0124
704.00,0.0123
703.00,0.0122
702.00,0.0121
701.00,0.0120
700.00,0.0118
699.00,0.0117
698.00,0.0116
697.00,0.0116
696.00,0.0118
695.00,0.0120
694.00,0.0121
693.00,0.0121
692.00,0.0120
691.00,0.0119
690.00,0.0120
689.00,0.0121
688.00,0.0121
687.00,0.0120
686.00,0.0119
685.00,0.0119
684.00,0.0119
683.00,0.0120
682.00,0.0121
681.00,0.0123
680.00,0.0124
679.00,0.0124
678.00,0.0124
677.00,0.0124
676.00,0.0125
675.00,0.0127
674.00,0.0128
673.00,0.0130
672.00,0.0130
671.00,0.0132
670.00,0.0134
669.00,0.0134
668.00,0.0132
667.00,0.0128
666.00,0.0126
665.00,0.0125
664.00,0.0123
663.00,0.0122
662.00,0.0120
661.00,0.0118
660.00,0.0116
659.00,0.0113
658.00,0.0111
657.00,0.0110
656.00,0.0112
655.00,0.0114
654.00,0.0116
653.00,0.0116
652.00,0.0116
651.00,0.0115
650.00,0.0112
649.00,0.0109
648.00,0.0109
647.00,0.0109
646.00,0.0108
645.00,0.0107
644.00,0.0106
643.00,0.0106
642.00,0.0108
641.00,0.0109
640.00,0.0111
639.00,0.0114
638.00,0.0115
637.00,0.0115
636.00,0.0113
635.00,0.0112
634.00,0.0111
633.00,0.0111
632.00,0.0111
631.00,0.0109
630.00,0.0108
629.00,0.0108
628.00,0.0108
627.00,0.0108
626.00,0.0109
625.00,0.0109
624.00,0.0110
623.00,0.0110
622.00,0.0109
621.00,0.0107
620.00,0.0104
619.00,0.0104
618.00,0.0106
617.00,0.0109
616.00,0.0110
615.00,0.0109
614.00,0.0107
613.00,0.0106
612.00,0.0105
611.00,0.0104
610.00,0.0103
609.00,0.0102
608.00,0.0103
607.00,0.0104
606.00,0.0107
605.00,0.0110
604.00,0.0111
603.00,0.0111
602.00,0.0110
601.00,0.0109
600.00,0.0109
599.00,0.0109
598.00,0.0110
597.00,0.0111
596.00,0.0111
595.00,0.0110
594.00,0.0109
593.00,0.0108
592.00,0.0108
591.00,0.0108
590.00,0.0109
589.00,0.0111
588.00,0.0112
587.00,0.0111
586.00,0.0108
585.00,0.0104
584.00,0.0102
583.00,0.0102
582.00,0.0105
581.00,0.0107
580.00,0.0108
579.00,0.0108
578.00,0.0108
577.00,0.0110
576.00,0.0113
575.00,0.0114
574.00,0.0113
573.00,0.0112
572.00,0.0112
571.00,0.0112
570.00,0.0112
569.00,0.0111
568.00,0.0111
567.00,0.0112
566.00,0.0112
565.00,0.0112
564.00,0.0112
563.00,0.0111
562.00,0.0110
561.00,0.0108
560.00,0.0105
559.00,0.0102
558.00,0.0101
557.00,0.0102
556.00,0.0103
555.00,0.0105
554.00,0.0107
553.00,0.0108
552.00,0.0110
551.00,0.0113
550.00,0.0114
549.00,0.0113
548.00,0.0110
547.00,0.0107
546.00,0.0105
545.00,0.0107
544.00,0.0110
543.00,0.0114
542.00,0.0118
541.00,0.0122
540.00,0.0128
539.00,0.0136
538.00,0.0143
537.00,0.0148
536.00,0.0149
535.00,0.0147
534.00,0.0143
533.00,0.0138
532.00,0.0135
531.00,0.0133
530.00,0.0133
529.00,0.0131
528.00,0.0127
527.00,0.0122
526.00,0.0120
525.00,0.0122
524.00,0.0127
523.00,0.0129
522.00,0.0124
521.00,0.0115
520.00,0.0108
519.00,0.0108
518.00,0.0114
517.00,0.0121
516.00,0.0124
515.00,0.0122
514.00,0.0118
513.00,0.0115
512.00,0.0113
511.00,0.0110
510.00,0.0107
509.00,0.0106
508.00,0.0107
507.00,0.0111
506.00,0.0114
505.00,0.0115
504.00,0.0114
503.00,0.0112
502.00,0.0111
501.00,0.0112
500.00,0.0116
499.00,0.0123
498.00,0.0129
497.00,0.0131
496.00,0.0127
495.00,0.0115
494.00,0.0101
493.00,0.0091
492.00,0.0091
491.00,0.0100
490.00,0.0110
489.00,0.0117
488.00,0.0117
487.00,0.0114
486.00,0.0113
485.00,0.0115
484.00,0.0119
483.00,0.0122
482.00,0.0122
481.00,0.0121
480.00,0.0120
479.00,0.0123
478.00,0.0131
477.00,0.0142
476.00,0.0155
475.00,0.0168
474.00,0.0177
473.00,0.0183
472.00,0.0188
471.00,0.0196
470.00,0.0203
469.00,0.0205
468.00,0.0203
467.00,0.0201
466.00,0.0207
465.00,0.0220
464.00,0.0235
463.00,0.0245
462.00,0.0245
461.00,0.0241
460.00,0.0239
459.00,0.0244
458.00,0.0252
457.00,0.0258
456.00,0.0257
455.00,0.0249
454.00,0.0237
453.00,0.0223
452.00,0.0214
451.00,0.0208
450.00,0.0202
