Created as New Dataset,Sample 001 By Administrator Date Thursday, September 04 2025
cm-1,A
4000.00,0.0008
3999.00,0.0008
3998.00,0.0009
3997.00,0.0009
3996.00,0.0009
3995.00,0.0009
3994.00,0.0009
3993.00,0.0009
3992.00,0.0009
3991.00,0.0009
3990.00,0.0009
3989.00,0.0009
3988.00,0.0009
3987.00,0.0009
3986.00,0.0009
3985.00,0.0008
3984.00,0.0008
3983.00,0.0008
3982.00,0.0008
3981.00,0.0008
3980.00,0.0008
3979.00,0.0008
3978.00,0.0008
3977.00,0.0008
3976.00,0.0007
3975.00,0.0007
3974.00,0.0007
3973.00,0.0007
3972.00,0.0007
3971.00,0.0007
3970.00,0.0007
3969.00,0.0007
3968.00,0.0007
3967.00,0.0007
3966.00,0.0007
3965.00,0.0007
3964.00,0.0007
3963.00,0.0007
3962.00,0.0007
3961.00,0.0007
3960.00,0.0007
3959.00,0.0007
3958.00,0.0007
3957.00,0.0007
3956.00,0.0007
3955.00,0.0007
3954.00,0.0006
3953.00,0.0007
3952.00,0.0007
3951.00,0.0007
3950.00,0.0007
3949.00,0.0007
3948.00,0.0007
3947.00,0.0007
3946.00,0.0007
3945.00,0.0007
3944.00,0.0007
3943.00,0.0007
3942.00,0.0007
3941.00,0.0007
3940.00,0.0007
3939.00,0.0007
3938.00,0.0007
3937.00,0.0007
3936.00,0.0007
3935.00,0.0007
3934.00,0.0007
3933.00,0.0007
3932.00,0.0007
3931.00,0.0007
3930.00,0.0008
3929.00,0.0008
3928.00,0.0008
3927.00,0.0008
3926.00,0.0008
3925.00,0.0008
3924.00,0.0008
3923.00,0.0008
3922.00,0.0007
3921.00,0.0007
3920.00,0.0007
3919.00,0.0007
3918.00,0.0007
3917.00,0.0007
3916.00,0.0007
3915.00,0.0007
3914.00,0.0007
3913.00,0.0007
3912.00,0.0007
3911.00,0.0007
3910.00,0.0007
3909.00,0.0007
3908.00,0.0007
3907.00,0.0007
3906.00,0.0006
3905.00,0.0006
3904.00,0.0006
3903.00,0.0006
3902.00,0.0006
3901.00,0.0006
3900.00,0.0006
3899.00,0.0007
3898.00,0.0007
3897.00,0.0007
3896.00,0.0007
3895.00,0.0007
3894.00,0.0008
3893.00,0.0008
3892.00,0.0008
3891.00,0.0008
3890.00,0.0007
3889.00,0.0007
3888.00,0.0006
3887.00,0.0006
3886.00,0.0006
3885.00,0.0006
3884.00,0.0006
3883.00,0.0006
3882.00,0.0006
3881.00,0.0006
3880.00,0.0006
3879.00,0.0007
3878.00,0.0007
3877.00,0.0007
3876.00,0.0007
3875.00,0.0007
3874.00,0.0007
3873.00,0.0006
3872.00,0.0006
3871.00,0.0006
3870.00,0.0006
3869.00,0.0006
3868.00,0.0006
3867.00,0.0006
3866.00,0.0006
3865.00,0.0006
3864.00,0.0006
3863.00,0.0007
3862.00,0.0007
3861.00,0.0007
3860.00,0.0007
3859.00,0.0007
3858.00,0.0007
3857.00,0.0007
3856.00,0.0006
3855.00,0.0006
3854.00,0.0005
3853.00,0.0005
3852.00,0.0005
3851.00,0.0005
3850.00,0.0005
3849.00,0.0005
3848.00,0.0005
3847.00,0.0006
3846.00,0.0006
3845.00,0.0006
3844.00,0.0007
3843.00,0.0007
3842.00,0.0007
3841.00,0.0007
3840.00,0.0006
3839.00,0.0006
3838.00,0.0006
3837.00,0.0006
3836.00,0.0005
3835.00,0.0005
3834.00,0.0005
3833.00,0.0005
3832.00,0.0005
3831.00,0.0005
3830.00,0.0006
3829.00,0.0006
3828.00,0.0006
3827.00,0.0006
3826.00,0.0007
3825.00,0.0007
3824.00,0.0007
3823.00,0.0007
3822.00,0.0007
3821.00,0.0006
3820.00,0.0006
3819.00,0.0006
3818.00,0.0006
3817.00,0.0005
3816.00,0.0005
3815.00,0.0006
3814.00,0.0006
3813.00,0.0006
3812.00,0.0006
3811.00,0.0006
3810.00,0.0006
3809.00,0.0007
3808.00,0.0007
3807.00,0.0008
3806.00,0.0008
3805.00,0.0007
3804.00,0.0006
3803.00,0.0006
3802.00,0.0006
3801.00,0.0006
3800.00,0.0006
3799.00,0.0006
3798.00,0.0005
3797.00,0.0005
3796.00,0.0006
3795.00,0.0006
3794.00,0.0006
3793.00,0.0006
3792.00,0.0006
3791.00,0.0006
3790.00,0.0006
3789.00,0.0005
3788.00,0.0006
3787.00,0.0006
3786.00,0.0006
3785.00,0.0007
3784.00,0.0007
3783.00,0.0007
3782.00,0.0007
3781.00,0.0007
3780.00,0.0007
3779.00,0.0006
3778.00,0.0006
3777.00,0.0006
3776.00,0.0006
3775.00,0.0006
3774.00,0.0006
3773.00,0.0007
3772.00,0.0007
3771.00,0.0007
3770.00,0.0007
3769.00,0.0007
3768.00,0.0006
3767.00,0.0006
3766.00,0.0007
3765.00,0.0007
3764.00,0.0007
3763.00,0.0007
3762.00,0.0008
3761.00,0.0008
3760.00,0.0008
3759.00,0.0007
3758.00,0.0007
3757.00,0.0007
3756.00,0.0007
3755.00,0.0007
3754.00,0.0007
3753.00,0.0007
3752.00,0.0007
3751.00,0.0007
3750.00,0.0007
3749.00,0.0007
3748.00,0.0006
3747.00,0.0006
3746.00,0.0005
3745.00,0.0005
3744.00,0.0005
3743.00,0.0005
3742.00,0.0004
3741.00,0.0004
3740.00,0.0005
3739.00,0.0005
3738.00,0.0005
3737.00,0.0005
3736.00,0.0005
3735.00,0.0005
3734.00,0.0005
3733.00,0.0005
3732.00,0.0005
3731.00,0.0004
3730.00,0.0004
3729.00,0.0004
3728.00,0.0004
3727.00,0.0004
3726.00,0.0004
3725.00,0.0005
3724.00,0.0005
3723.00,0.0005
3722.00,0.0006
3721.00,0.0006
3720.00,0.0006
3719.00,0.0006
3718.00,0.0006
3717.00,0.0006
3716.00,0.0006
3715.00,0.0006
3714.00,0.0006
3713.00,0.0005
3712.00,0.0005
3711.00,0.0005
3710.00,0.0004
3709.00,0.0004
3708.00,0.0004
3707.00,0.0004
3706.00,0.0004
3705.00,0.0004
3704.00,0.0004
3703.00,0.0004
3702.00,0.0004
3701.00,0.0005
3700.00,0.0005
3699.00,0.0005
3698.00,0.0004
3697.00,0.0004
3696.00,0.0004
3695.00,0.0004
3694.00,0.0004
3693.00,0.0004
3692.00,0.0004
3691.00,0.0004
3690.00,0.0004
3689.00,0.0004
3688.00,0.0004
3687.00,0.0004
3686.00,0.0004
3685.00,0.0004
3684.00,0.0004
3683.00,0.0004
3682.00,0.0004
3681.00,0.0004
3680.00,0.0004
3679.00,0.0004
3678.00,0.0004
3677.00,0.0003
3676.00,0.0002
3675.00,0.0002
3674.00,0.0003
3673.00,0.0003
3672.00,0.0003
3671.00,0.0002
3670.00,0.0002
3669.00,0.0002
3668.00,0.0003
3667.00,0.0003
3666.00,0.0003
3665.00,0.0003
3664.00,0.0003
3663.00,0.0003
3662.00,0.0003
3661.00,0.0003
3660.00,0.0003
3659.00,0.0004
3658.00,0.0004
3657.00,0.0004
3656.00,0.0005
3655.00,0.0005
3654.00,0.0006
3653.00,0.0006
3652.00,0.0006
3651.00,0.0006
3650.00,0.0006
3649.00,0.0006
3648.00,0.0005
3647.00,0.0004
3646.00,0.0004
3645.00,0.0004
3644.00,0.0004
3643.00,0.0004
3642.00,0.0004
3641.00,0.0004
3640.00,0.0004
3639.00,0.0004
3638.00,0.0004
3637.00,0.0004
3636.00,0.0004
3635.00,0.0004
3634.00,0.0004
3633.00,0.0004
3632.00,0.0003
3631.00,0.0003
3630.00,0.0003
3629.00,0.0004
3628.00,0.0004
3627.00,0.0004
3626.00,0.0004
3625.00,0.0003
3624.00,0.0004
3623.00,0.0004
3622.00,0.0005
3621.00,0.0005
3620.00,0.0004
3619.00,0.0004
3618.00,0.0003
3617.00,0.0003
3616.00,0.0003
3615.00,0.0003
3614.00,0.0003
3613.00,0.0004
3612.00,0.0004
3611.00,0.0005
3610.00,0.0005
3609.00,0.0005
3608.00,0.0006
3607.00,0.0006
3606.00,0.0006
3605.00,0.0006
3604.00,0.0005
3603.00,0.0005
3602.00,0.0005
3601.00,0.0005
3600.00,0.0005
3599.00,0.0006
3598.00,0.0005
3597.00,0.0005
3596.00,0.0005
3595.00,0.0005
3594.00,0.0006
3593.00,0.0006
3592.00,0.0006
3591.00,0.0006
3590.00,0.0005
3589.00,0.0005
3588.00,0.0005
3587.00,0.0006
3586.00,0.0006
3585.00,0.0006
3584.00,0.0006
3583.00,0.0006
3582.00,0.0007
3581.00,0.0007
3580.00,0.0007
3579.00,0.0007
3578.00,0.0007
3577.00,0.0007
3576.00,0.0007
3575.00,0.0007
3574.00,0.0007
3573.00,0.0008
3572.00,0.0008
3571.00,0.0008
3570.00,0.0008
3569.00,0.0008
3568.00,0.0008
3567.00,0.0008
3566.00,0.0008
3565.00,0.0008
3564.00,0.0008
3563.00,0.0008
3562.00,0.0008
3561.00,0.0009
3560.00,0.0009
3559.00,0.0009
3558.00,0.0009
3557.00,0.0009
3556.00,0.0010
3555.00,0.0010
3554.00,0.0010
3553.00,0.0011
3552.00,0.0011
3551.00,0.0011
3550.00,0.0011
3549.00,0.0010
3548.00,0.0010
3547.00,0.0010
3546.00,0.0010
3545.00,0.0011
3544.00,0.0011
3543.00,0.0012
3542.00,0.0012
3541.00,0.0012
3540.00,0.0012
3539.00,0.0012
3538.00,0.0012
3537.00,0.0012
3536.00,0.0012
3535.00,0.0013
3534.00,0.0013
3533.00,0.0013
3532.00,0.0013
3531.00,0.0013
3530.00,0.0013
3529.00,0.0012
3528.00,0.0012
3527.00,0.0012
3526.00,0.0013
3525.00,0.0013
3524.00,0.0013
3523.00,0.0014
3522.00,0.0014
3521.00,0.0015
3520.00,0.0015
3519.00,0.0014
3518.00,0.0014
3517.00,0.0015
3516.00,0.0015
3515.00,0.0015
3514.00,0.0015
3513.00,0.0016
3512.00,0.0016
3511.00,0.0016
3510.00,0.0017
3509.00,0.0017
3508.00,0.0017
3507.00,0.0017
3506.00,0.0017
3505.00,0.0016
3504.00,0.0016
3503.00,0.0016
3502.00,0.0017
3501.00,0.0017
3500.00,0.0016
3499.00,0.0016
3498.00,0.0016
3497.00,0.0016
3496.00,0.0017
3495.00,0.0017
3494.00,0.0018
3493.00,0.0018
3492.00,0.0018
3491.00,0.0018
3490.00,0.0019
3489.00,0.0019
3488.00,0.0019
3487.00,0.0019
3486.00,0.0019
3485.00,0.0019
3484.00,0.0019
3483.00,0.0019
3482.00,0.0019
3481.00,0.0019
3480.00,0.0019
3479.00,0.0019
3478.00,0.0018
3477.00,0.0018
3476.00,0.0018
3475.00,0.0018
3474.00,0.0019
3473.00,0.0019
3472.00,0.0020
3471.00,0.0020
3470.00,0.0020
3469.00,0.0020
3468.00,0.0020
3467.00,0.0020
3466.00,0.0020
3465.00,0.0020
3464.00,0.0021
3463.00,0.0021
3462.00,0.0021
3461.00,0.0021
3460.00,0.0021
3459.00,0.0021
3458.00,0.0021
3457.00,0.0021
3456.00,0.0021
3455.00,0.0021
3454.00,0.0021
3453.00,0.0021
3452.00,0.0022
3451.00,0.0022
3450.00,0.0022
3449.00,0.0022
3448.00,0.0023
3447.00,0.0023
3446.00,0.0023
3445.00,0.0024
3444.00,0.0024
3443.00,0.0023
3442.00,0.0023
3441.00,0.0023
3440.00,0.0023
3439.00,0.0023
3438.00,0.0023
3437.00,0.0023
3436.00,0.0024
3435.00,0.0024
3434.00,0.0024
3433.00,0.0024
3432.00,0.0025
3431.00,0.0025
3430.00,0.0025
3429.00,0.0025
3428.00,0.0025
3427.00,0.0025
3426.00,0.0025
3425.00,0.0025
3424.00,0.0025
3423.00,0.0025
3422.00,0.0025
3421.00,0.0026
3420.00,0.0026
3419.00,0.0026
3418.00,0.0026
3417.00,0.0026
3416.00,0.0026
3415.00,0.0026
3414.00,0.0026
3413.00,0.0026
3412.00,0.0026
3411.00,0.0026
3410.00,0.0026
3409.00,0.0026
3408.00,0.0026
3407.00,0.0026
3406.00,0.0026
3405.00,0.0026
3404.00,0.0026
3403.00,0.0026
3402.00,0.0025
3401.00,0.0025
3400.00,0.0025
3399.00,0.0025
3398.00,0.0025
3397.00,0.0026
3396.00,0.0026
3395.00,0.0026
3394.00,0.0026
3393.00,0.0026
3392.00,0.0026
3391.00,0.0026
3390.00,0.0026
3389.00,0.0026
3388.00,0.0026
3387.00,0.0026
3386.00,0.0026
3385.00,0.0026
3384.00,0.0026
3383.00,0.0026
3382.00,0.0026
3381.00,0.0026
3380.00,0.0026
3379.00,0.0026
3378.00,0.0026
3377.00,0.0026
3376.00,0.0027
3375.00,0.0027
3374.00,0.0027
3373.00,0.0027
3372.00,0.0026
3371.00,0.0026
3370.00,0.0026
3369.00,0.0025
3368.00,0.0026
3367.00,0.0026
3366.00,0.0026
3365.00,0.0026
3364.00,0.0026
3363.00,0.0026
3362.00,0.0027
3361.00,0.0027
3360.00,0.0027
3359.00,0.0027
3358.00,0.0027
3357.00,0.0027
3356.00,0.0027
3355.00,0.0027
3354.00,0.0027
3353.00,0.0027
3352.00,0.0027
3351.00,0.0027
3350.00,0.0027
3349.00,0.0027
3348.00,0.0027
3347.00,0.0027
3346.00,0.0027
3345.00,0.0027
3344.00,0.0027
3343.00,0.0027
3342.00,0.0026
3341.00,0.0026
3340.00,0.0026
3339.00,0.0026
3338.00,0.0026
3337.00,0.0026
3336.00,0.0026
3335.00,0.0026
3334.00,0.0026
3333.00,0.0025
3332.00,0.0025
3331.00,0.0025
3330.00,0.0025
3329.00,0.0025
3328.00,0.0025
3327.00,0.0025
3326.00,0.0025
3325.00,0.0025
3324.00,0.0025
3323.00,0.0025
3322.00,0.0024
3321.00,0.0024
3320.00,0.0025
3319.00,0.0025
3318.00,0.0025
3317.00,0.0025
3316.00,0.0025
3315.00,0.0025
3314.00,0.0025
3313.00,0.0025
3312.00,0.0025
3311.00,0.0025
3310.00,0.0025
3309.00,0.0025
3308.00,0.0025
3307.00,0.0025
3306.00,0.0025
3305.00,0.0025
3304.00,0.0026
3303.00,0.0026
3302.00,0.0027
3301.00,0.0027
3300.00,0.0027
3299.00,0.0026
3298.00,0.0025
3297.00,0.0025
3296.00,0.0024
3295.00,0.0024
3294.00,0.0024
3293.00,0.0024
3292.00,0.0024
3291.00,0.0023
3290.00,0.0023
3289.00,0.0023
3288.00,0.0023
3287.00,0.0023
3286.00,0.0023
3285.00,0.0022
3284.00,0.0022
3283.00,0.0022
3282.00,0.0023
3281.00,0.0022
3280.00,0.0022
3279.00,0.0022
3278.00,0.0022
3277.00,0.0022
3276.00,0.0022
3275.00,0.0022
3274.00,0.0022
3273.00,0.0023
3272.00,0.0023
3271.00,0.0023
3270.00,0.0023
3269.00,0.0023
3268.00,0.0022
3267.00,0.0021
3266.00,0.0021
3265.00,0.0021
3264.00,0.0022
3263.00,0.0022
3262.00,0.0022
3261.00,0.0022
3260.00,0.0022
3259.00,0.0022
3258.00,0.0022
3257.00,0.0021
3256.00,0.0021
3255.00,0.0021
3254.00,0.0021
3253.00,0.0021
3252.00,0.0020
3251.00,0.0020
3250.00,0.0020
3249.00,0.0020
3248.00,0.0020
3247.00,0.0020
3246.00,0.0020
3245.00,0.0020
3244.00,0.0020
3243.00,0.0020
3242.00,0.0020
3241.00,0.0020
3240.00,0.0021
3239.00,0.0021
3238.00,0.0021
3237.00,0.0021
3236.00,0.0021
3235.00,0.0020
3234.00,0.0020
3233.00,0.0020
3232.00,0.0021
3231.00,0.0021
3230.00,0.0021
3229.00,0.0021
3228.00,0.0022
3227.00,0.0022
3226.00,0.0022
3225.00,0.0023
3224.00,0.0023
3223.00,0.0023
3222.00,0.0023
3221.00,0.0023
3220.00,0.0023
3219.00,0.0024
3218.00,0.0024
3217.00,0.0025
3216.00,0.0025
3215.00,0.0025
3214.00,0.0025
3213.00,0.0025
3212.00,0.0025
3211.00,0.0025
3210.00,0.0025
3209.00,0.0025
3208.00,0.0025
3207.00,0.0025
3206.00,0.0025
3205.00,0.0026
3204.00,0.0026
3203.00,0.0026
3202.00,0.0026
3201.00,0.0025
3200.00,0.0025
3199.00,0.0025
3198.00,0.0025
3197.00,0.0025
3196.00,0.0025
3195.00,0.0025
3194.00,0.0025
3193.00,0.0025
3192.00,0.0025
3191.00,0.0025
3190.00,0.0025
3189.00,0.0025
3188.00,0.0025
3187.00,0.0025
3186.00,0.0025
3185.00,0.0025
3184.00,0.0024
3183.00,0.0024
3182.00,0.0024
3181.00,0.0024
3180.00,0.0024
3179.00,0.0024
3178.00,0.0024
3177.00,0.0024
3176.00,0.0024
3175.00,0.0024
3174.00,0.0024
3173.00,0.0024
3172.00,0.0024
3171.00,0.0024
3170.00,0.0024
3169.00,0.0023
3168.00,0.0023
3167.00,0.0023
3166.00,0.0024
3165.00,0.0024
3164.00,0.0024
3163.00,0.0024
3162.00,0.0023
3161.00,0.0023
3160.00,0.0022
3159.00,0.0022
3158.00,0.0022
3157.00,0.0022
3156.00,0.0023
3155.00,0.0023
3154.00,0.0023
3153.00,0.0023
3152.00,0.0023
3151.00,0.0023
3150.00,0.0023
3149.00,0.0023
3148.00,0.0023
3147.00,0.0023
3146.00,0.0023
3145.00,0.0023
3144.00,0.0023
3143.00,0.0023
3142.00,0.0023
3141.00,0.0023
3140.00,0.0023
3139.00,0.0023
3138.00,0.0023
3137.00,0.0023
3136.00,0.0023
3135.00,0.0022
3134.00,0.0022
3133.00,0.0022
3132.00,0.0021
3131.00,0.0021
3130.00,0.0021
3129.00,0.0021
3128.00,0.0021
3127.00,0.0021
3126.00,0.0021
3125.00,0.0021
3124.00,0.0020
3123.00,0.0020
3122.00,0.0021
3121.00,0.0021
3120.00,0.0021
3119.00,0.0020
3118.00,0.0020
3117.00,0.0020
3116.00,0.0019
3115.00,0.0019
3114.00,0.0019
3113.00,0.0019
3112.00,0.0019
3111.00,0.0019
3110.00,0.0019
3109.00,0.0019
3108.00,0.0020
3107.00,0.0020
3106.00,0.0020
3105.00,0.0019
3104.00,0.0019
3103.00,0.0019
3102.00,0.0019
3101.00,0.0019
3100.00,0.0019
3099.00,0.0019
3098.00,0.0019
3097.00,0.0019
3096.00,0.0019
3095.00,0.0020
3094.00,0.0020
3093.00,0.0019
3092.00,0.0019
3091.00,0.0020
3090.00,0.0020
3089.00,0.0020
3088.00,0.0019
3087.00,0.0019
3086.00,0.0019
3085.00,0.0019
3084.00,0.0019
3083.00,0.0019
3082.00,0.0019
3081.00,0.0019
3080.00,0.0019
3079.00,0.0020
3078.00,0.0020
3077.00,0.0020
3076.00,0.0020
3075.00,0.0020
3074.00,0.0020
3073.00,0.0020
3072.00,0.0021
3071.00,0.0021
3070.00,0.0021
3069.00,0.0021
3068.00,0.0022
3067.00,0.0022
3066.00,0.0022
3065.00,0.0022
3064.00,0.0022
3063.00,0.0022
3062.00,0.0023
3061.00,0.0023
3060.00,0.0023
3059.00,0.0023
3058.00,0.0023
3057.00,0.0023
3056.00,0.0023
3055.00,0.0023
3054.00,0.0023
3053.00,0.0023
3052.00,0.0023
3051.00,0.0024
3050.00,0.0024
3049.00,0.0025
3048.00,0.0025
3047.00,0.0025
3046.00,0.0025
3045.00,0.0025
3044.00,0.0025
3043.00,0.0026
3042.00,0.0026
3041.00,0.0026
3040.00,0.0027
3039.00,0.0027
3038.00,0.0028
3037.00,0.0028
3036.00,0.0028
3035.00,0.0028
3034.00,0.0029
3033.00,0.0029
3032.00,0.0029
3031.00,0.0030
3030.00,0.0030
3029.00,0.0030
3028.00,0.0031
3027.00,0.0031
3026.00,0.0032
3025.00,0.0033
3024.00,0.0033
3023.00,0.0034
3022.00,0.0035
3021.00,0.0036
3020.00,0.0036
3019.00,0.0037
3018.00,0.0038
3017.00,0.0039
3016.00,0.0040
3015.00,0.0040
3014.00,0.0042
3013.00,0.0043
3012.00,0.0044
3011.00,0.0046
3010.00,0.0047
3009.00,0.0049
3008.00,0.0051
3007.00,0.0053
3006.00,0.0055
3005.00,0.0057
3004.00,0.0058
3003.00,0.0060
3002.00,0.0062
3001.00,0.0064
3000.00,0.0067
2999.00,0.0069
2998.00,0.0072
2997.00,0.0075
2996.00,0.0079
2995.00,0.0083
2994.00,0.0087
2993.00,0.0091
2992.00,0.0097
2991.00,0.0102
2990.00,0.0109
2989.00,0.0115
2988.00,0.0123
2987.00,0.0131
2986.00,0.0141
2985.00,0.0151
2984.00,0.0162
2983.00,0.0174
2982.00,0.0189
2981.00,0.0205
2980.00,0.0224
2979.00,0.0245
2978.00,0.0268
2977.00,0.0295
2976.00,0.0326
2975.00,0.0362
2974.00,0.0403
2973.00,0.0449
2972.00,0.0500
2971.00,0.0558
2970.00,0.0621
2969.00,0.0691
2968.00,0.0765
2967.00,0.0844
2966.00,0.0925
2965.00,0.1006
2964.00,0.1083
2963.00,0.1153
2962.00,0.1213
2961.00,0.1263
2960.00,0.1305
2959.00,0.1344
2958.00,0.1386
2957.00,0.1438
2956.00,0.1503
2955.00,0.1583
2954.00,0.1675
2953.00,0.1770
2952.00,0.1857
2951.00,0.1922
2950.00,0.1950
2949.00,0.1934
2948.00,0.1871
2947.00,0.1769
2946.00,0.1642
2945.00,0.1505
2944.00,0.1375
2943.00,0.1261
2942.00,0.1173
2941.00,0.1112
2940.00,0.1076
2939.00,0.1065
2938.00,0.1075
2937.00,0.1103
2936.00,0.1149
2935.00,0.1211
2934.00,0.1288
2933.00,0.1379
2932.00,0.1483
2931.00,0.1597
2930.00,0.1719
2929.00,0.1845
2928.00,0.1973
2927.00,0.2099
2926.00,0.2223
2925.00,0.2345
2924.00,0.2466
2923.00,0.2586
2922.00,0.2708
2921.00,0.2827
2920.00,0.2934
2919.00,0.3017
2918.00,0.3062
2917.00,0.3059
2916.00,0.3006
2915.00,0.2911
2914.00,0.2787
2913.00,0.2652
2912.00,0.2518
2911.00,0.2394
2910.00,0.2283
2909.00,0.2184
2908.00,0.2095
2907.00,0.2011
2906.00,0.1930
2905.00,0.1852
2904.00,0.1774
2903.00,0.1698
2902.00,0.1624
2901.00,0.1553
2900.00,0.1486
2899.00,0.1423
2898.00,0.1364
2897.00,0.1311
2896.00,0.1263
2895.00,0.1221
2894.00,0.1186
2893.00,0.1157
2892.00,0.1134
2891.00,0.1118
2890.00,0.1108
2889.00,0.1102
2888.00,0.1099
2887.00,0.1101
2886.00,0.1105
2885.00,0.1114
2884.00,0.1127
2883.00,0.1145
2882.00,0.1168
2881.00,0.1195
2880.00,0.1221
2879.00,0.1243
2878.00,0.1258
2877.00,0.1262
2876.00,0.1258
2875.00,0.1250
2874.00,0.1243
2873.00,0.1242
2872.00,0.1249
2871.00,0.1264
2870.00,0.1286
2869.00,0.1307
2868.00,0.1321
2867.00,0.1319
2866.00,0.1293
2865.00,0.1242
2864.00,0.1169
2863.00,0.1084
2862.00,0.1000
2861.00,0.0925
2860.00,0.0865
2859.00,0.0824
2858.00,0.0800
2857.00,0.0790
2856.00,0.0792
2855.00,0.0803
2854.00,0.0820
2853.00,0.0841
2852.00,0.0864
2851.00,0.0884
2850.00,0.0900
2849.00,0.0911
2848.00,0.0921
2847.00,0.0934
2846.00,0.0956
2845.00,0.0988
2844.00,0.1031
2843.00,0.1082
2842.00,0.1136
2841.00,0.1187
2840.00,0.1226
2839.00,0.1245
2838.00,0.1239
2837.00,0.1201
2836.00,0.1134
2835.00,0.1043
2834.00,0.0937
2833.00,0.0827
2832.00,0.0724
2831.00,0.0631
2830.00,0.0553
2829.00,0.0489
2828.00,0.0438
2827.00,0.0396
2826.00,0.0361
2825.00,0.0333
2824.00,0.0309
2823.00,0.0289
2822.00,0.0272
2821.00,0.0258
2820.00,0.0246
2819.00,0.0235
2818.00,0.0226
2817.00,0.0217
2816.00,0.0210
2815.00,0.0203
2814.00,0.0196
2813.00,0.0190
2812.00,0.0184
2811.00,0.0179
2810.00,0.0173
2809.00,0.0167
2808.00,0.0160
2807.00,0.0154
2806.00,0.0147
2805.00,0.0140
2804.00,0.0134
2803.00,0.0128
2802.00,0.0123
2801.00,0.0119
2800.00,0.0115
2799.00,0.0111
2798.00,0.0108
2797.00,0.0105
2796.00,0.0103
2795.00,0.0100
2794.00,0.0098
2793.00,0.0095
2792.00,0.0092
2791.00,0.0089
2790.00,0.0086
2789.00,0.0083
2788.00,0.0081
2787.00,0.0078
2786.00,0.0075
2785.00,0.0073
2784.00,0.0070
2783.00,0.0068
2782.00,0.0066
2781.00,0.0065
2780.00,0.0063
2779.00,0.0062
2778.00,0.0060
2777.00,0.0058
2776.00,0.0057
2775.00,0.0056
2774.00,0.0055
2773.00,0.0054
2772.00,0.0054
2771.00,0.0053
2770.00,0.0053
2769.00,0.0053
2768.00,0.0053
2767.00,0.0052
2766.00,0.0052
2765.00,0.0052
2764.00,0.0051
2763.00,0.0051
2762.00,0.0051
2761.00,0.0051
2760.00,0.0050
2759.00,0.0050
2758.00,0.0050
2757.00,0.0050
2756.00,0.0050
2755.00,0.0050
2754.00,0.0050
2753.00,0.0049
2752.00,0.0049
2751.00,0.0048
2750.00,0.0048
2749.00,0.0048
2748.00,0.0048
2747.00,0.0048
2746.00,0.0049
2745.00,0.0050
2744.00,0.0050
2743.00,0.0051
2742.00,0.0052
2741.00,0.0053
2740.00,0.0054
2739.00,0.0056
2738.00,0.0057
2737.00,0.0059
2736.00,0.0060
2735.00,0.0062
2734.00,0.0063
2733.00,0.0065
2732.00,0.0067
2731.00,0.0069
2730.00,0.0071
2729.00,0.0074
2728.00,0.0076
2727.00,0.0079
2726.00,0.0082
2725.00,0.0084
2724.00,0.0085
2723.00,0.0086
2722.00,0.0085
2721.00,0.0084
2720.00,0.0081
2719.00,0.0078
2718.00,0.0075
2717.00,0.0072
2716.00,0.0069
2715.00,0.0066
2714.00,0.0063
2713.00,0.0061
2712.00,0.0059
2711.00,0.0057
2710.00,0.0055
2709.00,0.0053
2708.00,0.0052
2707.00,0.0051
2706.00,0.0050
2705.00,0.0049
2704.00,0.0048
2703.00,0.0047
2702.00,0.0045
2701.00,0.0044
2700.00,0.0044
2699.00,0.0043
2698.00,0.0042
2697.00,0.0041
2696.00,0.0041
2695.00,0.0041
2694.00,0.0041
2693.00,0.0042
2692.00,0.0042
2691.00,0.0042
2690.00,0.0043
2689.00,0.0043
2688.00,0.0043
2687.00,0.0042
2686.00,0.0042
2685.00,0.0042
2684.00,0.0042
2683.00,0.0042
2682.00,0.0042
2681.00,0.0043
2680.00,0.0043
2679.00,0.0043
2678.00,0.0044
2677.00,0.0043
2676.00,0.0043
2675.00,0.0043
2674.00,0.0043
2673.00,0.0042
2672.00,0.0042
2671.00,0.0042
2670.00,0.0042
2669.00,0.0042
2668.00,0.0042
2667.00,0.0043
2666.00,0.0043
2665.00,0.0044
2664.00,0.0045
2663.00,0.0046
2662.00,0.0046
2661.00,0.0047
2660.00,0.0047
2659.00,0.0046
2658.00,0.0046
2657.00,0.0046
2656.00,0.0045
2655.00,0.0045
2654.00,0.0044
2653.00,0.0043
2652.00,0.0043
2651.00,0.0043
2650.00,0.0042
2649.00,0.0042
2648.00,0.0041
2647.00,0.0041
2646.00,0.0040
2645.00,0.0040
2644.00,0.0040
2643.00,0.0039
2642.00,0.0039
2641.00,0.0038
2640.00,0.0037
2639.00,0.0037
2638.00,0.0036
2637.00,0.0036
2636.00,0.0036
2635.00,0.0036
2634.00,0.0036
2633.00,0.0037
2632.00,0.0037
2631.00,0.0037
2630.00,0.0037
2629.00,0.0037
2628.00,0.0037
2627.00,0.0037
2626.00,0.0038
2625.00,0.0038
2624.00,0.0038
2623.00,0.0039
2622.00,0.0039
2621.00,0.0039
2620.00,0.0039
2619.00,0.0038
2618.00,0.0038
2617.00,0.0038
2616.00,0.0038
2615.00,0.0038
2614.00,0.0038
2613.00,0.0037
2612.00,0.0037
2611.00,0.0036
2610.00,0.0036
2609.00,0.0035
2608.00,0.0034
2607.00,0.0034
2606.00,0.0034
2605.00,0.0033
2604.00,0.0033
2603.00,0.0032
2602.00,0.0031
2601.00,0.0031
2600.00,0.0030
2599.00,0.0030
2598.00,0.0029
2597.00,0.0029
2596.00,0.0029
2595.00,0.0030
2594.00,0.0031
2593.00,0.0032
2592.00,0.0032
2591.00,0.0033
2590.00,0.0034
2589.00,0.0034
2588.00,0.0035
2587.00,0.0035
2586.00,0.0035
2585.00,0.0037
2584.00,0.0038
2583.00,0.0038
2582.00,0.0038
2581.00,0.0037
2580.00,0.0036
2579.00,0.0035
2578.00,0.0034
2577.00,0.0033
2576.00,0.0033
2575.00,0.0032
2574.00,0.0031
2573.00,0.0029
2572.00,0.0028
2571.00,0.0027
2570.00,0.0026
2569.00,0.0025
2568.00,0.0024
2567.00,0.0023
2566.00,0.0023
2565.00,0.0022
2564.00,0.0022
2563.00,0.0022
2562.00,0.0022
2561.00,0.0022
2560.00,0.0022
2559.00,0.0022
2558.00,0.0021
2557.00,0.0020
2556.00,0.0020
2555.00,0.0020
2554.00,0.0020
2553.00,0.0020
2552.00,0.0020
2551.00,0.0019
2550.00,0.0019
2549.00,0.0018
2548.00,0.0018
2547.00,0.0017
2546.00,0.0017
2545.00,0.0016
2544.00,0.0016
2543.00,0.0016
2542.00,0.0016
2541.00,0.0015
2540.00,0.0014
2539.00,0.0014
2538.00,0.0014
2537.00,0.0014
2536.00,0.0014
2535.00,0.0015
2534.00,0.0015
2533.00,0.0014
2532.00,0.0013
2531.00,0.0012
2530.00,0.0012
2529.00,0.0013
2528.00,0.0013
2527.00,0.0012
2526.00,0.0012
2525.00,0.0012
2524.00,0.0012
2523.00,0.0012
2522.00,0.0011
2521.00,0.0011
2520.00,0.0011
2519.00,0.0010
2518.00,0.0009
2517.00,0.0009
2516.00,0.0008
2515.00,0.0008
2514.00,0.0008
2513.00,0.0008
2512.00,0.0008
2511.00,0.0008
2510.00,0.0008
2509.00,0.0008
2508.00,0.0008
2507.00,0.0008
2506.00,0.0008
2505.00,0.0008
2504.00,0.0008
2503.00,0.0007
2502.00,0.0007
2501.00,0.0007
2500.00,0.0008
2499.00,0.0008
2498.00,0.0008
2497.00,0.0008
2496.00,0.0008
2495.00,0.0008
2494.00,0.0008
2493.00,0.0009
2492.00,0.0009
2491.00,0.0008
2490.00,0.0008
2489.00,0.0008
2488.00,0.0009
2487.00,0.0009
2486.00,0.0008
2485.00,0.0008
2484.00,0.0007
2483.00,0.0007
2482.00,0.0007
2481.00,0.0007
2480.00,0.0007
2479.00,0.0008
2478.00,0.0008
2477.00,0.0008
2476.00,0.0008
2475.00,0.0008
2474.00,0.0008
2473.00,0.0008
2472.00,0.0008
2471.00,0.0007
2470.00,0.0007
2469.00,0.0006
2468.00,0.0005
2467.00,0.0006
2466.00,0.0006
2465.00,0.0007
2464.00,0.0007
2463.00,0.0007
2462.00,0.0007
2461.00,0.0007
2460.00,0.0008
2459.00,0.0009
2458.00,0.0009
2457.00,0.0010
2456.00,0.0009
2455.00,0.0009
2454.00,0.0009
2453.00,0.0009
2452.00,0.0010
2451.00,0.0010
2450.00,0.0010
2449.00,0.0009
2448.00,0.0010
2447.00,0.0011
2446.00,0.0011
2445.00,0.0011
2444.00,0.0011
2443.00,0.0010
2442.00,0.0009
2441.00,0.0009
2440.00,0.0008
2439.00,0.0008
2438.00,0.0008
2437.00,0.0009
2436.00,0.0009
2435.00,0.0009
2434.00,0.0009
2433.00,0.0010
2432.00,0.0010
2431.00,0.0011
2430.00,0.0011
2429.00,0.0010
2428.00,0.0010
2427.00,0.0009
2426.00,0.0009
2425.00,0.0009
2424.00,0.0010
2423.00,0.0009
2422.00,0.0009
2421.00,0.0009
2420.00,0.0009
2419.00,0.0009
2418.00,0.0009
2417.00,0.0009
2416.00,0.0009
2415.00,0.0009
2414.00,0.0010
2413.00,0.0010
2412.00,0.0010
2411.00,0.0010
2410.00,0.0009
2409.00,0.0009
2408.00,0.0008
2407.00,0.0008
2406.00,0.0007
2405.00,0.0007
2404.00,0.0007
2403.00,0.0008
2402.00,0.0008
2401.00,0.0007
2400.00,0.0007
2399.00,0.0007
2398.00,0.0006
2397.00,0.0006
2396.00,0.0005
2395.00,0.0005
2394.00,0.0005
2393.00,0.0005
2392.00,0.0005
2391.00,0.0006
2390.00,0.0006
2389.00,0.0006
2388.00,0.0006
2387.00,0.0006
2386.00,0.0006
2385.00,0.0005
2384.00,0.0005
2383.00,0.0004
2382.00,0.0003
2381.00,0.0003
2380.00,0.0002
2379.00,0.0002
2378.00,0.0001
2377.00,0.0000
2376.00,0.0000
2375.00,-0.0000
2374.00,-0.0000
2373.00,-0.0000
2372.00,0.0000
2371.00,0.0001
2370.00,0.0002
2369.00,0.0002
2368.00,0.0002
2367.00,0.0001
2366.00,0.0001
2365.00,0.0000
2364.00,0.0000
2363.00,0.0000
2362.00,0.0001
2361.00,0.0001
2360.00,0.0001
2359.00,0.0001
2358.00,0.0002
2357.00,0.0002
2356.00,0.0002
2355.00,0.0003
2354.00,0.0003
2353.00,0.0003
2352.00,0.0002
2351.00,0.0002
2350.00,0.0002
2349.00,0.0002
2348.00,0.0002
2347.00,0.0003
2346.00,0.0003
2345.00,0.0003
2344.00,0.0004
2343.00,0.0003
2342.00,0.0004
2341.00,0.0004
2340.00,0.0005
2339.00,0.0005
2338.00,0.0006
2337.00,0.0006
2336.00,0.0006
2335.00,0.0006
2334.00,0.0006
2333.00,0.0005
2332.00,0.0005
2331.00,0.0005
2330.00,0.0005
2329.00,0.0006
2328.00,0.0008
2327.00,0.0011
2326.00,0.0015
2325.00,0.0018
2324.00,0.0020
2323.00,0.0020
2322.00,0.0017
2321.00,0.0015
2320.00,0.0013
2319.00,0.0012
2318.00,0.0011
2317.00,0.0010
2316.00,0.0010
2315.00,0.0009
2314.00,0.0009
2313.00,0.0008
2312.00,0.0007
2311.00,0.0006
2310.00,0.0006
2309.00,0.0006
2308.00,0.0006
2307.00,0.0007
2306.00,0.0007
2305.00,0.0007
2304.00,0.0008
2303.00,0.0008
2302.00,0.0007
2301.00,0.0007
2300.00,0.0006
2299.00,0.0006
2298.00,0.0006
2297.00,0.0007
2296.00,0.0009
2295.00,0.0010
2294.00,0.0011
2293.00,0.0012
2292.00,0.0013
2291.00,0.0014
2290.00,0.0015
2289.00,0.0016
2288.00,0.0017
2287.00,0.0017
2286.00,0.0017
2285.00,0.0018
2284.00,0.0018
2283.00,0.0018
2282.00,0.0018
2281.00,0.0018
2280.00,0.0017
2279.00,0.0015
2278.00,0.0014
2277.00,0.0013
2276.00,0.0013
2275.00,0.0013
2274.00,0.0014
2273.00,0.0015
2272.00,0.0015
2271.00,0.0015
2270.00,0.0014
2269.00,0.0012
2268.00,0.0011
2267.00,0.0010
2266.00,0.0009
2265.00,0.0009
2264.00,0.0010
2263.00,0.0010
2262.00,0.0010
2261.00,0.0010
2260.00,0.0010
2259.00,0.0010
2258.00,0.0010
2257.00,0.0010
2256.00,0.0010
2255.00,0.0008
2254.00,0.0006
2253.00,0.0004
2252.00,0.0003
2251.00,0.0003
2250.00,0.0004
2249.00,0.0005
2248.00,0.0006
2247.00,0.0006
2246.00,0.0006
2245.00,0.0005
2244.00,0.0005
2243.00,0.0006
2242.00,0.0006
2241.00,0.0006
2240.00,0.0007
2239.00,0.0008
2238.00,0.0008
2237.00,0.0008
2236.00,0.0008
2235.00,0.0008
2234.00,0.0008
2233.00,0.0008
2232.00,0.0009
2231.00,0.0009
2230.00,0.0009
2229.00,0.0009
2228.00,0.0007
2227.00,0.0005
2226.00,0.0004
2225.00,0.0003
2224.00,0.0004
2223.00,0.0005
2222.00,0.0006
2221.00,0.0006
2220.00,0.0005
2219.00,0.0004
2218.00,0.0004
2217.00,0.0005
2216.00,0.0006
2215.00,0.0006
2214.00,0.0006
2213.00,0.0006
2212.00,0.0005
2211.00,0.0003
2210.00,0.0001
2209.00,-0.0001
2208.00,-0.0002
2207.00,-0.0001
2206.00,0.0001
2205.00,0.0005
2204.00,0.0008
2203.00,0.0009
2202.00,0.0009
2201.00,0.0009
2200.00,0.0009
2199.00,0.0009
2198.00,0.0008
2197.00,0.0008
2196.00,0.0008
2195.00,0.0008
2194.00,0.0008
2193.00,0.0009
2192.00,0.0009
2191.00,0.0009
2190.00,0.0011
2189.00,0.0012
2188.00,0.0013
2187.00,0.0013
2186.00,0.0011
2185.00,0.0009
2184.00,0.0006
2183.00,0.0004
2182.00,0.0002
2181.00,0.0002
2180.00,0.0004
2179.00,0.0004
2178.00,0.0003
2177.00,0.0001
2176.00,-0.0002
2175.00,-0.0003
2174.00,-0.0002
2173.00,-0.0000
2172.00,0.0002
2171.00,0.0004
2170.00,0.0006
2169.00,0.0009
2168.00,0.0010
2167.00,0.0011
2166.00,0.0010
2165.00,0.0010
2164.00,0.0012
2163.00,0.0016
2162.00,0.0017
2161.00,0.0012
2160.00,-0.0001
2159.00,-0.0018
2158.00,-0.0032
2157.00,-0.0037
2156.00,-0.0036
2155.00,-0.0033
2154.00,-0.0029
2153.00,-0.0025
2152.00,-0.0022
2151.00,-0.0021
2150.00,-0.0020
2149.00,-0.0019
2148.00,-0.0019
2147.00,-0.0018
2146.00,-0.0018
2145.00,-0.0017
2144.00,-0.0016
2143.00,-0.0015
2142.00,-0.0015
2141.00,-0.0016
2140.00,-0.0018
2139.00,-0.0018
2138.00,-0.0018
2137.00,-0.0019
2136.00,-0.0020
2135.00,-0.0023
2134.00,-0.0025
2133.00,-0.0025
2132.00,-0.0022
2131.00,-0.0019
2130.00,-0.0016
2129.00,-0.0014
2128.00,-0.0012
2127.00,-0.0011
2126.00,-0.0011
2125.00,-0.0011
2124.00,-0.0011
2123.00,-0.0009
2122.00,-0.0007
2121.00,-0.0005
2120.00,-0.0004
2119.00,-0.0004
2118.00,-0.0003
2117.00,-0.0002
2116.00,-0.0001
2115.00,-0.0001
2114.00,-0.0000
2113.00,0.0000
2112.00,0.0001
2111.00,0.0001
2110.00,0.0000
2109.00,-0.0000
2108.00,-0.0001
2107.00,-0.0002
2106.00,-0.0002
2105.00,-0.0001
2104.00,-0.0001
2103.00,-0.0002
2102.00,-0.0002
2101.00,-0.0002
2100.00,-0.0001
2099.00,-0.0001
2098.00,-0.0001
2097.00,-0.0001
2096.00,-0.0002
2095.00,-0.0003
2094.00,-0.0004
2093.00,-0.0005
2092.00,-0.0005
2091.00,-0.0004
2090.00,-0.0003
2089.00,-0.0002
2088.00,-0.0001
2087.00,-0.0002
2086.00,-0.0002
2085.00,-0.0002
2084.00,-0.0001
2083.00,0.0000
2082.00,0.0001
2081.00,0.0001
2080.00,0.0002
2079.00,0.0003
2078.00,0.0003
2077.00,0.0002
2076.00,0.0001
2075.00,-0.0001
2074.00,-0.0003
2073.00,-0.0003
2072.00,-0.0002
2071.00,0.0000
2070.00,0.0001
2069.00,0.0001
2068.00,-0.0000
2067.00,-0.0001
2066.00,-0.0001
2065.00,-0.0001
2064.00,-0.0001
2063.00,-0.0002
2062.00,-0.0003
2061.00,-0.0004
2060.00,-0.0006
2059.00,-0.0007
2058.00,-0.0006
2057.00,-0.0004
2056.00,-0.0003
2055.00,-0.0002
2054.00,-0.0001
2053.00,0.0001
2052.00,0.0005
2051.00,0.0008
2050.00,0.0008
2049.00,0.0007
2048.00,0.0004
2047.00,0.0001
2046.00,-0.0001
2045.00,-0.0000
2044.00,0.0003
2043.00,0.0008
2042.00,0.0010
2041.00,0.0008
2040.00,0.0004
2039.00,0.0001
2038.00,-0.0001
2037.00,-0.0002
2036.00,-0.0002
2035.00,-0.0002
2034.00,-0.0002
2033.00,-0.0003
2032.00,-0.0005
2031.00,-0.0009
2030.00,-0.0012
2029.00,-0.0013
2028.00,-0.0012
2027.00,-0.0011
2026.00,-0.0009
2025.00,-0.0007
2024.00,-0.0006
2023.00,-0.0007
2022.00,-0.0008
2021.00,-0.0009
2020.00,-0.0011
2019.00,-0.0012
2018.00,-0.0012
2017.00,-0.0011
2016.00,-0.0010
2015.00,-0.0010
2014.00,-0.0010
2013.00,-0.0011
2012.00,-0.0013
2011.00,-0.0015
2010.00,-0.0016
2009.00,-0.0015
2008.00,-0.0015
2007.00,-0.0015
2006.00,-0.0016
2005.00,-0.0017
2004.00,-0.0018
2003.00,-0.0018
2002.00,-0.0017
2001.00,-0.0015
2000.00,-0.0013
1999.00,-0.0013
1998.00,-0.0014
1997.00,-0.0016
1996.00,-0.0018
1995.00,-0.0019
1994.00,-0.0018
1993.00,-0.0015
1992.00,-0.0012
1991.00,-0.0010
1990.00,-0.0008
1989.00,-0.0007
1988.00,-0.0006
1987.00,-0.0007
1986.00,-0.0008
1985.00,-0.0008
1984.00,-0.0006
1983.00,-0.0003
1982.00,-0.0000
1981.00,0.0002
1980.00,0.0002
1979.00,-0.0001
1978.00,-0.0007
1977.00,-0.0013
1976.00,-0.0016
1975.00,-0.0017
1974.00,-0.0016
1973.00,-0.0015
1972.00,-0.0015
1971.00,-0.0017
1970.00,-0.0018
1969.00,-0.0018
1968.00,-0.0017
1967.00,-0.0015
1966.00,-0.0013
1965.00,-0.0012
1964.00,-0.0012
1963.00,-0.0013
1962.00,-0.0016
1961.00,-0.0018
1960.00,-0.0019
1959.00,-0.0019
1958.00,-0.0019
1957.00,-0.0018
1956.00,-0.0018
1955.00,-0.0018
1954.00,-0.0018
1953.00,-0.0018
1952.00,-0.0018
1951.00,-0.0018
1950.00,-0.0018
1949.00,-0.0019
1948.00,-0.0019
1947.00,-0.0019
1946.00,-0.0019
1945.00,-0.0019
1944.00,-0.0019
1943.00,-0.0019
1942.00,-0.0019
1941.00,-0.0018
1940.00,-0.0016
1939.00,-0.0014
1938.00,-0.0013
1937.00,-0.0013
1936.00,-0.0013
1935.00,-0.0014
1934.00,-0.0014
1933.00,-0.0013
1932.00,-0.0011
1931.00,-0.0010
1930.00,-0.0010
1929.00,-0.0009
1928.00,-0.0009
1927.00,-0.0008
1926.00,-0.0008
1925.00,-0.0008
1924.00,-0.0008
1923.00,-0.0008
1922.00,-0.0008
1921.00,-0.0007
1920.00,-0.0007
1919.00,-0.0006
1918.00,-0.0006
1917.00,-0.0005
1916.00,-0.0005
1915.00,-0.0005
1914.00,-0.0005
1913.00,-0.0005
1912.00,-0.0004
1911.00,-0.0004
1910.00,-0.0005
1909.00,-0.0006
1908.00,-0.0006
1907.00,-0.0005
1906.00,-0.0005
1905.00,-0.0004
1904.00,-0.0003
1903.00,-0.0003
1902.00,-0.0004
1901.00,-0.0004
1900.00,-0.0004
1899.00,-0.0004
1898.00,-0.0004
1897.00,-0.0004
1896.00,-0.0003
1895.00,-0.0002
1894.00,-0.0001
1893.00,-0.0001
1892.00,-0.0000
1891.00,-0.0001
1890.00,-0.0002
1889.00,-0.0003
1888.00,-0.0004
1887.00,-0.0004
1886.00,-0.0004
1885.00,-0.0003
1884.00,-0.0003
1883.00,-0.0003
1882.00,-0.0003
1881.00,-0.0003
1880.00,-0.0003
1879.00,-0.0003
1878.00,-0.0004
1877.00,-0.0003
1876.00,-0.0003
1875.00,-0.0002
1874.00,-0.0002
1873.00,-0.0002
1872.00,-0.0002
1871.00,-0.0002
1870.00,-0.0001
1869.00,-0.0001
1868.00,-0.0001
1867.00,-0.0002
1866.00,-0.0002
1865.00,-0.0003
1864.00,-0.0003
1863.00,-0.0002
1862.00,-0.0002
1861.00,-0.0001
1860.00,-0.0001
1859.00,-0.0002
1858.00,-0.0002
1857.00,-0.0003
1856.00,-0.0003
1855.00,-0.0003
1854.00,-0.0003
1853.00,-0.0002
1852.00,-0.0002
1851.00,-0.0001
1850.00,-0.0001
1849.00,0.0000
1848.00,0.0001
1847.00,0.0001
1846.00,0.0001
1845.00,0.0001
1844.00,0.0000
1843.00,0.0000
1842.00,0.0000
1841.00,-0.0000
1840.00,-0.0000
1839.00,-0.0000
1838.00,0.0000
1837.00,0.0000
1836.00,0.0001
1835.00,0.0000
1834.00,0.0000
1833.00,0.0000
1832.00,0.0000
1831.00,0.0001
1830.00,0.0001
1829.00,0.0001
1828.00,0.0001
1827.00,0.0000
1826.00,-0.0000
1825.00,-0.0000
1824.00,0.0001
1823.00,0.0002
1822.00,0.0002
1821.00,0.0002
1820.00,0.0002
1819.00,0.0000
1818.00,-0.0001
1817.00,-0.0003
1816.00,-0.0003
1815.00,-0.0003
1814.00,-0.0002
1813.00,-0.0002
1812.00,-0.0001
1811.00,-0.0000
1810.00,0.0001
1809.00,0.0001
1808.00,0.0002
1807.00,0.0002
1806.00,0.0002
1805.00,0.0002
1804.00,0.0002
1803.00,0.0002
1802.00,0.0002
1801.00,0.0002
1800.00,0.0002
1799.00,0.0003
1798.00,0.0003
1797.00,0.0003
1796.00,0.0003
1795.00,0.0003
1794.00,0.0002
1793.00,0.0002
1792.00,0.0003
1791.00,0.0003
1790.00,0.0004
1789.00,0.0005
1788.00,0.0005
1787.00,0.0004
1786.00,0.0004
1785.00,0.0004
1784.00,0.0005
1783.00,0.0005
1782.00,0.0005
1781.00,0.0005
1780.00,0.0006
1779.00,0.0006
1778.00,0.0006
1777.00,0.0006
1776.00,0.0006
1775.00,0.0006
1774.00,0.0007
1773.00,0.0007
1772.00,0.0007
1771.00,0.0007
1770.00,0.0007
1769.00,0.0007
1768.00,0.0007
1767.00,0.0008
1766.00,0.0008
1765.00,0.0008
1764.00,0.0008
1763.00,0.0008
1762.00,0.0008
1761.00,0.0008
1760.00,0.0008
1759.00,0.0009
1758.00,0.0009
1757.00,0.0009
1756.00,0.0009
1755.00,0.0010
1754.00,0.0010
1753.00,0.0011
1752.00,0.0011
1751.00,0.0011
1750.00,0.0011
1749.00,0.0011
1748.00,0.0012
1747.00,0.0013
1746.00,0.0013
1745.00,0.0013
1744.00,0.0013
1743.00,0.0013
1742.00,0.0013
1741.00,0.0013
1740.00,0.0013
1739.00,0.0013
1738.00,0.0013
1737.00,0.0013
1736.00,0.0014
1735.00,0.0014
1734.00,0.0015
1733.00,0.0016
1732.00,0.0016
1731.00,0.0016
1730.00,0.0015
1729.00,0.0015
1728.00,0.0016
1727.00,0.0016
1726.00,0.0016
1725.00,0.0017
1724.00,0.0017
1723.00,0.0018
1722.00,0.0018
1721.00,0.0018
1720.00,0.0019
1719.00,0.0018
1718.00,0.0018
1717.00,0.0018
1716.00,0.0018
1715.00,0.0018
1714.00,0.0017
1713.00,0.0017
1712.00,0.0017
1711.00,0.0017
1710.00,0.0017
1709.00,0.0017
1708.00,0.0017
1707.00,0.0017
1706.00,0.0017
1705.00,0.0018
1704.00,0.0018
1703.00,0.0019
1702.00,0.0019
1701.00,0.0019
1700.00,0.0019
1699.00,0.0019
1698.00,0.0020
1697.00,0.0020
1696.00,0.0020
1695.00,0.0020
1694.00,0.0020
1693.00,0.0020
1692.00,0.0020
1691.00,0.0020
1690.00,0.0021
1689.00,0.0021
1688.00,0.0021
1687.00,0.0021
1686.00,0.0021
1685.00,0.0021
1684.00,0.0021
1683.00,0.0021
1682.00,0.0022
1681.00,0.0022
1680.00,0.0022
1679.00,0.0022
1678.00,0.0022
1677.00,0.0023
1676.00,0.0023
1675.00,0.0024
1674.00,0.0024
1673.00,0.0023
1672.00,0.0023
1671.00,0.0023
1670.00,0.0022
1669.00,0.0023
1668.00,0.0024
1667.00,0.0025
1666.00,0.0025
1665.00,0.0024
1664.00,0.0024
1663.00,0.0024
1662.00,0.0025
1661.00,0.0026
1660.00,0.0026
1659.00,0.0026
1658.00,0.0026
1657.00,0.0027
1656.00,0.0027
1655.00,0.0027
1654.00,0.0027
1653.00,0.0027
1652.00,0.0029
1651.00,0.0029
1650.00,0.0030
1649.00,0.0030
1648.00,0.0031
1647.00,0.0031
1646.00,0.0032
1645.00,0.0032
1644.00,0.0033
1643.00,0.0033
1642.00,0.0034
1641.00,0.0035
1640.00,0.0037
1639.00,0.0038
1638.00,0.0038
1637.00,0.0038
1636.00,0.0038
1635.00,0.0037
1634.00,0.0035
1633.00,0.0035
1632.00,0.0035
1631.00,0.0035
1630.00,0.0034
1629.00,0.0034
1628.00,0.0034
1627.00,0.0033
1626.00,0.0033
1625.00,0.0033
1624.00,0.0033
1623.00,0.0033
1622.00,0.0032
1621.00,0.0032
1620.00,0.0032
1619.00,0.0031
1618.00,0.0031
1617.00,0.0030
1616.00,0.0030
1615.00,0.0031
1614.00,0.0031
1613.00,0.0031
1612.00,0.0031
1611.00,0.0032
1610.00,0.0032
1609.00,0.0031
1608.00,0.0031
1607.00,0.0031
1606.00,0.0030
1605.00,0.0030
1604.00,0.0030
1603.00,0.0030
1602.00,0.0030
1601.00,0.0030
1600.00,0.0030
1599.00,0.0030
1598.00,0.0030
1597.00,0.0030
1596.00,0.0030
1595.00,0.0030
1594.00,0.0030
1593.00,0.0030
1592.00,0.0030
1591.00,0.0030
1590.00,0.0030
1589.00,0.0030
1588.00,0.0030
1587.00,0.0030
1586.00,0.0031
1585.00,0.0031
1584.00,0.0031
1583.00,0.0031
1582.00,0.0031
1581.00,0.0032
1580.00,0.0032
1579.00,0.0033
1578.00,0.0033
1577.00,0.0033
1576.00,0.0034
1575.00,0.0034
1574.00,0.0034
1573.00,0.0034
1572.00,0.0035
1571.00,0.0035
1570.00,0.0035
1569.00,0.0035
1568.00,0.0035
1567.00,0.0035
1566.00,0.0035
1565.00,0.0035
1564.00,0.0036
1563.00,0.0036
1562.00,0.0036
1561.00,0.0037
1560.00,0.0037
1559.00,0.0036
1558.00,0.0035
1557.00,0.0035
1556.00,0.0035
1555.00,0.0036
1554.00,0.0036
1553.00,0.0036
1552.00,0.0037
1551.00,0.0037
1550.00,0.0037
1549.00,0.0037
1548.00,0.0038
1547.00,0.0038
1546.00,0.0038
1545.00,0.0038
1544.00,0.0038
1543.00,0.0038
1542.00,0.0038
1541.00,0.0038
1540.00,0.0038
1539.00,0.0038
1538.00,0.0037
1537.00,0.0037
1536.00,0.0037
1535.00,0.0037
1534.00,0.0036
1533.00,0.0036
1532.00,0.0036
1531.00,0.0035
1530.00,0.0035
1529.00,0.0036
1528.00,0.0037
1527.00,0.0038
1526.00,0.0038
1525.00,0.0039
1524.00,0.0040
1523.00,0.0040
1522.00,0.0041
1521.00,0.0041
1520.00,0.0041
1519.00,0.0041
1518.00,0.0041
1517.00,0.0042
1516.00,0.0043
1515.00,0.0043
1514.00,0.0043
1513.00,0.0043
1512.00,0.0044
1511.00,0.0044
1510.00,0.0044
1509.00,0.0045
1508.00,0.0046
1507.00,0.0048
1506.00,0.0049
1505.00,0.0051
1504.00,0.0053
1503.00,0.0054
1502.00,0.0055
1501.00,0.0058
1500.00,0.0060
1499.00,0.0062
1498.00,0.0064
1497.00,0.0067
1496.00,0.0070
1495.00,0.0073
1494.00,0.0076
1493.00,0.0079
1492.00,0.0082
1491.00,0.0085
1490.00,0.0088
1489.00,0.0093
1488.00,0.0098
1487.00,0.0102
1486.00,0.0107
1485.00,0.0113
1484.00,0.0119
1483.00,0.0126
1482.00,0.0134
1481.00,0.0145
1480.00,0.0157
1479.00,0.0169
1478.00,0.0184
1477.00,0.0205
1476.00,0.0230
1475.00,0.0261
1474.00,0.0303
1473.00,0.0363
1472.00,0.0433
1471.00,0.0500
1470.00,0.0565
1469.00,0.0633
1468.00,0.0707
1467.00,0.0789
1466.00,0.0882
1465.00,0.0983
1464.00,0.1070
1463.00,0.1129
1462.00,0.1165
1461.00,0.1188
1460.00,0.1203
1459.00,0.1211
1458.00,0.1215
1457.00,0.1214
1456.00,0.1205
1455.00,0.1190
1454.00,0.1173
1453.00,0.1150
1452.00,0.1117
1451.00,0.1074
1450.00,0.1019
1449.00,0.0945
1448.00,0.0853
1447.00,0.0757
1446.00,0.0672
1445.00,0.0601
1444.00,0.0540
1443.00,0.0491
1442.00,0.0454
1441.00,0.0429
1440.00,0.0414
1439.00,0.0409
1438.00,0.0412
1437.00,0.0417
1436.00,0.0411
1435.00,0.0389
1434.00,0.0353
1433.00,0.0309
1432.00,0.0263
1431.00,0.0221
1430.00,0.0189
1429.00,0.0166
1428.00,0.0150
1427.00,0.0140
1426.00,0.0133
1425.00,0.0126
1424.00,0.0120
1423.00,0.0116
1422.00,0.0113
1421.00,0.0111
1420.00,0.0107
1419.00,0.0105
1418.00,0.0103
1417.00,0.0102
1416.00,0.0100
1415.00,0.0100
1414.00,0.0100
1413.00,0.0098
1412.00,0.0097
1411.00,0.0096
1410.00,0.0096
1409.00,0.0096
1408.00,0.0095
1407.00,0.0096
1406.00,0.0096
1405.00,0.0096
1404.00,0.0096
1403.00,0.0096
1402.00,0.0098
1401.00,0.0100
1400.00,0.0101
1399.00,0.0102
1398.00,0.0104
1397.00,0.0106
1396.00,0.0108
1395.00,0.0112
1394.00,0.0117
1393.00,0.0122
1392.00,0.0128
1391.00,0.0136
1390.00,0.0146
1389.00,0.0160
1388.00,0.0181
1387.00,0.0213
1386.00,0.0256
1385.00,0.0313
1384.00,0.0391
1383.00,0.0503
1382.00,0.0656
1381.00,0.0857
1380.00,0.1111
1379.00,0.1405
1378.00,0.1698
1377.00,0.1922
1376.00,0.2009
1375.00,0.1917
1374.00,0.1674
1373.00,0.1375
1372.00,0.1100
1371.00,0.0873
1370.00,0.0693
1369.00,0.0558
1368.00,0.0466
1367.00,0.0409
1366.00,0.0378
1365.00,0.0366
1364.00,0.0369
1363.00,0.0385
1362.00,0.0408
1361.00,0.0434
1360.00,0.0452
1359.00,0.0458
1358.00,0.0447
1357.00,0.0420
1356.00,0.0381
1355.00,0.0338
1354.00,0.0296
1353.00,0.0261
1352.00,0.0232
1351.00,0.0209
1350.00,0.0190
1349.00,0.0175
1348.00,0.0162
1347.00,0.0152
1346.00,0.0143
1345.00,0.0135
1344.00,0.0128
1343.00,0.0123
1342.00,0.0118
1341.00,0.0115
1340.00,0.0112
1339.00,0.0110
1338.00,0.0109
1337.00,0.0108
1336.00,0.0109
1335.00,0.0111
1334.00,0.0115
1333.00,0.0119
1332.00,0.0124
1331.00,0.0128
1330.00,0.0130
1329.00,0.0128
1328.00,0.0125
1327.00,0.0119
1326.00,0.0113
1325.00,0.0106
1324.00,0.0100
1323.00,0.0095
1322.00,0.0091
1321.00,0.0088
1320.00,0.0086
1319.00,0.0084
1318.00,0.0082
1317.00,0.0081
1316.00,0.0079
1315.00,0.0078
1314.00,0.0078
1313.00,0.0078
1312.00,0.0079
1311.00,0.0081
1310.00,0.0084
1309.00,0.0090
1308.00,0.0097
1307.00,0.0105
1306.00,0.0113
1305.00,0.0119
1304.00,0.0122
1303.00,0.0121
1302.00,0.0118
1301.00,0.0116
1300.00,0.0116
1299.00,0.0117
1298.00,0.0119
1297.00,0.0119
1296.00,0.0119
1295.00,0.0117
1294.00,0.0113
1293.00,0.0109
1292.00,0.0104
1291.00,0.0099
1290.00,0.0094
1289.00,0.0090
1288.00,0.0087
1287.00,0.0084
1286.00,0.0081
1285.00,0.0079
1284.00,0.0077
1283.00,0.0075
1282.00,0.0074
1281.00,0.0073
1280.00,0.0072
1279.00,0.0071
1278.00,0.0070
1277.00,0.0069
1276.00,0.0069
1275.00,0.0069
1274.00,0.0069
1273.00,0.0069
1272.00,0.0069
1271.00,0.0069
1270.00,0.0070
1269.00,0.0071
1268.00,0.0072
1267.00,0.0074
1266.00,0.0076
1265.00,0.0079
1264.00,0.0081
1263.00,0.0084
1262.00,0.0087
1261.00,0.0090
1260.00,0.0094
1259.00,0.0099
1258.00,0.0103
1257.00,0.0107
1256.00,0.0108
1255.00,0.0106
1254.00,0.0102
1253.00,0.0096
1252.00,0.0090
1251.00,0.0085
1250.00,0.0081
1249.00,0.0078
1248.00,0.0076
1247.00,0.0074
1246.00,0.0072
1245.00,0.0070
1244.00,0.0069
1243.00,0.0068
1242.00,0.0067
1241.00,0.0067
1240.00,0.0066
1239.00,0.0066
1238.00,0.0066
1237.00,0.0066
1236.00,0.0067
1235.00,0.0067
1234.00,0.0068
1233.00,0.0069
1232.00,0.0069
1231.00,0.0069
1230.00,0.0069
1229.00,0.0070
1228.00,0.0071
1227.00,0.0073
1226.00,0.0075
1225.00,0.0078
1224.00,0.0082
1223.00,0.0086
1222.00,0.0091
1221.00,0.0094
1220.00,0.0095
1219.00,0.0095
1218.00,0.0093
1217.00,0.0091
1216.00,0.0088
1215.00,0.0085
1214.00,0.0083
1213.00,0.0080
1212.00,0.0078
1211.00,0.0075
1210.00,0.0073
1209.00,0.0072
1208.00,0.0070
1207.00,0.0070
1206.00,0.0069
1205.00,0.0068
1204.00,0.0067
1203.00,0.0066
1202.00,0.0066
1201.00,0.0066
1200.00,0.0066
1199.00,0.0067
1198.00,0.0067
1197.00,0.0067
1196.00,0.0067
1195.00,0.0067
1194.00,0.0067
1193.00,0.0066
1192.00,0.0066
1191.00,0.0066
1190.00,0.0066
1189.00,0.0066
1188.00,0.0065
1187.00,0.0065
1186.00,0.0065
1185.00,0.0066
1184.00,0.0066
1183.00,0.0067
1182.00,0.0069
1181.00,0.0071
1180.00,0.0074
1179.00,0.0078
1178.00,0.0083
1177.00,0.0089
1176.00,0.0098
1175.00,0.0109
1174.00,0.0123
1173.00,0.0141
1172.00,0.0163
1171.00,0.0187
1170.00,0.0211
1169.00,0.0230
1168.00,0.0242
1167.00,0.0246
1166.00,0.0242
1165.00,0.0232
1164.00,0.0220
1163.00,0.0209
1162.00,0.0199
1161.00,0.0192
1160.00,0.0187
1159.00,0.0183
1158.00,0.0181
1157.00,0.0180
1156.00,0.0179
1155.00,0.0178
1154.00,0.0177
1153.00,0.0176
1152.00,0.0172
1151.00,0.0166
1150.00,0.0158
1149.00,0.0150
1148.00,0.0140
1147.00,0.0131
1146.00,0.0122
1145.00,0.0114
1144.00,0.0106
1143.00,0.0099
1142.00,0.0093
1141.00,0.0088
1140.00,0.0084
1139.00,0.0080
1138.00,0.0077
1137.00,0.0074
1136.00,0.0072
1135.00,0.0070
1134.00,0.0068
1133.00,0.0067
1132.00,0.0067
1131.00,0.0066
1130.00,0.0065
1129.00,0.0065
1128.00,0.0065
1127.00,0.0066
1126.00,0.0066
1125.00,0.0066
1124.00,0.0066
1123.00,0.0067
1122.00,0.0067
1121.00,0.0068
1120.00,0.0069
1119.00,0.0071
1118.00,0.0071
1117.00,0.0072
1116.00,0.0072
1115.00,0.0072
1114.00,0.0074
1113.00,0.0075
1112.00,0.0078
1111.00,0.0081
1110.00,0.0085
1109.00,0.0089
1108.00,0.0093
1107.00,0.0098
1106.00,0.0104
1105.00,0.0111
1104.00,0.0116
1103.00,0.0119
1102.00,0.0118
1101.00,0.0114
1100.00,0.0108
1099.00,0.0102
1098.00,0.0096
1097.00,0.0090
1096.00,0.0085
1095.00,0.0081
1094.00,0.0078
1093.00,0.0076
1092.00,0.0074
1091.00,0.0073
1090.00,0.0071
1089.00,0.0071
1088.00,0.0070
1087.00,0.0070
1086.00,0.0069
1085.00,0.0068
1084.00,0.0068
1083.00,0.0067
1082.00,0.0067
1081.00,0.0066
1080.00,0.0066
1079.00,0.0065
1078.00,0.0064
1077.00,0.0062
1076.00,0.0061
1075.00,0.0060
1074.00,0.0060
1073.00,0.0060
1072.00,0.0060
1071.00,0.0060
1070.00,0.0060
1069.00,0.0060
1068.00,0.0060
1067.00,0.0060
1066.00,0.0060
1065.00,0.0061
1064.00,0.0061
1063.00,0.0062
1062.00,0.0062
1061.00,0.0062
1060.00,0.0062
1059.00,0.0062
1058.00,0.0062
1057.00,0.0063
1056.00,0.0062
1055.00,0.0062
1054.00,0.0061
1053.00,0.0060
1052.00,0.0061
1051.00,0.0063
1050.00,0.0065
1049.00,0.0067
1048.00,0.0069
1047.00,0.0071
1046.00,0.0072
1045.00,0.0074
1044.00,0.0075
1043.00,0.0076
1042.00,0.0075
1041.00,0.0075
1040.00,0.0074
1039.00,0.0074
1038.00,0.0074
1037.00,0.0075
1036.00,0.0075
1035.00,0.0074
1034.00,0.0073
1033.00,0.0071
1032.00,0.0069
1031.00,0.0067
1030.00,0.0065
1029.00,0.0064
1028.00,0.0063
1027.00,0.0063
1026.00,0.0064
1025.00,0.0064
1024.00,0.0065
1023.00,0.0065
1022.00,0.0066
1021.00,0.0066
1020.00,0.0067
1019.00,0.0068
1018.00,0.0068
1017.00,0.0069
1016.00,0.0070
1015.00,0.0071
1014.00,0.0073
1013.00,0.0076
1012.00,0.0079
1011.00,0.0081
1010.00,0.0084
1009.00,0.0086
1008.00,0.0090
1007.00,0.0095
1006.00,0.0101
1005.00,0.0110
1004.00,0.0122
1003.00,0.0140
1002.00,0.0163
1001.00,0.0192
1000.00,0.0221
999.00,0.0244
998.00,0.0254
997.00,0.0248
996.00,0.0227
995.00,0.0198
994.00,0.0168
993.00,0.0143
992.00,0.0123
991.00,0.0110
990.00,0.0101
989.00,0.0095
988.00,0.0092
987.00,0.0090
986.00,0.0090
985.00,0.0091
984.00,0.0095
983.00,0.0102
982.00,0.0112
981.00,0.0126
980.00,0.0145
979.00,0.0170
978.00,0.0200
977.00,0.0234
976.00,0.0270
975.00,0.0303
974.00,0.0325
973.00,0.0331
972.00,0.0317
971.00,0.0286
970.00,0.0247
969.00,0.0208
968.00,0.0175
967.00,0.0150
966.00,0.0131
965.00,0.0118
964.00,0.0108
963.00,0.0101
962.00,0.0095
961.00,0.0089
960.00,0.0085
959.00,0.0081
958.00,0.0079
957.00,0.0078
956.00,0.0078
955.00,0.0077
954.00,0.0075
953.00,0.0073
952.00,0.0072
951.00,0.0072
950.00,0.0072
949.00,0.0072
948.00,0.0072
947.00,0.0073
946.00,0.0074
945.00,0.0077
944.00,0.0080
943.00,0.0084
942.00,0.0088
941.00,0.0091
940.00,0.0091
939.00,0.0088
938.00,0.0083
937.00,0.0077
936.00,0.0071
935.00,0.0066
934.00,0.0063
933.00,0.0061
932.00,0.0059
931.00,0.0058
930.00,0.0058
929.00,0.0057
928.00,0.0057
927.00,0.0057
926.00,0.0057
925.00,0.0056
924.00,0.0056
923.00,0.0055
922.00,0.0055
921.00,0.0055
920.00,0.0056
919.00,0.0057
918.00,0.0058
917.00,0.0058
916.00,0.0057
915.00,0.0058
914.00,0.0059
913.00,0.0061
912.00,0.0063
911.00,0.0066
910.00,0.0069
909.00,0.0072
908.00,0.0075
907.00,0.0080
906.00,0.0087
905.00,0.0098
904.00,0.0112
903.00,0.0132
902.00,0.0153
901.00,0.0172
900.00,0.0184
899.00,0.0186
898.00,0.0177
897.00,0.0160
896.00,0.0139
895.00,0.0119
894.00,0.0103
893.00,0.0091
892.00,0.0083
891.00,0.0078
890.00,0.0075
889.00,0.0073
888.00,0.0071
887.00,0.0069
886.00,0.0067
885.00,0.0066
884.00,0.0065
883.00,0.0065
882.00,0.0064
881.00,0.0064
880.00,0.0063
879.00,0.0063
878.00,0.0065
877.00,0.0066
876.00,0.0067
875.00,0.0068
874.00,0.0068
873.00,0.0067
872.00,0.0067
871.00,0.0067
870.00,0.0067
869.00,0.0067
868.00,0.0067
867.00,0.0067
866.00,0.0068
865.00,0.0069
864.00,0.0072
863.00,0.0074
862.00,0.0075
861.00,0.0076
860.00,0.0077
859.00,0.0078
858.00,0.0078
857.00,0.0078
856.00,0.0079
855.00,0.0080
854.00,0.0082
853.00,0.0084
852.00,0.0087
851.00,0.0091
850.00,0.0095
849.00,0.0100
848.00,0.0106
847.00,0.0115
846.00,0.0130
845.00,0.0152
844.00,0.0182
843.00,0.0216
842.00,0.0243
841.00,0.0249
840.00,0.0232
839.00,0.0199
838.00,0.0164
837.00,0.0137
836.00,0.0120
835.00,0.0110
834.00,0.0103
833.00,0.0099
832.00,0.0096
831.00,0.0095
830.00,0.0094
829.00,0.0093
828.00,0.0092
827.00,0.0092
826.00,0.0092
825.00,0.0091
824.00,0.0090
823.00,0.0088
822.00,0.0087
821.00,0.0089
820.00,0.0091
819.00,0.0095
818.00,0.0100
817.00,0.0107
816.00,0.0117
815.00,0.0131
814.00,0.0148
813.00,0.0169
812.00,0.0191
811.00,0.0210
810.00,0.0223
809.00,0.0229
808.00,0.0226
807.00,0.0213
806.00,0.0194
805.00,0.0172
804.00,0.0151
803.00,0.0134
802.00,0.0121
801.00,0.0112
800.00,0.0107
799.00,0.0103
798.00,0.0099
797.00,0.0096
796.00,0.0093
795.00,0.0090
794.00,0.0089
793.00,0.0086
792.00,0.0083
791.00,0.0079
790.00,0.0076
789.00,0.0073
788.00,0.0071
787.00,0.0069
786.00,0.0067
785.00,0.0065
784.00,0.0063
783.00,0.0063
782.00,0.0062
781.00,0.0061
780.00,0.0060
779.00,0.0059
778.00,0.0059
777.00,0.0059
776.00,0.0058
775.00,0.0057
774.00,0.0057
773.00,0.0056
772.00,0.0057
771.00,0.0057
770.00,0.0058
769.00,0.0059
768.00,0.0060
767.00,0.0061
766.00,0.0061
765.00,0.0060
764.00,0.0059
763.00,0.0058
762.00,0.0059
761.00,0.0060
760.00,0.0062
759.00,0.0063
758.00,0.0064
757.00,0.0066
756.00,0.0067
755.00,0.0067
754.00,0.0066
753.00,0.0065
752.00,0.0065
751.00,0.0067
750.00,0.0069
749.00,0.0071
748.00,0.0072
747.00,0.0074
746.00,0.0075
745.00,0.0078
744.00,0.0080
743.00,0.0083
742.00,0.0086
741.00,0.0089
740.00,0.0091
739.00,0.0094
738.00,0.0097
737.00,0.0099
736.00,0.0101
735.00,0.0105
734.00,0.0110
733.00,0.0118
732.00,0.0128
731.00,0.0137
730.00,0.0142
729.00,0.0145
728.00,0.0145
727.00,0.0144
726.00,0.0146
725.00,0.0150
724.00,0.0156
723.00,0.0166
722.00,0.0175
721.00,0.0181
720.00,0.0180
719.00,0.0170
718.00,0.0156
717.00,0.0140
716.00,0.0127
715.00,0.0118
714.00,0.0111
713.00,0.0106
712.00,0.0102
711.00,0.0099
710.00,0.0097
709.00,0.0096
708.00,0.0095
707.00,0.0094
706.00,0.0093
705.00,0.0092
704.00,0.0092
703.00,0.0091
702.00,0.0090
701.00,0.0088
700.00,0.0086
699.00,0.0084
698.00,0.0083
697.00,0.0082
696.00,0.0080
695.00,0.0079
694.00,0.0079
693.00,0.0080
692.00,0.0081
691.00,0.0083
690.00,0.0083
689.00,0.0082
688.00,0.0080
687.00,0.0079
686.00,0.0080
685.00,0.0080
684.00,0.0080
683.00,0.0079
682.00,0.0079
681.00,0.0080
680.00,0.0080
679.00,0.0080
678.00,0.0081
677.00,0.0082
676.00,0.0083
675.00,0.0082
674.00,0.0081
673.00,0.0078
672.00,0.0077
671.00,0.0077
670.00,0.0079
669.00,0.0082
668.00,0.0085
667.00,0.0086
666.00,0.0085
665.00,0.0081
664.00,0.0078
663.00,0.0074
662.00,0.0073
661.00,0.0073
660.00,0.0075
659.00,0.0075
658.00,0.0075
657.00,0.0074
656.00,0.0074
655.00,0.0073
654.00,0.0074
653.00,0.0075
652.00,0.0076
651.00,0.0076
650.00,0.0076
649.00,0.0075
648.00,0.0075
647.00,0.0075
646.00,0.0076
645.00,0.0077
644.00,0.0076
643.00,0.0073
642.00,0.0071
641.00,0.0071
640.00,0.0072
639.00,0.0074
638.00,0.0075
637.00,0.0076
636.00,0.0077
635.00,0.0077
634.00,0.0078
633.00,0.0078
632.00,0.0079
631.00,0.0078
630.00,0.0076
629.00,0.0073
628.00,0.0070
627.00,0.0068
626.00,0.0068
625.00,0.0070
624.00,0.0071
623.00,0.0073
622.00,0.0074
621.00,0.0074
620.00,0.0075
619.00,0.0074
618.00,0.0073
617.00,0.0073
616.00,0.0073
615.00,0.0073
614.00,0.0071
613.00,0.0069
612.00,0.0066
611.00,0.0064
610.00,0.0064
609.00,0.0065
608.00,0.0065
607.00,0.0065
606.00,0.0064
605.00,0.0063
604.00,0.0063
603.00,0.0065
602.00,0.0067
601.00,0.0068
600.00,0.0069
599.00,0.0072
598.00,0.0075
597.00,0.0075
596.00,0.0073
595.00,0.0070
594.00,0.0069
593.00,0.0069
592.00,0.0070
591.00,0.0071
590.00,0.0072
589.00,0.0074
588.00,0.0077
587.00,0.0079
586.00,0.0078
585.00,0.0076
584.00,0.0073
583.00,0.0072
582.00,0.0073
581.00,0.0074
580.00,0.0076
579.00,0.0077
578.00,0.0078
577.00,0.0078
576.00,0.0078
575.00,0.0078
574.00,0.0079
573.00,0.0082
572.00,0.0083
571.00,0.0081
570.00,0.0077
569.00,0.0073
568.00,0.0071
567.00,0.0071
566.00,0.0074
565.00,0.0077
564.00,0.0078
563.00,0.0075
562.00,0.0070
561.00,0.0066
560.00,0.0065
559.00,0.0068
558.00,0.0072
557.00,0.0074
556.00,0.0075
555.00,0.0075
554.00,0.0075
553.00,0.0075
552.00,0.0074
551.00,0.0073
550.00,0.0071
549.00,0.0069
548.00,0.0070
547.00,0.0071
546.00,0.0071
545.00,0.0068
544.00,0.0064
543.00,0.0063
542.00,0.0066
541.00,0.0070
540.00,0.0074
539.00,0.0078
538.00,0.0083
537.00,0.0089
536.00,0.0093
535.00,0.0094
534.00,0.0090
533.00,0.0086
532.00,0.0084
531.00,0.0083
530.00,0.0083
529.00,0.0083
528.00,0.0085
527.00,0.0090
526.00,0.0095
525.00,0.0098
524.00,0.0096
523.00,0.0088
522.00,0.0076
521.00,0.0066
520.00,0.0059
519.00,0.0060
518.00,0.0063
517.00,0.0066
516.00,0.0066
515.00,0.0066
514.00,0.0067
513.00,0.0069
512.00,0.0073
511.00,0.0077
510.00,0.0081
509.00,0.0083
508.00,0.0086
507.00,0.0087
506.00,0.0087
505.00,0.0084
504.00,0.0081
503.00,0.0079
502.00,0.0077
501.00,0.0072
500.00,0.0066
499.00,0.0062
498.00,0.0059
497.00,0.0056
496.00,0.0055
495.00,0.0058
494.00,0.0063
493.00,0.0066
492.00,0.0063
491.00,0.0058
490.00,0.0054
489.00,0.0052
488.00,0.0052
487.00,0.0054
486.00,0.0061
485.00,0.0068
484.00,0.0070
483.00,0.0066
482.00,0.0059
481.00,0.0055
480.00,0.0054
479.00,0.0056
478.00,0.0060
477.00,0.0066
476.00,0.0071
475.00,0.0074
474.00,0.0076
473.00,0.0079
472.00,0.0083
471.00,0.0086
470.00,0.0088
469.00,0.0089
468.00,0.0088
467.00,0.0087
466.00,0.0085
465.00,0.0087
464.00,0.0094
463.00,0.0107
462.00,0.0119
461.00,0.0129
460.00,0.0134
459.00,0.0139
458.00,0.0141
457.00,0.0136
456.00,0.0124
455.00,0.0109
454.00,0.0097
453.00,0.0091
452.00,0.0089
451.00,0.0088
450.00,0.0086
