Created as New Dataset,Sample 007 By Administrator Date Thursday, September 04 2025
cm-1,A
4000.00,0.0007
3999.00,0.0007
3998.00,0.0007
3997.00,0.0007
3996.00,0.0007
3995.00,0.0007
3994.00,0.0007
3993.00,0.0008
3992.00,0.0008
3991.00,0.0008
3990.00,0.0008
3989.00,0.0008
3988.00,0.0007
3987.00,0.0007
3986.00,0.0007
3985.00,0.0007
3984.00,0.0006
3983.00,0.0006
3982.00,0.0006
3981.00,0.0006
3980.00,0.0006
3979.00,0.0006
3978.00,0.0006
3977.00,0.0006
3976.00,0.0006
3975.00,0.0006
3974.00,0.0006
3973.00,0.0006
3972.00,0.0006
3971.00,0.0006
3970.00,0.0006
3969.00,0.0006
3968.00,0.0006
3967.00,0.0006
3966.00,0.0006
3965.00,0.0006
3964.00,0.0006
3963.00,0.0006
3962.00,0.0006
3961.00,0.0006
3960.00,0.0006
3959.00,0.0006
3958.00,0.0006
3957.00,0.0006
3956.00,0.0006
3955.00,0.0006
3954.00,0.0006
3953.00,0.0006
3952.00,0.0006
3951.00,0.0006
3950.00,0.0006
3949.00,0.0006
3948.00,0.0006
3947.00,0.0006
3946.00,0.0006
3945.00,0.0006
3944.00,0.0006
3943.00,0.0005
3942.00,0.0005
3941.00,0.0005
3940.00,0.0005
3939.00,0.0005
3938.00,0.0005
3937.00,0.0005
3936.00,0.0005
3935.00,0.0005
3934.00,0.0006
3933.00,0.0006
3932.00,0.0006
3931.00,0.0006
3930.00,0.0007
3929.00,0.0007
3928.00,0.0007
3927.00,0.0007
3926.00,0.0007
3925.00,0.0007
3924.00,0.0006
3923.00,0.0006
3922.00,0.0006
3921.00,0.0006
3920.00,0.0006
3919.00,0.0006
3918.00,0.0006
3917.00,0.0006
3916.00,0.0006
3915.00,0.0005
3914.00,0.0005
3913.00,0.0005
3912.00,0.0005
3911.00,0.0005
3910.00,0.0005
3909.00,0.0006
3908.00,0.0006
3907.00,0.0006
3906.00,0.0007
3905.00,0.0007
3904.00,0.0007
3903.00,0.0006
3902.00,0.0006
3901.00,0.0006
3900.00,0.0005
3899.00,0.0005
3898.00,0.0006
3897.00,0.0006
3896.00,0.0006
3895.00,0.0006
3894.00,0.0006
3893.00,0.0006
3892.00,0.0006
3891.00,0.0006
3890.00,0.0006
3889.00,0.0006
3888.00,0.0006
3887.00,0.0006
3886.00,0.0006
3885.00,0.0007
3884.00,0.0007
3883.00,0.0007
3882.00,0.0007
3881.00,0.0007
3880.00,0.0007
3879.00,0.0006
3878.00,0.0006
3877.00,0.0006
3876.00,0.0006
3875.00,0.0005
3874.00,0.0005
3873.00,0.0005
3872.00,0.0005
3871.00,0.0006
3870.00,0.0006
3869.00,0.0006
3868.00,0.0006
3867.00,0.0006
3866.00,0.0006
3865.00,0.0006
3864.00,0.0006
3863.00,0.0006
3862.00,0.0005
3861.00,0.0005
3860.00,0.0005
3859.00,0.0005
3858.00,0.0005
3857.00,0.0005
3856.00,0.0005
3855.00,0.0005
3854.00,0.0005
3853.00,0.0005
3852.00,0.0005
3851.00,0.0005
3850.00,0.0005
3849.00,0.0005
3848.00,0.0005
3847.00,0.0005
3846.00,0.0006
3845.00,0.0006
3844.00,0.0006
3843.00,0.0006
3842.00,0.0006
3841.00,0.0006
3840.00,0.0006
3839.00,0.0006
3838.00,0.0005
3837.00,0.0005
3836.00,0.0005
3835.00,0.0005
3834.00,0.0005
3833.00,0.0005
3832.00,0.0005
3831.00,0.0005
3830.00,0.0005
3829.00,0.0006
3828.00,0.0006
3827.00,0.0006
3826.00,0.0006
3825.00,0.0006
3824.00,0.0006
3823.00,0.0006
3822.00,0.0006
3821.00,0.0006
3820.00,0.0006
3819.00,0.0006
3818.00,0.0005
3817.00,0.0005
3816.00,0.0005
3815.00,0.0005
3814.00,0.0005
3813.00,0.0005
3812.00,0.0006
3811.00,0.0006
3810.00,0.0006
3809.00,0.0006
3808.00,0.0006
3807.00,0.0006
3806.00,0.0006
3805.00,0.0006
3804.00,0.0006
3803.00,0.0006
3802.00,0.0006
3801.00,0.0005
3800.00,0.0005
3799.00,0.0004
3798.00,0.0004
3797.00,0.0004
3796.00,0.0004
3795.00,0.0003
3794.00,0.0003
3793.00,0.0004
3792.00,0.0004
3791.00,0.0004
3790.00,0.0004
3789.00,0.0004
3788.00,0.0005
3787.00,0.0005
3786.00,0.0005
3785.00,0.0005
3784.00,0.0005
3783.00,0.0005
3782.00,0.0005
3781.00,0.0006
3780.00,0.0006
3779.00,0.0007
3778.00,0.0007
3777.00,0.0007
3776.00,0.0006
3775.00,0.0006
3774.00,0.0005
3773.00,0.0005
3772.00,0.0006
3771.00,0.0006
3770.00,0.0006
3769.00,0.0006
3768.00,0.0006
3767.00,0.0006
3766.00,0.0006
3765.00,0.0006
3764.00,0.0006
3763.00,0.0006
3762.00,0.0006
3761.00,0.0006
3760.00,0.0005
3759.00,0.0005
3758.00,0.0005
3757.00,0.0005
3756.00,0.0005
3755.00,0.0006
3754.00,0.0006
3753.00,0.0006
3752.00,0.0006
3751.00,0.0006
3750.00,0.0007
3749.00,0.0007
3748.00,0.0007
3747.00,0.0007
3746.00,0.0007
3745.00,0.0007
3744.00,0.0007
3743.00,0.0007
3742.00,0.0007
3741.00,0.0006
3740.00,0.0005
3739.00,0.0005
3738.00,0.0005
3737.00,0.0005
3736.00,0.0005
3735.00,0.0005
3734.00,0.0005
3733.00,0.0005
3732.00,0.0005
3731.00,0.0005
3730.00,0.0005
3729.00,0.0005
3728.00,0.0005
3727.00,0.0005
3726.00,0.0005
3725.00,0.0005
3724.00,0.0005
3723.00,0.0005
3722.00,0.0005
3721.00,0.0005
3720.00,0.0004
3719.00,0.0004
3718.00,0.0004
3717.00,0.0004
3716.00,0.0003
3715.00,0.0003
3714.00,0.0003
3713.00,0.0004
3712.00,0.0004
3711.00,0.0005
3710.00,0.0005
3709.00,0.0005
3708.00,0.0004
3707.00,0.0004
3706.00,0.0005
3705.00,0.0005
3704.00,0.0005
3703.00,0.0006
3702.00,0.0005
3701.00,0.0005
3700.00,0.0005
3699.00,0.0004
3698.00,0.0004
3697.00,0.0004
3696.00,0.0004
3695.00,0.0004
3694.00,0.0004
3693.00,0.0005
3692.00,0.0005
3691.00,0.0004
3690.00,0.0004
3689.00,0.0004
3688.00,0.0004
3687.00,0.0004
3686.00,0.0004
3685.00,0.0005
3684.00,0.0005
3683.00,0.0005
3682.00,0.0005
3681.00,0.0005
3680.00,0.0005
3679.00,0.0006
3678.00,0.0006
3677.00,0.0006
3676.00,0.0006
3675.00,0.0006
3674.00,0.0006
3673.00,0.0006
3672.00,0.0006
3671.00,0.0006
3670.00,0.0005
3669.00,0.0005
3668.00,0.0005
3667.00,0.0005
3666.00,0.0005
3665.00,0.0005
3664.00,0.0005
3663.00,0.0005
3662.00,0.0005
3661.00,0.0005
3660.00,0.0005
3659.00,0.0005
3658.00,0.0005
3657.00,0.0006
3656.00,0.0006
3655.00,0.0006
3654.00,0.0005
3653.00,0.0005
3652.00,0.0005
3651.00,0.0005
3650.00,0.0005
3649.00,0.0005
3648.00,0.0005
3647.00,0.0005
3646.00,0.0005
3645.00,0.0005
3644.00,0.0005
3643.00,0.0005
3642.00,0.0005
3641.00,0.0005
3640.00,0.0005
3639.00,0.0005
3638.00,0.0006
3637.00,0.0006
3636.00,0.0006
3635.00,0.0006
3634.00,0.0006
3633.00,0.0006
3632.00,0.0007
3631.00,0.0008
3630.00,0.0008
3629.00,0.0008
3628.00,0.0008
3627.00,0.0008
3626.00,0.0008
3625.00,0.0008
3624.00,0.0008
3623.00,0.0008
3622.00,0.0008
3621.00,0.0008
3620.00,0.0008
3619.00,0.0008
3618.00,0.0008
3617.00,0.0008
3616.00,0.0009
3615.00,0.0009
3614.00,0.0009
3613.00,0.0009
3612.00,0.0009
3611.00,0.0009
3610.00,0.0010
3609.00,0.0010
3608.00,0.0010
3607.00,0.0010
3606.00,0.0010
3605.00,0.0010
3604.00,0.0011
3603.00,0.0011
3602.00,0.0011
3601.00,0.0011
3600.00,0.0011
3599.00,0.0011
3598.00,0.0011
3597.00,0.0011
3596.00,0.0011
3595.00,0.0012
3594.00,0.0012
3593.00,0.0013
3592.00,0.0013
3591.00,0.0013
3590.00,0.0013
3589.00,0.0013
3588.00,0.0013
3587.00,0.0013
3586.00,0.0014
3585.00,0.0014
3584.00,0.0013
3583.00,0.0013
3582.00,0.0013
3581.00,0.0014
3580.00,0.0014
3579.00,0.0014
3578.00,0.0015
3577.00,0.0015
3576.00,0.0015
3575.00,0.0015
3574.00,0.0016
3573.00,0.0016
3572.00,0.0016
3571.00,0.0017
3570.00,0.0017
3569.00,0.0017
3568.00,0.0017
3567.00,0.0018
3566.00,0.0018
3565.00,0.0018
3564.00,0.0018
3563.00,0.0019
3562.00,0.0019
3561.00,0.0019
3560.00,0.0019
3559.00,0.0019
3558.00,0.0019
3557.00,0.0019
3556.00,0.0019
3555.00,0.0020
3554.00,0.0020
3553.00,0.0020
3552.00,0.0021
3551.00,0.0021
3550.00,0.0022
3549.00,0.0023
3548.00,0.0024
3547.00,0.0025
3546.00,0.0025
3545.00,0.0025
3544.00,0.0024
3543.00,0.0024
3542.00,0.0024
3541.00,0.0024
3540.00,0.0024
3539.00,0.0024
3538.00,0.0025
3537.00,0.0025
3536.00,0.0025
3535.00,0.0026
3534.00,0.0026
3533.00,0.0026
3532.00,0.0027
3531.00,0.0027
3530.00,0.0028
3529.00,0.0028
3528.00,0.0029
3527.00,0.0029
3526.00,0.0030
3525.00,0.0030
3524.00,0.0031
3523.00,0.0031
3522.00,0.0031
3521.00,0.0031
3520.00,0.0032
3519.00,0.0032
3518.00,0.0033
3517.00,0.0033
3516.00,0.0033
3515.00,0.0033
3514.00,0.0033
3513.00,0.0033
3512.00,0.0033
3511.00,0.0034
3510.00,0.0034
3509.00,0.0035
3508.00,0.0035
3507.00,0.0036
3506.00,0.0036
3505.00,0.0037
3504.00,0.0037
3503.00,0.0037
3502.00,0.0037
3501.00,0.0037
3500.00,0.0038
3499.00,0.0038
3498.00,0.0039
3497.00,0.0039
3496.00,0.0039
3495.00,0.0039
3494.00,0.0039
3493.00,0.0040
3492.00,0.0040
3491.00,0.0041
3490.00,0.0041
3489.00,0.0042
3488.00,0.0042
3487.00,0.0042
3486.00,0.0043
3485.00,0.0043
3484.00,0.0043
3483.00,0.0043
3482.00,0.0043
3481.00,0.0043
3480.00,0.0043
3479.00,0.0044
3478.00,0.0044
3477.00,0.0045
3476.00,0.0045
3475.00,0.0046
3474.00,0.0047
3473.00,0.0047
3472.00,0.0048
3471.00,0.0048
3470.00,0.0048
3469.00,0.0048
3468.00,0.0048
3467.00,0.0048
3466.00,0.0048
3465.00,0.0048
3464.00,0.0048
3463.00,0.0048
3462.00,0.0048
3461.00,0.0049
3460.00,0.0049
3459.00,0.0050
3458.00,0.0050
3457.00,0.0051
3456.00,0.0051
3455.00,0.0051
3454.00,0.0051
3453.00,0.0052
3452.00,0.0052
3451.00,0.0052
3450.00,0.0053
3449.00,0.0053
3448.00,0.0053
3447.00,0.0053
3446.00,0.0054
3445.00,0.0054
3444.00,0.0055
3443.00,0.0055
3442.00,0.0055
3441.00,0.0055
3440.00,0.0055
3439.00,0.0055
3438.00,0.0055
3437.00,0.0055
3436.00,0.0055
3435.00,0.0056
3434.00,0.0056
3433.00,0.0056
3432.00,0.0057
3431.00,0.0057
3430.00,0.0057
3429.00,0.0057
3428.00,0.0058
3427.00,0.0058
3426.00,0.0058
3425.00,0.0059
3424.00,0.0059
3423.00,0.0060
3422.00,0.0060
3421.00,0.0061
3420.00,0.0061
3419.00,0.0061
3418.00,0.0061
3417.00,0.0062
3416.00,0.0062
3415.00,0.0062
3414.00,0.0062
3413.00,0.0062
3412.00,0.0062
3411.00,0.0062
3410.00,0.0063
3409.00,0.0063
3408.00,0.0063
3407.00,0.0064
3406.00,0.0064
3405.00,0.0064
3404.00,0.0064
3403.00,0.0064
3402.00,0.0064
3401.00,0.0064
3400.00,0.0064
3399.00,0.0065
3398.00,0.0065
3397.00,0.0066
3396.00,0.0066
3395.00,0.0066
3394.00,0.0066
3393.00,0.0066
3392.00,0.0066
3391.00,0.0065
3390.00,0.0065
3389.00,0.0065
3388.00,0.0065
3387.00,0.0066
3386.00,0.0066
3385.00,0.0066
3384.00,0.0066
3383.00,0.0066
3382.00,0.0066
3381.00,0.0066
3380.00,0.0067
3379.00,0.0067
3378.00,0.0067
3377.00,0.0067
3376.00,0.0067
3375.00,0.0067
3374.00,0.0067
3373.00,0.0067
3372.00,0.0067
3371.00,0.0068
3370.00,0.0068
3369.00,0.0068
3368.00,0.0068
3367.00,0.0068
3366.00,0.0067
3365.00,0.0067
3364.00,0.0068
3363.00,0.0068
3362.00,0.0068
3361.00,0.0068
3360.00,0.0068
3359.00,0.0068
3358.00,0.0068
3357.00,0.0068
3356.00,0.0068
3355.00,0.0068
3354.00,0.0069
3353.00,0.0069
3352.00,0.0070
3351.00,0.0070
3350.00,0.0070
3349.00,0.0070
3348.00,0.0070
3347.00,0.0070
3346.00,0.0070
3345.00,0.0070
3344.00,0.0069
3343.00,0.0069
3342.00,0.0069
3341.00,0.0069
3340.00,0.0069
3339.00,0.0069
3338.00,0.0068
3337.00,0.0068
3336.00,0.0068
3335.00,0.0067
3334.00,0.0067
3333.00,0.0067
3332.00,0.0067
3331.00,0.0067
3330.00,0.0066
3329.00,0.0066
3328.00,0.0066
3327.00,0.0067
3326.00,0.0067
3325.00,0.0067
3324.00,0.0067
3323.00,0.0067
3322.00,0.0067
3321.00,0.0067
3320.00,0.0066
3319.00,0.0067
3318.00,0.0067
3317.00,0.0067
3316.00,0.0067
3315.00,0.0067
3314.00,0.0067
3313.00,0.0067
3312.00,0.0067
3311.00,0.0067
3310.00,0.0068
3309.00,0.0068
3308.00,0.0069
3307.00,0.0069
3306.00,0.0070
3305.00,0.0070
3304.00,0.0071
3303.00,0.0071
3302.00,0.0072
3301.00,0.0071
3300.00,0.0071
3299.00,0.0070
3298.00,0.0069
3297.00,0.0068
3296.00,0.0068
3295.00,0.0067
3294.00,0.0067
3293.00,0.0066
3292.00,0.0066
3291.00,0.0065
3290.00,0.0065
3289.00,0.0065
3288.00,0.0065
3287.00,0.0064
3286.00,0.0064
3285.00,0.0063
3284.00,0.0063
3283.00,0.0062
3282.00,0.0062
3281.00,0.0062
3280.00,0.0062
3279.00,0.0061
3278.00,0.0061
3277.00,0.0060
3276.00,0.0060
3275.00,0.0059
3274.00,0.0059
3273.00,0.0059
3272.00,0.0059
3271.00,0.0059
3270.00,0.0059
3269.00,0.0058
3268.00,0.0058
3267.00,0.0057
3266.00,0.0057
3265.00,0.0057
3264.00,0.0057
3263.00,0.0057
3262.00,0.0056
3261.00,0.0056
3260.00,0.0056
3259.00,0.0056
3258.00,0.0056
3257.00,0.0055
3256.00,0.0055
3255.00,0.0055
3254.00,0.0055
3253.00,0.0054
3252.00,0.0054
3251.00,0.0053
3250.00,0.0053
3249.00,0.0053
3248.00,0.0053
3247.00,0.0053
3246.00,0.0053
3245.00,0.0053
3244.00,0.0053
3243.00,0.0053
3242.00,0.0052
3241.00,0.0052
3240.00,0.0052
3239.00,0.0052
3238.00,0.0052
3237.00,0.0052
3236.00,0.0052
3235.00,0.0052
3234.00,0.0052
3233.00,0.0052
3232.00,0.0052
3231.00,0.0052
3230.00,0.0052
3229.00,0.0052
3228.00,0.0052
3227.00,0.0052
3226.00,0.0052
3225.00,0.0052
3224.00,0.0052
3223.00,0.0052
3222.00,0.0053
3221.00,0.0053
3220.00,0.0054
3219.00,0.0054
3218.00,0.0054
3217.00,0.0054
3216.00,0.0054
3215.00,0.0054
3214.00,0.0054
3213.00,0.0054
3212.00,0.0054
3211.00,0.0054
3210.00,0.0055
3209.00,0.0055
3208.00,0.0054
3207.00,0.0054
3206.00,0.0054
3205.00,0.0054
3204.00,0.0054
3203.00,0.0054
3202.00,0.0055
3201.00,0.0055
3200.00,0.0055
3199.00,0.0055
3198.00,0.0054
3197.00,0.0054
3196.00,0.0054
3195.00,0.0054
3194.00,0.0054
3193.00,0.0053
3192.00,0.0053
3191.00,0.0053
3190.00,0.0053
3189.00,0.0053
3188.00,0.0053
3187.00,0.0053
3186.00,0.0053
3185.00,0.0053
3184.00,0.0053
3183.00,0.0053
3182.00,0.0052
3181.00,0.0052
3180.00,0.0052
3179.00,0.0051
3178.00,0.0051
3177.00,0.0051
3176.00,0.0050
3175.00,0.0050
3174.00,0.0050
3173.00,0.0050
3172.00,0.0049
3171.00,0.0049
3170.00,0.0049
3169.00,0.0049
3168.00,0.0049
3167.00,0.0049
3166.00,0.0049
3165.00,0.0049
3164.00,0.0048
3163.00,0.0048
3162.00,0.0047
3161.00,0.0047
3160.00,0.0047
3159.00,0.0047
3158.00,0.0047
3157.00,0.0047
3156.00,0.0047
3155.00,0.0046
3154.00,0.0046
3153.00,0.0046
3152.00,0.0046
3151.00,0.0046
3150.00,0.0046
3149.00,0.0046
3148.00,0.0046
3147.00,0.0045
3146.00,0.0045
3145.00,0.0045
3144.00,0.0045
3143.00,0.0045
3142.00,0.0045
3141.00,0.0045
3140.00,0.0044
3139.00,0.0043
3138.00,0.0043
3137.00,0.0043
3136.00,0.0043
3135.00,0.0043
3134.00,0.0042
3133.00,0.0042
3132.00,0.0042
3131.00,0.0041
3130.00,0.0041
3129.00,0.0041
3128.00,0.0041
3127.00,0.0041
3126.00,0.0041
3125.00,0.0040
3124.00,0.0040
3123.00,0.0040
3122.00,0.0039
3121.00,0.0039
3120.00,0.0039
3119.00,0.0039
3118.00,0.0038
3117.00,0.0038
3116.00,0.0038
3115.00,0.0038
3114.00,0.0038
3113.00,0.0038
3112.00,0.0037
3111.00,0.0037
3110.00,0.0036
3109.00,0.0036
3108.00,0.0036
3107.00,0.0036
3106.00,0.0036
3105.00,0.0036
3104.00,0.0036
3103.00,0.0036
3102.00,0.0036
3101.00,0.0035
3100.00,0.0035
3099.00,0.0035
3098.00,0.0035
3097.00,0.0035
3096.00,0.0035
3095.00,0.0035
3094.00,0.0035
3093.00,0.0035
3092.00,0.0035
3091.00,0.0035
3090.00,0.0035
3089.00,0.0035
3088.00,0.0035
3087.00,0.0035
3086.00,0.0035
3085.00,0.0034
3084.00,0.0034
3083.00,0.0034
3082.00,0.0034
3081.00,0.0034
3080.00,0.0033
3079.00,0.0033
3078.00,0.0033
3077.00,0.0033
3076.00,0.0033
3075.00,0.0033
3074.00,0.0033
3073.00,0.0033
3072.00,0.0033
3071.00,0.0033
3070.00,0.0034
3069.00,0.0034
3068.00,0.0034
3067.00,0.0035
3066.00,0.0035
3065.00,0.0035
3064.00,0.0035
3063.00,0.0035
3062.00,0.0035
3061.00,0.0035
3060.00,0.0035
3059.00,0.0035
3058.00,0.0035
3057.00,0.0035
3056.00,0.0035
3055.00,0.0036
3054.00,0.0036
3053.00,0.0037
3052.00,0.0037
3051.00,0.0037
3050.00,0.0037
3049.00,0.0037
3048.00,0.0037
3047.00,0.0037
3046.00,0.0037
3045.00,0.0038
3044.00,0.0038
3043.00,0.0038
3042.00,0.0038
3041.00,0.0038
3040.00,0.0039
3039.00,0.0039
3038.00,0.0039
3037.00,0.0040
3036.00,0.0040
3035.00,0.0040
3034.00,0.0041
3033.00,0.0041
3032.00,0.0041
3031.00,0.0042
3030.00,0.0042
3029.00,0.0043
3028.00,0.0044
3027.00,0.0044
3026.00,0.0045
3025.00,0.0045
3024.00,0.0046
3023.00,0.0047
3022.00,0.0047
3021.00,0.0048
3020.00,0.0049
3019.00,0.0049
3018.00,0.0050
3017.00,0.0050
3016.00,0.0051
3015.00,0.0052
3014.00,0.0053
3013.00,0.0054
3012.00,0.0055
3011.00,0.0056
3010.00,0.0058
3009.00,0.0059
3008.00,0.0060
3007.00,0.0061
3006.00,0.0063
3005.00,0.0064
3004.00,0.0066
3003.00,0.0068
3002.00,0.0070
3001.00,0.0071
3000.00,0.0074
2999.00,0.0076
2998.00,0.0079
2997.00,0.0082
2996.00,0.0085
2995.00,0.0089
2994.00,0.0093
2993.00,0.0097
2992.00,0.0102
2991.00,0.0107
2990.00,0.0113
2989.00,0.0120
2988.00,0.0127
2987.00,0.0135
2986.00,0.0144
2985.00,0.0154
2984.00,0.0164
2983.00,0.0177
2982.00,0.0191
2981.00,0.0207
2980.00,0.0225
2979.00,0.0245
2978.00,0.0269
2977.00,0.0297
2976.00,0.0328
2975.00,0.0365
2974.00,0.0407
2973.00,0.0454
2972.00,0.0509
2971.00,0.0570
2970.00,0.0639
2969.00,0.0714
2968.00,0.0796
2967.00,0.0884
2966.00,0.0976
2965.00,0.1072
2964.00,0.1165
2963.00,0.1251
2962.00,0.1324
2961.00,0.1381
2960.00,0.1422
2959.00,0.1450
2958.00,0.1475
2957.00,0.1503
2956.00,0.1544
2955.00,0.1600
2954.00,0.1670
2953.00,0.1747
2952.00,0.1817
2951.00,0.1865
2950.00,0.1879
2949.00,0.1850
2948.00,0.1779
2947.00,0.1675
2946.00,0.1551
2945.00,0.1423
2944.00,0.1303
2943.00,0.1201
2942.00,0.1122
2941.00,0.1067
2940.00,0.1036
2939.00,0.1025
2938.00,0.1033
2937.00,0.1058
2936.00,0.1098
2935.00,0.1153
2934.00,0.1221
2933.00,0.1301
2932.00,0.1393
2931.00,0.1495
2930.00,0.1605
2929.00,0.1718
2928.00,0.1832
2927.00,0.1945
2926.00,0.2054
2925.00,0.2160
2924.00,0.2263
2923.00,0.2366
2922.00,0.2468
2921.00,0.2566
2920.00,0.2651
2919.00,0.2714
2918.00,0.2742
2917.00,0.2728
2916.00,0.2671
2915.00,0.2581
2914.00,0.2471
2913.00,0.2356
2912.00,0.2246
2911.00,0.2149
2910.00,0.2066
2909.00,0.1993
2908.00,0.1927
2907.00,0.1865
2906.00,0.1803
2905.00,0.1738
2904.00,0.1672
2903.00,0.1605
2902.00,0.1538
2901.00,0.1473
2900.00,0.1409
2899.00,0.1349
2898.00,0.1293
2897.00,0.1241
2896.00,0.1194
2895.00,0.1154
2894.00,0.1120
2893.00,0.1093
2892.00,0.1072
2891.00,0.1056
2890.00,0.1046
2889.00,0.1039
2888.00,0.1036
2887.00,0.1036
2886.00,0.1038
2885.00,0.1044
2884.00,0.1053
2883.00,0.1067
2882.00,0.1083
2881.00,0.1102
2880.00,0.1119
2879.00,0.1131
2878.00,0.1137
2877.00,0.1136
2876.00,0.1130
2875.00,0.1123
2874.00,0.1120
2873.00,0.1122
2872.00,0.1133
2871.00,0.1150
2870.00,0.1172
2869.00,0.1193
2868.00,0.1208
2867.00,0.1209
2866.00,0.1190
2865.00,0.1148
2864.00,0.1088
2863.00,0.1018
2862.00,0.0948
2861.00,0.0885
2860.00,0.0836
2859.00,0.0801
2858.00,0.0780
2857.00,0.0771
2856.00,0.0770
2855.00,0.0775
2854.00,0.0786
2853.00,0.0799
2852.00,0.0813
2851.00,0.0827
2850.00,0.0839
2849.00,0.0851
2848.00,0.0864
2847.00,0.0883
2846.00,0.0910
2845.00,0.0948
2844.00,0.0995
2843.00,0.1049
2842.00,0.1103
2841.00,0.1152
2840.00,0.1186
2839.00,0.1199
2838.00,0.1184
2837.00,0.1140
2836.00,0.1070
2835.00,0.0980
2834.00,0.0879
2833.00,0.0777
2832.00,0.0682
2831.00,0.0599
2830.00,0.0528
2829.00,0.0470
2828.00,0.0423
2827.00,0.0385
2826.00,0.0354
2825.00,0.0328
2824.00,0.0306
2823.00,0.0287
2822.00,0.0271
2821.00,0.0257
2820.00,0.0244
2819.00,0.0233
2818.00,0.0223
2817.00,0.0215
2816.00,0.0207
2815.00,0.0201
2814.00,0.0195
2813.00,0.0190
2812.00,0.0184
2811.00,0.0179
2810.00,0.0174
2809.00,0.0168
2808.00,0.0163
2807.00,0.0157
2806.00,0.0151
2805.00,0.0144
2804.00,0.0138
2803.00,0.0132
2802.00,0.0127
2801.00,0.0123
2800.00,0.0119
2799.00,0.0116
2798.00,0.0113
2797.00,0.0110
2796.00,0.0108
2795.00,0.0106
2794.00,0.0104
2793.00,0.0101
2792.00,0.0098
2791.00,0.0095
2790.00,0.0092
2789.00,0.0088
2788.00,0.0085
2787.00,0.0082
2786.00,0.0079
2785.00,0.0077
2784.00,0.0074
2783.00,0.0072
2782.00,0.0070
2781.00,0.0068
2780.00,0.0066
2779.00,0.0064
2778.00,0.0063
2777.00,0.0061
2776.00,0.0060
2775.00,0.0059
2774.00,0.0058
2773.00,0.0058
2772.00,0.0057
2771.00,0.0057
2770.00,0.0056
2769.00,0.0056
2768.00,0.0055
2767.00,0.0055
2766.00,0.0055
2765.00,0.0055
2764.00,0.0054
2763.00,0.0054
2762.00,0.0053
2761.00,0.0053
2760.00,0.0052
2759.00,0.0052
2758.00,0.0052
2757.00,0.0052
2756.00,0.0051
2755.00,0.0051
2754.00,0.0051
2753.00,0.0051
2752.00,0.0050
2751.00,0.0050
2750.00,0.0050
2749.00,0.0050
2748.00,0.0050
2747.00,0.0051
2746.00,0.0051
2745.00,0.0052
2744.00,0.0052
2743.00,0.0053
2742.00,0.0055
2741.00,0.0055
2740.00,0.0056
2739.00,0.0057
2738.00,0.0058
2737.00,0.0059
2736.00,0.0061
2735.00,0.0062
2734.00,0.0063
2733.00,0.0064
2732.00,0.0066
2731.00,0.0068
2730.00,0.0070
2729.00,0.0072
2728.00,0.0075
2727.00,0.0078
2726.00,0.0080
2725.00,0.0082
2724.00,0.0084
2723.00,0.0084
2722.00,0.0084
2721.00,0.0082
2720.00,0.0080
2719.00,0.0077
2718.00,0.0074
2717.00,0.0071
2716.00,0.0068
2715.00,0.0065
2714.00,0.0063
2713.00,0.0060
2712.00,0.0058
2711.00,0.0056
2710.00,0.0055
2709.00,0.0053
2708.00,0.0052
2707.00,0.0051
2706.00,0.0050
2705.00,0.0049
2704.00,0.0048
2703.00,0.0048
2702.00,0.0047
2701.00,0.0046
2700.00,0.0045
2699.00,0.0044
2698.00,0.0044
2697.00,0.0043
2696.00,0.0044
2695.00,0.0044
2694.00,0.0044
2693.00,0.0044
2692.00,0.0044
2691.00,0.0044
2690.00,0.0044
2689.00,0.0044
2688.00,0.0043
2687.00,0.0043
2686.00,0.0043
2685.00,0.0043
2684.00,0.0044
2683.00,0.0044
2682.00,0.0044
2681.00,0.0044
2680.00,0.0044
2679.00,0.0044
2678.00,0.0044
2677.00,0.0045
2676.00,0.0045
2675.00,0.0045
2674.00,0.0044
2673.00,0.0044
2672.00,0.0043
2671.00,0.0043
2670.00,0.0043
2669.00,0.0043
2668.00,0.0043
2667.00,0.0044
2666.00,0.0044
2665.00,0.0044
2664.00,0.0045
2663.00,0.0045
2662.00,0.0046
2661.00,0.0047
2660.00,0.0047
2659.00,0.0047
2658.00,0.0047
2657.00,0.0046
2656.00,0.0046
2655.00,0.0045
2654.00,0.0044
2653.00,0.0044
2652.00,0.0043
2651.00,0.0043
2650.00,0.0043
2649.00,0.0042
2648.00,0.0042
2647.00,0.0042
2646.00,0.0041
2645.00,0.0041
2644.00,0.0040
2643.00,0.0040
2642.00,0.0039
2641.00,0.0039
2640.00,0.0038
2639.00,0.0038
2638.00,0.0037
2637.00,0.0037
2636.00,0.0037
2635.00,0.0037
2634.00,0.0038
2633.00,0.0038
2632.00,0.0038
2631.00,0.0038
2630.00,0.0038
2629.00,0.0038
2628.00,0.0038
2627.00,0.0038
2626.00,0.0038
2625.00,0.0038
2624.00,0.0038
2623.00,0.0038
2622.00,0.0038
2621.00,0.0038
2620.00,0.0038
2619.00,0.0038
2618.00,0.0038
2617.00,0.0039
2616.00,0.0039
2615.00,0.0039
2614.00,0.0039
2613.00,0.0039
2612.00,0.0038
2611.00,0.0037
2610.00,0.0036
2609.00,0.0035
2608.00,0.0034
2607.00,0.0034
2606.00,0.0033
2605.00,0.0033
2604.00,0.0032
2603.00,0.0032
2602.00,0.0031
2601.00,0.0031
2600.00,0.0031
2599.00,0.0031
2598.00,0.0030
2597.00,0.0030
2596.00,0.0030
2595.00,0.0030
2594.00,0.0030
2593.00,0.0030
2592.00,0.0031
2591.00,0.0032
2590.00,0.0033
2589.00,0.0034
2588.00,0.0035
2587.00,0.0035
2586.00,0.0036
2585.00,0.0036
2584.00,0.0037
2583.00,0.0037
2582.00,0.0037
2581.00,0.0036
2580.00,0.0036
2579.00,0.0035
2578.00,0.0035
2577.00,0.0034
2576.00,0.0032
2575.00,0.0031
2574.00,0.0030
2573.00,0.0029
2572.00,0.0027
2571.00,0.0026
2570.00,0.0026
2569.00,0.0026
2568.00,0.0026
2567.00,0.0026
2566.00,0.0025
2565.00,0.0024
2564.00,0.0023
2563.00,0.0023
2562.00,0.0022
2561.00,0.0022
2560.00,0.0022
2559.00,0.0021
2558.00,0.0021
2557.00,0.0021
2556.00,0.0020
2555.00,0.0020
2554.00,0.0020
2553.00,0.0020
2552.00,0.0020
2551.00,0.0020
2550.00,0.0019
2549.00,0.0018
2548.00,0.0018
2547.00,0.0018
2546.00,0.0018
2545.00,0.0018
2544.00,0.0018
2543.00,0.0018
2542.00,0.0017
2541.00,0.0017
2540.00,0.0017
2539.00,0.0017
2538.00,0.0017
2537.00,0.0017
2536.00,0.0017
2535.00,0.0017
2534.00,0.0016
2533.00,0.0015
2532.00,0.0015
2531.00,0.0014
2530.00,0.0014
2529.00,0.0014
2528.00,0.0014
2527.00,0.0014
2526.00,0.0014
2525.00,0.0013
2524.00,0.0013
2523.00,0.0012
2522.00,0.0012
2521.00,0.0012
2520.00,0.0012
2519.00,0.0011
2518.00,0.0011
2517.00,0.0011
2516.00,0.0011
2515.00,0.0011
2514.00,0.0011
2513.00,0.0011
2512.00,0.0010
2511.00,0.0010
2510.00,0.0010
2509.00,0.0009
2508.00,0.0009
2507.00,0.0008
2506.00,0.0008
2505.00,0.0008
2504.00,0.0008
2503.00,0.0008
2502.00,0.0008
2501.00,0.0009
2500.00,0.0009
2499.00,0.0009
2498.00,0.0010
2497.00,0.0010
2496.00,0.0010
2495.00,0.0010
2494.00,0.0010
2493.00,0.0010
2492.00,0.0010
2491.00,0.0010
2490.00,0.0010
2489.00,0.0011
2488.00,0.0011
2487.00,0.0010
2486.00,0.0010
2485.00,0.0009
2484.00,0.0009
2483.00,0.0009
2482.00,0.0009
2481.00,0.0009
2480.00,0.0009
2479.00,0.0008
2478.00,0.0008
2477.00,0.0008
2476.00,0.0008
2475.00,0.0008
2474.00,0.0008
2473.00,0.0008
2472.00,0.0008
2471.00,0.0008
2470.00,0.0008
2469.00,0.0008
2468.00,0.0008
2467.00,0.0008
2466.00,0.0008
2465.00,0.0009
2464.00,0.0009
2463.00,0.0008
2462.00,0.0008
2461.00,0.0007
2460.00,0.0007
2459.00,0.0008
2458.00,0.0008
2457.00,0.0009
2456.00,0.0009
2455.00,0.0009
2454.00,0.0009
2453.00,0.0009
2452.00,0.0010
2451.00,0.0011
2450.00,0.0011
2449.00,0.0011
2448.00,0.0011
2447.00,0.0011
2446.00,0.0011
2445.00,0.0011
2444.00,0.0011
2443.00,0.0010
2442.00,0.0010
2441.00,0.0009
2440.00,0.0009
2439.00,0.0009
2438.00,0.0009
2437.00,0.0010
2436.00,0.0010
2435.00,0.0011
2434.00,0.0011
2433.00,0.0012
2432.00,0.0012
2431.00,0.0012
2430.00,0.0011
2429.00,0.0011
2428.00,0.0011
2427.00,0.0011
2426.00,0.0010
2425.00,0.0010
2424.00,0.0010
2423.00,0.0009
2422.00,0.0009
2421.00,0.0009
2420.00,0.0009
2419.00,0.0009
2418.00,0.0009
2417.00,0.0009
2416.00,0.0009
2415.00,0.0009
2414.00,0.0009
2413.00,0.0010
2412.00,0.0010
2411.00,0.0010
2410.00,0.0009
2409.00,0.0008
2408.00,0.0007
2407.00,0.0007
2406.00,0.0006
2405.00,0.0006
2404.00,0.0007
2403.00,0.0008
2402.00,0.0008
2401.00,0.0007
2400.00,0.0007
2399.00,0.0006
2398.00,0.0007
2397.00,0.0007
2396.00,0.0007
2395.00,0.0007
2394.00,0.0007
2393.00,0.0007
2392.00,0.0006
2391.00,0.0006
2390.00,0.0006
2389.00,0.0006
2388.00,0.0006
2387.00,0.0006
2386.00,0.0006
2385.00,0.0006
2384.00,0.0005
2383.00,0.0004
2382.00,0.0004
2381.00,0.0003
2380.00,0.0003
2379.00,0.0004
2378.00,0.0004
2377.00,0.0004
2376.00,0.0003
2375.00,0.0003
2374.00,0.0003
2373.00,0.0003
2372.00,0.0003
2371.00,0.0003
2370.00,0.0003
2369.00,0.0003
2368.00,0.0002
2367.00,0.0002
2366.00,0.0002
2365.00,0.0002
2364.00,0.0003
2363.00,0.0003
2362.00,0.0003
2361.00,0.0002
2360.00,0.0002
2359.00,0.0003
2358.00,0.0004
2357.00,0.0005
2356.00,0.0004
2355.00,0.0003
2354.00,0.0002
2353.00,0.0000
2352.00,-0.0001
2351.00,-0.0001
2350.00,-0.0001
2349.00,0.0001
2348.00,0.0004
2347.00,0.0007
2346.00,0.0009
2345.00,0.0010
2344.00,0.0009
2343.00,0.0008
2342.00,0.0006
2341.00,0.0006
2340.00,0.0005
2339.00,0.0005
2338.00,0.0005
2337.00,0.0005
2336.00,0.0005
2335.00,0.0005
2334.00,0.0006
2333.00,0.0006
2332.00,0.0006
2331.00,0.0006
2330.00,0.0005
2329.00,0.0004
2328.00,0.0004
2327.00,0.0006
2326.00,0.0011
2325.00,0.0015
2324.00,0.0018
2323.00,0.0017
2322.00,0.0015
2321.00,0.0012
2320.00,0.0010
2319.00,0.0008
2318.00,0.0007
2317.00,0.0006
2316.00,0.0005
2315.00,0.0005
2314.00,0.0004
2313.00,0.0004
2312.00,0.0004
2311.00,0.0003
2310.00,0.0002
2309.00,0.0001
2308.00,0.0001
2307.00,0.0001
2306.00,0.0001
2305.00,0.0002
2304.00,0.0003
2303.00,0.0004
2302.00,0.0005
2301.00,0.0006
2300.00,0.0006
2299.00,0.0007
2298.00,0.0007
2297.00,0.0008
2296.00,0.0008
2295.00,0.0009
2294.00,0.0011
2293.00,0.0012
2292.00,0.0013
2291.00,0.0013
2290.00,0.0014
2289.00,0.0014
2288.00,0.0016
2287.00,0.0017
2286.00,0.0017
2285.00,0.0017
2284.00,0.0017
2283.00,0.0016
2282.00,0.0015
2281.00,0.0014
2280.00,0.0014
2279.00,0.0013
2278.00,0.0013
2277.00,0.0012
2276.00,0.0012
2275.00,0.0012
2274.00,0.0012
2273.00,0.0011
2272.00,0.0011
2271.00,0.0011
2270.00,0.0011
2269.00,0.0011
2268.00,0.0010
2267.00,0.0009
2266.00,0.0008
2265.00,0.0008
2264.00,0.0008
2263.00,0.0009
2262.00,0.0009
2261.00,0.0010
2260.00,0.0011
2259.00,0.0011
2258.00,0.0011
2257.00,0.0011
2256.00,0.0011
2255.00,0.0011
2254.00,0.0010
2253.00,0.0010
2252.00,0.0010
2251.00,0.0010
2250.00,0.0011
2249.00,0.0011
2248.00,0.0010
2247.00,0.0008
2246.00,0.0007
2245.00,0.0007
2244.00,0.0008
2243.00,0.0009
2242.00,0.0010
2241.00,0.0009
2240.00,0.0009
2239.00,0.0009
2238.00,0.0009
2237.00,0.0009
2236.00,0.0009
2235.00,0.0008
2234.00,0.0008
2233.00,0.0007
2232.00,0.0007
2231.00,0.0007
2230.00,0.0008
2229.00,0.0009
2228.00,0.0011
2227.00,0.0011
2226.00,0.0012
2225.00,0.0012
2224.00,0.0012
2223.00,0.0012
2222.00,0.0011
2221.00,0.0009
2220.00,0.0007
2219.00,0.0005
2218.00,0.0004
2217.00,0.0003
2216.00,0.0002
2215.00,0.0002
2214.00,0.0003
2213.00,0.0005
2212.00,0.0006
2211.00,0.0007
2210.00,0.0005
2209.00,0.0004
2208.00,0.0002
2207.00,0.0001
2206.00,0.0001
2205.00,0.0001
2204.00,0.0002
2203.00,0.0003
2202.00,0.0004
2201.00,0.0006
2200.00,0.0006
2199.00,0.0005
2198.00,0.0004
2197.00,0.0004
2196.00,0.0005
2195.00,0.0008
2194.00,0.0011
2193.00,0.0012
2192.00,0.0011
2191.00,0.0010
2190.00,0.0009
2189.00,0.0009
2188.00,0.0010
2187.00,0.0011
2186.00,0.0010
2185.00,0.0009
2184.00,0.0007
2183.00,0.0005
2182.00,0.0004
2181.00,0.0003
2180.00,0.0004
2179.00,0.0006
2178.00,0.0007
2177.00,0.0007
2176.00,0.0006
2175.00,0.0005
2174.00,0.0006
2173.00,0.0008
2172.00,0.0008
2171.00,0.0008
2170.00,0.0007
2169.00,0.0007
2168.00,0.0007
2167.00,0.0004
2166.00,0.0002
2165.00,0.0002
2164.00,0.0007
2163.00,0.0014
2162.00,0.0020
2161.00,0.0019
2160.00,0.0009
2159.00,-0.0006
2158.00,-0.0019
2157.00,-0.0026
2156.00,-0.0026
2155.00,-0.0023
2154.00,-0.0020
2153.00,-0.0018
2152.00,-0.0017
2151.00,-0.0016
2150.00,-0.0015
2149.00,-0.0015
2148.00,-0.0016
2147.00,-0.0017
2146.00,-0.0017
2145.00,-0.0018
2144.00,-0.0018
2143.00,-0.0018
2142.00,-0.0016
2141.00,-0.0014
2140.00,-0.0012
2139.00,-0.0010
2138.00,-0.0009
2137.00,-0.0008
2136.00,-0.0009
2135.00,-0.0010
2134.00,-0.0012
2133.00,-0.0013
2132.00,-0.0012
2131.00,-0.0011
2130.00,-0.0010
2129.00,-0.0009
2128.00,-0.0008
2127.00,-0.0009
2126.00,-0.0010
2125.00,-0.0010
2124.00,-0.0008
2123.00,-0.0006
2122.00,-0.0004
2121.00,-0.0002
2120.00,-0.0001
2119.00,-0.0000
2118.00,0.0000
2117.00,0.0001
2116.00,0.0001
2115.00,0.0002
2114.00,0.0003
2113.00,0.0004
2112.00,0.0004
2111.00,0.0004
2110.00,0.0003
2109.00,0.0001
2108.00,0.0001
2107.00,0.0001
2106.00,0.0002
2105.00,0.0003
2104.00,0.0003
2103.00,0.0003
2102.00,0.0003
2101.00,0.0003
2100.00,0.0003
2099.00,0.0002
2098.00,0.0001
2097.00,-0.0000
2096.00,-0.0002
2095.00,-0.0003
2094.00,-0.0004
2093.00,-0.0003
2092.00,-0.0003
2091.00,-0.0002
2090.00,-0.0001
2089.00,-0.0000
2088.00,0.0001
2087.00,0.0002
2086.00,0.0002
2085.00,0.0001
2084.00,0.0001
2083.00,0.0001
2082.00,0.0001
2081.00,0.0002
2080.00,0.0003
2079.00,0.0004
2078.00,0.0004
2077.00,0.0003
2076.00,0.0002
2075.00,0.0001
2074.00,0.0002
2073.00,0.0002
2072.00,0.0000
2071.00,-0.0001
2070.00,-0.0003
2069.00,-0.0004
2068.00,-0.0003
2067.00,-0.0001
2066.00,0.0002
2065.00,0.0004
2064.00,0.0003
2063.00,0.0001
2062.00,-0.0001
2061.00,-0.0002
2060.00,-0.0001
2059.00,0.0000
2058.00,0.0001
2057.00,0.0001
2056.00,0.0000
2055.00,-0.0000
2054.00,0.0002
2053.00,0.0008
2052.00,0.0015
2051.00,0.0019
2050.00,0.0017
2049.00,0.0011
2048.00,0.0005
2047.00,0.0000
2046.00,-0.0003
2045.00,-0.0006
2044.00,-0.0008
2043.00,-0.0009
2042.00,-0.0008
2041.00,-0.0006
2040.00,-0.0003
2039.00,-0.0001
2038.00,-0.0000
2037.00,0.0001
2036.00,0.0002
2035.00,0.0001
2034.00,-0.0002
2033.00,-0.0006
2032.00,-0.0009
2031.00,-0.0012
2030.00,-0.0013
2029.00,-0.0013
2028.00,-0.0013
2027.00,-0.0012
2026.00,-0.0013
2025.00,-0.0015
2024.00,-0.0017
2023.00,-0.0018
2022.00,-0.0019
2021.00,-0.0018
2020.00,-0.0017
2019.00,-0.0017
2018.00,-0.0016
2017.00,-0.0015
2016.00,-0.0014
2015.00,-0.0015
2014.00,-0.0017
2013.00,-0.0016
2012.00,-0.0014
2011.00,-0.0010
2010.00,-0.0008
2009.00,-0.0008
2008.00,-0.0012
2007.00,-0.0016
2006.00,-0.0019
2005.00,-0.0019
2004.00,-0.0016
2003.00,-0.0014
2002.00,-0.0015
2001.00,-0.0016
2000.00,-0.0018
1999.00,-0.0018
1998.00,-0.0017
1997.00,-0.0017
1996.00,-0.0016
1995.00,-0.0015
1994.00,-0.0014
1993.00,-0.0012
1992.00,-0.0012
1991.00,-0.0011
1990.00,-0.0010
1989.00,-0.0009
1988.00,-0.0007
1987.00,-0.0005
1986.00,-0.0002
1985.00,0.0001
1984.00,0.0003
1983.00,0.0005
1982.00,0.0007
1981.00,0.0009
1980.00,0.0009
1979.00,0.0004
1978.00,-0.0003
1977.00,-0.0010
1976.00,-0.0013
1975.00,-0.0013
1974.00,-0.0013
1973.00,-0.0013
1972.00,-0.0016
1971.00,-0.0019
1970.00,-0.0021
1969.00,-0.0022
1968.00,-0.0022
1967.00,-0.0020
1966.00,-0.0018
1965.00,-0.0018
1964.00,-0.0018
1963.00,-0.0019
1962.00,-0.0020
1961.00,-0.0019
1960.00,-0.0019
1959.00,-0.0019
1958.00,-0.0018
1957.00,-0.0017
1956.00,-0.0015
1955.00,-0.0014
1954.00,-0.0012
1953.00,-0.0011
1952.00,-0.0010
1951.00,-0.0010
1950.00,-0.0011
1949.00,-0.0012
1948.00,-0.0012
1947.00,-0.0014
1946.00,-0.0016
1945.00,-0.0017
1944.00,-0.0018
1943.00,-0.0017
1942.00,-0.0016
1941.00,-0.0016
1940.00,-0.0016
1939.00,-0.0016
1938.00,-0.0016
1937.00,-0.0015
1936.00,-0.0015
1935.00,-0.0014
1934.00,-0.0013
1933.00,-0.0011
1932.00,-0.0010
1931.00,-0.0009
1930.00,-0.0010
1929.00,-0.0011
1928.00,-0.0011
1927.00,-0.0010
1926.00,-0.0008
1925.00,-0.0006
1924.00,-0.0005
1923.00,-0.0005
1922.00,-0.0005
1921.00,-0.0006
1920.00,-0.0006
1919.00,-0.0007
1918.00,-0.0007
1917.00,-0.0005
1916.00,-0.0003
1915.00,-0.0002
1914.00,-0.0003
1913.00,-0.0004
1912.00,-0.0004
1911.00,-0.0004
1910.00,-0.0004
1909.00,-0.0004
1908.00,-0.0004
1907.00,-0.0004
1906.00,-0.0003
1905.00,-0.0003
1904.00,-0.0002
1903.00,-0.0002
1902.00,-0.0001
1901.00,-0.0001
1900.00,-0.0001
1899.00,-0.0001
1898.00,-0.0001
1897.00,-0.0001
1896.00,-0.0002
1895.00,-0.0003
1894.00,-0.0003
1893.00,-0.0003
1892.00,-0.0003
1891.00,-0.0003
1890.00,-0.0003
1889.00,-0.0002
1888.00,-0.0001
1887.00,-0.0001
1886.00,-0.0001
1885.00,-0.0002
1884.00,-0.0003
1883.00,-0.0004
1882.00,-0.0004
1881.00,-0.0004
1880.00,-0.0003
1879.00,-0.0003
1878.00,-0.0003
1877.00,-0.0003
1876.00,-0.0002
1875.00,-0.0002
1874.00,-0.0001
1873.00,-0.0001
1872.00,-0.0000
1871.00,0.0000
1870.00,0.0000
1869.00,-0.0001
1868.00,-0.0001
1867.00,-0.0002
1866.00,-0.0002
1865.00,-0.0003
1864.00,-0.0002
1863.00,-0.0001
1862.00,-0.0001
1861.00,-0.0001
1860.00,-0.0000
1859.00,0.0000
1858.00,0.0001
1857.00,0.0000
1856.00,-0.0001
1855.00,-0.0002
1854.00,-0.0002
1853.00,-0.0001
1852.00,-0.0001
1851.00,-0.0000
1850.00,-0.0001
1849.00,-0.0001
1848.00,-0.0001
1847.00,-0.0001
1846.00,-0.0001
1845.00,-0.0002
1844.00,-0.0002
1843.00,-0.0001
1842.00,-0.0001
1841.00,-0.0000
1840.00,0.0000
1839.00,-0.0000
1838.00,-0.0000
1837.00,0.0000
1836.00,0.0001
1835.00,0.0001
1834.00,0.0001
1833.00,0.0001
1832.00,0.0001
1831.00,0.0001
1830.00,0.0001
1829.00,0.0002
1828.00,0.0003
1827.00,0.0003
1826.00,0.0003
1825.00,0.0002
1824.00,0.0002
1823.00,0.0002
1822.00,0.0002
1821.00,0.0002
1820.00,0.0001
1819.00,0.0000
1818.00,-0.0001
1817.00,-0.0002
1816.00,-0.0001
1815.00,0.0000
1814.00,0.0001
1813.00,0.0002
1812.00,0.0003
1811.00,0.0004
1810.00,0.0004
1809.00,0.0004
1808.00,0.0003
1807.00,0.0003
1806.00,0.0003
1805.00,0.0003
1804.00,0.0003
1803.00,0.0004
1802.00,0.0004
1801.00,0.0004
1800.00,0.0004
1799.00,0.0005
1798.00,0.0005
1797.00,0.0005
1796.00,0.0005
1795.00,0.0005
1794.00,0.0005
1793.00,0.0006
1792.00,0.0007
1791.00,0.0007
1790.00,0.0008
1789.00,0.0007
1788.00,0.0007
1787.00,0.0007
1786.00,0.0007
1785.00,0.0007
1784.00,0.0007
1783.00,0.0007
1782.00,0.0007
1781.00,0.0008
1780.00,0.0008
1779.00,0.0009
1778.00,0.0008
1777.00,0.0008
1776.00,0.0007
1775.00,0.0007
1774.00,0.0007
1773.00,0.0008
1772.00,0.0008
1771.00,0.0009
1770.00,0.0009
1769.00,0.0010
1768.00,0.0010
1767.00,0.0010
1766.00,0.0010
1765.00,0.0010
1764.00,0.0010
1763.00,0.0010
1762.00,0.0010
1761.00,0.0011
1760.00,0.0011
1759.00,0.0012
1758.00,0.0012
1757.00,0.0012
1756.00,0.0013
1755.00,0.0013
1754.00,0.0014
1753.00,0.0015
1752.00,0.0016
1751.00,0.0018
1750.00,0.0019
1749.00,0.0021
1748.00,0.0022
1747.00,0.0022
1746.00,0.0023
1745.00,0.0024
1744.00,0.0025
1743.00,0.0025
1742.00,0.0026
1741.00,0.0026
1740.00,0.0027
1739.00,0.0027
1738.00,0.0028
1737.00,0.0029
1736.00,0.0029
1735.00,0.0029
1734.00,0.0029
1733.00,0.0029
1732.00,0.0030
1731.00,0.0030
1730.00,0.0029
1729.00,0.0029
1728.00,0.0029
1727.00,0.0029
1726.00,0.0029
1725.00,0.0029
1724.00,0.0029
1723.00,0.0030
1722.00,0.0030
1721.00,0.0030
1720.00,0.0029
1719.00,0.0028
1718.00,0.0027
1717.00,0.0027
1716.00,0.0027
1715.00,0.0027
1714.00,0.0027
1713.00,0.0026
1712.00,0.0026
1711.00,0.0026
1710.00,0.0025
1709.00,0.0025
1708.00,0.0025
1707.00,0.0026
1706.00,0.0025
1705.00,0.0026
1704.00,0.0026
1703.00,0.0027
1702.00,0.0027
1701.00,0.0027
1700.00,0.0028
1699.00,0.0029
1698.00,0.0030
1697.00,0.0031
1696.00,0.0031
1695.00,0.0031
1694.00,0.0032
1693.00,0.0032
1692.00,0.0033
1691.00,0.0033
1690.00,0.0034
1689.00,0.0034
1688.00,0.0036
1687.00,0.0036
1686.00,0.0037
1685.00,0.0037
1684.00,0.0039
1683.00,0.0041
1682.00,0.0043
1681.00,0.0044
1680.00,0.0044
1679.00,0.0045
1678.00,0.0046
1677.00,0.0047
1676.00,0.0048
1675.00,0.0050
1674.00,0.0050
1673.00,0.0051
1672.00,0.0052
1671.00,0.0053
1670.00,0.0053
1669.00,0.0054
1668.00,0.0055
1667.00,0.0055
1666.00,0.0055
1665.00,0.0056
1664.00,0.0056
1663.00,0.0056
1662.00,0.0057
1661.00,0.0058
1660.00,0.0058
1659.00,0.0059
1658.00,0.0060
1657.00,0.0060
1656.00,0.0062
1655.00,0.0063
1654.00,0.0063
1653.00,0.0063
1652.00,0.0065
1651.00,0.0067
1650.00,0.0068
1649.00,0.0069
1648.00,0.0070
1647.00,0.0071
1646.00,0.0072
1645.00,0.0074
1644.00,0.0075
1643.00,0.0076
1642.00,0.0076
1641.00,0.0077
1640.00,0.0079
1639.00,0.0080
1638.00,0.0081
1637.00,0.0082
1636.00,0.0082
1635.00,0.0081
1634.00,0.0080
1633.00,0.0079
1632.00,0.0078
1631.00,0.0077
1630.00,0.0076
1629.00,0.0075
1628.00,0.0074
1627.00,0.0074
1626.00,0.0074
1625.00,0.0073
1624.00,0.0073
1623.00,0.0072
1622.00,0.0072
1621.00,0.0071
1620.00,0.0070
1619.00,0.0069
1618.00,0.0069
1617.00,0.0068
1616.00,0.0068
1615.00,0.0068
1614.00,0.0068
1613.00,0.0068
1612.00,0.0069
1611.00,0.0069
1610.00,0.0069
1609.00,0.0069
1608.00,0.0069
1607.00,0.0069
1606.00,0.0068
1605.00,0.0068
1604.00,0.0068
1603.00,0.0067
1602.00,0.0067
1601.00,0.0067
1600.00,0.0067
1599.00,0.0067
1598.00,0.0066
1597.00,0.0065
1596.00,0.0064
1595.00,0.0064
1594.00,0.0064
1593.00,0.0064
1592.00,0.0064
1591.00,0.0063
1590.00,0.0062
1589.00,0.0062
1588.00,0.0061
1587.00,0.0061
1586.00,0.0061
1585.00,0.0061
1584.00,0.0061
1583.00,0.0061
1582.00,0.0061
1581.00,0.0061
1580.00,0.0061
1579.00,0.0061
1578.00,0.0061
1577.00,0.0062
1576.00,0.0063
1575.00,0.0063
1574.00,0.0064
1573.00,0.0064
1572.00,0.0065
1571.00,0.0065
1570.00,0.0066
1569.00,0.0068
1568.00,0.0070
1567.00,0.0071
1566.00,0.0072
1565.00,0.0073
1564.00,0.0073
1563.00,0.0073
1562.00,0.0074
1561.00,0.0075
1560.00,0.0076
1559.00,0.0077
1558.00,0.0077
1557.00,0.0077
1556.00,0.0077
1555.00,0.0077
1554.00,0.0077
1553.00,0.0078
1552.00,0.0078
1551.00,0.0079
1550.00,0.0079
1549.00,0.0079
1548.00,0.0078
1547.00,0.0078
1546.00,0.0077
1545.00,0.0076
1544.00,0.0076
1543.00,0.0076
1542.00,0.0075
1541.00,0.0073
1540.00,0.0071
1539.00,0.0069
1538.00,0.0068
1537.00,0.0067
1536.00,0.0066
1535.00,0.0065
1534.00,0.0064
1533.00,0.0063
1532.00,0.0063
1531.00,0.0063
1530.00,0.0063
1529.00,0.0063
1528.00,0.0063
1527.00,0.0062
1526.00,0.0062
1525.00,0.0061
1524.00,0.0061
1523.00,0.0060
1522.00,0.0058
1521.00,0.0058
1520.00,0.0059
1519.00,0.0059
1518.00,0.0059
1517.00,0.0059
1516.00,0.0059
1515.00,0.0059
1514.00,0.0059
1513.00,0.0060
1512.00,0.0061
1511.00,0.0061
1510.00,0.0062
1509.00,0.0064
1508.00,0.0066
1507.00,0.0067
1506.00,0.0067
1505.00,0.0068
1504.00,0.0069
1503.00,0.0070
1502.00,0.0071
1501.00,0.0073
1500.00,0.0076
1499.00,0.0078
1498.00,0.0081
1497.00,0.0085
1496.00,0.0091
1495.00,0.0095
1494.00,0.0098
1493.00,0.0102
1492.00,0.0106
1491.00,0.0110
1490.00,0.0114
1489.00,0.0119
1488.00,0.0124
1487.00,0.0127
1486.00,0.0132
1485.00,0.0137
1484.00,0.0143
1483.00,0.0149
1482.00,0.0157
1481.00,0.0167
1480.00,0.0178
1479.00,0.0190
1478.00,0.0205
1477.00,0.0225
1476.00,0.0250
1475.00,0.0279
1474.00,0.0319
1473.00,0.0374
1472.00,0.0439
1471.00,0.0502
1470.00,0.0563
1469.00,0.0627
1468.00,0.0697
1467.00,0.0773
1466.00,0.0858
1465.00,0.0949
1464.00,0.1029
1463.00,0.1084
1462.00,0.1119
1461.00,0.1143
1460.00,0.1160
1459.00,0.1172
1458.00,0.1182
1457.00,0.1189
1456.00,0.1188
1455.00,0.1181
1454.00,0.1169
1453.00,0.1154
1452.00,0.1131
1451.00,0.1098
1450.00,0.1052
1449.00,0.0986
1448.00,0.0899
1447.00,0.0805
1446.00,0.0719
1445.00,0.0643
1444.00,0.0578
1443.00,0.0525
1442.00,0.0484
1441.00,0.0455
1440.00,0.0437
1439.00,0.0429
1438.00,0.0429
1437.00,0.0430
1436.00,0.0422
1435.00,0.0399
1434.00,0.0364
1433.00,0.0322
1432.00,0.0278
1431.00,0.0238
1430.00,0.0207
1429.00,0.0184
1428.00,0.0168
1427.00,0.0159
1426.00,0.0152
1425.00,0.0146
1424.00,0.0141
1423.00,0.0138
1422.00,0.0136
1421.00,0.0133
1420.00,0.0130
1419.00,0.0128
1418.00,0.0127
1417.00,0.0124
1416.00,0.0122
1415.00,0.0120
1414.00,0.0119
1413.00,0.0117
1412.00,0.0115
1411.00,0.0114
1410.00,0.0113
1409.00,0.0112
1408.00,0.0111
1407.00,0.0111
1406.00,0.0112
1405.00,0.0113
1404.00,0.0112
1403.00,0.0113
1402.00,0.0114
1401.00,0.0115
1400.00,0.0115
1399.00,0.0117
1398.00,0.0120
1397.00,0.0122
1396.00,0.0124
1395.00,0.0128
1394.00,0.0132
1393.00,0.0136
1392.00,0.0141
1391.00,0.0148
1390.00,0.0158
1389.00,0.0171
1388.00,0.0190
1387.00,0.0219
1386.00,0.0259
1385.00,0.0311
1384.00,0.0383
1383.00,0.0484
1382.00,0.0621
1381.00,0.0798
1380.00,0.1021
1379.00,0.1281
1378.00,0.1543
1377.00,0.1745
1376.00,0.1828
1375.00,0.1752
1374.00,0.1541
1373.00,0.1277
1372.00,0.1031
1371.00,0.0828
1370.00,0.0665
1369.00,0.0541
1368.00,0.0456
1367.00,0.0404
1366.00,0.0376
1365.00,0.0365
1364.00,0.0368
1363.00,0.0382
1362.00,0.0403
1361.00,0.0426
1360.00,0.0443
1359.00,0.0448
1358.00,0.0438
1357.00,0.0413
1356.00,0.0378
1355.00,0.0338
1354.00,0.0300
1353.00,0.0267
1352.00,0.0240
1351.00,0.0218
1350.00,0.0201
1349.00,0.0187
1348.00,0.0176
1347.00,0.0166
1346.00,0.0157
1345.00,0.0150
1344.00,0.0145
1343.00,0.0139
1342.00,0.0135
1341.00,0.0131
1340.00,0.0128
1339.00,0.0125
1338.00,0.0123
1337.00,0.0122
1336.00,0.0123
1335.00,0.0124
1334.00,0.0127
1333.00,0.0131
1332.00,0.0135
1331.00,0.0138
1330.00,0.0140
1329.00,0.0139
1328.00,0.0136
1327.00,0.0132
1326.00,0.0127
1325.00,0.0121
1324.00,0.0115
1323.00,0.0110
1322.00,0.0106
1321.00,0.0103
1320.00,0.0101
1319.00,0.0099
1318.00,0.0098
1317.00,0.0097
1316.00,0.0096
1315.00,0.0095
1314.00,0.0095
1313.00,0.0095
1312.00,0.0096
1311.00,0.0098
1310.00,0.0102
1309.00,0.0109
1308.00,0.0119
1307.00,0.0131
1306.00,0.0142
1305.00,0.0149
1304.00,0.0151
1303.00,0.0147
1302.00,0.0141
1301.00,0.0136
1300.00,0.0133
1299.00,0.0131
1298.00,0.0131
1297.00,0.0131
1296.00,0.0131
1295.00,0.0129
1294.00,0.0125
1293.00,0.0121
1292.00,0.0116
1291.00,0.0111
1290.00,0.0107
1289.00,0.0103
1288.00,0.0100
1287.00,0.0098
1286.00,0.0096
1285.00,0.0094
1284.00,0.0092
1283.00,0.0091
1282.00,0.0090
1281.00,0.0089
1280.00,0.0089
1279.00,0.0088
1278.00,0.0087
1277.00,0.0086
1276.00,0.0085
1275.00,0.0085
1274.00,0.0085
1273.00,0.0086
1272.00,0.0088
1271.00,0.0090
1270.00,0.0092
1269.00,0.0095
1268.00,0.0097
1267.00,0.0101
1266.00,0.0105
1265.00,0.0110
1264.00,0.0114
1263.00,0.0117
1262.00,0.0121
1261.00,0.0124
1260.00,0.0128
1259.00,0.0133
1258.00,0.0139
1257.00,0.0144
1256.00,0.0145
1255.00,0.0143
1254.00,0.0136
1253.00,0.0127
1252.00,0.0118
1251.00,0.0111
1250.00,0.0105
1249.00,0.0100
1248.00,0.0097
1247.00,0.0094
1246.00,0.0091
1245.00,0.0090
1244.00,0.0088
1243.00,0.0088
1242.00,0.0087
1241.00,0.0085
1240.00,0.0084
1239.00,0.0083
1238.00,0.0082
1237.00,0.0082
1236.00,0.0082
1235.00,0.0082
1234.00,0.0083
1233.00,0.0084
1232.00,0.0084
1231.00,0.0084
1230.00,0.0084
1229.00,0.0085
1228.00,0.0087
1227.00,0.0088
1226.00,0.0090
1225.00,0.0092
1224.00,0.0095
1223.00,0.0099
1222.00,0.0102
1221.00,0.0105
1220.00,0.0107
1219.00,0.0107
1218.00,0.0106
1217.00,0.0104
1216.00,0.0102
1215.00,0.0099
1214.00,0.0096
1213.00,0.0093
1212.00,0.0091
1211.00,0.0089
1210.00,0.0087
1209.00,0.0086
1208.00,0.0085
1207.00,0.0084
1206.00,0.0083
1205.00,0.0082
1204.00,0.0081
1203.00,0.0081
1202.00,0.0081
1201.00,0.0082
1200.00,0.0082
1199.00,0.0082
1198.00,0.0082
1197.00,0.0082
1196.00,0.0083
1195.00,0.0083
1194.00,0.0083
1193.00,0.0083
1192.00,0.0083
1191.00,0.0082
1190.00,0.0083
1189.00,0.0083
1188.00,0.0084
1187.00,0.0085
1186.00,0.0086
1185.00,0.0087
1184.00,0.0087
1183.00,0.0089
1182.00,0.0091
1181.00,0.0093
1180.00,0.0097
1179.00,0.0102
1178.00,0.0108
1177.00,0.0116
1176.00,0.0127
1175.00,0.0142
1174.00,0.0161
1173.00,0.0186
1172.00,0.0216
1171.00,0.0250
1170.00,0.0284
1169.00,0.0312
1168.00,0.0329
1167.00,0.0333
1166.00,0.0324
1165.00,0.0308
1164.00,0.0288
1163.00,0.0269
1162.00,0.0253
1161.00,0.0240
1160.00,0.0230
1159.00,0.0222
1158.00,0.0217
1157.00,0.0214
1156.00,0.0212
1155.00,0.0211
1154.00,0.0209
1153.00,0.0207
1152.00,0.0203
1151.00,0.0197
1150.00,0.0189
1149.00,0.0180
1148.00,0.0170
1147.00,0.0160
1146.00,0.0152
1145.00,0.0144
1144.00,0.0138
1143.00,0.0132
1142.00,0.0127
1141.00,0.0122
1140.00,0.0118
1139.00,0.0114
1138.00,0.0110
1137.00,0.0107
1136.00,0.0104
1135.00,0.0102
1134.00,0.0101
1133.00,0.0101
1132.00,0.0100
1131.00,0.0101
1130.00,0.0101
1129.00,0.0102
1128.00,0.0103
1127.00,0.0103
1126.00,0.0104
1125.00,0.0105
1124.00,0.0106
1123.00,0.0108
1122.00,0.0110
1121.00,0.0112
1120.00,0.0114
1119.00,0.0116
1118.00,0.0118
1117.00,0.0119
1116.00,0.0121
1115.00,0.0122
1114.00,0.0124
1113.00,0.0125
1112.00,0.0126
1111.00,0.0127
1110.00,0.0129
1109.00,0.0133
1108.00,0.0137
1107.00,0.0143
1106.00,0.0149
1105.00,0.0155
1104.00,0.0160
1103.00,0.0163
1102.00,0.0162
1101.00,0.0158
1100.00,0.0152
1099.00,0.0145
1098.00,0.0139
1097.00,0.0134
1096.00,0.0131
1095.00,0.0128
1094.00,0.0126
1093.00,0.0124
1092.00,0.0122
1091.00,0.0120
1090.00,0.0117
1089.00,0.0115
1088.00,0.0114
1087.00,0.0113
1086.00,0.0113
1085.00,0.0113
1084.00,0.0113
1083.00,0.0112
1082.00,0.0111
1081.00,0.0109
1080.00,0.0107
1079.00,0.0106
1078.00,0.0104
1077.00,0.0103
1076.00,0.0103
1075.00,0.0103
1074.00,0.0104
1073.00,0.0104
1072.00,0.0103
1071.00,0.0103
1070.00,0.0102
1069.00,0.0101
1068.00,0.0101
1067.00,0.0102
1066.00,0.0103
1065.00,0.0104
1064.00,0.0105
1063.00,0.0105
1062.00,0.0106
1061.00,0.0107
1060.00,0.0107
1059.00,0.0108
1058.00,0.0109
1057.00,0.0110
1056.00,0.0111
1055.00,0.0113
1054.00,0.0116
1053.00,0.0118
1052.00,0.0121
1051.00,0.0124
1050.00,0.0128
1049.00,0.0132
1048.00,0.0136
1047.00,0.0141
1046.00,0.0146
1045.00,0.0149
1044.00,0.0151
1043.00,0.0150
1042.00,0.0148
1041.00,0.0145
1040.00,0.0142
1039.00,0.0140
1038.00,0.0139
1037.00,0.0138
1036.00,0.0138
1035.00,0.0138
1034.00,0.0138
1033.00,0.0137
1032.00,0.0136
1031.00,0.0136
1030.00,0.0136
1029.00,0.0137
1028.00,0.0137
1027.00,0.0139
1026.00,0.0140
1025.00,0.0142
1024.00,0.0144
1023.00,0.0146
1022.00,0.0148
1021.00,0.0151
1020.00,0.0152
1019.00,0.0153
1018.00,0.0154
1017.00,0.0154
1016.00,0.0154
1015.00,0.0153
1014.00,0.0152
1013.00,0.0150
1012.00,0.0149
1011.00,0.0149
1010.00,0.0149
1009.00,0.0150
1008.00,0.0152
1007.00,0.0156
1006.00,0.0163
1005.00,0.0174
1004.00,0.0190
1003.00,0.0213
1002.00,0.0243
1001.00,0.0281
1000.00,0.0323
999.00,0.0358
998.00,0.0375
997.00,0.0368
996.00,0.0339
995.00,0.0297
994.00,0.0254
993.00,0.0217
992.00,0.0188
991.00,0.0168
990.00,0.0154
989.00,0.0144
988.00,0.0137
987.00,0.0132
986.00,0.0130
985.00,0.0130
984.00,0.0133
983.00,0.0139
982.00,0.0149
981.00,0.0163
980.00,0.0184
979.00,0.0211
978.00,0.0246
977.00,0.0287
976.00,0.0332
975.00,0.0376
974.00,0.0411
973.00,0.0426
972.00,0.0413
971.00,0.0375
970.00,0.0323
969.00,0.0270
968.00,0.0224
967.00,0.0188
966.00,0.0163
965.00,0.0145
964.00,0.0133
963.00,0.0124
962.00,0.0117
961.00,0.0111
960.00,0.0107
959.00,0.0103
958.00,0.0099
957.00,0.0096
956.00,0.0093
955.00,0.0091
954.00,0.0089
953.00,0.0088
952.00,0.0088
951.00,0.0087
950.00,0.0086
949.00,0.0086
948.00,0.0086
947.00,0.0087
946.00,0.0089
945.00,0.0091
944.00,0.0094
943.00,0.0097
942.00,0.0100
941.00,0.0102
940.00,0.0102
939.00,0.0100
938.00,0.0096
937.00,0.0090
936.00,0.0085
935.00,0.0080
934.00,0.0077
933.00,0.0074
932.00,0.0073
931.00,0.0072
930.00,0.0071
929.00,0.0071
928.00,0.0071
927.00,0.0070
926.00,0.0070
925.00,0.0069
924.00,0.0069
923.00,0.0069
922.00,0.0068
921.00,0.0067
920.00,0.0067
919.00,0.0068
918.00,0.0068
917.00,0.0069
916.00,0.0070
915.00,0.0071
914.00,0.0072
913.00,0.0072
912.00,0.0073
911.00,0.0075
910.00,0.0078
909.00,0.0081
908.00,0.0083
907.00,0.0087
906.00,0.0093
905.00,0.0103
904.00,0.0116
903.00,0.0133
902.00,0.0152
901.00,0.0170
900.00,0.0182
899.00,0.0185
898.00,0.0177
897.00,0.0162
896.00,0.0145
895.00,0.0128
894.00,0.0114
893.00,0.0103
892.00,0.0095
891.00,0.0090
890.00,0.0087
889.00,0.0085
888.00,0.0083
887.00,0.0082
886.00,0.0081
885.00,0.0080
884.00,0.0080
883.00,0.0079
882.00,0.0079
881.00,0.0079
880.00,0.0080
879.00,0.0083
878.00,0.0085
877.00,0.0086
876.00,0.0086
875.00,0.0084
874.00,0.0083
873.00,0.0081
872.00,0.0081
871.00,0.0081
870.00,0.0082
869.00,0.0082
868.00,0.0083
867.00,0.0084
866.00,0.0084
865.00,0.0084
864.00,0.0083
863.00,0.0084
862.00,0.0085
861.00,0.0086
860.00,0.0087
859.00,0.0088
858.00,0.0090
857.00,0.0092
856.00,0.0094
855.00,0.0096
854.00,0.0098
853.00,0.0100
852.00,0.0102
851.00,0.0105
850.00,0.0110
849.00,0.0117
848.00,0.0126
847.00,0.0139
846.00,0.0159
845.00,0.0189
844.00,0.0233
843.00,0.0288
842.00,0.0338
841.00,0.0361
840.00,0.0343
839.00,0.0295
838.00,0.0237
837.00,0.0189
836.00,0.0157
835.00,0.0139
834.00,0.0129
833.00,0.0122
832.00,0.0118
831.00,0.0114
830.00,0.0111
829.00,0.0109
828.00,0.0108
827.00,0.0108
826.00,0.0108
825.00,0.0109
824.00,0.0109
823.00,0.0110
822.00,0.0110
821.00,0.0111
820.00,0.0113
819.00,0.0116
818.00,0.0121
817.00,0.0128
816.00,0.0138
815.00,0.0151
814.00,0.0165
813.00,0.0182
812.00,0.0200
811.00,0.0219
810.00,0.0233
809.00,0.0240
808.00,0.0237
807.00,0.0224
806.00,0.0206
805.00,0.0186
804.00,0.0169
803.00,0.0155
802.00,0.0145
801.00,0.0139
800.00,0.0135
799.00,0.0131
798.00,0.0126
797.00,0.0121
796.00,0.0117
795.00,0.0113
794.00,0.0109
793.00,0.0105
792.00,0.0101
791.00,0.0097
790.00,0.0094
789.00,0.0090
788.00,0.0088
787.00,0.0086
786.00,0.0084
785.00,0.0081
784.00,0.0077
783.00,0.0075
782.00,0.0073
781.00,0.0072
780.00,0.0072
779.00,0.0071
778.00,0.0071
777.00,0.0071
776.00,0.0072
775.00,0.0073
774.00,0.0073
773.00,0.0074
772.00,0.0074
771.00,0.0075
770.00,0.0076
769.00,0.0076
768.00,0.0076
767.00,0.0075
766.00,0.0074
765.00,0.0073
764.00,0.0073
763.00,0.0073
762.00,0.0072
761.00,0.0071
760.00,0.0071
759.00,0.0072
758.00,0.0074
757.00,0.0075
756.00,0.0077
755.00,0.0079
754.00,0.0081
753.00,0.0082
752.00,0.0083
751.00,0.0084
750.00,0.0086
749.00,0.0087
748.00,0.0088
747.00,0.0088
746.00,0.0089
745.00,0.0091
744.00,0.0095
743.00,0.0098
742.00,0.0102
741.00,0.0106
740.00,0.0110
739.00,0.0114
738.00,0.0118
737.00,0.0122
736.00,0.0126
735.00,0.0130
734.00,0.0135
733.00,0.0141
732.00,0.0148
731.00,0.0155
730.00,0.0161
729.00,0.0163
728.00,0.0163
727.00,0.0163
726.00,0.0164
725.00,0.0168
724.00,0.0173
723.00,0.0179
722.00,0.0185
721.00,0.0188
720.00,0.0186
719.00,0.0177
718.00,0.0164
717.00,0.0152
716.00,0.0142
715.00,0.0135
714.00,0.0130
713.00,0.0125
712.00,0.0121
711.00,0.0118
710.00,0.0116
709.00,0.0116
708.00,0.0116
707.00,0.0116
706.00,0.0116
705.00,0.0116
704.00,0.0114
703.00,0.0113
702.00,0.0110
701.00,0.0108
700.00,0.0106
699.00,0.0104
698.00,0.0103
697.00,0.0102
696.00,0.0103
695.00,0.0105
694.00,0.0106
693.00,0.0106
692.00,0.0105
691.00,0.0105
690.00,0.0105
689.00,0.0105
688.00,0.0104
687.00,0.0102
686.00,0.0100
685.00,0.0100
684.00,0.0100
683.00,0.0102
682.00,0.0105
681.00,0.0108
680.00,0.0110
679.00,0.0109
678.00,0.0107
677.00,0.0105
676.00,0.0105
675.00,0.0108
674.00,0.0111
673.00,0.0112
672.00,0.0112
671.00,0.0113
670.00,0.0114
669.00,0.0115
668.00,0.0114
667.00,0.0112
666.00,0.0111
665.00,0.0111
664.00,0.0112
663.00,0.0111
662.00,0.0109
661.00,0.0107
660.00,0.0104
659.00,0.0101
658.00,0.0099
657.00,0.0099
656.00,0.0100
655.00,0.0101
654.00,0.0101
653.00,0.0099
652.00,0.0097
651.00,0.0094
650.00,0.0093
649.00,0.0093
648.00,0.0093
647.00,0.0093
646.00,0.0092
645.00,0.0092
644.00,0.0091
643.00,0.0090
642.00,0.0088
641.00,0.0087
640.00,0.0087
639.00,0.0089
638.00,0.0091
637.00,0.0094
636.00,0.0095
635.00,0.0096
634.00,0.0097
633.00,0.0098
632.00,0.0098
631.00,0.0099
630.00,0.0100
629.00,0.0100
628.00,0.0099
627.00,0.0096
626.00,0.0094
625.00,0.0093
624.00,0.0095
623.00,0.0097
622.00,0.0097
621.00,0.0095
620.00,0.0093
619.00,0.0093
618.00,0.0096
617.00,0.0098
616.00,0.0098
615.00,0.0094
614.00,0.0091
613.00,0.0091
612.00,0.0093
611.00,0.0095
610.00,0.0095
609.00,0.0095
608.00,0.0095
607.00,0.0095
606.00,0.0095
605.00,0.0095
604.00,0.0092
603.00,0.0089
602.00,0.0086
601.00,0.0085
600.00,0.0086
599.00,0.0088
598.00,0.0091
597.00,0.0092
596.00,0.0092
595.00,0.0091
594.00,0.0088
593.00,0.0087
592.00,0.0086
591.00,0.0087
590.00,0.0088
589.00,0.0091
588.00,0.0093
587.00,0.0094
586.00,0.0093
585.00,0.0092
584.00,0.0094
583.00,0.0096
582.00,0.0098
581.00,0.0099
580.00,0.0097
579.00,0.0095
578.00,0.0094
577.00,0.0093
576.00,0.0094
575.00,0.0096
574.00,0.0099
573.00,0.0100
572.00,0.0100
571.00,0.0098
570.00,0.0096
569.00,0.0094
568.00,0.0095
567.00,0.0098
566.00,0.0100
565.00,0.0099
564.00,0.0096
563.00,0.0093
562.00,0.0091
561.00,0.0090
560.00,0.0089
559.00,0.0088
558.00,0.0088
557.00,0.0088
556.00,0.0090
555.00,0.0091
554.00,0.0092
553.00,0.0092
552.00,0.0093
551.00,0.0093
550.00,0.0093
549.00,0.0092
548.00,0.0092
547.00,0.0092
546.00,0.0093
545.00,0.0096
544.00,0.0100
543.00,0.0102
542.00,0.0103
541.00,0.0106
540.00,0.0113
539.00,0.0121
538.00,0.0127
537.00,0.0129
536.00,0.0128
535.00,0.0125
534.00,0.0123
533.00,0.0121
532.00,0.0120
531.00,0.0120
530.00,0.0120
529.00,0.0120
528.00,0.0119
527.00,0.0115
526.00,0.0110
525.00,0.0106
524.00,0.0105
523.00,0.0104
522.00,0.0101
521.00,0.0098
520.00,0.0097
519.00,0.0098
518.00,0.0101
517.00,0.0104
516.00,0.0105
515.00,0.0102
514.00,0.0094
513.00,0.0085
512.00,0.0078
511.00,0.0078
510.00,0.0083
509.00,0.0090
508.00,0.0094
507.00,0.0093
506.00,0.0088
505.00,0.0082
504.00,0.0080
503.00,0.0083
502.00,0.0088
501.00,0.0093
500.00,0.0096
499.00,0.0100
498.00,0.0105
497.00,0.0107
496.00,0.0106
495.00,0.0101
494.00,0.0093
493.00,0.0088
492.00,0.0090
491.00,0.0097
490.00,0.0105
489.00,0.0109
488.00,0.0110
487.00,0.0108
486.00,0.0105
485.00,0.0101
484.00,0.0098
483.00,0.0098
482.00,0.0096
481.00,0.0094
480.00,0.0095
479.00,0.0104
478.00,0.0120
477.00,0.0139
476.00,0.0155
475.00,0.0166
474.00,0.0172
473.00,0.0171
472.00,0.0170
471.00,0.0173
470.00,0.0178
469.00,0.0181
468.00,0.0177
467.00,0.0171
466.00,0.0170
465.00,0.0178
464.00,0.0191
463.00,0.0203
462.00,0.0212
461.00,0.0220
460.00,0.0228
459.00,0.0235
458.00,0.0235
457.00,0.0231
456.00,0.0225
455.00,0.0221
454.00,0.0215
453.00,0.0207
452.00,0.0196
451.00,0.0183
450.00,0.0167
