Created as New Dataset,Sample 039 By Administrator Date Thursday, September 04 2025
cm-1,A
4000.00,0.0009
3999.00,0.0009
3998.00,0.0009
3997.00,0.0009
3996.00,0.0009
3995.00,0.0008
3994.00,0.0008
3993.00,0.0008
3992.00,0.0008
3991.00,0.0008
3990.00,0.0008
3989.00,0.0007
3988.00,0.0007
3987.00,0.0007
3986.00,0.0007
3985.00,0.0007
3984.00,0.0007
3983.00,0.0007
3982.00,0.0007
3981.00,0.0007
3980.00,0.0007
3979.00,0.0007
3978.00,0.0007
3977.00,0.0007
3976.00,0.0007
3975.00,0.0007
3974.00,0.0007
3973.00,0.0007
3972.00,0.0007
3971.00,0.0007
3970.00,0.0007
3969.00,0.0007
3968.00,0.0007
3967.00,0.0007
3966.00,0.0007
3965.00,0.0006
3964.00,0.0006
3963.00,0.0006
3962.00,0.0006
3961.00,0.0006
3960.00,0.0006
3959.00,0.0006
3958.00,0.0006
3957.00,0.0007
3956.00,0.0007
3955.00,0.0006
3954.00,0.0006
3953.00,0.0006
3952.00,0.0006
3951.00,0.0006
3950.00,0.0006
3949.00,0.0005
3948.00,0.0005
3947.00,0.0005
3946.00,0.0005
3945.00,0.0005
3944.00,0.0005
3943.00,0.0006
3942.00,0.0006
3941.00,0.0006
3940.00,0.0006
3939.00,0.0006
3938.00,0.0006
3937.00,0.0006
3936.00,0.0006
3935.00,0.0006
3934.00,0.0005
3933.00,0.0005
3932.00,0.0005
3931.00,0.0005
3930.00,0.0006
3929.00,0.0006
3928.00,0.0006
3927.00,0.0006
3926.00,0.0006
3925.00,0.0006
3924.00,0.0006
3923.00,0.0006
3922.00,0.0007
3921.00,0.0007
3920.00,0.0006
3919.00,0.0006
3918.00,0.0006
3917.00,0.0006
3916.00,0.0006
3915.00,0.0006
3914.00,0.0006
3913.00,0.0006
3912.00,0.0006
3911.00,0.0006
3910.00,0.0006
3909.00,0.0006
3908.00,0.0006
3907.00,0.0005
3906.00,0.0005
3905.00,0.0005
3904.00,0.0005
3903.00,0.0005
3902.00,0.0004
3901.00,0.0004
3900.00,0.0005
3899.00,0.0005
3898.00,0.0006
3897.00,0.0006
3896.00,0.0006
3895.00,0.0006
3894.00,0.0006
3893.00,0.0006
3892.00,0.0006
3891.00,0.0006
3890.00,0.0006
3889.00,0.0005
3888.00,0.0005
3887.00,0.0005
3886.00,0.0005
3885.00,0.0005
3884.00,0.0005
3883.00,0.0005
3882.00,0.0005
3881.00,0.0005
3880.00,0.0006
3879.00,0.0006
3878.00,0.0006
3877.00,0.0006
3876.00,0.0006
3875.00,0.0006
3874.00,0.0006
3873.00,0.0005
3872.00,0.0005
3871.00,0.0005
3870.00,0.0005
3869.00,0.0005
3868.00,0.0005
3867.00,0.0005
3866.00,0.0005
3865.00,0.0005
3864.00,0.0005
3863.00,0.0005
3862.00,0.0005
3861.00,0.0005
3860.00,0.0005
3859.00,0.0005
3858.00,0.0005
3857.00,0.0004
3856.00,0.0004
3855.00,0.0004
3854.00,0.0004
3853.00,0.0004
3852.00,0.0004
3851.00,0.0004
3850.00,0.0004
3849.00,0.0004
3848.00,0.0005
3847.00,0.0005
3846.00,0.0005
3845.00,0.0005
3844.00,0.0005
3843.00,0.0005
3842.00,0.0005
3841.00,0.0005
3840.00,0.0005
3839.00,0.0004
3838.00,0.0004
3837.00,0.0004
3836.00,0.0005
3835.00,0.0005
3834.00,0.0005
3833.00,0.0005
3832.00,0.0005
3831.00,0.0005
3830.00,0.0005
3829.00,0.0005
3828.00,0.0005
3827.00,0.0005
3826.00,0.0005
3825.00,0.0004
3824.00,0.0004
3823.00,0.0004
3822.00,0.0004
3821.00,0.0004
3820.00,0.0004
3819.00,0.0005
3818.00,0.0005
3817.00,0.0005
3816.00,0.0005
3815.00,0.0006
3814.00,0.0006
3813.00,0.0006
3812.00,0.0006
3811.00,0.0006
3810.00,0.0006
3809.00,0.0006
3808.00,0.0006
3807.00,0.0006
3806.00,0.0005
3805.00,0.0005
3804.00,0.0005
3803.00,0.0005
3802.00,0.0005
3801.00,0.0005
3800.00,0.0005
3799.00,0.0005
3798.00,0.0005
3797.00,0.0005
3796.00,0.0005
3795.00,0.0006
3794.00,0.0006
3793.00,0.0006
3792.00,0.0006
3791.00,0.0006
3790.00,0.0006
3789.00,0.0006
3788.00,0.0006
3787.00,0.0006
3786.00,0.0006
3785.00,0.0006
3784.00,0.0005
3783.00,0.0005
3782.00,0.0005
3781.00,0.0006
3780.00,0.0006
3779.00,0.0007
3778.00,0.0007
3777.00,0.0007
3776.00,0.0006
3775.00,0.0006
3774.00,0.0006
3773.00,0.0006
3772.00,0.0005
3771.00,0.0005
3770.00,0.0005
3769.00,0.0005
3768.00,0.0006
3767.00,0.0006
3766.00,0.0006
3765.00,0.0006
3764.00,0.0005
3763.00,0.0005
3762.00,0.0005
3761.00,0.0005
3760.00,0.0006
3759.00,0.0006
3758.00,0.0006
3757.00,0.0006
3756.00,0.0005
3755.00,0.0005
3754.00,0.0005
3753.00,0.0004
3752.00,0.0004
3751.00,0.0003
3750.00,0.0003
3749.00,0.0003
3748.00,0.0003
3747.00,0.0003
3746.00,0.0003
3745.00,0.0003
3744.00,0.0003
3743.00,0.0003
3742.00,0.0003
3741.00,0.0003
3740.00,0.0003
3739.00,0.0004
3738.00,0.0004
3737.00,0.0004
3736.00,0.0004
3735.00,0.0004
3734.00,0.0004
3733.00,0.0004
3732.00,0.0004
3731.00,0.0004
3730.00,0.0003
3729.00,0.0003
3728.00,0.0003
3727.00,0.0003
3726.00,0.0004
3725.00,0.0004
3724.00,0.0004
3723.00,0.0004
3722.00,0.0004
3721.00,0.0004
3720.00,0.0004
3719.00,0.0004
3718.00,0.0004
3717.00,0.0004
3716.00,0.0003
3715.00,0.0003
3714.00,0.0003
3713.00,0.0004
3712.00,0.0004
3711.00,0.0005
3710.00,0.0005
3709.00,0.0004
3708.00,0.0004
3707.00,0.0004
3706.00,0.0004
3705.00,0.0005
3704.00,0.0005
3703.00,0.0005
3702.00,0.0004
3701.00,0.0004
3700.00,0.0004
3699.00,0.0004
3698.00,0.0004
3697.00,0.0004
3696.00,0.0004
3695.00,0.0004
3694.00,0.0004
3693.00,0.0004
3692.00,0.0005
3691.00,0.0005
3690.00,0.0006
3689.00,0.0006
3688.00,0.0006
3687.00,0.0006
3686.00,0.0005
3685.00,0.0005
3684.00,0.0005
3683.00,0.0004
3682.00,0.0004
3681.00,0.0003
3680.00,0.0002
3679.00,0.0001
3678.00,0.0001
3677.00,0.0001
3676.00,0.0002
3675.00,0.0003
3674.00,0.0003
3673.00,0.0003
3672.00,0.0003
3671.00,0.0003
3670.00,0.0004
3669.00,0.0005
3668.00,0.0005
3667.00,0.0005
3666.00,0.0005
3665.00,0.0005
3664.00,0.0005
3663.00,0.0005
3662.00,0.0005
3661.00,0.0005
3660.00,0.0005
3659.00,0.0004
3658.00,0.0004
3657.00,0.0004
3656.00,0.0004
3655.00,0.0004
3654.00,0.0003
3653.00,0.0003
3652.00,0.0003
3651.00,0.0003
3650.00,0.0003
3649.00,0.0003
3648.00,0.0003
3647.00,0.0004
3646.00,0.0004
3645.00,0.0004
3644.00,0.0005
3643.00,0.0006
3642.00,0.0006
3641.00,0.0007
3640.00,0.0007
3639.00,0.0007
3638.00,0.0007
3637.00,0.0006
3636.00,0.0005
3635.00,0.0005
3634.00,0.0005
3633.00,0.0005
3632.00,0.0005
3631.00,0.0005
3630.00,0.0005
3629.00,0.0005
3628.00,0.0006
3627.00,0.0006
3626.00,0.0006
3625.00,0.0006
3624.00,0.0006
3623.00,0.0006
3622.00,0.0005
3621.00,0.0005
3620.00,0.0005
3619.00,0.0005
3618.00,0.0005
3617.00,0.0006
3616.00,0.0006
3615.00,0.0007
3614.00,0.0007
3613.00,0.0007
3612.00,0.0007
3611.00,0.0007
3610.00,0.0007
3609.00,0.0007
3608.00,0.0008
3607.00,0.0008
3606.00,0.0008
3605.00,0.0008
3604.00,0.0008
3603.00,0.0008
3602.00,0.0008
3601.00,0.0009
3600.00,0.0009
3599.00,0.0010
3598.00,0.0010
3597.00,0.0010
3596.00,0.0010
3595.00,0.0010
3594.00,0.0010
3593.00,0.0010
3592.00,0.0010
3591.00,0.0010
3590.00,0.0009
3589.00,0.0010
3588.00,0.0010
3587.00,0.0010
3586.00,0.0010
3585.00,0.0010
3584.00,0.0010
3583.00,0.0011
3582.00,0.0011
3581.00,0.0012
3580.00,0.0012
3579.00,0.0012
3578.00,0.0012
3577.00,0.0012
3576.00,0.0012
3575.00,0.0012
3574.00,0.0013
3573.00,0.0013
3572.00,0.0013
3571.00,0.0013
3570.00,0.0013
3569.00,0.0013
3568.00,0.0013
3567.00,0.0013
3566.00,0.0013
3565.00,0.0013
3564.00,0.0014
3563.00,0.0014
3562.00,0.0014
3561.00,0.0015
3560.00,0.0015
3559.00,0.0016
3558.00,0.0016
3557.00,0.0016
3556.00,0.0017
3555.00,0.0017
3554.00,0.0018
3553.00,0.0018
3552.00,0.0018
3551.00,0.0017
3550.00,0.0017
3549.00,0.0017
3548.00,0.0017
3547.00,0.0017
3546.00,0.0018
3545.00,0.0018
3544.00,0.0019
3543.00,0.0019
3542.00,0.0019
3541.00,0.0020
3540.00,0.0020
3539.00,0.0020
3538.00,0.0020
3537.00,0.0020
3536.00,0.0020
3535.00,0.0020
3534.00,0.0020
3533.00,0.0020
3532.00,0.0020
3531.00,0.0020
3530.00,0.0020
3529.00,0.0021
3528.00,0.0021
3527.00,0.0022
3526.00,0.0022
3525.00,0.0022
3524.00,0.0023
3523.00,0.0023
3522.00,0.0024
3521.00,0.0024
3520.00,0.0024
3519.00,0.0024
3518.00,0.0024
3517.00,0.0024
3516.00,0.0024
3515.00,0.0024
3514.00,0.0024
3513.00,0.0025
3512.00,0.0025
3511.00,0.0026
3510.00,0.0026
3509.00,0.0026
3508.00,0.0025
3507.00,0.0025
3506.00,0.0025
3505.00,0.0025
3504.00,0.0026
3503.00,0.0026
3502.00,0.0027
3501.00,0.0027
3500.00,0.0027
3499.00,0.0028
3498.00,0.0028
3497.00,0.0028
3496.00,0.0028
3495.00,0.0028
3494.00,0.0029
3493.00,0.0029
3492.00,0.0029
3491.00,0.0029
3490.00,0.0029
3489.00,0.0030
3488.00,0.0030
3487.00,0.0030
3486.00,0.0031
3485.00,0.0031
3484.00,0.0031
3483.00,0.0031
3482.00,0.0032
3481.00,0.0032
3480.00,0.0032
3479.00,0.0032
3478.00,0.0033
3477.00,0.0033
3476.00,0.0033
3475.00,0.0033
3474.00,0.0033
3473.00,0.0033
3472.00,0.0033
3471.00,0.0034
3470.00,0.0034
3469.00,0.0035
3468.00,0.0034
3467.00,0.0034
3466.00,0.0034
3465.00,0.0034
3464.00,0.0034
3463.00,0.0035
3462.00,0.0035
3461.00,0.0035
3460.00,0.0036
3459.00,0.0036
3458.00,0.0036
3457.00,0.0036
3456.00,0.0036
3455.00,0.0037
3454.00,0.0037
3453.00,0.0037
3452.00,0.0038
3451.00,0.0038
3450.00,0.0037
3449.00,0.0037
3448.00,0.0037
3447.00,0.0038
3446.00,0.0038
3445.00,0.0039
3444.00,0.0039
3443.00,0.0039
3442.00,0.0039
3441.00,0.0040
3440.00,0.0040
3439.00,0.0040
3438.00,0.0040
3437.00,0.0040
3436.00,0.0040
3435.00,0.0040
3434.00,0.0040
3433.00,0.0041
3432.00,0.0041
3431.00,0.0042
3430.00,0.0042
3429.00,0.0042
3428.00,0.0043
3427.00,0.0043
3426.00,0.0042
3425.00,0.0042
3424.00,0.0042
3423.00,0.0042
3422.00,0.0043
3421.00,0.0044
3420.00,0.0044
3419.00,0.0044
3418.00,0.0044
3417.00,0.0045
3416.00,0.0045
3415.00,0.0045
3414.00,0.0045
3413.00,0.0046
3412.00,0.0046
3411.00,0.0046
3410.00,0.0046
3409.00,0.0046
3408.00,0.0046
3407.00,0.0047
3406.00,0.0048
3405.00,0.0048
3404.00,0.0049
3403.00,0.0049
3402.00,0.0049
3401.00,0.0049
3400.00,0.0049
3399.00,0.0050
3398.00,0.0050
3397.00,0.0050
3396.00,0.0050
3395.00,0.0050
3394.00,0.0050
3393.00,0.0050
3392.00,0.0050
3391.00,0.0050
3390.00,0.0050
3389.00,0.0050
3388.00,0.0049
3387.00,0.0049
3386.00,0.0049
3385.00,0.0049
3384.00,0.0049
3383.00,0.0049
3382.00,0.0048
3381.00,0.0048
3380.00,0.0048
3379.00,0.0048
3378.00,0.0048
3377.00,0.0048
3376.00,0.0049
3375.00,0.0049
3374.00,0.0049
3373.00,0.0049
3372.00,0.0049
3371.00,0.0049
3370.00,0.0049
3369.00,0.0049
3368.00,0.0049
3367.00,0.0049
3366.00,0.0049
3365.00,0.0049
3364.00,0.0049
3363.00,0.0049
3362.00,0.0049
3361.00,0.0049
3360.00,0.0049
3359.00,0.0049
3358.00,0.0049
3357.00,0.0049
3356.00,0.0049
3355.00,0.0049
3354.00,0.0049
3353.00,0.0049
3352.00,0.0049
3351.00,0.0049
3350.00,0.0049
3349.00,0.0050
3348.00,0.0050
3347.00,0.0050
3346.00,0.0050
3345.00,0.0050
3344.00,0.0050
3343.00,0.0050
3342.00,0.0050
3341.00,0.0050
3340.00,0.0050
3339.00,0.0049
3338.00,0.0049
3337.00,0.0049
3336.00,0.0050
3335.00,0.0050
3334.00,0.0050
3333.00,0.0050
3332.00,0.0049
3331.00,0.0049
3330.00,0.0049
3329.00,0.0049
3328.00,0.0048
3327.00,0.0048
3326.00,0.0048
3325.00,0.0048
3324.00,0.0048
3323.00,0.0048
3322.00,0.0049
3321.00,0.0049
3320.00,0.0048
3319.00,0.0048
3318.00,0.0049
3317.00,0.0049
3316.00,0.0049
3315.00,0.0049
3314.00,0.0049
3313.00,0.0049
3312.00,0.0049
3311.00,0.0049
3310.00,0.0049
3309.00,0.0049
3308.00,0.0049
3307.00,0.0050
3306.00,0.0050
3305.00,0.0050
3304.00,0.0050
3303.00,0.0050
3302.00,0.0050
3301.00,0.0050
3300.00,0.0050
3299.00,0.0050
3298.00,0.0049
3297.00,0.0049
3296.00,0.0049
3295.00,0.0048
3294.00,0.0048
3293.00,0.0048
3292.00,0.0047
3291.00,0.0047
3290.00,0.0047
3289.00,0.0047
3288.00,0.0047
3287.00,0.0046
3286.00,0.0046
3285.00,0.0046
3284.00,0.0046
3283.00,0.0046
3282.00,0.0046
3281.00,0.0045
3280.00,0.0045
3279.00,0.0044
3278.00,0.0044
3277.00,0.0044
3276.00,0.0044
3275.00,0.0044
3274.00,0.0044
3273.00,0.0044
3272.00,0.0043
3271.00,0.0043
3270.00,0.0043
3269.00,0.0043
3268.00,0.0043
3267.00,0.0043
3266.00,0.0043
3265.00,0.0042
3264.00,0.0042
3263.00,0.0042
3262.00,0.0042
3261.00,0.0042
3260.00,0.0042
3259.00,0.0041
3258.00,0.0041
3257.00,0.0041
3256.00,0.0040
3255.00,0.0040
3254.00,0.0040
3253.00,0.0040
3252.00,0.0040
3251.00,0.0040
3250.00,0.0040
3249.00,0.0040
3248.00,0.0040
3247.00,0.0040
3246.00,0.0040
3245.00,0.0039
3244.00,0.0039
3243.00,0.0039
3242.00,0.0039
3241.00,0.0039
3240.00,0.0039
3239.00,0.0039
3238.00,0.0039
3237.00,0.0039
3236.00,0.0039
3235.00,0.0039
3234.00,0.0039
3233.00,0.0039
3232.00,0.0039
3231.00,0.0039
3230.00,0.0040
3229.00,0.0040
3228.00,0.0041
3227.00,0.0042
3226.00,0.0042
3225.00,0.0042
3224.00,0.0042
3223.00,0.0042
3222.00,0.0042
3221.00,0.0042
3220.00,0.0042
3219.00,0.0042
3218.00,0.0042
3217.00,0.0042
3216.00,0.0042
3215.00,0.0042
3214.00,0.0043
3213.00,0.0044
3212.00,0.0044
3211.00,0.0045
3210.00,0.0045
3209.00,0.0045
3208.00,0.0045
3207.00,0.0045
3206.00,0.0045
3205.00,0.0045
3204.00,0.0045
3203.00,0.0045
3202.00,0.0045
3201.00,0.0045
3200.00,0.0046
3199.00,0.0046
3198.00,0.0046
3197.00,0.0046
3196.00,0.0046
3195.00,0.0046
3194.00,0.0046
3193.00,0.0046
3192.00,0.0046
3191.00,0.0045
3190.00,0.0045
3189.00,0.0045
3188.00,0.0045
3187.00,0.0045
3186.00,0.0045
3185.00,0.0045
3184.00,0.0045
3183.00,0.0045
3182.00,0.0045
3181.00,0.0045
3180.00,0.0045
3179.00,0.0044
3178.00,0.0044
3177.00,0.0043
3176.00,0.0043
3175.00,0.0042
3174.00,0.0042
3173.00,0.0042
3172.00,0.0042
3171.00,0.0041
3170.00,0.0041
3169.00,0.0041
3168.00,0.0041
3167.00,0.0041
3166.00,0.0040
3165.00,0.0040
3164.00,0.0040
3163.00,0.0040
3162.00,0.0040
3161.00,0.0040
3160.00,0.0040
3159.00,0.0040
3158.00,0.0039
3157.00,0.0039
3156.00,0.0039
3155.00,0.0039
3154.00,0.0039
3153.00,0.0039
3152.00,0.0039
3151.00,0.0039
3150.00,0.0039
3149.00,0.0039
3148.00,0.0039
3147.00,0.0039
3146.00,0.0038
3145.00,0.0038
3144.00,0.0038
3143.00,0.0037
3142.00,0.0037
3141.00,0.0038
3140.00,0.0038
3139.00,0.0038
3138.00,0.0038
3137.00,0.0038
3136.00,0.0037
3135.00,0.0037
3134.00,0.0037
3133.00,0.0036
3132.00,0.0036
3131.00,0.0035
3130.00,0.0035
3129.00,0.0035
3128.00,0.0035
3127.00,0.0035
3126.00,0.0035
3125.00,0.0035
3124.00,0.0035
3123.00,0.0034
3122.00,0.0034
3121.00,0.0034
3120.00,0.0034
3119.00,0.0033
3118.00,0.0033
3117.00,0.0033
3116.00,0.0032
3115.00,0.0032
3114.00,0.0032
3113.00,0.0032
3112.00,0.0031
3111.00,0.0031
3110.00,0.0030
3109.00,0.0030
3108.00,0.0030
3107.00,0.0031
3106.00,0.0031
3105.00,0.0031
3104.00,0.0031
3103.00,0.0031
3102.00,0.0030
3101.00,0.0030
3100.00,0.0030
3099.00,0.0030
3098.00,0.0031
3097.00,0.0030
3096.00,0.0030
3095.00,0.0030
3094.00,0.0030
3093.00,0.0029
3092.00,0.0029
3091.00,0.0030
3090.00,0.0030
3089.00,0.0030
3088.00,0.0029
3087.00,0.0029
3086.00,0.0029
3085.00,0.0029
3084.00,0.0029
3083.00,0.0029
3082.00,0.0029
3081.00,0.0029
3080.00,0.0030
3079.00,0.0030
3078.00,0.0030
3077.00,0.0030
3076.00,0.0030
3075.00,0.0030
3074.00,0.0030
3073.00,0.0030
3072.00,0.0031
3071.00,0.0031
3070.00,0.0031
3069.00,0.0031
3068.00,0.0031
3067.00,0.0031
3066.00,0.0030
3065.00,0.0031
3064.00,0.0031
3063.00,0.0031
3062.00,0.0032
3061.00,0.0032
3060.00,0.0032
3059.00,0.0033
3058.00,0.0033
3057.00,0.0033
3056.00,0.0033
3055.00,0.0033
3054.00,0.0033
3053.00,0.0033
3052.00,0.0033
3051.00,0.0033
3050.00,0.0033
3049.00,0.0034
3048.00,0.0034
3047.00,0.0034
3046.00,0.0034
3045.00,0.0034
3044.00,0.0034
3043.00,0.0034
3042.00,0.0034
3041.00,0.0035
3040.00,0.0035
3039.00,0.0036
3038.00,0.0035
3037.00,0.0035
3036.00,0.0035
3035.00,0.0035
3034.00,0.0036
3033.00,0.0036
3032.00,0.0037
3031.00,0.0037
3030.00,0.0038
3029.00,0.0039
3028.00,0.0039
3027.00,0.0040
3026.00,0.0040
3025.00,0.0041
3024.00,0.0041
3023.00,0.0042
3022.00,0.0043
3021.00,0.0043
3020.00,0.0044
3019.00,0.0045
3018.00,0.0046
3017.00,0.0047
3016.00,0.0048
3015.00,0.0049
3014.00,0.0050
3013.00,0.0051
3012.00,0.0052
3011.00,0.0053
3010.00,0.0054
3009.00,0.0055
3008.00,0.0056
3007.00,0.0058
3006.00,0.0059
3005.00,0.0061
3004.00,0.0063
3003.00,0.0064
3002.00,0.0066
3001.00,0.0068
3000.00,0.0070
2999.00,0.0073
2998.00,0.0076
2997.00,0.0078
2996.00,0.0082
2995.00,0.0085
2994.00,0.0090
2993.00,0.0094
2992.00,0.0099
2991.00,0.0105
2990.00,0.0111
2989.00,0.0118
2988.00,0.0125
2987.00,0.0133
2986.00,0.0143
2985.00,0.0153
2984.00,0.0164
2983.00,0.0177
2982.00,0.0191
2981.00,0.0208
2980.00,0.0227
2979.00,0.0249
2978.00,0.0274
2977.00,0.0303
2976.00,0.0336
2975.00,0.0373
2974.00,0.0416
2973.00,0.0464
2972.00,0.0520
2971.00,0.0584
2970.00,0.0655
2969.00,0.0733
2968.00,0.0818
2967.00,0.0910
2966.00,0.1007
2965.00,0.1107
2964.00,0.1207
2963.00,0.1302
2962.00,0.1387
2961.00,0.1457
2960.00,0.1512
2959.00,0.1553
2958.00,0.1586
2957.00,0.1616
2956.00,0.1650
2955.00,0.1691
2954.00,0.1740
2953.00,0.1790
2952.00,0.1833
2951.00,0.1858
2950.00,0.1855
2949.00,0.1818
2948.00,0.1747
2947.00,0.1647
2946.00,0.1530
2945.00,0.1408
2944.00,0.1293
2943.00,0.1195
2942.00,0.1120
2941.00,0.1068
2940.00,0.1040
2939.00,0.1033
2938.00,0.1045
2937.00,0.1074
2936.00,0.1118
2935.00,0.1177
2934.00,0.1248
2933.00,0.1332
2932.00,0.1426
2931.00,0.1528
2930.00,0.1635
2929.00,0.1746
2928.00,0.1856
2927.00,0.1963
2926.00,0.2066
2925.00,0.2165
2924.00,0.2260
2923.00,0.2352
2922.00,0.2442
2921.00,0.2526
2920.00,0.2599
2919.00,0.2651
2918.00,0.2675
2917.00,0.2664
2916.00,0.2618
2915.00,0.2544
2914.00,0.2451
2913.00,0.2352
2912.00,0.2255
2911.00,0.2166
2910.00,0.2087
2909.00,0.2017
2908.00,0.1953
2907.00,0.1891
2906.00,0.1830
2905.00,0.1768
2904.00,0.1703
2903.00,0.1637
2902.00,0.1571
2901.00,0.1505
2900.00,0.1441
2899.00,0.1380
2898.00,0.1323
2897.00,0.1269
2896.00,0.1222
2895.00,0.1180
2894.00,0.1144
2893.00,0.1114
2892.00,0.1090
2891.00,0.1072
2890.00,0.1058
2889.00,0.1049
2888.00,0.1044
2887.00,0.1042
2886.00,0.1043
2885.00,0.1048
2884.00,0.1056
2883.00,0.1069
2882.00,0.1087
2881.00,0.1106
2880.00,0.1126
2879.00,0.1142
2878.00,0.1152
2877.00,0.1154
2876.00,0.1150
2875.00,0.1143
2874.00,0.1138
2873.00,0.1137
2872.00,0.1144
2871.00,0.1157
2870.00,0.1174
2869.00,0.1190
2868.00,0.1198
2867.00,0.1192
2866.00,0.1167
2865.00,0.1121
2864.00,0.1059
2863.00,0.0989
2862.00,0.0921
2861.00,0.0862
2860.00,0.0816
2859.00,0.0787
2858.00,0.0772
2857.00,0.0769
2856.00,0.0775
2855.00,0.0789
2854.00,0.0808
2853.00,0.0830
2852.00,0.0852
2851.00,0.0871
2850.00,0.0885
2849.00,0.0895
2848.00,0.0902
2847.00,0.0913
2846.00,0.0932
2845.00,0.0962
2844.00,0.1003
2843.00,0.1054
2842.00,0.1108
2841.00,0.1159
2840.00,0.1200
2839.00,0.1222
2838.00,0.1218
2837.00,0.1184
2836.00,0.1120
2835.00,0.1032
2834.00,0.0928
2833.00,0.0820
2832.00,0.0718
2831.00,0.0626
2830.00,0.0549
2829.00,0.0485
2828.00,0.0434
2827.00,0.0393
2826.00,0.0359
2825.00,0.0332
2824.00,0.0309
2823.00,0.0289
2822.00,0.0272
2821.00,0.0258
2820.00,0.0245
2819.00,0.0234
2818.00,0.0224
2817.00,0.0216
2816.00,0.0208
2815.00,0.0201
2814.00,0.0194
2813.00,0.0189
2812.00,0.0183
2811.00,0.0178
2810.00,0.0172
2809.00,0.0167
2808.00,0.0161
2807.00,0.0155
2806.00,0.0149
2805.00,0.0143
2804.00,0.0137
2803.00,0.0131
2802.00,0.0126
2801.00,0.0121
2800.00,0.0117
2799.00,0.0114
2798.00,0.0112
2797.00,0.0109
2796.00,0.0107
2795.00,0.0104
2794.00,0.0102
2793.00,0.0099
2792.00,0.0096
2791.00,0.0093
2790.00,0.0090
2789.00,0.0087
2788.00,0.0084
2787.00,0.0080
2786.00,0.0077
2785.00,0.0075
2784.00,0.0073
2783.00,0.0071
2782.00,0.0069
2781.00,0.0067
2780.00,0.0065
2779.00,0.0064
2778.00,0.0062
2777.00,0.0060
2776.00,0.0059
2775.00,0.0058
2774.00,0.0057
2773.00,0.0057
2772.00,0.0056
2771.00,0.0056
2770.00,0.0055
2769.00,0.0055
2768.00,0.0055
2767.00,0.0055
2766.00,0.0054
2765.00,0.0054
2764.00,0.0054
2763.00,0.0053
2762.00,0.0053
2761.00,0.0053
2760.00,0.0052
2759.00,0.0052
2758.00,0.0051
2757.00,0.0051
2756.00,0.0051
2755.00,0.0051
2754.00,0.0051
2753.00,0.0050
2752.00,0.0050
2751.00,0.0050
2750.00,0.0050
2749.00,0.0050
2748.00,0.0050
2747.00,0.0050
2746.00,0.0051
2745.00,0.0051
2744.00,0.0051
2743.00,0.0052
2742.00,0.0053
2741.00,0.0054
2740.00,0.0055
2739.00,0.0057
2738.00,0.0058
2737.00,0.0059
2736.00,0.0060
2735.00,0.0062
2734.00,0.0063
2733.00,0.0065
2732.00,0.0066
2731.00,0.0068
2730.00,0.0070
2729.00,0.0072
2728.00,0.0075
2727.00,0.0077
2726.00,0.0080
2725.00,0.0082
2724.00,0.0083
2723.00,0.0083
2722.00,0.0083
2721.00,0.0081
2720.00,0.0078
2719.00,0.0075
2718.00,0.0072
2717.00,0.0069
2716.00,0.0067
2715.00,0.0065
2714.00,0.0063
2713.00,0.0061
2712.00,0.0059
2711.00,0.0057
2710.00,0.0055
2709.00,0.0053
2708.00,0.0052
2707.00,0.0051
2706.00,0.0050
2705.00,0.0049
2704.00,0.0048
2703.00,0.0047
2702.00,0.0046
2701.00,0.0045
2700.00,0.0045
2699.00,0.0044
2698.00,0.0044
2697.00,0.0044
2696.00,0.0044
2695.00,0.0044
2694.00,0.0044
2693.00,0.0043
2692.00,0.0044
2691.00,0.0044
2690.00,0.0044
2689.00,0.0044
2688.00,0.0044
2687.00,0.0043
2686.00,0.0043
2685.00,0.0043
2684.00,0.0043
2683.00,0.0044
2682.00,0.0044
2681.00,0.0045
2680.00,0.0045
2679.00,0.0045
2678.00,0.0045
2677.00,0.0044
2676.00,0.0044
2675.00,0.0044
2674.00,0.0044
2673.00,0.0044
2672.00,0.0043
2671.00,0.0043
2670.00,0.0043
2669.00,0.0043
2668.00,0.0043
2667.00,0.0043
2666.00,0.0044
2665.00,0.0044
2664.00,0.0045
2663.00,0.0045
2662.00,0.0046
2661.00,0.0046
2660.00,0.0047
2659.00,0.0047
2658.00,0.0046
2657.00,0.0046
2656.00,0.0045
2655.00,0.0045
2654.00,0.0044
2653.00,0.0043
2652.00,0.0043
2651.00,0.0043
2650.00,0.0042
2649.00,0.0042
2648.00,0.0041
2647.00,0.0041
2646.00,0.0041
2645.00,0.0040
2644.00,0.0040
2643.00,0.0040
2642.00,0.0039
2641.00,0.0039
2640.00,0.0039
2639.00,0.0039
2638.00,0.0038
2637.00,0.0038
2636.00,0.0037
2635.00,0.0037
2634.00,0.0037
2633.00,0.0037
2632.00,0.0037
2631.00,0.0037
2630.00,0.0037
2629.00,0.0037
2628.00,0.0037
2627.00,0.0038
2626.00,0.0039
2625.00,0.0040
2624.00,0.0040
2623.00,0.0040
2622.00,0.0039
2621.00,0.0039
2620.00,0.0039
2619.00,0.0039
2618.00,0.0039
2617.00,0.0039
2616.00,0.0039
2615.00,0.0038
2614.00,0.0038
2613.00,0.0038
2612.00,0.0038
2611.00,0.0037
2610.00,0.0036
2609.00,0.0035
2608.00,0.0034
2607.00,0.0033
2606.00,0.0032
2605.00,0.0032
2604.00,0.0032
2603.00,0.0031
2602.00,0.0031
2601.00,0.0031
2600.00,0.0031
2599.00,0.0031
2598.00,0.0031
2597.00,0.0031
2596.00,0.0030
2595.00,0.0030
2594.00,0.0029
2593.00,0.0029
2592.00,0.0030
2591.00,0.0030
2590.00,0.0031
2589.00,0.0033
2588.00,0.0034
2587.00,0.0035
2586.00,0.0035
2585.00,0.0036
2584.00,0.0037
2583.00,0.0037
2582.00,0.0038
2581.00,0.0038
2580.00,0.0037
2579.00,0.0036
2578.00,0.0035
2577.00,0.0033
2576.00,0.0032
2575.00,0.0030
2574.00,0.0029
2573.00,0.0028
2572.00,0.0027
2571.00,0.0027
2570.00,0.0026
2569.00,0.0025
2568.00,0.0024
2567.00,0.0024
2566.00,0.0024
2565.00,0.0024
2564.00,0.0023
2563.00,0.0022
2562.00,0.0022
2561.00,0.0021
2560.00,0.0021
2559.00,0.0021
2558.00,0.0021
2557.00,0.0021
2556.00,0.0021
2555.00,0.0021
2554.00,0.0020
2553.00,0.0020
2552.00,0.0021
2551.00,0.0021
2550.00,0.0021
2549.00,0.0020
2548.00,0.0020
2547.00,0.0019
2546.00,0.0019
2545.00,0.0019
2544.00,0.0018
2543.00,0.0017
2542.00,0.0017
2541.00,0.0017
2540.00,0.0017
2539.00,0.0017
2538.00,0.0016
2537.00,0.0015
2536.00,0.0014
2535.00,0.0014
2534.00,0.0013
2533.00,0.0013
2532.00,0.0013
2531.00,0.0013
2530.00,0.0013
2529.00,0.0013
2528.00,0.0012
2527.00,0.0012
2526.00,0.0012
2525.00,0.0012
2524.00,0.0013
2523.00,0.0013
2522.00,0.0013
2521.00,0.0012
2520.00,0.0012
2519.00,0.0011
2518.00,0.0011
2517.00,0.0011
2516.00,0.0010
2515.00,0.0010
2514.00,0.0010
2513.00,0.0010
2512.00,0.0009
2511.00,0.0009
2510.00,0.0009
2509.00,0.0009
2508.00,0.0010
2507.00,0.0010
2506.00,0.0010
2505.00,0.0009
2504.00,0.0009
2503.00,0.0009
2502.00,0.0010
2501.00,0.0010
2500.00,0.0009
2499.00,0.0009
2498.00,0.0009
2497.00,0.0009
2496.00,0.0009
2495.00,0.0009
2494.00,0.0008
2493.00,0.0009
2492.00,0.0009
2491.00,0.0009
2490.00,0.0010
2489.00,0.0010
2488.00,0.0009
2487.00,0.0009
2486.00,0.0009
2485.00,0.0009
2484.00,0.0009
2483.00,0.0009
2482.00,0.0009
2481.00,0.0009
2480.00,0.0009
2479.00,0.0008
2478.00,0.0008
2477.00,0.0007
2476.00,0.0007
2475.00,0.0007
2474.00,0.0008
2473.00,0.0008
2472.00,0.0009
2471.00,0.0009
2470.00,0.0008
2469.00,0.0008
2468.00,0.0007
2467.00,0.0007
2466.00,0.0007
2465.00,0.0008
2464.00,0.0008
2463.00,0.0008
2462.00,0.0008
2461.00,0.0009
2460.00,0.0010
2459.00,0.0011
2458.00,0.0011
2457.00,0.0011
2456.00,0.0010
2455.00,0.0010
2454.00,0.0010
2453.00,0.0009
2452.00,0.0009
2451.00,0.0008
2450.00,0.0008
2449.00,0.0008
2448.00,0.0009
2447.00,0.0010
2446.00,0.0010
2445.00,0.0010
2444.00,0.0010
2443.00,0.0010
2442.00,0.0010
2441.00,0.0010
2440.00,0.0010
2439.00,0.0010
2438.00,0.0010
2437.00,0.0010
2436.00,0.0010
2435.00,0.0010
2434.00,0.0010
2433.00,0.0011
2432.00,0.0010
2431.00,0.0010
2430.00,0.0009
2429.00,0.0009
2428.00,0.0009
2427.00,0.0010
2426.00,0.0010
2425.00,0.0010
2424.00,0.0010
2423.00,0.0009
2422.00,0.0009
2421.00,0.0008
2420.00,0.0008
2419.00,0.0008
2418.00,0.0008
2417.00,0.0008
2416.00,0.0008
2415.00,0.0008
2414.00,0.0007
2413.00,0.0007
2412.00,0.0007
2411.00,0.0007
2410.00,0.0008
2409.00,0.0008
2408.00,0.0008
2407.00,0.0008
2406.00,0.0008
2405.00,0.0007
2404.00,0.0006
2403.00,0.0006
2402.00,0.0006
2401.00,0.0006
2400.00,0.0006
2399.00,0.0007
2398.00,0.0007
2397.00,0.0008
2396.00,0.0008
2395.00,0.0008
2394.00,0.0008
2393.00,0.0008
2392.00,0.0007
2391.00,0.0007
2390.00,0.0007
2389.00,0.0007
2388.00,0.0007
2387.00,0.0006
2386.00,0.0005
2385.00,0.0004
2384.00,0.0003
2383.00,0.0003
2382.00,0.0002
2381.00,0.0001
2380.00,0.0001
2379.00,0.0000
2378.00,-0.0000
2377.00,0.0000
2376.00,0.0000
2375.00,0.0000
2374.00,-0.0000
2373.00,-0.0000
2372.00,-0.0000
2371.00,0.0000
2370.00,0.0001
2369.00,0.0001
2368.00,0.0001
2367.00,0.0001
2366.00,0.0001
2365.00,0.0000
2364.00,0.0001
2363.00,0.0001
2362.00,0.0001
2361.00,0.0001
2360.00,0.0001
2359.00,0.0000
2358.00,0.0000
2357.00,0.0001
2356.00,0.0001
2355.00,0.0002
2354.00,0.0002
2353.00,0.0002
2352.00,0.0002
2351.00,0.0002
2350.00,0.0002
2349.00,0.0002
2348.00,0.0002
2347.00,0.0003
2346.00,0.0003
2345.00,0.0003
2344.00,0.0004
2343.00,0.0004
2342.00,0.0005
2341.00,0.0005
2340.00,0.0005
2339.00,0.0005
2338.00,0.0005
2337.00,0.0006
2336.00,0.0006
2335.00,0.0006
2334.00,0.0006
2333.00,0.0006
2332.00,0.0005
2331.00,0.0004
2330.00,0.0004
2329.00,0.0004
2328.00,0.0006
2327.00,0.0010
2326.00,0.0015
2325.00,0.0019
2324.00,0.0020
2323.00,0.0019
2322.00,0.0016
2321.00,0.0014
2320.00,0.0013
2319.00,0.0012
2318.00,0.0012
2317.00,0.0011
2316.00,0.0011
2315.00,0.0010
2314.00,0.0010
2313.00,0.0010
2312.00,0.0009
2311.00,0.0008
2310.00,0.0008
2309.00,0.0008
2308.00,0.0009
2307.00,0.0010
2306.00,0.0010
2305.00,0.0010
2304.00,0.0010
2303.00,0.0010
2302.00,0.0010
2301.00,0.0009
2300.00,0.0010
2299.00,0.0010
2298.00,0.0011
2297.00,0.0011
2296.00,0.0012
2295.00,0.0013
2294.00,0.0013
2293.00,0.0013
2292.00,0.0013
2291.00,0.0014
2290.00,0.0015
2289.00,0.0015
2288.00,0.0016
2287.00,0.0017
2286.00,0.0018
2285.00,0.0018
2284.00,0.0018
2283.00,0.0017
2282.00,0.0016
2281.00,0.0015
2280.00,0.0015
2279.00,0.0014
2278.00,0.0014
2277.00,0.0013
2276.00,0.0012
2275.00,0.0012
2274.00,0.0012
2273.00,0.0012
2272.00,0.0012
2271.00,0.0012
2270.00,0.0012
2269.00,0.0011
2268.00,0.0009
2267.00,0.0008
2266.00,0.0007
2265.00,0.0007
2264.00,0.0007
2263.00,0.0008
2262.00,0.0008
2261.00,0.0009
2260.00,0.0010
2259.00,0.0011
2258.00,0.0011
2257.00,0.0011
2256.00,0.0011
2255.00,0.0011
2254.00,0.0010
2253.00,0.0009
2252.00,0.0009
2251.00,0.0008
2250.00,0.0008
2249.00,0.0008
2248.00,0.0008
2247.00,0.0008
2246.00,0.0008
2245.00,0.0008
2244.00,0.0008
2243.00,0.0008
2242.00,0.0008
2241.00,0.0008
2240.00,0.0009
2239.00,0.0009
2238.00,0.0010
2237.00,0.0011
2236.00,0.0012
2235.00,0.0011
2234.00,0.0009
2233.00,0.0008
2232.00,0.0008
2231.00,0.0009
2230.00,0.0011
2229.00,0.0011
2228.00,0.0011
2227.00,0.0009
2226.00,0.0007
2225.00,0.0006
2224.00,0.0006
2223.00,0.0007
2222.00,0.0008
2221.00,0.0008
2220.00,0.0008
2219.00,0.0007
2218.00,0.0007
2217.00,0.0006
2216.00,0.0006
2215.00,0.0007
2214.00,0.0008
2213.00,0.0008
2212.00,0.0009
2211.00,0.0009
2210.00,0.0009
2209.00,0.0008
2208.00,0.0008
2207.00,0.0008
2206.00,0.0008
2205.00,0.0009
2204.00,0.0009
2203.00,0.0008
2202.00,0.0007
2201.00,0.0007
2200.00,0.0008
2199.00,0.0008
2198.00,0.0008
2197.00,0.0008
2196.00,0.0008
2195.00,0.0008
2194.00,0.0008
2193.00,0.0007
2192.00,0.0006
2191.00,0.0005
2190.00,0.0004
2189.00,0.0004
2188.00,0.0004
2187.00,0.0005
2186.00,0.0007
2185.00,0.0009
2184.00,0.0010
2183.00,0.0009
2182.00,0.0006
2181.00,0.0003
2180.00,0.0002
2179.00,0.0001
2178.00,-0.0001
2177.00,-0.0003
2176.00,-0.0005
2175.00,-0.0005
2174.00,-0.0004
2173.00,-0.0002
2172.00,0.0001
2171.00,0.0005
2170.00,0.0008
2169.00,0.0011
2168.00,0.0013
2167.00,0.0015
2166.00,0.0017
2165.00,0.0020
2164.00,0.0020
2163.00,0.0019
2162.00,0.0014
2161.00,0.0006
2160.00,-0.0005
2159.00,-0.0016
2158.00,-0.0026
2157.00,-0.0029
2156.00,-0.0028
2155.00,-0.0025
2154.00,-0.0021
2153.00,-0.0017
2152.00,-0.0015
2151.00,-0.0012
2150.00,-0.0010
2149.00,-0.0008
2148.00,-0.0007
2147.00,-0.0008
2146.00,-0.0009
2145.00,-0.0010
2144.00,-0.0011
2143.00,-0.0011
2142.00,-0.0011
2141.00,-0.0011
2140.00,-0.0010
2139.00,-0.0010
2138.00,-0.0012
2137.00,-0.0015
2136.00,-0.0017
2135.00,-0.0019
2134.00,-0.0020
2133.00,-0.0018
2132.00,-0.0016
2131.00,-0.0013
2130.00,-0.0012
2129.00,-0.0010
2128.00,-0.0010
2127.00,-0.0010
2126.00,-0.0010
2125.00,-0.0010
2124.00,-0.0010
2123.00,-0.0008
2122.00,-0.0007
2121.00,-0.0006
2120.00,-0.0005
2119.00,-0.0005
2118.00,-0.0004
2117.00,-0.0002
2116.00,0.0000
2115.00,0.0003
2114.00,0.0005
2113.00,0.0005
2112.00,0.0005
2111.00,0.0004
2110.00,0.0003
2109.00,0.0002
2108.00,0.0001
2107.00,0.0002
2106.00,0.0002
2105.00,0.0002
2104.00,0.0002
2103.00,0.0001
2102.00,0.0001
2101.00,0.0001
2100.00,0.0001
2099.00,0.0000
2098.00,-0.0001
2097.00,-0.0002
2096.00,-0.0003
2095.00,-0.0005
2094.00,-0.0006
2093.00,-0.0005
2092.00,-0.0004
2091.00,-0.0003
2090.00,-0.0001
2089.00,-0.0000
2088.00,0.0000
2087.00,0.0000
2086.00,0.0001
2085.00,0.0001
2084.00,0.0001
2083.00,0.0002
2082.00,0.0002
2081.00,0.0002
2080.00,0.0003
2079.00,0.0003
2078.00,0.0004
2077.00,0.0003
2076.00,0.0002
2075.00,0.0001
2074.00,0.0001
2073.00,0.0002
2072.00,0.0002
2071.00,0.0000
2070.00,-0.0001
2069.00,-0.0001
2068.00,-0.0001
2067.00,0.0000
2066.00,0.0000
2065.00,0.0000
2064.00,-0.0000
2063.00,-0.0001
2062.00,-0.0001
2061.00,-0.0001
2060.00,-0.0001
2059.00,0.0001
2058.00,0.0002
2057.00,0.0004
2056.00,0.0004
2055.00,0.0003
2054.00,0.0002
2053.00,0.0005
2052.00,0.0010
2051.00,0.0013
2050.00,0.0013
2049.00,0.0010
2048.00,0.0005
2047.00,0.0001
2046.00,-0.0001
2045.00,-0.0000
2044.00,0.0003
2043.00,0.0005
2042.00,0.0005
2041.00,0.0003
2040.00,-0.0001
2039.00,-0.0005
2038.00,-0.0006
2037.00,-0.0005
2036.00,-0.0004
2035.00,-0.0005
2034.00,-0.0007
2033.00,-0.0010
2032.00,-0.0011
2031.00,-0.0012
2030.00,-0.0013
2029.00,-0.0014
2028.00,-0.0015
2027.00,-0.0015
2026.00,-0.0013
2025.00,-0.0010
2024.00,-0.0009
2023.00,-0.0008
2022.00,-0.0009
2021.00,-0.0010
2020.00,-0.0010
2019.00,-0.0010
2018.00,-0.0010
2017.00,-0.0011
2016.00,-0.0011
2015.00,-0.0011
2014.00,-0.0010
2013.00,-0.0010
2012.00,-0.0009
2011.00,-0.0010
2010.00,-0.0012
2009.00,-0.0015
2008.00,-0.0019
2007.00,-0.0022
2006.00,-0.0024
2005.00,-0.0021
2004.00,-0.0016
2003.00,-0.0011
2002.00,-0.0008
2001.00,-0.0008
2000.00,-0.0010
1999.00,-0.0012
1998.00,-0.0014
1997.00,-0.0015
1996.00,-0.0015
1995.00,-0.0015
1994.00,-0.0014
1993.00,-0.0012
1992.00,-0.0009
1991.00,-0.0009
1990.00,-0.0009
1989.00,-0.0008
1988.00,-0.0005
1987.00,-0.0001
1986.00,0.0001
1985.00,0.0003
1984.00,0.0005
1983.00,0.0006
1982.00,0.0007
1981.00,0.0006
1980.00,0.0004
1979.00,-0.0000
1978.00,-0.0007
1977.00,-0.0013
1976.00,-0.0017
1975.00,-0.0019
1974.00,-0.0018
1973.00,-0.0015
1972.00,-0.0013
1971.00,-0.0011
1970.00,-0.0011
1969.00,-0.0011
1968.00,-0.0010
1967.00,-0.0010
1966.00,-0.0011
1965.00,-0.0013
1964.00,-0.0014
1963.00,-0.0016
1962.00,-0.0017
1961.00,-0.0018
1960.00,-0.0019
1959.00,-0.0020
1958.00,-0.0021
1957.00,-0.0020
1956.00,-0.0019
1955.00,-0.0017
1954.00,-0.0016
1953.00,-0.0016
1952.00,-0.0015
1951.00,-0.0016
1950.00,-0.0016
1949.00,-0.0015
1948.00,-0.0014
1947.00,-0.0013
1946.00,-0.0012
1945.00,-0.0012
1944.00,-0.0014
1943.00,-0.0017
1942.00,-0.0018
1941.00,-0.0017
1940.00,-0.0015
1939.00,-0.0013
1938.00,-0.0011
1937.00,-0.0009
1936.00,-0.0009
1935.00,-0.0009
1934.00,-0.0010
1933.00,-0.0010
1932.00,-0.0010
1931.00,-0.0011
1930.00,-0.0011
1929.00,-0.0011
1928.00,-0.0010
1927.00,-0.0009
1926.00,-0.0007
1925.00,-0.0005
1924.00,-0.0004
1923.00,-0.0003
1922.00,-0.0003
1921.00,-0.0003
1920.00,-0.0004
1919.00,-0.0005
1918.00,-0.0005
1917.00,-0.0004
1916.00,-0.0003
1915.00,-0.0003
1914.00,-0.0003
1913.00,-0.0003
1912.00,-0.0002
1911.00,-0.0002
1910.00,-0.0001
1909.00,-0.0000
1908.00,0.0000
1907.00,-0.0000
1906.00,-0.0001
1905.00,-0.0001
1904.00,0.0000
1903.00,0.0001
1902.00,0.0001
1901.00,0.0001
1900.00,0.0000
1899.00,-0.0001
1898.00,-0.0002
1897.00,-0.0002
1896.00,-0.0001
1895.00,-0.0001
1894.00,-0.0000
1893.00,0.0000
1892.00,0.0000
1891.00,0.0000
1890.00,-0.0000
1889.00,-0.0001
1888.00,-0.0001
1887.00,-0.0002
1886.00,-0.0002
1885.00,-0.0002
1884.00,-0.0002
1883.00,-0.0002
1882.00,-0.0002
1881.00,-0.0002
1880.00,-0.0002
1879.00,-0.0001
1878.00,-0.0001
1877.00,-0.0000
1876.00,-0.0000
1875.00,-0.0000
1874.00,-0.0000
1873.00,-0.0000
1872.00,-0.0000
1871.00,-0.0001
1870.00,-0.0001
1869.00,-0.0001
1868.00,-0.0001
1867.00,-0.0001
1866.00,-0.0002
1865.00,-0.0001
1864.00,-0.0001
1863.00,0.0000
1862.00,0.0001
1861.00,0.0002
1860.00,0.0003
1859.00,0.0002
1858.00,0.0002
1857.00,0.0002
1856.00,0.0002
1855.00,0.0002
1854.00,0.0002
1853.00,0.0001
1852.00,0.0001
1851.00,0.0001
1850.00,0.0001
1849.00,0.0001
1848.00,0.0000
1847.00,0.0000
1846.00,0.0000
1845.00,0.0000
1844.00,0.0000
1843.00,0.0000
1842.00,-0.0000
1841.00,-0.0000
1840.00,0.0000
1839.00,0.0001
1838.00,0.0001
1837.00,0.0002
1836.00,0.0003
1835.00,0.0004
1834.00,0.0004
1833.00,0.0004
1832.00,0.0005
1831.00,0.0004
1830.00,0.0005
1829.00,0.0005
1828.00,0.0005
1827.00,0.0004
1826.00,0.0004
1825.00,0.0003
1824.00,0.0003
1823.00,0.0004
1822.00,0.0003
1821.00,0.0003
1820.00,0.0003
1819.00,0.0002
1818.00,0.0000
1817.00,-0.0000
1816.00,-0.0000
1815.00,0.0001
1814.00,0.0001
1813.00,0.0002
1812.00,0.0002
1811.00,0.0002
1810.00,0.0002
1809.00,0.0003
1808.00,0.0003
1807.00,0.0003
1806.00,0.0004
1805.00,0.0004
1804.00,0.0004
1803.00,0.0005
1802.00,0.0005
1801.00,0.0005
1800.00,0.0005
1799.00,0.0006
1798.00,0.0006
1797.00,0.0006
1796.00,0.0006
1795.00,0.0006
1794.00,0.0006
1793.00,0.0006
1792.00,0.0007
1791.00,0.0007
1790.00,0.0007
1789.00,0.0007
1788.00,0.0008
1787.00,0.0008
1786.00,0.0007
1785.00,0.0007
1784.00,0.0007
1783.00,0.0007
1782.00,0.0007
1781.00,0.0007
1780.00,0.0007
1779.00,0.0007
1778.00,0.0007
1777.00,0.0007
1776.00,0.0007
1775.00,0.0007
1774.00,0.0008
1773.00,0.0008
1772.00,0.0009
1771.00,0.0009
1770.00,0.0009
1769.00,0.0009
1768.00,0.0009
1767.00,0.0009
1766.00,0.0009
1765.00,0.0010
1764.00,0.0010
1763.00,0.0011
1762.00,0.0010
1761.00,0.0010
1760.00,0.0011
1759.00,0.0011
1758.00,0.0010
1757.00,0.0010
1756.00,0.0010
1755.00,0.0011
1754.00,0.0011
1753.00,0.0012
1752.00,0.0012
1751.00,0.0012
1750.00,0.0012
1749.00,0.0013
1748.00,0.0013
1747.00,0.0013
1746.00,0.0013
1745.00,0.0013
1744.00,0.0014
1743.00,0.0014
1742.00,0.0015
1741.00,0.0015
1740.00,0.0015
1739.00,0.0016
1738.00,0.0016
1737.00,0.0017
1736.00,0.0017
1735.00,0.0016
1734.00,0.0017
1733.00,0.0018
1732.00,0.0019
1731.00,0.0020
1730.00,0.0021
1729.00,0.0021
1728.00,0.0022
1727.00,0.0022
1726.00,0.0022
1725.00,0.0022
1724.00,0.0022
1723.00,0.0022
1722.00,0.0023
1721.00,0.0023
1720.00,0.0024
1719.00,0.0024
1718.00,0.0024
1717.00,0.0024
1716.00,0.0024
1715.00,0.0024
1714.00,0.0024
1713.00,0.0024
1712.00,0.0023
1711.00,0.0023
1710.00,0.0023
1709.00,0.0023
1708.00,0.0023
1707.00,0.0024
1706.00,0.0024
1705.00,0.0025
1704.00,0.0026
1703.00,0.0027
1702.00,0.0028
1701.00,0.0028
1700.00,0.0028
1699.00,0.0028
1698.00,0.0028
1697.00,0.0029
1696.00,0.0030
1695.00,0.0029
1694.00,0.0029
1693.00,0.0029
1692.00,0.0029
1691.00,0.0030
1690.00,0.0031
1689.00,0.0032
1688.00,0.0033
1687.00,0.0034
1686.00,0.0035
1685.00,0.0035
1684.00,0.0036
1683.00,0.0037
1682.00,0.0037
1681.00,0.0038
1680.00,0.0039
1679.00,0.0040
1678.00,0.0040
1677.00,0.0041
1676.00,0.0042
1675.00,0.0043
1674.00,0.0043
1673.00,0.0044
1672.00,0.0045
1671.00,0.0045
1670.00,0.0046
1669.00,0.0047
1668.00,0.0048
1667.00,0.0048
1666.00,0.0048
1665.00,0.0048
1664.00,0.0049
1663.00,0.0049
1662.00,0.0050
1661.00,0.0051
1660.00,0.0052
1659.00,0.0052
1658.00,0.0052
1657.00,0.0052
1656.00,0.0053
1655.00,0.0053
1654.00,0.0054
1653.00,0.0058
1652.00,0.0061
1651.00,0.0062
1650.00,0.0063
1649.00,0.0065
1648.00,0.0067
1647.00,0.0069
1646.00,0.0070
1645.00,0.0070
1644.00,0.0070
1643.00,0.0069
1642.00,0.0069
1641.00,0.0068
1640.00,0.0068
1639.00,0.0068
1638.00,0.0068
1637.00,0.0068
1636.00,0.0068
1635.00,0.0067
1634.00,0.0066
1633.00,0.0066
1632.00,0.0065
1631.00,0.0065
1630.00,0.0065
1629.00,0.0064
1628.00,0.0064
1627.00,0.0064
1626.00,0.0063
1625.00,0.0063
1624.00,0.0062
1623.00,0.0061
1622.00,0.0060
1621.00,0.0060
1620.00,0.0060
1619.00,0.0060
1618.00,0.0059
1617.00,0.0059
1616.00,0.0059
1615.00,0.0059
1614.00,0.0058
1613.00,0.0058
1612.00,0.0059
1611.00,0.0058
1610.00,0.0058
1609.00,0.0058
1608.00,0.0058
1607.00,0.0058
1606.00,0.0058
1605.00,0.0058
1604.00,0.0058
1603.00,0.0058
1602.00,0.0057
1601.00,0.0058
1600.00,0.0058
1599.00,0.0058
1598.00,0.0057
1597.00,0.0057
1596.00,0.0057
1595.00,0.0057
1594.00,0.0056
1593.00,0.0056
1592.00,0.0057
1591.00,0.0057
1590.00,0.0057
1589.00,0.0057
1588.00,0.0057
1587.00,0.0058
1586.00,0.0058
1585.00,0.0058
1584.00,0.0059
1583.00,0.0059
1582.00,0.0059
1581.00,0.0060
1580.00,0.0062
1579.00,0.0063
1578.00,0.0064
1577.00,0.0064
1576.00,0.0064
1575.00,0.0064
1574.00,0.0063
1573.00,0.0063
1572.00,0.0063
1571.00,0.0063
1570.00,0.0063
1569.00,0.0063
1568.00,0.0063
1567.00,0.0063
1566.00,0.0063
1565.00,0.0063
1564.00,0.0063
1563.00,0.0063
1562.00,0.0063
1561.00,0.0063
1560.00,0.0063
1559.00,0.0063
1558.00,0.0064
1557.00,0.0064
1556.00,0.0064
1555.00,0.0065
1554.00,0.0065
1553.00,0.0066
1552.00,0.0067
1551.00,0.0068
1550.00,0.0068
1549.00,0.0069
1548.00,0.0069
1547.00,0.0070
1546.00,0.0071
1545.00,0.0072
1544.00,0.0073
1543.00,0.0074
1542.00,0.0074
1541.00,0.0074
1540.00,0.0074
1539.00,0.0073
1538.00,0.0071
1537.00,0.0069
1536.00,0.0069
1535.00,0.0067
1534.00,0.0065
1533.00,0.0063
1532.00,0.0062
1531.00,0.0060
1530.00,0.0059
1529.00,0.0059
1528.00,0.0059
1527.00,0.0059
1526.00,0.0059
1525.00,0.0059
1524.00,0.0059
1523.00,0.0058
1522.00,0.0057
1521.00,0.0058
1520.00,0.0058
1519.00,0.0058
1518.00,0.0058
1517.00,0.0058
1516.00,0.0059
1515.00,0.0059
1514.00,0.0058
1513.00,0.0059
1512.00,0.0059
1511.00,0.0059
1510.00,0.0059
1509.00,0.0061
1508.00,0.0062
1507.00,0.0064
1506.00,0.0065
1505.00,0.0065
1504.00,0.0066
1503.00,0.0067
1502.00,0.0069
1501.00,0.0071
1500.00,0.0074
1499.00,0.0077
1498.00,0.0079
1497.00,0.0081
1496.00,0.0085
1495.00,0.0088
1494.00,0.0090
1493.00,0.0093
1492.00,0.0097
1491.00,0.0100
1490.00,0.0104
1489.00,0.0109
1488.00,0.0114
1487.00,0.0118
1486.00,0.0123
1485.00,0.0129
1484.00,0.0136
1483.00,0.0143
1482.00,0.0151
1481.00,0.0162
1480.00,0.0174
1479.00,0.0186
1478.00,0.0201
1477.00,0.0221
1476.00,0.0246
1475.00,0.0276
1474.00,0.0316
1473.00,0.0374
1472.00,0.0441
1471.00,0.0505
1470.00,0.0566
1469.00,0.0630
1468.00,0.0699
1467.00,0.0774
1466.00,0.0859
1465.00,0.0951
1464.00,0.1031
1463.00,0.1086
1462.00,0.1120
1461.00,0.1143
1460.00,0.1158
1459.00,0.1168
1458.00,0.1177
1457.00,0.1185
1456.00,0.1186
1455.00,0.1179
1454.00,0.1168
1453.00,0.1152
1452.00,0.1126
1451.00,0.1090
1450.00,0.1039
1449.00,0.0969
1448.00,0.0880
1447.00,0.0787
1446.00,0.0702
1445.00,0.0630
1444.00,0.0567
1443.00,0.0516
1442.00,0.0477
1441.00,0.0450
1440.00,0.0434
1439.00,0.0426
1438.00,0.0425
1437.00,0.0425
1436.00,0.0415
1435.00,0.0391
1434.00,0.0356
1433.00,0.0316
1432.00,0.0273
1431.00,0.0236
1430.00,0.0206
1429.00,0.0184
1428.00,0.0169
1427.00,0.0159
1426.00,0.0153
1425.00,0.0147
1424.00,0.0142
1423.00,0.0139
1422.00,0.0137
1421.00,0.0135
1420.00,0.0132
1419.00,0.0130
1418.00,0.0128
1417.00,0.0125
1416.00,0.0122
1415.00,0.0120
1414.00,0.0119
1413.00,0.0117
1412.00,0.0115
1411.00,0.0114
1410.00,0.0114
1409.00,0.0112
1408.00,0.0110
1407.00,0.0110
1406.00,0.0110
1405.00,0.0110
1404.00,0.0109
1403.00,0.0109
1402.00,0.0110
1401.00,0.0111
1400.00,0.0111
1399.00,0.0113
1398.00,0.0115
1397.00,0.0117
1396.00,0.0119
1395.00,0.0122
1394.00,0.0126
1393.00,0.0131
1392.00,0.0136
1391.00,0.0143
1390.00,0.0153
1389.00,0.0167
1388.00,0.0187
1387.00,0.0218
1386.00,0.0260
1385.00,0.0316
1384.00,0.0393
1383.00,0.0502
1382.00,0.0649
1381.00,0.0838
1380.00,0.1067
1379.00,0.1323
1378.00,0.1563
1377.00,0.1730
1376.00,0.1775
1375.00,0.1672
1374.00,0.1452
1373.00,0.1196
1372.00,0.0965
1371.00,0.0777
1370.00,0.0628
1369.00,0.0515
1368.00,0.0437
1367.00,0.0389
1366.00,0.0362
1365.00,0.0351
1364.00,0.0353
1363.00,0.0365
1362.00,0.0384
1361.00,0.0404
1360.00,0.0419
1359.00,0.0423
1358.00,0.0414
1357.00,0.0391
1356.00,0.0359
1355.00,0.0321
1354.00,0.0285
1353.00,0.0255
1352.00,0.0229
1351.00,0.0209
1350.00,0.0192
1349.00,0.0178
1348.00,0.0166
1347.00,0.0157
1346.00,0.0149
1345.00,0.0142
1344.00,0.0136
1343.00,0.0131
1342.00,0.0126
1341.00,0.0123
1340.00,0.0120
1339.00,0.0118
1338.00,0.0117
1337.00,0.0116
1336.00,0.0117
1335.00,0.0118
1334.00,0.0121
1333.00,0.0124
1332.00,0.0128
1331.00,0.0132
1330.00,0.0133
1329.00,0.0133
1328.00,0.0129
1327.00,0.0125
1326.00,0.0120
1325.00,0.0114
1324.00,0.0109
1323.00,0.0105
1322.00,0.0101
1321.00,0.0099
1320.00,0.0096
1319.00,0.0094
1318.00,0.0093
1317.00,0.0091
1316.00,0.0090
1315.00,0.0090
1314.00,0.0090
1313.00,0.0091
1312.00,0.0093
1311.00,0.0095
1310.00,0.0099
1309.00,0.0106
1308.00,0.0115
1307.00,0.0127
1306.00,0.0139
1305.00,0.0147
1304.00,0.0149
1303.00,0.0146
1302.00,0.0139
1301.00,0.0133
1300.00,0.0129
1299.00,0.0128
1298.00,0.0127
1297.00,0.0127
1296.00,0.0126
1295.00,0.0124
1294.00,0.0121
1293.00,0.0117
1292.00,0.0112
1291.00,0.0107
1290.00,0.0102
1289.00,0.0098
1288.00,0.0094
1287.00,0.0092
1286.00,0.0090
1285.00,0.0088
1284.00,0.0086
1283.00,0.0085
1282.00,0.0083
1281.00,0.0082
1280.00,0.0081
1279.00,0.0080
1278.00,0.0080
1277.00,0.0080
1276.00,0.0081
1275.00,0.0081
1274.00,0.0080
1273.00,0.0080
1272.00,0.0081
1271.00,0.0082
1270.00,0.0083
1269.00,0.0085
1268.00,0.0088
1267.00,0.0091
1266.00,0.0095
1265.00,0.0098
1264.00,0.0102
1263.00,0.0105
1262.00,0.0109
1261.00,0.0113
1260.00,0.0119
1259.00,0.0125
1258.00,0.0132
1257.00,0.0137
1256.00,0.0138
1255.00,0.0135
1254.00,0.0128
1253.00,0.0119
1252.00,0.0110
1251.00,0.0103
1250.00,0.0097
1249.00,0.0092
1248.00,0.0089
1247.00,0.0086
1246.00,0.0084
1245.00,0.0082
1244.00,0.0080
1243.00,0.0079
1242.00,0.0079
1241.00,0.0078
1240.00,0.0077
1239.00,0.0076
1238.00,0.0075
1237.00,0.0075
1236.00,0.0074
1235.00,0.0074
1234.00,0.0075
1233.00,0.0076
1232.00,0.0076
1231.00,0.0077
1230.00,0.0077
1229.00,0.0078
1228.00,0.0080
1227.00,0.0082
1226.00,0.0084
1225.00,0.0087
1224.00,0.0090
1223.00,0.0093
1222.00,0.0095
1221.00,0.0098
1220.00,0.0099
1219.00,0.0100
1218.00,0.0099
1217.00,0.0097
1216.00,0.0095
1215.00,0.0092
1214.00,0.0089
1213.00,0.0086
1212.00,0.0084
1211.00,0.0082
1210.00,0.0080
1209.00,0.0079
1208.00,0.0077
1207.00,0.0077
1206.00,0.0076
1205.00,0.0076
1204.00,0.0076
1203.00,0.0076
1202.00,0.0075
1201.00,0.0074
1200.00,0.0073
1199.00,0.0073
1198.00,0.0073
1197.00,0.0073
1196.00,0.0073
1195.00,0.0074
1194.00,0.0075
1193.00,0.0075
1192.00,0.0074
1191.00,0.0074
1190.00,0.0074
1189.00,0.0074
1188.00,0.0074
1187.00,0.0075
1186.00,0.0076
1185.00,0.0077
1184.00,0.0078
1183.00,0.0079
1182.00,0.0081
1181.00,0.0083
1180.00,0.0086
1179.00,0.0091
1178.00,0.0097
1177.00,0.0106
1176.00,0.0118
1175.00,0.0134
1174.00,0.0155
1173.00,0.0181
1172.00,0.0211
1171.00,0.0245
1170.00,0.0279
1169.00,0.0306
1168.00,0.0322
1167.00,0.0326
1166.00,0.0317
1165.00,0.0302
1164.00,0.0283
1163.00,0.0264
1162.00,0.0247
1161.00,0.0234
1160.00,0.0223
1159.00,0.0215
1158.00,0.0208
1157.00,0.0204
1156.00,0.0202
1155.00,0.0201
1154.00,0.0199
1153.00,0.0196
1152.00,0.0191
1151.00,0.0184
1150.00,0.0176
1149.00,0.0167
1148.00,0.0157
1147.00,0.0148
1146.00,0.0139
1145.00,0.0131
1144.00,0.0124
1143.00,0.0118
1142.00,0.0112
1141.00,0.0106
1140.00,0.0101
1139.00,0.0097
1138.00,0.0094
1137.00,0.0092
1136.00,0.0090
1135.00,0.0089
1134.00,0.0088
1133.00,0.0087
1132.00,0.0086
1131.00,0.0086
1130.00,0.0085
1129.00,0.0085
1128.00,0.0085
1127.00,0.0086
1126.00,0.0087
1125.00,0.0088
1124.00,0.0089
1123.00,0.0090
1122.00,0.0091
1121.00,0.0092
1120.00,0.0093
1119.00,0.0093
1118.00,0.0093
1117.00,0.0093
1116.00,0.0095
1115.00,0.0096
1114.00,0.0098
1113.00,0.0100
1112.00,0.0102
1111.00,0.0105
1110.00,0.0108
1109.00,0.0112
1108.00,0.0117
1107.00,0.0123
1106.00,0.0129
1105.00,0.0134
1104.00,0.0138
1103.00,0.0141
1102.00,0.0141
1101.00,0.0138
1100.00,0.0133
1099.00,0.0127
1098.00,0.0121
1097.00,0.0116
1096.00,0.0112
1095.00,0.0108
1094.00,0.0106
1093.00,0.0103
1092.00,0.0101
1091.00,0.0099
1090.00,0.0097
1089.00,0.0095
1088.00,0.0094
1087.00,0.0093
1086.00,0.0092
1085.00,0.0092
1084.00,0.0092
1083.00,0.0093
1082.00,0.0093
1081.00,0.0093
1080.00,0.0092
1079.00,0.0091
1078.00,0.0089
1077.00,0.0087
1076.00,0.0085
1075.00,0.0084
1074.00,0.0084
1073.00,0.0084
1072.00,0.0083
1071.00,0.0083
1070.00,0.0082
1069.00,0.0082
1068.00,0.0082
1067.00,0.0082
1066.00,0.0083
1065.00,0.0083
1064.00,0.0082
1063.00,0.0082
1062.00,0.0082
1061.00,0.0082
1060.00,0.0082
1059.00,0.0083
1058.00,0.0084
1057.00,0.0084
1056.00,0.0084
1055.00,0.0084
1054.00,0.0084
1053.00,0.0086
1052.00,0.0088
1051.00,0.0091
1050.00,0.0094
1049.00,0.0097
1048.00,0.0099
1047.00,0.0102
1046.00,0.0105
1045.00,0.0106
1044.00,0.0107
1043.00,0.0106
1042.00,0.0105
1041.00,0.0102
1040.00,0.0100
1039.00,0.0099
1038.00,0.0099
1037.00,0.0098
1036.00,0.0097
1035.00,0.0095
1034.00,0.0094
1033.00,0.0093
1032.00,0.0091
1031.00,0.0091
1030.00,0.0090
1029.00,0.0089
1028.00,0.0089
1027.00,0.0088
1026.00,0.0089
1025.00,0.0089
1024.00,0.0089
1023.00,0.0089
1022.00,0.0088
1021.00,0.0088
1020.00,0.0087
1019.00,0.0088
1018.00,0.0088
1017.00,0.0090
1016.00,0.0092
1015.00,0.0094
1014.00,0.0096
1013.00,0.0097
1012.00,0.0099
1011.00,0.0101
1010.00,0.0104
1009.00,0.0108
1008.00,0.0113
1007.00,0.0120
1006.00,0.0129
1005.00,0.0141
1004.00,0.0158
1003.00,0.0182
1002.00,0.0216
1001.00,0.0257
1000.00,0.0300
999.00,0.0337
998.00,0.0357
997.00,0.0352
996.00,0.0324
995.00,0.0282
994.00,0.0237
993.00,0.0199
992.00,0.0170
991.00,0.0150
990.00,0.0136
989.00,0.0126
988.00,0.0120
987.00,0.0115
986.00,0.0114
985.00,0.0114
984.00,0.0117
983.00,0.0123
982.00,0.0134
981.00,0.0151
980.00,0.0173
979.00,0.0203
978.00,0.0240
977.00,0.0284
976.00,0.0332
975.00,0.0379
974.00,0.0414
973.00,0.0428
972.00,0.0414
971.00,0.0375
970.00,0.0322
969.00,0.0267
968.00,0.0220
967.00,0.0184
966.00,0.0158
965.00,0.0139
964.00,0.0124
963.00,0.0113
962.00,0.0105
961.00,0.0099
960.00,0.0094
959.00,0.0091
958.00,0.0088
957.00,0.0086
956.00,0.0082
955.00,0.0079
954.00,0.0076
953.00,0.0074
952.00,0.0073
951.00,0.0073
950.00,0.0073
949.00,0.0073
948.00,0.0073
947.00,0.0073
946.00,0.0075
945.00,0.0077
944.00,0.0080
943.00,0.0084
942.00,0.0086
941.00,0.0088
940.00,0.0089
939.00,0.0087
938.00,0.0083
937.00,0.0079
936.00,0.0074
935.00,0.0071
934.00,0.0068
933.00,0.0066
932.00,0.0064
931.00,0.0063
930.00,0.0063
929.00,0.0062
928.00,0.0062
927.00,0.0062
926.00,0.0061
925.00,0.0061
924.00,0.0061
923.00,0.0061
922.00,0.0060
921.00,0.0059
920.00,0.0059
919.00,0.0060
918.00,0.0061
917.00,0.0062
916.00,0.0063
915.00,0.0064
914.00,0.0065
913.00,0.0067
912.00,0.0068
911.00,0.0069
910.00,0.0071
909.00,0.0073
908.00,0.0076
907.00,0.0081
906.00,0.0088
905.00,0.0097
904.00,0.0110
903.00,0.0127
902.00,0.0145
901.00,0.0161
900.00,0.0172
899.00,0.0173
898.00,0.0165
897.00,0.0150
896.00,0.0133
895.00,0.0116
894.00,0.0102
893.00,0.0092
892.00,0.0084
891.00,0.0079
890.00,0.0076
889.00,0.0075
888.00,0.0074
887.00,0.0074
886.00,0.0074
885.00,0.0073
884.00,0.0072
883.00,0.0072
882.00,0.0073
881.00,0.0073
880.00,0.0073
879.00,0.0073
878.00,0.0073
877.00,0.0075
876.00,0.0076
875.00,0.0076
874.00,0.0076
873.00,0.0077
872.00,0.0078
871.00,0.0078
870.00,0.0078
869.00,0.0078
868.00,0.0078
867.00,0.0079
866.00,0.0080
865.00,0.0082
864.00,0.0082
863.00,0.0083
862.00,0.0083
861.00,0.0083
860.00,0.0084
859.00,0.0086
858.00,0.0088
857.00,0.0090
856.00,0.0092
855.00,0.0093
854.00,0.0095
853.00,0.0097
852.00,0.0100
851.00,0.0104
850.00,0.0109
849.00,0.0116
848.00,0.0124
847.00,0.0138
846.00,0.0159
845.00,0.0194
844.00,0.0244
843.00,0.0304
842.00,0.0354
841.00,0.0373
840.00,0.0351
839.00,0.0300
838.00,0.0241
837.00,0.0193
836.00,0.0161
835.00,0.0142
834.00,0.0130
833.00,0.0122
832.00,0.0116
831.00,0.0112
830.00,0.0110
829.00,0.0109
828.00,0.0110
827.00,0.0110
826.00,0.0109
825.00,0.0108
824.00,0.0108
823.00,0.0108
822.00,0.0110
821.00,0.0112
820.00,0.0113
819.00,0.0115
818.00,0.0119
817.00,0.0123
816.00,0.0130
815.00,0.0140
814.00,0.0153
813.00,0.0170
812.00,0.0189
811.00,0.0207
810.00,0.0221
809.00,0.0228
808.00,0.0226
807.00,0.0215
806.00,0.0197
805.00,0.0178
804.00,0.0160
803.00,0.0145
802.00,0.0136
801.00,0.0130
800.00,0.0126
799.00,0.0123
798.00,0.0118
797.00,0.0113
796.00,0.0108
795.00,0.0103
794.00,0.0100
793.00,0.0096
792.00,0.0092
791.00,0.0088
790.00,0.0085
789.00,0.0083
788.00,0.0081
787.00,0.0079
786.00,0.0077
785.00,0.0076
784.00,0.0074
783.00,0.0072
782.00,0.0070
781.00,0.0068
780.00,0.0066
779.00,0.0066
778.00,0.0067
777.00,0.0068
776.00,0.0068
775.00,0.0068
774.00,0.0068
773.00,0.0069
772.00,0.0070
771.00,0.0070
770.00,0.0070
769.00,0.0069
768.00,0.0069
767.00,0.0068
766.00,0.0067
765.00,0.0068
764.00,0.0068
763.00,0.0069
762.00,0.0070
761.00,0.0071
760.00,0.0071
759.00,0.0070
758.00,0.0070
757.00,0.0070
756.00,0.0072
755.00,0.0074
754.00,0.0075
753.00,0.0077
752.00,0.0077
751.00,0.0078
750.00,0.0080
749.00,0.0082
748.00,0.0083
747.00,0.0083
746.00,0.0083
745.00,0.0083
744.00,0.0085
743.00,0.0087
742.00,0.0091
741.00,0.0096
740.00,0.0100
739.00,0.0105
738.00,0.0109
737.00,0.0112
736.00,0.0115
735.00,0.0117
734.00,0.0121
733.00,0.0128
732.00,0.0136
731.00,0.0145
730.00,0.0151
729.00,0.0153
728.00,0.0154
727.00,0.0155
726.00,0.0157
725.00,0.0161
724.00,0.0167
723.00,0.0175
722.00,0.0182
721.00,0.0186
720.00,0.0183
719.00,0.0174
718.00,0.0162
717.00,0.0149
716.00,0.0138
715.00,0.0129
714.00,0.0123
713.00,0.0118
712.00,0.0114
711.00,0.0110
710.00,0.0107
709.00,0.0105
708.00,0.0104
707.00,0.0105
706.00,0.0106
705.00,0.0107
704.00,0.0107
703.00,0.0105
702.00,0.0103
701.00,0.0101
700.00,0.0099
699.00,0.0097
698.00,0.0095
697.00,0.0093
696.00,0.0092
695.00,0.0091
694.00,0.0092
693.00,0.0093
692.00,0.0093
691.00,0.0093
690.00,0.0090
689.00,0.0088
688.00,0.0086
687.00,0.0086
686.00,0.0088
685.00,0.0088
684.00,0.0088
683.00,0.0088
682.00,0.0087
681.00,0.0087
680.00,0.0088
679.00,0.0088
678.00,0.0090
677.00,0.0091
676.00,0.0091
675.00,0.0091
674.00,0.0090
673.00,0.0089
672.00,0.0089
671.00,0.0088
670.00,0.0086
669.00,0.0084
668.00,0.0084
667.00,0.0087
666.00,0.0090
665.00,0.0091
664.00,0.0092
663.00,0.0091
662.00,0.0089
661.00,0.0088
660.00,0.0088
659.00,0.0088
658.00,0.0088
657.00,0.0088
656.00,0.0087
655.00,0.0087
654.00,0.0088
653.00,0.0089
652.00,0.0088
651.00,0.0086
650.00,0.0084
649.00,0.0084
648.00,0.0085
647.00,0.0088
646.00,0.0090
645.00,0.0091
644.00,0.0090
643.00,0.0088
642.00,0.0085
641.00,0.0082
640.00,0.0080
639.00,0.0080
638.00,0.0082
637.00,0.0083
636.00,0.0083
635.00,0.0083
634.00,0.0083
633.00,0.0085
632.00,0.0089
631.00,0.0092
630.00,0.0095
629.00,0.0093
628.00,0.0089
627.00,0.0084
626.00,0.0081
625.00,0.0082
624.00,0.0084
623.00,0.0085
622.00,0.0085
621.00,0.0084
620.00,0.0084
619.00,0.0084
618.00,0.0084
617.00,0.0085
616.00,0.0086
615.00,0.0087
614.00,0.0088
613.00,0.0087
612.00,0.0087
611.00,0.0087
610.00,0.0088
609.00,0.0088
608.00,0.0086
607.00,0.0083
606.00,0.0080
605.00,0.0078
604.00,0.0079
603.00,0.0082
602.00,0.0087
601.00,0.0091
600.00,0.0092
599.00,0.0091
598.00,0.0091
597.00,0.0091
596.00,0.0090
595.00,0.0089
594.00,0.0087
593.00,0.0085
592.00,0.0085
591.00,0.0087
590.00,0.0089
589.00,0.0091
588.00,0.0092
587.00,0.0093
586.00,0.0092
585.00,0.0091
584.00,0.0089
583.00,0.0087
582.00,0.0087
581.00,0.0089
580.00,0.0092
579.00,0.0093
578.00,0.0091
577.00,0.0087
576.00,0.0084
575.00,0.0083
574.00,0.0084
573.00,0.0084
572.00,0.0085
571.00,0.0085
570.00,0.0086
569.00,0.0087
568.00,0.0086
567.00,0.0085
566.00,0.0083
565.00,0.0083
564.00,0.0085
563.00,0.0088
562.00,0.0090
561.00,0.0091
560.00,0.0092
559.00,0.0093
558.00,0.0093
557.00,0.0091
556.00,0.0089
555.00,0.0089
554.00,0.0091
553.00,0.0094
552.00,0.0094
551.00,0.0092
550.00,0.0090
549.00,0.0088
548.00,0.0087
547.00,0.0088
546.00,0.0089
545.00,0.0092
544.00,0.0095
543.00,0.0097
542.00,0.0095
541.00,0.0090
540.00,0.0085
539.00,0.0082
538.00,0.0082
537.00,0.0085
536.00,0.0090
535.00,0.0095
534.00,0.0098
533.00,0.0099
532.00,0.0097
531.00,0.0092
530.00,0.0088
529.00,0.0088
528.00,0.0095
527.00,0.0103
526.00,0.0107
525.00,0.0104
524.00,0.0095
523.00,0.0089
522.00,0.0087
521.00,0.0089
520.00,0.0090
519.00,0.0088
518.00,0.0084
517.00,0.0080
516.00,0.0079
515.00,0.0081
514.00,0.0081
513.00,0.0080
512.00,0.0078
511.00,0.0077
510.00,0.0075
509.00,0.0071
508.00,0.0067
507.00,0.0065
506.00,0.0068
505.00,0.0072
504.00,0.0074
503.00,0.0073
502.00,0.0070
501.00,0.0069
500.00,0.0070
499.00,0.0070
498.00,0.0071
497.00,0.0072
496.00,0.0076
495.00,0.0081
494.00,0.0085
493.00,0.0085
492.00,0.0079
491.00,0.0072
490.00,0.0068
489.00,0.0070
488.00,0.0074
487.00,0.0076
486.00,0.0073
485.00,0.0072
484.00,0.0076
483.00,0.0085
482.00,0.0090
481.00,0.0087
480.00,0.0077
479.00,0.0067
478.00,0.0058
477.00,0.0052
476.00,0.0049
475.00,0.0050
474.00,0.0058
473.00,0.0069
472.00,0.0079
471.00,0.0085
470.00,0.0089
469.00,0.0092
468.00,0.0092
467.00,0.0090
466.00,0.0090
465.00,0.0093
464.00,0.0100
463.00,0.0113
462.00,0.0131
461.00,0.0152
460.00,0.0167
459.00,0.0169
458.00,0.0160
457.00,0.0150
456.00,0.0149
455.00,0.0153
454.00,0.0156
453.00,0.0154
452.00,0.0146
451.00,0.0135
450.00,0.0130
