Created as New Dataset,Sample 002 By Administrator Date Thursday, September 04 2025
cm-1,A
4000.00,0.0009
3999.00,0.0009
3998.00,0.0009
3997.00,0.0009
3996.00,0.0009
3995.00,0.0009
3994.00,0.0009
3993.00,0.0009
3992.00,0.0009
3991.00,0.0010
3990.00,0.0009
3989.00,0.0009
3988.00,0.0009
3987.00,0.0009
3986.00,0.0009
3985.00,0.0008
3984.00,0.0008
3983.00,0.0008
3982.00,0.0007
3981.00,0.0007
3980.00,0.0007
3979.00,0.0008
3978.00,0.0008
3977.00,0.0008
3976.00,0.0008
3975.00,0.0008
3974.00,0.0008
3973.00,0.0008
3972.00,0.0008
3971.00,0.0008
3970.00,0.0008
3969.00,0.0008
3968.00,0.0008
3967.00,0.0008
3966.00,0.0008
3965.00,0.0008
3964.00,0.0008
3963.00,0.0008
3962.00,0.0008
3961.00,0.0008
3960.00,0.0008
3959.00,0.0008
3958.00,0.0008
3957.00,0.0008
3956.00,0.0008
3955.00,0.0008
3954.00,0.0008
3953.00,0.0008
3952.00,0.0008
3951.00,0.0008
3950.00,0.0007
3949.00,0.0007
3948.00,0.0008
3947.00,0.0008
3946.00,0.0008
3945.00,0.0008
3944.00,0.0008
3943.00,0.0008
3942.00,0.0008
3941.00,0.0008
3940.00,0.0008
3939.00,0.0008
3938.00,0.0008
3937.00,0.0008
3936.00,0.0008
3935.00,0.0008
3934.00,0.0008
3933.00,0.0008
3932.00,0.0008
3931.00,0.0009
3930.00,0.0009
3929.00,0.0009
3928.00,0.0009
3927.00,0.0009
3926.00,0.0008
3925.00,0.0008
3924.00,0.0008
3923.00,0.0008
3922.00,0.0009
3921.00,0.0008
3920.00,0.0008
3919.00,0.0008
3918.00,0.0008
3917.00,0.0008
3916.00,0.0008
3915.00,0.0008
3914.00,0.0008
3913.00,0.0008
3912.00,0.0008
3911.00,0.0008
3910.00,0.0008
3909.00,0.0008
3908.00,0.0008
3907.00,0.0009
3906.00,0.0009
3905.00,0.0009
3904.00,0.0009
3903.00,0.0009
3902.00,0.0009
3901.00,0.0009
3900.00,0.0009
3899.00,0.0008
3898.00,0.0008
3897.00,0.0008
3896.00,0.0008
3895.00,0.0008
3894.00,0.0008
3893.00,0.0008
3892.00,0.0008
3891.00,0.0008
3890.00,0.0008
3889.00,0.0008
3888.00,0.0008
3887.00,0.0008
3886.00,0.0008
3885.00,0.0008
3884.00,0.0008
3883.00,0.0008
3882.00,0.0009
3881.00,0.0009
3880.00,0.0009
3879.00,0.0009
3878.00,0.0009
3877.00,0.0008
3876.00,0.0008
3875.00,0.0008
3874.00,0.0007
3873.00,0.0008
3872.00,0.0008
3871.00,0.0008
3870.00,0.0009
3869.00,0.0009
3868.00,0.0009
3867.00,0.0009
3866.00,0.0008
3865.00,0.0008
3864.00,0.0008
3863.00,0.0008
3862.00,0.0008
3861.00,0.0008
3860.00,0.0009
3859.00,0.0009
3858.00,0.0009
3857.00,0.0009
3856.00,0.0009
3855.00,0.0009
3854.00,0.0008
3853.00,0.0008
3852.00,0.0008
3851.00,0.0008
3850.00,0.0008
3849.00,0.0008
3848.00,0.0008
3847.00,0.0008
3846.00,0.0008
3845.00,0.0009
3844.00,0.0009
3843.00,0.0008
3842.00,0.0008
3841.00,0.0008
3840.00,0.0008
3839.00,0.0008
3838.00,0.0008
3837.00,0.0008
3836.00,0.0008
3835.00,0.0008
3834.00,0.0008
3833.00,0.0008
3832.00,0.0008
3831.00,0.0008
3830.00,0.0008
3829.00,0.0008
3828.00,0.0008
3827.00,0.0008
3826.00,0.0008
3825.00,0.0008
3824.00,0.0009
3823.00,0.0009
3822.00,0.0008
3821.00,0.0008
3820.00,0.0008
3819.00,0.0009
3818.00,0.0009
3817.00,0.0009
3816.00,0.0008
3815.00,0.0008
3814.00,0.0008
3813.00,0.0008
3812.00,0.0008
3811.00,0.0008
3810.00,0.0008
3809.00,0.0008
3808.00,0.0008
3807.00,0.0008
3806.00,0.0008
3805.00,0.0008
3804.00,0.0008
3803.00,0.0008
3802.00,0.0008
3801.00,0.0007
3800.00,0.0007
3799.00,0.0007
3798.00,0.0007
3797.00,0.0007
3796.00,0.0007
3795.00,0.0007
3794.00,0.0007
3793.00,0.0007
3792.00,0.0007
3791.00,0.0007
3790.00,0.0008
3789.00,0.0008
3788.00,0.0008
3787.00,0.0008
3786.00,0.0008
3785.00,0.0008
3784.00,0.0008
3783.00,0.0008
3782.00,0.0008
3781.00,0.0009
3780.00,0.0009
3779.00,0.0009
3778.00,0.0009
3777.00,0.0009
3776.00,0.0009
3775.00,0.0008
3774.00,0.0008
3773.00,0.0008
3772.00,0.0008
3771.00,0.0008
3770.00,0.0008
3769.00,0.0009
3768.00,0.0009
3767.00,0.0009
3766.00,0.0009
3765.00,0.0009
3764.00,0.0008
3763.00,0.0008
3762.00,0.0009
3761.00,0.0009
3760.00,0.0009
3759.00,0.0009
3758.00,0.0008
3757.00,0.0008
3756.00,0.0008
3755.00,0.0008
3754.00,0.0008
3753.00,0.0008
3752.00,0.0008
3751.00,0.0008
3750.00,0.0009
3749.00,0.0009
3748.00,0.0010
3747.00,0.0010
3746.00,0.0010
3745.00,0.0009
3744.00,0.0009
3743.00,0.0009
3742.00,0.0008
3741.00,0.0008
3740.00,0.0007
3739.00,0.0007
3738.00,0.0007
3737.00,0.0008
3736.00,0.0008
3735.00,0.0008
3734.00,0.0008
3733.00,0.0008
3732.00,0.0008
3731.00,0.0008
3730.00,0.0007
3729.00,0.0007
3728.00,0.0007
3727.00,0.0007
3726.00,0.0007
3725.00,0.0007
3724.00,0.0007
3723.00,0.0008
3722.00,0.0008
3721.00,0.0008
3720.00,0.0008
3719.00,0.0008
3718.00,0.0007
3717.00,0.0007
3716.00,0.0007
3715.00,0.0007
3714.00,0.0006
3713.00,0.0007
3712.00,0.0007
3711.00,0.0007
3710.00,0.0007
3709.00,0.0007
3708.00,0.0007
3707.00,0.0008
3706.00,0.0008
3705.00,0.0008
3704.00,0.0008
3703.00,0.0008
3702.00,0.0007
3701.00,0.0007
3700.00,0.0007
3699.00,0.0007
3698.00,0.0007
3697.00,0.0006
3696.00,0.0006
3695.00,0.0006
3694.00,0.0007
3693.00,0.0007
3692.00,0.0007
3691.00,0.0007
3690.00,0.0006
3689.00,0.0006
3688.00,0.0006
3687.00,0.0006
3686.00,0.0007
3685.00,0.0007
3684.00,0.0007
3683.00,0.0007
3682.00,0.0007
3681.00,0.0007
3680.00,0.0007
3679.00,0.0007
3678.00,0.0007
3677.00,0.0008
3676.00,0.0009
3675.00,0.0009
3674.00,0.0010
3673.00,0.0010
3672.00,0.0009
3671.00,0.0008
3670.00,0.0007
3669.00,0.0007
3668.00,0.0006
3667.00,0.0007
3666.00,0.0006
3665.00,0.0006
3664.00,0.0006
3663.00,0.0006
3662.00,0.0006
3661.00,0.0006
3660.00,0.0006
3659.00,0.0007
3658.00,0.0007
3657.00,0.0008
3656.00,0.0008
3655.00,0.0008
3654.00,0.0007
3653.00,0.0007
3652.00,0.0007
3651.00,0.0007
3650.00,0.0008
3649.00,0.0008
3648.00,0.0008
3647.00,0.0008
3646.00,0.0008
3645.00,0.0008
3644.00,0.0007
3643.00,0.0006
3642.00,0.0006
3641.00,0.0006
3640.00,0.0007
3639.00,0.0007
3638.00,0.0007
3637.00,0.0007
3636.00,0.0007
3635.00,0.0007
3634.00,0.0007
3633.00,0.0008
3632.00,0.0009
3631.00,0.0010
3630.00,0.0011
3629.00,0.0010
3628.00,0.0010
3627.00,0.0010
3626.00,0.0009
3625.00,0.0009
3624.00,0.0008
3623.00,0.0008
3622.00,0.0008
3621.00,0.0008
3620.00,0.0008
3619.00,0.0009
3618.00,0.0009
3617.00,0.0009
3616.00,0.0009
3615.00,0.0009
3614.00,0.0009
3613.00,0.0009
3612.00,0.0009
3611.00,0.0009
3610.00,0.0010
3609.00,0.0011
3608.00,0.0011
3607.00,0.0011
3606.00,0.0012
3605.00,0.0012
3604.00,0.0011
3603.00,0.0011
3602.00,0.0011
3601.00,0.0010
3600.00,0.0010
3599.00,0.0010
3598.00,0.0010
3597.00,0.0010
3596.00,0.0011
3595.00,0.0011
3594.00,0.0011
3593.00,0.0011
3592.00,0.0012
3591.00,0.0012
3590.00,0.0012
3589.00,0.0013
3588.00,0.0013
3587.00,0.0013
3586.00,0.0013
3585.00,0.0013
3584.00,0.0013
3583.00,0.0013
3582.00,0.0013
3581.00,0.0013
3580.00,0.0013
3579.00,0.0014
3578.00,0.0013
3577.00,0.0013
3576.00,0.0013
3575.00,0.0013
3574.00,0.0014
3573.00,0.0014
3572.00,0.0015
3571.00,0.0015
3570.00,0.0015
3569.00,0.0016
3568.00,0.0016
3567.00,0.0016
3566.00,0.0016
3565.00,0.0016
3564.00,0.0016
3563.00,0.0016
3562.00,0.0016
3561.00,0.0016
3560.00,0.0016
3559.00,0.0016
3558.00,0.0016
3557.00,0.0017
3556.00,0.0017
3555.00,0.0018
3554.00,0.0018
3553.00,0.0019
3552.00,0.0019
3551.00,0.0019
3550.00,0.0020
3549.00,0.0020
3548.00,0.0020
3547.00,0.0021
3546.00,0.0021
3545.00,0.0021
3544.00,0.0021
3543.00,0.0021
3542.00,0.0021
3541.00,0.0021
3540.00,0.0020
3539.00,0.0020
3538.00,0.0021
3537.00,0.0021
3536.00,0.0021
3535.00,0.0021
3534.00,0.0022
3533.00,0.0022
3532.00,0.0022
3531.00,0.0023
3530.00,0.0023
3529.00,0.0023
3528.00,0.0023
3527.00,0.0023
3526.00,0.0024
3525.00,0.0024
3524.00,0.0024
3523.00,0.0024
3522.00,0.0025
3521.00,0.0025
3520.00,0.0025
3519.00,0.0025
3518.00,0.0025
3517.00,0.0025
3516.00,0.0026
3515.00,0.0026
3514.00,0.0026
3513.00,0.0026
3512.00,0.0026
3511.00,0.0027
3510.00,0.0027
3509.00,0.0028
3508.00,0.0028
3507.00,0.0027
3506.00,0.0028
3505.00,0.0028
3504.00,0.0029
3503.00,0.0029
3502.00,0.0029
3501.00,0.0029
3500.00,0.0030
3499.00,0.0030
3498.00,0.0030
3497.00,0.0030
3496.00,0.0030
3495.00,0.0029
3494.00,0.0029
3493.00,0.0030
3492.00,0.0031
3491.00,0.0031
3490.00,0.0031
3489.00,0.0031
3488.00,0.0031
3487.00,0.0031
3486.00,0.0031
3485.00,0.0032
3484.00,0.0031
3483.00,0.0031
3482.00,0.0031
3481.00,0.0032
3480.00,0.0032
3479.00,0.0033
3478.00,0.0033
3477.00,0.0034
3476.00,0.0034
3475.00,0.0034
3474.00,0.0035
3473.00,0.0035
3472.00,0.0035
3471.00,0.0035
3470.00,0.0035
3469.00,0.0035
3468.00,0.0035
3467.00,0.0035
3466.00,0.0035
3465.00,0.0035
3464.00,0.0036
3463.00,0.0036
3462.00,0.0036
3461.00,0.0036
3460.00,0.0036
3459.00,0.0036
3458.00,0.0036
3457.00,0.0037
3456.00,0.0038
3455.00,0.0038
3454.00,0.0038
3453.00,0.0038
3452.00,0.0038
3451.00,0.0038
3450.00,0.0038
3449.00,0.0039
3448.00,0.0039
3447.00,0.0039
3446.00,0.0039
3445.00,0.0040
3444.00,0.0040
3443.00,0.0040
3442.00,0.0040
3441.00,0.0040
3440.00,0.0040
3439.00,0.0040
3438.00,0.0040
3437.00,0.0040
3436.00,0.0040
3435.00,0.0040
3434.00,0.0040
3433.00,0.0040
3432.00,0.0041
3431.00,0.0041
3430.00,0.0041
3429.00,0.0041
3428.00,0.0041
3427.00,0.0042
3426.00,0.0042
3425.00,0.0043
3424.00,0.0043
3423.00,0.0043
3422.00,0.0043
3421.00,0.0043
3420.00,0.0043
3419.00,0.0043
3418.00,0.0043
3417.00,0.0044
3416.00,0.0044
3415.00,0.0044
3414.00,0.0044
3413.00,0.0043
3412.00,0.0043
3411.00,0.0043
3410.00,0.0043
3409.00,0.0043
3408.00,0.0043
3407.00,0.0044
3406.00,0.0044
3405.00,0.0044
3404.00,0.0044
3403.00,0.0044
3402.00,0.0044
3401.00,0.0044
3400.00,0.0044
3399.00,0.0044
3398.00,0.0044
3397.00,0.0044
3396.00,0.0045
3395.00,0.0045
3394.00,0.0045
3393.00,0.0045
3392.00,0.0045
3391.00,0.0045
3390.00,0.0045
3389.00,0.0045
3388.00,0.0045
3387.00,0.0045
3386.00,0.0046
3385.00,0.0046
3384.00,0.0046
3383.00,0.0046
3382.00,0.0046
3381.00,0.0046
3380.00,0.0046
3379.00,0.0046
3378.00,0.0046
3377.00,0.0046
3376.00,0.0046
3375.00,0.0046
3374.00,0.0046
3373.00,0.0046
3372.00,0.0046
3371.00,0.0046
3370.00,0.0046
3369.00,0.0046
3368.00,0.0046
3367.00,0.0046
3366.00,0.0046
3365.00,0.0046
3364.00,0.0046
3363.00,0.0046
3362.00,0.0046
3361.00,0.0046
3360.00,0.0046
3359.00,0.0046
3358.00,0.0046
3357.00,0.0047
3356.00,0.0047
3355.00,0.0047
3354.00,0.0047
3353.00,0.0048
3352.00,0.0048
3351.00,0.0048
3350.00,0.0048
3349.00,0.0048
3348.00,0.0048
3347.00,0.0048
3346.00,0.0048
3345.00,0.0047
3344.00,0.0046
3343.00,0.0046
3342.00,0.0045
3341.00,0.0045
3340.00,0.0045
3339.00,0.0045
3338.00,0.0045
3337.00,0.0045
3336.00,0.0045
3335.00,0.0045
3334.00,0.0044
3333.00,0.0044
3332.00,0.0044
3331.00,0.0044
3330.00,0.0044
3329.00,0.0044
3328.00,0.0044
3327.00,0.0044
3326.00,0.0044
3325.00,0.0044
3324.00,0.0044
3323.00,0.0044
3322.00,0.0044
3321.00,0.0043
3320.00,0.0043
3319.00,0.0042
3318.00,0.0042
3317.00,0.0043
3316.00,0.0043
3315.00,0.0043
3314.00,0.0043
3313.00,0.0043
3312.00,0.0043
3311.00,0.0043
3310.00,0.0043
3309.00,0.0044
3308.00,0.0044
3307.00,0.0043
3306.00,0.0043
3305.00,0.0043
3304.00,0.0044
3303.00,0.0044
3302.00,0.0044
3301.00,0.0044
3300.00,0.0044
3299.00,0.0043
3298.00,0.0043
3297.00,0.0043
3296.00,0.0043
3295.00,0.0043
3294.00,0.0043
3293.00,0.0043
3292.00,0.0042
3291.00,0.0042
3290.00,0.0042
3289.00,0.0041
3288.00,0.0041
3287.00,0.0041
3286.00,0.0041
3285.00,0.0041
3284.00,0.0041
3283.00,0.0041
3282.00,0.0041
3281.00,0.0040
3280.00,0.0040
3279.00,0.0039
3278.00,0.0039
3277.00,0.0039
3276.00,0.0039
3275.00,0.0038
3274.00,0.0038
3273.00,0.0038
3272.00,0.0038
3271.00,0.0038
3270.00,0.0038
3269.00,0.0038
3268.00,0.0038
3267.00,0.0037
3266.00,0.0037
3265.00,0.0037
3264.00,0.0037
3263.00,0.0037
3262.00,0.0037
3261.00,0.0036
3260.00,0.0036
3259.00,0.0036
3258.00,0.0036
3257.00,0.0036
3256.00,0.0036
3255.00,0.0036
3254.00,0.0036
3253.00,0.0035
3252.00,0.0035
3251.00,0.0035
3250.00,0.0035
3249.00,0.0035
3248.00,0.0035
3247.00,0.0035
3246.00,0.0034
3245.00,0.0034
3244.00,0.0034
3243.00,0.0034
3242.00,0.0034
3241.00,0.0033
3240.00,0.0033
3239.00,0.0034
3238.00,0.0034
3237.00,0.0034
3236.00,0.0034
3235.00,0.0034
3234.00,0.0034
3233.00,0.0034
3232.00,0.0034
3231.00,0.0034
3230.00,0.0034
3229.00,0.0034
3228.00,0.0033
3227.00,0.0033
3226.00,0.0033
3225.00,0.0033
3224.00,0.0034
3223.00,0.0034
3222.00,0.0034
3221.00,0.0035
3220.00,0.0035
3219.00,0.0035
3218.00,0.0035
3217.00,0.0036
3216.00,0.0036
3215.00,0.0036
3214.00,0.0036
3213.00,0.0036
3212.00,0.0036
3211.00,0.0036
3210.00,0.0036
3209.00,0.0036
3208.00,0.0036
3207.00,0.0036
3206.00,0.0035
3205.00,0.0035
3204.00,0.0036
3203.00,0.0036
3202.00,0.0036
3201.00,0.0036
3200.00,0.0036
3199.00,0.0036
3198.00,0.0035
3197.00,0.0035
3196.00,0.0035
3195.00,0.0035
3194.00,0.0035
3193.00,0.0035
3192.00,0.0034
3191.00,0.0034
3190.00,0.0034
3189.00,0.0035
3188.00,0.0035
3187.00,0.0035
3186.00,0.0035
3185.00,0.0034
3184.00,0.0034
3183.00,0.0034
3182.00,0.0033
3181.00,0.0033
3180.00,0.0034
3179.00,0.0034
3178.00,0.0034
3177.00,0.0033
3176.00,0.0033
3175.00,0.0033
3174.00,0.0032
3173.00,0.0032
3172.00,0.0032
3171.00,0.0032
3170.00,0.0032
3169.00,0.0031
3168.00,0.0031
3167.00,0.0032
3166.00,0.0032
3165.00,0.0032
3164.00,0.0032
3163.00,0.0032
3162.00,0.0031
3161.00,0.0030
3160.00,0.0030
3159.00,0.0030
3158.00,0.0030
3157.00,0.0030
3156.00,0.0030
3155.00,0.0030
3154.00,0.0030
3153.00,0.0030
3152.00,0.0030
3151.00,0.0030
3150.00,0.0031
3149.00,0.0031
3148.00,0.0031
3147.00,0.0031
3146.00,0.0030
3145.00,0.0030
3144.00,0.0030
3143.00,0.0030
3142.00,0.0030
3141.00,0.0030
3140.00,0.0029
3139.00,0.0029
3138.00,0.0029
3137.00,0.0028
3136.00,0.0028
3135.00,0.0028
3134.00,0.0028
3133.00,0.0027
3132.00,0.0027
3131.00,0.0027
3130.00,0.0027
3129.00,0.0027
3128.00,0.0027
3127.00,0.0026
3126.00,0.0026
3125.00,0.0026
3124.00,0.0026
3123.00,0.0025
3122.00,0.0025
3121.00,0.0025
3120.00,0.0026
3119.00,0.0026
3118.00,0.0026
3117.00,0.0026
3116.00,0.0025
3115.00,0.0025
3114.00,0.0025
3113.00,0.0025
3112.00,0.0025
3111.00,0.0025
3110.00,0.0025
3109.00,0.0024
3108.00,0.0024
3107.00,0.0024
3106.00,0.0024
3105.00,0.0024
3104.00,0.0025
3103.00,0.0025
3102.00,0.0024
3101.00,0.0024
3100.00,0.0024
3099.00,0.0024
3098.00,0.0024
3097.00,0.0024
3096.00,0.0024
3095.00,0.0024
3094.00,0.0024
3093.00,0.0024
3092.00,0.0024
3091.00,0.0023
3090.00,0.0023
3089.00,0.0023
3088.00,0.0023
3087.00,0.0023
3086.00,0.0023
3085.00,0.0023
3084.00,0.0023
3083.00,0.0023
3082.00,0.0023
3081.00,0.0023
3080.00,0.0023
3079.00,0.0023
3078.00,0.0023
3077.00,0.0023
3076.00,0.0023
3075.00,0.0023
3074.00,0.0023
3073.00,0.0023
3072.00,0.0023
3071.00,0.0023
3070.00,0.0023
3069.00,0.0024
3068.00,0.0024
3067.00,0.0024
3066.00,0.0025
3065.00,0.0025
3064.00,0.0025
3063.00,0.0025
3062.00,0.0025
3061.00,0.0025
3060.00,0.0025
3059.00,0.0025
3058.00,0.0025
3057.00,0.0025
3056.00,0.0026
3055.00,0.0026
3054.00,0.0026
3053.00,0.0026
3052.00,0.0026
3051.00,0.0026
3050.00,0.0026
3049.00,0.0026
3048.00,0.0027
3047.00,0.0027
3046.00,0.0027
3045.00,0.0028
3044.00,0.0028
3043.00,0.0028
3042.00,0.0028
3041.00,0.0028
3040.00,0.0028
3039.00,0.0028
3038.00,0.0029
3037.00,0.0029
3036.00,0.0029
3035.00,0.0030
3034.00,0.0030
3033.00,0.0030
3032.00,0.0031
3031.00,0.0031
3030.00,0.0031
3029.00,0.0031
3028.00,0.0032
3027.00,0.0032
3026.00,0.0033
3025.00,0.0033
3024.00,0.0034
3023.00,0.0034
3022.00,0.0035
3021.00,0.0035
3020.00,0.0036
3019.00,0.0036
3018.00,0.0036
3017.00,0.0037
3016.00,0.0037
3015.00,0.0038
3014.00,0.0039
3013.00,0.0039
3012.00,0.0040
3011.00,0.0041
3010.00,0.0042
3009.00,0.0043
3008.00,0.0045
3007.00,0.0046
3006.00,0.0047
3005.00,0.0048
3004.00,0.0049
3003.00,0.0051
3002.00,0.0052
3001.00,0.0054
3000.00,0.0055
2999.00,0.0057
2998.00,0.0059
2997.00,0.0062
2996.00,0.0064
2995.00,0.0067
2994.00,0.0070
2993.00,0.0073
2992.00,0.0077
2991.00,0.0081
2990.00,0.0085
2989.00,0.0090
2988.00,0.0095
2987.00,0.0101
2986.00,0.0108
2985.00,0.0115
2984.00,0.0124
2983.00,0.0133
2982.00,0.0144
2981.00,0.0156
2980.00,0.0170
2979.00,0.0185
2978.00,0.0203
2977.00,0.0223
2976.00,0.0246
2975.00,0.0273
2974.00,0.0304
2973.00,0.0339
2972.00,0.0378
2971.00,0.0423
2970.00,0.0472
2969.00,0.0526
2968.00,0.0584
2967.00,0.0646
2966.00,0.0710
2965.00,0.0774
2964.00,0.0835
2963.00,0.0891
2962.00,0.0936
2961.00,0.0971
2960.00,0.0997
2959.00,0.1016
2958.00,0.1035
2957.00,0.1059
2956.00,0.1094
2955.00,0.1142
2954.00,0.1199
2953.00,0.1261
2952.00,0.1318
2951.00,0.1359
2950.00,0.1374
2949.00,0.1357
2948.00,0.1309
2947.00,0.1235
2946.00,0.1147
2945.00,0.1054
2944.00,0.0967
2943.00,0.0892
2942.00,0.0835
2941.00,0.0795
2940.00,0.0773
2939.00,0.0766
2938.00,0.0772
2937.00,0.0791
2936.00,0.0822
2935.00,0.0863
2934.00,0.0914
2933.00,0.0974
2932.00,0.1042
2931.00,0.1118
2930.00,0.1198
2929.00,0.1282
2928.00,0.1367
2927.00,0.1451
2926.00,0.1533
2925.00,0.1612
2924.00,0.1690
2923.00,0.1768
2922.00,0.1845
2921.00,0.1920
2920.00,0.1985
2919.00,0.2033
2918.00,0.2055
2917.00,0.2045
2916.00,0.2004
2915.00,0.1937
2914.00,0.1853
2913.00,0.1765
2912.00,0.1681
2911.00,0.1605
2910.00,0.1540
2909.00,0.1483
2908.00,0.1432
2907.00,0.1383
2906.00,0.1335
2905.00,0.1287
2904.00,0.1238
2903.00,0.1190
2902.00,0.1141
2901.00,0.1094
2900.00,0.1049
2899.00,0.1006
2898.00,0.0965
2897.00,0.0928
2896.00,0.0894
2895.00,0.0865
2894.00,0.0840
2893.00,0.0820
2892.00,0.0805
2891.00,0.0793
2890.00,0.0785
2889.00,0.0780
2888.00,0.0777
2887.00,0.0777
2886.00,0.0779
2885.00,0.0783
2884.00,0.0790
2883.00,0.0800
2882.00,0.0813
2881.00,0.0827
2880.00,0.0839
2879.00,0.0848
2878.00,0.0853
2877.00,0.0852
2876.00,0.0848
2875.00,0.0843
2874.00,0.0841
2873.00,0.0843
2872.00,0.0851
2871.00,0.0865
2870.00,0.0881
2869.00,0.0898
2868.00,0.0910
2867.00,0.0911
2866.00,0.0897
2865.00,0.0866
2864.00,0.0822
2863.00,0.0769
2862.00,0.0717
2861.00,0.0670
2860.00,0.0634
2859.00,0.0609
2858.00,0.0594
2857.00,0.0589
2856.00,0.0591
2855.00,0.0599
2854.00,0.0610
2853.00,0.0624
2852.00,0.0638
2851.00,0.0651
2850.00,0.0662
2849.00,0.0669
2848.00,0.0676
2847.00,0.0686
2846.00,0.0701
2845.00,0.0723
2844.00,0.0753
2843.00,0.0788
2842.00,0.0823
2841.00,0.0854
2840.00,0.0876
2839.00,0.0882
2838.00,0.0870
2837.00,0.0838
2836.00,0.0787
2835.00,0.0721
2834.00,0.0648
2833.00,0.0575
2832.00,0.0506
2831.00,0.0445
2830.00,0.0393
2829.00,0.0350
2828.00,0.0316
2827.00,0.0288
2826.00,0.0265
2825.00,0.0246
2824.00,0.0229
2823.00,0.0216
2822.00,0.0204
2821.00,0.0193
2820.00,0.0184
2819.00,0.0176
2818.00,0.0168
2817.00,0.0162
2816.00,0.0157
2815.00,0.0152
2814.00,0.0148
2813.00,0.0144
2812.00,0.0140
2811.00,0.0136
2810.00,0.0132
2809.00,0.0128
2808.00,0.0124
2807.00,0.0119
2806.00,0.0114
2805.00,0.0109
2804.00,0.0105
2803.00,0.0100
2802.00,0.0097
2801.00,0.0094
2800.00,0.0091
2799.00,0.0089
2798.00,0.0086
2797.00,0.0084
2796.00,0.0083
2795.00,0.0081
2794.00,0.0080
2793.00,0.0078
2792.00,0.0076
2791.00,0.0073
2790.00,0.0071
2789.00,0.0068
2788.00,0.0066
2787.00,0.0064
2786.00,0.0062
2785.00,0.0060
2784.00,0.0058
2783.00,0.0056
2782.00,0.0055
2781.00,0.0054
2780.00,0.0052
2779.00,0.0051
2778.00,0.0050
2777.00,0.0049
2776.00,0.0048
2775.00,0.0047
2774.00,0.0046
2773.00,0.0046
2772.00,0.0046
2771.00,0.0046
2770.00,0.0045
2769.00,0.0045
2768.00,0.0044
2767.00,0.0044
2766.00,0.0044
2765.00,0.0043
2764.00,0.0043
2763.00,0.0042
2762.00,0.0042
2761.00,0.0042
2760.00,0.0042
2759.00,0.0042
2758.00,0.0042
2757.00,0.0042
2756.00,0.0042
2755.00,0.0042
2754.00,0.0042
2753.00,0.0042
2752.00,0.0041
2751.00,0.0041
2750.00,0.0041
2749.00,0.0040
2748.00,0.0040
2747.00,0.0041
2746.00,0.0041
2745.00,0.0042
2744.00,0.0042
2743.00,0.0043
2742.00,0.0044
2741.00,0.0044
2740.00,0.0045
2739.00,0.0045
2738.00,0.0046
2737.00,0.0047
2736.00,0.0048
2735.00,0.0049
2734.00,0.0050
2733.00,0.0052
2732.00,0.0053
2731.00,0.0054
2730.00,0.0055
2729.00,0.0057
2728.00,0.0059
2727.00,0.0061
2726.00,0.0063
2725.00,0.0065
2724.00,0.0066
2723.00,0.0066
2722.00,0.0066
2721.00,0.0065
2720.00,0.0063
2719.00,0.0060
2718.00,0.0058
2717.00,0.0055
2716.00,0.0053
2715.00,0.0052
2714.00,0.0050
2713.00,0.0048
2712.00,0.0047
2711.00,0.0045
2710.00,0.0044
2709.00,0.0043
2708.00,0.0041
2707.00,0.0041
2706.00,0.0040
2705.00,0.0039
2704.00,0.0039
2703.00,0.0038
2702.00,0.0037
2701.00,0.0036
2700.00,0.0036
2699.00,0.0035
2698.00,0.0035
2697.00,0.0035
2696.00,0.0035
2695.00,0.0035
2694.00,0.0035
2693.00,0.0035
2692.00,0.0035
2691.00,0.0035
2690.00,0.0035
2689.00,0.0035
2688.00,0.0035
2687.00,0.0035
2686.00,0.0035
2685.00,0.0035
2684.00,0.0035
2683.00,0.0035
2682.00,0.0036
2681.00,0.0036
2680.00,0.0036
2679.00,0.0036
2678.00,0.0036
2677.00,0.0036
2676.00,0.0036
2675.00,0.0036
2674.00,0.0035
2673.00,0.0035
2672.00,0.0035
2671.00,0.0035
2670.00,0.0035
2669.00,0.0035
2668.00,0.0035
2667.00,0.0036
2666.00,0.0036
2665.00,0.0036
2664.00,0.0037
2663.00,0.0037
2662.00,0.0038
2661.00,0.0038
2660.00,0.0038
2659.00,0.0038
2658.00,0.0038
2657.00,0.0038
2656.00,0.0038
2655.00,0.0038
2654.00,0.0037
2653.00,0.0036
2652.00,0.0036
2651.00,0.0035
2650.00,0.0035
2649.00,0.0034
2648.00,0.0034
2647.00,0.0034
2646.00,0.0034
2645.00,0.0034
2644.00,0.0033
2643.00,0.0032
2642.00,0.0032
2641.00,0.0031
2640.00,0.0031
2639.00,0.0031
2638.00,0.0030
2637.00,0.0030
2636.00,0.0031
2635.00,0.0031
2634.00,0.0030
2633.00,0.0030
2632.00,0.0030
2631.00,0.0031
2630.00,0.0031
2629.00,0.0031
2628.00,0.0031
2627.00,0.0031
2626.00,0.0031
2625.00,0.0031
2624.00,0.0031
2623.00,0.0031
2622.00,0.0031
2621.00,0.0031
2620.00,0.0032
2619.00,0.0032
2618.00,0.0032
2617.00,0.0032
2616.00,0.0032
2615.00,0.0032
2614.00,0.0032
2613.00,0.0032
2612.00,0.0031
2611.00,0.0031
2610.00,0.0030
2609.00,0.0030
2608.00,0.0029
2607.00,0.0029
2606.00,0.0028
2605.00,0.0027
2604.00,0.0026
2603.00,0.0026
2602.00,0.0026
2601.00,0.0026
2600.00,0.0026
2599.00,0.0026
2598.00,0.0026
2597.00,0.0026
2596.00,0.0025
2595.00,0.0025
2594.00,0.0025
2593.00,0.0025
2592.00,0.0025
2591.00,0.0026
2590.00,0.0027
2589.00,0.0028
2588.00,0.0029
2587.00,0.0030
2586.00,0.0031
2585.00,0.0031
2584.00,0.0031
2583.00,0.0031
2582.00,0.0031
2581.00,0.0030
2580.00,0.0030
2579.00,0.0029
2578.00,0.0028
2577.00,0.0027
2576.00,0.0027
2575.00,0.0026
2574.00,0.0026
2573.00,0.0025
2572.00,0.0024
2571.00,0.0023
2570.00,0.0022
2569.00,0.0021
2568.00,0.0021
2567.00,0.0021
2566.00,0.0021
2565.00,0.0021
2564.00,0.0020
2563.00,0.0020
2562.00,0.0020
2561.00,0.0019
2560.00,0.0019
2559.00,0.0019
2558.00,0.0019
2557.00,0.0019
2556.00,0.0018
2555.00,0.0017
2554.00,0.0017
2553.00,0.0016
2552.00,0.0016
2551.00,0.0016
2550.00,0.0016
2549.00,0.0016
2548.00,0.0016
2547.00,0.0016
2546.00,0.0016
2545.00,0.0016
2544.00,0.0016
2543.00,0.0016
2542.00,0.0016
2541.00,0.0015
2540.00,0.0015
2539.00,0.0014
2538.00,0.0014
2537.00,0.0014
2536.00,0.0014
2535.00,0.0013
2534.00,0.0013
2533.00,0.0013
2532.00,0.0013
2531.00,0.0013
2530.00,0.0013
2529.00,0.0013
2528.00,0.0012
2527.00,0.0012
2526.00,0.0012
2525.00,0.0012
2524.00,0.0012
2523.00,0.0012
2522.00,0.0012
2521.00,0.0012
2520.00,0.0011
2519.00,0.0010
2518.00,0.0009
2517.00,0.0009
2516.00,0.0009
2515.00,0.0010
2514.00,0.0010
2513.00,0.0009
2512.00,0.0009
2511.00,0.0009
2510.00,0.0010
2509.00,0.0010
2508.00,0.0009
2507.00,0.0008
2506.00,0.0007
2505.00,0.0007
2504.00,0.0006
2503.00,0.0006
2502.00,0.0007
2501.00,0.0008
2500.00,0.0009
2499.00,0.0010
2498.00,0.0010
2497.00,0.0010
2496.00,0.0010
2495.00,0.0009
2494.00,0.0009
2493.00,0.0009
2492.00,0.0009
2491.00,0.0009
2490.00,0.0009
2489.00,0.0009
2488.00,0.0009
2487.00,0.0009
2486.00,0.0009
2485.00,0.0009
2484.00,0.0009
2483.00,0.0010
2482.00,0.0010
2481.00,0.0009
2480.00,0.0008
2479.00,0.0007
2478.00,0.0007
2477.00,0.0007
2476.00,0.0007
2475.00,0.0008
2474.00,0.0008
2473.00,0.0007
2472.00,0.0007
2471.00,0.0007
2470.00,0.0007
2469.00,0.0007
2468.00,0.0008
2467.00,0.0008
2466.00,0.0008
2465.00,0.0007
2464.00,0.0007
2463.00,0.0007
2462.00,0.0007
2461.00,0.0007
2460.00,0.0007
2459.00,0.0007
2458.00,0.0008
2457.00,0.0009
2456.00,0.0010
2455.00,0.0010
2454.00,0.0010
2453.00,0.0010
2452.00,0.0009
2451.00,0.0010
2450.00,0.0010
2449.00,0.0011
2448.00,0.0011
2447.00,0.0011
2446.00,0.0011
2445.00,0.0010
2444.00,0.0009
2443.00,0.0008
2442.00,0.0008
2441.00,0.0008
2440.00,0.0008
2439.00,0.0009
2438.00,0.0010
2437.00,0.0010
2436.00,0.0010
2435.00,0.0010
2434.00,0.0009
2433.00,0.0010
2432.00,0.0010
2431.00,0.0009
2430.00,0.0009
2429.00,0.0009
2428.00,0.0009
2427.00,0.0009
2426.00,0.0009
2425.00,0.0009
2424.00,0.0009
2423.00,0.0009
2422.00,0.0009
2421.00,0.0009
2420.00,0.0010
2419.00,0.0010
2418.00,0.0010
2417.00,0.0010
2416.00,0.0009
2415.00,0.0009
2414.00,0.0009
2413.00,0.0009
2412.00,0.0009
2411.00,0.0008
2410.00,0.0008
2409.00,0.0008
2408.00,0.0007
2407.00,0.0006
2406.00,0.0006
2405.00,0.0007
2404.00,0.0008
2403.00,0.0008
2402.00,0.0008
2401.00,0.0008
2400.00,0.0007
2399.00,0.0006
2398.00,0.0007
2397.00,0.0007
2396.00,0.0007
2395.00,0.0007
2394.00,0.0007
2393.00,0.0006
2392.00,0.0006
2391.00,0.0006
2390.00,0.0006
2389.00,0.0006
2388.00,0.0006
2387.00,0.0007
2386.00,0.0007
2385.00,0.0006
2384.00,0.0005
2383.00,0.0004
2382.00,0.0003
2381.00,0.0002
2380.00,0.0002
2379.00,0.0003
2378.00,0.0003
2377.00,0.0003
2376.00,0.0003
2375.00,0.0002
2374.00,0.0002
2373.00,0.0002
2372.00,0.0003
2371.00,0.0003
2370.00,0.0003
2369.00,0.0002
2368.00,0.0001
2367.00,0.0000
2366.00,-0.0000
2365.00,0.0000
2364.00,0.0001
2363.00,0.0002
2362.00,0.0002
2361.00,0.0002
2360.00,0.0003
2359.00,0.0003
2358.00,0.0004
2357.00,0.0004
2356.00,0.0003
2355.00,0.0003
2354.00,0.0002
2353.00,0.0002
2352.00,0.0002
2351.00,0.0003
2350.00,0.0003
2349.00,0.0003
2348.00,0.0003
2347.00,0.0003
2346.00,0.0006
2345.00,0.0008
2344.00,0.0010
2343.00,0.0010
2342.00,0.0008
2341.00,0.0006
2340.00,0.0005
2339.00,0.0004
2338.00,0.0005
2337.00,0.0006
2336.00,0.0006
2335.00,0.0005
2334.00,0.0005
2333.00,0.0004
2332.00,0.0004
2331.00,0.0004
2330.00,0.0004
2329.00,0.0004
2328.00,0.0005
2327.00,0.0007
2326.00,0.0010
2325.00,0.0013
2324.00,0.0015
2323.00,0.0016
2322.00,0.0015
2321.00,0.0013
2320.00,0.0012
2319.00,0.0010
2318.00,0.0009
2317.00,0.0008
2316.00,0.0007
2315.00,0.0007
2314.00,0.0007
2313.00,0.0007
2312.00,0.0007
2311.00,0.0006
2310.00,0.0005
2309.00,0.0005
2308.00,0.0004
2307.00,0.0003
2306.00,0.0003
2305.00,0.0003
2304.00,0.0004
2303.00,0.0005
2302.00,0.0006
2301.00,0.0007
2300.00,0.0007
2299.00,0.0008
2298.00,0.0008
2297.00,0.0008
2296.00,0.0008
2295.00,0.0009
2294.00,0.0010
2293.00,0.0011
2292.00,0.0012
2291.00,0.0012
2290.00,0.0013
2289.00,0.0013
2288.00,0.0014
2287.00,0.0014
2286.00,0.0014
2285.00,0.0014
2284.00,0.0013
2283.00,0.0013
2282.00,0.0014
2281.00,0.0014
2280.00,0.0014
2279.00,0.0014
2278.00,0.0013
2277.00,0.0013
2276.00,0.0012
2275.00,0.0012
2274.00,0.0012
2273.00,0.0012
2272.00,0.0012
2271.00,0.0012
2270.00,0.0012
2269.00,0.0012
2268.00,0.0011
2267.00,0.0010
2266.00,0.0008
2265.00,0.0008
2264.00,0.0008
2263.00,0.0008
2262.00,0.0009
2261.00,0.0010
2260.00,0.0010
2259.00,0.0010
2258.00,0.0011
2257.00,0.0011
2256.00,0.0010
2255.00,0.0009
2254.00,0.0009
2253.00,0.0008
2252.00,0.0008
2251.00,0.0008
2250.00,0.0007
2249.00,0.0006
2248.00,0.0005
2247.00,0.0005
2246.00,0.0005
2245.00,0.0006
2244.00,0.0007
2243.00,0.0007
2242.00,0.0007
2241.00,0.0007
2240.00,0.0007
2239.00,0.0009
2238.00,0.0010
2237.00,0.0009
2236.00,0.0009
2235.00,0.0008
2234.00,0.0007
2233.00,0.0006
2232.00,0.0006
2231.00,0.0005
2230.00,0.0004
2229.00,0.0005
2228.00,0.0005
2227.00,0.0004
2226.00,0.0004
2225.00,0.0005
2224.00,0.0006
2223.00,0.0007
2222.00,0.0007
2221.00,0.0006
2220.00,0.0004
2219.00,0.0003
2218.00,0.0002
2217.00,0.0002
2216.00,0.0003
2215.00,0.0004
2214.00,0.0005
2213.00,0.0007
2212.00,0.0008
2211.00,0.0008
2210.00,0.0007
2209.00,0.0006
2208.00,0.0005
2207.00,0.0005
2206.00,0.0004
2205.00,0.0003
2204.00,0.0002
2203.00,0.0003
2202.00,0.0003
2201.00,0.0004
2200.00,0.0005
2199.00,0.0005
2198.00,0.0004
2197.00,0.0003
2196.00,0.0003
2195.00,0.0003
2194.00,0.0004
2193.00,0.0006
2192.00,0.0008
2191.00,0.0008
2190.00,0.0009
2189.00,0.0008
2188.00,0.0008
2187.00,0.0007
2186.00,0.0006
2185.00,0.0007
2184.00,0.0006
2183.00,0.0005
2182.00,0.0004
2181.00,0.0003
2180.00,0.0003
2179.00,0.0004
2178.00,0.0004
2177.00,0.0003
2176.00,0.0002
2175.00,0.0002
2174.00,0.0003
2173.00,0.0004
2172.00,0.0004
2171.00,0.0005
2170.00,0.0008
2169.00,0.0012
2168.00,0.0014
2167.00,0.0012
2166.00,0.0008
2165.00,0.0006
2164.00,0.0007
2163.00,0.0010
2162.00,0.0014
2161.00,0.0013
2160.00,0.0006
2159.00,-0.0006
2158.00,-0.0018
2157.00,-0.0023
2156.00,-0.0022
2155.00,-0.0018
2154.00,-0.0014
2153.00,-0.0012
2152.00,-0.0011
2151.00,-0.0011
2150.00,-0.0012
2149.00,-0.0013
2148.00,-0.0014
2147.00,-0.0015
2146.00,-0.0015
2145.00,-0.0014
2144.00,-0.0013
2143.00,-0.0012
2142.00,-0.0012
2141.00,-0.0012
2140.00,-0.0012
2139.00,-0.0012
2138.00,-0.0011
2137.00,-0.0012
2136.00,-0.0013
2135.00,-0.0015
2134.00,-0.0016
2133.00,-0.0015
2132.00,-0.0012
2131.00,-0.0010
2130.00,-0.0009
2129.00,-0.0007
2128.00,-0.0007
2127.00,-0.0006
2126.00,-0.0005
2125.00,-0.0004
2124.00,-0.0003
2123.00,-0.0003
2122.00,-0.0002
2121.00,-0.0002
2120.00,-0.0002
2119.00,-0.0002
2118.00,-0.0002
2117.00,0.0000
2116.00,0.0002
2115.00,0.0003
2114.00,0.0004
2113.00,0.0004
2112.00,0.0004
2111.00,0.0003
2110.00,0.0003
2109.00,0.0003
2108.00,0.0002
2107.00,0.0002
2106.00,0.0001
2105.00,0.0001
2104.00,0.0001
2103.00,0.0001
2102.00,0.0002
2101.00,0.0002
2100.00,0.0002
2099.00,0.0001
2098.00,-0.0000
2097.00,-0.0002
2096.00,-0.0003
2095.00,-0.0003
2094.00,-0.0003
2093.00,-0.0002
2092.00,-0.0001
2091.00,-0.0001
2090.00,-0.0001
2089.00,0.0000
2088.00,0.0002
2087.00,0.0004
2086.00,0.0005
2085.00,0.0004
2084.00,0.0003
2083.00,0.0002
2082.00,0.0002
2081.00,0.0002
2080.00,0.0003
2079.00,0.0005
2078.00,0.0005
2077.00,0.0004
2076.00,0.0002
2075.00,0.0001
2074.00,0.0000
2073.00,-0.0001
2072.00,-0.0002
2071.00,-0.0004
2070.00,-0.0004
2069.00,-0.0004
2068.00,-0.0002
2067.00,0.0000
2066.00,0.0002
2065.00,0.0004
2064.00,0.0003
2063.00,0.0000
2062.00,-0.0002
2061.00,-0.0002
2060.00,-0.0000
2059.00,0.0001
2058.00,0.0001
2057.00,0.0000
2056.00,-0.0001
2055.00,-0.0002
2054.00,-0.0000
2053.00,0.0004
2052.00,0.0010
2051.00,0.0013
2050.00,0.0013
2049.00,0.0010
2048.00,0.0007
2047.00,0.0003
2046.00,-0.0001
2045.00,-0.0004
2044.00,-0.0005
2043.00,-0.0005
2042.00,-0.0005
2041.00,-0.0003
2040.00,-0.0000
2039.00,0.0003
2038.00,0.0004
2037.00,0.0005
2036.00,0.0005
2035.00,0.0004
2034.00,0.0001
2033.00,-0.0002
2032.00,-0.0005
2031.00,-0.0009
2030.00,-0.0012
2029.00,-0.0013
2028.00,-0.0012
2027.00,-0.0010
2026.00,-0.0010
2025.00,-0.0011
2024.00,-0.0012
2023.00,-0.0012
2022.00,-0.0012
2021.00,-0.0012
2020.00,-0.0012
2019.00,-0.0012
2018.00,-0.0011
2017.00,-0.0010
2016.00,-0.0009
2015.00,-0.0009
2014.00,-0.0009
2013.00,-0.0009
2012.00,-0.0009
2011.00,-0.0008
2010.00,-0.0007
2009.00,-0.0007
2008.00,-0.0009
2007.00,-0.0013
2006.00,-0.0016
2005.00,-0.0015
2004.00,-0.0012
2003.00,-0.0009
2002.00,-0.0008
2001.00,-0.0008
2000.00,-0.0010
1999.00,-0.0010
1998.00,-0.0010
1997.00,-0.0010
1996.00,-0.0010
1995.00,-0.0011
1994.00,-0.0012
1993.00,-0.0012
1992.00,-0.0011
1991.00,-0.0008
1990.00,-0.0006
1989.00,-0.0003
1988.00,-0.0001
1987.00,0.0000
1986.00,0.0002
1985.00,0.0003
1984.00,0.0004
1983.00,0.0004
1982.00,0.0005
1981.00,0.0004
1980.00,0.0002
1979.00,-0.0002
1978.00,-0.0007
1977.00,-0.0010
1976.00,-0.0010
1975.00,-0.0008
1974.00,-0.0007
1973.00,-0.0008
1972.00,-0.0010
1971.00,-0.0012
1970.00,-0.0013
1969.00,-0.0014
1968.00,-0.0014
1967.00,-0.0014
1966.00,-0.0015
1965.00,-0.0016
1964.00,-0.0016
1963.00,-0.0015
1962.00,-0.0014
1961.00,-0.0014
1960.00,-0.0014
1959.00,-0.0013
1958.00,-0.0013
1957.00,-0.0012
1956.00,-0.0013
1955.00,-0.0014
1954.00,-0.0014
1953.00,-0.0013
1952.00,-0.0012
1951.00,-0.0012
1950.00,-0.0012
1949.00,-0.0012
1948.00,-0.0012
1947.00,-0.0013
1946.00,-0.0014
1945.00,-0.0015
1944.00,-0.0014
1943.00,-0.0013
1942.00,-0.0012
1941.00,-0.0013
1940.00,-0.0013
1939.00,-0.0014
1938.00,-0.0013
1937.00,-0.0012
1936.00,-0.0011
1935.00,-0.0010
1934.00,-0.0009
1933.00,-0.0009
1932.00,-0.0009
1931.00,-0.0010
1930.00,-0.0011
1929.00,-0.0010
1928.00,-0.0008
1927.00,-0.0006
1926.00,-0.0004
1925.00,-0.0003
1924.00,-0.0002
1923.00,-0.0003
1922.00,-0.0003
1921.00,-0.0004
1920.00,-0.0004
1919.00,-0.0005
1918.00,-0.0004
1917.00,-0.0003
1916.00,-0.0002
1915.00,-0.0002
1914.00,-0.0003
1913.00,-0.0003
1912.00,-0.0002
1911.00,-0.0001
1910.00,-0.0001
1909.00,-0.0001
1908.00,-0.0000
1907.00,-0.0001
1906.00,-0.0001
1905.00,-0.0002
1904.00,-0.0002
1903.00,-0.0002
1902.00,-0.0001
1901.00,-0.0000
1900.00,0.0000
1899.00,0.0000
1898.00,-0.0000
1897.00,-0.0001
1896.00,-0.0002
1895.00,-0.0003
1894.00,-0.0004
1893.00,-0.0004
1892.00,-0.0005
1891.00,-0.0005
1890.00,-0.0004
1889.00,-0.0003
1888.00,-0.0001
1887.00,-0.0000
1886.00,-0.0000
1885.00,-0.0001
1884.00,-0.0002
1883.00,-0.0003
1882.00,-0.0004
1881.00,-0.0003
1880.00,-0.0002
1879.00,-0.0002
1878.00,-0.0001
1877.00,-0.0001
1876.00,-0.0001
1875.00,-0.0001
1874.00,-0.0000
1873.00,0.0001
1872.00,0.0001
1871.00,0.0001
1870.00,0.0001
1869.00,0.0001
1868.00,0.0000
1867.00,-0.0000
1866.00,-0.0001
1865.00,-0.0001
1864.00,-0.0001
1863.00,-0.0001
1862.00,-0.0001
1861.00,-0.0001
1860.00,-0.0001
1859.00,-0.0000
1858.00,0.0001
1857.00,0.0001
1856.00,0.0000
1855.00,-0.0000
1854.00,-0.0001
1853.00,-0.0000
1852.00,0.0000
1851.00,0.0000
1850.00,0.0000
1849.00,0.0000
1848.00,0.0000
1847.00,0.0000
1846.00,-0.0000
1845.00,-0.0000
1844.00,0.0000
1843.00,0.0001
1842.00,0.0001
1841.00,0.0001
1840.00,0.0001
1839.00,0.0001
1838.00,0.0001
1837.00,0.0001
1836.00,0.0002
1835.00,0.0003
1834.00,0.0002
1833.00,0.0002
1832.00,0.0001
1831.00,0.0001
1830.00,0.0001
1829.00,0.0001
1828.00,0.0002
1827.00,0.0003
1826.00,0.0003
1825.00,0.0003
1824.00,0.0003
1823.00,0.0003
1822.00,0.0003
1821.00,0.0003
1820.00,0.0002
1819.00,0.0001
1818.00,-0.0000
1817.00,-0.0001
1816.00,-0.0000
1815.00,0.0001
1814.00,0.0002
1813.00,0.0002
1812.00,0.0003
1811.00,0.0003
1810.00,0.0003
1809.00,0.0003
1808.00,0.0003
1807.00,0.0003
1806.00,0.0004
1805.00,0.0004
1804.00,0.0004
1803.00,0.0004
1802.00,0.0004
1801.00,0.0004
1800.00,0.0004
1799.00,0.0004
1798.00,0.0004
1797.00,0.0005
1796.00,0.0006
1795.00,0.0007
1794.00,0.0007
1793.00,0.0007
1792.00,0.0007
1791.00,0.0006
1790.00,0.0006
1789.00,0.0006
1788.00,0.0006
1787.00,0.0007
1786.00,0.0007
1785.00,0.0007
1784.00,0.0007
1783.00,0.0007
1782.00,0.0006
1781.00,0.0006
1780.00,0.0006
1779.00,0.0006
1778.00,0.0005
1777.00,0.0005
1776.00,0.0005
1775.00,0.0005
1774.00,0.0005
1773.00,0.0006
1772.00,0.0007
1771.00,0.0008
1770.00,0.0008
1769.00,0.0008
1768.00,0.0008
1767.00,0.0008
1766.00,0.0008
1765.00,0.0008
1764.00,0.0008
1763.00,0.0009
1762.00,0.0009
1761.00,0.0009
1760.00,0.0009
1759.00,0.0009
1758.00,0.0010
1757.00,0.0010
1756.00,0.0010
1755.00,0.0011
1754.00,0.0011
1753.00,0.0012
1752.00,0.0013
1751.00,0.0014
1750.00,0.0015
1749.00,0.0016
1748.00,0.0016
1747.00,0.0016
1746.00,0.0017
1745.00,0.0018
1744.00,0.0018
1743.00,0.0019
1742.00,0.0020
1741.00,0.0020
1740.00,0.0021
1739.00,0.0022
1738.00,0.0022
1737.00,0.0022
1736.00,0.0022
1735.00,0.0022
1734.00,0.0022
1733.00,0.0022
1732.00,0.0023
1731.00,0.0023
1730.00,0.0023
1729.00,0.0022
1728.00,0.0022
1727.00,0.0022
1726.00,0.0022
1725.00,0.0022
1724.00,0.0023
1723.00,0.0023
1722.00,0.0023
1721.00,0.0023
1720.00,0.0022
1719.00,0.0022
1718.00,0.0022
1717.00,0.0022
1716.00,0.0022
1715.00,0.0021
1714.00,0.0021
1713.00,0.0020
1712.00,0.0020
1711.00,0.0020
1710.00,0.0019
1709.00,0.0019
1708.00,0.0019
1707.00,0.0019
1706.00,0.0019
1705.00,0.0019
1704.00,0.0020
1703.00,0.0020
1702.00,0.0020
1701.00,0.0020
1700.00,0.0021
1699.00,0.0021
1698.00,0.0022
1697.00,0.0022
1696.00,0.0023
1695.00,0.0023
1694.00,0.0023
1693.00,0.0024
1692.00,0.0024
1691.00,0.0024
1690.00,0.0025
1689.00,0.0025
1688.00,0.0025
1687.00,0.0026
1686.00,0.0026
1685.00,0.0027
1684.00,0.0028
1683.00,0.0029
1682.00,0.0029
1681.00,0.0029
1680.00,0.0030
1679.00,0.0030
1678.00,0.0031
1677.00,0.0032
1676.00,0.0033
1675.00,0.0034
1674.00,0.0034
1673.00,0.0035
1672.00,0.0035
1671.00,0.0036
1670.00,0.0036
1669.00,0.0036
1668.00,0.0036
1667.00,0.0036
1666.00,0.0036
1665.00,0.0037
1664.00,0.0037
1663.00,0.0037
1662.00,0.0037
1661.00,0.0038
1660.00,0.0038
1659.00,0.0038
1658.00,0.0038
1657.00,0.0038
1656.00,0.0039
1655.00,0.0040
1654.00,0.0040
1653.00,0.0040
1652.00,0.0041
1651.00,0.0042
1650.00,0.0042
1649.00,0.0042
1648.00,0.0042
1647.00,0.0043
1646.00,0.0043
1645.00,0.0044
1644.00,0.0045
1643.00,0.0045
1642.00,0.0046
1641.00,0.0046
1640.00,0.0048
1639.00,0.0049
1638.00,0.0050
1637.00,0.0050
1636.00,0.0050
1635.00,0.0049
1634.00,0.0048
1633.00,0.0048
1632.00,0.0048
1631.00,0.0048
1630.00,0.0048
1629.00,0.0048
1628.00,0.0048
1627.00,0.0047
1626.00,0.0047
1625.00,0.0046
1624.00,0.0047
1623.00,0.0047
1622.00,0.0046
1621.00,0.0046
1620.00,0.0046
1619.00,0.0045
1618.00,0.0045
1617.00,0.0044
1616.00,0.0044
1615.00,0.0043
1614.00,0.0043
1613.00,0.0043
1612.00,0.0043
1611.00,0.0044
1610.00,0.0044
1609.00,0.0044
1608.00,0.0043
1607.00,0.0043
1606.00,0.0042
1605.00,0.0042
1604.00,0.0043
1603.00,0.0043
1602.00,0.0043
1601.00,0.0043
1600.00,0.0043
1599.00,0.0043
1598.00,0.0043
1597.00,0.0042
1596.00,0.0042
1595.00,0.0042
1594.00,0.0042
1593.00,0.0042
1592.00,0.0042
1591.00,0.0042
1590.00,0.0043
1589.00,0.0043
1588.00,0.0044
1587.00,0.0045
1586.00,0.0047
1585.00,0.0049
1584.00,0.0051
1583.00,0.0054
1582.00,0.0056
1581.00,0.0059
1580.00,0.0061
1579.00,0.0063
1578.00,0.0065
1577.00,0.0066
1576.00,0.0067
1575.00,0.0066
1574.00,0.0065
1573.00,0.0064
1572.00,0.0063
1571.00,0.0061
1570.00,0.0058
1569.00,0.0057
1568.00,0.0056
1567.00,0.0055
1566.00,0.0054
1565.00,0.0054
1564.00,0.0054
1563.00,0.0053
1562.00,0.0053
1561.00,0.0053
1560.00,0.0054
1559.00,0.0053
1558.00,0.0053
1557.00,0.0054
1556.00,0.0054
1555.00,0.0054
1554.00,0.0054
1553.00,0.0055
1552.00,0.0055
1551.00,0.0057
1550.00,0.0058
1549.00,0.0060
1548.00,0.0062
1547.00,0.0063
1546.00,0.0065
1545.00,0.0067
1544.00,0.0069
1543.00,0.0072
1542.00,0.0074
1541.00,0.0077
1540.00,0.0077
1539.00,0.0075
1538.00,0.0073
1537.00,0.0071
1536.00,0.0069
1535.00,0.0066
1534.00,0.0062
1533.00,0.0058
1532.00,0.0056
1531.00,0.0054
1530.00,0.0053
1529.00,0.0053
1528.00,0.0052
1527.00,0.0052
1526.00,0.0051
1525.00,0.0051
1524.00,0.0050
1523.00,0.0049
1522.00,0.0048
1521.00,0.0049
1520.00,0.0050
1519.00,0.0050
1518.00,0.0050
1517.00,0.0050
1516.00,0.0051
1515.00,0.0051
1514.00,0.0052
1513.00,0.0052
1512.00,0.0053
1511.00,0.0053
1510.00,0.0053
1509.00,0.0054
1508.00,0.0056
1507.00,0.0057
1506.00,0.0057
1505.00,0.0058
1504.00,0.0059
1503.00,0.0060
1502.00,0.0062
1501.00,0.0064
1500.00,0.0066
1499.00,0.0069
1498.00,0.0071
1497.00,0.0075
1496.00,0.0078
1495.00,0.0082
1494.00,0.0085
1493.00,0.0088
1492.00,0.0092
1491.00,0.0095
1490.00,0.0099
1489.00,0.0104
1488.00,0.0108
1487.00,0.0112
1486.00,0.0116
1485.00,0.0122
1484.00,0.0128
1483.00,0.0135
1482.00,0.0143
1481.00,0.0154
1480.00,0.0165
1479.00,0.0176
1478.00,0.0189
1477.00,0.0205
1476.00,0.0225
1475.00,0.0248
1474.00,0.0279
1473.00,0.0322
1472.00,0.0372
1471.00,0.0420
1470.00,0.0468
1469.00,0.0518
1468.00,0.0572
1467.00,0.0631
1466.00,0.0697
1465.00,0.0767
1464.00,0.0827
1463.00,0.0868
1462.00,0.0894
1461.00,0.0911
1460.00,0.0923
1459.00,0.0929
1458.00,0.0933
1457.00,0.0935
1456.00,0.0932
1455.00,0.0924
1454.00,0.0914
1453.00,0.0901
1452.00,0.0882
1451.00,0.0855
1450.00,0.0819
1449.00,0.0768
1448.00,0.0702
1447.00,0.0630
1446.00,0.0565
1445.00,0.0508
1444.00,0.0460
1443.00,0.0420
1442.00,0.0390
1441.00,0.0369
1440.00,0.0357
1439.00,0.0352
1438.00,0.0353
1437.00,0.0355
1436.00,0.0349
1435.00,0.0331
1434.00,0.0304
1433.00,0.0271
1432.00,0.0237
1431.00,0.0206
1430.00,0.0183
1429.00,0.0165
1428.00,0.0153
1427.00,0.0145
1426.00,0.0141
1425.00,0.0136
1424.00,0.0132
1423.00,0.0129
1422.00,0.0127
1421.00,0.0125
1420.00,0.0122
1419.00,0.0119
1418.00,0.0117
1417.00,0.0114
1416.00,0.0112
1415.00,0.0111
1414.00,0.0110
1413.00,0.0108
1412.00,0.0106
1411.00,0.0104
1410.00,0.0103
1409.00,0.0102
1408.00,0.0100
1407.00,0.0100
1406.00,0.0100
1405.00,0.0100
1404.00,0.0100
1403.00,0.0100
1402.00,0.0101
1401.00,0.0101
1400.00,0.0101
1399.00,0.0102
1398.00,0.0103
1397.00,0.0104
1396.00,0.0106
1395.00,0.0108
1394.00,0.0112
1393.00,0.0115
1392.00,0.0119
1391.00,0.0124
1390.00,0.0132
1389.00,0.0142
1388.00,0.0157
1387.00,0.0179
1386.00,0.0210
1385.00,0.0251
1384.00,0.0307
1383.00,0.0387
1382.00,0.0494
1381.00,0.0633
1380.00,0.0808
1379.00,0.1014
1378.00,0.1220
1377.00,0.1380
1376.00,0.1447
1375.00,0.1391
1374.00,0.1228
1373.00,0.1021
1372.00,0.0826
1371.00,0.0663
1370.00,0.0532
1369.00,0.0433
1368.00,0.0366
1367.00,0.0324
1366.00,0.0302
1365.00,0.0294
1364.00,0.0296
1363.00,0.0306
1362.00,0.0323
1361.00,0.0340
1360.00,0.0354
1359.00,0.0358
1358.00,0.0350
1357.00,0.0331
1356.00,0.0303
1355.00,0.0271
1354.00,0.0240
1353.00,0.0214
1352.00,0.0193
1351.00,0.0177
1350.00,0.0163
1349.00,0.0152
1348.00,0.0143
1347.00,0.0135
1346.00,0.0127
1345.00,0.0121
1344.00,0.0116
1343.00,0.0112
1342.00,0.0109
1341.00,0.0106
1340.00,0.0104
1339.00,0.0103
1338.00,0.0101
1337.00,0.0100
1336.00,0.0100
1335.00,0.0101
1334.00,0.0103
1333.00,0.0106
1332.00,0.0109
1331.00,0.0112
1330.00,0.0113
1329.00,0.0112
1328.00,0.0110
1327.00,0.0107
1326.00,0.0102
1325.00,0.0098
1324.00,0.0094
1323.00,0.0090
1322.00,0.0087
1321.00,0.0085
1320.00,0.0083
1319.00,0.0082
1318.00,0.0081
1317.00,0.0080
1316.00,0.0079
1315.00,0.0078
1314.00,0.0077
1313.00,0.0077
1312.00,0.0078
1311.00,0.0080
1310.00,0.0083
1309.00,0.0088
1308.00,0.0094
1307.00,0.0103
1306.00,0.0111
1305.00,0.0116
1304.00,0.0118
1303.00,0.0115
1302.00,0.0112
1301.00,0.0108
1300.00,0.0107
1299.00,0.0106
1298.00,0.0107
1297.00,0.0107
1296.00,0.0106
1295.00,0.0104
1294.00,0.0101
1293.00,0.0097
1292.00,0.0093
1291.00,0.0089
1290.00,0.0086
1289.00,0.0084
1288.00,0.0082
1287.00,0.0080
1286.00,0.0079
1285.00,0.0077
1284.00,0.0076
1283.00,0.0074
1282.00,0.0074
1281.00,0.0073
1280.00,0.0073
1279.00,0.0072
1278.00,0.0072
1277.00,0.0071
1276.00,0.0070
1275.00,0.0070
1274.00,0.0070
1273.00,0.0071
1272.00,0.0072
1271.00,0.0074
1270.00,0.0076
1269.00,0.0078
1268.00,0.0081
1267.00,0.0083
1266.00,0.0087
1265.00,0.0090
1264.00,0.0093
1263.00,0.0095
1262.00,0.0098
1261.00,0.0101
1260.00,0.0104
1259.00,0.0107
1258.00,0.0111
1257.00,0.0113
1256.00,0.0114
1255.00,0.0111
1254.00,0.0106
1253.00,0.0100
1252.00,0.0093
1251.00,0.0087
1250.00,0.0083
1249.00,0.0080
1248.00,0.0077
1247.00,0.0076
1246.00,0.0074
1245.00,0.0074
1244.00,0.0073
1243.00,0.0073
1242.00,0.0072
1241.00,0.0071
1240.00,0.0070
1239.00,0.0070
1238.00,0.0069
1237.00,0.0069
1236.00,0.0069
1235.00,0.0070
1234.00,0.0070
1233.00,0.0071
1232.00,0.0071
1231.00,0.0071
1230.00,0.0072
1229.00,0.0073
1228.00,0.0074
1227.00,0.0075
1226.00,0.0077
1225.00,0.0079
1224.00,0.0081
1223.00,0.0084
1222.00,0.0087
1221.00,0.0089
1220.00,0.0091
1219.00,0.0091
1218.00,0.0090
1217.00,0.0088
1216.00,0.0086
1215.00,0.0084
1214.00,0.0082
1213.00,0.0080
1212.00,0.0078
1211.00,0.0076
1210.00,0.0075
1209.00,0.0074
1208.00,0.0073
1207.00,0.0072
1206.00,0.0072
1205.00,0.0071
1204.00,0.0071
1203.00,0.0071
1202.00,0.0071
1201.00,0.0071
1200.00,0.0071
1199.00,0.0072
1198.00,0.0072
1197.00,0.0072
1196.00,0.0072
1195.00,0.0072
1194.00,0.0072
1193.00,0.0072
1192.00,0.0072
1191.00,0.0072
1190.00,0.0072
1189.00,0.0072
1188.00,0.0073
1187.00,0.0073
1186.00,0.0074
1185.00,0.0074
1184.00,0.0075
1183.00,0.0076
1182.00,0.0077
1181.00,0.0078
1180.00,0.0081
1179.00,0.0084
1178.00,0.0089
1177.00,0.0095
1176.00,0.0103
1175.00,0.0113
1174.00,0.0127
1173.00,0.0145
1172.00,0.0167
1171.00,0.0191
1170.00,0.0215
1169.00,0.0235
1168.00,0.0247
1167.00,0.0249
1166.00,0.0243
1165.00,0.0232
1164.00,0.0219
1163.00,0.0206
1162.00,0.0195
1161.00,0.0185
1160.00,0.0178
1159.00,0.0173
1158.00,0.0170
1157.00,0.0168
1156.00,0.0166
1155.00,0.0165
1154.00,0.0165
1153.00,0.0163
1152.00,0.0160
1151.00,0.0155
1150.00,0.0149
1149.00,0.0141
1148.00,0.0133
1147.00,0.0125
1146.00,0.0118
1145.00,0.0112
1144.00,0.0107
1143.00,0.0102
1142.00,0.0098
1141.00,0.0095
1140.00,0.0091
1139.00,0.0089
1138.00,0.0086
1137.00,0.0084
1136.00,0.0082
1135.00,0.0080
1134.00,0.0079
1133.00,0.0079
1132.00,0.0078
1131.00,0.0079
1130.00,0.0079
1129.00,0.0080
1128.00,0.0081
1127.00,0.0082
1126.00,0.0083
1125.00,0.0083
1124.00,0.0084
1123.00,0.0084
1122.00,0.0085
1121.00,0.0086
1120.00,0.0087
1119.00,0.0089
1118.00,0.0090
1117.00,0.0092
1116.00,0.0093
1115.00,0.0094
1114.00,0.0095
1113.00,0.0096
1112.00,0.0097
1111.00,0.0099
1110.00,0.0101
1109.00,0.0104
1108.00,0.0108
1107.00,0.0113
1106.00,0.0118
1105.00,0.0123
1104.00,0.0126
1103.00,0.0127
1102.00,0.0126
1101.00,0.0123
1100.00,0.0119
1099.00,0.0115
1098.00,0.0110
1097.00,0.0106
1096.00,0.0103
1095.00,0.0101
1094.00,0.0098
1093.00,0.0097
1092.00,0.0095
1091.00,0.0093
1090.00,0.0091
1089.00,0.0089
1088.00,0.0088
1087.00,0.0087
1086.00,0.0086
1085.00,0.0086
1084.00,0.0086
1083.00,0.0087
1082.00,0.0086
1081.00,0.0086
1080.00,0.0085
1079.00,0.0083
1078.00,0.0082
1077.00,0.0081
1076.00,0.0081
1075.00,0.0082
1074.00,0.0083
1073.00,0.0083
1072.00,0.0083
1071.00,0.0082
1070.00,0.0081
1069.00,0.0081
1068.00,0.0080
1067.00,0.0080
1066.00,0.0081
1065.00,0.0081
1064.00,0.0082
1063.00,0.0082
1062.00,0.0083
1061.00,0.0084
1060.00,0.0085
1059.00,0.0086
1058.00,0.0087
1057.00,0.0088
1056.00,0.0089
1055.00,0.0090
1054.00,0.0091
1053.00,0.0092
1052.00,0.0094
1051.00,0.0096
1050.00,0.0099
1049.00,0.0103
1048.00,0.0108
1047.00,0.0112
1046.00,0.0115
1045.00,0.0116
1044.00,0.0117
1043.00,0.0116
1042.00,0.0114
1041.00,0.0113
1040.00,0.0112
1039.00,0.0112
1038.00,0.0113
1037.00,0.0113
1036.00,0.0113
1035.00,0.0113
1034.00,0.0113
1033.00,0.0112
1032.00,0.0111
1031.00,0.0110
1030.00,0.0111
1029.00,0.0111
1028.00,0.0111
1027.00,0.0111
1026.00,0.0112
1025.00,0.0113
1024.00,0.0114
1023.00,0.0116
1022.00,0.0118
1021.00,0.0119
1020.00,0.0120
1019.00,0.0121
1018.00,0.0122
1017.00,0.0122
1016.00,0.0122
1015.00,0.0122
1014.00,0.0121
1013.00,0.0121
1012.00,0.0121
1011.00,0.0121
1010.00,0.0121
1009.00,0.0122
1008.00,0.0123
1007.00,0.0126
1006.00,0.0131
1005.00,0.0138
1004.00,0.0150
1003.00,0.0166
1002.00,0.0187
1001.00,0.0215
1000.00,0.0244
999.00,0.0268
998.00,0.0280
997.00,0.0275
996.00,0.0253
995.00,0.0223
994.00,0.0191
993.00,0.0164
992.00,0.0143
991.00,0.0128
990.00,0.0119
989.00,0.0113
988.00,0.0109
987.00,0.0106
986.00,0.0104
985.00,0.0104
984.00,0.0106
983.00,0.0110
982.00,0.0118
981.00,0.0129
980.00,0.0146
979.00,0.0168
978.00,0.0195
977.00,0.0226
976.00,0.0259
975.00,0.0291
974.00,0.0316
973.00,0.0325
972.00,0.0315
971.00,0.0286
970.00,0.0248
969.00,0.0209
968.00,0.0175
967.00,0.0149
966.00,0.0131
965.00,0.0118
964.00,0.0109
963.00,0.0102
962.00,0.0097
961.00,0.0093
960.00,0.0089
959.00,0.0087
958.00,0.0084
957.00,0.0082
956.00,0.0080
955.00,0.0078
954.00,0.0076
953.00,0.0075
952.00,0.0074
951.00,0.0073
950.00,0.0073
949.00,0.0073
948.00,0.0073
947.00,0.0074
946.00,0.0075
945.00,0.0077
944.00,0.0079
943.00,0.0081
942.00,0.0084
941.00,0.0086
940.00,0.0086
939.00,0.0084
938.00,0.0080
937.00,0.0075
936.00,0.0071
935.00,0.0068
934.00,0.0065
933.00,0.0063
932.00,0.0062
931.00,0.0061
930.00,0.0061
929.00,0.0060
928.00,0.0060
927.00,0.0059
926.00,0.0059
925.00,0.0058
924.00,0.0058
923.00,0.0058
922.00,0.0059
921.00,0.0059
920.00,0.0059
919.00,0.0058
918.00,0.0058
917.00,0.0058
916.00,0.0058
915.00,0.0060
914.00,0.0061
913.00,0.0062
912.00,0.0062
911.00,0.0064
910.00,0.0065
909.00,0.0068
908.00,0.0070
907.00,0.0074
906.00,0.0079
905.00,0.0087
904.00,0.0098
903.00,0.0112
902.00,0.0128
901.00,0.0143
900.00,0.0154
899.00,0.0156
898.00,0.0150
897.00,0.0137
896.00,0.0121
895.00,0.0107
894.00,0.0096
893.00,0.0088
892.00,0.0082
891.00,0.0078
890.00,0.0075
889.00,0.0072
888.00,0.0071
887.00,0.0070
886.00,0.0070
885.00,0.0070
884.00,0.0071
883.00,0.0071
882.00,0.0072
881.00,0.0072
880.00,0.0072
879.00,0.0073
878.00,0.0074
877.00,0.0075
876.00,0.0076
875.00,0.0077
874.00,0.0077
873.00,0.0077
872.00,0.0076
871.00,0.0074
870.00,0.0074
869.00,0.0073
868.00,0.0072
867.00,0.0072
866.00,0.0072
865.00,0.0072
864.00,0.0072
863.00,0.0073
862.00,0.0074
861.00,0.0074
860.00,0.0075
859.00,0.0076
858.00,0.0077
857.00,0.0078
856.00,0.0080
855.00,0.0081
854.00,0.0083
853.00,0.0084
852.00,0.0084
851.00,0.0086
850.00,0.0090
849.00,0.0095
848.00,0.0103
847.00,0.0114
846.00,0.0129
845.00,0.0152
844.00,0.0185
843.00,0.0224
842.00,0.0259
841.00,0.0273
840.00,0.0258
839.00,0.0223
838.00,0.0182
837.00,0.0149
836.00,0.0126
835.00,0.0114
834.00,0.0107
833.00,0.0102
832.00,0.0099
831.00,0.0097
830.00,0.0095
829.00,0.0094
828.00,0.0093
827.00,0.0092
826.00,0.0092
825.00,0.0092
824.00,0.0093
823.00,0.0094
822.00,0.0095
821.00,0.0096
820.00,0.0099
819.00,0.0102
818.00,0.0106
817.00,0.0112
816.00,0.0119
815.00,0.0128
814.00,0.0139
813.00,0.0153
812.00,0.0168
811.00,0.0183
810.00,0.0194
809.00,0.0200
808.00,0.0197
807.00,0.0187
806.00,0.0171
805.00,0.0155
804.00,0.0141
803.00,0.0131
802.00,0.0123
801.00,0.0118
800.00,0.0113
799.00,0.0109
798.00,0.0106
797.00,0.0104
796.00,0.0102
795.00,0.0099
794.00,0.0096
793.00,0.0092
792.00,0.0089
791.00,0.0086
790.00,0.0082
789.00,0.0078
788.00,0.0075
787.00,0.0074
786.00,0.0073
785.00,0.0072
784.00,0.0070
783.00,0.0068
782.00,0.0067
781.00,0.0067
780.00,0.0067
779.00,0.0066
778.00,0.0065
777.00,0.0065
776.00,0.0065
775.00,0.0065
774.00,0.0066
773.00,0.0066
772.00,0.0065
771.00,0.0064
770.00,0.0063
769.00,0.0064
768.00,0.0064
767.00,0.0065
766.00,0.0065
765.00,0.0065
764.00,0.0066
763.00,0.0067
762.00,0.0066
761.00,0.0064
760.00,0.0063
759.00,0.0063
758.00,0.0065
757.00,0.0067
756.00,0.0070
755.00,0.0072
754.00,0.0073
753.00,0.0074
752.00,0.0074
751.00,0.0073
750.00,0.0073
749.00,0.0074
748.00,0.0076
747.00,0.0079
746.00,0.0080
745.00,0.0081
744.00,0.0082
743.00,0.0084
742.00,0.0087
741.00,0.0091
740.00,0.0095
739.00,0.0098
738.00,0.0101
737.00,0.0104
736.00,0.0107
735.00,0.0111
734.00,0.0115
733.00,0.0120
732.00,0.0125
731.00,0.0131
730.00,0.0136
729.00,0.0139
728.00,0.0140
727.00,0.0140
726.00,0.0142
725.00,0.0146
724.00,0.0150
723.00,0.0156
722.00,0.0160
721.00,0.0163
720.00,0.0160
719.00,0.0153
718.00,0.0143
717.00,0.0133
716.00,0.0125
715.00,0.0118
714.00,0.0113
713.00,0.0109
712.00,0.0106
711.00,0.0103
710.00,0.0101
709.00,0.0099
708.00,0.0098
707.00,0.0097
706.00,0.0097
705.00,0.0098
704.00,0.0098
703.00,0.0099
702.00,0.0098
701.00,0.0096
700.00,0.0093
699.00,0.0090
698.00,0.0088
697.00,0.0087
696.00,0.0088
695.00,0.0089
694.00,0.0089
693.00,0.0089
692.00,0.0088
691.00,0.0088
690.00,0.0089
689.00,0.0090
688.00,0.0090
687.00,0.0089
686.00,0.0089
685.00,0.0089
684.00,0.0091
683.00,0.0093
682.00,0.0094
681.00,0.0095
680.00,0.0096
679.00,0.0096
678.00,0.0096
677.00,0.0097
676.00,0.0098
675.00,0.0098
674.00,0.0098
673.00,0.0097
672.00,0.0097
671.00,0.0098
670.00,0.0101
669.00,0.0104
668.00,0.0104
667.00,0.0102
666.00,0.0097
665.00,0.0094
664.00,0.0092
663.00,0.0091
662.00,0.0091
661.00,0.0090
660.00,0.0089
659.00,0.0088
658.00,0.0086
657.00,0.0085
656.00,0.0084
655.00,0.0085
654.00,0.0086
653.00,0.0087
652.00,0.0087
651.00,0.0085
650.00,0.0082
649.00,0.0081
648.00,0.0081
647.00,0.0082
646.00,0.0083
645.00,0.0082
644.00,0.0081
643.00,0.0080
642.00,0.0080
641.00,0.0080
640.00,0.0081
639.00,0.0082
638.00,0.0082
637.00,0.0082
636.00,0.0082
635.00,0.0082
634.00,0.0083
633.00,0.0084
632.00,0.0085
631.00,0.0085
630.00,0.0085
629.00,0.0085
628.00,0.0085
627.00,0.0085
626.00,0.0086
625.00,0.0087
624.00,0.0088
623.00,0.0090
622.00,0.0089
621.00,0.0086
620.00,0.0083
619.00,0.0081
618.00,0.0082
617.00,0.0084
616.00,0.0083
615.00,0.0081
614.00,0.0078
613.00,0.0077
612.00,0.0078
611.00,0.0079
610.00,0.0079
609.00,0.0079
608.00,0.0078
607.00,0.0079
606.00,0.0081
605.00,0.0083
604.00,0.0083
603.00,0.0081
602.00,0.0078
601.00,0.0076
600.00,0.0075
599.00,0.0076
598.00,0.0079
597.00,0.0080
596.00,0.0080
595.00,0.0078
594.00,0.0076
593.00,0.0075
592.00,0.0076
591.00,0.0078
590.00,0.0080
589.00,0.0082
588.00,0.0083
587.00,0.0084
586.00,0.0083
585.00,0.0082
584.00,0.0082
583.00,0.0083
582.00,0.0083
581.00,0.0084
580.00,0.0085
579.00,0.0085
578.00,0.0083
577.00,0.0081
576.00,0.0079
575.00,0.0079
574.00,0.0080
573.00,0.0079
572.00,0.0077
571.00,0.0076
570.00,0.0077
569.00,0.0079
568.00,0.0082
567.00,0.0085
566.00,0.0086
565.00,0.0086
564.00,0.0086
563.00,0.0086
562.00,0.0086
561.00,0.0087
560.00,0.0086
559.00,0.0083
558.00,0.0079
557.00,0.0077
556.00,0.0078
555.00,0.0080
554.00,0.0082
553.00,0.0082
552.00,0.0082
551.00,0.0082
550.00,0.0081
549.00,0.0079
548.00,0.0075
547.00,0.0073
546.00,0.0073
545.00,0.0077
544.00,0.0080
543.00,0.0083
542.00,0.0084
541.00,0.0086
540.00,0.0091
539.00,0.0098
538.00,0.0103
537.00,0.0105
536.00,0.0105
535.00,0.0104
534.00,0.0105
533.00,0.0105
532.00,0.0105
531.00,0.0105
530.00,0.0104
529.00,0.0104
528.00,0.0105
527.00,0.0104
526.00,0.0099
525.00,0.0094
524.00,0.0089
523.00,0.0085
522.00,0.0081
521.00,0.0078
520.00,0.0079
519.00,0.0085
518.00,0.0093
517.00,0.0098
516.00,0.0097
515.00,0.0090
514.00,0.0082
513.00,0.0078
512.00,0.0079
511.00,0.0083
510.00,0.0085
509.00,0.0085
508.00,0.0086
507.00,0.0087
506.00,0.0087
505.00,0.0086
504.00,0.0085
503.00,0.0084
502.00,0.0084
501.00,0.0085
500.00,0.0086
499.00,0.0087
498.00,0.0086
497.00,0.0085
496.00,0.0083
495.00,0.0079
494.00,0.0074
493.00,0.0069
492.00,0.0068
491.00,0.0074
490.00,0.0080
489.00,0.0084
488.00,0.0084
487.00,0.0087
486.00,0.0094
485.00,0.0102
484.00,0.0104
483.00,0.0099
482.00,0.0088
481.00,0.0079
480.00,0.0079
479.00,0.0090
478.00,0.0106
477.00,0.0121
476.00,0.0132
475.00,0.0140
474.00,0.0145
473.00,0.0148
472.00,0.0152
471.00,0.0159
470.00,0.0165
469.00,0.0170
468.00,0.0170
467.00,0.0170
466.00,0.0172
465.00,0.0181
464.00,0.0191
463.00,0.0198
462.00,0.0198
461.00,0.0190
460.00,0.0179
459.00,0.0167
458.00,0.0159
457.00,0.0157
456.00,0.0166
455.00,0.0179
454.00,0.0192
453.00,0.0196
452.00,0.0187
451.00,0.0170
450.00,0.0150
