Created as New Dataset,Sample 011 By Administrator Date Thursday, September 04 2025
cm-1,A
4000.00,0.0009
3999.00,0.0009
3998.00,0.0009
3997.00,0.0009
3996.00,0.0009
3995.00,0.0009
3994.00,0.0009
3993.00,0.0009
3992.00,0.0009
3991.00,0.0009
3990.00,0.0009
3989.00,0.0009
3988.00,0.0009
3987.00,0.0008
3986.00,0.0008
3985.00,0.0008
3984.00,0.0008
3983.00,0.0008
3982.00,0.0008
3981.00,0.0007
3980.00,0.0007
3979.00,0.0007
3978.00,0.0007
3977.00,0.0008
3976.00,0.0008
3975.00,0.0008
3974.00,0.0008
3973.00,0.0008
3972.00,0.0008
3971.00,0.0008
3970.00,0.0007
3969.00,0.0007
3968.00,0.0007
3967.00,0.0007
3966.00,0.0007
3965.00,0.0007
3964.00,0.0007
3963.00,0.0007
3962.00,0.0007
3961.00,0.0007
3960.00,0.0007
3959.00,0.0007
3958.00,0.0007
3957.00,0.0007
3956.00,0.0007
3955.00,0.0007
3954.00,0.0008
3953.00,0.0008
3952.00,0.0008
3951.00,0.0007
3950.00,0.0007
3949.00,0.0006
3948.00,0.0006
3947.00,0.0006
3946.00,0.0006
3945.00,0.0006
3944.00,0.0006
3943.00,0.0006
3942.00,0.0006
3941.00,0.0006
3940.00,0.0007
3939.00,0.0007
3938.00,0.0007
3937.00,0.0008
3936.00,0.0008
3935.00,0.0008
3934.00,0.0008
3933.00,0.0008
3932.00,0.0008
3931.00,0.0008
3930.00,0.0007
3929.00,0.0007
3928.00,0.0007
3927.00,0.0007
3926.00,0.0007
3925.00,0.0008
3924.00,0.0008
3923.00,0.0007
3922.00,0.0007
3921.00,0.0007
3920.00,0.0007
3919.00,0.0008
3918.00,0.0008
3917.00,0.0008
3916.00,0.0008
3915.00,0.0008
3914.00,0.0008
3913.00,0.0007
3912.00,0.0007
3911.00,0.0007
3910.00,0.0006
3909.00,0.0006
3908.00,0.0006
3907.00,0.0006
3906.00,0.0006
3905.00,0.0006
3904.00,0.0006
3903.00,0.0006
3902.00,0.0006
3901.00,0.0006
3900.00,0.0006
3899.00,0.0006
3898.00,0.0006
3897.00,0.0006
3896.00,0.0006
3895.00,0.0006
3894.00,0.0006
3893.00,0.0006
3892.00,0.0006
3891.00,0.0006
3890.00,0.0006
3889.00,0.0006
3888.00,0.0006
3887.00,0.0007
3886.00,0.0007
3885.00,0.0007
3884.00,0.0006
3883.00,0.0006
3882.00,0.0006
3881.00,0.0006
3880.00,0.0007
3879.00,0.0007
3878.00,0.0007
3877.00,0.0006
3876.00,0.0006
3875.00,0.0006
3874.00,0.0006
3873.00,0.0006
3872.00,0.0005
3871.00,0.0005
3870.00,0.0005
3869.00,0.0005
3868.00,0.0005
3867.00,0.0005
3866.00,0.0005
3865.00,0.0005
3864.00,0.0005
3863.00,0.0005
3862.00,0.0005
3861.00,0.0005
3860.00,0.0005
3859.00,0.0006
3858.00,0.0005
3857.00,0.0005
3856.00,0.0004
3855.00,0.0003
3854.00,0.0003
3853.00,0.0004
3852.00,0.0004
3851.00,0.0004
3850.00,0.0004
3849.00,0.0004
3848.00,0.0004
3847.00,0.0005
3846.00,0.0005
3845.00,0.0005
3844.00,0.0005
3843.00,0.0005
3842.00,0.0005
3841.00,0.0004
3840.00,0.0004
3839.00,0.0004
3838.00,0.0005
3837.00,0.0005
3836.00,0.0005
3835.00,0.0005
3834.00,0.0006
3833.00,0.0006
3832.00,0.0006
3831.00,0.0006
3830.00,0.0006
3829.00,0.0006
3828.00,0.0005
3827.00,0.0005
3826.00,0.0005
3825.00,0.0005
3824.00,0.0005
3823.00,0.0005
3822.00,0.0004
3821.00,0.0004
3820.00,0.0004
3819.00,0.0004
3818.00,0.0004
3817.00,0.0005
3816.00,0.0006
3815.00,0.0006
3814.00,0.0006
3813.00,0.0006
3812.00,0.0006
3811.00,0.0007
3810.00,0.0006
3809.00,0.0006
3808.00,0.0006
3807.00,0.0006
3806.00,0.0006
3805.00,0.0005
3804.00,0.0005
3803.00,0.0005
3802.00,0.0005
3801.00,0.0005
3800.00,0.0005
3799.00,0.0005
3798.00,0.0006
3797.00,0.0006
3796.00,0.0006
3795.00,0.0007
3794.00,0.0007
3793.00,0.0006
3792.00,0.0006
3791.00,0.0006
3790.00,0.0006
3789.00,0.0006
3788.00,0.0006
3787.00,0.0006
3786.00,0.0006
3785.00,0.0006
3784.00,0.0006
3783.00,0.0005
3782.00,0.0005
3781.00,0.0005
3780.00,0.0006
3779.00,0.0006
3778.00,0.0006
3777.00,0.0007
3776.00,0.0007
3775.00,0.0007
3774.00,0.0007
3773.00,0.0006
3772.00,0.0006
3771.00,0.0006
3770.00,0.0005
3769.00,0.0006
3768.00,0.0006
3767.00,0.0006
3766.00,0.0006
3765.00,0.0006
3764.00,0.0006
3763.00,0.0006
3762.00,0.0006
3761.00,0.0006
3760.00,0.0006
3759.00,0.0006
3758.00,0.0007
3757.00,0.0006
3756.00,0.0006
3755.00,0.0006
3754.00,0.0006
3753.00,0.0005
3752.00,0.0005
3751.00,0.0005
3750.00,0.0005
3749.00,0.0005
3748.00,0.0005
3747.00,0.0005
3746.00,0.0005
3745.00,0.0004
3744.00,0.0004
3743.00,0.0003
3742.00,0.0003
3741.00,0.0004
3740.00,0.0004
3739.00,0.0004
3738.00,0.0004
3737.00,0.0003
3736.00,0.0002
3735.00,0.0002
3734.00,0.0003
3733.00,0.0003
3732.00,0.0004
3731.00,0.0005
3730.00,0.0005
3729.00,0.0005
3728.00,0.0005
3727.00,0.0005
3726.00,0.0004
3725.00,0.0004
3724.00,0.0004
3723.00,0.0004
3722.00,0.0004
3721.00,0.0004
3720.00,0.0004
3719.00,0.0004
3718.00,0.0004
3717.00,0.0004
3716.00,0.0005
3715.00,0.0005
3714.00,0.0005
3713.00,0.0005
3712.00,0.0005
3711.00,0.0005
3710.00,0.0005
3709.00,0.0005
3708.00,0.0005
3707.00,0.0005
3706.00,0.0005
3705.00,0.0005
3704.00,0.0005
3703.00,0.0005
3702.00,0.0006
3701.00,0.0006
3700.00,0.0006
3699.00,0.0005
3698.00,0.0005
3697.00,0.0005
3696.00,0.0005
3695.00,0.0005
3694.00,0.0005
3693.00,0.0005
3692.00,0.0005
3691.00,0.0006
3690.00,0.0006
3689.00,0.0005
3688.00,0.0005
3687.00,0.0005
3686.00,0.0006
3685.00,0.0006
3684.00,0.0007
3683.00,0.0007
3682.00,0.0007
3681.00,0.0008
3680.00,0.0008
3679.00,0.0009
3678.00,0.0009
3677.00,0.0008
3676.00,0.0008
3675.00,0.0009
3674.00,0.0009
3673.00,0.0009
3672.00,0.0010
3671.00,0.0010
3670.00,0.0010
3669.00,0.0011
3668.00,0.0011
3667.00,0.0011
3666.00,0.0012
3665.00,0.0012
3664.00,0.0013
3663.00,0.0013
3662.00,0.0014
3661.00,0.0014
3660.00,0.0014
3659.00,0.0014
3658.00,0.0013
3657.00,0.0013
3656.00,0.0013
3655.00,0.0013
3654.00,0.0012
3653.00,0.0012
3652.00,0.0012
3651.00,0.0012
3650.00,0.0011
3649.00,0.0011
3648.00,0.0011
3647.00,0.0011
3646.00,0.0011
3645.00,0.0011
3644.00,0.0011
3643.00,0.0011
3642.00,0.0011
3641.00,0.0011
3640.00,0.0011
3639.00,0.0011
3638.00,0.0011
3637.00,0.0011
3636.00,0.0011
3635.00,0.0010
3634.00,0.0009
3633.00,0.0008
3632.00,0.0008
3631.00,0.0008
3630.00,0.0008
3629.00,0.0008
3628.00,0.0008
3627.00,0.0007
3626.00,0.0007
3625.00,0.0007
3624.00,0.0007
3623.00,0.0007
3622.00,0.0007
3621.00,0.0006
3620.00,0.0006
3619.00,0.0006
3618.00,0.0006
3617.00,0.0006
3616.00,0.0006
3615.00,0.0006
3614.00,0.0006
3613.00,0.0006
3612.00,0.0006
3611.00,0.0006
3610.00,0.0006
3609.00,0.0007
3608.00,0.0007
3607.00,0.0007
3606.00,0.0007
3605.00,0.0007
3604.00,0.0008
3603.00,0.0008
3602.00,0.0008
3601.00,0.0008
3600.00,0.0008
3599.00,0.0008
3598.00,0.0008
3597.00,0.0008
3596.00,0.0008
3595.00,0.0008
3594.00,0.0008
3593.00,0.0008
3592.00,0.0008
3591.00,0.0008
3590.00,0.0008
3589.00,0.0009
3588.00,0.0009
3587.00,0.0010
3586.00,0.0010
3585.00,0.0010
3584.00,0.0009
3583.00,0.0009
3582.00,0.0010
3581.00,0.0010
3580.00,0.0010
3579.00,0.0010
3578.00,0.0011
3577.00,0.0011
3576.00,0.0011
3575.00,0.0011
3574.00,0.0011
3573.00,0.0011
3572.00,0.0011
3571.00,0.0011
3570.00,0.0011
3569.00,0.0011
3568.00,0.0012
3567.00,0.0012
3566.00,0.0012
3565.00,0.0013
3564.00,0.0013
3563.00,0.0013
3562.00,0.0013
3561.00,0.0013
3560.00,0.0014
3559.00,0.0014
3558.00,0.0014
3557.00,0.0014
3556.00,0.0015
3555.00,0.0015
3554.00,0.0015
3553.00,0.0016
3552.00,0.0016
3551.00,0.0016
3550.00,0.0016
3549.00,0.0016
3548.00,0.0016
3547.00,0.0016
3546.00,0.0016
3545.00,0.0016
3544.00,0.0017
3543.00,0.0017
3542.00,0.0018
3541.00,0.0018
3540.00,0.0018
3539.00,0.0018
3538.00,0.0018
3537.00,0.0018
3536.00,0.0018
3535.00,0.0018
3534.00,0.0018
3533.00,0.0018
3532.00,0.0018
3531.00,0.0018
3530.00,0.0018
3529.00,0.0019
3528.00,0.0019
3527.00,0.0020
3526.00,0.0020
3525.00,0.0021
3524.00,0.0021
3523.00,0.0021
3522.00,0.0021
3521.00,0.0021
3520.00,0.0021
3519.00,0.0022
3518.00,0.0022
3517.00,0.0022
3516.00,0.0022
3515.00,0.0022
3514.00,0.0022
3513.00,0.0022
3512.00,0.0023
3511.00,0.0023
3510.00,0.0023
3509.00,0.0023
3508.00,0.0023
3507.00,0.0023
3506.00,0.0023
3505.00,0.0023
3504.00,0.0024
3503.00,0.0024
3502.00,0.0024
3501.00,0.0024
3500.00,0.0025
3499.00,0.0025
3498.00,0.0026
3497.00,0.0026
3496.00,0.0026
3495.00,0.0026
3494.00,0.0027
3493.00,0.0027
3492.00,0.0027
3491.00,0.0028
3490.00,0.0028
3489.00,0.0028
3488.00,0.0028
3487.00,0.0028
3486.00,0.0028
3485.00,0.0028
3484.00,0.0028
3483.00,0.0028
3482.00,0.0028
3481.00,0.0028
3480.00,0.0029
3479.00,0.0029
3478.00,0.0029
3477.00,0.0030
3476.00,0.0030
3475.00,0.0030
3474.00,0.0030
3473.00,0.0030
3472.00,0.0030
3471.00,0.0030
3470.00,0.0030
3469.00,0.0031
3468.00,0.0031
3467.00,0.0032
3466.00,0.0032
3465.00,0.0033
3464.00,0.0033
3463.00,0.0034
3462.00,0.0034
3461.00,0.0034
3460.00,0.0034
3459.00,0.0034
3458.00,0.0034
3457.00,0.0034
3456.00,0.0034
3455.00,0.0034
3454.00,0.0034
3453.00,0.0034
3452.00,0.0034
3451.00,0.0034
3450.00,0.0034
3449.00,0.0034
3448.00,0.0034
3447.00,0.0034
3446.00,0.0035
3445.00,0.0036
3444.00,0.0036
3443.00,0.0036
3442.00,0.0037
3441.00,0.0037
3440.00,0.0036
3439.00,0.0036
3438.00,0.0036
3437.00,0.0036
3436.00,0.0037
3435.00,0.0037
3434.00,0.0037
3433.00,0.0038
3432.00,0.0038
3431.00,0.0039
3430.00,0.0039
3429.00,0.0039
3428.00,0.0038
3427.00,0.0038
3426.00,0.0038
3425.00,0.0038
3424.00,0.0038
3423.00,0.0039
3422.00,0.0039
3421.00,0.0039
3420.00,0.0039
3419.00,0.0039
3418.00,0.0039
3417.00,0.0040
3416.00,0.0040
3415.00,0.0041
3414.00,0.0041
3413.00,0.0042
3412.00,0.0042
3411.00,0.0042
3410.00,0.0042
3409.00,0.0042
3408.00,0.0042
3407.00,0.0043
3406.00,0.0043
3405.00,0.0042
3404.00,0.0042
3403.00,0.0043
3402.00,0.0043
3401.00,0.0044
3400.00,0.0045
3399.00,0.0045
3398.00,0.0045
3397.00,0.0045
3396.00,0.0045
3395.00,0.0045
3394.00,0.0045
3393.00,0.0044
3392.00,0.0044
3391.00,0.0044
3390.00,0.0044
3389.00,0.0044
3388.00,0.0044
3387.00,0.0043
3386.00,0.0043
3385.00,0.0043
3384.00,0.0043
3383.00,0.0043
3382.00,0.0043
3381.00,0.0044
3380.00,0.0044
3379.00,0.0045
3378.00,0.0045
3377.00,0.0044
3376.00,0.0044
3375.00,0.0044
3374.00,0.0044
3373.00,0.0044
3372.00,0.0044
3371.00,0.0044
3370.00,0.0044
3369.00,0.0044
3368.00,0.0044
3367.00,0.0044
3366.00,0.0044
3365.00,0.0044
3364.00,0.0044
3363.00,0.0044
3362.00,0.0044
3361.00,0.0043
3360.00,0.0043
3359.00,0.0043
3358.00,0.0044
3357.00,0.0044
3356.00,0.0044
3355.00,0.0044
3354.00,0.0044
3353.00,0.0044
3352.00,0.0044
3351.00,0.0044
3350.00,0.0044
3349.00,0.0044
3348.00,0.0044
3347.00,0.0044
3346.00,0.0044
3345.00,0.0044
3344.00,0.0043
3343.00,0.0043
3342.00,0.0043
3341.00,0.0043
3340.00,0.0044
3339.00,0.0044
3338.00,0.0044
3337.00,0.0044
3336.00,0.0044
3335.00,0.0043
3334.00,0.0043
3333.00,0.0042
3332.00,0.0042
3331.00,0.0042
3330.00,0.0042
3329.00,0.0042
3328.00,0.0042
3327.00,0.0042
3326.00,0.0042
3325.00,0.0042
3324.00,0.0042
3323.00,0.0043
3322.00,0.0042
3321.00,0.0042
3320.00,0.0042
3319.00,0.0041
3318.00,0.0041
3317.00,0.0042
3316.00,0.0042
3315.00,0.0041
3314.00,0.0041
3313.00,0.0041
3312.00,0.0041
3311.00,0.0041
3310.00,0.0041
3309.00,0.0041
3308.00,0.0041
3307.00,0.0042
3306.00,0.0042
3305.00,0.0043
3304.00,0.0043
3303.00,0.0043
3302.00,0.0043
3301.00,0.0042
3300.00,0.0042
3299.00,0.0042
3298.00,0.0042
3297.00,0.0042
3296.00,0.0041
3295.00,0.0041
3294.00,0.0040
3293.00,0.0040
3292.00,0.0039
3291.00,0.0039
3290.00,0.0039
3289.00,0.0039
3288.00,0.0039
3287.00,0.0039
3286.00,0.0039
3285.00,0.0039
3284.00,0.0039
3283.00,0.0038
3282.00,0.0038
3281.00,0.0038
3280.00,0.0037
3279.00,0.0037
3278.00,0.0037
3277.00,0.0037
3276.00,0.0037
3275.00,0.0037
3274.00,0.0037
3273.00,0.0037
3272.00,0.0037
3271.00,0.0037
3270.00,0.0036
3269.00,0.0036
3268.00,0.0036
3267.00,0.0037
3266.00,0.0037
3265.00,0.0037
3264.00,0.0037
3263.00,0.0036
3262.00,0.0036
3261.00,0.0036
3260.00,0.0035
3259.00,0.0034
3258.00,0.0034
3257.00,0.0033
3256.00,0.0034
3255.00,0.0034
3254.00,0.0034
3253.00,0.0034
3252.00,0.0034
3251.00,0.0034
3250.00,0.0034
3249.00,0.0034
3248.00,0.0034
3247.00,0.0034
3246.00,0.0034
3245.00,0.0034
3244.00,0.0034
3243.00,0.0035
3242.00,0.0035
3241.00,0.0035
3240.00,0.0035
3239.00,0.0034
3238.00,0.0034
3237.00,0.0033
3236.00,0.0033
3235.00,0.0033
3234.00,0.0034
3233.00,0.0034
3232.00,0.0034
3231.00,0.0035
3230.00,0.0035
3229.00,0.0035
3228.00,0.0036
3227.00,0.0035
3226.00,0.0035
3225.00,0.0035
3224.00,0.0035
3223.00,0.0035
3222.00,0.0036
3221.00,0.0036
3220.00,0.0037
3219.00,0.0037
3218.00,0.0037
3217.00,0.0037
3216.00,0.0037
3215.00,0.0038
3214.00,0.0038
3213.00,0.0038
3212.00,0.0038
3211.00,0.0038
3210.00,0.0038
3209.00,0.0038
3208.00,0.0039
3207.00,0.0039
3206.00,0.0039
3205.00,0.0039
3204.00,0.0039
3203.00,0.0039
3202.00,0.0039
3201.00,0.0039
3200.00,0.0040
3199.00,0.0040
3198.00,0.0040
3197.00,0.0040
3196.00,0.0040
3195.00,0.0040
3194.00,0.0040
3193.00,0.0040
3192.00,0.0040
3191.00,0.0040
3190.00,0.0040
3189.00,0.0040
3188.00,0.0040
3187.00,0.0040
3186.00,0.0039
3185.00,0.0038
3184.00,0.0038
3183.00,0.0038
3182.00,0.0037
3181.00,0.0037
3180.00,0.0037
3179.00,0.0037
3178.00,0.0036
3177.00,0.0036
3176.00,0.0036
3175.00,0.0036
3174.00,0.0036
3173.00,0.0035
3172.00,0.0035
3171.00,0.0035
3170.00,0.0035
3169.00,0.0035
3168.00,0.0034
3167.00,0.0034
3166.00,0.0034
3165.00,0.0033
3164.00,0.0033
3163.00,0.0033
3162.00,0.0033
3161.00,0.0033
3160.00,0.0034
3159.00,0.0034
3158.00,0.0033
3157.00,0.0033
3156.00,0.0032
3155.00,0.0032
3154.00,0.0033
3153.00,0.0033
3152.00,0.0033
3151.00,0.0033
3150.00,0.0033
3149.00,0.0033
3148.00,0.0032
3147.00,0.0032
3146.00,0.0032
3145.00,0.0032
3144.00,0.0032
3143.00,0.0033
3142.00,0.0033
3141.00,0.0032
3140.00,0.0032
3139.00,0.0032
3138.00,0.0031
3137.00,0.0031
3136.00,0.0031
3135.00,0.0031
3134.00,0.0031
3133.00,0.0031
3132.00,0.0031
3131.00,0.0031
3130.00,0.0031
3129.00,0.0031
3128.00,0.0030
3127.00,0.0030
3126.00,0.0029
3125.00,0.0029
3124.00,0.0028
3123.00,0.0028
3122.00,0.0028
3121.00,0.0028
3120.00,0.0028
3119.00,0.0027
3118.00,0.0027
3117.00,0.0027
3116.00,0.0026
3115.00,0.0027
3114.00,0.0027
3113.00,0.0027
3112.00,0.0027
3111.00,0.0027
3110.00,0.0027
3109.00,0.0027
3108.00,0.0027
3107.00,0.0027
3106.00,0.0027
3105.00,0.0026
3104.00,0.0026
3103.00,0.0025
3102.00,0.0025
3101.00,0.0025
3100.00,0.0025
3099.00,0.0025
3098.00,0.0025
3097.00,0.0025
3096.00,0.0025
3095.00,0.0025
3094.00,0.0025
3093.00,0.0025
3092.00,0.0025
3091.00,0.0025
3090.00,0.0025
3089.00,0.0024
3088.00,0.0024
3087.00,0.0024
3086.00,0.0024
3085.00,0.0025
3084.00,0.0025
3083.00,0.0025
3082.00,0.0025
3081.00,0.0025
3080.00,0.0025
3079.00,0.0025
3078.00,0.0025
3077.00,0.0025
3076.00,0.0025
3075.00,0.0025
3074.00,0.0025
3073.00,0.0025
3072.00,0.0026
3071.00,0.0026
3070.00,0.0027
3069.00,0.0027
3068.00,0.0027
3067.00,0.0027
3066.00,0.0027
3065.00,0.0027
3064.00,0.0027
3063.00,0.0027
3062.00,0.0028
3061.00,0.0028
3060.00,0.0028
3059.00,0.0028
3058.00,0.0028
3057.00,0.0028
3056.00,0.0028
3055.00,0.0029
3054.00,0.0029
3053.00,0.0029
3052.00,0.0029
3051.00,0.0029
3050.00,0.0030
3049.00,0.0030
3048.00,0.0030
3047.00,0.0031
3046.00,0.0031
3045.00,0.0031
3044.00,0.0031
3043.00,0.0031
3042.00,0.0031
3041.00,0.0032
3040.00,0.0032
3039.00,0.0033
3038.00,0.0033
3037.00,0.0033
3036.00,0.0033
3035.00,0.0033
3034.00,0.0034
3033.00,0.0034
3032.00,0.0035
3031.00,0.0035
3030.00,0.0036
3029.00,0.0037
3028.00,0.0037
3027.00,0.0038
3026.00,0.0038
3025.00,0.0039
3024.00,0.0039
3023.00,0.0040
3022.00,0.0041
3021.00,0.0042
3020.00,0.0043
3019.00,0.0044
3018.00,0.0046
3017.00,0.0047
3016.00,0.0049
3015.00,0.0051
3014.00,0.0053
3013.00,0.0056
3012.00,0.0059
3011.00,0.0062
3010.00,0.0065
3009.00,0.0068
3008.00,0.0071
3007.00,0.0075
3006.00,0.0079
3005.00,0.0083
3004.00,0.0087
3003.00,0.0091
3002.00,0.0096
3001.00,0.0100
3000.00,0.0105
2999.00,0.0109
2998.00,0.0114
2997.00,0.0118
2996.00,0.0123
2995.00,0.0127
2994.00,0.0132
2993.00,0.0138
2992.00,0.0144
2991.00,0.0150
2990.00,0.0157
2989.00,0.0165
2988.00,0.0173
2987.00,0.0183
2986.00,0.0196
2985.00,0.0212
2984.00,0.0230
2983.00,0.0249
2982.00,0.0268
2981.00,0.0284
2980.00,0.0300
2979.00,0.0316
2978.00,0.0334
2977.00,0.0355
2976.00,0.0382
2975.00,0.0414
2974.00,0.0452
2973.00,0.0496
2972.00,0.0545
2971.00,0.0597
2970.00,0.0654
2969.00,0.0715
2968.00,0.0781
2967.00,0.0851
2966.00,0.0924
2965.00,0.0996
2964.00,0.1066
2963.00,0.1130
2962.00,0.1187
2961.00,0.1236
2960.00,0.1281
2959.00,0.1324
2958.00,0.1371
2957.00,0.1426
2956.00,0.1492
2955.00,0.1570
2954.00,0.1657
2953.00,0.1748
2952.00,0.1831
2951.00,0.1894
2950.00,0.1925
2949.00,0.1915
2948.00,0.1862
2947.00,0.1769
2946.00,0.1649
2945.00,0.1519
2944.00,0.1392
2943.00,0.1283
2942.00,0.1198
2941.00,0.1139
2940.00,0.1106
2939.00,0.1096
2938.00,0.1108
2937.00,0.1139
2936.00,0.1187
2935.00,0.1252
2934.00,0.1331
2933.00,0.1424
2932.00,0.1528
2931.00,0.1642
2930.00,0.1763
2929.00,0.1888
2928.00,0.2014
2927.00,0.2139
2926.00,0.2261
2925.00,0.2379
2924.00,0.2496
2923.00,0.2613
2922.00,0.2731
2921.00,0.2847
2920.00,0.2953
2919.00,0.3038
2918.00,0.3090
2917.00,0.3097
2916.00,0.3055
2915.00,0.2970
2914.00,0.2853
2913.00,0.2719
2912.00,0.2582
2911.00,0.2451
2910.00,0.2332
2909.00,0.2224
2908.00,0.2126
2907.00,0.2034
2906.00,0.1948
2905.00,0.1865
2904.00,0.1784
2903.00,0.1707
2902.00,0.1633
2901.00,0.1562
2900.00,0.1495
2899.00,0.1433
2898.00,0.1375
2897.00,0.1323
2896.00,0.1276
2895.00,0.1235
2894.00,0.1201
2893.00,0.1173
2892.00,0.1151
2891.00,0.1136
2890.00,0.1126
2889.00,0.1120
2888.00,0.1119
2887.00,0.1120
2886.00,0.1126
2885.00,0.1135
2884.00,0.1149
2883.00,0.1168
2882.00,0.1193
2881.00,0.1222
2880.00,0.1253
2879.00,0.1281
2878.00,0.1301
2877.00,0.1311
2876.00,0.1310
2875.00,0.1302
2874.00,0.1294
2873.00,0.1290
2872.00,0.1294
2871.00,0.1306
2870.00,0.1325
2869.00,0.1344
2868.00,0.1357
2867.00,0.1355
2866.00,0.1331
2865.00,0.1281
2864.00,0.1210
2863.00,0.1126
2862.00,0.1041
2861.00,0.0966
2860.00,0.0906
2859.00,0.0864
2858.00,0.0839
2857.00,0.0829
2856.00,0.0830
2855.00,0.0840
2854.00,0.0856
2853.00,0.0876
2852.00,0.0897
2851.00,0.0914
2850.00,0.0925
2849.00,0.0930
2848.00,0.0932
2847.00,0.0937
2846.00,0.0951
2845.00,0.0976
2844.00,0.1014
2843.00,0.1061
2842.00,0.1114
2841.00,0.1166
2840.00,0.1210
2839.00,0.1237
2838.00,0.1239
2837.00,0.1210
2836.00,0.1149
2835.00,0.1063
2834.00,0.0959
2833.00,0.0849
2832.00,0.0743
2831.00,0.0648
2830.00,0.0567
2829.00,0.0500
2828.00,0.0446
2827.00,0.0403
2826.00,0.0367
2825.00,0.0338
2824.00,0.0314
2823.00,0.0294
2822.00,0.0277
2821.00,0.0262
2820.00,0.0249
2819.00,0.0238
2818.00,0.0229
2817.00,0.0221
2816.00,0.0214
2815.00,0.0207
2814.00,0.0201
2813.00,0.0194
2812.00,0.0188
2811.00,0.0182
2810.00,0.0176
2809.00,0.0170
2808.00,0.0164
2807.00,0.0157
2806.00,0.0150
2805.00,0.0143
2804.00,0.0137
2803.00,0.0131
2802.00,0.0126
2801.00,0.0121
2800.00,0.0117
2799.00,0.0114
2798.00,0.0111
2797.00,0.0108
2796.00,0.0106
2795.00,0.0103
2794.00,0.0100
2793.00,0.0097
2792.00,0.0094
2791.00,0.0091
2790.00,0.0089
2789.00,0.0086
2788.00,0.0084
2787.00,0.0081
2786.00,0.0079
2785.00,0.0076
2784.00,0.0074
2783.00,0.0071
2782.00,0.0069
2781.00,0.0067
2780.00,0.0066
2779.00,0.0064
2778.00,0.0063
2777.00,0.0061
2776.00,0.0060
2775.00,0.0059
2774.00,0.0058
2773.00,0.0057
2772.00,0.0057
2771.00,0.0057
2770.00,0.0057
2769.00,0.0057
2768.00,0.0057
2767.00,0.0056
2766.00,0.0055
2765.00,0.0055
2764.00,0.0054
2763.00,0.0054
2762.00,0.0053
2761.00,0.0053
2760.00,0.0053
2759.00,0.0053
2758.00,0.0053
2757.00,0.0053
2756.00,0.0053
2755.00,0.0052
2754.00,0.0052
2753.00,0.0052
2752.00,0.0051
2751.00,0.0051
2750.00,0.0051
2749.00,0.0051
2748.00,0.0051
2747.00,0.0051
2746.00,0.0052
2745.00,0.0052
2744.00,0.0053
2743.00,0.0054
2742.00,0.0055
2741.00,0.0056
2740.00,0.0057
2739.00,0.0058
2738.00,0.0059
2737.00,0.0061
2736.00,0.0062
2735.00,0.0064
2734.00,0.0066
2733.00,0.0068
2732.00,0.0070
2731.00,0.0072
2730.00,0.0074
2729.00,0.0076
2728.00,0.0079
2727.00,0.0082
2726.00,0.0085
2725.00,0.0087
2724.00,0.0089
2723.00,0.0090
2722.00,0.0089
2721.00,0.0087
2720.00,0.0084
2719.00,0.0080
2718.00,0.0077
2717.00,0.0074
2716.00,0.0071
2715.00,0.0068
2714.00,0.0065
2713.00,0.0063
2712.00,0.0061
2711.00,0.0059
2710.00,0.0057
2709.00,0.0055
2708.00,0.0053
2707.00,0.0052
2706.00,0.0050
2705.00,0.0049
2704.00,0.0048
2703.00,0.0047
2702.00,0.0046
2701.00,0.0045
2700.00,0.0044
2699.00,0.0044
2698.00,0.0044
2697.00,0.0043
2696.00,0.0043
2695.00,0.0043
2694.00,0.0043
2693.00,0.0043
2692.00,0.0043
2691.00,0.0043
2690.00,0.0044
2689.00,0.0044
2688.00,0.0044
2687.00,0.0044
2686.00,0.0044
2685.00,0.0044
2684.00,0.0044
2683.00,0.0044
2682.00,0.0044
2681.00,0.0045
2680.00,0.0045
2679.00,0.0045
2678.00,0.0046
2677.00,0.0046
2676.00,0.0046
2675.00,0.0046
2674.00,0.0045
2673.00,0.0045
2672.00,0.0045
2671.00,0.0045
2670.00,0.0045
2669.00,0.0045
2668.00,0.0045
2667.00,0.0045
2666.00,0.0045
2665.00,0.0046
2664.00,0.0047
2663.00,0.0047
2662.00,0.0048
2661.00,0.0048
2660.00,0.0048
2659.00,0.0049
2658.00,0.0048
2657.00,0.0048
2656.00,0.0048
2655.00,0.0047
2654.00,0.0047
2653.00,0.0046
2652.00,0.0046
2651.00,0.0045
2650.00,0.0045
2649.00,0.0044
2648.00,0.0044
2647.00,0.0043
2646.00,0.0042
2645.00,0.0042
2644.00,0.0042
2643.00,0.0041
2642.00,0.0041
2641.00,0.0041
2640.00,0.0040
2639.00,0.0040
2638.00,0.0039
2637.00,0.0039
2636.00,0.0038
2635.00,0.0038
2634.00,0.0039
2633.00,0.0039
2632.00,0.0039
2631.00,0.0039
2630.00,0.0039
2629.00,0.0039
2628.00,0.0039
2627.00,0.0039
2626.00,0.0039
2625.00,0.0040
2624.00,0.0040
2623.00,0.0041
2622.00,0.0041
2621.00,0.0040
2620.00,0.0040
2619.00,0.0040
2618.00,0.0040
2617.00,0.0040
2616.00,0.0040
2615.00,0.0040
2614.00,0.0040
2613.00,0.0039
2612.00,0.0039
2611.00,0.0038
2610.00,0.0038
2609.00,0.0037
2608.00,0.0036
2607.00,0.0036
2606.00,0.0036
2605.00,0.0035
2604.00,0.0035
2603.00,0.0034
2602.00,0.0033
2601.00,0.0032
2600.00,0.0032
2599.00,0.0032
2598.00,0.0032
2597.00,0.0032
2596.00,0.0032
2595.00,0.0032
2594.00,0.0032
2593.00,0.0032
2592.00,0.0032
2591.00,0.0033
2590.00,0.0034
2589.00,0.0035
2588.00,0.0036
2587.00,0.0038
2586.00,0.0039
2585.00,0.0040
2584.00,0.0041
2583.00,0.0041
2582.00,0.0040
2581.00,0.0040
2580.00,0.0039
2579.00,0.0038
2578.00,0.0037
2577.00,0.0036
2576.00,0.0035
2575.00,0.0033
2574.00,0.0032
2573.00,0.0031
2572.00,0.0029
2571.00,0.0028
2570.00,0.0027
2569.00,0.0027
2568.00,0.0027
2567.00,0.0026
2566.00,0.0026
2565.00,0.0025
2564.00,0.0024
2563.00,0.0024
2562.00,0.0023
2561.00,0.0022
2560.00,0.0022
2559.00,0.0021
2558.00,0.0021
2557.00,0.0021
2556.00,0.0021
2555.00,0.0021
2554.00,0.0021
2553.00,0.0021
2552.00,0.0021
2551.00,0.0021
2550.00,0.0021
2549.00,0.0021
2548.00,0.0020
2547.00,0.0019
2546.00,0.0019
2545.00,0.0018
2544.00,0.0017
2543.00,0.0016
2542.00,0.0015
2541.00,0.0015
2540.00,0.0015
2539.00,0.0016
2538.00,0.0017
2537.00,0.0017
2536.00,0.0018
2535.00,0.0017
2534.00,0.0016
2533.00,0.0016
2532.00,0.0015
2531.00,0.0014
2530.00,0.0014
2529.00,0.0014
2528.00,0.0014
2527.00,0.0014
2526.00,0.0014
2525.00,0.0014
2524.00,0.0014
2523.00,0.0014
2522.00,0.0013
2521.00,0.0013
2520.00,0.0012
2519.00,0.0012
2518.00,0.0012
2517.00,0.0012
2516.00,0.0011
2515.00,0.0011
2514.00,0.0011
2513.00,0.0011
2512.00,0.0011
2511.00,0.0011
2510.00,0.0011
2509.00,0.0011
2508.00,0.0010
2507.00,0.0010
2506.00,0.0009
2505.00,0.0009
2504.00,0.0008
2503.00,0.0008
2502.00,0.0008
2501.00,0.0008
2500.00,0.0009
2499.00,0.0009
2498.00,0.0010
2497.00,0.0010
2496.00,0.0009
2495.00,0.0009
2494.00,0.0008
2493.00,0.0008
2492.00,0.0008
2491.00,0.0008
2490.00,0.0009
2489.00,0.0009
2488.00,0.0009
2487.00,0.0009
2486.00,0.0009
2485.00,0.0009
2484.00,0.0009
2483.00,0.0009
2482.00,0.0010
2481.00,0.0010
2480.00,0.0010
2479.00,0.0010
2478.00,0.0009
2477.00,0.0009
2476.00,0.0009
2475.00,0.0010
2474.00,0.0010
2473.00,0.0010
2472.00,0.0010
2471.00,0.0009
2470.00,0.0008
2469.00,0.0008
2468.00,0.0008
2467.00,0.0008
2466.00,0.0009
2465.00,0.0009
2464.00,0.0009
2463.00,0.0009
2462.00,0.0009
2461.00,0.0010
2460.00,0.0010
2459.00,0.0010
2458.00,0.0010
2457.00,0.0010
2456.00,0.0010
2455.00,0.0010
2454.00,0.0011
2453.00,0.0011
2452.00,0.0010
2451.00,0.0010
2450.00,0.0010
2449.00,0.0010
2448.00,0.0010
2447.00,0.0010
2446.00,0.0010
2445.00,0.0011
2444.00,0.0011
2443.00,0.0011
2442.00,0.0010
2441.00,0.0010
2440.00,0.0010
2439.00,0.0010
2438.00,0.0009
2437.00,0.0009
2436.00,0.0010
2435.00,0.0010
2434.00,0.0011
2433.00,0.0011
2432.00,0.0010
2431.00,0.0010
2430.00,0.0010
2429.00,0.0011
2428.00,0.0011
2427.00,0.0011
2426.00,0.0011
2425.00,0.0011
2424.00,0.0010
2423.00,0.0010
2422.00,0.0009
2421.00,0.0009
2420.00,0.0009
2419.00,0.0009
2418.00,0.0009
2417.00,0.0009
2416.00,0.0009
2415.00,0.0008
2414.00,0.0008
2413.00,0.0008
2412.00,0.0008
2411.00,0.0009
2410.00,0.0009
2409.00,0.0009
2408.00,0.0009
2407.00,0.0008
2406.00,0.0008
2405.00,0.0007
2404.00,0.0007
2403.00,0.0007
2402.00,0.0007
2401.00,0.0007
2400.00,0.0007
2399.00,0.0007
2398.00,0.0007
2397.00,0.0007
2396.00,0.0007
2395.00,0.0007
2394.00,0.0007
2393.00,0.0007
2392.00,0.0006
2391.00,0.0006
2390.00,0.0005
2389.00,0.0005
2388.00,0.0004
2387.00,0.0004
2386.00,0.0004
2385.00,0.0004
2384.00,0.0005
2383.00,0.0004
2382.00,0.0004
2381.00,0.0004
2380.00,0.0004
2379.00,0.0003
2378.00,0.0003
2377.00,0.0002
2376.00,0.0002
2375.00,0.0002
2374.00,0.0001
2373.00,0.0001
2372.00,0.0001
2371.00,0.0002
2370.00,0.0003
2369.00,0.0003
2368.00,0.0004
2367.00,0.0004
2366.00,0.0004
2365.00,0.0004
2364.00,0.0004
2363.00,0.0004
2362.00,0.0004
2361.00,0.0003
2360.00,0.0003
2359.00,0.0003
2358.00,0.0003
2357.00,0.0004
2356.00,0.0005
2355.00,0.0005
2354.00,0.0005
2353.00,0.0005
2352.00,0.0005
2351.00,0.0005
2350.00,0.0005
2349.00,0.0005
2348.00,0.0005
2347.00,0.0005
2346.00,0.0005
2345.00,0.0006
2344.00,0.0008
2343.00,0.0009
2342.00,0.0009
2341.00,0.0009
2340.00,0.0008
2339.00,0.0008
2338.00,0.0007
2337.00,0.0007
2336.00,0.0006
2335.00,0.0005
2334.00,0.0004
2333.00,0.0004
2332.00,0.0004
2331.00,0.0005
2330.00,0.0006
2329.00,0.0008
2328.00,0.0010
2327.00,0.0013
2326.00,0.0016
2325.00,0.0019
2324.00,0.0020
2323.00,0.0019
2322.00,0.0017
2321.00,0.0015
2320.00,0.0014
2319.00,0.0013
2318.00,0.0012
2317.00,0.0012
2316.00,0.0012
2315.00,0.0011
2314.00,0.0010
2313.00,0.0010
2312.00,0.0010
2311.00,0.0010
2310.00,0.0011
2309.00,0.0010
2308.00,0.0010
2307.00,0.0010
2306.00,0.0010
2305.00,0.0010
2304.00,0.0011
2303.00,0.0011
2302.00,0.0012
2301.00,0.0012
2300.00,0.0012
2299.00,0.0012
2298.00,0.0012
2297.00,0.0013
2296.00,0.0014
2295.00,0.0015
2294.00,0.0016
2293.00,0.0016
2292.00,0.0016
2291.00,0.0016
2290.00,0.0015
2289.00,0.0015
2288.00,0.0016
2287.00,0.0017
2286.00,0.0017
2285.00,0.0017
2284.00,0.0017
2283.00,0.0016
2282.00,0.0014
2281.00,0.0014
2280.00,0.0013
2279.00,0.0013
2278.00,0.0013
2277.00,0.0013
2276.00,0.0013
2275.00,0.0013
2274.00,0.0013
2273.00,0.0013
2272.00,0.0013
2271.00,0.0012
2270.00,0.0012
2269.00,0.0013
2268.00,0.0013
2267.00,0.0013
2266.00,0.0013
2265.00,0.0012
2264.00,0.0012
2263.00,0.0013
2262.00,0.0013
2261.00,0.0013
2260.00,0.0012
2259.00,0.0012
2258.00,0.0011
2257.00,0.0010
2256.00,0.0009
2255.00,0.0008
2254.00,0.0007
2253.00,0.0007
2252.00,0.0007
2251.00,0.0008
2250.00,0.0007
2249.00,0.0007
2248.00,0.0006
2247.00,0.0006
2246.00,0.0006
2245.00,0.0007
2244.00,0.0009
2243.00,0.0010
2242.00,0.0010
2241.00,0.0010
2240.00,0.0009
2239.00,0.0008
2238.00,0.0008
2237.00,0.0008
2236.00,0.0008
2235.00,0.0008
2234.00,0.0008
2233.00,0.0009
2232.00,0.0009
2231.00,0.0008
2230.00,0.0007
2229.00,0.0005
2228.00,0.0003
2227.00,0.0003
2226.00,0.0004
2225.00,0.0005
2224.00,0.0006
2223.00,0.0005
2222.00,0.0005
2221.00,0.0005
2220.00,0.0007
2219.00,0.0009
2218.00,0.0011
2217.00,0.0011
2216.00,0.0009
2215.00,0.0006
2214.00,0.0005
2213.00,0.0004
2212.00,0.0004
2211.00,0.0005
2210.00,0.0006
2209.00,0.0007
2208.00,0.0007
2207.00,0.0007
2206.00,0.0006
2205.00,0.0006
2204.00,0.0007
2203.00,0.0009
2202.00,0.0010
2201.00,0.0011
2200.00,0.0011
2199.00,0.0010
2198.00,0.0009
2197.00,0.0009
2196.00,0.0009
2195.00,0.0009
2194.00,0.0009
2193.00,0.0008
2192.00,0.0007
2191.00,0.0007
2190.00,0.0007
2189.00,0.0009
2188.00,0.0011
2187.00,0.0013
2186.00,0.0014
2185.00,0.0014
2184.00,0.0013
2183.00,0.0010
2182.00,0.0007
2181.00,0.0004
2180.00,0.0003
2179.00,0.0002
2178.00,0.0003
2177.00,0.0005
2176.00,0.0006
2175.00,0.0005
2174.00,0.0003
2173.00,0.0002
2172.00,0.0002
2171.00,0.0003
2170.00,0.0004
2169.00,0.0004
2168.00,0.0006
2167.00,0.0008
2166.00,0.0010
2165.00,0.0014
2164.00,0.0017
2163.00,0.0020
2162.00,0.0020
2161.00,0.0014
2160.00,0.0002
2159.00,-0.0013
2158.00,-0.0024
2157.00,-0.0029
2156.00,-0.0027
2155.00,-0.0023
2154.00,-0.0019
2153.00,-0.0016
2152.00,-0.0014
2151.00,-0.0014
2150.00,-0.0014
2149.00,-0.0014
2148.00,-0.0014
2147.00,-0.0015
2146.00,-0.0015
2145.00,-0.0016
2144.00,-0.0016
2143.00,-0.0016
2142.00,-0.0015
2141.00,-0.0012
2140.00,-0.0010
2139.00,-0.0009
2138.00,-0.0009
2137.00,-0.0011
2136.00,-0.0014
2135.00,-0.0018
2134.00,-0.0019
2133.00,-0.0017
2132.00,-0.0014
2131.00,-0.0012
2130.00,-0.0010
2129.00,-0.0011
2128.00,-0.0012
2127.00,-0.0012
2126.00,-0.0012
2125.00,-0.0011
2124.00,-0.0009
2123.00,-0.0008
2122.00,-0.0006
2121.00,-0.0005
2120.00,-0.0003
2119.00,-0.0002
2118.00,-0.0001
2117.00,-0.0001
2116.00,0.0000
2115.00,0.0001
2114.00,0.0002
2113.00,0.0003
2112.00,0.0002
2111.00,0.0000
2110.00,-0.0001
2109.00,-0.0002
2108.00,-0.0001
2107.00,-0.0000
2106.00,0.0001
2105.00,0.0002
2104.00,0.0002
2103.00,0.0001
2102.00,0.0001
2101.00,0.0000
2100.00,-0.0000
2099.00,-0.0000
2098.00,-0.0001
2097.00,-0.0002
2096.00,-0.0003
2095.00,-0.0005
2094.00,-0.0006
2093.00,-0.0004
2092.00,-0.0002
2091.00,-0.0001
2090.00,-0.0001
2089.00,-0.0001
2088.00,0.0000
2087.00,0.0001
2086.00,0.0002
2085.00,0.0002
2084.00,0.0002
2083.00,0.0001
2082.00,0.0000
2081.00,0.0000
2080.00,0.0001
2079.00,0.0001
2078.00,0.0001
2077.00,0.0002
2076.00,0.0004
2075.00,0.0004
2074.00,0.0002
2073.00,0.0001
2072.00,-0.0000
2071.00,-0.0000
2070.00,0.0000
2069.00,0.0001
2068.00,0.0001
2067.00,0.0000
2066.00,-0.0001
2065.00,-0.0002
2064.00,-0.0003
2063.00,-0.0002
2062.00,-0.0002
2061.00,-0.0001
2060.00,-0.0001
2059.00,-0.0001
2058.00,-0.0000
2057.00,0.0001
2056.00,0.0002
2055.00,0.0003
2054.00,0.0004
2053.00,0.0006
2052.00,0.0010
2051.00,0.0013
2050.00,0.0013
2049.00,0.0011
2048.00,0.0009
2047.00,0.0007
2046.00,0.0005
2045.00,0.0002
2044.00,-0.0000
2043.00,-0.0001
2042.00,0.0001
2041.00,0.0005
2040.00,0.0008
2039.00,0.0008
2038.00,0.0006
2037.00,0.0004
2036.00,0.0001
2035.00,-0.0001
2034.00,-0.0003
2033.00,-0.0005
2032.00,-0.0007
2031.00,-0.0011
2030.00,-0.0016
2029.00,-0.0019
2028.00,-0.0019
2027.00,-0.0017
2026.00,-0.0014
2025.00,-0.0012
2024.00,-0.0009
2023.00,-0.0008
2022.00,-0.0007
2021.00,-0.0008
2020.00,-0.0009
2019.00,-0.0011
2018.00,-0.0014
2017.00,-0.0015
2016.00,-0.0015
2015.00,-0.0011
2014.00,-0.0007
2013.00,-0.0002
2012.00,-0.0000
2011.00,-0.0001
2010.00,-0.0004
2009.00,-0.0007
2008.00,-0.0009
2007.00,-0.0012
2006.00,-0.0015
2005.00,-0.0016
2004.00,-0.0016
2003.00,-0.0016
2002.00,-0.0015
2001.00,-0.0014
2000.00,-0.0013
1999.00,-0.0012
1998.00,-0.0011
1997.00,-0.0010
1996.00,-0.0009
1995.00,-0.0008
1994.00,-0.0008
1993.00,-0.0007
1992.00,-0.0007
1991.00,-0.0008
1990.00,-0.0009
1989.00,-0.0010
1988.00,-0.0010
1987.00,-0.0009
1986.00,-0.0007
1985.00,-0.0003
1984.00,0.0002
1983.00,0.0007
1982.00,0.0009
1981.00,0.0010
1980.00,0.0009
1979.00,0.0005
1978.00,-0.0002
1977.00,-0.0007
1976.00,-0.0009
1975.00,-0.0009
1974.00,-0.0008
1973.00,-0.0008
1972.00,-0.0010
1971.00,-0.0013
1970.00,-0.0018
1969.00,-0.0022
1968.00,-0.0024
1967.00,-0.0022
1966.00,-0.0019
1965.00,-0.0015
1964.00,-0.0012
1963.00,-0.0011
1962.00,-0.0012
1961.00,-0.0013
1960.00,-0.0015
1959.00,-0.0017
1958.00,-0.0018
1957.00,-0.0018
1956.00,-0.0017
1955.00,-0.0016
1954.00,-0.0015
1953.00,-0.0016
1952.00,-0.0016
1951.00,-0.0016
1950.00,-0.0016
1949.00,-0.0014
1948.00,-0.0013
1947.00,-0.0012
1946.00,-0.0012
1945.00,-0.0012
1944.00,-0.0011
1943.00,-0.0009
1942.00,-0.0008
1941.00,-0.0007
1940.00,-0.0006
1939.00,-0.0007
1938.00,-0.0008
1937.00,-0.0009
1936.00,-0.0009
1935.00,-0.0008
1934.00,-0.0007
1933.00,-0.0007
1932.00,-0.0007
1931.00,-0.0008
1930.00,-0.0008
1929.00,-0.0008
1928.00,-0.0008
1927.00,-0.0008
1926.00,-0.0008
1925.00,-0.0008
1924.00,-0.0008
1923.00,-0.0008
1922.00,-0.0007
1921.00,-0.0007
1920.00,-0.0006
1919.00,-0.0005
1918.00,-0.0005
1917.00,-0.0005
1916.00,-0.0005
1915.00,-0.0006
1914.00,-0.0006
1913.00,-0.0005
1912.00,-0.0005
1911.00,-0.0004
1910.00,-0.0003
1909.00,-0.0003
1908.00,-0.0003
1907.00,-0.0003
1906.00,-0.0005
1905.00,-0.0006
1904.00,-0.0006
1903.00,-0.0005
1902.00,-0.0004
1901.00,-0.0003
1900.00,-0.0002
1899.00,-0.0001
1898.00,-0.0001
1897.00,-0.0002
1896.00,-0.0002
1895.00,-0.0002
1894.00,-0.0002
1893.00,-0.0001
1892.00,-0.0001
1891.00,-0.0001
1890.00,-0.0001
1889.00,-0.0001
1888.00,-0.0001
1887.00,-0.0001
1886.00,-0.0001
1885.00,-0.0001
1884.00,0.0000
1883.00,0.0001
1882.00,0.0002
1881.00,0.0003
1880.00,0.0002
1879.00,0.0001
1878.00,0.0001
1877.00,0.0000
1876.00,-0.0000
1875.00,-0.0001
1874.00,-0.0001
1873.00,-0.0001
1872.00,-0.0001
1871.00,-0.0000
1870.00,0.0001
1869.00,0.0002
1868.00,0.0002
1867.00,0.0001
1866.00,-0.0000
1865.00,-0.0001
1864.00,-0.0001
1863.00,-0.0001
1862.00,-0.0001
1861.00,-0.0001
1860.00,-0.0001
1859.00,-0.0001
1858.00,0.0000
1857.00,0.0001
1856.00,0.0001
1855.00,0.0001
1854.00,0.0000
1853.00,0.0000
1852.00,0.0000
1851.00,0.0001
1850.00,0.0002
1849.00,0.0002
1848.00,0.0003
1847.00,0.0003
1846.00,0.0002
1845.00,0.0002
1844.00,0.0001
1843.00,0.0001
1842.00,0.0001
1841.00,0.0001
1840.00,0.0002
1839.00,0.0002
1838.00,0.0003
1837.00,0.0003
1836.00,0.0003
1835.00,0.0002
1834.00,0.0002
1833.00,0.0002
1832.00,0.0002
1831.00,0.0002
1830.00,0.0002
1829.00,0.0002
1828.00,0.0002
1827.00,0.0002
1826.00,0.0003
1825.00,0.0003
1824.00,0.0003
1823.00,0.0003
1822.00,0.0002
1821.00,0.0002
1820.00,0.0001
1819.00,0.0001
1818.00,0.0000
1817.00,-0.0000
1816.00,-0.0000
1815.00,-0.0000
1814.00,0.0000
1813.00,0.0001
1812.00,0.0001
1811.00,0.0002
1810.00,0.0003
1809.00,0.0003
1808.00,0.0003
1807.00,0.0003
1806.00,0.0004
1805.00,0.0004
1804.00,0.0004
1803.00,0.0004
1802.00,0.0004
1801.00,0.0004
1800.00,0.0004
1799.00,0.0005
1798.00,0.0005
1797.00,0.0006
1796.00,0.0006
1795.00,0.0005
1794.00,0.0005
1793.00,0.0005
1792.00,0.0006
1791.00,0.0006
1790.00,0.0007
1789.00,0.0008
1788.00,0.0008
1787.00,0.0008
1786.00,0.0008
1785.00,0.0007
1784.00,0.0007
1783.00,0.0006
1782.00,0.0006
1781.00,0.0007
1780.00,0.0007
1779.00,0.0007
1778.00,0.0007
1777.00,0.0008
1776.00,0.0008
1775.00,0.0009
1774.00,0.0010
1773.00,0.0010
1772.00,0.0011
1771.00,0.0010
1770.00,0.0010
1769.00,0.0010
1768.00,0.0010
1767.00,0.0010
1766.00,0.0009
1765.00,0.0009
1764.00,0.0009
1763.00,0.0009
1762.00,0.0010
1761.00,0.0010
1760.00,0.0011
1759.00,0.0011
1758.00,0.0011
1757.00,0.0012
1756.00,0.0012
1755.00,0.0013
1754.00,0.0013
1753.00,0.0014
1752.00,0.0015
1751.00,0.0015
1750.00,0.0016
1749.00,0.0017
1748.00,0.0018
1747.00,0.0018
1746.00,0.0018
1745.00,0.0018
1744.00,0.0019
1743.00,0.0019
1742.00,0.0019
1741.00,0.0019
1740.00,0.0020
1739.00,0.0020
1738.00,0.0021
1737.00,0.0021
1736.00,0.0021
1735.00,0.0021
1734.00,0.0021
1733.00,0.0021
1732.00,0.0021
1731.00,0.0021
1730.00,0.0022
1729.00,0.0022
1728.00,0.0023
1727.00,0.0023
1726.00,0.0023
1725.00,0.0023
1724.00,0.0024
1723.00,0.0024
1722.00,0.0024
1721.00,0.0024
1720.00,0.0023
1719.00,0.0021
1718.00,0.0020
1717.00,0.0019
1716.00,0.0019
1715.00,0.0020
1714.00,0.0020
1713.00,0.0021
1712.00,0.0021
1711.00,0.0022
1710.00,0.0022
1709.00,0.0022
1708.00,0.0022
1707.00,0.0022
1706.00,0.0022
1705.00,0.0022
1704.00,0.0022
1703.00,0.0023
1702.00,0.0024
1701.00,0.0025
1700.00,0.0025
1699.00,0.0025
1698.00,0.0025
1697.00,0.0025
1696.00,0.0026
1695.00,0.0026
1694.00,0.0026
1693.00,0.0026
1692.00,0.0026
1691.00,0.0027
1690.00,0.0027
1689.00,0.0028
1688.00,0.0028
1687.00,0.0029
1686.00,0.0029
1685.00,0.0029
1684.00,0.0030
1683.00,0.0030
1682.00,0.0031
1681.00,0.0032
1680.00,0.0032
1679.00,0.0033
1678.00,0.0033
1677.00,0.0034
1676.00,0.0035
1675.00,0.0035
1674.00,0.0036
1673.00,0.0037
1672.00,0.0037
1671.00,0.0037
1670.00,0.0037
1669.00,0.0037
1668.00,0.0038
1667.00,0.0038
1666.00,0.0039
1665.00,0.0039
1664.00,0.0039
1663.00,0.0040
1662.00,0.0040
1661.00,0.0041
1660.00,0.0042
1659.00,0.0042
1658.00,0.0042
1657.00,0.0043
1656.00,0.0043
1655.00,0.0044
1654.00,0.0045
1653.00,0.0047
1652.00,0.0048
1651.00,0.0048
1650.00,0.0049
1649.00,0.0051
1648.00,0.0053
1647.00,0.0055
1646.00,0.0057
1645.00,0.0057
1644.00,0.0056
1643.00,0.0056
1642.00,0.0056
1641.00,0.0056
1640.00,0.0057
1639.00,0.0057
1638.00,0.0056
1637.00,0.0056
1636.00,0.0056
1635.00,0.0055
1634.00,0.0054
1633.00,0.0054
1632.00,0.0054
1631.00,0.0054
1630.00,0.0053
1629.00,0.0053
1628.00,0.0053
1627.00,0.0053
1626.00,0.0052
1625.00,0.0052
1624.00,0.0051
1623.00,0.0050
1622.00,0.0049
1621.00,0.0049
1620.00,0.0048
1619.00,0.0048
1618.00,0.0047
1617.00,0.0047
1616.00,0.0047
1615.00,0.0047
1614.00,0.0047
1613.00,0.0047
1612.00,0.0047
1611.00,0.0047
1610.00,0.0046
1609.00,0.0046
1608.00,0.0046
1607.00,0.0046
1606.00,0.0046
1605.00,0.0047
1604.00,0.0047
1603.00,0.0046
1602.00,0.0046
1601.00,0.0046
1600.00,0.0045
1599.00,0.0045
1598.00,0.0045
1597.00,0.0045
1596.00,0.0046
1595.00,0.0045
1594.00,0.0045
1593.00,0.0045
1592.00,0.0045
1591.00,0.0045
1590.00,0.0045
1589.00,0.0046
1588.00,0.0046
1587.00,0.0047
1586.00,0.0047
1585.00,0.0048
1584.00,0.0049
1583.00,0.0050
1582.00,0.0052
1581.00,0.0053
1580.00,0.0054
1579.00,0.0055
1578.00,0.0055
1577.00,0.0055
1576.00,0.0055
1575.00,0.0055
1574.00,0.0054
1573.00,0.0055
1572.00,0.0055
1571.00,0.0054
1570.00,0.0054
1569.00,0.0053
1568.00,0.0054
1567.00,0.0054
1566.00,0.0054
1565.00,0.0054
1564.00,0.0054
1563.00,0.0054
1562.00,0.0054
1561.00,0.0054
1560.00,0.0055
1559.00,0.0055
1558.00,0.0055
1557.00,0.0056
1556.00,0.0057
1555.00,0.0058
1554.00,0.0058
1553.00,0.0058
1552.00,0.0058
1551.00,0.0059
1550.00,0.0059
1549.00,0.0060
1548.00,0.0061
1547.00,0.0062
1546.00,0.0063
1545.00,0.0064
1544.00,0.0065
1543.00,0.0065
1542.00,0.0064
1541.00,0.0064
1540.00,0.0063
1539.00,0.0061
1538.00,0.0059
1537.00,0.0059
1536.00,0.0058
1535.00,0.0057
1534.00,0.0054
1533.00,0.0052
1532.00,0.0051
1531.00,0.0050
1530.00,0.0050
1529.00,0.0050
1528.00,0.0049
1527.00,0.0049
1526.00,0.0048
1525.00,0.0048
1524.00,0.0048
1523.00,0.0048
1522.00,0.0048
1521.00,0.0049
1520.00,0.0050
1519.00,0.0050
1518.00,0.0050
1517.00,0.0051
1516.00,0.0052
1515.00,0.0052
1514.00,0.0052
1513.00,0.0053
1512.00,0.0054
1511.00,0.0054
1510.00,0.0055
1509.00,0.0056
1508.00,0.0057
1507.00,0.0058
1506.00,0.0058
1505.00,0.0059
1504.00,0.0061
1503.00,0.0063
1502.00,0.0065
1501.00,0.0067
1500.00,0.0070
1499.00,0.0072
1498.00,0.0073
1497.00,0.0076
1496.00,0.0080
1495.00,0.0083
1494.00,0.0085
1493.00,0.0088
1492.00,0.0093
1491.00,0.0097
1490.00,0.0101
1489.00,0.0107
1488.00,0.0112
1487.00,0.0116
1486.00,0.0121
1485.00,0.0127
1484.00,0.0134
1483.00,0.0142
1482.00,0.0151
1481.00,0.0162
1480.00,0.0175
1479.00,0.0188
1478.00,0.0204
1477.00,0.0225
1476.00,0.0252
1475.00,0.0284
1474.00,0.0326
1473.00,0.0386
1472.00,0.0456
1471.00,0.0523
1470.00,0.0587
1469.00,0.0656
1468.00,0.0730
1467.00,0.0812
1466.00,0.0907
1465.00,0.1010
1464.00,0.1100
1463.00,0.1160
1462.00,0.1196
1461.00,0.1218
1460.00,0.1230
1459.00,0.1235
1458.00,0.1234
1457.00,0.1230
1456.00,0.1219
1455.00,0.1203
1454.00,0.1185
1453.00,0.1161
1452.00,0.1127
1451.00,0.1082
1450.00,0.1024
1449.00,0.0947
1448.00,0.0854
1447.00,0.0757
1446.00,0.0673
1445.00,0.0603
1444.00,0.0545
1443.00,0.0497
1442.00,0.0462
1441.00,0.0439
1440.00,0.0426
1439.00,0.0423
1438.00,0.0429
1437.00,0.0436
1436.00,0.0431
1435.00,0.0409
1434.00,0.0373
1433.00,0.0329
1432.00,0.0281
1431.00,0.0239
1430.00,0.0206
1429.00,0.0182
1428.00,0.0165
1427.00,0.0155
1426.00,0.0148
1425.00,0.0142
1424.00,0.0136
1423.00,0.0133
1422.00,0.0132
1421.00,0.0130
1420.00,0.0127
1419.00,0.0125
1418.00,0.0123
1417.00,0.0121
1416.00,0.0119
1415.00,0.0118
1414.00,0.0118
1413.00,0.0118
1412.00,0.0116
1411.00,0.0116
1410.00,0.0116
1409.00,0.0116
1408.00,0.0116
1407.00,0.0117
1406.00,0.0118
1405.00,0.0120
1404.00,0.0121
1403.00,0.0123
1402.00,0.0126
1401.00,0.0128
1400.00,0.0130
1399.00,0.0133
1398.00,0.0137
1397.00,0.0141
1396.00,0.0144
1395.00,0.0149
1394.00,0.0155
1393.00,0.0161
1392.00,0.0166
1391.00,0.0174
1390.00,0.0185
1389.00,0.0199
1388.00,0.0220
1387.00,0.0251
1386.00,0.0294
1385.00,0.0350
1384.00,0.0430
1383.00,0.0544
1382.00,0.0702
1381.00,0.0913
1380.00,0.1180
1379.00,0.1490
1378.00,0.1794
1377.00,0.2019
1376.00,0.2097
1375.00,0.1989
1374.00,0.1728
1373.00,0.1416
1372.00,0.1134
1371.00,0.0905
1370.00,0.0723
1369.00,0.0586
1368.00,0.0492
1367.00,0.0434
1366.00,0.0403
1365.00,0.0390
1364.00,0.0392
1363.00,0.0407
1362.00,0.0431
1361.00,0.0457
1360.00,0.0477
1359.00,0.0483
1358.00,0.0472
1357.00,0.0445
1356.00,0.0405
1355.00,0.0361
1354.00,0.0318
1353.00,0.0281
1352.00,0.0251
1351.00,0.0227
1350.00,0.0207
1349.00,0.0191
1348.00,0.0177
1347.00,0.0166
1346.00,0.0157
1345.00,0.0149
1344.00,0.0143
1343.00,0.0138
1342.00,0.0133
1341.00,0.0129
1340.00,0.0126
1339.00,0.0124
1338.00,0.0122
1337.00,0.0122
1336.00,0.0123
1335.00,0.0126
1334.00,0.0130
1333.00,0.0134
1332.00,0.0140
1331.00,0.0143
1330.00,0.0144
1329.00,0.0143
1328.00,0.0139
1327.00,0.0133
1326.00,0.0126
1325.00,0.0119
1324.00,0.0112
1323.00,0.0106
1322.00,0.0102
1321.00,0.0098
1320.00,0.0096
1319.00,0.0094
1318.00,0.0092
1317.00,0.0090
1316.00,0.0089
1315.00,0.0088
1314.00,0.0088
1313.00,0.0089
1312.00,0.0090
1311.00,0.0091
1310.00,0.0094
1309.00,0.0098
1308.00,0.0104
1307.00,0.0112
1306.00,0.0119
1305.00,0.0124
1304.00,0.0126
1303.00,0.0125
1302.00,0.0123
1301.00,0.0123
1300.00,0.0124
1299.00,0.0127
1298.00,0.0129
1297.00,0.0131
1296.00,0.0131
1295.00,0.0129
1294.00,0.0125
1293.00,0.0120
1292.00,0.0114
1291.00,0.0108
1290.00,0.0103
1289.00,0.0099
1288.00,0.0096
1287.00,0.0094
1286.00,0.0092
1285.00,0.0089
1284.00,0.0087
1283.00,0.0086
1282.00,0.0085
1281.00,0.0085
1280.00,0.0085
1279.00,0.0085
1278.00,0.0084
1277.00,0.0084
1276.00,0.0085
1275.00,0.0085
1274.00,0.0086
1273.00,0.0087
1272.00,0.0089
1271.00,0.0090
1270.00,0.0093
1269.00,0.0095
1268.00,0.0099
1267.00,0.0102
1266.00,0.0106
1265.00,0.0110
1264.00,0.0113
1263.00,0.0116
1262.00,0.0118
1261.00,0.0121
1260.00,0.0124
1259.00,0.0128
1258.00,0.0131
1257.00,0.0134
1256.00,0.0134
1255.00,0.0132
1254.00,0.0128
1253.00,0.0122
1252.00,0.0117
1251.00,0.0112
1250.00,0.0108
1249.00,0.0105
1248.00,0.0102
1247.00,0.0099
1246.00,0.0097
1245.00,0.0095
1244.00,0.0093
1243.00,0.0092
1242.00,0.0091
1241.00,0.0091
1240.00,0.0090
1239.00,0.0089
1238.00,0.0088
1237.00,0.0088
1236.00,0.0087
1235.00,0.0087
1234.00,0.0086
1233.00,0.0086
1232.00,0.0087
1231.00,0.0087
1230.00,0.0087
1229.00,0.0087
1228.00,0.0087
1227.00,0.0088
1226.00,0.0089
1225.00,0.0092
1224.00,0.0095
1223.00,0.0099
1222.00,0.0104
1221.00,0.0107
1220.00,0.0109
1219.00,0.0110
1218.00,0.0108
1217.00,0.0105
1216.00,0.0101
1215.00,0.0097
1214.00,0.0093
1213.00,0.0090
1212.00,0.0088
1211.00,0.0086
1210.00,0.0083
1209.00,0.0081
1208.00,0.0079
1207.00,0.0078
1206.00,0.0078
1205.00,0.0077
1204.00,0.0077
1203.00,0.0076
1202.00,0.0075
1201.00,0.0075
1200.00,0.0075
1199.00,0.0075
1198.00,0.0076
1197.00,0.0076
1196.00,0.0077
1195.00,0.0078
1194.00,0.0078
1193.00,0.0078
1192.00,0.0078
1191.00,0.0078
1190.00,0.0079
1189.00,0.0079
1188.00,0.0080
1187.00,0.0081
1186.00,0.0082
1185.00,0.0084
1184.00,0.0086
1183.00,0.0088
1182.00,0.0090
1181.00,0.0092
1180.00,0.0095
1179.00,0.0099
1178.00,0.0105
1177.00,0.0112
1176.00,0.0120
1175.00,0.0131
1174.00,0.0145
1173.00,0.0162
1172.00,0.0181
1171.00,0.0203
1170.00,0.0224
1169.00,0.0241
1168.00,0.0252
1167.00,0.0255
1166.00,0.0253
1165.00,0.0246
1164.00,0.0238
1163.00,0.0229
1162.00,0.0222
1161.00,0.0216
1160.00,0.0213
1159.00,0.0211
1158.00,0.0211
1157.00,0.0211
1156.00,0.0212
1155.00,0.0212
1154.00,0.0212
1153.00,0.0211
1152.00,0.0207
1151.00,0.0202
1150.00,0.0195
1149.00,0.0186
1148.00,0.0176
1147.00,0.0167
1146.00,0.0158
1145.00,0.0150
1144.00,0.0142
1143.00,0.0136
1142.00,0.0130
1141.00,0.0125
1140.00,0.0120
1139.00,0.0116
1138.00,0.0112
1137.00,0.0110
1136.00,0.0107
1135.00,0.0105
1134.00,0.0103
1133.00,0.0101
1132.00,0.0100
1131.00,0.0100
1130.00,0.0100
1129.00,0.0100
1128.00,0.0100
1127.00,0.0100
1126.00,0.0100
1125.00,0.0100
1124.00,0.0100
1123.00,0.0100
1122.00,0.0101
1121.00,0.0102
1120.00,0.0102
1119.00,0.0103
1118.00,0.0104
1117.00,0.0104
1116.00,0.0106
1115.00,0.0108
1114.00,0.0110
1113.00,0.0112
1112.00,0.0114
1111.00,0.0116
1110.00,0.0119
1109.00,0.0122
1108.00,0.0127
1107.00,0.0134
1106.00,0.0142
1105.00,0.0150
1104.00,0.0156
1103.00,0.0160
1102.00,0.0160
1101.00,0.0157
1100.00,0.0151
1099.00,0.0143
1098.00,0.0136
1097.00,0.0130
1096.00,0.0126
1095.00,0.0123
1094.00,0.0121
1093.00,0.0119
1092.00,0.0117
1091.00,0.0116
1090.00,0.0115
1089.00,0.0113
1088.00,0.0112
1087.00,0.0111
1086.00,0.0111
1085.00,0.0112
1084.00,0.0113
1083.00,0.0113
1082.00,0.0112
1081.00,0.0110
1080.00,0.0108
1079.00,0.0107
1078.00,0.0106
1077.00,0.0106
1076.00,0.0105
1075.00,0.0105
1074.00,0.0105
1073.00,0.0105
1072.00,0.0105
1071.00,0.0105
1070.00,0.0105
1069.00,0.0104
1068.00,0.0103
1067.00,0.0101
1066.00,0.0100
1065.00,0.0099
1064.00,0.0099
1063.00,0.0100
1062.00,0.0100
1061.00,0.0100
1060.00,0.0101
1059.00,0.0101
1058.00,0.0101
1057.00,0.0101
1056.00,0.0102
1055.00,0.0104
1054.00,0.0106
1053.00,0.0108
1052.00,0.0110
1051.00,0.0113
1050.00,0.0115
1049.00,0.0118
1048.00,0.0121
1047.00,0.0125
1046.00,0.0128
1045.00,0.0130
1044.00,0.0131
1043.00,0.0130
1042.00,0.0129
1041.00,0.0127
1040.00,0.0125
1039.00,0.0124
1038.00,0.0123
1037.00,0.0123
1036.00,0.0122
1035.00,0.0121
1034.00,0.0120
1033.00,0.0119
1032.00,0.0118
1031.00,0.0118
1030.00,0.0119
1029.00,0.0119
1028.00,0.0119
1027.00,0.0119
1026.00,0.0120
1025.00,0.0121
1024.00,0.0123
1023.00,0.0126
1022.00,0.0129
1021.00,0.0131
1020.00,0.0132
1019.00,0.0133
1018.00,0.0133
1017.00,0.0133
1016.00,0.0133
1015.00,0.0133
1014.00,0.0132
1013.00,0.0132
1012.00,0.0131
1011.00,0.0130
1010.00,0.0129
1009.00,0.0128
1008.00,0.0129
1007.00,0.0130
1006.00,0.0134
1005.00,0.0140
1004.00,0.0148
1003.00,0.0161
1002.00,0.0179
1001.00,0.0202
1000.00,0.0227
999.00,0.0246
998.00,0.0254
997.00,0.0248
996.00,0.0229
995.00,0.0204
994.00,0.0178
993.00,0.0156
992.00,0.0138
991.00,0.0126
990.00,0.0117
989.00,0.0112
988.00,0.0108
987.00,0.0106
986.00,0.0106
985.00,0.0108
984.00,0.0112
983.00,0.0118
982.00,0.0127
981.00,0.0140
980.00,0.0158
979.00,0.0182
978.00,0.0210
977.00,0.0243
976.00,0.0276
975.00,0.0305
974.00,0.0325
973.00,0.0329
972.00,0.0317
971.00,0.0290
970.00,0.0257
969.00,0.0225
968.00,0.0196
967.00,0.0174
966.00,0.0158
965.00,0.0146
964.00,0.0137
963.00,0.0130
962.00,0.0124
961.00,0.0120
960.00,0.0117
959.00,0.0116
958.00,0.0115
957.00,0.0114
956.00,0.0112
955.00,0.0111
954.00,0.0110
953.00,0.0109
952.00,0.0109
951.00,0.0107
950.00,0.0105
949.00,0.0104
948.00,0.0103
947.00,0.0103
946.00,0.0103
945.00,0.0105
944.00,0.0109
943.00,0.0114
942.00,0.0119
941.00,0.0121
940.00,0.0120
939.00,0.0116
938.00,0.0110
937.00,0.0102
936.00,0.0095
935.00,0.0090
934.00,0.0086
933.00,0.0083
932.00,0.0080
931.00,0.0077
930.00,0.0074
929.00,0.0071
928.00,0.0069
927.00,0.0067
926.00,0.0066
925.00,0.0066
924.00,0.0066
923.00,0.0066
922.00,0.0066
921.00,0.0066
920.00,0.0064
919.00,0.0062
918.00,0.0062
917.00,0.0063
916.00,0.0064
915.00,0.0065
914.00,0.0066
913.00,0.0067
912.00,0.0068
911.00,0.0070
910.00,0.0072
909.00,0.0074
908.00,0.0079
907.00,0.0085
906.00,0.0094
905.00,0.0106
904.00,0.0121
903.00,0.0141
902.00,0.0162
901.00,0.0181
900.00,0.0194
899.00,0.0196
898.00,0.0187
897.00,0.0168
896.00,0.0146
895.00,0.0124
894.00,0.0107
893.00,0.0096
892.00,0.0089
891.00,0.0084
890.00,0.0081
889.00,0.0078
888.00,0.0076
887.00,0.0074
886.00,0.0074
885.00,0.0073
884.00,0.0073
883.00,0.0072
882.00,0.0071
881.00,0.0071
880.00,0.0071
879.00,0.0071
878.00,0.0072
877.00,0.0072
876.00,0.0071
875.00,0.0071
874.00,0.0072
873.00,0.0072
872.00,0.0073
871.00,0.0074
870.00,0.0075
869.00,0.0075
868.00,0.0074
867.00,0.0074
866.00,0.0075
865.00,0.0076
864.00,0.0077
863.00,0.0077
862.00,0.0078
861.00,0.0078
860.00,0.0079
859.00,0.0080
858.00,0.0081
857.00,0.0083
856.00,0.0084
855.00,0.0085
854.00,0.0087
853.00,0.0089
852.00,0.0091
851.00,0.0093
850.00,0.0095
849.00,0.0099
848.00,0.0105
847.00,0.0112
846.00,0.0125
845.00,0.0144
844.00,0.0172
843.00,0.0203
842.00,0.0228
841.00,0.0235
840.00,0.0221
839.00,0.0193
838.00,0.0163
837.00,0.0139
836.00,0.0124
835.00,0.0114
834.00,0.0108
833.00,0.0104
832.00,0.0102
831.00,0.0100
830.00,0.0100
829.00,0.0100
828.00,0.0101
827.00,0.0102
826.00,0.0103
825.00,0.0103
824.00,0.0104
823.00,0.0105
822.00,0.0106
821.00,0.0109
820.00,0.0112
819.00,0.0116
818.00,0.0122
817.00,0.0129
816.00,0.0139
815.00,0.0152
814.00,0.0169
813.00,0.0190
812.00,0.0215
811.00,0.0238
810.00,0.0256
809.00,0.0263
808.00,0.0258
807.00,0.0241
806.00,0.0218
805.00,0.0195
804.00,0.0174
803.00,0.0158
802.00,0.0145
801.00,0.0135
800.00,0.0128
799.00,0.0123
798.00,0.0118
797.00,0.0113
796.00,0.0108
795.00,0.0103
794.00,0.0099
793.00,0.0096
792.00,0.0093
791.00,0.0090
790.00,0.0087
789.00,0.0083
788.00,0.0079
787.00,0.0076
786.00,0.0073
785.00,0.0072
784.00,0.0071
783.00,0.0070
782.00,0.0069
781.00,0.0068
780.00,0.0067
779.00,0.0067
778.00,0.0067
777.00,0.0067
776.00,0.0067
775.00,0.0066
774.00,0.0065
773.00,0.0065
772.00,0.0065
771.00,0.0065
770.00,0.0065
769.00,0.0065
768.00,0.0066
767.00,0.0067
766.00,0.0067
765.00,0.0066
764.00,0.0064
763.00,0.0063
762.00,0.0062
761.00,0.0061
760.00,0.0061
759.00,0.0062
758.00,0.0064
757.00,0.0065
756.00,0.0066
755.00,0.0068
754.00,0.0070
753.00,0.0072
752.00,0.0074
751.00,0.0077
750.00,0.0079
749.00,0.0080
748.00,0.0081
747.00,0.0081
746.00,0.0082
745.00,0.0084
744.00,0.0086
743.00,0.0089
742.00,0.0092
741.00,0.0097
740.00,0.0101
739.00,0.0105
738.00,0.0108
737.00,0.0112
736.00,0.0116
735.00,0.0120
734.00,0.0125
733.00,0.0131
732.00,0.0137
731.00,0.0143
730.00,0.0148
729.00,0.0151
728.00,0.0154
727.00,0.0156
726.00,0.0160
725.00,0.0164
724.00,0.0168
723.00,0.0173
722.00,0.0179
721.00,0.0182
720.00,0.0179
719.00,0.0170
718.00,0.0156
717.00,0.0142
716.00,0.0130
715.00,0.0123
714.00,0.0118
713.00,0.0114
712.00,0.0110
711.00,0.0106
710.00,0.0104
709.00,0.0103
708.00,0.0102
707.00,0.0102
706.00,0.0102
705.00,0.0102
704.00,0.0101
703.00,0.0101
702.00,0.0100
701.00,0.0098
700.00,0.0096
699.00,0.0094
698.00,0.0094
697.00,0.0095
696.00,0.0097
695.00,0.0098
694.00,0.0098
693.00,0.0098
692.00,0.0096
691.00,0.0094
690.00,0.0093
689.00,0.0094
688.00,0.0095
687.00,0.0096
686.00,0.0097
685.00,0.0096
684.00,0.0095
683.00,0.0095
682.00,0.0095
681.00,0.0095
680.00,0.0095
679.00,0.0094
678.00,0.0094
677.00,0.0094
676.00,0.0095
675.00,0.0096
674.00,0.0100
673.00,0.0104
672.00,0.0107
671.00,0.0108
670.00,0.0107
669.00,0.0105
668.00,0.0102
667.00,0.0100
666.00,0.0097
665.00,0.0095
664.00,0.0093
663.00,0.0092
662.00,0.0091
661.00,0.0090
660.00,0.0089
659.00,0.0089
658.00,0.0089
657.00,0.0090
656.00,0.0091
655.00,0.0091
654.00,0.0089
653.00,0.0087
652.00,0.0085
651.00,0.0084
650.00,0.0084
649.00,0.0085
648.00,0.0086
647.00,0.0087
646.00,0.0087
645.00,0.0087
644.00,0.0087
643.00,0.0085
642.00,0.0084
641.00,0.0082
640.00,0.0080
639.00,0.0078
638.00,0.0077
637.00,0.0079
636.00,0.0082
635.00,0.0085
634.00,0.0087
633.00,0.0088
632.00,0.0088
631.00,0.0087
630.00,0.0085
629.00,0.0084
628.00,0.0086
627.00,0.0089
626.00,0.0090
625.00,0.0089
624.00,0.0085
623.00,0.0083
622.00,0.0082
621.00,0.0081
620.00,0.0080
619.00,0.0079
618.00,0.0077
617.00,0.0076
616.00,0.0075
615.00,0.0075
614.00,0.0075
613.00,0.0076
612.00,0.0077
611.00,0.0078
610.00,0.0080
609.00,0.0081
608.00,0.0081
607.00,0.0082
606.00,0.0083
605.00,0.0085
604.00,0.0085
603.00,0.0084
602.00,0.0081
601.00,0.0077
600.00,0.0075
599.00,0.0076
598.00,0.0079
597.00,0.0082
596.00,0.0081
595.00,0.0079
594.00,0.0078
593.00,0.0078
592.00,0.0079
591.00,0.0078
590.00,0.0076
589.00,0.0073
588.00,0.0072
587.00,0.0071
586.00,0.0073
585.00,0.0075
584.00,0.0078
583.00,0.0081
582.00,0.0081
581.00,0.0081
580.00,0.0080
579.00,0.0079
578.00,0.0078
577.00,0.0078
576.00,0.0079
575.00,0.0079
574.00,0.0079
573.00,0.0077
572.00,0.0077
571.00,0.0078
570.00,0.0079
569.00,0.0079
568.00,0.0078
567.00,0.0077
566.00,0.0074
565.00,0.0072
564.00,0.0071
563.00,0.0072
562.00,0.0075
561.00,0.0079
560.00,0.0082
559.00,0.0084
558.00,0.0084
557.00,0.0084
556.00,0.0085
555.00,0.0086
554.00,0.0085
553.00,0.0082
552.00,0.0077
551.00,0.0073
550.00,0.0073
549.00,0.0077
548.00,0.0083
547.00,0.0090
546.00,0.0094
545.00,0.0095
544.00,0.0093
543.00,0.0093
542.00,0.0094
541.00,0.0097
540.00,0.0100
539.00,0.0102
538.00,0.0104
537.00,0.0105
536.00,0.0107
535.00,0.0110
534.00,0.0115
533.00,0.0119
532.00,0.0121
531.00,0.0119
530.00,0.0117
529.00,0.0114
528.00,0.0112
527.00,0.0108
526.00,0.0106
525.00,0.0106
524.00,0.0107
523.00,0.0107
522.00,0.0103
521.00,0.0094
520.00,0.0084
519.00,0.0078
518.00,0.0079
517.00,0.0082
516.00,0.0083
515.00,0.0080
514.00,0.0077
513.00,0.0076
512.00,0.0079
511.00,0.0083
510.00,0.0085
509.00,0.0083
508.00,0.0081
507.00,0.0083
506.00,0.0088
505.00,0.0093
504.00,0.0094
503.00,0.0090
502.00,0.0084
501.00,0.0078
500.00,0.0074
499.00,0.0071
498.00,0.0068
497.00,0.0068
496.00,0.0072
495.00,0.0079
494.00,0.0086
493.00,0.0091
492.00,0.0093
491.00,0.0093
490.00,0.0093
489.00,0.0091
488.00,0.0088
487.00,0.0087
486.00,0.0087
485.00,0.0088
484.00,0.0090
483.00,0.0093
482.00,0.0098
481.00,0.0102
480.00,0.0103
479.00,0.0101
478.00,0.0099
477.00,0.0096
476.00,0.0096
475.00,0.0100
474.00,0.0111
473.00,0.0125
472.00,0.0137
471.00,0.0143
470.00,0.0145
469.00,0.0144
468.00,0.0144
467.00,0.0146
466.00,0.0154
465.00,0.0166
464.00,0.0179
463.00,0.0191
462.00,0.0198
461.00,0.0202
460.00,0.0200
459.00,0.0193
458.00,0.0183
457.00,0.0176
456.00,0.0173
455.00,0.0173
454.00,0.0170
453.00,0.0164
452.00,0.0158
451.00,0.0157
450.00,0.0160
