Created as New Dataset,Sample 249 By Administrator Date Wednesday, September 03 2025
cm-1,A
4000.00,0.0009
3999.00,0.0009
3998.00,0.0009
3997.00,0.0009
3996.00,0.0009
3995.00,0.0010
3994.00,0.0010
3993.00,0.0010
3992.00,0.0010
3991.00,0.0010
3990.00,0.0009
3989.00,0.0009
3988.00,0.0009
3987.00,0.0008
3986.00,0.0008
3985.00,0.0008
3984.00,0.0008
3983.00,0.0008
3982.00,0.0008
3981.00,0.0008
3980.00,0.0008
3979.00,0.0009
3978.00,0.0008
3977.00,0.0008
3976.00,0.0008
3975.00,0.0007
3974.00,0.0007
3973.00,0.0007
3972.00,0.0007
3971.00,0.0007
3970.00,0.0008
3969.00,0.0008
3968.00,0.0008
3967.00,0.0008
3966.00,0.0008
3965.00,0.0008
3964.00,0.0008
3963.00,0.0007
3962.00,0.0007
3961.00,0.0007
3960.00,0.0007
3959.00,0.0007
3958.00,0.0007
3957.00,0.0007
3956.00,0.0007
3955.00,0.0007
3954.00,0.0007
3953.00,0.0008
3952.00,0.0008
3951.00,0.0008
3950.00,0.0007
3949.00,0.0007
3948.00,0.0007
3947.00,0.0007
3946.00,0.0007
3945.00,0.0007
3944.00,0.0008
3943.00,0.0008
3942.00,0.0008
3941.00,0.0008
3940.00,0.0008
3939.00,0.0008
3938.00,0.0008
3937.00,0.0008
3936.00,0.0008
3935.00,0.0008
3934.00,0.0008
3933.00,0.0008
3932.00,0.0008
3931.00,0.0008
3930.00,0.0007
3929.00,0.0008
3928.00,0.0008
3927.00,0.0008
3926.00,0.0008
3925.00,0.0007
3924.00,0.0007
3923.00,0.0007
3922.00,0.0008
3921.00,0.0008
3920.00,0.0008
3919.00,0.0008
3918.00,0.0007
3917.00,0.0007
3916.00,0.0007
3915.00,0.0007
3914.00,0.0007
3913.00,0.0007
3912.00,0.0007
3911.00,0.0007
3910.00,0.0007
3909.00,0.0007
3908.00,0.0007
3907.00,0.0008
3906.00,0.0008
3905.00,0.0008
3904.00,0.0008
3903.00,0.0008
3902.00,0.0008
3901.00,0.0007
3900.00,0.0007
3899.00,0.0007
3898.00,0.0007
3897.00,0.0007
3896.00,0.0007
3895.00,0.0007
3894.00,0.0007
3893.00,0.0007
3892.00,0.0007
3891.00,0.0007
3890.00,0.0007
3889.00,0.0008
3888.00,0.0007
3887.00,0.0007
3886.00,0.0007
3885.00,0.0006
3884.00,0.0006
3883.00,0.0006
3882.00,0.0006
3881.00,0.0006
3880.00,0.0006
3879.00,0.0007
3878.00,0.0007
3877.00,0.0007
3876.00,0.0007
3875.00,0.0007
3874.00,0.0007
3873.00,0.0007
3872.00,0.0007
3871.00,0.0006
3870.00,0.0006
3869.00,0.0007
3868.00,0.0007
3867.00,0.0007
3866.00,0.0007
3865.00,0.0007
3864.00,0.0007
3863.00,0.0006
3862.00,0.0006
3861.00,0.0005
3860.00,0.0005
3859.00,0.0005
3858.00,0.0005
3857.00,0.0005
3856.00,0.0004
3855.00,0.0004
3854.00,0.0004
3853.00,0.0005
3852.00,0.0005
3851.00,0.0005
3850.00,0.0005
3849.00,0.0005
3848.00,0.0006
3847.00,0.0006
3846.00,0.0006
3845.00,0.0006
3844.00,0.0006
3843.00,0.0006
3842.00,0.0006
3841.00,0.0005
3840.00,0.0005
3839.00,0.0005
3838.00,0.0006
3837.00,0.0006
3836.00,0.0006
3835.00,0.0006
3834.00,0.0006
3833.00,0.0007
3832.00,0.0007
3831.00,0.0007
3830.00,0.0007
3829.00,0.0007
3828.00,0.0007
3827.00,0.0007
3826.00,0.0006
3825.00,0.0006
3824.00,0.0006
3823.00,0.0005
3822.00,0.0005
3821.00,0.0005
3820.00,0.0006
3819.00,0.0005
3818.00,0.0005
3817.00,0.0005
3816.00,0.0005
3815.00,0.0006
3814.00,0.0006
3813.00,0.0006
3812.00,0.0006
3811.00,0.0007
3810.00,0.0007
3809.00,0.0007
3808.00,0.0007
3807.00,0.0007
3806.00,0.0007
3805.00,0.0007
3804.00,0.0006
3803.00,0.0005
3802.00,0.0005
3801.00,0.0006
3800.00,0.0006
3799.00,0.0006
3798.00,0.0006
3797.00,0.0006
3796.00,0.0006
3795.00,0.0006
3794.00,0.0005
3793.00,0.0005
3792.00,0.0006
3791.00,0.0006
3790.00,0.0007
3789.00,0.0007
3788.00,0.0007
3787.00,0.0006
3786.00,0.0006
3785.00,0.0007
3784.00,0.0007
3783.00,0.0007
3782.00,0.0007
3781.00,0.0006
3780.00,0.0006
3779.00,0.0006
3778.00,0.0006
3777.00,0.0007
3776.00,0.0007
3775.00,0.0007
3774.00,0.0007
3773.00,0.0007
3772.00,0.0007
3771.00,0.0007
3770.00,0.0007
3769.00,0.0007
3768.00,0.0007
3767.00,0.0007
3766.00,0.0007
3765.00,0.0007
3764.00,0.0007
3763.00,0.0007
3762.00,0.0007
3761.00,0.0007
3760.00,0.0007
3759.00,0.0006
3758.00,0.0006
3757.00,0.0006
3756.00,0.0006
3755.00,0.0006
3754.00,0.0006
3753.00,0.0006
3752.00,0.0006
3751.00,0.0006
3750.00,0.0006
3749.00,0.0006
3748.00,0.0006
3747.00,0.0006
3746.00,0.0006
3745.00,0.0007
3744.00,0.0007
3743.00,0.0007
3742.00,0.0007
3741.00,0.0007
3740.00,0.0007
3739.00,0.0007
3738.00,0.0006
3737.00,0.0006
3736.00,0.0006
3735.00,0.0006
3734.00,0.0006
3733.00,0.0006
3732.00,0.0006
3731.00,0.0006
3730.00,0.0006
3729.00,0.0006
3728.00,0.0006
3727.00,0.0007
3726.00,0.0006
3725.00,0.0006
3724.00,0.0005
3723.00,0.0005
3722.00,0.0005
3721.00,0.0005
3720.00,0.0005
3719.00,0.0005
3718.00,0.0005
3717.00,0.0005
3716.00,0.0005
3715.00,0.0005
3714.00,0.0005
3713.00,0.0005
3712.00,0.0005
3711.00,0.0006
3710.00,0.0005
3709.00,0.0005
3708.00,0.0005
3707.00,0.0005
3706.00,0.0005
3705.00,0.0006
3704.00,0.0006
3703.00,0.0007
3702.00,0.0007
3701.00,0.0006
3700.00,0.0006
3699.00,0.0006
3698.00,0.0006
3697.00,0.0006
3696.00,0.0006
3695.00,0.0006
3694.00,0.0006
3693.00,0.0005
3692.00,0.0005
3691.00,0.0004
3690.00,0.0004
3689.00,0.0004
3688.00,0.0004
3687.00,0.0004
3686.00,0.0005
3685.00,0.0005
3684.00,0.0006
3683.00,0.0006
3682.00,0.0007
3681.00,0.0007
3680.00,0.0007
3679.00,0.0007
3678.00,0.0007
3677.00,0.0006
3676.00,0.0006
3675.00,0.0006
3674.00,0.0006
3673.00,0.0006
3672.00,0.0005
3671.00,0.0005
3670.00,0.0005
3669.00,0.0005
3668.00,0.0006
3667.00,0.0006
3666.00,0.0006
3665.00,0.0006
3664.00,0.0006
3663.00,0.0006
3662.00,0.0006
3661.00,0.0006
3660.00,0.0006
3659.00,0.0006
3658.00,0.0006
3657.00,0.0007
3656.00,0.0007
3655.00,0.0007
3654.00,0.0007
3653.00,0.0007
3652.00,0.0006
3651.00,0.0006
3650.00,0.0007
3649.00,0.0007
3648.00,0.0007
3647.00,0.0007
3646.00,0.0008
3645.00,0.0008
3644.00,0.0008
3643.00,0.0007
3642.00,0.0007
3641.00,0.0007
3640.00,0.0007
3639.00,0.0008
3638.00,0.0008
3637.00,0.0008
3636.00,0.0008
3635.00,0.0008
3634.00,0.0008
3633.00,0.0009
3632.00,0.0008
3631.00,0.0008
3630.00,0.0008
3629.00,0.0008
3628.00,0.0008
3627.00,0.0008
3626.00,0.0008
3625.00,0.0009
3624.00,0.0009
3623.00,0.0010
3622.00,0.0010
3621.00,0.0010
3620.00,0.0010
3619.00,0.0009
3618.00,0.0009
3617.00,0.0009
3616.00,0.0009
3615.00,0.0009
3614.00,0.0010
3613.00,0.0010
3612.00,0.0010
3611.00,0.0010
3610.00,0.0010
3609.00,0.0011
3608.00,0.0011
3607.00,0.0012
3606.00,0.0012
3605.00,0.0012
3604.00,0.0012
3603.00,0.0012
3602.00,0.0012
3601.00,0.0012
3600.00,0.0012
3599.00,0.0012
3598.00,0.0013
3597.00,0.0013
3596.00,0.0013
3595.00,0.0013
3594.00,0.0013
3593.00,0.0013
3592.00,0.0013
3591.00,0.0013
3590.00,0.0013
3589.00,0.0014
3588.00,0.0014
3587.00,0.0014
3586.00,0.0014
3585.00,0.0014
3584.00,0.0014
3583.00,0.0015
3582.00,0.0015
3581.00,0.0015
3580.00,0.0015
3579.00,0.0015
3578.00,0.0015
3577.00,0.0015
3576.00,0.0015
3575.00,0.0016
3574.00,0.0016
3573.00,0.0017
3572.00,0.0017
3571.00,0.0017
3570.00,0.0018
3569.00,0.0018
3568.00,0.0018
3567.00,0.0018
3566.00,0.0018
3565.00,0.0018
3564.00,0.0019
3563.00,0.0019
3562.00,0.0019
3561.00,0.0019
3560.00,0.0020
3559.00,0.0020
3558.00,0.0020
3557.00,0.0021
3556.00,0.0021
3555.00,0.0021
3554.00,0.0020
3553.00,0.0020
3552.00,0.0021
3551.00,0.0021
3550.00,0.0022
3549.00,0.0022
3548.00,0.0023
3547.00,0.0024
3546.00,0.0024
3545.00,0.0025
3544.00,0.0025
3543.00,0.0025
3542.00,0.0025
3541.00,0.0025
3540.00,0.0025
3539.00,0.0025
3538.00,0.0025
3537.00,0.0026
3536.00,0.0026
3535.00,0.0026
3534.00,0.0026
3533.00,0.0026
3532.00,0.0026
3531.00,0.0027
3530.00,0.0027
3529.00,0.0028
3528.00,0.0028
3527.00,0.0028
3526.00,0.0029
3525.00,0.0029
3524.00,0.0029
3523.00,0.0029
3522.00,0.0030
3521.00,0.0030
3520.00,0.0030
3519.00,0.0030
3518.00,0.0031
3517.00,0.0031
3516.00,0.0031
3515.00,0.0032
3514.00,0.0032
3513.00,0.0032
3512.00,0.0032
3511.00,0.0032
3510.00,0.0033
3509.00,0.0033
3508.00,0.0033
3507.00,0.0033
3506.00,0.0034
3505.00,0.0034
3504.00,0.0034
3503.00,0.0035
3502.00,0.0035
3501.00,0.0036
3500.00,0.0036
3499.00,0.0037
3498.00,0.0037
3497.00,0.0037
3496.00,0.0037
3495.00,0.0037
3494.00,0.0037
3493.00,0.0038
3492.00,0.0038
3491.00,0.0039
3490.00,0.0039
3489.00,0.0039
3488.00,0.0040
3487.00,0.0040
3486.00,0.0040
3485.00,0.0040
3484.00,0.0040
3483.00,0.0039
3482.00,0.0040
3481.00,0.0040
3480.00,0.0041
3479.00,0.0042
3478.00,0.0042
3477.00,0.0043
3476.00,0.0043
3475.00,0.0043
3474.00,0.0043
3473.00,0.0044
3472.00,0.0044
3471.00,0.0044
3470.00,0.0045
3469.00,0.0045
3468.00,0.0045
3467.00,0.0044
3466.00,0.0044
3465.00,0.0044
3464.00,0.0044
3463.00,0.0045
3462.00,0.0046
3461.00,0.0046
3460.00,0.0047
3459.00,0.0047
3458.00,0.0048
3457.00,0.0048
3456.00,0.0048
3455.00,0.0048
3454.00,0.0048
3453.00,0.0048
3452.00,0.0048
3451.00,0.0049
3450.00,0.0049
3449.00,0.0049
3448.00,0.0049
3447.00,0.0049
3446.00,0.0049
3445.00,0.0049
3444.00,0.0050
3443.00,0.0050
3442.00,0.0051
3441.00,0.0051
3440.00,0.0051
3439.00,0.0052
3438.00,0.0052
3437.00,0.0052
3436.00,0.0053
3435.00,0.0053
3434.00,0.0053
3433.00,0.0053
3432.00,0.0053
3431.00,0.0053
3430.00,0.0053
3429.00,0.0054
3428.00,0.0055
3427.00,0.0055
3426.00,0.0055
3425.00,0.0055
3424.00,0.0055
3423.00,0.0056
3422.00,0.0056
3421.00,0.0056
3420.00,0.0056
3419.00,0.0056
3418.00,0.0056
3417.00,0.0056
3416.00,0.0056
3415.00,0.0056
3414.00,0.0057
3413.00,0.0057
3412.00,0.0057
3411.00,0.0057
3410.00,0.0057
3409.00,0.0057
3408.00,0.0058
3407.00,0.0058
3406.00,0.0058
3405.00,0.0059
3404.00,0.0059
3403.00,0.0059
3402.00,0.0059
3401.00,0.0059
3400.00,0.0059
3399.00,0.0059
3398.00,0.0059
3397.00,0.0060
3396.00,0.0060
3395.00,0.0059
3394.00,0.0059
3393.00,0.0059
3392.00,0.0059
3391.00,0.0059
3390.00,0.0060
3389.00,0.0060
3388.00,0.0060
3387.00,0.0060
3386.00,0.0061
3385.00,0.0061
3384.00,0.0061
3383.00,0.0061
3382.00,0.0060
3381.00,0.0060
3380.00,0.0061
3379.00,0.0061
3378.00,0.0062
3377.00,0.0062
3376.00,0.0062
3375.00,0.0062
3374.00,0.0061
3373.00,0.0061
3372.00,0.0061
3371.00,0.0061
3370.00,0.0061
3369.00,0.0061
3368.00,0.0061
3367.00,0.0061
3366.00,0.0061
3365.00,0.0061
3364.00,0.0061
3363.00,0.0061
3362.00,0.0061
3361.00,0.0061
3360.00,0.0061
3359.00,0.0061
3358.00,0.0061
3357.00,0.0061
3356.00,0.0062
3355.00,0.0062
3354.00,0.0062
3353.00,0.0063
3352.00,0.0063
3351.00,0.0063
3350.00,0.0063
3349.00,0.0063
3348.00,0.0062
3347.00,0.0062
3346.00,0.0061
3345.00,0.0061
3344.00,0.0061
3343.00,0.0062
3342.00,0.0062
3341.00,0.0062
3340.00,0.0062
3339.00,0.0062
3338.00,0.0062
3337.00,0.0062
3336.00,0.0062
3335.00,0.0062
3334.00,0.0061
3333.00,0.0061
3332.00,0.0061
3331.00,0.0060
3330.00,0.0060
3329.00,0.0060
3328.00,0.0060
3327.00,0.0060
3326.00,0.0060
3325.00,0.0061
3324.00,0.0060
3323.00,0.0060
3322.00,0.0060
3321.00,0.0060
3320.00,0.0060
3319.00,0.0060
3318.00,0.0060
3317.00,0.0060
3316.00,0.0060
3315.00,0.0060
3314.00,0.0060
3313.00,0.0060
3312.00,0.0060
3311.00,0.0060
3310.00,0.0060
3309.00,0.0060
3308.00,0.0060
3307.00,0.0060
3306.00,0.0060
3305.00,0.0061
3304.00,0.0061
3303.00,0.0061
3302.00,0.0062
3301.00,0.0062
3300.00,0.0061
3299.00,0.0061
3298.00,0.0060
3297.00,0.0060
3296.00,0.0060
3295.00,0.0059
3294.00,0.0059
3293.00,0.0059
3292.00,0.0059
3291.00,0.0058
3290.00,0.0058
3289.00,0.0058
3288.00,0.0057
3287.00,0.0057
3286.00,0.0057
3285.00,0.0056
3284.00,0.0056
3283.00,0.0056
3282.00,0.0056
3281.00,0.0056
3280.00,0.0056
3279.00,0.0055
3278.00,0.0055
3277.00,0.0054
3276.00,0.0054
3275.00,0.0054
3274.00,0.0053
3273.00,0.0053
3272.00,0.0053
3271.00,0.0052
3270.00,0.0052
3269.00,0.0052
3268.00,0.0052
3267.00,0.0052
3266.00,0.0052
3265.00,0.0052
3264.00,0.0052
3263.00,0.0051
3262.00,0.0051
3261.00,0.0051
3260.00,0.0051
3259.00,0.0051
3258.00,0.0051
3257.00,0.0050
3256.00,0.0050
3255.00,0.0050
3254.00,0.0050
3253.00,0.0050
3252.00,0.0049
3251.00,0.0049
3250.00,0.0049
3249.00,0.0049
3248.00,0.0049
3247.00,0.0049
3246.00,0.0049
3245.00,0.0049
3244.00,0.0049
3243.00,0.0049
3242.00,0.0048
3241.00,0.0048
3240.00,0.0048
3239.00,0.0048
3238.00,0.0048
3237.00,0.0047
3236.00,0.0047
3235.00,0.0047
3234.00,0.0047
3233.00,0.0047
3232.00,0.0048
3231.00,0.0048
3230.00,0.0049
3229.00,0.0049
3228.00,0.0049
3227.00,0.0049
3226.00,0.0049
3225.00,0.0048
3224.00,0.0048
3223.00,0.0048
3222.00,0.0048
3221.00,0.0048
3220.00,0.0048
3219.00,0.0048
3218.00,0.0048
3217.00,0.0049
3216.00,0.0049
3215.00,0.0050
3214.00,0.0050
3213.00,0.0050
3212.00,0.0050
3211.00,0.0050
3210.00,0.0050
3209.00,0.0051
3208.00,0.0051
3207.00,0.0051
3206.00,0.0051
3205.00,0.0051
3204.00,0.0051
3203.00,0.0051
3202.00,0.0051
3201.00,0.0051
3200.00,0.0051
3199.00,0.0051
3198.00,0.0050
3197.00,0.0051
3196.00,0.0051
3195.00,0.0051
3194.00,0.0050
3193.00,0.0050
3192.00,0.0050
3191.00,0.0049
3190.00,0.0049
3189.00,0.0049
3188.00,0.0050
3187.00,0.0050
3186.00,0.0050
3185.00,0.0050
3184.00,0.0049
3183.00,0.0049
3182.00,0.0048
3181.00,0.0048
3180.00,0.0047
3179.00,0.0047
3178.00,0.0047
3177.00,0.0047
3176.00,0.0047
3175.00,0.0047
3174.00,0.0047
3173.00,0.0046
3172.00,0.0046
3171.00,0.0046
3170.00,0.0045
3169.00,0.0045
3168.00,0.0045
3167.00,0.0045
3166.00,0.0045
3165.00,0.0045
3164.00,0.0045
3163.00,0.0045
3162.00,0.0045
3161.00,0.0045
3160.00,0.0044
3159.00,0.0044
3158.00,0.0044
3157.00,0.0044
3156.00,0.0044
3155.00,0.0043
3154.00,0.0043
3153.00,0.0043
3152.00,0.0043
3151.00,0.0044
3150.00,0.0044
3149.00,0.0044
3148.00,0.0043
3147.00,0.0043
3146.00,0.0043
3145.00,0.0043
3144.00,0.0043
3143.00,0.0043
3142.00,0.0043
3141.00,0.0043
3140.00,0.0043
3139.00,0.0042
3138.00,0.0042
3137.00,0.0042
3136.00,0.0041
3135.00,0.0041
3134.00,0.0041
3133.00,0.0041
3132.00,0.0040
3131.00,0.0040
3130.00,0.0040
3129.00,0.0040
3128.00,0.0040
3127.00,0.0040
3126.00,0.0040
3125.00,0.0039
3124.00,0.0039
3123.00,0.0038
3122.00,0.0037
3121.00,0.0037
3120.00,0.0037
3119.00,0.0037
3118.00,0.0037
3117.00,0.0037
3116.00,0.0036
3115.00,0.0036
3114.00,0.0035
3113.00,0.0035
3112.00,0.0035
3111.00,0.0035
3110.00,0.0035
3109.00,0.0035
3108.00,0.0035
3107.00,0.0035
3106.00,0.0035
3105.00,0.0035
3104.00,0.0035
3103.00,0.0034
3102.00,0.0034
3101.00,0.0034
3100.00,0.0034
3099.00,0.0033
3098.00,0.0033
3097.00,0.0033
3096.00,0.0033
3095.00,0.0033
3094.00,0.0033
3093.00,0.0033
3092.00,0.0033
3091.00,0.0033
3090.00,0.0033
3089.00,0.0033
3088.00,0.0033
3087.00,0.0032
3086.00,0.0032
3085.00,0.0032
3084.00,0.0032
3083.00,0.0032
3082.00,0.0032
3081.00,0.0032
3080.00,0.0032
3079.00,0.0032
3078.00,0.0033
3077.00,0.0033
3076.00,0.0033
3075.00,0.0033
3074.00,0.0034
3073.00,0.0033
3072.00,0.0033
3071.00,0.0033
3070.00,0.0033
3069.00,0.0033
3068.00,0.0033
3067.00,0.0033
3066.00,0.0033
3065.00,0.0033
3064.00,0.0033
3063.00,0.0034
3062.00,0.0034
3061.00,0.0034
3060.00,0.0034
3059.00,0.0034
3058.00,0.0034
3057.00,0.0035
3056.00,0.0035
3055.00,0.0035
3054.00,0.0035
3053.00,0.0035
3052.00,0.0036
3051.00,0.0035
3050.00,0.0035
3049.00,0.0036
3048.00,0.0036
3047.00,0.0037
3046.00,0.0037
3045.00,0.0037
3044.00,0.0037
3043.00,0.0036
3042.00,0.0037
3041.00,0.0037
3040.00,0.0038
3039.00,0.0038
3038.00,0.0038
3037.00,0.0039
3036.00,0.0039
3035.00,0.0039
3034.00,0.0039
3033.00,0.0040
3032.00,0.0041
3031.00,0.0042
3030.00,0.0042
3029.00,0.0043
3028.00,0.0043
3027.00,0.0043
3026.00,0.0043
3025.00,0.0044
3024.00,0.0044
3023.00,0.0044
3022.00,0.0045
3021.00,0.0046
3020.00,0.0046
3019.00,0.0047
3018.00,0.0048
3017.00,0.0049
3016.00,0.0050
3015.00,0.0051
3014.00,0.0052
3013.00,0.0053
3012.00,0.0054
3011.00,0.0055
3010.00,0.0056
3009.00,0.0057
3008.00,0.0058
3007.00,0.0060
3006.00,0.0062
3005.00,0.0064
3004.00,0.0066
3003.00,0.0068
3002.00,0.0070
3001.00,0.0072
3000.00,0.0074
2999.00,0.0076
2998.00,0.0079
2997.00,0.0083
2996.00,0.0086
2995.00,0.0090
2994.00,0.0094
2993.00,0.0099
2992.00,0.0104
2991.00,0.0110
2990.00,0.0116
2989.00,0.0122
2988.00,0.0130
2987.00,0.0138
2986.00,0.0147
2985.00,0.0157
2984.00,0.0169
2983.00,0.0182
2982.00,0.0196
2981.00,0.0213
2980.00,0.0232
2979.00,0.0254
2978.00,0.0279
2977.00,0.0308
2976.00,0.0341
2975.00,0.0378
2974.00,0.0421
2973.00,0.0471
2972.00,0.0527
2971.00,0.0590
2970.00,0.0661
2969.00,0.0740
2968.00,0.0826
2967.00,0.0920
2966.00,0.1020
2965.00,0.1124
2964.00,0.1229
2963.00,0.1330
2962.00,0.1422
2961.00,0.1501
2960.00,0.1564
2959.00,0.1613
2958.00,0.1649
2957.00,0.1679
2956.00,0.1708
2955.00,0.1741
2954.00,0.1779
2953.00,0.1819
2952.00,0.1853
2951.00,0.1871
2950.00,0.1865
2949.00,0.1827
2948.00,0.1757
2947.00,0.1659
2946.00,0.1543
2945.00,0.1422
2944.00,0.1309
2943.00,0.1212
2942.00,0.1138
2941.00,0.1087
2940.00,0.1059
2939.00,0.1053
2938.00,0.1065
2937.00,0.1095
2936.00,0.1140
2935.00,0.1199
2934.00,0.1271
2933.00,0.1354
2932.00,0.1446
2931.00,0.1546
2930.00,0.1651
2929.00,0.1758
2928.00,0.1863
2927.00,0.1965
2926.00,0.2062
2925.00,0.2154
2924.00,0.2241
2923.00,0.2324
2922.00,0.2404
2921.00,0.2479
2920.00,0.2543
2919.00,0.2589
2918.00,0.2609
2917.00,0.2599
2916.00,0.2558
2915.00,0.2492
2914.00,0.2408
2913.00,0.2316
2912.00,0.2226
2911.00,0.2143
2910.00,0.2069
2909.00,0.2003
2908.00,0.1942
2907.00,0.1884
2906.00,0.1826
2905.00,0.1765
2904.00,0.1703
2903.00,0.1639
2902.00,0.1574
2901.00,0.1509
2900.00,0.1446
2899.00,0.1385
2898.00,0.1328
2897.00,0.1275
2896.00,0.1227
2895.00,0.1184
2894.00,0.1148
2893.00,0.1118
2892.00,0.1094
2891.00,0.1076
2890.00,0.1062
2889.00,0.1053
2888.00,0.1048
2887.00,0.1046
2886.00,0.1047
2885.00,0.1052
2884.00,0.1061
2883.00,0.1074
2882.00,0.1091
2881.00,0.1112
2880.00,0.1132
2879.00,0.1148
2878.00,0.1158
2877.00,0.1161
2876.00,0.1157
2875.00,0.1150
2874.00,0.1144
2873.00,0.1143
2872.00,0.1149
2871.00,0.1161
2870.00,0.1177
2869.00,0.1193
2868.00,0.1202
2867.00,0.1198
2866.00,0.1175
2865.00,0.1132
2864.00,0.1073
2863.00,0.1006
2862.00,0.0940
2861.00,0.0882
2860.00,0.0837
2859.00,0.0807
2858.00,0.0791
2857.00,0.0787
2856.00,0.0791
2855.00,0.0802
2854.00,0.0817
2853.00,0.0833
2852.00,0.0850
2851.00,0.0864
2850.00,0.0874
2849.00,0.0881
2848.00,0.0889
2847.00,0.0901
2846.00,0.0922
2845.00,0.0955
2844.00,0.0999
2843.00,0.1052
2842.00,0.1110
2841.00,0.1166
2840.00,0.1211
2839.00,0.1238
2838.00,0.1238
2837.00,0.1206
2836.00,0.1144
2835.00,0.1055
2834.00,0.0951
2833.00,0.0841
2832.00,0.0736
2831.00,0.0643
2830.00,0.0563
2829.00,0.0498
2828.00,0.0446
2827.00,0.0403
2826.00,0.0369
2825.00,0.0340
2824.00,0.0316
2823.00,0.0295
2822.00,0.0278
2821.00,0.0263
2820.00,0.0250
2819.00,0.0238
2818.00,0.0228
2817.00,0.0220
2816.00,0.0212
2815.00,0.0205
2814.00,0.0199
2813.00,0.0193
2812.00,0.0188
2811.00,0.0183
2810.00,0.0177
2809.00,0.0172
2808.00,0.0166
2807.00,0.0160
2806.00,0.0153
2805.00,0.0146
2804.00,0.0140
2803.00,0.0134
2802.00,0.0128
2801.00,0.0124
2800.00,0.0121
2799.00,0.0118
2798.00,0.0116
2797.00,0.0113
2796.00,0.0111
2795.00,0.0108
2794.00,0.0106
2793.00,0.0103
2792.00,0.0099
2791.00,0.0096
2790.00,0.0093
2789.00,0.0090
2788.00,0.0086
2787.00,0.0083
2786.00,0.0080
2785.00,0.0077
2784.00,0.0075
2783.00,0.0072
2782.00,0.0070
2781.00,0.0069
2780.00,0.0067
2779.00,0.0065
2778.00,0.0064
2777.00,0.0062
2776.00,0.0061
2775.00,0.0060
2774.00,0.0059
2773.00,0.0058
2772.00,0.0058
2771.00,0.0057
2770.00,0.0057
2769.00,0.0057
2768.00,0.0056
2767.00,0.0056
2766.00,0.0055
2765.00,0.0055
2764.00,0.0054
2763.00,0.0054
2762.00,0.0054
2761.00,0.0053
2760.00,0.0053
2759.00,0.0052
2758.00,0.0052
2757.00,0.0052
2756.00,0.0052
2755.00,0.0052
2754.00,0.0052
2753.00,0.0052
2752.00,0.0052
2751.00,0.0051
2750.00,0.0051
2749.00,0.0051
2748.00,0.0051
2747.00,0.0051
2746.00,0.0052
2745.00,0.0052
2744.00,0.0053
2743.00,0.0054
2742.00,0.0055
2741.00,0.0057
2740.00,0.0057
2739.00,0.0058
2738.00,0.0059
2737.00,0.0060
2736.00,0.0061
2735.00,0.0062
2734.00,0.0064
2733.00,0.0065
2732.00,0.0067
2731.00,0.0069
2730.00,0.0071
2729.00,0.0073
2728.00,0.0076
2727.00,0.0078
2726.00,0.0081
2725.00,0.0083
2724.00,0.0084
2723.00,0.0085
2722.00,0.0084
2721.00,0.0083
2720.00,0.0080
2719.00,0.0077
2718.00,0.0074
2717.00,0.0071
2716.00,0.0068
2715.00,0.0065
2714.00,0.0063
2713.00,0.0061
2712.00,0.0060
2711.00,0.0058
2710.00,0.0057
2709.00,0.0055
2708.00,0.0054
2707.00,0.0052
2706.00,0.0051
2705.00,0.0050
2704.00,0.0050
2703.00,0.0049
2702.00,0.0048
2701.00,0.0047
2700.00,0.0047
2699.00,0.0046
2698.00,0.0045
2697.00,0.0045
2696.00,0.0045
2695.00,0.0045
2694.00,0.0045
2693.00,0.0045
2692.00,0.0045
2691.00,0.0045
2690.00,0.0045
2689.00,0.0045
2688.00,0.0044
2687.00,0.0044
2686.00,0.0044
2685.00,0.0045
2684.00,0.0045
2683.00,0.0046
2682.00,0.0046
2681.00,0.0046
2680.00,0.0046
2679.00,0.0045
2678.00,0.0045
2677.00,0.0045
2676.00,0.0045
2675.00,0.0045
2674.00,0.0044
2673.00,0.0044
2672.00,0.0043
2671.00,0.0043
2670.00,0.0043
2669.00,0.0043
2668.00,0.0043
2667.00,0.0043
2666.00,0.0044
2665.00,0.0044
2664.00,0.0045
2663.00,0.0046
2662.00,0.0047
2661.00,0.0047
2660.00,0.0048
2659.00,0.0047
2658.00,0.0047
2657.00,0.0047
2656.00,0.0046
2655.00,0.0046
2654.00,0.0045
2653.00,0.0045
2652.00,0.0045
2651.00,0.0044
2650.00,0.0044
2649.00,0.0043
2648.00,0.0043
2647.00,0.0043
2646.00,0.0042
2645.00,0.0042
2644.00,0.0041
2643.00,0.0040
2642.00,0.0040
2641.00,0.0039
2640.00,0.0039
2639.00,0.0039
2638.00,0.0038
2637.00,0.0038
2636.00,0.0038
2635.00,0.0038
2634.00,0.0038
2633.00,0.0038
2632.00,0.0038
2631.00,0.0037
2630.00,0.0037
2629.00,0.0037
2628.00,0.0037
2627.00,0.0038
2626.00,0.0038
2625.00,0.0038
2624.00,0.0038
2623.00,0.0039
2622.00,0.0039
2621.00,0.0039
2620.00,0.0039
2619.00,0.0039
2618.00,0.0039
2617.00,0.0040
2616.00,0.0040
2615.00,0.0040
2614.00,0.0040
2613.00,0.0039
2612.00,0.0038
2611.00,0.0037
2610.00,0.0036
2609.00,0.0035
2608.00,0.0035
2607.00,0.0035
2606.00,0.0034
2605.00,0.0034
2604.00,0.0033
2603.00,0.0032
2602.00,0.0032
2601.00,0.0031
2600.00,0.0031
2599.00,0.0031
2598.00,0.0031
2597.00,0.0031
2596.00,0.0032
2595.00,0.0032
2594.00,0.0031
2593.00,0.0031
2592.00,0.0031
2591.00,0.0031
2590.00,0.0031
2589.00,0.0032
2588.00,0.0034
2587.00,0.0035
2586.00,0.0036
2585.00,0.0036
2584.00,0.0037
2583.00,0.0037
2582.00,0.0038
2581.00,0.0038
2580.00,0.0037
2579.00,0.0036
2578.00,0.0035
2577.00,0.0035
2576.00,0.0034
2575.00,0.0033
2574.00,0.0032
2573.00,0.0031
2572.00,0.0030
2571.00,0.0028
2570.00,0.0027
2569.00,0.0026
2568.00,0.0025
2567.00,0.0025
2566.00,0.0025
2565.00,0.0024
2564.00,0.0024
2563.00,0.0023
2562.00,0.0023
2561.00,0.0023
2560.00,0.0023
2559.00,0.0023
2558.00,0.0023
2557.00,0.0023
2556.00,0.0023
2555.00,0.0024
2554.00,0.0024
2553.00,0.0023
2552.00,0.0022
2551.00,0.0021
2550.00,0.0020
2549.00,0.0019
2548.00,0.0019
2547.00,0.0018
2546.00,0.0018
2545.00,0.0018
2544.00,0.0018
2543.00,0.0017
2542.00,0.0017
2541.00,0.0017
2540.00,0.0017
2539.00,0.0017
2538.00,0.0016
2537.00,0.0016
2536.00,0.0016
2535.00,0.0016
2534.00,0.0017
2533.00,0.0017
2532.00,0.0016
2531.00,0.0016
2530.00,0.0015
2529.00,0.0015
2528.00,0.0014
2527.00,0.0013
2526.00,0.0013
2525.00,0.0013
2524.00,0.0013
2523.00,0.0014
2522.00,0.0015
2521.00,0.0015
2520.00,0.0014
2519.00,0.0013
2518.00,0.0012
2517.00,0.0012
2516.00,0.0011
2515.00,0.0011
2514.00,0.0011
2513.00,0.0012
2512.00,0.0012
2511.00,0.0012
2510.00,0.0011
2509.00,0.0011
2508.00,0.0010
2507.00,0.0010
2506.00,0.0010
2505.00,0.0011
2504.00,0.0011
2503.00,0.0010
2502.00,0.0009
2501.00,0.0009
2500.00,0.0009
2499.00,0.0010
2498.00,0.0010
2497.00,0.0010
2496.00,0.0010
2495.00,0.0009
2494.00,0.0009
2493.00,0.0009
2492.00,0.0009
2491.00,0.0009
2490.00,0.0010
2489.00,0.0010
2488.00,0.0010
2487.00,0.0010
2486.00,0.0010
2485.00,0.0010
2484.00,0.0010
2483.00,0.0009
2482.00,0.0009
2481.00,0.0009
2480.00,0.0009
2479.00,0.0009
2478.00,0.0009
2477.00,0.0008
2476.00,0.0008
2475.00,0.0009
2474.00,0.0009
2473.00,0.0009
2472.00,0.0009
2471.00,0.0009
2470.00,0.0009
2469.00,0.0009
2468.00,0.0009
2467.00,0.0010
2466.00,0.0010
2465.00,0.0010
2464.00,0.0010
2463.00,0.0010
2462.00,0.0010
2461.00,0.0010
2460.00,0.0010
2459.00,0.0010
2458.00,0.0010
2457.00,0.0011
2456.00,0.0011
2455.00,0.0011
2454.00,0.0011
2453.00,0.0010
2452.00,0.0009
2451.00,0.0008
2450.00,0.0008
2449.00,0.0008
2448.00,0.0009
2447.00,0.0009
2446.00,0.0009
2445.00,0.0009
2444.00,0.0010
2443.00,0.0010
2442.00,0.0010
2441.00,0.0010
2440.00,0.0010
2439.00,0.0010
2438.00,0.0010
2437.00,0.0010
2436.00,0.0011
2435.00,0.0011
2434.00,0.0012
2433.00,0.0012
2432.00,0.0013
2431.00,0.0013
2430.00,0.0013
2429.00,0.0013
2428.00,0.0013
2427.00,0.0013
2426.00,0.0012
2425.00,0.0012
2424.00,0.0012
2423.00,0.0011
2422.00,0.0010
2421.00,0.0009
2420.00,0.0009
2419.00,0.0009
2418.00,0.0009
2417.00,0.0009
2416.00,0.0010
2415.00,0.0010
2414.00,0.0010
2413.00,0.0010
2412.00,0.0011
2411.00,0.0011
2410.00,0.0011
2409.00,0.0010
2408.00,0.0009
2407.00,0.0009
2406.00,0.0008
2405.00,0.0008
2404.00,0.0008
2403.00,0.0008
2402.00,0.0008
2401.00,0.0009
2400.00,0.0008
2399.00,0.0008
2398.00,0.0008
2397.00,0.0008
2396.00,0.0007
2395.00,0.0007
2394.00,0.0007
2393.00,0.0007
2392.00,0.0008
2391.00,0.0008
2390.00,0.0008
2389.00,0.0008
2388.00,0.0008
2387.00,0.0007
2386.00,0.0007
2385.00,0.0007
2384.00,0.0006
2383.00,0.0005
2382.00,0.0005
2381.00,0.0004
2380.00,0.0003
2379.00,0.0003
2378.00,0.0002
2377.00,0.0002
2376.00,0.0001
2375.00,0.0001
2374.00,0.0001
2373.00,0.0002
2372.00,0.0002
2371.00,0.0003
2370.00,0.0003
2369.00,0.0003
2368.00,0.0003
2367.00,0.0003
2366.00,0.0003
2365.00,0.0003
2364.00,0.0004
2363.00,0.0004
2362.00,0.0004
2361.00,0.0003
2360.00,0.0003
2359.00,0.0003
2358.00,0.0003
2357.00,0.0003
2356.00,0.0003
2355.00,0.0003
2354.00,0.0003
2353.00,0.0003
2352.00,0.0003
2351.00,0.0003
2350.00,0.0004
2349.00,0.0004
2348.00,0.0005
2347.00,0.0005
2346.00,0.0005
2345.00,0.0005
2344.00,0.0004
2343.00,0.0005
2342.00,0.0005
2341.00,0.0006
2340.00,0.0006
2339.00,0.0006
2338.00,0.0006
2337.00,0.0005
2336.00,0.0005
2335.00,0.0005
2334.00,0.0006
2333.00,0.0006
2332.00,0.0006
2331.00,0.0005
2330.00,0.0005
2329.00,0.0005
2328.00,0.0007
2327.00,0.0011
2326.00,0.0015
2325.00,0.0019
2324.00,0.0020
2323.00,0.0019
2322.00,0.0016
2321.00,0.0014
2320.00,0.0013
2319.00,0.0012
2318.00,0.0011
2317.00,0.0010
2316.00,0.0009
2315.00,0.0009
2314.00,0.0008
2313.00,0.0008
2312.00,0.0007
2311.00,0.0007
2310.00,0.0007
2309.00,0.0007
2308.00,0.0008
2307.00,0.0008
2306.00,0.0009
2305.00,0.0010
2304.00,0.0011
2303.00,0.0011
2302.00,0.0011
2301.00,0.0010
2300.00,0.0010
2299.00,0.0009
2298.00,0.0010
2297.00,0.0011
2296.00,0.0012
2295.00,0.0012
2294.00,0.0013
2293.00,0.0014
2292.00,0.0015
2291.00,0.0017
2290.00,0.0018
2289.00,0.0019
2288.00,0.0019
2287.00,0.0019
2286.00,0.0019
2285.00,0.0018
2284.00,0.0017
2283.00,0.0015
2282.00,0.0014
2281.00,0.0013
2280.00,0.0013
2279.00,0.0013
2278.00,0.0013
2277.00,0.0012
2276.00,0.0012
2275.00,0.0011
2274.00,0.0011
2273.00,0.0011
2272.00,0.0011
2271.00,0.0011
2270.00,0.0011
2269.00,0.0011
2268.00,0.0011
2267.00,0.0012
2266.00,0.0012
2265.00,0.0012
2264.00,0.0012
2263.00,0.0012
2262.00,0.0012
2261.00,0.0012
2260.00,0.0012
2259.00,0.0011
2258.00,0.0011
2257.00,0.0010
2256.00,0.0009
2255.00,0.0008
2254.00,0.0007
2253.00,0.0007
2252.00,0.0008
2251.00,0.0009
2250.00,0.0009
2249.00,0.0009
2248.00,0.0008
2247.00,0.0008
2246.00,0.0007
2245.00,0.0006
2244.00,0.0007
2243.00,0.0008
2242.00,0.0008
2241.00,0.0008
2240.00,0.0008
2239.00,0.0008
2238.00,0.0008
2237.00,0.0009
2236.00,0.0009
2235.00,0.0009
2234.00,0.0008
2233.00,0.0008
2232.00,0.0008
2231.00,0.0008
2230.00,0.0008
2229.00,0.0007
2228.00,0.0006
2227.00,0.0005
2226.00,0.0005
2225.00,0.0007
2224.00,0.0008
2223.00,0.0009
2222.00,0.0008
2221.00,0.0007
2220.00,0.0005
2219.00,0.0004
2218.00,0.0003
2217.00,0.0003
2216.00,0.0004
2215.00,0.0005
2214.00,0.0007
2213.00,0.0009
2212.00,0.0010
2211.00,0.0008
2210.00,0.0006
2209.00,0.0005
2208.00,0.0005
2207.00,0.0006
2206.00,0.0007
2205.00,0.0008
2204.00,0.0007
2203.00,0.0006
2202.00,0.0006
2201.00,0.0007
2200.00,0.0008
2199.00,0.0008
2198.00,0.0009
2197.00,0.0010
2196.00,0.0011
2195.00,0.0012
2194.00,0.0012
2193.00,0.0011
2192.00,0.0010
2191.00,0.0008
2190.00,0.0006
2189.00,0.0005
2188.00,0.0004
2187.00,0.0006
2186.00,0.0007
2185.00,0.0008
2184.00,0.0006
2183.00,0.0004
2182.00,0.0003
2181.00,0.0002
2180.00,0.0002
2179.00,0.0002
2178.00,0.0002
2177.00,0.0004
2176.00,0.0006
2175.00,0.0007
2174.00,0.0007
2173.00,0.0007
2172.00,0.0007
2171.00,0.0008
2170.00,0.0010
2169.00,0.0013
2168.00,0.0014
2167.00,0.0015
2166.00,0.0015
2165.00,0.0016
2164.00,0.0019
2163.00,0.0022
2162.00,0.0021
2161.00,0.0014
2160.00,0.0001
2159.00,-0.0015
2158.00,-0.0028
2157.00,-0.0031
2156.00,-0.0029
2155.00,-0.0024
2154.00,-0.0020
2153.00,-0.0018
2152.00,-0.0017
2151.00,-0.0017
2150.00,-0.0016
2149.00,-0.0014
2148.00,-0.0013
2147.00,-0.0012
2146.00,-0.0012
2145.00,-0.0012
2144.00,-0.0010
2143.00,-0.0009
2142.00,-0.0008
2141.00,-0.0007
2140.00,-0.0007
2139.00,-0.0008
2138.00,-0.0009
2137.00,-0.0010
2136.00,-0.0012
2135.00,-0.0014
2134.00,-0.0016
2133.00,-0.0017
2132.00,-0.0016
2131.00,-0.0014
2130.00,-0.0013
2129.00,-0.0012
2128.00,-0.0011
2127.00,-0.0009
2126.00,-0.0007
2125.00,-0.0006
2124.00,-0.0005
2123.00,-0.0004
2122.00,-0.0003
2121.00,-0.0003
2120.00,-0.0003
2119.00,-0.0003
2118.00,-0.0002
2117.00,-0.0001
2116.00,0.0000
2115.00,0.0002
2114.00,0.0003
2113.00,0.0004
2112.00,0.0003
2111.00,0.0002
2110.00,0.0001
2109.00,-0.0000
2108.00,-0.0001
2107.00,-0.0001
2106.00,-0.0000
2105.00,0.0002
2104.00,0.0004
2103.00,0.0004
2102.00,0.0004
2101.00,0.0003
2100.00,0.0002
2099.00,0.0001
2098.00,0.0000
2097.00,-0.0002
2096.00,-0.0004
2095.00,-0.0006
2094.00,-0.0006
2093.00,-0.0005
2092.00,-0.0003
2091.00,-0.0002
2090.00,-0.0001
2089.00,-0.0001
2088.00,-0.0000
2087.00,0.0001
2086.00,0.0001
2085.00,0.0001
2084.00,0.0002
2083.00,0.0002
2082.00,0.0003
2081.00,0.0003
2080.00,0.0003
2079.00,0.0003
2078.00,0.0001
2077.00,-0.0000
2076.00,-0.0001
2075.00,-0.0002
2074.00,-0.0003
2073.00,-0.0003
2072.00,-0.0002
2071.00,-0.0000
2070.00,0.0002
2069.00,0.0003
2068.00,0.0003
2067.00,0.0001
2066.00,-0.0001
2065.00,-0.0002
2064.00,-0.0001
2063.00,-0.0000
2062.00,-0.0000
2061.00,-0.0001
2060.00,-0.0002
2059.00,-0.0001
2058.00,0.0000
2057.00,0.0003
2056.00,0.0005
2055.00,0.0005
2054.00,0.0005
2053.00,0.0006
2052.00,0.0009
2051.00,0.0011
2050.00,0.0011
2049.00,0.0009
2048.00,0.0005
2047.00,0.0002
2046.00,0.0000
2045.00,-0.0001
2044.00,-0.0001
2043.00,-0.0001
2042.00,0.0001
2041.00,0.0003
2040.00,0.0004
2039.00,0.0003
2038.00,0.0001
2037.00,-0.0001
2036.00,-0.0004
2035.00,-0.0007
2034.00,-0.0009
2033.00,-0.0007
2032.00,-0.0005
2031.00,-0.0005
2030.00,-0.0008
2029.00,-0.0011
2028.00,-0.0012
2027.00,-0.0013
2026.00,-0.0012
2025.00,-0.0010
2024.00,-0.0008
2023.00,-0.0008
2022.00,-0.0008
2021.00,-0.0010
2020.00,-0.0012
2019.00,-0.0013
2018.00,-0.0014
2017.00,-0.0012
2016.00,-0.0008
2015.00,-0.0005
2014.00,-0.0004
2013.00,-0.0005
2012.00,-0.0007
2011.00,-0.0009
2010.00,-0.0010
2009.00,-0.0011
2008.00,-0.0012
2007.00,-0.0013
2006.00,-0.0014
2005.00,-0.0014
2004.00,-0.0015
2003.00,-0.0016
2002.00,-0.0018
2001.00,-0.0018
2000.00,-0.0017
1999.00,-0.0015
1998.00,-0.0014
1997.00,-0.0013
1996.00,-0.0013
1995.00,-0.0015
1994.00,-0.0016
1993.00,-0.0016
1992.00,-0.0013
1991.00,-0.0010
1990.00,-0.0008
1989.00,-0.0008
1988.00,-0.0008
1987.00,-0.0008
1986.00,-0.0007
1985.00,-0.0005
1984.00,-0.0004
1983.00,-0.0001
1982.00,0.0002
1981.00,0.0006
1980.00,0.0008
1979.00,0.0006
1978.00,0.0001
1977.00,-0.0005
1976.00,-0.0010
1975.00,-0.0014
1974.00,-0.0017
1973.00,-0.0021
1972.00,-0.0022
1971.00,-0.0022
1970.00,-0.0021
1969.00,-0.0018
1968.00,-0.0015
1967.00,-0.0013
1966.00,-0.0010
1965.00,-0.0009
1964.00,-0.0010
1963.00,-0.0012
1962.00,-0.0016
1961.00,-0.0017
1960.00,-0.0018
1959.00,-0.0018
1958.00,-0.0019
1957.00,-0.0020
1956.00,-0.0019
1955.00,-0.0018
1954.00,-0.0016
1953.00,-0.0016
1952.00,-0.0015
1951.00,-0.0016
1950.00,-0.0016
1949.00,-0.0017
1948.00,-0.0018
1947.00,-0.0020
1946.00,-0.0022
1945.00,-0.0022
1944.00,-0.0021
1943.00,-0.0019
1942.00,-0.0016
1941.00,-0.0013
1940.00,-0.0012
1939.00,-0.0012
1938.00,-0.0013
1937.00,-0.0013
1936.00,-0.0012
1935.00,-0.0011
1934.00,-0.0010
1933.00,-0.0010
1932.00,-0.0010
1931.00,-0.0010
1930.00,-0.0008
1929.00,-0.0008
1928.00,-0.0007
1927.00,-0.0008
1926.00,-0.0008
1925.00,-0.0008
1924.00,-0.0008
1923.00,-0.0008
1922.00,-0.0007
1921.00,-0.0006
1920.00,-0.0006
1919.00,-0.0005
1918.00,-0.0005
1917.00,-0.0005
1916.00,-0.0006
1915.00,-0.0006
1914.00,-0.0005
1913.00,-0.0005
1912.00,-0.0004
1911.00,-0.0004
1910.00,-0.0004
1909.00,-0.0003
1908.00,-0.0003
1907.00,-0.0002
1906.00,-0.0002
1905.00,-0.0002
1904.00,-0.0003
1903.00,-0.0003
1902.00,-0.0003
1901.00,-0.0002
1900.00,-0.0001
1899.00,-0.0001
1898.00,-0.0001
1897.00,-0.0001
1896.00,-0.0000
1895.00,-0.0000
1894.00,-0.0000
1893.00,0.0000
1892.00,-0.0000
1891.00,-0.0000
1890.00,-0.0001
1889.00,-0.0002
1888.00,-0.0002
1887.00,-0.0003
1886.00,-0.0003
1885.00,-0.0003
1884.00,-0.0002
1883.00,-0.0002
1882.00,-0.0001
1881.00,-0.0001
1880.00,-0.0001
1879.00,-0.0001
1878.00,-0.0000
1877.00,0.0000
1876.00,0.0000
1875.00,-0.0000
1874.00,-0.0001
1873.00,-0.0001
1872.00,-0.0001
1871.00,-0.0001
1870.00,-0.0000
1869.00,0.0000
1868.00,0.0000
1867.00,-0.0000
1866.00,-0.0000
1865.00,-0.0000
1864.00,-0.0001
1863.00,-0.0001
1862.00,-0.0001
1861.00,-0.0002
1860.00,-0.0002
1859.00,-0.0002
1858.00,-0.0001
1857.00,-0.0000
1856.00,0.0000
1855.00,0.0000
1854.00,-0.0000
1853.00,-0.0001
1852.00,-0.0001
1851.00,-0.0001
1850.00,-0.0001
1849.00,-0.0000
1848.00,0.0000
1847.00,0.0000
1846.00,0.0000
1845.00,0.0000
1844.00,0.0000
1843.00,0.0000
1842.00,0.0001
1841.00,0.0001
1840.00,0.0001
1839.00,0.0001
1838.00,0.0001
1837.00,0.0001
1836.00,0.0001
1835.00,0.0002
1834.00,0.0002
1833.00,0.0003
1832.00,0.0003
1831.00,0.0003
1830.00,0.0002
1829.00,0.0002
1828.00,0.0002
1827.00,0.0002
1826.00,0.0002
1825.00,0.0003
1824.00,0.0004
1823.00,0.0004
1822.00,0.0004
1821.00,0.0003
1820.00,0.0003
1819.00,0.0001
1818.00,-0.0000
1817.00,-0.0001
1816.00,-0.0002
1815.00,-0.0001
1814.00,-0.0001
1813.00,-0.0000
1812.00,-0.0000
1811.00,0.0000
1810.00,0.0001
1809.00,0.0001
1808.00,0.0002
1807.00,0.0003
1806.00,0.0003
1805.00,0.0003
1804.00,0.0003
1803.00,0.0003
1802.00,0.0004
1801.00,0.0005
1800.00,0.0005
1799.00,0.0005
1798.00,0.0005
1797.00,0.0005
1796.00,0.0005
1795.00,0.0006
1794.00,0.0006
1793.00,0.0006
1792.00,0.0006
1791.00,0.0006
1790.00,0.0006
1789.00,0.0006
1788.00,0.0006
1787.00,0.0006
1786.00,0.0007
1785.00,0.0007
1784.00,0.0008
1783.00,0.0008
1782.00,0.0007
1781.00,0.0007
1780.00,0.0007
1779.00,0.0007
1778.00,0.0008
1777.00,0.0008
1776.00,0.0008
1775.00,0.0008
1774.00,0.0008
1773.00,0.0008
1772.00,0.0008
1771.00,0.0008
1770.00,0.0008
1769.00,0.0009
1768.00,0.0009
1767.00,0.0009
1766.00,0.0009
1765.00,0.0010
1764.00,0.0010
1763.00,0.0010
1762.00,0.0011
1761.00,0.0011
1760.00,0.0012
1759.00,0.0012
1758.00,0.0012
1757.00,0.0012
1756.00,0.0012
1755.00,0.0013
1754.00,0.0013
1753.00,0.0014
1752.00,0.0015
1751.00,0.0016
1750.00,0.0016
1749.00,0.0017
1748.00,0.0017
1747.00,0.0017
1746.00,0.0018
1745.00,0.0018
1744.00,0.0019
1743.00,0.0019
1742.00,0.0020
1741.00,0.0021
1740.00,0.0022
1739.00,0.0022
1738.00,0.0023
1737.00,0.0023
1736.00,0.0023
1735.00,0.0024
1734.00,0.0024
1733.00,0.0024
1732.00,0.0024
1731.00,0.0024
1730.00,0.0024
1729.00,0.0024
1728.00,0.0024
1727.00,0.0024
1726.00,0.0025
1725.00,0.0025
1724.00,0.0026
1723.00,0.0026
1722.00,0.0026
1721.00,0.0026
1720.00,0.0026
1719.00,0.0026
1718.00,0.0026
1717.00,0.0026
1716.00,0.0025
1715.00,0.0024
1714.00,0.0024
1713.00,0.0024
1712.00,0.0024
1711.00,0.0024
1710.00,0.0024
1709.00,0.0025
1708.00,0.0025
1707.00,0.0025
1706.00,0.0025
1705.00,0.0025
1704.00,0.0025
1703.00,0.0025
1702.00,0.0026
1701.00,0.0027
1700.00,0.0027
1699.00,0.0028
1698.00,0.0028
1697.00,0.0028
1696.00,0.0029
1695.00,0.0030
1694.00,0.0030
1693.00,0.0030
1692.00,0.0031
1691.00,0.0032
1690.00,0.0033
1689.00,0.0034
1688.00,0.0035
1687.00,0.0036
1686.00,0.0036
1685.00,0.0037
1684.00,0.0039
1683.00,0.0039
1682.00,0.0040
1681.00,0.0040
1680.00,0.0041
1679.00,0.0042
1678.00,0.0043
1677.00,0.0044
1676.00,0.0046
1675.00,0.0046
1674.00,0.0047
1673.00,0.0048
1672.00,0.0049
1671.00,0.0049
1670.00,0.0050
1669.00,0.0050
1668.00,0.0051
1667.00,0.0051
1666.00,0.0052
1665.00,0.0053
1664.00,0.0053
1663.00,0.0053
1662.00,0.0054
1661.00,0.0054
1660.00,0.0055
1659.00,0.0056
1658.00,0.0057
1657.00,0.0058
1656.00,0.0058
1655.00,0.0059
1654.00,0.0059
1653.00,0.0060
1652.00,0.0061
1651.00,0.0062
1650.00,0.0062
1649.00,0.0063
1648.00,0.0064
1647.00,0.0066
1646.00,0.0066
1645.00,0.0067
1644.00,0.0068
1643.00,0.0068
1642.00,0.0069
1641.00,0.0069
1640.00,0.0070
1639.00,0.0071
1638.00,0.0071
1637.00,0.0071
1636.00,0.0072
1635.00,0.0072
1634.00,0.0071
1633.00,0.0071
1632.00,0.0070
1631.00,0.0070
1630.00,0.0069
1629.00,0.0068
1628.00,0.0067
1627.00,0.0067
1626.00,0.0066
1625.00,0.0065
1624.00,0.0065
1623.00,0.0065
1622.00,0.0065
1621.00,0.0064
1620.00,0.0064
1619.00,0.0064
1618.00,0.0064
1617.00,0.0064
1616.00,0.0064
1615.00,0.0064
1614.00,0.0063
1613.00,0.0063
1612.00,0.0064
1611.00,0.0064
1610.00,0.0064
1609.00,0.0064
1608.00,0.0064
1607.00,0.0064
1606.00,0.0064
1605.00,0.0064
1604.00,0.0064
1603.00,0.0064
1602.00,0.0064
1601.00,0.0065
1600.00,0.0065
1599.00,0.0064
1598.00,0.0064
1597.00,0.0063
1596.00,0.0063
1595.00,0.0063
1594.00,0.0062
1593.00,0.0062
1592.00,0.0062
1591.00,0.0061
1590.00,0.0061
1589.00,0.0061
1588.00,0.0061
1587.00,0.0061
1586.00,0.0061
1585.00,0.0061
1584.00,0.0061
1583.00,0.0061
1582.00,0.0061
1581.00,0.0061
1580.00,0.0062
1579.00,0.0062
1578.00,0.0062
1577.00,0.0062
1576.00,0.0063
1575.00,0.0063
1574.00,0.0063
1573.00,0.0064
1572.00,0.0064
1571.00,0.0064
1570.00,0.0064
1569.00,0.0065
1568.00,0.0065
1567.00,0.0066
1566.00,0.0066
1565.00,0.0067
1564.00,0.0068
1563.00,0.0068
1562.00,0.0068
1561.00,0.0068
1560.00,0.0069
1559.00,0.0070
1558.00,0.0071
1557.00,0.0072
1556.00,0.0072
1555.00,0.0072
1554.00,0.0072
1553.00,0.0073
1552.00,0.0073
1551.00,0.0073
1550.00,0.0073
1549.00,0.0073
1548.00,0.0074
1547.00,0.0074
1546.00,0.0074
1545.00,0.0074
1544.00,0.0074
1543.00,0.0074
1542.00,0.0073
1541.00,0.0072
1540.00,0.0071
1539.00,0.0068
1538.00,0.0066
1537.00,0.0065
1536.00,0.0064
1535.00,0.0063
1534.00,0.0061
1533.00,0.0060
1532.00,0.0059
1531.00,0.0058
1530.00,0.0057
1529.00,0.0057
1528.00,0.0057
1527.00,0.0056
1526.00,0.0056
1525.00,0.0056
1524.00,0.0057
1523.00,0.0057
1522.00,0.0057
1521.00,0.0057
1520.00,0.0057
1519.00,0.0056
1518.00,0.0056
1517.00,0.0057
1516.00,0.0058
1515.00,0.0058
1514.00,0.0058
1513.00,0.0058
1512.00,0.0059
1511.00,0.0060
1510.00,0.0060
1509.00,0.0061
1508.00,0.0063
1507.00,0.0063
1506.00,0.0062
1505.00,0.0063
1504.00,0.0065
1503.00,0.0067
1502.00,0.0068
1501.00,0.0071
1500.00,0.0073
1499.00,0.0075
1498.00,0.0077
1497.00,0.0080
1496.00,0.0084
1495.00,0.0087
1494.00,0.0089
1493.00,0.0092
1492.00,0.0096
1491.00,0.0100
1490.00,0.0103
1489.00,0.0108
1488.00,0.0113
1487.00,0.0118
1486.00,0.0123
1485.00,0.0129
1484.00,0.0135
1483.00,0.0142
1482.00,0.0150
1481.00,0.0160
1480.00,0.0171
1479.00,0.0183
1478.00,0.0198
1477.00,0.0218
1476.00,0.0243
1475.00,0.0273
1474.00,0.0313
1473.00,0.0369
1472.00,0.0436
1471.00,0.0500
1470.00,0.0562
1469.00,0.0627
1468.00,0.0697
1467.00,0.0773
1466.00,0.0859
1465.00,0.0950
1464.00,0.1030
1463.00,0.1085
1462.00,0.1121
1461.00,0.1145
1460.00,0.1162
1459.00,0.1174
1458.00,0.1184
1457.00,0.1193
1456.00,0.1195
1455.00,0.1190
1454.00,0.1181
1453.00,0.1167
1452.00,0.1144
1451.00,0.1110
1450.00,0.1060
1449.00,0.0990
1448.00,0.0900
1447.00,0.0804
1446.00,0.0716
1445.00,0.0641
1444.00,0.0577
1443.00,0.0524
1442.00,0.0483
1441.00,0.0454
1440.00,0.0436
1439.00,0.0428
1438.00,0.0427
1437.00,0.0427
1436.00,0.0416
1435.00,0.0392
1434.00,0.0357
1433.00,0.0316
1432.00,0.0274
1431.00,0.0236
1430.00,0.0206
1429.00,0.0183
1428.00,0.0167
1427.00,0.0156
1426.00,0.0149
1425.00,0.0143
1424.00,0.0138
1423.00,0.0134
1422.00,0.0131
1421.00,0.0129
1420.00,0.0126
1419.00,0.0124
1418.00,0.0122
1417.00,0.0119
1416.00,0.0117
1415.00,0.0115
1414.00,0.0115
1413.00,0.0114
1412.00,0.0112
1411.00,0.0112
1410.00,0.0111
1409.00,0.0110
1408.00,0.0109
1407.00,0.0109
1406.00,0.0110
1405.00,0.0110
1404.00,0.0109
1403.00,0.0110
1402.00,0.0112
1401.00,0.0113
1400.00,0.0113
1399.00,0.0115
1398.00,0.0117
1397.00,0.0119
1396.00,0.0121
1395.00,0.0124
1394.00,0.0128
1393.00,0.0133
1392.00,0.0138
1391.00,0.0146
1390.00,0.0157
1389.00,0.0171
1388.00,0.0192
1387.00,0.0223
1386.00,0.0265
1385.00,0.0321
1384.00,0.0398
1383.00,0.0506
1382.00,0.0652
1381.00,0.0840
1380.00,0.1069
1379.00,0.1325
1378.00,0.1563
1377.00,0.1728
1376.00,0.1769
1375.00,0.1665
1374.00,0.1447
1373.00,0.1193
1372.00,0.0965
1371.00,0.0778
1370.00,0.0629
1369.00,0.0517
1368.00,0.0439
1367.00,0.0391
1366.00,0.0365
1365.00,0.0354
1364.00,0.0355
1363.00,0.0367
1362.00,0.0386
1361.00,0.0406
1360.00,0.0422
1359.00,0.0427
1358.00,0.0417
1357.00,0.0394
1356.00,0.0361
1355.00,0.0324
1354.00,0.0289
1353.00,0.0258
1352.00,0.0233
1351.00,0.0213
1350.00,0.0196
1349.00,0.0181
1348.00,0.0169
1347.00,0.0160
1346.00,0.0152
1345.00,0.0145
1344.00,0.0140
1343.00,0.0135
1342.00,0.0131
1341.00,0.0127
1340.00,0.0123
1339.00,0.0120
1338.00,0.0118
1337.00,0.0118
1336.00,0.0119
1335.00,0.0121
1334.00,0.0124
1333.00,0.0128
1332.00,0.0133
1331.00,0.0136
1330.00,0.0137
1329.00,0.0136
1328.00,0.0133
1327.00,0.0129
1326.00,0.0124
1325.00,0.0119
1324.00,0.0113
1323.00,0.0108
1322.00,0.0104
1321.00,0.0101
1320.00,0.0099
1319.00,0.0097
1318.00,0.0095
1317.00,0.0093
1316.00,0.0092
1315.00,0.0091
1314.00,0.0092
1313.00,0.0093
1312.00,0.0095
1311.00,0.0098
1310.00,0.0103
1309.00,0.0110
1308.00,0.0121
1307.00,0.0134
1306.00,0.0146
1305.00,0.0154
1304.00,0.0156
1303.00,0.0152
1302.00,0.0145
1301.00,0.0138
1300.00,0.0134
1299.00,0.0132
1298.00,0.0132
1297.00,0.0132
1296.00,0.0131
1295.00,0.0129
1294.00,0.0125
1293.00,0.0120
1292.00,0.0115
1291.00,0.0110
1290.00,0.0105
1289.00,0.0101
1288.00,0.0098
1287.00,0.0095
1286.00,0.0093
1285.00,0.0091
1284.00,0.0090
1283.00,0.0089
1282.00,0.0088
1281.00,0.0087
1280.00,0.0086
1279.00,0.0085
1278.00,0.0084
1277.00,0.0084
1276.00,0.0084
1275.00,0.0084
1274.00,0.0083
1273.00,0.0084
1272.00,0.0084
1271.00,0.0085
1270.00,0.0087
1269.00,0.0089
1268.00,0.0091
1267.00,0.0093
1266.00,0.0096
1265.00,0.0100
1264.00,0.0104
1263.00,0.0108
1262.00,0.0112
1261.00,0.0117
1260.00,0.0123
1259.00,0.0130
1258.00,0.0137
1257.00,0.0143
1256.00,0.0145
1255.00,0.0142
1254.00,0.0135
1253.00,0.0125
1252.00,0.0115
1251.00,0.0107
1250.00,0.0101
1249.00,0.0096
1248.00,0.0092
1247.00,0.0089
1246.00,0.0086
1245.00,0.0085
1244.00,0.0084
1243.00,0.0082
1242.00,0.0081
1241.00,0.0081
1240.00,0.0080
1239.00,0.0080
1238.00,0.0079
1237.00,0.0079
1236.00,0.0078
1235.00,0.0078
1234.00,0.0077
1233.00,0.0077
1232.00,0.0078
1231.00,0.0078
1230.00,0.0079
1229.00,0.0080
1228.00,0.0082
1227.00,0.0083
1226.00,0.0086
1225.00,0.0088
1224.00,0.0091
1223.00,0.0094
1222.00,0.0098
1221.00,0.0100
1220.00,0.0102
1219.00,0.0103
1218.00,0.0102
1217.00,0.0100
1216.00,0.0097
1215.00,0.0094
1214.00,0.0092
1213.00,0.0089
1212.00,0.0086
1211.00,0.0084
1210.00,0.0082
1209.00,0.0081
1208.00,0.0080
1207.00,0.0080
1206.00,0.0079
1205.00,0.0078
1204.00,0.0078
1203.00,0.0077
1202.00,0.0077
1201.00,0.0077
1200.00,0.0077
1199.00,0.0077
1198.00,0.0077
1197.00,0.0077
1196.00,0.0077
1195.00,0.0078
1194.00,0.0078
1193.00,0.0078
1192.00,0.0078
1191.00,0.0079
1190.00,0.0079
1189.00,0.0079
1188.00,0.0080
1187.00,0.0080
1186.00,0.0081
1185.00,0.0082
1184.00,0.0083
1183.00,0.0085
1182.00,0.0087
1181.00,0.0090
1180.00,0.0094
1179.00,0.0100
1178.00,0.0107
1177.00,0.0116
1176.00,0.0128
1175.00,0.0145
1174.00,0.0167
1173.00,0.0195
1172.00,0.0228
1171.00,0.0265
1170.00,0.0301
1169.00,0.0330
1168.00,0.0347
1167.00,0.0350
1166.00,0.0340
1165.00,0.0321
1164.00,0.0300
1163.00,0.0278
1162.00,0.0259
1161.00,0.0244
1160.00,0.0233
1159.00,0.0225
1158.00,0.0220
1157.00,0.0216
1156.00,0.0213
1155.00,0.0211
1154.00,0.0209
1153.00,0.0206
1152.00,0.0202
1151.00,0.0195
1150.00,0.0187
1149.00,0.0177
1148.00,0.0168
1147.00,0.0159
1146.00,0.0150
1145.00,0.0142
1144.00,0.0135
1143.00,0.0129
1142.00,0.0123
1141.00,0.0118
1140.00,0.0113
1139.00,0.0108
1138.00,0.0105
1137.00,0.0102
1136.00,0.0100
1135.00,0.0098
1134.00,0.0096
1133.00,0.0095
1132.00,0.0094
1131.00,0.0094
1130.00,0.0094
1129.00,0.0094
1128.00,0.0095
1127.00,0.0096
1126.00,0.0097
1125.00,0.0098
1124.00,0.0099
1123.00,0.0099
1122.00,0.0100
1121.00,0.0102
1120.00,0.0103
1119.00,0.0105
1118.00,0.0106
1117.00,0.0106
1116.00,0.0107
1115.00,0.0108
1114.00,0.0110
1113.00,0.0111
1112.00,0.0113
1111.00,0.0115
1110.00,0.0118
1109.00,0.0122
1108.00,0.0127
1107.00,0.0132
1106.00,0.0139
1105.00,0.0144
1104.00,0.0149
1103.00,0.0151
1102.00,0.0151
1101.00,0.0148
1100.00,0.0143
1099.00,0.0136
1098.00,0.0130
1097.00,0.0124
1096.00,0.0119
1095.00,0.0115
1094.00,0.0112
1093.00,0.0109
1092.00,0.0107
1091.00,0.0106
1090.00,0.0105
1089.00,0.0105
1088.00,0.0104
1087.00,0.0104
1086.00,0.0104
1085.00,0.0104
1084.00,0.0103
1083.00,0.0102
1082.00,0.0100
1081.00,0.0099
1080.00,0.0098
1079.00,0.0097
1078.00,0.0097
1077.00,0.0098
1076.00,0.0097
1075.00,0.0096
1074.00,0.0095
1073.00,0.0094
1072.00,0.0093
1071.00,0.0092
1070.00,0.0092
1069.00,0.0092
1068.00,0.0093
1067.00,0.0094
1066.00,0.0095
1065.00,0.0096
1064.00,0.0096
1063.00,0.0097
1062.00,0.0097
1061.00,0.0098
1060.00,0.0098
1059.00,0.0098
1058.00,0.0099
1057.00,0.0101
1056.00,0.0103
1055.00,0.0106
1054.00,0.0108
1053.00,0.0111
1052.00,0.0114
1051.00,0.0117
1050.00,0.0122
1049.00,0.0127
1048.00,0.0132
1047.00,0.0138
1046.00,0.0143
1045.00,0.0146
1044.00,0.0148
1043.00,0.0146
1042.00,0.0144
1041.00,0.0140
1040.00,0.0136
1039.00,0.0134
1038.00,0.0132
1037.00,0.0131
1036.00,0.0131
1035.00,0.0131
1034.00,0.0131
1033.00,0.0131
1032.00,0.0130
1031.00,0.0128
1030.00,0.0127
1029.00,0.0127
1028.00,0.0127
1027.00,0.0128
1026.00,0.0130
1025.00,0.0132
1024.00,0.0135
1023.00,0.0138
1022.00,0.0140
1021.00,0.0142
1020.00,0.0144
1019.00,0.0145
1018.00,0.0146
1017.00,0.0146
1016.00,0.0146
1015.00,0.0145
1014.00,0.0145
1013.00,0.0144
1012.00,0.0144
1011.00,0.0144
1010.00,0.0145
1009.00,0.0146
1008.00,0.0149
1007.00,0.0154
1006.00,0.0163
1005.00,0.0175
1004.00,0.0193
1003.00,0.0218
1002.00,0.0252
1001.00,0.0294
1000.00,0.0341
999.00,0.0381
998.00,0.0402
997.00,0.0396
996.00,0.0366
995.00,0.0320
994.00,0.0272
993.00,0.0230
992.00,0.0198
991.00,0.0175
990.00,0.0159
989.00,0.0148
988.00,0.0141
987.00,0.0136
986.00,0.0134
985.00,0.0135
984.00,0.0138
983.00,0.0144
982.00,0.0154
981.00,0.0169
980.00,0.0191
979.00,0.0221
978.00,0.0260
977.00,0.0306
976.00,0.0356
975.00,0.0405
974.00,0.0442
973.00,0.0457
972.00,0.0443
971.00,0.0401
970.00,0.0344
969.00,0.0285
968.00,0.0235
967.00,0.0196
966.00,0.0168
965.00,0.0148
964.00,0.0133
963.00,0.0123
962.00,0.0115
961.00,0.0109
960.00,0.0105
959.00,0.0102
958.00,0.0099
957.00,0.0095
956.00,0.0092
955.00,0.0090
954.00,0.0088
953.00,0.0087
952.00,0.0086
951.00,0.0085
950.00,0.0084
949.00,0.0083
948.00,0.0082
947.00,0.0083
946.00,0.0084
945.00,0.0086
944.00,0.0089
943.00,0.0092
942.00,0.0096
941.00,0.0098
940.00,0.0098
939.00,0.0096
938.00,0.0091
937.00,0.0086
936.00,0.0082
935.00,0.0078
934.00,0.0075
933.00,0.0072
932.00,0.0069
931.00,0.0067
930.00,0.0066
929.00,0.0066
928.00,0.0067
927.00,0.0068
926.00,0.0068
925.00,0.0067
924.00,0.0067
923.00,0.0066
922.00,0.0065
921.00,0.0065
920.00,0.0065
919.00,0.0066
918.00,0.0068
917.00,0.0070
916.00,0.0070
915.00,0.0069
914.00,0.0069
913.00,0.0070
912.00,0.0071
911.00,0.0073
910.00,0.0074
909.00,0.0076
908.00,0.0078
907.00,0.0083
906.00,0.0090
905.00,0.0101
904.00,0.0114
903.00,0.0131
902.00,0.0148
901.00,0.0164
900.00,0.0174
899.00,0.0176
898.00,0.0169
897.00,0.0155
896.00,0.0137
895.00,0.0119
894.00,0.0105
893.00,0.0095
892.00,0.0088
891.00,0.0084
890.00,0.0083
889.00,0.0081
888.00,0.0079
887.00,0.0076
886.00,0.0074
885.00,0.0072
884.00,0.0070
883.00,0.0070
882.00,0.0069
881.00,0.0069
880.00,0.0070
879.00,0.0073
878.00,0.0075
877.00,0.0078
876.00,0.0080
875.00,0.0081
874.00,0.0081
873.00,0.0080
872.00,0.0079
871.00,0.0079
870.00,0.0079
869.00,0.0079
868.00,0.0080
867.00,0.0081
866.00,0.0081
865.00,0.0082
864.00,0.0083
863.00,0.0084
862.00,0.0086
861.00,0.0088
860.00,0.0090
859.00,0.0091
858.00,0.0092
857.00,0.0093
856.00,0.0094
855.00,0.0095
854.00,0.0097
853.00,0.0099
852.00,0.0102
851.00,0.0107
850.00,0.0113
849.00,0.0121
848.00,0.0132
847.00,0.0147
846.00,0.0169
845.00,0.0205
844.00,0.0258
843.00,0.0322
842.00,0.0377
841.00,0.0398
840.00,0.0374
839.00,0.0317
838.00,0.0252
837.00,0.0200
836.00,0.0165
835.00,0.0145
834.00,0.0131
833.00,0.0122
832.00,0.0115
831.00,0.0111
830.00,0.0108
829.00,0.0107
828.00,0.0106
827.00,0.0105
826.00,0.0103
825.00,0.0102
824.00,0.0102
823.00,0.0102
822.00,0.0102
821.00,0.0104
820.00,0.0106
819.00,0.0110
818.00,0.0115
817.00,0.0121
816.00,0.0129
815.00,0.0140
814.00,0.0153
813.00,0.0170
812.00,0.0190
811.00,0.0209
810.00,0.0224
809.00,0.0230
808.00,0.0226
807.00,0.0214
806.00,0.0197
805.00,0.0178
804.00,0.0161
803.00,0.0147
802.00,0.0136
801.00,0.0128
800.00,0.0122
799.00,0.0117
798.00,0.0113
797.00,0.0108
796.00,0.0105
795.00,0.0102
794.00,0.0099
793.00,0.0096
792.00,0.0091
791.00,0.0086
790.00,0.0082
789.00,0.0080
788.00,0.0079
787.00,0.0078
786.00,0.0076
785.00,0.0074
784.00,0.0072
783.00,0.0071
782.00,0.0070
781.00,0.0070
780.00,0.0070
779.00,0.0069
778.00,0.0069
777.00,0.0068
776.00,0.0068
775.00,0.0069
774.00,0.0070
773.00,0.0072
772.00,0.0073
771.00,0.0074
770.00,0.0074
769.00,0.0075
768.00,0.0074
767.00,0.0072
766.00,0.0070
765.00,0.0069
764.00,0.0068
763.00,0.0068
762.00,0.0068
761.00,0.0068
760.00,0.0069
759.00,0.0069
758.00,0.0071
757.00,0.0074
756.00,0.0078
755.00,0.0081
754.00,0.0083
753.00,0.0083
752.00,0.0082
751.00,0.0082
750.00,0.0084
749.00,0.0086
748.00,0.0088
747.00,0.0089
746.00,0.0090
745.00,0.0090
744.00,0.0091
743.00,0.0095
742.00,0.0099
741.00,0.0103
740.00,0.0107
739.00,0.0110
738.00,0.0114
737.00,0.0117
736.00,0.0121
735.00,0.0125
734.00,0.0131
733.00,0.0137
732.00,0.0144
731.00,0.0150
730.00,0.0155
729.00,0.0158
728.00,0.0159
727.00,0.0160
726.00,0.0162
725.00,0.0166
724.00,0.0170
723.00,0.0174
722.00,0.0179
721.00,0.0181
720.00,0.0179
719.00,0.0171
718.00,0.0160
717.00,0.0146
716.00,0.0134
715.00,0.0125
714.00,0.0120
713.00,0.0117
712.00,0.0115
711.00,0.0114
710.00,0.0113
709.00,0.0112
708.00,0.0111
707.00,0.0109
706.00,0.0108
705.00,0.0108
704.00,0.0107
703.00,0.0105
702.00,0.0103
701.00,0.0102
700.00,0.0102
699.00,0.0102
698.00,0.0101
697.00,0.0100
696.00,0.0098
695.00,0.0097
694.00,0.0097
693.00,0.0097
692.00,0.0097
691.00,0.0097
690.00,0.0098
689.00,0.0097
688.00,0.0097
687.00,0.0097
686.00,0.0097
685.00,0.0097
684.00,0.0098
683.00,0.0098
682.00,0.0098
681.00,0.0099
680.00,0.0099
679.00,0.0098
678.00,0.0098
677.00,0.0098
676.00,0.0099
675.00,0.0100
674.00,0.0101
673.00,0.0104
672.00,0.0106
671.00,0.0107
670.00,0.0108
669.00,0.0108
668.00,0.0107
667.00,0.0103
666.00,0.0099
665.00,0.0096
664.00,0.0095
663.00,0.0094
662.00,0.0093
661.00,0.0093
660.00,0.0093
659.00,0.0093
658.00,0.0092
657.00,0.0092
656.00,0.0091
655.00,0.0091
654.00,0.0092
653.00,0.0093
652.00,0.0094
651.00,0.0095
650.00,0.0096
649.00,0.0095
648.00,0.0093
647.00,0.0090
646.00,0.0088
645.00,0.0087
644.00,0.0088
643.00,0.0088
642.00,0.0090
641.00,0.0091
640.00,0.0091
639.00,0.0091
638.00,0.0089
637.00,0.0087
636.00,0.0086
635.00,0.0084
634.00,0.0084
633.00,0.0086
632.00,0.0089
631.00,0.0093
630.00,0.0095
629.00,0.0096
628.00,0.0096
627.00,0.0095
626.00,0.0093
625.00,0.0091
624.00,0.0090
623.00,0.0090
622.00,0.0090
621.00,0.0090
620.00,0.0089
619.00,0.0088
618.00,0.0088
617.00,0.0087
616.00,0.0087
615.00,0.0087
614.00,0.0087
613.00,0.0089
612.00,0.0091
611.00,0.0093
610.00,0.0093
609.00,0.0092
608.00,0.0091
607.00,0.0090
606.00,0.0088
605.00,0.0088
604.00,0.0090
603.00,0.0093
602.00,0.0096
601.00,0.0096
600.00,0.0094
599.00,0.0092
598.00,0.0091
597.00,0.0091
596.00,0.0091
595.00,0.0091
594.00,0.0092
593.00,0.0092
592.00,0.0092
591.00,0.0093
590.00,0.0094
589.00,0.0095
588.00,0.0094
587.00,0.0091
586.00,0.0088
585.00,0.0086
584.00,0.0085
583.00,0.0087
582.00,0.0089
581.00,0.0092
580.00,0.0093
579.00,0.0094
578.00,0.0093
577.00,0.0092
576.00,0.0091
575.00,0.0089
574.00,0.0086
573.00,0.0085
572.00,0.0086
571.00,0.0090
570.00,0.0096
569.00,0.0099
568.00,0.0098
567.00,0.0095
566.00,0.0091
565.00,0.0088
564.00,0.0085
563.00,0.0083
562.00,0.0082
561.00,0.0082
560.00,0.0083
559.00,0.0086
558.00,0.0089
557.00,0.0093
556.00,0.0095
555.00,0.0096
554.00,0.0096
553.00,0.0095
552.00,0.0093
551.00,0.0088
550.00,0.0082
549.00,0.0079
548.00,0.0081
547.00,0.0088
546.00,0.0095
545.00,0.0101
544.00,0.0103
543.00,0.0105
542.00,0.0108
541.00,0.0111
540.00,0.0114
539.00,0.0118
538.00,0.0122
537.00,0.0125
536.00,0.0127
535.00,0.0129
534.00,0.0128
533.00,0.0125
532.00,0.0121
531.00,0.0118
530.00,0.0118
529.00,0.0122
528.00,0.0128
527.00,0.0131
526.00,0.0129
525.00,0.0124
524.00,0.0118
523.00,0.0112
522.00,0.0106
521.00,0.0098
520.00,0.0091
519.00,0.0086
518.00,0.0086
517.00,0.0088
516.00,0.0092
515.00,0.0095
514.00,0.0095
513.00,0.0091
512.00,0.0085
511.00,0.0081
510.00,0.0080
509.00,0.0081
508.00,0.0085
507.00,0.0094
506.00,0.0104
505.00,0.0110
504.00,0.0107
503.00,0.0100
502.00,0.0096
501.00,0.0101
500.00,0.0110
499.00,0.0115
498.00,0.0115
497.00,0.0110
496.00,0.0102
495.00,0.0095
494.00,0.0091
493.00,0.0089
492.00,0.0092
491.00,0.0096
490.00,0.0097
489.00,0.0092
488.00,0.0085
487.00,0.0081
486.00,0.0084
485.00,0.0093
484.00,0.0105
483.00,0.0113
482.00,0.0115
481.00,0.0111
480.00,0.0103
479.00,0.0098
478.00,0.0101
477.00,0.0110
476.00,0.0119
475.00,0.0124
474.00,0.0122
473.00,0.0118
472.00,0.0119
471.00,0.0126
470.00,0.0138
469.00,0.0151
468.00,0.0162
467.00,0.0170
466.00,0.0175
465.00,0.0181
464.00,0.0188
463.00,0.0194
462.00,0.0198
461.00,0.0199
460.00,0.0200
459.00,0.0200
458.00,0.0200
457.00,0.0200
456.00,0.0199
455.00,0.0195
454.00,0.0188
453.00,0.0180
452.00,0.0176
451.00,0.0176
450.00,0.0172
