Created as New Dataset,Sample 218 By Administrator Date Wednesday, September 03 2025
cm-1,A
4000.00,0.0010
3999.00,0.0010
3998.00,0.0011
3997.00,0.0011
3996.00,0.0011
3995.00,0.0010
3994.00,0.0010
3993.00,0.0010
3992.00,0.0010
3991.00,0.0009
3990.00,0.0009
3989.00,0.0009
3988.00,0.0009
3987.00,0.0009
3986.00,0.0009
3985.00,0.0009
3984.00,0.0009
3983.00,0.0009
3982.00,0.0009
3981.00,0.0008
3980.00,0.0008
3979.00,0.0008
3978.00,0.0008
3977.00,0.0008
3976.00,0.0008
3975.00,0.0008
3974.00,0.0009
3973.00,0.0009
3972.00,0.0009
3971.00,0.0009
3970.00,0.0009
3969.00,0.0009
3968.00,0.0009
3967.00,0.0008
3966.00,0.0008
3965.00,0.0008
3964.00,0.0008
3963.00,0.0008
3962.00,0.0008
3961.00,0.0008
3960.00,0.0008
3959.00,0.0007
3958.00,0.0007
3957.00,0.0007
3956.00,0.0008
3955.00,0.0008
3954.00,0.0008
3953.00,0.0008
3952.00,0.0008
3951.00,0.0008
3950.00,0.0008
3949.00,0.0008
3948.00,0.0008
3947.00,0.0008
3946.00,0.0007
3945.00,0.0007
3944.00,0.0007
3943.00,0.0007
3942.00,0.0007
3941.00,0.0008
3940.00,0.0008
3939.00,0.0009
3938.00,0.0009
3937.00,0.0009
3936.00,0.0010
3935.00,0.0010
3934.00,0.0010
3933.00,0.0010
3932.00,0.0009
3931.00,0.0009
3930.00,0.0009
3929.00,0.0009
3928.00,0.0010
3927.00,0.0010
3926.00,0.0010
3925.00,0.0010
3924.00,0.0009
3923.00,0.0009
3922.00,0.0009
3921.00,0.0009
3920.00,0.0009
3919.00,0.0010
3918.00,0.0010
3917.00,0.0009
3916.00,0.0009
3915.00,0.0009
3914.00,0.0009
3913.00,0.0009
3912.00,0.0009
3911.00,0.0009
3910.00,0.0009
3909.00,0.0009
3908.00,0.0009
3907.00,0.0009
3906.00,0.0009
3905.00,0.0009
3904.00,0.0010
3903.00,0.0010
3902.00,0.0011
3901.00,0.0010
3900.00,0.0010
3899.00,0.0009
3898.00,0.0009
3897.00,0.0008
3896.00,0.0008
3895.00,0.0008
3894.00,0.0008
3893.00,0.0008
3892.00,0.0008
3891.00,0.0009
3890.00,0.0009
3889.00,0.0009
3888.00,0.0009
3887.00,0.0009
3886.00,0.0009
3885.00,0.0009
3884.00,0.0009
3883.00,0.0009
3882.00,0.0009
3881.00,0.0008
3880.00,0.0009
3879.00,0.0009
3878.00,0.0009
3877.00,0.0009
3876.00,0.0009
3875.00,0.0009
3874.00,0.0010
3873.00,0.0010
3872.00,0.0010
3871.00,0.0010
3870.00,0.0009
3869.00,0.0009
3868.00,0.0009
3867.00,0.0009
3866.00,0.0009
3865.00,0.0009
3864.00,0.0009
3863.00,0.0009
3862.00,0.0009
3861.00,0.0009
3860.00,0.0009
3859.00,0.0009
3858.00,0.0008
3857.00,0.0008
3856.00,0.0008
3855.00,0.0008
3854.00,0.0008
3853.00,0.0008
3852.00,0.0008
3851.00,0.0008
3850.00,0.0008
3849.00,0.0008
3848.00,0.0008
3847.00,0.0008
3846.00,0.0008
3845.00,0.0008
3844.00,0.0008
3843.00,0.0008
3842.00,0.0009
3841.00,0.0009
3840.00,0.0009
3839.00,0.0009
3838.00,0.0009
3837.00,0.0009
3836.00,0.0009
3835.00,0.0009
3834.00,0.0009
3833.00,0.0009
3832.00,0.0009
3831.00,0.0009
3830.00,0.0009
3829.00,0.0009
3828.00,0.0009
3827.00,0.0009
3826.00,0.0009
3825.00,0.0009
3824.00,0.0009
3823.00,0.0009
3822.00,0.0009
3821.00,0.0009
3820.00,0.0009
3819.00,0.0010
3818.00,0.0009
3817.00,0.0009
3816.00,0.0009
3815.00,0.0008
3814.00,0.0008
3813.00,0.0008
3812.00,0.0008
3811.00,0.0008
3810.00,0.0009
3809.00,0.0009
3808.00,0.0009
3807.00,0.0010
3806.00,0.0010
3805.00,0.0010
3804.00,0.0009
3803.00,0.0008
3802.00,0.0008
3801.00,0.0008
3800.00,0.0008
3799.00,0.0008
3798.00,0.0008
3797.00,0.0008
3796.00,0.0007
3795.00,0.0007
3794.00,0.0007
3793.00,0.0007
3792.00,0.0007
3791.00,0.0007
3790.00,0.0007
3789.00,0.0008
3788.00,0.0008
3787.00,0.0009
3786.00,0.0009
3785.00,0.0009
3784.00,0.0009
3783.00,0.0009
3782.00,0.0009
3781.00,0.0009
3780.00,0.0009
3779.00,0.0009
3778.00,0.0009
3777.00,0.0008
3776.00,0.0008
3775.00,0.0008
3774.00,0.0009
3773.00,0.0009
3772.00,0.0010
3771.00,0.0010
3770.00,0.0010
3769.00,0.0009
3768.00,0.0009
3767.00,0.0009
3766.00,0.0009
3765.00,0.0009
3764.00,0.0009
3763.00,0.0010
3762.00,0.0010
3761.00,0.0010
3760.00,0.0010
3759.00,0.0010
3758.00,0.0010
3757.00,0.0010
3756.00,0.0010
3755.00,0.0010
3754.00,0.0010
3753.00,0.0011
3752.00,0.0011
3751.00,0.0011
3750.00,0.0011
3749.00,0.0012
3748.00,0.0011
3747.00,0.0011
3746.00,0.0010
3745.00,0.0009
3744.00,0.0009
3743.00,0.0009
3742.00,0.0010
3741.00,0.0010
3740.00,0.0010
3739.00,0.0010
3738.00,0.0011
3737.00,0.0011
3736.00,0.0011
3735.00,0.0010
3734.00,0.0010
3733.00,0.0010
3732.00,0.0009
3731.00,0.0009
3730.00,0.0009
3729.00,0.0009
3728.00,0.0009
3727.00,0.0008
3726.00,0.0009
3725.00,0.0008
3724.00,0.0008
3723.00,0.0008
3722.00,0.0007
3721.00,0.0007
3720.00,0.0007
3719.00,0.0007
3718.00,0.0007
3717.00,0.0007
3716.00,0.0007
3715.00,0.0008
3714.00,0.0008
3713.00,0.0008
3712.00,0.0007
3711.00,0.0007
3710.00,0.0007
3709.00,0.0007
3708.00,0.0007
3707.00,0.0007
3706.00,0.0007
3705.00,0.0007
3704.00,0.0007
3703.00,0.0007
3702.00,0.0007
3701.00,0.0007
3700.00,0.0008
3699.00,0.0008
3698.00,0.0007
3697.00,0.0007
3696.00,0.0008
3695.00,0.0008
3694.00,0.0008
3693.00,0.0008
3692.00,0.0008
3691.00,0.0008
3690.00,0.0008
3689.00,0.0008
3688.00,0.0008
3687.00,0.0009
3686.00,0.0009
3685.00,0.0009
3684.00,0.0009
3683.00,0.0009
3682.00,0.0009
3681.00,0.0008
3680.00,0.0009
3679.00,0.0009
3678.00,0.0009
3677.00,0.0010
3676.00,0.0009
3675.00,0.0009
3674.00,0.0008
3673.00,0.0008
3672.00,0.0008
3671.00,0.0008
3670.00,0.0008
3669.00,0.0008
3668.00,0.0008
3667.00,0.0007
3666.00,0.0007
3665.00,0.0008
3664.00,0.0008
3663.00,0.0007
3662.00,0.0007
3661.00,0.0007
3660.00,0.0007
3659.00,0.0008
3658.00,0.0008
3657.00,0.0008
3656.00,0.0008
3655.00,0.0007
3654.00,0.0008
3653.00,0.0008
3652.00,0.0009
3651.00,0.0010
3650.00,0.0010
3649.00,0.0011
3648.00,0.0010
3647.00,0.0009
3646.00,0.0008
3645.00,0.0008
3644.00,0.0007
3643.00,0.0007
3642.00,0.0007
3641.00,0.0007
3640.00,0.0008
3639.00,0.0008
3638.00,0.0008
3637.00,0.0008
3636.00,0.0008
3635.00,0.0008
3634.00,0.0008
3633.00,0.0009
3632.00,0.0009
3631.00,0.0009
3630.00,0.0010
3629.00,0.0009
3628.00,0.0009
3627.00,0.0009
3626.00,0.0009
3625.00,0.0009
3624.00,0.0010
3623.00,0.0010
3622.00,0.0010
3621.00,0.0010
3620.00,0.0010
3619.00,0.0011
3618.00,0.0011
3617.00,0.0011
3616.00,0.0011
3615.00,0.0011
3614.00,0.0011
3613.00,0.0012
3612.00,0.0012
3611.00,0.0012
3610.00,0.0012
3609.00,0.0012
3608.00,0.0012
3607.00,0.0011
3606.00,0.0011
3605.00,0.0011
3604.00,0.0011
3603.00,0.0011
3602.00,0.0011
3601.00,0.0011
3600.00,0.0011
3599.00,0.0012
3598.00,0.0012
3597.00,0.0012
3596.00,0.0012
3595.00,0.0012
3594.00,0.0012
3593.00,0.0012
3592.00,0.0013
3591.00,0.0013
3590.00,0.0013
3589.00,0.0013
3588.00,0.0013
3587.00,0.0013
3586.00,0.0013
3585.00,0.0013
3584.00,0.0014
3583.00,0.0014
3582.00,0.0014
3581.00,0.0014
3580.00,0.0014
3579.00,0.0014
3578.00,0.0014
3577.00,0.0014
3576.00,0.0015
3575.00,0.0015
3574.00,0.0015
3573.00,0.0015
3572.00,0.0016
3571.00,0.0016
3570.00,0.0017
3569.00,0.0017
3568.00,0.0017
3567.00,0.0017
3566.00,0.0017
3565.00,0.0017
3564.00,0.0017
3563.00,0.0018
3562.00,0.0018
3561.00,0.0017
3560.00,0.0017
3559.00,0.0017
3558.00,0.0018
3557.00,0.0018
3556.00,0.0019
3555.00,0.0020
3554.00,0.0020
3553.00,0.0020
3552.00,0.0021
3551.00,0.0021
3550.00,0.0021
3549.00,0.0021
3548.00,0.0021
3547.00,0.0021
3546.00,0.0021
3545.00,0.0022
3544.00,0.0022
3543.00,0.0022
3542.00,0.0022
3541.00,0.0022
3540.00,0.0022
3539.00,0.0022
3538.00,0.0023
3537.00,0.0023
3536.00,0.0023
3535.00,0.0024
3534.00,0.0024
3533.00,0.0024
3532.00,0.0024
3531.00,0.0025
3530.00,0.0025
3529.00,0.0025
3528.00,0.0025
3527.00,0.0026
3526.00,0.0026
3525.00,0.0026
3524.00,0.0026
3523.00,0.0026
3522.00,0.0026
3521.00,0.0026
3520.00,0.0026
3519.00,0.0027
3518.00,0.0027
3517.00,0.0027
3516.00,0.0027
3515.00,0.0027
3514.00,0.0028
3513.00,0.0028
3512.00,0.0028
3511.00,0.0028
3510.00,0.0029
3509.00,0.0029
3508.00,0.0029
3507.00,0.0030
3506.00,0.0030
3505.00,0.0030
3504.00,0.0030
3503.00,0.0030
3502.00,0.0030
3501.00,0.0030
3500.00,0.0031
3499.00,0.0031
3498.00,0.0031
3497.00,0.0031
3496.00,0.0032
3495.00,0.0032
3494.00,0.0032
3493.00,0.0032
3492.00,0.0033
3491.00,0.0033
3490.00,0.0033
3489.00,0.0034
3488.00,0.0034
3487.00,0.0035
3486.00,0.0035
3485.00,0.0035
3484.00,0.0035
3483.00,0.0036
3482.00,0.0036
3481.00,0.0036
3480.00,0.0036
3479.00,0.0036
3478.00,0.0036
3477.00,0.0036
3476.00,0.0036
3475.00,0.0036
3474.00,0.0037
3473.00,0.0037
3472.00,0.0037
3471.00,0.0037
3470.00,0.0038
3469.00,0.0038
3468.00,0.0038
3467.00,0.0038
3466.00,0.0039
3465.00,0.0040
3464.00,0.0040
3463.00,0.0040
3462.00,0.0040
3461.00,0.0040
3460.00,0.0040
3459.00,0.0040
3458.00,0.0040
3457.00,0.0040
3456.00,0.0040
3455.00,0.0040
3454.00,0.0040
3453.00,0.0041
3452.00,0.0041
3451.00,0.0041
3450.00,0.0042
3449.00,0.0042
3448.00,0.0042
3447.00,0.0043
3446.00,0.0043
3445.00,0.0043
3444.00,0.0044
3443.00,0.0044
3442.00,0.0044
3441.00,0.0045
3440.00,0.0045
3439.00,0.0045
3438.00,0.0045
3437.00,0.0045
3436.00,0.0045
3435.00,0.0045
3434.00,0.0045
3433.00,0.0045
3432.00,0.0045
3431.00,0.0045
3430.00,0.0045
3429.00,0.0045
3428.00,0.0045
3427.00,0.0045
3426.00,0.0046
3425.00,0.0046
3424.00,0.0046
3423.00,0.0047
3422.00,0.0047
3421.00,0.0047
3420.00,0.0047
3419.00,0.0047
3418.00,0.0047
3417.00,0.0047
3416.00,0.0048
3415.00,0.0048
3414.00,0.0049
3413.00,0.0049
3412.00,0.0049
3411.00,0.0049
3410.00,0.0049
3409.00,0.0049
3408.00,0.0049
3407.00,0.0049
3406.00,0.0049
3405.00,0.0049
3404.00,0.0048
3403.00,0.0048
3402.00,0.0048
3401.00,0.0049
3400.00,0.0049
3399.00,0.0049
3398.00,0.0049
3397.00,0.0049
3396.00,0.0049
3395.00,0.0049
3394.00,0.0048
3393.00,0.0048
3392.00,0.0049
3391.00,0.0049
3390.00,0.0050
3389.00,0.0050
3388.00,0.0050
3387.00,0.0050
3386.00,0.0050
3385.00,0.0050
3384.00,0.0050
3383.00,0.0049
3382.00,0.0049
3381.00,0.0049
3380.00,0.0049
3379.00,0.0049
3378.00,0.0049
3377.00,0.0049
3376.00,0.0049
3375.00,0.0049
3374.00,0.0050
3373.00,0.0050
3372.00,0.0050
3371.00,0.0050
3370.00,0.0050
3369.00,0.0050
3368.00,0.0050
3367.00,0.0050
3366.00,0.0050
3365.00,0.0050
3364.00,0.0050
3363.00,0.0050
3362.00,0.0050
3361.00,0.0050
3360.00,0.0051
3359.00,0.0051
3358.00,0.0051
3357.00,0.0051
3356.00,0.0051
3355.00,0.0050
3354.00,0.0050
3353.00,0.0050
3352.00,0.0050
3351.00,0.0050
3350.00,0.0050
3349.00,0.0050
3348.00,0.0050
3347.00,0.0050
3346.00,0.0050
3345.00,0.0050
3344.00,0.0050
3343.00,0.0050
3342.00,0.0050
3341.00,0.0050
3340.00,0.0050
3339.00,0.0049
3338.00,0.0049
3337.00,0.0049
3336.00,0.0049
3335.00,0.0049
3334.00,0.0049
3333.00,0.0049
3332.00,0.0049
3331.00,0.0049
3330.00,0.0048
3329.00,0.0048
3328.00,0.0048
3327.00,0.0048
3326.00,0.0047
3325.00,0.0047
3324.00,0.0047
3323.00,0.0047
3322.00,0.0046
3321.00,0.0047
3320.00,0.0047
3319.00,0.0047
3318.00,0.0047
3317.00,0.0047
3316.00,0.0047
3315.00,0.0047
3314.00,0.0047
3313.00,0.0047
3312.00,0.0048
3311.00,0.0048
3310.00,0.0048
3309.00,0.0048
3308.00,0.0048
3307.00,0.0048
3306.00,0.0048
3305.00,0.0048
3304.00,0.0048
3303.00,0.0049
3302.00,0.0048
3301.00,0.0048
3300.00,0.0048
3299.00,0.0047
3298.00,0.0047
3297.00,0.0046
3296.00,0.0046
3295.00,0.0046
3294.00,0.0046
3293.00,0.0046
3292.00,0.0046
3291.00,0.0046
3290.00,0.0046
3289.00,0.0046
3288.00,0.0046
3287.00,0.0045
3286.00,0.0045
3285.00,0.0045
3284.00,0.0045
3283.00,0.0044
3282.00,0.0044
3281.00,0.0044
3280.00,0.0044
3279.00,0.0044
3278.00,0.0043
3277.00,0.0043
3276.00,0.0043
3275.00,0.0043
3274.00,0.0042
3273.00,0.0042
3272.00,0.0042
3271.00,0.0042
3270.00,0.0042
3269.00,0.0042
3268.00,0.0042
3267.00,0.0042
3266.00,0.0042
3265.00,0.0042
3264.00,0.0042
3263.00,0.0042
3262.00,0.0042
3261.00,0.0041
3260.00,0.0041
3259.00,0.0040
3258.00,0.0040
3257.00,0.0040
3256.00,0.0040
3255.00,0.0040
3254.00,0.0039
3253.00,0.0039
3252.00,0.0039
3251.00,0.0039
3250.00,0.0039
3249.00,0.0039
3248.00,0.0039
3247.00,0.0039
3246.00,0.0038
3245.00,0.0038
3244.00,0.0038
3243.00,0.0038
3242.00,0.0038
3241.00,0.0038
3240.00,0.0038
3239.00,0.0038
3238.00,0.0038
3237.00,0.0038
3236.00,0.0038
3235.00,0.0038
3234.00,0.0038
3233.00,0.0038
3232.00,0.0038
3231.00,0.0039
3230.00,0.0039
3229.00,0.0039
3228.00,0.0039
3227.00,0.0038
3226.00,0.0039
3225.00,0.0039
3224.00,0.0039
3223.00,0.0040
3222.00,0.0040
3221.00,0.0040
3220.00,0.0040
3219.00,0.0040
3218.00,0.0040
3217.00,0.0040
3216.00,0.0040
3215.00,0.0040
3214.00,0.0041
3213.00,0.0041
3212.00,0.0041
3211.00,0.0042
3210.00,0.0042
3209.00,0.0042
3208.00,0.0042
3207.00,0.0041
3206.00,0.0041
3205.00,0.0041
3204.00,0.0041
3203.00,0.0041
3202.00,0.0041
3201.00,0.0041
3200.00,0.0040
3199.00,0.0040
3198.00,0.0040
3197.00,0.0040
3196.00,0.0040
3195.00,0.0040
3194.00,0.0040
3193.00,0.0041
3192.00,0.0041
3191.00,0.0041
3190.00,0.0040
3189.00,0.0040
3188.00,0.0040
3187.00,0.0040
3186.00,0.0040
3185.00,0.0040
3184.00,0.0040
3183.00,0.0040
3182.00,0.0040
3181.00,0.0040
3180.00,0.0039
3179.00,0.0039
3178.00,0.0038
3177.00,0.0038
3176.00,0.0038
3175.00,0.0038
3174.00,0.0038
3173.00,0.0038
3172.00,0.0037
3171.00,0.0037
3170.00,0.0037
3169.00,0.0038
3168.00,0.0038
3167.00,0.0038
3166.00,0.0037
3165.00,0.0037
3164.00,0.0037
3163.00,0.0037
3162.00,0.0036
3161.00,0.0036
3160.00,0.0036
3159.00,0.0036
3158.00,0.0036
3157.00,0.0036
3156.00,0.0036
3155.00,0.0036
3154.00,0.0036
3153.00,0.0037
3152.00,0.0037
3151.00,0.0037
3150.00,0.0036
3149.00,0.0036
3148.00,0.0036
3147.00,0.0036
3146.00,0.0036
3145.00,0.0036
3144.00,0.0036
3143.00,0.0035
3142.00,0.0035
3141.00,0.0035
3140.00,0.0035
3139.00,0.0036
3138.00,0.0036
3137.00,0.0036
3136.00,0.0035
3135.00,0.0035
3134.00,0.0035
3133.00,0.0034
3132.00,0.0034
3131.00,0.0034
3130.00,0.0034
3129.00,0.0034
3128.00,0.0034
3127.00,0.0034
3126.00,0.0034
3125.00,0.0033
3124.00,0.0033
3123.00,0.0033
3122.00,0.0032
3121.00,0.0032
3120.00,0.0032
3119.00,0.0032
3118.00,0.0031
3117.00,0.0031
3116.00,0.0031
3115.00,0.0031
3114.00,0.0030
3113.00,0.0030
3112.00,0.0030
3111.00,0.0030
3110.00,0.0029
3109.00,0.0029
3108.00,0.0030
3107.00,0.0030
3106.00,0.0030
3105.00,0.0030
3104.00,0.0030
3103.00,0.0030
3102.00,0.0030
3101.00,0.0029
3100.00,0.0029
3099.00,0.0029
3098.00,0.0029
3097.00,0.0029
3096.00,0.0029
3095.00,0.0029
3094.00,0.0029
3093.00,0.0029
3092.00,0.0029
3091.00,0.0028
3090.00,0.0028
3089.00,0.0028
3088.00,0.0028
3087.00,0.0028
3086.00,0.0029
3085.00,0.0029
3084.00,0.0029
3083.00,0.0029
3082.00,0.0029
3081.00,0.0029
3080.00,0.0029
3079.00,0.0029
3078.00,0.0029
3077.00,0.0029
3076.00,0.0029
3075.00,0.0030
3074.00,0.0030
3073.00,0.0030
3072.00,0.0030
3071.00,0.0030
3070.00,0.0030
3069.00,0.0030
3068.00,0.0030
3067.00,0.0030
3066.00,0.0030
3065.00,0.0030
3064.00,0.0030
3063.00,0.0031
3062.00,0.0031
3061.00,0.0032
3060.00,0.0032
3059.00,0.0032
3058.00,0.0032
3057.00,0.0032
3056.00,0.0032
3055.00,0.0032
3054.00,0.0032
3053.00,0.0032
3052.00,0.0032
3051.00,0.0032
3050.00,0.0032
3049.00,0.0033
3048.00,0.0033
3047.00,0.0033
3046.00,0.0033
3045.00,0.0033
3044.00,0.0034
3043.00,0.0034
3042.00,0.0035
3041.00,0.0035
3040.00,0.0035
3039.00,0.0036
3038.00,0.0036
3037.00,0.0036
3036.00,0.0037
3035.00,0.0038
3034.00,0.0038
3033.00,0.0038
3032.00,0.0038
3031.00,0.0038
3030.00,0.0038
3029.00,0.0038
3028.00,0.0038
3027.00,0.0039
3026.00,0.0040
3025.00,0.0041
3024.00,0.0041
3023.00,0.0042
3022.00,0.0043
3021.00,0.0044
3020.00,0.0044
3019.00,0.0045
3018.00,0.0046
3017.00,0.0047
3016.00,0.0048
3015.00,0.0049
3014.00,0.0050
3013.00,0.0051
3012.00,0.0052
3011.00,0.0053
3010.00,0.0055
3009.00,0.0056
3008.00,0.0057
3007.00,0.0058
3006.00,0.0059
3005.00,0.0060
3004.00,0.0062
3003.00,0.0064
3002.00,0.0066
3001.00,0.0068
3000.00,0.0071
2999.00,0.0073
2998.00,0.0076
2997.00,0.0079
2996.00,0.0082
2995.00,0.0086
2994.00,0.0090
2993.00,0.0095
2992.00,0.0099
2991.00,0.0105
2990.00,0.0111
2989.00,0.0117
2988.00,0.0125
2987.00,0.0133
2986.00,0.0142
2985.00,0.0151
2984.00,0.0162
2983.00,0.0174
2982.00,0.0188
2981.00,0.0203
2980.00,0.0222
2979.00,0.0243
2978.00,0.0266
2977.00,0.0293
2976.00,0.0323
2975.00,0.0357
2974.00,0.0396
2973.00,0.0440
2972.00,0.0491
2971.00,0.0547
2970.00,0.0609
2969.00,0.0676
2968.00,0.0748
2967.00,0.0824
2966.00,0.0902
2965.00,0.0979
2964.00,0.1053
2963.00,0.1121
2962.00,0.1179
2961.00,0.1228
2960.00,0.1270
2959.00,0.1310
2958.00,0.1353
2957.00,0.1405
2956.00,0.1469
2955.00,0.1546
2954.00,0.1634
2953.00,0.1725
2952.00,0.1809
2951.00,0.1871
2950.00,0.1900
2949.00,0.1886
2948.00,0.1828
2947.00,0.1732
2946.00,0.1611
2945.00,0.1480
2944.00,0.1356
2943.00,0.1249
2942.00,0.1165
2941.00,0.1108
2940.00,0.1076
2939.00,0.1067
2938.00,0.1078
2937.00,0.1108
2936.00,0.1154
2935.00,0.1216
2934.00,0.1293
2933.00,0.1382
2932.00,0.1484
2931.00,0.1595
2930.00,0.1714
2929.00,0.1837
2928.00,0.1961
2927.00,0.2084
2926.00,0.2205
2925.00,0.2323
2924.00,0.2439
2923.00,0.2556
2922.00,0.2673
2921.00,0.2788
2920.00,0.2892
2919.00,0.2974
2918.00,0.3021
2917.00,0.3021
2916.00,0.2973
2915.00,0.2884
2914.00,0.2766
2913.00,0.2635
2912.00,0.2503
2911.00,0.2381
2910.00,0.2270
2909.00,0.2171
2908.00,0.2081
2907.00,0.1996
2906.00,0.1916
2905.00,0.1837
2904.00,0.1760
2903.00,0.1685
2902.00,0.1613
2901.00,0.1543
2900.00,0.1477
2899.00,0.1415
2898.00,0.1357
2897.00,0.1304
2896.00,0.1256
2895.00,0.1215
2894.00,0.1179
2893.00,0.1150
2892.00,0.1128
2891.00,0.1111
2890.00,0.1100
2889.00,0.1093
2888.00,0.1090
2887.00,0.1091
2886.00,0.1095
2885.00,0.1103
2884.00,0.1115
2883.00,0.1133
2882.00,0.1156
2881.00,0.1182
2880.00,0.1208
2879.00,0.1231
2878.00,0.1246
2877.00,0.1252
2876.00,0.1249
2875.00,0.1242
2874.00,0.1236
2873.00,0.1235
2872.00,0.1243
2871.00,0.1258
2870.00,0.1279
2869.00,0.1300
2868.00,0.1313
2867.00,0.1310
2866.00,0.1285
2865.00,0.1236
2864.00,0.1167
2863.00,0.1086
2862.00,0.1005
2861.00,0.0934
2860.00,0.0879
2859.00,0.0840
2858.00,0.0818
2857.00,0.0809
2856.00,0.0812
2855.00,0.0823
2854.00,0.0840
2853.00,0.0861
2852.00,0.0882
2851.00,0.0901
2850.00,0.0914
2849.00,0.0922
2848.00,0.0928
2847.00,0.0937
2846.00,0.0954
2845.00,0.0981
2844.00,0.1020
2843.00,0.1067
2842.00,0.1117
2841.00,0.1164
2840.00,0.1202
2839.00,0.1220
2838.00,0.1214
2837.00,0.1178
2836.00,0.1114
2835.00,0.1026
2834.00,0.0923
2833.00,0.0817
2832.00,0.0716
2831.00,0.0625
2830.00,0.0549
2829.00,0.0486
2828.00,0.0435
2827.00,0.0393
2826.00,0.0360
2825.00,0.0332
2824.00,0.0309
2823.00,0.0289
2822.00,0.0273
2821.00,0.0259
2820.00,0.0246
2819.00,0.0235
2818.00,0.0226
2817.00,0.0217
2816.00,0.0210
2815.00,0.0203
2814.00,0.0197
2813.00,0.0191
2812.00,0.0185
2811.00,0.0180
2810.00,0.0174
2809.00,0.0168
2808.00,0.0162
2807.00,0.0156
2806.00,0.0149
2805.00,0.0142
2804.00,0.0136
2803.00,0.0130
2802.00,0.0125
2801.00,0.0120
2800.00,0.0116
2799.00,0.0113
2798.00,0.0110
2797.00,0.0107
2796.00,0.0105
2795.00,0.0103
2794.00,0.0100
2793.00,0.0097
2792.00,0.0094
2791.00,0.0092
2790.00,0.0089
2789.00,0.0086
2788.00,0.0083
2787.00,0.0081
2786.00,0.0078
2785.00,0.0076
2784.00,0.0073
2783.00,0.0071
2782.00,0.0069
2781.00,0.0067
2780.00,0.0065
2779.00,0.0064
2778.00,0.0063
2777.00,0.0062
2776.00,0.0060
2775.00,0.0059
2774.00,0.0058
2773.00,0.0057
2772.00,0.0057
2771.00,0.0057
2770.00,0.0056
2769.00,0.0056
2768.00,0.0055
2767.00,0.0055
2766.00,0.0055
2765.00,0.0055
2764.00,0.0054
2763.00,0.0054
2762.00,0.0053
2761.00,0.0053
2760.00,0.0052
2759.00,0.0052
2758.00,0.0052
2757.00,0.0052
2756.00,0.0051
2755.00,0.0051
2754.00,0.0051
2753.00,0.0051
2752.00,0.0052
2751.00,0.0052
2750.00,0.0052
2749.00,0.0051
2748.00,0.0051
2747.00,0.0052
2746.00,0.0052
2745.00,0.0052
2744.00,0.0053
2743.00,0.0054
2742.00,0.0054
2741.00,0.0055
2740.00,0.0056
2739.00,0.0058
2738.00,0.0059
2737.00,0.0061
2736.00,0.0062
2735.00,0.0064
2734.00,0.0065
2733.00,0.0067
2732.00,0.0069
2731.00,0.0071
2730.00,0.0073
2729.00,0.0076
2728.00,0.0079
2727.00,0.0082
2726.00,0.0085
2725.00,0.0087
2724.00,0.0088
2723.00,0.0089
2722.00,0.0088
2721.00,0.0086
2720.00,0.0083
2719.00,0.0080
2718.00,0.0076
2717.00,0.0073
2716.00,0.0070
2715.00,0.0067
2714.00,0.0065
2713.00,0.0062
2712.00,0.0060
2711.00,0.0058
2710.00,0.0056
2709.00,0.0054
2708.00,0.0053
2707.00,0.0052
2706.00,0.0051
2705.00,0.0050
2704.00,0.0049
2703.00,0.0048
2702.00,0.0047
2701.00,0.0046
2700.00,0.0045
2699.00,0.0045
2698.00,0.0044
2697.00,0.0044
2696.00,0.0044
2695.00,0.0044
2694.00,0.0044
2693.00,0.0045
2692.00,0.0044
2691.00,0.0044
2690.00,0.0044
2689.00,0.0044
2688.00,0.0044
2687.00,0.0044
2686.00,0.0044
2685.00,0.0043
2684.00,0.0044
2683.00,0.0044
2682.00,0.0045
2681.00,0.0045
2680.00,0.0045
2679.00,0.0045
2678.00,0.0045
2677.00,0.0045
2676.00,0.0046
2675.00,0.0045
2674.00,0.0045
2673.00,0.0045
2672.00,0.0045
2671.00,0.0045
2670.00,0.0044
2669.00,0.0044
2668.00,0.0044
2667.00,0.0044
2666.00,0.0044
2665.00,0.0044
2664.00,0.0045
2663.00,0.0046
2662.00,0.0047
2661.00,0.0047
2660.00,0.0048
2659.00,0.0048
2658.00,0.0048
2657.00,0.0047
2656.00,0.0047
2655.00,0.0046
2654.00,0.0046
2653.00,0.0045
2652.00,0.0045
2651.00,0.0045
2650.00,0.0044
2649.00,0.0044
2648.00,0.0043
2647.00,0.0042
2646.00,0.0042
2645.00,0.0041
2644.00,0.0041
2643.00,0.0040
2642.00,0.0040
2641.00,0.0039
2640.00,0.0039
2639.00,0.0039
2638.00,0.0038
2637.00,0.0038
2636.00,0.0038
2635.00,0.0038
2634.00,0.0038
2633.00,0.0038
2632.00,0.0038
2631.00,0.0038
2630.00,0.0038
2629.00,0.0039
2628.00,0.0039
2627.00,0.0039
2626.00,0.0040
2625.00,0.0040
2624.00,0.0040
2623.00,0.0040
2622.00,0.0040
2621.00,0.0041
2620.00,0.0041
2619.00,0.0041
2618.00,0.0040
2617.00,0.0040
2616.00,0.0040
2615.00,0.0040
2614.00,0.0040
2613.00,0.0039
2612.00,0.0039
2611.00,0.0038
2610.00,0.0038
2609.00,0.0036
2608.00,0.0035
2607.00,0.0034
2606.00,0.0033
2605.00,0.0033
2604.00,0.0033
2603.00,0.0032
2602.00,0.0032
2601.00,0.0032
2600.00,0.0032
2599.00,0.0032
2598.00,0.0032
2597.00,0.0032
2596.00,0.0032
2595.00,0.0033
2594.00,0.0033
2593.00,0.0033
2592.00,0.0033
2591.00,0.0033
2590.00,0.0034
2589.00,0.0035
2588.00,0.0035
2587.00,0.0036
2586.00,0.0037
2585.00,0.0038
2584.00,0.0039
2583.00,0.0039
2582.00,0.0039
2581.00,0.0039
2580.00,0.0039
2579.00,0.0038
2578.00,0.0037
2577.00,0.0036
2576.00,0.0034
2575.00,0.0033
2574.00,0.0032
2573.00,0.0031
2572.00,0.0029
2571.00,0.0028
2570.00,0.0027
2569.00,0.0026
2568.00,0.0025
2567.00,0.0025
2566.00,0.0024
2565.00,0.0024
2564.00,0.0023
2563.00,0.0023
2562.00,0.0024
2561.00,0.0024
2560.00,0.0023
2559.00,0.0023
2558.00,0.0023
2557.00,0.0023
2556.00,0.0023
2555.00,0.0023
2554.00,0.0023
2553.00,0.0022
2552.00,0.0021
2551.00,0.0020
2550.00,0.0019
2549.00,0.0018
2548.00,0.0018
2547.00,0.0018
2546.00,0.0018
2545.00,0.0018
2544.00,0.0017
2543.00,0.0017
2542.00,0.0017
2541.00,0.0017
2540.00,0.0017
2539.00,0.0017
2538.00,0.0017
2537.00,0.0016
2536.00,0.0016
2535.00,0.0015
2534.00,0.0015
2533.00,0.0014
2532.00,0.0014
2531.00,0.0013
2530.00,0.0013
2529.00,0.0013
2528.00,0.0014
2527.00,0.0014
2526.00,0.0014
2525.00,0.0014
2524.00,0.0014
2523.00,0.0014
2522.00,0.0013
2521.00,0.0014
2520.00,0.0014
2519.00,0.0013
2518.00,0.0013
2517.00,0.0013
2516.00,0.0012
2515.00,0.0012
2514.00,0.0012
2513.00,0.0012
2512.00,0.0012
2511.00,0.0012
2510.00,0.0012
2509.00,0.0011
2508.00,0.0011
2507.00,0.0011
2506.00,0.0011
2505.00,0.0010
2504.00,0.0010
2503.00,0.0010
2502.00,0.0010
2501.00,0.0011
2500.00,0.0011
2499.00,0.0012
2498.00,0.0012
2497.00,0.0013
2496.00,0.0012
2495.00,0.0011
2494.00,0.0011
2493.00,0.0010
2492.00,0.0010
2491.00,0.0010
2490.00,0.0010
2489.00,0.0010
2488.00,0.0010
2487.00,0.0009
2486.00,0.0009
2485.00,0.0009
2484.00,0.0009
2483.00,0.0010
2482.00,0.0010
2481.00,0.0009
2480.00,0.0009
2479.00,0.0009
2478.00,0.0009
2477.00,0.0009
2476.00,0.0009
2475.00,0.0009
2474.00,0.0009
2473.00,0.0010
2472.00,0.0010
2471.00,0.0010
2470.00,0.0010
2469.00,0.0010
2468.00,0.0011
2467.00,0.0011
2466.00,0.0010
2465.00,0.0010
2464.00,0.0009
2463.00,0.0009
2462.00,0.0008
2461.00,0.0008
2460.00,0.0008
2459.00,0.0008
2458.00,0.0009
2457.00,0.0009
2456.00,0.0010
2455.00,0.0011
2454.00,0.0011
2453.00,0.0011
2452.00,0.0010
2451.00,0.0010
2450.00,0.0010
2449.00,0.0011
2448.00,0.0011
2447.00,0.0011
2446.00,0.0011
2445.00,0.0011
2444.00,0.0010
2443.00,0.0010
2442.00,0.0010
2441.00,0.0010
2440.00,0.0010
2439.00,0.0010
2438.00,0.0011
2437.00,0.0012
2436.00,0.0012
2435.00,0.0013
2434.00,0.0013
2433.00,0.0013
2432.00,0.0012
2431.00,0.0012
2430.00,0.0011
2429.00,0.0011
2428.00,0.0011
2427.00,0.0011
2426.00,0.0011
2425.00,0.0011
2424.00,0.0010
2423.00,0.0011
2422.00,0.0011
2421.00,0.0011
2420.00,0.0012
2419.00,0.0011
2418.00,0.0011
2417.00,0.0011
2416.00,0.0011
2415.00,0.0011
2414.00,0.0011
2413.00,0.0010
2412.00,0.0010
2411.00,0.0011
2410.00,0.0010
2409.00,0.0010
2408.00,0.0010
2407.00,0.0009
2406.00,0.0009
2405.00,0.0009
2404.00,0.0008
2403.00,0.0008
2402.00,0.0008
2401.00,0.0008
2400.00,0.0008
2399.00,0.0008
2398.00,0.0008
2397.00,0.0008
2396.00,0.0008
2395.00,0.0008
2394.00,0.0008
2393.00,0.0008
2392.00,0.0008
2391.00,0.0008
2390.00,0.0008
2389.00,0.0007
2388.00,0.0007
2387.00,0.0006
2386.00,0.0006
2385.00,0.0006
2384.00,0.0007
2383.00,0.0007
2382.00,0.0006
2381.00,0.0006
2380.00,0.0006
2379.00,0.0006
2378.00,0.0005
2377.00,0.0005
2376.00,0.0005
2375.00,0.0006
2374.00,0.0006
2373.00,0.0007
2372.00,0.0007
2371.00,0.0007
2370.00,0.0006
2369.00,0.0005
2368.00,0.0005
2367.00,0.0005
2366.00,0.0006
2365.00,0.0006
2364.00,0.0006
2363.00,0.0006
2362.00,0.0006
2361.00,0.0006
2360.00,0.0006
2359.00,0.0007
2358.00,0.0007
2357.00,0.0008
2356.00,0.0008
2355.00,0.0007
2354.00,0.0007
2353.00,0.0007
2352.00,0.0007
2351.00,0.0007
2350.00,0.0007
2349.00,0.0007
2348.00,0.0008
2347.00,0.0008
2346.00,0.0008
2345.00,0.0009
2344.00,0.0009
2343.00,0.0009
2342.00,0.0009
2341.00,0.0010
2340.00,0.0010
2339.00,0.0010
2338.00,0.0010
2337.00,0.0011
2336.00,0.0011
2335.00,0.0011
2334.00,0.0010
2333.00,0.0010
2332.00,0.0009
2331.00,0.0008
2330.00,0.0008
2329.00,0.0009
2328.00,0.0011
2327.00,0.0014
2326.00,0.0018
2325.00,0.0022
2324.00,0.0023
2323.00,0.0023
2322.00,0.0021
2321.00,0.0019
2320.00,0.0018
2319.00,0.0017
2318.00,0.0016
2317.00,0.0015
2316.00,0.0014
2315.00,0.0013
2314.00,0.0013
2313.00,0.0013
2312.00,0.0012
2311.00,0.0012
2310.00,0.0011
2309.00,0.0012
2308.00,0.0012
2307.00,0.0013
2306.00,0.0014
2305.00,0.0014
2304.00,0.0014
2303.00,0.0013
2302.00,0.0013
2301.00,0.0013
2300.00,0.0013
2299.00,0.0013
2298.00,0.0013
2297.00,0.0013
2296.00,0.0013
2295.00,0.0014
2294.00,0.0015
2293.00,0.0016
2292.00,0.0018
2291.00,0.0019
2290.00,0.0019
2289.00,0.0020
2288.00,0.0020
2287.00,0.0020
2286.00,0.0020
2285.00,0.0020
2284.00,0.0019
2283.00,0.0019
2282.00,0.0017
2281.00,0.0016
2280.00,0.0015
2279.00,0.0014
2278.00,0.0014
2277.00,0.0014
2276.00,0.0014
2275.00,0.0013
2274.00,0.0013
2273.00,0.0012
2272.00,0.0012
2271.00,0.0012
2270.00,0.0012
2269.00,0.0012
2268.00,0.0012
2267.00,0.0012
2266.00,0.0012
2265.00,0.0012
2264.00,0.0013
2263.00,0.0014
2262.00,0.0014
2261.00,0.0013
2260.00,0.0014
2259.00,0.0014
2258.00,0.0014
2257.00,0.0013
2256.00,0.0011
2255.00,0.0009
2254.00,0.0008
2253.00,0.0009
2252.00,0.0009
2251.00,0.0010
2250.00,0.0010
2249.00,0.0010
2248.00,0.0010
2247.00,0.0009
2246.00,0.0009
2245.00,0.0009
2244.00,0.0009
2243.00,0.0010
2242.00,0.0011
2241.00,0.0011
2240.00,0.0011
2239.00,0.0011
2238.00,0.0011
2237.00,0.0012
2236.00,0.0012
2235.00,0.0010
2234.00,0.0008
2233.00,0.0006
2232.00,0.0005
2231.00,0.0005
2230.00,0.0006
2229.00,0.0007
2228.00,0.0008
2227.00,0.0008
2226.00,0.0009
2225.00,0.0010
2224.00,0.0011
2223.00,0.0012
2222.00,0.0011
2221.00,0.0010
2220.00,0.0009
2219.00,0.0008
2218.00,0.0007
2217.00,0.0007
2216.00,0.0007
2215.00,0.0006
2214.00,0.0006
2213.00,0.0006
2212.00,0.0006
2211.00,0.0006
2210.00,0.0004
2209.00,0.0003
2208.00,0.0002
2207.00,0.0002
2206.00,0.0004
2205.00,0.0007
2204.00,0.0009
2203.00,0.0010
2202.00,0.0009
2201.00,0.0008
2200.00,0.0007
2199.00,0.0008
2198.00,0.0009
2197.00,0.0010
2196.00,0.0010
2195.00,0.0010
2194.00,0.0009
2193.00,0.0008
2192.00,0.0008
2191.00,0.0009
2190.00,0.0012
2189.00,0.0014
2188.00,0.0014
2187.00,0.0013
2186.00,0.0011
2185.00,0.0009
2184.00,0.0008
2183.00,0.0005
2182.00,0.0002
2181.00,0.0001
2180.00,0.0002
2179.00,0.0004
2178.00,0.0006
2177.00,0.0006
2176.00,0.0004
2175.00,0.0003
2174.00,0.0002
2173.00,0.0003
2172.00,0.0004
2171.00,0.0007
2170.00,0.0011
2169.00,0.0015
2168.00,0.0018
2167.00,0.0020
2166.00,0.0020
2165.00,0.0019
2164.00,0.0019
2163.00,0.0018
2162.00,0.0017
2161.00,0.0013
2160.00,0.0003
2159.00,-0.0009
2158.00,-0.0020
2157.00,-0.0025
2156.00,-0.0026
2155.00,-0.0025
2154.00,-0.0023
2153.00,-0.0019
2152.00,-0.0016
2151.00,-0.0014
2150.00,-0.0014
2149.00,-0.0014
2148.00,-0.0014
2147.00,-0.0013
2146.00,-0.0012
2145.00,-0.0012
2144.00,-0.0011
2143.00,-0.0011
2142.00,-0.0012
2141.00,-0.0012
2140.00,-0.0012
2139.00,-0.0011
2138.00,-0.0011
2137.00,-0.0012
2136.00,-0.0012
2135.00,-0.0014
2134.00,-0.0015
2133.00,-0.0016
2132.00,-0.0014
2131.00,-0.0012
2130.00,-0.0010
2129.00,-0.0009
2128.00,-0.0007
2127.00,-0.0005
2126.00,-0.0004
2125.00,-0.0005
2124.00,-0.0006
2123.00,-0.0006
2122.00,-0.0006
2121.00,-0.0005
2120.00,-0.0004
2119.00,-0.0002
2118.00,-0.0001
2117.00,0.0001
2116.00,0.0002
2115.00,0.0003
2114.00,0.0003
2113.00,0.0004
2112.00,0.0005
2111.00,0.0004
2110.00,0.0004
2109.00,0.0003
2108.00,0.0002
2107.00,0.0001
2106.00,-0.0000
2105.00,0.0000
2104.00,0.0001
2103.00,0.0002
2102.00,0.0003
2101.00,0.0003
2100.00,0.0003
2099.00,0.0004
2098.00,0.0004
2097.00,0.0004
2096.00,0.0002
2095.00,-0.0000
2094.00,-0.0002
2093.00,-0.0003
2092.00,-0.0003
2091.00,-0.0003
2090.00,-0.0002
2089.00,-0.0001
2088.00,-0.0000
2087.00,0.0000
2086.00,0.0001
2085.00,0.0002
2084.00,0.0003
2083.00,0.0004
2082.00,0.0004
2081.00,0.0004
2080.00,0.0004
2079.00,0.0004
2078.00,0.0004
2077.00,0.0004
2076.00,0.0003
2075.00,0.0003
2074.00,0.0002
2073.00,0.0002
2072.00,0.0002
2071.00,0.0001
2070.00,0.0001
2069.00,0.0000
2068.00,0.0000
2067.00,0.0000
2066.00,0.0001
2065.00,0.0001
2064.00,0.0001
2063.00,0.0001
2062.00,0.0001
2061.00,0.0002
2060.00,0.0002
2059.00,0.0002
2058.00,0.0002
2057.00,0.0002
2056.00,0.0002
2055.00,0.0002
2054.00,0.0004
2053.00,0.0008
2052.00,0.0013
2051.00,0.0016
2050.00,0.0014
2049.00,0.0008
2048.00,0.0004
2047.00,0.0003
2046.00,0.0004
2045.00,0.0005
2044.00,0.0007
2043.00,0.0007
2042.00,0.0008
2041.00,0.0009
2040.00,0.0009
2039.00,0.0009
2038.00,0.0007
2037.00,0.0005
2036.00,0.0001
2035.00,-0.0001
2034.00,-0.0002
2033.00,-0.0000
2032.00,0.0002
2031.00,0.0002
2030.00,0.0001
2029.00,-0.0000
2028.00,-0.0002
2027.00,-0.0005
2026.00,-0.0007
2025.00,-0.0007
2024.00,-0.0006
2023.00,-0.0004
2022.00,-0.0003
2021.00,-0.0002
2020.00,-0.0001
2019.00,-0.0001
2018.00,-0.0000
2017.00,-0.0000
2016.00,-0.0001
2015.00,-0.0003
2014.00,-0.0006
2013.00,-0.0008
2012.00,-0.0007
2011.00,-0.0004
2010.00,-0.0003
2009.00,-0.0004
2008.00,-0.0007
2007.00,-0.0012
2006.00,-0.0015
2005.00,-0.0014
2004.00,-0.0011
2003.00,-0.0008
2002.00,-0.0007
2001.00,-0.0007
2000.00,-0.0008
1999.00,-0.0009
1998.00,-0.0009
1997.00,-0.0008
1996.00,-0.0008
1995.00,-0.0008
1994.00,-0.0009
1993.00,-0.0009
1992.00,-0.0008
1991.00,-0.0006
1990.00,-0.0003
1989.00,-0.0000
1988.00,0.0002
1987.00,0.0004
1986.00,0.0006
1985.00,0.0009
1984.00,0.0012
1983.00,0.0014
1982.00,0.0017
1981.00,0.0019
1980.00,0.0019
1979.00,0.0015
1978.00,0.0007
1977.00,-0.0001
1976.00,-0.0008
1975.00,-0.0013
1974.00,-0.0016
1973.00,-0.0017
1972.00,-0.0016
1971.00,-0.0015
1970.00,-0.0015
1969.00,-0.0015
1968.00,-0.0015
1967.00,-0.0016
1966.00,-0.0016
1965.00,-0.0014
1964.00,-0.0013
1963.00,-0.0011
1962.00,-0.0012
1961.00,-0.0014
1960.00,-0.0015
1959.00,-0.0016
1958.00,-0.0016
1957.00,-0.0017
1956.00,-0.0019
1955.00,-0.0019
1954.00,-0.0018
1953.00,-0.0014
1952.00,-0.0010
1951.00,-0.0007
1950.00,-0.0006
1949.00,-0.0007
1948.00,-0.0008
1947.00,-0.0011
1946.00,-0.0012
1945.00,-0.0013
1944.00,-0.0012
1943.00,-0.0011
1942.00,-0.0010
1941.00,-0.0009
1940.00,-0.0008
1939.00,-0.0008
1938.00,-0.0008
1937.00,-0.0009
1936.00,-0.0010
1935.00,-0.0010
1934.00,-0.0010
1933.00,-0.0008
1932.00,-0.0007
1931.00,-0.0006
1930.00,-0.0005
1929.00,-0.0004
1928.00,-0.0004
1927.00,-0.0004
1926.00,-0.0005
1925.00,-0.0006
1924.00,-0.0007
1923.00,-0.0007
1922.00,-0.0007
1921.00,-0.0005
1920.00,-0.0004
1919.00,-0.0003
1918.00,-0.0003
1917.00,-0.0004
1916.00,-0.0004
1915.00,-0.0004
1914.00,-0.0003
1913.00,-0.0002
1912.00,-0.0001
1911.00,0.0000
1910.00,0.0001
1909.00,0.0000
1908.00,-0.0000
1907.00,-0.0001
1906.00,-0.0001
1905.00,-0.0002
1904.00,-0.0002
1903.00,-0.0002
1902.00,-0.0002
1901.00,-0.0001
1900.00,-0.0000
1899.00,0.0001
1898.00,0.0001
1897.00,0.0000
1896.00,-0.0000
1895.00,-0.0000
1894.00,-0.0001
1893.00,-0.0001
1892.00,-0.0001
1891.00,-0.0000
1890.00,0.0000
1889.00,0.0000
1888.00,-0.0001
1887.00,-0.0002
1886.00,-0.0002
1885.00,-0.0002
1884.00,-0.0002
1883.00,-0.0001
1882.00,-0.0000
1881.00,0.0001
1880.00,0.0001
1879.00,0.0001
1878.00,-0.0000
1877.00,-0.0001
1876.00,-0.0001
1875.00,-0.0001
1874.00,-0.0001
1873.00,0.0000
1872.00,0.0001
1871.00,0.0001
1870.00,0.0002
1869.00,0.0002
1868.00,0.0002
1867.00,0.0001
1866.00,-0.0000
1865.00,-0.0001
1864.00,-0.0001
1863.00,-0.0001
1862.00,-0.0001
1861.00,-0.0000
1860.00,0.0000
1859.00,-0.0000
1858.00,-0.0000
1857.00,-0.0000
1856.00,0.0001
1855.00,0.0001
1854.00,0.0002
1853.00,0.0002
1852.00,0.0001
1851.00,0.0001
1850.00,0.0001
1849.00,0.0002
1848.00,0.0003
1847.00,0.0004
1846.00,0.0004
1845.00,0.0004
1844.00,0.0004
1843.00,0.0003
1842.00,0.0003
1841.00,0.0003
1840.00,0.0002
1839.00,0.0002
1838.00,0.0002
1837.00,0.0002
1836.00,0.0003
1835.00,0.0003
1834.00,0.0004
1833.00,0.0004
1832.00,0.0003
1831.00,0.0003
1830.00,0.0003
1829.00,0.0004
1828.00,0.0004
1827.00,0.0003
1826.00,0.0003
1825.00,0.0002
1824.00,0.0002
1823.00,0.0003
1822.00,0.0003
1821.00,0.0003
1820.00,0.0003
1819.00,0.0002
1818.00,0.0002
1817.00,0.0001
1816.00,0.0002
1815.00,0.0002
1814.00,0.0002
1813.00,0.0002
1812.00,0.0003
1811.00,0.0003
1810.00,0.0004
1809.00,0.0005
1808.00,0.0005
1807.00,0.0004
1806.00,0.0004
1805.00,0.0004
1804.00,0.0004
1803.00,0.0005
1802.00,0.0006
1801.00,0.0006
1800.00,0.0006
1799.00,0.0005
1798.00,0.0005
1797.00,0.0005
1796.00,0.0006
1795.00,0.0006
1794.00,0.0006
1793.00,0.0007
1792.00,0.0007
1791.00,0.0008
1790.00,0.0008
1789.00,0.0009
1788.00,0.0008
1787.00,0.0008
1786.00,0.0008
1785.00,0.0008
1784.00,0.0008
1783.00,0.0008
1782.00,0.0008
1781.00,0.0008
1780.00,0.0008
1779.00,0.0008
1778.00,0.0008
1777.00,0.0008
1776.00,0.0008
1775.00,0.0008
1774.00,0.0007
1773.00,0.0007
1772.00,0.0007
1771.00,0.0008
1770.00,0.0009
1769.00,0.0009
1768.00,0.0010
1767.00,0.0009
1766.00,0.0009
1765.00,0.0009
1764.00,0.0010
1763.00,0.0010
1762.00,0.0010
1761.00,0.0011
1760.00,0.0011
1759.00,0.0011
1758.00,0.0011
1757.00,0.0012
1756.00,0.0013
1755.00,0.0013
1754.00,0.0013
1753.00,0.0013
1752.00,0.0013
1751.00,0.0013
1750.00,0.0013
1749.00,0.0014
1748.00,0.0014
1747.00,0.0015
1746.00,0.0014
1745.00,0.0014
1744.00,0.0014
1743.00,0.0014
1742.00,0.0015
1741.00,0.0015
1740.00,0.0016
1739.00,0.0016
1738.00,0.0016
1737.00,0.0017
1736.00,0.0017
1735.00,0.0018
1734.00,0.0018
1733.00,0.0018
1732.00,0.0018
1731.00,0.0018
1730.00,0.0018
1729.00,0.0019
1728.00,0.0019
1727.00,0.0020
1726.00,0.0020
1725.00,0.0021
1724.00,0.0022
1723.00,0.0022
1722.00,0.0022
1721.00,0.0021
1720.00,0.0021
1719.00,0.0021
1718.00,0.0021
1717.00,0.0021
1716.00,0.0021
1715.00,0.0021
1714.00,0.0021
1713.00,0.0022
1712.00,0.0023
1711.00,0.0023
1710.00,0.0023
1709.00,0.0024
1708.00,0.0023
1707.00,0.0023
1706.00,0.0022
1705.00,0.0022
1704.00,0.0022
1703.00,0.0023
1702.00,0.0023
1701.00,0.0024
1700.00,0.0025
1699.00,0.0025
1698.00,0.0025
1697.00,0.0025
1696.00,0.0026
1695.00,0.0026
1694.00,0.0027
1693.00,0.0028
1692.00,0.0028
1691.00,0.0029
1690.00,0.0029
1689.00,0.0030
1688.00,0.0031
1687.00,0.0031
1686.00,0.0031
1685.00,0.0031
1684.00,0.0031
1683.00,0.0032
1682.00,0.0033
1681.00,0.0034
1680.00,0.0035
1679.00,0.0036
1678.00,0.0036
1677.00,0.0036
1676.00,0.0037
1675.00,0.0038
1674.00,0.0038
1673.00,0.0039
1672.00,0.0040
1671.00,0.0040
1670.00,0.0040
1669.00,0.0041
1668.00,0.0041
1667.00,0.0041
1666.00,0.0041
1665.00,0.0041
1664.00,0.0042
1663.00,0.0042
1662.00,0.0043
1661.00,0.0043
1660.00,0.0044
1659.00,0.0044
1658.00,0.0044
1657.00,0.0044
1656.00,0.0045
1655.00,0.0045
1654.00,0.0046
1653.00,0.0047
1652.00,0.0047
1651.00,0.0048
1650.00,0.0049
1649.00,0.0050
1648.00,0.0052
1647.00,0.0053
1646.00,0.0054
1645.00,0.0054
1644.00,0.0054
1643.00,0.0054
1642.00,0.0055
1641.00,0.0056
1640.00,0.0056
1639.00,0.0057
1638.00,0.0058
1637.00,0.0059
1636.00,0.0059
1635.00,0.0059
1634.00,0.0058
1633.00,0.0057
1632.00,0.0057
1631.00,0.0056
1630.00,0.0055
1629.00,0.0055
1628.00,0.0055
1627.00,0.0054
1626.00,0.0054
1625.00,0.0054
1624.00,0.0054
1623.00,0.0054
1622.00,0.0053
1621.00,0.0053
1620.00,0.0053
1619.00,0.0053
1618.00,0.0052
1617.00,0.0052
1616.00,0.0052
1615.00,0.0051
1614.00,0.0051
1613.00,0.0052
1612.00,0.0052
1611.00,0.0052
1610.00,0.0052
1609.00,0.0052
1608.00,0.0052
1607.00,0.0052
1606.00,0.0052
1605.00,0.0052
1604.00,0.0052
1603.00,0.0052
1602.00,0.0052
1601.00,0.0052
1600.00,0.0052
1599.00,0.0051
1598.00,0.0051
1597.00,0.0050
1596.00,0.0050
1595.00,0.0050
1594.00,0.0049
1593.00,0.0049
1592.00,0.0049
1591.00,0.0049
1590.00,0.0049
1589.00,0.0050
1588.00,0.0050
1587.00,0.0050
1586.00,0.0050
1585.00,0.0050
1584.00,0.0050
1583.00,0.0050
1582.00,0.0051
1581.00,0.0051
1580.00,0.0051
1579.00,0.0052
1578.00,0.0052
1577.00,0.0052
1576.00,0.0053
1575.00,0.0052
1574.00,0.0052
1573.00,0.0053
1572.00,0.0053
1571.00,0.0053
1570.00,0.0053
1569.00,0.0054
1568.00,0.0055
1567.00,0.0056
1566.00,0.0056
1565.00,0.0056
1564.00,0.0056
1563.00,0.0056
1562.00,0.0057
1561.00,0.0057
1560.00,0.0057
1559.00,0.0060
1558.00,0.0060
1557.00,0.0060
1556.00,0.0061
1555.00,0.0062
1554.00,0.0062
1553.00,0.0062
1552.00,0.0063
1551.00,0.0063
1550.00,0.0064
1549.00,0.0064
1548.00,0.0065
1547.00,0.0065
1546.00,0.0065
1545.00,0.0065
1544.00,0.0066
1543.00,0.0066
1542.00,0.0065
1541.00,0.0064
1540.00,0.0063
1539.00,0.0061
1538.00,0.0059
1537.00,0.0058
1536.00,0.0058
1535.00,0.0057
1534.00,0.0055
1533.00,0.0054
1532.00,0.0053
1531.00,0.0053
1530.00,0.0052
1529.00,0.0052
1528.00,0.0052
1527.00,0.0052
1526.00,0.0052
1525.00,0.0052
1524.00,0.0053
1523.00,0.0053
1522.00,0.0053
1521.00,0.0054
1520.00,0.0054
1519.00,0.0054
1518.00,0.0054
1517.00,0.0055
1516.00,0.0056
1515.00,0.0056
1514.00,0.0056
1513.00,0.0057
1512.00,0.0058
1511.00,0.0059
1510.00,0.0059
1509.00,0.0060
1508.00,0.0061
1507.00,0.0061
1506.00,0.0061
1505.00,0.0062
1504.00,0.0064
1503.00,0.0067
1502.00,0.0069
1501.00,0.0071
1500.00,0.0073
1499.00,0.0075
1498.00,0.0077
1497.00,0.0081
1496.00,0.0085
1495.00,0.0088
1494.00,0.0090
1493.00,0.0093
1492.00,0.0097
1491.00,0.0101
1490.00,0.0105
1489.00,0.0110
1488.00,0.0115
1487.00,0.0120
1486.00,0.0125
1485.00,0.0131
1484.00,0.0137
1483.00,0.0144
1482.00,0.0153
1481.00,0.0163
1480.00,0.0175
1479.00,0.0186
1478.00,0.0202
1477.00,0.0222
1476.00,0.0249
1475.00,0.0279
1474.00,0.0321
1473.00,0.0380
1472.00,0.0449
1471.00,0.0516
1470.00,0.0581
1469.00,0.0649
1468.00,0.0724
1467.00,0.0805
1466.00,0.0896
1465.00,0.0995
1464.00,0.1081
1463.00,0.1140
1462.00,0.1177
1461.00,0.1200
1460.00,0.1215
1459.00,0.1222
1458.00,0.1224
1457.00,0.1220
1456.00,0.1208
1455.00,0.1192
1454.00,0.1174
1453.00,0.1151
1452.00,0.1119
1451.00,0.1075
1450.00,0.1019
1449.00,0.0946
1448.00,0.0856
1447.00,0.0764
1446.00,0.0682
1445.00,0.0613
1444.00,0.0554
1443.00,0.0506
1442.00,0.0470
1441.00,0.0446
1440.00,0.0432
1439.00,0.0428
1438.00,0.0432
1437.00,0.0437
1436.00,0.0430
1435.00,0.0407
1434.00,0.0371
1433.00,0.0327
1432.00,0.0281
1431.00,0.0240
1430.00,0.0208
1429.00,0.0184
1428.00,0.0168
1427.00,0.0158
1426.00,0.0151
1425.00,0.0145
1424.00,0.0140
1423.00,0.0136
1422.00,0.0134
1421.00,0.0131
1420.00,0.0127
1419.00,0.0125
1418.00,0.0122
1417.00,0.0119
1416.00,0.0117
1415.00,0.0115
1414.00,0.0114
1413.00,0.0113
1412.00,0.0112
1411.00,0.0111
1410.00,0.0111
1409.00,0.0110
1408.00,0.0109
1407.00,0.0109
1406.00,0.0109
1405.00,0.0109
1404.00,0.0109
1403.00,0.0109
1402.00,0.0110
1401.00,0.0111
1400.00,0.0112
1399.00,0.0113
1398.00,0.0116
1397.00,0.0117
1396.00,0.0119
1395.00,0.0123
1394.00,0.0128
1393.00,0.0133
1392.00,0.0138
1391.00,0.0146
1390.00,0.0156
1389.00,0.0169
1388.00,0.0190
1387.00,0.0220
1386.00,0.0262
1385.00,0.0318
1384.00,0.0396
1383.00,0.0507
1382.00,0.0660
1381.00,0.0860
1380.00,0.1113
1379.00,0.1406
1378.00,0.1696
1377.00,0.1916
1376.00,0.1999
1375.00,0.1907
1374.00,0.1668
1373.00,0.1372
1372.00,0.1100
1371.00,0.0875
1370.00,0.0697
1369.00,0.0564
1368.00,0.0472
1367.00,0.0417
1366.00,0.0387
1365.00,0.0375
1364.00,0.0377
1363.00,0.0391
1362.00,0.0413
1361.00,0.0437
1360.00,0.0456
1359.00,0.0462
1358.00,0.0452
1357.00,0.0426
1356.00,0.0388
1355.00,0.0346
1354.00,0.0305
1353.00,0.0270
1352.00,0.0242
1351.00,0.0219
1350.00,0.0200
1349.00,0.0185
1348.00,0.0172
1347.00,0.0162
1346.00,0.0153
1345.00,0.0145
1344.00,0.0139
1343.00,0.0133
1342.00,0.0129
1341.00,0.0125
1340.00,0.0123
1339.00,0.0120
1338.00,0.0119
1337.00,0.0118
1336.00,0.0119
1335.00,0.0120
1334.00,0.0124
1333.00,0.0128
1332.00,0.0132
1331.00,0.0135
1330.00,0.0137
1329.00,0.0135
1328.00,0.0132
1327.00,0.0127
1326.00,0.0121
1325.00,0.0115
1324.00,0.0109
1323.00,0.0103
1322.00,0.0099
1321.00,0.0096
1320.00,0.0094
1319.00,0.0093
1318.00,0.0091
1317.00,0.0090
1316.00,0.0089
1315.00,0.0088
1314.00,0.0087
1313.00,0.0087
1312.00,0.0088
1311.00,0.0089
1310.00,0.0092
1309.00,0.0096
1308.00,0.0103
1307.00,0.0111
1306.00,0.0119
1305.00,0.0124
1304.00,0.0126
1303.00,0.0125
1302.00,0.0123
1301.00,0.0121
1300.00,0.0122
1299.00,0.0124
1298.00,0.0125
1297.00,0.0127
1296.00,0.0126
1295.00,0.0124
1294.00,0.0120
1293.00,0.0116
1292.00,0.0111
1291.00,0.0107
1290.00,0.0102
1289.00,0.0098
1288.00,0.0094
1287.00,0.0091
1286.00,0.0089
1285.00,0.0088
1284.00,0.0086
1283.00,0.0085
1282.00,0.0083
1281.00,0.0082
1280.00,0.0081
1279.00,0.0080
1278.00,0.0079
1277.00,0.0078
1276.00,0.0078
1275.00,0.0078
1274.00,0.0078
1273.00,0.0077
1272.00,0.0077
1271.00,0.0077
1270.00,0.0078
1269.00,0.0080
1268.00,0.0082
1267.00,0.0085
1266.00,0.0088
1265.00,0.0090
1264.00,0.0093
1263.00,0.0096
1262.00,0.0099
1261.00,0.0103
1260.00,0.0107
1259.00,0.0111
1258.00,0.0114
1257.00,0.0117
1256.00,0.0117
1255.00,0.0115
1254.00,0.0110
1253.00,0.0104
1252.00,0.0098
1251.00,0.0093
1250.00,0.0089
1249.00,0.0085
1248.00,0.0083
1247.00,0.0081
1246.00,0.0079
1245.00,0.0078
1244.00,0.0076
1243.00,0.0075
1242.00,0.0074
1241.00,0.0074
1240.00,0.0074
1239.00,0.0073
1238.00,0.0073
1237.00,0.0073
1236.00,0.0073
1235.00,0.0073
1234.00,0.0073
1233.00,0.0073
1232.00,0.0073
1231.00,0.0074
1230.00,0.0075
1229.00,0.0077
1228.00,0.0078
1227.00,0.0081
1226.00,0.0083
1225.00,0.0086
1224.00,0.0089
1223.00,0.0092
1222.00,0.0096
1221.00,0.0098
1220.00,0.0099
1219.00,0.0099
1218.00,0.0098
1217.00,0.0096
1216.00,0.0094
1215.00,0.0091
1214.00,0.0089
1213.00,0.0087
1212.00,0.0084
1211.00,0.0082
1210.00,0.0080
1209.00,0.0078
1208.00,0.0077
1207.00,0.0076
1206.00,0.0075
1205.00,0.0074
1204.00,0.0073
1203.00,0.0073
1202.00,0.0072
1201.00,0.0072
1200.00,0.0072
1199.00,0.0072
1198.00,0.0072
1197.00,0.0072
1196.00,0.0072
1195.00,0.0072
1194.00,0.0072
1193.00,0.0072
1192.00,0.0071
1191.00,0.0070
1190.00,0.0070
1189.00,0.0070
1188.00,0.0070
1187.00,0.0071
1186.00,0.0071
1185.00,0.0071
1184.00,0.0072
1183.00,0.0072
1182.00,0.0073
1181.00,0.0074
1180.00,0.0076
1179.00,0.0079
1178.00,0.0084
1177.00,0.0090
1176.00,0.0098
1175.00,0.0109
1174.00,0.0123
1173.00,0.0141
1172.00,0.0162
1171.00,0.0185
1170.00,0.0207
1169.00,0.0225
1168.00,0.0237
1167.00,0.0241
1166.00,0.0238
1165.00,0.0230
1164.00,0.0221
1163.00,0.0211
1162.00,0.0202
1161.00,0.0195
1160.00,0.0190
1159.00,0.0187
1158.00,0.0185
1157.00,0.0184
1156.00,0.0184
1155.00,0.0185
1154.00,0.0186
1153.00,0.0184
1152.00,0.0181
1151.00,0.0175
1150.00,0.0168
1149.00,0.0160
1148.00,0.0152
1147.00,0.0143
1146.00,0.0134
1145.00,0.0126
1144.00,0.0119
1143.00,0.0113
1142.00,0.0107
1141.00,0.0102
1140.00,0.0098
1139.00,0.0094
1138.00,0.0091
1137.00,0.0089
1136.00,0.0087
1135.00,0.0085
1134.00,0.0083
1133.00,0.0082
1132.00,0.0081
1131.00,0.0080
1130.00,0.0080
1129.00,0.0080
1128.00,0.0081
1127.00,0.0082
1126.00,0.0083
1125.00,0.0084
1124.00,0.0086
1123.00,0.0087
1122.00,0.0088
1121.00,0.0089
1120.00,0.0089
1119.00,0.0089
1118.00,0.0090
1117.00,0.0091
1116.00,0.0093
1115.00,0.0094
1114.00,0.0096
1113.00,0.0098
1112.00,0.0100
1111.00,0.0102
1110.00,0.0105
1109.00,0.0109
1108.00,0.0114
1107.00,0.0120
1106.00,0.0126
1105.00,0.0133
1104.00,0.0138
1103.00,0.0142
1102.00,0.0142
1101.00,0.0139
1100.00,0.0133
1099.00,0.0125
1098.00,0.0117
1097.00,0.0111
1096.00,0.0105
1095.00,0.0101
1094.00,0.0099
1093.00,0.0097
1092.00,0.0095
1091.00,0.0093
1090.00,0.0091
1089.00,0.0090
1088.00,0.0088
1087.00,0.0087
1086.00,0.0086
1085.00,0.0086
1084.00,0.0085
1083.00,0.0085
1082.00,0.0084
1081.00,0.0083
1080.00,0.0082
1079.00,0.0081
1078.00,0.0079
1077.00,0.0078
1076.00,0.0077
1075.00,0.0076
1074.00,0.0075
1073.00,0.0075
1072.00,0.0075
1071.00,0.0075
1070.00,0.0074
1069.00,0.0074
1068.00,0.0074
1067.00,0.0074
1066.00,0.0074
1065.00,0.0075
1064.00,0.0075
1063.00,0.0075
1062.00,0.0075
1061.00,0.0075
1060.00,0.0075
1059.00,0.0074
1058.00,0.0074
1057.00,0.0074
1056.00,0.0074
1055.00,0.0075
1054.00,0.0077
1053.00,0.0079
1052.00,0.0081
1051.00,0.0083
1050.00,0.0085
1049.00,0.0086
1048.00,0.0087
1047.00,0.0088
1046.00,0.0089
1045.00,0.0090
1044.00,0.0091
1043.00,0.0091
1042.00,0.0090
1041.00,0.0088
1040.00,0.0087
1039.00,0.0087
1038.00,0.0088
1037.00,0.0088
1036.00,0.0089
1035.00,0.0089
1034.00,0.0088
1033.00,0.0087
1032.00,0.0086
1031.00,0.0086
1030.00,0.0084
1029.00,0.0082
1028.00,0.0080
1027.00,0.0079
1026.00,0.0079
1025.00,0.0080
1024.00,0.0080
1023.00,0.0081
1022.00,0.0081
1021.00,0.0082
1020.00,0.0083
1019.00,0.0084
1018.00,0.0084
1017.00,0.0084
1016.00,0.0084
1015.00,0.0085
1014.00,0.0087
1013.00,0.0088
1012.00,0.0090
1011.00,0.0092
1010.00,0.0095
1009.00,0.0097
1008.00,0.0099
1007.00,0.0103
1006.00,0.0108
1005.00,0.0117
1004.00,0.0129
1003.00,0.0146
1002.00,0.0168
1001.00,0.0194
1000.00,0.0221
999.00,0.0242
998.00,0.0251
997.00,0.0246
996.00,0.0226
995.00,0.0199
994.00,0.0172
993.00,0.0148
992.00,0.0129
991.00,0.0115
990.00,0.0106
989.00,0.0100
988.00,0.0096
987.00,0.0094
986.00,0.0095
985.00,0.0098
984.00,0.0103
983.00,0.0109
982.00,0.0118
981.00,0.0131
980.00,0.0149
979.00,0.0172
978.00,0.0202
977.00,0.0236
976.00,0.0271
975.00,0.0301
974.00,0.0320
973.00,0.0324
972.00,0.0309
971.00,0.0279
970.00,0.0242
969.00,0.0206
968.00,0.0174
967.00,0.0150
966.00,0.0132
965.00,0.0119
964.00,0.0110
963.00,0.0104
962.00,0.0099
961.00,0.0095
960.00,0.0091
959.00,0.0088
958.00,0.0084
957.00,0.0082
956.00,0.0080
955.00,0.0078
954.00,0.0077
953.00,0.0075
952.00,0.0073
951.00,0.0072
950.00,0.0072
949.00,0.0073
948.00,0.0074
947.00,0.0076
946.00,0.0078
945.00,0.0081
944.00,0.0085
943.00,0.0089
942.00,0.0092
941.00,0.0095
940.00,0.0095
939.00,0.0092
938.00,0.0088
937.00,0.0083
936.00,0.0078
935.00,0.0073
934.00,0.0070
933.00,0.0068
932.00,0.0066
931.00,0.0065
930.00,0.0064
929.00,0.0063
928.00,0.0062
927.00,0.0062
926.00,0.0063
925.00,0.0064
924.00,0.0064
923.00,0.0063
922.00,0.0063
921.00,0.0062
920.00,0.0062
919.00,0.0062
918.00,0.0063
917.00,0.0063
916.00,0.0063
915.00,0.0063
914.00,0.0064
913.00,0.0065
912.00,0.0067
911.00,0.0069
910.00,0.0072
909.00,0.0076
908.00,0.0080
907.00,0.0085
906.00,0.0093
905.00,0.0103
904.00,0.0118
903.00,0.0137
902.00,0.0158
901.00,0.0178
900.00,0.0191
899.00,0.0193
898.00,0.0183
897.00,0.0165
896.00,0.0144
895.00,0.0125
894.00,0.0110
893.00,0.0098
892.00,0.0090
891.00,0.0084
890.00,0.0080
889.00,0.0077
888.00,0.0075
887.00,0.0074
886.00,0.0074
885.00,0.0073
884.00,0.0073
883.00,0.0072
882.00,0.0072
881.00,0.0071
880.00,0.0071
879.00,0.0071
878.00,0.0072
877.00,0.0073
876.00,0.0074
875.00,0.0075
874.00,0.0075
873.00,0.0076
872.00,0.0076
871.00,0.0077
870.00,0.0077
869.00,0.0077
868.00,0.0077
867.00,0.0078
866.00,0.0079
865.00,0.0081
864.00,0.0081
863.00,0.0081
862.00,0.0081
861.00,0.0082
860.00,0.0083
859.00,0.0085
858.00,0.0086
857.00,0.0087
856.00,0.0087
855.00,0.0088
854.00,0.0088
853.00,0.0090
852.00,0.0092
851.00,0.0094
850.00,0.0097
849.00,0.0101
848.00,0.0107
847.00,0.0115
846.00,0.0130
845.00,0.0152
844.00,0.0182
843.00,0.0216
842.00,0.0241
841.00,0.0247
840.00,0.0230
839.00,0.0199
838.00,0.0165
837.00,0.0139
836.00,0.0122
835.00,0.0113
834.00,0.0108
833.00,0.0107
832.00,0.0106
831.00,0.0105
830.00,0.0103
829.00,0.0100
828.00,0.0098
827.00,0.0097
826.00,0.0097
825.00,0.0098
824.00,0.0098
823.00,0.0098
822.00,0.0099
821.00,0.0101
820.00,0.0104
819.00,0.0108
818.00,0.0113
817.00,0.0120
816.00,0.0129
815.00,0.0141
814.00,0.0157
813.00,0.0177
812.00,0.0199
811.00,0.0219
810.00,0.0234
809.00,0.0241
808.00,0.0237
807.00,0.0224
806.00,0.0204
805.00,0.0183
804.00,0.0163
803.00,0.0148
802.00,0.0136
801.00,0.0128
800.00,0.0122
799.00,0.0117
798.00,0.0114
797.00,0.0111
796.00,0.0108
795.00,0.0104
794.00,0.0100
793.00,0.0096
792.00,0.0093
791.00,0.0090
790.00,0.0086
789.00,0.0083
788.00,0.0080
787.00,0.0077
786.00,0.0074
785.00,0.0071
784.00,0.0067
783.00,0.0065
782.00,0.0064
781.00,0.0065
780.00,0.0066
779.00,0.0068
778.00,0.0068
777.00,0.0067
776.00,0.0067
775.00,0.0067
774.00,0.0067
773.00,0.0067
772.00,0.0066
771.00,0.0066
770.00,0.0067
769.00,0.0067
768.00,0.0067
767.00,0.0067
766.00,0.0065
765.00,0.0064
764.00,0.0063
763.00,0.0064
762.00,0.0065
761.00,0.0067
760.00,0.0069
759.00,0.0068
758.00,0.0068
757.00,0.0067
756.00,0.0068
755.00,0.0070
754.00,0.0073
753.00,0.0076
752.00,0.0077
751.00,0.0078
750.00,0.0079
749.00,0.0080
748.00,0.0082
747.00,0.0085
746.00,0.0087
745.00,0.0089
744.00,0.0091
743.00,0.0091
742.00,0.0092
741.00,0.0094
740.00,0.0097
739.00,0.0102
738.00,0.0107
737.00,0.0112
736.00,0.0116
735.00,0.0120
734.00,0.0124
733.00,0.0128
732.00,0.0136
731.00,0.0145
730.00,0.0154
729.00,0.0159
728.00,0.0159
727.00,0.0158
726.00,0.0157
725.00,0.0160
724.00,0.0166
723.00,0.0174
722.00,0.0182
721.00,0.0188
720.00,0.0187
719.00,0.0178
718.00,0.0164
717.00,0.0150
716.00,0.0138
715.00,0.0130
714.00,0.0124
713.00,0.0120
712.00,0.0117
711.00,0.0115
710.00,0.0112
709.00,0.0108
708.00,0.0104
707.00,0.0103
706.00,0.0103
705.00,0.0102
704.00,0.0102
703.00,0.0101
702.00,0.0100
701.00,0.0099
700.00,0.0097
699.00,0.0096
698.00,0.0095
697.00,0.0095
696.00,0.0094
695.00,0.0094
694.00,0.0092
693.00,0.0091
692.00,0.0091
691.00,0.0093
690.00,0.0094
689.00,0.0094
688.00,0.0093
687.00,0.0091
686.00,0.0091
685.00,0.0092
684.00,0.0094
683.00,0.0095
682.00,0.0095
681.00,0.0095
680.00,0.0094
679.00,0.0094
678.00,0.0094
677.00,0.0095
676.00,0.0094
675.00,0.0093
674.00,0.0091
673.00,0.0089
672.00,0.0088
671.00,0.0088
670.00,0.0090
669.00,0.0091
668.00,0.0091
667.00,0.0089
666.00,0.0088
665.00,0.0086
664.00,0.0086
663.00,0.0086
662.00,0.0087
661.00,0.0089
660.00,0.0089
659.00,0.0088
658.00,0.0086
657.00,0.0084
656.00,0.0083
655.00,0.0083
654.00,0.0083
653.00,0.0082
652.00,0.0081
651.00,0.0081
650.00,0.0081
649.00,0.0082
648.00,0.0082
647.00,0.0082
646.00,0.0082
645.00,0.0083
644.00,0.0083
643.00,0.0084
642.00,0.0085
641.00,0.0085
640.00,0.0085
639.00,0.0084
638.00,0.0084
637.00,0.0085
636.00,0.0085
635.00,0.0084
634.00,0.0083
633.00,0.0081
632.00,0.0081
631.00,0.0082
630.00,0.0084
629.00,0.0085
628.00,0.0087
627.00,0.0087
626.00,0.0086
625.00,0.0085
624.00,0.0084
623.00,0.0085
622.00,0.0087
621.00,0.0088
620.00,0.0089
619.00,0.0088
618.00,0.0087
617.00,0.0087
616.00,0.0086
615.00,0.0085
614.00,0.0085
613.00,0.0085
612.00,0.0086
611.00,0.0085
610.00,0.0083
609.00,0.0079
608.00,0.0076
607.00,0.0075
606.00,0.0077
605.00,0.0080
604.00,0.0083
603.00,0.0084
602.00,0.0083
601.00,0.0081
600.00,0.0078
599.00,0.0074
598.00,0.0073
597.00,0.0073
596.00,0.0076
595.00,0.0079
594.00,0.0082
593.00,0.0083
592.00,0.0082
591.00,0.0080
590.00,0.0080
589.00,0.0082
588.00,0.0085
587.00,0.0087
586.00,0.0085
585.00,0.0081
584.00,0.0079
583.00,0.0079
582.00,0.0080
581.00,0.0081
580.00,0.0079
579.00,0.0077
578.00,0.0076
577.00,0.0077
576.00,0.0079
575.00,0.0081
574.00,0.0082
573.00,0.0082
572.00,0.0081
571.00,0.0080
570.00,0.0078
569.00,0.0077
568.00,0.0077
567.00,0.0078
566.00,0.0079
565.00,0.0080
564.00,0.0083
563.00,0.0088
562.00,0.0092
561.00,0.0092
560.00,0.0088
559.00,0.0083
558.00,0.0081
557.00,0.0081
556.00,0.0082
555.00,0.0081
554.00,0.0078
553.00,0.0076
552.00,0.0076
551.00,0.0079
550.00,0.0080
549.00,0.0081
548.00,0.0082
547.00,0.0084
546.00,0.0085
545.00,0.0084
544.00,0.0081
543.00,0.0079
542.00,0.0081
541.00,0.0086
540.00,0.0094
539.00,0.0100
538.00,0.0102
537.00,0.0103
536.00,0.0103
535.00,0.0103
534.00,0.0102
533.00,0.0101
532.00,0.0097
531.00,0.0093
530.00,0.0090
529.00,0.0092
528.00,0.0098
527.00,0.0103
526.00,0.0103
525.00,0.0097
524.00,0.0089
523.00,0.0083
522.00,0.0080
521.00,0.0079
520.00,0.0078
519.00,0.0076
518.00,0.0070
517.00,0.0063
516.00,0.0057
515.00,0.0057
514.00,0.0064
513.00,0.0074
512.00,0.0081
511.00,0.0084
510.00,0.0081
509.00,0.0076
508.00,0.0071
507.00,0.0066
506.00,0.0064
505.00,0.0065
504.00,0.0069
503.00,0.0076
502.00,0.0083
501.00,0.0083
500.00,0.0077
499.00,0.0068
498.00,0.0061
497.00,0.0060
496.00,0.0064
495.00,0.0069
494.00,0.0071
493.00,0.0068
492.00,0.0061
491.00,0.0056
490.00,0.0054
489.00,0.0058
488.00,0.0063
487.00,0.0068
486.00,0.0070
485.00,0.0069
484.00,0.0064
483.00,0.0061
482.00,0.0064
481.00,0.0073
480.00,0.0081
479.00,0.0085
478.00,0.0085
477.00,0.0085
476.00,0.0089
475.00,0.0091
474.00,0.0088
473.00,0.0080
472.00,0.0072
471.00,0.0070
470.00,0.0073
469.00,0.0080
468.00,0.0090
467.00,0.0102
466.00,0.0113
465.00,0.0123
464.00,0.0132
463.00,0.0142
462.00,0.0151
461.00,0.0155
460.00,0.0154
459.00,0.0148
458.00,0.0140
457.00,0.0134
456.00,0.0135
455.00,0.0130
454.00,0.0126
453.00,0.0121
452.00,0.0114
451.00,0.0105
450.00,0.0095
