Created as New Dataset,Sample 005 By Administrator Date Thursday, September 04 2025
cm-1,A
4000.00,0.0009
3999.00,0.0009
3998.00,0.0009
3997.00,0.0009
3996.00,0.0008
3995.00,0.0008
3994.00,0.0008
3993.00,0.0008
3992.00,0.0008
3991.00,0.0008
3990.00,0.0008
3989.00,0.0008
3988.00,0.0008
3987.00,0.0008
3986.00,0.0008
3985.00,0.0008
3984.00,0.0008
3983.00,0.0007
3982.00,0.0007
3981.00,0.0007
3980.00,0.0007
3979.00,0.0008
3978.00,0.0008
3977.00,0.0008
3976.00,0.0008
3975.00,0.0008
3974.00,0.0008
3973.00,0.0008
3972.00,0.0008
3971.00,0.0008
3970.00,0.0007
3969.00,0.0007
3968.00,0.0007
3967.00,0.0007
3966.00,0.0007
3965.00,0.0007
3964.00,0.0007
3963.00,0.0007
3962.00,0.0007
3961.00,0.0007
3960.00,0.0007
3959.00,0.0007
3958.00,0.0007
3957.00,0.0006
3956.00,0.0006
3955.00,0.0006
3954.00,0.0006
3953.00,0.0006
3952.00,0.0006
3951.00,0.0006
3950.00,0.0006
3949.00,0.0006
3948.00,0.0006
3947.00,0.0007
3946.00,0.0007
3945.00,0.0008
3944.00,0.0008
3943.00,0.0008
3942.00,0.0008
3941.00,0.0008
3940.00,0.0008
3939.00,0.0007
3938.00,0.0007
3937.00,0.0007
3936.00,0.0007
3935.00,0.0007
3934.00,0.0007
3933.00,0.0007
3932.00,0.0008
3931.00,0.0008
3930.00,0.0008
3929.00,0.0008
3928.00,0.0008
3927.00,0.0008
3926.00,0.0008
3925.00,0.0008
3924.00,0.0008
3923.00,0.0008
3922.00,0.0008
3921.00,0.0008
3920.00,0.0008
3919.00,0.0008
3918.00,0.0008
3917.00,0.0008
3916.00,0.0007
3915.00,0.0007
3914.00,0.0007
3913.00,0.0007
3912.00,0.0007
3911.00,0.0007
3910.00,0.0007
3909.00,0.0007
3908.00,0.0007
3907.00,0.0007
3906.00,0.0007
3905.00,0.0007
3904.00,0.0008
3903.00,0.0008
3902.00,0.0008
3901.00,0.0008
3900.00,0.0008
3899.00,0.0008
3898.00,0.0008
3897.00,0.0008
3896.00,0.0008
3895.00,0.0007
3894.00,0.0007
3893.00,0.0007
3892.00,0.0008
3891.00,0.0008
3890.00,0.0008
3889.00,0.0008
3888.00,0.0008
3887.00,0.0007
3886.00,0.0008
3885.00,0.0008
3884.00,0.0008
3883.00,0.0008
3882.00,0.0008
3881.00,0.0008
3880.00,0.0008
3879.00,0.0008
3878.00,0.0007
3877.00,0.0007
3876.00,0.0007
3875.00,0.0007
3874.00,0.0007
3873.00,0.0007
3872.00,0.0007
3871.00,0.0008
3870.00,0.0008
3869.00,0.0008
3868.00,0.0007
3867.00,0.0007
3866.00,0.0007
3865.00,0.0006
3864.00,0.0006
3863.00,0.0006
3862.00,0.0006
3861.00,0.0007
3860.00,0.0007
3859.00,0.0007
3858.00,0.0008
3857.00,0.0008
3856.00,0.0009
3855.00,0.0009
3854.00,0.0009
3853.00,0.0009
3852.00,0.0008
3851.00,0.0008
3850.00,0.0008
3849.00,0.0008
3848.00,0.0007
3847.00,0.0007
3846.00,0.0007
3845.00,0.0007
3844.00,0.0007
3843.00,0.0007
3842.00,0.0007
3841.00,0.0007
3840.00,0.0007
3839.00,0.0007
3838.00,0.0006
3837.00,0.0006
3836.00,0.0006
3835.00,0.0006
3834.00,0.0006
3833.00,0.0006
3832.00,0.0006
3831.00,0.0006
3830.00,0.0006
3829.00,0.0006
3828.00,0.0006
3827.00,0.0006
3826.00,0.0006
3825.00,0.0006
3824.00,0.0005
3823.00,0.0005
3822.00,0.0005
3821.00,0.0005
3820.00,0.0006
3819.00,0.0006
3818.00,0.0007
3817.00,0.0007
3816.00,0.0007
3815.00,0.0007
3814.00,0.0006
3813.00,0.0006
3812.00,0.0006
3811.00,0.0006
3810.00,0.0006
3809.00,0.0007
3808.00,0.0007
3807.00,0.0007
3806.00,0.0007
3805.00,0.0007
3804.00,0.0007
3803.00,0.0007
3802.00,0.0007
3801.00,0.0007
3800.00,0.0007
3799.00,0.0007
3798.00,0.0007
3797.00,0.0007
3796.00,0.0007
3795.00,0.0006
3794.00,0.0006
3793.00,0.0006
3792.00,0.0006
3791.00,0.0007
3790.00,0.0007
3789.00,0.0007
3788.00,0.0007
3787.00,0.0007
3786.00,0.0007
3785.00,0.0007
3784.00,0.0007
3783.00,0.0007
3782.00,0.0007
3781.00,0.0007
3780.00,0.0007
3779.00,0.0007
3778.00,0.0007
3777.00,0.0007
3776.00,0.0007
3775.00,0.0007
3774.00,0.0007
3773.00,0.0007
3772.00,0.0008
3771.00,0.0008
3770.00,0.0009
3769.00,0.0009
3768.00,0.0009
3767.00,0.0008
3766.00,0.0008
3765.00,0.0008
3764.00,0.0008
3763.00,0.0008
3762.00,0.0008
3761.00,0.0008
3760.00,0.0008
3759.00,0.0008
3758.00,0.0008
3757.00,0.0008
3756.00,0.0008
3755.00,0.0008
3754.00,0.0009
3753.00,0.0009
3752.00,0.0009
3751.00,0.0008
3750.00,0.0007
3749.00,0.0007
3748.00,0.0007
3747.00,0.0007
3746.00,0.0007
3745.00,0.0007
3744.00,0.0007
3743.00,0.0007
3742.00,0.0007
3741.00,0.0007
3740.00,0.0007
3739.00,0.0007
3738.00,0.0007
3737.00,0.0007
3736.00,0.0007
3735.00,0.0007
3734.00,0.0007
3733.00,0.0007
3732.00,0.0007
3731.00,0.0007
3730.00,0.0006
3729.00,0.0006
3728.00,0.0006
3727.00,0.0006
3726.00,0.0006
3725.00,0.0006
3724.00,0.0005
3723.00,0.0005
3722.00,0.0005
3721.00,0.0005
3720.00,0.0005
3719.00,0.0005
3718.00,0.0005
3717.00,0.0005
3716.00,0.0006
3715.00,0.0006
3714.00,0.0007
3713.00,0.0007
3712.00,0.0007
3711.00,0.0006
3710.00,0.0006
3709.00,0.0005
3708.00,0.0005
3707.00,0.0005
3706.00,0.0005
3705.00,0.0005
3704.00,0.0006
3703.00,0.0006
3702.00,0.0006
3701.00,0.0006
3700.00,0.0007
3699.00,0.0006
3698.00,0.0006
3697.00,0.0006
3696.00,0.0006
3695.00,0.0006
3694.00,0.0006
3693.00,0.0006
3692.00,0.0006
3691.00,0.0007
3690.00,0.0007
3689.00,0.0007
3688.00,0.0007
3687.00,0.0007
3686.00,0.0007
3685.00,0.0007
3684.00,0.0007
3683.00,0.0006
3682.00,0.0006
3681.00,0.0006
3680.00,0.0006
3679.00,0.0006
3678.00,0.0007
3677.00,0.0007
3676.00,0.0008
3675.00,0.0007
3674.00,0.0007
3673.00,0.0006
3672.00,0.0006
3671.00,0.0006
3670.00,0.0006
3669.00,0.0006
3668.00,0.0006
3667.00,0.0006
3666.00,0.0006
3665.00,0.0006
3664.00,0.0006
3663.00,0.0006
3662.00,0.0006
3661.00,0.0006
3660.00,0.0006
3659.00,0.0006
3658.00,0.0006
3657.00,0.0006
3656.00,0.0006
3655.00,0.0006
3654.00,0.0006
3653.00,0.0006
3652.00,0.0006
3651.00,0.0006
3650.00,0.0006
3649.00,0.0006
3648.00,0.0007
3647.00,0.0007
3646.00,0.0008
3645.00,0.0008
3644.00,0.0008
3643.00,0.0007
3642.00,0.0007
3641.00,0.0008
3640.00,0.0008
3639.00,0.0008
3638.00,0.0008
3637.00,0.0008
3636.00,0.0008
3635.00,0.0008
3634.00,0.0009
3633.00,0.0009
3632.00,0.0009
3631.00,0.0009
3630.00,0.0009
3629.00,0.0009
3628.00,0.0009
3627.00,0.0010
3626.00,0.0010
3625.00,0.0010
3624.00,0.0009
3623.00,0.0009
3622.00,0.0009
3621.00,0.0009
3620.00,0.0009
3619.00,0.0009
3618.00,0.0010
3617.00,0.0010
3616.00,0.0010
3615.00,0.0010
3614.00,0.0010
3613.00,0.0010
3612.00,0.0011
3611.00,0.0011
3610.00,0.0012
3609.00,0.0012
3608.00,0.0012
3607.00,0.0012
3606.00,0.0012
3605.00,0.0012
3604.00,0.0012
3603.00,0.0012
3602.00,0.0012
3601.00,0.0012
3600.00,0.0012
3599.00,0.0013
3598.00,0.0013
3597.00,0.0014
3596.00,0.0014
3595.00,0.0014
3594.00,0.0014
3593.00,0.0014
3592.00,0.0015
3591.00,0.0015
3590.00,0.0016
3589.00,0.0017
3588.00,0.0017
3587.00,0.0017
3586.00,0.0017
3585.00,0.0017
3584.00,0.0017
3583.00,0.0017
3582.00,0.0017
3581.00,0.0016
3580.00,0.0016
3579.00,0.0016
3578.00,0.0016
3577.00,0.0016
3576.00,0.0017
3575.00,0.0017
3574.00,0.0017
3573.00,0.0017
3572.00,0.0018
3571.00,0.0018
3570.00,0.0019
3569.00,0.0020
3568.00,0.0020
3567.00,0.0020
3566.00,0.0021
3565.00,0.0021
3564.00,0.0021
3563.00,0.0021
3562.00,0.0021
3561.00,0.0022
3560.00,0.0022
3559.00,0.0022
3558.00,0.0022
3557.00,0.0022
3556.00,0.0022
3555.00,0.0022
3554.00,0.0023
3553.00,0.0023
3552.00,0.0023
3551.00,0.0024
3550.00,0.0024
3549.00,0.0024
3548.00,0.0025
3547.00,0.0025
3546.00,0.0025
3545.00,0.0025
3544.00,0.0025
3543.00,0.0025
3542.00,0.0026
3541.00,0.0026
3540.00,0.0027
3539.00,0.0027
3538.00,0.0027
3537.00,0.0027
3536.00,0.0027
3535.00,0.0027
3534.00,0.0028
3533.00,0.0028
3532.00,0.0028
3531.00,0.0028
3530.00,0.0028
3529.00,0.0028
3528.00,0.0028
3527.00,0.0029
3526.00,0.0029
3525.00,0.0030
3524.00,0.0030
3523.00,0.0031
3522.00,0.0031
3521.00,0.0031
3520.00,0.0032
3519.00,0.0032
3518.00,0.0032
3517.00,0.0031
3516.00,0.0031
3515.00,0.0031
3514.00,0.0031
3513.00,0.0032
3512.00,0.0032
3511.00,0.0033
3510.00,0.0033
3509.00,0.0033
3508.00,0.0034
3507.00,0.0034
3506.00,0.0034
3505.00,0.0034
3504.00,0.0035
3503.00,0.0035
3502.00,0.0035
3501.00,0.0034
3500.00,0.0034
3499.00,0.0034
3498.00,0.0034
3497.00,0.0035
3496.00,0.0035
3495.00,0.0036
3494.00,0.0037
3493.00,0.0037
3492.00,0.0037
3491.00,0.0037
3490.00,0.0037
3489.00,0.0037
3488.00,0.0037
3487.00,0.0038
3486.00,0.0038
3485.00,0.0039
3484.00,0.0039
3483.00,0.0040
3482.00,0.0040
3481.00,0.0040
3480.00,0.0040
3479.00,0.0040
3478.00,0.0041
3477.00,0.0041
3476.00,0.0041
3475.00,0.0042
3474.00,0.0042
3473.00,0.0042
3472.00,0.0043
3471.00,0.0043
3470.00,0.0043
3469.00,0.0043
3468.00,0.0043
3467.00,0.0043
3466.00,0.0043
3465.00,0.0043
3464.00,0.0044
3463.00,0.0044
3462.00,0.0044
3461.00,0.0044
3460.00,0.0045
3459.00,0.0045
3458.00,0.0045
3457.00,0.0045
3456.00,0.0046
3455.00,0.0046
3454.00,0.0046
3453.00,0.0046
3452.00,0.0046
3451.00,0.0046
3450.00,0.0046
3449.00,0.0047
3448.00,0.0047
3447.00,0.0047
3446.00,0.0047
3445.00,0.0047
3444.00,0.0047
3443.00,0.0047
3442.00,0.0048
3441.00,0.0048
3440.00,0.0049
3439.00,0.0049
3438.00,0.0050
3437.00,0.0050
3436.00,0.0051
3435.00,0.0051
3434.00,0.0051
3433.00,0.0051
3432.00,0.0052
3431.00,0.0052
3430.00,0.0052
3429.00,0.0053
3428.00,0.0053
3427.00,0.0053
3426.00,0.0053
3425.00,0.0053
3424.00,0.0053
3423.00,0.0053
3422.00,0.0053
3421.00,0.0053
3420.00,0.0054
3419.00,0.0054
3418.00,0.0054
3417.00,0.0054
3416.00,0.0055
3415.00,0.0055
3414.00,0.0055
3413.00,0.0056
3412.00,0.0056
3411.00,0.0056
3410.00,0.0057
3409.00,0.0057
3408.00,0.0057
3407.00,0.0057
3406.00,0.0057
3405.00,0.0058
3404.00,0.0058
3403.00,0.0059
3402.00,0.0059
3401.00,0.0060
3400.00,0.0060
3399.00,0.0061
3398.00,0.0061
3397.00,0.0061
3396.00,0.0061
3395.00,0.0062
3394.00,0.0062
3393.00,0.0062
3392.00,0.0061
3391.00,0.0061
3390.00,0.0061
3389.00,0.0060
3388.00,0.0060
3387.00,0.0060
3386.00,0.0060
3385.00,0.0059
3384.00,0.0059
3383.00,0.0059
3382.00,0.0059
3381.00,0.0059
3380.00,0.0059
3379.00,0.0059
3378.00,0.0059
3377.00,0.0059
3376.00,0.0059
3375.00,0.0059
3374.00,0.0058
3373.00,0.0058
3372.00,0.0058
3371.00,0.0058
3370.00,0.0058
3369.00,0.0058
3368.00,0.0058
3367.00,0.0058
3366.00,0.0058
3365.00,0.0058
3364.00,0.0058
3363.00,0.0058
3362.00,0.0058
3361.00,0.0058
3360.00,0.0059
3359.00,0.0058
3358.00,0.0058
3357.00,0.0058
3356.00,0.0058
3355.00,0.0058
3354.00,0.0058
3353.00,0.0058
3352.00,0.0058
3351.00,0.0058
3350.00,0.0057
3349.00,0.0057
3348.00,0.0057
3347.00,0.0057
3346.00,0.0058
3345.00,0.0057
3344.00,0.0057
3343.00,0.0057
3342.00,0.0057
3341.00,0.0057
3340.00,0.0057
3339.00,0.0057
3338.00,0.0057
3337.00,0.0057
3336.00,0.0056
3335.00,0.0056
3334.00,0.0056
3333.00,0.0056
3332.00,0.0056
3331.00,0.0056
3330.00,0.0056
3329.00,0.0056
3328.00,0.0056
3327.00,0.0055
3326.00,0.0055
3325.00,0.0055
3324.00,0.0055
3323.00,0.0054
3322.00,0.0054
3321.00,0.0055
3320.00,0.0055
3319.00,0.0054
3318.00,0.0054
3317.00,0.0054
3316.00,0.0054
3315.00,0.0054
3314.00,0.0054
3313.00,0.0054
3312.00,0.0054
3311.00,0.0054
3310.00,0.0054
3309.00,0.0053
3308.00,0.0053
3307.00,0.0053
3306.00,0.0053
3305.00,0.0054
3304.00,0.0054
3303.00,0.0054
3302.00,0.0054
3301.00,0.0054
3300.00,0.0054
3299.00,0.0054
3298.00,0.0054
3297.00,0.0053
3296.00,0.0053
3295.00,0.0053
3294.00,0.0052
3293.00,0.0052
3292.00,0.0051
3291.00,0.0051
3290.00,0.0050
3289.00,0.0050
3288.00,0.0050
3287.00,0.0051
3286.00,0.0051
3285.00,0.0050
3284.00,0.0050
3283.00,0.0049
3282.00,0.0049
3281.00,0.0049
3280.00,0.0048
3279.00,0.0048
3278.00,0.0048
3277.00,0.0049
3276.00,0.0048
3275.00,0.0048
3274.00,0.0048
3273.00,0.0047
3272.00,0.0047
3271.00,0.0047
3270.00,0.0047
3269.00,0.0046
3268.00,0.0046
3267.00,0.0045
3266.00,0.0045
3265.00,0.0045
3264.00,0.0045
3263.00,0.0045
3262.00,0.0045
3261.00,0.0045
3260.00,0.0045
3259.00,0.0045
3258.00,0.0045
3257.00,0.0045
3256.00,0.0045
3255.00,0.0045
3254.00,0.0044
3253.00,0.0044
3252.00,0.0043
3251.00,0.0043
3250.00,0.0043
3249.00,0.0043
3248.00,0.0043
3247.00,0.0043
3246.00,0.0044
3245.00,0.0043
3244.00,0.0043
3243.00,0.0043
3242.00,0.0042
3241.00,0.0042
3240.00,0.0042
3239.00,0.0042
3238.00,0.0042
3237.00,0.0042
3236.00,0.0043
3235.00,0.0043
3234.00,0.0043
3233.00,0.0043
3232.00,0.0044
3231.00,0.0044
3230.00,0.0044
3229.00,0.0044
3228.00,0.0044
3227.00,0.0043
3226.00,0.0044
3225.00,0.0044
3224.00,0.0044
3223.00,0.0045
3222.00,0.0045
3221.00,0.0045
3220.00,0.0045
3219.00,0.0045
3218.00,0.0045
3217.00,0.0045
3216.00,0.0045
3215.00,0.0045
3214.00,0.0045
3213.00,0.0046
3212.00,0.0046
3211.00,0.0047
3210.00,0.0047
3209.00,0.0047
3208.00,0.0046
3207.00,0.0046
3206.00,0.0046
3205.00,0.0046
3204.00,0.0046
3203.00,0.0047
3202.00,0.0047
3201.00,0.0047
3200.00,0.0047
3199.00,0.0047
3198.00,0.0047
3197.00,0.0048
3196.00,0.0048
3195.00,0.0048
3194.00,0.0048
3193.00,0.0048
3192.00,0.0048
3191.00,0.0048
3190.00,0.0047
3189.00,0.0047
3188.00,0.0047
3187.00,0.0046
3186.00,0.0046
3185.00,0.0046
3184.00,0.0045
3183.00,0.0045
3182.00,0.0045
3181.00,0.0045
3180.00,0.0045
3179.00,0.0045
3178.00,0.0045
3177.00,0.0044
3176.00,0.0044
3175.00,0.0044
3174.00,0.0044
3173.00,0.0043
3172.00,0.0043
3171.00,0.0043
3170.00,0.0042
3169.00,0.0042
3168.00,0.0042
3167.00,0.0041
3166.00,0.0041
3165.00,0.0041
3164.00,0.0041
3163.00,0.0041
3162.00,0.0041
3161.00,0.0041
3160.00,0.0041
3159.00,0.0040
3158.00,0.0040
3157.00,0.0040
3156.00,0.0040
3155.00,0.0040
3154.00,0.0040
3153.00,0.0040
3152.00,0.0039
3151.00,0.0039
3150.00,0.0039
3149.00,0.0039
3148.00,0.0039
3147.00,0.0039
3146.00,0.0039
3145.00,0.0040
3144.00,0.0039
3143.00,0.0039
3142.00,0.0038
3141.00,0.0037
3140.00,0.0036
3139.00,0.0036
3138.00,0.0036
3137.00,0.0036
3136.00,0.0036
3135.00,0.0036
3134.00,0.0036
3133.00,0.0035
3132.00,0.0035
3131.00,0.0035
3130.00,0.0034
3129.00,0.0034
3128.00,0.0034
3127.00,0.0034
3126.00,0.0034
3125.00,0.0034
3124.00,0.0034
3123.00,0.0033
3122.00,0.0033
3121.00,0.0032
3120.00,0.0032
3119.00,0.0031
3118.00,0.0031
3117.00,0.0031
3116.00,0.0031
3115.00,0.0032
3114.00,0.0032
3113.00,0.0032
3112.00,0.0031
3111.00,0.0031
3110.00,0.0031
3109.00,0.0030
3108.00,0.0030
3107.00,0.0030
3106.00,0.0030
3105.00,0.0030
3104.00,0.0030
3103.00,0.0030
3102.00,0.0030
3101.00,0.0031
3100.00,0.0031
3099.00,0.0031
3098.00,0.0031
3097.00,0.0031
3096.00,0.0031
3095.00,0.0031
3094.00,0.0031
3093.00,0.0030
3092.00,0.0030
3091.00,0.0029
3090.00,0.0029
3089.00,0.0029
3088.00,0.0029
3087.00,0.0029
3086.00,0.0029
3085.00,0.0029
3084.00,0.0029
3083.00,0.0029
3082.00,0.0029
3081.00,0.0029
3080.00,0.0029
3079.00,0.0029
3078.00,0.0029
3077.00,0.0030
3076.00,0.0030
3075.00,0.0030
3074.00,0.0030
3073.00,0.0030
3072.00,0.0030
3071.00,0.0030
3070.00,0.0030
3069.00,0.0030
3068.00,0.0030
3067.00,0.0030
3066.00,0.0030
3065.00,0.0030
3064.00,0.0030
3063.00,0.0031
3062.00,0.0031
3061.00,0.0031
3060.00,0.0031
3059.00,0.0031
3058.00,0.0031
3057.00,0.0031
3056.00,0.0031
3055.00,0.0032
3054.00,0.0032
3053.00,0.0033
3052.00,0.0033
3051.00,0.0033
3050.00,0.0033
3049.00,0.0033
3048.00,0.0034
3047.00,0.0034
3046.00,0.0034
3045.00,0.0035
3044.00,0.0035
3043.00,0.0035
3042.00,0.0035
3041.00,0.0035
3040.00,0.0036
3039.00,0.0036
3038.00,0.0036
3037.00,0.0037
3036.00,0.0037
3035.00,0.0038
3034.00,0.0038
3033.00,0.0038
3032.00,0.0038
3031.00,0.0038
3030.00,0.0039
3029.00,0.0039
3028.00,0.0040
3027.00,0.0041
3026.00,0.0041
3025.00,0.0042
3024.00,0.0043
3023.00,0.0043
3022.00,0.0044
3021.00,0.0045
3020.00,0.0045
3019.00,0.0046
3018.00,0.0047
3017.00,0.0048
3016.00,0.0048
3015.00,0.0049
3014.00,0.0051
3013.00,0.0052
3012.00,0.0053
3011.00,0.0054
3010.00,0.0055
3009.00,0.0056
3008.00,0.0058
3007.00,0.0059
3006.00,0.0061
3005.00,0.0062
3004.00,0.0064
3003.00,0.0066
3002.00,0.0068
3001.00,0.0069
3000.00,0.0071
2999.00,0.0074
2998.00,0.0077
2997.00,0.0080
2996.00,0.0084
2995.00,0.0088
2994.00,0.0092
2993.00,0.0096
2992.00,0.0100
2991.00,0.0104
2990.00,0.0110
2989.00,0.0116
2988.00,0.0123
2987.00,0.0131
2986.00,0.0140
2985.00,0.0150
2984.00,0.0161
2983.00,0.0173
2982.00,0.0188
2981.00,0.0204
2980.00,0.0222
2979.00,0.0242
2978.00,0.0265
2977.00,0.0291
2976.00,0.0321
2975.00,0.0355
2974.00,0.0393
2973.00,0.0437
2972.00,0.0486
2971.00,0.0541
2970.00,0.0601
2969.00,0.0666
2968.00,0.0736
2967.00,0.0810
2966.00,0.0886
2965.00,0.0960
2964.00,0.1031
2963.00,0.1096
2962.00,0.1152
2961.00,0.1200
2960.00,0.1242
2959.00,0.1282
2958.00,0.1326
2957.00,0.1377
2956.00,0.1440
2955.00,0.1516
2954.00,0.1602
2953.00,0.1691
2952.00,0.1772
2951.00,0.1833
2950.00,0.1862
2949.00,0.1850
2948.00,0.1796
2947.00,0.1704
2946.00,0.1588
2945.00,0.1463
2944.00,0.1344
2943.00,0.1241
2942.00,0.1162
2941.00,0.1107
2940.00,0.1078
2939.00,0.1071
2938.00,0.1083
2937.00,0.1114
2936.00,0.1162
2935.00,0.1224
2934.00,0.1301
2933.00,0.1390
2932.00,0.1491
2931.00,0.1602
2930.00,0.1721
2929.00,0.1845
2928.00,0.1970
2927.00,0.2094
2926.00,0.2216
2925.00,0.2334
2924.00,0.2452
2923.00,0.2571
2922.00,0.2691
2921.00,0.2808
2920.00,0.2915
2919.00,0.2999
2918.00,0.3046
2917.00,0.3045
2916.00,0.2995
2915.00,0.2901
2914.00,0.2777
2913.00,0.2640
2912.00,0.2503
2911.00,0.2376
2910.00,0.2261
2909.00,0.2159
2908.00,0.2067
2907.00,0.1982
2906.00,0.1901
2905.00,0.1823
2904.00,0.1746
2903.00,0.1672
2902.00,0.1600
2901.00,0.1531
2900.00,0.1465
2899.00,0.1404
2898.00,0.1347
2897.00,0.1295
2896.00,0.1248
2895.00,0.1206
2894.00,0.1171
2893.00,0.1143
2892.00,0.1120
2891.00,0.1103
2890.00,0.1091
2889.00,0.1084
2888.00,0.1081
2887.00,0.1081
2886.00,0.1085
2885.00,0.1092
2884.00,0.1104
2883.00,0.1121
2882.00,0.1144
2881.00,0.1169
2880.00,0.1195
2879.00,0.1218
2878.00,0.1233
2877.00,0.1239
2876.00,0.1237
2875.00,0.1231
2874.00,0.1226
2873.00,0.1225
2872.00,0.1232
2871.00,0.1247
2870.00,0.1266
2869.00,0.1286
2868.00,0.1300
2867.00,0.1299
2866.00,0.1276
2865.00,0.1230
2864.00,0.1165
2863.00,0.1088
2862.00,0.1011
2861.00,0.0943
2860.00,0.0890
2859.00,0.0854
2858.00,0.0834
2857.00,0.0827
2856.00,0.0832
2855.00,0.0845
2854.00,0.0865
2853.00,0.0888
2852.00,0.0913
2851.00,0.0934
2850.00,0.0948
2849.00,0.0955
2848.00,0.0957
2847.00,0.0959
2846.00,0.0968
2845.00,0.0988
2844.00,0.1020
2843.00,0.1061
2842.00,0.1106
2841.00,0.1149
2840.00,0.1182
2839.00,0.1198
2838.00,0.1190
2837.00,0.1154
2836.00,0.1091
2835.00,0.1004
2834.00,0.0904
2833.00,0.0800
2832.00,0.0701
2831.00,0.0613
2830.00,0.0538
2829.00,0.0477
2828.00,0.0427
2827.00,0.0387
2826.00,0.0355
2825.00,0.0328
2824.00,0.0305
2823.00,0.0286
2822.00,0.0270
2821.00,0.0256
2820.00,0.0244
2819.00,0.0233
2818.00,0.0223
2817.00,0.0215
2816.00,0.0208
2815.00,0.0201
2814.00,0.0195
2813.00,0.0189
2812.00,0.0183
2811.00,0.0177
2810.00,0.0172
2809.00,0.0166
2808.00,0.0160
2807.00,0.0153
2806.00,0.0146
2805.00,0.0140
2804.00,0.0134
2803.00,0.0128
2802.00,0.0123
2801.00,0.0118
2800.00,0.0114
2799.00,0.0111
2798.00,0.0108
2797.00,0.0106
2796.00,0.0103
2795.00,0.0101
2794.00,0.0098
2793.00,0.0095
2792.00,0.0092
2791.00,0.0090
2790.00,0.0087
2789.00,0.0084
2788.00,0.0081
2787.00,0.0078
2786.00,0.0076
2785.00,0.0074
2784.00,0.0071
2783.00,0.0069
2782.00,0.0068
2781.00,0.0066
2780.00,0.0065
2779.00,0.0063
2778.00,0.0062
2777.00,0.0060
2776.00,0.0059
2775.00,0.0058
2774.00,0.0057
2773.00,0.0056
2772.00,0.0055
2771.00,0.0055
2770.00,0.0055
2769.00,0.0055
2768.00,0.0054
2767.00,0.0054
2766.00,0.0054
2765.00,0.0054
2764.00,0.0053
2763.00,0.0053
2762.00,0.0052
2761.00,0.0052
2760.00,0.0051
2759.00,0.0051
2758.00,0.0051
2757.00,0.0050
2756.00,0.0050
2755.00,0.0050
2754.00,0.0050
2753.00,0.0050
2752.00,0.0050
2751.00,0.0050
2750.00,0.0050
2749.00,0.0050
2748.00,0.0050
2747.00,0.0050
2746.00,0.0051
2745.00,0.0051
2744.00,0.0052
2743.00,0.0053
2742.00,0.0054
2741.00,0.0054
2740.00,0.0055
2739.00,0.0056
2738.00,0.0058
2737.00,0.0059
2736.00,0.0061
2735.00,0.0062
2734.00,0.0063
2733.00,0.0065
2732.00,0.0066
2731.00,0.0068
2730.00,0.0071
2729.00,0.0073
2728.00,0.0076
2727.00,0.0079
2726.00,0.0082
2725.00,0.0084
2724.00,0.0086
2723.00,0.0086
2722.00,0.0086
2721.00,0.0084
2720.00,0.0082
2719.00,0.0078
2718.00,0.0075
2717.00,0.0072
2716.00,0.0069
2715.00,0.0066
2714.00,0.0063
2713.00,0.0061
2712.00,0.0058
2711.00,0.0056
2710.00,0.0054
2709.00,0.0053
2708.00,0.0052
2707.00,0.0050
2706.00,0.0049
2705.00,0.0048
2704.00,0.0047
2703.00,0.0046
2702.00,0.0045
2701.00,0.0045
2700.00,0.0044
2699.00,0.0044
2698.00,0.0044
2697.00,0.0043
2696.00,0.0043
2695.00,0.0043
2694.00,0.0043
2693.00,0.0043
2692.00,0.0043
2691.00,0.0043
2690.00,0.0044
2689.00,0.0043
2688.00,0.0043
2687.00,0.0043
2686.00,0.0043
2685.00,0.0043
2684.00,0.0043
2683.00,0.0044
2682.00,0.0044
2681.00,0.0044
2680.00,0.0044
2679.00,0.0044
2678.00,0.0044
2677.00,0.0045
2676.00,0.0045
2675.00,0.0045
2674.00,0.0044
2673.00,0.0044
2672.00,0.0044
2671.00,0.0043
2670.00,0.0043
2669.00,0.0043
2668.00,0.0043
2667.00,0.0043
2666.00,0.0044
2665.00,0.0044
2664.00,0.0044
2663.00,0.0045
2662.00,0.0045
2661.00,0.0046
2660.00,0.0046
2659.00,0.0047
2658.00,0.0047
2657.00,0.0046
2656.00,0.0046
2655.00,0.0045
2654.00,0.0045
2653.00,0.0045
2652.00,0.0044
2651.00,0.0044
2650.00,0.0044
2649.00,0.0043
2648.00,0.0043
2647.00,0.0042
2646.00,0.0042
2645.00,0.0041
2644.00,0.0040
2643.00,0.0040
2642.00,0.0040
2641.00,0.0040
2640.00,0.0039
2639.00,0.0039
2638.00,0.0038
2637.00,0.0038
2636.00,0.0038
2635.00,0.0038
2634.00,0.0038
2633.00,0.0038
2632.00,0.0038
2631.00,0.0038
2630.00,0.0038
2629.00,0.0038
2628.00,0.0038
2627.00,0.0038
2626.00,0.0037
2625.00,0.0038
2624.00,0.0038
2623.00,0.0039
2622.00,0.0039
2621.00,0.0039
2620.00,0.0039
2619.00,0.0039
2618.00,0.0039
2617.00,0.0038
2616.00,0.0038
2615.00,0.0038
2614.00,0.0038
2613.00,0.0038
2612.00,0.0038
2611.00,0.0038
2610.00,0.0037
2609.00,0.0036
2608.00,0.0035
2607.00,0.0034
2606.00,0.0033
2605.00,0.0032
2604.00,0.0032
2603.00,0.0031
2602.00,0.0031
2601.00,0.0031
2600.00,0.0031
2599.00,0.0031
2598.00,0.0031
2597.00,0.0031
2596.00,0.0031
2595.00,0.0031
2594.00,0.0032
2593.00,0.0032
2592.00,0.0033
2591.00,0.0034
2590.00,0.0034
2589.00,0.0035
2588.00,0.0036
2587.00,0.0036
2586.00,0.0037
2585.00,0.0038
2584.00,0.0038
2583.00,0.0038
2582.00,0.0039
2581.00,0.0039
2580.00,0.0038
2579.00,0.0037
2578.00,0.0036
2577.00,0.0035
2576.00,0.0034
2575.00,0.0033
2574.00,0.0032
2573.00,0.0031
2572.00,0.0029
2571.00,0.0028
2570.00,0.0026
2569.00,0.0025
2568.00,0.0024
2567.00,0.0023
2566.00,0.0023
2565.00,0.0022
2564.00,0.0022
2563.00,0.0022
2562.00,0.0022
2561.00,0.0022
2560.00,0.0022
2559.00,0.0022
2558.00,0.0021
2557.00,0.0021
2556.00,0.0021
2555.00,0.0021
2554.00,0.0021
2553.00,0.0021
2552.00,0.0020
2551.00,0.0020
2550.00,0.0020
2549.00,0.0020
2548.00,0.0020
2547.00,0.0019
2546.00,0.0019
2545.00,0.0018
2544.00,0.0017
2543.00,0.0016
2542.00,0.0016
2541.00,0.0016
2540.00,0.0016
2539.00,0.0015
2538.00,0.0015
2537.00,0.0015
2536.00,0.0015
2535.00,0.0015
2534.00,0.0015
2533.00,0.0015
2532.00,0.0014
2531.00,0.0013
2530.00,0.0013
2529.00,0.0012
2528.00,0.0012
2527.00,0.0012
2526.00,0.0013
2525.00,0.0013
2524.00,0.0013
2523.00,0.0013
2522.00,0.0012
2521.00,0.0012
2520.00,0.0012
2519.00,0.0011
2518.00,0.0011
2517.00,0.0011
2516.00,0.0010
2515.00,0.0010
2514.00,0.0010
2513.00,0.0009
2512.00,0.0009
2511.00,0.0009
2510.00,0.0009
2509.00,0.0009
2508.00,0.0008
2507.00,0.0008
2506.00,0.0008
2505.00,0.0008
2504.00,0.0009
2503.00,0.0009
2502.00,0.0010
2501.00,0.0010
2500.00,0.0009
2499.00,0.0009
2498.00,0.0009
2497.00,0.0009
2496.00,0.0008
2495.00,0.0008
2494.00,0.0009
2493.00,0.0009
2492.00,0.0009
2491.00,0.0009
2490.00,0.0009
2489.00,0.0009
2488.00,0.0008
2487.00,0.0008
2486.00,0.0008
2485.00,0.0008
2484.00,0.0008
2483.00,0.0008
2482.00,0.0008
2481.00,0.0008
2480.00,0.0009
2479.00,0.0010
2478.00,0.0010
2477.00,0.0010
2476.00,0.0010
2475.00,0.0009
2474.00,0.0008
2473.00,0.0008
2472.00,0.0009
2471.00,0.0009
2470.00,0.0009
2469.00,0.0009
2468.00,0.0009
2467.00,0.0009
2466.00,0.0009
2465.00,0.0009
2464.00,0.0009
2463.00,0.0009
2462.00,0.0008
2461.00,0.0008
2460.00,0.0008
2459.00,0.0008
2458.00,0.0009
2457.00,0.0009
2456.00,0.0009
2455.00,0.0009
2454.00,0.0009
2453.00,0.0009
2452.00,0.0009
2451.00,0.0009
2450.00,0.0009
2449.00,0.0009
2448.00,0.0009
2447.00,0.0009
2446.00,0.0009
2445.00,0.0009
2444.00,0.0009
2443.00,0.0008
2442.00,0.0008
2441.00,0.0008
2440.00,0.0008
2439.00,0.0008
2438.00,0.0008
2437.00,0.0008
2436.00,0.0008
2435.00,0.0008
2434.00,0.0008
2433.00,0.0008
2432.00,0.0008
2431.00,0.0009
2430.00,0.0011
2429.00,0.0012
2428.00,0.0012
2427.00,0.0011
2426.00,0.0011
2425.00,0.0010
2424.00,0.0009
2423.00,0.0008
2422.00,0.0008
2421.00,0.0009
2420.00,0.0008
2419.00,0.0008
2418.00,0.0009
2417.00,0.0009
2416.00,0.0009
2415.00,0.0009
2414.00,0.0009
2413.00,0.0009
2412.00,0.0009
2411.00,0.0009
2410.00,0.0008
2409.00,0.0008
2408.00,0.0007
2407.00,0.0007
2406.00,0.0006
2405.00,0.0006
2404.00,0.0006
2403.00,0.0007
2402.00,0.0007
2401.00,0.0007
2400.00,0.0007
2399.00,0.0006
2398.00,0.0006
2397.00,0.0007
2396.00,0.0007
2395.00,0.0007
2394.00,0.0007
2393.00,0.0007
2392.00,0.0007
2391.00,0.0006
2390.00,0.0006
2389.00,0.0006
2388.00,0.0005
2387.00,0.0005
2386.00,0.0005
2385.00,0.0005
2384.00,0.0005
2383.00,0.0005
2382.00,0.0004
2381.00,0.0003
2380.00,0.0003
2379.00,0.0002
2378.00,0.0002
2377.00,0.0002
2376.00,0.0002
2375.00,0.0002
2374.00,0.0003
2373.00,0.0003
2372.00,0.0002
2371.00,0.0002
2370.00,0.0001
2369.00,-0.0000
2368.00,-0.0001
2367.00,-0.0001
2366.00,-0.0000
2365.00,0.0001
2364.00,0.0001
2363.00,0.0001
2362.00,0.0001
2361.00,0.0001
2360.00,0.0002
2359.00,0.0002
2358.00,0.0002
2357.00,0.0003
2356.00,0.0003
2355.00,0.0004
2354.00,0.0004
2353.00,0.0003
2352.00,0.0002
2351.00,0.0002
2350.00,0.0001
2349.00,0.0002
2348.00,0.0002
2347.00,0.0003
2346.00,0.0004
2345.00,0.0004
2344.00,0.0004
2343.00,0.0004
2342.00,0.0004
2341.00,0.0004
2340.00,0.0004
2339.00,0.0005
2338.00,0.0006
2337.00,0.0007
2336.00,0.0007
2335.00,0.0007
2334.00,0.0006
2333.00,0.0005
2332.00,0.0004
2331.00,0.0003
2330.00,0.0003
2329.00,0.0004
2328.00,0.0007
2327.00,0.0011
2326.00,0.0016
2325.00,0.0021
2324.00,0.0023
2323.00,0.0022
2322.00,0.0019
2321.00,0.0017
2320.00,0.0014
2319.00,0.0013
2318.00,0.0012
2317.00,0.0011
2316.00,0.0010
2315.00,0.0010
2314.00,0.0009
2313.00,0.0009
2312.00,0.0009
2311.00,0.0008
2310.00,0.0008
2309.00,0.0008
2308.00,0.0008
2307.00,0.0008
2306.00,0.0008
2305.00,0.0009
2304.00,0.0009
2303.00,0.0009
2302.00,0.0009
2301.00,0.0010
2300.00,0.0010
2299.00,0.0011
2298.00,0.0011
2297.00,0.0012
2296.00,0.0012
2295.00,0.0012
2294.00,0.0013
2293.00,0.0014
2292.00,0.0015
2291.00,0.0016
2290.00,0.0017
2289.00,0.0017
2288.00,0.0017
2287.00,0.0018
2286.00,0.0019
2285.00,0.0020
2284.00,0.0020
2283.00,0.0020
2282.00,0.0018
2281.00,0.0017
2280.00,0.0015
2279.00,0.0013
2278.00,0.0013
2277.00,0.0012
2276.00,0.0012
2275.00,0.0012
2274.00,0.0012
2273.00,0.0012
2272.00,0.0011
2271.00,0.0011
2270.00,0.0011
2269.00,0.0011
2268.00,0.0011
2267.00,0.0010
2266.00,0.0010
2265.00,0.0010
2264.00,0.0010
2263.00,0.0010
2262.00,0.0010
2261.00,0.0011
2260.00,0.0011
2259.00,0.0012
2258.00,0.0013
2257.00,0.0013
2256.00,0.0011
2255.00,0.0009
2254.00,0.0008
2253.00,0.0008
2252.00,0.0007
2251.00,0.0007
2250.00,0.0006
2249.00,0.0006
2248.00,0.0006
2247.00,0.0006
2246.00,0.0007
2245.00,0.0007
2244.00,0.0008
2243.00,0.0008
2242.00,0.0008
2241.00,0.0009
2240.00,0.0010
2239.00,0.0009
2238.00,0.0008
2237.00,0.0006
2236.00,0.0005
2235.00,0.0004
2234.00,0.0004
2233.00,0.0004
2232.00,0.0004
2231.00,0.0004
2230.00,0.0004
2229.00,0.0004
2228.00,0.0005
2227.00,0.0006
2226.00,0.0008
2225.00,0.0010
2224.00,0.0011
2223.00,0.0011
2222.00,0.0010
2221.00,0.0009
2220.00,0.0008
2219.00,0.0007
2218.00,0.0006
2217.00,0.0006
2216.00,0.0005
2215.00,0.0005
2214.00,0.0005
2213.00,0.0005
2212.00,0.0005
2211.00,0.0006
2210.00,0.0006
2209.00,0.0006
2208.00,0.0006
2207.00,0.0005
2206.00,0.0005
2205.00,0.0006
2204.00,0.0006
2203.00,0.0005
2202.00,0.0005
2201.00,0.0006
2200.00,0.0008
2199.00,0.0009
2198.00,0.0009
2197.00,0.0008
2196.00,0.0007
2195.00,0.0006
2194.00,0.0007
2193.00,0.0008
2192.00,0.0010
2191.00,0.0011
2190.00,0.0011
2189.00,0.0011
2188.00,0.0010
2187.00,0.0008
2186.00,0.0006
2185.00,0.0005
2184.00,0.0005
2183.00,0.0004
2182.00,0.0004
2181.00,0.0003
2180.00,0.0003
2179.00,0.0003
2178.00,0.0003
2177.00,0.0001
2176.00,-0.0001
2175.00,-0.0004
2174.00,-0.0005
2173.00,-0.0004
2172.00,-0.0002
2171.00,0.0001
2170.00,0.0005
2169.00,0.0008
2168.00,0.0010
2167.00,0.0010
2166.00,0.0010
2165.00,0.0011
2164.00,0.0013
2163.00,0.0015
2162.00,0.0016
2161.00,0.0012
2160.00,0.0001
2159.00,-0.0013
2158.00,-0.0026
2157.00,-0.0033
2156.00,-0.0034
2155.00,-0.0031
2154.00,-0.0028
2153.00,-0.0024
2152.00,-0.0020
2151.00,-0.0016
2150.00,-0.0013
2149.00,-0.0010
2148.00,-0.0009
2147.00,-0.0009
2146.00,-0.0010
2145.00,-0.0012
2144.00,-0.0014
2143.00,-0.0015
2142.00,-0.0015
2141.00,-0.0014
2140.00,-0.0012
2139.00,-0.0012
2138.00,-0.0012
2137.00,-0.0013
2136.00,-0.0015
2135.00,-0.0018
2134.00,-0.0020
2133.00,-0.0021
2132.00,-0.0019
2131.00,-0.0015
2130.00,-0.0012
2129.00,-0.0009
2128.00,-0.0008
2127.00,-0.0007
2126.00,-0.0007
2125.00,-0.0006
2124.00,-0.0005
2123.00,-0.0004
2122.00,-0.0003
2121.00,-0.0003
2120.00,-0.0003
2119.00,-0.0003
2118.00,-0.0002
2117.00,-0.0001
2116.00,0.0001
2115.00,0.0002
2114.00,0.0001
2113.00,0.0001
2112.00,0.0001
2111.00,0.0001
2110.00,0.0001
2109.00,0.0001
2108.00,0.0001
2107.00,0.0000
2106.00,-0.0001
2105.00,-0.0001
2104.00,-0.0001
2103.00,-0.0000
2102.00,-0.0000
2101.00,-0.0000
2100.00,0.0000
2099.00,-0.0000
2098.00,-0.0001
2097.00,-0.0003
2096.00,-0.0004
2095.00,-0.0006
2094.00,-0.0006
2093.00,-0.0005
2092.00,-0.0003
2091.00,-0.0002
2090.00,-0.0000
2089.00,0.0000
2088.00,0.0001
2087.00,0.0000
2086.00,-0.0001
2085.00,-0.0001
2084.00,0.0000
2083.00,0.0002
2082.00,0.0004
2081.00,0.0004
2080.00,0.0004
2079.00,0.0003
2078.00,0.0003
2077.00,0.0003
2076.00,0.0003
2075.00,0.0003
2074.00,0.0004
2073.00,0.0003
2072.00,0.0002
2071.00,-0.0000
2070.00,-0.0001
2069.00,-0.0002
2068.00,-0.0002
2067.00,-0.0003
2066.00,-0.0003
2065.00,-0.0003
2064.00,-0.0002
2063.00,-0.0001
2062.00,-0.0001
2061.00,-0.0002
2060.00,-0.0002
2059.00,-0.0002
2058.00,-0.0000
2057.00,0.0002
2056.00,0.0002
2055.00,0.0001
2054.00,0.0000
2053.00,0.0002
2052.00,0.0005
2051.00,0.0009
2050.00,0.0009
2049.00,0.0008
2048.00,0.0006
2047.00,0.0004
2046.00,0.0002
2045.00,0.0002
2044.00,0.0002
2043.00,0.0002
2042.00,0.0002
2041.00,0.0004
2040.00,0.0006
2039.00,0.0007
2038.00,0.0006
2037.00,0.0004
2036.00,0.0002
2035.00,-0.0001
2034.00,-0.0002
2033.00,-0.0001
2032.00,-0.0001
2031.00,-0.0002
2030.00,-0.0004
2029.00,-0.0007
2028.00,-0.0008
2027.00,-0.0009
2026.00,-0.0009
2025.00,-0.0010
2024.00,-0.0010
2023.00,-0.0010
2022.00,-0.0010
2021.00,-0.0009
2020.00,-0.0007
2019.00,-0.0005
2018.00,-0.0003
2017.00,-0.0001
2016.00,0.0002
2015.00,0.0003
2014.00,0.0002
2013.00,-0.0001
2012.00,-0.0004
2011.00,-0.0008
2010.00,-0.0011
2009.00,-0.0013
2008.00,-0.0015
2007.00,-0.0018
2006.00,-0.0019
2005.00,-0.0018
2004.00,-0.0015
2003.00,-0.0013
2002.00,-0.0012
2001.00,-0.0012
2000.00,-0.0014
1999.00,-0.0016
1998.00,-0.0017
1997.00,-0.0017
1996.00,-0.0016
1995.00,-0.0014
1994.00,-0.0013
1993.00,-0.0011
1992.00,-0.0010
1991.00,-0.0008
1990.00,-0.0006
1989.00,-0.0004
1988.00,-0.0003
1987.00,-0.0003
1986.00,-0.0003
1985.00,-0.0003
1984.00,-0.0001
1983.00,0.0002
1982.00,0.0006
1981.00,0.0009
1980.00,0.0009
1979.00,0.0004
1978.00,-0.0003
1977.00,-0.0009
1976.00,-0.0013
1975.00,-0.0014
1974.00,-0.0013
1973.00,-0.0011
1972.00,-0.0010
1971.00,-0.0010
1970.00,-0.0010
1969.00,-0.0011
1968.00,-0.0012
1967.00,-0.0015
1966.00,-0.0016
1965.00,-0.0016
1964.00,-0.0014
1963.00,-0.0013
1962.00,-0.0012
1961.00,-0.0013
1960.00,-0.0015
1959.00,-0.0017
1958.00,-0.0018
1957.00,-0.0017
1956.00,-0.0017
1955.00,-0.0017
1954.00,-0.0016
1953.00,-0.0015
1952.00,-0.0015
1951.00,-0.0015
1950.00,-0.0016
1949.00,-0.0015
1948.00,-0.0012
1947.00,-0.0011
1946.00,-0.0010
1945.00,-0.0011
1944.00,-0.0012
1943.00,-0.0013
1942.00,-0.0013
1941.00,-0.0013
1940.00,-0.0012
1939.00,-0.0012
1938.00,-0.0012
1937.00,-0.0011
1936.00,-0.0010
1935.00,-0.0010
1934.00,-0.0010
1933.00,-0.0010
1932.00,-0.0010
1931.00,-0.0009
1930.00,-0.0009
1929.00,-0.0008
1928.00,-0.0007
1927.00,-0.0008
1926.00,-0.0008
1925.00,-0.0008
1924.00,-0.0007
1923.00,-0.0004
1922.00,-0.0002
1921.00,-0.0000
1920.00,-0.0000
1919.00,-0.0001
1918.00,-0.0003
1917.00,-0.0004
1916.00,-0.0004
1915.00,-0.0003
1914.00,-0.0002
1913.00,-0.0002
1912.00,-0.0003
1911.00,-0.0004
1910.00,-0.0005
1909.00,-0.0005
1908.00,-0.0004
1907.00,-0.0003
1906.00,-0.0003
1905.00,-0.0003
1904.00,-0.0004
1903.00,-0.0004
1902.00,-0.0004
1901.00,-0.0003
1900.00,-0.0002
1899.00,-0.0003
1898.00,-0.0003
1897.00,-0.0003
1896.00,-0.0003
1895.00,-0.0002
1894.00,-0.0001
1893.00,-0.0001
1892.00,-0.0001
1891.00,-0.0001
1890.00,-0.0001
1889.00,-0.0001
1888.00,-0.0001
1887.00,-0.0001
1886.00,-0.0001
1885.00,-0.0002
1884.00,-0.0002
1883.00,-0.0002
1882.00,-0.0002
1881.00,-0.0002
1880.00,-0.0001
1879.00,-0.0001
1878.00,-0.0002
1877.00,-0.0002
1876.00,-0.0002
1875.00,-0.0001
1874.00,-0.0001
1873.00,-0.0001
1872.00,-0.0000
1871.00,-0.0000
1870.00,-0.0000
1869.00,-0.0000
1868.00,-0.0000
1867.00,-0.0000
1866.00,0.0000
1865.00,0.0001
1864.00,0.0001
1863.00,0.0001
1862.00,0.0001
1861.00,0.0001
1860.00,0.0001
1859.00,0.0001
1858.00,0.0000
1857.00,-0.0000
1856.00,0.0000
1855.00,0.0001
1854.00,0.0001
1853.00,0.0001
1852.00,-0.0000
1851.00,-0.0001
1850.00,-0.0002
1849.00,-0.0002
1848.00,-0.0001
1847.00,-0.0001
1846.00,-0.0001
1845.00,-0.0001
1844.00,-0.0000
1843.00,0.0000
1842.00,0.0001
1841.00,0.0001
1840.00,0.0001
1839.00,0.0000
1838.00,0.0000
1837.00,0.0001
1836.00,0.0003
1835.00,0.0004
1834.00,0.0004
1833.00,0.0003
1832.00,0.0003
1831.00,0.0003
1830.00,0.0003
1829.00,0.0003
1828.00,0.0004
1827.00,0.0005
1826.00,0.0005
1825.00,0.0005
1824.00,0.0005
1823.00,0.0005
1822.00,0.0005
1821.00,0.0004
1820.00,0.0003
1819.00,0.0002
1818.00,0.0001
1817.00,0.0000
1816.00,0.0000
1815.00,0.0001
1814.00,0.0002
1813.00,0.0002
1812.00,0.0003
1811.00,0.0003
1810.00,0.0003
1809.00,0.0003
1808.00,0.0003
1807.00,0.0003
1806.00,0.0003
1805.00,0.0003
1804.00,0.0004
1803.00,0.0004
1802.00,0.0005
1801.00,0.0005
1800.00,0.0006
1799.00,0.0006
1798.00,0.0005
1797.00,0.0005
1796.00,0.0005
1795.00,0.0005
1794.00,0.0006
1793.00,0.0005
1792.00,0.0005
1791.00,0.0005
1790.00,0.0005
1789.00,0.0006
1788.00,0.0006
1787.00,0.0006
1786.00,0.0006
1785.00,0.0007
1784.00,0.0007
1783.00,0.0008
1782.00,0.0008
1781.00,0.0008
1780.00,0.0008
1779.00,0.0008
1778.00,0.0008
1777.00,0.0008
1776.00,0.0008
1775.00,0.0008
1774.00,0.0008
1773.00,0.0008
1772.00,0.0008
1771.00,0.0009
1770.00,0.0009
1769.00,0.0009
1768.00,0.0009
1767.00,0.0009
1766.00,0.0009
1765.00,0.0010
1764.00,0.0010
1763.00,0.0010
1762.00,0.0011
1761.00,0.0012
1760.00,0.0012
1759.00,0.0012
1758.00,0.0013
1757.00,0.0013
1756.00,0.0014
1755.00,0.0014
1754.00,0.0015
1753.00,0.0015
1752.00,0.0016
1751.00,0.0017
1750.00,0.0018
1749.00,0.0019
1748.00,0.0020
1747.00,0.0020
1746.00,0.0020
1745.00,0.0021
1744.00,0.0021
1743.00,0.0022
1742.00,0.0023
1741.00,0.0023
1740.00,0.0023
1739.00,0.0024
1738.00,0.0024
1737.00,0.0024
1736.00,0.0025
1735.00,0.0025
1734.00,0.0025
1733.00,0.0025
1732.00,0.0025
1731.00,0.0025
1730.00,0.0025
1729.00,0.0025
1728.00,0.0025
1727.00,0.0025
1726.00,0.0026
1725.00,0.0026
1724.00,0.0026
1723.00,0.0026
1722.00,0.0026
1721.00,0.0026
1720.00,0.0026
1719.00,0.0025
1718.00,0.0024
1717.00,0.0023
1716.00,0.0023
1715.00,0.0023
1714.00,0.0023
1713.00,0.0023
1712.00,0.0023
1711.00,0.0022
1710.00,0.0022
1709.00,0.0023
1708.00,0.0023
1707.00,0.0024
1706.00,0.0024
1705.00,0.0024
1704.00,0.0023
1703.00,0.0023
1702.00,0.0023
1701.00,0.0023
1700.00,0.0024
1699.00,0.0026
1698.00,0.0027
1697.00,0.0027
1696.00,0.0027
1695.00,0.0027
1694.00,0.0028
1693.00,0.0029
1692.00,0.0030
1691.00,0.0030
1690.00,0.0030
1689.00,0.0030
1688.00,0.0031
1687.00,0.0031
1686.00,0.0031
1685.00,0.0032
1684.00,0.0032
1683.00,0.0034
1682.00,0.0035
1681.00,0.0036
1680.00,0.0037
1679.00,0.0038
1678.00,0.0039
1677.00,0.0040
1676.00,0.0041
1675.00,0.0041
1674.00,0.0042
1673.00,0.0042
1672.00,0.0043
1671.00,0.0043
1670.00,0.0043
1669.00,0.0044
1668.00,0.0045
1667.00,0.0046
1666.00,0.0046
1665.00,0.0046
1664.00,0.0047
1663.00,0.0047
1662.00,0.0048
1661.00,0.0048
1660.00,0.0049
1659.00,0.0049
1658.00,0.0049
1657.00,0.0050
1656.00,0.0051
1655.00,0.0052
1654.00,0.0053
1653.00,0.0055
1652.00,0.0057
1651.00,0.0060
1650.00,0.0062
1649.00,0.0065
1648.00,0.0068
1647.00,0.0071
1646.00,0.0072
1645.00,0.0072
1644.00,0.0071
1643.00,0.0070
1642.00,0.0069
1641.00,0.0068
1640.00,0.0067
1639.00,0.0067
1638.00,0.0067
1637.00,0.0067
1636.00,0.0066
1635.00,0.0065
1634.00,0.0065
1633.00,0.0065
1632.00,0.0066
1631.00,0.0066
1630.00,0.0066
1629.00,0.0065
1628.00,0.0065
1627.00,0.0064
1626.00,0.0063
1625.00,0.0062
1624.00,0.0061
1623.00,0.0060
1622.00,0.0059
1621.00,0.0059
1620.00,0.0059
1619.00,0.0058
1618.00,0.0057
1617.00,0.0057
1616.00,0.0056
1615.00,0.0056
1614.00,0.0056
1613.00,0.0056
1612.00,0.0056
1611.00,0.0055
1610.00,0.0055
1609.00,0.0055
1608.00,0.0055
1607.00,0.0055
1606.00,0.0056
1605.00,0.0056
1604.00,0.0056
1603.00,0.0056
1602.00,0.0055
1601.00,0.0055
1600.00,0.0055
1599.00,0.0055
1598.00,0.0054
1597.00,0.0054
1596.00,0.0054
1595.00,0.0054
1594.00,0.0055
1593.00,0.0055
1592.00,0.0056
1591.00,0.0057
1590.00,0.0059
1589.00,0.0060
1588.00,0.0062
1587.00,0.0064
1586.00,0.0067
1585.00,0.0070
1584.00,0.0073
1583.00,0.0077
1582.00,0.0081
1581.00,0.0086
1580.00,0.0090
1579.00,0.0094
1578.00,0.0096
1577.00,0.0097
1576.00,0.0096
1575.00,0.0094
1574.00,0.0092
1573.00,0.0091
1572.00,0.0088
1571.00,0.0085
1570.00,0.0082
1569.00,0.0078
1568.00,0.0076
1567.00,0.0074
1566.00,0.0072
1565.00,0.0071
1564.00,0.0070
1563.00,0.0070
1562.00,0.0070
1561.00,0.0070
1560.00,0.0070
1559.00,0.0069
1558.00,0.0068
1557.00,0.0069
1556.00,0.0070
1555.00,0.0071
1554.00,0.0072
1553.00,0.0073
1552.00,0.0075
1551.00,0.0076
1550.00,0.0077
1549.00,0.0080
1548.00,0.0083
1547.00,0.0087
1546.00,0.0091
1545.00,0.0096
1544.00,0.0102
1543.00,0.0106
1542.00,0.0110
1541.00,0.0111
1540.00,0.0109
1539.00,0.0104
1538.00,0.0100
1537.00,0.0096
1536.00,0.0093
1535.00,0.0088
1534.00,0.0082
1533.00,0.0076
1532.00,0.0073
1531.00,0.0070
1530.00,0.0068
1529.00,0.0066
1528.00,0.0064
1527.00,0.0063
1526.00,0.0061
1525.00,0.0060
1524.00,0.0060
1523.00,0.0060
1522.00,0.0058
1521.00,0.0058
1520.00,0.0058
1519.00,0.0058
1518.00,0.0058
1517.00,0.0059
1516.00,0.0060
1515.00,0.0061
1514.00,0.0061
1513.00,0.0061
1512.00,0.0061
1511.00,0.0061
1510.00,0.0061
1509.00,0.0062
1508.00,0.0064
1507.00,0.0065
1506.00,0.0065
1505.00,0.0067
1504.00,0.0069
1503.00,0.0071
1502.00,0.0072
1501.00,0.0075
1500.00,0.0079
1499.00,0.0082
1498.00,0.0086
1497.00,0.0090
1496.00,0.0095
1495.00,0.0098
1494.00,0.0102
1493.00,0.0106
1492.00,0.0110
1491.00,0.0114
1490.00,0.0118
1489.00,0.0124
1488.00,0.0130
1487.00,0.0135
1486.00,0.0141
1485.00,0.0148
1484.00,0.0157
1483.00,0.0166
1482.00,0.0178
1481.00,0.0191
1480.00,0.0206
1479.00,0.0220
1478.00,0.0237
1477.00,0.0259
1476.00,0.0284
1475.00,0.0314
1474.00,0.0354
1473.00,0.0412
1472.00,0.0481
1471.00,0.0547
1470.00,0.0611
1469.00,0.0678
1468.00,0.0750
1467.00,0.0828
1466.00,0.0918
1465.00,0.1015
1464.00,0.1099
1463.00,0.1155
1462.00,0.1189
1461.00,0.1211
1460.00,0.1223
1459.00,0.1227
1458.00,0.1227
1457.00,0.1223
1456.00,0.1212
1455.00,0.1196
1454.00,0.1178
1453.00,0.1154
1452.00,0.1121
1451.00,0.1078
1450.00,0.1023
1449.00,0.0950
1448.00,0.0859
1447.00,0.0767
1446.00,0.0686
1445.00,0.0618
1444.00,0.0561
1443.00,0.0515
1442.00,0.0480
1441.00,0.0457
1440.00,0.0443
1439.00,0.0439
1438.00,0.0443
1437.00,0.0449
1436.00,0.0443
1435.00,0.0421
1434.00,0.0386
1433.00,0.0343
1432.00,0.0297
1431.00,0.0256
1430.00,0.0224
1429.00,0.0200
1428.00,0.0184
1427.00,0.0174
1426.00,0.0168
1425.00,0.0163
1424.00,0.0158
1423.00,0.0155
1422.00,0.0154
1421.00,0.0152
1420.00,0.0148
1419.00,0.0144
1418.00,0.0141
1417.00,0.0138
1416.00,0.0135
1415.00,0.0133
1414.00,0.0130
1413.00,0.0128
1412.00,0.0125
1411.00,0.0123
1410.00,0.0122
1409.00,0.0120
1408.00,0.0118
1407.00,0.0118
1406.00,0.0118
1405.00,0.0117
1404.00,0.0116
1403.00,0.0116
1402.00,0.0117
1401.00,0.0117
1400.00,0.0117
1399.00,0.0118
1398.00,0.0121
1397.00,0.0122
1396.00,0.0124
1395.00,0.0128
1394.00,0.0133
1393.00,0.0137
1392.00,0.0142
1391.00,0.0149
1390.00,0.0160
1389.00,0.0173
1388.00,0.0194
1387.00,0.0224
1386.00,0.0266
1385.00,0.0321
1384.00,0.0397
1383.00,0.0506
1382.00,0.0656
1381.00,0.0853
1380.00,0.1102
1379.00,0.1393
1378.00,0.1681
1377.00,0.1902
1376.00,0.1989
1375.00,0.1901
1374.00,0.1664
1373.00,0.1371
1372.00,0.1101
1371.00,0.0878
1370.00,0.0701
1369.00,0.0567
1368.00,0.0475
1367.00,0.0419
1366.00,0.0389
1365.00,0.0377
1364.00,0.0379
1363.00,0.0393
1362.00,0.0416
1361.00,0.0440
1360.00,0.0458
1359.00,0.0464
1358.00,0.0453
1357.00,0.0427
1356.00,0.0389
1355.00,0.0347
1354.00,0.0307
1353.00,0.0272
1352.00,0.0244
1351.00,0.0221
1350.00,0.0203
1349.00,0.0187
1348.00,0.0175
1347.00,0.0164
1346.00,0.0154
1345.00,0.0147
1344.00,0.0140
1343.00,0.0135
1342.00,0.0131
1341.00,0.0128
1340.00,0.0125
1339.00,0.0122
1338.00,0.0121
1337.00,0.0121
1336.00,0.0122
1335.00,0.0125
1334.00,0.0128
1333.00,0.0132
1332.00,0.0136
1331.00,0.0140
1330.00,0.0141
1329.00,0.0139
1328.00,0.0135
1327.00,0.0129
1326.00,0.0123
1325.00,0.0117
1324.00,0.0112
1323.00,0.0107
1322.00,0.0104
1321.00,0.0101
1320.00,0.0098
1319.00,0.0096
1318.00,0.0094
1317.00,0.0092
1316.00,0.0090
1315.00,0.0090
1314.00,0.0089
1313.00,0.0090
1312.00,0.0091
1311.00,0.0092
1310.00,0.0095
1309.00,0.0099
1308.00,0.0105
1307.00,0.0113
1306.00,0.0121
1305.00,0.0128
1304.00,0.0131
1303.00,0.0130
1302.00,0.0129
1301.00,0.0127
1300.00,0.0127
1299.00,0.0128
1298.00,0.0129
1297.00,0.0130
1296.00,0.0130
1295.00,0.0128
1294.00,0.0124
1293.00,0.0120
1292.00,0.0114
1291.00,0.0109
1290.00,0.0105
1289.00,0.0101
1288.00,0.0097
1287.00,0.0095
1286.00,0.0093
1285.00,0.0091
1284.00,0.0089
1283.00,0.0087
1282.00,0.0086
1281.00,0.0084
1280.00,0.0084
1279.00,0.0083
1278.00,0.0083
1277.00,0.0083
1276.00,0.0083
1275.00,0.0083
1274.00,0.0083
1273.00,0.0083
1272.00,0.0084
1271.00,0.0085
1270.00,0.0087
1269.00,0.0090
1268.00,0.0093
1267.00,0.0098
1266.00,0.0102
1265.00,0.0106
1264.00,0.0109
1263.00,0.0112
1262.00,0.0115
1261.00,0.0117
1260.00,0.0120
1259.00,0.0123
1258.00,0.0125
1257.00,0.0127
1256.00,0.0126
1255.00,0.0122
1254.00,0.0117
1253.00,0.0111
1252.00,0.0105
1251.00,0.0100
1250.00,0.0096
1249.00,0.0093
1248.00,0.0090
1247.00,0.0088
1246.00,0.0086
1245.00,0.0085
1244.00,0.0084
1243.00,0.0082
1242.00,0.0081
1241.00,0.0080
1240.00,0.0080
1239.00,0.0079
1238.00,0.0079
1237.00,0.0079
1236.00,0.0079
1235.00,0.0079
1234.00,0.0079
1233.00,0.0079
1232.00,0.0079
1231.00,0.0080
1230.00,0.0081
1229.00,0.0083
1228.00,0.0085
1227.00,0.0087
1226.00,0.0090
1225.00,0.0093
1224.00,0.0096
1223.00,0.0100
1222.00,0.0103
1221.00,0.0106
1220.00,0.0108
1219.00,0.0109
1218.00,0.0108
1217.00,0.0106
1216.00,0.0103
1215.00,0.0100
1214.00,0.0097
1213.00,0.0095
1212.00,0.0092
1211.00,0.0090
1210.00,0.0088
1209.00,0.0087
1208.00,0.0086
1207.00,0.0085
1206.00,0.0084
1205.00,0.0083
1204.00,0.0082
1203.00,0.0082
1202.00,0.0082
1201.00,0.0081
1200.00,0.0081
1199.00,0.0080
1198.00,0.0080
1197.00,0.0081
1196.00,0.0081
1195.00,0.0082
1194.00,0.0082
1193.00,0.0082
1192.00,0.0082
1191.00,0.0082
1190.00,0.0082
1189.00,0.0082
1188.00,0.0082
1187.00,0.0082
1186.00,0.0083
1185.00,0.0083
1184.00,0.0084
1183.00,0.0085
1182.00,0.0086
1181.00,0.0087
1180.00,0.0088
1179.00,0.0090
1178.00,0.0094
1177.00,0.0100
1176.00,0.0108
1175.00,0.0119
1174.00,0.0133
1173.00,0.0150
1172.00,0.0170
1171.00,0.0192
1170.00,0.0213
1169.00,0.0229
1168.00,0.0240
1167.00,0.0243
1166.00,0.0240
1165.00,0.0232
1164.00,0.0223
1163.00,0.0213
1162.00,0.0206
1161.00,0.0199
1160.00,0.0195
1159.00,0.0191
1158.00,0.0189
1157.00,0.0188
1156.00,0.0187
1155.00,0.0188
1154.00,0.0188
1153.00,0.0187
1152.00,0.0185
1151.00,0.0180
1150.00,0.0172
1149.00,0.0163
1148.00,0.0154
1147.00,0.0146
1146.00,0.0138
1145.00,0.0130
1144.00,0.0123
1143.00,0.0117
1142.00,0.0111
1141.00,0.0106
1140.00,0.0101
1139.00,0.0097
1138.00,0.0094
1137.00,0.0092
1136.00,0.0089
1135.00,0.0088
1134.00,0.0087
1133.00,0.0086
1132.00,0.0087
1131.00,0.0087
1130.00,0.0088
1129.00,0.0089
1128.00,0.0090
1127.00,0.0091
1126.00,0.0092
1125.00,0.0093
1124.00,0.0093
1123.00,0.0094
1122.00,0.0095
1121.00,0.0096
1120.00,0.0098
1119.00,0.0100
1118.00,0.0102
1117.00,0.0103
1116.00,0.0104
1115.00,0.0106
1114.00,0.0109
1113.00,0.0111
1112.00,0.0114
1111.00,0.0117
1110.00,0.0120
1109.00,0.0124
1108.00,0.0130
1107.00,0.0137
1106.00,0.0144
1105.00,0.0150
1104.00,0.0155
1103.00,0.0157
1102.00,0.0156
1101.00,0.0152
1100.00,0.0146
1099.00,0.0139
1098.00,0.0134
1097.00,0.0129
1096.00,0.0125
1095.00,0.0121
1094.00,0.0118
1093.00,0.0115
1092.00,0.0112
1091.00,0.0109
1090.00,0.0107
1089.00,0.0105
1088.00,0.0104
1087.00,0.0103
1086.00,0.0102
1085.00,0.0101
1084.00,0.0101
1083.00,0.0100
1082.00,0.0100
1081.00,0.0099
1080.00,0.0097
1079.00,0.0096
1078.00,0.0094
1077.00,0.0093
1076.00,0.0092
1075.00,0.0092
1074.00,0.0092
1073.00,0.0092
1072.00,0.0092
1071.00,0.0092
1070.00,0.0091
1069.00,0.0091
1068.00,0.0090
1067.00,0.0090
1066.00,0.0091
1065.00,0.0091
1064.00,0.0091
1063.00,0.0092
1062.00,0.0093
1061.00,0.0094
1060.00,0.0096
1059.00,0.0097
1058.00,0.0098
1057.00,0.0100
1056.00,0.0101
1055.00,0.0103
1054.00,0.0105
1053.00,0.0107
1052.00,0.0109
1051.00,0.0112
1050.00,0.0116
1049.00,0.0120
1048.00,0.0124
1047.00,0.0128
1046.00,0.0131
1045.00,0.0132
1044.00,0.0133
1043.00,0.0132
1042.00,0.0131
1041.00,0.0131
1040.00,0.0131
1039.00,0.0131
1038.00,0.0132
1037.00,0.0133
1036.00,0.0133
1035.00,0.0133
1034.00,0.0133
1033.00,0.0132
1032.00,0.0130
1031.00,0.0130
1030.00,0.0129
1029.00,0.0129
1028.00,0.0129
1027.00,0.0130
1026.00,0.0132
1025.00,0.0134
1024.00,0.0135
1023.00,0.0138
1022.00,0.0140
1021.00,0.0142
1020.00,0.0143
1019.00,0.0143
1018.00,0.0143
1017.00,0.0143
1016.00,0.0144
1015.00,0.0144
1014.00,0.0143
1013.00,0.0142
1012.00,0.0141
1011.00,0.0140
1010.00,0.0139
1009.00,0.0138
1008.00,0.0137
1007.00,0.0139
1006.00,0.0143
1005.00,0.0149
1004.00,0.0157
1003.00,0.0171
1002.00,0.0189
1001.00,0.0212
1000.00,0.0236
999.00,0.0254
998.00,0.0261
997.00,0.0255
996.00,0.0236
995.00,0.0210
994.00,0.0184
993.00,0.0161
992.00,0.0144
991.00,0.0131
990.00,0.0121
989.00,0.0115
988.00,0.0110
987.00,0.0108
986.00,0.0108
985.00,0.0110
984.00,0.0114
983.00,0.0121
982.00,0.0130
981.00,0.0142
980.00,0.0158
979.00,0.0181
978.00,0.0209
977.00,0.0242
976.00,0.0275
975.00,0.0305
974.00,0.0323
973.00,0.0326
972.00,0.0311
971.00,0.0282
970.00,0.0246
969.00,0.0210
968.00,0.0179
967.00,0.0155
966.00,0.0137
965.00,0.0126
964.00,0.0117
963.00,0.0111
962.00,0.0105
961.00,0.0101
960.00,0.0097
959.00,0.0094
958.00,0.0091
957.00,0.0089
956.00,0.0087
955.00,0.0086
954.00,0.0084
953.00,0.0083
952.00,0.0082
951.00,0.0081
950.00,0.0081
949.00,0.0080
948.00,0.0080
947.00,0.0081
946.00,0.0082
945.00,0.0084
944.00,0.0087
943.00,0.0091
942.00,0.0096
941.00,0.0099
940.00,0.0100
939.00,0.0098
938.00,0.0093
937.00,0.0088
936.00,0.0082
935.00,0.0077
934.00,0.0074
933.00,0.0071
932.00,0.0069
931.00,0.0068
930.00,0.0067
929.00,0.0066
928.00,0.0066
927.00,0.0065
926.00,0.0065
925.00,0.0064
924.00,0.0063
923.00,0.0063
922.00,0.0063
921.00,0.0064
920.00,0.0065
919.00,0.0066
918.00,0.0066
917.00,0.0067
916.00,0.0067
915.00,0.0068
914.00,0.0069
913.00,0.0070
912.00,0.0071
911.00,0.0073
910.00,0.0075
909.00,0.0078
908.00,0.0082
907.00,0.0088
906.00,0.0095
905.00,0.0106
904.00,0.0120
903.00,0.0139
902.00,0.0159
901.00,0.0178
900.00,0.0191
899.00,0.0193
898.00,0.0185
897.00,0.0169
896.00,0.0148
895.00,0.0128
894.00,0.0112
893.00,0.0100
892.00,0.0093
891.00,0.0088
890.00,0.0084
889.00,0.0082
888.00,0.0081
887.00,0.0080
886.00,0.0079
885.00,0.0077
884.00,0.0076
883.00,0.0075
882.00,0.0074
881.00,0.0075
880.00,0.0076
879.00,0.0078
878.00,0.0080
877.00,0.0081
876.00,0.0083
875.00,0.0084
874.00,0.0084
873.00,0.0083
872.00,0.0082
871.00,0.0081
870.00,0.0080
869.00,0.0080
868.00,0.0080
867.00,0.0080
866.00,0.0081
865.00,0.0082
864.00,0.0083
863.00,0.0083
862.00,0.0082
861.00,0.0083
860.00,0.0084
859.00,0.0086
858.00,0.0088
857.00,0.0089
856.00,0.0089
855.00,0.0089
854.00,0.0089
853.00,0.0090
852.00,0.0092
851.00,0.0095
850.00,0.0099
849.00,0.0104
848.00,0.0110
847.00,0.0119
846.00,0.0133
845.00,0.0153
844.00,0.0181
843.00,0.0211
842.00,0.0235
841.00,0.0241
840.00,0.0226
839.00,0.0196
838.00,0.0166
837.00,0.0143
836.00,0.0129
835.00,0.0121
834.00,0.0116
833.00,0.0112
832.00,0.0110
831.00,0.0109
830.00,0.0109
829.00,0.0107
828.00,0.0106
827.00,0.0105
826.00,0.0105
825.00,0.0106
824.00,0.0107
823.00,0.0108
822.00,0.0110
821.00,0.0112
820.00,0.0116
819.00,0.0122
818.00,0.0128
817.00,0.0135
816.00,0.0144
815.00,0.0155
814.00,0.0171
813.00,0.0191
812.00,0.0212
811.00,0.0232
810.00,0.0246
809.00,0.0252
808.00,0.0248
807.00,0.0234
806.00,0.0215
805.00,0.0195
804.00,0.0177
803.00,0.0163
802.00,0.0152
801.00,0.0143
800.00,0.0136
799.00,0.0130
798.00,0.0126
797.00,0.0122
796.00,0.0118
795.00,0.0115
794.00,0.0111
793.00,0.0106
792.00,0.0102
791.00,0.0099
790.00,0.0096
789.00,0.0093
788.00,0.0090
787.00,0.0087
786.00,0.0083
785.00,0.0080
784.00,0.0077
783.00,0.0075
782.00,0.0072
781.00,0.0070
780.00,0.0069
779.00,0.0069
778.00,0.0069
777.00,0.0070
776.00,0.0071
775.00,0.0071
774.00,0.0072
773.00,0.0072
772.00,0.0073
771.00,0.0074
770.00,0.0074
769.00,0.0074
768.00,0.0074
767.00,0.0075
766.00,0.0075
765.00,0.0075
764.00,0.0073
763.00,0.0071
762.00,0.0069
761.00,0.0070
760.00,0.0072
759.00,0.0074
758.00,0.0076
757.00,0.0077
756.00,0.0078
755.00,0.0078
754.00,0.0079
753.00,0.0079
752.00,0.0080
751.00,0.0081
750.00,0.0082
749.00,0.0083
748.00,0.0084
747.00,0.0086
746.00,0.0087
745.00,0.0089
744.00,0.0091
743.00,0.0094
742.00,0.0098
741.00,0.0101
740.00,0.0103
739.00,0.0106
738.00,0.0110
737.00,0.0114
736.00,0.0118
735.00,0.0124
734.00,0.0130
733.00,0.0137
732.00,0.0145
731.00,0.0154
730.00,0.0161
729.00,0.0167
728.00,0.0170
727.00,0.0171
726.00,0.0171
725.00,0.0173
724.00,0.0176
723.00,0.0182
722.00,0.0188
721.00,0.0192
720.00,0.0190
719.00,0.0183
718.00,0.0171
717.00,0.0158
716.00,0.0146
715.00,0.0137
714.00,0.0130
713.00,0.0125
712.00,0.0120
711.00,0.0117
710.00,0.0115
709.00,0.0114
708.00,0.0113
707.00,0.0114
706.00,0.0114
705.00,0.0114
704.00,0.0112
703.00,0.0110
702.00,0.0108
701.00,0.0107
700.00,0.0106
699.00,0.0105
698.00,0.0103
697.00,0.0100
696.00,0.0098
695.00,0.0097
694.00,0.0099
693.00,0.0100
692.00,0.0102
691.00,0.0102
690.00,0.0101
689.00,0.0100
688.00,0.0100
687.00,0.0099
686.00,0.0098
685.00,0.0097
684.00,0.0096
683.00,0.0096
682.00,0.0097
681.00,0.0098
680.00,0.0100
679.00,0.0104
678.00,0.0107
677.00,0.0109
676.00,0.0109
675.00,0.0108
674.00,0.0109
673.00,0.0110
672.00,0.0110
671.00,0.0111
670.00,0.0112
669.00,0.0113
668.00,0.0114
667.00,0.0114
666.00,0.0112
665.00,0.0109
664.00,0.0107
663.00,0.0105
662.00,0.0103
661.00,0.0101
660.00,0.0099
659.00,0.0098
658.00,0.0098
657.00,0.0096
656.00,0.0095
655.00,0.0094
654.00,0.0093
653.00,0.0094
652.00,0.0096
651.00,0.0099
650.00,0.0102
649.00,0.0103
648.00,0.0101
647.00,0.0098
646.00,0.0094
645.00,0.0092
644.00,0.0090
643.00,0.0091
642.00,0.0092
641.00,0.0092
640.00,0.0092
639.00,0.0093
638.00,0.0093
637.00,0.0094
636.00,0.0093
635.00,0.0092
634.00,0.0092
633.00,0.0093
632.00,0.0092
631.00,0.0091
630.00,0.0090
629.00,0.0088
628.00,0.0088
627.00,0.0088
626.00,0.0089
625.00,0.0089
624.00,0.0088
623.00,0.0086
622.00,0.0084
621.00,0.0084
620.00,0.0084
619.00,0.0085
618.00,0.0085
617.00,0.0086
616.00,0.0088
615.00,0.0091
614.00,0.0093
613.00,0.0093
612.00,0.0091
611.00,0.0089
610.00,0.0089
609.00,0.0089
608.00,0.0088
607.00,0.0086
606.00,0.0087
605.00,0.0088
604.00,0.0090
603.00,0.0090
602.00,0.0088
601.00,0.0086
600.00,0.0085
599.00,0.0087
598.00,0.0090
597.00,0.0091
596.00,0.0091
595.00,0.0089
594.00,0.0088
593.00,0.0087
592.00,0.0087
591.00,0.0085
590.00,0.0082
589.00,0.0081
588.00,0.0080
587.00,0.0080
586.00,0.0081
585.00,0.0082
584.00,0.0083
583.00,0.0083
582.00,0.0083
581.00,0.0083
580.00,0.0082
579.00,0.0080
578.00,0.0078
577.00,0.0077
576.00,0.0080
575.00,0.0085
574.00,0.0088
573.00,0.0088
572.00,0.0086
571.00,0.0086
570.00,0.0088
569.00,0.0091
568.00,0.0091
567.00,0.0087
566.00,0.0082
565.00,0.0078
564.00,0.0079
563.00,0.0084
562.00,0.0090
561.00,0.0093
560.00,0.0092
559.00,0.0091
558.00,0.0091
557.00,0.0091
556.00,0.0089
555.00,0.0087
554.00,0.0084
553.00,0.0082
552.00,0.0080
551.00,0.0079
550.00,0.0081
549.00,0.0085
548.00,0.0089
547.00,0.0093
546.00,0.0096
545.00,0.0097
544.00,0.0099
543.00,0.0102
542.00,0.0106
541.00,0.0109
540.00,0.0110
539.00,0.0110
538.00,0.0108
537.00,0.0106
536.00,0.0105
535.00,0.0103
534.00,0.0103
533.00,0.0105
532.00,0.0108
531.00,0.0110
530.00,0.0112
529.00,0.0114
528.00,0.0115
527.00,0.0115
526.00,0.0113
525.00,0.0112
524.00,0.0111
523.00,0.0110
522.00,0.0108
521.00,0.0105
520.00,0.0101
519.00,0.0099
518.00,0.0098
517.00,0.0097
516.00,0.0096
515.00,0.0093
514.00,0.0088
513.00,0.0085
512.00,0.0084
511.00,0.0086
510.00,0.0090
509.00,0.0094
508.00,0.0099
507.00,0.0106
506.00,0.0112
505.00,0.0114
504.00,0.0107
503.00,0.0094
502.00,0.0081
501.00,0.0076
500.00,0.0079
499.00,0.0086
498.00,0.0093
497.00,0.0098
496.00,0.0098
495.00,0.0094
494.00,0.0087
493.00,0.0081
492.00,0.0078
491.00,0.0079
490.00,0.0083
489.00,0.0090
488.00,0.0100
487.00,0.0108
486.00,0.0109
485.00,0.0101
484.00,0.0089
483.00,0.0084
482.00,0.0088
481.00,0.0098
480.00,0.0111
479.00,0.0121
478.00,0.0126
477.00,0.0127
476.00,0.0126
475.00,0.0127
474.00,0.0132
473.00,0.0139
472.00,0.0143
471.00,0.0143
470.00,0.0141
469.00,0.0141
468.00,0.0150
467.00,0.0166
466.00,0.0184
465.00,0.0196
464.00,0.0202
463.00,0.0204
462.00,0.0205
461.00,0.0205
460.00,0.0201
459.00,0.0194
458.00,0.0186
457.00,0.0181
456.00,0.0182
455.00,0.0186
454.00,0.0190
453.00,0.0186
452.00,0.0172
451.00,0.0155
450.00,0.0144
