Created as New Dataset,Sample 004 By Administrator Date Thursday, September 04 2025
cm-1,A
4000.00,0.0008
3999.00,0.0008
3998.00,0.0008
3997.00,0.0008
3996.00,0.0008
3995.00,0.0008
3994.00,0.0008
3993.00,0.0008
3992.00,0.0008
3991.00,0.0008
3990.00,0.0008
3989.00,0.0008
3988.00,0.0008
3987.00,0.0008
3986.00,0.0008
3985.00,0.0008
3984.00,0.0008
3983.00,0.0008
3982.00,0.0008
3981.00,0.0008
3980.00,0.0008
3979.00,0.0008
3978.00,0.0008
3977.00,0.0008
3976.00,0.0008
3975.00,0.0008
3974.00,0.0008
3973.00,0.0007
3972.00,0.0007
3971.00,0.0007
3970.00,0.0007
3969.00,0.0007
3968.00,0.0007
3967.00,0.0007
3966.00,0.0007
3965.00,0.0007
3964.00,0.0007
3963.00,0.0007
3962.00,0.0007
3961.00,0.0007
3960.00,0.0007
3959.00,0.0007
3958.00,0.0007
3957.00,0.0007
3956.00,0.0007
3955.00,0.0007
3954.00,0.0007
3953.00,0.0007
3952.00,0.0007
3951.00,0.0007
3950.00,0.0007
3949.00,0.0007
3948.00,0.0007
3947.00,0.0007
3946.00,0.0006
3945.00,0.0006
3944.00,0.0006
3943.00,0.0006
3942.00,0.0007
3941.00,0.0007
3940.00,0.0007
3939.00,0.0007
3938.00,0.0007
3937.00,0.0007
3936.00,0.0007
3935.00,0.0007
3934.00,0.0007
3933.00,0.0007
3932.00,0.0007
3931.00,0.0007
3930.00,0.0007
3929.00,0.0006
3928.00,0.0006
3927.00,0.0007
3926.00,0.0007
3925.00,0.0007
3924.00,0.0007
3923.00,0.0007
3922.00,0.0007
3921.00,0.0007
3920.00,0.0007
3919.00,0.0007
3918.00,0.0007
3917.00,0.0006
3916.00,0.0006
3915.00,0.0007
3914.00,0.0007
3913.00,0.0007
3912.00,0.0007
3911.00,0.0007
3910.00,0.0007
3909.00,0.0007
3908.00,0.0007
3907.00,0.0006
3906.00,0.0005
3905.00,0.0005
3904.00,0.0005
3903.00,0.0005
3902.00,0.0005
3901.00,0.0005
3900.00,0.0006
3899.00,0.0006
3898.00,0.0007
3897.00,0.0007
3896.00,0.0007
3895.00,0.0007
3894.00,0.0007
3893.00,0.0007
3892.00,0.0007
3891.00,0.0007
3890.00,0.0006
3889.00,0.0006
3888.00,0.0006
3887.00,0.0005
3886.00,0.0005
3885.00,0.0005
3884.00,0.0005
3883.00,0.0005
3882.00,0.0006
3881.00,0.0006
3880.00,0.0006
3879.00,0.0006
3878.00,0.0006
3877.00,0.0007
3876.00,0.0007
3875.00,0.0007
3874.00,0.0006
3873.00,0.0006
3872.00,0.0005
3871.00,0.0005
3870.00,0.0006
3869.00,0.0006
3868.00,0.0006
3867.00,0.0006
3866.00,0.0006
3865.00,0.0006
3864.00,0.0006
3863.00,0.0006
3862.00,0.0006
3861.00,0.0006
3860.00,0.0006
3859.00,0.0006
3858.00,0.0006
3857.00,0.0006
3856.00,0.0005
3855.00,0.0005
3854.00,0.0004
3853.00,0.0004
3852.00,0.0004
3851.00,0.0004
3850.00,0.0005
3849.00,0.0005
3848.00,0.0006
3847.00,0.0006
3846.00,0.0006
3845.00,0.0006
3844.00,0.0006
3843.00,0.0005
3842.00,0.0005
3841.00,0.0005
3840.00,0.0005
3839.00,0.0005
3838.00,0.0005
3837.00,0.0005
3836.00,0.0005
3835.00,0.0005
3834.00,0.0005
3833.00,0.0005
3832.00,0.0005
3831.00,0.0005
3830.00,0.0005
3829.00,0.0005
3828.00,0.0005
3827.00,0.0005
3826.00,0.0005
3825.00,0.0005
3824.00,0.0005
3823.00,0.0004
3822.00,0.0005
3821.00,0.0005
3820.00,0.0005
3819.00,0.0005
3818.00,0.0005
3817.00,0.0005
3816.00,0.0005
3815.00,0.0006
3814.00,0.0006
3813.00,0.0006
3812.00,0.0006
3811.00,0.0006
3810.00,0.0006
3809.00,0.0006
3808.00,0.0006
3807.00,0.0006
3806.00,0.0005
3805.00,0.0005
3804.00,0.0004
3803.00,0.0004
3802.00,0.0004
3801.00,0.0004
3800.00,0.0004
3799.00,0.0004
3798.00,0.0005
3797.00,0.0005
3796.00,0.0005
3795.00,0.0006
3794.00,0.0006
3793.00,0.0006
3792.00,0.0006
3791.00,0.0006
3790.00,0.0006
3789.00,0.0006
3788.00,0.0006
3787.00,0.0007
3786.00,0.0007
3785.00,0.0007
3784.00,0.0006
3783.00,0.0006
3782.00,0.0006
3781.00,0.0006
3780.00,0.0006
3779.00,0.0006
3778.00,0.0006
3777.00,0.0006
3776.00,0.0006
3775.00,0.0006
3774.00,0.0006
3773.00,0.0006
3772.00,0.0006
3771.00,0.0006
3770.00,0.0006
3769.00,0.0006
3768.00,0.0006
3767.00,0.0006
3766.00,0.0006
3765.00,0.0007
3764.00,0.0007
3763.00,0.0007
3762.00,0.0006
3761.00,0.0006
3760.00,0.0006
3759.00,0.0005
3758.00,0.0005
3757.00,0.0005
3756.00,0.0006
3755.00,0.0006
3754.00,0.0006
3753.00,0.0005
3752.00,0.0005
3751.00,0.0004
3750.00,0.0004
3749.00,0.0004
3748.00,0.0004
3747.00,0.0004
3746.00,0.0005
3745.00,0.0005
3744.00,0.0005
3743.00,0.0004
3742.00,0.0004
3741.00,0.0004
3740.00,0.0004
3739.00,0.0004
3738.00,0.0004
3737.00,0.0003
3736.00,0.0003
3735.00,0.0003
3734.00,0.0003
3733.00,0.0003
3732.00,0.0004
3731.00,0.0004
3730.00,0.0004
3729.00,0.0004
3728.00,0.0004
3727.00,0.0005
3726.00,0.0004
3725.00,0.0004
3724.00,0.0004
3723.00,0.0004
3722.00,0.0005
3721.00,0.0005
3720.00,0.0005
3719.00,0.0005
3718.00,0.0005
3717.00,0.0005
3716.00,0.0006
3715.00,0.0006
3714.00,0.0005
3713.00,0.0005
3712.00,0.0005
3711.00,0.0005
3710.00,0.0005
3709.00,0.0004
3708.00,0.0004
3707.00,0.0004
3706.00,0.0004
3705.00,0.0004
3704.00,0.0004
3703.00,0.0005
3702.00,0.0005
3701.00,0.0005
3700.00,0.0005
3699.00,0.0004
3698.00,0.0004
3697.00,0.0004
3696.00,0.0004
3695.00,0.0004
3694.00,0.0004
3693.00,0.0003
3692.00,0.0003
3691.00,0.0003
3690.00,0.0004
3689.00,0.0004
3688.00,0.0004
3687.00,0.0005
3686.00,0.0005
3685.00,0.0005
3684.00,0.0005
3683.00,0.0005
3682.00,0.0005
3681.00,0.0004
3680.00,0.0004
3679.00,0.0004
3678.00,0.0004
3677.00,0.0004
3676.00,0.0003
3675.00,0.0003
3674.00,0.0003
3673.00,0.0003
3672.00,0.0003
3671.00,0.0003
3670.00,0.0003
3669.00,0.0004
3668.00,0.0005
3667.00,0.0005
3666.00,0.0006
3665.00,0.0006
3664.00,0.0006
3663.00,0.0006
3662.00,0.0006
3661.00,0.0005
3660.00,0.0005
3659.00,0.0005
3658.00,0.0005
3657.00,0.0005
3656.00,0.0005
3655.00,0.0005
3654.00,0.0005
3653.00,0.0005
3652.00,0.0005
3651.00,0.0005
3650.00,0.0005
3649.00,0.0005
3648.00,0.0005
3647.00,0.0005
3646.00,0.0005
3645.00,0.0006
3644.00,0.0006
3643.00,0.0006
3642.00,0.0006
3641.00,0.0006
3640.00,0.0006
3639.00,0.0006
3638.00,0.0006
3637.00,0.0005
3636.00,0.0005
3635.00,0.0005
3634.00,0.0005
3633.00,0.0005
3632.00,0.0005
3631.00,0.0005
3630.00,0.0005
3629.00,0.0005
3628.00,0.0005
3627.00,0.0004
3626.00,0.0004
3625.00,0.0004
3624.00,0.0005
3623.00,0.0005
3622.00,0.0005
3621.00,0.0005
3620.00,0.0005
3619.00,0.0005
3618.00,0.0005
3617.00,0.0005
3616.00,0.0004
3615.00,0.0004
3614.00,0.0004
3613.00,0.0004
3612.00,0.0004
3611.00,0.0004
3610.00,0.0005
3609.00,0.0006
3608.00,0.0006
3607.00,0.0007
3606.00,0.0007
3605.00,0.0006
3604.00,0.0006
3603.00,0.0006
3602.00,0.0006
3601.00,0.0006
3600.00,0.0006
3599.00,0.0006
3598.00,0.0006
3597.00,0.0006
3596.00,0.0006
3595.00,0.0007
3594.00,0.0007
3593.00,0.0007
3592.00,0.0007
3591.00,0.0006
3590.00,0.0006
3589.00,0.0007
3588.00,0.0007
3587.00,0.0008
3586.00,0.0008
3585.00,0.0008
3584.00,0.0009
3583.00,0.0009
3582.00,0.0009
3581.00,0.0008
3580.00,0.0008
3579.00,0.0008
3578.00,0.0008
3577.00,0.0008
3576.00,0.0007
3575.00,0.0008
3574.00,0.0008
3573.00,0.0008
3572.00,0.0009
3571.00,0.0009
3570.00,0.0009
3569.00,0.0010
3568.00,0.0010
3567.00,0.0010
3566.00,0.0010
3565.00,0.0010
3564.00,0.0010
3563.00,0.0010
3562.00,0.0010
3561.00,0.0011
3560.00,0.0011
3559.00,0.0012
3558.00,0.0012
3557.00,0.0012
3556.00,0.0013
3555.00,0.0013
3554.00,0.0013
3553.00,0.0013
3552.00,0.0013
3551.00,0.0013
3550.00,0.0013
3549.00,0.0013
3548.00,0.0013
3547.00,0.0014
3546.00,0.0014
3545.00,0.0014
3544.00,0.0015
3543.00,0.0015
3542.00,0.0015
3541.00,0.0015
3540.00,0.0015
3539.00,0.0015
3538.00,0.0015
3537.00,0.0016
3536.00,0.0016
3535.00,0.0016
3534.00,0.0016
3533.00,0.0016
3532.00,0.0016
3531.00,0.0016
3530.00,0.0016
3529.00,0.0016
3528.00,0.0017
3527.00,0.0017
3526.00,0.0017
3525.00,0.0017
3524.00,0.0017
3523.00,0.0017
3522.00,0.0017
3521.00,0.0018
3520.00,0.0018
3519.00,0.0019
3518.00,0.0019
3517.00,0.0019
3516.00,0.0020
3515.00,0.0020
3514.00,0.0020
3513.00,0.0020
3512.00,0.0020
3511.00,0.0021
3510.00,0.0021
3509.00,0.0021
3508.00,0.0022
3507.00,0.0022
3506.00,0.0022
3505.00,0.0022
3504.00,0.0022
3503.00,0.0022
3502.00,0.0023
3501.00,0.0023
3500.00,0.0023
3499.00,0.0023
3498.00,0.0023
3497.00,0.0023
3496.00,0.0023
3495.00,0.0023
3494.00,0.0024
3493.00,0.0024
3492.00,0.0024
3491.00,0.0025
3490.00,0.0025
3489.00,0.0025
3488.00,0.0025
3487.00,0.0025
3486.00,0.0026
3485.00,0.0026
3484.00,0.0026
3483.00,0.0026
3482.00,0.0026
3481.00,0.0027
3480.00,0.0027
3479.00,0.0027
3478.00,0.0027
3477.00,0.0027
3476.00,0.0027
3475.00,0.0027
3474.00,0.0027
3473.00,0.0027
3472.00,0.0027
3471.00,0.0027
3470.00,0.0027
3469.00,0.0028
3468.00,0.0029
3467.00,0.0029
3466.00,0.0030
3465.00,0.0030
3464.00,0.0030
3463.00,0.0030
3462.00,0.0030
3461.00,0.0030
3460.00,0.0030
3459.00,0.0030
3458.00,0.0030
3457.00,0.0030
3456.00,0.0030
3455.00,0.0030
3454.00,0.0030
3453.00,0.0031
3452.00,0.0031
3451.00,0.0031
3450.00,0.0032
3449.00,0.0032
3448.00,0.0032
3447.00,0.0032
3446.00,0.0033
3445.00,0.0033
3444.00,0.0033
3443.00,0.0033
3442.00,0.0033
3441.00,0.0034
3440.00,0.0034
3439.00,0.0034
3438.00,0.0034
3437.00,0.0034
3436.00,0.0034
3435.00,0.0034
3434.00,0.0034
3433.00,0.0034
3432.00,0.0035
3431.00,0.0035
3430.00,0.0035
3429.00,0.0036
3428.00,0.0036
3427.00,0.0036
3426.00,0.0037
3425.00,0.0037
3424.00,0.0036
3423.00,0.0037
3422.00,0.0037
3421.00,0.0037
3420.00,0.0037
3419.00,0.0038
3418.00,0.0038
3417.00,0.0037
3416.00,0.0037
3415.00,0.0037
3414.00,0.0037
3413.00,0.0038
3412.00,0.0038
3411.00,0.0038
3410.00,0.0039
3409.00,0.0039
3408.00,0.0039
3407.00,0.0039
3406.00,0.0040
3405.00,0.0040
3404.00,0.0041
3403.00,0.0041
3402.00,0.0041
3401.00,0.0041
3400.00,0.0041
3399.00,0.0041
3398.00,0.0041
3397.00,0.0042
3396.00,0.0042
3395.00,0.0042
3394.00,0.0043
3393.00,0.0043
3392.00,0.0043
3391.00,0.0042
3390.00,0.0041
3389.00,0.0041
3388.00,0.0040
3387.00,0.0040
3386.00,0.0040
3385.00,0.0040
3384.00,0.0040
3383.00,0.0040
3382.00,0.0040
3381.00,0.0040
3380.00,0.0040
3379.00,0.0040
3378.00,0.0040
3377.00,0.0040
3376.00,0.0040
3375.00,0.0040
3374.00,0.0040
3373.00,0.0040
3372.00,0.0040
3371.00,0.0040
3370.00,0.0040
3369.00,0.0040
3368.00,0.0040
3367.00,0.0040
3366.00,0.0040
3365.00,0.0040
3364.00,0.0040
3363.00,0.0040
3362.00,0.0040
3361.00,0.0040
3360.00,0.0040
3359.00,0.0040
3358.00,0.0040
3357.00,0.0040
3356.00,0.0040
3355.00,0.0040
3354.00,0.0040
3353.00,0.0040
3352.00,0.0040
3351.00,0.0040
3350.00,0.0040
3349.00,0.0040
3348.00,0.0040
3347.00,0.0039
3346.00,0.0039
3345.00,0.0039
3344.00,0.0039
3343.00,0.0039
3342.00,0.0039
3341.00,0.0040
3340.00,0.0039
3339.00,0.0039
3338.00,0.0039
3337.00,0.0039
3336.00,0.0038
3335.00,0.0038
3334.00,0.0038
3333.00,0.0038
3332.00,0.0038
3331.00,0.0038
3330.00,0.0039
3329.00,0.0039
3328.00,0.0038
3327.00,0.0038
3326.00,0.0037
3325.00,0.0037
3324.00,0.0037
3323.00,0.0037
3322.00,0.0037
3321.00,0.0037
3320.00,0.0037
3319.00,0.0036
3318.00,0.0036
3317.00,0.0036
3316.00,0.0037
3315.00,0.0037
3314.00,0.0037
3313.00,0.0037
3312.00,0.0037
3311.00,0.0037
3310.00,0.0037
3309.00,0.0037
3308.00,0.0037
3307.00,0.0037
3306.00,0.0037
3305.00,0.0038
3304.00,0.0038
3303.00,0.0038
3302.00,0.0039
3301.00,0.0039
3300.00,0.0039
3299.00,0.0038
3298.00,0.0037
3297.00,0.0037
3296.00,0.0036
3295.00,0.0036
3294.00,0.0036
3293.00,0.0036
3292.00,0.0035
3291.00,0.0035
3290.00,0.0035
3289.00,0.0035
3288.00,0.0035
3287.00,0.0035
3286.00,0.0035
3285.00,0.0035
3284.00,0.0035
3283.00,0.0035
3282.00,0.0034
3281.00,0.0034
3280.00,0.0033
3279.00,0.0033
3278.00,0.0033
3277.00,0.0033
3276.00,0.0033
3275.00,0.0033
3274.00,0.0033
3273.00,0.0034
3272.00,0.0034
3271.00,0.0033
3270.00,0.0033
3269.00,0.0033
3268.00,0.0032
3267.00,0.0032
3266.00,0.0032
3265.00,0.0032
3264.00,0.0032
3263.00,0.0033
3262.00,0.0033
3261.00,0.0033
3260.00,0.0033
3259.00,0.0032
3258.00,0.0031
3257.00,0.0031
3256.00,0.0030
3255.00,0.0030
3254.00,0.0031
3253.00,0.0031
3252.00,0.0030
3251.00,0.0030
3250.00,0.0030
3249.00,0.0030
3248.00,0.0030
3247.00,0.0030
3246.00,0.0030
3245.00,0.0030
3244.00,0.0029
3243.00,0.0029
3242.00,0.0029
3241.00,0.0029
3240.00,0.0030
3239.00,0.0030
3238.00,0.0030
3237.00,0.0030
3236.00,0.0030
3235.00,0.0031
3234.00,0.0031
3233.00,0.0031
3232.00,0.0031
3231.00,0.0031
3230.00,0.0031
3229.00,0.0032
3228.00,0.0032
3227.00,0.0032
3226.00,0.0032
3225.00,0.0032
3224.00,0.0032
3223.00,0.0032
3222.00,0.0032
3221.00,0.0032
3220.00,0.0033
3219.00,0.0033
3218.00,0.0033
3217.00,0.0034
3216.00,0.0034
3215.00,0.0034
3214.00,0.0034
3213.00,0.0034
3212.00,0.0035
3211.00,0.0035
3210.00,0.0035
3209.00,0.0035
3208.00,0.0035
3207.00,0.0035
3206.00,0.0036
3205.00,0.0036
3204.00,0.0036
3203.00,0.0036
3202.00,0.0036
3201.00,0.0036
3200.00,0.0036
3199.00,0.0036
3198.00,0.0037
3197.00,0.0037
3196.00,0.0036
3195.00,0.0036
3194.00,0.0036
3193.00,0.0036
3192.00,0.0036
3191.00,0.0036
3190.00,0.0036
3189.00,0.0037
3188.00,0.0037
3187.00,0.0037
3186.00,0.0037
3185.00,0.0037
3184.00,0.0036
3183.00,0.0036
3182.00,0.0036
3181.00,0.0036
3180.00,0.0036
3179.00,0.0036
3178.00,0.0035
3177.00,0.0035
3176.00,0.0035
3175.00,0.0035
3174.00,0.0035
3173.00,0.0034
3172.00,0.0034
3171.00,0.0034
3170.00,0.0033
3169.00,0.0033
3168.00,0.0033
3167.00,0.0032
3166.00,0.0032
3165.00,0.0032
3164.00,0.0032
3163.00,0.0032
3162.00,0.0032
3161.00,0.0032
3160.00,0.0032
3159.00,0.0031
3158.00,0.0031
3157.00,0.0031
3156.00,0.0031
3155.00,0.0032
3154.00,0.0032
3153.00,0.0032
3152.00,0.0031
3151.00,0.0031
3150.00,0.0031
3149.00,0.0031
3148.00,0.0031
3147.00,0.0031
3146.00,0.0031
3145.00,0.0031
3144.00,0.0031
3143.00,0.0031
3142.00,0.0031
3141.00,0.0031
3140.00,0.0030
3139.00,0.0030
3138.00,0.0030
3137.00,0.0030
3136.00,0.0030
3135.00,0.0030
3134.00,0.0030
3133.00,0.0029
3132.00,0.0029
3131.00,0.0029
3130.00,0.0029
3129.00,0.0029
3128.00,0.0029
3127.00,0.0028
3126.00,0.0028
3125.00,0.0028
3124.00,0.0027
3123.00,0.0027
3122.00,0.0027
3121.00,0.0027
3120.00,0.0026
3119.00,0.0026
3118.00,0.0026
3117.00,0.0026
3116.00,0.0026
3115.00,0.0026
3114.00,0.0025
3113.00,0.0025
3112.00,0.0025
3111.00,0.0025
3110.00,0.0026
3109.00,0.0026
3108.00,0.0026
3107.00,0.0025
3106.00,0.0025
3105.00,0.0025
3104.00,0.0025
3103.00,0.0025
3102.00,0.0024
3101.00,0.0024
3100.00,0.0024
3099.00,0.0024
3098.00,0.0024
3097.00,0.0024
3096.00,0.0024
3095.00,0.0025
3094.00,0.0024
3093.00,0.0024
3092.00,0.0024
3091.00,0.0024
3090.00,0.0024
3089.00,0.0024
3088.00,0.0024
3087.00,0.0024
3086.00,0.0024
3085.00,0.0025
3084.00,0.0025
3083.00,0.0024
3082.00,0.0024
3081.00,0.0024
3080.00,0.0024
3079.00,0.0024
3078.00,0.0025
3077.00,0.0025
3076.00,0.0025
3075.00,0.0025
3074.00,0.0025
3073.00,0.0025
3072.00,0.0026
3071.00,0.0026
3070.00,0.0026
3069.00,0.0025
3068.00,0.0025
3067.00,0.0025
3066.00,0.0026
3065.00,0.0026
3064.00,0.0027
3063.00,0.0027
3062.00,0.0027
3061.00,0.0028
3060.00,0.0028
3059.00,0.0028
3058.00,0.0028
3057.00,0.0028
3056.00,0.0029
3055.00,0.0029
3054.00,0.0029
3053.00,0.0029
3052.00,0.0029
3051.00,0.0029
3050.00,0.0030
3049.00,0.0030
3048.00,0.0030
3047.00,0.0030
3046.00,0.0030
3045.00,0.0030
3044.00,0.0030
3043.00,0.0030
3042.00,0.0031
3041.00,0.0031
3040.00,0.0032
3039.00,0.0032
3038.00,0.0032
3037.00,0.0032
3036.00,0.0033
3035.00,0.0033
3034.00,0.0034
3033.00,0.0034
3032.00,0.0035
3031.00,0.0036
3030.00,0.0036
3029.00,0.0036
3028.00,0.0036
3027.00,0.0036
3026.00,0.0037
3025.00,0.0038
3024.00,0.0038
3023.00,0.0039
3022.00,0.0040
3021.00,0.0041
3020.00,0.0043
3019.00,0.0044
3018.00,0.0045
3017.00,0.0046
3016.00,0.0047
3015.00,0.0047
3014.00,0.0049
3013.00,0.0050
3012.00,0.0052
3011.00,0.0053
3010.00,0.0055
3009.00,0.0056
3008.00,0.0059
3007.00,0.0061
3006.00,0.0063
3005.00,0.0066
3004.00,0.0068
3003.00,0.0070
3002.00,0.0072
3001.00,0.0075
3000.00,0.0078
2999.00,0.0082
2998.00,0.0085
2997.00,0.0089
2996.00,0.0093
2995.00,0.0097
2994.00,0.0101
2993.00,0.0106
2992.00,0.0112
2991.00,0.0118
2990.00,0.0125
2989.00,0.0132
2988.00,0.0140
2987.00,0.0150
2986.00,0.0160
2985.00,0.0172
2984.00,0.0185
2983.00,0.0200
2982.00,0.0217
2981.00,0.0235
2980.00,0.0255
2979.00,0.0276
2978.00,0.0302
2977.00,0.0331
2976.00,0.0365
2975.00,0.0405
2974.00,0.0450
2973.00,0.0502
2972.00,0.0561
2971.00,0.0627
2970.00,0.0701
2969.00,0.0784
2968.00,0.0874
2967.00,0.0972
2966.00,0.1077
2965.00,0.1186
2964.00,0.1297
2963.00,0.1403
2962.00,0.1499
2961.00,0.1578
2960.00,0.1640
2959.00,0.1684
2958.00,0.1716
2957.00,0.1741
2956.00,0.1767
2955.00,0.1798
2954.00,0.1835
2953.00,0.1874
2952.00,0.1906
2951.00,0.1920
2950.00,0.1907
2949.00,0.1861
2948.00,0.1783
2947.00,0.1677
2946.00,0.1555
2945.00,0.1431
2944.00,0.1314
2943.00,0.1215
2942.00,0.1139
2941.00,0.1087
2940.00,0.1058
2939.00,0.1050
2938.00,0.1061
2937.00,0.1089
2936.00,0.1132
2935.00,0.1190
2934.00,0.1260
2933.00,0.1342
2932.00,0.1434
2931.00,0.1534
2930.00,0.1639
2929.00,0.1747
2928.00,0.1854
2927.00,0.1957
2926.00,0.2056
2925.00,0.2150
2924.00,0.2240
2923.00,0.2327
2922.00,0.2411
2921.00,0.2488
2920.00,0.2553
2919.00,0.2599
2918.00,0.2617
2917.00,0.2603
2916.00,0.2558
2915.00,0.2488
2914.00,0.2402
2913.00,0.2312
2912.00,0.2225
2911.00,0.2147
2910.00,0.2078
2909.00,0.2017
2908.00,0.1961
2907.00,0.1907
2906.00,0.1851
2905.00,0.1793
2904.00,0.1730
2903.00,0.1666
2902.00,0.1600
2901.00,0.1534
2900.00,0.1469
2899.00,0.1407
2898.00,0.1349
2897.00,0.1295
2896.00,0.1247
2895.00,0.1204
2894.00,0.1168
2893.00,0.1138
2892.00,0.1113
2891.00,0.1094
2890.00,0.1080
2889.00,0.1070
2888.00,0.1064
2887.00,0.1061
2886.00,0.1062
2885.00,0.1065
2884.00,0.1072
2883.00,0.1083
2882.00,0.1097
2881.00,0.1113
2880.00,0.1129
2879.00,0.1140
2878.00,0.1146
2877.00,0.1145
2876.00,0.1139
2875.00,0.1132
2874.00,0.1126
2873.00,0.1127
2872.00,0.1134
2871.00,0.1149
2870.00,0.1167
2869.00,0.1183
2868.00,0.1192
2867.00,0.1187
2866.00,0.1162
2865.00,0.1117
2864.00,0.1056
2863.00,0.0987
2862.00,0.0919
2861.00,0.0861
2860.00,0.0817
2859.00,0.0788
2858.00,0.0773
2857.00,0.0769
2856.00,0.0775
2855.00,0.0788
2854.00,0.0805
2853.00,0.0825
2852.00,0.0846
2851.00,0.0864
2850.00,0.0879
2849.00,0.0891
2848.00,0.0902
2847.00,0.0919
2846.00,0.0943
2845.00,0.0979
2844.00,0.1026
2843.00,0.1080
2842.00,0.1138
2841.00,0.1191
2840.00,0.1232
2839.00,0.1252
2838.00,0.1245
2837.00,0.1206
2836.00,0.1138
2835.00,0.1045
2834.00,0.0939
2833.00,0.0830
2832.00,0.0727
2831.00,0.0635
2830.00,0.0558
2829.00,0.0494
2828.00,0.0443
2827.00,0.0401
2826.00,0.0367
2825.00,0.0339
2824.00,0.0315
2823.00,0.0295
2822.00,0.0277
2821.00,0.0262
2820.00,0.0249
2819.00,0.0238
2818.00,0.0228
2817.00,0.0219
2816.00,0.0212
2815.00,0.0204
2814.00,0.0198
2813.00,0.0192
2812.00,0.0186
2811.00,0.0180
2810.00,0.0175
2809.00,0.0169
2808.00,0.0164
2807.00,0.0158
2806.00,0.0152
2805.00,0.0146
2804.00,0.0140
2803.00,0.0134
2802.00,0.0129
2801.00,0.0124
2800.00,0.0120
2799.00,0.0117
2798.00,0.0115
2797.00,0.0112
2796.00,0.0110
2795.00,0.0108
2794.00,0.0106
2793.00,0.0103
2792.00,0.0099
2791.00,0.0095
2790.00,0.0092
2789.00,0.0088
2788.00,0.0085
2787.00,0.0082
2786.00,0.0079
2785.00,0.0076
2784.00,0.0073
2783.00,0.0071
2782.00,0.0069
2781.00,0.0067
2780.00,0.0065
2779.00,0.0063
2778.00,0.0062
2777.00,0.0061
2776.00,0.0060
2775.00,0.0059
2774.00,0.0058
2773.00,0.0057
2772.00,0.0056
2771.00,0.0055
2770.00,0.0055
2769.00,0.0055
2768.00,0.0054
2767.00,0.0054
2766.00,0.0054
2765.00,0.0053
2764.00,0.0053
2763.00,0.0052
2762.00,0.0052
2761.00,0.0052
2760.00,0.0052
2759.00,0.0051
2758.00,0.0051
2757.00,0.0051
2756.00,0.0051
2755.00,0.0051
2754.00,0.0051
2753.00,0.0050
2752.00,0.0050
2751.00,0.0049
2750.00,0.0049
2749.00,0.0049
2748.00,0.0049
2747.00,0.0050
2746.00,0.0050
2745.00,0.0051
2744.00,0.0051
2743.00,0.0052
2742.00,0.0053
2741.00,0.0054
2740.00,0.0056
2739.00,0.0057
2738.00,0.0058
2737.00,0.0059
2736.00,0.0061
2735.00,0.0062
2734.00,0.0063
2733.00,0.0065
2732.00,0.0066
2731.00,0.0068
2730.00,0.0070
2729.00,0.0073
2728.00,0.0075
2727.00,0.0078
2726.00,0.0080
2725.00,0.0082
2724.00,0.0084
2723.00,0.0084
2722.00,0.0083
2721.00,0.0082
2720.00,0.0079
2719.00,0.0076
2718.00,0.0073
2717.00,0.0070
2716.00,0.0068
2715.00,0.0065
2714.00,0.0063
2713.00,0.0061
2712.00,0.0059
2711.00,0.0057
2710.00,0.0055
2709.00,0.0054
2708.00,0.0053
2707.00,0.0052
2706.00,0.0051
2705.00,0.0050
2704.00,0.0048
2703.00,0.0047
2702.00,0.0047
2701.00,0.0046
2700.00,0.0045
2699.00,0.0044
2698.00,0.0044
2697.00,0.0043
2696.00,0.0043
2695.00,0.0043
2694.00,0.0043
2693.00,0.0044
2692.00,0.0044
2691.00,0.0044
2690.00,0.0044
2689.00,0.0045
2688.00,0.0044
2687.00,0.0044
2686.00,0.0044
2685.00,0.0044
2684.00,0.0044
2683.00,0.0044
2682.00,0.0044
2681.00,0.0045
2680.00,0.0045
2679.00,0.0045
2678.00,0.0045
2677.00,0.0044
2676.00,0.0044
2675.00,0.0044
2674.00,0.0043
2673.00,0.0043
2672.00,0.0043
2671.00,0.0043
2670.00,0.0043
2669.00,0.0043
2668.00,0.0043
2667.00,0.0044
2666.00,0.0044
2665.00,0.0045
2664.00,0.0046
2663.00,0.0046
2662.00,0.0047
2661.00,0.0047
2660.00,0.0047
2659.00,0.0047
2658.00,0.0047
2657.00,0.0046
2656.00,0.0046
2655.00,0.0045
2654.00,0.0045
2653.00,0.0045
2652.00,0.0044
2651.00,0.0044
2650.00,0.0043
2649.00,0.0043
2648.00,0.0042
2647.00,0.0042
2646.00,0.0041
2645.00,0.0041
2644.00,0.0041
2643.00,0.0040
2642.00,0.0039
2641.00,0.0039
2640.00,0.0039
2639.00,0.0039
2638.00,0.0038
2637.00,0.0038
2636.00,0.0038
2635.00,0.0037
2634.00,0.0037
2633.00,0.0038
2632.00,0.0038
2631.00,0.0038
2630.00,0.0038
2629.00,0.0038
2628.00,0.0038
2627.00,0.0038
2626.00,0.0039
2625.00,0.0039
2624.00,0.0040
2623.00,0.0040
2622.00,0.0040
2621.00,0.0040
2620.00,0.0040
2619.00,0.0040
2618.00,0.0040
2617.00,0.0039
2616.00,0.0039
2615.00,0.0039
2614.00,0.0038
2613.00,0.0038
2612.00,0.0038
2611.00,0.0037
2610.00,0.0036
2609.00,0.0035
2608.00,0.0035
2607.00,0.0035
2606.00,0.0034
2605.00,0.0033
2604.00,0.0032
2603.00,0.0032
2602.00,0.0031
2601.00,0.0031
2600.00,0.0030
2599.00,0.0030
2598.00,0.0030
2597.00,0.0030
2596.00,0.0030
2595.00,0.0030
2594.00,0.0030
2593.00,0.0031
2592.00,0.0032
2591.00,0.0032
2590.00,0.0033
2589.00,0.0033
2588.00,0.0034
2587.00,0.0034
2586.00,0.0035
2585.00,0.0035
2584.00,0.0036
2583.00,0.0036
2582.00,0.0036
2581.00,0.0036
2580.00,0.0036
2579.00,0.0035
2578.00,0.0035
2577.00,0.0034
2576.00,0.0033
2575.00,0.0032
2574.00,0.0031
2573.00,0.0031
2572.00,0.0030
2571.00,0.0029
2570.00,0.0028
2569.00,0.0027
2568.00,0.0026
2567.00,0.0025
2566.00,0.0024
2565.00,0.0023
2564.00,0.0023
2563.00,0.0023
2562.00,0.0023
2561.00,0.0023
2560.00,0.0022
2559.00,0.0022
2558.00,0.0021
2557.00,0.0021
2556.00,0.0021
2555.00,0.0021
2554.00,0.0021
2553.00,0.0021
2552.00,0.0021
2551.00,0.0020
2550.00,0.0020
2549.00,0.0020
2548.00,0.0019
2547.00,0.0018
2546.00,0.0017
2545.00,0.0016
2544.00,0.0016
2543.00,0.0016
2542.00,0.0016
2541.00,0.0016
2540.00,0.0015
2539.00,0.0015
2538.00,0.0015
2537.00,0.0015
2536.00,0.0016
2535.00,0.0016
2534.00,0.0016
2533.00,0.0015
2532.00,0.0014
2531.00,0.0014
2530.00,0.0013
2529.00,0.0013
2528.00,0.0014
2527.00,0.0014
2526.00,0.0014
2525.00,0.0014
2524.00,0.0014
2523.00,0.0013
2522.00,0.0012
2521.00,0.0012
2520.00,0.0011
2519.00,0.0011
2518.00,0.0011
2517.00,0.0011
2516.00,0.0011
2515.00,0.0010
2514.00,0.0010
2513.00,0.0009
2512.00,0.0009
2511.00,0.0009
2510.00,0.0010
2509.00,0.0010
2508.00,0.0010
2507.00,0.0009
2506.00,0.0008
2505.00,0.0008
2504.00,0.0008
2503.00,0.0008
2502.00,0.0008
2501.00,0.0008
2500.00,0.0008
2499.00,0.0008
2498.00,0.0009
2497.00,0.0009
2496.00,0.0009
2495.00,0.0010
2494.00,0.0010
2493.00,0.0010
2492.00,0.0010
2491.00,0.0009
2490.00,0.0008
2489.00,0.0008
2488.00,0.0008
2487.00,0.0008
2486.00,0.0008
2485.00,0.0008
2484.00,0.0008
2483.00,0.0007
2482.00,0.0007
2481.00,0.0007
2480.00,0.0007
2479.00,0.0007
2478.00,0.0007
2477.00,0.0007
2476.00,0.0007
2475.00,0.0008
2474.00,0.0008
2473.00,0.0008
2472.00,0.0008
2471.00,0.0008
2470.00,0.0007
2469.00,0.0007
2468.00,0.0008
2467.00,0.0008
2466.00,0.0008
2465.00,0.0009
2464.00,0.0009
2463.00,0.0009
2462.00,0.0009
2461.00,0.0009
2460.00,0.0009
2459.00,0.0009
2458.00,0.0010
2457.00,0.0010
2456.00,0.0011
2455.00,0.0011
2454.00,0.0010
2453.00,0.0010
2452.00,0.0010
2451.00,0.0010
2450.00,0.0009
2449.00,0.0010
2448.00,0.0010
2447.00,0.0011
2446.00,0.0011
2445.00,0.0011
2444.00,0.0010
2443.00,0.0010
2442.00,0.0009
2441.00,0.0009
2440.00,0.0009
2439.00,0.0009
2438.00,0.0010
2437.00,0.0010
2436.00,0.0011
2435.00,0.0011
2434.00,0.0011
2433.00,0.0011
2432.00,0.0012
2431.00,0.0012
2430.00,0.0012
2429.00,0.0011
2428.00,0.0011
2427.00,0.0011
2426.00,0.0011
2425.00,0.0011
2424.00,0.0011
2423.00,0.0010
2422.00,0.0009
2421.00,0.0009
2420.00,0.0008
2419.00,0.0008
2418.00,0.0008
2417.00,0.0008
2416.00,0.0008
2415.00,0.0009
2414.00,0.0009
2413.00,0.0010
2412.00,0.0010
2411.00,0.0010
2410.00,0.0010
2409.00,0.0009
2408.00,0.0009
2407.00,0.0009
2406.00,0.0009
2405.00,0.0009
2404.00,0.0009
2403.00,0.0009
2402.00,0.0009
2401.00,0.0008
2400.00,0.0008
2399.00,0.0007
2398.00,0.0007
2397.00,0.0007
2396.00,0.0007
2395.00,0.0007
2394.00,0.0007
2393.00,0.0007
2392.00,0.0007
2391.00,0.0007
2390.00,0.0007
2389.00,0.0007
2388.00,0.0007
2387.00,0.0007
2386.00,0.0007
2385.00,0.0006
2384.00,0.0006
2383.00,0.0005
2382.00,0.0004
2381.00,0.0004
2380.00,0.0003
2379.00,0.0003
2378.00,0.0003
2377.00,0.0004
2376.00,0.0004
2375.00,0.0004
2374.00,0.0003
2373.00,0.0003
2372.00,0.0002
2371.00,0.0002
2370.00,0.0002
2369.00,0.0002
2368.00,0.0002
2367.00,0.0002
2366.00,0.0002
2365.00,0.0002
2364.00,0.0002
2363.00,0.0003
2362.00,0.0004
2361.00,0.0005
2360.00,0.0004
2359.00,0.0004
2358.00,0.0003
2357.00,0.0002
2356.00,0.0003
2355.00,0.0003
2354.00,0.0004
2353.00,0.0005
2352.00,0.0004
2351.00,0.0004
2350.00,0.0003
2349.00,0.0004
2348.00,0.0004
2347.00,0.0005
2346.00,0.0006
2345.00,0.0006
2344.00,0.0005
2343.00,0.0005
2342.00,0.0005
2341.00,0.0005
2340.00,0.0005
2339.00,0.0006
2338.00,0.0006
2337.00,0.0007
2336.00,0.0007
2335.00,0.0007
2334.00,0.0007
2333.00,0.0007
2332.00,0.0006
2331.00,0.0006
2330.00,0.0005
2329.00,0.0006
2328.00,0.0007
2327.00,0.0011
2326.00,0.0015
2325.00,0.0019
2324.00,0.0020
2323.00,0.0020
2322.00,0.0017
2321.00,0.0014
2320.00,0.0012
2319.00,0.0011
2318.00,0.0011
2317.00,0.0010
2316.00,0.0010
2315.00,0.0010
2314.00,0.0009
2313.00,0.0008
2312.00,0.0007
2311.00,0.0007
2310.00,0.0007
2309.00,0.0007
2308.00,0.0007
2307.00,0.0007
2306.00,0.0007
2305.00,0.0008
2304.00,0.0009
2303.00,0.0009
2302.00,0.0009
2301.00,0.0009
2300.00,0.0009
2299.00,0.0009
2298.00,0.0009
2297.00,0.0010
2296.00,0.0010
2295.00,0.0011
2294.00,0.0012
2293.00,0.0013
2292.00,0.0014
2291.00,0.0016
2290.00,0.0017
2289.00,0.0018
2288.00,0.0018
2287.00,0.0017
2286.00,0.0017
2285.00,0.0018
2284.00,0.0018
2283.00,0.0019
2282.00,0.0019
2281.00,0.0018
2280.00,0.0018
2279.00,0.0017
2278.00,0.0016
2277.00,0.0015
2276.00,0.0014
2275.00,0.0013
2274.00,0.0014
2273.00,0.0015
2272.00,0.0016
2271.00,0.0017
2270.00,0.0017
2269.00,0.0015
2268.00,0.0014
2267.00,0.0012
2266.00,0.0011
2265.00,0.0010
2264.00,0.0010
2263.00,0.0011
2262.00,0.0013
2261.00,0.0013
2260.00,0.0013
2259.00,0.0012
2258.00,0.0011
2257.00,0.0010
2256.00,0.0010
2255.00,0.0009
2254.00,0.0008
2253.00,0.0007
2252.00,0.0006
2251.00,0.0006
2250.00,0.0008
2249.00,0.0010
2248.00,0.0011
2247.00,0.0011
2246.00,0.0010
2245.00,0.0010
2244.00,0.0010
2243.00,0.0010
2242.00,0.0009
2241.00,0.0009
2240.00,0.0009
2239.00,0.0009
2238.00,0.0009
2237.00,0.0008
2236.00,0.0008
2235.00,0.0009
2234.00,0.0010
2233.00,0.0011
2232.00,0.0011
2231.00,0.0011
2230.00,0.0011
2229.00,0.0010
2228.00,0.0010
2227.00,0.0008
2226.00,0.0007
2225.00,0.0006
2224.00,0.0006
2223.00,0.0008
2222.00,0.0009
2221.00,0.0008
2220.00,0.0007
2219.00,0.0006
2218.00,0.0006
2217.00,0.0006
2216.00,0.0006
2215.00,0.0007
2214.00,0.0008
2213.00,0.0008
2212.00,0.0007
2211.00,0.0006
2210.00,0.0004
2209.00,0.0004
2208.00,0.0004
2207.00,0.0006
2206.00,0.0007
2205.00,0.0009
2204.00,0.0010
2203.00,0.0010
2202.00,0.0009
2201.00,0.0009
2200.00,0.0009
2199.00,0.0011
2198.00,0.0012
2197.00,0.0013
2196.00,0.0013
2195.00,0.0013
2194.00,0.0012
2193.00,0.0011
2192.00,0.0010
2191.00,0.0010
2190.00,0.0011
2189.00,0.0014
2188.00,0.0016
2187.00,0.0016
2186.00,0.0014
2185.00,0.0009
2184.00,0.0003
2183.00,0.0000
2182.00,0.0000
2181.00,0.0003
2180.00,0.0007
2179.00,0.0009
2178.00,0.0008
2177.00,0.0004
2176.00,0.0001
2175.00,-0.0000
2174.00,0.0001
2173.00,0.0004
2172.00,0.0006
2171.00,0.0007
2170.00,0.0007
2169.00,0.0007
2168.00,0.0008
2167.00,0.0010
2166.00,0.0012
2165.00,0.0012
2164.00,0.0012
2163.00,0.0013
2162.00,0.0013
2161.00,0.0008
2160.00,-0.0002
2159.00,-0.0016
2158.00,-0.0027
2157.00,-0.0031
2156.00,-0.0030
2155.00,-0.0028
2154.00,-0.0025
2153.00,-0.0022
2152.00,-0.0021
2151.00,-0.0019
2150.00,-0.0018
2149.00,-0.0017
2148.00,-0.0017
2147.00,-0.0016
2146.00,-0.0016
2145.00,-0.0015
2144.00,-0.0012
2143.00,-0.0011
2142.00,-0.0010
2141.00,-0.0010
2140.00,-0.0009
2139.00,-0.0008
2138.00,-0.0008
2137.00,-0.0009
2136.00,-0.0012
2135.00,-0.0016
2134.00,-0.0021
2133.00,-0.0023
2132.00,-0.0022
2131.00,-0.0019
2130.00,-0.0015
2129.00,-0.0012
2128.00,-0.0010
2127.00,-0.0009
2126.00,-0.0007
2125.00,-0.0006
2124.00,-0.0005
2123.00,-0.0004
2122.00,-0.0004
2121.00,-0.0004
2120.00,-0.0004
2119.00,-0.0003
2118.00,-0.0002
2117.00,-0.0001
2116.00,0.0001
2115.00,0.0004
2114.00,0.0006
2113.00,0.0008
2112.00,0.0008
2111.00,0.0007
2110.00,0.0004
2109.00,0.0002
2108.00,-0.0001
2107.00,-0.0002
2106.00,-0.0002
2105.00,-0.0001
2104.00,-0.0000
2103.00,0.0001
2102.00,0.0002
2101.00,0.0001
2100.00,0.0001
2099.00,-0.0000
2098.00,-0.0001
2097.00,-0.0001
2096.00,-0.0001
2095.00,-0.0002
2094.00,-0.0003
2093.00,-0.0003
2092.00,-0.0003
2091.00,-0.0002
2090.00,-0.0001
2089.00,-0.0000
2088.00,-0.0000
2087.00,-0.0000
2086.00,-0.0000
2085.00,0.0000
2084.00,0.0001
2083.00,0.0001
2082.00,0.0002
2081.00,0.0003
2080.00,0.0005
2079.00,0.0006
2078.00,0.0006
2077.00,0.0005
2076.00,0.0002
2075.00,0.0000
2074.00,-0.0001
2073.00,-0.0001
2072.00,-0.0000
2071.00,0.0001
2070.00,0.0002
2069.00,0.0002
2068.00,0.0002
2067.00,0.0001
2066.00,0.0000
2065.00,-0.0000
2064.00,-0.0001
2063.00,-0.0001
2062.00,-0.0001
2061.00,-0.0002
2060.00,-0.0003
2059.00,-0.0003
2058.00,-0.0003
2057.00,-0.0002
2056.00,-0.0002
2055.00,-0.0002
2054.00,-0.0002
2053.00,0.0000
2052.00,0.0004
2051.00,0.0007
2050.00,0.0007
2049.00,0.0005
2048.00,0.0002
2047.00,0.0000
2046.00,-0.0001
2045.00,-0.0001
2044.00,-0.0001
2043.00,-0.0000
2042.00,0.0002
2041.00,0.0004
2040.00,0.0005
2039.00,0.0007
2038.00,0.0007
2037.00,0.0007
2036.00,0.0007
2035.00,0.0006
2034.00,0.0004
2033.00,0.0002
2032.00,0.0000
2031.00,-0.0002
2030.00,-0.0005
2029.00,-0.0006
2028.00,-0.0007
2027.00,-0.0006
2026.00,-0.0004
2025.00,-0.0002
2024.00,-0.0001
2023.00,-0.0001
2022.00,-0.0002
2021.00,-0.0002
2020.00,-0.0003
2019.00,-0.0004
2018.00,-0.0005
2017.00,-0.0004
2016.00,-0.0002
2015.00,-0.0001
2014.00,-0.0000
2013.00,-0.0002
2012.00,-0.0004
2011.00,-0.0007
2010.00,-0.0010
2009.00,-0.0012
2008.00,-0.0014
2007.00,-0.0016
2006.00,-0.0017
2005.00,-0.0017
2004.00,-0.0015
2003.00,-0.0014
2002.00,-0.0015
2001.00,-0.0016
2000.00,-0.0017
1999.00,-0.0017
1998.00,-0.0017
1997.00,-0.0016
1996.00,-0.0016
1995.00,-0.0014
1994.00,-0.0010
1993.00,-0.0006
1992.00,-0.0003
1991.00,-0.0004
1990.00,-0.0005
1989.00,-0.0006
1988.00,-0.0005
1987.00,-0.0004
1986.00,-0.0004
1985.00,-0.0004
1984.00,-0.0003
1983.00,-0.0001
1982.00,0.0001
1981.00,0.0003
1980.00,0.0002
1979.00,-0.0002
1978.00,-0.0008
1977.00,-0.0014
1976.00,-0.0018
1975.00,-0.0020
1974.00,-0.0020
1973.00,-0.0018
1972.00,-0.0016
1971.00,-0.0015
1970.00,-0.0014
1969.00,-0.0012
1968.00,-0.0010
1967.00,-0.0009
1966.00,-0.0009
1965.00,-0.0009
1964.00,-0.0010
1963.00,-0.0011
1962.00,-0.0013
1961.00,-0.0013
1960.00,-0.0014
1959.00,-0.0015
1958.00,-0.0016
1957.00,-0.0018
1956.00,-0.0018
1955.00,-0.0019
1954.00,-0.0019
1953.00,-0.0018
1952.00,-0.0018
1951.00,-0.0019
1950.00,-0.0019
1949.00,-0.0017
1948.00,-0.0016
1947.00,-0.0014
1946.00,-0.0014
1945.00,-0.0014
1944.00,-0.0015
1943.00,-0.0016
1942.00,-0.0016
1941.00,-0.0016
1940.00,-0.0015
1939.00,-0.0013
1938.00,-0.0011
1937.00,-0.0010
1936.00,-0.0010
1935.00,-0.0011
1934.00,-0.0013
1933.00,-0.0013
1932.00,-0.0012
1931.00,-0.0011
1930.00,-0.0009
1929.00,-0.0008
1928.00,-0.0006
1927.00,-0.0005
1926.00,-0.0004
1925.00,-0.0004
1924.00,-0.0004
1923.00,-0.0005
1922.00,-0.0006
1921.00,-0.0006
1920.00,-0.0006
1919.00,-0.0006
1918.00,-0.0006
1917.00,-0.0005
1916.00,-0.0005
1915.00,-0.0005
1914.00,-0.0005
1913.00,-0.0005
1912.00,-0.0005
1911.00,-0.0005
1910.00,-0.0006
1909.00,-0.0007
1908.00,-0.0007
1907.00,-0.0007
1906.00,-0.0006
1905.00,-0.0004
1904.00,-0.0003
1903.00,-0.0004
1902.00,-0.0005
1901.00,-0.0005
1900.00,-0.0004
1899.00,-0.0002
1898.00,-0.0000
1897.00,0.0001
1896.00,0.0001
1895.00,0.0001
1894.00,0.0001
1893.00,0.0001
1892.00,0.0001
1891.00,0.0001
1890.00,0.0001
1889.00,0.0000
1888.00,-0.0000
1887.00,-0.0001
1886.00,-0.0001
1885.00,-0.0002
1884.00,-0.0003
1883.00,-0.0003
1882.00,-0.0003
1881.00,-0.0002
1880.00,-0.0001
1879.00,-0.0002
1878.00,-0.0002
1877.00,-0.0002
1876.00,-0.0002
1875.00,-0.0002
1874.00,-0.0003
1873.00,-0.0003
1872.00,-0.0003
1871.00,-0.0003
1870.00,-0.0003
1869.00,-0.0002
1868.00,-0.0001
1867.00,-0.0001
1866.00,-0.0002
1865.00,-0.0003
1864.00,-0.0003
1863.00,-0.0003
1862.00,-0.0003
1861.00,-0.0001
1860.00,-0.0001
1859.00,-0.0000
1858.00,-0.0000
1857.00,-0.0001
1856.00,-0.0001
1855.00,-0.0001
1854.00,-0.0001
1853.00,-0.0000
1852.00,0.0000
1851.00,0.0001
1850.00,0.0001
1849.00,0.0002
1848.00,0.0002
1847.00,0.0002
1846.00,0.0001
1845.00,0.0001
1844.00,0.0001
1843.00,0.0001
1842.00,0.0001
1841.00,0.0001
1840.00,0.0000
1839.00,0.0001
1838.00,0.0001
1837.00,0.0002
1836.00,0.0002
1835.00,0.0003
1834.00,0.0003
1833.00,0.0003
1832.00,0.0003
1831.00,0.0002
1830.00,0.0002
1829.00,0.0002
1828.00,0.0002
1827.00,0.0001
1826.00,0.0001
1825.00,0.0002
1824.00,0.0002
1823.00,0.0002
1822.00,0.0003
1821.00,0.0003
1820.00,0.0002
1819.00,0.0001
1818.00,-0.0000
1817.00,-0.0001
1816.00,-0.0001
1815.00,-0.0001
1814.00,-0.0000
1813.00,0.0001
1812.00,0.0002
1811.00,0.0002
1810.00,0.0003
1809.00,0.0003
1808.00,0.0003
1807.00,0.0004
1806.00,0.0004
1805.00,0.0004
1804.00,0.0004
1803.00,0.0004
1802.00,0.0003
1801.00,0.0003
1800.00,0.0004
1799.00,0.0004
1798.00,0.0005
1797.00,0.0005
1796.00,0.0005
1795.00,0.0005
1794.00,0.0005
1793.00,0.0005
1792.00,0.0005
1791.00,0.0004
1790.00,0.0004
1789.00,0.0004
1788.00,0.0005
1787.00,0.0005
1786.00,0.0005
1785.00,0.0006
1784.00,0.0006
1783.00,0.0007
1782.00,0.0008
1781.00,0.0008
1780.00,0.0008
1779.00,0.0007
1778.00,0.0007
1777.00,0.0007
1776.00,0.0006
1775.00,0.0006
1774.00,0.0007
1773.00,0.0007
1772.00,0.0008
1771.00,0.0008
1770.00,0.0008
1769.00,0.0008
1768.00,0.0008
1767.00,0.0009
1766.00,0.0010
1765.00,0.0011
1764.00,0.0011
1763.00,0.0010
1762.00,0.0010
1761.00,0.0010
1760.00,0.0010
1759.00,0.0011
1758.00,0.0011
1757.00,0.0012
1756.00,0.0012
1755.00,0.0012
1754.00,0.0012
1753.00,0.0012
1752.00,0.0012
1751.00,0.0012
1750.00,0.0012
1749.00,0.0012
1748.00,0.0012
1747.00,0.0013
1746.00,0.0014
1745.00,0.0014
1744.00,0.0015
1743.00,0.0014
1742.00,0.0014
1741.00,0.0014
1740.00,0.0014
1739.00,0.0015
1738.00,0.0015
1737.00,0.0015
1736.00,0.0016
1735.00,0.0016
1734.00,0.0017
1733.00,0.0017
1732.00,0.0017
1731.00,0.0017
1730.00,0.0017
1729.00,0.0017
1728.00,0.0017
1727.00,0.0017
1726.00,0.0017
1725.00,0.0018
1724.00,0.0018
1723.00,0.0019
1722.00,0.0019
1721.00,0.0019
1720.00,0.0019
1719.00,0.0019
1718.00,0.0019
1717.00,0.0019
1716.00,0.0020
1715.00,0.0020
1714.00,0.0020
1713.00,0.0020
1712.00,0.0020
1711.00,0.0020
1710.00,0.0020
1709.00,0.0020
1708.00,0.0020
1707.00,0.0020
1706.00,0.0020
1705.00,0.0021
1704.00,0.0021
1703.00,0.0022
1702.00,0.0022
1701.00,0.0022
1700.00,0.0022
1699.00,0.0022
1698.00,0.0022
1697.00,0.0022
1696.00,0.0023
1695.00,0.0023
1694.00,0.0024
1693.00,0.0024
1692.00,0.0024
1691.00,0.0024
1690.00,0.0024
1689.00,0.0025
1688.00,0.0025
1687.00,0.0026
1686.00,0.0026
1685.00,0.0026
1684.00,0.0027
1683.00,0.0027
1682.00,0.0027
1681.00,0.0028
1680.00,0.0028
1679.00,0.0029
1678.00,0.0029
1677.00,0.0030
1676.00,0.0031
1675.00,0.0032
1674.00,0.0032
1673.00,0.0033
1672.00,0.0033
1671.00,0.0033
1670.00,0.0033
1669.00,0.0034
1668.00,0.0034
1667.00,0.0035
1666.00,0.0035
1665.00,0.0034
1664.00,0.0034
1663.00,0.0035
1662.00,0.0035
1661.00,0.0036
1660.00,0.0036
1659.00,0.0037
1658.00,0.0038
1657.00,0.0039
1656.00,0.0040
1655.00,0.0041
1654.00,0.0042
1653.00,0.0042
1652.00,0.0043
1651.00,0.0045
1650.00,0.0046
1649.00,0.0048
1648.00,0.0051
1647.00,0.0053
1646.00,0.0054
1645.00,0.0054
1644.00,0.0054
1643.00,0.0053
1642.00,0.0053
1641.00,0.0053
1640.00,0.0054
1639.00,0.0054
1638.00,0.0054
1637.00,0.0054
1636.00,0.0054
1635.00,0.0053
1634.00,0.0052
1633.00,0.0051
1632.00,0.0051
1631.00,0.0050
1630.00,0.0050
1629.00,0.0050
1628.00,0.0049
1627.00,0.0048
1626.00,0.0048
1625.00,0.0047
1624.00,0.0047
1623.00,0.0046
1622.00,0.0045
1621.00,0.0045
1620.00,0.0044
1619.00,0.0044
1618.00,0.0043
1617.00,0.0042
1616.00,0.0041
1615.00,0.0041
1614.00,0.0041
1613.00,0.0041
1612.00,0.0042
1611.00,0.0042
1610.00,0.0042
1609.00,0.0042
1608.00,0.0042
1607.00,0.0041
1606.00,0.0041
1605.00,0.0041
1604.00,0.0040
1603.00,0.0040
1602.00,0.0040
1601.00,0.0040
1600.00,0.0040
1599.00,0.0039
1598.00,0.0039
1597.00,0.0039
1596.00,0.0039
1595.00,0.0039
1594.00,0.0039
1593.00,0.0039
1592.00,0.0039
1591.00,0.0039
1590.00,0.0039
1589.00,0.0039
1588.00,0.0039
1587.00,0.0039
1586.00,0.0039
1585.00,0.0039
1584.00,0.0038
1583.00,0.0038
1582.00,0.0037
1581.00,0.0038
1580.00,0.0038
1579.00,0.0038
1578.00,0.0038
1577.00,0.0038
1576.00,0.0038
1575.00,0.0038
1574.00,0.0038
1573.00,0.0039
1572.00,0.0040
1571.00,0.0041
1570.00,0.0042
1569.00,0.0043
1568.00,0.0044
1567.00,0.0044
1566.00,0.0044
1565.00,0.0045
1564.00,0.0045
1563.00,0.0045
1562.00,0.0045
1561.00,0.0045
1560.00,0.0046
1559.00,0.0047
1558.00,0.0047
1557.00,0.0047
1556.00,0.0047
1555.00,0.0048
1554.00,0.0048
1553.00,0.0048
1552.00,0.0049
1551.00,0.0049
1550.00,0.0049
1549.00,0.0049
1548.00,0.0049
1547.00,0.0049
1546.00,0.0049
1545.00,0.0049
1544.00,0.0049
1543.00,0.0048
1542.00,0.0047
1541.00,0.0046
1540.00,0.0046
1539.00,0.0045
1538.00,0.0045
1537.00,0.0045
1536.00,0.0045
1535.00,0.0044
1534.00,0.0043
1533.00,0.0043
1532.00,0.0043
1531.00,0.0043
1530.00,0.0043
1529.00,0.0044
1528.00,0.0045
1527.00,0.0045
1526.00,0.0046
1525.00,0.0046
1524.00,0.0047
1523.00,0.0048
1522.00,0.0048
1521.00,0.0048
1520.00,0.0048
1519.00,0.0048
1518.00,0.0048
1517.00,0.0049
1516.00,0.0050
1515.00,0.0049
1514.00,0.0049
1513.00,0.0050
1512.00,0.0051
1511.00,0.0051
1510.00,0.0052
1509.00,0.0053
1508.00,0.0055
1507.00,0.0056
1506.00,0.0056
1505.00,0.0057
1504.00,0.0059
1503.00,0.0061
1502.00,0.0063
1501.00,0.0065
1500.00,0.0068
1499.00,0.0071
1498.00,0.0073
1497.00,0.0076
1496.00,0.0079
1495.00,0.0082
1494.00,0.0084
1493.00,0.0087
1492.00,0.0091
1491.00,0.0095
1490.00,0.0099
1489.00,0.0104
1488.00,0.0109
1487.00,0.0113
1486.00,0.0117
1485.00,0.0123
1484.00,0.0129
1483.00,0.0135
1482.00,0.0143
1481.00,0.0152
1480.00,0.0164
1479.00,0.0176
1478.00,0.0191
1477.00,0.0211
1476.00,0.0236
1475.00,0.0267
1474.00,0.0308
1473.00,0.0366
1472.00,0.0433
1471.00,0.0497
1470.00,0.0559
1469.00,0.0623
1468.00,0.0692
1467.00,0.0768
1466.00,0.0853
1465.00,0.0943
1464.00,0.1022
1463.00,0.1076
1462.00,0.1111
1461.00,0.1135
1460.00,0.1152
1459.00,0.1165
1458.00,0.1179
1457.00,0.1191
1456.00,0.1195
1455.00,0.1190
1454.00,0.1180
1453.00,0.1166
1452.00,0.1143
1451.00,0.1109
1450.00,0.1061
1449.00,0.0993
1448.00,0.0904
1447.00,0.0809
1446.00,0.0721
1445.00,0.0645
1444.00,0.0578
1443.00,0.0524
1442.00,0.0482
1441.00,0.0453
1440.00,0.0433
1439.00,0.0423
1438.00,0.0419
1437.00,0.0417
1436.00,0.0405
1435.00,0.0380
1434.00,0.0347
1433.00,0.0306
1432.00,0.0264
1431.00,0.0227
1430.00,0.0198
1429.00,0.0176
1428.00,0.0161
1427.00,0.0151
1426.00,0.0145
1425.00,0.0139
1424.00,0.0133
1423.00,0.0130
1422.00,0.0127
1421.00,0.0125
1420.00,0.0121
1419.00,0.0119
1418.00,0.0117
1417.00,0.0115
1416.00,0.0112
1415.00,0.0111
1414.00,0.0110
1413.00,0.0109
1412.00,0.0107
1411.00,0.0106
1410.00,0.0106
1409.00,0.0105
1408.00,0.0104
1407.00,0.0104
1406.00,0.0105
1405.00,0.0106
1404.00,0.0106
1403.00,0.0107
1402.00,0.0109
1401.00,0.0111
1400.00,0.0112
1399.00,0.0114
1398.00,0.0116
1397.00,0.0117
1396.00,0.0120
1395.00,0.0123
1394.00,0.0128
1393.00,0.0133
1392.00,0.0139
1391.00,0.0147
1390.00,0.0157
1389.00,0.0171
1388.00,0.0192
1387.00,0.0224
1386.00,0.0267
1385.00,0.0323
1384.00,0.0400
1383.00,0.0508
1382.00,0.0652
1381.00,0.0834
1380.00,0.1055
1379.00,0.1301
1378.00,0.1532
1377.00,0.1694
1376.00,0.1738
1375.00,0.1640
1374.00,0.1430
1373.00,0.1182
1372.00,0.0957
1371.00,0.0772
1370.00,0.0625
1369.00,0.0513
1368.00,0.0435
1367.00,0.0386
1366.00,0.0359
1365.00,0.0348
1364.00,0.0350
1363.00,0.0361
1362.00,0.0380
1361.00,0.0400
1360.00,0.0416
1359.00,0.0420
1358.00,0.0410
1357.00,0.0386
1356.00,0.0353
1355.00,0.0317
1354.00,0.0282
1353.00,0.0252
1352.00,0.0227
1351.00,0.0207
1350.00,0.0190
1349.00,0.0176
1348.00,0.0165
1347.00,0.0155
1346.00,0.0147
1345.00,0.0140
1344.00,0.0134
1343.00,0.0129
1342.00,0.0124
1341.00,0.0121
1340.00,0.0118
1339.00,0.0116
1338.00,0.0114
1337.00,0.0114
1336.00,0.0114
1335.00,0.0115
1334.00,0.0118
1333.00,0.0121
1332.00,0.0125
1331.00,0.0128
1330.00,0.0130
1329.00,0.0130
1328.00,0.0127
1327.00,0.0123
1326.00,0.0118
1325.00,0.0112
1324.00,0.0106
1323.00,0.0101
1322.00,0.0097
1321.00,0.0094
1320.00,0.0092
1319.00,0.0090
1318.00,0.0089
1317.00,0.0088
1316.00,0.0087
1315.00,0.0086
1314.00,0.0086
1313.00,0.0086
1312.00,0.0088
1311.00,0.0091
1310.00,0.0096
1309.00,0.0104
1308.00,0.0114
1307.00,0.0127
1306.00,0.0140
1305.00,0.0149
1304.00,0.0152
1303.00,0.0148
1302.00,0.0141
1301.00,0.0133
1300.00,0.0128
1299.00,0.0126
1298.00,0.0125
1297.00,0.0124
1296.00,0.0122
1295.00,0.0120
1294.00,0.0116
1293.00,0.0112
1292.00,0.0107
1291.00,0.0102
1290.00,0.0098
1289.00,0.0094
1288.00,0.0091
1287.00,0.0089
1286.00,0.0087
1285.00,0.0086
1284.00,0.0084
1283.00,0.0082
1282.00,0.0081
1281.00,0.0080
1280.00,0.0079
1279.00,0.0078
1278.00,0.0078
1277.00,0.0077
1276.00,0.0077
1275.00,0.0077
1274.00,0.0077
1273.00,0.0078
1272.00,0.0078
1271.00,0.0079
1270.00,0.0080
1269.00,0.0082
1268.00,0.0085
1267.00,0.0087
1266.00,0.0090
1265.00,0.0093
1264.00,0.0096
1263.00,0.0100
1262.00,0.0104
1261.00,0.0109
1260.00,0.0115
1259.00,0.0123
1258.00,0.0131
1257.00,0.0138
1256.00,0.0142
1255.00,0.0140
1254.00,0.0132
1253.00,0.0122
1252.00,0.0112
1251.00,0.0103
1250.00,0.0097
1249.00,0.0092
1248.00,0.0088
1247.00,0.0085
1246.00,0.0083
1245.00,0.0081
1244.00,0.0079
1243.00,0.0078
1242.00,0.0077
1241.00,0.0076
1240.00,0.0074
1239.00,0.0074
1238.00,0.0073
1237.00,0.0073
1236.00,0.0073
1235.00,0.0073
1234.00,0.0073
1233.00,0.0073
1232.00,0.0073
1231.00,0.0073
1230.00,0.0073
1229.00,0.0074
1228.00,0.0075
1227.00,0.0076
1226.00,0.0078
1225.00,0.0080
1224.00,0.0083
1223.00,0.0086
1222.00,0.0089
1221.00,0.0092
1220.00,0.0093
1219.00,0.0093
1218.00,0.0092
1217.00,0.0091
1216.00,0.0088
1215.00,0.0085
1214.00,0.0082
1213.00,0.0079
1212.00,0.0077
1211.00,0.0074
1210.00,0.0073
1209.00,0.0071
1208.00,0.0071
1207.00,0.0071
1206.00,0.0071
1205.00,0.0070
1204.00,0.0069
1203.00,0.0069
1202.00,0.0068
1201.00,0.0068
1200.00,0.0067
1199.00,0.0067
1198.00,0.0067
1197.00,0.0067
1196.00,0.0067
1195.00,0.0068
1194.00,0.0068
1193.00,0.0068
1192.00,0.0068
1191.00,0.0068
1190.00,0.0068
1189.00,0.0068
1188.00,0.0068
1187.00,0.0069
1186.00,0.0070
1185.00,0.0071
1184.00,0.0073
1183.00,0.0075
1182.00,0.0077
1181.00,0.0081
1180.00,0.0085
1179.00,0.0091
1178.00,0.0099
1177.00,0.0108
1176.00,0.0121
1175.00,0.0139
1174.00,0.0162
1173.00,0.0191
1172.00,0.0226
1171.00,0.0265
1170.00,0.0302
1169.00,0.0334
1168.00,0.0353
1167.00,0.0357
1166.00,0.0348
1165.00,0.0329
1164.00,0.0307
1163.00,0.0284
1162.00,0.0265
1161.00,0.0248
1160.00,0.0236
1159.00,0.0227
1158.00,0.0219
1157.00,0.0214
1156.00,0.0210
1155.00,0.0207
1154.00,0.0204
1153.00,0.0200
1152.00,0.0195
1151.00,0.0189
1150.00,0.0181
1149.00,0.0172
1148.00,0.0163
1147.00,0.0153
1146.00,0.0143
1145.00,0.0134
1144.00,0.0126
1143.00,0.0118
1142.00,0.0112
1141.00,0.0106
1140.00,0.0101
1139.00,0.0097
1138.00,0.0094
1137.00,0.0090
1136.00,0.0088
1135.00,0.0086
1134.00,0.0084
1133.00,0.0082
1132.00,0.0081
1131.00,0.0080
1130.00,0.0080
1129.00,0.0079
1128.00,0.0080
1127.00,0.0080
1126.00,0.0081
1125.00,0.0081
1124.00,0.0081
1123.00,0.0082
1122.00,0.0083
1121.00,0.0085
1120.00,0.0086
1119.00,0.0087
1118.00,0.0088
1117.00,0.0088
1116.00,0.0089
1115.00,0.0089
1114.00,0.0089
1113.00,0.0090
1112.00,0.0092
1111.00,0.0094
1110.00,0.0097
1109.00,0.0100
1108.00,0.0103
1107.00,0.0107
1106.00,0.0113
1105.00,0.0119
1104.00,0.0124
1103.00,0.0127
1102.00,0.0127
1101.00,0.0124
1100.00,0.0119
1099.00,0.0114
1098.00,0.0108
1097.00,0.0103
1096.00,0.0099
1095.00,0.0096
1094.00,0.0094
1093.00,0.0091
1092.00,0.0089
1091.00,0.0087
1090.00,0.0087
1089.00,0.0087
1088.00,0.0087
1087.00,0.0086
1086.00,0.0085
1085.00,0.0083
1084.00,0.0082
1083.00,0.0082
1082.00,0.0082
1081.00,0.0081
1080.00,0.0081
1079.00,0.0080
1078.00,0.0079
1077.00,0.0078
1076.00,0.0077
1075.00,0.0076
1074.00,0.0075
1073.00,0.0074
1072.00,0.0074
1071.00,0.0074
1070.00,0.0075
1069.00,0.0075
1068.00,0.0075
1067.00,0.0075
1066.00,0.0075
1065.00,0.0075
1064.00,0.0075
1063.00,0.0076
1062.00,0.0076
1061.00,0.0076
1060.00,0.0076
1059.00,0.0076
1058.00,0.0076
1057.00,0.0075
1056.00,0.0075
1055.00,0.0075
1054.00,0.0075
1053.00,0.0075
1052.00,0.0076
1051.00,0.0078
1050.00,0.0080
1049.00,0.0084
1048.00,0.0087
1047.00,0.0091
1046.00,0.0096
1045.00,0.0099
1044.00,0.0100
1043.00,0.0098
1042.00,0.0095
1041.00,0.0092
1040.00,0.0089
1039.00,0.0087
1038.00,0.0085
1037.00,0.0085
1036.00,0.0085
1035.00,0.0084
1034.00,0.0083
1033.00,0.0082
1032.00,0.0080
1031.00,0.0079
1030.00,0.0078
1029.00,0.0077
1028.00,0.0075
1027.00,0.0075
1026.00,0.0076
1025.00,0.0077
1024.00,0.0078
1023.00,0.0079
1022.00,0.0080
1021.00,0.0080
1020.00,0.0081
1019.00,0.0083
1018.00,0.0084
1017.00,0.0086
1016.00,0.0087
1015.00,0.0088
1014.00,0.0089
1013.00,0.0091
1012.00,0.0093
1011.00,0.0095
1010.00,0.0099
1009.00,0.0104
1008.00,0.0110
1007.00,0.0119
1006.00,0.0130
1005.00,0.0144
1004.00,0.0164
1003.00,0.0191
1002.00,0.0228
1001.00,0.0275
1000.00,0.0325
999.00,0.0369
998.00,0.0392
997.00,0.0388
996.00,0.0357
995.00,0.0310
994.00,0.0260
993.00,0.0216
992.00,0.0182
991.00,0.0158
990.00,0.0142
989.00,0.0130
988.00,0.0123
987.00,0.0119
986.00,0.0118
985.00,0.0119
984.00,0.0123
983.00,0.0131
982.00,0.0142
981.00,0.0159
980.00,0.0183
979.00,0.0213
978.00,0.0253
977.00,0.0301
976.00,0.0354
975.00,0.0408
974.00,0.0450
973.00,0.0469
972.00,0.0456
971.00,0.0414
970.00,0.0355
969.00,0.0292
968.00,0.0239
967.00,0.0198
966.00,0.0169
965.00,0.0149
964.00,0.0134
963.00,0.0123
962.00,0.0114
961.00,0.0106
960.00,0.0101
959.00,0.0097
958.00,0.0094
957.00,0.0092
956.00,0.0090
955.00,0.0088
954.00,0.0086
953.00,0.0085
952.00,0.0084
951.00,0.0084
950.00,0.0083
949.00,0.0083
948.00,0.0083
947.00,0.0083
946.00,0.0084
945.00,0.0086
944.00,0.0088
943.00,0.0092
942.00,0.0095
941.00,0.0097
940.00,0.0097
939.00,0.0094
938.00,0.0089
937.00,0.0083
936.00,0.0077
935.00,0.0073
934.00,0.0070
933.00,0.0068
932.00,0.0066
931.00,0.0065
930.00,0.0064
929.00,0.0064
928.00,0.0064
927.00,0.0064
926.00,0.0064
925.00,0.0063
924.00,0.0062
923.00,0.0061
922.00,0.0061
921.00,0.0062
920.00,0.0063
919.00,0.0064
918.00,0.0064
917.00,0.0064
916.00,0.0063
915.00,0.0064
914.00,0.0065
913.00,0.0066
912.00,0.0069
911.00,0.0071
910.00,0.0074
909.00,0.0077
908.00,0.0079
907.00,0.0082
906.00,0.0088
905.00,0.0097
904.00,0.0108
903.00,0.0123
902.00,0.0140
901.00,0.0156
900.00,0.0166
899.00,0.0168
898.00,0.0162
897.00,0.0149
896.00,0.0133
895.00,0.0118
894.00,0.0105
893.00,0.0094
892.00,0.0086
891.00,0.0081
890.00,0.0078
889.00,0.0076
888.00,0.0076
887.00,0.0075
886.00,0.0073
885.00,0.0071
884.00,0.0069
883.00,0.0069
882.00,0.0069
881.00,0.0070
880.00,0.0071
879.00,0.0072
878.00,0.0073
877.00,0.0074
876.00,0.0076
875.00,0.0078
874.00,0.0079
873.00,0.0078
872.00,0.0077
871.00,0.0075
870.00,0.0074
869.00,0.0074
868.00,0.0074
867.00,0.0075
866.00,0.0077
865.00,0.0080
864.00,0.0082
863.00,0.0083
862.00,0.0084
861.00,0.0084
860.00,0.0085
859.00,0.0085
858.00,0.0086
857.00,0.0087
856.00,0.0088
855.00,0.0090
854.00,0.0093
853.00,0.0097
852.00,0.0101
851.00,0.0106
850.00,0.0112
849.00,0.0120
848.00,0.0131
847.00,0.0147
846.00,0.0171
845.00,0.0209
844.00,0.0263
843.00,0.0328
842.00,0.0384
841.00,0.0405
840.00,0.0381
839.00,0.0323
838.00,0.0258
837.00,0.0205
836.00,0.0169
835.00,0.0148
834.00,0.0134
833.00,0.0125
832.00,0.0118
831.00,0.0113
830.00,0.0110
829.00,0.0107
828.00,0.0105
827.00,0.0104
826.00,0.0103
825.00,0.0102
824.00,0.0101
823.00,0.0100
822.00,0.0100
821.00,0.0101
820.00,0.0103
819.00,0.0106
818.00,0.0109
817.00,0.0114
816.00,0.0122
815.00,0.0133
814.00,0.0147
813.00,0.0164
812.00,0.0182
811.00,0.0197
810.00,0.0208
809.00,0.0212
808.00,0.0210
807.00,0.0200
806.00,0.0184
805.00,0.0167
804.00,0.0150
803.00,0.0136
802.00,0.0126
801.00,0.0119
800.00,0.0114
799.00,0.0111
798.00,0.0108
797.00,0.0105
796.00,0.0103
795.00,0.0100
794.00,0.0096
793.00,0.0093
792.00,0.0089
791.00,0.0086
790.00,0.0082
789.00,0.0080
788.00,0.0077
787.00,0.0075
786.00,0.0073
785.00,0.0071
784.00,0.0069
783.00,0.0068
782.00,0.0066
781.00,0.0065
780.00,0.0065
779.00,0.0064
778.00,0.0064
777.00,0.0064
776.00,0.0063
775.00,0.0062
774.00,0.0061
773.00,0.0060
772.00,0.0061
771.00,0.0063
770.00,0.0065
769.00,0.0066
768.00,0.0066
767.00,0.0066
766.00,0.0065
765.00,0.0065
764.00,0.0065
763.00,0.0066
762.00,0.0067
761.00,0.0068
760.00,0.0068
759.00,0.0069
758.00,0.0070
757.00,0.0071
756.00,0.0073
755.00,0.0073
754.00,0.0072
753.00,0.0072
752.00,0.0073
751.00,0.0076
750.00,0.0078
749.00,0.0079
748.00,0.0080
747.00,0.0082
746.00,0.0083
745.00,0.0084
744.00,0.0085
743.00,0.0087
742.00,0.0089
741.00,0.0093
740.00,0.0097
739.00,0.0102
738.00,0.0107
737.00,0.0110
736.00,0.0112
735.00,0.0114
734.00,0.0118
733.00,0.0124
732.00,0.0132
731.00,0.0140
730.00,0.0146
729.00,0.0148
728.00,0.0149
727.00,0.0149
726.00,0.0152
725.00,0.0156
724.00,0.0161
723.00,0.0168
722.00,0.0176
721.00,0.0181
720.00,0.0180
719.00,0.0171
718.00,0.0158
717.00,0.0145
716.00,0.0133
715.00,0.0124
714.00,0.0118
713.00,0.0112
712.00,0.0109
711.00,0.0107
710.00,0.0106
709.00,0.0105
708.00,0.0104
707.00,0.0102
706.00,0.0099
705.00,0.0096
704.00,0.0095
703.00,0.0095
702.00,0.0094
701.00,0.0093
700.00,0.0090
699.00,0.0087
698.00,0.0085
697.00,0.0083
696.00,0.0083
695.00,0.0084
694.00,0.0085
693.00,0.0086
692.00,0.0088
691.00,0.0088
690.00,0.0088
689.00,0.0085
688.00,0.0083
687.00,0.0082
686.00,0.0082
685.00,0.0082
684.00,0.0083
683.00,0.0084
682.00,0.0084
681.00,0.0085
680.00,0.0085
679.00,0.0085
678.00,0.0087
677.00,0.0088
676.00,0.0089
675.00,0.0088
674.00,0.0086
673.00,0.0083
672.00,0.0081
671.00,0.0080
670.00,0.0081
669.00,0.0081
668.00,0.0082
667.00,0.0082
666.00,0.0082
665.00,0.0082
664.00,0.0082
663.00,0.0082
662.00,0.0082
661.00,0.0082
660.00,0.0083
659.00,0.0082
658.00,0.0081
657.00,0.0080
656.00,0.0079
655.00,0.0079
654.00,0.0079
653.00,0.0080
652.00,0.0081
651.00,0.0082
650.00,0.0083
649.00,0.0083
648.00,0.0082
647.00,0.0083
646.00,0.0083
645.00,0.0083
644.00,0.0082
643.00,0.0082
642.00,0.0081
641.00,0.0080
640.00,0.0079
639.00,0.0080
638.00,0.0081
637.00,0.0082
636.00,0.0083
635.00,0.0085
634.00,0.0086
633.00,0.0087
632.00,0.0088
631.00,0.0087
630.00,0.0086
629.00,0.0084
628.00,0.0082
627.00,0.0079
626.00,0.0077
625.00,0.0076
624.00,0.0076
623.00,0.0077
622.00,0.0078
621.00,0.0079
620.00,0.0080
619.00,0.0083
618.00,0.0085
617.00,0.0087
616.00,0.0088
615.00,0.0087
614.00,0.0083
613.00,0.0079
612.00,0.0077
611.00,0.0077
610.00,0.0078
609.00,0.0080
608.00,0.0081
607.00,0.0080
606.00,0.0077
605.00,0.0073
604.00,0.0069
603.00,0.0068
602.00,0.0071
601.00,0.0075
600.00,0.0078
599.00,0.0079
598.00,0.0081
597.00,0.0082
596.00,0.0083
595.00,0.0082
594.00,0.0080
593.00,0.0077
592.00,0.0075
591.00,0.0076
590.00,0.0077
589.00,0.0079
588.00,0.0081
587.00,0.0082
586.00,0.0080
585.00,0.0077
584.00,0.0075
583.00,0.0075
582.00,0.0077
581.00,0.0080
580.00,0.0083
579.00,0.0086
578.00,0.0089
577.00,0.0093
576.00,0.0096
575.00,0.0096
574.00,0.0096
573.00,0.0095
572.00,0.0095
571.00,0.0094
570.00,0.0091
569.00,0.0087
568.00,0.0086
567.00,0.0088
566.00,0.0092
565.00,0.0093
564.00,0.0091
563.00,0.0089
562.00,0.0087
561.00,0.0085
560.00,0.0084
559.00,0.0084
558.00,0.0086
557.00,0.0091
556.00,0.0096
555.00,0.0098
554.00,0.0095
553.00,0.0087
552.00,0.0080
551.00,0.0076
550.00,0.0075
549.00,0.0076
548.00,0.0078
547.00,0.0081
546.00,0.0084
545.00,0.0082
544.00,0.0076
543.00,0.0071
542.00,0.0071
541.00,0.0076
540.00,0.0080
539.00,0.0083
538.00,0.0085
537.00,0.0088
536.00,0.0092
535.00,0.0095
534.00,0.0095
533.00,0.0093
532.00,0.0090
531.00,0.0088
530.00,0.0087
529.00,0.0088
528.00,0.0091
527.00,0.0096
526.00,0.0100
525.00,0.0102
524.00,0.0103
523.00,0.0101
522.00,0.0097
521.00,0.0090
520.00,0.0085
519.00,0.0082
518.00,0.0082
517.00,0.0082
516.00,0.0081
515.00,0.0078
514.00,0.0076
513.00,0.0074
512.00,0.0076
511.00,0.0081
510.00,0.0087
509.00,0.0089
508.00,0.0086
507.00,0.0079
506.00,0.0071
505.00,0.0068
504.00,0.0072
503.00,0.0080
502.00,0.0086
501.00,0.0083
500.00,0.0074
499.00,0.0067
498.00,0.0063
497.00,0.0061
496.00,0.0061
495.00,0.0066
494.00,0.0075
493.00,0.0082
492.00,0.0084
491.00,0.0082
490.00,0.0078
489.00,0.0075
488.00,0.0071
487.00,0.0067
486.00,0.0068
485.00,0.0073
484.00,0.0078
483.00,0.0077
482.00,0.0071
481.00,0.0065
480.00,0.0062
479.00,0.0063
478.00,0.0070
477.00,0.0078
476.00,0.0085
475.00,0.0088
474.00,0.0088
473.00,0.0086
472.00,0.0086
471.00,0.0088
470.00,0.0093
469.00,0.0097
468.00,0.0098
467.00,0.0096
466.00,0.0092
465.00,0.0094
464.00,0.0106
463.00,0.0126
462.00,0.0145
461.00,0.0151
460.00,0.0144
459.00,0.0129
458.00,0.0115
457.00,0.0106
456.00,0.0101
455.00,0.0098
454.00,0.0098
453.00,0.0105
452.00,0.0117
451.00,0.0130
450.00,0.0133
