Created as New Dataset,Sample 225 By Administrator Date Wednesday, September 03 2025
cm-1,A
4000.00,0.0011
3999.00,0.0011
3998.00,0.0011
3997.00,0.0011
3996.00,0.0011
3995.00,0.0011
3994.00,0.0011
3993.00,0.0011
3992.00,0.0011
3991.00,0.0011
3990.00,0.0010
3989.00,0.0010
3988.00,0.0010
3987.00,0.0010
3986.00,0.0010
3985.00,0.0010
3984.00,0.0010
3983.00,0.0010
3982.00,0.0009
3981.00,0.0009
3980.00,0.0009
3979.00,0.0009
3978.00,0.0009
3977.00,0.0009
3976.00,0.0009
3975.00,0.0009
3974.00,0.0009
3973.00,0.0009
3972.00,0.0009
3971.00,0.0009
3970.00,0.0009
3969.00,0.0009
3968.00,0.0009
3967.00,0.0009
3966.00,0.0009
3965.00,0.0009
3964.00,0.0009
3963.00,0.0009
3962.00,0.0009
3961.00,0.0009
3960.00,0.0009
3959.00,0.0009
3958.00,0.0009
3957.00,0.0009
3956.00,0.0009
3955.00,0.0009
3954.00,0.0009
3953.00,0.0009
3952.00,0.0009
3951.00,0.0009
3950.00,0.0009
3949.00,0.0009
3948.00,0.0009
3947.00,0.0009
3946.00,0.0009
3945.00,0.0009
3944.00,0.0009
3943.00,0.0008
3942.00,0.0008
3941.00,0.0008
3940.00,0.0009
3939.00,0.0009
3938.00,0.0009
3937.00,0.0010
3936.00,0.0010
3935.00,0.0011
3934.00,0.0011
3933.00,0.0011
3932.00,0.0011
3931.00,0.0011
3930.00,0.0010
3929.00,0.0010
3928.00,0.0010
3927.00,0.0010
3926.00,0.0010
3925.00,0.0010
3924.00,0.0010
3923.00,0.0010
3922.00,0.0010
3921.00,0.0010
3920.00,0.0010
3919.00,0.0010
3918.00,0.0010
3917.00,0.0009
3916.00,0.0009
3915.00,0.0009
3914.00,0.0009
3913.00,0.0009
3912.00,0.0009
3911.00,0.0009
3910.00,0.0009
3909.00,0.0009
3908.00,0.0009
3907.00,0.0009
3906.00,0.0010
3905.00,0.0010
3904.00,0.0011
3903.00,0.0011
3902.00,0.0011
3901.00,0.0011
3900.00,0.0011
3899.00,0.0010
3898.00,0.0010
3897.00,0.0010
3896.00,0.0010
3895.00,0.0010
3894.00,0.0010
3893.00,0.0010
3892.00,0.0009
3891.00,0.0009
3890.00,0.0009
3889.00,0.0009
3888.00,0.0009
3887.00,0.0010
3886.00,0.0010
3885.00,0.0010
3884.00,0.0010
3883.00,0.0010
3882.00,0.0010
3881.00,0.0010
3880.00,0.0010
3879.00,0.0010
3878.00,0.0010
3877.00,0.0011
3876.00,0.0010
3875.00,0.0010
3874.00,0.0011
3873.00,0.0011
3872.00,0.0011
3871.00,0.0011
3870.00,0.0011
3869.00,0.0011
3868.00,0.0011
3867.00,0.0011
3866.00,0.0010
3865.00,0.0010
3864.00,0.0010
3863.00,0.0010
3862.00,0.0010
3861.00,0.0010
3860.00,0.0010
3859.00,0.0010
3858.00,0.0010
3857.00,0.0010
3856.00,0.0010
3855.00,0.0010
3854.00,0.0010
3853.00,0.0010
3852.00,0.0010
3851.00,0.0010
3850.00,0.0010
3849.00,0.0010
3848.00,0.0010
3847.00,0.0009
3846.00,0.0009
3845.00,0.0009
3844.00,0.0009
3843.00,0.0010
3842.00,0.0011
3841.00,0.0012
3840.00,0.0012
3839.00,0.0012
3838.00,0.0011
3837.00,0.0011
3836.00,0.0011
3835.00,0.0011
3834.00,0.0010
3833.00,0.0010
3832.00,0.0010
3831.00,0.0010
3830.00,0.0009
3829.00,0.0009
3828.00,0.0009
3827.00,0.0009
3826.00,0.0010
3825.00,0.0011
3824.00,0.0011
3823.00,0.0012
3822.00,0.0011
3821.00,0.0011
3820.00,0.0011
3819.00,0.0011
3818.00,0.0011
3817.00,0.0010
3816.00,0.0010
3815.00,0.0010
3814.00,0.0010
3813.00,0.0009
3812.00,0.0009
3811.00,0.0009
3810.00,0.0009
3809.00,0.0010
3808.00,0.0010
3807.00,0.0011
3806.00,0.0011
3805.00,0.0011
3804.00,0.0011
3803.00,0.0010
3802.00,0.0010
3801.00,0.0010
3800.00,0.0010
3799.00,0.0010
3798.00,0.0009
3797.00,0.0009
3796.00,0.0009
3795.00,0.0008
3794.00,0.0008
3793.00,0.0008
3792.00,0.0008
3791.00,0.0008
3790.00,0.0008
3789.00,0.0008
3788.00,0.0008
3787.00,0.0009
3786.00,0.0009
3785.00,0.0009
3784.00,0.0009
3783.00,0.0010
3782.00,0.0010
3781.00,0.0010
3780.00,0.0010
3779.00,0.0009
3778.00,0.0009
3777.00,0.0009
3776.00,0.0009
3775.00,0.0009
3774.00,0.0010
3773.00,0.0010
3772.00,0.0010
3771.00,0.0011
3770.00,0.0011
3769.00,0.0011
3768.00,0.0011
3767.00,0.0011
3766.00,0.0011
3765.00,0.0011
3764.00,0.0011
3763.00,0.0011
3762.00,0.0011
3761.00,0.0011
3760.00,0.0011
3759.00,0.0011
3758.00,0.0011
3757.00,0.0012
3756.00,0.0012
3755.00,0.0012
3754.00,0.0012
3753.00,0.0013
3752.00,0.0013
3751.00,0.0013
3750.00,0.0013
3749.00,0.0013
3748.00,0.0012
3747.00,0.0012
3746.00,0.0011
3745.00,0.0010
3744.00,0.0010
3743.00,0.0011
3742.00,0.0011
3741.00,0.0011
3740.00,0.0011
3739.00,0.0011
3738.00,0.0011
3737.00,0.0011
3736.00,0.0011
3735.00,0.0011
3734.00,0.0011
3733.00,0.0011
3732.00,0.0010
3731.00,0.0010
3730.00,0.0010
3729.00,0.0010
3728.00,0.0010
3727.00,0.0010
3726.00,0.0010
3725.00,0.0010
3724.00,0.0010
3723.00,0.0009
3722.00,0.0009
3721.00,0.0009
3720.00,0.0008
3719.00,0.0008
3718.00,0.0008
3717.00,0.0008
3716.00,0.0008
3715.00,0.0009
3714.00,0.0010
3713.00,0.0010
3712.00,0.0010
3711.00,0.0010
3710.00,0.0010
3709.00,0.0009
3708.00,0.0009
3707.00,0.0008
3706.00,0.0008
3705.00,0.0008
3704.00,0.0008
3703.00,0.0008
3702.00,0.0008
3701.00,0.0008
3700.00,0.0008
3699.00,0.0009
3698.00,0.0009
3697.00,0.0009
3696.00,0.0009
3695.00,0.0009
3694.00,0.0010
3693.00,0.0010
3692.00,0.0010
3691.00,0.0010
3690.00,0.0011
3689.00,0.0011
3688.00,0.0011
3687.00,0.0010
3686.00,0.0010
3685.00,0.0009
3684.00,0.0009
3683.00,0.0009
3682.00,0.0009
3681.00,0.0009
3680.00,0.0009
3679.00,0.0010
3678.00,0.0011
3677.00,0.0011
3676.00,0.0012
3675.00,0.0012
3674.00,0.0012
3673.00,0.0012
3672.00,0.0012
3671.00,0.0011
3670.00,0.0010
3669.00,0.0010
3668.00,0.0009
3667.00,0.0009
3666.00,0.0008
3665.00,0.0008
3664.00,0.0008
3663.00,0.0007
3662.00,0.0007
3661.00,0.0007
3660.00,0.0007
3659.00,0.0008
3658.00,0.0008
3657.00,0.0008
3656.00,0.0008
3655.00,0.0008
3654.00,0.0009
3653.00,0.0009
3652.00,0.0010
3651.00,0.0011
3650.00,0.0012
3649.00,0.0012
3648.00,0.0012
3647.00,0.0011
3646.00,0.0010
3645.00,0.0009
3644.00,0.0009
3643.00,0.0009
3642.00,0.0009
3641.00,0.0009
3640.00,0.0009
3639.00,0.0009
3638.00,0.0009
3637.00,0.0009
3636.00,0.0009
3635.00,0.0009
3634.00,0.0009
3633.00,0.0009
3632.00,0.0010
3631.00,0.0010
3630.00,0.0011
3629.00,0.0011
3628.00,0.0011
3627.00,0.0010
3626.00,0.0010
3625.00,0.0011
3624.00,0.0011
3623.00,0.0011
3622.00,0.0012
3621.00,0.0012
3620.00,0.0012
3619.00,0.0012
3618.00,0.0012
3617.00,0.0013
3616.00,0.0013
3615.00,0.0013
3614.00,0.0013
3613.00,0.0014
3612.00,0.0014
3611.00,0.0015
3610.00,0.0015
3609.00,0.0014
3608.00,0.0014
3607.00,0.0012
3606.00,0.0012
3605.00,0.0011
3604.00,0.0012
3603.00,0.0012
3602.00,0.0012
3601.00,0.0012
3600.00,0.0013
3599.00,0.0013
3598.00,0.0013
3597.00,0.0013
3596.00,0.0013
3595.00,0.0013
3594.00,0.0013
3593.00,0.0013
3592.00,0.0014
3591.00,0.0015
3590.00,0.0015
3589.00,0.0016
3588.00,0.0015
3587.00,0.0015
3586.00,0.0015
3585.00,0.0015
3584.00,0.0015
3583.00,0.0015
3582.00,0.0015
3581.00,0.0015
3580.00,0.0015
3579.00,0.0016
3578.00,0.0016
3577.00,0.0016
3576.00,0.0016
3575.00,0.0016
3574.00,0.0016
3573.00,0.0016
3572.00,0.0016
3571.00,0.0016
3570.00,0.0016
3569.00,0.0017
3568.00,0.0017
3567.00,0.0018
3566.00,0.0018
3565.00,0.0018
3564.00,0.0018
3563.00,0.0019
3562.00,0.0019
3561.00,0.0019
3560.00,0.0018
3559.00,0.0018
3558.00,0.0018
3557.00,0.0019
3556.00,0.0019
3555.00,0.0020
3554.00,0.0020
3553.00,0.0021
3552.00,0.0021
3551.00,0.0021
3550.00,0.0022
3549.00,0.0022
3548.00,0.0023
3547.00,0.0023
3546.00,0.0023
3545.00,0.0023
3544.00,0.0023
3543.00,0.0023
3542.00,0.0023
3541.00,0.0023
3540.00,0.0023
3539.00,0.0023
3538.00,0.0023
3537.00,0.0024
3536.00,0.0024
3535.00,0.0025
3534.00,0.0025
3533.00,0.0025
3532.00,0.0025
3531.00,0.0025
3530.00,0.0025
3529.00,0.0025
3528.00,0.0026
3527.00,0.0026
3526.00,0.0027
3525.00,0.0027
3524.00,0.0027
3523.00,0.0027
3522.00,0.0027
3521.00,0.0028
3520.00,0.0028
3519.00,0.0028
3518.00,0.0028
3517.00,0.0028
3516.00,0.0028
3515.00,0.0028
3514.00,0.0029
3513.00,0.0029
3512.00,0.0030
3511.00,0.0030
3510.00,0.0030
3509.00,0.0030
3508.00,0.0031
3507.00,0.0031
3506.00,0.0031
3505.00,0.0031
3504.00,0.0031
3503.00,0.0031
3502.00,0.0031
3501.00,0.0032
3500.00,0.0032
3499.00,0.0032
3498.00,0.0033
3497.00,0.0033
3496.00,0.0033
3495.00,0.0033
3494.00,0.0033
3493.00,0.0034
3492.00,0.0034
3491.00,0.0035
3490.00,0.0035
3489.00,0.0035
3488.00,0.0036
3487.00,0.0036
3486.00,0.0036
3485.00,0.0036
3484.00,0.0037
3483.00,0.0037
3482.00,0.0038
3481.00,0.0038
3480.00,0.0038
3479.00,0.0038
3478.00,0.0038
3477.00,0.0038
3476.00,0.0037
3475.00,0.0037
3474.00,0.0037
3473.00,0.0038
3472.00,0.0039
3471.00,0.0039
3470.00,0.0040
3469.00,0.0040
3468.00,0.0039
3467.00,0.0039
3466.00,0.0040
3465.00,0.0040
3464.00,0.0041
3463.00,0.0041
3462.00,0.0042
3461.00,0.0042
3460.00,0.0043
3459.00,0.0043
3458.00,0.0042
3457.00,0.0042
3456.00,0.0042
3455.00,0.0042
3454.00,0.0042
3453.00,0.0042
3452.00,0.0043
3451.00,0.0043
3450.00,0.0043
3449.00,0.0044
3448.00,0.0044
3447.00,0.0044
3446.00,0.0045
3445.00,0.0045
3444.00,0.0045
3443.00,0.0046
3442.00,0.0046
3441.00,0.0046
3440.00,0.0046
3439.00,0.0046
3438.00,0.0046
3437.00,0.0046
3436.00,0.0046
3435.00,0.0047
3434.00,0.0047
3433.00,0.0047
3432.00,0.0048
3431.00,0.0048
3430.00,0.0048
3429.00,0.0047
3428.00,0.0047
3427.00,0.0047
3426.00,0.0048
3425.00,0.0048
3424.00,0.0048
3423.00,0.0048
3422.00,0.0049
3421.00,0.0049
3420.00,0.0049
3419.00,0.0050
3418.00,0.0050
3417.00,0.0050
3416.00,0.0050
3415.00,0.0051
3414.00,0.0052
3413.00,0.0052
3412.00,0.0052
3411.00,0.0052
3410.00,0.0052
3409.00,0.0052
3408.00,0.0052
3407.00,0.0052
3406.00,0.0052
3405.00,0.0052
3404.00,0.0052
3403.00,0.0052
3402.00,0.0053
3401.00,0.0054
3400.00,0.0054
3399.00,0.0055
3398.00,0.0055
3397.00,0.0055
3396.00,0.0055
3395.00,0.0055
3394.00,0.0054
3393.00,0.0054
3392.00,0.0054
3391.00,0.0054
3390.00,0.0054
3389.00,0.0054
3388.00,0.0054
3387.00,0.0054
3386.00,0.0054
3385.00,0.0054
3384.00,0.0054
3383.00,0.0053
3382.00,0.0053
3381.00,0.0053
3380.00,0.0053
3379.00,0.0053
3378.00,0.0054
3377.00,0.0054
3376.00,0.0053
3375.00,0.0053
3374.00,0.0053
3373.00,0.0053
3372.00,0.0053
3371.00,0.0052
3370.00,0.0052
3369.00,0.0053
3368.00,0.0054
3367.00,0.0054
3366.00,0.0054
3365.00,0.0054
3364.00,0.0054
3363.00,0.0054
3362.00,0.0054
3361.00,0.0054
3360.00,0.0054
3359.00,0.0054
3358.00,0.0054
3357.00,0.0054
3356.00,0.0054
3355.00,0.0054
3354.00,0.0054
3353.00,0.0053
3352.00,0.0053
3351.00,0.0053
3350.00,0.0053
3349.00,0.0054
3348.00,0.0054
3347.00,0.0054
3346.00,0.0053
3345.00,0.0053
3344.00,0.0053
3343.00,0.0052
3342.00,0.0053
3341.00,0.0053
3340.00,0.0053
3339.00,0.0053
3338.00,0.0053
3337.00,0.0053
3336.00,0.0053
3335.00,0.0053
3334.00,0.0053
3333.00,0.0052
3332.00,0.0052
3331.00,0.0051
3330.00,0.0051
3329.00,0.0051
3328.00,0.0051
3327.00,0.0051
3326.00,0.0051
3325.00,0.0051
3324.00,0.0051
3323.00,0.0051
3322.00,0.0051
3321.00,0.0051
3320.00,0.0051
3319.00,0.0051
3318.00,0.0051
3317.00,0.0051
3316.00,0.0050
3315.00,0.0050
3314.00,0.0050
3313.00,0.0051
3312.00,0.0051
3311.00,0.0052
3310.00,0.0052
3309.00,0.0052
3308.00,0.0052
3307.00,0.0052
3306.00,0.0053
3305.00,0.0053
3304.00,0.0053
3303.00,0.0053
3302.00,0.0053
3301.00,0.0053
3300.00,0.0053
3299.00,0.0052
3298.00,0.0052
3297.00,0.0051
3296.00,0.0051
3295.00,0.0050
3294.00,0.0050
3293.00,0.0050
3292.00,0.0050
3291.00,0.0050
3290.00,0.0049
3289.00,0.0049
3288.00,0.0049
3287.00,0.0049
3286.00,0.0049
3285.00,0.0049
3284.00,0.0048
3283.00,0.0048
3282.00,0.0048
3281.00,0.0048
3280.00,0.0048
3279.00,0.0048
3278.00,0.0047
3277.00,0.0047
3276.00,0.0046
3275.00,0.0045
3274.00,0.0045
3273.00,0.0045
3272.00,0.0045
3271.00,0.0045
3270.00,0.0045
3269.00,0.0045
3268.00,0.0046
3267.00,0.0046
3266.00,0.0045
3265.00,0.0045
3264.00,0.0045
3263.00,0.0044
3262.00,0.0044
3261.00,0.0044
3260.00,0.0044
3259.00,0.0043
3258.00,0.0043
3257.00,0.0043
3256.00,0.0043
3255.00,0.0043
3254.00,0.0042
3253.00,0.0042
3252.00,0.0042
3251.00,0.0042
3250.00,0.0042
3249.00,0.0042
3248.00,0.0043
3247.00,0.0042
3246.00,0.0042
3245.00,0.0042
3244.00,0.0042
3243.00,0.0042
3242.00,0.0041
3241.00,0.0041
3240.00,0.0041
3239.00,0.0041
3238.00,0.0041
3237.00,0.0041
3236.00,0.0041
3235.00,0.0041
3234.00,0.0041
3233.00,0.0041
3232.00,0.0041
3231.00,0.0042
3230.00,0.0042
3229.00,0.0042
3228.00,0.0042
3227.00,0.0042
3226.00,0.0042
3225.00,0.0042
3224.00,0.0042
3223.00,0.0042
3222.00,0.0043
3221.00,0.0043
3220.00,0.0043
3219.00,0.0043
3218.00,0.0044
3217.00,0.0044
3216.00,0.0044
3215.00,0.0044
3214.00,0.0044
3213.00,0.0045
3212.00,0.0045
3211.00,0.0046
3210.00,0.0046
3209.00,0.0046
3208.00,0.0046
3207.00,0.0046
3206.00,0.0046
3205.00,0.0046
3204.00,0.0046
3203.00,0.0046
3202.00,0.0046
3201.00,0.0046
3200.00,0.0046
3199.00,0.0046
3198.00,0.0046
3197.00,0.0046
3196.00,0.0046
3195.00,0.0046
3194.00,0.0046
3193.00,0.0047
3192.00,0.0047
3191.00,0.0047
3190.00,0.0046
3189.00,0.0046
3188.00,0.0045
3187.00,0.0045
3186.00,0.0046
3185.00,0.0046
3184.00,0.0046
3183.00,0.0046
3182.00,0.0046
3181.00,0.0045
3180.00,0.0044
3179.00,0.0044
3178.00,0.0044
3177.00,0.0043
3176.00,0.0043
3175.00,0.0044
3174.00,0.0043
3173.00,0.0043
3172.00,0.0043
3171.00,0.0042
3170.00,0.0042
3169.00,0.0042
3168.00,0.0042
3167.00,0.0041
3166.00,0.0041
3165.00,0.0041
3164.00,0.0041
3163.00,0.0041
3162.00,0.0041
3161.00,0.0041
3160.00,0.0041
3159.00,0.0040
3158.00,0.0040
3157.00,0.0039
3156.00,0.0039
3155.00,0.0039
3154.00,0.0040
3153.00,0.0040
3152.00,0.0040
3151.00,0.0040
3150.00,0.0040
3149.00,0.0040
3148.00,0.0041
3147.00,0.0041
3146.00,0.0040
3145.00,0.0040
3144.00,0.0040
3143.00,0.0039
3142.00,0.0039
3141.00,0.0039
3140.00,0.0039
3139.00,0.0039
3138.00,0.0039
3137.00,0.0039
3136.00,0.0038
3135.00,0.0038
3134.00,0.0038
3133.00,0.0038
3132.00,0.0038
3131.00,0.0038
3130.00,0.0037
3129.00,0.0037
3128.00,0.0036
3127.00,0.0036
3126.00,0.0036
3125.00,0.0036
3124.00,0.0036
3123.00,0.0036
3122.00,0.0036
3121.00,0.0035
3120.00,0.0035
3119.00,0.0035
3118.00,0.0035
3117.00,0.0035
3116.00,0.0034
3115.00,0.0034
3114.00,0.0034
3113.00,0.0034
3112.00,0.0033
3111.00,0.0033
3110.00,0.0033
3109.00,0.0033
3108.00,0.0033
3107.00,0.0033
3106.00,0.0033
3105.00,0.0033
3104.00,0.0033
3103.00,0.0033
3102.00,0.0033
3101.00,0.0032
3100.00,0.0032
3099.00,0.0032
3098.00,0.0032
3097.00,0.0032
3096.00,0.0032
3095.00,0.0032
3094.00,0.0032
3093.00,0.0032
3092.00,0.0032
3091.00,0.0031
3090.00,0.0031
3089.00,0.0030
3088.00,0.0030
3087.00,0.0030
3086.00,0.0031
3085.00,0.0031
3084.00,0.0031
3083.00,0.0031
3082.00,0.0031
3081.00,0.0031
3080.00,0.0031
3079.00,0.0031
3078.00,0.0031
3077.00,0.0031
3076.00,0.0031
3075.00,0.0031
3074.00,0.0031
3073.00,0.0031
3072.00,0.0031
3071.00,0.0031
3070.00,0.0031
3069.00,0.0031
3068.00,0.0032
3067.00,0.0032
3066.00,0.0032
3065.00,0.0032
3064.00,0.0032
3063.00,0.0033
3062.00,0.0033
3061.00,0.0034
3060.00,0.0034
3059.00,0.0034
3058.00,0.0033
3057.00,0.0033
3056.00,0.0033
3055.00,0.0033
3054.00,0.0033
3053.00,0.0033
3052.00,0.0033
3051.00,0.0034
3050.00,0.0034
3049.00,0.0034
3048.00,0.0035
3047.00,0.0035
3046.00,0.0035
3045.00,0.0035
3044.00,0.0036
3043.00,0.0036
3042.00,0.0036
3041.00,0.0037
3040.00,0.0037
3039.00,0.0037
3038.00,0.0038
3037.00,0.0038
3036.00,0.0038
3035.00,0.0039
3034.00,0.0039
3033.00,0.0039
3032.00,0.0040
3031.00,0.0040
3030.00,0.0040
3029.00,0.0041
3028.00,0.0041
3027.00,0.0042
3026.00,0.0042
3025.00,0.0043
3024.00,0.0043
3023.00,0.0044
3022.00,0.0045
3021.00,0.0046
3020.00,0.0047
3019.00,0.0048
3018.00,0.0049
3017.00,0.0050
3016.00,0.0051
3015.00,0.0051
3014.00,0.0052
3013.00,0.0053
3012.00,0.0054
3011.00,0.0055
3010.00,0.0056
3009.00,0.0057
3008.00,0.0059
3007.00,0.0060
3006.00,0.0061
3005.00,0.0063
3004.00,0.0065
3003.00,0.0066
3002.00,0.0068
3001.00,0.0070
3000.00,0.0073
2999.00,0.0075
2998.00,0.0078
2997.00,0.0081
2996.00,0.0085
2995.00,0.0089
2994.00,0.0093
2993.00,0.0098
2992.00,0.0103
2991.00,0.0109
2990.00,0.0115
2989.00,0.0123
2988.00,0.0130
2987.00,0.0139
2986.00,0.0148
2985.00,0.0159
2984.00,0.0170
2983.00,0.0183
2982.00,0.0198
2981.00,0.0216
2980.00,0.0236
2979.00,0.0260
2978.00,0.0286
2977.00,0.0317
2976.00,0.0351
2975.00,0.0391
2974.00,0.0436
2973.00,0.0488
2972.00,0.0546
2971.00,0.0613
2970.00,0.0687
2969.00,0.0770
2968.00,0.0861
2967.00,0.0960
2966.00,0.1067
2965.00,0.1179
2964.00,0.1293
2963.00,0.1404
2962.00,0.1508
2961.00,0.1597
2960.00,0.1670
2959.00,0.1724
2958.00,0.1762
2957.00,0.1788
2956.00,0.1809
2955.00,0.1829
2954.00,0.1851
2953.00,0.1873
2952.00,0.1889
2951.00,0.1890
2950.00,0.1869
2949.00,0.1820
2948.00,0.1741
2947.00,0.1640
2946.00,0.1524
2945.00,0.1405
2944.00,0.1294
2943.00,0.1200
2942.00,0.1127
2941.00,0.1078
2940.00,0.1051
2939.00,0.1045
2938.00,0.1057
2937.00,0.1086
2936.00,0.1130
2935.00,0.1187
2934.00,0.1256
2933.00,0.1337
2932.00,0.1426
2931.00,0.1522
2930.00,0.1623
2929.00,0.1725
2928.00,0.1826
2927.00,0.1922
2926.00,0.2014
2925.00,0.2100
2924.00,0.2182
2923.00,0.2261
2922.00,0.2336
2921.00,0.2406
2920.00,0.2464
2919.00,0.2505
2918.00,0.2522
2917.00,0.2512
2916.00,0.2474
2915.00,0.2412
2914.00,0.2337
2913.00,0.2255
2912.00,0.2175
2911.00,0.2102
2910.00,0.2037
2909.00,0.1980
2908.00,0.1928
2907.00,0.1877
2906.00,0.1824
2905.00,0.1768
2904.00,0.1709
2903.00,0.1646
2902.00,0.1582
2901.00,0.1518
2900.00,0.1454
2899.00,0.1392
2898.00,0.1334
2897.00,0.1280
2896.00,0.1232
2895.00,0.1189
2894.00,0.1152
2893.00,0.1121
2892.00,0.1096
2891.00,0.1076
2890.00,0.1061
2889.00,0.1051
2888.00,0.1044
2887.00,0.1041
2886.00,0.1041
2885.00,0.1045
2884.00,0.1052
2883.00,0.1063
2882.00,0.1077
2881.00,0.1093
2880.00,0.1109
2879.00,0.1122
2878.00,0.1129
2877.00,0.1129
2876.00,0.1123
2875.00,0.1116
2874.00,0.1110
2873.00,0.1110
2872.00,0.1117
2871.00,0.1130
2870.00,0.1145
2869.00,0.1160
2868.00,0.1166
2867.00,0.1160
2866.00,0.1135
2865.00,0.1091
2864.00,0.1033
2863.00,0.0968
2862.00,0.0904
2861.00,0.0850
2860.00,0.0809
2859.00,0.0782
2858.00,0.0769
2857.00,0.0767
2856.00,0.0774
2855.00,0.0788
2854.00,0.0806
2853.00,0.0826
2852.00,0.0847
2851.00,0.0865
2850.00,0.0878
2849.00,0.0889
2848.00,0.0898
2847.00,0.0912
2846.00,0.0935
2845.00,0.0969
2844.00,0.1014
2843.00,0.1067
2842.00,0.1125
2841.00,0.1179
2840.00,0.1222
2839.00,0.1246
2838.00,0.1242
2837.00,0.1208
2836.00,0.1142
2835.00,0.1052
2834.00,0.0946
2833.00,0.0836
2832.00,0.0732
2831.00,0.0640
2830.00,0.0562
2829.00,0.0498
2828.00,0.0446
2827.00,0.0403
2826.00,0.0369
2825.00,0.0340
2824.00,0.0316
2823.00,0.0296
2822.00,0.0279
2821.00,0.0263
2820.00,0.0250
2819.00,0.0239
2818.00,0.0229
2817.00,0.0220
2816.00,0.0212
2815.00,0.0205
2814.00,0.0198
2813.00,0.0192
2812.00,0.0186
2811.00,0.0181
2810.00,0.0176
2809.00,0.0171
2808.00,0.0166
2807.00,0.0160
2806.00,0.0153
2805.00,0.0147
2804.00,0.0141
2803.00,0.0135
2802.00,0.0130
2801.00,0.0125
2800.00,0.0122
2799.00,0.0119
2798.00,0.0116
2797.00,0.0114
2796.00,0.0112
2795.00,0.0110
2794.00,0.0107
2793.00,0.0104
2792.00,0.0101
2791.00,0.0098
2790.00,0.0094
2789.00,0.0091
2788.00,0.0087
2787.00,0.0084
2786.00,0.0081
2785.00,0.0078
2784.00,0.0075
2783.00,0.0072
2782.00,0.0070
2781.00,0.0068
2780.00,0.0066
2779.00,0.0065
2778.00,0.0064
2777.00,0.0062
2776.00,0.0061
2775.00,0.0060
2774.00,0.0059
2773.00,0.0059
2772.00,0.0058
2771.00,0.0058
2770.00,0.0057
2769.00,0.0057
2768.00,0.0056
2767.00,0.0056
2766.00,0.0055
2765.00,0.0055
2764.00,0.0055
2763.00,0.0055
2762.00,0.0054
2761.00,0.0054
2760.00,0.0054
2759.00,0.0053
2758.00,0.0053
2757.00,0.0052
2756.00,0.0052
2755.00,0.0052
2754.00,0.0052
2753.00,0.0052
2752.00,0.0052
2751.00,0.0052
2750.00,0.0052
2749.00,0.0052
2748.00,0.0052
2747.00,0.0052
2746.00,0.0053
2745.00,0.0053
2744.00,0.0054
2743.00,0.0054
2742.00,0.0055
2741.00,0.0056
2740.00,0.0057
2739.00,0.0058
2738.00,0.0060
2737.00,0.0061
2736.00,0.0062
2735.00,0.0063
2734.00,0.0065
2733.00,0.0066
2732.00,0.0068
2731.00,0.0069
2730.00,0.0071
2729.00,0.0074
2728.00,0.0076
2727.00,0.0079
2726.00,0.0081
2725.00,0.0083
2724.00,0.0084
2723.00,0.0085
2722.00,0.0084
2721.00,0.0082
2720.00,0.0080
2719.00,0.0077
2718.00,0.0074
2717.00,0.0071
2716.00,0.0069
2715.00,0.0066
2714.00,0.0064
2713.00,0.0062
2712.00,0.0060
2711.00,0.0058
2710.00,0.0056
2709.00,0.0055
2708.00,0.0054
2707.00,0.0054
2706.00,0.0053
2705.00,0.0052
2704.00,0.0050
2703.00,0.0049
2702.00,0.0048
2701.00,0.0047
2700.00,0.0047
2699.00,0.0047
2698.00,0.0046
2697.00,0.0046
2696.00,0.0046
2695.00,0.0046
2694.00,0.0046
2693.00,0.0046
2692.00,0.0046
2691.00,0.0046
2690.00,0.0046
2689.00,0.0046
2688.00,0.0046
2687.00,0.0046
2686.00,0.0046
2685.00,0.0045
2684.00,0.0045
2683.00,0.0046
2682.00,0.0046
2681.00,0.0046
2680.00,0.0046
2679.00,0.0046
2678.00,0.0046
2677.00,0.0046
2676.00,0.0046
2675.00,0.0046
2674.00,0.0045
2673.00,0.0045
2672.00,0.0045
2671.00,0.0045
2670.00,0.0044
2669.00,0.0044
2668.00,0.0045
2667.00,0.0045
2666.00,0.0045
2665.00,0.0045
2664.00,0.0046
2663.00,0.0046
2662.00,0.0047
2661.00,0.0047
2660.00,0.0048
2659.00,0.0048
2658.00,0.0048
2657.00,0.0048
2656.00,0.0048
2655.00,0.0048
2654.00,0.0047
2653.00,0.0046
2652.00,0.0046
2651.00,0.0045
2650.00,0.0045
2649.00,0.0045
2648.00,0.0044
2647.00,0.0044
2646.00,0.0043
2645.00,0.0043
2644.00,0.0043
2643.00,0.0042
2642.00,0.0042
2641.00,0.0041
2640.00,0.0040
2639.00,0.0040
2638.00,0.0039
2637.00,0.0039
2636.00,0.0039
2635.00,0.0040
2634.00,0.0040
2633.00,0.0040
2632.00,0.0040
2631.00,0.0040
2630.00,0.0040
2629.00,0.0040
2628.00,0.0040
2627.00,0.0040
2626.00,0.0040
2625.00,0.0041
2624.00,0.0041
2623.00,0.0041
2622.00,0.0041
2621.00,0.0041
2620.00,0.0041
2619.00,0.0041
2618.00,0.0041
2617.00,0.0041
2616.00,0.0041
2615.00,0.0041
2614.00,0.0040
2613.00,0.0039
2612.00,0.0039
2611.00,0.0039
2610.00,0.0038
2609.00,0.0037
2608.00,0.0036
2607.00,0.0035
2606.00,0.0034
2605.00,0.0034
2604.00,0.0033
2603.00,0.0032
2602.00,0.0031
2601.00,0.0031
2600.00,0.0031
2599.00,0.0031
2598.00,0.0031
2597.00,0.0031
2596.00,0.0032
2595.00,0.0032
2594.00,0.0032
2593.00,0.0032
2592.00,0.0032
2591.00,0.0032
2590.00,0.0033
2589.00,0.0033
2588.00,0.0034
2587.00,0.0035
2586.00,0.0036
2585.00,0.0037
2584.00,0.0038
2583.00,0.0038
2582.00,0.0038
2581.00,0.0038
2580.00,0.0036
2579.00,0.0035
2578.00,0.0034
2577.00,0.0033
2576.00,0.0032
2575.00,0.0032
2574.00,0.0030
2573.00,0.0029
2572.00,0.0028
2571.00,0.0027
2570.00,0.0027
2569.00,0.0027
2568.00,0.0026
2567.00,0.0026
2566.00,0.0026
2565.00,0.0025
2564.00,0.0025
2563.00,0.0025
2562.00,0.0025
2561.00,0.0025
2560.00,0.0024
2559.00,0.0024
2558.00,0.0023
2557.00,0.0023
2556.00,0.0023
2555.00,0.0023
2554.00,0.0023
2553.00,0.0023
2552.00,0.0022
2551.00,0.0021
2550.00,0.0020
2549.00,0.0019
2548.00,0.0019
2547.00,0.0019
2546.00,0.0019
2545.00,0.0019
2544.00,0.0019
2543.00,0.0019
2542.00,0.0018
2541.00,0.0018
2540.00,0.0017
2539.00,0.0016
2538.00,0.0016
2537.00,0.0016
2536.00,0.0015
2535.00,0.0015
2534.00,0.0015
2533.00,0.0015
2532.00,0.0015
2531.00,0.0015
2530.00,0.0015
2529.00,0.0015
2528.00,0.0015
2527.00,0.0015
2526.00,0.0015
2525.00,0.0015
2524.00,0.0014
2523.00,0.0013
2522.00,0.0013
2521.00,0.0013
2520.00,0.0012
2519.00,0.0012
2518.00,0.0012
2517.00,0.0012
2516.00,0.0012
2515.00,0.0012
2514.00,0.0011
2513.00,0.0011
2512.00,0.0011
2511.00,0.0012
2510.00,0.0012
2509.00,0.0012
2508.00,0.0012
2507.00,0.0011
2506.00,0.0011
2505.00,0.0010
2504.00,0.0010
2503.00,0.0010
2502.00,0.0010
2501.00,0.0010
2500.00,0.0011
2499.00,0.0011
2498.00,0.0011
2497.00,0.0012
2496.00,0.0012
2495.00,0.0011
2494.00,0.0011
2493.00,0.0011
2492.00,0.0011
2491.00,0.0011
2490.00,0.0011
2489.00,0.0010
2488.00,0.0009
2487.00,0.0009
2486.00,0.0009
2485.00,0.0009
2484.00,0.0010
2483.00,0.0010
2482.00,0.0010
2481.00,0.0010
2480.00,0.0010
2479.00,0.0010
2478.00,0.0009
2477.00,0.0010
2476.00,0.0010
2475.00,0.0010
2474.00,0.0010
2473.00,0.0010
2472.00,0.0009
2471.00,0.0009
2470.00,0.0010
2469.00,0.0010
2468.00,0.0011
2467.00,0.0011
2466.00,0.0011
2465.00,0.0011
2464.00,0.0011
2463.00,0.0010
2462.00,0.0010
2461.00,0.0009
2460.00,0.0009
2459.00,0.0010
2458.00,0.0011
2457.00,0.0011
2456.00,0.0012
2455.00,0.0012
2454.00,0.0012
2453.00,0.0011
2452.00,0.0011
2451.00,0.0011
2450.00,0.0011
2449.00,0.0012
2448.00,0.0012
2447.00,0.0012
2446.00,0.0011
2445.00,0.0011
2444.00,0.0011
2443.00,0.0011
2442.00,0.0010
2441.00,0.0010
2440.00,0.0010
2439.00,0.0011
2438.00,0.0011
2437.00,0.0012
2436.00,0.0013
2435.00,0.0013
2434.00,0.0013
2433.00,0.0013
2432.00,0.0013
2431.00,0.0013
2430.00,0.0013
2429.00,0.0013
2428.00,0.0012
2427.00,0.0012
2426.00,0.0012
2425.00,0.0011
2424.00,0.0011
2423.00,0.0011
2422.00,0.0011
2421.00,0.0011
2420.00,0.0011
2419.00,0.0011
2418.00,0.0011
2417.00,0.0011
2416.00,0.0011
2415.00,0.0010
2414.00,0.0010
2413.00,0.0010
2412.00,0.0010
2411.00,0.0010
2410.00,0.0010
2409.00,0.0010
2408.00,0.0010
2407.00,0.0009
2406.00,0.0009
2405.00,0.0009
2404.00,0.0009
2403.00,0.0009
2402.00,0.0009
2401.00,0.0009
2400.00,0.0009
2399.00,0.0009
2398.00,0.0009
2397.00,0.0009
2396.00,0.0009
2395.00,0.0009
2394.00,0.0008
2393.00,0.0007
2392.00,0.0007
2391.00,0.0007
2390.00,0.0008
2389.00,0.0009
2388.00,0.0008
2387.00,0.0008
2386.00,0.0007
2385.00,0.0007
2384.00,0.0006
2383.00,0.0006
2382.00,0.0007
2381.00,0.0007
2380.00,0.0007
2379.00,0.0006
2378.00,0.0006
2377.00,0.0006
2376.00,0.0006
2375.00,0.0006
2374.00,0.0006
2373.00,0.0006
2372.00,0.0006
2371.00,0.0006
2370.00,0.0005
2369.00,0.0005
2368.00,0.0005
2367.00,0.0005
2366.00,0.0005
2365.00,0.0005
2364.00,0.0006
2363.00,0.0006
2362.00,0.0006
2361.00,0.0006
2360.00,0.0006
2359.00,0.0006
2358.00,0.0007
2357.00,0.0007
2356.00,0.0007
2355.00,0.0007
2354.00,0.0006
2353.00,0.0006
2352.00,0.0007
2351.00,0.0007
2350.00,0.0007
2349.00,0.0008
2348.00,0.0008
2347.00,0.0008
2346.00,0.0009
2345.00,0.0010
2344.00,0.0010
2343.00,0.0009
2342.00,0.0009
2341.00,0.0009
2340.00,0.0010
2339.00,0.0011
2338.00,0.0012
2337.00,0.0013
2336.00,0.0013
2335.00,0.0012
2334.00,0.0011
2333.00,0.0010
2332.00,0.0009
2331.00,0.0008
2330.00,0.0009
2329.00,0.0009
2328.00,0.0011
2327.00,0.0014
2326.00,0.0018
2325.00,0.0021
2324.00,0.0023
2323.00,0.0023
2322.00,0.0022
2321.00,0.0020
2320.00,0.0018
2319.00,0.0017
2318.00,0.0016
2317.00,0.0016
2316.00,0.0015
2315.00,0.0014
2314.00,0.0013
2313.00,0.0013
2312.00,0.0013
2311.00,0.0012
2310.00,0.0012
2309.00,0.0012
2308.00,0.0013
2307.00,0.0014
2306.00,0.0014
2305.00,0.0014
2304.00,0.0014
2303.00,0.0014
2302.00,0.0014
2301.00,0.0014
2300.00,0.0013
2299.00,0.0013
2298.00,0.0013
2297.00,0.0013
2296.00,0.0013
2295.00,0.0014
2294.00,0.0016
2293.00,0.0017
2292.00,0.0018
2291.00,0.0019
2290.00,0.0019
2289.00,0.0019
2288.00,0.0019
2287.00,0.0019
2286.00,0.0019
2285.00,0.0020
2284.00,0.0020
2283.00,0.0019
2282.00,0.0019
2281.00,0.0018
2280.00,0.0017
2279.00,0.0016
2278.00,0.0015
2277.00,0.0016
2276.00,0.0016
2275.00,0.0016
2274.00,0.0016
2273.00,0.0015
2272.00,0.0014
2271.00,0.0013
2270.00,0.0013
2269.00,0.0013
2268.00,0.0014
2267.00,0.0014
2266.00,0.0013
2265.00,0.0013
2264.00,0.0013
2263.00,0.0013
2262.00,0.0014
2261.00,0.0015
2260.00,0.0015
2259.00,0.0015
2258.00,0.0014
2257.00,0.0013
2256.00,0.0011
2255.00,0.0010
2254.00,0.0009
2253.00,0.0009
2252.00,0.0009
2251.00,0.0009
2250.00,0.0009
2249.00,0.0010
2248.00,0.0010
2247.00,0.0010
2246.00,0.0009
2245.00,0.0008
2244.00,0.0007
2243.00,0.0008
2242.00,0.0008
2241.00,0.0009
2240.00,0.0009
2239.00,0.0009
2238.00,0.0009
2237.00,0.0009
2236.00,0.0010
2235.00,0.0010
2234.00,0.0010
2233.00,0.0010
2232.00,0.0009
2231.00,0.0007
2230.00,0.0007
2229.00,0.0007
2228.00,0.0008
2227.00,0.0009
2226.00,0.0010
2225.00,0.0010
2224.00,0.0011
2223.00,0.0011
2222.00,0.0011
2221.00,0.0010
2220.00,0.0009
2219.00,0.0008
2218.00,0.0007
2217.00,0.0007
2216.00,0.0006
2215.00,0.0005
2214.00,0.0005
2213.00,0.0006
2212.00,0.0006
2211.00,0.0005
2210.00,0.0004
2209.00,0.0002
2208.00,0.0002
2207.00,0.0003
2206.00,0.0005
2205.00,0.0008
2204.00,0.0010
2203.00,0.0010
2202.00,0.0010
2201.00,0.0009
2200.00,0.0009
2199.00,0.0009
2198.00,0.0009
2197.00,0.0008
2196.00,0.0007
2195.00,0.0006
2194.00,0.0007
2193.00,0.0007
2192.00,0.0008
2191.00,0.0009
2190.00,0.0010
2189.00,0.0011
2188.00,0.0011
2187.00,0.0011
2186.00,0.0011
2185.00,0.0010
2184.00,0.0009
2183.00,0.0007
2182.00,0.0004
2181.00,0.0004
2180.00,0.0005
2179.00,0.0007
2178.00,0.0008
2177.00,0.0007
2176.00,0.0005
2175.00,0.0003
2174.00,0.0002
2173.00,0.0002
2172.00,0.0004
2171.00,0.0008
2170.00,0.0014
2169.00,0.0019
2168.00,0.0023
2167.00,0.0026
2166.00,0.0027
2165.00,0.0027
2164.00,0.0028
2163.00,0.0028
2162.00,0.0027
2161.00,0.0021
2160.00,0.0009
2159.00,-0.0006
2158.00,-0.0018
2157.00,-0.0025
2156.00,-0.0026
2155.00,-0.0025
2154.00,-0.0022
2153.00,-0.0019
2152.00,-0.0015
2151.00,-0.0013
2150.00,-0.0013
2149.00,-0.0015
2148.00,-0.0016
2147.00,-0.0018
2146.00,-0.0018
2145.00,-0.0017
2144.00,-0.0014
2143.00,-0.0011
2142.00,-0.0010
2141.00,-0.0009
2140.00,-0.0009
2139.00,-0.0009
2138.00,-0.0009
2137.00,-0.0010
2136.00,-0.0011
2135.00,-0.0013
2134.00,-0.0014
2133.00,-0.0015
2132.00,-0.0014
2131.00,-0.0014
2130.00,-0.0013
2129.00,-0.0012
2128.00,-0.0010
2127.00,-0.0008
2126.00,-0.0006
2125.00,-0.0006
2124.00,-0.0006
2123.00,-0.0005
2122.00,-0.0005
2121.00,-0.0003
2120.00,-0.0002
2119.00,-0.0000
2118.00,0.0001
2117.00,0.0002
2116.00,0.0003
2115.00,0.0004
2114.00,0.0005
2113.00,0.0005
2112.00,0.0005
2111.00,0.0003
2110.00,0.0002
2109.00,0.0002
2108.00,0.0002
2107.00,0.0001
2106.00,0.0001
2105.00,0.0001
2104.00,0.0001
2103.00,0.0001
2102.00,0.0001
2101.00,0.0001
2100.00,0.0001
2099.00,0.0001
2098.00,0.0001
2097.00,0.0001
2096.00,-0.0000
2095.00,-0.0001
2094.00,-0.0003
2093.00,-0.0003
2092.00,-0.0004
2091.00,-0.0004
2090.00,-0.0003
2089.00,-0.0001
2088.00,0.0001
2087.00,0.0003
2086.00,0.0004
2085.00,0.0005
2084.00,0.0004
2083.00,0.0004
2082.00,0.0004
2081.00,0.0005
2080.00,0.0005
2079.00,0.0005
2078.00,0.0005
2077.00,0.0004
2076.00,0.0003
2075.00,0.0001
2074.00,0.0000
2073.00,0.0000
2072.00,0.0001
2071.00,0.0001
2070.00,0.0001
2069.00,0.0001
2068.00,0.0001
2067.00,0.0001
2066.00,-0.0000
2065.00,-0.0001
2064.00,-0.0001
2063.00,-0.0001
2062.00,-0.0001
2061.00,-0.0001
2060.00,-0.0002
2059.00,-0.0003
2058.00,-0.0003
2057.00,-0.0001
2056.00,0.0002
2055.00,0.0003
2054.00,0.0005
2053.00,0.0008
2052.00,0.0013
2051.00,0.0017
2050.00,0.0017
2049.00,0.0014
2048.00,0.0009
2047.00,0.0006
2046.00,0.0004
2045.00,0.0003
2044.00,0.0002
2043.00,0.0002
2042.00,0.0004
2041.00,0.0008
2040.00,0.0011
2039.00,0.0013
2038.00,0.0013
2037.00,0.0010
2036.00,0.0005
2035.00,0.0000
2034.00,-0.0003
2033.00,-0.0004
2032.00,-0.0002
2031.00,-0.0001
2030.00,-0.0001
2029.00,-0.0002
2028.00,-0.0005
2027.00,-0.0008
2026.00,-0.0009
2025.00,-0.0007
2024.00,-0.0004
2023.00,-0.0003
2022.00,-0.0004
2021.00,-0.0005
2020.00,-0.0006
2019.00,-0.0006
2018.00,-0.0006
2017.00,-0.0006
2016.00,-0.0007
2015.00,-0.0009
2014.00,-0.0010
2013.00,-0.0010
2012.00,-0.0010
2011.00,-0.0008
2010.00,-0.0007
2009.00,-0.0006
2008.00,-0.0006
2007.00,-0.0010
2006.00,-0.0014
2005.00,-0.0017
2004.00,-0.0017
2003.00,-0.0015
2002.00,-0.0012
2001.00,-0.0009
2000.00,-0.0007
1999.00,-0.0007
1998.00,-0.0007
1997.00,-0.0007
1996.00,-0.0007
1995.00,-0.0008
1994.00,-0.0010
1993.00,-0.0010
1992.00,-0.0008
1991.00,-0.0005
1990.00,-0.0002
1989.00,0.0000
1988.00,0.0001
1987.00,0.0000
1986.00,0.0001
1985.00,0.0002
1984.00,0.0005
1983.00,0.0008
1982.00,0.0011
1981.00,0.0014
1980.00,0.0016
1979.00,0.0013
1978.00,0.0007
1977.00,-0.0002
1976.00,-0.0010
1975.00,-0.0016
1974.00,-0.0020
1973.00,-0.0022
1972.00,-0.0022
1971.00,-0.0022
1970.00,-0.0023
1969.00,-0.0023
1968.00,-0.0021
1967.00,-0.0018
1966.00,-0.0015
1965.00,-0.0011
1964.00,-0.0008
1963.00,-0.0008
1962.00,-0.0010
1961.00,-0.0013
1960.00,-0.0016
1959.00,-0.0018
1958.00,-0.0018
1957.00,-0.0018
1956.00,-0.0017
1955.00,-0.0017
1954.00,-0.0017
1953.00,-0.0017
1952.00,-0.0016
1951.00,-0.0015
1950.00,-0.0013
1949.00,-0.0012
1948.00,-0.0012
1947.00,-0.0013
1946.00,-0.0015
1945.00,-0.0016
1944.00,-0.0015
1943.00,-0.0014
1942.00,-0.0013
1941.00,-0.0011
1940.00,-0.0009
1939.00,-0.0009
1938.00,-0.0009
1937.00,-0.0009
1936.00,-0.0009
1935.00,-0.0010
1934.00,-0.0009
1933.00,-0.0008
1932.00,-0.0007
1931.00,-0.0006
1930.00,-0.0005
1929.00,-0.0005
1928.00,-0.0006
1927.00,-0.0007
1926.00,-0.0008
1925.00,-0.0008
1924.00,-0.0008
1923.00,-0.0008
1922.00,-0.0006
1921.00,-0.0005
1920.00,-0.0003
1919.00,-0.0003
1918.00,-0.0002
1917.00,-0.0002
1916.00,-0.0002
1915.00,-0.0001
1914.00,-0.0001
1913.00,-0.0001
1912.00,-0.0002
1911.00,-0.0003
1910.00,-0.0003
1909.00,-0.0002
1908.00,-0.0002
1907.00,-0.0002
1906.00,-0.0002
1905.00,-0.0002
1904.00,-0.0002
1903.00,-0.0003
1902.00,-0.0004
1901.00,-0.0005
1900.00,-0.0004
1899.00,-0.0002
1898.00,-0.0002
1897.00,-0.0002
1896.00,-0.0001
1895.00,-0.0001
1894.00,0.0001
1893.00,0.0001
1892.00,0.0001
1891.00,0.0001
1890.00,0.0001
1889.00,0.0001
1888.00,0.0000
1887.00,-0.0000
1886.00,-0.0001
1885.00,-0.0002
1884.00,-0.0002
1883.00,-0.0002
1882.00,-0.0001
1881.00,-0.0000
1880.00,0.0001
1879.00,0.0002
1878.00,0.0002
1877.00,0.0001
1876.00,0.0000
1875.00,-0.0000
1874.00,-0.0000
1873.00,0.0000
1872.00,0.0001
1871.00,0.0001
1870.00,0.0001
1869.00,0.0000
1868.00,-0.0000
1867.00,-0.0001
1866.00,-0.0002
1865.00,-0.0002
1864.00,-0.0002
1863.00,-0.0002
1862.00,-0.0001
1861.00,-0.0000
1860.00,0.0001
1859.00,0.0001
1858.00,0.0001
1857.00,0.0001
1856.00,0.0001
1855.00,0.0001
1854.00,0.0001
1853.00,0.0001
1852.00,0.0001
1851.00,0.0000
1850.00,0.0000
1849.00,0.0001
1848.00,0.0002
1847.00,0.0002
1846.00,0.0003
1845.00,0.0002
1844.00,0.0002
1843.00,0.0002
1842.00,0.0001
1841.00,0.0001
1840.00,0.0001
1839.00,0.0001
1838.00,0.0001
1837.00,0.0001
1836.00,0.0002
1835.00,0.0003
1834.00,0.0003
1833.00,0.0004
1832.00,0.0005
1831.00,0.0005
1830.00,0.0004
1829.00,0.0004
1828.00,0.0004
1827.00,0.0004
1826.00,0.0004
1825.00,0.0003
1824.00,0.0003
1823.00,0.0002
1822.00,0.0002
1821.00,0.0002
1820.00,0.0002
1819.00,0.0001
1818.00,0.0001
1817.00,0.0001
1816.00,0.0001
1815.00,0.0002
1814.00,0.0003
1813.00,0.0003
1812.00,0.0004
1811.00,0.0004
1810.00,0.0005
1809.00,0.0005
1808.00,0.0005
1807.00,0.0005
1806.00,0.0005
1805.00,0.0005
1804.00,0.0005
1803.00,0.0005
1802.00,0.0006
1801.00,0.0006
1800.00,0.0005
1799.00,0.0005
1798.00,0.0006
1797.00,0.0007
1796.00,0.0008
1795.00,0.0008
1794.00,0.0008
1793.00,0.0008
1792.00,0.0008
1791.00,0.0008
1790.00,0.0008
1789.00,0.0008
1788.00,0.0008
1787.00,0.0008
1786.00,0.0008
1785.00,0.0008
1784.00,0.0008
1783.00,0.0008
1782.00,0.0008
1781.00,0.0008
1780.00,0.0009
1779.00,0.0009
1778.00,0.0008
1777.00,0.0008
1776.00,0.0008
1775.00,0.0008
1774.00,0.0008
1773.00,0.0008
1772.00,0.0009
1771.00,0.0009
1770.00,0.0010
1769.00,0.0011
1768.00,0.0012
1767.00,0.0011
1766.00,0.0011
1765.00,0.0011
1764.00,0.0011
1763.00,0.0012
1762.00,0.0012
1761.00,0.0012
1760.00,0.0012
1759.00,0.0012
1758.00,0.0013
1757.00,0.0014
1756.00,0.0014
1755.00,0.0014
1754.00,0.0014
1753.00,0.0014
1752.00,0.0015
1751.00,0.0015
1750.00,0.0015
1749.00,0.0015
1748.00,0.0015
1747.00,0.0015
1746.00,0.0015
1745.00,0.0015
1744.00,0.0015
1743.00,0.0016
1742.00,0.0017
1741.00,0.0017
1740.00,0.0017
1739.00,0.0017
1738.00,0.0017
1737.00,0.0017
1736.00,0.0018
1735.00,0.0018
1734.00,0.0019
1733.00,0.0019
1732.00,0.0020
1731.00,0.0020
1730.00,0.0021
1729.00,0.0021
1728.00,0.0021
1727.00,0.0022
1726.00,0.0022
1725.00,0.0022
1724.00,0.0023
1723.00,0.0023
1722.00,0.0023
1721.00,0.0023
1720.00,0.0022
1719.00,0.0022
1718.00,0.0023
1717.00,0.0023
1716.00,0.0023
1715.00,0.0023
1714.00,0.0023
1713.00,0.0023
1712.00,0.0024
1711.00,0.0024
1710.00,0.0024
1709.00,0.0023
1708.00,0.0023
1707.00,0.0023
1706.00,0.0023
1705.00,0.0023
1704.00,0.0023
1703.00,0.0024
1702.00,0.0026
1701.00,0.0026
1700.00,0.0027
1699.00,0.0027
1698.00,0.0027
1697.00,0.0027
1696.00,0.0028
1695.00,0.0028
1694.00,0.0029
1693.00,0.0030
1692.00,0.0031
1691.00,0.0031
1690.00,0.0032
1689.00,0.0034
1688.00,0.0035
1687.00,0.0035
1686.00,0.0035
1685.00,0.0035
1684.00,0.0035
1683.00,0.0035
1682.00,0.0036
1681.00,0.0037
1680.00,0.0039
1679.00,0.0040
1678.00,0.0041
1677.00,0.0042
1676.00,0.0044
1675.00,0.0044
1674.00,0.0045
1673.00,0.0045
1672.00,0.0046
1671.00,0.0046
1670.00,0.0047
1669.00,0.0047
1668.00,0.0047
1667.00,0.0048
1666.00,0.0048
1665.00,0.0048
1664.00,0.0049
1663.00,0.0049
1662.00,0.0049
1661.00,0.0050
1660.00,0.0050
1659.00,0.0051
1658.00,0.0051
1657.00,0.0052
1656.00,0.0052
1655.00,0.0053
1654.00,0.0054
1653.00,0.0055
1652.00,0.0056
1651.00,0.0056
1650.00,0.0057
1649.00,0.0059
1648.00,0.0061
1647.00,0.0063
1646.00,0.0064
1645.00,0.0065
1644.00,0.0065
1643.00,0.0065
1642.00,0.0065
1641.00,0.0066
1640.00,0.0066
1639.00,0.0067
1638.00,0.0067
1637.00,0.0068
1636.00,0.0067
1635.00,0.0066
1634.00,0.0065
1633.00,0.0064
1632.00,0.0064
1631.00,0.0064
1630.00,0.0063
1629.00,0.0063
1628.00,0.0062
1627.00,0.0061
1626.00,0.0060
1625.00,0.0060
1624.00,0.0060
1623.00,0.0059
1622.00,0.0058
1621.00,0.0058
1620.00,0.0057
1619.00,0.0057
1618.00,0.0056
1617.00,0.0056
1616.00,0.0056
1615.00,0.0056
1614.00,0.0055
1613.00,0.0055
1612.00,0.0055
1611.00,0.0055
1610.00,0.0055
1609.00,0.0055
1608.00,0.0056
1607.00,0.0056
1606.00,0.0056
1605.00,0.0056
1604.00,0.0056
1603.00,0.0055
1602.00,0.0055
1601.00,0.0055
1600.00,0.0055
1599.00,0.0055
1598.00,0.0054
1597.00,0.0054
1596.00,0.0053
1595.00,0.0053
1594.00,0.0053
1593.00,0.0052
1592.00,0.0052
1591.00,0.0052
1590.00,0.0052
1589.00,0.0053
1588.00,0.0053
1587.00,0.0054
1586.00,0.0054
1585.00,0.0054
1584.00,0.0055
1583.00,0.0056
1582.00,0.0056
1581.00,0.0057
1580.00,0.0057
1579.00,0.0058
1578.00,0.0058
1577.00,0.0059
1576.00,0.0059
1575.00,0.0059
1574.00,0.0059
1573.00,0.0059
1572.00,0.0060
1571.00,0.0060
1570.00,0.0060
1569.00,0.0060
1568.00,0.0061
1567.00,0.0061
1566.00,0.0061
1565.00,0.0062
1564.00,0.0062
1563.00,0.0062
1562.00,0.0062
1561.00,0.0062
1560.00,0.0062
1559.00,0.0063
1558.00,0.0063
1557.00,0.0063
1556.00,0.0065
1555.00,0.0066
1554.00,0.0067
1553.00,0.0067
1552.00,0.0067
1551.00,0.0067
1550.00,0.0068
1549.00,0.0069
1548.00,0.0070
1547.00,0.0071
1546.00,0.0071
1545.00,0.0072
1544.00,0.0072
1543.00,0.0072
1542.00,0.0071
1541.00,0.0071
1540.00,0.0069
1539.00,0.0067
1538.00,0.0065
1537.00,0.0064
1536.00,0.0063
1535.00,0.0062
1534.00,0.0060
1533.00,0.0058
1532.00,0.0057
1531.00,0.0057
1530.00,0.0056
1529.00,0.0056
1528.00,0.0056
1527.00,0.0055
1526.00,0.0055
1525.00,0.0055
1524.00,0.0055
1523.00,0.0055
1522.00,0.0055
1521.00,0.0055
1520.00,0.0055
1519.00,0.0055
1518.00,0.0056
1517.00,0.0057
1516.00,0.0058
1515.00,0.0059
1514.00,0.0058
1513.00,0.0059
1512.00,0.0060
1511.00,0.0060
1510.00,0.0060
1509.00,0.0061
1508.00,0.0062
1507.00,0.0063
1506.00,0.0063
1505.00,0.0064
1504.00,0.0065
1503.00,0.0066
1502.00,0.0068
1501.00,0.0070
1500.00,0.0073
1499.00,0.0075
1498.00,0.0077
1497.00,0.0081
1496.00,0.0084
1495.00,0.0086
1494.00,0.0088
1493.00,0.0091
1492.00,0.0095
1491.00,0.0099
1490.00,0.0104
1489.00,0.0109
1488.00,0.0114
1487.00,0.0118
1486.00,0.0123
1485.00,0.0129
1484.00,0.0136
1483.00,0.0143
1482.00,0.0151
1481.00,0.0161
1480.00,0.0173
1479.00,0.0185
1478.00,0.0199
1477.00,0.0220
1476.00,0.0245
1475.00,0.0275
1474.00,0.0315
1473.00,0.0372
1472.00,0.0437
1471.00,0.0500
1470.00,0.0561
1469.00,0.0625
1468.00,0.0694
1467.00,0.0768
1466.00,0.0851
1465.00,0.0939
1464.00,0.1016
1463.00,0.1070
1462.00,0.1106
1461.00,0.1132
1460.00,0.1151
1459.00,0.1165
1458.00,0.1179
1457.00,0.1191
1456.00,0.1195
1455.00,0.1191
1454.00,0.1182
1453.00,0.1169
1452.00,0.1147
1451.00,0.1113
1450.00,0.1065
1449.00,0.0997
1448.00,0.0909
1447.00,0.0814
1446.00,0.0726
1445.00,0.0650
1444.00,0.0584
1443.00,0.0529
1442.00,0.0487
1441.00,0.0457
1440.00,0.0439
1439.00,0.0429
1438.00,0.0426
1437.00,0.0423
1436.00,0.0410
1435.00,0.0384
1434.00,0.0350
1433.00,0.0310
1432.00,0.0268
1431.00,0.0231
1430.00,0.0202
1429.00,0.0180
1428.00,0.0164
1427.00,0.0154
1426.00,0.0148
1425.00,0.0142
1424.00,0.0137
1423.00,0.0134
1422.00,0.0132
1421.00,0.0130
1420.00,0.0127
1419.00,0.0125
1418.00,0.0122
1417.00,0.0119
1416.00,0.0116
1415.00,0.0115
1414.00,0.0113
1413.00,0.0112
1412.00,0.0110
1411.00,0.0109
1410.00,0.0108
1409.00,0.0107
1408.00,0.0106
1407.00,0.0106
1406.00,0.0106
1405.00,0.0107
1404.00,0.0107
1403.00,0.0107
1402.00,0.0108
1401.00,0.0109
1400.00,0.0109
1399.00,0.0110
1398.00,0.0112
1397.00,0.0114
1396.00,0.0116
1395.00,0.0120
1394.00,0.0125
1393.00,0.0130
1392.00,0.0135
1391.00,0.0143
1390.00,0.0153
1389.00,0.0168
1388.00,0.0188
1387.00,0.0219
1386.00,0.0261
1385.00,0.0318
1384.00,0.0396
1383.00,0.0504
1382.00,0.0649
1381.00,0.0831
1380.00,0.1048
1379.00,0.1285
1378.00,0.1501
1377.00,0.1647
1376.00,0.1679
1375.00,0.1579
1374.00,0.1375
1373.00,0.1138
1372.00,0.0924
1371.00,0.0749
1370.00,0.0609
1369.00,0.0502
1368.00,0.0428
1367.00,0.0381
1366.00,0.0355
1365.00,0.0344
1364.00,0.0345
1363.00,0.0356
1362.00,0.0373
1361.00,0.0392
1360.00,0.0407
1359.00,0.0412
1358.00,0.0403
1357.00,0.0381
1356.00,0.0350
1355.00,0.0315
1354.00,0.0280
1353.00,0.0251
1352.00,0.0227
1351.00,0.0208
1350.00,0.0191
1349.00,0.0178
1348.00,0.0166
1347.00,0.0157
1346.00,0.0149
1345.00,0.0142
1344.00,0.0136
1343.00,0.0131
1342.00,0.0127
1341.00,0.0123
1340.00,0.0121
1339.00,0.0119
1338.00,0.0117
1337.00,0.0116
1336.00,0.0116
1335.00,0.0118
1334.00,0.0121
1333.00,0.0125
1332.00,0.0129
1331.00,0.0132
1330.00,0.0132
1329.00,0.0131
1328.00,0.0129
1327.00,0.0125
1326.00,0.0121
1325.00,0.0115
1324.00,0.0110
1323.00,0.0105
1322.00,0.0101
1321.00,0.0098
1320.00,0.0096
1319.00,0.0095
1318.00,0.0093
1317.00,0.0092
1316.00,0.0091
1315.00,0.0091
1314.00,0.0091
1313.00,0.0092
1312.00,0.0093
1311.00,0.0096
1310.00,0.0101
1309.00,0.0109
1308.00,0.0120
1307.00,0.0134
1306.00,0.0148
1305.00,0.0157
1304.00,0.0159
1303.00,0.0154
1302.00,0.0147
1301.00,0.0140
1300.00,0.0135
1299.00,0.0132
1298.00,0.0131
1297.00,0.0129
1296.00,0.0128
1295.00,0.0125
1294.00,0.0121
1293.00,0.0117
1292.00,0.0112
1291.00,0.0108
1290.00,0.0104
1289.00,0.0100
1288.00,0.0097
1287.00,0.0094
1286.00,0.0092
1285.00,0.0091
1284.00,0.0089
1283.00,0.0088
1282.00,0.0087
1281.00,0.0086
1280.00,0.0084
1279.00,0.0084
1278.00,0.0083
1277.00,0.0082
1276.00,0.0082
1275.00,0.0083
1274.00,0.0083
1273.00,0.0083
1272.00,0.0084
1271.00,0.0084
1270.00,0.0086
1269.00,0.0088
1268.00,0.0091
1267.00,0.0094
1266.00,0.0097
1265.00,0.0101
1264.00,0.0105
1263.00,0.0109
1262.00,0.0114
1261.00,0.0119
1260.00,0.0126
1259.00,0.0133
1258.00,0.0141
1257.00,0.0147
1256.00,0.0150
1255.00,0.0146
1254.00,0.0138
1253.00,0.0128
1252.00,0.0116
1251.00,0.0107
1250.00,0.0100
1249.00,0.0094
1248.00,0.0090
1247.00,0.0087
1246.00,0.0085
1245.00,0.0083
1244.00,0.0081
1243.00,0.0080
1242.00,0.0079
1241.00,0.0078
1240.00,0.0077
1239.00,0.0077
1238.00,0.0076
1237.00,0.0075
1236.00,0.0075
1235.00,0.0075
1234.00,0.0075
1233.00,0.0075
1232.00,0.0075
1231.00,0.0076
1230.00,0.0077
1229.00,0.0078
1228.00,0.0079
1227.00,0.0081
1226.00,0.0084
1225.00,0.0086
1224.00,0.0089
1223.00,0.0091
1222.00,0.0094
1221.00,0.0096
1220.00,0.0097
1219.00,0.0097
1218.00,0.0096
1217.00,0.0094
1216.00,0.0093
1215.00,0.0091
1214.00,0.0090
1213.00,0.0087
1212.00,0.0085
1211.00,0.0082
1210.00,0.0080
1209.00,0.0079
1208.00,0.0078
1207.00,0.0077
1206.00,0.0076
1205.00,0.0075
1204.00,0.0075
1203.00,0.0074
1202.00,0.0074
1201.00,0.0075
1200.00,0.0075
1199.00,0.0075
1198.00,0.0075
1197.00,0.0075
1196.00,0.0074
1195.00,0.0075
1194.00,0.0075
1193.00,0.0075
1192.00,0.0075
1191.00,0.0074
1190.00,0.0074
1189.00,0.0075
1188.00,0.0075
1187.00,0.0076
1186.00,0.0077
1185.00,0.0079
1184.00,0.0080
1183.00,0.0082
1182.00,0.0084
1181.00,0.0087
1180.00,0.0090
1179.00,0.0096
1178.00,0.0103
1177.00,0.0113
1176.00,0.0127
1175.00,0.0145
1174.00,0.0169
1173.00,0.0198
1172.00,0.0234
1171.00,0.0273
1170.00,0.0312
1169.00,0.0344
1168.00,0.0363
1167.00,0.0368
1166.00,0.0358
1165.00,0.0339
1164.00,0.0315
1163.00,0.0291
1162.00,0.0270
1161.00,0.0253
1160.00,0.0239
1159.00,0.0229
1158.00,0.0221
1157.00,0.0216
1156.00,0.0211
1155.00,0.0208
1154.00,0.0205
1153.00,0.0201
1152.00,0.0196
1151.00,0.0188
1150.00,0.0180
1149.00,0.0170
1148.00,0.0161
1147.00,0.0152
1146.00,0.0144
1145.00,0.0136
1144.00,0.0128
1143.00,0.0122
1142.00,0.0116
1141.00,0.0111
1140.00,0.0106
1139.00,0.0102
1138.00,0.0098
1137.00,0.0095
1136.00,0.0092
1135.00,0.0089
1134.00,0.0087
1133.00,0.0085
1132.00,0.0084
1131.00,0.0084
1130.00,0.0083
1129.00,0.0083
1128.00,0.0083
1127.00,0.0084
1126.00,0.0085
1125.00,0.0086
1124.00,0.0088
1123.00,0.0089
1122.00,0.0090
1121.00,0.0090
1120.00,0.0090
1119.00,0.0091
1118.00,0.0092
1117.00,0.0093
1116.00,0.0094
1115.00,0.0096
1114.00,0.0098
1113.00,0.0100
1112.00,0.0102
1111.00,0.0104
1110.00,0.0107
1109.00,0.0111
1108.00,0.0116
1107.00,0.0122
1106.00,0.0128
1105.00,0.0133
1104.00,0.0137
1103.00,0.0140
1102.00,0.0139
1101.00,0.0136
1100.00,0.0130
1099.00,0.0124
1098.00,0.0118
1097.00,0.0113
1096.00,0.0109
1095.00,0.0106
1094.00,0.0104
1093.00,0.0101
1092.00,0.0099
1091.00,0.0097
1090.00,0.0096
1089.00,0.0094
1088.00,0.0093
1087.00,0.0093
1086.00,0.0092
1085.00,0.0091
1084.00,0.0091
1083.00,0.0090
1082.00,0.0089
1081.00,0.0088
1080.00,0.0086
1079.00,0.0085
1078.00,0.0084
1077.00,0.0083
1076.00,0.0083
1075.00,0.0083
1074.00,0.0084
1073.00,0.0083
1072.00,0.0083
1071.00,0.0082
1070.00,0.0082
1069.00,0.0081
1068.00,0.0081
1067.00,0.0080
1066.00,0.0081
1065.00,0.0081
1064.00,0.0081
1063.00,0.0082
1062.00,0.0082
1061.00,0.0082
1060.00,0.0082
1059.00,0.0082
1058.00,0.0082
1057.00,0.0083
1056.00,0.0083
1055.00,0.0084
1054.00,0.0085
1053.00,0.0087
1052.00,0.0089
1051.00,0.0092
1050.00,0.0095
1049.00,0.0098
1048.00,0.0101
1047.00,0.0104
1046.00,0.0107
1045.00,0.0110
1044.00,0.0110
1043.00,0.0109
1042.00,0.0107
1041.00,0.0105
1040.00,0.0102
1039.00,0.0100
1038.00,0.0099
1037.00,0.0098
1036.00,0.0098
1035.00,0.0097
1034.00,0.0096
1033.00,0.0094
1032.00,0.0093
1031.00,0.0093
1030.00,0.0092
1029.00,0.0091
1028.00,0.0090
1027.00,0.0090
1026.00,0.0090
1025.00,0.0090
1024.00,0.0091
1023.00,0.0092
1022.00,0.0093
1021.00,0.0094
1020.00,0.0094
1019.00,0.0095
1018.00,0.0095
1017.00,0.0096
1016.00,0.0097
1015.00,0.0099
1014.00,0.0100
1013.00,0.0103
1012.00,0.0105
1011.00,0.0109
1010.00,0.0113
1009.00,0.0117
1008.00,0.0122
1007.00,0.0130
1006.00,0.0140
1005.00,0.0154
1004.00,0.0174
1003.00,0.0203
1002.00,0.0242
1001.00,0.0290
1000.00,0.0342
999.00,0.0386
998.00,0.0411
997.00,0.0408
996.00,0.0377
995.00,0.0328
994.00,0.0276
993.00,0.0229
992.00,0.0193
991.00,0.0167
990.00,0.0149
989.00,0.0137
988.00,0.0128
987.00,0.0124
986.00,0.0123
985.00,0.0125
984.00,0.0129
983.00,0.0136
982.00,0.0147
981.00,0.0163
980.00,0.0186
979.00,0.0218
978.00,0.0260
977.00,0.0311
976.00,0.0367
975.00,0.0422
974.00,0.0465
973.00,0.0484
972.00,0.0470
971.00,0.0425
970.00,0.0363
969.00,0.0298
968.00,0.0242
967.00,0.0200
966.00,0.0169
965.00,0.0148
964.00,0.0133
963.00,0.0122
962.00,0.0114
961.00,0.0108
960.00,0.0102
959.00,0.0097
958.00,0.0093
957.00,0.0089
956.00,0.0086
955.00,0.0083
954.00,0.0081
953.00,0.0079
952.00,0.0077
951.00,0.0076
950.00,0.0075
949.00,0.0075
948.00,0.0076
947.00,0.0077
946.00,0.0079
945.00,0.0081
944.00,0.0084
943.00,0.0086
942.00,0.0089
941.00,0.0090
940.00,0.0091
939.00,0.0089
938.00,0.0086
937.00,0.0081
936.00,0.0076
935.00,0.0072
934.00,0.0069
933.00,0.0067
932.00,0.0067
931.00,0.0067
930.00,0.0067
929.00,0.0067
928.00,0.0065
927.00,0.0064
926.00,0.0064
925.00,0.0064
924.00,0.0064
923.00,0.0064
922.00,0.0064
921.00,0.0064
920.00,0.0065
919.00,0.0065
918.00,0.0064
917.00,0.0063
916.00,0.0063
915.00,0.0064
914.00,0.0066
913.00,0.0068
912.00,0.0070
911.00,0.0072
910.00,0.0075
909.00,0.0077
908.00,0.0080
907.00,0.0084
906.00,0.0090
905.00,0.0099
904.00,0.0110
903.00,0.0125
902.00,0.0142
901.00,0.0158
900.00,0.0168
899.00,0.0169
898.00,0.0162
897.00,0.0148
896.00,0.0131
895.00,0.0116
894.00,0.0103
893.00,0.0093
892.00,0.0087
891.00,0.0082
890.00,0.0080
889.00,0.0079
888.00,0.0079
887.00,0.0078
886.00,0.0077
885.00,0.0075
884.00,0.0074
883.00,0.0074
882.00,0.0075
881.00,0.0075
880.00,0.0076
879.00,0.0076
878.00,0.0077
877.00,0.0077
876.00,0.0077
875.00,0.0078
874.00,0.0078
873.00,0.0078
872.00,0.0079
871.00,0.0080
870.00,0.0081
869.00,0.0081
868.00,0.0082
867.00,0.0082
866.00,0.0083
865.00,0.0084
864.00,0.0084
863.00,0.0084
862.00,0.0085
861.00,0.0086
860.00,0.0089
859.00,0.0091
858.00,0.0093
857.00,0.0094
856.00,0.0095
855.00,0.0096
854.00,0.0099
853.00,0.0102
852.00,0.0106
851.00,0.0110
850.00,0.0115
849.00,0.0123
848.00,0.0134
847.00,0.0151
846.00,0.0178
845.00,0.0220
844.00,0.0279
843.00,0.0348
842.00,0.0407
841.00,0.0429
840.00,0.0403
839.00,0.0342
838.00,0.0272
837.00,0.0215
836.00,0.0177
835.00,0.0154
834.00,0.0140
833.00,0.0132
832.00,0.0127
831.00,0.0123
830.00,0.0120
829.00,0.0117
828.00,0.0113
827.00,0.0110
826.00,0.0109
825.00,0.0109
824.00,0.0109
823.00,0.0109
822.00,0.0109
821.00,0.0109
820.00,0.0111
819.00,0.0114
818.00,0.0119
817.00,0.0124
816.00,0.0131
815.00,0.0140
814.00,0.0152
813.00,0.0168
812.00,0.0186
811.00,0.0203
810.00,0.0215
809.00,0.0220
808.00,0.0216
807.00,0.0205
806.00,0.0190
805.00,0.0173
804.00,0.0158
803.00,0.0145
802.00,0.0136
801.00,0.0129
800.00,0.0124
799.00,0.0121
798.00,0.0118
797.00,0.0116
796.00,0.0113
795.00,0.0109
794.00,0.0105
793.00,0.0101
792.00,0.0097
791.00,0.0093
790.00,0.0089
789.00,0.0086
788.00,0.0083
787.00,0.0080
786.00,0.0077
785.00,0.0075
784.00,0.0072
783.00,0.0069
782.00,0.0068
781.00,0.0069
780.00,0.0070
779.00,0.0071
778.00,0.0070
777.00,0.0069
776.00,0.0070
775.00,0.0070
774.00,0.0070
773.00,0.0069
772.00,0.0067
771.00,0.0066
770.00,0.0066
769.00,0.0065
768.00,0.0065
767.00,0.0066
766.00,0.0066
765.00,0.0065
764.00,0.0065
763.00,0.0065
762.00,0.0065
761.00,0.0067
760.00,0.0068
759.00,0.0068
758.00,0.0068
757.00,0.0069
756.00,0.0070
755.00,0.0072
754.00,0.0075
753.00,0.0077
752.00,0.0078
751.00,0.0079
750.00,0.0080
749.00,0.0082
748.00,0.0084
747.00,0.0086
746.00,0.0088
745.00,0.0088
744.00,0.0089
743.00,0.0090
742.00,0.0093
741.00,0.0097
740.00,0.0102
739.00,0.0106
738.00,0.0111
737.00,0.0116
736.00,0.0120
735.00,0.0123
734.00,0.0127
733.00,0.0132
732.00,0.0139
731.00,0.0147
730.00,0.0155
729.00,0.0158
728.00,0.0159
727.00,0.0158
726.00,0.0158
725.00,0.0161
724.00,0.0165
723.00,0.0171
722.00,0.0177
721.00,0.0181
720.00,0.0179
719.00,0.0171
718.00,0.0159
717.00,0.0147
716.00,0.0139
715.00,0.0132
714.00,0.0127
713.00,0.0123
712.00,0.0121
711.00,0.0119
710.00,0.0116
709.00,0.0113
708.00,0.0110
707.00,0.0107
706.00,0.0104
705.00,0.0102
704.00,0.0101
703.00,0.0100
702.00,0.0098
701.00,0.0096
700.00,0.0095
699.00,0.0094
698.00,0.0095
697.00,0.0096
696.00,0.0096
695.00,0.0094
694.00,0.0092
693.00,0.0091
692.00,0.0091
691.00,0.0092
690.00,0.0094
689.00,0.0095
688.00,0.0093
687.00,0.0091
686.00,0.0089
685.00,0.0089
684.00,0.0091
683.00,0.0092
682.00,0.0093
681.00,0.0092
680.00,0.0092
679.00,0.0091
678.00,0.0092
677.00,0.0093
676.00,0.0094
675.00,0.0095
674.00,0.0095
673.00,0.0094
672.00,0.0093
671.00,0.0092
670.00,0.0091
669.00,0.0089
668.00,0.0086
667.00,0.0086
666.00,0.0088
665.00,0.0089
664.00,0.0089
663.00,0.0089
662.00,0.0088
661.00,0.0088
660.00,0.0087
659.00,0.0086
658.00,0.0086
657.00,0.0086
656.00,0.0085
655.00,0.0084
654.00,0.0083
653.00,0.0084
652.00,0.0086
651.00,0.0088
650.00,0.0088
649.00,0.0088
648.00,0.0088
647.00,0.0088
646.00,0.0089
645.00,0.0090
644.00,0.0091
643.00,0.0091
642.00,0.0091
641.00,0.0090
640.00,0.0089
639.00,0.0088
638.00,0.0088
637.00,0.0087
636.00,0.0086
635.00,0.0084
634.00,0.0083
633.00,0.0084
632.00,0.0086
631.00,0.0089
630.00,0.0090
629.00,0.0090
628.00,0.0090
627.00,0.0091
626.00,0.0092
625.00,0.0091
624.00,0.0091
623.00,0.0090
622.00,0.0090
621.00,0.0090
620.00,0.0089
619.00,0.0089
618.00,0.0091
617.00,0.0093
616.00,0.0094
615.00,0.0093
614.00,0.0092
613.00,0.0091
612.00,0.0091
611.00,0.0091
610.00,0.0091
609.00,0.0090
608.00,0.0088
607.00,0.0088
606.00,0.0089
605.00,0.0093
604.00,0.0094
603.00,0.0093
602.00,0.0088
601.00,0.0083
600.00,0.0080
599.00,0.0077
598.00,0.0077
597.00,0.0079
596.00,0.0083
595.00,0.0086
594.00,0.0089
593.00,0.0089
592.00,0.0089
591.00,0.0089
590.00,0.0091
589.00,0.0093
588.00,0.0095
587.00,0.0096
586.00,0.0094
585.00,0.0091
584.00,0.0088
583.00,0.0088
582.00,0.0089
581.00,0.0090
580.00,0.0090
579.00,0.0090
578.00,0.0091
577.00,0.0094
576.00,0.0098
575.00,0.0099
574.00,0.0097
573.00,0.0094
572.00,0.0091
571.00,0.0090
570.00,0.0090
569.00,0.0092
568.00,0.0094
567.00,0.0097
566.00,0.0099
565.00,0.0101
564.00,0.0102
563.00,0.0101
562.00,0.0101
561.00,0.0100
560.00,0.0098
559.00,0.0096
558.00,0.0095
557.00,0.0095
556.00,0.0095
555.00,0.0094
554.00,0.0091
553.00,0.0090
552.00,0.0090
551.00,0.0092
550.00,0.0095
549.00,0.0100
548.00,0.0104
547.00,0.0105
546.00,0.0103
545.00,0.0097
544.00,0.0091
543.00,0.0087
542.00,0.0088
541.00,0.0092
540.00,0.0098
539.00,0.0104
538.00,0.0109
537.00,0.0111
536.00,0.0111
535.00,0.0109
534.00,0.0107
533.00,0.0106
532.00,0.0105
531.00,0.0104
530.00,0.0101
529.00,0.0097
528.00,0.0096
527.00,0.0097
526.00,0.0097
525.00,0.0093
524.00,0.0088
523.00,0.0085
522.00,0.0084
521.00,0.0085
520.00,0.0087
519.00,0.0088
518.00,0.0086
517.00,0.0082
516.00,0.0077
515.00,0.0075
514.00,0.0077
513.00,0.0081
512.00,0.0087
511.00,0.0091
510.00,0.0093
509.00,0.0091
508.00,0.0088
507.00,0.0085
506.00,0.0084
505.00,0.0084
504.00,0.0086
503.00,0.0087
502.00,0.0088
501.00,0.0088
500.00,0.0087
499.00,0.0086
498.00,0.0087
497.00,0.0089
496.00,0.0091
495.00,0.0091
494.00,0.0090
493.00,0.0087
492.00,0.0083
491.00,0.0078
490.00,0.0072
489.00,0.0069
488.00,0.0071
487.00,0.0079
486.00,0.0085
485.00,0.0084
484.00,0.0076
483.00,0.0070
482.00,0.0071
481.00,0.0080
480.00,0.0090
479.00,0.0094
478.00,0.0090
477.00,0.0085
476.00,0.0086
475.00,0.0091
474.00,0.0095
473.00,0.0093
472.00,0.0089
471.00,0.0087
470.00,0.0088
469.00,0.0089
468.00,0.0093
467.00,0.0101
466.00,0.0110
465.00,0.0116
464.00,0.0122
463.00,0.0131
462.00,0.0142
461.00,0.0152
460.00,0.0156
459.00,0.0160
458.00,0.0173
457.00,0.0173
456.00,0.0171
455.00,0.0168
454.00,0.0167
453.00,0.0163
452.00,0.0151
451.00,0.0134
450.00,0.0120
