Created as New Dataset,Sample 001 By Administrator Date Thursday, September 04 2025
cm-1,A
4000.00,0.0010
3999.00,0.0009
3998.00,0.0009
3997.00,0.0009
3996.00,0.0010
3995.00,0.0010
3994.00,0.0010
3993.00,0.0010
3992.00,0.0010
3991.00,0.0010
3990.00,0.0010
3989.00,0.0010
3988.00,0.0010
3987.00,0.0010
3986.00,0.0009
3985.00,0.0009
3984.00,0.0009
3983.00,0.0009
3982.00,0.0009
3981.00,0.0009
3980.00,0.0009
3979.00,0.0008
3978.00,0.0008
3977.00,0.0008
3976.00,0.0008
3975.00,0.0009
3974.00,0.0008
3973.00,0.0008
3972.00,0.0008
3971.00,0.0008
3970.00,0.0008
3969.00,0.0007
3968.00,0.0007
3967.00,0.0007
3966.00,0.0007
3965.00,0.0008
3964.00,0.0008
3963.00,0.0008
3962.00,0.0007
3961.00,0.0007
3960.00,0.0007
3959.00,0.0007
3958.00,0.0007
3957.00,0.0007
3956.00,0.0007
3955.00,0.0007
3954.00,0.0007
3953.00,0.0007
3952.00,0.0007
3951.00,0.0007
3950.00,0.0007
3949.00,0.0007
3948.00,0.0008
3947.00,0.0008
3946.00,0.0008
3945.00,0.0008
3944.00,0.0008
3943.00,0.0008
3942.00,0.0008
3941.00,0.0008
3940.00,0.0008
3939.00,0.0008
3938.00,0.0008
3937.00,0.0008
3936.00,0.0008
3935.00,0.0008
3934.00,0.0008
3933.00,0.0008
3932.00,0.0008
3931.00,0.0008
3930.00,0.0008
3929.00,0.0008
3928.00,0.0008
3927.00,0.0008
3926.00,0.0008
3925.00,0.0008
3924.00,0.0008
3923.00,0.0008
3922.00,0.0009
3921.00,0.0008
3920.00,0.0008
3919.00,0.0007
3918.00,0.0007
3917.00,0.0007
3916.00,0.0007
3915.00,0.0007
3914.00,0.0007
3913.00,0.0007
3912.00,0.0007
3911.00,0.0008
3910.00,0.0008
3909.00,0.0007
3908.00,0.0007
3907.00,0.0007
3906.00,0.0007
3905.00,0.0007
3904.00,0.0007
3903.00,0.0007
3902.00,0.0007
3901.00,0.0007
3900.00,0.0007
3899.00,0.0007
3898.00,0.0007
3897.00,0.0007
3896.00,0.0007
3895.00,0.0007
3894.00,0.0007
3893.00,0.0007
3892.00,0.0008
3891.00,0.0008
3890.00,0.0008
3889.00,0.0008
3888.00,0.0008
3887.00,0.0008
3886.00,0.0008
3885.00,0.0008
3884.00,0.0007
3883.00,0.0007
3882.00,0.0007
3881.00,0.0007
3880.00,0.0007
3879.00,0.0007
3878.00,0.0007
3877.00,0.0007
3876.00,0.0007
3875.00,0.0007
3874.00,0.0007
3873.00,0.0006
3872.00,0.0006
3871.00,0.0006
3870.00,0.0006
3869.00,0.0006
3868.00,0.0006
3867.00,0.0006
3866.00,0.0006
3865.00,0.0006
3864.00,0.0006
3863.00,0.0006
3862.00,0.0006
3861.00,0.0006
3860.00,0.0006
3859.00,0.0005
3858.00,0.0005
3857.00,0.0005
3856.00,0.0005
3855.00,0.0005
3854.00,0.0005
3853.00,0.0005
3852.00,0.0005
3851.00,0.0005
3850.00,0.0006
3849.00,0.0006
3848.00,0.0006
3847.00,0.0006
3846.00,0.0007
3845.00,0.0007
3844.00,0.0007
3843.00,0.0007
3842.00,0.0007
3841.00,0.0007
3840.00,0.0006
3839.00,0.0006
3838.00,0.0006
3837.00,0.0006
3836.00,0.0007
3835.00,0.0007
3834.00,0.0008
3833.00,0.0008
3832.00,0.0009
3831.00,0.0009
3830.00,0.0008
3829.00,0.0008
3828.00,0.0007
3827.00,0.0007
3826.00,0.0007
3825.00,0.0006
3824.00,0.0006
3823.00,0.0006
3822.00,0.0006
3821.00,0.0005
3820.00,0.0005
3819.00,0.0005
3818.00,0.0005
3817.00,0.0006
3816.00,0.0006
3815.00,0.0007
3814.00,0.0007
3813.00,0.0008
3812.00,0.0008
3811.00,0.0007
3810.00,0.0007
3809.00,0.0007
3808.00,0.0006
3807.00,0.0006
3806.00,0.0006
3805.00,0.0006
3804.00,0.0006
3803.00,0.0006
3802.00,0.0006
3801.00,0.0006
3800.00,0.0006
3799.00,0.0006
3798.00,0.0006
3797.00,0.0006
3796.00,0.0007
3795.00,0.0007
3794.00,0.0007
3793.00,0.0008
3792.00,0.0008
3791.00,0.0008
3790.00,0.0007
3789.00,0.0007
3788.00,0.0007
3787.00,0.0007
3786.00,0.0007
3785.00,0.0007
3784.00,0.0007
3783.00,0.0007
3782.00,0.0007
3781.00,0.0007
3780.00,0.0007
3779.00,0.0008
3778.00,0.0008
3777.00,0.0008
3776.00,0.0008
3775.00,0.0008
3774.00,0.0008
3773.00,0.0008
3772.00,0.0008
3771.00,0.0008
3770.00,0.0007
3769.00,0.0007
3768.00,0.0007
3767.00,0.0007
3766.00,0.0008
3765.00,0.0008
3764.00,0.0008
3763.00,0.0008
3762.00,0.0007
3761.00,0.0007
3760.00,0.0006
3759.00,0.0006
3758.00,0.0006
3757.00,0.0005
3756.00,0.0005
3755.00,0.0005
3754.00,0.0005
3753.00,0.0005
3752.00,0.0005
3751.00,0.0005
3750.00,0.0005
3749.00,0.0004
3748.00,0.0004
3747.00,0.0004
3746.00,0.0004
3745.00,0.0004
3744.00,0.0004
3743.00,0.0004
3742.00,0.0004
3741.00,0.0004
3740.00,0.0004
3739.00,0.0004
3738.00,0.0004
3737.00,0.0004
3736.00,0.0004
3735.00,0.0004
3734.00,0.0004
3733.00,0.0005
3732.00,0.0005
3731.00,0.0005
3730.00,0.0005
3729.00,0.0005
3728.00,0.0005
3727.00,0.0005
3726.00,0.0005
3725.00,0.0005
3724.00,0.0005
3723.00,0.0005
3722.00,0.0005
3721.00,0.0005
3720.00,0.0005
3719.00,0.0005
3718.00,0.0005
3717.00,0.0006
3716.00,0.0005
3715.00,0.0005
3714.00,0.0005
3713.00,0.0005
3712.00,0.0004
3711.00,0.0004
3710.00,0.0004
3709.00,0.0004
3708.00,0.0004
3707.00,0.0005
3706.00,0.0006
3705.00,0.0007
3704.00,0.0007
3703.00,0.0007
3702.00,0.0006
3701.00,0.0006
3700.00,0.0005
3699.00,0.0005
3698.00,0.0005
3697.00,0.0005
3696.00,0.0005
3695.00,0.0005
3694.00,0.0004
3693.00,0.0004
3692.00,0.0003
3691.00,0.0003
3690.00,0.0004
3689.00,0.0004
3688.00,0.0004
3687.00,0.0003
3686.00,0.0004
3685.00,0.0004
3684.00,0.0005
3683.00,0.0005
3682.00,0.0006
3681.00,0.0005
3680.00,0.0005
3679.00,0.0005
3678.00,0.0005
3677.00,0.0005
3676.00,0.0004
3675.00,0.0004
3674.00,0.0003
3673.00,0.0002
3672.00,0.0002
3671.00,0.0003
3670.00,0.0004
3669.00,0.0005
3668.00,0.0006
3667.00,0.0006
3666.00,0.0007
3665.00,0.0006
3664.00,0.0006
3663.00,0.0005
3662.00,0.0005
3661.00,0.0005
3660.00,0.0005
3659.00,0.0006
3658.00,0.0006
3657.00,0.0005
3656.00,0.0004
3655.00,0.0004
3654.00,0.0003
3653.00,0.0003
3652.00,0.0003
3651.00,0.0003
3650.00,0.0003
3649.00,0.0003
3648.00,0.0002
3647.00,0.0002
3646.00,0.0002
3645.00,0.0003
3644.00,0.0003
3643.00,0.0004
3642.00,0.0005
3641.00,0.0005
3640.00,0.0006
3639.00,0.0006
3638.00,0.0006
3637.00,0.0005
3636.00,0.0005
3635.00,0.0004
3634.00,0.0004
3633.00,0.0003
3632.00,0.0003
3631.00,0.0002
3630.00,0.0002
3629.00,0.0002
3628.00,0.0002
3627.00,0.0003
3626.00,0.0004
3625.00,0.0004
3624.00,0.0004
3623.00,0.0004
3622.00,0.0003
3621.00,0.0003
3620.00,0.0003
3619.00,0.0002
3618.00,0.0002
3617.00,0.0002
3616.00,0.0002
3615.00,0.0002
3614.00,0.0003
3613.00,0.0003
3612.00,0.0004
3611.00,0.0004
3610.00,0.0004
3609.00,0.0004
3608.00,0.0004
3607.00,0.0004
3606.00,0.0004
3605.00,0.0004
3604.00,0.0004
3603.00,0.0004
3602.00,0.0004
3601.00,0.0004
3600.00,0.0004
3599.00,0.0004
3598.00,0.0004
3597.00,0.0004
3596.00,0.0004
3595.00,0.0004
3594.00,0.0004
3593.00,0.0004
3592.00,0.0004
3591.00,0.0005
3590.00,0.0005
3589.00,0.0005
3588.00,0.0005
3587.00,0.0005
3586.00,0.0005
3585.00,0.0005
3584.00,0.0005
3583.00,0.0005
3582.00,0.0005
3581.00,0.0005
3580.00,0.0005
3579.00,0.0005
3578.00,0.0005
3577.00,0.0005
3576.00,0.0005
3575.00,0.0005
3574.00,0.0005
3573.00,0.0005
3572.00,0.0005
3571.00,0.0005
3570.00,0.0005
3569.00,0.0005
3568.00,0.0005
3567.00,0.0005
3566.00,0.0005
3565.00,0.0005
3564.00,0.0005
3563.00,0.0006
3562.00,0.0006
3561.00,0.0007
3560.00,0.0007
3559.00,0.0007
3558.00,0.0007
3557.00,0.0007
3556.00,0.0007
3555.00,0.0007
3554.00,0.0007
3553.00,0.0007
3552.00,0.0007
3551.00,0.0007
3550.00,0.0007
3549.00,0.0007
3548.00,0.0007
3547.00,0.0007
3546.00,0.0007
3545.00,0.0007
3544.00,0.0008
3543.00,0.0008
3542.00,0.0008
3541.00,0.0007
3540.00,0.0007
3539.00,0.0008
3538.00,0.0008
3537.00,0.0008
3536.00,0.0008
3535.00,0.0008
3534.00,0.0008
3533.00,0.0008
3532.00,0.0008
3531.00,0.0008
3530.00,0.0008
3529.00,0.0008
3528.00,0.0008
3527.00,0.0007
3526.00,0.0007
3525.00,0.0007
3524.00,0.0008
3523.00,0.0008
3522.00,0.0008
3521.00,0.0008
3520.00,0.0008
3519.00,0.0008
3518.00,0.0009
3517.00,0.0009
3516.00,0.0009
3515.00,0.0009
3514.00,0.0009
3513.00,0.0009
3512.00,0.0010
3511.00,0.0010
3510.00,0.0010
3509.00,0.0010
3508.00,0.0010
3507.00,0.0010
3506.00,0.0010
3505.00,0.0010
3504.00,0.0010
3503.00,0.0010
3502.00,0.0010
3501.00,0.0010
3500.00,0.0010
3499.00,0.0010
3498.00,0.0010
3497.00,0.0010
3496.00,0.0010
3495.00,0.0010
3494.00,0.0010
3493.00,0.0010
3492.00,0.0010
3491.00,0.0010
3490.00,0.0010
3489.00,0.0010
3488.00,0.0011
3487.00,0.0011
3486.00,0.0011
3485.00,0.0011
3484.00,0.0011
3483.00,0.0011
3482.00,0.0012
3481.00,0.0012
3480.00,0.0012
3479.00,0.0012
3478.00,0.0012
3477.00,0.0011
3476.00,0.0011
3475.00,0.0010
3474.00,0.0010
3473.00,0.0011
3472.00,0.0012
3471.00,0.0013
3470.00,0.0013
3469.00,0.0013
3468.00,0.0013
3467.00,0.0013
3466.00,0.0013
3465.00,0.0013
3464.00,0.0013
3463.00,0.0013
3462.00,0.0013
3461.00,0.0013
3460.00,0.0014
3459.00,0.0014
3458.00,0.0014
3457.00,0.0013
3456.00,0.0013
3455.00,0.0013
3454.00,0.0013
3453.00,0.0013
3452.00,0.0013
3451.00,0.0014
3450.00,0.0014
3449.00,0.0014
3448.00,0.0015
3447.00,0.0015
3446.00,0.0015
3445.00,0.0015
3444.00,0.0015
3443.00,0.0014
3442.00,0.0014
3441.00,0.0015
3440.00,0.0015
3439.00,0.0015
3438.00,0.0015
3437.00,0.0014
3436.00,0.0014
3435.00,0.0014
3434.00,0.0014
3433.00,0.0014
3432.00,0.0014
3431.00,0.0015
3430.00,0.0015
3429.00,0.0015
3428.00,0.0015
3427.00,0.0015
3426.00,0.0015
3425.00,0.0016
3424.00,0.0016
3423.00,0.0016
3422.00,0.0016
3421.00,0.0015
3420.00,0.0015
3419.00,0.0015
3418.00,0.0016
3417.00,0.0016
3416.00,0.0016
3415.00,0.0016
3414.00,0.0016
3413.00,0.0016
3412.00,0.0016
3411.00,0.0016
3410.00,0.0017
3409.00,0.0017
3408.00,0.0017
3407.00,0.0017
3406.00,0.0017
3405.00,0.0017
3404.00,0.0017
3403.00,0.0017
3402.00,0.0017
3401.00,0.0017
3400.00,0.0017
3399.00,0.0017
3398.00,0.0017
3397.00,0.0017
3396.00,0.0017
3395.00,0.0017
3394.00,0.0017
3393.00,0.0017
3392.00,0.0016
3391.00,0.0016
3390.00,0.0016
3389.00,0.0016
3388.00,0.0017
3387.00,0.0017
3386.00,0.0017
3385.00,0.0017
3384.00,0.0017
3383.00,0.0018
3382.00,0.0018
3381.00,0.0018
3380.00,0.0018
3379.00,0.0018
3378.00,0.0018
3377.00,0.0018
3376.00,0.0018
3375.00,0.0018
3374.00,0.0018
3373.00,0.0018
3372.00,0.0018
3371.00,0.0018
3370.00,0.0018
3369.00,0.0018
3368.00,0.0017
3367.00,0.0017
3366.00,0.0017
3365.00,0.0017
3364.00,0.0017
3363.00,0.0018
3362.00,0.0018
3361.00,0.0018
3360.00,0.0018
3359.00,0.0017
3358.00,0.0017
3357.00,0.0017
3356.00,0.0017
3355.00,0.0017
3354.00,0.0017
3353.00,0.0017
3352.00,0.0017
3351.00,0.0017
3350.00,0.0017
3349.00,0.0017
3348.00,0.0018
3347.00,0.0018
3346.00,0.0018
3345.00,0.0018
3344.00,0.0018
3343.00,0.0019
3342.00,0.0019
3341.00,0.0019
3340.00,0.0019
3339.00,0.0019
3338.00,0.0018
3337.00,0.0018
3336.00,0.0018
3335.00,0.0018
3334.00,0.0018
3333.00,0.0018
3332.00,0.0018
3331.00,0.0017
3330.00,0.0017
3329.00,0.0017
3328.00,0.0017
3327.00,0.0016
3326.00,0.0016
3325.00,0.0016
3324.00,0.0015
3323.00,0.0016
3322.00,0.0016
3321.00,0.0016
3320.00,0.0016
3319.00,0.0016
3318.00,0.0016
3317.00,0.0016
3316.00,0.0016
3315.00,0.0016
3314.00,0.0016
3313.00,0.0016
3312.00,0.0016
3311.00,0.0016
3310.00,0.0017
3309.00,0.0017
3308.00,0.0017
3307.00,0.0018
3306.00,0.0018
3305.00,0.0018
3304.00,0.0018
3303.00,0.0018
3302.00,0.0018
3301.00,0.0018
3300.00,0.0017
3299.00,0.0017
3298.00,0.0017
3297.00,0.0017
3296.00,0.0017
3295.00,0.0018
3294.00,0.0017
3293.00,0.0017
3292.00,0.0017
3291.00,0.0016
3290.00,0.0016
3289.00,0.0016
3288.00,0.0016
3287.00,0.0016
3286.00,0.0016
3285.00,0.0016
3284.00,0.0016
3283.00,0.0016
3282.00,0.0016
3281.00,0.0016
3280.00,0.0016
3279.00,0.0016
3278.00,0.0015
3277.00,0.0015
3276.00,0.0015
3275.00,0.0015
3274.00,0.0015
3273.00,0.0015
3272.00,0.0015
3271.00,0.0015
3270.00,0.0015
3269.00,0.0016
3268.00,0.0016
3267.00,0.0015
3266.00,0.0015
3265.00,0.0016
3264.00,0.0016
3263.00,0.0016
3262.00,0.0016
3261.00,0.0016
3260.00,0.0016
3259.00,0.0016
3258.00,0.0016
3257.00,0.0016
3256.00,0.0015
3255.00,0.0015
3254.00,0.0015
3253.00,0.0015
3252.00,0.0016
3251.00,0.0016
3250.00,0.0016
3249.00,0.0016
3248.00,0.0016
3247.00,0.0016
3246.00,0.0016
3245.00,0.0016
3244.00,0.0015
3243.00,0.0015
3242.00,0.0015
3241.00,0.0015
3240.00,0.0015
3239.00,0.0015
3238.00,0.0015
3237.00,0.0015
3236.00,0.0016
3235.00,0.0016
3234.00,0.0016
3233.00,0.0017
3232.00,0.0017
3231.00,0.0017
3230.00,0.0017
3229.00,0.0017
3228.00,0.0018
3227.00,0.0018
3226.00,0.0018
3225.00,0.0018
3224.00,0.0019
3223.00,0.0019
3222.00,0.0019
3221.00,0.0019
3220.00,0.0019
3219.00,0.0020
3218.00,0.0020
3217.00,0.0020
3216.00,0.0020
3215.00,0.0021
3214.00,0.0021
3213.00,0.0021
3212.00,0.0021
3211.00,0.0021
3210.00,0.0022
3209.00,0.0023
3208.00,0.0023
3207.00,0.0023
3206.00,0.0023
3205.00,0.0023
3204.00,0.0023
3203.00,0.0023
3202.00,0.0023
3201.00,0.0023
3200.00,0.0023
3199.00,0.0023
3198.00,0.0024
3197.00,0.0024
3196.00,0.0024
3195.00,0.0024
3194.00,0.0024
3193.00,0.0024
3192.00,0.0024
3191.00,0.0024
3190.00,0.0024
3189.00,0.0024
3188.00,0.0024
3187.00,0.0024
3186.00,0.0024
3185.00,0.0023
3184.00,0.0023
3183.00,0.0023
3182.00,0.0023
3181.00,0.0023
3180.00,0.0023
3179.00,0.0023
3178.00,0.0022
3177.00,0.0022
3176.00,0.0022
3175.00,0.0022
3174.00,0.0022
3173.00,0.0022
3172.00,0.0022
3171.00,0.0022
3170.00,0.0022
3169.00,0.0021
3168.00,0.0021
3167.00,0.0021
3166.00,0.0021
3165.00,0.0022
3164.00,0.0022
3163.00,0.0022
3162.00,0.0022
3161.00,0.0022
3160.00,0.0022
3159.00,0.0022
3158.00,0.0022
3157.00,0.0022
3156.00,0.0022
3155.00,0.0022
3154.00,0.0022
3153.00,0.0022
3152.00,0.0022
3151.00,0.0023
3150.00,0.0023
3149.00,0.0022
3148.00,0.0022
3147.00,0.0022
3146.00,0.0022
3145.00,0.0023
3144.00,0.0023
3143.00,0.0023
3142.00,0.0023
3141.00,0.0023
3140.00,0.0023
3139.00,0.0022
3138.00,0.0022
3137.00,0.0022
3136.00,0.0022
3135.00,0.0022
3134.00,0.0022
3133.00,0.0022
3132.00,0.0022
3131.00,0.0022
3130.00,0.0021
3129.00,0.0021
3128.00,0.0021
3127.00,0.0021
3126.00,0.0021
3125.00,0.0020
3124.00,0.0020
3123.00,0.0020
3122.00,0.0020
3121.00,0.0020
3120.00,0.0020
3119.00,0.0020
3118.00,0.0020
3117.00,0.0020
3116.00,0.0020
3115.00,0.0020
3114.00,0.0020
3113.00,0.0020
3112.00,0.0019
3111.00,0.0019
3110.00,0.0019
3109.00,0.0020
3108.00,0.0020
3107.00,0.0020
3106.00,0.0020
3105.00,0.0020
3104.00,0.0020
3103.00,0.0020
3102.00,0.0020
3101.00,0.0020
3100.00,0.0020
3099.00,0.0020
3098.00,0.0020
3097.00,0.0020
3096.00,0.0019
3095.00,0.0019
3094.00,0.0019
3093.00,0.0020
3092.00,0.0020
3091.00,0.0020
3090.00,0.0019
3089.00,0.0019
3088.00,0.0019
3087.00,0.0019
3086.00,0.0019
3085.00,0.0019
3084.00,0.0019
3083.00,0.0019
3082.00,0.0019
3081.00,0.0019
3080.00,0.0019
3079.00,0.0020
3078.00,0.0020
3077.00,0.0020
3076.00,0.0020
3075.00,0.0020
3074.00,0.0020
3073.00,0.0020
3072.00,0.0021
3071.00,0.0021
3070.00,0.0021
3069.00,0.0021
3068.00,0.0020
3067.00,0.0020
3066.00,0.0020
3065.00,0.0021
3064.00,0.0022
3063.00,0.0022
3062.00,0.0022
3061.00,0.0023
3060.00,0.0023
3059.00,0.0023
3058.00,0.0023
3057.00,0.0023
3056.00,0.0023
3055.00,0.0023
3054.00,0.0024
3053.00,0.0024
3052.00,0.0024
3051.00,0.0024
3050.00,0.0025
3049.00,0.0026
3048.00,0.0026
3047.00,0.0026
3046.00,0.0026
3045.00,0.0026
3044.00,0.0027
3043.00,0.0027
3042.00,0.0027
3041.00,0.0027
3040.00,0.0027
3039.00,0.0027
3038.00,0.0028
3037.00,0.0028
3036.00,0.0028
3035.00,0.0028
3034.00,0.0028
3033.00,0.0028
3032.00,0.0029
3031.00,0.0029
3030.00,0.0030
3029.00,0.0030
3028.00,0.0031
3027.00,0.0031
3026.00,0.0032
3025.00,0.0032
3024.00,0.0033
3023.00,0.0034
3022.00,0.0035
3021.00,0.0036
3020.00,0.0037
3019.00,0.0038
3018.00,0.0040
3017.00,0.0041
3016.00,0.0042
3015.00,0.0043
3014.00,0.0044
3013.00,0.0045
3012.00,0.0047
3011.00,0.0048
3010.00,0.0050
3009.00,0.0052
3008.00,0.0054
3007.00,0.0056
3006.00,0.0058
3005.00,0.0060
3004.00,0.0062
3003.00,0.0064
3002.00,0.0067
3001.00,0.0070
3000.00,0.0072
2999.00,0.0075
2998.00,0.0078
2997.00,0.0082
2996.00,0.0086
2995.00,0.0090
2994.00,0.0094
2993.00,0.0099
2992.00,0.0104
2991.00,0.0110
2990.00,0.0116
2989.00,0.0123
2988.00,0.0131
2987.00,0.0140
2986.00,0.0151
2985.00,0.0163
2984.00,0.0176
2983.00,0.0191
2982.00,0.0207
2981.00,0.0225
2980.00,0.0244
2979.00,0.0267
2978.00,0.0292
2977.00,0.0321
2976.00,0.0355
2975.00,0.0393
2974.00,0.0438
2973.00,0.0489
2972.00,0.0548
2971.00,0.0614
2970.00,0.0688
2969.00,0.0769
2968.00,0.0859
2967.00,0.0955
2966.00,0.1059
2965.00,0.1165
2964.00,0.1273
2963.00,0.1375
2962.00,0.1468
2961.00,0.1547
2960.00,0.1609
2959.00,0.1657
2958.00,0.1693
2957.00,0.1723
2956.00,0.1755
2955.00,0.1793
2954.00,0.1837
2953.00,0.1883
2952.00,0.1922
2951.00,0.1944
2950.00,0.1939
2949.00,0.1899
2948.00,0.1823
2947.00,0.1718
2946.00,0.1594
2945.00,0.1465
2944.00,0.1343
2943.00,0.1239
2942.00,0.1158
2941.00,0.1103
2940.00,0.1072
2939.00,0.1063
2938.00,0.1075
2937.00,0.1104
2936.00,0.1149
2935.00,0.1209
2934.00,0.1282
2933.00,0.1368
2932.00,0.1464
2931.00,0.1568
2930.00,0.1677
2929.00,0.1790
2928.00,0.1901
2927.00,0.2009
2926.00,0.2112
2925.00,0.2210
2924.00,0.2303
2923.00,0.2394
2922.00,0.2483
2921.00,0.2566
2920.00,0.2637
2919.00,0.2689
2918.00,0.2713
2917.00,0.2704
2916.00,0.2661
2915.00,0.2589
2914.00,0.2498
2913.00,0.2400
2912.00,0.2303
2911.00,0.2214
2910.00,0.2135
2909.00,0.2066
2908.00,0.2002
2907.00,0.1941
2906.00,0.1879
2905.00,0.1816
2904.00,0.1750
2903.00,0.1682
2902.00,0.1614
2901.00,0.1546
2900.00,0.1479
2899.00,0.1416
2898.00,0.1357
2897.00,0.1302
2896.00,0.1253
2895.00,0.1210
2894.00,0.1173
2893.00,0.1143
2892.00,0.1119
2891.00,0.1101
2890.00,0.1087
2889.00,0.1078
2888.00,0.1073
2887.00,0.1072
2886.00,0.1075
2885.00,0.1081
2884.00,0.1090
2883.00,0.1104
2882.00,0.1122
2881.00,0.1143
2880.00,0.1163
2879.00,0.1181
2878.00,0.1191
2877.00,0.1194
2876.00,0.1190
2875.00,0.1182
2874.00,0.1175
2873.00,0.1173
2872.00,0.1178
2871.00,0.1190
2870.00,0.1207
2869.00,0.1223
2868.00,0.1232
2867.00,0.1226
2866.00,0.1200
2865.00,0.1153
2864.00,0.1089
2863.00,0.1015
2862.00,0.0942
2861.00,0.0878
2860.00,0.0828
2859.00,0.0794
2858.00,0.0775
2857.00,0.0769
2856.00,0.0773
2855.00,0.0784
2854.00,0.0801
2853.00,0.0821
2852.00,0.0841
2851.00,0.0859
2850.00,0.0874
2849.00,0.0886
2848.00,0.0897
2847.00,0.0914
2846.00,0.0939
2845.00,0.0976
2844.00,0.1024
2843.00,0.1082
2842.00,0.1143
2841.00,0.1202
2840.00,0.1250
2839.00,0.1277
2838.00,0.1277
2837.00,0.1244
2836.00,0.1178
2835.00,0.1086
2834.00,0.0977
2833.00,0.0863
2832.00,0.0754
2831.00,0.0657
2830.00,0.0575
2829.00,0.0508
2828.00,0.0454
2827.00,0.0410
2826.00,0.0374
2825.00,0.0344
2824.00,0.0319
2823.00,0.0298
2822.00,0.0280
2821.00,0.0264
2820.00,0.0250
2819.00,0.0239
2818.00,0.0229
2817.00,0.0221
2816.00,0.0213
2815.00,0.0206
2814.00,0.0200
2813.00,0.0193
2812.00,0.0188
2811.00,0.0182
2810.00,0.0177
2809.00,0.0172
2808.00,0.0166
2807.00,0.0159
2806.00,0.0153
2805.00,0.0146
2804.00,0.0139
2803.00,0.0133
2802.00,0.0128
2801.00,0.0124
2800.00,0.0120
2799.00,0.0117
2798.00,0.0114
2797.00,0.0112
2796.00,0.0109
2795.00,0.0107
2794.00,0.0105
2793.00,0.0102
2792.00,0.0099
2791.00,0.0095
2790.00,0.0092
2789.00,0.0088
2788.00,0.0085
2787.00,0.0082
2786.00,0.0079
2785.00,0.0076
2784.00,0.0074
2783.00,0.0071
2782.00,0.0069
2781.00,0.0067
2780.00,0.0065
2779.00,0.0063
2778.00,0.0062
2777.00,0.0060
2776.00,0.0059
2775.00,0.0058
2774.00,0.0057
2773.00,0.0057
2772.00,0.0056
2771.00,0.0056
2770.00,0.0056
2769.00,0.0055
2768.00,0.0055
2767.00,0.0055
2766.00,0.0054
2765.00,0.0054
2764.00,0.0053
2763.00,0.0053
2762.00,0.0053
2761.00,0.0052
2760.00,0.0052
2759.00,0.0052
2758.00,0.0052
2757.00,0.0051
2756.00,0.0051
2755.00,0.0051
2754.00,0.0051
2753.00,0.0051
2752.00,0.0051
2751.00,0.0050
2750.00,0.0050
2749.00,0.0050
2748.00,0.0050
2747.00,0.0051
2746.00,0.0051
2745.00,0.0052
2744.00,0.0052
2743.00,0.0053
2742.00,0.0054
2741.00,0.0055
2740.00,0.0056
2739.00,0.0057
2738.00,0.0059
2737.00,0.0060
2736.00,0.0062
2735.00,0.0063
2734.00,0.0064
2733.00,0.0065
2732.00,0.0067
2731.00,0.0069
2730.00,0.0071
2729.00,0.0074
2728.00,0.0076
2727.00,0.0079
2726.00,0.0082
2725.00,0.0084
2724.00,0.0086
2723.00,0.0087
2722.00,0.0087
2721.00,0.0085
2720.00,0.0082
2719.00,0.0079
2718.00,0.0076
2717.00,0.0073
2716.00,0.0070
2715.00,0.0067
2714.00,0.0065
2713.00,0.0063
2712.00,0.0061
2711.00,0.0059
2710.00,0.0057
2709.00,0.0055
2708.00,0.0053
2707.00,0.0052
2706.00,0.0051
2705.00,0.0050
2704.00,0.0049
2703.00,0.0048
2702.00,0.0047
2701.00,0.0046
2700.00,0.0046
2699.00,0.0045
2698.00,0.0045
2697.00,0.0045
2696.00,0.0045
2695.00,0.0045
2694.00,0.0045
2693.00,0.0044
2692.00,0.0044
2691.00,0.0044
2690.00,0.0045
2689.00,0.0045
2688.00,0.0045
2687.00,0.0045
2686.00,0.0045
2685.00,0.0045
2684.00,0.0045
2683.00,0.0045
2682.00,0.0045
2681.00,0.0045
2680.00,0.0045
2679.00,0.0045
2678.00,0.0045
2677.00,0.0046
2676.00,0.0046
2675.00,0.0046
2674.00,0.0046
2673.00,0.0045
2672.00,0.0045
2671.00,0.0045
2670.00,0.0045
2669.00,0.0045
2668.00,0.0045
2667.00,0.0045
2666.00,0.0045
2665.00,0.0046
2664.00,0.0047
2663.00,0.0047
2662.00,0.0048
2661.00,0.0049
2660.00,0.0049
2659.00,0.0049
2658.00,0.0049
2657.00,0.0049
2656.00,0.0048
2655.00,0.0047
2654.00,0.0047
2653.00,0.0046
2652.00,0.0046
2651.00,0.0045
2650.00,0.0045
2649.00,0.0045
2648.00,0.0044
2647.00,0.0044
2646.00,0.0044
2645.00,0.0043
2644.00,0.0042
2643.00,0.0042
2642.00,0.0041
2641.00,0.0041
2640.00,0.0040
2639.00,0.0040
2638.00,0.0039
2637.00,0.0039
2636.00,0.0039
2635.00,0.0039
2634.00,0.0040
2633.00,0.0040
2632.00,0.0039
2631.00,0.0039
2630.00,0.0039
2629.00,0.0039
2628.00,0.0039
2627.00,0.0040
2626.00,0.0041
2625.00,0.0042
2624.00,0.0042
2623.00,0.0042
2622.00,0.0042
2621.00,0.0041
2620.00,0.0041
2619.00,0.0041
2618.00,0.0042
2617.00,0.0042
2616.00,0.0041
2615.00,0.0041
2614.00,0.0040
2613.00,0.0040
2612.00,0.0039
2611.00,0.0038
2610.00,0.0038
2609.00,0.0037
2608.00,0.0036
2607.00,0.0036
2606.00,0.0035
2605.00,0.0034
2604.00,0.0033
2603.00,0.0033
2602.00,0.0032
2601.00,0.0031
2600.00,0.0032
2599.00,0.0032
2598.00,0.0032
2597.00,0.0032
2596.00,0.0032
2595.00,0.0031
2594.00,0.0031
2593.00,0.0032
2592.00,0.0033
2591.00,0.0033
2590.00,0.0034
2589.00,0.0035
2588.00,0.0036
2587.00,0.0037
2586.00,0.0038
2585.00,0.0038
2584.00,0.0038
2583.00,0.0039
2582.00,0.0039
2581.00,0.0038
2580.00,0.0038
2579.00,0.0037
2578.00,0.0037
2577.00,0.0036
2576.00,0.0035
2575.00,0.0033
2574.00,0.0032
2573.00,0.0030
2572.00,0.0030
2571.00,0.0029
2570.00,0.0029
2569.00,0.0028
2568.00,0.0028
2567.00,0.0028
2566.00,0.0027
2565.00,0.0026
2564.00,0.0025
2563.00,0.0024
2562.00,0.0023
2561.00,0.0023
2560.00,0.0023
2559.00,0.0024
2558.00,0.0024
2557.00,0.0023
2556.00,0.0022
2555.00,0.0022
2554.00,0.0022
2553.00,0.0022
2552.00,0.0022
2551.00,0.0022
2550.00,0.0022
2549.00,0.0021
2548.00,0.0021
2547.00,0.0020
2546.00,0.0020
2545.00,0.0019
2544.00,0.0019
2543.00,0.0019
2542.00,0.0018
2541.00,0.0018
2540.00,0.0017
2539.00,0.0017
2538.00,0.0017
2537.00,0.0017
2536.00,0.0017
2535.00,0.0017
2534.00,0.0016
2533.00,0.0016
2532.00,0.0016
2531.00,0.0015
2530.00,0.0015
2529.00,0.0015
2528.00,0.0015
2527.00,0.0015
2526.00,0.0015
2525.00,0.0015
2524.00,0.0015
2523.00,0.0014
2522.00,0.0014
2521.00,0.0014
2520.00,0.0013
2519.00,0.0013
2518.00,0.0013
2517.00,0.0012
2516.00,0.0012
2515.00,0.0011
2514.00,0.0011
2513.00,0.0011
2512.00,0.0011
2511.00,0.0011
2510.00,0.0011
2509.00,0.0012
2508.00,0.0012
2507.00,0.0012
2506.00,0.0012
2505.00,0.0012
2504.00,0.0012
2503.00,0.0011
2502.00,0.0011
2501.00,0.0011
2500.00,0.0011
2499.00,0.0011
2498.00,0.0011
2497.00,0.0011
2496.00,0.0011
2495.00,0.0011
2494.00,0.0011
2493.00,0.0011
2492.00,0.0011
2491.00,0.0011
2490.00,0.0011
2489.00,0.0010
2488.00,0.0010
2487.00,0.0011
2486.00,0.0011
2485.00,0.0011
2484.00,0.0011
2483.00,0.0011
2482.00,0.0011
2481.00,0.0011
2480.00,0.0011
2479.00,0.0011
2478.00,0.0010
2477.00,0.0010
2476.00,0.0009
2475.00,0.0009
2474.00,0.0009
2473.00,0.0008
2472.00,0.0008
2471.00,0.0009
2470.00,0.0009
2469.00,0.0009
2468.00,0.0009
2467.00,0.0009
2466.00,0.0009
2465.00,0.0009
2464.00,0.0009
2463.00,0.0010
2462.00,0.0010
2461.00,0.0011
2460.00,0.0011
2459.00,0.0011
2458.00,0.0012
2457.00,0.0012
2456.00,0.0013
2455.00,0.0013
2454.00,0.0013
2453.00,0.0013
2452.00,0.0013
2451.00,0.0012
2450.00,0.0012
2449.00,0.0012
2448.00,0.0012
2447.00,0.0012
2446.00,0.0012
2445.00,0.0012
2444.00,0.0012
2443.00,0.0012
2442.00,0.0011
2441.00,0.0011
2440.00,0.0012
2439.00,0.0012
2438.00,0.0012
2437.00,0.0012
2436.00,0.0012
2435.00,0.0013
2434.00,0.0013
2433.00,0.0013
2432.00,0.0013
2431.00,0.0013
2430.00,0.0012
2429.00,0.0012
2428.00,0.0011
2427.00,0.0012
2426.00,0.0012
2425.00,0.0012
2424.00,0.0012
2423.00,0.0011
2422.00,0.0010
2421.00,0.0009
2420.00,0.0009
2419.00,0.0009
2418.00,0.0009
2417.00,0.0009
2416.00,0.0009
2415.00,0.0009
2414.00,0.0010
2413.00,0.0010
2412.00,0.0010
2411.00,0.0010
2410.00,0.0010
2409.00,0.0010
2408.00,0.0009
2407.00,0.0009
2406.00,0.0008
2405.00,0.0008
2404.00,0.0008
2403.00,0.0007
2402.00,0.0007
2401.00,0.0007
2400.00,0.0007
2399.00,0.0008
2398.00,0.0008
2397.00,0.0009
2396.00,0.0009
2395.00,0.0009
2394.00,0.0009
2393.00,0.0009
2392.00,0.0008
2391.00,0.0008
2390.00,0.0008
2389.00,0.0008
2388.00,0.0008
2387.00,0.0007
2386.00,0.0007
2385.00,0.0006
2384.00,0.0006
2383.00,0.0005
2382.00,0.0005
2381.00,0.0005
2380.00,0.0005
2379.00,0.0004
2378.00,0.0004
2377.00,0.0004
2376.00,0.0004
2375.00,0.0004
2374.00,0.0005
2373.00,0.0005
2372.00,0.0005
2371.00,0.0004
2370.00,0.0004
2369.00,0.0003
2368.00,0.0003
2367.00,0.0003
2366.00,0.0003
2365.00,0.0004
2364.00,0.0006
2363.00,0.0007
2362.00,0.0007
2361.00,0.0006
2360.00,0.0005
2359.00,0.0005
2358.00,0.0005
2357.00,0.0005
2356.00,0.0006
2355.00,0.0005
2354.00,0.0005
2353.00,0.0004
2352.00,0.0004
2351.00,0.0005
2350.00,0.0005
2349.00,0.0006
2348.00,0.0006
2347.00,0.0006
2346.00,0.0006
2345.00,0.0006
2344.00,0.0006
2343.00,0.0006
2342.00,0.0007
2341.00,0.0007
2340.00,0.0008
2339.00,0.0009
2338.00,0.0009
2337.00,0.0009
2336.00,0.0008
2335.00,0.0008
2334.00,0.0008
2333.00,0.0008
2332.00,0.0008
2331.00,0.0007
2330.00,0.0007
2329.00,0.0008
2328.00,0.0010
2327.00,0.0013
2326.00,0.0018
2325.00,0.0022
2324.00,0.0024
2323.00,0.0023
2322.00,0.0021
2321.00,0.0019
2320.00,0.0017
2319.00,0.0016
2318.00,0.0015
2317.00,0.0014
2316.00,0.0013
2315.00,0.0012
2314.00,0.0011
2313.00,0.0010
2312.00,0.0010
2311.00,0.0010
2310.00,0.0010
2309.00,0.0010
2308.00,0.0011
2307.00,0.0011
2306.00,0.0011
2305.00,0.0011
2304.00,0.0011
2303.00,0.0011
2302.00,0.0012
2301.00,0.0012
2300.00,0.0012
2299.00,0.0012
2298.00,0.0012
2297.00,0.0013
2296.00,0.0013
2295.00,0.0014
2294.00,0.0015
2293.00,0.0016
2292.00,0.0017
2291.00,0.0018
2290.00,0.0018
2289.00,0.0019
2288.00,0.0018
2287.00,0.0018
2286.00,0.0018
2285.00,0.0017
2284.00,0.0017
2283.00,0.0016
2282.00,0.0016
2281.00,0.0015
2280.00,0.0015
2279.00,0.0015
2278.00,0.0015
2277.00,0.0015
2276.00,0.0015
2275.00,0.0014
2274.00,0.0014
2273.00,0.0014
2272.00,0.0014
2271.00,0.0014
2270.00,0.0014
2269.00,0.0013
2268.00,0.0013
2267.00,0.0012
2266.00,0.0013
2265.00,0.0014
2264.00,0.0015
2263.00,0.0015
2262.00,0.0015
2261.00,0.0015
2260.00,0.0016
2259.00,0.0016
2258.00,0.0016
2257.00,0.0015
2256.00,0.0012
2255.00,0.0010
2254.00,0.0008
2253.00,0.0007
2252.00,0.0007
2251.00,0.0007
2250.00,0.0008
2249.00,0.0008
2248.00,0.0009
2247.00,0.0009
2246.00,0.0008
2245.00,0.0008
2244.00,0.0007
2243.00,0.0007
2242.00,0.0007
2241.00,0.0007
2240.00,0.0008
2239.00,0.0009
2238.00,0.0010
2237.00,0.0010
2236.00,0.0010
2235.00,0.0009
2234.00,0.0009
2233.00,0.0009
2232.00,0.0009
2231.00,0.0009
2230.00,0.0008
2229.00,0.0006
2228.00,0.0005
2227.00,0.0005
2226.00,0.0005
2225.00,0.0005
2224.00,0.0006
2223.00,0.0007
2222.00,0.0008
2221.00,0.0009
2220.00,0.0007
2219.00,0.0004
2218.00,0.0002
2217.00,0.0001
2216.00,0.0001
2215.00,0.0002
2214.00,0.0005
2213.00,0.0007
2212.00,0.0008
2211.00,0.0008
2210.00,0.0007
2209.00,0.0005
2208.00,0.0004
2207.00,0.0003
2206.00,0.0003
2205.00,0.0003
2204.00,0.0004
2203.00,0.0004
2202.00,0.0005
2201.00,0.0005
2200.00,0.0006
2199.00,0.0006
2198.00,0.0004
2197.00,0.0003
2196.00,0.0002
2195.00,0.0002
2194.00,0.0005
2193.00,0.0009
2192.00,0.0012
2191.00,0.0014
2190.00,0.0014
2189.00,0.0014
2188.00,0.0015
2187.00,0.0018
2186.00,0.0021
2185.00,0.0022
2184.00,0.0020
2183.00,0.0014
2182.00,0.0007
2181.00,0.0003
2180.00,0.0001
2179.00,0.0002
2178.00,0.0004
2177.00,0.0003
2176.00,0.0002
2175.00,-0.0000
2174.00,-0.0001
2173.00,-0.0000
2172.00,0.0003
2171.00,0.0007
2170.00,0.0012
2169.00,0.0016
2168.00,0.0019
2167.00,0.0020
2166.00,0.0020
2165.00,0.0020
2164.00,0.0019
2163.00,0.0020
2162.00,0.0019
2161.00,0.0016
2160.00,0.0006
2159.00,-0.0008
2158.00,-0.0021
2157.00,-0.0028
2156.00,-0.0028
2155.00,-0.0025
2154.00,-0.0023
2153.00,-0.0021
2152.00,-0.0018
2151.00,-0.0016
2150.00,-0.0016
2149.00,-0.0016
2148.00,-0.0016
2147.00,-0.0016
2146.00,-0.0016
2145.00,-0.0015
2144.00,-0.0014
2143.00,-0.0013
2142.00,-0.0011
2141.00,-0.0009
2140.00,-0.0009
2139.00,-0.0009
2138.00,-0.0011
2137.00,-0.0014
2136.00,-0.0016
2135.00,-0.0019
2134.00,-0.0020
2133.00,-0.0020
2132.00,-0.0019
2131.00,-0.0017
2130.00,-0.0015
2129.00,-0.0012
2128.00,-0.0010
2127.00,-0.0007
2126.00,-0.0005
2125.00,-0.0005
2124.00,-0.0005
2123.00,-0.0006
2122.00,-0.0006
2121.00,-0.0005
2120.00,-0.0003
2119.00,-0.0002
2118.00,-0.0001
2117.00,-0.0001
2116.00,-0.0001
2115.00,-0.0001
2114.00,-0.0000
2113.00,-0.0000
2112.00,0.0000
2111.00,0.0000
2110.00,0.0001
2109.00,0.0001
2108.00,0.0002
2107.00,0.0003
2106.00,0.0003
2105.00,0.0002
2104.00,0.0001
2103.00,0.0001
2102.00,0.0001
2101.00,0.0002
2100.00,0.0003
2099.00,0.0003
2098.00,0.0002
2097.00,0.0000
2096.00,-0.0001
2095.00,-0.0003
2094.00,-0.0004
2093.00,-0.0004
2092.00,-0.0004
2091.00,-0.0003
2090.00,-0.0002
2089.00,0.0000
2088.00,0.0002
2087.00,0.0002
2086.00,0.0001
2085.00,-0.0000
2084.00,-0.0001
2083.00,-0.0001
2082.00,0.0000
2081.00,0.0002
2080.00,0.0003
2079.00,0.0003
2078.00,0.0002
2077.00,0.0001
2076.00,0.0001
2075.00,0.0001
2074.00,0.0002
2073.00,0.0002
2072.00,0.0002
2071.00,0.0001
2070.00,0.0000
2069.00,0.0000
2068.00,0.0001
2067.00,0.0001
2066.00,0.0001
2065.00,0.0001
2064.00,0.0000
2063.00,-0.0001
2062.00,-0.0001
2061.00,-0.0001
2060.00,-0.0001
2059.00,-0.0001
2058.00,-0.0001
2057.00,-0.0001
2056.00,-0.0000
2055.00,0.0001
2054.00,0.0004
2053.00,0.0008
2052.00,0.0012
2051.00,0.0013
2050.00,0.0011
2049.00,0.0007
2048.00,0.0004
2047.00,0.0003
2046.00,0.0003
2045.00,0.0003
2044.00,0.0001
2043.00,-0.0000
2042.00,-0.0001
2041.00,-0.0000
2040.00,0.0001
2039.00,0.0002
2038.00,0.0003
2037.00,0.0004
2036.00,0.0003
2035.00,0.0001
2034.00,-0.0000
2033.00,-0.0001
2032.00,-0.0002
2031.00,-0.0002
2030.00,-0.0003
2029.00,-0.0003
2028.00,-0.0005
2027.00,-0.0009
2026.00,-0.0013
2025.00,-0.0015
2024.00,-0.0016
2023.00,-0.0016
2022.00,-0.0016
2021.00,-0.0015
2020.00,-0.0013
2019.00,-0.0010
2018.00,-0.0007
2017.00,-0.0006
2016.00,-0.0007
2015.00,-0.0007
2014.00,-0.0007
2013.00,-0.0005
2012.00,-0.0003
2011.00,-0.0004
2010.00,-0.0007
2009.00,-0.0013
2008.00,-0.0020
2007.00,-0.0025
2006.00,-0.0029
2005.00,-0.0030
2004.00,-0.0029
2003.00,-0.0027
2002.00,-0.0026
2001.00,-0.0025
2000.00,-0.0025
1999.00,-0.0023
1998.00,-0.0018
1997.00,-0.0013
1996.00,-0.0010
1995.00,-0.0010
1994.00,-0.0012
1993.00,-0.0014
1992.00,-0.0014
1991.00,-0.0012
1990.00,-0.0009
1989.00,-0.0007
1988.00,-0.0005
1987.00,-0.0003
1986.00,-0.0002
1985.00,-0.0000
1984.00,0.0001
1983.00,0.0002
1982.00,0.0003
1981.00,0.0006
1980.00,0.0007
1979.00,0.0003
1978.00,-0.0005
1977.00,-0.0014
1976.00,-0.0018
1975.00,-0.0018
1974.00,-0.0015
1973.00,-0.0013
1972.00,-0.0013
1971.00,-0.0014
1970.00,-0.0016
1969.00,-0.0017
1968.00,-0.0017
1967.00,-0.0018
1966.00,-0.0017
1965.00,-0.0015
1964.00,-0.0013
1963.00,-0.0012
1962.00,-0.0014
1961.00,-0.0016
1960.00,-0.0019
1959.00,-0.0021
1958.00,-0.0021
1957.00,-0.0020
1956.00,-0.0018
1955.00,-0.0018
1954.00,-0.0020
1953.00,-0.0021
1952.00,-0.0021
1951.00,-0.0020
1950.00,-0.0018
1949.00,-0.0016
1948.00,-0.0015
1947.00,-0.0016
1946.00,-0.0017
1945.00,-0.0017
1944.00,-0.0016
1943.00,-0.0014
1942.00,-0.0013
1941.00,-0.0013
1940.00,-0.0013
1939.00,-0.0013
1938.00,-0.0013
1937.00,-0.0013
1936.00,-0.0012
1935.00,-0.0012
1934.00,-0.0010
1933.00,-0.0009
1932.00,-0.0009
1931.00,-0.0009
1930.00,-0.0009
1929.00,-0.0010
1928.00,-0.0011
1927.00,-0.0011
1926.00,-0.0011
1925.00,-0.0010
1924.00,-0.0010
1923.00,-0.0009
1922.00,-0.0008
1921.00,-0.0008
1920.00,-0.0007
1919.00,-0.0006
1918.00,-0.0005
1917.00,-0.0003
1916.00,-0.0002
1915.00,-0.0002
1914.00,-0.0003
1913.00,-0.0004
1912.00,-0.0004
1911.00,-0.0005
1910.00,-0.0005
1909.00,-0.0005
1908.00,-0.0006
1907.00,-0.0006
1906.00,-0.0005
1905.00,-0.0003
1904.00,-0.0002
1903.00,-0.0001
1902.00,-0.0002
1901.00,-0.0002
1900.00,-0.0003
1899.00,-0.0003
1898.00,-0.0003
1897.00,-0.0003
1896.00,-0.0002
1895.00,-0.0002
1894.00,-0.0001
1893.00,0.0000
1892.00,0.0001
1891.00,-0.0000
1890.00,-0.0001
1889.00,-0.0002
1888.00,-0.0002
1887.00,-0.0003
1886.00,-0.0003
1885.00,-0.0003
1884.00,-0.0003
1883.00,-0.0002
1882.00,-0.0002
1881.00,-0.0002
1880.00,-0.0002
1879.00,-0.0002
1878.00,-0.0002
1877.00,-0.0001
1876.00,-0.0001
1875.00,-0.0001
1874.00,-0.0001
1873.00,-0.0002
1872.00,-0.0002
1871.00,-0.0002
1870.00,-0.0003
1869.00,-0.0002
1868.00,-0.0002
1867.00,-0.0002
1866.00,-0.0001
1865.00,-0.0001
1864.00,-0.0001
1863.00,-0.0001
1862.00,-0.0000
1861.00,0.0000
1860.00,0.0001
1859.00,0.0002
1858.00,0.0002
1857.00,0.0001
1856.00,0.0001
1855.00,0.0000
1854.00,-0.0000
1853.00,0.0000
1852.00,0.0000
1851.00,0.0000
1850.00,0.0000
1849.00,0.0001
1848.00,0.0001
1847.00,0.0001
1846.00,0.0000
1845.00,-0.0001
1844.00,-0.0000
1843.00,0.0000
1842.00,0.0001
1841.00,0.0002
1840.00,0.0003
1839.00,0.0003
1838.00,0.0002
1837.00,0.0001
1836.00,0.0001
1835.00,0.0001
1834.00,0.0002
1833.00,0.0002
1832.00,0.0002
1831.00,0.0002
1830.00,0.0002
1829.00,0.0002
1828.00,0.0003
1827.00,0.0004
1826.00,0.0004
1825.00,0.0004
1824.00,0.0004
1823.00,0.0004
1822.00,0.0004
1821.00,0.0003
1820.00,0.0002
1819.00,0.0002
1818.00,0.0001
1817.00,0.0000
1816.00,0.0001
1815.00,0.0001
1814.00,0.0002
1813.00,0.0002
1812.00,0.0002
1811.00,0.0002
1810.00,0.0002
1809.00,0.0002
1808.00,0.0002
1807.00,0.0003
1806.00,0.0003
1805.00,0.0003
1804.00,0.0004
1803.00,0.0004
1802.00,0.0004
1801.00,0.0004
1800.00,0.0004
1799.00,0.0004
1798.00,0.0004
1797.00,0.0003
1796.00,0.0004
1795.00,0.0004
1794.00,0.0005
1793.00,0.0005
1792.00,0.0005
1791.00,0.0006
1790.00,0.0006
1789.00,0.0007
1788.00,0.0007
1787.00,0.0007
1786.00,0.0007
1785.00,0.0007
1784.00,0.0007
1783.00,0.0007
1782.00,0.0007
1781.00,0.0007
1780.00,0.0007
1779.00,0.0007
1778.00,0.0007
1777.00,0.0006
1776.00,0.0007
1775.00,0.0007
1774.00,0.0007
1773.00,0.0008
1772.00,0.0009
1771.00,0.0009
1770.00,0.0010
1769.00,0.0010
1768.00,0.0010
1767.00,0.0010
1766.00,0.0011
1765.00,0.0011
1764.00,0.0012
1763.00,0.0012
1762.00,0.0013
1761.00,0.0014
1760.00,0.0015
1759.00,0.0016
1758.00,0.0017
1757.00,0.0019
1756.00,0.0020
1755.00,0.0021
1754.00,0.0022
1753.00,0.0023
1752.00,0.0024
1751.00,0.0025
1750.00,0.0025
1749.00,0.0025
1748.00,0.0026
1747.00,0.0026
1746.00,0.0025
1745.00,0.0025
1744.00,0.0025
1743.00,0.0025
1742.00,0.0025
1741.00,0.0025
1740.00,0.0025
1739.00,0.0025
1738.00,0.0025
1737.00,0.0025
1736.00,0.0025
1735.00,0.0025
1734.00,0.0024
1733.00,0.0023
1732.00,0.0021
1731.00,0.0020
1730.00,0.0020
1729.00,0.0020
1728.00,0.0021
1727.00,0.0021
1726.00,0.0022
1725.00,0.0022
1724.00,0.0023
1723.00,0.0023
1722.00,0.0022
1721.00,0.0022
1720.00,0.0022
1719.00,0.0021
1718.00,0.0020
1717.00,0.0020
1716.00,0.0020
1715.00,0.0021
1714.00,0.0021
1713.00,0.0021
1712.00,0.0020
1711.00,0.0020
1710.00,0.0021
1709.00,0.0021
1708.00,0.0021
1707.00,0.0021
1706.00,0.0021
1705.00,0.0021
1704.00,0.0021
1703.00,0.0021
1702.00,0.0021
1701.00,0.0022
1700.00,0.0023
1699.00,0.0022
1698.00,0.0021
1697.00,0.0021
1696.00,0.0022
1695.00,0.0022
1694.00,0.0023
1693.00,0.0023
1692.00,0.0023
1691.00,0.0023
1690.00,0.0023
1689.00,0.0023
1688.00,0.0023
1687.00,0.0023
1686.00,0.0022
1685.00,0.0022
1684.00,0.0022
1683.00,0.0023
1682.00,0.0023
1681.00,0.0023
1680.00,0.0023
1679.00,0.0023
1678.00,0.0024
1677.00,0.0024
1676.00,0.0025
1675.00,0.0026
1674.00,0.0026
1673.00,0.0026
1672.00,0.0026
1671.00,0.0026
1670.00,0.0027
1669.00,0.0027
1668.00,0.0027
1667.00,0.0027
1666.00,0.0027
1665.00,0.0027
1664.00,0.0027
1663.00,0.0027
1662.00,0.0028
1661.00,0.0028
1660.00,0.0029
1659.00,0.0029
1658.00,0.0029
1657.00,0.0030
1656.00,0.0031
1655.00,0.0032
1654.00,0.0032
1653.00,0.0032
1652.00,0.0031
1651.00,0.0030
1650.00,0.0030
1649.00,0.0030
1648.00,0.0031
1647.00,0.0032
1646.00,0.0033
1645.00,0.0033
1644.00,0.0034
1643.00,0.0034
1642.00,0.0035
1641.00,0.0035
1640.00,0.0036
1639.00,0.0037
1638.00,0.0037
1637.00,0.0037
1636.00,0.0037
1635.00,0.0036
1634.00,0.0035
1633.00,0.0035
1632.00,0.0035
1631.00,0.0035
1630.00,0.0034
1629.00,0.0034
1628.00,0.0033
1627.00,0.0033
1626.00,0.0033
1625.00,0.0033
1624.00,0.0032
1623.00,0.0031
1622.00,0.0031
1621.00,0.0030
1620.00,0.0030
1619.00,0.0031
1618.00,0.0031
1617.00,0.0031
1616.00,0.0032
1615.00,0.0031
1614.00,0.0031
1613.00,0.0031
1612.00,0.0031
1611.00,0.0031
1610.00,0.0031
1609.00,0.0031
1608.00,0.0031
1607.00,0.0031
1606.00,0.0031
1605.00,0.0032
1604.00,0.0032
1603.00,0.0031
1602.00,0.0031
1601.00,0.0031
1600.00,0.0032
1599.00,0.0031
1598.00,0.0031
1597.00,0.0031
1596.00,0.0031
1595.00,0.0031
1594.00,0.0031
1593.00,0.0032
1592.00,0.0032
1591.00,0.0032
1590.00,0.0033
1589.00,0.0033
1588.00,0.0034
1587.00,0.0035
1586.00,0.0035
1585.00,0.0036
1584.00,0.0037
1583.00,0.0038
1582.00,0.0040
1581.00,0.0041
1580.00,0.0043
1579.00,0.0044
1578.00,0.0044
1577.00,0.0045
1576.00,0.0044
1575.00,0.0044
1574.00,0.0043
1573.00,0.0043
1572.00,0.0043
1571.00,0.0042
1570.00,0.0041
1569.00,0.0040
1568.00,0.0039
1567.00,0.0039
1566.00,0.0038
1565.00,0.0038
1564.00,0.0038
1563.00,0.0038
1562.00,0.0039
1561.00,0.0039
1560.00,0.0038
1559.00,0.0036
1558.00,0.0034
1557.00,0.0034
1556.00,0.0035
1555.00,0.0036
1554.00,0.0037
1553.00,0.0038
1552.00,0.0039
1551.00,0.0040
1550.00,0.0041
1549.00,0.0042
1548.00,0.0043
1547.00,0.0044
1546.00,0.0045
1545.00,0.0046
1544.00,0.0048
1543.00,0.0049
1542.00,0.0049
1541.00,0.0049
1540.00,0.0048
1539.00,0.0046
1538.00,0.0045
1537.00,0.0045
1536.00,0.0045
1535.00,0.0045
1534.00,0.0044
1533.00,0.0043
1532.00,0.0042
1531.00,0.0041
1530.00,0.0041
1529.00,0.0041
1528.00,0.0041
1527.00,0.0041
1526.00,0.0041
1525.00,0.0041
1524.00,0.0041
1523.00,0.0041
1522.00,0.0041
1521.00,0.0042
1520.00,0.0042
1519.00,0.0043
1518.00,0.0043
1517.00,0.0044
1516.00,0.0045
1515.00,0.0046
1514.00,0.0046
1513.00,0.0047
1512.00,0.0048
1511.00,0.0049
1510.00,0.0050
1509.00,0.0051
1508.00,0.0053
1507.00,0.0054
1506.00,0.0054
1505.00,0.0055
1504.00,0.0056
1503.00,0.0058
1502.00,0.0059
1501.00,0.0061
1500.00,0.0063
1499.00,0.0065
1498.00,0.0066
1497.00,0.0069
1496.00,0.0072
1495.00,0.0074
1494.00,0.0076
1493.00,0.0078
1492.00,0.0081
1491.00,0.0084
1490.00,0.0087
1489.00,0.0091
1488.00,0.0096
1487.00,0.0101
1486.00,0.0106
1485.00,0.0113
1484.00,0.0120
1483.00,0.0128
1482.00,0.0136
1481.00,0.0148
1480.00,0.0160
1479.00,0.0172
1478.00,0.0188
1477.00,0.0209
1476.00,0.0235
1475.00,0.0265
1474.00,0.0306
1473.00,0.0363
1472.00,0.0431
1471.00,0.0495
1470.00,0.0557
1469.00,0.0623
1468.00,0.0694
1467.00,0.0772
1466.00,0.0861
1465.00,0.0956
1464.00,0.1039
1463.00,0.1095
1462.00,0.1131
1461.00,0.1156
1460.00,0.1173
1459.00,0.1184
1458.00,0.1194
1457.00,0.1203
1456.00,0.1205
1455.00,0.1199
1454.00,0.1190
1453.00,0.1175
1452.00,0.1150
1451.00,0.1115
1450.00,0.1064
1449.00,0.0992
1448.00,0.0899
1447.00,0.0800
1446.00,0.0711
1445.00,0.0635
1444.00,0.0569
1443.00,0.0515
1442.00,0.0474
1441.00,0.0446
1440.00,0.0429
1439.00,0.0421
1438.00,0.0420
1437.00,0.0419
1436.00,0.0408
1435.00,0.0384
1434.00,0.0349
1433.00,0.0308
1432.00,0.0265
1431.00,0.0226
1430.00,0.0196
1429.00,0.0173
1428.00,0.0157
1427.00,0.0147
1426.00,0.0140
1425.00,0.0134
1424.00,0.0128
1423.00,0.0124
1422.00,0.0122
1421.00,0.0120
1420.00,0.0117
1419.00,0.0115
1418.00,0.0113
1417.00,0.0110
1416.00,0.0107
1415.00,0.0107
1414.00,0.0106
1413.00,0.0105
1412.00,0.0104
1411.00,0.0103
1410.00,0.0103
1409.00,0.0102
1408.00,0.0101
1407.00,0.0100
1406.00,0.0101
1405.00,0.0101
1404.00,0.0101
1403.00,0.0102
1402.00,0.0104
1401.00,0.0105
1400.00,0.0106
1399.00,0.0108
1398.00,0.0111
1397.00,0.0113
1396.00,0.0115
1395.00,0.0119
1394.00,0.0125
1393.00,0.0129
1392.00,0.0135
1391.00,0.0143
1390.00,0.0154
1389.00,0.0169
1388.00,0.0190
1387.00,0.0222
1386.00,0.0265
1385.00,0.0321
1384.00,0.0400
1383.00,0.0511
1382.00,0.0661
1381.00,0.0854
1380.00,0.1090
1379.00,0.1353
1378.00,0.1599
1377.00,0.1770
1376.00,0.1815
1375.00,0.1709
1374.00,0.1483
1373.00,0.1220
1372.00,0.0984
1371.00,0.0791
1370.00,0.0638
1369.00,0.0521
1368.00,0.0440
1367.00,0.0390
1366.00,0.0363
1365.00,0.0352
1364.00,0.0353
1363.00,0.0366
1362.00,0.0385
1361.00,0.0407
1360.00,0.0422
1359.00,0.0427
1358.00,0.0416
1357.00,0.0392
1356.00,0.0358
1355.00,0.0320
1354.00,0.0283
1353.00,0.0251
1352.00,0.0225
1351.00,0.0204
1350.00,0.0187
1349.00,0.0172
1348.00,0.0160
1347.00,0.0150
1346.00,0.0142
1345.00,0.0135
1344.00,0.0130
1343.00,0.0125
1342.00,0.0121
1341.00,0.0118
1340.00,0.0115
1339.00,0.0113
1338.00,0.0112
1337.00,0.0112
1336.00,0.0113
1335.00,0.0115
1334.00,0.0118
1333.00,0.0121
1332.00,0.0126
1331.00,0.0129
1330.00,0.0130
1329.00,0.0129
1328.00,0.0126
1327.00,0.0122
1326.00,0.0116
1325.00,0.0111
1324.00,0.0105
1323.00,0.0100
1322.00,0.0096
1321.00,0.0092
1320.00,0.0089
1319.00,0.0087
1318.00,0.0086
1317.00,0.0085
1316.00,0.0085
1315.00,0.0085
1314.00,0.0085
1313.00,0.0086
1312.00,0.0087
1311.00,0.0090
1310.00,0.0094
1309.00,0.0101
1308.00,0.0112
1307.00,0.0125
1306.00,0.0137
1305.00,0.0145
1304.00,0.0148
1303.00,0.0144
1302.00,0.0137
1301.00,0.0131
1300.00,0.0127
1299.00,0.0125
1298.00,0.0125
1297.00,0.0125
1296.00,0.0124
1295.00,0.0122
1294.00,0.0118
1293.00,0.0114
1292.00,0.0108
1291.00,0.0103
1290.00,0.0099
1289.00,0.0095
1288.00,0.0091
1287.00,0.0088
1286.00,0.0086
1285.00,0.0084
1284.00,0.0082
1283.00,0.0081
1282.00,0.0080
1281.00,0.0079
1280.00,0.0079
1279.00,0.0078
1278.00,0.0077
1277.00,0.0077
1276.00,0.0076
1275.00,0.0076
1274.00,0.0076
1273.00,0.0076
1272.00,0.0077
1271.00,0.0078
1270.00,0.0080
1269.00,0.0082
1268.00,0.0084
1267.00,0.0086
1266.00,0.0089
1265.00,0.0092
1264.00,0.0095
1263.00,0.0099
1262.00,0.0103
1261.00,0.0107
1260.00,0.0113
1259.00,0.0120
1258.00,0.0128
1257.00,0.0135
1256.00,0.0137
1255.00,0.0135
1254.00,0.0127
1253.00,0.0117
1252.00,0.0108
1251.00,0.0100
1250.00,0.0094
1249.00,0.0090
1248.00,0.0086
1247.00,0.0083
1246.00,0.0081
1245.00,0.0079
1244.00,0.0078
1243.00,0.0076
1242.00,0.0075
1241.00,0.0074
1240.00,0.0074
1239.00,0.0073
1238.00,0.0073
1237.00,0.0073
1236.00,0.0073
1235.00,0.0073
1234.00,0.0073
1233.00,0.0073
1232.00,0.0074
1231.00,0.0074
1230.00,0.0075
1229.00,0.0075
1228.00,0.0076
1227.00,0.0078
1226.00,0.0081
1225.00,0.0084
1224.00,0.0087
1223.00,0.0090
1222.00,0.0093
1221.00,0.0095
1220.00,0.0097
1219.00,0.0097
1218.00,0.0097
1217.00,0.0095
1216.00,0.0092
1215.00,0.0089
1214.00,0.0087
1213.00,0.0085
1212.00,0.0083
1211.00,0.0081
1210.00,0.0080
1209.00,0.0079
1208.00,0.0077
1207.00,0.0076
1206.00,0.0075
1205.00,0.0075
1204.00,0.0075
1203.00,0.0075
1202.00,0.0076
1201.00,0.0076
1200.00,0.0076
1199.00,0.0076
1198.00,0.0076
1197.00,0.0075
1196.00,0.0075
1195.00,0.0075
1194.00,0.0076
1193.00,0.0076
1192.00,0.0076
1191.00,0.0076
1190.00,0.0076
1189.00,0.0077
1188.00,0.0078
1187.00,0.0079
1186.00,0.0080
1185.00,0.0081
1184.00,0.0083
1183.00,0.0085
1182.00,0.0087
1181.00,0.0090
1180.00,0.0094
1179.00,0.0099
1178.00,0.0107
1177.00,0.0117
1176.00,0.0129
1175.00,0.0145
1174.00,0.0166
1173.00,0.0193
1172.00,0.0226
1171.00,0.0264
1170.00,0.0300
1169.00,0.0329
1168.00,0.0345
1167.00,0.0348
1166.00,0.0337
1165.00,0.0318
1164.00,0.0296
1163.00,0.0275
1162.00,0.0257
1161.00,0.0242
1160.00,0.0229
1159.00,0.0220
1158.00,0.0213
1157.00,0.0209
1156.00,0.0205
1155.00,0.0203
1154.00,0.0200
1153.00,0.0197
1152.00,0.0192
1151.00,0.0185
1150.00,0.0177
1149.00,0.0167
1148.00,0.0157
1147.00,0.0147
1146.00,0.0138
1145.00,0.0130
1144.00,0.0122
1143.00,0.0114
1142.00,0.0107
1141.00,0.0101
1140.00,0.0096
1139.00,0.0091
1138.00,0.0088
1137.00,0.0085
1136.00,0.0082
1135.00,0.0080
1134.00,0.0077
1133.00,0.0075
1132.00,0.0073
1131.00,0.0072
1130.00,0.0071
1129.00,0.0071
1128.00,0.0070
1127.00,0.0070
1126.00,0.0071
1125.00,0.0071
1124.00,0.0072
1123.00,0.0073
1122.00,0.0074
1121.00,0.0074
1120.00,0.0075
1119.00,0.0076
1118.00,0.0077
1117.00,0.0079
1116.00,0.0079
1115.00,0.0079
1114.00,0.0080
1113.00,0.0080
1112.00,0.0082
1111.00,0.0086
1110.00,0.0090
1109.00,0.0094
1108.00,0.0099
1107.00,0.0105
1106.00,0.0111
1105.00,0.0116
1104.00,0.0121
1103.00,0.0123
1102.00,0.0122
1101.00,0.0119
1100.00,0.0114
1099.00,0.0108
1098.00,0.0102
1097.00,0.0097
1096.00,0.0093
1095.00,0.0089
1094.00,0.0086
1093.00,0.0083
1092.00,0.0081
1091.00,0.0080
1090.00,0.0079
1089.00,0.0079
1088.00,0.0077
1087.00,0.0076
1086.00,0.0075
1085.00,0.0075
1084.00,0.0076
1083.00,0.0077
1082.00,0.0078
1081.00,0.0078
1080.00,0.0077
1079.00,0.0076
1078.00,0.0075
1077.00,0.0074
1076.00,0.0074
1075.00,0.0073
1074.00,0.0073
1073.00,0.0073
1072.00,0.0073
1071.00,0.0074
1070.00,0.0075
1069.00,0.0076
1068.00,0.0075
1067.00,0.0075
1066.00,0.0075
1065.00,0.0075
1064.00,0.0075
1063.00,0.0076
1062.00,0.0077
1061.00,0.0078
1060.00,0.0079
1059.00,0.0079
1058.00,0.0081
1057.00,0.0083
1056.00,0.0085
1055.00,0.0087
1054.00,0.0089
1053.00,0.0091
1052.00,0.0093
1051.00,0.0096
1050.00,0.0100
1049.00,0.0104
1048.00,0.0110
1047.00,0.0117
1046.00,0.0124
1045.00,0.0128
1044.00,0.0129
1043.00,0.0127
1042.00,0.0124
1041.00,0.0121
1040.00,0.0117
1039.00,0.0115
1038.00,0.0114
1037.00,0.0113
1036.00,0.0112
1035.00,0.0110
1034.00,0.0109
1033.00,0.0108
1032.00,0.0108
1031.00,0.0108
1030.00,0.0108
1029.00,0.0108
1028.00,0.0109
1027.00,0.0110
1026.00,0.0111
1025.00,0.0113
1024.00,0.0115
1023.00,0.0117
1022.00,0.0120
1021.00,0.0123
1020.00,0.0125
1019.00,0.0127
1018.00,0.0128
1017.00,0.0129
1016.00,0.0129
1015.00,0.0129
1014.00,0.0130
1013.00,0.0130
1012.00,0.0131
1011.00,0.0131
1010.00,0.0132
1009.00,0.0134
1008.00,0.0137
1007.00,0.0143
1006.00,0.0152
1005.00,0.0164
1004.00,0.0181
1003.00,0.0207
1002.00,0.0241
1001.00,0.0285
1000.00,0.0331
999.00,0.0370
998.00,0.0391
997.00,0.0385
996.00,0.0354
995.00,0.0309
994.00,0.0261
993.00,0.0218
992.00,0.0185
991.00,0.0162
990.00,0.0147
989.00,0.0136
988.00,0.0129
987.00,0.0125
986.00,0.0124
985.00,0.0125
984.00,0.0129
983.00,0.0135
982.00,0.0146
981.00,0.0161
980.00,0.0184
979.00,0.0214
978.00,0.0252
977.00,0.0298
976.00,0.0349
975.00,0.0399
974.00,0.0436
973.00,0.0452
972.00,0.0437
971.00,0.0396
970.00,0.0338
969.00,0.0279
968.00,0.0228
967.00,0.0190
966.00,0.0162
965.00,0.0143
964.00,0.0129
963.00,0.0118
962.00,0.0110
961.00,0.0104
960.00,0.0099
959.00,0.0095
958.00,0.0092
957.00,0.0089
956.00,0.0087
955.00,0.0085
954.00,0.0083
953.00,0.0081
952.00,0.0080
951.00,0.0078
950.00,0.0077
949.00,0.0077
948.00,0.0077
947.00,0.0078
946.00,0.0080
945.00,0.0082
944.00,0.0085
943.00,0.0088
942.00,0.0091
941.00,0.0093
940.00,0.0093
939.00,0.0090
938.00,0.0085
937.00,0.0079
936.00,0.0074
935.00,0.0071
934.00,0.0069
933.00,0.0067
932.00,0.0064
931.00,0.0062
930.00,0.0060
929.00,0.0058
928.00,0.0058
927.00,0.0058
926.00,0.0059
925.00,0.0059
924.00,0.0059
923.00,0.0059
922.00,0.0059
921.00,0.0059
920.00,0.0059
919.00,0.0059
918.00,0.0059
917.00,0.0060
916.00,0.0060
915.00,0.0061
914.00,0.0062
913.00,0.0063
912.00,0.0064
911.00,0.0066
910.00,0.0067
909.00,0.0069
908.00,0.0071
907.00,0.0076
906.00,0.0083
905.00,0.0093
904.00,0.0107
903.00,0.0125
902.00,0.0143
901.00,0.0160
900.00,0.0171
899.00,0.0173
898.00,0.0165
897.00,0.0149
896.00,0.0131
895.00,0.0114
894.00,0.0100
893.00,0.0090
892.00,0.0083
891.00,0.0078
890.00,0.0075
889.00,0.0072
888.00,0.0070
887.00,0.0068
886.00,0.0067
885.00,0.0067
884.00,0.0067
883.00,0.0067
882.00,0.0067
881.00,0.0067
880.00,0.0068
879.00,0.0069
878.00,0.0070
877.00,0.0070
876.00,0.0070
875.00,0.0070
874.00,0.0071
873.00,0.0073
872.00,0.0074
871.00,0.0074
870.00,0.0074
869.00,0.0073
868.00,0.0073
867.00,0.0073
866.00,0.0073
865.00,0.0074
864.00,0.0075
863.00,0.0076
862.00,0.0078
861.00,0.0080
860.00,0.0082
859.00,0.0083
858.00,0.0085
857.00,0.0087
856.00,0.0088
855.00,0.0090
854.00,0.0092
853.00,0.0094
852.00,0.0097
851.00,0.0101
850.00,0.0107
849.00,0.0114
848.00,0.0125
847.00,0.0140
846.00,0.0165
845.00,0.0201
844.00,0.0253
843.00,0.0314
842.00,0.0367
841.00,0.0387
840.00,0.0364
839.00,0.0311
838.00,0.0249
837.00,0.0199
836.00,0.0165
835.00,0.0143
834.00,0.0129
833.00,0.0118
832.00,0.0111
831.00,0.0106
830.00,0.0102
829.00,0.0101
828.00,0.0101
827.00,0.0101
826.00,0.0101
825.00,0.0101
824.00,0.0101
823.00,0.0101
822.00,0.0101
821.00,0.0101
820.00,0.0102
819.00,0.0104
818.00,0.0107
817.00,0.0113
816.00,0.0122
815.00,0.0133
814.00,0.0146
813.00,0.0163
812.00,0.0182
811.00,0.0200
810.00,0.0214
809.00,0.0220
808.00,0.0217
807.00,0.0204
806.00,0.0187
805.00,0.0168
804.00,0.0152
803.00,0.0140
802.00,0.0130
801.00,0.0122
800.00,0.0115
799.00,0.0110
798.00,0.0105
797.00,0.0102
796.00,0.0099
795.00,0.0095
794.00,0.0092
793.00,0.0090
792.00,0.0087
791.00,0.0083
790.00,0.0080
789.00,0.0076
788.00,0.0073
787.00,0.0071
786.00,0.0068
785.00,0.0065
784.00,0.0063
783.00,0.0062
782.00,0.0062
781.00,0.0063
780.00,0.0064
779.00,0.0063
778.00,0.0062
777.00,0.0060
776.00,0.0058
775.00,0.0057
774.00,0.0057
773.00,0.0058
772.00,0.0059
771.00,0.0060
770.00,0.0060
769.00,0.0060
768.00,0.0061
767.00,0.0061
766.00,0.0060
765.00,0.0059
764.00,0.0059
763.00,0.0059
762.00,0.0060
761.00,0.0062
760.00,0.0064
759.00,0.0065
758.00,0.0065
757.00,0.0065
756.00,0.0066
755.00,0.0068
754.00,0.0070
753.00,0.0071
752.00,0.0072
751.00,0.0071
750.00,0.0072
749.00,0.0073
748.00,0.0075
747.00,0.0076
746.00,0.0078
745.00,0.0079
744.00,0.0080
743.00,0.0081
742.00,0.0082
741.00,0.0084
740.00,0.0088
739.00,0.0093
738.00,0.0097
737.00,0.0101
736.00,0.0105
735.00,0.0108
734.00,0.0112
733.00,0.0118
732.00,0.0125
731.00,0.0134
730.00,0.0142
729.00,0.0146
728.00,0.0147
727.00,0.0146
726.00,0.0146
725.00,0.0149
724.00,0.0154
723.00,0.0159
722.00,0.0164
721.00,0.0167
720.00,0.0166
719.00,0.0160
718.00,0.0149
717.00,0.0136
716.00,0.0125
715.00,0.0116
714.00,0.0112
713.00,0.0109
712.00,0.0106
711.00,0.0103
710.00,0.0099
709.00,0.0095
708.00,0.0093
707.00,0.0091
706.00,0.0090
705.00,0.0090
704.00,0.0090
703.00,0.0090
702.00,0.0089
701.00,0.0088
700.00,0.0086
699.00,0.0086
698.00,0.0087
697.00,0.0088
696.00,0.0088
695.00,0.0086
694.00,0.0086
693.00,0.0086
692.00,0.0087
691.00,0.0087
690.00,0.0087
689.00,0.0086
688.00,0.0088
687.00,0.0089
686.00,0.0088
685.00,0.0086
684.00,0.0084
683.00,0.0083
682.00,0.0082
681.00,0.0081
680.00,0.0080
679.00,0.0079
678.00,0.0079
677.00,0.0081
676.00,0.0082
675.00,0.0084
674.00,0.0087
673.00,0.0090
672.00,0.0094
671.00,0.0098
670.00,0.0101
669.00,0.0101
668.00,0.0097
667.00,0.0090
666.00,0.0083
665.00,0.0079
664.00,0.0079
663.00,0.0080
662.00,0.0082
661.00,0.0083
660.00,0.0082
659.00,0.0080
658.00,0.0078
657.00,0.0076
656.00,0.0074
655.00,0.0073
654.00,0.0072
653.00,0.0072
652.00,0.0072
651.00,0.0072
650.00,0.0072
649.00,0.0073
648.00,0.0074
647.00,0.0075
646.00,0.0075
645.00,0.0073
644.00,0.0071
643.00,0.0072
642.00,0.0075
641.00,0.0078
640.00,0.0080
639.00,0.0081
638.00,0.0081
637.00,0.0080
636.00,0.0078
635.00,0.0075
634.00,0.0072
633.00,0.0069
632.00,0.0067
631.00,0.0067
630.00,0.0069
629.00,0.0071
628.00,0.0074
627.00,0.0077
626.00,0.0079
625.00,0.0079
624.00,0.0078
623.00,0.0077
622.00,0.0076
621.00,0.0077
620.00,0.0078
619.00,0.0078
618.00,0.0078
617.00,0.0078
616.00,0.0076
615.00,0.0076
614.00,0.0076
613.00,0.0075
612.00,0.0074
611.00,0.0072
610.00,0.0072
609.00,0.0073
608.00,0.0073
607.00,0.0073
606.00,0.0073
605.00,0.0072
604.00,0.0071
603.00,0.0070
602.00,0.0069
601.00,0.0069
600.00,0.0069
599.00,0.0071
598.00,0.0073
597.00,0.0076
596.00,0.0077
595.00,0.0077
594.00,0.0075
593.00,0.0073
592.00,0.0072
591.00,0.0072
590.00,0.0073
589.00,0.0074
588.00,0.0074
587.00,0.0073
586.00,0.0072
585.00,0.0070
584.00,0.0069
583.00,0.0070
582.00,0.0071
581.00,0.0073
580.00,0.0075
579.00,0.0076
578.00,0.0076
577.00,0.0074
576.00,0.0072
575.00,0.0072
574.00,0.0075
573.00,0.0077
572.00,0.0078
571.00,0.0077
570.00,0.0075
569.00,0.0074
568.00,0.0073
567.00,0.0075
566.00,0.0076
565.00,0.0076
564.00,0.0074
563.00,0.0073
562.00,0.0073
561.00,0.0076
560.00,0.0080
559.00,0.0083
558.00,0.0083
557.00,0.0082
556.00,0.0079
555.00,0.0077
554.00,0.0075
553.00,0.0076
552.00,0.0078
551.00,0.0083
550.00,0.0088
549.00,0.0092
548.00,0.0094
547.00,0.0093
546.00,0.0091
545.00,0.0090
544.00,0.0089
543.00,0.0088
542.00,0.0086
541.00,0.0084
540.00,0.0085
539.00,0.0088
538.00,0.0095
537.00,0.0102
536.00,0.0108
535.00,0.0111
534.00,0.0111
533.00,0.0110
532.00,0.0108
531.00,0.0106
530.00,0.0104
529.00,0.0102
528.00,0.0101
527.00,0.0098
526.00,0.0094
525.00,0.0088
524.00,0.0082
523.00,0.0080
522.00,0.0083
521.00,0.0088
520.00,0.0092
519.00,0.0093
518.00,0.0090
517.00,0.0087
516.00,0.0086
515.00,0.0088
514.00,0.0091
513.00,0.0091
512.00,0.0089
511.00,0.0084
510.00,0.0078
509.00,0.0072
508.00,0.0068
507.00,0.0069
506.00,0.0074
505.00,0.0080
504.00,0.0084
503.00,0.0086
502.00,0.0085
501.00,0.0085
500.00,0.0087
499.00,0.0090
498.00,0.0093
497.00,0.0093
496.00,0.0091
495.00,0.0088
494.00,0.0086
493.00,0.0084
492.00,0.0085
491.00,0.0089
490.00,0.0095
489.00,0.0098
488.00,0.0094
487.00,0.0087
486.00,0.0082
485.00,0.0083
484.00,0.0090
483.00,0.0100
482.00,0.0111
481.00,0.0120
480.00,0.0125
479.00,0.0123
478.00,0.0114
477.00,0.0099
476.00,0.0085
475.00,0.0075
474.00,0.0074
473.00,0.0081
472.00,0.0092
471.00,0.0102
470.00,0.0111
469.00,0.0118
468.00,0.0127
467.00,0.0134
466.00,0.0139
465.00,0.0143
464.00,0.0150
463.00,0.0160
462.00,0.0172
461.00,0.0180
460.00,0.0184
459.00,0.0181
458.00,0.0175
457.00,0.0167
456.00,0.0158
455.00,0.0149
454.00,0.0141
453.00,0.0139
452.00,0.0145
451.00,0.0155
450.00,0.0164
