Created as New Dataset,Sample 021 By Administrator Date Thursday, September 04 2025
cm-1,A
4000.00,0.0008
3999.00,0.0008
3998.00,0.0008
3997.00,0.0008
3996.00,0.0009
3995.00,0.0009
3994.00,0.0009
3993.00,0.0009
3992.00,0.0009
3991.00,0.0009
3990.00,0.0009
3989.00,0.0009
3988.00,0.0008
3987.00,0.0008
3986.00,0.0008
3985.00,0.0008
3984.00,0.0008
3983.00,0.0008
3982.00,0.0008
3981.00,0.0008
3980.00,0.0008
3979.00,0.0008
3978.00,0.0007
3977.00,0.0007
3976.00,0.0007
3975.00,0.0007
3974.00,0.0007
3973.00,0.0007
3972.00,0.0007
3971.00,0.0007
3970.00,0.0007
3969.00,0.0007
3968.00,0.0007
3967.00,0.0007
3966.00,0.0007
3965.00,0.0006
3964.00,0.0006
3963.00,0.0006
3962.00,0.0006
3961.00,0.0006
3960.00,0.0007
3959.00,0.0007
3958.00,0.0007
3957.00,0.0007
3956.00,0.0007
3955.00,0.0007
3954.00,0.0006
3953.00,0.0007
3952.00,0.0007
3951.00,0.0007
3950.00,0.0007
3949.00,0.0007
3948.00,0.0007
3947.00,0.0007
3946.00,0.0007
3945.00,0.0007
3944.00,0.0007
3943.00,0.0007
3942.00,0.0007
3941.00,0.0007
3940.00,0.0007
3939.00,0.0007
3938.00,0.0007
3937.00,0.0007
3936.00,0.0007
3935.00,0.0007
3934.00,0.0007
3933.00,0.0007
3932.00,0.0007
3931.00,0.0006
3930.00,0.0006
3929.00,0.0006
3928.00,0.0007
3927.00,0.0007
3926.00,0.0007
3925.00,0.0008
3924.00,0.0008
3923.00,0.0007
3922.00,0.0007
3921.00,0.0007
3920.00,0.0006
3919.00,0.0006
3918.00,0.0006
3917.00,0.0006
3916.00,0.0006
3915.00,0.0006
3914.00,0.0006
3913.00,0.0006
3912.00,0.0006
3911.00,0.0007
3910.00,0.0007
3909.00,0.0007
3908.00,0.0007
3907.00,0.0007
3906.00,0.0006
3905.00,0.0006
3904.00,0.0006
3903.00,0.0005
3902.00,0.0005
3901.00,0.0005
3900.00,0.0006
3899.00,0.0006
3898.00,0.0006
3897.00,0.0007
3896.00,0.0007
3895.00,0.0007
3894.00,0.0007
3893.00,0.0007
3892.00,0.0007
3891.00,0.0007
3890.00,0.0007
3889.00,0.0007
3888.00,0.0006
3887.00,0.0006
3886.00,0.0006
3885.00,0.0006
3884.00,0.0006
3883.00,0.0006
3882.00,0.0006
3881.00,0.0006
3880.00,0.0006
3879.00,0.0007
3878.00,0.0007
3877.00,0.0007
3876.00,0.0007
3875.00,0.0007
3874.00,0.0007
3873.00,0.0006
3872.00,0.0005
3871.00,0.0005
3870.00,0.0005
3869.00,0.0006
3868.00,0.0006
3867.00,0.0006
3866.00,0.0007
3865.00,0.0007
3864.00,0.0007
3863.00,0.0007
3862.00,0.0007
3861.00,0.0006
3860.00,0.0006
3859.00,0.0007
3858.00,0.0007
3857.00,0.0007
3856.00,0.0007
3855.00,0.0007
3854.00,0.0006
3853.00,0.0006
3852.00,0.0006
3851.00,0.0006
3850.00,0.0006
3849.00,0.0006
3848.00,0.0006
3847.00,0.0006
3846.00,0.0006
3845.00,0.0006
3844.00,0.0006
3843.00,0.0006
3842.00,0.0007
3841.00,0.0007
3840.00,0.0007
3839.00,0.0007
3838.00,0.0006
3837.00,0.0006
3836.00,0.0006
3835.00,0.0006
3834.00,0.0006
3833.00,0.0006
3832.00,0.0005
3831.00,0.0005
3830.00,0.0005
3829.00,0.0005
3828.00,0.0005
3827.00,0.0006
3826.00,0.0006
3825.00,0.0005
3824.00,0.0005
3823.00,0.0004
3822.00,0.0004
3821.00,0.0005
3820.00,0.0006
3819.00,0.0006
3818.00,0.0006
3817.00,0.0006
3816.00,0.0006
3815.00,0.0006
3814.00,0.0006
3813.00,0.0006
3812.00,0.0006
3811.00,0.0006
3810.00,0.0006
3809.00,0.0006
3808.00,0.0006
3807.00,0.0006
3806.00,0.0005
3805.00,0.0005
3804.00,0.0005
3803.00,0.0005
3802.00,0.0005
3801.00,0.0005
3800.00,0.0005
3799.00,0.0005
3798.00,0.0005
3797.00,0.0005
3796.00,0.0006
3795.00,0.0006
3794.00,0.0006
3793.00,0.0006
3792.00,0.0006
3791.00,0.0006
3790.00,0.0006
3789.00,0.0006
3788.00,0.0006
3787.00,0.0006
3786.00,0.0006
3785.00,0.0006
3784.00,0.0006
3783.00,0.0006
3782.00,0.0006
3781.00,0.0006
3780.00,0.0005
3779.00,0.0005
3778.00,0.0005
3777.00,0.0006
3776.00,0.0006
3775.00,0.0006
3774.00,0.0006
3773.00,0.0006
3772.00,0.0006
3771.00,0.0006
3770.00,0.0006
3769.00,0.0005
3768.00,0.0005
3767.00,0.0005
3766.00,0.0005
3765.00,0.0006
3764.00,0.0006
3763.00,0.0006
3762.00,0.0006
3761.00,0.0007
3760.00,0.0007
3759.00,0.0007
3758.00,0.0007
3757.00,0.0007
3756.00,0.0007
3755.00,0.0007
3754.00,0.0007
3753.00,0.0008
3752.00,0.0008
3751.00,0.0007
3750.00,0.0007
3749.00,0.0006
3748.00,0.0006
3747.00,0.0006
3746.00,0.0006
3745.00,0.0006
3744.00,0.0006
3743.00,0.0006
3742.00,0.0006
3741.00,0.0005
3740.00,0.0005
3739.00,0.0005
3738.00,0.0005
3737.00,0.0005
3736.00,0.0004
3735.00,0.0004
3734.00,0.0004
3733.00,0.0004
3732.00,0.0004
3731.00,0.0004
3730.00,0.0004
3729.00,0.0004
3728.00,0.0005
3727.00,0.0005
3726.00,0.0005
3725.00,0.0006
3724.00,0.0006
3723.00,0.0006
3722.00,0.0006
3721.00,0.0006
3720.00,0.0006
3719.00,0.0006
3718.00,0.0006
3717.00,0.0006
3716.00,0.0006
3715.00,0.0005
3714.00,0.0005
3713.00,0.0005
3712.00,0.0006
3711.00,0.0006
3710.00,0.0006
3709.00,0.0005
3708.00,0.0005
3707.00,0.0005
3706.00,0.0004
3705.00,0.0004
3704.00,0.0004
3703.00,0.0004
3702.00,0.0004
3701.00,0.0005
3700.00,0.0005
3699.00,0.0005
3698.00,0.0005
3697.00,0.0005
3696.00,0.0005
3695.00,0.0005
3694.00,0.0005
3693.00,0.0005
3692.00,0.0006
3691.00,0.0006
3690.00,0.0006
3689.00,0.0005
3688.00,0.0005
3687.00,0.0005
3686.00,0.0005
3685.00,0.0005
3684.00,0.0005
3683.00,0.0005
3682.00,0.0005
3681.00,0.0005
3680.00,0.0005
3679.00,0.0006
3678.00,0.0006
3677.00,0.0006
3676.00,0.0006
3675.00,0.0006
3674.00,0.0007
3673.00,0.0006
3672.00,0.0006
3671.00,0.0005
3670.00,0.0006
3669.00,0.0006
3668.00,0.0006
3667.00,0.0006
3666.00,0.0006
3665.00,0.0006
3664.00,0.0006
3663.00,0.0005
3662.00,0.0005
3661.00,0.0005
3660.00,0.0005
3659.00,0.0005
3658.00,0.0005
3657.00,0.0005
3656.00,0.0005
3655.00,0.0006
3654.00,0.0007
3653.00,0.0007
3652.00,0.0007
3651.00,0.0007
3650.00,0.0007
3649.00,0.0007
3648.00,0.0007
3647.00,0.0007
3646.00,0.0007
3645.00,0.0007
3644.00,0.0007
3643.00,0.0007
3642.00,0.0007
3641.00,0.0007
3640.00,0.0007
3639.00,0.0007
3638.00,0.0007
3637.00,0.0007
3636.00,0.0007
3635.00,0.0007
3634.00,0.0007
3633.00,0.0007
3632.00,0.0006
3631.00,0.0006
3630.00,0.0006
3629.00,0.0007
3628.00,0.0007
3627.00,0.0007
3626.00,0.0007
3625.00,0.0007
3624.00,0.0008
3623.00,0.0008
3622.00,0.0008
3621.00,0.0008
3620.00,0.0008
3619.00,0.0008
3618.00,0.0008
3617.00,0.0008
3616.00,0.0008
3615.00,0.0008
3614.00,0.0008
3613.00,0.0008
3612.00,0.0008
3611.00,0.0009
3610.00,0.0009
3609.00,0.0010
3608.00,0.0011
3607.00,0.0011
3606.00,0.0011
3605.00,0.0011
3604.00,0.0010
3603.00,0.0010
3602.00,0.0010
3601.00,0.0011
3600.00,0.0011
3599.00,0.0011
3598.00,0.0011
3597.00,0.0011
3596.00,0.0011
3595.00,0.0011
3594.00,0.0012
3593.00,0.0012
3592.00,0.0012
3591.00,0.0012
3590.00,0.0012
3589.00,0.0012
3588.00,0.0013
3587.00,0.0013
3586.00,0.0013
3585.00,0.0013
3584.00,0.0013
3583.00,0.0013
3582.00,0.0013
3581.00,0.0014
3580.00,0.0014
3579.00,0.0014
3578.00,0.0014
3577.00,0.0014
3576.00,0.0014
3575.00,0.0014
3574.00,0.0014
3573.00,0.0015
3572.00,0.0015
3571.00,0.0015
3570.00,0.0016
3569.00,0.0016
3568.00,0.0017
3567.00,0.0017
3566.00,0.0017
3565.00,0.0017
3564.00,0.0017
3563.00,0.0018
3562.00,0.0018
3561.00,0.0018
3560.00,0.0019
3559.00,0.0019
3558.00,0.0019
3557.00,0.0019
3556.00,0.0020
3555.00,0.0020
3554.00,0.0021
3553.00,0.0021
3552.00,0.0021
3551.00,0.0021
3550.00,0.0021
3549.00,0.0021
3548.00,0.0021
3547.00,0.0021
3546.00,0.0021
3545.00,0.0022
3544.00,0.0022
3543.00,0.0023
3542.00,0.0023
3541.00,0.0023
3540.00,0.0023
3539.00,0.0024
3538.00,0.0024
3537.00,0.0024
3536.00,0.0024
3535.00,0.0025
3534.00,0.0025
3533.00,0.0025
3532.00,0.0025
3531.00,0.0025
3530.00,0.0026
3529.00,0.0026
3528.00,0.0026
3527.00,0.0026
3526.00,0.0026
3525.00,0.0026
3524.00,0.0027
3523.00,0.0027
3522.00,0.0028
3521.00,0.0028
3520.00,0.0028
3519.00,0.0029
3518.00,0.0029
3517.00,0.0030
3516.00,0.0030
3515.00,0.0030
3514.00,0.0031
3513.00,0.0031
3512.00,0.0031
3511.00,0.0031
3510.00,0.0031
3509.00,0.0031
3508.00,0.0032
3507.00,0.0032
3506.00,0.0032
3505.00,0.0032
3504.00,0.0033
3503.00,0.0033
3502.00,0.0034
3501.00,0.0034
3500.00,0.0034
3499.00,0.0035
3498.00,0.0035
3497.00,0.0035
3496.00,0.0035
3495.00,0.0035
3494.00,0.0035
3493.00,0.0036
3492.00,0.0036
3491.00,0.0036
3490.00,0.0036
3489.00,0.0037
3488.00,0.0037
3487.00,0.0037
3486.00,0.0038
3485.00,0.0038
3484.00,0.0038
3483.00,0.0039
3482.00,0.0039
3481.00,0.0039
3480.00,0.0039
3479.00,0.0039
3478.00,0.0040
3477.00,0.0040
3476.00,0.0040
3475.00,0.0041
3474.00,0.0041
3473.00,0.0041
3472.00,0.0041
3471.00,0.0042
3470.00,0.0042
3469.00,0.0043
3468.00,0.0043
3467.00,0.0043
3466.00,0.0044
3465.00,0.0044
3464.00,0.0044
3463.00,0.0044
3462.00,0.0044
3461.00,0.0044
3460.00,0.0044
3459.00,0.0044
3458.00,0.0044
3457.00,0.0044
3456.00,0.0044
3455.00,0.0045
3454.00,0.0045
3453.00,0.0045
3452.00,0.0046
3451.00,0.0046
3450.00,0.0046
3449.00,0.0047
3448.00,0.0047
3447.00,0.0048
3446.00,0.0048
3445.00,0.0049
3444.00,0.0049
3443.00,0.0049
3442.00,0.0049
3441.00,0.0049
3440.00,0.0049
3439.00,0.0049
3438.00,0.0049
3437.00,0.0050
3436.00,0.0050
3435.00,0.0050
3434.00,0.0051
3433.00,0.0051
3432.00,0.0052
3431.00,0.0052
3430.00,0.0052
3429.00,0.0052
3428.00,0.0052
3427.00,0.0052
3426.00,0.0052
3425.00,0.0052
3424.00,0.0052
3423.00,0.0053
3422.00,0.0053
3421.00,0.0054
3420.00,0.0054
3419.00,0.0054
3418.00,0.0055
3417.00,0.0055
3416.00,0.0055
3415.00,0.0055
3414.00,0.0055
3413.00,0.0056
3412.00,0.0056
3411.00,0.0056
3410.00,0.0056
3409.00,0.0057
3408.00,0.0057
3407.00,0.0057
3406.00,0.0058
3405.00,0.0058
3404.00,0.0058
3403.00,0.0058
3402.00,0.0058
3401.00,0.0058
3400.00,0.0059
3399.00,0.0059
3398.00,0.0059
3397.00,0.0059
3396.00,0.0059
3395.00,0.0060
3394.00,0.0060
3393.00,0.0060
3392.00,0.0059
3391.00,0.0059
3390.00,0.0059
3389.00,0.0059
3388.00,0.0059
3387.00,0.0059
3386.00,0.0059
3385.00,0.0059
3384.00,0.0059
3383.00,0.0059
3382.00,0.0059
3381.00,0.0059
3380.00,0.0059
3379.00,0.0059
3378.00,0.0059
3377.00,0.0059
3376.00,0.0059
3375.00,0.0059
3374.00,0.0059
3373.00,0.0059
3372.00,0.0059
3371.00,0.0059
3370.00,0.0059
3369.00,0.0059
3368.00,0.0059
3367.00,0.0059
3366.00,0.0059
3365.00,0.0059
3364.00,0.0060
3363.00,0.0060
3362.00,0.0060
3361.00,0.0059
3360.00,0.0059
3359.00,0.0060
3358.00,0.0060
3357.00,0.0060
3356.00,0.0060
3355.00,0.0060
3354.00,0.0060
3353.00,0.0060
3352.00,0.0060
3351.00,0.0060
3350.00,0.0060
3349.00,0.0060
3348.00,0.0060
3347.00,0.0060
3346.00,0.0060
3345.00,0.0060
3344.00,0.0060
3343.00,0.0060
3342.00,0.0060
3341.00,0.0060
3340.00,0.0059
3339.00,0.0059
3338.00,0.0059
3337.00,0.0059
3336.00,0.0059
3335.00,0.0059
3334.00,0.0059
3333.00,0.0059
3332.00,0.0059
3331.00,0.0059
3330.00,0.0060
3329.00,0.0060
3328.00,0.0060
3327.00,0.0059
3326.00,0.0059
3325.00,0.0058
3324.00,0.0058
3323.00,0.0058
3322.00,0.0059
3321.00,0.0059
3320.00,0.0058
3319.00,0.0058
3318.00,0.0058
3317.00,0.0058
3316.00,0.0059
3315.00,0.0059
3314.00,0.0059
3313.00,0.0059
3312.00,0.0059
3311.00,0.0058
3310.00,0.0058
3309.00,0.0058
3308.00,0.0058
3307.00,0.0058
3306.00,0.0058
3305.00,0.0058
3304.00,0.0058
3303.00,0.0059
3302.00,0.0059
3301.00,0.0059
3300.00,0.0059
3299.00,0.0059
3298.00,0.0058
3297.00,0.0058
3296.00,0.0057
3295.00,0.0057
3294.00,0.0056
3293.00,0.0056
3292.00,0.0056
3291.00,0.0056
3290.00,0.0055
3289.00,0.0055
3288.00,0.0055
3287.00,0.0055
3286.00,0.0055
3285.00,0.0055
3284.00,0.0055
3283.00,0.0055
3282.00,0.0055
3281.00,0.0055
3280.00,0.0055
3279.00,0.0055
3278.00,0.0055
3277.00,0.0055
3276.00,0.0055
3275.00,0.0054
3274.00,0.0054
3273.00,0.0053
3272.00,0.0053
3271.00,0.0054
3270.00,0.0054
3269.00,0.0053
3268.00,0.0053
3267.00,0.0052
3266.00,0.0051
3265.00,0.0051
3264.00,0.0051
3263.00,0.0051
3262.00,0.0051
3261.00,0.0051
3260.00,0.0051
3259.00,0.0051
3258.00,0.0051
3257.00,0.0050
3256.00,0.0050
3255.00,0.0050
3254.00,0.0050
3253.00,0.0050
3252.00,0.0049
3251.00,0.0049
3250.00,0.0049
3249.00,0.0048
3248.00,0.0048
3247.00,0.0048
3246.00,0.0048
3245.00,0.0048
3244.00,0.0048
3243.00,0.0048
3242.00,0.0048
3241.00,0.0048
3240.00,0.0048
3239.00,0.0048
3238.00,0.0048
3237.00,0.0048
3236.00,0.0048
3235.00,0.0048
3234.00,0.0048
3233.00,0.0048
3232.00,0.0048
3231.00,0.0048
3230.00,0.0049
3229.00,0.0049
3228.00,0.0050
3227.00,0.0050
3226.00,0.0050
3225.00,0.0050
3224.00,0.0050
3223.00,0.0050
3222.00,0.0050
3221.00,0.0050
3220.00,0.0050
3219.00,0.0051
3218.00,0.0051
3217.00,0.0051
3216.00,0.0051
3215.00,0.0051
3214.00,0.0052
3213.00,0.0052
3212.00,0.0052
3211.00,0.0052
3210.00,0.0052
3209.00,0.0052
3208.00,0.0052
3207.00,0.0052
3206.00,0.0052
3205.00,0.0052
3204.00,0.0052
3203.00,0.0052
3202.00,0.0052
3201.00,0.0052
3200.00,0.0052
3199.00,0.0052
3198.00,0.0052
3197.00,0.0053
3196.00,0.0053
3195.00,0.0053
3194.00,0.0053
3193.00,0.0052
3192.00,0.0052
3191.00,0.0052
3190.00,0.0052
3189.00,0.0052
3188.00,0.0052
3187.00,0.0052
3186.00,0.0052
3185.00,0.0052
3184.00,0.0051
3183.00,0.0051
3182.00,0.0050
3181.00,0.0050
3180.00,0.0050
3179.00,0.0050
3178.00,0.0049
3177.00,0.0050
3176.00,0.0050
3175.00,0.0050
3174.00,0.0049
3173.00,0.0049
3172.00,0.0048
3171.00,0.0048
3170.00,0.0048
3169.00,0.0048
3168.00,0.0048
3167.00,0.0047
3166.00,0.0047
3165.00,0.0047
3164.00,0.0046
3163.00,0.0046
3162.00,0.0046
3161.00,0.0046
3160.00,0.0046
3159.00,0.0046
3158.00,0.0046
3157.00,0.0046
3156.00,0.0046
3155.00,0.0046
3154.00,0.0046
3153.00,0.0045
3152.00,0.0045
3151.00,0.0045
3150.00,0.0045
3149.00,0.0045
3148.00,0.0045
3147.00,0.0045
3146.00,0.0045
3145.00,0.0045
3144.00,0.0045
3143.00,0.0045
3142.00,0.0044
3141.00,0.0044
3140.00,0.0044
3139.00,0.0043
3138.00,0.0043
3137.00,0.0044
3136.00,0.0044
3135.00,0.0043
3134.00,0.0043
3133.00,0.0042
3132.00,0.0042
3131.00,0.0042
3130.00,0.0041
3129.00,0.0041
3128.00,0.0041
3127.00,0.0041
3126.00,0.0041
3125.00,0.0041
3124.00,0.0040
3123.00,0.0040
3122.00,0.0040
3121.00,0.0039
3120.00,0.0039
3119.00,0.0039
3118.00,0.0039
3117.00,0.0038
3116.00,0.0038
3115.00,0.0038
3114.00,0.0037
3113.00,0.0037
3112.00,0.0036
3111.00,0.0037
3110.00,0.0037
3109.00,0.0037
3108.00,0.0037
3107.00,0.0037
3106.00,0.0037
3105.00,0.0037
3104.00,0.0037
3103.00,0.0037
3102.00,0.0037
3101.00,0.0037
3100.00,0.0036
3099.00,0.0036
3098.00,0.0036
3097.00,0.0036
3096.00,0.0036
3095.00,0.0036
3094.00,0.0036
3093.00,0.0036
3092.00,0.0036
3091.00,0.0036
3090.00,0.0036
3089.00,0.0036
3088.00,0.0035
3087.00,0.0035
3086.00,0.0035
3085.00,0.0035
3084.00,0.0035
3083.00,0.0035
3082.00,0.0035
3081.00,0.0034
3080.00,0.0034
3079.00,0.0034
3078.00,0.0035
3077.00,0.0035
3076.00,0.0035
3075.00,0.0035
3074.00,0.0035
3073.00,0.0036
3072.00,0.0036
3071.00,0.0036
3070.00,0.0036
3069.00,0.0036
3068.00,0.0036
3067.00,0.0036
3066.00,0.0036
3065.00,0.0037
3064.00,0.0037
3063.00,0.0037
3062.00,0.0037
3061.00,0.0037
3060.00,0.0038
3059.00,0.0038
3058.00,0.0038
3057.00,0.0038
3056.00,0.0038
3055.00,0.0038
3054.00,0.0038
3053.00,0.0038
3052.00,0.0038
3051.00,0.0039
3050.00,0.0039
3049.00,0.0039
3048.00,0.0040
3047.00,0.0040
3046.00,0.0040
3045.00,0.0040
3044.00,0.0040
3043.00,0.0040
3042.00,0.0040
3041.00,0.0041
3040.00,0.0041
3039.00,0.0041
3038.00,0.0041
3037.00,0.0042
3036.00,0.0042
3035.00,0.0042
3034.00,0.0043
3033.00,0.0043
3032.00,0.0043
3031.00,0.0044
3030.00,0.0044
3029.00,0.0044
3028.00,0.0045
3027.00,0.0045
3026.00,0.0045
3025.00,0.0046
3024.00,0.0047
3023.00,0.0048
3022.00,0.0048
3021.00,0.0049
3020.00,0.0050
3019.00,0.0051
3018.00,0.0052
3017.00,0.0053
3016.00,0.0054
3015.00,0.0055
3014.00,0.0056
3013.00,0.0057
3012.00,0.0059
3011.00,0.0060
3010.00,0.0062
3009.00,0.0063
3008.00,0.0065
3007.00,0.0067
3006.00,0.0069
3005.00,0.0071
3004.00,0.0073
3003.00,0.0075
3002.00,0.0077
3001.00,0.0079
3000.00,0.0082
2999.00,0.0085
2998.00,0.0088
2997.00,0.0091
2996.00,0.0095
2995.00,0.0099
2994.00,0.0103
2993.00,0.0108
2992.00,0.0113
2991.00,0.0119
2990.00,0.0125
2989.00,0.0133
2988.00,0.0141
2987.00,0.0150
2986.00,0.0160
2985.00,0.0171
2984.00,0.0184
2983.00,0.0198
2982.00,0.0213
2981.00,0.0230
2980.00,0.0250
2979.00,0.0272
2978.00,0.0296
2977.00,0.0325
2976.00,0.0358
2975.00,0.0397
2974.00,0.0441
2973.00,0.0492
2972.00,0.0549
2971.00,0.0613
2970.00,0.0685
2969.00,0.0765
2968.00,0.0852
2967.00,0.0947
2966.00,0.1049
2965.00,0.1154
2964.00,0.1261
2963.00,0.1363
2962.00,0.1455
2961.00,0.1531
2960.00,0.1589
2959.00,0.1631
2958.00,0.1662
2957.00,0.1687
2956.00,0.1713
2955.00,0.1745
2954.00,0.1784
2953.00,0.1824
2952.00,0.1858
2951.00,0.1875
2950.00,0.1866
2949.00,0.1824
2948.00,0.1750
2947.00,0.1649
2946.00,0.1533
2945.00,0.1413
2944.00,0.1301
2943.00,0.1205
2942.00,0.1131
2941.00,0.1080
2940.00,0.1052
2939.00,0.1045
2938.00,0.1057
2937.00,0.1085
2936.00,0.1129
2935.00,0.1186
2934.00,0.1256
2933.00,0.1337
2932.00,0.1428
2931.00,0.1527
2930.00,0.1632
2929.00,0.1738
2928.00,0.1845
2927.00,0.1948
2926.00,0.2046
2925.00,0.2140
2924.00,0.2230
2923.00,0.2317
2922.00,0.2402
2921.00,0.2480
2920.00,0.2546
2919.00,0.2592
2918.00,0.2610
2917.00,0.2595
2916.00,0.2549
2915.00,0.2477
2914.00,0.2390
2913.00,0.2298
2912.00,0.2209
2911.00,0.2128
2910.00,0.2057
2909.00,0.1994
2908.00,0.1937
2907.00,0.1882
2906.00,0.1827
2905.00,0.1769
2904.00,0.1708
2903.00,0.1644
2902.00,0.1579
2901.00,0.1515
2900.00,0.1451
2899.00,0.1391
2898.00,0.1334
2897.00,0.1281
2896.00,0.1234
2895.00,0.1192
2894.00,0.1157
2893.00,0.1127
2892.00,0.1102
2891.00,0.1084
2890.00,0.1070
2889.00,0.1060
2888.00,0.1053
2887.00,0.1051
2886.00,0.1051
2885.00,0.1054
2884.00,0.1062
2883.00,0.1073
2882.00,0.1087
2881.00,0.1103
2880.00,0.1119
2879.00,0.1131
2878.00,0.1137
2877.00,0.1137
2876.00,0.1131
2875.00,0.1124
2874.00,0.1119
2873.00,0.1120
2872.00,0.1127
2871.00,0.1141
2870.00,0.1159
2869.00,0.1175
2868.00,0.1184
2867.00,0.1180
2866.00,0.1156
2865.00,0.1113
2864.00,0.1054
2863.00,0.0988
2862.00,0.0923
2861.00,0.0867
2860.00,0.0825
2859.00,0.0797
2858.00,0.0783
2857.00,0.0781
2856.00,0.0788
2855.00,0.0801
2854.00,0.0819
2853.00,0.0840
2852.00,0.0860
2851.00,0.0878
2850.00,0.0891
2849.00,0.0901
2848.00,0.0910
2847.00,0.0923
2846.00,0.0944
2845.00,0.0976
2844.00,0.1019
2843.00,0.1069
2842.00,0.1123
2841.00,0.1173
2840.00,0.1211
2839.00,0.1231
2838.00,0.1223
2837.00,0.1186
2836.00,0.1119
2835.00,0.1029
2834.00,0.0925
2833.00,0.0819
2832.00,0.0718
2831.00,0.0629
2830.00,0.0553
2829.00,0.0491
2828.00,0.0440
2827.00,0.0399
2826.00,0.0365
2825.00,0.0337
2824.00,0.0314
2823.00,0.0294
2822.00,0.0277
2821.00,0.0263
2820.00,0.0250
2819.00,0.0239
2818.00,0.0230
2817.00,0.0221
2816.00,0.0214
2815.00,0.0207
2814.00,0.0200
2813.00,0.0194
2812.00,0.0188
2811.00,0.0183
2810.00,0.0177
2809.00,0.0171
2808.00,0.0165
2807.00,0.0159
2806.00,0.0153
2805.00,0.0147
2804.00,0.0141
2803.00,0.0136
2802.00,0.0132
2801.00,0.0127
2800.00,0.0124
2799.00,0.0121
2798.00,0.0118
2797.00,0.0115
2796.00,0.0113
2795.00,0.0111
2794.00,0.0108
2793.00,0.0105
2792.00,0.0102
2791.00,0.0098
2790.00,0.0095
2789.00,0.0091
2788.00,0.0088
2787.00,0.0085
2786.00,0.0082
2785.00,0.0079
2784.00,0.0077
2783.00,0.0074
2782.00,0.0072
2781.00,0.0070
2780.00,0.0068
2779.00,0.0067
2778.00,0.0066
2777.00,0.0064
2776.00,0.0063
2775.00,0.0062
2774.00,0.0061
2773.00,0.0060
2772.00,0.0060
2771.00,0.0059
2770.00,0.0058
2769.00,0.0058
2768.00,0.0058
2767.00,0.0057
2766.00,0.0057
2765.00,0.0057
2764.00,0.0056
2763.00,0.0056
2762.00,0.0056
2761.00,0.0055
2760.00,0.0055
2759.00,0.0054
2758.00,0.0054
2757.00,0.0054
2756.00,0.0054
2755.00,0.0054
2754.00,0.0054
2753.00,0.0054
2752.00,0.0053
2751.00,0.0053
2750.00,0.0053
2749.00,0.0052
2748.00,0.0053
2747.00,0.0053
2746.00,0.0054
2745.00,0.0054
2744.00,0.0055
2743.00,0.0055
2742.00,0.0056
2741.00,0.0057
2740.00,0.0059
2739.00,0.0060
2738.00,0.0061
2737.00,0.0062
2736.00,0.0064
2735.00,0.0065
2734.00,0.0066
2733.00,0.0068
2732.00,0.0069
2731.00,0.0071
2730.00,0.0072
2729.00,0.0074
2728.00,0.0077
2727.00,0.0079
2726.00,0.0082
2725.00,0.0084
2724.00,0.0085
2723.00,0.0085
2722.00,0.0084
2721.00,0.0083
2720.00,0.0080
2719.00,0.0078
2718.00,0.0075
2717.00,0.0072
2716.00,0.0069
2715.00,0.0067
2714.00,0.0064
2713.00,0.0062
2712.00,0.0061
2711.00,0.0059
2710.00,0.0058
2709.00,0.0056
2708.00,0.0055
2707.00,0.0054
2706.00,0.0053
2705.00,0.0052
2704.00,0.0051
2703.00,0.0050
2702.00,0.0049
2701.00,0.0048
2700.00,0.0047
2699.00,0.0047
2698.00,0.0046
2697.00,0.0046
2696.00,0.0046
2695.00,0.0046
2694.00,0.0046
2693.00,0.0046
2692.00,0.0046
2691.00,0.0046
2690.00,0.0047
2689.00,0.0047
2688.00,0.0047
2687.00,0.0047
2686.00,0.0047
2685.00,0.0047
2684.00,0.0047
2683.00,0.0047
2682.00,0.0047
2681.00,0.0047
2680.00,0.0047
2679.00,0.0047
2678.00,0.0047
2677.00,0.0047
2676.00,0.0046
2675.00,0.0046
2674.00,0.0046
2673.00,0.0045
2672.00,0.0045
2671.00,0.0045
2670.00,0.0045
2669.00,0.0045
2668.00,0.0045
2667.00,0.0045
2666.00,0.0046
2665.00,0.0046
2664.00,0.0046
2663.00,0.0047
2662.00,0.0048
2661.00,0.0048
2660.00,0.0048
2659.00,0.0048
2658.00,0.0048
2657.00,0.0047
2656.00,0.0047
2655.00,0.0046
2654.00,0.0045
2653.00,0.0045
2652.00,0.0045
2651.00,0.0045
2650.00,0.0044
2649.00,0.0044
2648.00,0.0043
2647.00,0.0043
2646.00,0.0042
2645.00,0.0042
2644.00,0.0041
2643.00,0.0041
2642.00,0.0041
2641.00,0.0040
2640.00,0.0040
2639.00,0.0039
2638.00,0.0039
2637.00,0.0039
2636.00,0.0039
2635.00,0.0039
2634.00,0.0039
2633.00,0.0039
2632.00,0.0039
2631.00,0.0039
2630.00,0.0039
2629.00,0.0039
2628.00,0.0039
2627.00,0.0039
2626.00,0.0040
2625.00,0.0040
2624.00,0.0040
2623.00,0.0040
2622.00,0.0041
2621.00,0.0041
2620.00,0.0041
2619.00,0.0041
2618.00,0.0040
2617.00,0.0040
2616.00,0.0039
2615.00,0.0039
2614.00,0.0039
2613.00,0.0038
2612.00,0.0038
2611.00,0.0037
2610.00,0.0037
2609.00,0.0036
2608.00,0.0036
2607.00,0.0035
2606.00,0.0035
2605.00,0.0034
2604.00,0.0034
2603.00,0.0033
2602.00,0.0032
2601.00,0.0032
2600.00,0.0031
2599.00,0.0031
2598.00,0.0031
2597.00,0.0031
2596.00,0.0031
2595.00,0.0031
2594.00,0.0031
2593.00,0.0032
2592.00,0.0033
2591.00,0.0034
2590.00,0.0034
2589.00,0.0035
2588.00,0.0035
2587.00,0.0035
2586.00,0.0036
2585.00,0.0037
2584.00,0.0038
2583.00,0.0038
2582.00,0.0038
2581.00,0.0038
2580.00,0.0037
2579.00,0.0036
2578.00,0.0036
2577.00,0.0035
2576.00,0.0034
2575.00,0.0033
2574.00,0.0033
2573.00,0.0032
2572.00,0.0031
2571.00,0.0029
2570.00,0.0028
2569.00,0.0027
2568.00,0.0026
2567.00,0.0026
2566.00,0.0025
2565.00,0.0024
2564.00,0.0024
2563.00,0.0024
2562.00,0.0024
2561.00,0.0025
2560.00,0.0025
2559.00,0.0024
2558.00,0.0024
2557.00,0.0024
2556.00,0.0023
2555.00,0.0022
2554.00,0.0022
2553.00,0.0022
2552.00,0.0022
2551.00,0.0022
2550.00,0.0022
2549.00,0.0022
2548.00,0.0020
2547.00,0.0019
2546.00,0.0019
2545.00,0.0018
2544.00,0.0019
2543.00,0.0018
2542.00,0.0018
2541.00,0.0018
2540.00,0.0017
2539.00,0.0018
2538.00,0.0018
2537.00,0.0018
2536.00,0.0018
2535.00,0.0017
2534.00,0.0017
2533.00,0.0016
2532.00,0.0015
2531.00,0.0015
2530.00,0.0016
2529.00,0.0016
2528.00,0.0016
2527.00,0.0015
2526.00,0.0015
2525.00,0.0015
2524.00,0.0015
2523.00,0.0015
2522.00,0.0015
2521.00,0.0014
2520.00,0.0014
2519.00,0.0013
2518.00,0.0013
2517.00,0.0012
2516.00,0.0011
2515.00,0.0011
2514.00,0.0011
2513.00,0.0011
2512.00,0.0011
2511.00,0.0011
2510.00,0.0011
2509.00,0.0011
2508.00,0.0010
2507.00,0.0009
2506.00,0.0009
2505.00,0.0009
2504.00,0.0009
2503.00,0.0009
2502.00,0.0009
2501.00,0.0009
2500.00,0.0009
2499.00,0.0010
2498.00,0.0011
2497.00,0.0011
2496.00,0.0012
2495.00,0.0013
2494.00,0.0013
2493.00,0.0013
2492.00,0.0012
2491.00,0.0011
2490.00,0.0011
2489.00,0.0010
2488.00,0.0010
2487.00,0.0010
2486.00,0.0010
2485.00,0.0010
2484.00,0.0011
2483.00,0.0010
2482.00,0.0010
2481.00,0.0010
2480.00,0.0010
2479.00,0.0010
2478.00,0.0010
2477.00,0.0009
2476.00,0.0009
2475.00,0.0008
2474.00,0.0008
2473.00,0.0008
2472.00,0.0009
2471.00,0.0009
2470.00,0.0009
2469.00,0.0009
2468.00,0.0009
2467.00,0.0009
2466.00,0.0009
2465.00,0.0010
2464.00,0.0010
2463.00,0.0010
2462.00,0.0011
2461.00,0.0011
2460.00,0.0011
2459.00,0.0012
2458.00,0.0012
2457.00,0.0011
2456.00,0.0011
2455.00,0.0010
2454.00,0.0010
2453.00,0.0010
2452.00,0.0010
2451.00,0.0010
2450.00,0.0010
2449.00,0.0010
2448.00,0.0010
2447.00,0.0011
2446.00,0.0011
2445.00,0.0011
2444.00,0.0011
2443.00,0.0011
2442.00,0.0010
2441.00,0.0010
2440.00,0.0010
2439.00,0.0011
2438.00,0.0011
2437.00,0.0011
2436.00,0.0011
2435.00,0.0011
2434.00,0.0011
2433.00,0.0011
2432.00,0.0012
2431.00,0.0012
2430.00,0.0012
2429.00,0.0012
2428.00,0.0012
2427.00,0.0012
2426.00,0.0012
2425.00,0.0012
2424.00,0.0012
2423.00,0.0011
2422.00,0.0011
2421.00,0.0011
2420.00,0.0011
2419.00,0.0011
2418.00,0.0010
2417.00,0.0010
2416.00,0.0010
2415.00,0.0010
2414.00,0.0010
2413.00,0.0010
2412.00,0.0011
2411.00,0.0011
2410.00,0.0011
2409.00,0.0010
2408.00,0.0010
2407.00,0.0010
2406.00,0.0009
2405.00,0.0009
2404.00,0.0009
2403.00,0.0010
2402.00,0.0009
2401.00,0.0009
2400.00,0.0009
2399.00,0.0008
2398.00,0.0008
2397.00,0.0008
2396.00,0.0008
2395.00,0.0008
2394.00,0.0008
2393.00,0.0008
2392.00,0.0008
2391.00,0.0008
2390.00,0.0008
2389.00,0.0008
2388.00,0.0008
2387.00,0.0008
2386.00,0.0007
2385.00,0.0007
2384.00,0.0006
2383.00,0.0006
2382.00,0.0005
2381.00,0.0004
2380.00,0.0003
2379.00,0.0003
2378.00,0.0003
2377.00,0.0003
2376.00,0.0003
2375.00,0.0004
2374.00,0.0004
2373.00,0.0004
2372.00,0.0004
2371.00,0.0004
2370.00,0.0004
2369.00,0.0003
2368.00,0.0003
2367.00,0.0002
2366.00,0.0001
2365.00,0.0001
2364.00,0.0002
2363.00,0.0003
2362.00,0.0005
2361.00,0.0007
2360.00,0.0007
2359.00,0.0006
2358.00,0.0005
2357.00,0.0004
2356.00,0.0004
2355.00,0.0004
2354.00,0.0004
2353.00,0.0004
2352.00,0.0004
2351.00,0.0003
2350.00,0.0003
2349.00,0.0004
2348.00,0.0006
2347.00,0.0007
2346.00,0.0007
2345.00,0.0007
2344.00,0.0006
2343.00,0.0006
2342.00,0.0006
2341.00,0.0006
2340.00,0.0006
2339.00,0.0007
2338.00,0.0007
2337.00,0.0007
2336.00,0.0007
2335.00,0.0007
2334.00,0.0007
2333.00,0.0007
2332.00,0.0006
2331.00,0.0005
2330.00,0.0005
2329.00,0.0005
2328.00,0.0007
2327.00,0.0011
2326.00,0.0014
2325.00,0.0017
2324.00,0.0019
2323.00,0.0018
2322.00,0.0015
2321.00,0.0013
2320.00,0.0012
2319.00,0.0011
2318.00,0.0011
2317.00,0.0011
2316.00,0.0011
2315.00,0.0010
2314.00,0.0009
2313.00,0.0008
2312.00,0.0007
2311.00,0.0007
2310.00,0.0007
2309.00,0.0008
2308.00,0.0008
2307.00,0.0008
2306.00,0.0007
2305.00,0.0007
2304.00,0.0008
2303.00,0.0009
2302.00,0.0010
2301.00,0.0011
2300.00,0.0011
2299.00,0.0011
2298.00,0.0011
2297.00,0.0011
2296.00,0.0011
2295.00,0.0011
2294.00,0.0012
2293.00,0.0012
2292.00,0.0014
2291.00,0.0015
2290.00,0.0015
2289.00,0.0016
2288.00,0.0016
2287.00,0.0017
2286.00,0.0017
2285.00,0.0018
2284.00,0.0019
2283.00,0.0019
2282.00,0.0018
2281.00,0.0018
2280.00,0.0017
2279.00,0.0016
2278.00,0.0015
2277.00,0.0014
2276.00,0.0014
2275.00,0.0013
2274.00,0.0013
2273.00,0.0013
2272.00,0.0014
2271.00,0.0015
2270.00,0.0014
2269.00,0.0013
2268.00,0.0012
2267.00,0.0010
2266.00,0.0009
2265.00,0.0009
2264.00,0.0009
2263.00,0.0011
2262.00,0.0012
2261.00,0.0013
2260.00,0.0013
2259.00,0.0013
2258.00,0.0013
2257.00,0.0013
2256.00,0.0013
2255.00,0.0013
2254.00,0.0011
2253.00,0.0009
2252.00,0.0008
2251.00,0.0008
2250.00,0.0009
2249.00,0.0009
2248.00,0.0010
2247.00,0.0009
2246.00,0.0009
2245.00,0.0010
2244.00,0.0011
2243.00,0.0012
2242.00,0.0012
2241.00,0.0012
2240.00,0.0011
2239.00,0.0010
2238.00,0.0010
2237.00,0.0009
2236.00,0.0009
2235.00,0.0009
2234.00,0.0009
2233.00,0.0009
2232.00,0.0010
2231.00,0.0011
2230.00,0.0010
2229.00,0.0009
2228.00,0.0009
2227.00,0.0008
2226.00,0.0008
2225.00,0.0007
2224.00,0.0007
2223.00,0.0008
2222.00,0.0008
2221.00,0.0007
2220.00,0.0006
2219.00,0.0006
2218.00,0.0006
2217.00,0.0007
2216.00,0.0007
2215.00,0.0008
2214.00,0.0010
2213.00,0.0010
2212.00,0.0010
2211.00,0.0008
2210.00,0.0007
2209.00,0.0006
2208.00,0.0006
2207.00,0.0008
2206.00,0.0010
2205.00,0.0012
2204.00,0.0013
2203.00,0.0013
2202.00,0.0012
2201.00,0.0012
2200.00,0.0011
2199.00,0.0011
2198.00,0.0011
2197.00,0.0012
2196.00,0.0013
2195.00,0.0013
2194.00,0.0013
2193.00,0.0013
2192.00,0.0013
2191.00,0.0013
2190.00,0.0015
2189.00,0.0017
2188.00,0.0018
2187.00,0.0017
2186.00,0.0013
2185.00,0.0009
2184.00,0.0005
2183.00,0.0001
2182.00,-0.0000
2181.00,0.0001
2180.00,0.0004
2179.00,0.0006
2178.00,0.0006
2177.00,0.0004
2176.00,0.0003
2175.00,0.0002
2174.00,0.0003
2173.00,0.0005
2172.00,0.0006
2171.00,0.0006
2170.00,0.0006
2169.00,0.0006
2168.00,0.0007
2167.00,0.0009
2166.00,0.0010
2165.00,0.0009
2164.00,0.0010
2163.00,0.0014
2162.00,0.0017
2161.00,0.0015
2160.00,0.0005
2159.00,-0.0009
2158.00,-0.0023
2157.00,-0.0030
2156.00,-0.0030
2155.00,-0.0027
2154.00,-0.0022
2153.00,-0.0018
2152.00,-0.0016
2151.00,-0.0015
2150.00,-0.0014
2149.00,-0.0014
2148.00,-0.0015
2147.00,-0.0016
2146.00,-0.0017
2145.00,-0.0016
2144.00,-0.0014
2143.00,-0.0012
2142.00,-0.0010
2141.00,-0.0009
2140.00,-0.0009
2139.00,-0.0010
2138.00,-0.0011
2137.00,-0.0013
2136.00,-0.0015
2135.00,-0.0018
2134.00,-0.0019
2133.00,-0.0019
2132.00,-0.0016
2131.00,-0.0013
2130.00,-0.0010
2129.00,-0.0009
2128.00,-0.0009
2127.00,-0.0009
2126.00,-0.0007
2125.00,-0.0006
2124.00,-0.0005
2123.00,-0.0004
2122.00,-0.0003
2121.00,-0.0003
2120.00,-0.0002
2119.00,-0.0002
2118.00,-0.0000
2117.00,0.0001
2116.00,0.0003
2115.00,0.0004
2114.00,0.0005
2113.00,0.0005
2112.00,0.0004
2111.00,0.0003
2110.00,0.0002
2109.00,0.0002
2108.00,0.0002
2107.00,0.0002
2106.00,0.0002
2105.00,0.0003
2104.00,0.0003
2103.00,0.0002
2102.00,0.0001
2101.00,0.0001
2100.00,0.0001
2099.00,0.0001
2098.00,0.0001
2097.00,0.0001
2096.00,0.0001
2095.00,0.0000
2094.00,-0.0001
2093.00,-0.0002
2092.00,-0.0002
2091.00,-0.0001
2090.00,0.0000
2089.00,0.0002
2088.00,0.0003
2087.00,0.0003
2086.00,0.0003
2085.00,0.0003
2084.00,0.0004
2083.00,0.0004
2082.00,0.0004
2081.00,0.0005
2080.00,0.0006
2079.00,0.0006
2078.00,0.0006
2077.00,0.0005
2076.00,0.0004
2075.00,0.0002
2074.00,0.0001
2073.00,0.0001
2072.00,0.0002
2071.00,0.0003
2070.00,0.0004
2069.00,0.0003
2068.00,0.0003
2067.00,0.0002
2066.00,0.0001
2065.00,0.0001
2064.00,0.0002
2063.00,0.0002
2062.00,0.0002
2061.00,0.0001
2060.00,0.0001
2059.00,0.0001
2058.00,0.0002
2057.00,0.0003
2056.00,0.0002
2055.00,0.0001
2054.00,0.0000
2053.00,0.0002
2052.00,0.0006
2051.00,0.0008
2050.00,0.0008
2049.00,0.0006
2048.00,0.0003
2047.00,-0.0000
2046.00,-0.0003
2045.00,-0.0003
2044.00,-0.0002
2043.00,0.0001
2042.00,0.0003
2041.00,0.0004
2040.00,0.0005
2039.00,0.0005
2038.00,0.0005
2037.00,0.0006
2036.00,0.0008
2035.00,0.0008
2034.00,0.0006
2033.00,0.0002
2032.00,-0.0001
2031.00,-0.0005
2030.00,-0.0006
2029.00,-0.0005
2028.00,-0.0003
2027.00,-0.0002
2026.00,-0.0002
2025.00,-0.0003
2024.00,-0.0005
2023.00,-0.0006
2022.00,-0.0006
2021.00,-0.0005
2020.00,-0.0004
2019.00,-0.0003
2018.00,-0.0003
2017.00,-0.0003
2016.00,-0.0002
2015.00,-0.0001
2014.00,-0.0001
2013.00,-0.0002
2012.00,-0.0005
2011.00,-0.0009
2010.00,-0.0013
2009.00,-0.0015
2008.00,-0.0017
2007.00,-0.0018
2006.00,-0.0018
2005.00,-0.0017
2004.00,-0.0014
2003.00,-0.0012
2002.00,-0.0012
2001.00,-0.0011
2000.00,-0.0009
1999.00,-0.0008
1998.00,-0.0007
1997.00,-0.0007
1996.00,-0.0007
1995.00,-0.0008
1994.00,-0.0007
1993.00,-0.0005
1992.00,-0.0004
1991.00,-0.0004
1990.00,-0.0004
1989.00,-0.0003
1988.00,-0.0001
1987.00,-0.0002
1986.00,-0.0003
1985.00,-0.0005
1984.00,-0.0005
1983.00,-0.0004
1982.00,-0.0003
1981.00,-0.0001
1980.00,0.0000
1979.00,-0.0001
1978.00,-0.0004
1977.00,-0.0007
1976.00,-0.0010
1975.00,-0.0013
1974.00,-0.0014
1973.00,-0.0014
1972.00,-0.0013
1971.00,-0.0013
1970.00,-0.0013
1969.00,-0.0011
1968.00,-0.0008
1967.00,-0.0007
1966.00,-0.0007
1965.00,-0.0008
1964.00,-0.0009
1963.00,-0.0011
1962.00,-0.0012
1961.00,-0.0013
1960.00,-0.0013
1959.00,-0.0012
1958.00,-0.0011
1957.00,-0.0010
1956.00,-0.0010
1955.00,-0.0010
1954.00,-0.0011
1953.00,-0.0012
1952.00,-0.0014
1951.00,-0.0016
1950.00,-0.0017
1949.00,-0.0017
1948.00,-0.0016
1947.00,-0.0015
1946.00,-0.0014
1945.00,-0.0013
1944.00,-0.0013
1943.00,-0.0012
1942.00,-0.0011
1941.00,-0.0009
1940.00,-0.0008
1939.00,-0.0007
1938.00,-0.0007
1937.00,-0.0008
1936.00,-0.0008
1935.00,-0.0009
1934.00,-0.0010
1933.00,-0.0011
1932.00,-0.0011
1931.00,-0.0010
1930.00,-0.0008
1929.00,-0.0007
1928.00,-0.0006
1927.00,-0.0005
1926.00,-0.0005
1925.00,-0.0006
1924.00,-0.0006
1923.00,-0.0006
1922.00,-0.0006
1921.00,-0.0005
1920.00,-0.0005
1919.00,-0.0004
1918.00,-0.0003
1917.00,-0.0001
1916.00,-0.0001
1915.00,-0.0001
1914.00,-0.0002
1913.00,-0.0003
1912.00,-0.0003
1911.00,-0.0003
1910.00,-0.0003
1909.00,-0.0003
1908.00,-0.0003
1907.00,-0.0002
1906.00,-0.0001
1905.00,0.0000
1904.00,0.0000
1903.00,-0.0001
1902.00,-0.0001
1901.00,-0.0002
1900.00,-0.0001
1899.00,-0.0000
1898.00,0.0000
1897.00,0.0001
1896.00,0.0003
1895.00,0.0003
1894.00,0.0003
1893.00,0.0003
1892.00,0.0002
1891.00,0.0001
1890.00,0.0000
1889.00,0.0001
1888.00,0.0001
1887.00,0.0001
1886.00,0.0001
1885.00,0.0001
1884.00,0.0001
1883.00,0.0000
1882.00,-0.0001
1881.00,-0.0001
1880.00,-0.0001
1879.00,-0.0001
1878.00,-0.0001
1877.00,-0.0000
1876.00,-0.0001
1875.00,-0.0001
1874.00,-0.0001
1873.00,-0.0001
1872.00,-0.0001
1871.00,-0.0000
1870.00,0.0000
1869.00,0.0000
1868.00,0.0001
1867.00,0.0001
1866.00,0.0001
1865.00,0.0000
1864.00,-0.0000
1863.00,-0.0001
1862.00,-0.0000
1861.00,0.0001
1860.00,0.0002
1859.00,0.0003
1858.00,0.0002
1857.00,0.0002
1856.00,0.0001
1855.00,0.0000
1854.00,-0.0000
1853.00,0.0001
1852.00,0.0001
1851.00,0.0002
1850.00,0.0002
1849.00,0.0002
1848.00,0.0003
1847.00,0.0002
1846.00,0.0002
1845.00,0.0002
1844.00,0.0002
1843.00,0.0003
1842.00,0.0002
1841.00,0.0002
1840.00,0.0002
1839.00,0.0002
1838.00,0.0003
1837.00,0.0004
1836.00,0.0004
1835.00,0.0004
1834.00,0.0004
1833.00,0.0004
1832.00,0.0005
1831.00,0.0005
1830.00,0.0005
1829.00,0.0004
1828.00,0.0003
1827.00,0.0002
1826.00,0.0002
1825.00,0.0002
1824.00,0.0003
1823.00,0.0004
1822.00,0.0004
1821.00,0.0004
1820.00,0.0004
1819.00,0.0003
1818.00,0.0002
1817.00,0.0001
1816.00,0.0001
1815.00,0.0002
1814.00,0.0002
1813.00,0.0003
1812.00,0.0004
1811.00,0.0004
1810.00,0.0004
1809.00,0.0004
1808.00,0.0004
1807.00,0.0004
1806.00,0.0005
1805.00,0.0005
1804.00,0.0005
1803.00,0.0005
1802.00,0.0004
1801.00,0.0004
1800.00,0.0004
1799.00,0.0005
1798.00,0.0005
1797.00,0.0006
1796.00,0.0006
1795.00,0.0006
1794.00,0.0006
1793.00,0.0006
1792.00,0.0006
1791.00,0.0006
1790.00,0.0007
1789.00,0.0007
1788.00,0.0008
1787.00,0.0008
1786.00,0.0008
1785.00,0.0008
1784.00,0.0008
1783.00,0.0008
1782.00,0.0008
1781.00,0.0008
1780.00,0.0008
1779.00,0.0008
1778.00,0.0008
1777.00,0.0008
1776.00,0.0008
1775.00,0.0008
1774.00,0.0008
1773.00,0.0008
1772.00,0.0009
1771.00,0.0009
1770.00,0.0009
1769.00,0.0009
1768.00,0.0009
1767.00,0.0010
1766.00,0.0010
1765.00,0.0011
1764.00,0.0011
1763.00,0.0011
1762.00,0.0011
1761.00,0.0011
1760.00,0.0011
1759.00,0.0011
1758.00,0.0012
1757.00,0.0012
1756.00,0.0013
1755.00,0.0013
1754.00,0.0013
1753.00,0.0013
1752.00,0.0013
1751.00,0.0014
1750.00,0.0014
1749.00,0.0014
1748.00,0.0014
1747.00,0.0015
1746.00,0.0015
1745.00,0.0015
1744.00,0.0016
1743.00,0.0016
1742.00,0.0016
1741.00,0.0016
1740.00,0.0016
1739.00,0.0016
1738.00,0.0016
1737.00,0.0017
1736.00,0.0017
1735.00,0.0019
1734.00,0.0020
1733.00,0.0021
1732.00,0.0021
1731.00,0.0020
1730.00,0.0020
1729.00,0.0020
1728.00,0.0020
1727.00,0.0020
1726.00,0.0021
1725.00,0.0022
1724.00,0.0023
1723.00,0.0024
1722.00,0.0024
1721.00,0.0024
1720.00,0.0024
1719.00,0.0024
1718.00,0.0024
1717.00,0.0024
1716.00,0.0024
1715.00,0.0024
1714.00,0.0024
1713.00,0.0024
1712.00,0.0025
1711.00,0.0025
1710.00,0.0025
1709.00,0.0025
1708.00,0.0025
1707.00,0.0025
1706.00,0.0026
1705.00,0.0027
1704.00,0.0027
1703.00,0.0027
1702.00,0.0028
1701.00,0.0028
1700.00,0.0029
1699.00,0.0030
1698.00,0.0029
1697.00,0.0030
1696.00,0.0031
1695.00,0.0032
1694.00,0.0033
1693.00,0.0033
1692.00,0.0034
1691.00,0.0034
1690.00,0.0035
1689.00,0.0036
1688.00,0.0037
1687.00,0.0037
1686.00,0.0037
1685.00,0.0038
1684.00,0.0041
1683.00,0.0043
1682.00,0.0044
1681.00,0.0045
1680.00,0.0046
1679.00,0.0047
1678.00,0.0047
1677.00,0.0049
1676.00,0.0050
1675.00,0.0052
1674.00,0.0053
1673.00,0.0054
1672.00,0.0054
1671.00,0.0054
1670.00,0.0055
1669.00,0.0056
1668.00,0.0057
1667.00,0.0058
1666.00,0.0058
1665.00,0.0058
1664.00,0.0059
1663.00,0.0059
1662.00,0.0060
1661.00,0.0061
1660.00,0.0062
1659.00,0.0062
1658.00,0.0063
1657.00,0.0063
1656.00,0.0063
1655.00,0.0064
1654.00,0.0065
1653.00,0.0068
1652.00,0.0071
1651.00,0.0071
1650.00,0.0071
1649.00,0.0072
1648.00,0.0073
1647.00,0.0075
1646.00,0.0076
1645.00,0.0077
1644.00,0.0078
1643.00,0.0078
1642.00,0.0078
1641.00,0.0079
1640.00,0.0079
1639.00,0.0080
1638.00,0.0080
1637.00,0.0080
1636.00,0.0080
1635.00,0.0080
1634.00,0.0080
1633.00,0.0079
1632.00,0.0079
1631.00,0.0079
1630.00,0.0078
1629.00,0.0078
1628.00,0.0078
1627.00,0.0077
1626.00,0.0076
1625.00,0.0076
1624.00,0.0075
1623.00,0.0075
1622.00,0.0075
1621.00,0.0075
1620.00,0.0075
1619.00,0.0075
1618.00,0.0074
1617.00,0.0075
1616.00,0.0075
1615.00,0.0075
1614.00,0.0075
1613.00,0.0075
1612.00,0.0075
1611.00,0.0075
1610.00,0.0075
1609.00,0.0075
1608.00,0.0076
1607.00,0.0075
1606.00,0.0075
1605.00,0.0075
1604.00,0.0075
1603.00,0.0075
1602.00,0.0075
1601.00,0.0075
1600.00,0.0075
1599.00,0.0075
1598.00,0.0075
1597.00,0.0075
1596.00,0.0075
1595.00,0.0075
1594.00,0.0075
1593.00,0.0074
1592.00,0.0074
1591.00,0.0074
1590.00,0.0074
1589.00,0.0074
1588.00,0.0074
1587.00,0.0075
1586.00,0.0075
1585.00,0.0076
1584.00,0.0076
1583.00,0.0076
1582.00,0.0077
1581.00,0.0078
1580.00,0.0079
1579.00,0.0079
1578.00,0.0080
1577.00,0.0080
1576.00,0.0080
1575.00,0.0079
1574.00,0.0078
1573.00,0.0077
1572.00,0.0076
1571.00,0.0075
1570.00,0.0074
1569.00,0.0074
1568.00,0.0073
1567.00,0.0073
1566.00,0.0072
1565.00,0.0072
1564.00,0.0072
1563.00,0.0071
1562.00,0.0071
1561.00,0.0071
1560.00,0.0071
1559.00,0.0071
1558.00,0.0071
1557.00,0.0071
1556.00,0.0072
1555.00,0.0072
1554.00,0.0072
1553.00,0.0073
1552.00,0.0074
1551.00,0.0075
1550.00,0.0075
1549.00,0.0075
1548.00,0.0076
1547.00,0.0076
1546.00,0.0077
1545.00,0.0077
1544.00,0.0078
1543.00,0.0079
1542.00,0.0079
1541.00,0.0079
1540.00,0.0078
1539.00,0.0077
1538.00,0.0076
1537.00,0.0074
1536.00,0.0072
1535.00,0.0070
1534.00,0.0067
1533.00,0.0065
1532.00,0.0063
1531.00,0.0062
1530.00,0.0061
1529.00,0.0061
1528.00,0.0061
1527.00,0.0060
1526.00,0.0060
1525.00,0.0059
1524.00,0.0060
1523.00,0.0060
1522.00,0.0060
1521.00,0.0061
1520.00,0.0061
1519.00,0.0060
1518.00,0.0059
1517.00,0.0060
1516.00,0.0060
1515.00,0.0061
1514.00,0.0060
1513.00,0.0061
1512.00,0.0062
1511.00,0.0062
1510.00,0.0063
1509.00,0.0063
1508.00,0.0065
1507.00,0.0066
1506.00,0.0067
1505.00,0.0068
1504.00,0.0069
1503.00,0.0070
1502.00,0.0071
1501.00,0.0074
1500.00,0.0077
1499.00,0.0079
1498.00,0.0081
1497.00,0.0084
1496.00,0.0088
1495.00,0.0092
1494.00,0.0095
1493.00,0.0099
1492.00,0.0102
1491.00,0.0106
1490.00,0.0109
1489.00,0.0115
1488.00,0.0121
1487.00,0.0125
1486.00,0.0131
1485.00,0.0137
1484.00,0.0144
1483.00,0.0151
1482.00,0.0159
1481.00,0.0170
1480.00,0.0182
1479.00,0.0194
1478.00,0.0209
1477.00,0.0229
1476.00,0.0254
1475.00,0.0283
1474.00,0.0324
1473.00,0.0381
1472.00,0.0447
1471.00,0.0511
1470.00,0.0572
1469.00,0.0636
1468.00,0.0704
1467.00,0.0778
1466.00,0.0862
1465.00,0.0950
1464.00,0.1028
1463.00,0.1081
1462.00,0.1116
1461.00,0.1140
1460.00,0.1157
1459.00,0.1169
1458.00,0.1181
1457.00,0.1192
1456.00,0.1195
1455.00,0.1189
1454.00,0.1180
1453.00,0.1165
1452.00,0.1142
1451.00,0.1108
1450.00,0.1059
1449.00,0.0990
1448.00,0.0902
1447.00,0.0808
1446.00,0.0722
1445.00,0.0648
1444.00,0.0583
1443.00,0.0530
1442.00,0.0490
1441.00,0.0461
1440.00,0.0442
1439.00,0.0433
1438.00,0.0430
1437.00,0.0427
1436.00,0.0416
1435.00,0.0393
1434.00,0.0359
1433.00,0.0319
1432.00,0.0277
1431.00,0.0239
1430.00,0.0210
1429.00,0.0189
1428.00,0.0173
1427.00,0.0164
1426.00,0.0158
1425.00,0.0152
1424.00,0.0147
1423.00,0.0143
1422.00,0.0141
1421.00,0.0139
1420.00,0.0136
1419.00,0.0134
1418.00,0.0132
1417.00,0.0130
1416.00,0.0127
1415.00,0.0126
1414.00,0.0125
1413.00,0.0124
1412.00,0.0122
1411.00,0.0121
1410.00,0.0120
1409.00,0.0119
1408.00,0.0118
1407.00,0.0118
1406.00,0.0119
1405.00,0.0118
1404.00,0.0118
1403.00,0.0119
1402.00,0.0121
1401.00,0.0122
1400.00,0.0123
1399.00,0.0124
1398.00,0.0126
1397.00,0.0127
1396.00,0.0129
1395.00,0.0133
1394.00,0.0138
1393.00,0.0143
1392.00,0.0148
1391.00,0.0155
1390.00,0.0165
1389.00,0.0179
1388.00,0.0200
1387.00,0.0231
1386.00,0.0274
1385.00,0.0329
1384.00,0.0406
1383.00,0.0512
1382.00,0.0654
1381.00,0.0835
1380.00,0.1055
1379.00,0.1299
1378.00,0.1529
1377.00,0.1691
1376.00,0.1736
1375.00,0.1640
1374.00,0.1431
1373.00,0.1185
1372.00,0.0961
1371.00,0.0777
1370.00,0.0631
1369.00,0.0520
1368.00,0.0442
1367.00,0.0394
1366.00,0.0367
1365.00,0.0356
1364.00,0.0358
1363.00,0.0369
1362.00,0.0387
1361.00,0.0407
1360.00,0.0421
1359.00,0.0426
1358.00,0.0417
1357.00,0.0394
1356.00,0.0362
1355.00,0.0326
1354.00,0.0291
1353.00,0.0261
1352.00,0.0237
1351.00,0.0217
1350.00,0.0201
1349.00,0.0187
1348.00,0.0176
1347.00,0.0167
1346.00,0.0160
1345.00,0.0153
1344.00,0.0147
1343.00,0.0142
1342.00,0.0137
1341.00,0.0133
1340.00,0.0130
1339.00,0.0127
1338.00,0.0125
1337.00,0.0124
1336.00,0.0125
1335.00,0.0126
1334.00,0.0129
1333.00,0.0132
1332.00,0.0135
1331.00,0.0138
1330.00,0.0139
1329.00,0.0138
1328.00,0.0136
1327.00,0.0132
1326.00,0.0127
1325.00,0.0121
1324.00,0.0115
1323.00,0.0111
1322.00,0.0107
1321.00,0.0105
1320.00,0.0103
1319.00,0.0101
1318.00,0.0099
1317.00,0.0097
1316.00,0.0096
1315.00,0.0095
1314.00,0.0095
1313.00,0.0096
1312.00,0.0097
1311.00,0.0100
1310.00,0.0105
1309.00,0.0112
1308.00,0.0123
1307.00,0.0136
1306.00,0.0148
1305.00,0.0157
1304.00,0.0160
1303.00,0.0156
1302.00,0.0148
1301.00,0.0141
1300.00,0.0136
1299.00,0.0134
1298.00,0.0133
1297.00,0.0132
1296.00,0.0131
1295.00,0.0129
1294.00,0.0125
1293.00,0.0121
1292.00,0.0116
1291.00,0.0111
1290.00,0.0107
1289.00,0.0104
1288.00,0.0101
1287.00,0.0098
1286.00,0.0096
1285.00,0.0094
1284.00,0.0092
1283.00,0.0091
1282.00,0.0090
1281.00,0.0088
1280.00,0.0087
1279.00,0.0087
1278.00,0.0086
1277.00,0.0085
1276.00,0.0085
1275.00,0.0085
1274.00,0.0086
1273.00,0.0086
1272.00,0.0087
1271.00,0.0088
1270.00,0.0090
1269.00,0.0092
1268.00,0.0094
1267.00,0.0097
1266.00,0.0101
1265.00,0.0105
1264.00,0.0109
1263.00,0.0114
1262.00,0.0119
1261.00,0.0124
1260.00,0.0129
1259.00,0.0136
1258.00,0.0143
1257.00,0.0148
1256.00,0.0150
1255.00,0.0147
1254.00,0.0140
1253.00,0.0130
1252.00,0.0120
1251.00,0.0112
1250.00,0.0105
1249.00,0.0101
1248.00,0.0097
1247.00,0.0094
1246.00,0.0091
1245.00,0.0089
1244.00,0.0088
1243.00,0.0087
1242.00,0.0086
1241.00,0.0084
1240.00,0.0083
1239.00,0.0082
1238.00,0.0082
1237.00,0.0081
1236.00,0.0080
1235.00,0.0080
1234.00,0.0081
1233.00,0.0081
1232.00,0.0081
1231.00,0.0081
1230.00,0.0081
1229.00,0.0082
1228.00,0.0083
1227.00,0.0085
1226.00,0.0087
1225.00,0.0089
1224.00,0.0092
1223.00,0.0095
1222.00,0.0098
1221.00,0.0100
1220.00,0.0102
1219.00,0.0102
1218.00,0.0101
1217.00,0.0099
1216.00,0.0097
1215.00,0.0094
1214.00,0.0092
1213.00,0.0089
1212.00,0.0087
1211.00,0.0085
1210.00,0.0083
1209.00,0.0082
1208.00,0.0081
1207.00,0.0080
1206.00,0.0080
1205.00,0.0079
1204.00,0.0078
1203.00,0.0077
1202.00,0.0077
1201.00,0.0077
1200.00,0.0077
1199.00,0.0077
1198.00,0.0076
1197.00,0.0076
1196.00,0.0076
1195.00,0.0076
1194.00,0.0077
1193.00,0.0078
1192.00,0.0078
1191.00,0.0079
1190.00,0.0079
1189.00,0.0079
1188.00,0.0079
1187.00,0.0079
1186.00,0.0080
1185.00,0.0081
1184.00,0.0082
1183.00,0.0083
1182.00,0.0085
1181.00,0.0088
1180.00,0.0093
1179.00,0.0099
1178.00,0.0107
1177.00,0.0116
1176.00,0.0129
1175.00,0.0146
1174.00,0.0169
1173.00,0.0197
1172.00,0.0232
1171.00,0.0269
1170.00,0.0306
1169.00,0.0336
1168.00,0.0354
1167.00,0.0357
1166.00,0.0347
1165.00,0.0329
1164.00,0.0307
1163.00,0.0286
1162.00,0.0267
1161.00,0.0252
1160.00,0.0240
1159.00,0.0232
1158.00,0.0225
1157.00,0.0221
1156.00,0.0217
1155.00,0.0215
1154.00,0.0213
1153.00,0.0210
1152.00,0.0205
1151.00,0.0198
1150.00,0.0190
1149.00,0.0181
1148.00,0.0171
1147.00,0.0163
1146.00,0.0154
1145.00,0.0146
1144.00,0.0138
1143.00,0.0131
1142.00,0.0125
1141.00,0.0120
1140.00,0.0116
1139.00,0.0112
1138.00,0.0108
1137.00,0.0105
1136.00,0.0103
1135.00,0.0102
1134.00,0.0101
1133.00,0.0100
1132.00,0.0100
1131.00,0.0099
1130.00,0.0099
1129.00,0.0100
1128.00,0.0101
1127.00,0.0103
1126.00,0.0104
1125.00,0.0105
1124.00,0.0106
1123.00,0.0107
1122.00,0.0108
1121.00,0.0109
1120.00,0.0111
1119.00,0.0113
1118.00,0.0115
1117.00,0.0116
1116.00,0.0117
1115.00,0.0117
1114.00,0.0118
1113.00,0.0119
1112.00,0.0120
1111.00,0.0122
1110.00,0.0123
1109.00,0.0126
1108.00,0.0129
1107.00,0.0134
1106.00,0.0139
1105.00,0.0144
1104.00,0.0148
1103.00,0.0150
1102.00,0.0149
1101.00,0.0146
1100.00,0.0141
1099.00,0.0136
1098.00,0.0131
1097.00,0.0126
1096.00,0.0122
1095.00,0.0119
1094.00,0.0116
1093.00,0.0113
1092.00,0.0111
1091.00,0.0109
1090.00,0.0108
1089.00,0.0107
1088.00,0.0107
1087.00,0.0106
1086.00,0.0105
1085.00,0.0104
1084.00,0.0103
1083.00,0.0103
1082.00,0.0103
1081.00,0.0103
1080.00,0.0103
1079.00,0.0103
1078.00,0.0102
1077.00,0.0100
1076.00,0.0098
1075.00,0.0097
1074.00,0.0096
1073.00,0.0095
1072.00,0.0094
1071.00,0.0093
1070.00,0.0093
1069.00,0.0094
1068.00,0.0094
1067.00,0.0093
1066.00,0.0093
1065.00,0.0093
1064.00,0.0092
1063.00,0.0092
1062.00,0.0092
1061.00,0.0092
1060.00,0.0092
1059.00,0.0093
1058.00,0.0094
1057.00,0.0094
1056.00,0.0094
1055.00,0.0094
1054.00,0.0094
1053.00,0.0095
1052.00,0.0096
1051.00,0.0099
1050.00,0.0102
1049.00,0.0105
1048.00,0.0109
1047.00,0.0113
1046.00,0.0116
1045.00,0.0118
1044.00,0.0119
1043.00,0.0117
1042.00,0.0115
1041.00,0.0112
1040.00,0.0109
1039.00,0.0108
1038.00,0.0107
1037.00,0.0106
1036.00,0.0106
1035.00,0.0106
1034.00,0.0105
1033.00,0.0103
1032.00,0.0102
1031.00,0.0100
1030.00,0.0098
1029.00,0.0096
1028.00,0.0095
1027.00,0.0095
1026.00,0.0095
1025.00,0.0096
1024.00,0.0096
1023.00,0.0097
1022.00,0.0097
1021.00,0.0097
1020.00,0.0098
1019.00,0.0098
1018.00,0.0099
1017.00,0.0100
1016.00,0.0101
1015.00,0.0102
1014.00,0.0103
1013.00,0.0105
1012.00,0.0106
1011.00,0.0109
1010.00,0.0113
1009.00,0.0118
1008.00,0.0124
1007.00,0.0132
1006.00,0.0141
1005.00,0.0155
1004.00,0.0174
1003.00,0.0200
1002.00,0.0236
1001.00,0.0280
1000.00,0.0329
999.00,0.0370
998.00,0.0392
997.00,0.0387
996.00,0.0356
995.00,0.0310
994.00,0.0261
993.00,0.0219
992.00,0.0187
991.00,0.0164
990.00,0.0148
989.00,0.0138
988.00,0.0130
987.00,0.0125
986.00,0.0123
985.00,0.0123
984.00,0.0127
983.00,0.0134
982.00,0.0147
981.00,0.0164
980.00,0.0187
979.00,0.0218
978.00,0.0257
977.00,0.0304
976.00,0.0356
975.00,0.0407
974.00,0.0446
973.00,0.0463
972.00,0.0449
971.00,0.0408
970.00,0.0350
969.00,0.0290
968.00,0.0238
967.00,0.0199
966.00,0.0171
965.00,0.0151
964.00,0.0136
963.00,0.0125
962.00,0.0116
961.00,0.0109
960.00,0.0103
959.00,0.0099
958.00,0.0096
957.00,0.0094
956.00,0.0092
955.00,0.0091
954.00,0.0089
953.00,0.0088
952.00,0.0087
951.00,0.0087
950.00,0.0086
949.00,0.0085
948.00,0.0084
947.00,0.0085
946.00,0.0087
945.00,0.0089
944.00,0.0092
943.00,0.0095
942.00,0.0098
941.00,0.0099
940.00,0.0098
939.00,0.0095
938.00,0.0091
937.00,0.0086
936.00,0.0082
935.00,0.0078
934.00,0.0074
933.00,0.0072
932.00,0.0071
931.00,0.0071
930.00,0.0071
929.00,0.0070
928.00,0.0070
927.00,0.0070
926.00,0.0069
925.00,0.0068
924.00,0.0066
923.00,0.0065
922.00,0.0064
921.00,0.0064
920.00,0.0065
919.00,0.0067
918.00,0.0067
917.00,0.0067
916.00,0.0067
915.00,0.0067
914.00,0.0068
913.00,0.0070
912.00,0.0072
911.00,0.0075
910.00,0.0077
909.00,0.0080
908.00,0.0083
907.00,0.0087
906.00,0.0093
905.00,0.0101
904.00,0.0113
903.00,0.0129
902.00,0.0146
901.00,0.0162
900.00,0.0171
899.00,0.0172
898.00,0.0164
897.00,0.0150
896.00,0.0134
895.00,0.0119
894.00,0.0107
893.00,0.0098
892.00,0.0092
891.00,0.0087
890.00,0.0084
889.00,0.0081
888.00,0.0079
887.00,0.0077
886.00,0.0077
885.00,0.0077
884.00,0.0077
883.00,0.0077
882.00,0.0077
881.00,0.0077
880.00,0.0077
879.00,0.0078
878.00,0.0079
877.00,0.0081
876.00,0.0082
875.00,0.0082
874.00,0.0082
873.00,0.0082
872.00,0.0081
871.00,0.0080
870.00,0.0080
869.00,0.0080
868.00,0.0081
867.00,0.0082
866.00,0.0083
865.00,0.0084
864.00,0.0085
863.00,0.0087
862.00,0.0088
861.00,0.0088
860.00,0.0089
859.00,0.0090
858.00,0.0091
857.00,0.0092
856.00,0.0094
855.00,0.0096
854.00,0.0099
853.00,0.0103
852.00,0.0106
851.00,0.0110
850.00,0.0115
849.00,0.0123
848.00,0.0135
847.00,0.0152
846.00,0.0176
845.00,0.0214
844.00,0.0267
843.00,0.0330
842.00,0.0383
841.00,0.0401
840.00,0.0376
839.00,0.0319
838.00,0.0256
837.00,0.0204
836.00,0.0171
835.00,0.0150
834.00,0.0137
833.00,0.0128
832.00,0.0122
831.00,0.0119
830.00,0.0116
829.00,0.0115
828.00,0.0114
827.00,0.0113
826.00,0.0113
825.00,0.0112
824.00,0.0110
823.00,0.0109
822.00,0.0110
821.00,0.0112
820.00,0.0114
819.00,0.0115
818.00,0.0118
817.00,0.0123
816.00,0.0131
815.00,0.0142
814.00,0.0156
813.00,0.0174
812.00,0.0192
811.00,0.0208
810.00,0.0219
809.00,0.0225
808.00,0.0223
807.00,0.0213
806.00,0.0197
805.00,0.0179
804.00,0.0163
803.00,0.0150
802.00,0.0140
801.00,0.0133
800.00,0.0128
799.00,0.0123
798.00,0.0119
797.00,0.0116
796.00,0.0112
795.00,0.0109
794.00,0.0105
793.00,0.0101
792.00,0.0097
791.00,0.0093
790.00,0.0090
789.00,0.0087
788.00,0.0085
787.00,0.0084
786.00,0.0082
785.00,0.0079
784.00,0.0077
783.00,0.0075
782.00,0.0074
781.00,0.0074
780.00,0.0074
779.00,0.0074
778.00,0.0074
777.00,0.0075
776.00,0.0074
775.00,0.0073
774.00,0.0072
773.00,0.0071
772.00,0.0072
771.00,0.0073
770.00,0.0074
769.00,0.0074
768.00,0.0074
767.00,0.0075
766.00,0.0076
765.00,0.0075
764.00,0.0074
763.00,0.0072
762.00,0.0071
761.00,0.0071
760.00,0.0072
759.00,0.0074
758.00,0.0077
757.00,0.0080
756.00,0.0082
755.00,0.0082
754.00,0.0081
753.00,0.0081
752.00,0.0082
751.00,0.0085
750.00,0.0088
749.00,0.0090
748.00,0.0090
747.00,0.0091
746.00,0.0092
745.00,0.0092
744.00,0.0094
743.00,0.0096
742.00,0.0099
741.00,0.0103
740.00,0.0107
739.00,0.0111
738.00,0.0115
737.00,0.0118
736.00,0.0121
735.00,0.0124
734.00,0.0128
733.00,0.0134
732.00,0.0142
731.00,0.0151
730.00,0.0157
729.00,0.0160
728.00,0.0162
727.00,0.0163
726.00,0.0166
725.00,0.0170
724.00,0.0176
723.00,0.0183
722.00,0.0190
721.00,0.0193
720.00,0.0191
719.00,0.0182
718.00,0.0169
717.00,0.0154
716.00,0.0142
715.00,0.0132
714.00,0.0125
713.00,0.0120
712.00,0.0117
711.00,0.0116
710.00,0.0117
709.00,0.0117
708.00,0.0116
707.00,0.0114
706.00,0.0111
705.00,0.0109
704.00,0.0107
703.00,0.0106
702.00,0.0105
701.00,0.0103
700.00,0.0101
699.00,0.0099
698.00,0.0098
697.00,0.0096
696.00,0.0095
695.00,0.0095
694.00,0.0096
693.00,0.0098
692.00,0.0100
691.00,0.0099
690.00,0.0097
689.00,0.0093
688.00,0.0090
687.00,0.0091
686.00,0.0093
685.00,0.0093
684.00,0.0093
683.00,0.0093
682.00,0.0094
681.00,0.0096
680.00,0.0096
679.00,0.0097
678.00,0.0098
677.00,0.0098
676.00,0.0099
675.00,0.0098
674.00,0.0097
673.00,0.0096
672.00,0.0094
671.00,0.0092
670.00,0.0090
669.00,0.0086
668.00,0.0083
667.00,0.0085
666.00,0.0090
665.00,0.0094
664.00,0.0096
663.00,0.0095
662.00,0.0094
661.00,0.0093
660.00,0.0094
659.00,0.0095
658.00,0.0096
657.00,0.0096
656.00,0.0097
655.00,0.0097
654.00,0.0096
653.00,0.0095
652.00,0.0094
651.00,0.0094
650.00,0.0094
649.00,0.0096
648.00,0.0099
647.00,0.0101
646.00,0.0102
645.00,0.0101
644.00,0.0098
643.00,0.0094
642.00,0.0090
641.00,0.0088
640.00,0.0087
639.00,0.0088
638.00,0.0090
637.00,0.0091
636.00,0.0092
635.00,0.0094
634.00,0.0095
633.00,0.0096
632.00,0.0097
631.00,0.0098
630.00,0.0097
629.00,0.0095
628.00,0.0093
627.00,0.0091
626.00,0.0092
625.00,0.0094
624.00,0.0095
623.00,0.0096
622.00,0.0096
621.00,0.0097
620.00,0.0097
619.00,0.0097
618.00,0.0096
617.00,0.0095
616.00,0.0095
615.00,0.0096
614.00,0.0096
613.00,0.0094
612.00,0.0092
611.00,0.0091
610.00,0.0091
609.00,0.0091
608.00,0.0090
607.00,0.0089
606.00,0.0087
605.00,0.0086
604.00,0.0085
603.00,0.0087
602.00,0.0090
601.00,0.0092
600.00,0.0094
599.00,0.0094
598.00,0.0094
597.00,0.0093
596.00,0.0092
595.00,0.0090
594.00,0.0089
593.00,0.0088
592.00,0.0089
591.00,0.0091
590.00,0.0094
589.00,0.0096
588.00,0.0096
587.00,0.0093
586.00,0.0088
585.00,0.0084
584.00,0.0082
583.00,0.0084
582.00,0.0089
581.00,0.0095
580.00,0.0100
579.00,0.0103
578.00,0.0105
577.00,0.0106
576.00,0.0104
575.00,0.0103
574.00,0.0104
573.00,0.0104
572.00,0.0103
571.00,0.0098
570.00,0.0092
569.00,0.0089
568.00,0.0092
567.00,0.0097
566.00,0.0102
565.00,0.0104
564.00,0.0103
563.00,0.0101
562.00,0.0098
561.00,0.0097
560.00,0.0098
559.00,0.0100
558.00,0.0101
557.00,0.0103
556.00,0.0105
555.00,0.0107
554.00,0.0107
553.00,0.0104
552.00,0.0099
551.00,0.0093
550.00,0.0088
549.00,0.0085
548.00,0.0085
547.00,0.0089
546.00,0.0092
545.00,0.0093
544.00,0.0091
543.00,0.0088
542.00,0.0087
541.00,0.0088
540.00,0.0090
539.00,0.0094
538.00,0.0100
537.00,0.0108
536.00,0.0113
535.00,0.0113
534.00,0.0109
533.00,0.0107
532.00,0.0107
531.00,0.0109
530.00,0.0111
529.00,0.0111
528.00,0.0110
527.00,0.0111
526.00,0.0111
525.00,0.0110
524.00,0.0107
523.00,0.0103
522.00,0.0098
521.00,0.0092
520.00,0.0089
519.00,0.0089
518.00,0.0091
517.00,0.0093
516.00,0.0093
515.00,0.0093
514.00,0.0093
513.00,0.0095
512.00,0.0096
511.00,0.0097
510.00,0.0098
509.00,0.0100
508.00,0.0103
507.00,0.0102
506.00,0.0098
505.00,0.0096
504.00,0.0098
503.00,0.0103
502.00,0.0104
501.00,0.0098
500.00,0.0089
499.00,0.0081
498.00,0.0077
497.00,0.0076
496.00,0.0078
495.00,0.0083
494.00,0.0088
493.00,0.0091
492.00,0.0090
491.00,0.0083
490.00,0.0074
489.00,0.0067
488.00,0.0065
487.00,0.0073
486.00,0.0088
485.00,0.0102
484.00,0.0107
483.00,0.0100
482.00,0.0088
481.00,0.0079
480.00,0.0079
479.00,0.0086
478.00,0.0097
477.00,0.0108
476.00,0.0115
475.00,0.0113
474.00,0.0104
473.00,0.0092
472.00,0.0087
471.00,0.0091
470.00,0.0097
469.00,0.0101
468.00,0.0102
467.00,0.0103
466.00,0.0104
465.00,0.0107
464.00,0.0114
463.00,0.0125
462.00,0.0139
461.00,0.0148
460.00,0.0154
459.00,0.0156
458.00,0.0152
457.00,0.0143
456.00,0.0133
455.00,0.0129
454.00,0.0133
453.00,0.0142
452.00,0.0149
451.00,0.0148
450.00,0.0138
