Created as New Dataset,Sample 003 By Administrator Date Thursday, September 04 2025
cm-1,A
4000.00,0.0011
3999.00,0.0010
3998.00,0.0010
3997.00,0.0010
3996.00,0.0010
3995.00,0.0010
3994.00,0.0010
3993.00,0.0011
3992.00,0.0011
3991.00,0.0011
3990.00,0.0011
3989.00,0.0011
3988.00,0.0010
3987.00,0.0010
3986.00,0.0010
3985.00,0.0010
3984.00,0.0010
3983.00,0.0009
3982.00,0.0009
3981.00,0.0009
3980.00,0.0009
3979.00,0.0009
3978.00,0.0009
3977.00,0.0008
3976.00,0.0008
3975.00,0.0008
3974.00,0.0008
3973.00,0.0009
3972.00,0.0009
3971.00,0.0009
3970.00,0.0009
3969.00,0.0009
3968.00,0.0009
3967.00,0.0009
3966.00,0.0009
3965.00,0.0009
3964.00,0.0009
3963.00,0.0009
3962.00,0.0009
3961.00,0.0009
3960.00,0.0009
3959.00,0.0008
3958.00,0.0008
3957.00,0.0008
3956.00,0.0008
3955.00,0.0008
3954.00,0.0008
3953.00,0.0008
3952.00,0.0008
3951.00,0.0008
3950.00,0.0008
3949.00,0.0008
3948.00,0.0008
3947.00,0.0008
3946.00,0.0008
3945.00,0.0008
3944.00,0.0008
3943.00,0.0009
3942.00,0.0009
3941.00,0.0009
3940.00,0.0009
3939.00,0.0009
3938.00,0.0009
3937.00,0.0009
3936.00,0.0009
3935.00,0.0009
3934.00,0.0009
3933.00,0.0009
3932.00,0.0009
3931.00,0.0009
3930.00,0.0009
3929.00,0.0009
3928.00,0.0009
3927.00,0.0010
3926.00,0.0010
3925.00,0.0010
3924.00,0.0010
3923.00,0.0009
3922.00,0.0009
3921.00,0.0009
3920.00,0.0009
3919.00,0.0009
3918.00,0.0009
3917.00,0.0009
3916.00,0.0009
3915.00,0.0009
3914.00,0.0009
3913.00,0.0009
3912.00,0.0009
3911.00,0.0009
3910.00,0.0010
3909.00,0.0010
3908.00,0.0010
3907.00,0.0010
3906.00,0.0009
3905.00,0.0009
3904.00,0.0009
3903.00,0.0010
3902.00,0.0010
3901.00,0.0010
3900.00,0.0010
3899.00,0.0009
3898.00,0.0009
3897.00,0.0009
3896.00,0.0009
3895.00,0.0009
3894.00,0.0009
3893.00,0.0009
3892.00,0.0009
3891.00,0.0009
3890.00,0.0009
3889.00,0.0009
3888.00,0.0009
3887.00,0.0009
3886.00,0.0008
3885.00,0.0008
3884.00,0.0009
3883.00,0.0009
3882.00,0.0009
3881.00,0.0008
3880.00,0.0008
3879.00,0.0009
3878.00,0.0009
3877.00,0.0009
3876.00,0.0009
3875.00,0.0009
3874.00,0.0009
3873.00,0.0009
3872.00,0.0009
3871.00,0.0009
3870.00,0.0008
3869.00,0.0008
3868.00,0.0008
3867.00,0.0008
3866.00,0.0008
3865.00,0.0007
3864.00,0.0007
3863.00,0.0008
3862.00,0.0008
3861.00,0.0008
3860.00,0.0008
3859.00,0.0009
3858.00,0.0009
3857.00,0.0009
3856.00,0.0009
3855.00,0.0009
3854.00,0.0009
3853.00,0.0008
3852.00,0.0008
3851.00,0.0008
3850.00,0.0008
3849.00,0.0008
3848.00,0.0008
3847.00,0.0008
3846.00,0.0008
3845.00,0.0009
3844.00,0.0009
3843.00,0.0009
3842.00,0.0008
3841.00,0.0008
3840.00,0.0008
3839.00,0.0008
3838.00,0.0008
3837.00,0.0008
3836.00,0.0008
3835.00,0.0008
3834.00,0.0008
3833.00,0.0008
3832.00,0.0008
3831.00,0.0008
3830.00,0.0008
3829.00,0.0008
3828.00,0.0008
3827.00,0.0007
3826.00,0.0007
3825.00,0.0007
3824.00,0.0007
3823.00,0.0007
3822.00,0.0007
3821.00,0.0007
3820.00,0.0008
3819.00,0.0008
3818.00,0.0008
3817.00,0.0008
3816.00,0.0007
3815.00,0.0007
3814.00,0.0007
3813.00,0.0007
3812.00,0.0007
3811.00,0.0007
3810.00,0.0008
3809.00,0.0008
3808.00,0.0009
3807.00,0.0009
3806.00,0.0009
3805.00,0.0009
3804.00,0.0009
3803.00,0.0009
3802.00,0.0008
3801.00,0.0008
3800.00,0.0008
3799.00,0.0008
3798.00,0.0008
3797.00,0.0007
3796.00,0.0007
3795.00,0.0008
3794.00,0.0008
3793.00,0.0008
3792.00,0.0008
3791.00,0.0008
3790.00,0.0008
3789.00,0.0008
3788.00,0.0007
3787.00,0.0007
3786.00,0.0007
3785.00,0.0007
3784.00,0.0008
3783.00,0.0008
3782.00,0.0008
3781.00,0.0008
3780.00,0.0008
3779.00,0.0008
3778.00,0.0008
3777.00,0.0008
3776.00,0.0008
3775.00,0.0008
3774.00,0.0009
3773.00,0.0009
3772.00,0.0009
3771.00,0.0009
3770.00,0.0009
3769.00,0.0009
3768.00,0.0009
3767.00,0.0009
3766.00,0.0009
3765.00,0.0009
3764.00,0.0009
3763.00,0.0009
3762.00,0.0009
3761.00,0.0009
3760.00,0.0009
3759.00,0.0009
3758.00,0.0009
3757.00,0.0008
3756.00,0.0008
3755.00,0.0009
3754.00,0.0009
3753.00,0.0009
3752.00,0.0008
3751.00,0.0007
3750.00,0.0007
3749.00,0.0007
3748.00,0.0007
3747.00,0.0007
3746.00,0.0007
3745.00,0.0007
3744.00,0.0007
3743.00,0.0008
3742.00,0.0008
3741.00,0.0008
3740.00,0.0008
3739.00,0.0007
3738.00,0.0007
3737.00,0.0006
3736.00,0.0005
3735.00,0.0005
3734.00,0.0005
3733.00,0.0005
3732.00,0.0005
3731.00,0.0006
3730.00,0.0006
3729.00,0.0006
3728.00,0.0006
3727.00,0.0006
3726.00,0.0006
3725.00,0.0006
3724.00,0.0005
3723.00,0.0005
3722.00,0.0005
3721.00,0.0005
3720.00,0.0005
3719.00,0.0005
3718.00,0.0005
3717.00,0.0006
3716.00,0.0006
3715.00,0.0007
3714.00,0.0007
3713.00,0.0007
3712.00,0.0007
3711.00,0.0006
3710.00,0.0006
3709.00,0.0006
3708.00,0.0005
3707.00,0.0006
3706.00,0.0006
3705.00,0.0006
3704.00,0.0006
3703.00,0.0006
3702.00,0.0007
3701.00,0.0007
3700.00,0.0007
3699.00,0.0007
3698.00,0.0007
3697.00,0.0006
3696.00,0.0006
3695.00,0.0006
3694.00,0.0006
3693.00,0.0006
3692.00,0.0006
3691.00,0.0005
3690.00,0.0005
3689.00,0.0005
3688.00,0.0005
3687.00,0.0005
3686.00,0.0006
3685.00,0.0006
3684.00,0.0006
3683.00,0.0007
3682.00,0.0007
3681.00,0.0007
3680.00,0.0008
3679.00,0.0008
3678.00,0.0008
3677.00,0.0008
3676.00,0.0008
3675.00,0.0007
3674.00,0.0007
3673.00,0.0007
3672.00,0.0006
3671.00,0.0005
3670.00,0.0005
3669.00,0.0005
3668.00,0.0006
3667.00,0.0006
3666.00,0.0006
3665.00,0.0006
3664.00,0.0006
3663.00,0.0006
3662.00,0.0006
3661.00,0.0006
3660.00,0.0006
3659.00,0.0006
3658.00,0.0005
3657.00,0.0005
3656.00,0.0004
3655.00,0.0004
3654.00,0.0004
3653.00,0.0004
3652.00,0.0004
3651.00,0.0005
3650.00,0.0005
3649.00,0.0006
3648.00,0.0006
3647.00,0.0007
3646.00,0.0007
3645.00,0.0007
3644.00,0.0007
3643.00,0.0007
3642.00,0.0006
3641.00,0.0006
3640.00,0.0006
3639.00,0.0006
3638.00,0.0006
3637.00,0.0006
3636.00,0.0006
3635.00,0.0007
3634.00,0.0007
3633.00,0.0007
3632.00,0.0007
3631.00,0.0007
3630.00,0.0007
3629.00,0.0008
3628.00,0.0008
3627.00,0.0009
3626.00,0.0009
3625.00,0.0008
3624.00,0.0007
3623.00,0.0007
3622.00,0.0007
3621.00,0.0007
3620.00,0.0008
3619.00,0.0008
3618.00,0.0009
3617.00,0.0009
3616.00,0.0008
3615.00,0.0008
3614.00,0.0008
3613.00,0.0008
3612.00,0.0008
3611.00,0.0008
3610.00,0.0008
3609.00,0.0008
3608.00,0.0008
3607.00,0.0008
3606.00,0.0009
3605.00,0.0009
3604.00,0.0009
3603.00,0.0009
3602.00,0.0009
3601.00,0.0009
3600.00,0.0009
3599.00,0.0009
3598.00,0.0009
3597.00,0.0009
3596.00,0.0010
3595.00,0.0010
3594.00,0.0010
3593.00,0.0010
3592.00,0.0010
3591.00,0.0010
3590.00,0.0010
3589.00,0.0011
3588.00,0.0011
3587.00,0.0012
3586.00,0.0012
3585.00,0.0012
3584.00,0.0012
3583.00,0.0012
3582.00,0.0012
3581.00,0.0012
3580.00,0.0012
3579.00,0.0012
3578.00,0.0012
3577.00,0.0012
3576.00,0.0012
3575.00,0.0012
3574.00,0.0013
3573.00,0.0013
3572.00,0.0013
3571.00,0.0013
3570.00,0.0014
3569.00,0.0014
3568.00,0.0014
3567.00,0.0014
3566.00,0.0014
3565.00,0.0015
3564.00,0.0015
3563.00,0.0015
3562.00,0.0015
3561.00,0.0015
3560.00,0.0015
3559.00,0.0016
3558.00,0.0016
3557.00,0.0016
3556.00,0.0016
3555.00,0.0017
3554.00,0.0017
3553.00,0.0017
3552.00,0.0017
3551.00,0.0016
3550.00,0.0017
3549.00,0.0017
3548.00,0.0017
3547.00,0.0017
3546.00,0.0018
3545.00,0.0018
3544.00,0.0018
3543.00,0.0018
3542.00,0.0018
3541.00,0.0018
3540.00,0.0019
3539.00,0.0019
3538.00,0.0019
3537.00,0.0019
3536.00,0.0019
3535.00,0.0019
3534.00,0.0019
3533.00,0.0018
3532.00,0.0018
3531.00,0.0019
3530.00,0.0019
3529.00,0.0019
3528.00,0.0020
3527.00,0.0020
3526.00,0.0020
3525.00,0.0021
3524.00,0.0020
3523.00,0.0020
3522.00,0.0020
3521.00,0.0020
3520.00,0.0021
3519.00,0.0021
3518.00,0.0021
3517.00,0.0021
3516.00,0.0021
3515.00,0.0021
3514.00,0.0021
3513.00,0.0022
3512.00,0.0022
3511.00,0.0022
3510.00,0.0023
3509.00,0.0023
3508.00,0.0023
3507.00,0.0024
3506.00,0.0024
3505.00,0.0024
3504.00,0.0024
3503.00,0.0024
3502.00,0.0024
3501.00,0.0024
3500.00,0.0024
3499.00,0.0024
3498.00,0.0024
3497.00,0.0024
3496.00,0.0025
3495.00,0.0026
3494.00,0.0026
3493.00,0.0026
3492.00,0.0026
3491.00,0.0026
3490.00,0.0026
3489.00,0.0026
3488.00,0.0026
3487.00,0.0027
3486.00,0.0027
3485.00,0.0028
3484.00,0.0028
3483.00,0.0028
3482.00,0.0028
3481.00,0.0028
3480.00,0.0028
3479.00,0.0027
3478.00,0.0028
3477.00,0.0028
3476.00,0.0028
3475.00,0.0029
3474.00,0.0029
3473.00,0.0029
3472.00,0.0030
3471.00,0.0030
3470.00,0.0031
3469.00,0.0031
3468.00,0.0031
3467.00,0.0030
3466.00,0.0030
3465.00,0.0030
3464.00,0.0031
3463.00,0.0031
3462.00,0.0031
3461.00,0.0030
3460.00,0.0031
3459.00,0.0031
3458.00,0.0031
3457.00,0.0031
3456.00,0.0032
3455.00,0.0032
3454.00,0.0032
3453.00,0.0032
3452.00,0.0032
3451.00,0.0032
3450.00,0.0032
3449.00,0.0033
3448.00,0.0033
3447.00,0.0034
3446.00,0.0034
3445.00,0.0034
3444.00,0.0034
3443.00,0.0034
3442.00,0.0034
3441.00,0.0034
3440.00,0.0034
3439.00,0.0035
3438.00,0.0035
3437.00,0.0036
3436.00,0.0036
3435.00,0.0036
3434.00,0.0036
3433.00,0.0036
3432.00,0.0036
3431.00,0.0037
3430.00,0.0037
3429.00,0.0037
3428.00,0.0037
3427.00,0.0037
3426.00,0.0037
3425.00,0.0038
3424.00,0.0038
3423.00,0.0038
3422.00,0.0038
3421.00,0.0037
3420.00,0.0038
3419.00,0.0038
3418.00,0.0038
3417.00,0.0038
3416.00,0.0039
3415.00,0.0039
3414.00,0.0039
3413.00,0.0039
3412.00,0.0040
3411.00,0.0040
3410.00,0.0040
3409.00,0.0041
3408.00,0.0041
3407.00,0.0041
3406.00,0.0041
3405.00,0.0041
3404.00,0.0041
3403.00,0.0041
3402.00,0.0041
3401.00,0.0042
3400.00,0.0042
3399.00,0.0042
3398.00,0.0042
3397.00,0.0042
3396.00,0.0042
3395.00,0.0042
3394.00,0.0042
3393.00,0.0042
3392.00,0.0042
3391.00,0.0042
3390.00,0.0042
3389.00,0.0042
3388.00,0.0042
3387.00,0.0042
3386.00,0.0042
3385.00,0.0041
3384.00,0.0041
3383.00,0.0041
3382.00,0.0041
3381.00,0.0041
3380.00,0.0041
3379.00,0.0040
3378.00,0.0040
3377.00,0.0040
3376.00,0.0040
3375.00,0.0040
3374.00,0.0040
3373.00,0.0041
3372.00,0.0041
3371.00,0.0040
3370.00,0.0040
3369.00,0.0040
3368.00,0.0041
3367.00,0.0041
3366.00,0.0041
3365.00,0.0041
3364.00,0.0041
3363.00,0.0041
3362.00,0.0041
3361.00,0.0041
3360.00,0.0041
3359.00,0.0040
3358.00,0.0040
3357.00,0.0040
3356.00,0.0040
3355.00,0.0040
3354.00,0.0040
3353.00,0.0040
3352.00,0.0040
3351.00,0.0040
3350.00,0.0039
3349.00,0.0039
3348.00,0.0039
3347.00,0.0040
3346.00,0.0040
3345.00,0.0040
3344.00,0.0040
3343.00,0.0040
3342.00,0.0040
3341.00,0.0040
3340.00,0.0041
3339.00,0.0041
3338.00,0.0040
3337.00,0.0040
3336.00,0.0040
3335.00,0.0039
3334.00,0.0039
3333.00,0.0039
3332.00,0.0039
3331.00,0.0039
3330.00,0.0039
3329.00,0.0039
3328.00,0.0039
3327.00,0.0038
3326.00,0.0038
3325.00,0.0037
3324.00,0.0037
3323.00,0.0037
3322.00,0.0037
3321.00,0.0037
3320.00,0.0037
3319.00,0.0037
3318.00,0.0037
3317.00,0.0037
3316.00,0.0037
3315.00,0.0037
3314.00,0.0037
3313.00,0.0037
3312.00,0.0037
3311.00,0.0037
3310.00,0.0037
3309.00,0.0037
3308.00,0.0037
3307.00,0.0037
3306.00,0.0038
3305.00,0.0038
3304.00,0.0038
3303.00,0.0038
3302.00,0.0038
3301.00,0.0038
3300.00,0.0038
3299.00,0.0038
3298.00,0.0038
3297.00,0.0038
3296.00,0.0037
3295.00,0.0037
3294.00,0.0036
3293.00,0.0036
3292.00,0.0036
3291.00,0.0036
3290.00,0.0035
3289.00,0.0035
3288.00,0.0035
3287.00,0.0035
3286.00,0.0035
3285.00,0.0035
3284.00,0.0035
3283.00,0.0034
3282.00,0.0034
3281.00,0.0033
3280.00,0.0033
3279.00,0.0033
3278.00,0.0034
3277.00,0.0034
3276.00,0.0034
3275.00,0.0034
3274.00,0.0033
3273.00,0.0033
3272.00,0.0033
3271.00,0.0033
3270.00,0.0033
3269.00,0.0032
3268.00,0.0032
3267.00,0.0032
3266.00,0.0032
3265.00,0.0032
3264.00,0.0032
3263.00,0.0031
3262.00,0.0031
3261.00,0.0030
3260.00,0.0030
3259.00,0.0030
3258.00,0.0030
3257.00,0.0030
3256.00,0.0031
3255.00,0.0031
3254.00,0.0030
3253.00,0.0030
3252.00,0.0030
3251.00,0.0030
3250.00,0.0030
3249.00,0.0031
3248.00,0.0031
3247.00,0.0031
3246.00,0.0031
3245.00,0.0031
3244.00,0.0031
3243.00,0.0031
3242.00,0.0030
3241.00,0.0030
3240.00,0.0030
3239.00,0.0030
3238.00,0.0030
3237.00,0.0030
3236.00,0.0030
3235.00,0.0031
3234.00,0.0031
3233.00,0.0031
3232.00,0.0032
3231.00,0.0032
3230.00,0.0031
3229.00,0.0031
3228.00,0.0031
3227.00,0.0032
3226.00,0.0032
3225.00,0.0033
3224.00,0.0033
3223.00,0.0034
3222.00,0.0034
3221.00,0.0034
3220.00,0.0034
3219.00,0.0034
3218.00,0.0034
3217.00,0.0034
3216.00,0.0034
3215.00,0.0034
3214.00,0.0034
3213.00,0.0035
3212.00,0.0035
3211.00,0.0036
3210.00,0.0036
3209.00,0.0036
3208.00,0.0036
3207.00,0.0036
3206.00,0.0037
3205.00,0.0037
3204.00,0.0037
3203.00,0.0037
3202.00,0.0037
3201.00,0.0037
3200.00,0.0037
3199.00,0.0037
3198.00,0.0037
3197.00,0.0037
3196.00,0.0037
3195.00,0.0037
3194.00,0.0037
3193.00,0.0037
3192.00,0.0037
3191.00,0.0037
3190.00,0.0036
3189.00,0.0036
3188.00,0.0036
3187.00,0.0037
3186.00,0.0037
3185.00,0.0037
3184.00,0.0037
3183.00,0.0036
3182.00,0.0036
3181.00,0.0036
3180.00,0.0035
3179.00,0.0035
3178.00,0.0035
3177.00,0.0035
3176.00,0.0035
3175.00,0.0034
3174.00,0.0034
3173.00,0.0034
3172.00,0.0034
3171.00,0.0033
3170.00,0.0033
3169.00,0.0033
3168.00,0.0033
3167.00,0.0033
3166.00,0.0033
3165.00,0.0033
3164.00,0.0033
3163.00,0.0032
3162.00,0.0032
3161.00,0.0032
3160.00,0.0032
3159.00,0.0032
3158.00,0.0032
3157.00,0.0032
3156.00,0.0032
3155.00,0.0032
3154.00,0.0032
3153.00,0.0032
3152.00,0.0032
3151.00,0.0032
3150.00,0.0032
3149.00,0.0032
3148.00,0.0032
3147.00,0.0032
3146.00,0.0032
3145.00,0.0032
3144.00,0.0032
3143.00,0.0031
3142.00,0.0031
3141.00,0.0030
3140.00,0.0030
3139.00,0.0030
3138.00,0.0030
3137.00,0.0030
3136.00,0.0030
3135.00,0.0030
3134.00,0.0030
3133.00,0.0029
3132.00,0.0029
3131.00,0.0029
3130.00,0.0029
3129.00,0.0029
3128.00,0.0029
3127.00,0.0028
3126.00,0.0028
3125.00,0.0028
3124.00,0.0027
3123.00,0.0027
3122.00,0.0027
3121.00,0.0027
3120.00,0.0027
3119.00,0.0027
3118.00,0.0026
3117.00,0.0026
3116.00,0.0026
3115.00,0.0026
3114.00,0.0026
3113.00,0.0026
3112.00,0.0026
3111.00,0.0026
3110.00,0.0026
3109.00,0.0026
3108.00,0.0026
3107.00,0.0026
3106.00,0.0026
3105.00,0.0026
3104.00,0.0025
3103.00,0.0025
3102.00,0.0025
3101.00,0.0025
3100.00,0.0025
3099.00,0.0025
3098.00,0.0025
3097.00,0.0025
3096.00,0.0025
3095.00,0.0025
3094.00,0.0025
3093.00,0.0025
3092.00,0.0025
3091.00,0.0025
3090.00,0.0025
3089.00,0.0025
3088.00,0.0025
3087.00,0.0025
3086.00,0.0025
3085.00,0.0025
3084.00,0.0025
3083.00,0.0025
3082.00,0.0025
3081.00,0.0025
3080.00,0.0025
3079.00,0.0025
3078.00,0.0025
3077.00,0.0025
3076.00,0.0025
3075.00,0.0026
3074.00,0.0026
3073.00,0.0026
3072.00,0.0026
3071.00,0.0026
3070.00,0.0026
3069.00,0.0026
3068.00,0.0026
3067.00,0.0026
3066.00,0.0026
3065.00,0.0026
3064.00,0.0026
3063.00,0.0026
3062.00,0.0026
3061.00,0.0027
3060.00,0.0027
3059.00,0.0027
3058.00,0.0027
3057.00,0.0027
3056.00,0.0028
3055.00,0.0028
3054.00,0.0029
3053.00,0.0029
3052.00,0.0029
3051.00,0.0029
3050.00,0.0029
3049.00,0.0029
3048.00,0.0029
3047.00,0.0030
3046.00,0.0031
3045.00,0.0031
3044.00,0.0031
3043.00,0.0031
3042.00,0.0031
3041.00,0.0031
3040.00,0.0032
3039.00,0.0032
3038.00,0.0033
3037.00,0.0034
3036.00,0.0034
3035.00,0.0034
3034.00,0.0034
3033.00,0.0034
3032.00,0.0035
3031.00,0.0035
3030.00,0.0035
3029.00,0.0036
3028.00,0.0036
3027.00,0.0037
3026.00,0.0038
3025.00,0.0039
3024.00,0.0039
3023.00,0.0040
3022.00,0.0040
3021.00,0.0041
3020.00,0.0042
3019.00,0.0043
3018.00,0.0044
3017.00,0.0044
3016.00,0.0045
3015.00,0.0046
3014.00,0.0047
3013.00,0.0048
3012.00,0.0050
3011.00,0.0051
3010.00,0.0053
3009.00,0.0054
3008.00,0.0055
3007.00,0.0057
3006.00,0.0058
3005.00,0.0060
3004.00,0.0062
3003.00,0.0065
3002.00,0.0067
3001.00,0.0069
3000.00,0.0071
2999.00,0.0074
2998.00,0.0077
2997.00,0.0081
2996.00,0.0084
2995.00,0.0088
2994.00,0.0093
2993.00,0.0098
2992.00,0.0103
2991.00,0.0109
2990.00,0.0115
2989.00,0.0122
2988.00,0.0130
2987.00,0.0138
2986.00,0.0148
2985.00,0.0159
2984.00,0.0172
2983.00,0.0186
2982.00,0.0202
2981.00,0.0221
2980.00,0.0242
2979.00,0.0265
2978.00,0.0292
2977.00,0.0322
2976.00,0.0357
2975.00,0.0397
2974.00,0.0442
2973.00,0.0495
2972.00,0.0555
2971.00,0.0622
2970.00,0.0698
2969.00,0.0781
2968.00,0.0873
2967.00,0.0973
2966.00,0.1079
2965.00,0.1191
2964.00,0.1304
2963.00,0.1414
2962.00,0.1515
2961.00,0.1601
2960.00,0.1670
2959.00,0.1721
2958.00,0.1757
2957.00,0.1783
2956.00,0.1806
2955.00,0.1830
2954.00,0.1857
2953.00,0.1884
2952.00,0.1905
2951.00,0.1910
2950.00,0.1891
2949.00,0.1842
2948.00,0.1763
2947.00,0.1659
2946.00,0.1541
2945.00,0.1419
2944.00,0.1306
2943.00,0.1210
2942.00,0.1137
2941.00,0.1086
2940.00,0.1059
2939.00,0.1052
2938.00,0.1064
2937.00,0.1093
2936.00,0.1137
2935.00,0.1195
2934.00,0.1265
2933.00,0.1347
2932.00,0.1438
2931.00,0.1536
2930.00,0.1639
2929.00,0.1744
2928.00,0.1847
2927.00,0.1946
2926.00,0.2040
2925.00,0.2129
2924.00,0.2214
2923.00,0.2296
2922.00,0.2374
2921.00,0.2447
2920.00,0.2508
2919.00,0.2551
2918.00,0.2569
2917.00,0.2558
2916.00,0.2516
2915.00,0.2451
2914.00,0.2370
2913.00,0.2284
2912.00,0.2201
2911.00,0.2125
2910.00,0.2059
2909.00,0.2000
2908.00,0.1946
2907.00,0.1894
2906.00,0.1840
2905.00,0.1784
2904.00,0.1723
2903.00,0.1660
2902.00,0.1595
2901.00,0.1530
2900.00,0.1466
2899.00,0.1405
2898.00,0.1347
2897.00,0.1293
2896.00,0.1244
2895.00,0.1201
2894.00,0.1164
2893.00,0.1134
2892.00,0.1108
2891.00,0.1088
2890.00,0.1073
2889.00,0.1063
2888.00,0.1056
2887.00,0.1052
2886.00,0.1052
2885.00,0.1055
2884.00,0.1062
2883.00,0.1072
2882.00,0.1086
2881.00,0.1103
2880.00,0.1118
2879.00,0.1131
2878.00,0.1137
2877.00,0.1137
2876.00,0.1132
2875.00,0.1124
2874.00,0.1119
2873.00,0.1119
2872.00,0.1125
2871.00,0.1138
2870.00,0.1154
2869.00,0.1169
2868.00,0.1176
2867.00,0.1169
2866.00,0.1144
2865.00,0.1099
2864.00,0.1039
2863.00,0.0971
2862.00,0.0906
2861.00,0.0850
2860.00,0.0808
2859.00,0.0780
2858.00,0.0767
2857.00,0.0764
2856.00,0.0770
2855.00,0.0784
2854.00,0.0802
2853.00,0.0822
2852.00,0.0843
2851.00,0.0863
2850.00,0.0879
2849.00,0.0891
2848.00,0.0903
2847.00,0.0918
2846.00,0.0942
2845.00,0.0976
2844.00,0.1021
2843.00,0.1075
2842.00,0.1132
2841.00,0.1186
2840.00,0.1227
2839.00,0.1248
2838.00,0.1242
2837.00,0.1206
2836.00,0.1138
2835.00,0.1047
2834.00,0.0941
2833.00,0.0831
2832.00,0.0728
2831.00,0.0636
2830.00,0.0558
2829.00,0.0494
2828.00,0.0443
2827.00,0.0401
2826.00,0.0367
2825.00,0.0339
2824.00,0.0315
2823.00,0.0295
2822.00,0.0278
2821.00,0.0263
2820.00,0.0249
2819.00,0.0237
2818.00,0.0227
2817.00,0.0218
2816.00,0.0210
2815.00,0.0203
2814.00,0.0196
2813.00,0.0191
2812.00,0.0185
2811.00,0.0180
2810.00,0.0175
2809.00,0.0170
2808.00,0.0164
2807.00,0.0158
2806.00,0.0152
2805.00,0.0146
2804.00,0.0139
2803.00,0.0134
2802.00,0.0129
2801.00,0.0124
2800.00,0.0121
2799.00,0.0117
2798.00,0.0115
2797.00,0.0112
2796.00,0.0110
2795.00,0.0108
2794.00,0.0105
2793.00,0.0102
2792.00,0.0099
2791.00,0.0095
2790.00,0.0092
2789.00,0.0088
2788.00,0.0085
2787.00,0.0082
2786.00,0.0079
2785.00,0.0076
2784.00,0.0074
2783.00,0.0071
2782.00,0.0069
2781.00,0.0068
2780.00,0.0066
2779.00,0.0064
2778.00,0.0062
2777.00,0.0060
2776.00,0.0059
2775.00,0.0058
2774.00,0.0057
2773.00,0.0057
2772.00,0.0056
2771.00,0.0056
2770.00,0.0055
2769.00,0.0055
2768.00,0.0055
2767.00,0.0054
2766.00,0.0054
2765.00,0.0054
2764.00,0.0053
2763.00,0.0053
2762.00,0.0053
2761.00,0.0052
2760.00,0.0052
2759.00,0.0051
2758.00,0.0051
2757.00,0.0051
2756.00,0.0051
2755.00,0.0051
2754.00,0.0051
2753.00,0.0051
2752.00,0.0051
2751.00,0.0050
2750.00,0.0050
2749.00,0.0050
2748.00,0.0050
2747.00,0.0050
2746.00,0.0051
2745.00,0.0052
2744.00,0.0052
2743.00,0.0053
2742.00,0.0054
2741.00,0.0055
2740.00,0.0056
2739.00,0.0057
2738.00,0.0058
2737.00,0.0060
2736.00,0.0061
2735.00,0.0062
2734.00,0.0063
2733.00,0.0065
2732.00,0.0066
2731.00,0.0068
2730.00,0.0070
2729.00,0.0073
2728.00,0.0075
2727.00,0.0078
2726.00,0.0080
2725.00,0.0082
2724.00,0.0084
2723.00,0.0085
2722.00,0.0084
2721.00,0.0083
2720.00,0.0080
2719.00,0.0077
2718.00,0.0074
2717.00,0.0071
2716.00,0.0068
2715.00,0.0066
2714.00,0.0063
2713.00,0.0061
2712.00,0.0059
2711.00,0.0057
2710.00,0.0055
2709.00,0.0054
2708.00,0.0052
2707.00,0.0051
2706.00,0.0050
2705.00,0.0049
2704.00,0.0048
2703.00,0.0047
2702.00,0.0047
2701.00,0.0046
2700.00,0.0046
2699.00,0.0045
2698.00,0.0045
2697.00,0.0045
2696.00,0.0045
2695.00,0.0045
2694.00,0.0045
2693.00,0.0045
2692.00,0.0045
2691.00,0.0046
2690.00,0.0046
2689.00,0.0046
2688.00,0.0046
2687.00,0.0045
2686.00,0.0045
2685.00,0.0045
2684.00,0.0045
2683.00,0.0045
2682.00,0.0045
2681.00,0.0045
2680.00,0.0045
2679.00,0.0045
2678.00,0.0046
2677.00,0.0046
2676.00,0.0046
2675.00,0.0046
2674.00,0.0046
2673.00,0.0045
2672.00,0.0045
2671.00,0.0044
2670.00,0.0044
2669.00,0.0044
2668.00,0.0044
2667.00,0.0044
2666.00,0.0044
2665.00,0.0044
2664.00,0.0045
2663.00,0.0045
2662.00,0.0046
2661.00,0.0047
2660.00,0.0047
2659.00,0.0047
2658.00,0.0047
2657.00,0.0047
2656.00,0.0047
2655.00,0.0046
2654.00,0.0046
2653.00,0.0046
2652.00,0.0045
2651.00,0.0045
2650.00,0.0044
2649.00,0.0044
2648.00,0.0044
2647.00,0.0043
2646.00,0.0043
2645.00,0.0042
2644.00,0.0042
2643.00,0.0041
2642.00,0.0041
2641.00,0.0041
2640.00,0.0041
2639.00,0.0040
2638.00,0.0039
2637.00,0.0039
2636.00,0.0039
2635.00,0.0039
2634.00,0.0039
2633.00,0.0039
2632.00,0.0039
2631.00,0.0039
2630.00,0.0039
2629.00,0.0039
2628.00,0.0039
2627.00,0.0039
2626.00,0.0039
2625.00,0.0039
2624.00,0.0040
2623.00,0.0040
2622.00,0.0040
2621.00,0.0040
2620.00,0.0040
2619.00,0.0040
2618.00,0.0040
2617.00,0.0040
2616.00,0.0040
2615.00,0.0040
2614.00,0.0040
2613.00,0.0039
2612.00,0.0039
2611.00,0.0038
2610.00,0.0037
2609.00,0.0036
2608.00,0.0036
2607.00,0.0035
2606.00,0.0034
2605.00,0.0034
2604.00,0.0033
2603.00,0.0032
2602.00,0.0032
2601.00,0.0032
2600.00,0.0032
2599.00,0.0032
2598.00,0.0031
2597.00,0.0031
2596.00,0.0031
2595.00,0.0031
2594.00,0.0031
2593.00,0.0031
2592.00,0.0032
2591.00,0.0032
2590.00,0.0033
2589.00,0.0033
2588.00,0.0034
2587.00,0.0035
2586.00,0.0036
2585.00,0.0037
2584.00,0.0038
2583.00,0.0039
2582.00,0.0039
2581.00,0.0038
2580.00,0.0037
2579.00,0.0036
2578.00,0.0035
2577.00,0.0034
2576.00,0.0033
2575.00,0.0032
2574.00,0.0031
2573.00,0.0030
2572.00,0.0029
2571.00,0.0028
2570.00,0.0027
2569.00,0.0026
2568.00,0.0026
2567.00,0.0025
2566.00,0.0025
2565.00,0.0024
2564.00,0.0024
2563.00,0.0024
2562.00,0.0024
2561.00,0.0023
2560.00,0.0023
2559.00,0.0023
2558.00,0.0023
2557.00,0.0023
2556.00,0.0023
2555.00,0.0023
2554.00,0.0023
2553.00,0.0022
2552.00,0.0022
2551.00,0.0021
2550.00,0.0021
2549.00,0.0021
2548.00,0.0022
2547.00,0.0021
2546.00,0.0020
2545.00,0.0019
2544.00,0.0017
2543.00,0.0017
2542.00,0.0017
2541.00,0.0017
2540.00,0.0017
2539.00,0.0017
2538.00,0.0016
2537.00,0.0016
2536.00,0.0016
2535.00,0.0016
2534.00,0.0016
2533.00,0.0016
2532.00,0.0016
2531.00,0.0016
2530.00,0.0015
2529.00,0.0015
2528.00,0.0015
2527.00,0.0015
2526.00,0.0015
2525.00,0.0015
2524.00,0.0014
2523.00,0.0014
2522.00,0.0013
2521.00,0.0012
2520.00,0.0012
2519.00,0.0012
2518.00,0.0012
2517.00,0.0012
2516.00,0.0012
2515.00,0.0012
2514.00,0.0012
2513.00,0.0012
2512.00,0.0011
2511.00,0.0010
2510.00,0.0010
2509.00,0.0009
2508.00,0.0009
2507.00,0.0009
2506.00,0.0009
2505.00,0.0010
2504.00,0.0010
2503.00,0.0010
2502.00,0.0010
2501.00,0.0009
2500.00,0.0009
2499.00,0.0009
2498.00,0.0009
2497.00,0.0010
2496.00,0.0010
2495.00,0.0010
2494.00,0.0010
2493.00,0.0011
2492.00,0.0011
2491.00,0.0011
2490.00,0.0011
2489.00,0.0011
2488.00,0.0011
2487.00,0.0010
2486.00,0.0010
2485.00,0.0009
2484.00,0.0009
2483.00,0.0009
2482.00,0.0008
2481.00,0.0009
2480.00,0.0009
2479.00,0.0010
2478.00,0.0010
2477.00,0.0009
2476.00,0.0009
2475.00,0.0008
2474.00,0.0008
2473.00,0.0008
2472.00,0.0008
2471.00,0.0008
2470.00,0.0009
2469.00,0.0009
2468.00,0.0009
2467.00,0.0010
2466.00,0.0010
2465.00,0.0011
2464.00,0.0011
2463.00,0.0011
2462.00,0.0011
2461.00,0.0011
2460.00,0.0011
2459.00,0.0011
2458.00,0.0011
2457.00,0.0011
2456.00,0.0010
2455.00,0.0010
2454.00,0.0011
2453.00,0.0011
2452.00,0.0011
2451.00,0.0010
2450.00,0.0010
2449.00,0.0010
2448.00,0.0011
2447.00,0.0011
2446.00,0.0011
2445.00,0.0011
2444.00,0.0011
2443.00,0.0011
2442.00,0.0011
2441.00,0.0011
2440.00,0.0012
2439.00,0.0012
2438.00,0.0012
2437.00,0.0011
2436.00,0.0011
2435.00,0.0010
2434.00,0.0010
2433.00,0.0010
2432.00,0.0011
2431.00,0.0011
2430.00,0.0012
2429.00,0.0013
2428.00,0.0013
2427.00,0.0013
2426.00,0.0012
2425.00,0.0012
2424.00,0.0012
2423.00,0.0011
2422.00,0.0011
2421.00,0.0011
2420.00,0.0010
2419.00,0.0010
2418.00,0.0010
2417.00,0.0010
2416.00,0.0010
2415.00,0.0010
2414.00,0.0009
2413.00,0.0009
2412.00,0.0009
2411.00,0.0009
2410.00,0.0010
2409.00,0.0010
2408.00,0.0010
2407.00,0.0009
2406.00,0.0009
2405.00,0.0009
2404.00,0.0008
2403.00,0.0008
2402.00,0.0008
2401.00,0.0008
2400.00,0.0008
2399.00,0.0008
2398.00,0.0008
2397.00,0.0009
2396.00,0.0009
2395.00,0.0009
2394.00,0.0009
2393.00,0.0009
2392.00,0.0009
2391.00,0.0009
2390.00,0.0009
2389.00,0.0008
2388.00,0.0007
2387.00,0.0007
2386.00,0.0006
2385.00,0.0006
2384.00,0.0005
2383.00,0.0004
2382.00,0.0004
2381.00,0.0003
2380.00,0.0003
2379.00,0.0002
2378.00,0.0002
2377.00,0.0002
2376.00,0.0002
2375.00,0.0002
2374.00,0.0002
2373.00,0.0002
2372.00,0.0002
2371.00,0.0001
2370.00,0.0000
2369.00,-0.0000
2368.00,-0.0001
2367.00,-0.0002
2366.00,-0.0002
2365.00,-0.0001
2364.00,-0.0001
2363.00,-0.0000
2362.00,0.0001
2361.00,0.0001
2360.00,0.0002
2359.00,0.0002
2358.00,0.0001
2357.00,0.0001
2356.00,0.0001
2355.00,0.0002
2354.00,0.0003
2353.00,0.0003
2352.00,0.0003
2351.00,0.0002
2350.00,0.0002
2349.00,0.0002
2348.00,0.0003
2347.00,0.0004
2346.00,0.0005
2345.00,0.0005
2344.00,0.0005
2343.00,0.0004
2342.00,0.0004
2341.00,0.0004
2340.00,0.0003
2339.00,0.0004
2338.00,0.0005
2337.00,0.0005
2336.00,0.0006
2335.00,0.0005
2334.00,0.0005
2333.00,0.0004
2332.00,0.0004
2331.00,0.0004
2330.00,0.0004
2329.00,0.0005
2328.00,0.0007
2327.00,0.0011
2326.00,0.0015
2325.00,0.0019
2324.00,0.0021
2323.00,0.0019
2322.00,0.0017
2321.00,0.0015
2320.00,0.0013
2319.00,0.0012
2318.00,0.0012
2317.00,0.0011
2316.00,0.0010
2315.00,0.0009
2314.00,0.0008
2313.00,0.0007
2312.00,0.0006
2311.00,0.0005
2310.00,0.0004
2309.00,0.0004
2308.00,0.0005
2307.00,0.0005
2306.00,0.0006
2305.00,0.0006
2304.00,0.0007
2303.00,0.0007
2302.00,0.0007
2301.00,0.0008
2300.00,0.0008
2299.00,0.0009
2298.00,0.0010
2297.00,0.0011
2296.00,0.0011
2295.00,0.0011
2294.00,0.0012
2293.00,0.0012
2292.00,0.0014
2291.00,0.0015
2290.00,0.0016
2289.00,0.0017
2288.00,0.0017
2287.00,0.0018
2286.00,0.0019
2285.00,0.0019
2284.00,0.0019
2283.00,0.0018
2282.00,0.0017
2281.00,0.0016
2280.00,0.0016
2279.00,0.0015
2278.00,0.0015
2277.00,0.0014
2276.00,0.0014
2275.00,0.0013
2274.00,0.0013
2273.00,0.0014
2272.00,0.0014
2271.00,0.0014
2270.00,0.0013
2269.00,0.0013
2268.00,0.0013
2267.00,0.0012
2266.00,0.0012
2265.00,0.0012
2264.00,0.0013
2263.00,0.0013
2262.00,0.0014
2261.00,0.0013
2260.00,0.0013
2259.00,0.0013
2258.00,0.0012
2257.00,0.0011
2256.00,0.0010
2255.00,0.0010
2254.00,0.0009
2253.00,0.0009
2252.00,0.0008
2251.00,0.0007
2250.00,0.0006
2249.00,0.0005
2248.00,0.0005
2247.00,0.0004
2246.00,0.0004
2245.00,0.0004
2244.00,0.0005
2243.00,0.0006
2242.00,0.0007
2241.00,0.0008
2240.00,0.0008
2239.00,0.0008
2238.00,0.0008
2237.00,0.0009
2236.00,0.0009
2235.00,0.0009
2234.00,0.0008
2233.00,0.0008
2232.00,0.0007
2231.00,0.0006
2230.00,0.0006
2229.00,0.0005
2228.00,0.0006
2227.00,0.0006
2226.00,0.0007
2225.00,0.0007
2224.00,0.0007
2223.00,0.0006
2222.00,0.0004
2221.00,0.0003
2220.00,0.0004
2219.00,0.0005
2218.00,0.0006
2217.00,0.0007
2216.00,0.0008
2215.00,0.0009
2214.00,0.0008
2213.00,0.0007
2212.00,0.0006
2211.00,0.0006
2210.00,0.0006
2209.00,0.0006
2208.00,0.0006
2207.00,0.0006
2206.00,0.0006
2205.00,0.0006
2204.00,0.0005
2203.00,0.0004
2202.00,0.0004
2201.00,0.0004
2200.00,0.0006
2199.00,0.0008
2198.00,0.0009
2197.00,0.0010
2196.00,0.0010
2195.00,0.0010
2194.00,0.0009
2193.00,0.0008
2192.00,0.0007
2191.00,0.0006
2190.00,0.0007
2189.00,0.0009
2188.00,0.0010
2187.00,0.0010
2186.00,0.0008
2185.00,0.0007
2184.00,0.0006
2183.00,0.0004
2182.00,0.0004
2181.00,0.0004
2180.00,0.0006
2179.00,0.0007
2178.00,0.0007
2177.00,0.0005
2176.00,0.0002
2175.00,-0.0001
2174.00,-0.0003
2173.00,-0.0003
2172.00,-0.0002
2171.00,0.0000
2170.00,0.0003
2169.00,0.0007
2168.00,0.0009
2167.00,0.0011
2166.00,0.0012
2165.00,0.0013
2164.00,0.0015
2163.00,0.0017
2162.00,0.0017
2161.00,0.0014
2160.00,0.0005
2159.00,-0.0009
2158.00,-0.0023
2157.00,-0.0031
2156.00,-0.0033
2155.00,-0.0030
2154.00,-0.0026
2153.00,-0.0020
2152.00,-0.0015
2151.00,-0.0013
2150.00,-0.0012
2149.00,-0.0013
2148.00,-0.0015
2147.00,-0.0016
2146.00,-0.0017
2145.00,-0.0017
2144.00,-0.0016
2143.00,-0.0017
2142.00,-0.0017
2141.00,-0.0017
2140.00,-0.0016
2139.00,-0.0015
2138.00,-0.0014
2137.00,-0.0015
2136.00,-0.0016
2135.00,-0.0018
2134.00,-0.0020
2133.00,-0.0020
2132.00,-0.0019
2131.00,-0.0015
2130.00,-0.0012
2129.00,-0.0009
2128.00,-0.0007
2127.00,-0.0007
2126.00,-0.0007
2125.00,-0.0006
2124.00,-0.0005
2123.00,-0.0004
2122.00,-0.0003
2121.00,-0.0003
2120.00,-0.0003
2119.00,-0.0002
2118.00,-0.0001
2117.00,-0.0000
2116.00,0.0000
2115.00,0.0000
2114.00,0.0000
2113.00,0.0001
2112.00,0.0002
2111.00,0.0003
2110.00,0.0003
2109.00,0.0003
2108.00,0.0002
2107.00,0.0001
2106.00,-0.0000
2105.00,-0.0001
2104.00,-0.0002
2103.00,-0.0002
2102.00,-0.0001
2101.00,-0.0000
2100.00,0.0000
2099.00,-0.0000
2098.00,-0.0001
2097.00,-0.0003
2096.00,-0.0005
2095.00,-0.0006
2094.00,-0.0006
2093.00,-0.0004
2092.00,-0.0002
2091.00,-0.0000
2090.00,0.0001
2089.00,0.0001
2088.00,0.0001
2087.00,0.0001
2086.00,0.0000
2085.00,-0.0001
2084.00,-0.0000
2083.00,0.0001
2082.00,0.0003
2081.00,0.0004
2080.00,0.0004
2079.00,0.0003
2078.00,0.0002
2077.00,0.0002
2076.00,0.0002
2075.00,0.0001
2074.00,0.0000
2073.00,-0.0000
2072.00,-0.0002
2071.00,-0.0003
2070.00,-0.0005
2069.00,-0.0005
2068.00,-0.0005
2067.00,-0.0005
2066.00,-0.0004
2065.00,-0.0003
2064.00,-0.0002
2063.00,-0.0002
2062.00,-0.0002
2061.00,-0.0002
2060.00,-0.0002
2059.00,-0.0002
2058.00,-0.0001
2057.00,0.0000
2056.00,-0.0000
2055.00,-0.0001
2054.00,0.0000
2053.00,0.0004
2052.00,0.0008
2051.00,0.0011
2050.00,0.0011
2049.00,0.0008
2048.00,0.0005
2047.00,0.0003
2046.00,0.0001
2045.00,-0.0001
2044.00,-0.0003
2043.00,-0.0005
2042.00,-0.0005
2041.00,-0.0002
2040.00,0.0004
2039.00,0.0010
2038.00,0.0013
2037.00,0.0012
2036.00,0.0008
2035.00,0.0004
2034.00,0.0000
2033.00,-0.0002
2032.00,-0.0004
2031.00,-0.0007
2030.00,-0.0010
2029.00,-0.0013
2028.00,-0.0014
2027.00,-0.0014
2026.00,-0.0011
2025.00,-0.0008
2024.00,-0.0005
2023.00,-0.0005
2022.00,-0.0007
2021.00,-0.0008
2020.00,-0.0007
2019.00,-0.0005
2018.00,-0.0003
2017.00,-0.0003
2016.00,-0.0005
2015.00,-0.0008
2014.00,-0.0010
2013.00,-0.0010
2012.00,-0.0010
2011.00,-0.0010
2010.00,-0.0009
2009.00,-0.0009
2008.00,-0.0011
2007.00,-0.0013
2006.00,-0.0016
2005.00,-0.0015
2004.00,-0.0013
2003.00,-0.0010
2002.00,-0.0008
2001.00,-0.0008
2000.00,-0.0009
1999.00,-0.0012
1998.00,-0.0015
1997.00,-0.0016
1996.00,-0.0014
1995.00,-0.0011
1994.00,-0.0008
1993.00,-0.0006
1992.00,-0.0005
1991.00,-0.0005
1990.00,-0.0004
1989.00,-0.0003
1988.00,-0.0003
1987.00,-0.0004
1986.00,-0.0007
1985.00,-0.0008
1984.00,-0.0006
1983.00,-0.0002
1982.00,0.0003
1981.00,0.0007
1980.00,0.0007
1979.00,0.0001
1978.00,-0.0007
1977.00,-0.0015
1976.00,-0.0019
1975.00,-0.0021
1974.00,-0.0021
1973.00,-0.0019
1972.00,-0.0015
1971.00,-0.0012
1970.00,-0.0010
1969.00,-0.0011
1968.00,-0.0014
1967.00,-0.0018
1966.00,-0.0021
1965.00,-0.0020
1964.00,-0.0018
1963.00,-0.0016
1962.00,-0.0015
1961.00,-0.0017
1960.00,-0.0020
1959.00,-0.0021
1958.00,-0.0021
1957.00,-0.0019
1956.00,-0.0018
1955.00,-0.0017
1954.00,-0.0016
1953.00,-0.0015
1952.00,-0.0014
1951.00,-0.0014
1950.00,-0.0015
1949.00,-0.0015
1948.00,-0.0014
1947.00,-0.0014
1946.00,-0.0014
1945.00,-0.0014
1944.00,-0.0014
1943.00,-0.0014
1942.00,-0.0014
1941.00,-0.0014
1940.00,-0.0013
1939.00,-0.0012
1938.00,-0.0011
1937.00,-0.0010
1936.00,-0.0010
1935.00,-0.0011
1934.00,-0.0011
1933.00,-0.0011
1932.00,-0.0011
1931.00,-0.0012
1930.00,-0.0012
1929.00,-0.0011
1928.00,-0.0010
1927.00,-0.0009
1926.00,-0.0008
1925.00,-0.0008
1924.00,-0.0007
1923.00,-0.0006
1922.00,-0.0006
1921.00,-0.0006
1920.00,-0.0006
1919.00,-0.0007
1918.00,-0.0007
1917.00,-0.0005
1916.00,-0.0004
1915.00,-0.0003
1914.00,-0.0002
1913.00,-0.0002
1912.00,-0.0002
1911.00,-0.0003
1910.00,-0.0004
1909.00,-0.0004
1908.00,-0.0004
1907.00,-0.0004
1906.00,-0.0004
1905.00,-0.0004
1904.00,-0.0004
1903.00,-0.0004
1902.00,-0.0003
1901.00,-0.0002
1900.00,-0.0002
1899.00,-0.0003
1898.00,-0.0004
1897.00,-0.0005
1896.00,-0.0004
1895.00,-0.0003
1894.00,-0.0002
1893.00,-0.0002
1892.00,-0.0001
1891.00,-0.0002
1890.00,-0.0003
1889.00,-0.0003
1888.00,-0.0004
1887.00,-0.0003
1886.00,-0.0002
1885.00,-0.0001
1884.00,-0.0001
1883.00,-0.0001
1882.00,-0.0002
1881.00,-0.0003
1880.00,-0.0003
1879.00,-0.0003
1878.00,-0.0003
1877.00,-0.0003
1876.00,-0.0003
1875.00,-0.0003
1874.00,-0.0003
1873.00,-0.0003
1872.00,-0.0002
1871.00,-0.0002
1870.00,-0.0001
1869.00,-0.0001
1868.00,-0.0001
1867.00,-0.0001
1866.00,-0.0001
1865.00,-0.0001
1864.00,-0.0001
1863.00,-0.0000
1862.00,-0.0000
1861.00,0.0000
1860.00,0.0000
1859.00,0.0000
1858.00,0.0000
1857.00,0.0000
1856.00,0.0000
1855.00,0.0000
1854.00,0.0000
1853.00,0.0000
1852.00,-0.0000
1851.00,-0.0001
1850.00,-0.0001
1849.00,-0.0000
1848.00,0.0001
1847.00,0.0002
1846.00,0.0002
1845.00,0.0001
1844.00,0.0001
1843.00,0.0001
1842.00,0.0001
1841.00,0.0000
1840.00,0.0000
1839.00,-0.0000
1838.00,0.0000
1837.00,0.0001
1836.00,0.0002
1835.00,0.0003
1834.00,0.0003
1833.00,0.0003
1832.00,0.0002
1831.00,0.0002
1830.00,0.0002
1829.00,0.0002
1828.00,0.0003
1827.00,0.0004
1826.00,0.0003
1825.00,0.0003
1824.00,0.0003
1823.00,0.0004
1822.00,0.0004
1821.00,0.0004
1820.00,0.0003
1819.00,0.0001
1818.00,-0.0000
1817.00,-0.0001
1816.00,-0.0001
1815.00,-0.0000
1814.00,0.0001
1813.00,0.0001
1812.00,0.0002
1811.00,0.0002
1810.00,0.0002
1809.00,0.0001
1808.00,0.0001
1807.00,0.0001
1806.00,0.0002
1805.00,0.0002
1804.00,0.0003
1803.00,0.0003
1802.00,0.0004
1801.00,0.0004
1800.00,0.0004
1799.00,0.0005
1798.00,0.0005
1797.00,0.0005
1796.00,0.0005
1795.00,0.0005
1794.00,0.0005
1793.00,0.0005
1792.00,0.0005
1791.00,0.0006
1790.00,0.0006
1789.00,0.0006
1788.00,0.0007
1787.00,0.0007
1786.00,0.0007
1785.00,0.0007
1784.00,0.0007
1783.00,0.0007
1782.00,0.0007
1781.00,0.0007
1780.00,0.0008
1779.00,0.0008
1778.00,0.0008
1777.00,0.0008
1776.00,0.0008
1775.00,0.0008
1774.00,0.0008
1773.00,0.0008
1772.00,0.0008
1771.00,0.0008
1770.00,0.0008
1769.00,0.0009
1768.00,0.0009
1767.00,0.0009
1766.00,0.0009
1765.00,0.0010
1764.00,0.0010
1763.00,0.0010
1762.00,0.0010
1761.00,0.0010
1760.00,0.0011
1759.00,0.0011
1758.00,0.0011
1757.00,0.0011
1756.00,0.0012
1755.00,0.0013
1754.00,0.0013
1753.00,0.0014
1752.00,0.0015
1751.00,0.0015
1750.00,0.0015
1749.00,0.0016
1748.00,0.0016
1747.00,0.0017
1746.00,0.0018
1745.00,0.0019
1744.00,0.0019
1743.00,0.0019
1742.00,0.0018
1741.00,0.0018
1740.00,0.0019
1739.00,0.0019
1738.00,0.0020
1737.00,0.0020
1736.00,0.0020
1735.00,0.0020
1734.00,0.0020
1733.00,0.0021
1732.00,0.0021
1731.00,0.0021
1730.00,0.0021
1729.00,0.0021
1728.00,0.0021
1727.00,0.0022
1726.00,0.0022
1725.00,0.0022
1724.00,0.0022
1723.00,0.0022
1722.00,0.0022
1721.00,0.0022
1720.00,0.0022
1719.00,0.0022
1718.00,0.0022
1717.00,0.0022
1716.00,0.0022
1715.00,0.0022
1714.00,0.0021
1713.00,0.0020
1712.00,0.0020
1711.00,0.0020
1710.00,0.0019
1709.00,0.0020
1708.00,0.0020
1707.00,0.0021
1706.00,0.0021
1705.00,0.0021
1704.00,0.0021
1703.00,0.0022
1702.00,0.0022
1701.00,0.0022
1700.00,0.0023
1699.00,0.0023
1698.00,0.0023
1697.00,0.0023
1696.00,0.0024
1695.00,0.0024
1694.00,0.0024
1693.00,0.0025
1692.00,0.0025
1691.00,0.0025
1690.00,0.0025
1689.00,0.0025
1688.00,0.0026
1687.00,0.0026
1686.00,0.0026
1685.00,0.0026
1684.00,0.0027
1683.00,0.0028
1682.00,0.0028
1681.00,0.0029
1680.00,0.0029
1679.00,0.0030
1678.00,0.0030
1677.00,0.0031
1676.00,0.0031
1675.00,0.0031
1674.00,0.0031
1673.00,0.0032
1672.00,0.0032
1671.00,0.0032
1670.00,0.0033
1669.00,0.0034
1668.00,0.0035
1667.00,0.0035
1666.00,0.0036
1665.00,0.0036
1664.00,0.0036
1663.00,0.0036
1662.00,0.0036
1661.00,0.0036
1660.00,0.0037
1659.00,0.0037
1658.00,0.0037
1657.00,0.0038
1656.00,0.0038
1655.00,0.0039
1654.00,0.0039
1653.00,0.0041
1652.00,0.0043
1651.00,0.0045
1650.00,0.0047
1649.00,0.0049
1648.00,0.0050
1647.00,0.0052
1646.00,0.0052
1645.00,0.0052
1644.00,0.0051
1643.00,0.0050
1642.00,0.0049
1641.00,0.0049
1640.00,0.0049
1639.00,0.0049
1638.00,0.0049
1637.00,0.0049
1636.00,0.0049
1635.00,0.0049
1634.00,0.0049
1633.00,0.0049
1632.00,0.0049
1631.00,0.0049
1630.00,0.0048
1629.00,0.0048
1628.00,0.0048
1627.00,0.0047
1626.00,0.0046
1625.00,0.0045
1624.00,0.0044
1623.00,0.0043
1622.00,0.0043
1621.00,0.0043
1620.00,0.0043
1619.00,0.0043
1618.00,0.0042
1617.00,0.0042
1616.00,0.0042
1615.00,0.0041
1614.00,0.0040
1613.00,0.0040
1612.00,0.0040
1611.00,0.0040
1610.00,0.0040
1609.00,0.0040
1608.00,0.0040
1607.00,0.0040
1606.00,0.0040
1605.00,0.0040
1604.00,0.0040
1603.00,0.0039
1602.00,0.0039
1601.00,0.0039
1600.00,0.0039
1599.00,0.0038
1598.00,0.0038
1597.00,0.0038
1596.00,0.0039
1595.00,0.0039
1594.00,0.0039
1593.00,0.0039
1592.00,0.0039
1591.00,0.0039
1590.00,0.0040
1589.00,0.0041
1588.00,0.0042
1587.00,0.0043
1586.00,0.0044
1585.00,0.0045
1584.00,0.0047
1583.00,0.0048
1582.00,0.0050
1581.00,0.0053
1580.00,0.0055
1579.00,0.0056
1578.00,0.0057
1577.00,0.0057
1576.00,0.0057
1575.00,0.0057
1574.00,0.0056
1573.00,0.0056
1572.00,0.0056
1571.00,0.0055
1570.00,0.0054
1569.00,0.0052
1568.00,0.0051
1567.00,0.0050
1566.00,0.0049
1565.00,0.0049
1564.00,0.0049
1563.00,0.0049
1562.00,0.0049
1561.00,0.0049
1560.00,0.0049
1559.00,0.0048
1558.00,0.0047
1557.00,0.0048
1556.00,0.0048
1555.00,0.0049
1554.00,0.0049
1553.00,0.0050
1552.00,0.0051
1551.00,0.0051
1550.00,0.0052
1549.00,0.0053
1548.00,0.0055
1547.00,0.0057
1546.00,0.0060
1545.00,0.0062
1544.00,0.0065
1543.00,0.0067
1542.00,0.0068
1541.00,0.0070
1540.00,0.0070
1539.00,0.0067
1538.00,0.0065
1537.00,0.0063
1536.00,0.0062
1535.00,0.0060
1534.00,0.0057
1533.00,0.0055
1532.00,0.0053
1531.00,0.0052
1530.00,0.0051
1529.00,0.0050
1528.00,0.0050
1527.00,0.0049
1526.00,0.0048
1525.00,0.0049
1524.00,0.0049
1523.00,0.0049
1522.00,0.0048
1521.00,0.0047
1520.00,0.0048
1519.00,0.0048
1518.00,0.0049
1517.00,0.0050
1516.00,0.0051
1515.00,0.0051
1514.00,0.0051
1513.00,0.0052
1512.00,0.0053
1511.00,0.0053
1510.00,0.0053
1509.00,0.0055
1508.00,0.0056
1507.00,0.0057
1506.00,0.0058
1505.00,0.0059
1504.00,0.0061
1503.00,0.0062
1502.00,0.0064
1501.00,0.0066
1500.00,0.0069
1499.00,0.0071
1498.00,0.0073
1497.00,0.0077
1496.00,0.0081
1495.00,0.0084
1494.00,0.0087
1493.00,0.0090
1492.00,0.0094
1491.00,0.0097
1490.00,0.0100
1489.00,0.0105
1488.00,0.0111
1487.00,0.0115
1486.00,0.0120
1485.00,0.0126
1484.00,0.0134
1483.00,0.0141
1482.00,0.0151
1481.00,0.0162
1480.00,0.0174
1479.00,0.0187
1478.00,0.0201
1477.00,0.0221
1476.00,0.0246
1475.00,0.0274
1474.00,0.0314
1473.00,0.0370
1472.00,0.0438
1471.00,0.0502
1470.00,0.0564
1469.00,0.0628
1468.00,0.0696
1467.00,0.0770
1466.00,0.0853
1465.00,0.0943
1464.00,0.1021
1463.00,0.1076
1462.00,0.1111
1461.00,0.1136
1460.00,0.1154
1459.00,0.1166
1458.00,0.1177
1457.00,0.1188
1456.00,0.1192
1455.00,0.1189
1454.00,0.1181
1453.00,0.1167
1452.00,0.1144
1451.00,0.1110
1450.00,0.1061
1449.00,0.0992
1448.00,0.0903
1447.00,0.0808
1446.00,0.0721
1445.00,0.0646
1444.00,0.0581
1443.00,0.0528
1442.00,0.0486
1441.00,0.0457
1440.00,0.0438
1439.00,0.0428
1438.00,0.0424
1437.00,0.0420
1436.00,0.0407
1435.00,0.0382
1434.00,0.0348
1433.00,0.0309
1432.00,0.0267
1431.00,0.0230
1430.00,0.0201
1429.00,0.0179
1428.00,0.0164
1427.00,0.0154
1426.00,0.0148
1425.00,0.0142
1424.00,0.0137
1423.00,0.0134
1422.00,0.0132
1421.00,0.0129
1420.00,0.0125
1419.00,0.0122
1418.00,0.0120
1417.00,0.0118
1416.00,0.0115
1415.00,0.0114
1414.00,0.0112
1413.00,0.0110
1412.00,0.0108
1411.00,0.0107
1410.00,0.0106
1409.00,0.0105
1408.00,0.0104
1407.00,0.0104
1406.00,0.0104
1405.00,0.0104
1404.00,0.0103
1403.00,0.0104
1402.00,0.0106
1401.00,0.0107
1400.00,0.0107
1399.00,0.0108
1398.00,0.0110
1397.00,0.0112
1396.00,0.0114
1395.00,0.0118
1394.00,0.0123
1393.00,0.0128
1392.00,0.0133
1391.00,0.0141
1390.00,0.0152
1389.00,0.0166
1388.00,0.0187
1387.00,0.0219
1386.00,0.0262
1385.00,0.0319
1384.00,0.0397
1383.00,0.0506
1382.00,0.0650
1381.00,0.0833
1380.00,0.1052
1379.00,0.1292
1378.00,0.1513
1377.00,0.1664
1376.00,0.1700
1375.00,0.1599
1374.00,0.1390
1373.00,0.1149
1372.00,0.0932
1371.00,0.0754
1370.00,0.0612
1369.00,0.0504
1368.00,0.0429
1367.00,0.0382
1366.00,0.0356
1365.00,0.0345
1364.00,0.0345
1363.00,0.0356
1362.00,0.0373
1361.00,0.0391
1360.00,0.0405
1359.00,0.0409
1358.00,0.0400
1357.00,0.0377
1356.00,0.0345
1355.00,0.0310
1354.00,0.0276
1353.00,0.0247
1352.00,0.0223
1351.00,0.0203
1350.00,0.0187
1349.00,0.0174
1348.00,0.0163
1347.00,0.0153
1346.00,0.0144
1345.00,0.0137
1344.00,0.0132
1343.00,0.0128
1342.00,0.0124
1341.00,0.0121
1340.00,0.0117
1339.00,0.0115
1338.00,0.0114
1337.00,0.0113
1336.00,0.0114
1335.00,0.0116
1334.00,0.0119
1333.00,0.0122
1332.00,0.0126
1331.00,0.0129
1330.00,0.0130
1329.00,0.0128
1328.00,0.0126
1327.00,0.0121
1326.00,0.0116
1325.00,0.0111
1324.00,0.0106
1323.00,0.0102
1322.00,0.0098
1321.00,0.0095
1320.00,0.0093
1319.00,0.0091
1318.00,0.0089
1317.00,0.0087
1316.00,0.0086
1315.00,0.0085
1314.00,0.0085
1313.00,0.0086
1312.00,0.0088
1311.00,0.0091
1310.00,0.0096
1309.00,0.0104
1308.00,0.0115
1307.00,0.0129
1306.00,0.0142
1305.00,0.0152
1304.00,0.0155
1303.00,0.0151
1302.00,0.0144
1301.00,0.0136
1300.00,0.0130
1299.00,0.0127
1298.00,0.0126
1297.00,0.0126
1296.00,0.0124
1295.00,0.0122
1294.00,0.0117
1293.00,0.0113
1292.00,0.0108
1291.00,0.0103
1290.00,0.0099
1289.00,0.0095
1288.00,0.0092
1287.00,0.0089
1286.00,0.0087
1285.00,0.0085
1284.00,0.0084
1283.00,0.0082
1282.00,0.0081
1281.00,0.0080
1280.00,0.0079
1279.00,0.0078
1278.00,0.0078
1277.00,0.0078
1276.00,0.0078
1275.00,0.0078
1274.00,0.0078
1273.00,0.0078
1272.00,0.0079
1271.00,0.0080
1270.00,0.0082
1269.00,0.0084
1268.00,0.0086
1267.00,0.0089
1266.00,0.0092
1265.00,0.0095
1264.00,0.0098
1263.00,0.0102
1262.00,0.0106
1261.00,0.0111
1260.00,0.0117
1259.00,0.0125
1258.00,0.0134
1257.00,0.0140
1256.00,0.0143
1255.00,0.0140
1254.00,0.0133
1253.00,0.0123
1252.00,0.0113
1251.00,0.0104
1250.00,0.0097
1249.00,0.0091
1248.00,0.0087
1247.00,0.0084
1246.00,0.0082
1245.00,0.0080
1244.00,0.0078
1243.00,0.0077
1242.00,0.0075
1241.00,0.0074
1240.00,0.0073
1239.00,0.0073
1238.00,0.0073
1237.00,0.0073
1236.00,0.0073
1235.00,0.0074
1234.00,0.0074
1233.00,0.0074
1232.00,0.0074
1231.00,0.0075
1230.00,0.0076
1229.00,0.0077
1228.00,0.0078
1227.00,0.0080
1226.00,0.0082
1225.00,0.0084
1224.00,0.0087
1223.00,0.0090
1222.00,0.0092
1221.00,0.0094
1220.00,0.0095
1219.00,0.0096
1218.00,0.0096
1217.00,0.0094
1216.00,0.0092
1215.00,0.0089
1214.00,0.0087
1213.00,0.0085
1212.00,0.0083
1211.00,0.0082
1210.00,0.0081
1209.00,0.0080
1208.00,0.0079
1207.00,0.0078
1206.00,0.0077
1205.00,0.0076
1204.00,0.0075
1203.00,0.0075
1202.00,0.0076
1201.00,0.0076
1200.00,0.0076
1199.00,0.0076
1198.00,0.0076
1197.00,0.0075
1196.00,0.0075
1195.00,0.0076
1194.00,0.0076
1193.00,0.0077
1192.00,0.0077
1191.00,0.0077
1190.00,0.0078
1189.00,0.0078
1188.00,0.0078
1187.00,0.0078
1186.00,0.0079
1185.00,0.0080
1184.00,0.0082
1183.00,0.0084
1182.00,0.0086
1181.00,0.0089
1180.00,0.0093
1179.00,0.0098
1178.00,0.0106
1177.00,0.0116
1176.00,0.0130
1175.00,0.0148
1174.00,0.0171
1173.00,0.0201
1172.00,0.0236
1171.00,0.0275
1170.00,0.0312
1169.00,0.0342
1168.00,0.0361
1167.00,0.0364
1166.00,0.0354
1165.00,0.0334
1164.00,0.0311
1163.00,0.0288
1162.00,0.0268
1161.00,0.0252
1160.00,0.0238
1159.00,0.0228
1158.00,0.0220
1157.00,0.0213
1156.00,0.0208
1155.00,0.0204
1154.00,0.0201
1153.00,0.0198
1152.00,0.0193
1151.00,0.0186
1150.00,0.0177
1149.00,0.0167
1148.00,0.0157
1147.00,0.0147
1146.00,0.0138
1145.00,0.0130
1144.00,0.0122
1143.00,0.0115
1142.00,0.0108
1141.00,0.0103
1140.00,0.0097
1139.00,0.0093
1138.00,0.0089
1137.00,0.0085
1136.00,0.0082
1135.00,0.0080
1134.00,0.0078
1133.00,0.0078
1132.00,0.0077
1131.00,0.0078
1130.00,0.0078
1129.00,0.0078
1128.00,0.0078
1127.00,0.0078
1126.00,0.0078
1125.00,0.0078
1124.00,0.0077
1123.00,0.0077
1122.00,0.0078
1121.00,0.0079
1120.00,0.0080
1119.00,0.0081
1118.00,0.0083
1117.00,0.0084
1116.00,0.0085
1115.00,0.0086
1114.00,0.0088
1113.00,0.0089
1112.00,0.0092
1111.00,0.0094
1110.00,0.0097
1109.00,0.0101
1108.00,0.0105
1107.00,0.0110
1106.00,0.0116
1105.00,0.0122
1104.00,0.0126
1103.00,0.0128
1102.00,0.0128
1101.00,0.0125
1100.00,0.0120
1099.00,0.0114
1098.00,0.0109
1097.00,0.0105
1096.00,0.0101
1095.00,0.0098
1094.00,0.0095
1093.00,0.0092
1092.00,0.0090
1091.00,0.0087
1090.00,0.0086
1089.00,0.0085
1088.00,0.0085
1087.00,0.0086
1086.00,0.0086
1085.00,0.0086
1084.00,0.0086
1083.00,0.0085
1082.00,0.0085
1081.00,0.0084
1080.00,0.0083
1079.00,0.0082
1078.00,0.0080
1077.00,0.0079
1076.00,0.0079
1075.00,0.0078
1074.00,0.0079
1073.00,0.0079
1072.00,0.0080
1071.00,0.0080
1070.00,0.0080
1069.00,0.0079
1068.00,0.0079
1067.00,0.0079
1066.00,0.0081
1065.00,0.0082
1064.00,0.0083
1063.00,0.0083
1062.00,0.0083
1061.00,0.0084
1060.00,0.0085
1059.00,0.0087
1058.00,0.0089
1057.00,0.0091
1056.00,0.0093
1055.00,0.0095
1054.00,0.0097
1053.00,0.0100
1052.00,0.0102
1051.00,0.0106
1050.00,0.0111
1049.00,0.0117
1048.00,0.0123
1047.00,0.0129
1046.00,0.0133
1045.00,0.0136
1044.00,0.0136
1043.00,0.0135
1042.00,0.0133
1041.00,0.0130
1040.00,0.0127
1039.00,0.0125
1038.00,0.0124
1037.00,0.0123
1036.00,0.0122
1035.00,0.0121
1034.00,0.0120
1033.00,0.0118
1032.00,0.0117
1031.00,0.0117
1030.00,0.0117
1029.00,0.0118
1028.00,0.0120
1027.00,0.0121
1026.00,0.0123
1025.00,0.0124
1024.00,0.0126
1023.00,0.0128
1022.00,0.0131
1021.00,0.0134
1020.00,0.0136
1019.00,0.0137
1018.00,0.0139
1017.00,0.0141
1016.00,0.0143
1015.00,0.0143
1014.00,0.0144
1013.00,0.0143
1012.00,0.0143
1011.00,0.0143
1010.00,0.0143
1009.00,0.0144
1008.00,0.0148
1007.00,0.0154
1006.00,0.0163
1005.00,0.0176
1004.00,0.0194
1003.00,0.0220
1002.00,0.0256
1001.00,0.0303
1000.00,0.0353
999.00,0.0396
998.00,0.0419
997.00,0.0415
996.00,0.0383
995.00,0.0336
994.00,0.0284
993.00,0.0239
992.00,0.0203
991.00,0.0178
990.00,0.0160
989.00,0.0148
988.00,0.0139
987.00,0.0133
986.00,0.0131
985.00,0.0131
984.00,0.0136
983.00,0.0144
982.00,0.0156
981.00,0.0174
980.00,0.0198
979.00,0.0230
978.00,0.0271
977.00,0.0320
976.00,0.0375
975.00,0.0428
974.00,0.0469
973.00,0.0487
972.00,0.0472
971.00,0.0428
970.00,0.0365
969.00,0.0300
968.00,0.0244
967.00,0.0201
966.00,0.0172
965.00,0.0151
964.00,0.0137
963.00,0.0126
962.00,0.0118
961.00,0.0110
960.00,0.0104
959.00,0.0099
958.00,0.0095
957.00,0.0093
956.00,0.0091
955.00,0.0089
954.00,0.0087
953.00,0.0085
952.00,0.0083
951.00,0.0081
950.00,0.0080
949.00,0.0079
948.00,0.0078
947.00,0.0079
946.00,0.0079
945.00,0.0081
944.00,0.0083
943.00,0.0086
942.00,0.0089
941.00,0.0092
940.00,0.0093
939.00,0.0092
938.00,0.0088
937.00,0.0084
936.00,0.0079
935.00,0.0075
934.00,0.0071
933.00,0.0069
932.00,0.0067
931.00,0.0066
930.00,0.0065
929.00,0.0064
928.00,0.0063
927.00,0.0062
926.00,0.0061
925.00,0.0060
924.00,0.0059
923.00,0.0059
922.00,0.0060
921.00,0.0060
920.00,0.0061
919.00,0.0061
918.00,0.0061
917.00,0.0061
916.00,0.0061
915.00,0.0062
914.00,0.0064
913.00,0.0065
912.00,0.0067
911.00,0.0069
910.00,0.0070
909.00,0.0072
908.00,0.0076
907.00,0.0082
906.00,0.0089
905.00,0.0098
904.00,0.0110
903.00,0.0124
902.00,0.0140
901.00,0.0154
900.00,0.0163
899.00,0.0164
898.00,0.0158
897.00,0.0146
896.00,0.0131
895.00,0.0115
894.00,0.0102
893.00,0.0092
892.00,0.0085
891.00,0.0081
890.00,0.0079
889.00,0.0078
888.00,0.0077
887.00,0.0076
886.00,0.0074
885.00,0.0073
884.00,0.0071
883.00,0.0070
882.00,0.0070
881.00,0.0070
880.00,0.0071
879.00,0.0073
878.00,0.0075
877.00,0.0077
876.00,0.0078
875.00,0.0079
874.00,0.0079
873.00,0.0078
872.00,0.0078
871.00,0.0078
870.00,0.0078
869.00,0.0078
868.00,0.0078
867.00,0.0078
866.00,0.0078
865.00,0.0079
864.00,0.0080
863.00,0.0082
862.00,0.0083
861.00,0.0085
860.00,0.0086
859.00,0.0089
858.00,0.0090
857.00,0.0091
856.00,0.0091
855.00,0.0091
854.00,0.0092
853.00,0.0094
852.00,0.0098
851.00,0.0103
850.00,0.0109
849.00,0.0117
848.00,0.0129
847.00,0.0146
846.00,0.0173
845.00,0.0213
844.00,0.0270
843.00,0.0337
842.00,0.0395
841.00,0.0416
840.00,0.0391
839.00,0.0331
838.00,0.0264
837.00,0.0210
836.00,0.0175
835.00,0.0153
834.00,0.0139
833.00,0.0129
832.00,0.0122
831.00,0.0117
830.00,0.0114
829.00,0.0111
828.00,0.0109
827.00,0.0107
826.00,0.0106
825.00,0.0106
824.00,0.0105
823.00,0.0104
822.00,0.0103
821.00,0.0103
820.00,0.0105
819.00,0.0108
818.00,0.0113
817.00,0.0119
816.00,0.0126
815.00,0.0136
814.00,0.0149
813.00,0.0164
812.00,0.0181
811.00,0.0196
810.00,0.0207
809.00,0.0212
808.00,0.0209
807.00,0.0199
806.00,0.0184
805.00,0.0168
804.00,0.0154
803.00,0.0141
802.00,0.0132
801.00,0.0125
800.00,0.0120
799.00,0.0116
798.00,0.0113
797.00,0.0110
796.00,0.0107
795.00,0.0104
794.00,0.0101
793.00,0.0098
792.00,0.0094
791.00,0.0091
790.00,0.0087
789.00,0.0084
788.00,0.0080
787.00,0.0076
786.00,0.0073
785.00,0.0070
784.00,0.0068
783.00,0.0067
782.00,0.0065
781.00,0.0064
780.00,0.0062
779.00,0.0062
778.00,0.0062
777.00,0.0063
776.00,0.0064
775.00,0.0064
774.00,0.0064
773.00,0.0064
772.00,0.0066
771.00,0.0067
770.00,0.0068
769.00,0.0069
768.00,0.0069
767.00,0.0068
766.00,0.0066
765.00,0.0064
764.00,0.0063
763.00,0.0063
762.00,0.0063
761.00,0.0064
760.00,0.0065
759.00,0.0067
758.00,0.0068
757.00,0.0069
756.00,0.0069
755.00,0.0069
754.00,0.0069
753.00,0.0069
752.00,0.0070
751.00,0.0072
750.00,0.0074
749.00,0.0076
748.00,0.0079
747.00,0.0082
746.00,0.0085
745.00,0.0087
744.00,0.0088
743.00,0.0089
742.00,0.0091
741.00,0.0093
740.00,0.0095
739.00,0.0097
738.00,0.0101
737.00,0.0105
736.00,0.0110
735.00,0.0115
734.00,0.0121
733.00,0.0128
732.00,0.0135
731.00,0.0142
730.00,0.0148
729.00,0.0152
728.00,0.0154
727.00,0.0154
726.00,0.0154
725.00,0.0156
724.00,0.0160
723.00,0.0165
722.00,0.0171
721.00,0.0174
720.00,0.0173
719.00,0.0167
718.00,0.0156
717.00,0.0144
716.00,0.0133
715.00,0.0125
714.00,0.0119
713.00,0.0113
712.00,0.0110
711.00,0.0107
710.00,0.0106
709.00,0.0104
708.00,0.0103
707.00,0.0102
706.00,0.0101
705.00,0.0100
704.00,0.0099
703.00,0.0099
702.00,0.0100
701.00,0.0100
700.00,0.0099
699.00,0.0096
698.00,0.0094
697.00,0.0092
696.00,0.0092
695.00,0.0093
694.00,0.0094
693.00,0.0095
692.00,0.0094
691.00,0.0092
690.00,0.0090
689.00,0.0088
688.00,0.0088
687.00,0.0088
686.00,0.0089
685.00,0.0090
684.00,0.0090
683.00,0.0089
682.00,0.0089
681.00,0.0090
680.00,0.0091
679.00,0.0093
678.00,0.0096
677.00,0.0097
676.00,0.0098
675.00,0.0098
674.00,0.0097
673.00,0.0096
672.00,0.0096
671.00,0.0097
670.00,0.0100
669.00,0.0103
668.00,0.0105
667.00,0.0104
666.00,0.0101
665.00,0.0096
664.00,0.0093
663.00,0.0091
662.00,0.0089
661.00,0.0085
660.00,0.0082
659.00,0.0080
658.00,0.0080
657.00,0.0081
656.00,0.0081
655.00,0.0082
654.00,0.0082
653.00,0.0082
652.00,0.0084
651.00,0.0086
650.00,0.0086
649.00,0.0086
648.00,0.0085
647.00,0.0083
646.00,0.0082
645.00,0.0080
644.00,0.0079
643.00,0.0078
642.00,0.0078
641.00,0.0078
640.00,0.0079
639.00,0.0079
638.00,0.0080
637.00,0.0081
636.00,0.0081
635.00,0.0081
634.00,0.0080
633.00,0.0080
632.00,0.0080
631.00,0.0080
630.00,0.0078
629.00,0.0077
628.00,0.0077
627.00,0.0078
626.00,0.0080
625.00,0.0082
624.00,0.0082
623.00,0.0082
622.00,0.0081
621.00,0.0081
620.00,0.0081
619.00,0.0081
618.00,0.0081
617.00,0.0082
616.00,0.0084
615.00,0.0086
614.00,0.0086
613.00,0.0085
612.00,0.0083
611.00,0.0082
610.00,0.0083
609.00,0.0084
608.00,0.0084
607.00,0.0083
606.00,0.0082
605.00,0.0082
604.00,0.0082
603.00,0.0082
602.00,0.0083
601.00,0.0085
600.00,0.0088
599.00,0.0090
598.00,0.0090
597.00,0.0089
596.00,0.0086
595.00,0.0084
594.00,0.0083
593.00,0.0084
592.00,0.0085
591.00,0.0085
590.00,0.0083
589.00,0.0081
588.00,0.0080
587.00,0.0079
586.00,0.0079
585.00,0.0080
584.00,0.0081
583.00,0.0083
582.00,0.0084
581.00,0.0085
580.00,0.0084
579.00,0.0082
578.00,0.0080
577.00,0.0078
576.00,0.0078
575.00,0.0080
574.00,0.0081
573.00,0.0080
572.00,0.0080
571.00,0.0081
570.00,0.0084
569.00,0.0087
568.00,0.0089
567.00,0.0089
566.00,0.0088
565.00,0.0085
564.00,0.0085
563.00,0.0087
562.00,0.0090
561.00,0.0093
560.00,0.0094
559.00,0.0096
558.00,0.0098
557.00,0.0097
556.00,0.0095
555.00,0.0091
554.00,0.0087
553.00,0.0085
552.00,0.0084
551.00,0.0086
550.00,0.0088
549.00,0.0090
548.00,0.0091
547.00,0.0092
546.00,0.0094
545.00,0.0097
544.00,0.0100
543.00,0.0102
542.00,0.0103
541.00,0.0105
540.00,0.0107
539.00,0.0109
538.00,0.0109
537.00,0.0109
536.00,0.0107
535.00,0.0107
534.00,0.0109
533.00,0.0112
532.00,0.0115
531.00,0.0114
530.00,0.0110
529.00,0.0104
528.00,0.0101
527.00,0.0100
526.00,0.0100
525.00,0.0099
524.00,0.0099
523.00,0.0100
522.00,0.0100
521.00,0.0100
520.00,0.0096
519.00,0.0089
518.00,0.0082
517.00,0.0077
516.00,0.0079
515.00,0.0086
514.00,0.0096
513.00,0.0103
512.00,0.0104
511.00,0.0099
510.00,0.0091
509.00,0.0085
508.00,0.0084
507.00,0.0086
506.00,0.0090
505.00,0.0092
504.00,0.0091
503.00,0.0089
502.00,0.0086
501.00,0.0086
500.00,0.0088
499.00,0.0093
498.00,0.0095
497.00,0.0094
496.00,0.0092
495.00,0.0089
494.00,0.0087
493.00,0.0085
492.00,0.0084
491.00,0.0085
490.00,0.0087
489.00,0.0089
488.00,0.0093
487.00,0.0099
486.00,0.0104
485.00,0.0105
484.00,0.0102
483.00,0.0100
482.00,0.0102
481.00,0.0108
480.00,0.0116
479.00,0.0125
478.00,0.0132
477.00,0.0136
476.00,0.0137
475.00,0.0138
474.00,0.0137
473.00,0.0134
472.00,0.0132
471.00,0.0135
470.00,0.0141
469.00,0.0150
468.00,0.0159
467.00,0.0169
466.00,0.0177
465.00,0.0180
464.00,0.0182
463.00,0.0185
462.00,0.0193
461.00,0.0206
460.00,0.0219
459.00,0.0227
458.00,0.0222
457.00,0.0204
456.00,0.0184
455.00,0.0173
454.00,0.0173
453.00,0.0177
452.00,0.0177
451.00,0.0171
450.00,0.0164
