Created as New Dataset,Sample 043 By Administrator Date Thursday, September 04 2025
cm-1,A
4000.00,0.0008
3999.00,0.0009
3998.00,0.0009
3997.00,0.0009
3996.00,0.0009
3995.00,0.0008
3994.00,0.0008
3993.00,0.0008
3992.00,0.0008
3991.00,0.0008
3990.00,0.0008
3989.00,0.0008
3988.00,0.0008
3987.00,0.0008
3986.00,0.0007
3985.00,0.0007
3984.00,0.0007
3983.00,0.0007
3982.00,0.0008
3981.00,0.0007
3980.00,0.0007
3979.00,0.0007
3978.00,0.0007
3977.00,0.0007
3976.00,0.0007
3975.00,0.0007
3974.00,0.0007
3973.00,0.0007
3972.00,0.0007
3971.00,0.0007
3970.00,0.0007
3969.00,0.0007
3968.00,0.0007
3967.00,0.0007
3966.00,0.0007
3965.00,0.0007
3964.00,0.0006
3963.00,0.0006
3962.00,0.0006
3961.00,0.0006
3960.00,0.0006
3959.00,0.0006
3958.00,0.0007
3957.00,0.0006
3956.00,0.0006
3955.00,0.0006
3954.00,0.0006
3953.00,0.0006
3952.00,0.0006
3951.00,0.0006
3950.00,0.0006
3949.00,0.0006
3948.00,0.0006
3947.00,0.0006
3946.00,0.0006
3945.00,0.0006
3944.00,0.0006
3943.00,0.0006
3942.00,0.0006
3941.00,0.0006
3940.00,0.0006
3939.00,0.0006
3938.00,0.0006
3937.00,0.0006
3936.00,0.0007
3935.00,0.0007
3934.00,0.0007
3933.00,0.0007
3932.00,0.0007
3931.00,0.0007
3930.00,0.0007
3929.00,0.0007
3928.00,0.0007
3927.00,0.0007
3926.00,0.0007
3925.00,0.0007
3924.00,0.0007
3923.00,0.0007
3922.00,0.0007
3921.00,0.0007
3920.00,0.0007
3919.00,0.0007
3918.00,0.0007
3917.00,0.0007
3916.00,0.0007
3915.00,0.0007
3914.00,0.0007
3913.00,0.0007
3912.00,0.0007
3911.00,0.0006
3910.00,0.0006
3909.00,0.0006
3908.00,0.0006
3907.00,0.0006
3906.00,0.0006
3905.00,0.0005
3904.00,0.0005
3903.00,0.0005
3902.00,0.0005
3901.00,0.0005
3900.00,0.0005
3899.00,0.0005
3898.00,0.0005
3897.00,0.0006
3896.00,0.0006
3895.00,0.0006
3894.00,0.0006
3893.00,0.0006
3892.00,0.0006
3891.00,0.0006
3890.00,0.0006
3889.00,0.0006
3888.00,0.0006
3887.00,0.0006
3886.00,0.0006
3885.00,0.0006
3884.00,0.0006
3883.00,0.0006
3882.00,0.0006
3881.00,0.0006
3880.00,0.0005
3879.00,0.0005
3878.00,0.0005
3877.00,0.0005
3876.00,0.0005
3875.00,0.0005
3874.00,0.0005
3873.00,0.0005
3872.00,0.0005
3871.00,0.0005
3870.00,0.0005
3869.00,0.0005
3868.00,0.0005
3867.00,0.0005
3866.00,0.0004
3865.00,0.0005
3864.00,0.0005
3863.00,0.0005
3862.00,0.0005
3861.00,0.0005
3860.00,0.0005
3859.00,0.0005
3858.00,0.0004
3857.00,0.0004
3856.00,0.0004
3855.00,0.0004
3854.00,0.0003
3853.00,0.0004
3852.00,0.0004
3851.00,0.0004
3850.00,0.0005
3849.00,0.0005
3848.00,0.0005
3847.00,0.0005
3846.00,0.0006
3845.00,0.0006
3844.00,0.0005
3843.00,0.0005
3842.00,0.0004
3841.00,0.0004
3840.00,0.0004
3839.00,0.0004
3838.00,0.0004
3837.00,0.0005
3836.00,0.0006
3835.00,0.0006
3834.00,0.0006
3833.00,0.0006
3832.00,0.0006
3831.00,0.0005
3830.00,0.0005
3829.00,0.0005
3828.00,0.0005
3827.00,0.0005
3826.00,0.0005
3825.00,0.0005
3824.00,0.0005
3823.00,0.0005
3822.00,0.0005
3821.00,0.0005
3820.00,0.0005
3819.00,0.0005
3818.00,0.0006
3817.00,0.0006
3816.00,0.0006
3815.00,0.0006
3814.00,0.0006
3813.00,0.0006
3812.00,0.0005
3811.00,0.0005
3810.00,0.0006
3809.00,0.0006
3808.00,0.0005
3807.00,0.0005
3806.00,0.0005
3805.00,0.0005
3804.00,0.0005
3803.00,0.0005
3802.00,0.0004
3801.00,0.0004
3800.00,0.0005
3799.00,0.0005
3798.00,0.0005
3797.00,0.0005
3796.00,0.0005
3795.00,0.0005
3794.00,0.0005
3793.00,0.0006
3792.00,0.0006
3791.00,0.0006
3790.00,0.0006
3789.00,0.0006
3788.00,0.0006
3787.00,0.0006
3786.00,0.0006
3785.00,0.0006
3784.00,0.0005
3783.00,0.0005
3782.00,0.0005
3781.00,0.0005
3780.00,0.0005
3779.00,0.0006
3778.00,0.0006
3777.00,0.0006
3776.00,0.0006
3775.00,0.0006
3774.00,0.0006
3773.00,0.0006
3772.00,0.0006
3771.00,0.0005
3770.00,0.0005
3769.00,0.0005
3768.00,0.0005
3767.00,0.0006
3766.00,0.0006
3765.00,0.0006
3764.00,0.0007
3763.00,0.0007
3762.00,0.0007
3761.00,0.0007
3760.00,0.0006
3759.00,0.0006
3758.00,0.0006
3757.00,0.0005
3756.00,0.0005
3755.00,0.0004
3754.00,0.0004
3753.00,0.0004
3752.00,0.0004
3751.00,0.0004
3750.00,0.0004
3749.00,0.0003
3748.00,0.0004
3747.00,0.0004
3746.00,0.0003
3745.00,0.0003
3744.00,0.0003
3743.00,0.0003
3742.00,0.0003
3741.00,0.0003
3740.00,0.0003
3739.00,0.0003
3738.00,0.0003
3737.00,0.0003
3736.00,0.0004
3735.00,0.0004
3734.00,0.0004
3733.00,0.0004
3732.00,0.0004
3731.00,0.0003
3730.00,0.0003
3729.00,0.0003
3728.00,0.0003
3727.00,0.0003
3726.00,0.0004
3725.00,0.0004
3724.00,0.0005
3723.00,0.0005
3722.00,0.0004
3721.00,0.0004
3720.00,0.0004
3719.00,0.0004
3718.00,0.0004
3717.00,0.0004
3716.00,0.0003
3715.00,0.0003
3714.00,0.0003
3713.00,0.0003
3712.00,0.0004
3711.00,0.0004
3710.00,0.0005
3709.00,0.0005
3708.00,0.0005
3707.00,0.0005
3706.00,0.0004
3705.00,0.0005
3704.00,0.0005
3703.00,0.0005
3702.00,0.0005
3701.00,0.0005
3700.00,0.0004
3699.00,0.0004
3698.00,0.0004
3697.00,0.0004
3696.00,0.0004
3695.00,0.0004
3694.00,0.0004
3693.00,0.0004
3692.00,0.0005
3691.00,0.0005
3690.00,0.0006
3689.00,0.0006
3688.00,0.0006
3687.00,0.0006
3686.00,0.0006
3685.00,0.0005
3684.00,0.0005
3683.00,0.0004
3682.00,0.0004
3681.00,0.0004
3680.00,0.0003
3679.00,0.0003
3678.00,0.0002
3677.00,0.0002
3676.00,0.0001
3675.00,0.0002
3674.00,0.0002
3673.00,0.0002
3672.00,0.0002
3671.00,0.0002
3670.00,0.0002
3669.00,0.0002
3668.00,0.0003
3667.00,0.0003
3666.00,0.0004
3665.00,0.0004
3664.00,0.0004
3663.00,0.0004
3662.00,0.0004
3661.00,0.0004
3660.00,0.0004
3659.00,0.0004
3658.00,0.0004
3657.00,0.0004
3656.00,0.0004
3655.00,0.0004
3654.00,0.0003
3653.00,0.0003
3652.00,0.0002
3651.00,0.0001
3650.00,0.0001
3649.00,0.0001
3648.00,0.0002
3647.00,0.0003
3646.00,0.0004
3645.00,0.0004
3644.00,0.0005
3643.00,0.0005
3642.00,0.0006
3641.00,0.0006
3640.00,0.0006
3639.00,0.0005
3638.00,0.0005
3637.00,0.0005
3636.00,0.0005
3635.00,0.0005
3634.00,0.0005
3633.00,0.0005
3632.00,0.0005
3631.00,0.0005
3630.00,0.0005
3629.00,0.0006
3628.00,0.0006
3627.00,0.0006
3626.00,0.0007
3625.00,0.0007
3624.00,0.0007
3623.00,0.0007
3622.00,0.0006
3621.00,0.0006
3620.00,0.0007
3619.00,0.0007
3618.00,0.0007
3617.00,0.0008
3616.00,0.0008
3615.00,0.0008
3614.00,0.0009
3613.00,0.0009
3612.00,0.0009
3611.00,0.0009
3610.00,0.0009
3609.00,0.0009
3608.00,0.0009
3607.00,0.0010
3606.00,0.0010
3605.00,0.0010
3604.00,0.0010
3603.00,0.0010
3602.00,0.0010
3601.00,0.0010
3600.00,0.0011
3599.00,0.0011
3598.00,0.0011
3597.00,0.0011
3596.00,0.0011
3595.00,0.0010
3594.00,0.0010
3593.00,0.0011
3592.00,0.0012
3591.00,0.0012
3590.00,0.0012
3589.00,0.0012
3588.00,0.0012
3587.00,0.0012
3586.00,0.0012
3585.00,0.0012
3584.00,0.0012
3583.00,0.0013
3582.00,0.0013
3581.00,0.0014
3580.00,0.0014
3579.00,0.0014
3578.00,0.0015
3577.00,0.0015
3576.00,0.0015
3575.00,0.0015
3574.00,0.0015
3573.00,0.0016
3572.00,0.0016
3571.00,0.0016
3570.00,0.0016
3569.00,0.0016
3568.00,0.0016
3567.00,0.0016
3566.00,0.0016
3565.00,0.0016
3564.00,0.0016
3563.00,0.0016
3562.00,0.0017
3561.00,0.0017
3560.00,0.0018
3559.00,0.0019
3558.00,0.0019
3557.00,0.0019
3556.00,0.0020
3555.00,0.0021
3554.00,0.0021
3553.00,0.0021
3552.00,0.0021
3551.00,0.0021
3550.00,0.0021
3549.00,0.0020
3548.00,0.0021
3547.00,0.0021
3546.00,0.0021
3545.00,0.0021
3544.00,0.0022
3543.00,0.0022
3542.00,0.0023
3541.00,0.0023
3540.00,0.0024
3539.00,0.0024
3538.00,0.0024
3537.00,0.0025
3536.00,0.0025
3535.00,0.0025
3534.00,0.0026
3533.00,0.0026
3532.00,0.0026
3531.00,0.0026
3530.00,0.0026
3529.00,0.0026
3528.00,0.0027
3527.00,0.0027
3526.00,0.0028
3525.00,0.0029
3524.00,0.0029
3523.00,0.0029
3522.00,0.0029
3521.00,0.0029
3520.00,0.0029
3519.00,0.0029
3518.00,0.0030
3517.00,0.0030
3516.00,0.0030
3515.00,0.0030
3514.00,0.0030
3513.00,0.0031
3512.00,0.0031
3511.00,0.0031
3510.00,0.0032
3509.00,0.0032
3508.00,0.0032
3507.00,0.0031
3506.00,0.0031
3505.00,0.0032
3504.00,0.0032
3503.00,0.0033
3502.00,0.0033
3501.00,0.0034
3500.00,0.0034
3499.00,0.0034
3498.00,0.0034
3497.00,0.0034
3496.00,0.0035
3495.00,0.0035
3494.00,0.0035
3493.00,0.0036
3492.00,0.0036
3491.00,0.0035
3490.00,0.0035
3489.00,0.0036
3488.00,0.0036
3487.00,0.0037
3486.00,0.0037
3485.00,0.0038
3484.00,0.0038
3483.00,0.0038
3482.00,0.0038
3481.00,0.0039
3480.00,0.0039
3479.00,0.0039
3478.00,0.0040
3477.00,0.0040
3476.00,0.0041
3475.00,0.0041
3474.00,0.0041
3473.00,0.0041
3472.00,0.0041
3471.00,0.0042
3470.00,0.0042
3469.00,0.0042
3468.00,0.0042
3467.00,0.0042
3466.00,0.0042
3465.00,0.0042
3464.00,0.0043
3463.00,0.0043
3462.00,0.0044
3461.00,0.0044
3460.00,0.0044
3459.00,0.0045
3458.00,0.0045
3457.00,0.0045
3456.00,0.0044
3455.00,0.0045
3454.00,0.0045
3453.00,0.0046
3452.00,0.0046
3451.00,0.0047
3450.00,0.0047
3449.00,0.0047
3448.00,0.0047
3447.00,0.0047
3446.00,0.0047
3445.00,0.0048
3444.00,0.0048
3443.00,0.0048
3442.00,0.0049
3441.00,0.0049
3440.00,0.0049
3439.00,0.0049
3438.00,0.0050
3437.00,0.0050
3436.00,0.0050
3435.00,0.0050
3434.00,0.0050
3433.00,0.0050
3432.00,0.0051
3431.00,0.0051
3430.00,0.0052
3429.00,0.0052
3428.00,0.0053
3427.00,0.0053
3426.00,0.0053
3425.00,0.0053
3424.00,0.0053
3423.00,0.0053
3422.00,0.0054
3421.00,0.0054
3420.00,0.0055
3419.00,0.0056
3418.00,0.0056
3417.00,0.0057
3416.00,0.0057
3415.00,0.0057
3414.00,0.0057
3413.00,0.0057
3412.00,0.0057
3411.00,0.0057
3410.00,0.0058
3409.00,0.0059
3408.00,0.0059
3407.00,0.0060
3406.00,0.0061
3405.00,0.0062
3404.00,0.0063
3403.00,0.0064
3402.00,0.0065
3401.00,0.0066
3400.00,0.0066
3399.00,0.0067
3398.00,0.0067
3397.00,0.0068
3396.00,0.0068
3395.00,0.0068
3394.00,0.0069
3393.00,0.0068
3392.00,0.0068
3391.00,0.0067
3390.00,0.0066
3389.00,0.0066
3388.00,0.0065
3387.00,0.0065
3386.00,0.0064
3385.00,0.0064
3384.00,0.0064
3383.00,0.0063
3382.00,0.0063
3381.00,0.0063
3380.00,0.0062
3379.00,0.0062
3378.00,0.0062
3377.00,0.0062
3376.00,0.0062
3375.00,0.0062
3374.00,0.0062
3373.00,0.0062
3372.00,0.0062
3371.00,0.0062
3370.00,0.0062
3369.00,0.0062
3368.00,0.0062
3367.00,0.0061
3366.00,0.0061
3365.00,0.0061
3364.00,0.0061
3363.00,0.0061
3362.00,0.0060
3361.00,0.0060
3360.00,0.0060
3359.00,0.0060
3358.00,0.0060
3357.00,0.0060
3356.00,0.0061
3355.00,0.0061
3354.00,0.0061
3353.00,0.0061
3352.00,0.0061
3351.00,0.0061
3350.00,0.0061
3349.00,0.0061
3348.00,0.0061
3347.00,0.0061
3346.00,0.0061
3345.00,0.0061
3344.00,0.0061
3343.00,0.0061
3342.00,0.0061
3341.00,0.0061
3340.00,0.0061
3339.00,0.0061
3338.00,0.0062
3337.00,0.0062
3336.00,0.0062
3335.00,0.0062
3334.00,0.0061
3333.00,0.0061
3332.00,0.0061
3331.00,0.0060
3330.00,0.0060
3329.00,0.0060
3328.00,0.0060
3327.00,0.0060
3326.00,0.0060
3325.00,0.0060
3324.00,0.0060
3323.00,0.0060
3322.00,0.0060
3321.00,0.0060
3320.00,0.0060
3319.00,0.0060
3318.00,0.0059
3317.00,0.0059
3316.00,0.0059
3315.00,0.0059
3314.00,0.0060
3313.00,0.0060
3312.00,0.0061
3311.00,0.0061
3310.00,0.0061
3309.00,0.0061
3308.00,0.0061
3307.00,0.0061
3306.00,0.0061
3305.00,0.0061
3304.00,0.0061
3303.00,0.0061
3302.00,0.0061
3301.00,0.0061
3300.00,0.0061
3299.00,0.0060
3298.00,0.0060
3297.00,0.0060
3296.00,0.0060
3295.00,0.0059
3294.00,0.0059
3293.00,0.0058
3292.00,0.0058
3291.00,0.0058
3290.00,0.0057
3289.00,0.0057
3288.00,0.0057
3287.00,0.0057
3286.00,0.0057
3285.00,0.0056
3284.00,0.0056
3283.00,0.0055
3282.00,0.0055
3281.00,0.0054
3280.00,0.0054
3279.00,0.0054
3278.00,0.0054
3277.00,0.0055
3276.00,0.0055
3275.00,0.0055
3274.00,0.0054
3273.00,0.0054
3272.00,0.0053
3271.00,0.0052
3270.00,0.0052
3269.00,0.0052
3268.00,0.0052
3267.00,0.0052
3266.00,0.0052
3265.00,0.0052
3264.00,0.0051
3263.00,0.0051
3262.00,0.0051
3261.00,0.0051
3260.00,0.0051
3259.00,0.0050
3258.00,0.0050
3257.00,0.0050
3256.00,0.0050
3255.00,0.0050
3254.00,0.0050
3253.00,0.0049
3252.00,0.0049
3251.00,0.0049
3250.00,0.0049
3249.00,0.0049
3248.00,0.0048
3247.00,0.0048
3246.00,0.0048
3245.00,0.0048
3244.00,0.0048
3243.00,0.0048
3242.00,0.0048
3241.00,0.0048
3240.00,0.0048
3239.00,0.0048
3238.00,0.0048
3237.00,0.0048
3236.00,0.0048
3235.00,0.0048
3234.00,0.0047
3233.00,0.0047
3232.00,0.0048
3231.00,0.0048
3230.00,0.0048
3229.00,0.0049
3228.00,0.0050
3227.00,0.0050
3226.00,0.0051
3225.00,0.0051
3224.00,0.0051
3223.00,0.0051
3222.00,0.0051
3221.00,0.0051
3220.00,0.0051
3219.00,0.0052
3218.00,0.0052
3217.00,0.0052
3216.00,0.0052
3215.00,0.0052
3214.00,0.0052
3213.00,0.0053
3212.00,0.0054
3211.00,0.0054
3210.00,0.0055
3209.00,0.0055
3208.00,0.0055
3207.00,0.0055
3206.00,0.0055
3205.00,0.0055
3204.00,0.0055
3203.00,0.0055
3202.00,0.0055
3201.00,0.0056
3200.00,0.0056
3199.00,0.0057
3198.00,0.0057
3197.00,0.0057
3196.00,0.0057
3195.00,0.0057
3194.00,0.0057
3193.00,0.0057
3192.00,0.0057
3191.00,0.0057
3190.00,0.0056
3189.00,0.0056
3188.00,0.0057
3187.00,0.0057
3186.00,0.0057
3185.00,0.0057
3184.00,0.0057
3183.00,0.0056
3182.00,0.0056
3181.00,0.0056
3180.00,0.0056
3179.00,0.0056
3178.00,0.0055
3177.00,0.0054
3176.00,0.0053
3175.00,0.0053
3174.00,0.0052
3173.00,0.0052
3172.00,0.0051
3171.00,0.0051
3170.00,0.0051
3169.00,0.0050
3168.00,0.0050
3167.00,0.0049
3166.00,0.0049
3165.00,0.0049
3164.00,0.0048
3163.00,0.0048
3162.00,0.0048
3161.00,0.0048
3160.00,0.0048
3159.00,0.0048
3158.00,0.0047
3157.00,0.0046
3156.00,0.0046
3155.00,0.0046
3154.00,0.0046
3153.00,0.0047
3152.00,0.0047
3151.00,0.0047
3150.00,0.0047
3149.00,0.0046
3148.00,0.0046
3147.00,0.0046
3146.00,0.0045
3145.00,0.0045
3144.00,0.0045
3143.00,0.0044
3142.00,0.0044
3141.00,0.0044
3140.00,0.0044
3139.00,0.0044
3138.00,0.0044
3137.00,0.0044
3136.00,0.0044
3135.00,0.0044
3134.00,0.0043
3133.00,0.0043
3132.00,0.0042
3131.00,0.0042
3130.00,0.0042
3129.00,0.0042
3128.00,0.0042
3127.00,0.0041
3126.00,0.0041
3125.00,0.0040
3124.00,0.0040
3123.00,0.0040
3122.00,0.0039
3121.00,0.0039
3120.00,0.0039
3119.00,0.0038
3118.00,0.0038
3117.00,0.0038
3116.00,0.0038
3115.00,0.0038
3114.00,0.0037
3113.00,0.0037
3112.00,0.0037
3111.00,0.0037
3110.00,0.0036
3109.00,0.0036
3108.00,0.0036
3107.00,0.0036
3106.00,0.0036
3105.00,0.0036
3104.00,0.0036
3103.00,0.0036
3102.00,0.0036
3101.00,0.0035
3100.00,0.0035
3099.00,0.0035
3098.00,0.0035
3097.00,0.0035
3096.00,0.0035
3095.00,0.0035
3094.00,0.0035
3093.00,0.0034
3092.00,0.0035
3091.00,0.0035
3090.00,0.0035
3089.00,0.0035
3088.00,0.0035
3087.00,0.0035
3086.00,0.0034
3085.00,0.0034
3084.00,0.0033
3083.00,0.0033
3082.00,0.0033
3081.00,0.0034
3080.00,0.0034
3079.00,0.0035
3078.00,0.0035
3077.00,0.0034
3076.00,0.0034
3075.00,0.0034
3074.00,0.0034
3073.00,0.0034
3072.00,0.0035
3071.00,0.0035
3070.00,0.0035
3069.00,0.0035
3068.00,0.0035
3067.00,0.0035
3066.00,0.0035
3065.00,0.0035
3064.00,0.0035
3063.00,0.0035
3062.00,0.0035
3061.00,0.0036
3060.00,0.0036
3059.00,0.0036
3058.00,0.0036
3057.00,0.0036
3056.00,0.0036
3055.00,0.0036
3054.00,0.0037
3053.00,0.0037
3052.00,0.0037
3051.00,0.0037
3050.00,0.0037
3049.00,0.0037
3048.00,0.0037
3047.00,0.0037
3046.00,0.0037
3045.00,0.0037
3044.00,0.0037
3043.00,0.0037
3042.00,0.0038
3041.00,0.0039
3040.00,0.0039
3039.00,0.0039
3038.00,0.0039
3037.00,0.0039
3036.00,0.0039
3035.00,0.0039
3034.00,0.0040
3033.00,0.0041
3032.00,0.0041
3031.00,0.0042
3030.00,0.0042
3029.00,0.0043
3028.00,0.0043
3027.00,0.0044
3026.00,0.0044
3025.00,0.0045
3024.00,0.0045
3023.00,0.0046
3022.00,0.0046
3021.00,0.0047
3020.00,0.0048
3019.00,0.0049
3018.00,0.0050
3017.00,0.0051
3016.00,0.0051
3015.00,0.0052
3014.00,0.0053
3013.00,0.0054
3012.00,0.0056
3011.00,0.0057
3010.00,0.0057
3009.00,0.0058
3008.00,0.0059
3007.00,0.0060
3006.00,0.0062
3005.00,0.0063
3004.00,0.0064
3003.00,0.0065
3002.00,0.0066
3001.00,0.0068
3000.00,0.0070
2999.00,0.0073
2998.00,0.0075
2997.00,0.0078
2996.00,0.0081
2995.00,0.0084
2994.00,0.0088
2993.00,0.0092
2992.00,0.0097
2991.00,0.0103
2990.00,0.0109
2989.00,0.0115
2988.00,0.0123
2987.00,0.0131
2986.00,0.0139
2985.00,0.0148
2984.00,0.0158
2983.00,0.0170
2982.00,0.0184
2981.00,0.0201
2980.00,0.0220
2979.00,0.0243
2978.00,0.0268
2977.00,0.0297
2976.00,0.0330
2975.00,0.0367
2974.00,0.0409
2973.00,0.0457
2972.00,0.0511
2971.00,0.0574
2970.00,0.0644
2969.00,0.0721
2968.00,0.0806
2967.00,0.0896
2966.00,0.0992
2965.00,0.1091
2964.00,0.1189
2963.00,0.1282
2962.00,0.1365
2961.00,0.1434
2960.00,0.1488
2959.00,0.1530
2958.00,0.1564
2957.00,0.1597
2956.00,0.1633
2955.00,0.1678
2954.00,0.1729
2953.00,0.1782
2952.00,0.1828
2951.00,0.1855
2950.00,0.1855
2949.00,0.1820
2948.00,0.1751
2947.00,0.1653
2946.00,0.1537
2945.00,0.1417
2944.00,0.1303
2943.00,0.1206
2942.00,0.1130
2941.00,0.1078
2940.00,0.1049
2939.00,0.1042
2938.00,0.1053
2937.00,0.1082
2936.00,0.1127
2935.00,0.1186
2934.00,0.1258
2933.00,0.1342
2932.00,0.1437
2931.00,0.1539
2930.00,0.1648
2929.00,0.1759
2928.00,0.1871
2927.00,0.1980
2926.00,0.2086
2925.00,0.2188
2924.00,0.2286
2923.00,0.2383
2922.00,0.2476
2921.00,0.2563
2920.00,0.2637
2919.00,0.2690
2918.00,0.2713
2917.00,0.2701
2916.00,0.2652
2915.00,0.2573
2914.00,0.2476
2913.00,0.2372
2912.00,0.2271
2911.00,0.2179
2910.00,0.2097
2909.00,0.2025
2908.00,0.1959
2907.00,0.1896
2906.00,0.1834
2905.00,0.1771
2904.00,0.1706
2903.00,0.1641
2902.00,0.1574
2901.00,0.1509
2900.00,0.1445
2899.00,0.1384
2898.00,0.1326
2897.00,0.1273
2896.00,0.1225
2895.00,0.1183
2894.00,0.1147
2893.00,0.1117
2892.00,0.1094
2891.00,0.1076
2890.00,0.1063
2889.00,0.1054
2888.00,0.1048
2887.00,0.1046
2886.00,0.1047
2885.00,0.1052
2884.00,0.1061
2883.00,0.1075
2882.00,0.1092
2881.00,0.1112
2880.00,0.1132
2879.00,0.1149
2878.00,0.1159
2877.00,0.1162
2876.00,0.1158
2875.00,0.1151
2874.00,0.1146
2873.00,0.1146
2872.00,0.1153
2871.00,0.1166
2870.00,0.1183
2869.00,0.1199
2868.00,0.1208
2867.00,0.1203
2866.00,0.1179
2865.00,0.1134
2864.00,0.1073
2863.00,0.1003
2862.00,0.0935
2861.00,0.0875
2860.00,0.0830
2859.00,0.0799
2858.00,0.0783
2857.00,0.0780
2856.00,0.0786
2855.00,0.0799
2854.00,0.0818
2853.00,0.0840
2852.00,0.0863
2851.00,0.0884
2850.00,0.0899
2849.00,0.0909
2848.00,0.0916
2847.00,0.0926
2846.00,0.0943
2845.00,0.0972
2844.00,0.1011
2843.00,0.1060
2842.00,0.1113
2841.00,0.1163
2840.00,0.1203
2839.00,0.1224
2838.00,0.1220
2837.00,0.1185
2836.00,0.1120
2835.00,0.1032
2834.00,0.0929
2833.00,0.0822
2832.00,0.0720
2831.00,0.0630
2830.00,0.0553
2829.00,0.0490
2828.00,0.0439
2827.00,0.0398
2826.00,0.0364
2825.00,0.0336
2824.00,0.0313
2823.00,0.0293
2822.00,0.0276
2821.00,0.0261
2820.00,0.0249
2819.00,0.0237
2818.00,0.0228
2817.00,0.0219
2816.00,0.0212
2815.00,0.0205
2814.00,0.0198
2813.00,0.0192
2812.00,0.0186
2811.00,0.0181
2810.00,0.0176
2809.00,0.0170
2808.00,0.0164
2807.00,0.0158
2806.00,0.0152
2805.00,0.0145
2804.00,0.0139
2803.00,0.0133
2802.00,0.0128
2801.00,0.0124
2800.00,0.0120
2799.00,0.0117
2798.00,0.0114
2797.00,0.0112
2796.00,0.0109
2795.00,0.0107
2794.00,0.0104
2793.00,0.0102
2792.00,0.0098
2791.00,0.0095
2790.00,0.0092
2789.00,0.0089
2788.00,0.0086
2787.00,0.0083
2786.00,0.0080
2785.00,0.0077
2784.00,0.0075
2783.00,0.0073
2782.00,0.0071
2781.00,0.0069
2780.00,0.0067
2779.00,0.0066
2778.00,0.0064
2777.00,0.0062
2776.00,0.0061
2775.00,0.0060
2774.00,0.0059
2773.00,0.0059
2772.00,0.0058
2771.00,0.0057
2770.00,0.0057
2769.00,0.0056
2768.00,0.0056
2767.00,0.0056
2766.00,0.0055
2765.00,0.0055
2764.00,0.0055
2763.00,0.0055
2762.00,0.0054
2761.00,0.0054
2760.00,0.0054
2759.00,0.0053
2758.00,0.0053
2757.00,0.0052
2756.00,0.0052
2755.00,0.0052
2754.00,0.0052
2753.00,0.0052
2752.00,0.0052
2751.00,0.0051
2750.00,0.0051
2749.00,0.0051
2748.00,0.0051
2747.00,0.0052
2746.00,0.0052
2745.00,0.0052
2744.00,0.0053
2743.00,0.0053
2742.00,0.0054
2741.00,0.0055
2740.00,0.0057
2739.00,0.0059
2738.00,0.0060
2737.00,0.0061
2736.00,0.0062
2735.00,0.0063
2734.00,0.0064
2733.00,0.0066
2732.00,0.0068
2731.00,0.0070
2730.00,0.0072
2729.00,0.0074
2728.00,0.0077
2727.00,0.0079
2726.00,0.0082
2725.00,0.0084
2724.00,0.0085
2723.00,0.0085
2722.00,0.0085
2721.00,0.0083
2720.00,0.0080
2719.00,0.0077
2718.00,0.0074
2717.00,0.0071
2716.00,0.0069
2715.00,0.0067
2714.00,0.0065
2713.00,0.0062
2712.00,0.0060
2711.00,0.0058
2710.00,0.0057
2709.00,0.0055
2708.00,0.0054
2707.00,0.0053
2706.00,0.0051
2705.00,0.0050
2704.00,0.0049
2703.00,0.0048
2702.00,0.0047
2701.00,0.0047
2700.00,0.0046
2699.00,0.0045
2698.00,0.0045
2697.00,0.0045
2696.00,0.0045
2695.00,0.0045
2694.00,0.0045
2693.00,0.0045
2692.00,0.0045
2691.00,0.0045
2690.00,0.0045
2689.00,0.0045
2688.00,0.0045
2687.00,0.0045
2686.00,0.0044
2685.00,0.0045
2684.00,0.0045
2683.00,0.0045
2682.00,0.0045
2681.00,0.0045
2680.00,0.0045
2679.00,0.0045
2678.00,0.0046
2677.00,0.0046
2676.00,0.0046
2675.00,0.0046
2674.00,0.0046
2673.00,0.0045
2672.00,0.0045
2671.00,0.0045
2670.00,0.0045
2669.00,0.0045
2668.00,0.0045
2667.00,0.0045
2666.00,0.0045
2665.00,0.0046
2664.00,0.0046
2663.00,0.0047
2662.00,0.0047
2661.00,0.0047
2660.00,0.0048
2659.00,0.0048
2658.00,0.0048
2657.00,0.0047
2656.00,0.0047
2655.00,0.0046
2654.00,0.0045
2653.00,0.0045
2652.00,0.0044
2651.00,0.0044
2650.00,0.0044
2649.00,0.0044
2648.00,0.0043
2647.00,0.0043
2646.00,0.0042
2645.00,0.0042
2644.00,0.0042
2643.00,0.0041
2642.00,0.0041
2641.00,0.0041
2640.00,0.0040
2639.00,0.0040
2638.00,0.0040
2637.00,0.0039
2636.00,0.0039
2635.00,0.0039
2634.00,0.0039
2633.00,0.0039
2632.00,0.0038
2631.00,0.0038
2630.00,0.0038
2629.00,0.0038
2628.00,0.0038
2627.00,0.0039
2626.00,0.0039
2625.00,0.0040
2624.00,0.0040
2623.00,0.0040
2622.00,0.0040
2621.00,0.0040
2620.00,0.0040
2619.00,0.0040
2618.00,0.0040
2617.00,0.0040
2616.00,0.0040
2615.00,0.0040
2614.00,0.0039
2613.00,0.0039
2612.00,0.0038
2611.00,0.0038
2610.00,0.0037
2609.00,0.0036
2608.00,0.0035
2607.00,0.0034
2606.00,0.0034
2605.00,0.0033
2604.00,0.0033
2603.00,0.0033
2602.00,0.0032
2601.00,0.0032
2600.00,0.0032
2599.00,0.0031
2598.00,0.0031
2597.00,0.0031
2596.00,0.0031
2595.00,0.0031
2594.00,0.0030
2593.00,0.0030
2592.00,0.0031
2591.00,0.0032
2590.00,0.0033
2589.00,0.0035
2588.00,0.0036
2587.00,0.0036
2586.00,0.0036
2585.00,0.0037
2584.00,0.0037
2583.00,0.0038
2582.00,0.0038
2581.00,0.0038
2580.00,0.0037
2579.00,0.0036
2578.00,0.0035
2577.00,0.0034
2576.00,0.0032
2575.00,0.0031
2574.00,0.0029
2573.00,0.0028
2572.00,0.0027
2571.00,0.0026
2570.00,0.0025
2569.00,0.0025
2568.00,0.0024
2567.00,0.0024
2566.00,0.0024
2565.00,0.0024
2564.00,0.0024
2563.00,0.0023
2562.00,0.0022
2561.00,0.0021
2560.00,0.0021
2559.00,0.0020
2558.00,0.0020
2557.00,0.0020
2556.00,0.0020
2555.00,0.0020
2554.00,0.0020
2553.00,0.0020
2552.00,0.0020
2551.00,0.0020
2550.00,0.0020
2549.00,0.0020
2548.00,0.0020
2547.00,0.0020
2546.00,0.0019
2545.00,0.0019
2544.00,0.0019
2543.00,0.0018
2542.00,0.0018
2541.00,0.0018
2540.00,0.0018
2539.00,0.0017
2538.00,0.0017
2537.00,0.0017
2536.00,0.0016
2535.00,0.0015
2534.00,0.0015
2533.00,0.0014
2532.00,0.0014
2531.00,0.0014
2530.00,0.0014
2529.00,0.0014
2528.00,0.0013
2527.00,0.0013
2526.00,0.0014
2525.00,0.0014
2524.00,0.0014
2523.00,0.0014
2522.00,0.0014
2521.00,0.0013
2520.00,0.0012
2519.00,0.0011
2518.00,0.0011
2517.00,0.0011
2516.00,0.0012
2515.00,0.0012
2514.00,0.0012
2513.00,0.0011
2512.00,0.0011
2511.00,0.0011
2510.00,0.0011
2509.00,0.0010
2508.00,0.0010
2507.00,0.0010
2506.00,0.0009
2505.00,0.0009
2504.00,0.0009
2503.00,0.0009
2502.00,0.0009
2501.00,0.0009
2500.00,0.0009
2499.00,0.0009
2498.00,0.0010
2497.00,0.0010
2496.00,0.0010
2495.00,0.0009
2494.00,0.0009
2493.00,0.0009
2492.00,0.0009
2491.00,0.0009
2490.00,0.0009
2489.00,0.0009
2488.00,0.0009
2487.00,0.0009
2486.00,0.0009
2485.00,0.0009
2484.00,0.0009
2483.00,0.0009
2482.00,0.0009
2481.00,0.0009
2480.00,0.0009
2479.00,0.0009
2478.00,0.0008
2477.00,0.0008
2476.00,0.0007
2475.00,0.0007
2474.00,0.0008
2473.00,0.0008
2472.00,0.0009
2471.00,0.0009
2470.00,0.0009
2469.00,0.0008
2468.00,0.0008
2467.00,0.0008
2466.00,0.0008
2465.00,0.0009
2464.00,0.0009
2463.00,0.0009
2462.00,0.0010
2461.00,0.0011
2460.00,0.0011
2459.00,0.0012
2458.00,0.0012
2457.00,0.0012
2456.00,0.0012
2455.00,0.0012
2454.00,0.0012
2453.00,0.0012
2452.00,0.0011
2451.00,0.0010
2450.00,0.0010
2449.00,0.0010
2448.00,0.0010
2447.00,0.0010
2446.00,0.0010
2445.00,0.0010
2444.00,0.0009
2443.00,0.0009
2442.00,0.0009
2441.00,0.0009
2440.00,0.0009
2439.00,0.0009
2438.00,0.0009
2437.00,0.0009
2436.00,0.0010
2435.00,0.0010
2434.00,0.0011
2433.00,0.0011
2432.00,0.0011
2431.00,0.0010
2430.00,0.0010
2429.00,0.0009
2428.00,0.0010
2427.00,0.0010
2426.00,0.0011
2425.00,0.0011
2424.00,0.0011
2423.00,0.0010
2422.00,0.0009
2421.00,0.0009
2420.00,0.0008
2419.00,0.0008
2418.00,0.0008
2417.00,0.0008
2416.00,0.0009
2415.00,0.0009
2414.00,0.0010
2413.00,0.0010
2412.00,0.0009
2411.00,0.0009
2410.00,0.0009
2409.00,0.0008
2408.00,0.0008
2407.00,0.0008
2406.00,0.0007
2405.00,0.0007
2404.00,0.0006
2403.00,0.0006
2402.00,0.0006
2401.00,0.0007
2400.00,0.0008
2399.00,0.0008
2398.00,0.0009
2397.00,0.0009
2396.00,0.0009
2395.00,0.0009
2394.00,0.0008
2393.00,0.0008
2392.00,0.0008
2391.00,0.0008
2390.00,0.0008
2389.00,0.0007
2388.00,0.0006
2387.00,0.0005
2386.00,0.0004
2385.00,0.0003
2384.00,0.0002
2383.00,0.0002
2382.00,0.0001
2381.00,0.0000
2380.00,-0.0001
2379.00,-0.0001
2378.00,-0.0001
2377.00,-0.0001
2376.00,-0.0001
2375.00,-0.0001
2374.00,-0.0001
2373.00,-0.0001
2372.00,-0.0001
2371.00,-0.0000
2370.00,0.0000
2369.00,0.0000
2368.00,0.0000
2367.00,0.0000
2366.00,0.0000
2365.00,0.0001
2364.00,0.0001
2363.00,0.0001
2362.00,0.0000
2361.00,-0.0000
2360.00,-0.0000
2359.00,0.0000
2358.00,0.0001
2357.00,0.0001
2356.00,0.0001
2355.00,0.0001
2354.00,0.0001
2353.00,0.0001
2352.00,0.0001
2351.00,0.0001
2350.00,0.0001
2349.00,0.0002
2348.00,0.0003
2347.00,0.0003
2346.00,0.0003
2345.00,0.0002
2344.00,0.0002
2343.00,0.0003
2342.00,0.0003
2341.00,0.0004
2340.00,0.0005
2339.00,0.0005
2338.00,0.0006
2337.00,0.0006
2336.00,0.0006
2335.00,0.0005
2334.00,0.0005
2333.00,0.0004
2332.00,0.0004
2331.00,0.0003
2330.00,0.0003
2329.00,0.0004
2328.00,0.0006
2327.00,0.0009
2326.00,0.0013
2325.00,0.0016
2324.00,0.0018
2323.00,0.0017
2322.00,0.0015
2321.00,0.0013
2320.00,0.0011
2319.00,0.0010
2318.00,0.0010
2317.00,0.0009
2316.00,0.0009
2315.00,0.0009
2314.00,0.0008
2313.00,0.0008
2312.00,0.0007
2311.00,0.0007
2310.00,0.0006
2309.00,0.0006
2308.00,0.0007
2307.00,0.0007
2306.00,0.0007
2305.00,0.0008
2304.00,0.0008
2303.00,0.0009
2302.00,0.0009
2301.00,0.0010
2300.00,0.0011
2299.00,0.0012
2298.00,0.0011
2297.00,0.0011
2296.00,0.0011
2295.00,0.0011
2294.00,0.0012
2293.00,0.0013
2292.00,0.0014
2291.00,0.0015
2290.00,0.0015
2289.00,0.0016
2288.00,0.0016
2287.00,0.0016
2286.00,0.0017
2285.00,0.0017
2284.00,0.0017
2283.00,0.0016
2282.00,0.0015
2281.00,0.0015
2280.00,0.0015
2279.00,0.0015
2278.00,0.0014
2277.00,0.0013
2276.00,0.0012
2275.00,0.0012
2274.00,0.0012
2273.00,0.0012
2272.00,0.0013
2271.00,0.0013
2270.00,0.0013
2269.00,0.0012
2268.00,0.0011
2267.00,0.0010
2266.00,0.0009
2265.00,0.0009
2264.00,0.0009
2263.00,0.0009
2262.00,0.0010
2261.00,0.0011
2260.00,0.0012
2259.00,0.0013
2258.00,0.0013
2257.00,0.0013
2256.00,0.0013
2255.00,0.0013
2254.00,0.0013
2253.00,0.0013
2252.00,0.0012
2251.00,0.0011
2250.00,0.0010
2249.00,0.0010
2248.00,0.0010
2247.00,0.0009
2246.00,0.0009
2245.00,0.0008
2244.00,0.0007
2243.00,0.0008
2242.00,0.0008
2241.00,0.0009
2240.00,0.0010
2239.00,0.0011
2238.00,0.0011
2237.00,0.0011
2236.00,0.0011
2235.00,0.0009
2234.00,0.0007
2233.00,0.0005
2232.00,0.0006
2231.00,0.0007
2230.00,0.0008
2229.00,0.0008
2228.00,0.0007
2227.00,0.0006
2226.00,0.0005
2225.00,0.0005
2224.00,0.0006
2223.00,0.0007
2222.00,0.0008
2221.00,0.0008
2220.00,0.0009
2219.00,0.0008
2218.00,0.0007
2217.00,0.0006
2216.00,0.0005
2215.00,0.0005
2214.00,0.0006
2213.00,0.0007
2212.00,0.0007
2211.00,0.0007
2210.00,0.0006
2209.00,0.0004
2208.00,0.0003
2207.00,0.0003
2206.00,0.0004
2205.00,0.0005
2204.00,0.0005
2203.00,0.0005
2202.00,0.0005
2201.00,0.0007
2200.00,0.0008
2199.00,0.0008
2198.00,0.0008
2197.00,0.0007
2196.00,0.0007
2195.00,0.0008
2194.00,0.0008
2193.00,0.0008
2192.00,0.0007
2191.00,0.0007
2190.00,0.0008
2189.00,0.0010
2188.00,0.0011
2187.00,0.0012
2186.00,0.0012
2185.00,0.0012
2184.00,0.0010
2183.00,0.0007
2182.00,0.0004
2181.00,0.0003
2180.00,0.0002
2179.00,0.0002
2178.00,0.0001
2177.00,0.0000
2176.00,0.0001
2175.00,0.0002
2174.00,0.0004
2173.00,0.0006
2172.00,0.0007
2171.00,0.0009
2170.00,0.0011
2169.00,0.0012
2168.00,0.0013
2167.00,0.0013
2166.00,0.0012
2165.00,0.0013
2164.00,0.0014
2163.00,0.0015
2162.00,0.0014
2161.00,0.0009
2160.00,-0.0001
2159.00,-0.0014
2158.00,-0.0024
2157.00,-0.0028
2156.00,-0.0026
2155.00,-0.0022
2154.00,-0.0019
2153.00,-0.0017
2152.00,-0.0015
2151.00,-0.0012
2150.00,-0.0010
2149.00,-0.0009
2148.00,-0.0010
2147.00,-0.0012
2146.00,-0.0014
2145.00,-0.0013
2144.00,-0.0011
2143.00,-0.0010
2142.00,-0.0010
2141.00,-0.0010
2140.00,-0.0011
2139.00,-0.0011
2138.00,-0.0012
2137.00,-0.0014
2136.00,-0.0015
2135.00,-0.0017
2134.00,-0.0018
2133.00,-0.0018
2132.00,-0.0017
2131.00,-0.0016
2130.00,-0.0014
2129.00,-0.0012
2128.00,-0.0012
2127.00,-0.0012
2126.00,-0.0012
2125.00,-0.0012
2124.00,-0.0011
2123.00,-0.0009
2122.00,-0.0008
2121.00,-0.0007
2120.00,-0.0005
2119.00,-0.0004
2118.00,-0.0002
2117.00,-0.0000
2116.00,0.0001
2115.00,0.0002
2114.00,0.0002
2113.00,0.0002
2112.00,0.0002
2111.00,0.0002
2110.00,0.0002
2109.00,0.0002
2108.00,0.0002
2107.00,0.0002
2106.00,0.0003
2105.00,0.0004
2104.00,0.0003
2103.00,0.0002
2102.00,0.0001
2101.00,0.0001
2100.00,0.0002
2099.00,0.0002
2098.00,0.0001
2097.00,-0.0001
2096.00,-0.0002
2095.00,-0.0003
2094.00,-0.0003
2093.00,-0.0001
2092.00,0.0000
2091.00,0.0001
2090.00,0.0001
2089.00,0.0001
2088.00,0.0001
2087.00,0.0002
2086.00,0.0003
2085.00,0.0003
2084.00,0.0003
2083.00,0.0003
2082.00,0.0003
2081.00,0.0003
2080.00,0.0003
2079.00,0.0004
2078.00,0.0005
2077.00,0.0004
2076.00,0.0003
2075.00,0.0001
2074.00,0.0001
2073.00,0.0001
2072.00,0.0002
2071.00,0.0002
2070.00,0.0001
2069.00,0.0000
2068.00,-0.0001
2067.00,-0.0002
2066.00,-0.0002
2065.00,-0.0002
2064.00,-0.0001
2063.00,0.0000
2062.00,0.0001
2061.00,0.0001
2060.00,0.0000
2059.00,-0.0000
2058.00,0.0001
2057.00,0.0003
2056.00,0.0004
2055.00,0.0005
2054.00,0.0007
2053.00,0.0010
2052.00,0.0014
2051.00,0.0016
2050.00,0.0015
2049.00,0.0011
2048.00,0.0006
2047.00,0.0004
2046.00,0.0004
2045.00,0.0004
2044.00,0.0004
2043.00,0.0003
2042.00,0.0001
2041.00,-0.0000
2040.00,-0.0001
2039.00,-0.0001
2038.00,-0.0002
2037.00,-0.0002
2036.00,-0.0002
2035.00,-0.0003
2034.00,-0.0005
2033.00,-0.0007
2032.00,-0.0007
2031.00,-0.0006
2030.00,-0.0006
2029.00,-0.0005
2028.00,-0.0006
2027.00,-0.0006
2026.00,-0.0006
2025.00,-0.0005
2024.00,-0.0004
2023.00,-0.0006
2022.00,-0.0010
2021.00,-0.0013
2020.00,-0.0014
2019.00,-0.0013
2018.00,-0.0011
2017.00,-0.0008
2016.00,-0.0007
2015.00,-0.0006
2014.00,-0.0006
2013.00,-0.0005
2012.00,-0.0004
2011.00,-0.0003
2010.00,-0.0004
2009.00,-0.0007
2008.00,-0.0012
2007.00,-0.0016
2006.00,-0.0019
2005.00,-0.0019
2004.00,-0.0017
2003.00,-0.0015
2002.00,-0.0013
2001.00,-0.0010
2000.00,-0.0009
1999.00,-0.0010
1998.00,-0.0013
1997.00,-0.0015
1996.00,-0.0016
1995.00,-0.0015
1994.00,-0.0013
1993.00,-0.0008
1992.00,-0.0005
1991.00,-0.0002
1990.00,-0.0002
1989.00,-0.0002
1988.00,-0.0003
1987.00,-0.0003
1986.00,-0.0003
1985.00,-0.0001
1984.00,0.0003
1983.00,0.0006
1982.00,0.0007
1981.00,0.0004
1980.00,-0.0000
1979.00,-0.0006
1978.00,-0.0011
1977.00,-0.0016
1976.00,-0.0017
1975.00,-0.0016
1974.00,-0.0013
1973.00,-0.0010
1972.00,-0.0008
1971.00,-0.0007
1970.00,-0.0009
1969.00,-0.0012
1968.00,-0.0016
1967.00,-0.0017
1966.00,-0.0017
1965.00,-0.0015
1964.00,-0.0013
1963.00,-0.0012
1962.00,-0.0013
1961.00,-0.0015
1960.00,-0.0018
1959.00,-0.0021
1958.00,-0.0023
1957.00,-0.0023
1956.00,-0.0022
1955.00,-0.0020
1954.00,-0.0018
1953.00,-0.0016
1952.00,-0.0015
1951.00,-0.0014
1950.00,-0.0015
1949.00,-0.0015
1948.00,-0.0015
1947.00,-0.0014
1946.00,-0.0013
1945.00,-0.0013
1944.00,-0.0013
1943.00,-0.0014
1942.00,-0.0013
1941.00,-0.0011
1940.00,-0.0010
1939.00,-0.0009
1938.00,-0.0010
1937.00,-0.0010
1936.00,-0.0010
1935.00,-0.0010
1934.00,-0.0009
1933.00,-0.0007
1932.00,-0.0007
1931.00,-0.0007
1930.00,-0.0008
1929.00,-0.0008
1928.00,-0.0007
1927.00,-0.0005
1926.00,-0.0003
1925.00,-0.0001
1924.00,-0.0001
1923.00,-0.0001
1922.00,-0.0002
1921.00,-0.0003
1920.00,-0.0004
1919.00,-0.0003
1918.00,-0.0002
1917.00,-0.0000
1916.00,0.0001
1915.00,0.0001
1914.00,0.0001
1913.00,0.0000
1912.00,0.0000
1911.00,0.0000
1910.00,0.0000
1909.00,0.0001
1908.00,0.0001
1907.00,0.0001
1906.00,0.0000
1905.00,-0.0000
1904.00,-0.0001
1903.00,-0.0001
1902.00,-0.0001
1901.00,-0.0001
1900.00,-0.0000
1899.00,-0.0000
1898.00,-0.0001
1897.00,-0.0001
1896.00,-0.0001
1895.00,-0.0001
1894.00,-0.0001
1893.00,-0.0000
1892.00,0.0000
1891.00,0.0000
1890.00,-0.0000
1889.00,-0.0001
1888.00,-0.0002
1887.00,-0.0002
1886.00,-0.0001
1885.00,-0.0001
1884.00,-0.0000
1883.00,-0.0000
1882.00,-0.0001
1881.00,-0.0000
1880.00,0.0000
1879.00,0.0001
1878.00,0.0001
1877.00,0.0000
1876.00,-0.0000
1875.00,-0.0001
1874.00,-0.0002
1873.00,-0.0002
1872.00,-0.0001
1871.00,-0.0001
1870.00,-0.0001
1869.00,-0.0000
1868.00,0.0000
1867.00,0.0001
1866.00,0.0001
1865.00,0.0001
1864.00,0.0001
1863.00,0.0001
1862.00,0.0001
1861.00,0.0001
1860.00,0.0001
1859.00,0.0001
1858.00,0.0001
1857.00,0.0002
1856.00,0.0003
1855.00,0.0002
1854.00,0.0002
1853.00,0.0001
1852.00,0.0001
1851.00,0.0001
1850.00,0.0001
1849.00,0.0001
1848.00,0.0001
1847.00,0.0002
1846.00,0.0002
1845.00,0.0003
1844.00,0.0002
1843.00,0.0001
1842.00,0.0001
1841.00,0.0001
1840.00,0.0001
1839.00,0.0001
1838.00,0.0002
1837.00,0.0003
1836.00,0.0004
1835.00,0.0004
1834.00,0.0004
1833.00,0.0004
1832.00,0.0004
1831.00,0.0003
1830.00,0.0003
1829.00,0.0004
1828.00,0.0004
1827.00,0.0005
1826.00,0.0005
1825.00,0.0006
1824.00,0.0006
1823.00,0.0005
1822.00,0.0004
1821.00,0.0003
1820.00,0.0003
1819.00,0.0002
1818.00,0.0001
1817.00,0.0001
1816.00,0.0001
1815.00,0.0002
1814.00,0.0002
1813.00,0.0002
1812.00,0.0003
1811.00,0.0003
1810.00,0.0004
1809.00,0.0004
1808.00,0.0004
1807.00,0.0004
1806.00,0.0004
1805.00,0.0004
1804.00,0.0005
1803.00,0.0005
1802.00,0.0005
1801.00,0.0005
1800.00,0.0006
1799.00,0.0006
1798.00,0.0006
1797.00,0.0006
1796.00,0.0006
1795.00,0.0006
1794.00,0.0006
1793.00,0.0006
1792.00,0.0007
1791.00,0.0007
1790.00,0.0008
1789.00,0.0008
1788.00,0.0008
1787.00,0.0008
1786.00,0.0008
1785.00,0.0007
1784.00,0.0007
1783.00,0.0007
1782.00,0.0007
1781.00,0.0008
1780.00,0.0008
1779.00,0.0007
1778.00,0.0007
1777.00,0.0007
1776.00,0.0008
1775.00,0.0008
1774.00,0.0008
1773.00,0.0008
1772.00,0.0008
1771.00,0.0009
1770.00,0.0009
1769.00,0.0010
1768.00,0.0010
1767.00,0.0010
1766.00,0.0010
1765.00,0.0011
1764.00,0.0011
1763.00,0.0012
1762.00,0.0012
1761.00,0.0012
1760.00,0.0012
1759.00,0.0012
1758.00,0.0012
1757.00,0.0012
1756.00,0.0012
1755.00,0.0012
1754.00,0.0012
1753.00,0.0012
1752.00,0.0012
1751.00,0.0013
1750.00,0.0013
1749.00,0.0015
1748.00,0.0015
1747.00,0.0016
1746.00,0.0016
1745.00,0.0015
1744.00,0.0016
1743.00,0.0016
1742.00,0.0017
1741.00,0.0017
1740.00,0.0017
1739.00,0.0017
1738.00,0.0018
1737.00,0.0018
1736.00,0.0018
1735.00,0.0018
1734.00,0.0018
1733.00,0.0020
1732.00,0.0021
1731.00,0.0022
1730.00,0.0024
1729.00,0.0025
1728.00,0.0025
1727.00,0.0025
1726.00,0.0026
1725.00,0.0026
1724.00,0.0026
1723.00,0.0026
1722.00,0.0026
1721.00,0.0026
1720.00,0.0026
1719.00,0.0026
1718.00,0.0025
1717.00,0.0026
1716.00,0.0026
1715.00,0.0026
1714.00,0.0026
1713.00,0.0025
1712.00,0.0025
1711.00,0.0025
1710.00,0.0025
1709.00,0.0025
1708.00,0.0026
1707.00,0.0026
1706.00,0.0026
1705.00,0.0026
1704.00,0.0028
1703.00,0.0029
1702.00,0.0030
1701.00,0.0030
1700.00,0.0029
1699.00,0.0029
1698.00,0.0029
1697.00,0.0030
1696.00,0.0032
1695.00,0.0032
1694.00,0.0033
1693.00,0.0033
1692.00,0.0034
1691.00,0.0035
1690.00,0.0036
1689.00,0.0037
1688.00,0.0038
1687.00,0.0038
1686.00,0.0039
1685.00,0.0040
1684.00,0.0042
1683.00,0.0044
1682.00,0.0045
1681.00,0.0046
1680.00,0.0047
1679.00,0.0048
1678.00,0.0048
1677.00,0.0049
1676.00,0.0050
1675.00,0.0051
1674.00,0.0052
1673.00,0.0053
1672.00,0.0053
1671.00,0.0054
1670.00,0.0055
1669.00,0.0056
1668.00,0.0058
1667.00,0.0058
1666.00,0.0058
1665.00,0.0059
1664.00,0.0059
1663.00,0.0061
1662.00,0.0062
1661.00,0.0063
1660.00,0.0064
1659.00,0.0064
1658.00,0.0065
1657.00,0.0065
1656.00,0.0066
1655.00,0.0067
1654.00,0.0070
1653.00,0.0076
1652.00,0.0080
1651.00,0.0082
1650.00,0.0084
1649.00,0.0087
1648.00,0.0092
1647.00,0.0096
1646.00,0.0098
1645.00,0.0097
1644.00,0.0095
1643.00,0.0093
1642.00,0.0091
1641.00,0.0089
1640.00,0.0087
1639.00,0.0086
1638.00,0.0085
1637.00,0.0083
1636.00,0.0083
1635.00,0.0082
1634.00,0.0081
1633.00,0.0081
1632.00,0.0081
1631.00,0.0081
1630.00,0.0081
1629.00,0.0081
1628.00,0.0081
1627.00,0.0080
1626.00,0.0079
1625.00,0.0077
1624.00,0.0075
1623.00,0.0073
1622.00,0.0072
1621.00,0.0071
1620.00,0.0071
1619.00,0.0071
1618.00,0.0070
1617.00,0.0070
1616.00,0.0070
1615.00,0.0070
1614.00,0.0070
1613.00,0.0070
1612.00,0.0070
1611.00,0.0070
1610.00,0.0069
1609.00,0.0069
1608.00,0.0069
1607.00,0.0069
1606.00,0.0069
1605.00,0.0069
1604.00,0.0069
1603.00,0.0069
1602.00,0.0068
1601.00,0.0068
1600.00,0.0068
1599.00,0.0068
1598.00,0.0068
1597.00,0.0068
1596.00,0.0068
1595.00,0.0068
1594.00,0.0067
1593.00,0.0067
1592.00,0.0067
1591.00,0.0067
1590.00,0.0067
1589.00,0.0068
1588.00,0.0068
1587.00,0.0069
1586.00,0.0069
1585.00,0.0070
1584.00,0.0070
1583.00,0.0071
1582.00,0.0072
1581.00,0.0073
1580.00,0.0074
1579.00,0.0075
1578.00,0.0076
1577.00,0.0076
1576.00,0.0076
1575.00,0.0076
1574.00,0.0075
1573.00,0.0075
1572.00,0.0074
1571.00,0.0074
1570.00,0.0073
1569.00,0.0072
1568.00,0.0072
1567.00,0.0072
1566.00,0.0072
1565.00,0.0072
1564.00,0.0072
1563.00,0.0072
1562.00,0.0072
1561.00,0.0073
1560.00,0.0072
1559.00,0.0073
1558.00,0.0074
1557.00,0.0074
1556.00,0.0075
1555.00,0.0075
1554.00,0.0075
1553.00,0.0076
1552.00,0.0077
1551.00,0.0078
1550.00,0.0079
1549.00,0.0080
1548.00,0.0081
1547.00,0.0081
1546.00,0.0082
1545.00,0.0083
1544.00,0.0085
1543.00,0.0085
1542.00,0.0085
1541.00,0.0084
1540.00,0.0085
1539.00,0.0084
1538.00,0.0082
1537.00,0.0080
1536.00,0.0079
1535.00,0.0076
1534.00,0.0073
1533.00,0.0071
1532.00,0.0069
1531.00,0.0067
1530.00,0.0066
1529.00,0.0066
1528.00,0.0065
1527.00,0.0065
1526.00,0.0064
1525.00,0.0063
1524.00,0.0063
1523.00,0.0063
1522.00,0.0063
1521.00,0.0063
1520.00,0.0064
1519.00,0.0063
1518.00,0.0062
1517.00,0.0063
1516.00,0.0064
1515.00,0.0064
1514.00,0.0064
1513.00,0.0064
1512.00,0.0064
1511.00,0.0064
1510.00,0.0064
1509.00,0.0065
1508.00,0.0067
1507.00,0.0069
1506.00,0.0070
1505.00,0.0071
1504.00,0.0072
1503.00,0.0073
1502.00,0.0074
1501.00,0.0076
1500.00,0.0079
1499.00,0.0081
1498.00,0.0084
1497.00,0.0088
1496.00,0.0092
1495.00,0.0095
1494.00,0.0098
1493.00,0.0101
1492.00,0.0104
1491.00,0.0108
1490.00,0.0111
1489.00,0.0117
1488.00,0.0122
1487.00,0.0127
1486.00,0.0132
1485.00,0.0138
1484.00,0.0145
1483.00,0.0152
1482.00,0.0160
1481.00,0.0171
1480.00,0.0183
1479.00,0.0196
1478.00,0.0211
1477.00,0.0231
1476.00,0.0256
1475.00,0.0286
1474.00,0.0326
1473.00,0.0385
1472.00,0.0454
1471.00,0.0520
1470.00,0.0582
1469.00,0.0647
1468.00,0.0716
1467.00,0.0790
1466.00,0.0873
1465.00,0.0963
1464.00,0.1042
1463.00,0.1097
1462.00,0.1132
1461.00,0.1156
1460.00,0.1172
1459.00,0.1183
1458.00,0.1191
1457.00,0.1198
1456.00,0.1198
1455.00,0.1190
1454.00,0.1179
1453.00,0.1162
1452.00,0.1136
1451.00,0.1100
1450.00,0.1050
1449.00,0.0981
1448.00,0.0892
1447.00,0.0798
1446.00,0.0713
1445.00,0.0640
1444.00,0.0578
1443.00,0.0527
1442.00,0.0488
1441.00,0.0461
1440.00,0.0443
1439.00,0.0435
1438.00,0.0434
1437.00,0.0434
1436.00,0.0424
1435.00,0.0401
1434.00,0.0367
1433.00,0.0327
1432.00,0.0284
1431.00,0.0246
1430.00,0.0216
1429.00,0.0194
1428.00,0.0179
1427.00,0.0170
1426.00,0.0164
1425.00,0.0159
1424.00,0.0154
1423.00,0.0152
1422.00,0.0151
1421.00,0.0149
1420.00,0.0146
1419.00,0.0143
1418.00,0.0141
1417.00,0.0138
1416.00,0.0134
1415.00,0.0131
1414.00,0.0130
1413.00,0.0128
1412.00,0.0126
1411.00,0.0124
1410.00,0.0123
1409.00,0.0121
1408.00,0.0119
1407.00,0.0118
1406.00,0.0119
1405.00,0.0118
1404.00,0.0118
1403.00,0.0118
1402.00,0.0118
1401.00,0.0119
1400.00,0.0119
1399.00,0.0120
1398.00,0.0123
1397.00,0.0124
1396.00,0.0126
1395.00,0.0128
1394.00,0.0132
1393.00,0.0136
1392.00,0.0141
1391.00,0.0147
1390.00,0.0157
1389.00,0.0171
1388.00,0.0191
1387.00,0.0223
1386.00,0.0265
1385.00,0.0321
1384.00,0.0398
1383.00,0.0506
1382.00,0.0652
1381.00,0.0840
1380.00,0.1071
1379.00,0.1330
1378.00,0.1574
1377.00,0.1747
1376.00,0.1797
1375.00,0.1696
1374.00,0.1476
1373.00,0.1216
1372.00,0.0983
1371.00,0.0792
1370.00,0.0641
1369.00,0.0526
1368.00,0.0447
1367.00,0.0397
1366.00,0.0370
1365.00,0.0359
1364.00,0.0361
1363.00,0.0373
1362.00,0.0393
1361.00,0.0414
1360.00,0.0429
1359.00,0.0433
1358.00,0.0423
1357.00,0.0399
1356.00,0.0366
1355.00,0.0329
1354.00,0.0293
1353.00,0.0262
1352.00,0.0237
1351.00,0.0216
1350.00,0.0199
1349.00,0.0184
1348.00,0.0173
1347.00,0.0163
1346.00,0.0155
1345.00,0.0148
1344.00,0.0143
1343.00,0.0138
1342.00,0.0133
1341.00,0.0129
1340.00,0.0126
1339.00,0.0124
1338.00,0.0123
1337.00,0.0123
1336.00,0.0123
1335.00,0.0125
1334.00,0.0127
1333.00,0.0130
1332.00,0.0134
1331.00,0.0138
1330.00,0.0139
1329.00,0.0139
1328.00,0.0136
1327.00,0.0131
1326.00,0.0126
1325.00,0.0120
1324.00,0.0115
1323.00,0.0111
1322.00,0.0107
1321.00,0.0105
1320.00,0.0102
1319.00,0.0101
1318.00,0.0099
1317.00,0.0098
1316.00,0.0096
1315.00,0.0096
1314.00,0.0096
1313.00,0.0096
1312.00,0.0097
1311.00,0.0099
1310.00,0.0103
1309.00,0.0110
1308.00,0.0119
1307.00,0.0131
1306.00,0.0143
1305.00,0.0151
1304.00,0.0153
1303.00,0.0150
1302.00,0.0144
1301.00,0.0138
1300.00,0.0134
1299.00,0.0133
1298.00,0.0133
1297.00,0.0133
1296.00,0.0132
1295.00,0.0129
1294.00,0.0126
1293.00,0.0121
1292.00,0.0116
1291.00,0.0111
1290.00,0.0107
1289.00,0.0103
1288.00,0.0100
1287.00,0.0097
1286.00,0.0094
1285.00,0.0092
1284.00,0.0091
1283.00,0.0090
1282.00,0.0089
1281.00,0.0088
1280.00,0.0087
1279.00,0.0086
1278.00,0.0085
1277.00,0.0085
1276.00,0.0085
1275.00,0.0085
1274.00,0.0086
1273.00,0.0086
1272.00,0.0086
1271.00,0.0087
1270.00,0.0088
1269.00,0.0090
1268.00,0.0093
1267.00,0.0097
1266.00,0.0101
1265.00,0.0104
1264.00,0.0108
1263.00,0.0111
1262.00,0.0115
1261.00,0.0119
1260.00,0.0124
1259.00,0.0130
1258.00,0.0136
1257.00,0.0141
1256.00,0.0142
1255.00,0.0139
1254.00,0.0131
1253.00,0.0122
1252.00,0.0113
1251.00,0.0106
1250.00,0.0101
1249.00,0.0097
1248.00,0.0094
1247.00,0.0091
1246.00,0.0089
1245.00,0.0087
1244.00,0.0086
1243.00,0.0084
1242.00,0.0083
1241.00,0.0082
1240.00,0.0080
1239.00,0.0079
1238.00,0.0078
1237.00,0.0077
1236.00,0.0077
1235.00,0.0078
1234.00,0.0079
1233.00,0.0080
1232.00,0.0080
1231.00,0.0081
1230.00,0.0082
1229.00,0.0083
1228.00,0.0085
1227.00,0.0087
1226.00,0.0089
1225.00,0.0092
1224.00,0.0095
1223.00,0.0098
1222.00,0.0101
1221.00,0.0103
1220.00,0.0105
1219.00,0.0106
1218.00,0.0105
1217.00,0.0103
1216.00,0.0100
1215.00,0.0098
1214.00,0.0095
1213.00,0.0093
1212.00,0.0090
1211.00,0.0089
1210.00,0.0087
1209.00,0.0086
1208.00,0.0085
1207.00,0.0084
1206.00,0.0083
1205.00,0.0082
1204.00,0.0082
1203.00,0.0081
1202.00,0.0081
1201.00,0.0081
1200.00,0.0080
1199.00,0.0080
1198.00,0.0079
1197.00,0.0080
1196.00,0.0080
1195.00,0.0081
1194.00,0.0081
1193.00,0.0081
1192.00,0.0081
1191.00,0.0080
1190.00,0.0080
1189.00,0.0079
1188.00,0.0079
1187.00,0.0080
1186.00,0.0080
1185.00,0.0081
1184.00,0.0082
1183.00,0.0083
1182.00,0.0085
1181.00,0.0087
1180.00,0.0090
1179.00,0.0095
1178.00,0.0101
1177.00,0.0110
1176.00,0.0122
1175.00,0.0139
1174.00,0.0159
1173.00,0.0184
1172.00,0.0214
1171.00,0.0248
1170.00,0.0280
1169.00,0.0306
1168.00,0.0321
1167.00,0.0324
1166.00,0.0316
1165.00,0.0301
1164.00,0.0283
1163.00,0.0264
1162.00,0.0248
1161.00,0.0234
1160.00,0.0224
1159.00,0.0217
1158.00,0.0211
1157.00,0.0207
1156.00,0.0205
1155.00,0.0203
1154.00,0.0201
1153.00,0.0198
1152.00,0.0193
1151.00,0.0186
1150.00,0.0179
1149.00,0.0170
1148.00,0.0161
1147.00,0.0152
1146.00,0.0143
1145.00,0.0135
1144.00,0.0129
1143.00,0.0123
1142.00,0.0117
1141.00,0.0112
1140.00,0.0107
1139.00,0.0103
1138.00,0.0100
1137.00,0.0097
1136.00,0.0095
1135.00,0.0093
1134.00,0.0092
1133.00,0.0091
1132.00,0.0090
1131.00,0.0091
1130.00,0.0091
1129.00,0.0092
1128.00,0.0093
1127.00,0.0094
1126.00,0.0096
1125.00,0.0097
1124.00,0.0098
1123.00,0.0099
1122.00,0.0101
1121.00,0.0102
1120.00,0.0103
1119.00,0.0104
1118.00,0.0104
1117.00,0.0105
1116.00,0.0106
1115.00,0.0108
1114.00,0.0109
1113.00,0.0111
1112.00,0.0113
1111.00,0.0115
1110.00,0.0117
1109.00,0.0121
1108.00,0.0126
1107.00,0.0132
1106.00,0.0138
1105.00,0.0144
1104.00,0.0148
1103.00,0.0150
1102.00,0.0149
1101.00,0.0146
1100.00,0.0141
1099.00,0.0136
1098.00,0.0130
1097.00,0.0125
1096.00,0.0121
1095.00,0.0117
1094.00,0.0113
1093.00,0.0110
1092.00,0.0107
1091.00,0.0105
1090.00,0.0104
1089.00,0.0103
1088.00,0.0102
1087.00,0.0101
1086.00,0.0100
1085.00,0.0100
1084.00,0.0100
1083.00,0.0101
1082.00,0.0101
1081.00,0.0101
1080.00,0.0099
1079.00,0.0098
1078.00,0.0096
1077.00,0.0094
1076.00,0.0092
1075.00,0.0091
1074.00,0.0091
1073.00,0.0090
1072.00,0.0090
1071.00,0.0089
1070.00,0.0089
1069.00,0.0089
1068.00,0.0090
1067.00,0.0091
1066.00,0.0091
1065.00,0.0092
1064.00,0.0092
1063.00,0.0091
1062.00,0.0090
1061.00,0.0089
1060.00,0.0088
1059.00,0.0088
1058.00,0.0089
1057.00,0.0089
1056.00,0.0089
1055.00,0.0089
1054.00,0.0090
1053.00,0.0092
1052.00,0.0094
1051.00,0.0097
1050.00,0.0099
1049.00,0.0102
1048.00,0.0106
1047.00,0.0109
1046.00,0.0112
1045.00,0.0114
1044.00,0.0115
1043.00,0.0114
1042.00,0.0111
1041.00,0.0109
1040.00,0.0107
1039.00,0.0107
1038.00,0.0107
1037.00,0.0107
1036.00,0.0107
1035.00,0.0106
1034.00,0.0105
1033.00,0.0104
1032.00,0.0102
1031.00,0.0102
1030.00,0.0101
1029.00,0.0100
1028.00,0.0099
1027.00,0.0098
1026.00,0.0097
1025.00,0.0097
1024.00,0.0096
1023.00,0.0097
1022.00,0.0097
1021.00,0.0097
1020.00,0.0097
1019.00,0.0097
1018.00,0.0098
1017.00,0.0098
1016.00,0.0099
1015.00,0.0101
1014.00,0.0102
1013.00,0.0104
1012.00,0.0105
1011.00,0.0108
1010.00,0.0110
1009.00,0.0114
1008.00,0.0119
1007.00,0.0126
1006.00,0.0135
1005.00,0.0147
1004.00,0.0164
1003.00,0.0187
1002.00,0.0220
1001.00,0.0260
1000.00,0.0303
999.00,0.0340
998.00,0.0358
997.00,0.0352
996.00,0.0323
995.00,0.0281
994.00,0.0237
993.00,0.0200
992.00,0.0172
991.00,0.0152
990.00,0.0139
989.00,0.0129
988.00,0.0122
987.00,0.0118
986.00,0.0116
985.00,0.0117
984.00,0.0120
983.00,0.0127
982.00,0.0138
981.00,0.0154
980.00,0.0175
979.00,0.0204
978.00,0.0241
977.00,0.0284
976.00,0.0331
975.00,0.0377
974.00,0.0412
973.00,0.0426
972.00,0.0411
971.00,0.0372
970.00,0.0318
969.00,0.0264
968.00,0.0217
967.00,0.0182
966.00,0.0156
965.00,0.0137
964.00,0.0124
963.00,0.0114
962.00,0.0107
961.00,0.0101
960.00,0.0097
959.00,0.0093
958.00,0.0090
957.00,0.0087
956.00,0.0084
955.00,0.0081
954.00,0.0078
953.00,0.0076
952.00,0.0074
951.00,0.0074
950.00,0.0075
949.00,0.0075
948.00,0.0076
947.00,0.0076
946.00,0.0077
945.00,0.0079
944.00,0.0082
943.00,0.0085
942.00,0.0088
941.00,0.0091
940.00,0.0091
939.00,0.0089
938.00,0.0086
937.00,0.0081
936.00,0.0077
935.00,0.0074
934.00,0.0071
933.00,0.0069
932.00,0.0067
931.00,0.0067
930.00,0.0066
929.00,0.0065
928.00,0.0064
927.00,0.0064
926.00,0.0064
925.00,0.0065
924.00,0.0065
923.00,0.0065
922.00,0.0064
921.00,0.0063
920.00,0.0064
919.00,0.0065
918.00,0.0066
917.00,0.0067
916.00,0.0068
915.00,0.0068
914.00,0.0069
913.00,0.0071
912.00,0.0072
911.00,0.0074
910.00,0.0075
909.00,0.0078
908.00,0.0081
907.00,0.0085
906.00,0.0092
905.00,0.0101
904.00,0.0114
903.00,0.0131
902.00,0.0150
901.00,0.0167
900.00,0.0178
899.00,0.0181
898.00,0.0173
897.00,0.0158
896.00,0.0141
895.00,0.0124
894.00,0.0110
893.00,0.0099
892.00,0.0092
891.00,0.0086
890.00,0.0083
889.00,0.0081
888.00,0.0078
887.00,0.0076
886.00,0.0074
885.00,0.0073
884.00,0.0074
883.00,0.0075
882.00,0.0077
881.00,0.0078
880.00,0.0078
879.00,0.0078
878.00,0.0078
877.00,0.0079
876.00,0.0080
875.00,0.0081
874.00,0.0082
873.00,0.0083
872.00,0.0084
871.00,0.0085
870.00,0.0085
869.00,0.0084
868.00,0.0083
867.00,0.0083
866.00,0.0084
865.00,0.0084
864.00,0.0085
863.00,0.0085
862.00,0.0086
861.00,0.0087
860.00,0.0089
859.00,0.0091
858.00,0.0093
857.00,0.0095
856.00,0.0095
855.00,0.0096
854.00,0.0097
853.00,0.0100
852.00,0.0103
851.00,0.0108
850.00,0.0114
849.00,0.0120
848.00,0.0129
847.00,0.0142
846.00,0.0163
845.00,0.0196
844.00,0.0245
843.00,0.0302
842.00,0.0350
841.00,0.0367
840.00,0.0344
839.00,0.0293
838.00,0.0236
837.00,0.0190
836.00,0.0159
835.00,0.0141
834.00,0.0131
833.00,0.0124
832.00,0.0119
831.00,0.0116
830.00,0.0114
829.00,0.0114
828.00,0.0114
827.00,0.0114
826.00,0.0114
825.00,0.0113
824.00,0.0113
823.00,0.0113
822.00,0.0114
821.00,0.0116
820.00,0.0119
819.00,0.0122
818.00,0.0126
817.00,0.0132
816.00,0.0139
815.00,0.0149
814.00,0.0162
813.00,0.0178
812.00,0.0196
811.00,0.0214
810.00,0.0227
809.00,0.0233
808.00,0.0231
807.00,0.0221
806.00,0.0205
805.00,0.0187
804.00,0.0169
803.00,0.0155
802.00,0.0145
801.00,0.0138
800.00,0.0132
799.00,0.0128
798.00,0.0123
797.00,0.0119
796.00,0.0115
795.00,0.0111
794.00,0.0107
793.00,0.0102
792.00,0.0098
791.00,0.0094
790.00,0.0091
789.00,0.0089
788.00,0.0087
787.00,0.0086
786.00,0.0084
785.00,0.0082
784.00,0.0079
783.00,0.0077
782.00,0.0075
781.00,0.0073
780.00,0.0072
779.00,0.0072
778.00,0.0073
777.00,0.0074
776.00,0.0074
775.00,0.0074
774.00,0.0075
773.00,0.0075
772.00,0.0076
771.00,0.0077
770.00,0.0078
769.00,0.0079
768.00,0.0078
767.00,0.0077
766.00,0.0076
765.00,0.0076
764.00,0.0076
763.00,0.0076
762.00,0.0076
761.00,0.0076
760.00,0.0075
759.00,0.0075
758.00,0.0075
757.00,0.0076
756.00,0.0077
755.00,0.0077
754.00,0.0078
753.00,0.0079
752.00,0.0080
751.00,0.0083
750.00,0.0085
749.00,0.0087
748.00,0.0089
747.00,0.0089
746.00,0.0089
745.00,0.0090
744.00,0.0091
743.00,0.0094
742.00,0.0097
741.00,0.0101
740.00,0.0106
739.00,0.0110
738.00,0.0113
737.00,0.0116
736.00,0.0118
735.00,0.0122
734.00,0.0127
733.00,0.0135
732.00,0.0145
731.00,0.0154
730.00,0.0162
729.00,0.0166
728.00,0.0167
727.00,0.0168
726.00,0.0170
725.00,0.0174
724.00,0.0179
723.00,0.0186
722.00,0.0191
721.00,0.0194
720.00,0.0190
719.00,0.0182
718.00,0.0170
717.00,0.0157
716.00,0.0145
715.00,0.0135
714.00,0.0128
713.00,0.0124
712.00,0.0121
711.00,0.0119
710.00,0.0118
709.00,0.0117
708.00,0.0117
707.00,0.0117
706.00,0.0117
705.00,0.0116
704.00,0.0114
703.00,0.0111
702.00,0.0109
701.00,0.0108
700.00,0.0107
699.00,0.0105
698.00,0.0102
697.00,0.0100
696.00,0.0099
695.00,0.0099
694.00,0.0100
693.00,0.0101
692.00,0.0100
691.00,0.0099
690.00,0.0097
689.00,0.0096
688.00,0.0096
687.00,0.0098
686.00,0.0099
685.00,0.0100
684.00,0.0101
683.00,0.0100
682.00,0.0100
681.00,0.0099
680.00,0.0099
679.00,0.0099
678.00,0.0100
677.00,0.0100
676.00,0.0100
675.00,0.0100
674.00,0.0100
673.00,0.0102
672.00,0.0102
671.00,0.0103
670.00,0.0102
669.00,0.0102
668.00,0.0104
667.00,0.0105
666.00,0.0106
665.00,0.0105
664.00,0.0103
663.00,0.0100
662.00,0.0098
661.00,0.0097
660.00,0.0098
659.00,0.0098
658.00,0.0097
657.00,0.0096
656.00,0.0095
655.00,0.0096
654.00,0.0098
653.00,0.0099
652.00,0.0100
651.00,0.0099
650.00,0.0099
649.00,0.0099
648.00,0.0099
647.00,0.0098
646.00,0.0098
645.00,0.0097
644.00,0.0096
643.00,0.0096
642.00,0.0095
641.00,0.0094
640.00,0.0092
639.00,0.0092
638.00,0.0094
637.00,0.0095
636.00,0.0095
635.00,0.0095
634.00,0.0096
633.00,0.0096
632.00,0.0097
631.00,0.0097
630.00,0.0098
629.00,0.0099
628.00,0.0097
627.00,0.0094
626.00,0.0091
625.00,0.0089
624.00,0.0090
623.00,0.0092
622.00,0.0095
621.00,0.0096
620.00,0.0096
619.00,0.0093
618.00,0.0089
617.00,0.0086
616.00,0.0085
615.00,0.0086
614.00,0.0088
613.00,0.0091
612.00,0.0092
611.00,0.0094
610.00,0.0094
609.00,0.0094
608.00,0.0093
607.00,0.0090
606.00,0.0088
605.00,0.0088
604.00,0.0089
603.00,0.0091
602.00,0.0093
601.00,0.0095
600.00,0.0096
599.00,0.0096
598.00,0.0094
597.00,0.0093
596.00,0.0092
595.00,0.0091
594.00,0.0092
593.00,0.0092
592.00,0.0092
591.00,0.0093
590.00,0.0096
589.00,0.0098
588.00,0.0099
587.00,0.0097
586.00,0.0094
585.00,0.0091
584.00,0.0090
583.00,0.0091
582.00,0.0094
581.00,0.0099
580.00,0.0104
579.00,0.0106
578.00,0.0104
577.00,0.0100
576.00,0.0096
575.00,0.0094
574.00,0.0093
573.00,0.0094
572.00,0.0095
571.00,0.0095
570.00,0.0096
569.00,0.0097
568.00,0.0097
567.00,0.0096
566.00,0.0094
565.00,0.0094
564.00,0.0096
563.00,0.0098
562.00,0.0100
561.00,0.0100
560.00,0.0102
559.00,0.0104
558.00,0.0105
557.00,0.0102
556.00,0.0097
555.00,0.0093
554.00,0.0093
553.00,0.0094
552.00,0.0094
551.00,0.0091
550.00,0.0089
549.00,0.0088
548.00,0.0090
547.00,0.0091
546.00,0.0092
545.00,0.0092
544.00,0.0092
543.00,0.0092
542.00,0.0090
541.00,0.0087
540.00,0.0085
539.00,0.0084
538.00,0.0086
537.00,0.0089
536.00,0.0095
535.00,0.0102
534.00,0.0108
533.00,0.0110
532.00,0.0108
531.00,0.0104
530.00,0.0100
529.00,0.0100
528.00,0.0104
527.00,0.0109
526.00,0.0112
525.00,0.0110
524.00,0.0107
523.00,0.0105
522.00,0.0105
521.00,0.0107
520.00,0.0106
519.00,0.0103
518.00,0.0098
517.00,0.0094
516.00,0.0092
515.00,0.0088
514.00,0.0083
513.00,0.0078
512.00,0.0076
511.00,0.0078
510.00,0.0081
509.00,0.0083
508.00,0.0082
507.00,0.0083
506.00,0.0086
505.00,0.0089
504.00,0.0090
503.00,0.0089
502.00,0.0087
501.00,0.0083
500.00,0.0078
499.00,0.0072
498.00,0.0069
497.00,0.0070
496.00,0.0076
495.00,0.0085
494.00,0.0091
493.00,0.0091
492.00,0.0084
491.00,0.0073
490.00,0.0064
489.00,0.0063
488.00,0.0069
487.00,0.0075
486.00,0.0076
485.00,0.0071
484.00,0.0067
483.00,0.0066
482.00,0.0067
481.00,0.0066
480.00,0.0061
479.00,0.0055
478.00,0.0051
477.00,0.0053
476.00,0.0058
475.00,0.0062
474.00,0.0061
473.00,0.0057
472.00,0.0058
471.00,0.0068
470.00,0.0083
469.00,0.0093
468.00,0.0096
467.00,0.0093
466.00,0.0088
465.00,0.0084
464.00,0.0084
463.00,0.0091
462.00,0.0108
461.00,0.0134
460.00,0.0158
459.00,0.0169
458.00,0.0161
457.00,0.0143
456.00,0.0130
455.00,0.0127
454.00,0.0129
453.00,0.0136
452.00,0.0144
451.00,0.0151
450.00,0.0151
