Created as New Dataset,Sample 057 By Administrator Date Thursday, September 04 2025
cm-1,A
4000.00,0.0008
3999.00,0.0008
3998.00,0.0008
3997.00,0.0008
3996.00,0.0008
3995.00,0.0008
3994.00,0.0008
3993.00,0.0008
3992.00,0.0008
3991.00,0.0008
3990.00,0.0008
3989.00,0.0008
3988.00,0.0008
3987.00,0.0007
3986.00,0.0007
3985.00,0.0007
3984.00,0.0007
3983.00,0.0007
3982.00,0.0007
3981.00,0.0007
3980.00,0.0007
3979.00,0.0006
3978.00,0.0006
3977.00,0.0006
3976.00,0.0006
3975.00,0.0006
3974.00,0.0006
3973.00,0.0006
3972.00,0.0005
3971.00,0.0005
3970.00,0.0005
3969.00,0.0005
3968.00,0.0005
3967.00,0.0006
3966.00,0.0006
3965.00,0.0006
3964.00,0.0006
3963.00,0.0007
3962.00,0.0007
3961.00,0.0007
3960.00,0.0007
3959.00,0.0006
3958.00,0.0006
3957.00,0.0006
3956.00,0.0006
3955.00,0.0006
3954.00,0.0006
3953.00,0.0006
3952.00,0.0007
3951.00,0.0007
3950.00,0.0007
3949.00,0.0007
3948.00,0.0006
3947.00,0.0006
3946.00,0.0006
3945.00,0.0006
3944.00,0.0006
3943.00,0.0006
3942.00,0.0006
3941.00,0.0006
3940.00,0.0006
3939.00,0.0005
3938.00,0.0005
3937.00,0.0005
3936.00,0.0006
3935.00,0.0006
3934.00,0.0006
3933.00,0.0006
3932.00,0.0006
3931.00,0.0006
3930.00,0.0006
3929.00,0.0006
3928.00,0.0006
3927.00,0.0006
3926.00,0.0006
3925.00,0.0006
3924.00,0.0005
3923.00,0.0005
3922.00,0.0005
3921.00,0.0005
3920.00,0.0005
3919.00,0.0005
3918.00,0.0005
3917.00,0.0005
3916.00,0.0005
3915.00,0.0005
3914.00,0.0005
3913.00,0.0005
3912.00,0.0005
3911.00,0.0006
3910.00,0.0006
3909.00,0.0006
3908.00,0.0006
3907.00,0.0006
3906.00,0.0006
3905.00,0.0005
3904.00,0.0005
3903.00,0.0005
3902.00,0.0005
3901.00,0.0005
3900.00,0.0005
3899.00,0.0005
3898.00,0.0005
3897.00,0.0005
3896.00,0.0005
3895.00,0.0005
3894.00,0.0005
3893.00,0.0005
3892.00,0.0005
3891.00,0.0005
3890.00,0.0005
3889.00,0.0005
3888.00,0.0005
3887.00,0.0005
3886.00,0.0005
3885.00,0.0005
3884.00,0.0005
3883.00,0.0005
3882.00,0.0005
3881.00,0.0005
3880.00,0.0005
3879.00,0.0005
3878.00,0.0005
3877.00,0.0005
3876.00,0.0004
3875.00,0.0004
3874.00,0.0005
3873.00,0.0005
3872.00,0.0006
3871.00,0.0006
3870.00,0.0005
3869.00,0.0005
3868.00,0.0005
3867.00,0.0005
3866.00,0.0005
3865.00,0.0005
3864.00,0.0004
3863.00,0.0004
3862.00,0.0004
3861.00,0.0004
3860.00,0.0004
3859.00,0.0004
3858.00,0.0004
3857.00,0.0004
3856.00,0.0004
3855.00,0.0004
3854.00,0.0004
3853.00,0.0005
3852.00,0.0005
3851.00,0.0005
3850.00,0.0005
3849.00,0.0005
3848.00,0.0005
3847.00,0.0005
3846.00,0.0005
3845.00,0.0005
3844.00,0.0004
3843.00,0.0005
3842.00,0.0005
3841.00,0.0005
3840.00,0.0005
3839.00,0.0006
3838.00,0.0006
3837.00,0.0006
3836.00,0.0005
3835.00,0.0005
3834.00,0.0005
3833.00,0.0005
3832.00,0.0005
3831.00,0.0005
3830.00,0.0005
3829.00,0.0005
3828.00,0.0004
3827.00,0.0004
3826.00,0.0004
3825.00,0.0004
3824.00,0.0004
3823.00,0.0004
3822.00,0.0004
3821.00,0.0004
3820.00,0.0005
3819.00,0.0006
3818.00,0.0006
3817.00,0.0006
3816.00,0.0006
3815.00,0.0006
3814.00,0.0006
3813.00,0.0006
3812.00,0.0006
3811.00,0.0006
3810.00,0.0006
3809.00,0.0006
3808.00,0.0006
3807.00,0.0006
3806.00,0.0006
3805.00,0.0006
3804.00,0.0006
3803.00,0.0006
3802.00,0.0005
3801.00,0.0005
3800.00,0.0006
3799.00,0.0006
3798.00,0.0006
3797.00,0.0006
3796.00,0.0006
3795.00,0.0006
3794.00,0.0006
3793.00,0.0006
3792.00,0.0006
3791.00,0.0006
3790.00,0.0006
3789.00,0.0006
3788.00,0.0005
3787.00,0.0005
3786.00,0.0005
3785.00,0.0005
3784.00,0.0005
3783.00,0.0004
3782.00,0.0004
3781.00,0.0005
3780.00,0.0005
3779.00,0.0006
3778.00,0.0006
3777.00,0.0006
3776.00,0.0005
3775.00,0.0005
3774.00,0.0005
3773.00,0.0005
3772.00,0.0005
3771.00,0.0005
3770.00,0.0005
3769.00,0.0005
3768.00,0.0006
3767.00,0.0006
3766.00,0.0006
3765.00,0.0006
3764.00,0.0006
3763.00,0.0006
3762.00,0.0006
3761.00,0.0005
3760.00,0.0005
3759.00,0.0005
3758.00,0.0005
3757.00,0.0005
3756.00,0.0005
3755.00,0.0005
3754.00,0.0005
3753.00,0.0005
3752.00,0.0005
3751.00,0.0005
3750.00,0.0005
3749.00,0.0005
3748.00,0.0005
3747.00,0.0005
3746.00,0.0005
3745.00,0.0005
3744.00,0.0005
3743.00,0.0005
3742.00,0.0005
3741.00,0.0005
3740.00,0.0005
3739.00,0.0005
3738.00,0.0004
3737.00,0.0004
3736.00,0.0004
3735.00,0.0004
3734.00,0.0004
3733.00,0.0004
3732.00,0.0004
3731.00,0.0004
3730.00,0.0004
3729.00,0.0004
3728.00,0.0003
3727.00,0.0003
3726.00,0.0003
3725.00,0.0004
3724.00,0.0004
3723.00,0.0004
3722.00,0.0004
3721.00,0.0003
3720.00,0.0003
3719.00,0.0003
3718.00,0.0003
3717.00,0.0003
3716.00,0.0003
3715.00,0.0004
3714.00,0.0004
3713.00,0.0004
3712.00,0.0005
3711.00,0.0005
3710.00,0.0005
3709.00,0.0004
3708.00,0.0004
3707.00,0.0003
3706.00,0.0003
3705.00,0.0003
3704.00,0.0003
3703.00,0.0003
3702.00,0.0003
3701.00,0.0004
3700.00,0.0004
3699.00,0.0004
3698.00,0.0004
3697.00,0.0004
3696.00,0.0003
3695.00,0.0003
3694.00,0.0003
3693.00,0.0003
3692.00,0.0003
3691.00,0.0004
3690.00,0.0005
3689.00,0.0005
3688.00,0.0004
3687.00,0.0004
3686.00,0.0004
3685.00,0.0004
3684.00,0.0004
3683.00,0.0004
3682.00,0.0004
3681.00,0.0004
3680.00,0.0004
3679.00,0.0004
3678.00,0.0004
3677.00,0.0004
3676.00,0.0003
3675.00,0.0003
3674.00,0.0003
3673.00,0.0002
3672.00,0.0002
3671.00,0.0003
3670.00,0.0004
3669.00,0.0004
3668.00,0.0004
3667.00,0.0004
3666.00,0.0003
3665.00,0.0002
3664.00,0.0002
3663.00,0.0002
3662.00,0.0002
3661.00,0.0003
3660.00,0.0003
3659.00,0.0003
3658.00,0.0003
3657.00,0.0002
3656.00,0.0002
3655.00,0.0003
3654.00,0.0003
3653.00,0.0002
3652.00,0.0002
3651.00,0.0001
3650.00,0.0001
3649.00,0.0001
3648.00,0.0002
3647.00,0.0003
3646.00,0.0003
3645.00,0.0004
3644.00,0.0004
3643.00,0.0004
3642.00,0.0004
3641.00,0.0004
3640.00,0.0004
3639.00,0.0005
3638.00,0.0005
3637.00,0.0005
3636.00,0.0005
3635.00,0.0005
3634.00,0.0005
3633.00,0.0006
3632.00,0.0006
3631.00,0.0006
3630.00,0.0005
3629.00,0.0005
3628.00,0.0006
3627.00,0.0006
3626.00,0.0006
3625.00,0.0006
3624.00,0.0006
3623.00,0.0006
3622.00,0.0006
3621.00,0.0006
3620.00,0.0006
3619.00,0.0007
3618.00,0.0007
3617.00,0.0007
3616.00,0.0007
3615.00,0.0007
3614.00,0.0008
3613.00,0.0008
3612.00,0.0008
3611.00,0.0008
3610.00,0.0008
3609.00,0.0008
3608.00,0.0009
3607.00,0.0009
3606.00,0.0009
3605.00,0.0009
3604.00,0.0009
3603.00,0.0009
3602.00,0.0010
3601.00,0.0010
3600.00,0.0011
3599.00,0.0011
3598.00,0.0010
3597.00,0.0010
3596.00,0.0009
3595.00,0.0009
3594.00,0.0009
3593.00,0.0009
3592.00,0.0010
3591.00,0.0010
3590.00,0.0010
3589.00,0.0010
3588.00,0.0010
3587.00,0.0011
3586.00,0.0011
3585.00,0.0011
3584.00,0.0011
3583.00,0.0012
3582.00,0.0012
3581.00,0.0013
3580.00,0.0013
3579.00,0.0014
3578.00,0.0014
3577.00,0.0014
3576.00,0.0014
3575.00,0.0014
3574.00,0.0014
3573.00,0.0014
3572.00,0.0015
3571.00,0.0015
3570.00,0.0015
3569.00,0.0015
3568.00,0.0015
3567.00,0.0015
3566.00,0.0015
3565.00,0.0015
3564.00,0.0015
3563.00,0.0015
3562.00,0.0015
3561.00,0.0016
3560.00,0.0016
3559.00,0.0017
3558.00,0.0017
3557.00,0.0018
3556.00,0.0018
3555.00,0.0019
3554.00,0.0019
3553.00,0.0019
3552.00,0.0019
3551.00,0.0020
3550.00,0.0020
3549.00,0.0020
3548.00,0.0020
3547.00,0.0020
3546.00,0.0020
3545.00,0.0021
3544.00,0.0022
3543.00,0.0022
3542.00,0.0023
3541.00,0.0023
3540.00,0.0023
3539.00,0.0024
3538.00,0.0024
3537.00,0.0024
3536.00,0.0024
3535.00,0.0024
3534.00,0.0024
3533.00,0.0024
3532.00,0.0024
3531.00,0.0024
3530.00,0.0024
3529.00,0.0025
3528.00,0.0025
3527.00,0.0025
3526.00,0.0026
3525.00,0.0026
3524.00,0.0027
3523.00,0.0028
3522.00,0.0028
3521.00,0.0029
3520.00,0.0029
3519.00,0.0029
3518.00,0.0029
3517.00,0.0029
3516.00,0.0029
3515.00,0.0029
3514.00,0.0029
3513.00,0.0030
3512.00,0.0030
3511.00,0.0030
3510.00,0.0031
3509.00,0.0031
3508.00,0.0031
3507.00,0.0032
3506.00,0.0032
3505.00,0.0032
3504.00,0.0032
3503.00,0.0033
3502.00,0.0033
3501.00,0.0034
3500.00,0.0034
3499.00,0.0034
3498.00,0.0034
3497.00,0.0034
3496.00,0.0034
3495.00,0.0034
3494.00,0.0034
3493.00,0.0035
3492.00,0.0035
3491.00,0.0035
3490.00,0.0035
3489.00,0.0036
3488.00,0.0036
3487.00,0.0037
3486.00,0.0038
3485.00,0.0038
3484.00,0.0038
3483.00,0.0038
3482.00,0.0038
3481.00,0.0038
3480.00,0.0039
3479.00,0.0040
3478.00,0.0040
3477.00,0.0040
3476.00,0.0040
3475.00,0.0040
3474.00,0.0040
3473.00,0.0041
3472.00,0.0041
3471.00,0.0042
3470.00,0.0042
3469.00,0.0042
3468.00,0.0042
3467.00,0.0042
3466.00,0.0042
3465.00,0.0042
3464.00,0.0043
3463.00,0.0043
3462.00,0.0043
3461.00,0.0044
3460.00,0.0044
3459.00,0.0044
3458.00,0.0045
3457.00,0.0045
3456.00,0.0045
3455.00,0.0045
3454.00,0.0046
3453.00,0.0046
3452.00,0.0046
3451.00,0.0046
3450.00,0.0047
3449.00,0.0047
3448.00,0.0047
3447.00,0.0047
3446.00,0.0047
3445.00,0.0048
3444.00,0.0048
3443.00,0.0048
3442.00,0.0048
3441.00,0.0047
3440.00,0.0048
3439.00,0.0048
3438.00,0.0048
3437.00,0.0048
3436.00,0.0049
3435.00,0.0049
3434.00,0.0049
3433.00,0.0049
3432.00,0.0049
3431.00,0.0049
3430.00,0.0050
3429.00,0.0050
3428.00,0.0051
3427.00,0.0051
3426.00,0.0052
3425.00,0.0052
3424.00,0.0051
3423.00,0.0051
3422.00,0.0051
3421.00,0.0051
3420.00,0.0051
3419.00,0.0051
3418.00,0.0052
3417.00,0.0052
3416.00,0.0053
3415.00,0.0053
3414.00,0.0053
3413.00,0.0053
3412.00,0.0053
3411.00,0.0053
3410.00,0.0053
3409.00,0.0053
3408.00,0.0053
3407.00,0.0054
3406.00,0.0054
3405.00,0.0055
3404.00,0.0055
3403.00,0.0055
3402.00,0.0055
3401.00,0.0055
3400.00,0.0056
3399.00,0.0056
3398.00,0.0055
3397.00,0.0055
3396.00,0.0056
3395.00,0.0056
3394.00,0.0056
3393.00,0.0057
3392.00,0.0057
3391.00,0.0057
3390.00,0.0057
3389.00,0.0057
3388.00,0.0057
3387.00,0.0056
3386.00,0.0056
3385.00,0.0056
3384.00,0.0056
3383.00,0.0056
3382.00,0.0056
3381.00,0.0056
3380.00,0.0056
3379.00,0.0056
3378.00,0.0056
3377.00,0.0056
3376.00,0.0056
3375.00,0.0056
3374.00,0.0055
3373.00,0.0056
3372.00,0.0056
3371.00,0.0056
3370.00,0.0057
3369.00,0.0057
3368.00,0.0057
3367.00,0.0057
3366.00,0.0057
3365.00,0.0057
3364.00,0.0057
3363.00,0.0057
3362.00,0.0056
3361.00,0.0056
3360.00,0.0056
3359.00,0.0056
3358.00,0.0056
3357.00,0.0057
3356.00,0.0057
3355.00,0.0057
3354.00,0.0057
3353.00,0.0056
3352.00,0.0056
3351.00,0.0056
3350.00,0.0056
3349.00,0.0056
3348.00,0.0056
3347.00,0.0056
3346.00,0.0057
3345.00,0.0056
3344.00,0.0056
3343.00,0.0056
3342.00,0.0056
3341.00,0.0056
3340.00,0.0056
3339.00,0.0056
3338.00,0.0056
3337.00,0.0056
3336.00,0.0056
3335.00,0.0056
3334.00,0.0055
3333.00,0.0055
3332.00,0.0055
3331.00,0.0055
3330.00,0.0055
3329.00,0.0055
3328.00,0.0055
3327.00,0.0055
3326.00,0.0055
3325.00,0.0054
3324.00,0.0054
3323.00,0.0054
3322.00,0.0053
3321.00,0.0053
3320.00,0.0053
3319.00,0.0053
3318.00,0.0053
3317.00,0.0053
3316.00,0.0054
3315.00,0.0054
3314.00,0.0054
3313.00,0.0053
3312.00,0.0054
3311.00,0.0054
3310.00,0.0054
3309.00,0.0054
3308.00,0.0054
3307.00,0.0054
3306.00,0.0054
3305.00,0.0055
3304.00,0.0055
3303.00,0.0055
3302.00,0.0055
3301.00,0.0055
3300.00,0.0055
3299.00,0.0055
3298.00,0.0055
3297.00,0.0055
3296.00,0.0054
3295.00,0.0054
3294.00,0.0054
3293.00,0.0054
3292.00,0.0053
3291.00,0.0053
3290.00,0.0052
3289.00,0.0052
3288.00,0.0051
3287.00,0.0051
3286.00,0.0050
3285.00,0.0050
3284.00,0.0049
3283.00,0.0049
3282.00,0.0049
3281.00,0.0049
3280.00,0.0049
3279.00,0.0050
3278.00,0.0049
3277.00,0.0049
3276.00,0.0049
3275.00,0.0049
3274.00,0.0048
3273.00,0.0048
3272.00,0.0048
3271.00,0.0048
3270.00,0.0048
3269.00,0.0047
3268.00,0.0047
3267.00,0.0047
3266.00,0.0047
3265.00,0.0047
3264.00,0.0047
3263.00,0.0047
3262.00,0.0046
3261.00,0.0046
3260.00,0.0046
3259.00,0.0046
3258.00,0.0046
3257.00,0.0046
3256.00,0.0046
3255.00,0.0045
3254.00,0.0045
3253.00,0.0045
3252.00,0.0044
3251.00,0.0044
3250.00,0.0044
3249.00,0.0043
3248.00,0.0043
3247.00,0.0043
3246.00,0.0043
3245.00,0.0042
3244.00,0.0042
3243.00,0.0042
3242.00,0.0042
3241.00,0.0042
3240.00,0.0043
3239.00,0.0043
3238.00,0.0043
3237.00,0.0044
3236.00,0.0044
3235.00,0.0044
3234.00,0.0044
3233.00,0.0044
3232.00,0.0044
3231.00,0.0044
3230.00,0.0044
3229.00,0.0044
3228.00,0.0044
3227.00,0.0043
3226.00,0.0043
3225.00,0.0043
3224.00,0.0044
3223.00,0.0044
3222.00,0.0045
3221.00,0.0045
3220.00,0.0045
3219.00,0.0045
3218.00,0.0044
3217.00,0.0045
3216.00,0.0045
3215.00,0.0045
3214.00,0.0045
3213.00,0.0045
3212.00,0.0046
3211.00,0.0046
3210.00,0.0046
3209.00,0.0046
3208.00,0.0046
3207.00,0.0046
3206.00,0.0046
3205.00,0.0046
3204.00,0.0047
3203.00,0.0047
3202.00,0.0047
3201.00,0.0047
3200.00,0.0047
3199.00,0.0047
3198.00,0.0046
3197.00,0.0046
3196.00,0.0046
3195.00,0.0046
3194.00,0.0046
3193.00,0.0046
3192.00,0.0046
3191.00,0.0046
3190.00,0.0046
3189.00,0.0046
3188.00,0.0045
3187.00,0.0045
3186.00,0.0045
3185.00,0.0045
3184.00,0.0045
3183.00,0.0045
3182.00,0.0045
3181.00,0.0044
3180.00,0.0044
3179.00,0.0044
3178.00,0.0044
3177.00,0.0043
3176.00,0.0043
3175.00,0.0043
3174.00,0.0042
3173.00,0.0042
3172.00,0.0042
3171.00,0.0042
3170.00,0.0041
3169.00,0.0041
3168.00,0.0041
3167.00,0.0041
3166.00,0.0041
3165.00,0.0041
3164.00,0.0041
3163.00,0.0041
3162.00,0.0041
3161.00,0.0041
3160.00,0.0041
3159.00,0.0040
3158.00,0.0040
3157.00,0.0040
3156.00,0.0040
3155.00,0.0040
3154.00,0.0040
3153.00,0.0040
3152.00,0.0040
3151.00,0.0040
3150.00,0.0040
3149.00,0.0040
3148.00,0.0039
3147.00,0.0039
3146.00,0.0039
3145.00,0.0039
3144.00,0.0039
3143.00,0.0038
3142.00,0.0038
3141.00,0.0038
3140.00,0.0038
3139.00,0.0038
3138.00,0.0038
3137.00,0.0038
3136.00,0.0038
3135.00,0.0038
3134.00,0.0038
3133.00,0.0037
3132.00,0.0037
3131.00,0.0037
3130.00,0.0037
3129.00,0.0037
3128.00,0.0037
3127.00,0.0037
3126.00,0.0036
3125.00,0.0035
3124.00,0.0034
3123.00,0.0034
3122.00,0.0034
3121.00,0.0034
3120.00,0.0034
3119.00,0.0034
3118.00,0.0033
3117.00,0.0033
3116.00,0.0033
3115.00,0.0033
3114.00,0.0032
3113.00,0.0032
3112.00,0.0032
3111.00,0.0032
3110.00,0.0031
3109.00,0.0031
3108.00,0.0031
3107.00,0.0031
3106.00,0.0031
3105.00,0.0031
3104.00,0.0031
3103.00,0.0031
3102.00,0.0031
3101.00,0.0031
3100.00,0.0031
3099.00,0.0031
3098.00,0.0031
3097.00,0.0031
3096.00,0.0031
3095.00,0.0031
3094.00,0.0031
3093.00,0.0031
3092.00,0.0030
3091.00,0.0030
3090.00,0.0031
3089.00,0.0031
3088.00,0.0031
3087.00,0.0031
3086.00,0.0031
3085.00,0.0031
3084.00,0.0030
3083.00,0.0030
3082.00,0.0029
3081.00,0.0029
3080.00,0.0029
3079.00,0.0030
3078.00,0.0030
3077.00,0.0030
3076.00,0.0029
3075.00,0.0030
3074.00,0.0030
3073.00,0.0030
3072.00,0.0031
3071.00,0.0031
3070.00,0.0031
3069.00,0.0031
3068.00,0.0032
3067.00,0.0032
3066.00,0.0032
3065.00,0.0033
3064.00,0.0033
3063.00,0.0033
3062.00,0.0033
3061.00,0.0033
3060.00,0.0033
3059.00,0.0032
3058.00,0.0032
3057.00,0.0033
3056.00,0.0033
3055.00,0.0034
3054.00,0.0034
3053.00,0.0034
3052.00,0.0034
3051.00,0.0034
3050.00,0.0034
3049.00,0.0034
3048.00,0.0035
3047.00,0.0035
3046.00,0.0036
3045.00,0.0036
3044.00,0.0036
3043.00,0.0036
3042.00,0.0036
3041.00,0.0036
3040.00,0.0037
3039.00,0.0037
3038.00,0.0038
3037.00,0.0038
3036.00,0.0038
3035.00,0.0039
3034.00,0.0039
3033.00,0.0040
3032.00,0.0041
3031.00,0.0041
3030.00,0.0042
3029.00,0.0042
3028.00,0.0043
3027.00,0.0043
3026.00,0.0044
3025.00,0.0044
3024.00,0.0044
3023.00,0.0045
3022.00,0.0046
3021.00,0.0047
3020.00,0.0047
3019.00,0.0047
3018.00,0.0048
3017.00,0.0049
3016.00,0.0050
3015.00,0.0050
3014.00,0.0051
3013.00,0.0052
3012.00,0.0053
3011.00,0.0054
3010.00,0.0056
3009.00,0.0057
3008.00,0.0058
3007.00,0.0060
3006.00,0.0061
3005.00,0.0062
3004.00,0.0064
3003.00,0.0066
3002.00,0.0068
3001.00,0.0070
3000.00,0.0072
2999.00,0.0075
2998.00,0.0078
2997.00,0.0080
2996.00,0.0084
2995.00,0.0087
2994.00,0.0091
2993.00,0.0095
2992.00,0.0100
2991.00,0.0106
2990.00,0.0112
2989.00,0.0119
2988.00,0.0126
2987.00,0.0134
2986.00,0.0142
2985.00,0.0151
2984.00,0.0162
2983.00,0.0173
2982.00,0.0187
2981.00,0.0203
2980.00,0.0221
2979.00,0.0242
2978.00,0.0266
2977.00,0.0293
2976.00,0.0323
2975.00,0.0358
2974.00,0.0396
2973.00,0.0440
2972.00,0.0490
2971.00,0.0545
2970.00,0.0606
2969.00,0.0672
2968.00,0.0743
2967.00,0.0817
2966.00,0.0892
2965.00,0.0968
2964.00,0.1039
2963.00,0.1104
2962.00,0.1160
2961.00,0.1207
2960.00,0.1247
2959.00,0.1286
2958.00,0.1328
2957.00,0.1381
2956.00,0.1446
2955.00,0.1527
2954.00,0.1618
2953.00,0.1714
2952.00,0.1802
2951.00,0.1868
2950.00,0.1900
2949.00,0.1888
2948.00,0.1831
2947.00,0.1734
2946.00,0.1612
2945.00,0.1482
2944.00,0.1357
2943.00,0.1250
2942.00,0.1166
2941.00,0.1107
2940.00,0.1074
2939.00,0.1065
2938.00,0.1076
2937.00,0.1106
2936.00,0.1153
2935.00,0.1214
2934.00,0.1290
2933.00,0.1379
2932.00,0.1480
2931.00,0.1592
2930.00,0.1712
2929.00,0.1836
2928.00,0.1962
2927.00,0.2088
2926.00,0.2211
2925.00,0.2331
2924.00,0.2451
2923.00,0.2571
2922.00,0.2692
2921.00,0.2811
2920.00,0.2919
2919.00,0.3004
2918.00,0.3051
2917.00,0.3051
2916.00,0.3001
2915.00,0.2907
2914.00,0.2784
2913.00,0.2647
2912.00,0.2511
2911.00,0.2385
2910.00,0.2271
2909.00,0.2169
2908.00,0.2076
2907.00,0.1990
2906.00,0.1908
2905.00,0.1829
2904.00,0.1751
2903.00,0.1676
2902.00,0.1604
2901.00,0.1534
2900.00,0.1468
2899.00,0.1406
2898.00,0.1348
2897.00,0.1296
2896.00,0.1248
2895.00,0.1207
2894.00,0.1172
2893.00,0.1144
2892.00,0.1122
2891.00,0.1107
2890.00,0.1096
2889.00,0.1090
2888.00,0.1088
2887.00,0.1089
2886.00,0.1094
2885.00,0.1102
2884.00,0.1115
2883.00,0.1133
2882.00,0.1156
2881.00,0.1182
2880.00,0.1209
2879.00,0.1232
2878.00,0.1247
2877.00,0.1253
2876.00,0.1250
2875.00,0.1242
2874.00,0.1236
2873.00,0.1235
2872.00,0.1242
2871.00,0.1258
2870.00,0.1279
2869.00,0.1300
2868.00,0.1314
2867.00,0.1314
2866.00,0.1291
2865.00,0.1243
2864.00,0.1174
2863.00,0.1094
2862.00,0.1013
2861.00,0.0941
2860.00,0.0884
2859.00,0.0845
2858.00,0.0822
2857.00,0.0813
2856.00,0.0815
2855.00,0.0826
2854.00,0.0843
2853.00,0.0864
2852.00,0.0884
2851.00,0.0902
2850.00,0.0915
2849.00,0.0922
2848.00,0.0927
2847.00,0.0936
2846.00,0.0952
2845.00,0.0979
2844.00,0.1017
2843.00,0.1064
2842.00,0.1114
2841.00,0.1162
2840.00,0.1198
2839.00,0.1216
2838.00,0.1209
2837.00,0.1173
2836.00,0.1109
2835.00,0.1021
2834.00,0.0919
2833.00,0.0813
2832.00,0.0712
2831.00,0.0622
2830.00,0.0546
2829.00,0.0484
2828.00,0.0433
2827.00,0.0393
2826.00,0.0359
2825.00,0.0332
2824.00,0.0309
2823.00,0.0289
2822.00,0.0273
2821.00,0.0259
2820.00,0.0247
2819.00,0.0236
2818.00,0.0227
2817.00,0.0218
2816.00,0.0211
2815.00,0.0204
2814.00,0.0198
2813.00,0.0193
2812.00,0.0187
2811.00,0.0181
2810.00,0.0175
2809.00,0.0169
2808.00,0.0162
2807.00,0.0156
2806.00,0.0149
2805.00,0.0142
2804.00,0.0135
2803.00,0.0130
2802.00,0.0124
2801.00,0.0120
2800.00,0.0116
2799.00,0.0113
2798.00,0.0110
2797.00,0.0108
2796.00,0.0105
2795.00,0.0103
2794.00,0.0100
2793.00,0.0097
2792.00,0.0095
2791.00,0.0092
2790.00,0.0089
2789.00,0.0086
2788.00,0.0084
2787.00,0.0081
2786.00,0.0078
2785.00,0.0076
2784.00,0.0073
2783.00,0.0071
2782.00,0.0069
2781.00,0.0067
2780.00,0.0066
2779.00,0.0065
2778.00,0.0063
2777.00,0.0062
2776.00,0.0061
2775.00,0.0059
2774.00,0.0058
2773.00,0.0057
2772.00,0.0056
2771.00,0.0056
2770.00,0.0056
2769.00,0.0056
2768.00,0.0055
2767.00,0.0055
2766.00,0.0054
2765.00,0.0054
2764.00,0.0054
2763.00,0.0054
2762.00,0.0053
2761.00,0.0053
2760.00,0.0053
2759.00,0.0052
2758.00,0.0052
2757.00,0.0052
2756.00,0.0052
2755.00,0.0052
2754.00,0.0052
2753.00,0.0051
2752.00,0.0051
2751.00,0.0051
2750.00,0.0051
2749.00,0.0051
2748.00,0.0051
2747.00,0.0052
2746.00,0.0052
2745.00,0.0053
2744.00,0.0054
2743.00,0.0054
2742.00,0.0055
2741.00,0.0056
2740.00,0.0057
2739.00,0.0058
2738.00,0.0059
2737.00,0.0060
2736.00,0.0062
2735.00,0.0064
2734.00,0.0065
2733.00,0.0067
2732.00,0.0069
2731.00,0.0070
2730.00,0.0073
2729.00,0.0075
2728.00,0.0077
2727.00,0.0080
2726.00,0.0083
2725.00,0.0086
2724.00,0.0087
2723.00,0.0088
2722.00,0.0088
2721.00,0.0086
2720.00,0.0084
2719.00,0.0081
2718.00,0.0077
2717.00,0.0073
2716.00,0.0070
2715.00,0.0067
2714.00,0.0064
2713.00,0.0062
2712.00,0.0060
2711.00,0.0058
2710.00,0.0056
2709.00,0.0055
2708.00,0.0053
2707.00,0.0052
2706.00,0.0050
2705.00,0.0049
2704.00,0.0048
2703.00,0.0047
2702.00,0.0047
2701.00,0.0046
2700.00,0.0046
2699.00,0.0045
2698.00,0.0044
2697.00,0.0044
2696.00,0.0044
2695.00,0.0044
2694.00,0.0044
2693.00,0.0044
2692.00,0.0044
2691.00,0.0044
2690.00,0.0044
2689.00,0.0044
2688.00,0.0044
2687.00,0.0044
2686.00,0.0044
2685.00,0.0043
2684.00,0.0044
2683.00,0.0044
2682.00,0.0044
2681.00,0.0044
2680.00,0.0045
2679.00,0.0045
2678.00,0.0045
2677.00,0.0045
2676.00,0.0045
2675.00,0.0045
2674.00,0.0045
2673.00,0.0045
2672.00,0.0044
2671.00,0.0044
2670.00,0.0043
2669.00,0.0043
2668.00,0.0043
2667.00,0.0044
2666.00,0.0044
2665.00,0.0045
2664.00,0.0046
2663.00,0.0046
2662.00,0.0047
2661.00,0.0047
2660.00,0.0047
2659.00,0.0047
2658.00,0.0047
2657.00,0.0047
2656.00,0.0046
2655.00,0.0046
2654.00,0.0045
2653.00,0.0045
2652.00,0.0044
2651.00,0.0044
2650.00,0.0044
2649.00,0.0043
2648.00,0.0043
2647.00,0.0042
2646.00,0.0042
2645.00,0.0041
2644.00,0.0041
2643.00,0.0040
2642.00,0.0039
2641.00,0.0039
2640.00,0.0038
2639.00,0.0038
2638.00,0.0038
2637.00,0.0038
2636.00,0.0037
2635.00,0.0037
2634.00,0.0037
2633.00,0.0037
2632.00,0.0037
2631.00,0.0037
2630.00,0.0038
2629.00,0.0038
2628.00,0.0038
2627.00,0.0039
2626.00,0.0039
2625.00,0.0040
2624.00,0.0039
2623.00,0.0039
2622.00,0.0039
2621.00,0.0039
2620.00,0.0039
2619.00,0.0040
2618.00,0.0040
2617.00,0.0040
2616.00,0.0040
2615.00,0.0040
2614.00,0.0039
2613.00,0.0039
2612.00,0.0038
2611.00,0.0038
2610.00,0.0037
2609.00,0.0036
2608.00,0.0035
2607.00,0.0034
2606.00,0.0034
2605.00,0.0033
2604.00,0.0033
2603.00,0.0033
2602.00,0.0032
2601.00,0.0033
2600.00,0.0033
2599.00,0.0033
2598.00,0.0033
2597.00,0.0032
2596.00,0.0032
2595.00,0.0032
2594.00,0.0032
2593.00,0.0033
2592.00,0.0033
2591.00,0.0033
2590.00,0.0034
2589.00,0.0035
2588.00,0.0036
2587.00,0.0037
2586.00,0.0037
2585.00,0.0038
2584.00,0.0039
2583.00,0.0039
2582.00,0.0039
2581.00,0.0039
2580.00,0.0038
2579.00,0.0037
2578.00,0.0036
2577.00,0.0035
2576.00,0.0034
2575.00,0.0032
2574.00,0.0030
2573.00,0.0029
2572.00,0.0028
2571.00,0.0027
2570.00,0.0027
2569.00,0.0026
2568.00,0.0026
2567.00,0.0026
2566.00,0.0025
2565.00,0.0025
2564.00,0.0024
2563.00,0.0024
2562.00,0.0023
2561.00,0.0023
2560.00,0.0023
2559.00,0.0023
2558.00,0.0022
2557.00,0.0022
2556.00,0.0021
2555.00,0.0021
2554.00,0.0021
2553.00,0.0020
2552.00,0.0020
2551.00,0.0020
2550.00,0.0020
2549.00,0.0020
2548.00,0.0020
2547.00,0.0020
2546.00,0.0019
2545.00,0.0019
2544.00,0.0018
2543.00,0.0018
2542.00,0.0017
2541.00,0.0017
2540.00,0.0017
2539.00,0.0017
2538.00,0.0017
2537.00,0.0017
2536.00,0.0017
2535.00,0.0016
2534.00,0.0015
2533.00,0.0015
2532.00,0.0015
2531.00,0.0015
2530.00,0.0015
2529.00,0.0015
2528.00,0.0014
2527.00,0.0013
2526.00,0.0012
2525.00,0.0012
2524.00,0.0012
2523.00,0.0012
2522.00,0.0012
2521.00,0.0012
2520.00,0.0012
2519.00,0.0011
2518.00,0.0011
2517.00,0.0011
2516.00,0.0012
2515.00,0.0012
2514.00,0.0011
2513.00,0.0011
2512.00,0.0010
2511.00,0.0009
2510.00,0.0009
2509.00,0.0009
2508.00,0.0010
2507.00,0.0010
2506.00,0.0010
2505.00,0.0010
2504.00,0.0009
2503.00,0.0009
2502.00,0.0009
2501.00,0.0010
2500.00,0.0010
2499.00,0.0010
2498.00,0.0010
2497.00,0.0009
2496.00,0.0009
2495.00,0.0008
2494.00,0.0008
2493.00,0.0008
2492.00,0.0008
2491.00,0.0008
2490.00,0.0008
2489.00,0.0009
2488.00,0.0009
2487.00,0.0009
2486.00,0.0008
2485.00,0.0008
2484.00,0.0008
2483.00,0.0008
2482.00,0.0008
2481.00,0.0008
2480.00,0.0008
2479.00,0.0009
2478.00,0.0009
2477.00,0.0009
2476.00,0.0009
2475.00,0.0008
2474.00,0.0007
2473.00,0.0007
2472.00,0.0008
2471.00,0.0008
2470.00,0.0008
2469.00,0.0008
2468.00,0.0008
2467.00,0.0008
2466.00,0.0008
2465.00,0.0007
2464.00,0.0007
2463.00,0.0007
2462.00,0.0008
2461.00,0.0008
2460.00,0.0008
2459.00,0.0008
2458.00,0.0009
2457.00,0.0009
2456.00,0.0009
2455.00,0.0009
2454.00,0.0009
2453.00,0.0009
2452.00,0.0010
2451.00,0.0010
2450.00,0.0010
2449.00,0.0010
2448.00,0.0009
2447.00,0.0009
2446.00,0.0008
2445.00,0.0008
2444.00,0.0008
2443.00,0.0008
2442.00,0.0008
2441.00,0.0009
2440.00,0.0009
2439.00,0.0009
2438.00,0.0009
2437.00,0.0009
2436.00,0.0009
2435.00,0.0010
2434.00,0.0010
2433.00,0.0011
2432.00,0.0011
2431.00,0.0011
2430.00,0.0011
2429.00,0.0011
2428.00,0.0010
2427.00,0.0010
2426.00,0.0010
2425.00,0.0009
2424.00,0.0009
2423.00,0.0009
2422.00,0.0008
2421.00,0.0008
2420.00,0.0008
2419.00,0.0008
2418.00,0.0009
2417.00,0.0009
2416.00,0.0009
2415.00,0.0009
2414.00,0.0010
2413.00,0.0010
2412.00,0.0010
2411.00,0.0009
2410.00,0.0008
2409.00,0.0007
2408.00,0.0006
2407.00,0.0006
2406.00,0.0005
2405.00,0.0005
2404.00,0.0005
2403.00,0.0005
2402.00,0.0005
2401.00,0.0005
2400.00,0.0006
2399.00,0.0006
2398.00,0.0006
2397.00,0.0007
2396.00,0.0007
2395.00,0.0006
2394.00,0.0006
2393.00,0.0006
2392.00,0.0006
2391.00,0.0007
2390.00,0.0007
2389.00,0.0006
2388.00,0.0006
2387.00,0.0006
2386.00,0.0006
2385.00,0.0005
2384.00,0.0004
2383.00,0.0003
2382.00,0.0001
2381.00,0.0000
2380.00,-0.0000
2379.00,-0.0001
2378.00,-0.0001
2377.00,-0.0001
2376.00,-0.0001
2375.00,-0.0000
2374.00,0.0000
2373.00,0.0001
2372.00,0.0000
2371.00,-0.0000
2370.00,-0.0001
2369.00,-0.0002
2368.00,-0.0002
2367.00,-0.0002
2366.00,-0.0002
2365.00,-0.0001
2364.00,-0.0001
2363.00,-0.0000
2362.00,0.0000
2361.00,0.0000
2360.00,0.0001
2359.00,0.0001
2358.00,0.0001
2357.00,0.0001
2356.00,0.0001
2355.00,0.0001
2354.00,0.0000
2353.00,0.0000
2352.00,-0.0000
2351.00,0.0000
2350.00,0.0001
2349.00,0.0001
2348.00,0.0002
2347.00,0.0002
2346.00,0.0002
2345.00,0.0002
2344.00,0.0002
2343.00,0.0003
2342.00,0.0003
2341.00,0.0004
2340.00,0.0004
2339.00,0.0004
2338.00,0.0004
2337.00,0.0005
2336.00,0.0005
2335.00,0.0005
2334.00,0.0004
2333.00,0.0003
2332.00,0.0003
2331.00,0.0003
2330.00,0.0004
2329.00,0.0005
2328.00,0.0007
2327.00,0.0010
2326.00,0.0013
2325.00,0.0017
2324.00,0.0018
2323.00,0.0017
2322.00,0.0015
2321.00,0.0013
2320.00,0.0011
2319.00,0.0010
2318.00,0.0009
2317.00,0.0008
2316.00,0.0008
2315.00,0.0007
2314.00,0.0007
2313.00,0.0006
2312.00,0.0006
2311.00,0.0007
2310.00,0.0007
2309.00,0.0007
2308.00,0.0007
2307.00,0.0008
2306.00,0.0008
2305.00,0.0009
2304.00,0.0009
2303.00,0.0010
2302.00,0.0010
2301.00,0.0011
2300.00,0.0011
2299.00,0.0011
2298.00,0.0011
2297.00,0.0011
2296.00,0.0012
2295.00,0.0012
2294.00,0.0013
2293.00,0.0015
2292.00,0.0016
2291.00,0.0016
2290.00,0.0016
2289.00,0.0016
2288.00,0.0016
2287.00,0.0017
2286.00,0.0018
2285.00,0.0017
2284.00,0.0017
2283.00,0.0016
2282.00,0.0015
2281.00,0.0014
2280.00,0.0015
2279.00,0.0015
2278.00,0.0015
2277.00,0.0015
2276.00,0.0015
2275.00,0.0015
2274.00,0.0015
2273.00,0.0015
2272.00,0.0015
2271.00,0.0014
2270.00,0.0015
2269.00,0.0015
2268.00,0.0015
2267.00,0.0014
2266.00,0.0013
2265.00,0.0012
2264.00,0.0012
2263.00,0.0011
2262.00,0.0011
2261.00,0.0011
2260.00,0.0010
2259.00,0.0011
2258.00,0.0011
2257.00,0.0011
2256.00,0.0011
2255.00,0.0010
2254.00,0.0010
2253.00,0.0009
2252.00,0.0009
2251.00,0.0008
2250.00,0.0007
2249.00,0.0006
2248.00,0.0006
2247.00,0.0007
2246.00,0.0008
2245.00,0.0008
2244.00,0.0007
2243.00,0.0007
2242.00,0.0008
2241.00,0.0009
2240.00,0.0010
2239.00,0.0010
2238.00,0.0010
2237.00,0.0009
2236.00,0.0009
2235.00,0.0008
2234.00,0.0008
2233.00,0.0008
2232.00,0.0007
2231.00,0.0008
2230.00,0.0008
2229.00,0.0009
2228.00,0.0010
2227.00,0.0011
2226.00,0.0012
2225.00,0.0012
2224.00,0.0011
2223.00,0.0010
2222.00,0.0009
2221.00,0.0009
2220.00,0.0008
2219.00,0.0006
2218.00,0.0005
2217.00,0.0006
2216.00,0.0006
2215.00,0.0007
2214.00,0.0007
2213.00,0.0007
2212.00,0.0006
2211.00,0.0006
2210.00,0.0005
2209.00,0.0005
2208.00,0.0006
2207.00,0.0007
2206.00,0.0008
2205.00,0.0007
2204.00,0.0005
2203.00,0.0004
2202.00,0.0004
2201.00,0.0005
2200.00,0.0007
2199.00,0.0009
2198.00,0.0009
2197.00,0.0009
2196.00,0.0009
2195.00,0.0010
2194.00,0.0011
2193.00,0.0012
2192.00,0.0011
2191.00,0.0009
2190.00,0.0006
2189.00,0.0004
2188.00,0.0003
2187.00,0.0005
2186.00,0.0008
2185.00,0.0011
2184.00,0.0011
2183.00,0.0008
2182.00,0.0005
2181.00,0.0002
2180.00,0.0001
2179.00,0.0002
2178.00,0.0004
2177.00,0.0005
2176.00,0.0004
2175.00,0.0002
2174.00,0.0000
2173.00,0.0000
2172.00,0.0002
2171.00,0.0006
2170.00,0.0010
2169.00,0.0013
2168.00,0.0014
2167.00,0.0012
2166.00,0.0011
2165.00,0.0012
2164.00,0.0016
2163.00,0.0021
2162.00,0.0022
2161.00,0.0017
2160.00,0.0005
2159.00,-0.0012
2158.00,-0.0025
2157.00,-0.0031
2156.00,-0.0030
2155.00,-0.0027
2154.00,-0.0022
2153.00,-0.0019
2152.00,-0.0017
2151.00,-0.0017
2150.00,-0.0016
2149.00,-0.0014
2148.00,-0.0012
2147.00,-0.0011
2146.00,-0.0011
2145.00,-0.0011
2144.00,-0.0011
2143.00,-0.0011
2142.00,-0.0012
2141.00,-0.0013
2140.00,-0.0014
2139.00,-0.0015
2138.00,-0.0016
2137.00,-0.0016
2136.00,-0.0017
2135.00,-0.0018
2134.00,-0.0018
2133.00,-0.0018
2132.00,-0.0016
2131.00,-0.0014
2130.00,-0.0012
2129.00,-0.0010
2128.00,-0.0009
2127.00,-0.0010
2126.00,-0.0010
2125.00,-0.0010
2124.00,-0.0008
2123.00,-0.0006
2122.00,-0.0004
2121.00,-0.0003
2120.00,-0.0002
2119.00,-0.0002
2118.00,-0.0001
2117.00,0.0001
2116.00,0.0002
2115.00,0.0003
2114.00,0.0003
2113.00,0.0003
2112.00,0.0003
2111.00,0.0003
2110.00,0.0003
2109.00,0.0003
2108.00,0.0004
2107.00,0.0004
2106.00,0.0004
2105.00,0.0004
2104.00,0.0004
2103.00,0.0003
2102.00,0.0002
2101.00,0.0002
2100.00,0.0003
2099.00,0.0003
2098.00,0.0003
2097.00,0.0001
2096.00,-0.0002
2095.00,-0.0004
2094.00,-0.0004
2093.00,-0.0003
2092.00,-0.0002
2091.00,-0.0001
2090.00,-0.0000
2089.00,-0.0001
2088.00,-0.0002
2087.00,-0.0002
2086.00,-0.0001
2085.00,0.0001
2084.00,0.0003
2083.00,0.0004
2082.00,0.0003
2081.00,0.0003
2080.00,0.0002
2079.00,0.0003
2078.00,0.0004
2077.00,0.0005
2076.00,0.0006
2075.00,0.0006
2074.00,0.0005
2073.00,0.0004
2072.00,0.0003
2071.00,0.0002
2070.00,0.0001
2069.00,0.0001
2068.00,0.0000
2067.00,0.0000
2066.00,-0.0001
2065.00,-0.0001
2064.00,-0.0002
2063.00,-0.0001
2062.00,-0.0001
2061.00,-0.0001
2060.00,-0.0001
2059.00,-0.0001
2058.00,-0.0000
2057.00,-0.0000
2056.00,-0.0001
2055.00,-0.0001
2054.00,0.0002
2053.00,0.0007
2052.00,0.0015
2051.00,0.0021
2050.00,0.0022
2049.00,0.0017
2048.00,0.0010
2047.00,0.0005
2046.00,0.0003
2045.00,0.0004
2044.00,0.0005
2043.00,0.0006
2042.00,0.0004
2041.00,0.0002
2040.00,-0.0001
2039.00,-0.0003
2038.00,-0.0004
2037.00,-0.0004
2036.00,-0.0002
2035.00,-0.0001
2034.00,-0.0001
2033.00,-0.0002
2032.00,-0.0004
2031.00,-0.0005
2030.00,-0.0006
2029.00,-0.0006
2028.00,-0.0005
2027.00,-0.0005
2026.00,-0.0004
2025.00,-0.0004
2024.00,-0.0006
2023.00,-0.0009
2022.00,-0.0012
2021.00,-0.0014
2020.00,-0.0015
2019.00,-0.0016
2018.00,-0.0017
2017.00,-0.0015
2016.00,-0.0012
2015.00,-0.0009
2014.00,-0.0007
2013.00,-0.0007
2012.00,-0.0009
2011.00,-0.0011
2010.00,-0.0013
2009.00,-0.0017
2008.00,-0.0020
2007.00,-0.0023
2006.00,-0.0024
2005.00,-0.0023
2004.00,-0.0020
2003.00,-0.0017
2002.00,-0.0014
2001.00,-0.0011
2000.00,-0.0009
1999.00,-0.0008
1998.00,-0.0007
1997.00,-0.0005
1996.00,-0.0005
1995.00,-0.0006
1994.00,-0.0008
1993.00,-0.0009
1992.00,-0.0007
1991.00,-0.0004
1990.00,-0.0003
1989.00,-0.0002
1988.00,-0.0002
1987.00,-0.0002
1986.00,-0.0001
1985.00,-0.0000
1984.00,0.0001
1983.00,0.0001
1982.00,0.0002
1981.00,0.0004
1980.00,0.0005
1979.00,0.0002
1978.00,-0.0005
1977.00,-0.0013
1976.00,-0.0019
1975.00,-0.0021
1974.00,-0.0019
1973.00,-0.0016
1972.00,-0.0014
1971.00,-0.0014
1970.00,-0.0017
1969.00,-0.0017
1968.00,-0.0015
1967.00,-0.0013
1966.00,-0.0012
1965.00,-0.0013
1964.00,-0.0015
1963.00,-0.0016
1962.00,-0.0017
1961.00,-0.0017
1960.00,-0.0019
1959.00,-0.0020
1958.00,-0.0020
1957.00,-0.0020
1956.00,-0.0020
1955.00,-0.0019
1954.00,-0.0018
1953.00,-0.0017
1952.00,-0.0016
1951.00,-0.0015
1950.00,-0.0015
1949.00,-0.0014
1948.00,-0.0014
1947.00,-0.0013
1946.00,-0.0013
1945.00,-0.0012
1944.00,-0.0012
1943.00,-0.0011
1942.00,-0.0012
1941.00,-0.0013
1940.00,-0.0014
1939.00,-0.0014
1938.00,-0.0013
1937.00,-0.0012
1936.00,-0.0011
1935.00,-0.0011
1934.00,-0.0011
1933.00,-0.0011
1932.00,-0.0010
1931.00,-0.0008
1930.00,-0.0007
1929.00,-0.0005
1928.00,-0.0004
1927.00,-0.0005
1926.00,-0.0005
1925.00,-0.0006
1924.00,-0.0005
1923.00,-0.0004
1922.00,-0.0004
1921.00,-0.0004
1920.00,-0.0004
1919.00,-0.0004
1918.00,-0.0004
1917.00,-0.0005
1916.00,-0.0005
1915.00,-0.0004
1914.00,-0.0004
1913.00,-0.0003
1912.00,-0.0001
1911.00,-0.0000
1910.00,0.0000
1909.00,0.0000
1908.00,0.0000
1907.00,-0.0000
1906.00,-0.0001
1905.00,-0.0000
1904.00,-0.0000
1903.00,-0.0001
1902.00,-0.0001
1901.00,-0.0002
1900.00,-0.0002
1899.00,-0.0002
1898.00,-0.0002
1897.00,-0.0002
1896.00,-0.0002
1895.00,-0.0002
1894.00,-0.0001
1893.00,-0.0000
1892.00,0.0001
1891.00,0.0001
1890.00,0.0000
1889.00,-0.0001
1888.00,-0.0001
1887.00,-0.0002
1886.00,-0.0002
1885.00,-0.0002
1884.00,-0.0002
1883.00,-0.0002
1882.00,-0.0002
1881.00,-0.0001
1880.00,-0.0001
1879.00,-0.0002
1878.00,-0.0003
1877.00,-0.0005
1876.00,-0.0005
1875.00,-0.0005
1874.00,-0.0005
1873.00,-0.0004
1872.00,-0.0003
1871.00,-0.0002
1870.00,-0.0002
1869.00,-0.0001
1868.00,-0.0001
1867.00,-0.0000
1866.00,0.0000
1865.00,0.0000
1864.00,0.0001
1863.00,0.0001
1862.00,0.0000
1861.00,0.0000
1860.00,0.0000
1859.00,0.0001
1858.00,0.0001
1857.00,0.0001
1856.00,0.0001
1855.00,0.0000
1854.00,0.0001
1853.00,0.0001
1852.00,0.0002
1851.00,0.0002
1850.00,0.0002
1849.00,0.0001
1848.00,0.0000
1847.00,-0.0001
1846.00,-0.0001
1845.00,-0.0000
1844.00,0.0000
1843.00,0.0001
1842.00,0.0001
1841.00,0.0001
1840.00,0.0001
1839.00,0.0002
1838.00,0.0002
1837.00,0.0002
1836.00,0.0002
1835.00,0.0002
1834.00,0.0002
1833.00,0.0001
1832.00,0.0001
1831.00,0.0001
1830.00,0.0001
1829.00,0.0001
1828.00,0.0001
1827.00,0.0001
1826.00,0.0001
1825.00,0.0002
1824.00,0.0002
1823.00,0.0002
1822.00,0.0001
1821.00,0.0001
1820.00,0.0000
1819.00,-0.0000
1818.00,-0.0001
1817.00,-0.0002
1816.00,-0.0002
1815.00,-0.0001
1814.00,0.0000
1813.00,0.0002
1812.00,0.0002
1811.00,0.0002
1810.00,0.0002
1809.00,0.0002
1808.00,0.0002
1807.00,0.0003
1806.00,0.0003
1805.00,0.0003
1804.00,0.0003
1803.00,0.0004
1802.00,0.0004
1801.00,0.0005
1800.00,0.0005
1799.00,0.0005
1798.00,0.0004
1797.00,0.0005
1796.00,0.0005
1795.00,0.0005
1794.00,0.0005
1793.00,0.0005
1792.00,0.0006
1791.00,0.0007
1790.00,0.0008
1789.00,0.0008
1788.00,0.0009
1787.00,0.0008
1786.00,0.0008
1785.00,0.0008
1784.00,0.0009
1783.00,0.0009
1782.00,0.0009
1781.00,0.0009
1780.00,0.0009
1779.00,0.0009
1778.00,0.0009
1777.00,0.0009
1776.00,0.0009
1775.00,0.0009
1774.00,0.0010
1773.00,0.0011
1772.00,0.0011
1771.00,0.0012
1770.00,0.0012
1769.00,0.0013
1768.00,0.0013
1767.00,0.0014
1766.00,0.0014
1765.00,0.0014
1764.00,0.0015
1763.00,0.0015
1762.00,0.0016
1761.00,0.0016
1760.00,0.0017
1759.00,0.0017
1758.00,0.0018
1757.00,0.0019
1756.00,0.0020
1755.00,0.0020
1754.00,0.0021
1753.00,0.0022
1752.00,0.0022
1751.00,0.0022
1750.00,0.0023
1749.00,0.0023
1748.00,0.0024
1747.00,0.0024
1746.00,0.0024
1745.00,0.0024
1744.00,0.0024
1743.00,0.0025
1742.00,0.0025
1741.00,0.0025
1740.00,0.0025
1739.00,0.0025
1738.00,0.0025
1737.00,0.0025
1736.00,0.0025
1735.00,0.0024
1734.00,0.0024
1733.00,0.0024
1732.00,0.0024
1731.00,0.0024
1730.00,0.0023
1729.00,0.0024
1728.00,0.0024
1727.00,0.0025
1726.00,0.0025
1725.00,0.0026
1724.00,0.0027
1723.00,0.0027
1722.00,0.0028
1721.00,0.0029
1720.00,0.0029
1719.00,0.0029
1718.00,0.0029
1717.00,0.0028
1716.00,0.0028
1715.00,0.0028
1714.00,0.0027
1713.00,0.0026
1712.00,0.0025
1711.00,0.0025
1710.00,0.0024
1709.00,0.0024
1708.00,0.0024
1707.00,0.0024
1706.00,0.0024
1705.00,0.0025
1704.00,0.0025
1703.00,0.0025
1702.00,0.0025
1701.00,0.0025
1700.00,0.0026
1699.00,0.0026
1698.00,0.0026
1697.00,0.0027
1696.00,0.0027
1695.00,0.0027
1694.00,0.0027
1693.00,0.0028
1692.00,0.0029
1691.00,0.0029
1690.00,0.0030
1689.00,0.0031
1688.00,0.0032
1687.00,0.0032
1686.00,0.0032
1685.00,0.0033
1684.00,0.0034
1683.00,0.0036
1682.00,0.0036
1681.00,0.0037
1680.00,0.0038
1679.00,0.0038
1678.00,0.0039
1677.00,0.0040
1676.00,0.0040
1675.00,0.0041
1674.00,0.0041
1673.00,0.0042
1672.00,0.0042
1671.00,0.0043
1670.00,0.0044
1669.00,0.0045
1668.00,0.0045
1667.00,0.0045
1666.00,0.0046
1665.00,0.0046
1664.00,0.0046
1663.00,0.0047
1662.00,0.0047
1661.00,0.0048
1660.00,0.0048
1659.00,0.0049
1658.00,0.0049
1657.00,0.0050
1656.00,0.0050
1655.00,0.0051
1654.00,0.0052
1653.00,0.0054
1652.00,0.0055
1651.00,0.0055
1650.00,0.0056
1649.00,0.0056
1648.00,0.0058
1647.00,0.0059
1646.00,0.0060
1645.00,0.0061
1644.00,0.0061
1643.00,0.0061
1642.00,0.0062
1641.00,0.0063
1640.00,0.0064
1639.00,0.0065
1638.00,0.0066
1637.00,0.0067
1636.00,0.0068
1635.00,0.0068
1634.00,0.0067
1633.00,0.0066
1632.00,0.0065
1631.00,0.0064
1630.00,0.0064
1629.00,0.0063
1628.00,0.0063
1627.00,0.0063
1626.00,0.0062
1625.00,0.0062
1624.00,0.0062
1623.00,0.0062
1622.00,0.0061
1621.00,0.0061
1620.00,0.0061
1619.00,0.0061
1618.00,0.0061
1617.00,0.0061
1616.00,0.0061
1615.00,0.0062
1614.00,0.0062
1613.00,0.0062
1612.00,0.0061
1611.00,0.0061
1610.00,0.0061
1609.00,0.0062
1608.00,0.0062
1607.00,0.0063
1606.00,0.0062
1605.00,0.0062
1604.00,0.0062
1603.00,0.0062
1602.00,0.0061
1601.00,0.0061
1600.00,0.0061
1599.00,0.0061
1598.00,0.0060
1597.00,0.0060
1596.00,0.0060
1595.00,0.0060
1594.00,0.0060
1593.00,0.0059
1592.00,0.0059
1591.00,0.0059
1590.00,0.0059
1589.00,0.0059
1588.00,0.0059
1587.00,0.0058
1586.00,0.0058
1585.00,0.0058
1584.00,0.0059
1583.00,0.0059
1582.00,0.0059
1581.00,0.0060
1580.00,0.0060
1579.00,0.0060
1578.00,0.0060
1577.00,0.0060
1576.00,0.0061
1575.00,0.0061
1574.00,0.0060
1573.00,0.0061
1572.00,0.0061
1571.00,0.0061
1570.00,0.0061
1569.00,0.0061
1568.00,0.0062
1567.00,0.0062
1566.00,0.0061
1565.00,0.0061
1564.00,0.0062
1563.00,0.0062
1562.00,0.0062
1561.00,0.0062
1560.00,0.0062
1559.00,0.0062
1558.00,0.0062
1557.00,0.0062
1556.00,0.0063
1555.00,0.0064
1554.00,0.0064
1553.00,0.0064
1552.00,0.0064
1551.00,0.0064
1550.00,0.0064
1549.00,0.0064
1548.00,0.0065
1547.00,0.0065
1546.00,0.0065
1545.00,0.0066
1544.00,0.0066
1543.00,0.0066
1542.00,0.0065
1541.00,0.0064
1540.00,0.0063
1539.00,0.0062
1538.00,0.0061
1537.00,0.0060
1536.00,0.0060
1535.00,0.0058
1534.00,0.0057
1533.00,0.0056
1532.00,0.0055
1531.00,0.0054
1530.00,0.0054
1529.00,0.0053
1528.00,0.0053
1527.00,0.0052
1526.00,0.0052
1525.00,0.0051
1524.00,0.0052
1523.00,0.0052
1522.00,0.0052
1521.00,0.0053
1520.00,0.0054
1519.00,0.0054
1518.00,0.0055
1517.00,0.0055
1516.00,0.0055
1515.00,0.0055
1514.00,0.0054
1513.00,0.0055
1512.00,0.0056
1511.00,0.0057
1510.00,0.0057
1509.00,0.0058
1508.00,0.0060
1507.00,0.0061
1506.00,0.0062
1505.00,0.0063
1504.00,0.0064
1503.00,0.0065
1502.00,0.0067
1501.00,0.0069
1500.00,0.0072
1499.00,0.0074
1498.00,0.0076
1497.00,0.0080
1496.00,0.0084
1495.00,0.0087
1494.00,0.0089
1493.00,0.0092
1492.00,0.0096
1491.00,0.0101
1490.00,0.0105
1489.00,0.0111
1488.00,0.0116
1487.00,0.0121
1486.00,0.0125
1485.00,0.0131
1484.00,0.0137
1483.00,0.0144
1482.00,0.0152
1481.00,0.0163
1480.00,0.0174
1479.00,0.0186
1478.00,0.0200
1477.00,0.0221
1476.00,0.0248
1475.00,0.0279
1474.00,0.0320
1473.00,0.0380
1472.00,0.0450
1471.00,0.0516
1470.00,0.0580
1469.00,0.0648
1468.00,0.0721
1467.00,0.0801
1466.00,0.0894
1465.00,0.0994
1464.00,0.1081
1463.00,0.1139
1462.00,0.1175
1461.00,0.1197
1460.00,0.1210
1459.00,0.1216
1458.00,0.1218
1457.00,0.1216
1456.00,0.1205
1455.00,0.1190
1454.00,0.1172
1453.00,0.1149
1452.00,0.1117
1451.00,0.1075
1450.00,0.1020
1449.00,0.0947
1448.00,0.0857
1447.00,0.0763
1446.00,0.0680
1445.00,0.0610
1444.00,0.0551
1443.00,0.0503
1442.00,0.0467
1441.00,0.0443
1440.00,0.0429
1439.00,0.0425
1438.00,0.0429
1437.00,0.0435
1436.00,0.0430
1435.00,0.0407
1434.00,0.0371
1433.00,0.0327
1432.00,0.0281
1431.00,0.0240
1430.00,0.0208
1429.00,0.0184
1428.00,0.0167
1427.00,0.0157
1426.00,0.0150
1425.00,0.0144
1424.00,0.0138
1423.00,0.0135
1422.00,0.0134
1421.00,0.0132
1420.00,0.0128
1419.00,0.0126
1418.00,0.0124
1417.00,0.0121
1416.00,0.0118
1415.00,0.0117
1414.00,0.0116
1413.00,0.0114
1412.00,0.0113
1411.00,0.0112
1410.00,0.0112
1409.00,0.0111
1408.00,0.0110
1407.00,0.0110
1406.00,0.0111
1405.00,0.0111
1404.00,0.0111
1403.00,0.0111
1402.00,0.0113
1401.00,0.0113
1400.00,0.0114
1399.00,0.0116
1398.00,0.0118
1397.00,0.0120
1396.00,0.0122
1395.00,0.0126
1394.00,0.0130
1393.00,0.0135
1392.00,0.0140
1391.00,0.0148
1390.00,0.0158
1389.00,0.0173
1388.00,0.0193
1387.00,0.0224
1386.00,0.0267
1385.00,0.0322
1384.00,0.0398
1383.00,0.0508
1382.00,0.0658
1381.00,0.0857
1380.00,0.1110
1379.00,0.1406
1378.00,0.1701
1377.00,0.1929
1376.00,0.2020
1375.00,0.1932
1374.00,0.1692
1373.00,0.1393
1372.00,0.1118
1371.00,0.0892
1370.00,0.0712
1369.00,0.0577
1368.00,0.0484
1367.00,0.0428
1366.00,0.0397
1365.00,0.0385
1364.00,0.0387
1363.00,0.0401
1362.00,0.0424
1361.00,0.0450
1360.00,0.0469
1359.00,0.0475
1358.00,0.0464
1357.00,0.0437
1356.00,0.0399
1355.00,0.0356
1354.00,0.0315
1353.00,0.0279
1352.00,0.0250
1351.00,0.0226
1350.00,0.0207
1349.00,0.0191
1348.00,0.0178
1347.00,0.0167
1346.00,0.0157
1345.00,0.0149
1344.00,0.0142
1343.00,0.0137
1342.00,0.0132
1341.00,0.0128
1340.00,0.0125
1339.00,0.0122
1338.00,0.0120
1337.00,0.0120
1336.00,0.0121
1335.00,0.0123
1334.00,0.0126
1333.00,0.0130
1332.00,0.0134
1331.00,0.0138
1330.00,0.0139
1329.00,0.0137
1328.00,0.0133
1327.00,0.0128
1326.00,0.0121
1325.00,0.0115
1324.00,0.0110
1323.00,0.0104
1322.00,0.0100
1321.00,0.0097
1320.00,0.0095
1319.00,0.0093
1318.00,0.0092
1317.00,0.0090
1316.00,0.0088
1315.00,0.0087
1314.00,0.0086
1313.00,0.0087
1312.00,0.0088
1311.00,0.0089
1310.00,0.0092
1309.00,0.0096
1308.00,0.0102
1307.00,0.0110
1306.00,0.0118
1305.00,0.0124
1304.00,0.0126
1303.00,0.0124
1302.00,0.0122
1301.00,0.0120
1300.00,0.0119
1299.00,0.0121
1298.00,0.0122
1297.00,0.0123
1296.00,0.0123
1295.00,0.0120
1294.00,0.0117
1293.00,0.0112
1292.00,0.0106
1291.00,0.0100
1290.00,0.0094
1289.00,0.0090
1288.00,0.0087
1287.00,0.0084
1286.00,0.0082
1285.00,0.0080
1284.00,0.0079
1283.00,0.0078
1282.00,0.0077
1281.00,0.0075
1280.00,0.0074
1279.00,0.0073
1278.00,0.0073
1277.00,0.0072
1276.00,0.0072
1275.00,0.0072
1274.00,0.0072
1273.00,0.0072
1272.00,0.0073
1271.00,0.0073
1270.00,0.0074
1269.00,0.0076
1268.00,0.0078
1267.00,0.0081
1266.00,0.0083
1265.00,0.0086
1264.00,0.0089
1263.00,0.0092
1262.00,0.0094
1261.00,0.0097
1260.00,0.0100
1259.00,0.0104
1258.00,0.0108
1257.00,0.0112
1256.00,0.0113
1255.00,0.0111
1254.00,0.0107
1253.00,0.0101
1252.00,0.0095
1251.00,0.0091
1250.00,0.0087
1249.00,0.0085
1248.00,0.0083
1247.00,0.0081
1246.00,0.0079
1245.00,0.0078
1244.00,0.0077
1243.00,0.0076
1242.00,0.0075
1241.00,0.0076
1240.00,0.0076
1239.00,0.0077
1238.00,0.0077
1237.00,0.0077
1236.00,0.0078
1235.00,0.0078
1234.00,0.0079
1233.00,0.0080
1232.00,0.0081
1231.00,0.0082
1230.00,0.0083
1229.00,0.0084
1228.00,0.0085
1227.00,0.0087
1226.00,0.0089
1225.00,0.0092
1224.00,0.0095
1223.00,0.0099
1222.00,0.0102
1221.00,0.0105
1220.00,0.0108
1219.00,0.0110
1218.00,0.0111
1217.00,0.0109
1216.00,0.0106
1215.00,0.0102
1214.00,0.0098
1213.00,0.0094
1212.00,0.0091
1211.00,0.0088
1210.00,0.0086
1209.00,0.0085
1208.00,0.0084
1207.00,0.0083
1206.00,0.0083
1205.00,0.0082
1204.00,0.0081
1203.00,0.0081
1202.00,0.0080
1201.00,0.0080
1200.00,0.0079
1199.00,0.0078
1198.00,0.0077
1197.00,0.0077
1196.00,0.0076
1195.00,0.0076
1194.00,0.0076
1193.00,0.0075
1192.00,0.0075
1191.00,0.0073
1190.00,0.0072
1189.00,0.0071
1188.00,0.0070
1187.00,0.0070
1186.00,0.0071
1185.00,0.0072
1184.00,0.0073
1183.00,0.0074
1182.00,0.0075
1181.00,0.0076
1180.00,0.0078
1179.00,0.0081
1178.00,0.0086
1177.00,0.0091
1176.00,0.0099
1175.00,0.0110
1174.00,0.0124
1173.00,0.0141
1172.00,0.0162
1171.00,0.0184
1170.00,0.0206
1169.00,0.0224
1168.00,0.0234
1167.00,0.0237
1166.00,0.0234
1165.00,0.0227
1164.00,0.0217
1163.00,0.0208
1162.00,0.0200
1161.00,0.0193
1160.00,0.0188
1159.00,0.0184
1158.00,0.0182
1157.00,0.0182
1156.00,0.0182
1155.00,0.0183
1154.00,0.0183
1153.00,0.0182
1152.00,0.0179
1151.00,0.0173
1150.00,0.0165
1149.00,0.0156
1148.00,0.0147
1147.00,0.0139
1146.00,0.0131
1145.00,0.0124
1144.00,0.0118
1143.00,0.0112
1142.00,0.0108
1141.00,0.0103
1140.00,0.0099
1139.00,0.0095
1138.00,0.0091
1137.00,0.0087
1136.00,0.0084
1135.00,0.0083
1134.00,0.0081
1133.00,0.0081
1132.00,0.0081
1131.00,0.0081
1130.00,0.0080
1129.00,0.0080
1128.00,0.0080
1127.00,0.0081
1126.00,0.0082
1125.00,0.0083
1124.00,0.0084
1123.00,0.0085
1122.00,0.0087
1121.00,0.0088
1120.00,0.0089
1119.00,0.0091
1118.00,0.0092
1117.00,0.0094
1116.00,0.0095
1115.00,0.0096
1114.00,0.0098
1113.00,0.0100
1112.00,0.0102
1111.00,0.0104
1110.00,0.0108
1109.00,0.0112
1108.00,0.0118
1107.00,0.0125
1106.00,0.0132
1105.00,0.0140
1104.00,0.0145
1103.00,0.0148
1102.00,0.0147
1101.00,0.0142
1100.00,0.0136
1099.00,0.0128
1098.00,0.0120
1097.00,0.0114
1096.00,0.0110
1095.00,0.0107
1094.00,0.0104
1093.00,0.0102
1092.00,0.0100
1091.00,0.0097
1090.00,0.0096
1089.00,0.0094
1088.00,0.0093
1087.00,0.0093
1086.00,0.0093
1085.00,0.0093
1084.00,0.0092
1083.00,0.0090
1082.00,0.0089
1081.00,0.0087
1080.00,0.0086
1079.00,0.0085
1078.00,0.0084
1077.00,0.0082
1076.00,0.0081
1075.00,0.0081
1074.00,0.0080
1073.00,0.0080
1072.00,0.0079
1071.00,0.0079
1070.00,0.0078
1069.00,0.0077
1068.00,0.0077
1067.00,0.0078
1066.00,0.0078
1065.00,0.0078
1064.00,0.0078
1063.00,0.0079
1062.00,0.0079
1061.00,0.0079
1060.00,0.0079
1059.00,0.0080
1058.00,0.0080
1057.00,0.0080
1056.00,0.0080
1055.00,0.0081
1054.00,0.0081
1053.00,0.0082
1052.00,0.0082
1051.00,0.0084
1050.00,0.0087
1049.00,0.0089
1048.00,0.0091
1047.00,0.0093
1046.00,0.0094
1045.00,0.0095
1044.00,0.0094
1043.00,0.0094
1042.00,0.0093
1041.00,0.0093
1040.00,0.0092
1039.00,0.0092
1038.00,0.0092
1037.00,0.0092
1036.00,0.0092
1035.00,0.0093
1034.00,0.0092
1033.00,0.0091
1032.00,0.0089
1031.00,0.0086
1030.00,0.0085
1029.00,0.0083
1028.00,0.0083
1027.00,0.0083
1026.00,0.0084
1025.00,0.0084
1024.00,0.0083
1023.00,0.0083
1022.00,0.0083
1021.00,0.0083
1020.00,0.0084
1019.00,0.0084
1018.00,0.0085
1017.00,0.0085
1016.00,0.0086
1015.00,0.0087
1014.00,0.0088
1013.00,0.0089
1012.00,0.0090
1011.00,0.0092
1010.00,0.0094
1009.00,0.0096
1008.00,0.0098
1007.00,0.0103
1006.00,0.0110
1005.00,0.0119
1004.00,0.0130
1003.00,0.0146
1002.00,0.0165
1001.00,0.0190
1000.00,0.0215
999.00,0.0236
998.00,0.0246
997.00,0.0240
996.00,0.0221
995.00,0.0194
994.00,0.0167
993.00,0.0144
992.00,0.0127
991.00,0.0115
990.00,0.0106
989.00,0.0100
988.00,0.0096
987.00,0.0094
986.00,0.0095
985.00,0.0098
984.00,0.0101
983.00,0.0107
982.00,0.0115
981.00,0.0128
980.00,0.0146
979.00,0.0171
978.00,0.0200
977.00,0.0233
976.00,0.0266
975.00,0.0295
974.00,0.0314
973.00,0.0318
972.00,0.0304
971.00,0.0276
970.00,0.0239
969.00,0.0202
968.00,0.0171
967.00,0.0146
966.00,0.0129
965.00,0.0116
964.00,0.0107
963.00,0.0101
962.00,0.0095
961.00,0.0091
960.00,0.0087
959.00,0.0084
958.00,0.0082
957.00,0.0080
956.00,0.0079
955.00,0.0078
954.00,0.0077
953.00,0.0076
952.00,0.0074
951.00,0.0073
950.00,0.0073
949.00,0.0074
948.00,0.0074
947.00,0.0075
946.00,0.0077
945.00,0.0080
944.00,0.0084
943.00,0.0088
942.00,0.0092
941.00,0.0094
940.00,0.0095
939.00,0.0092
938.00,0.0088
937.00,0.0083
936.00,0.0077
935.00,0.0073
934.00,0.0069
933.00,0.0067
932.00,0.0066
931.00,0.0066
930.00,0.0066
929.00,0.0065
928.00,0.0064
927.00,0.0064
926.00,0.0063
925.00,0.0063
924.00,0.0063
923.00,0.0063
922.00,0.0064
921.00,0.0064
920.00,0.0063
919.00,0.0063
918.00,0.0062
917.00,0.0063
916.00,0.0063
915.00,0.0064
914.00,0.0066
913.00,0.0068
912.00,0.0071
911.00,0.0073
910.00,0.0075
909.00,0.0078
908.00,0.0080
907.00,0.0084
906.00,0.0091
905.00,0.0102
904.00,0.0117
903.00,0.0136
902.00,0.0157
901.00,0.0175
900.00,0.0188
899.00,0.0191
898.00,0.0182
897.00,0.0166
896.00,0.0145
895.00,0.0126
894.00,0.0110
893.00,0.0098
892.00,0.0090
891.00,0.0084
890.00,0.0081
889.00,0.0080
888.00,0.0078
887.00,0.0077
886.00,0.0076
885.00,0.0074
884.00,0.0073
883.00,0.0073
882.00,0.0074
881.00,0.0074
880.00,0.0073
879.00,0.0073
878.00,0.0073
877.00,0.0074
876.00,0.0075
875.00,0.0077
874.00,0.0078
873.00,0.0078
872.00,0.0079
871.00,0.0079
870.00,0.0078
869.00,0.0078
868.00,0.0078
867.00,0.0078
866.00,0.0078
865.00,0.0079
864.00,0.0079
863.00,0.0079
862.00,0.0080
861.00,0.0081
860.00,0.0082
859.00,0.0083
858.00,0.0084
857.00,0.0085
856.00,0.0085
855.00,0.0087
854.00,0.0089
853.00,0.0092
852.00,0.0094
851.00,0.0096
850.00,0.0098
849.00,0.0102
848.00,0.0108
847.00,0.0117
846.00,0.0131
845.00,0.0152
844.00,0.0181
843.00,0.0214
842.00,0.0240
841.00,0.0247
840.00,0.0231
839.00,0.0199
838.00,0.0165
837.00,0.0139
836.00,0.0123
835.00,0.0114
834.00,0.0109
833.00,0.0105
832.00,0.0103
831.00,0.0102
830.00,0.0102
829.00,0.0101
828.00,0.0101
827.00,0.0100
826.00,0.0099
825.00,0.0099
824.00,0.0099
823.00,0.0101
822.00,0.0103
821.00,0.0104
820.00,0.0107
819.00,0.0109
818.00,0.0114
817.00,0.0120
816.00,0.0129
815.00,0.0142
814.00,0.0160
813.00,0.0180
812.00,0.0202
811.00,0.0222
810.00,0.0237
809.00,0.0243
808.00,0.0239
807.00,0.0225
806.00,0.0205
805.00,0.0183
804.00,0.0163
803.00,0.0148
802.00,0.0138
801.00,0.0131
800.00,0.0125
799.00,0.0120
798.00,0.0116
797.00,0.0112
796.00,0.0109
795.00,0.0106
794.00,0.0102
793.00,0.0097
792.00,0.0092
791.00,0.0088
790.00,0.0085
789.00,0.0082
788.00,0.0080
787.00,0.0077
786.00,0.0075
785.00,0.0072
784.00,0.0070
783.00,0.0069
782.00,0.0068
781.00,0.0066
780.00,0.0065
779.00,0.0064
778.00,0.0065
777.00,0.0066
776.00,0.0067
775.00,0.0068
774.00,0.0069
773.00,0.0068
772.00,0.0068
771.00,0.0068
770.00,0.0068
769.00,0.0069
768.00,0.0069
767.00,0.0069
766.00,0.0068
765.00,0.0067
764.00,0.0067
763.00,0.0066
762.00,0.0067
761.00,0.0068
760.00,0.0069
759.00,0.0071
758.00,0.0072
757.00,0.0073
756.00,0.0072
755.00,0.0071
754.00,0.0071
753.00,0.0071
752.00,0.0072
751.00,0.0073
750.00,0.0075
749.00,0.0078
748.00,0.0081
747.00,0.0084
746.00,0.0087
745.00,0.0089
744.00,0.0090
743.00,0.0091
742.00,0.0093
741.00,0.0096
740.00,0.0100
739.00,0.0105
738.00,0.0110
737.00,0.0114
736.00,0.0118
735.00,0.0122
734.00,0.0127
733.00,0.0133
732.00,0.0141
731.00,0.0150
730.00,0.0158
729.00,0.0161
728.00,0.0161
727.00,0.0160
726.00,0.0159
725.00,0.0162
724.00,0.0169
723.00,0.0178
722.00,0.0187
721.00,0.0191
720.00,0.0189
719.00,0.0179
718.00,0.0165
717.00,0.0151
716.00,0.0139
715.00,0.0130
714.00,0.0123
713.00,0.0117
712.00,0.0113
711.00,0.0110
710.00,0.0108
709.00,0.0108
708.00,0.0108
707.00,0.0108
706.00,0.0107
705.00,0.0106
704.00,0.0105
703.00,0.0103
702.00,0.0101
701.00,0.0100
700.00,0.0099
699.00,0.0099
698.00,0.0099
697.00,0.0099
696.00,0.0099
695.00,0.0098
694.00,0.0096
693.00,0.0095
692.00,0.0094
691.00,0.0093
690.00,0.0090
689.00,0.0087
688.00,0.0086
687.00,0.0088
686.00,0.0091
685.00,0.0091
684.00,0.0090
683.00,0.0087
682.00,0.0085
681.00,0.0086
680.00,0.0087
679.00,0.0088
678.00,0.0088
677.00,0.0089
676.00,0.0090
675.00,0.0092
674.00,0.0094
673.00,0.0094
672.00,0.0092
671.00,0.0089
670.00,0.0087
669.00,0.0085
668.00,0.0086
667.00,0.0088
666.00,0.0090
665.00,0.0092
664.00,0.0093
663.00,0.0093
662.00,0.0093
661.00,0.0092
660.00,0.0091
659.00,0.0089
658.00,0.0087
657.00,0.0086
656.00,0.0086
655.00,0.0086
654.00,0.0086
653.00,0.0085
652.00,0.0085
651.00,0.0085
650.00,0.0086
649.00,0.0088
648.00,0.0090
647.00,0.0090
646.00,0.0090
645.00,0.0088
644.00,0.0088
643.00,0.0088
642.00,0.0087
641.00,0.0085
640.00,0.0082
639.00,0.0079
638.00,0.0078
637.00,0.0078
636.00,0.0080
635.00,0.0082
634.00,0.0084
633.00,0.0085
632.00,0.0085
631.00,0.0085
630.00,0.0085
629.00,0.0085
628.00,0.0085
627.00,0.0086
626.00,0.0086
625.00,0.0087
624.00,0.0086
623.00,0.0085
622.00,0.0083
621.00,0.0082
620.00,0.0080
619.00,0.0079
618.00,0.0079
617.00,0.0079
616.00,0.0081
615.00,0.0082
614.00,0.0084
613.00,0.0085
612.00,0.0086
611.00,0.0086
610.00,0.0085
609.00,0.0083
608.00,0.0083
607.00,0.0084
606.00,0.0084
605.00,0.0084
604.00,0.0083
603.00,0.0082
602.00,0.0082
601.00,0.0082
600.00,0.0082
599.00,0.0081
598.00,0.0079
597.00,0.0078
596.00,0.0079
595.00,0.0081
594.00,0.0082
593.00,0.0082
592.00,0.0080
591.00,0.0078
590.00,0.0077
589.00,0.0078
588.00,0.0079
587.00,0.0082
586.00,0.0085
585.00,0.0086
584.00,0.0085
583.00,0.0082
582.00,0.0081
581.00,0.0080
580.00,0.0080
579.00,0.0081
578.00,0.0083
577.00,0.0084
576.00,0.0085
575.00,0.0084
574.00,0.0082
573.00,0.0079
572.00,0.0076
571.00,0.0074
570.00,0.0075
569.00,0.0078
568.00,0.0080
567.00,0.0081
566.00,0.0081
565.00,0.0079
564.00,0.0079
563.00,0.0081
562.00,0.0084
561.00,0.0085
560.00,0.0084
559.00,0.0083
558.00,0.0083
557.00,0.0083
556.00,0.0083
555.00,0.0084
554.00,0.0084
553.00,0.0082
552.00,0.0079
551.00,0.0076
550.00,0.0077
549.00,0.0080
548.00,0.0083
547.00,0.0084
546.00,0.0083
545.00,0.0083
544.00,0.0085
543.00,0.0089
542.00,0.0092
541.00,0.0095
540.00,0.0096
539.00,0.0097
538.00,0.0097
537.00,0.0093
536.00,0.0087
535.00,0.0082
534.00,0.0081
533.00,0.0084
532.00,0.0090
531.00,0.0096
530.00,0.0098
529.00,0.0096
528.00,0.0092
527.00,0.0092
526.00,0.0095
525.00,0.0098
524.00,0.0099
523.00,0.0096
522.00,0.0093
521.00,0.0087
520.00,0.0081
519.00,0.0076
518.00,0.0075
517.00,0.0078
516.00,0.0083
515.00,0.0088
514.00,0.0093
513.00,0.0095
512.00,0.0092
511.00,0.0085
510.00,0.0076
509.00,0.0070
508.00,0.0068
507.00,0.0070
506.00,0.0077
505.00,0.0084
504.00,0.0089
503.00,0.0091
502.00,0.0090
501.00,0.0086
500.00,0.0081
499.00,0.0078
498.00,0.0079
497.00,0.0083
496.00,0.0086
495.00,0.0086
494.00,0.0082
493.00,0.0076
492.00,0.0074
491.00,0.0077
490.00,0.0081
489.00,0.0082
488.00,0.0078
487.00,0.0072
486.00,0.0072
485.00,0.0079
484.00,0.0088
483.00,0.0093
482.00,0.0092
481.00,0.0088
480.00,0.0082
479.00,0.0075
478.00,0.0070
477.00,0.0069
476.00,0.0072
475.00,0.0078
474.00,0.0087
473.00,0.0097
472.00,0.0107
471.00,0.0112
470.00,0.0112
469.00,0.0111
468.00,0.0113
467.00,0.0121
466.00,0.0133
465.00,0.0143
464.00,0.0152
463.00,0.0162
462.00,0.0172
461.00,0.0180
460.00,0.0183
459.00,0.0181
458.00,0.0175
457.00,0.0165
456.00,0.0151
455.00,0.0136
454.00,0.0124
453.00,0.0115
452.00,0.0108
451.00,0.0100
450.00,0.0092
