Created as New Dataset,Sample 030 By Administrator Date Thursday, September 04 2025
cm-1,A
4000.00,0.0010
3999.00,0.0009
3998.00,0.0009
3997.00,0.0009
3996.00,0.0009
3995.00,0.0009
3994.00,0.0009
3993.00,0.0009
3992.00,0.0010
3991.00,0.0010
3990.00,0.0010
3989.00,0.0010
3988.00,0.0009
3987.00,0.0009
3986.00,0.0009
3985.00,0.0009
3984.00,0.0009
3983.00,0.0009
3982.00,0.0009
3981.00,0.0008
3980.00,0.0008
3979.00,0.0008
3978.00,0.0007
3977.00,0.0007
3976.00,0.0007
3975.00,0.0008
3974.00,0.0008
3973.00,0.0008
3972.00,0.0008
3971.00,0.0008
3970.00,0.0007
3969.00,0.0007
3968.00,0.0007
3967.00,0.0007
3966.00,0.0007
3965.00,0.0007
3964.00,0.0007
3963.00,0.0007
3962.00,0.0007
3961.00,0.0007
3960.00,0.0007
3959.00,0.0008
3958.00,0.0008
3957.00,0.0008
3956.00,0.0008
3955.00,0.0008
3954.00,0.0008
3953.00,0.0007
3952.00,0.0007
3951.00,0.0008
3950.00,0.0007
3949.00,0.0007
3948.00,0.0007
3947.00,0.0007
3946.00,0.0007
3945.00,0.0007
3944.00,0.0007
3943.00,0.0007
3942.00,0.0008
3941.00,0.0008
3940.00,0.0008
3939.00,0.0008
3938.00,0.0008
3937.00,0.0008
3936.00,0.0008
3935.00,0.0008
3934.00,0.0008
3933.00,0.0008
3932.00,0.0008
3931.00,0.0008
3930.00,0.0009
3929.00,0.0009
3928.00,0.0009
3927.00,0.0008
3926.00,0.0008
3925.00,0.0008
3924.00,0.0008
3923.00,0.0007
3922.00,0.0007
3921.00,0.0007
3920.00,0.0007
3919.00,0.0007
3918.00,0.0007
3917.00,0.0008
3916.00,0.0008
3915.00,0.0008
3914.00,0.0008
3913.00,0.0008
3912.00,0.0007
3911.00,0.0007
3910.00,0.0007
3909.00,0.0007
3908.00,0.0007
3907.00,0.0007
3906.00,0.0007
3905.00,0.0007
3904.00,0.0007
3903.00,0.0007
3902.00,0.0007
3901.00,0.0007
3900.00,0.0007
3899.00,0.0007
3898.00,0.0007
3897.00,0.0007
3896.00,0.0007
3895.00,0.0007
3894.00,0.0007
3893.00,0.0007
3892.00,0.0007
3891.00,0.0007
3890.00,0.0007
3889.00,0.0007
3888.00,0.0007
3887.00,0.0007
3886.00,0.0007
3885.00,0.0007
3884.00,0.0008
3883.00,0.0008
3882.00,0.0008
3881.00,0.0008
3880.00,0.0008
3879.00,0.0007
3878.00,0.0007
3877.00,0.0006
3876.00,0.0006
3875.00,0.0006
3874.00,0.0006
3873.00,0.0006
3872.00,0.0006
3871.00,0.0006
3870.00,0.0006
3869.00,0.0006
3868.00,0.0006
3867.00,0.0006
3866.00,0.0006
3865.00,0.0006
3864.00,0.0006
3863.00,0.0007
3862.00,0.0007
3861.00,0.0007
3860.00,0.0007
3859.00,0.0006
3858.00,0.0006
3857.00,0.0005
3856.00,0.0004
3855.00,0.0004
3854.00,0.0004
3853.00,0.0004
3852.00,0.0004
3851.00,0.0004
3850.00,0.0004
3849.00,0.0005
3848.00,0.0006
3847.00,0.0006
3846.00,0.0007
3845.00,0.0007
3844.00,0.0007
3843.00,0.0007
3842.00,0.0007
3841.00,0.0006
3840.00,0.0006
3839.00,0.0005
3838.00,0.0005
3837.00,0.0005
3836.00,0.0005
3835.00,0.0005
3834.00,0.0005
3833.00,0.0005
3832.00,0.0006
3831.00,0.0006
3830.00,0.0006
3829.00,0.0007
3828.00,0.0007
3827.00,0.0007
3826.00,0.0007
3825.00,0.0006
3824.00,0.0006
3823.00,0.0006
3822.00,0.0006
3821.00,0.0006
3820.00,0.0006
3819.00,0.0006
3818.00,0.0006
3817.00,0.0006
3816.00,0.0007
3815.00,0.0007
3814.00,0.0007
3813.00,0.0007
3812.00,0.0007
3811.00,0.0007
3810.00,0.0007
3809.00,0.0007
3808.00,0.0007
3807.00,0.0007
3806.00,0.0007
3805.00,0.0006
3804.00,0.0006
3803.00,0.0006
3802.00,0.0005
3801.00,0.0005
3800.00,0.0005
3799.00,0.0006
3798.00,0.0006
3797.00,0.0006
3796.00,0.0006
3795.00,0.0006
3794.00,0.0006
3793.00,0.0007
3792.00,0.0007
3791.00,0.0008
3790.00,0.0008
3789.00,0.0008
3788.00,0.0008
3787.00,0.0008
3786.00,0.0008
3785.00,0.0008
3784.00,0.0008
3783.00,0.0008
3782.00,0.0008
3781.00,0.0008
3780.00,0.0008
3779.00,0.0008
3778.00,0.0008
3777.00,0.0008
3776.00,0.0007
3775.00,0.0007
3774.00,0.0007
3773.00,0.0007
3772.00,0.0008
3771.00,0.0008
3770.00,0.0008
3769.00,0.0008
3768.00,0.0008
3767.00,0.0008
3766.00,0.0007
3765.00,0.0007
3764.00,0.0007
3763.00,0.0008
3762.00,0.0008
3761.00,0.0008
3760.00,0.0008
3759.00,0.0008
3758.00,0.0008
3757.00,0.0007
3756.00,0.0007
3755.00,0.0007
3754.00,0.0007
3753.00,0.0006
3752.00,0.0006
3751.00,0.0005
3750.00,0.0005
3749.00,0.0004
3748.00,0.0004
3747.00,0.0004
3746.00,0.0005
3745.00,0.0005
3744.00,0.0005
3743.00,0.0004
3742.00,0.0005
3741.00,0.0005
3740.00,0.0005
3739.00,0.0005
3738.00,0.0004
3737.00,0.0004
3736.00,0.0005
3735.00,0.0005
3734.00,0.0005
3733.00,0.0005
3732.00,0.0005
3731.00,0.0005
3730.00,0.0005
3729.00,0.0006
3728.00,0.0006
3727.00,0.0005
3726.00,0.0005
3725.00,0.0004
3724.00,0.0004
3723.00,0.0005
3722.00,0.0005
3721.00,0.0005
3720.00,0.0005
3719.00,0.0005
3718.00,0.0005
3717.00,0.0006
3716.00,0.0006
3715.00,0.0006
3714.00,0.0006
3713.00,0.0006
3712.00,0.0006
3711.00,0.0005
3710.00,0.0005
3709.00,0.0005
3708.00,0.0005
3707.00,0.0005
3706.00,0.0004
3705.00,0.0004
3704.00,0.0004
3703.00,0.0004
3702.00,0.0004
3701.00,0.0004
3700.00,0.0005
3699.00,0.0005
3698.00,0.0005
3697.00,0.0005
3696.00,0.0005
3695.00,0.0005
3694.00,0.0005
3693.00,0.0005
3692.00,0.0005
3691.00,0.0005
3690.00,0.0005
3689.00,0.0005
3688.00,0.0004
3687.00,0.0004
3686.00,0.0004
3685.00,0.0004
3684.00,0.0004
3683.00,0.0004
3682.00,0.0004
3681.00,0.0004
3680.00,0.0004
3679.00,0.0004
3678.00,0.0005
3677.00,0.0005
3676.00,0.0006
3675.00,0.0006
3674.00,0.0006
3673.00,0.0005
3672.00,0.0004
3671.00,0.0004
3670.00,0.0004
3669.00,0.0004
3668.00,0.0004
3667.00,0.0004
3666.00,0.0004
3665.00,0.0004
3664.00,0.0004
3663.00,0.0004
3662.00,0.0004
3661.00,0.0004
3660.00,0.0004
3659.00,0.0004
3658.00,0.0003
3657.00,0.0003
3656.00,0.0002
3655.00,0.0002
3654.00,0.0002
3653.00,0.0003
3652.00,0.0003
3651.00,0.0004
3650.00,0.0005
3649.00,0.0005
3648.00,0.0005
3647.00,0.0005
3646.00,0.0005
3645.00,0.0005
3644.00,0.0004
3643.00,0.0004
3642.00,0.0003
3641.00,0.0003
3640.00,0.0003
3639.00,0.0003
3638.00,0.0004
3637.00,0.0004
3636.00,0.0004
3635.00,0.0004
3634.00,0.0005
3633.00,0.0005
3632.00,0.0004
3631.00,0.0004
3630.00,0.0004
3629.00,0.0004
3628.00,0.0004
3627.00,0.0003
3626.00,0.0003
3625.00,0.0003
3624.00,0.0004
3623.00,0.0004
3622.00,0.0004
3621.00,0.0004
3620.00,0.0004
3619.00,0.0004
3618.00,0.0004
3617.00,0.0004
3616.00,0.0004
3615.00,0.0004
3614.00,0.0004
3613.00,0.0005
3612.00,0.0005
3611.00,0.0005
3610.00,0.0005
3609.00,0.0005
3608.00,0.0005
3607.00,0.0005
3606.00,0.0005
3605.00,0.0005
3604.00,0.0005
3603.00,0.0004
3602.00,0.0005
3601.00,0.0005
3600.00,0.0005
3599.00,0.0005
3598.00,0.0005
3597.00,0.0005
3596.00,0.0004
3595.00,0.0004
3594.00,0.0004
3593.00,0.0004
3592.00,0.0004
3591.00,0.0004
3590.00,0.0004
3589.00,0.0004
3588.00,0.0004
3587.00,0.0005
3586.00,0.0005
3585.00,0.0005
3584.00,0.0006
3583.00,0.0006
3582.00,0.0007
3581.00,0.0007
3580.00,0.0007
3579.00,0.0007
3578.00,0.0007
3577.00,0.0007
3576.00,0.0007
3575.00,0.0007
3574.00,0.0007
3573.00,0.0007
3572.00,0.0007
3571.00,0.0007
3570.00,0.0007
3569.00,0.0006
3568.00,0.0006
3567.00,0.0006
3566.00,0.0007
3565.00,0.0007
3564.00,0.0008
3563.00,0.0008
3562.00,0.0008
3561.00,0.0008
3560.00,0.0008
3559.00,0.0007
3558.00,0.0007
3557.00,0.0007
3556.00,0.0008
3555.00,0.0008
3554.00,0.0008
3553.00,0.0009
3552.00,0.0009
3551.00,0.0009
3550.00,0.0009
3549.00,0.0009
3548.00,0.0009
3547.00,0.0009
3546.00,0.0010
3545.00,0.0010
3544.00,0.0010
3543.00,0.0010
3542.00,0.0010
3541.00,0.0010
3540.00,0.0010
3539.00,0.0010
3538.00,0.0011
3537.00,0.0011
3536.00,0.0011
3535.00,0.0010
3534.00,0.0010
3533.00,0.0010
3532.00,0.0010
3531.00,0.0010
3530.00,0.0010
3529.00,0.0011
3528.00,0.0011
3527.00,0.0011
3526.00,0.0011
3525.00,0.0012
3524.00,0.0012
3523.00,0.0012
3522.00,0.0012
3521.00,0.0012
3520.00,0.0012
3519.00,0.0013
3518.00,0.0013
3517.00,0.0014
3516.00,0.0014
3515.00,0.0014
3514.00,0.0014
3513.00,0.0014
3512.00,0.0015
3511.00,0.0015
3510.00,0.0015
3509.00,0.0014
3508.00,0.0014
3507.00,0.0014
3506.00,0.0014
3505.00,0.0014
3504.00,0.0013
3503.00,0.0013
3502.00,0.0013
3501.00,0.0013
3500.00,0.0014
3499.00,0.0014
3498.00,0.0014
3497.00,0.0014
3496.00,0.0015
3495.00,0.0015
3494.00,0.0016
3493.00,0.0016
3492.00,0.0016
3491.00,0.0016
3490.00,0.0016
3489.00,0.0017
3488.00,0.0017
3487.00,0.0017
3486.00,0.0017
3485.00,0.0016
3484.00,0.0016
3483.00,0.0016
3482.00,0.0017
3481.00,0.0017
3480.00,0.0017
3479.00,0.0017
3478.00,0.0017
3477.00,0.0017
3476.00,0.0017
3475.00,0.0018
3474.00,0.0018
3473.00,0.0018
3472.00,0.0019
3471.00,0.0019
3470.00,0.0018
3469.00,0.0018
3468.00,0.0018
3467.00,0.0018
3466.00,0.0018
3465.00,0.0019
3464.00,0.0019
3463.00,0.0019
3462.00,0.0019
3461.00,0.0019
3460.00,0.0019
3459.00,0.0019
3458.00,0.0019
3457.00,0.0019
3456.00,0.0020
3455.00,0.0020
3454.00,0.0020
3453.00,0.0021
3452.00,0.0021
3451.00,0.0021
3450.00,0.0021
3449.00,0.0021
3448.00,0.0021
3447.00,0.0020
3446.00,0.0020
3445.00,0.0020
3444.00,0.0020
3443.00,0.0021
3442.00,0.0021
3441.00,0.0021
3440.00,0.0021
3439.00,0.0021
3438.00,0.0022
3437.00,0.0022
3436.00,0.0022
3435.00,0.0022
3434.00,0.0022
3433.00,0.0023
3432.00,0.0024
3431.00,0.0024
3430.00,0.0025
3429.00,0.0025
3428.00,0.0025
3427.00,0.0024
3426.00,0.0024
3425.00,0.0023
3424.00,0.0023
3423.00,0.0023
3422.00,0.0024
3421.00,0.0024
3420.00,0.0024
3419.00,0.0024
3418.00,0.0024
3417.00,0.0024
3416.00,0.0024
3415.00,0.0024
3414.00,0.0024
3413.00,0.0024
3412.00,0.0024
3411.00,0.0025
3410.00,0.0025
3409.00,0.0025
3408.00,0.0025
3407.00,0.0025
3406.00,0.0025
3405.00,0.0025
3404.00,0.0026
3403.00,0.0026
3402.00,0.0026
3401.00,0.0025
3400.00,0.0025
3399.00,0.0024
3398.00,0.0024
3397.00,0.0024
3396.00,0.0024
3395.00,0.0025
3394.00,0.0025
3393.00,0.0025
3392.00,0.0026
3391.00,0.0026
3390.00,0.0026
3389.00,0.0026
3388.00,0.0026
3387.00,0.0026
3386.00,0.0026
3385.00,0.0026
3384.00,0.0026
3383.00,0.0026
3382.00,0.0027
3381.00,0.0027
3380.00,0.0026
3379.00,0.0026
3378.00,0.0026
3377.00,0.0026
3376.00,0.0026
3375.00,0.0026
3374.00,0.0026
3373.00,0.0026
3372.00,0.0026
3371.00,0.0026
3370.00,0.0026
3369.00,0.0026
3368.00,0.0026
3367.00,0.0026
3366.00,0.0026
3365.00,0.0026
3364.00,0.0026
3363.00,0.0026
3362.00,0.0027
3361.00,0.0027
3360.00,0.0027
3359.00,0.0027
3358.00,0.0027
3357.00,0.0027
3356.00,0.0027
3355.00,0.0027
3354.00,0.0027
3353.00,0.0027
3352.00,0.0027
3351.00,0.0027
3350.00,0.0028
3349.00,0.0028
3348.00,0.0028
3347.00,0.0028
3346.00,0.0028
3345.00,0.0028
3344.00,0.0028
3343.00,0.0028
3342.00,0.0028
3341.00,0.0028
3340.00,0.0028
3339.00,0.0028
3338.00,0.0028
3337.00,0.0028
3336.00,0.0027
3335.00,0.0026
3334.00,0.0026
3333.00,0.0026
3332.00,0.0027
3331.00,0.0027
3330.00,0.0027
3329.00,0.0026
3328.00,0.0026
3327.00,0.0026
3326.00,0.0026
3325.00,0.0026
3324.00,0.0026
3323.00,0.0026
3322.00,0.0027
3321.00,0.0027
3320.00,0.0027
3319.00,0.0027
3318.00,0.0027
3317.00,0.0026
3316.00,0.0026
3315.00,0.0026
3314.00,0.0026
3313.00,0.0026
3312.00,0.0027
3311.00,0.0027
3310.00,0.0027
3309.00,0.0027
3308.00,0.0027
3307.00,0.0027
3306.00,0.0028
3305.00,0.0028
3304.00,0.0028
3303.00,0.0028
3302.00,0.0028
3301.00,0.0028
3300.00,0.0028
3299.00,0.0027
3298.00,0.0027
3297.00,0.0027
3296.00,0.0027
3295.00,0.0027
3294.00,0.0027
3293.00,0.0027
3292.00,0.0027
3291.00,0.0027
3290.00,0.0027
3289.00,0.0026
3288.00,0.0026
3287.00,0.0026
3286.00,0.0026
3285.00,0.0026
3284.00,0.0026
3283.00,0.0026
3282.00,0.0026
3281.00,0.0025
3280.00,0.0025
3279.00,0.0025
3278.00,0.0025
3277.00,0.0025
3276.00,0.0025
3275.00,0.0025
3274.00,0.0025
3273.00,0.0024
3272.00,0.0024
3271.00,0.0023
3270.00,0.0023
3269.00,0.0024
3268.00,0.0024
3267.00,0.0025
3266.00,0.0025
3265.00,0.0025
3264.00,0.0025
3263.00,0.0025
3262.00,0.0025
3261.00,0.0025
3260.00,0.0024
3259.00,0.0024
3258.00,0.0024
3257.00,0.0024
3256.00,0.0023
3255.00,0.0023
3254.00,0.0023
3253.00,0.0023
3252.00,0.0023
3251.00,0.0023
3250.00,0.0023
3249.00,0.0023
3248.00,0.0023
3247.00,0.0023
3246.00,0.0023
3245.00,0.0023
3244.00,0.0023
3243.00,0.0023
3242.00,0.0022
3241.00,0.0022
3240.00,0.0022
3239.00,0.0022
3238.00,0.0022
3237.00,0.0022
3236.00,0.0022
3235.00,0.0022
3234.00,0.0023
3233.00,0.0023
3232.00,0.0024
3231.00,0.0024
3230.00,0.0024
3229.00,0.0024
3228.00,0.0024
3227.00,0.0024
3226.00,0.0024
3225.00,0.0025
3224.00,0.0025
3223.00,0.0025
3222.00,0.0025
3221.00,0.0025
3220.00,0.0025
3219.00,0.0025
3218.00,0.0025
3217.00,0.0025
3216.00,0.0025
3215.00,0.0025
3214.00,0.0025
3213.00,0.0026
3212.00,0.0026
3211.00,0.0026
3210.00,0.0027
3209.00,0.0027
3208.00,0.0027
3207.00,0.0027
3206.00,0.0028
3205.00,0.0028
3204.00,0.0028
3203.00,0.0028
3202.00,0.0029
3201.00,0.0029
3200.00,0.0029
3199.00,0.0029
3198.00,0.0028
3197.00,0.0028
3196.00,0.0028
3195.00,0.0028
3194.00,0.0028
3193.00,0.0028
3192.00,0.0028
3191.00,0.0028
3190.00,0.0028
3189.00,0.0027
3188.00,0.0027
3187.00,0.0027
3186.00,0.0027
3185.00,0.0027
3184.00,0.0027
3183.00,0.0026
3182.00,0.0026
3181.00,0.0025
3180.00,0.0025
3179.00,0.0025
3178.00,0.0025
3177.00,0.0026
3176.00,0.0026
3175.00,0.0027
3174.00,0.0027
3173.00,0.0027
3172.00,0.0027
3171.00,0.0027
3170.00,0.0026
3169.00,0.0026
3168.00,0.0026
3167.00,0.0026
3166.00,0.0025
3165.00,0.0025
3164.00,0.0025
3163.00,0.0025
3162.00,0.0026
3161.00,0.0026
3160.00,0.0026
3159.00,0.0026
3158.00,0.0026
3157.00,0.0025
3156.00,0.0025
3155.00,0.0025
3154.00,0.0025
3153.00,0.0025
3152.00,0.0026
3151.00,0.0026
3150.00,0.0026
3149.00,0.0026
3148.00,0.0026
3147.00,0.0026
3146.00,0.0026
3145.00,0.0026
3144.00,0.0026
3143.00,0.0026
3142.00,0.0026
3141.00,0.0026
3140.00,0.0026
3139.00,0.0026
3138.00,0.0026
3137.00,0.0026
3136.00,0.0025
3135.00,0.0025
3134.00,0.0025
3133.00,0.0025
3132.00,0.0024
3131.00,0.0024
3130.00,0.0024
3129.00,0.0024
3128.00,0.0024
3127.00,0.0024
3126.00,0.0024
3125.00,0.0024
3124.00,0.0024
3123.00,0.0023
3122.00,0.0023
3121.00,0.0022
3120.00,0.0022
3119.00,0.0022
3118.00,0.0021
3117.00,0.0021
3116.00,0.0021
3115.00,0.0022
3114.00,0.0022
3113.00,0.0022
3112.00,0.0022
3111.00,0.0022
3110.00,0.0022
3109.00,0.0022
3108.00,0.0021
3107.00,0.0021
3106.00,0.0021
3105.00,0.0021
3104.00,0.0021
3103.00,0.0021
3102.00,0.0021
3101.00,0.0021
3100.00,0.0021
3099.00,0.0021
3098.00,0.0021
3097.00,0.0021
3096.00,0.0022
3095.00,0.0022
3094.00,0.0021
3093.00,0.0021
3092.00,0.0021
3091.00,0.0022
3090.00,0.0022
3089.00,0.0022
3088.00,0.0022
3087.00,0.0022
3086.00,0.0022
3085.00,0.0021
3084.00,0.0021
3083.00,0.0021
3082.00,0.0021
3081.00,0.0021
3080.00,0.0021
3079.00,0.0022
3078.00,0.0022
3077.00,0.0022
3076.00,0.0022
3075.00,0.0022
3074.00,0.0022
3073.00,0.0022
3072.00,0.0022
3071.00,0.0022
3070.00,0.0022
3069.00,0.0023
3068.00,0.0023
3067.00,0.0023
3066.00,0.0023
3065.00,0.0023
3064.00,0.0023
3063.00,0.0024
3062.00,0.0024
3061.00,0.0024
3060.00,0.0025
3059.00,0.0025
3058.00,0.0025
3057.00,0.0025
3056.00,0.0025
3055.00,0.0025
3054.00,0.0026
3053.00,0.0026
3052.00,0.0026
3051.00,0.0026
3050.00,0.0027
3049.00,0.0027
3048.00,0.0027
3047.00,0.0027
3046.00,0.0027
3045.00,0.0027
3044.00,0.0027
3043.00,0.0027
3042.00,0.0028
3041.00,0.0028
3040.00,0.0029
3039.00,0.0029
3038.00,0.0029
3037.00,0.0029
3036.00,0.0030
3035.00,0.0030
3034.00,0.0030
3033.00,0.0031
3032.00,0.0031
3031.00,0.0031
3030.00,0.0031
3029.00,0.0032
3028.00,0.0032
3027.00,0.0033
3026.00,0.0034
3025.00,0.0035
3024.00,0.0035
3023.00,0.0036
3022.00,0.0037
3021.00,0.0038
3020.00,0.0039
3019.00,0.0040
3018.00,0.0040
3017.00,0.0041
3016.00,0.0041
3015.00,0.0042
3014.00,0.0044
3013.00,0.0045
3012.00,0.0047
3011.00,0.0048
3010.00,0.0049
3009.00,0.0051
3008.00,0.0052
3007.00,0.0053
3006.00,0.0055
3005.00,0.0057
3004.00,0.0059
3003.00,0.0061
3002.00,0.0063
3001.00,0.0065
3000.00,0.0068
2999.00,0.0070
2998.00,0.0073
2997.00,0.0076
2996.00,0.0080
2995.00,0.0083
2994.00,0.0088
2993.00,0.0092
2992.00,0.0098
2991.00,0.0103
2990.00,0.0110
2989.00,0.0117
2988.00,0.0124
2987.00,0.0133
2986.00,0.0142
2985.00,0.0152
2984.00,0.0163
2983.00,0.0176
2982.00,0.0191
2981.00,0.0208
2980.00,0.0227
2979.00,0.0248
2978.00,0.0273
2977.00,0.0301
2976.00,0.0333
2975.00,0.0369
2974.00,0.0409
2973.00,0.0455
2972.00,0.0507
2971.00,0.0565
2970.00,0.0628
2969.00,0.0696
2968.00,0.0770
2967.00,0.0847
2966.00,0.0927
2965.00,0.1006
2964.00,0.1082
2963.00,0.1151
2962.00,0.1211
2961.00,0.1262
2960.00,0.1306
2959.00,0.1347
2958.00,0.1390
2957.00,0.1442
2956.00,0.1507
2955.00,0.1586
2954.00,0.1675
2953.00,0.1768
2952.00,0.1853
2951.00,0.1916
2950.00,0.1945
2949.00,0.1931
2948.00,0.1871
2947.00,0.1771
2946.00,0.1646
2945.00,0.1512
2944.00,0.1383
2943.00,0.1271
2942.00,0.1184
2941.00,0.1123
2940.00,0.1089
2939.00,0.1078
2938.00,0.1088
2937.00,0.1118
2936.00,0.1165
2935.00,0.1227
2934.00,0.1304
2933.00,0.1394
2932.00,0.1497
2931.00,0.1609
2930.00,0.1730
2929.00,0.1854
2928.00,0.1978
2927.00,0.2101
2926.00,0.2221
2925.00,0.2337
2924.00,0.2453
2923.00,0.2569
2922.00,0.2686
2921.00,0.2801
2920.00,0.2904
2919.00,0.2986
2918.00,0.3032
2917.00,0.3032
2916.00,0.2985
2915.00,0.2896
2914.00,0.2779
2913.00,0.2650
2912.00,0.2520
2911.00,0.2399
2910.00,0.2290
2909.00,0.2192
2908.00,0.2103
2907.00,0.2019
2906.00,0.1938
2905.00,0.1859
2904.00,0.1782
2903.00,0.1706
2902.00,0.1633
2901.00,0.1563
2900.00,0.1496
2899.00,0.1433
2898.00,0.1375
2897.00,0.1321
2896.00,0.1273
2895.00,0.1231
2894.00,0.1196
2893.00,0.1167
2892.00,0.1144
2891.00,0.1128
2890.00,0.1117
2889.00,0.1110
2888.00,0.1107
2887.00,0.1108
2886.00,0.1112
2885.00,0.1120
2884.00,0.1133
2883.00,0.1152
2882.00,0.1176
2881.00,0.1203
2880.00,0.1230
2879.00,0.1252
2878.00,0.1267
2877.00,0.1272
2876.00,0.1269
2875.00,0.1261
2874.00,0.1254
2873.00,0.1253
2872.00,0.1261
2871.00,0.1276
2870.00,0.1296
2869.00,0.1316
2868.00,0.1329
2867.00,0.1325
2866.00,0.1298
2865.00,0.1247
2864.00,0.1174
2863.00,0.1090
2862.00,0.1005
2861.00,0.0930
2860.00,0.0870
2859.00,0.0828
2858.00,0.0802
2857.00,0.0791
2856.00,0.0791
2855.00,0.0799
2854.00,0.0814
2853.00,0.0832
2852.00,0.0852
2851.00,0.0870
2850.00,0.0884
2849.00,0.0896
2848.00,0.0907
2847.00,0.0923
2846.00,0.0946
2845.00,0.0980
2844.00,0.1024
2843.00,0.1076
2842.00,0.1130
2841.00,0.1181
2840.00,0.1220
2839.00,0.1240
2838.00,0.1234
2837.00,0.1197
2836.00,0.1131
2835.00,0.1041
2834.00,0.0936
2833.00,0.0827
2832.00,0.0724
2831.00,0.0631
2830.00,0.0553
2829.00,0.0489
2828.00,0.0437
2827.00,0.0395
2826.00,0.0361
2825.00,0.0333
2824.00,0.0310
2823.00,0.0290
2822.00,0.0273
2821.00,0.0259
2820.00,0.0246
2819.00,0.0235
2818.00,0.0226
2817.00,0.0218
2816.00,0.0210
2815.00,0.0204
2814.00,0.0197
2813.00,0.0191
2812.00,0.0185
2811.00,0.0179
2810.00,0.0173
2809.00,0.0167
2808.00,0.0160
2807.00,0.0154
2806.00,0.0147
2805.00,0.0140
2804.00,0.0134
2803.00,0.0128
2802.00,0.0123
2801.00,0.0119
2800.00,0.0115
2799.00,0.0112
2798.00,0.0109
2797.00,0.0107
2796.00,0.0104
2795.00,0.0101
2794.00,0.0098
2793.00,0.0095
2792.00,0.0092
2791.00,0.0089
2790.00,0.0086
2789.00,0.0084
2788.00,0.0082
2787.00,0.0079
2786.00,0.0076
2785.00,0.0074
2784.00,0.0071
2783.00,0.0069
2782.00,0.0067
2781.00,0.0065
2780.00,0.0064
2779.00,0.0062
2778.00,0.0061
2777.00,0.0060
2776.00,0.0058
2775.00,0.0057
2774.00,0.0056
2773.00,0.0055
2772.00,0.0055
2771.00,0.0054
2770.00,0.0054
2769.00,0.0054
2768.00,0.0054
2767.00,0.0054
2766.00,0.0053
2765.00,0.0053
2764.00,0.0052
2763.00,0.0052
2762.00,0.0052
2761.00,0.0051
2760.00,0.0051
2759.00,0.0050
2758.00,0.0050
2757.00,0.0050
2756.00,0.0050
2755.00,0.0049
2754.00,0.0049
2753.00,0.0049
2752.00,0.0049
2751.00,0.0049
2750.00,0.0049
2749.00,0.0049
2748.00,0.0049
2747.00,0.0049
2746.00,0.0050
2745.00,0.0050
2744.00,0.0051
2743.00,0.0052
2742.00,0.0053
2741.00,0.0054
2740.00,0.0056
2739.00,0.0057
2738.00,0.0058
2737.00,0.0060
2736.00,0.0061
2735.00,0.0063
2734.00,0.0064
2733.00,0.0066
2732.00,0.0067
2731.00,0.0069
2730.00,0.0072
2729.00,0.0074
2728.00,0.0077
2727.00,0.0080
2726.00,0.0083
2725.00,0.0086
2724.00,0.0087
2723.00,0.0088
2722.00,0.0087
2721.00,0.0085
2720.00,0.0083
2719.00,0.0080
2718.00,0.0076
2717.00,0.0073
2716.00,0.0070
2715.00,0.0067
2714.00,0.0064
2713.00,0.0062
2712.00,0.0060
2711.00,0.0058
2710.00,0.0056
2709.00,0.0055
2708.00,0.0053
2707.00,0.0051
2706.00,0.0050
2705.00,0.0048
2704.00,0.0047
2703.00,0.0046
2702.00,0.0045
2701.00,0.0044
2700.00,0.0044
2699.00,0.0044
2698.00,0.0044
2697.00,0.0044
2696.00,0.0044
2695.00,0.0044
2694.00,0.0044
2693.00,0.0044
2692.00,0.0043
2691.00,0.0043
2690.00,0.0043
2689.00,0.0042
2688.00,0.0042
2687.00,0.0042
2686.00,0.0042
2685.00,0.0043
2684.00,0.0043
2683.00,0.0044
2682.00,0.0044
2681.00,0.0044
2680.00,0.0044
2679.00,0.0044
2678.00,0.0044
2677.00,0.0044
2676.00,0.0044
2675.00,0.0044
2674.00,0.0044
2673.00,0.0044
2672.00,0.0044
2671.00,0.0043
2670.00,0.0043
2669.00,0.0043
2668.00,0.0043
2667.00,0.0043
2666.00,0.0044
2665.00,0.0044
2664.00,0.0045
2663.00,0.0045
2662.00,0.0046
2661.00,0.0046
2660.00,0.0046
2659.00,0.0046
2658.00,0.0046
2657.00,0.0046
2656.00,0.0046
2655.00,0.0045
2654.00,0.0045
2653.00,0.0044
2652.00,0.0043
2651.00,0.0043
2650.00,0.0042
2649.00,0.0042
2648.00,0.0042
2647.00,0.0042
2646.00,0.0042
2645.00,0.0042
2644.00,0.0041
2643.00,0.0041
2642.00,0.0040
2641.00,0.0040
2640.00,0.0039
2639.00,0.0039
2638.00,0.0038
2637.00,0.0038
2636.00,0.0037
2635.00,0.0037
2634.00,0.0037
2633.00,0.0037
2632.00,0.0037
2631.00,0.0037
2630.00,0.0037
2629.00,0.0037
2628.00,0.0037
2627.00,0.0037
2626.00,0.0038
2625.00,0.0038
2624.00,0.0038
2623.00,0.0039
2622.00,0.0039
2621.00,0.0040
2620.00,0.0040
2619.00,0.0040
2618.00,0.0039
2617.00,0.0039
2616.00,0.0039
2615.00,0.0039
2614.00,0.0039
2613.00,0.0039
2612.00,0.0039
2611.00,0.0038
2610.00,0.0037
2609.00,0.0036
2608.00,0.0035
2607.00,0.0034
2606.00,0.0034
2605.00,0.0034
2604.00,0.0033
2603.00,0.0033
2602.00,0.0032
2601.00,0.0032
2600.00,0.0031
2599.00,0.0031
2598.00,0.0031
2597.00,0.0031
2596.00,0.0031
2595.00,0.0031
2594.00,0.0032
2593.00,0.0032
2592.00,0.0033
2591.00,0.0033
2590.00,0.0034
2589.00,0.0035
2588.00,0.0036
2587.00,0.0037
2586.00,0.0038
2585.00,0.0039
2584.00,0.0040
2583.00,0.0041
2582.00,0.0041
2581.00,0.0040
2580.00,0.0039
2579.00,0.0038
2578.00,0.0037
2577.00,0.0035
2576.00,0.0034
2575.00,0.0033
2574.00,0.0032
2573.00,0.0031
2572.00,0.0029
2571.00,0.0028
2570.00,0.0027
2569.00,0.0026
2568.00,0.0026
2567.00,0.0025
2566.00,0.0025
2565.00,0.0024
2564.00,0.0023
2563.00,0.0023
2562.00,0.0022
2561.00,0.0022
2560.00,0.0022
2559.00,0.0022
2558.00,0.0022
2557.00,0.0022
2556.00,0.0022
2555.00,0.0022
2554.00,0.0021
2553.00,0.0021
2552.00,0.0021
2551.00,0.0020
2550.00,0.0020
2549.00,0.0020
2548.00,0.0020
2547.00,0.0019
2546.00,0.0019
2545.00,0.0019
2544.00,0.0019
2543.00,0.0018
2542.00,0.0018
2541.00,0.0018
2540.00,0.0017
2539.00,0.0017
2538.00,0.0017
2537.00,0.0016
2536.00,0.0016
2535.00,0.0015
2534.00,0.0015
2533.00,0.0015
2532.00,0.0014
2531.00,0.0014
2530.00,0.0015
2529.00,0.0015
2528.00,0.0014
2527.00,0.0014
2526.00,0.0013
2525.00,0.0012
2524.00,0.0012
2523.00,0.0011
2522.00,0.0011
2521.00,0.0011
2520.00,0.0012
2519.00,0.0012
2518.00,0.0011
2517.00,0.0011
2516.00,0.0011
2515.00,0.0010
2514.00,0.0010
2513.00,0.0009
2512.00,0.0010
2511.00,0.0010
2510.00,0.0010
2509.00,0.0010
2508.00,0.0010
2507.00,0.0011
2506.00,0.0011
2505.00,0.0011
2504.00,0.0010
2503.00,0.0010
2502.00,0.0010
2501.00,0.0010
2500.00,0.0010
2499.00,0.0010
2498.00,0.0010
2497.00,0.0010
2496.00,0.0010
2495.00,0.0010
2494.00,0.0010
2493.00,0.0010
2492.00,0.0009
2491.00,0.0010
2490.00,0.0010
2489.00,0.0010
2488.00,0.0010
2487.00,0.0010
2486.00,0.0010
2485.00,0.0009
2484.00,0.0009
2483.00,0.0009
2482.00,0.0010
2481.00,0.0010
2480.00,0.0010
2479.00,0.0009
2478.00,0.0009
2477.00,0.0009
2476.00,0.0009
2475.00,0.0009
2474.00,0.0009
2473.00,0.0009
2472.00,0.0008
2471.00,0.0008
2470.00,0.0008
2469.00,0.0008
2468.00,0.0008
2467.00,0.0008
2466.00,0.0009
2465.00,0.0009
2464.00,0.0009
2463.00,0.0009
2462.00,0.0009
2461.00,0.0009
2460.00,0.0009
2459.00,0.0009
2458.00,0.0009
2457.00,0.0010
2456.00,0.0010
2455.00,0.0011
2454.00,0.0011
2453.00,0.0011
2452.00,0.0011
2451.00,0.0011
2450.00,0.0011
2449.00,0.0011
2448.00,0.0010
2447.00,0.0010
2446.00,0.0009
2445.00,0.0009
2444.00,0.0009
2443.00,0.0010
2442.00,0.0010
2441.00,0.0010
2440.00,0.0010
2439.00,0.0010
2438.00,0.0010
2437.00,0.0010
2436.00,0.0010
2435.00,0.0010
2434.00,0.0011
2433.00,0.0011
2432.00,0.0011
2431.00,0.0011
2430.00,0.0011
2429.00,0.0012
2428.00,0.0012
2427.00,0.0012
2426.00,0.0012
2425.00,0.0012
2424.00,0.0011
2423.00,0.0011
2422.00,0.0011
2421.00,0.0011
2420.00,0.0010
2419.00,0.0009
2418.00,0.0008
2417.00,0.0008
2416.00,0.0008
2415.00,0.0008
2414.00,0.0008
2413.00,0.0008
2412.00,0.0008
2411.00,0.0008
2410.00,0.0008
2409.00,0.0008
2408.00,0.0008
2407.00,0.0008
2406.00,0.0008
2405.00,0.0009
2404.00,0.0009
2403.00,0.0009
2402.00,0.0008
2401.00,0.0007
2400.00,0.0007
2399.00,0.0007
2398.00,0.0008
2397.00,0.0008
2396.00,0.0008
2395.00,0.0008
2394.00,0.0007
2393.00,0.0007
2392.00,0.0007
2391.00,0.0007
2390.00,0.0007
2389.00,0.0007
2388.00,0.0006
2387.00,0.0006
2386.00,0.0005
2385.00,0.0005
2384.00,0.0005
2383.00,0.0005
2382.00,0.0005
2381.00,0.0005
2380.00,0.0004
2379.00,0.0004
2378.00,0.0004
2377.00,0.0004
2376.00,0.0005
2375.00,0.0005
2374.00,0.0005
2373.00,0.0005
2372.00,0.0005
2371.00,0.0005
2370.00,0.0005
2369.00,0.0004
2368.00,0.0003
2367.00,0.0003
2366.00,0.0002
2365.00,0.0002
2364.00,0.0003
2363.00,0.0003
2362.00,0.0004
2361.00,0.0004
2360.00,0.0005
2359.00,0.0006
2358.00,0.0006
2357.00,0.0007
2356.00,0.0008
2355.00,0.0008
2354.00,0.0008
2353.00,0.0007
2352.00,0.0006
2351.00,0.0006
2350.00,0.0006
2349.00,0.0006
2348.00,0.0006
2347.00,0.0007
2346.00,0.0007
2345.00,0.0007
2344.00,0.0007
2343.00,0.0007
2342.00,0.0007
2341.00,0.0007
2340.00,0.0008
2339.00,0.0009
2338.00,0.0009
2337.00,0.0009
2336.00,0.0009
2335.00,0.0008
2334.00,0.0008
2333.00,0.0007
2332.00,0.0007
2331.00,0.0006
2330.00,0.0006
2329.00,0.0006
2328.00,0.0008
2327.00,0.0011
2326.00,0.0016
2325.00,0.0020
2324.00,0.0022
2323.00,0.0021
2322.00,0.0019
2321.00,0.0017
2320.00,0.0015
2319.00,0.0014
2318.00,0.0013
2317.00,0.0013
2316.00,0.0013
2315.00,0.0013
2314.00,0.0012
2313.00,0.0011
2312.00,0.0009
2311.00,0.0008
2310.00,0.0007
2309.00,0.0007
2308.00,0.0007
2307.00,0.0007
2306.00,0.0007
2305.00,0.0008
2304.00,0.0008
2303.00,0.0009
2302.00,0.0009
2301.00,0.0009
2300.00,0.0008
2299.00,0.0008
2298.00,0.0008
2297.00,0.0009
2296.00,0.0010
2295.00,0.0011
2294.00,0.0012
2293.00,0.0013
2292.00,0.0014
2291.00,0.0015
2290.00,0.0016
2289.00,0.0016
2288.00,0.0016
2287.00,0.0016
2286.00,0.0016
2285.00,0.0016
2284.00,0.0016
2283.00,0.0016
2282.00,0.0015
2281.00,0.0015
2280.00,0.0015
2279.00,0.0016
2278.00,0.0016
2277.00,0.0015
2276.00,0.0014
2275.00,0.0014
2274.00,0.0015
2273.00,0.0015
2272.00,0.0015
2271.00,0.0015
2270.00,0.0014
2269.00,0.0015
2268.00,0.0016
2267.00,0.0016
2266.00,0.0016
2265.00,0.0014
2264.00,0.0013
2263.00,0.0012
2262.00,0.0012
2261.00,0.0013
2260.00,0.0013
2259.00,0.0014
2258.00,0.0014
2257.00,0.0013
2256.00,0.0011
2255.00,0.0009
2254.00,0.0008
2253.00,0.0008
2252.00,0.0009
2251.00,0.0009
2250.00,0.0009
2249.00,0.0008
2248.00,0.0007
2247.00,0.0007
2246.00,0.0007
2245.00,0.0007
2244.00,0.0008
2243.00,0.0008
2242.00,0.0008
2241.00,0.0008
2240.00,0.0009
2239.00,0.0009
2238.00,0.0009
2237.00,0.0008
2236.00,0.0008
2235.00,0.0008
2234.00,0.0008
2233.00,0.0008
2232.00,0.0008
2231.00,0.0008
2230.00,0.0007
2229.00,0.0007
2228.00,0.0006
2227.00,0.0007
2226.00,0.0008
2225.00,0.0008
2224.00,0.0008
2223.00,0.0006
2222.00,0.0005
2221.00,0.0004
2220.00,0.0005
2219.00,0.0006
2218.00,0.0007
2217.00,0.0007
2216.00,0.0007
2215.00,0.0007
2214.00,0.0007
2213.00,0.0007
2212.00,0.0007
2211.00,0.0007
2210.00,0.0006
2209.00,0.0005
2208.00,0.0004
2207.00,0.0003
2206.00,0.0002
2205.00,0.0002
2204.00,0.0003
2203.00,0.0004
2202.00,0.0005
2201.00,0.0005
2200.00,0.0006
2199.00,0.0007
2198.00,0.0008
2197.00,0.0010
2196.00,0.0010
2195.00,0.0009
2194.00,0.0008
2193.00,0.0007
2192.00,0.0006
2191.00,0.0007
2190.00,0.0007
2189.00,0.0007
2188.00,0.0007
2187.00,0.0008
2186.00,0.0010
2185.00,0.0012
2184.00,0.0012
2183.00,0.0010
2182.00,0.0006
2181.00,0.0004
2180.00,0.0004
2179.00,0.0005
2178.00,0.0007
2177.00,0.0007
2176.00,0.0007
2175.00,0.0006
2174.00,0.0006
2173.00,0.0005
2172.00,0.0005
2171.00,0.0004
2170.00,0.0005
2169.00,0.0007
2168.00,0.0011
2167.00,0.0013
2166.00,0.0014
2165.00,0.0013
2164.00,0.0012
2163.00,0.0013
2162.00,0.0013
2161.00,0.0012
2160.00,0.0004
2159.00,-0.0008
2158.00,-0.0020
2157.00,-0.0026
2156.00,-0.0027
2155.00,-0.0025
2154.00,-0.0024
2153.00,-0.0023
2152.00,-0.0021
2151.00,-0.0020
2150.00,-0.0019
2149.00,-0.0019
2148.00,-0.0019
2147.00,-0.0017
2146.00,-0.0015
2145.00,-0.0015
2144.00,-0.0015
2143.00,-0.0015
2142.00,-0.0015
2141.00,-0.0013
2140.00,-0.0012
2139.00,-0.0011
2138.00,-0.0011
2137.00,-0.0013
2136.00,-0.0016
2135.00,-0.0018
2134.00,-0.0020
2133.00,-0.0020
2132.00,-0.0020
2131.00,-0.0020
2130.00,-0.0019
2129.00,-0.0018
2128.00,-0.0016
2127.00,-0.0014
2126.00,-0.0013
2125.00,-0.0010
2124.00,-0.0008
2123.00,-0.0005
2122.00,-0.0004
2121.00,-0.0003
2120.00,-0.0004
2119.00,-0.0005
2118.00,-0.0004
2117.00,-0.0003
2116.00,-0.0002
2115.00,-0.0001
2114.00,-0.0000
2113.00,0.0000
2112.00,0.0001
2111.00,0.0001
2110.00,0.0001
2109.00,0.0001
2108.00,0.0000
2107.00,-0.0000
2106.00,0.0000
2105.00,0.0002
2104.00,0.0002
2103.00,0.0002
2102.00,0.0002
2101.00,0.0002
2100.00,0.0002
2099.00,0.0001
2098.00,-0.0000
2097.00,-0.0002
2096.00,-0.0004
2095.00,-0.0006
2094.00,-0.0006
2093.00,-0.0006
2092.00,-0.0005
2091.00,-0.0005
2090.00,-0.0003
2089.00,-0.0001
2088.00,0.0000
2087.00,0.0001
2086.00,0.0001
2085.00,0.0002
2084.00,0.0002
2083.00,0.0002
2082.00,0.0003
2081.00,0.0003
2080.00,0.0003
2079.00,0.0002
2078.00,0.0002
2077.00,0.0002
2076.00,0.0001
2075.00,-0.0000
2074.00,-0.0001
2073.00,-0.0001
2072.00,-0.0001
2071.00,-0.0002
2070.00,-0.0004
2069.00,-0.0004
2068.00,-0.0005
2067.00,-0.0005
2066.00,-0.0005
2065.00,-0.0004
2064.00,-0.0002
2063.00,-0.0002
2062.00,-0.0002
2061.00,-0.0003
2060.00,-0.0003
2059.00,-0.0003
2058.00,-0.0002
2057.00,-0.0001
2056.00,0.0000
2055.00,0.0001
2054.00,0.0003
2053.00,0.0007
2052.00,0.0013
2051.00,0.0017
2050.00,0.0016
2049.00,0.0012
2048.00,0.0008
2047.00,0.0005
2046.00,0.0004
2045.00,0.0003
2044.00,0.0001
2043.00,-0.0002
2042.00,-0.0005
2041.00,-0.0006
2040.00,-0.0006
2039.00,-0.0006
2038.00,-0.0007
2037.00,-0.0007
2036.00,-0.0006
2035.00,-0.0004
2034.00,-0.0005
2033.00,-0.0007
2032.00,-0.0011
2031.00,-0.0014
2030.00,-0.0015
2029.00,-0.0016
2028.00,-0.0016
2027.00,-0.0014
2026.00,-0.0012
2025.00,-0.0010
2024.00,-0.0008
2023.00,-0.0008
2022.00,-0.0008
2021.00,-0.0008
2020.00,-0.0007
2019.00,-0.0006
2018.00,-0.0005
2017.00,-0.0004
2016.00,-0.0005
2015.00,-0.0007
2014.00,-0.0008
2013.00,-0.0009
2012.00,-0.0010
2011.00,-0.0010
2010.00,-0.0009
2009.00,-0.0010
2008.00,-0.0011
2007.00,-0.0012
2006.00,-0.0012
2005.00,-0.0011
2004.00,-0.0010
2003.00,-0.0010
2002.00,-0.0009
2001.00,-0.0008
2000.00,-0.0006
1999.00,-0.0005
1998.00,-0.0005
1997.00,-0.0007
1996.00,-0.0010
1995.00,-0.0011
1994.00,-0.0009
1993.00,-0.0005
1992.00,-0.0001
1991.00,0.0000
1990.00,-0.0000
1989.00,-0.0000
1988.00,0.0001
1987.00,0.0002
1986.00,0.0002
1985.00,0.0002
1984.00,0.0000
1983.00,-0.0001
1982.00,-0.0000
1981.00,0.0002
1980.00,0.0003
1979.00,0.0001
1978.00,-0.0002
1977.00,-0.0003
1976.00,-0.0005
1975.00,-0.0006
1974.00,-0.0007
1973.00,-0.0008
1972.00,-0.0009
1971.00,-0.0009
1970.00,-0.0010
1969.00,-0.0011
1968.00,-0.0013
1967.00,-0.0016
1966.00,-0.0019
1965.00,-0.0020
1964.00,-0.0019
1963.00,-0.0017
1962.00,-0.0016
1961.00,-0.0016
1960.00,-0.0017
1959.00,-0.0019
1958.00,-0.0020
1957.00,-0.0018
1956.00,-0.0017
1955.00,-0.0016
1954.00,-0.0015
1953.00,-0.0015
1952.00,-0.0015
1951.00,-0.0016
1950.00,-0.0017
1949.00,-0.0018
1948.00,-0.0018
1947.00,-0.0017
1946.00,-0.0016
1945.00,-0.0015
1944.00,-0.0015
1943.00,-0.0014
1942.00,-0.0013
1941.00,-0.0013
1940.00,-0.0013
1939.00,-0.0013
1938.00,-0.0014
1937.00,-0.0014
1936.00,-0.0014
1935.00,-0.0014
1934.00,-0.0014
1933.00,-0.0013
1932.00,-0.0012
1931.00,-0.0012
1930.00,-0.0012
1929.00,-0.0012
1928.00,-0.0011
1927.00,-0.0011
1926.00,-0.0010
1925.00,-0.0009
1924.00,-0.0008
1923.00,-0.0007
1922.00,-0.0006
1921.00,-0.0004
1920.00,-0.0003
1919.00,-0.0002
1918.00,-0.0002
1917.00,-0.0002
1916.00,-0.0003
1915.00,-0.0004
1914.00,-0.0004
1913.00,-0.0003
1912.00,-0.0003
1911.00,-0.0003
1910.00,-0.0005
1909.00,-0.0006
1908.00,-0.0007
1907.00,-0.0006
1906.00,-0.0005
1905.00,-0.0003
1904.00,-0.0002
1903.00,-0.0002
1902.00,-0.0003
1901.00,-0.0004
1900.00,-0.0004
1899.00,-0.0004
1898.00,-0.0003
1897.00,-0.0002
1896.00,-0.0002
1895.00,-0.0002
1894.00,-0.0003
1893.00,-0.0003
1892.00,-0.0002
1891.00,-0.0002
1890.00,-0.0001
1889.00,-0.0000
1888.00,-0.0000
1887.00,-0.0001
1886.00,-0.0001
1885.00,-0.0001
1884.00,-0.0001
1883.00,-0.0000
1882.00,-0.0000
1881.00,-0.0001
1880.00,-0.0003
1879.00,-0.0004
1878.00,-0.0005
1877.00,-0.0004
1876.00,-0.0003
1875.00,-0.0003
1874.00,-0.0003
1873.00,-0.0003
1872.00,-0.0003
1871.00,-0.0003
1870.00,-0.0002
1869.00,-0.0002
1868.00,-0.0002
1867.00,-0.0002
1866.00,-0.0002
1865.00,-0.0002
1864.00,-0.0002
1863.00,-0.0001
1862.00,-0.0001
1861.00,-0.0001
1860.00,-0.0000
1859.00,-0.0001
1858.00,-0.0002
1857.00,-0.0002
1856.00,-0.0003
1855.00,-0.0002
1854.00,-0.0002
1853.00,-0.0001
1852.00,-0.0001
1851.00,-0.0000
1850.00,-0.0001
1849.00,-0.0000
1848.00,-0.0000
1847.00,0.0000
1846.00,0.0001
1845.00,0.0001
1844.00,0.0001
1843.00,0.0001
1842.00,-0.0000
1841.00,-0.0001
1840.00,-0.0001
1839.00,-0.0001
1838.00,-0.0000
1837.00,0.0001
1836.00,0.0002
1835.00,0.0002
1834.00,0.0002
1833.00,0.0001
1832.00,0.0000
1831.00,-0.0001
1830.00,-0.0001
1829.00,0.0000
1828.00,0.0001
1827.00,0.0002
1826.00,0.0002
1825.00,0.0002
1824.00,0.0002
1823.00,0.0002
1822.00,0.0002
1821.00,0.0001
1820.00,0.0000
1819.00,-0.0001
1818.00,-0.0002
1817.00,-0.0003
1816.00,-0.0002
1815.00,-0.0001
1814.00,-0.0001
1813.00,-0.0000
1812.00,-0.0000
1811.00,-0.0000
1810.00,0.0000
1809.00,0.0001
1808.00,0.0001
1807.00,0.0002
1806.00,0.0002
1805.00,0.0002
1804.00,0.0002
1803.00,0.0002
1802.00,0.0002
1801.00,0.0002
1800.00,0.0002
1799.00,0.0003
1798.00,0.0003
1797.00,0.0004
1796.00,0.0004
1795.00,0.0004
1794.00,0.0004
1793.00,0.0003
1792.00,0.0003
1791.00,0.0003
1790.00,0.0003
1789.00,0.0004
1788.00,0.0005
1787.00,0.0006
1786.00,0.0006
1785.00,0.0006
1784.00,0.0006
1783.00,0.0006
1782.00,0.0005
1781.00,0.0005
1780.00,0.0005
1779.00,0.0005
1778.00,0.0005
1777.00,0.0005
1776.00,0.0005
1775.00,0.0006
1774.00,0.0006
1773.00,0.0006
1772.00,0.0006
1771.00,0.0006
1770.00,0.0006
1769.00,0.0007
1768.00,0.0007
1767.00,0.0007
1766.00,0.0007
1765.00,0.0007
1764.00,0.0008
1763.00,0.0008
1762.00,0.0009
1761.00,0.0009
1760.00,0.0009
1759.00,0.0009
1758.00,0.0009
1757.00,0.0010
1756.00,0.0011
1755.00,0.0011
1754.00,0.0012
1753.00,0.0012
1752.00,0.0012
1751.00,0.0013
1750.00,0.0014
1749.00,0.0015
1748.00,0.0016
1747.00,0.0017
1746.00,0.0018
1745.00,0.0019
1744.00,0.0020
1743.00,0.0020
1742.00,0.0021
1741.00,0.0021
1740.00,0.0021
1739.00,0.0022
1738.00,0.0022
1737.00,0.0023
1736.00,0.0023
1735.00,0.0024
1734.00,0.0024
1733.00,0.0024
1732.00,0.0024
1731.00,0.0024
1730.00,0.0024
1729.00,0.0024
1728.00,0.0024
1727.00,0.0024
1726.00,0.0025
1725.00,0.0025
1724.00,0.0025
1723.00,0.0025
1722.00,0.0025
1721.00,0.0025
1720.00,0.0024
1719.00,0.0024
1718.00,0.0023
1717.00,0.0022
1716.00,0.0021
1715.00,0.0020
1714.00,0.0019
1713.00,0.0019
1712.00,0.0020
1711.00,0.0020
1710.00,0.0020
1709.00,0.0019
1708.00,0.0019
1707.00,0.0018
1706.00,0.0018
1705.00,0.0019
1704.00,0.0019
1703.00,0.0019
1702.00,0.0020
1701.00,0.0020
1700.00,0.0021
1699.00,0.0021
1698.00,0.0022
1697.00,0.0022
1696.00,0.0022
1695.00,0.0022
1694.00,0.0021
1693.00,0.0021
1692.00,0.0022
1691.00,0.0022
1690.00,0.0023
1689.00,0.0023
1688.00,0.0024
1687.00,0.0024
1686.00,0.0024
1685.00,0.0023
1684.00,0.0023
1683.00,0.0024
1682.00,0.0024
1681.00,0.0024
1680.00,0.0025
1679.00,0.0025
1678.00,0.0025
1677.00,0.0026
1676.00,0.0026
1675.00,0.0026
1674.00,0.0026
1673.00,0.0026
1672.00,0.0025
1671.00,0.0025
1670.00,0.0026
1669.00,0.0027
1668.00,0.0028
1667.00,0.0028
1666.00,0.0029
1665.00,0.0029
1664.00,0.0029
1663.00,0.0029
1662.00,0.0029
1661.00,0.0030
1660.00,0.0030
1659.00,0.0030
1658.00,0.0030
1657.00,0.0030
1656.00,0.0030
1655.00,0.0030
1654.00,0.0030
1653.00,0.0031
1652.00,0.0032
1651.00,0.0032
1650.00,0.0032
1649.00,0.0033
1648.00,0.0034
1647.00,0.0035
1646.00,0.0035
1645.00,0.0035
1644.00,0.0036
1643.00,0.0037
1642.00,0.0038
1641.00,0.0038
1640.00,0.0039
1639.00,0.0040
1638.00,0.0040
1637.00,0.0041
1636.00,0.0041
1635.00,0.0040
1634.00,0.0040
1633.00,0.0039
1632.00,0.0039
1631.00,0.0039
1630.00,0.0038
1629.00,0.0038
1628.00,0.0038
1627.00,0.0037
1626.00,0.0037
1625.00,0.0037
1624.00,0.0036
1623.00,0.0036
1622.00,0.0035
1621.00,0.0035
1620.00,0.0035
1619.00,0.0035
1618.00,0.0035
1617.00,0.0035
1616.00,0.0036
1615.00,0.0035
1614.00,0.0035
1613.00,0.0036
1612.00,0.0036
1611.00,0.0036
1610.00,0.0036
1609.00,0.0036
1608.00,0.0036
1607.00,0.0036
1606.00,0.0036
1605.00,0.0035
1604.00,0.0035
1603.00,0.0035
1602.00,0.0035
1601.00,0.0035
1600.00,0.0035
1599.00,0.0035
1598.00,0.0035
1597.00,0.0035
1596.00,0.0035
1595.00,0.0035
1594.00,0.0035
1593.00,0.0035
1592.00,0.0035
1591.00,0.0035
1590.00,0.0035
1589.00,0.0036
1588.00,0.0036
1587.00,0.0036
1586.00,0.0036
1585.00,0.0036
1584.00,0.0036
1583.00,0.0037
1582.00,0.0037
1581.00,0.0037
1580.00,0.0038
1579.00,0.0038
1578.00,0.0038
1577.00,0.0039
1576.00,0.0039
1575.00,0.0039
1574.00,0.0038
1573.00,0.0038
1572.00,0.0039
1571.00,0.0039
1570.00,0.0039
1569.00,0.0040
1568.00,0.0041
1567.00,0.0041
1566.00,0.0041
1565.00,0.0041
1564.00,0.0041
1563.00,0.0041
1562.00,0.0040
1561.00,0.0040
1560.00,0.0041
1559.00,0.0041
1558.00,0.0041
1557.00,0.0041
1556.00,0.0041
1555.00,0.0041
1554.00,0.0041
1553.00,0.0041
1552.00,0.0042
1551.00,0.0042
1550.00,0.0042
1549.00,0.0042
1548.00,0.0043
1547.00,0.0043
1546.00,0.0042
1545.00,0.0042
1544.00,0.0042
1543.00,0.0041
1542.00,0.0040
1541.00,0.0040
1540.00,0.0041
1539.00,0.0040
1538.00,0.0040
1537.00,0.0040
1536.00,0.0040
1535.00,0.0040
1534.00,0.0039
1533.00,0.0039
1532.00,0.0039
1531.00,0.0039
1530.00,0.0039
1529.00,0.0039
1528.00,0.0039
1527.00,0.0040
1526.00,0.0040
1525.00,0.0040
1524.00,0.0041
1523.00,0.0041
1522.00,0.0040
1521.00,0.0040
1520.00,0.0041
1519.00,0.0042
1518.00,0.0043
1517.00,0.0044
1516.00,0.0045
1515.00,0.0045
1514.00,0.0045
1513.00,0.0046
1512.00,0.0047
1511.00,0.0047
1510.00,0.0047
1509.00,0.0047
1508.00,0.0048
1507.00,0.0048
1506.00,0.0050
1505.00,0.0052
1504.00,0.0054
1503.00,0.0056
1502.00,0.0058
1501.00,0.0060
1500.00,0.0062
1499.00,0.0064
1498.00,0.0065
1497.00,0.0068
1496.00,0.0071
1495.00,0.0073
1494.00,0.0075
1493.00,0.0078
1492.00,0.0082
1491.00,0.0085
1490.00,0.0088
1489.00,0.0093
1488.00,0.0098
1487.00,0.0103
1486.00,0.0107
1485.00,0.0113
1484.00,0.0119
1483.00,0.0126
1482.00,0.0134
1481.00,0.0145
1480.00,0.0157
1479.00,0.0169
1478.00,0.0184
1477.00,0.0205
1476.00,0.0230
1475.00,0.0261
1474.00,0.0302
1473.00,0.0361
1472.00,0.0431
1471.00,0.0499
1470.00,0.0565
1469.00,0.0635
1468.00,0.0711
1467.00,0.0794
1466.00,0.0889
1465.00,0.0990
1464.00,0.1078
1463.00,0.1138
1462.00,0.1175
1461.00,0.1199
1460.00,0.1214
1459.00,0.1221
1458.00,0.1223
1457.00,0.1220
1456.00,0.1210
1455.00,0.1194
1454.00,0.1175
1453.00,0.1151
1452.00,0.1117
1451.00,0.1073
1450.00,0.1016
1449.00,0.0942
1448.00,0.0851
1447.00,0.0757
1446.00,0.0674
1445.00,0.0604
1444.00,0.0544
1443.00,0.0496
1442.00,0.0460
1441.00,0.0435
1440.00,0.0421
1439.00,0.0416
1438.00,0.0420
1437.00,0.0425
1436.00,0.0418
1435.00,0.0394
1434.00,0.0358
1433.00,0.0314
1432.00,0.0268
1431.00,0.0226
1430.00,0.0194
1429.00,0.0171
1428.00,0.0155
1427.00,0.0144
1426.00,0.0138
1425.00,0.0131
1424.00,0.0125
1423.00,0.0121
1422.00,0.0118
1421.00,0.0115
1420.00,0.0112
1419.00,0.0110
1418.00,0.0108
1417.00,0.0106
1416.00,0.0104
1415.00,0.0104
1414.00,0.0104
1413.00,0.0103
1412.00,0.0101
1411.00,0.0100
1410.00,0.0100
1409.00,0.0099
1408.00,0.0098
1407.00,0.0099
1406.00,0.0100
1405.00,0.0100
1404.00,0.0100
1403.00,0.0101
1402.00,0.0103
1401.00,0.0104
1400.00,0.0105
1399.00,0.0107
1398.00,0.0109
1397.00,0.0111
1396.00,0.0113
1395.00,0.0117
1394.00,0.0122
1393.00,0.0126
1392.00,0.0132
1391.00,0.0140
1390.00,0.0150
1389.00,0.0165
1388.00,0.0186
1387.00,0.0218
1386.00,0.0261
1385.00,0.0319
1384.00,0.0398
1383.00,0.0511
1382.00,0.0666
1381.00,0.0869
1380.00,0.1124
1379.00,0.1420
1378.00,0.1713
1377.00,0.1936
1376.00,0.2022
1375.00,0.1931
1374.00,0.1689
1373.00,0.1390
1372.00,0.1113
1371.00,0.0884
1370.00,0.0702
1369.00,0.0566
1368.00,0.0472
1367.00,0.0415
1366.00,0.0384
1365.00,0.0371
1364.00,0.0374
1363.00,0.0388
1362.00,0.0411
1361.00,0.0435
1360.00,0.0454
1359.00,0.0460
1358.00,0.0449
1357.00,0.0423
1356.00,0.0384
1355.00,0.0341
1354.00,0.0300
1353.00,0.0265
1352.00,0.0237
1351.00,0.0214
1350.00,0.0195
1349.00,0.0179
1348.00,0.0166
1347.00,0.0155
1346.00,0.0146
1345.00,0.0138
1344.00,0.0132
1343.00,0.0127
1342.00,0.0122
1341.00,0.0119
1340.00,0.0115
1339.00,0.0113
1338.00,0.0111
1337.00,0.0111
1336.00,0.0112
1335.00,0.0115
1334.00,0.0118
1333.00,0.0123
1332.00,0.0127
1331.00,0.0131
1330.00,0.0132
1329.00,0.0130
1328.00,0.0126
1327.00,0.0121
1326.00,0.0115
1325.00,0.0109
1324.00,0.0103
1323.00,0.0098
1322.00,0.0094
1321.00,0.0091
1320.00,0.0088
1319.00,0.0087
1318.00,0.0085
1317.00,0.0084
1316.00,0.0083
1315.00,0.0083
1314.00,0.0082
1313.00,0.0082
1312.00,0.0083
1311.00,0.0084
1310.00,0.0087
1309.00,0.0091
1308.00,0.0097
1307.00,0.0105
1306.00,0.0113
1305.00,0.0119
1304.00,0.0122
1303.00,0.0121
1302.00,0.0120
1301.00,0.0118
1300.00,0.0118
1299.00,0.0119
1298.00,0.0120
1297.00,0.0121
1296.00,0.0121
1295.00,0.0119
1294.00,0.0115
1293.00,0.0111
1292.00,0.0106
1291.00,0.0101
1290.00,0.0096
1289.00,0.0091
1288.00,0.0088
1287.00,0.0085
1286.00,0.0083
1285.00,0.0082
1284.00,0.0081
1283.00,0.0080
1282.00,0.0079
1281.00,0.0078
1280.00,0.0076
1279.00,0.0075
1278.00,0.0075
1277.00,0.0075
1276.00,0.0075
1275.00,0.0074
1274.00,0.0074
1273.00,0.0074
1272.00,0.0074
1271.00,0.0074
1270.00,0.0075
1269.00,0.0076
1268.00,0.0078
1267.00,0.0080
1266.00,0.0082
1265.00,0.0084
1264.00,0.0085
1263.00,0.0088
1262.00,0.0091
1261.00,0.0094
1260.00,0.0098
1259.00,0.0103
1258.00,0.0108
1257.00,0.0111
1256.00,0.0113
1255.00,0.0112
1254.00,0.0108
1253.00,0.0103
1252.00,0.0098
1251.00,0.0093
1250.00,0.0090
1249.00,0.0086
1248.00,0.0084
1247.00,0.0082
1246.00,0.0080
1245.00,0.0079
1244.00,0.0079
1243.00,0.0079
1242.00,0.0078
1241.00,0.0078
1240.00,0.0077
1239.00,0.0076
1238.00,0.0075
1237.00,0.0075
1236.00,0.0075
1235.00,0.0075
1234.00,0.0075
1233.00,0.0075
1232.00,0.0076
1231.00,0.0077
1230.00,0.0078
1229.00,0.0079
1228.00,0.0080
1227.00,0.0082
1226.00,0.0084
1225.00,0.0087
1224.00,0.0090
1223.00,0.0094
1222.00,0.0097
1221.00,0.0099
1220.00,0.0100
1219.00,0.0100
1218.00,0.0099
1217.00,0.0097
1216.00,0.0095
1215.00,0.0092
1214.00,0.0088
1213.00,0.0085
1212.00,0.0083
1211.00,0.0081
1210.00,0.0079
1209.00,0.0078
1208.00,0.0077
1207.00,0.0076
1206.00,0.0075
1205.00,0.0074
1204.00,0.0073
1203.00,0.0072
1202.00,0.0072
1201.00,0.0072
1200.00,0.0072
1199.00,0.0072
1198.00,0.0072
1197.00,0.0071
1196.00,0.0071
1195.00,0.0070
1194.00,0.0070
1193.00,0.0069
1192.00,0.0069
1191.00,0.0069
1190.00,0.0069
1189.00,0.0069
1188.00,0.0068
1187.00,0.0068
1186.00,0.0068
1185.00,0.0069
1184.00,0.0069
1183.00,0.0071
1182.00,0.0073
1181.00,0.0075
1180.00,0.0077
1179.00,0.0080
1178.00,0.0085
1177.00,0.0091
1176.00,0.0100
1175.00,0.0111
1174.00,0.0125
1173.00,0.0143
1172.00,0.0165
1171.00,0.0189
1170.00,0.0212
1169.00,0.0230
1168.00,0.0241
1167.00,0.0243
1166.00,0.0238
1165.00,0.0229
1164.00,0.0219
1163.00,0.0209
1162.00,0.0201
1161.00,0.0194
1160.00,0.0189
1159.00,0.0186
1158.00,0.0185
1157.00,0.0184
1156.00,0.0184
1155.00,0.0184
1154.00,0.0184
1153.00,0.0182
1152.00,0.0179
1151.00,0.0173
1150.00,0.0165
1149.00,0.0155
1148.00,0.0145
1147.00,0.0136
1146.00,0.0128
1145.00,0.0119
1144.00,0.0112
1143.00,0.0105
1142.00,0.0099
1141.00,0.0094
1140.00,0.0089
1139.00,0.0084
1138.00,0.0080
1137.00,0.0077
1136.00,0.0074
1135.00,0.0072
1134.00,0.0071
1133.00,0.0069
1132.00,0.0067
1131.00,0.0066
1130.00,0.0066
1129.00,0.0067
1128.00,0.0067
1127.00,0.0068
1126.00,0.0069
1125.00,0.0069
1124.00,0.0068
1123.00,0.0069
1122.00,0.0069
1121.00,0.0069
1120.00,0.0070
1119.00,0.0071
1118.00,0.0072
1117.00,0.0073
1116.00,0.0074
1115.00,0.0075
1114.00,0.0076
1113.00,0.0077
1112.00,0.0079
1111.00,0.0082
1110.00,0.0086
1109.00,0.0090
1108.00,0.0096
1107.00,0.0103
1106.00,0.0110
1105.00,0.0116
1104.00,0.0120
1103.00,0.0123
1102.00,0.0122
1101.00,0.0118
1100.00,0.0113
1099.00,0.0108
1098.00,0.0102
1097.00,0.0096
1096.00,0.0091
1095.00,0.0087
1094.00,0.0084
1093.00,0.0081
1092.00,0.0078
1091.00,0.0077
1090.00,0.0076
1089.00,0.0075
1088.00,0.0075
1087.00,0.0075
1086.00,0.0075
1085.00,0.0075
1084.00,0.0073
1083.00,0.0072
1082.00,0.0072
1081.00,0.0072
1080.00,0.0072
1079.00,0.0073
1078.00,0.0073
1077.00,0.0072
1076.00,0.0071
1075.00,0.0070
1074.00,0.0069
1073.00,0.0068
1072.00,0.0067
1071.00,0.0067
1070.00,0.0067
1069.00,0.0068
1068.00,0.0069
1067.00,0.0070
1066.00,0.0071
1065.00,0.0072
1064.00,0.0073
1063.00,0.0074
1062.00,0.0075
1061.00,0.0076
1060.00,0.0076
1059.00,0.0077
1058.00,0.0078
1057.00,0.0079
1056.00,0.0080
1055.00,0.0082
1054.00,0.0085
1053.00,0.0088
1052.00,0.0091
1051.00,0.0095
1050.00,0.0098
1049.00,0.0102
1048.00,0.0106
1047.00,0.0110
1046.00,0.0113
1045.00,0.0116
1044.00,0.0117
1043.00,0.0117
1042.00,0.0117
1041.00,0.0116
1040.00,0.0116
1039.00,0.0116
1038.00,0.0116
1037.00,0.0115
1036.00,0.0114
1035.00,0.0113
1034.00,0.0111
1033.00,0.0110
1032.00,0.0109
1031.00,0.0108
1030.00,0.0108
1029.00,0.0107
1028.00,0.0107
1027.00,0.0108
1026.00,0.0110
1025.00,0.0113
1024.00,0.0115
1023.00,0.0118
1022.00,0.0120
1021.00,0.0122
1020.00,0.0123
1019.00,0.0125
1018.00,0.0125
1017.00,0.0125
1016.00,0.0124
1015.00,0.0123
1014.00,0.0122
1013.00,0.0121
1012.00,0.0121
1011.00,0.0120
1010.00,0.0120
1009.00,0.0120
1008.00,0.0122
1007.00,0.0126
1006.00,0.0131
1005.00,0.0139
1004.00,0.0150
1003.00,0.0164
1002.00,0.0184
1001.00,0.0208
1000.00,0.0233
999.00,0.0253
998.00,0.0261
997.00,0.0255
996.00,0.0236
995.00,0.0208
994.00,0.0180
993.00,0.0156
992.00,0.0137
991.00,0.0123
990.00,0.0114
989.00,0.0108
988.00,0.0104
987.00,0.0103
986.00,0.0103
985.00,0.0105
984.00,0.0108
983.00,0.0115
982.00,0.0124
981.00,0.0137
980.00,0.0155
979.00,0.0180
978.00,0.0210
977.00,0.0245
976.00,0.0279
975.00,0.0309
974.00,0.0327
973.00,0.0329
972.00,0.0313
971.00,0.0283
970.00,0.0245
969.00,0.0208
968.00,0.0177
967.00,0.0153
966.00,0.0136
965.00,0.0123
964.00,0.0113
963.00,0.0106
962.00,0.0100
961.00,0.0096
960.00,0.0093
959.00,0.0090
958.00,0.0087
957.00,0.0084
956.00,0.0082
955.00,0.0079
954.00,0.0078
953.00,0.0076
952.00,0.0075
951.00,0.0075
950.00,0.0075
949.00,0.0075
948.00,0.0075
947.00,0.0075
946.00,0.0077
945.00,0.0079
944.00,0.0083
943.00,0.0087
942.00,0.0091
941.00,0.0093
940.00,0.0093
939.00,0.0090
938.00,0.0085
937.00,0.0079
936.00,0.0073
935.00,0.0069
934.00,0.0067
933.00,0.0066
932.00,0.0064
931.00,0.0063
930.00,0.0062
929.00,0.0061
928.00,0.0060
927.00,0.0060
926.00,0.0060
925.00,0.0059
924.00,0.0060
923.00,0.0060
922.00,0.0060
921.00,0.0059
920.00,0.0058
919.00,0.0058
918.00,0.0058
917.00,0.0059
916.00,0.0060
915.00,0.0061
914.00,0.0062
913.00,0.0063
912.00,0.0063
911.00,0.0064
910.00,0.0067
909.00,0.0071
908.00,0.0074
907.00,0.0079
906.00,0.0086
905.00,0.0097
904.00,0.0113
903.00,0.0132
902.00,0.0153
901.00,0.0172
900.00,0.0185
899.00,0.0187
898.00,0.0179
897.00,0.0162
896.00,0.0142
895.00,0.0122
894.00,0.0106
893.00,0.0093
892.00,0.0084
891.00,0.0077
890.00,0.0073
889.00,0.0071
888.00,0.0069
887.00,0.0068
886.00,0.0068
885.00,0.0068
884.00,0.0067
883.00,0.0067
882.00,0.0067
881.00,0.0067
880.00,0.0067
879.00,0.0068
878.00,0.0068
877.00,0.0069
876.00,0.0070
875.00,0.0071
874.00,0.0072
873.00,0.0073
872.00,0.0073
871.00,0.0073
870.00,0.0071
869.00,0.0070
868.00,0.0070
867.00,0.0071
866.00,0.0072
865.00,0.0073
864.00,0.0075
863.00,0.0076
862.00,0.0078
861.00,0.0079
860.00,0.0080
859.00,0.0081
858.00,0.0082
857.00,0.0083
856.00,0.0084
855.00,0.0086
854.00,0.0087
853.00,0.0089
852.00,0.0090
851.00,0.0092
850.00,0.0094
849.00,0.0099
848.00,0.0106
847.00,0.0115
846.00,0.0129
845.00,0.0148
844.00,0.0176
843.00,0.0207
842.00,0.0231
841.00,0.0237
840.00,0.0221
839.00,0.0191
838.00,0.0159
837.00,0.0136
836.00,0.0121
835.00,0.0113
834.00,0.0107
833.00,0.0102
832.00,0.0099
831.00,0.0096
830.00,0.0095
829.00,0.0094
828.00,0.0093
827.00,0.0091
826.00,0.0090
825.00,0.0089
824.00,0.0089
823.00,0.0090
822.00,0.0092
821.00,0.0094
820.00,0.0097
819.00,0.0101
818.00,0.0105
817.00,0.0112
816.00,0.0122
815.00,0.0136
814.00,0.0154
813.00,0.0174
812.00,0.0195
811.00,0.0214
810.00,0.0228
809.00,0.0233
808.00,0.0228
807.00,0.0213
806.00,0.0193
805.00,0.0173
804.00,0.0155
803.00,0.0141
802.00,0.0130
801.00,0.0122
800.00,0.0115
799.00,0.0109
798.00,0.0103
797.00,0.0099
796.00,0.0095
795.00,0.0091
794.00,0.0087
793.00,0.0084
792.00,0.0080
791.00,0.0077
790.00,0.0075
789.00,0.0074
788.00,0.0073
787.00,0.0072
786.00,0.0069
785.00,0.0066
784.00,0.0063
783.00,0.0061
782.00,0.0062
781.00,0.0064
780.00,0.0064
779.00,0.0063
778.00,0.0062
777.00,0.0061
776.00,0.0061
775.00,0.0061
774.00,0.0062
773.00,0.0062
772.00,0.0062
771.00,0.0062
770.00,0.0062
769.00,0.0061
768.00,0.0060
767.00,0.0059
766.00,0.0060
765.00,0.0060
764.00,0.0061
763.00,0.0061
762.00,0.0062
761.00,0.0062
760.00,0.0063
759.00,0.0063
758.00,0.0064
757.00,0.0065
756.00,0.0065
755.00,0.0067
754.00,0.0069
753.00,0.0071
752.00,0.0071
751.00,0.0071
750.00,0.0071
749.00,0.0071
748.00,0.0073
747.00,0.0074
746.00,0.0077
745.00,0.0080
744.00,0.0083
743.00,0.0084
742.00,0.0085
741.00,0.0087
740.00,0.0089
739.00,0.0094
738.00,0.0099
737.00,0.0104
736.00,0.0107
735.00,0.0110
734.00,0.0113
733.00,0.0120
732.00,0.0128
731.00,0.0136
730.00,0.0142
729.00,0.0144
728.00,0.0143
727.00,0.0142
726.00,0.0143
725.00,0.0147
724.00,0.0153
723.00,0.0160
722.00,0.0167
721.00,0.0171
720.00,0.0170
719.00,0.0163
718.00,0.0151
717.00,0.0139
716.00,0.0127
715.00,0.0119
714.00,0.0113
713.00,0.0110
712.00,0.0107
711.00,0.0104
710.00,0.0100
709.00,0.0097
708.00,0.0095
707.00,0.0094
706.00,0.0093
705.00,0.0094
704.00,0.0094
703.00,0.0094
702.00,0.0093
701.00,0.0090
700.00,0.0087
699.00,0.0086
698.00,0.0086
697.00,0.0087
696.00,0.0087
695.00,0.0088
694.00,0.0088
693.00,0.0088
692.00,0.0087
691.00,0.0087
690.00,0.0086
689.00,0.0086
688.00,0.0087
687.00,0.0089
686.00,0.0089
685.00,0.0087
684.00,0.0085
683.00,0.0083
682.00,0.0083
681.00,0.0084
680.00,0.0085
679.00,0.0086
678.00,0.0087
677.00,0.0089
676.00,0.0091
675.00,0.0091
674.00,0.0091
673.00,0.0090
672.00,0.0090
671.00,0.0092
670.00,0.0094
669.00,0.0095
668.00,0.0096
667.00,0.0095
666.00,0.0092
665.00,0.0089
664.00,0.0088
663.00,0.0088
662.00,0.0088
661.00,0.0087
660.00,0.0086
659.00,0.0084
658.00,0.0082
657.00,0.0080
656.00,0.0079
655.00,0.0079
654.00,0.0079
653.00,0.0079
652.00,0.0078
651.00,0.0078
650.00,0.0079
649.00,0.0081
648.00,0.0082
647.00,0.0083
646.00,0.0082
645.00,0.0082
644.00,0.0080
643.00,0.0078
642.00,0.0076
641.00,0.0075
640.00,0.0075
639.00,0.0076
638.00,0.0077
637.00,0.0078
636.00,0.0077
635.00,0.0076
634.00,0.0075
633.00,0.0074
632.00,0.0072
631.00,0.0072
630.00,0.0074
629.00,0.0078
628.00,0.0081
627.00,0.0081
626.00,0.0078
625.00,0.0075
624.00,0.0074
623.00,0.0075
622.00,0.0077
621.00,0.0078
620.00,0.0076
619.00,0.0074
618.00,0.0072
617.00,0.0073
616.00,0.0076
615.00,0.0079
614.00,0.0079
613.00,0.0077
612.00,0.0075
611.00,0.0074
610.00,0.0074
609.00,0.0073
608.00,0.0074
607.00,0.0075
606.00,0.0078
605.00,0.0079
604.00,0.0079
603.00,0.0076
602.00,0.0074
601.00,0.0071
600.00,0.0069
599.00,0.0067
598.00,0.0067
597.00,0.0067
596.00,0.0067
595.00,0.0068
594.00,0.0071
593.00,0.0075
592.00,0.0078
591.00,0.0079
590.00,0.0077
589.00,0.0073
588.00,0.0071
587.00,0.0070
586.00,0.0072
585.00,0.0074
584.00,0.0075
583.00,0.0075
582.00,0.0073
581.00,0.0071
580.00,0.0070
579.00,0.0069
578.00,0.0070
577.00,0.0072
576.00,0.0075
575.00,0.0076
574.00,0.0075
573.00,0.0073
572.00,0.0071
571.00,0.0072
570.00,0.0075
569.00,0.0079
568.00,0.0081
567.00,0.0081
566.00,0.0078
565.00,0.0075
564.00,0.0071
563.00,0.0069
562.00,0.0068
561.00,0.0067
560.00,0.0066
559.00,0.0066
558.00,0.0068
557.00,0.0072
556.00,0.0075
555.00,0.0078
554.00,0.0081
553.00,0.0082
552.00,0.0081
551.00,0.0077
550.00,0.0075
549.00,0.0075
548.00,0.0079
547.00,0.0083
546.00,0.0087
545.00,0.0088
544.00,0.0087
543.00,0.0086
542.00,0.0086
541.00,0.0089
540.00,0.0093
539.00,0.0097
538.00,0.0100
537.00,0.0102
536.00,0.0104
535.00,0.0108
534.00,0.0110
533.00,0.0111
532.00,0.0108
531.00,0.0103
530.00,0.0099
529.00,0.0096
528.00,0.0093
527.00,0.0090
526.00,0.0087
525.00,0.0088
524.00,0.0091
523.00,0.0095
522.00,0.0098
521.00,0.0100
520.00,0.0102
519.00,0.0103
518.00,0.0102
517.00,0.0098
516.00,0.0093
515.00,0.0088
514.00,0.0083
513.00,0.0080
512.00,0.0078
511.00,0.0077
510.00,0.0078
509.00,0.0080
508.00,0.0080
507.00,0.0077
506.00,0.0074
505.00,0.0072
504.00,0.0070
503.00,0.0068
502.00,0.0065
501.00,0.0063
500.00,0.0063
499.00,0.0067
498.00,0.0072
497.00,0.0076
496.00,0.0079
495.00,0.0078
494.00,0.0076
493.00,0.0075
492.00,0.0076
491.00,0.0077
490.00,0.0077
489.00,0.0076
488.00,0.0077
487.00,0.0080
486.00,0.0084
485.00,0.0084
484.00,0.0084
483.00,0.0086
482.00,0.0091
481.00,0.0097
480.00,0.0101
479.00,0.0104
478.00,0.0104
477.00,0.0101
476.00,0.0099
475.00,0.0101
474.00,0.0109
473.00,0.0116
472.00,0.0119
471.00,0.0118
470.00,0.0116
469.00,0.0119
468.00,0.0127
467.00,0.0142
466.00,0.0159
465.00,0.0172
464.00,0.0177
463.00,0.0179
462.00,0.0184
461.00,0.0193
460.00,0.0203
459.00,0.0207
458.00,0.0206
457.00,0.0203
456.00,0.0202
455.00,0.0201
454.00,0.0199
453.00,0.0195
452.00,0.0191
451.00,0.0185
450.00,0.0174
