Created as New Dataset,Sample 030 By Administrator Date Friday, September 05 2025
cm-1,A
4000.00,0.0010
3999.00,0.0010
3998.00,0.0011
3997.00,0.0011
3996.00,0.0011
3995.00,0.0011
3994.00,0.0011
3993.00,0.0011
3992.00,0.0011
3991.00,0.0011
3990.00,0.0011
3989.00,0.0011
3988.00,0.0011
3987.00,0.0011
3986.00,0.0011
3985.00,0.0010
3984.00,0.0010
3983.00,0.0010
3982.00,0.0010
3981.00,0.0010
3980.00,0.0010
3979.00,0.0010
3978.00,0.0010
3977.00,0.0010
3976.00,0.0009
3975.00,0.0009
3974.00,0.0009
3973.00,0.0009
3972.00,0.0009
3971.00,0.0009
3970.00,0.0009
3969.00,0.0009
3968.00,0.0009
3967.00,0.0008
3966.00,0.0008
3965.00,0.0008
3964.00,0.0008
3963.00,0.0009
3962.00,0.0009
3961.00,0.0009
3960.00,0.0009
3959.00,0.0009
3958.00,0.0009
3957.00,0.0008
3956.00,0.0008
3955.00,0.0008
3954.00,0.0008
3953.00,0.0009
3952.00,0.0009
3951.00,0.0009
3950.00,0.0009
3949.00,0.0009
3948.00,0.0009
3947.00,0.0009
3946.00,0.0009
3945.00,0.0009
3944.00,0.0009
3943.00,0.0009
3942.00,0.0009
3941.00,0.0009
3940.00,0.0009
3939.00,0.0009
3938.00,0.0009
3937.00,0.0009
3936.00,0.0009
3935.00,0.0009
3934.00,0.0009
3933.00,0.0009
3932.00,0.0009
3931.00,0.0009
3930.00,0.0009
3929.00,0.0009
3928.00,0.0009
3927.00,0.0009
3926.00,0.0009
3925.00,0.0009
3924.00,0.0009
3923.00,0.0009
3922.00,0.0010
3921.00,0.0010
3920.00,0.0010
3919.00,0.0010
3918.00,0.0009
3917.00,0.0009
3916.00,0.0009
3915.00,0.0009
3914.00,0.0009
3913.00,0.0010
3912.00,0.0010
3911.00,0.0010
3910.00,0.0010
3909.00,0.0010
3908.00,0.0010
3907.00,0.0009
3906.00,0.0009
3905.00,0.0009
3904.00,0.0009
3903.00,0.0008
3902.00,0.0008
3901.00,0.0009
3900.00,0.0009
3899.00,0.0009
3898.00,0.0009
3897.00,0.0009
3896.00,0.0009
3895.00,0.0010
3894.00,0.0009
3893.00,0.0009
3892.00,0.0009
3891.00,0.0009
3890.00,0.0009
3889.00,0.0009
3888.00,0.0009
3887.00,0.0009
3886.00,0.0009
3885.00,0.0009
3884.00,0.0009
3883.00,0.0010
3882.00,0.0010
3881.00,0.0010
3880.00,0.0009
3879.00,0.0009
3878.00,0.0009
3877.00,0.0009
3876.00,0.0009
3875.00,0.0009
3874.00,0.0008
3873.00,0.0008
3872.00,0.0009
3871.00,0.0009
3870.00,0.0009
3869.00,0.0009
3868.00,0.0009
3867.00,0.0009
3866.00,0.0009
3865.00,0.0009
3864.00,0.0009
3863.00,0.0009
3862.00,0.0009
3861.00,0.0008
3860.00,0.0008
3859.00,0.0008
3858.00,0.0007
3857.00,0.0007
3856.00,0.0008
3855.00,0.0008
3854.00,0.0008
3853.00,0.0008
3852.00,0.0008
3851.00,0.0009
3850.00,0.0009
3849.00,0.0009
3848.00,0.0009
3847.00,0.0009
3846.00,0.0009
3845.00,0.0009
3844.00,0.0009
3843.00,0.0009
3842.00,0.0009
3841.00,0.0009
3840.00,0.0008
3839.00,0.0008
3838.00,0.0008
3837.00,0.0007
3836.00,0.0008
3835.00,0.0008
3834.00,0.0009
3833.00,0.0009
3832.00,0.0009
3831.00,0.0009
3830.00,0.0009
3829.00,0.0009
3828.00,0.0009
3827.00,0.0009
3826.00,0.0008
3825.00,0.0008
3824.00,0.0008
3823.00,0.0007
3822.00,0.0007
3821.00,0.0008
3820.00,0.0008
3819.00,0.0008
3818.00,0.0009
3817.00,0.0008
3816.00,0.0008
3815.00,0.0008
3814.00,0.0008
3813.00,0.0009
3812.00,0.0009
3811.00,0.0009
3810.00,0.0009
3809.00,0.0009
3808.00,0.0009
3807.00,0.0009
3806.00,0.0009
3805.00,0.0008
3804.00,0.0008
3803.00,0.0008
3802.00,0.0007
3801.00,0.0007
3800.00,0.0007
3799.00,0.0008
3798.00,0.0008
3797.00,0.0008
3796.00,0.0008
3795.00,0.0008
3794.00,0.0008
3793.00,0.0009
3792.00,0.0009
3791.00,0.0009
3790.00,0.0008
3789.00,0.0008
3788.00,0.0008
3787.00,0.0008
3786.00,0.0009
3785.00,0.0009
3784.00,0.0009
3783.00,0.0009
3782.00,0.0009
3781.00,0.0008
3780.00,0.0008
3779.00,0.0008
3778.00,0.0008
3777.00,0.0008
3776.00,0.0009
3775.00,0.0009
3774.00,0.0010
3773.00,0.0010
3772.00,0.0009
3771.00,0.0009
3770.00,0.0008
3769.00,0.0008
3768.00,0.0008
3767.00,0.0008
3766.00,0.0008
3765.00,0.0008
3764.00,0.0008
3763.00,0.0008
3762.00,0.0009
3761.00,0.0009
3760.00,0.0009
3759.00,0.0009
3758.00,0.0010
3757.00,0.0010
3756.00,0.0009
3755.00,0.0009
3754.00,0.0009
3753.00,0.0008
3752.00,0.0008
3751.00,0.0008
3750.00,0.0009
3749.00,0.0009
3748.00,0.0009
3747.00,0.0009
3746.00,0.0009
3745.00,0.0009
3744.00,0.0008
3743.00,0.0009
3742.00,0.0009
3741.00,0.0009
3740.00,0.0009
3739.00,0.0009
3738.00,0.0008
3737.00,0.0008
3736.00,0.0007
3735.00,0.0007
3734.00,0.0007
3733.00,0.0007
3732.00,0.0007
3731.00,0.0007
3730.00,0.0007
3729.00,0.0007
3728.00,0.0007
3727.00,0.0007
3726.00,0.0007
3725.00,0.0007
3724.00,0.0007
3723.00,0.0007
3722.00,0.0007
3721.00,0.0007
3720.00,0.0007
3719.00,0.0007
3718.00,0.0007
3717.00,0.0007
3716.00,0.0007
3715.00,0.0007
3714.00,0.0007
3713.00,0.0007
3712.00,0.0007
3711.00,0.0007
3710.00,0.0006
3709.00,0.0006
3708.00,0.0006
3707.00,0.0006
3706.00,0.0007
3705.00,0.0007
3704.00,0.0007
3703.00,0.0007
3702.00,0.0007
3701.00,0.0007
3700.00,0.0007
3699.00,0.0007
3698.00,0.0007
3697.00,0.0007
3696.00,0.0007
3695.00,0.0006
3694.00,0.0006
3693.00,0.0006
3692.00,0.0005
3691.00,0.0005
3690.00,0.0005
3689.00,0.0006
3688.00,0.0006
3687.00,0.0007
3686.00,0.0007
3685.00,0.0007
3684.00,0.0007
3683.00,0.0006
3682.00,0.0006
3681.00,0.0005
3680.00,0.0005
3679.00,0.0006
3678.00,0.0007
3677.00,0.0009
3676.00,0.0009
3675.00,0.0008
3674.00,0.0007
3673.00,0.0006
3672.00,0.0006
3671.00,0.0006
3670.00,0.0007
3669.00,0.0007
3668.00,0.0006
3667.00,0.0006
3666.00,0.0006
3665.00,0.0006
3664.00,0.0006
3663.00,0.0006
3662.00,0.0005
3661.00,0.0005
3660.00,0.0005
3659.00,0.0005
3658.00,0.0005
3657.00,0.0005
3656.00,0.0006
3655.00,0.0006
3654.00,0.0006
3653.00,0.0006
3652.00,0.0005
3651.00,0.0005
3650.00,0.0005
3649.00,0.0005
3648.00,0.0005
3647.00,0.0005
3646.00,0.0005
3645.00,0.0006
3644.00,0.0006
3643.00,0.0006
3642.00,0.0006
3641.00,0.0006
3640.00,0.0006
3639.00,0.0005
3638.00,0.0005
3637.00,0.0005
3636.00,0.0005
3635.00,0.0005
3634.00,0.0005
3633.00,0.0005
3632.00,0.0005
3631.00,0.0006
3630.00,0.0006
3629.00,0.0006
3628.00,0.0007
3627.00,0.0007
3626.00,0.0007
3625.00,0.0007
3624.00,0.0007
3623.00,0.0007
3622.00,0.0007
3621.00,0.0007
3620.00,0.0007
3619.00,0.0007
3618.00,0.0007
3617.00,0.0007
3616.00,0.0007
3615.00,0.0007
3614.00,0.0007
3613.00,0.0007
3612.00,0.0008
3611.00,0.0008
3610.00,0.0009
3609.00,0.0009
3608.00,0.0008
3607.00,0.0008
3606.00,0.0007
3605.00,0.0007
3604.00,0.0007
3603.00,0.0007
3602.00,0.0008
3601.00,0.0008
3600.00,0.0008
3599.00,0.0008
3598.00,0.0008
3597.00,0.0008
3596.00,0.0008
3595.00,0.0009
3594.00,0.0009
3593.00,0.0009
3592.00,0.0009
3591.00,0.0008
3590.00,0.0008
3589.00,0.0008
3588.00,0.0008
3587.00,0.0008
3586.00,0.0009
3585.00,0.0010
3584.00,0.0010
3583.00,0.0010
3582.00,0.0009
3581.00,0.0009
3580.00,0.0008
3579.00,0.0008
3578.00,0.0008
3577.00,0.0008
3576.00,0.0008
3575.00,0.0008
3574.00,0.0009
3573.00,0.0009
3572.00,0.0009
3571.00,0.0010
3570.00,0.0011
3569.00,0.0012
3568.00,0.0012
3567.00,0.0012
3566.00,0.0012
3565.00,0.0012
3564.00,0.0012
3563.00,0.0011
3562.00,0.0011
3561.00,0.0011
3560.00,0.0011
3559.00,0.0011
3558.00,0.0011
3557.00,0.0011
3556.00,0.0011
3555.00,0.0011
3554.00,0.0011
3553.00,0.0012
3552.00,0.0012
3551.00,0.0012
3550.00,0.0012
3549.00,0.0012
3548.00,0.0013
3547.00,0.0013
3546.00,0.0013
3545.00,0.0013
3544.00,0.0013
3543.00,0.0013
3542.00,0.0013
3541.00,0.0014
3540.00,0.0014
3539.00,0.0015
3538.00,0.0015
3537.00,0.0015
3536.00,0.0015
3535.00,0.0015
3534.00,0.0014
3533.00,0.0015
3532.00,0.0015
3531.00,0.0015
3530.00,0.0016
3529.00,0.0016
3528.00,0.0016
3527.00,0.0016
3526.00,0.0016
3525.00,0.0016
3524.00,0.0016
3523.00,0.0016
3522.00,0.0016
3521.00,0.0016
3520.00,0.0016
3519.00,0.0016
3518.00,0.0016
3517.00,0.0016
3516.00,0.0016
3515.00,0.0016
3514.00,0.0016
3513.00,0.0017
3512.00,0.0017
3511.00,0.0017
3510.00,0.0017
3509.00,0.0017
3508.00,0.0017
3507.00,0.0018
3506.00,0.0018
3505.00,0.0018
3504.00,0.0019
3503.00,0.0018
3502.00,0.0018
3501.00,0.0018
3500.00,0.0018
3499.00,0.0018
3498.00,0.0018
3497.00,0.0019
3496.00,0.0019
3495.00,0.0019
3494.00,0.0019
3493.00,0.0019
3492.00,0.0019
3491.00,0.0019
3490.00,0.0019
3489.00,0.0020
3488.00,0.0020
3487.00,0.0020
3486.00,0.0021
3485.00,0.0021
3484.00,0.0021
3483.00,0.0020
3482.00,0.0020
3481.00,0.0020
3480.00,0.0020
3479.00,0.0021
3478.00,0.0021
3477.00,0.0021
3476.00,0.0022
3475.00,0.0022
3474.00,0.0022
3473.00,0.0022
3472.00,0.0022
3471.00,0.0022
3470.00,0.0022
3469.00,0.0022
3468.00,0.0022
3467.00,0.0022
3466.00,0.0022
3465.00,0.0022
3464.00,0.0022
3463.00,0.0022
3462.00,0.0022
3461.00,0.0023
3460.00,0.0023
3459.00,0.0023
3458.00,0.0023
3457.00,0.0023
3456.00,0.0024
3455.00,0.0024
3454.00,0.0024
3453.00,0.0024
3452.00,0.0023
3451.00,0.0023
3450.00,0.0023
3449.00,0.0024
3448.00,0.0024
3447.00,0.0024
3446.00,0.0024
3445.00,0.0024
3444.00,0.0024
3443.00,0.0024
3442.00,0.0024
3441.00,0.0024
3440.00,0.0025
3439.00,0.0025
3438.00,0.0025
3437.00,0.0025
3436.00,0.0025
3435.00,0.0025
3434.00,0.0025
3433.00,0.0026
3432.00,0.0026
3431.00,0.0026
3430.00,0.0026
3429.00,0.0027
3428.00,0.0027
3427.00,0.0027
3426.00,0.0027
3425.00,0.0027
3424.00,0.0027
3423.00,0.0028
3422.00,0.0028
3421.00,0.0028
3420.00,0.0027
3419.00,0.0027
3418.00,0.0027
3417.00,0.0028
3416.00,0.0028
3415.00,0.0028
3414.00,0.0028
3413.00,0.0028
3412.00,0.0028
3411.00,0.0028
3410.00,0.0028
3409.00,0.0027
3408.00,0.0027
3407.00,0.0027
3406.00,0.0028
3405.00,0.0028
3404.00,0.0028
3403.00,0.0029
3402.00,0.0029
3401.00,0.0029
3400.00,0.0029
3399.00,0.0029
3398.00,0.0028
3397.00,0.0028
3396.00,0.0028
3395.00,0.0028
3394.00,0.0028
3393.00,0.0028
3392.00,0.0028
3391.00,0.0027
3390.00,0.0027
3389.00,0.0027
3388.00,0.0027
3387.00,0.0028
3386.00,0.0028
3385.00,0.0028
3384.00,0.0028
3383.00,0.0029
3382.00,0.0029
3381.00,0.0029
3380.00,0.0029
3379.00,0.0029
3378.00,0.0029
3377.00,0.0029
3376.00,0.0028
3375.00,0.0028
3374.00,0.0028
3373.00,0.0028
3372.00,0.0028
3371.00,0.0028
3370.00,0.0028
3369.00,0.0028
3368.00,0.0028
3367.00,0.0028
3366.00,0.0028
3365.00,0.0028
3364.00,0.0029
3363.00,0.0029
3362.00,0.0029
3361.00,0.0029
3360.00,0.0029
3359.00,0.0029
3358.00,0.0029
3357.00,0.0030
3356.00,0.0030
3355.00,0.0030
3354.00,0.0030
3353.00,0.0030
3352.00,0.0030
3351.00,0.0030
3350.00,0.0030
3349.00,0.0029
3348.00,0.0029
3347.00,0.0029
3346.00,0.0029
3345.00,0.0029
3344.00,0.0029
3343.00,0.0028
3342.00,0.0028
3341.00,0.0028
3340.00,0.0029
3339.00,0.0029
3338.00,0.0029
3337.00,0.0029
3336.00,0.0029
3335.00,0.0029
3334.00,0.0028
3333.00,0.0027
3332.00,0.0027
3331.00,0.0027
3330.00,0.0027
3329.00,0.0027
3328.00,0.0027
3327.00,0.0027
3326.00,0.0027
3325.00,0.0026
3324.00,0.0027
3323.00,0.0027
3322.00,0.0027
3321.00,0.0027
3320.00,0.0027
3319.00,0.0027
3318.00,0.0027
3317.00,0.0027
3316.00,0.0027
3315.00,0.0027
3314.00,0.0027
3313.00,0.0027
3312.00,0.0028
3311.00,0.0028
3310.00,0.0028
3309.00,0.0028
3308.00,0.0028
3307.00,0.0028
3306.00,0.0028
3305.00,0.0028
3304.00,0.0028
3303.00,0.0028
3302.00,0.0028
3301.00,0.0029
3300.00,0.0029
3299.00,0.0029
3298.00,0.0028
3297.00,0.0028
3296.00,0.0028
3295.00,0.0027
3294.00,0.0027
3293.00,0.0027
3292.00,0.0026
3291.00,0.0026
3290.00,0.0026
3289.00,0.0026
3288.00,0.0026
3287.00,0.0027
3286.00,0.0027
3285.00,0.0027
3284.00,0.0027
3283.00,0.0026
3282.00,0.0026
3281.00,0.0026
3280.00,0.0026
3279.00,0.0026
3278.00,0.0026
3277.00,0.0026
3276.00,0.0026
3275.00,0.0026
3274.00,0.0026
3273.00,0.0026
3272.00,0.0026
3271.00,0.0026
3270.00,0.0026
3269.00,0.0026
3268.00,0.0026
3267.00,0.0026
3266.00,0.0025
3265.00,0.0025
3264.00,0.0025
3263.00,0.0025
3262.00,0.0024
3261.00,0.0024
3260.00,0.0024
3259.00,0.0024
3258.00,0.0024
3257.00,0.0024
3256.00,0.0024
3255.00,0.0023
3254.00,0.0023
3253.00,0.0023
3252.00,0.0023
3251.00,0.0023
3250.00,0.0023
3249.00,0.0023
3248.00,0.0022
3247.00,0.0022
3246.00,0.0022
3245.00,0.0022
3244.00,0.0022
3243.00,0.0022
3242.00,0.0023
3241.00,0.0023
3240.00,0.0023
3239.00,0.0023
3238.00,0.0023
3237.00,0.0023
3236.00,0.0023
3235.00,0.0024
3234.00,0.0024
3233.00,0.0024
3232.00,0.0024
3231.00,0.0023
3230.00,0.0023
3229.00,0.0023
3228.00,0.0023
3227.00,0.0024
3226.00,0.0024
3225.00,0.0024
3224.00,0.0025
3223.00,0.0025
3222.00,0.0025
3221.00,0.0026
3220.00,0.0026
3219.00,0.0026
3218.00,0.0027
3217.00,0.0027
3216.00,0.0027
3215.00,0.0027
3214.00,0.0028
3213.00,0.0028
3212.00,0.0028
3211.00,0.0028
3210.00,0.0028
3209.00,0.0028
3208.00,0.0027
3207.00,0.0028
3206.00,0.0028
3205.00,0.0028
3204.00,0.0028
3203.00,0.0027
3202.00,0.0027
3201.00,0.0028
3200.00,0.0028
3199.00,0.0028
3198.00,0.0028
3197.00,0.0028
3196.00,0.0028
3195.00,0.0028
3194.00,0.0028
3193.00,0.0028
3192.00,0.0028
3191.00,0.0028
3190.00,0.0028
3189.00,0.0028
3188.00,0.0028
3187.00,0.0028
3186.00,0.0028
3185.00,0.0028
3184.00,0.0028
3183.00,0.0028
3182.00,0.0027
3181.00,0.0027
3180.00,0.0026
3179.00,0.0026
3178.00,0.0026
3177.00,0.0025
3176.00,0.0025
3175.00,0.0025
3174.00,0.0025
3173.00,0.0025
3172.00,0.0026
3171.00,0.0026
3170.00,0.0026
3169.00,0.0026
3168.00,0.0026
3167.00,0.0026
3166.00,0.0026
3165.00,0.0026
3164.00,0.0025
3163.00,0.0025
3162.00,0.0025
3161.00,0.0025
3160.00,0.0025
3159.00,0.0025
3158.00,0.0025
3157.00,0.0025
3156.00,0.0025
3155.00,0.0025
3154.00,0.0025
3153.00,0.0025
3152.00,0.0026
3151.00,0.0026
3150.00,0.0026
3149.00,0.0026
3148.00,0.0026
3147.00,0.0026
3146.00,0.0026
3145.00,0.0025
3144.00,0.0025
3143.00,0.0025
3142.00,0.0025
3141.00,0.0026
3140.00,0.0026
3139.00,0.0026
3138.00,0.0026
3137.00,0.0025
3136.00,0.0025
3135.00,0.0025
3134.00,0.0025
3133.00,0.0025
3132.00,0.0024
3131.00,0.0024
3130.00,0.0024
3129.00,0.0024
3128.00,0.0024
3127.00,0.0024
3126.00,0.0024
3125.00,0.0024
3124.00,0.0024
3123.00,0.0023
3122.00,0.0023
3121.00,0.0023
3120.00,0.0022
3119.00,0.0022
3118.00,0.0022
3117.00,0.0022
3116.00,0.0021
3115.00,0.0021
3114.00,0.0021
3113.00,0.0021
3112.00,0.0022
3111.00,0.0022
3110.00,0.0022
3109.00,0.0022
3108.00,0.0022
3107.00,0.0022
3106.00,0.0022
3105.00,0.0021
3104.00,0.0021
3103.00,0.0021
3102.00,0.0021
3101.00,0.0021
3100.00,0.0021
3099.00,0.0021
3098.00,0.0021
3097.00,0.0021
3096.00,0.0021
3095.00,0.0021
3094.00,0.0021
3093.00,0.0021
3092.00,0.0021
3091.00,0.0021
3090.00,0.0021
3089.00,0.0021
3088.00,0.0021
3087.00,0.0021
3086.00,0.0021
3085.00,0.0021
3084.00,0.0021
3083.00,0.0021
3082.00,0.0021
3081.00,0.0021
3080.00,0.0021
3079.00,0.0021
3078.00,0.0021
3077.00,0.0021
3076.00,0.0021
3075.00,0.0021
3074.00,0.0022
3073.00,0.0022
3072.00,0.0022
3071.00,0.0022
3070.00,0.0023
3069.00,0.0023
3068.00,0.0023
3067.00,0.0023
3066.00,0.0023
3065.00,0.0023
3064.00,0.0024
3063.00,0.0024
3062.00,0.0024
3061.00,0.0024
3060.00,0.0024
3059.00,0.0024
3058.00,0.0024
3057.00,0.0024
3056.00,0.0024
3055.00,0.0025
3054.00,0.0025
3053.00,0.0025
3052.00,0.0025
3051.00,0.0025
3050.00,0.0026
3049.00,0.0026
3048.00,0.0026
3047.00,0.0026
3046.00,0.0026
3045.00,0.0026
3044.00,0.0026
3043.00,0.0026
3042.00,0.0027
3041.00,0.0027
3040.00,0.0028
3039.00,0.0028
3038.00,0.0029
3037.00,0.0029
3036.00,0.0030
3035.00,0.0030
3034.00,0.0031
3033.00,0.0031
3032.00,0.0031
3031.00,0.0032
3030.00,0.0032
3029.00,0.0033
3028.00,0.0033
3027.00,0.0033
3026.00,0.0034
3025.00,0.0034
3024.00,0.0035
3023.00,0.0036
3022.00,0.0036
3021.00,0.0037
3020.00,0.0038
3019.00,0.0039
3018.00,0.0040
3017.00,0.0040
3016.00,0.0041
3015.00,0.0042
3014.00,0.0043
3013.00,0.0044
3012.00,0.0044
3011.00,0.0045
3010.00,0.0047
3009.00,0.0048
3008.00,0.0050
3007.00,0.0051
3006.00,0.0053
3005.00,0.0055
3004.00,0.0057
3003.00,0.0058
3002.00,0.0060
3001.00,0.0063
3000.00,0.0065
2999.00,0.0068
2998.00,0.0071
2997.00,0.0074
2996.00,0.0078
2995.00,0.0082
2994.00,0.0086
2993.00,0.0090
2992.00,0.0094
2991.00,0.0100
2990.00,0.0106
2989.00,0.0113
2988.00,0.0121
2987.00,0.0129
2986.00,0.0138
2985.00,0.0149
2984.00,0.0160
2983.00,0.0173
2982.00,0.0187
2981.00,0.0204
2980.00,0.0223
2979.00,0.0244
2978.00,0.0269
2977.00,0.0297
2976.00,0.0329
2975.00,0.0366
2974.00,0.0408
2973.00,0.0456
2972.00,0.0510
2971.00,0.0570
2970.00,0.0637
2969.00,0.0710
2968.00,0.0788
2967.00,0.0871
2966.00,0.0958
2965.00,0.1044
2964.00,0.1128
2963.00,0.1205
2962.00,0.1271
2961.00,0.1325
2960.00,0.1369
2959.00,0.1407
2958.00,0.1447
2957.00,0.1494
2956.00,0.1553
2955.00,0.1625
2954.00,0.1708
2953.00,0.1795
2952.00,0.1875
2951.00,0.1932
2950.00,0.1954
2949.00,0.1934
2948.00,0.1868
2947.00,0.1765
2946.00,0.1637
2945.00,0.1501
2944.00,0.1372
2943.00,0.1261
2942.00,0.1175
2941.00,0.1115
2940.00,0.1080
2939.00,0.1069
2938.00,0.1078
2937.00,0.1107
2936.00,0.1153
2935.00,0.1214
2934.00,0.1291
2933.00,0.1380
2932.00,0.1482
2931.00,0.1594
2930.00,0.1713
2929.00,0.1836
2928.00,0.1960
2927.00,0.2083
2926.00,0.2202
2925.00,0.2318
2924.00,0.2431
2923.00,0.2544
2922.00,0.2657
2921.00,0.2765
2920.00,0.2862
2919.00,0.2935
2918.00,0.2972
2917.00,0.2964
2916.00,0.2910
2915.00,0.2818
2914.00,0.2701
2913.00,0.2575
2912.00,0.2452
2911.00,0.2339
2910.00,0.2237
2909.00,0.2147
2908.00,0.2065
2907.00,0.1988
2906.00,0.1914
2905.00,0.1839
2904.00,0.1765
2903.00,0.1693
2902.00,0.1621
2901.00,0.1552
2900.00,0.1486
2899.00,0.1423
2898.00,0.1364
2897.00,0.1310
2896.00,0.1262
2895.00,0.1221
2894.00,0.1186
2893.00,0.1157
2892.00,0.1135
2891.00,0.1118
2890.00,0.1107
2889.00,0.1100
2888.00,0.1097
2887.00,0.1097
2886.00,0.1100
2885.00,0.1108
2884.00,0.1120
2883.00,0.1138
2882.00,0.1159
2881.00,0.1184
2880.00,0.1209
2879.00,0.1229
2878.00,0.1242
2877.00,0.1246
2876.00,0.1241
2875.00,0.1233
2874.00,0.1227
2873.00,0.1226
2872.00,0.1233
2871.00,0.1249
2870.00,0.1270
2869.00,0.1291
2868.00,0.1303
2867.00,0.1300
2866.00,0.1273
2865.00,0.1222
2864.00,0.1150
2863.00,0.1068
2862.00,0.0986
2861.00,0.0913
2860.00,0.0855
2859.00,0.0815
2858.00,0.0790
2857.00,0.0780
2856.00,0.0781
2855.00,0.0790
2854.00,0.0805
2853.00,0.0823
2852.00,0.0843
2851.00,0.0862
2850.00,0.0878
2849.00,0.0891
2848.00,0.0903
2847.00,0.0920
2846.00,0.0944
2845.00,0.0980
2844.00,0.1026
2843.00,0.1080
2842.00,0.1136
2841.00,0.1188
2840.00,0.1229
2839.00,0.1249
2838.00,0.1242
2837.00,0.1204
2836.00,0.1136
2835.00,0.1044
2834.00,0.0938
2833.00,0.0829
2832.00,0.0725
2831.00,0.0633
2830.00,0.0556
2829.00,0.0492
2828.00,0.0440
2827.00,0.0398
2826.00,0.0364
2825.00,0.0336
2824.00,0.0312
2823.00,0.0292
2822.00,0.0275
2821.00,0.0260
2820.00,0.0247
2819.00,0.0235
2818.00,0.0226
2817.00,0.0217
2816.00,0.0210
2815.00,0.0203
2814.00,0.0197
2813.00,0.0192
2812.00,0.0187
2811.00,0.0181
2810.00,0.0175
2809.00,0.0169
2808.00,0.0163
2807.00,0.0156
2806.00,0.0149
2805.00,0.0143
2804.00,0.0136
2803.00,0.0130
2802.00,0.0125
2801.00,0.0120
2800.00,0.0116
2799.00,0.0113
2798.00,0.0110
2797.00,0.0108
2796.00,0.0105
2795.00,0.0103
2794.00,0.0100
2793.00,0.0097
2792.00,0.0094
2791.00,0.0091
2790.00,0.0088
2789.00,0.0085
2788.00,0.0083
2787.00,0.0080
2786.00,0.0077
2785.00,0.0074
2784.00,0.0072
2783.00,0.0070
2782.00,0.0068
2781.00,0.0066
2780.00,0.0065
2779.00,0.0063
2778.00,0.0061
2777.00,0.0060
2776.00,0.0058
2775.00,0.0057
2774.00,0.0056
2773.00,0.0056
2772.00,0.0055
2771.00,0.0055
2770.00,0.0054
2769.00,0.0054
2768.00,0.0054
2767.00,0.0054
2766.00,0.0053
2765.00,0.0053
2764.00,0.0053
2763.00,0.0052
2762.00,0.0052
2761.00,0.0051
2760.00,0.0051
2759.00,0.0051
2758.00,0.0051
2757.00,0.0051
2756.00,0.0051
2755.00,0.0051
2754.00,0.0051
2753.00,0.0050
2752.00,0.0049
2751.00,0.0049
2750.00,0.0049
2749.00,0.0049
2748.00,0.0049
2747.00,0.0050
2746.00,0.0051
2745.00,0.0052
2744.00,0.0052
2743.00,0.0053
2742.00,0.0053
2741.00,0.0054
2740.00,0.0056
2739.00,0.0057
2738.00,0.0058
2737.00,0.0060
2736.00,0.0061
2735.00,0.0063
2734.00,0.0064
2733.00,0.0066
2732.00,0.0068
2731.00,0.0070
2730.00,0.0072
2729.00,0.0074
2728.00,0.0077
2727.00,0.0080
2726.00,0.0083
2725.00,0.0086
2724.00,0.0087
2723.00,0.0088
2722.00,0.0087
2721.00,0.0085
2720.00,0.0082
2719.00,0.0079
2718.00,0.0076
2717.00,0.0073
2716.00,0.0070
2715.00,0.0067
2714.00,0.0065
2713.00,0.0062
2712.00,0.0060
2711.00,0.0057
2710.00,0.0056
2709.00,0.0054
2708.00,0.0053
2707.00,0.0051
2706.00,0.0050
2705.00,0.0049
2704.00,0.0048
2703.00,0.0048
2702.00,0.0047
2701.00,0.0046
2700.00,0.0045
2699.00,0.0044
2698.00,0.0043
2697.00,0.0043
2696.00,0.0043
2695.00,0.0043
2694.00,0.0043
2693.00,0.0043
2692.00,0.0043
2691.00,0.0043
2690.00,0.0043
2689.00,0.0043
2688.00,0.0043
2687.00,0.0043
2686.00,0.0043
2685.00,0.0043
2684.00,0.0044
2683.00,0.0044
2682.00,0.0044
2681.00,0.0044
2680.00,0.0044
2679.00,0.0044
2678.00,0.0044
2677.00,0.0044
2676.00,0.0044
2675.00,0.0044
2674.00,0.0044
2673.00,0.0044
2672.00,0.0044
2671.00,0.0044
2670.00,0.0044
2669.00,0.0043
2668.00,0.0044
2667.00,0.0044
2666.00,0.0045
2665.00,0.0045
2664.00,0.0046
2663.00,0.0047
2662.00,0.0047
2661.00,0.0047
2660.00,0.0047
2659.00,0.0047
2658.00,0.0047
2657.00,0.0047
2656.00,0.0047
2655.00,0.0047
2654.00,0.0046
2653.00,0.0045
2652.00,0.0044
2651.00,0.0044
2650.00,0.0043
2649.00,0.0043
2648.00,0.0042
2647.00,0.0042
2646.00,0.0041
2645.00,0.0041
2644.00,0.0040
2643.00,0.0040
2642.00,0.0039
2641.00,0.0039
2640.00,0.0038
2639.00,0.0038
2638.00,0.0037
2637.00,0.0037
2636.00,0.0037
2635.00,0.0037
2634.00,0.0037
2633.00,0.0037
2632.00,0.0037
2631.00,0.0037
2630.00,0.0037
2629.00,0.0038
2628.00,0.0038
2627.00,0.0038
2626.00,0.0038
2625.00,0.0038
2624.00,0.0039
2623.00,0.0039
2622.00,0.0039
2621.00,0.0039
2620.00,0.0039
2619.00,0.0040
2618.00,0.0040
2617.00,0.0040
2616.00,0.0040
2615.00,0.0039
2614.00,0.0039
2613.00,0.0038
2612.00,0.0037
2611.00,0.0037
2610.00,0.0036
2609.00,0.0036
2608.00,0.0035
2607.00,0.0035
2606.00,0.0034
2605.00,0.0033
2604.00,0.0033
2603.00,0.0032
2602.00,0.0031
2601.00,0.0031
2600.00,0.0031
2599.00,0.0031
2598.00,0.0031
2597.00,0.0031
2596.00,0.0032
2595.00,0.0032
2594.00,0.0032
2593.00,0.0033
2592.00,0.0033
2591.00,0.0033
2590.00,0.0033
2589.00,0.0033
2588.00,0.0033
2587.00,0.0034
2586.00,0.0036
2585.00,0.0037
2584.00,0.0038
2583.00,0.0038
2582.00,0.0038
2581.00,0.0038
2580.00,0.0037
2579.00,0.0037
2578.00,0.0036
2577.00,0.0036
2576.00,0.0035
2575.00,0.0033
2574.00,0.0032
2573.00,0.0031
2572.00,0.0030
2571.00,0.0029
2570.00,0.0028
2569.00,0.0027
2568.00,0.0027
2567.00,0.0026
2566.00,0.0025
2565.00,0.0025
2564.00,0.0023
2563.00,0.0022
2562.00,0.0022
2561.00,0.0021
2560.00,0.0021
2559.00,0.0021
2558.00,0.0022
2557.00,0.0022
2556.00,0.0022
2555.00,0.0022
2554.00,0.0022
2553.00,0.0021
2552.00,0.0020
2551.00,0.0019
2550.00,0.0018
2549.00,0.0018
2548.00,0.0018
2547.00,0.0019
2546.00,0.0018
2545.00,0.0018
2544.00,0.0017
2543.00,0.0017
2542.00,0.0017
2541.00,0.0017
2540.00,0.0016
2539.00,0.0016
2538.00,0.0016
2537.00,0.0016
2536.00,0.0016
2535.00,0.0015
2534.00,0.0015
2533.00,0.0015
2532.00,0.0015
2531.00,0.0015
2530.00,0.0015
2529.00,0.0015
2528.00,0.0014
2527.00,0.0014
2526.00,0.0014
2525.00,0.0015
2524.00,0.0015
2523.00,0.0014
2522.00,0.0014
2521.00,0.0014
2520.00,0.0013
2519.00,0.0012
2518.00,0.0012
2517.00,0.0011
2516.00,0.0011
2515.00,0.0011
2514.00,0.0011
2513.00,0.0011
2512.00,0.0012
2511.00,0.0012
2510.00,0.0011
2509.00,0.0011
2508.00,0.0010
2507.00,0.0009
2506.00,0.0009
2505.00,0.0010
2504.00,0.0010
2503.00,0.0010
2502.00,0.0010
2501.00,0.0010
2500.00,0.0011
2499.00,0.0010
2498.00,0.0010
2497.00,0.0010
2496.00,0.0009
2495.00,0.0010
2494.00,0.0010
2493.00,0.0011
2492.00,0.0011
2491.00,0.0010
2490.00,0.0010
2489.00,0.0010
2488.00,0.0010
2487.00,0.0010
2486.00,0.0010
2485.00,0.0010
2484.00,0.0010
2483.00,0.0010
2482.00,0.0010
2481.00,0.0009
2480.00,0.0009
2479.00,0.0009
2478.00,0.0009
2477.00,0.0008
2476.00,0.0008
2475.00,0.0007
2474.00,0.0007
2473.00,0.0007
2472.00,0.0008
2471.00,0.0008
2470.00,0.0008
2469.00,0.0007
2468.00,0.0007
2467.00,0.0007
2466.00,0.0008
2465.00,0.0008
2464.00,0.0009
2463.00,0.0009
2462.00,0.0009
2461.00,0.0009
2460.00,0.0009
2459.00,0.0010
2458.00,0.0011
2457.00,0.0011
2456.00,0.0011
2455.00,0.0011
2454.00,0.0010
2453.00,0.0010
2452.00,0.0010
2451.00,0.0010
2450.00,0.0011
2449.00,0.0011
2448.00,0.0011
2447.00,0.0011
2446.00,0.0011
2445.00,0.0011
2444.00,0.0011
2443.00,0.0011
2442.00,0.0011
2441.00,0.0010
2440.00,0.0010
2439.00,0.0011
2438.00,0.0011
2437.00,0.0011
2436.00,0.0012
2435.00,0.0012
2434.00,0.0012
2433.00,0.0012
2432.00,0.0012
2431.00,0.0012
2430.00,0.0012
2429.00,0.0011
2428.00,0.0010
2427.00,0.0009
2426.00,0.0010
2425.00,0.0010
2424.00,0.0011
2423.00,0.0011
2422.00,0.0011
2421.00,0.0011
2420.00,0.0010
2419.00,0.0009
2418.00,0.0009
2417.00,0.0008
2416.00,0.0008
2415.00,0.0008
2414.00,0.0008
2413.00,0.0008
2412.00,0.0008
2411.00,0.0008
2410.00,0.0008
2409.00,0.0008
2408.00,0.0007
2407.00,0.0007
2406.00,0.0007
2405.00,0.0007
2404.00,0.0007
2403.00,0.0007
2402.00,0.0007
2401.00,0.0007
2400.00,0.0007
2399.00,0.0007
2398.00,0.0007
2397.00,0.0007
2396.00,0.0007
2395.00,0.0006
2394.00,0.0006
2393.00,0.0007
2392.00,0.0007
2391.00,0.0007
2390.00,0.0007
2389.00,0.0007
2388.00,0.0006
2387.00,0.0006
2386.00,0.0006
2385.00,0.0005
2384.00,0.0005
2383.00,0.0004
2382.00,0.0003
2381.00,0.0003
2380.00,0.0002
2379.00,0.0001
2378.00,0.0001
2377.00,0.0001
2376.00,0.0001
2375.00,0.0001
2374.00,0.0001
2373.00,0.0001
2372.00,0.0002
2371.00,0.0002
2370.00,0.0002
2369.00,0.0002
2368.00,0.0002
2367.00,0.0001
2366.00,0.0001
2365.00,0.0000
2364.00,0.0000
2363.00,0.0000
2362.00,0.0001
2361.00,0.0001
2360.00,0.0001
2359.00,0.0001
2358.00,0.0001
2357.00,0.0002
2356.00,0.0002
2355.00,0.0002
2354.00,0.0002
2353.00,0.0003
2352.00,0.0003
2351.00,0.0003
2350.00,0.0003
2349.00,0.0003
2348.00,0.0003
2347.00,0.0003
2346.00,0.0004
2345.00,0.0003
2344.00,0.0003
2343.00,0.0003
2342.00,0.0003
2341.00,0.0004
2340.00,0.0005
2339.00,0.0006
2338.00,0.0007
2337.00,0.0007
2336.00,0.0007
2335.00,0.0006
2334.00,0.0006
2333.00,0.0006
2332.00,0.0006
2331.00,0.0006
2330.00,0.0006
2329.00,0.0007
2328.00,0.0008
2327.00,0.0011
2326.00,0.0015
2325.00,0.0019
2324.00,0.0020
2323.00,0.0019
2322.00,0.0016
2321.00,0.0014
2320.00,0.0012
2319.00,0.0011
2318.00,0.0011
2317.00,0.0011
2316.00,0.0010
2315.00,0.0009
2314.00,0.0008
2313.00,0.0007
2312.00,0.0006
2311.00,0.0005
2310.00,0.0005
2309.00,0.0005
2308.00,0.0005
2307.00,0.0006
2306.00,0.0006
2305.00,0.0007
2304.00,0.0008
2303.00,0.0008
2302.00,0.0008
2301.00,0.0008
2300.00,0.0008
2299.00,0.0008
2298.00,0.0008
2297.00,0.0009
2296.00,0.0009
2295.00,0.0010
2294.00,0.0011
2293.00,0.0011
2292.00,0.0012
2291.00,0.0013
2290.00,0.0014
2289.00,0.0015
2288.00,0.0017
2287.00,0.0018
2286.00,0.0018
2285.00,0.0018
2284.00,0.0017
2283.00,0.0017
2282.00,0.0016
2281.00,0.0014
2280.00,0.0013
2279.00,0.0012
2278.00,0.0011
2277.00,0.0011
2276.00,0.0011
2275.00,0.0011
2274.00,0.0011
2273.00,0.0011
2272.00,0.0011
2271.00,0.0011
2270.00,0.0011
2269.00,0.0010
2268.00,0.0009
2267.00,0.0008
2266.00,0.0008
2265.00,0.0009
2264.00,0.0009
2263.00,0.0010
2262.00,0.0010
2261.00,0.0011
2260.00,0.0013
2259.00,0.0014
2258.00,0.0013
2257.00,0.0012
2256.00,0.0009
2255.00,0.0008
2254.00,0.0007
2253.00,0.0008
2252.00,0.0009
2251.00,0.0009
2250.00,0.0009
2249.00,0.0008
2248.00,0.0008
2247.00,0.0008
2246.00,0.0007
2245.00,0.0007
2244.00,0.0006
2243.00,0.0007
2242.00,0.0008
2241.00,0.0010
2240.00,0.0011
2239.00,0.0011
2238.00,0.0010
2237.00,0.0010
2236.00,0.0010
2235.00,0.0009
2234.00,0.0008
2233.00,0.0008
2232.00,0.0008
2231.00,0.0009
2230.00,0.0010
2229.00,0.0010
2228.00,0.0009
2227.00,0.0008
2226.00,0.0007
2225.00,0.0007
2224.00,0.0008
2223.00,0.0009
2222.00,0.0009
2221.00,0.0008
2220.00,0.0006
2219.00,0.0005
2218.00,0.0004
2217.00,0.0005
2216.00,0.0005
2215.00,0.0005
2214.00,0.0006
2213.00,0.0006
2212.00,0.0005
2211.00,0.0005
2210.00,0.0005
2209.00,0.0004
2208.00,0.0004
2207.00,0.0003
2206.00,0.0002
2205.00,0.0001
2204.00,0.0002
2203.00,0.0002
2202.00,0.0003
2201.00,0.0003
2200.00,0.0004
2199.00,0.0005
2198.00,0.0006
2197.00,0.0007
2196.00,0.0007
2195.00,0.0008
2194.00,0.0009
2193.00,0.0010
2192.00,0.0010
2191.00,0.0009
2190.00,0.0008
2189.00,0.0008
2188.00,0.0008
2187.00,0.0007
2186.00,0.0007
2185.00,0.0007
2184.00,0.0008
2183.00,0.0009
2182.00,0.0009
2181.00,0.0009
2180.00,0.0008
2179.00,0.0007
2178.00,0.0005
2177.00,0.0004
2176.00,0.0002
2175.00,0.0002
2174.00,0.0003
2173.00,0.0005
2172.00,0.0007
2171.00,0.0010
2170.00,0.0013
2169.00,0.0015
2168.00,0.0017
2167.00,0.0018
2166.00,0.0018
2165.00,0.0016
2164.00,0.0013
2163.00,0.0011
2162.00,0.0008
2161.00,0.0004
2160.00,-0.0005
2159.00,-0.0017
2158.00,-0.0028
2157.00,-0.0032
2156.00,-0.0030
2155.00,-0.0026
2154.00,-0.0022
2153.00,-0.0018
2152.00,-0.0015
2151.00,-0.0014
2150.00,-0.0014
2149.00,-0.0015
2148.00,-0.0016
2147.00,-0.0018
2146.00,-0.0019
2145.00,-0.0018
2144.00,-0.0017
2143.00,-0.0016
2142.00,-0.0015
2141.00,-0.0015
2140.00,-0.0015
2139.00,-0.0015
2138.00,-0.0014
2137.00,-0.0013
2136.00,-0.0014
2135.00,-0.0016
2134.00,-0.0017
2133.00,-0.0017
2132.00,-0.0015
2131.00,-0.0014
2130.00,-0.0013
2129.00,-0.0013
2128.00,-0.0012
2127.00,-0.0010
2126.00,-0.0009
2125.00,-0.0007
2124.00,-0.0005
2123.00,-0.0004
2122.00,-0.0004
2121.00,-0.0004
2120.00,-0.0003
2119.00,-0.0002
2118.00,-0.0001
2117.00,0.0000
2116.00,0.0002
2115.00,0.0003
2114.00,0.0004
2113.00,0.0005
2112.00,0.0005
2111.00,0.0004
2110.00,0.0002
2109.00,0.0001
2108.00,0.0001
2107.00,0.0001
2106.00,0.0002
2105.00,0.0003
2104.00,0.0004
2103.00,0.0004
2102.00,0.0003
2101.00,0.0002
2100.00,0.0000
2099.00,-0.0002
2098.00,-0.0004
2097.00,-0.0005
2096.00,-0.0005
2095.00,-0.0005
2094.00,-0.0006
2093.00,-0.0006
2092.00,-0.0005
2091.00,-0.0003
2090.00,-0.0001
2089.00,0.0001
2088.00,0.0002
2087.00,0.0003
2086.00,0.0004
2085.00,0.0005
2084.00,0.0006
2083.00,0.0006
2082.00,0.0005
2081.00,0.0004
2080.00,0.0004
2079.00,0.0002
2078.00,0.0000
2077.00,-0.0001
2076.00,-0.0002
2075.00,-0.0002
2074.00,-0.0001
2073.00,0.0000
2072.00,0.0001
2071.00,0.0001
2070.00,0.0000
2069.00,0.0001
2068.00,0.0002
2067.00,0.0002
2066.00,0.0001
2065.00,-0.0000
2064.00,0.0000
2063.00,0.0002
2062.00,0.0003
2061.00,0.0003
2060.00,0.0002
2059.00,0.0002
2058.00,0.0002
2057.00,0.0002
2056.00,0.0002
2055.00,0.0001
2054.00,0.0002
2053.00,0.0004
2052.00,0.0009
2051.00,0.0013
2050.00,0.0013
2049.00,0.0010
2048.00,0.0006
2047.00,0.0003
2046.00,0.0000
2045.00,-0.0000
2044.00,-0.0000
2043.00,-0.0000
2042.00,-0.0001
2041.00,-0.0001
2040.00,-0.0001
2039.00,-0.0001
2038.00,-0.0002
2037.00,-0.0002
2036.00,-0.0003
2035.00,-0.0004
2034.00,-0.0006
2033.00,-0.0007
2032.00,-0.0007
2031.00,-0.0007
2030.00,-0.0008
2029.00,-0.0009
2028.00,-0.0011
2027.00,-0.0015
2026.00,-0.0018
2025.00,-0.0019
2024.00,-0.0020
2023.00,-0.0019
2022.00,-0.0018
2021.00,-0.0016
2020.00,-0.0012
2019.00,-0.0009
2018.00,-0.0009
2017.00,-0.0011
2016.00,-0.0014
2015.00,-0.0016
2014.00,-0.0016
2013.00,-0.0015
2012.00,-0.0013
2011.00,-0.0012
2010.00,-0.0011
2009.00,-0.0012
2008.00,-0.0014
2007.00,-0.0015
2006.00,-0.0016
2005.00,-0.0016
2004.00,-0.0016
2003.00,-0.0017
2002.00,-0.0018
2001.00,-0.0018
2000.00,-0.0017
1999.00,-0.0016
1998.00,-0.0015
1997.00,-0.0014
1996.00,-0.0013
1995.00,-0.0012
1994.00,-0.0011
1993.00,-0.0010
1992.00,-0.0008
1991.00,-0.0006
1990.00,-0.0005
1989.00,-0.0004
1988.00,-0.0004
1987.00,-0.0005
1986.00,-0.0004
1985.00,-0.0002
1984.00,0.0002
1983.00,0.0005
1982.00,0.0007
1981.00,0.0007
1980.00,0.0006
1979.00,0.0001
1978.00,-0.0005
1977.00,-0.0012
1976.00,-0.0017
1975.00,-0.0018
1974.00,-0.0017
1973.00,-0.0016
1972.00,-0.0014
1971.00,-0.0015
1970.00,-0.0016
1969.00,-0.0015
1968.00,-0.0013
1967.00,-0.0012
1966.00,-0.0013
1965.00,-0.0014
1964.00,-0.0014
1963.00,-0.0013
1962.00,-0.0012
1961.00,-0.0012
1960.00,-0.0012
1959.00,-0.0014
1958.00,-0.0014
1957.00,-0.0014
1956.00,-0.0014
1955.00,-0.0013
1954.00,-0.0014
1953.00,-0.0014
1952.00,-0.0014
1951.00,-0.0014
1950.00,-0.0012
1949.00,-0.0010
1948.00,-0.0010
1947.00,-0.0012
1946.00,-0.0014
1945.00,-0.0016
1944.00,-0.0017
1943.00,-0.0016
1942.00,-0.0015
1941.00,-0.0012
1940.00,-0.0010
1939.00,-0.0009
1938.00,-0.0008
1937.00,-0.0009
1936.00,-0.0009
1935.00,-0.0010
1934.00,-0.0011
1933.00,-0.0011
1932.00,-0.0011
1931.00,-0.0011
1930.00,-0.0010
1929.00,-0.0009
1928.00,-0.0008
1927.00,-0.0008
1926.00,-0.0008
1925.00,-0.0008
1924.00,-0.0008
1923.00,-0.0008
1922.00,-0.0007
1921.00,-0.0006
1920.00,-0.0006
1919.00,-0.0005
1918.00,-0.0005
1917.00,-0.0005
1916.00,-0.0005
1915.00,-0.0005
1914.00,-0.0006
1913.00,-0.0006
1912.00,-0.0005
1911.00,-0.0004
1910.00,-0.0004
1909.00,-0.0004
1908.00,-0.0004
1907.00,-0.0004
1906.00,-0.0003
1905.00,-0.0002
1904.00,-0.0001
1903.00,-0.0001
1902.00,-0.0002
1901.00,-0.0002
1900.00,-0.0002
1899.00,-0.0002
1898.00,-0.0002
1897.00,-0.0002
1896.00,-0.0003
1895.00,-0.0003
1894.00,-0.0003
1893.00,-0.0003
1892.00,-0.0003
1891.00,-0.0002
1890.00,-0.0002
1889.00,-0.0002
1888.00,-0.0001
1887.00,-0.0001
1886.00,-0.0001
1885.00,-0.0001
1884.00,-0.0001
1883.00,-0.0001
1882.00,-0.0002
1881.00,-0.0002
1880.00,-0.0002
1879.00,-0.0001
1878.00,-0.0001
1877.00,-0.0002
1876.00,-0.0002
1875.00,-0.0002
1874.00,-0.0002
1873.00,-0.0002
1872.00,-0.0002
1871.00,-0.0002
1870.00,-0.0002
1869.00,-0.0002
1868.00,-0.0001
1867.00,-0.0002
1866.00,-0.0002
1865.00,-0.0003
1864.00,-0.0003
1863.00,-0.0003
1862.00,-0.0003
1861.00,-0.0002
1860.00,-0.0001
1859.00,-0.0000
1858.00,0.0000
1857.00,0.0000
1856.00,0.0000
1855.00,-0.0000
1854.00,-0.0000
1853.00,-0.0001
1852.00,-0.0000
1851.00,-0.0000
1850.00,-0.0001
1849.00,-0.0001
1848.00,-0.0002
1847.00,-0.0002
1846.00,-0.0002
1845.00,-0.0002
1844.00,-0.0001
1843.00,-0.0001
1842.00,0.0000
1841.00,0.0001
1840.00,0.0001
1839.00,0.0001
1838.00,0.0001
1837.00,0.0001
1836.00,0.0001
1835.00,0.0001
1834.00,0.0002
1833.00,0.0002
1832.00,0.0001
1831.00,0.0001
1830.00,0.0001
1829.00,0.0001
1828.00,0.0001
1827.00,0.0001
1826.00,0.0000
1825.00,0.0000
1824.00,0.0001
1823.00,0.0002
1822.00,0.0003
1821.00,0.0002
1820.00,0.0001
1819.00,-0.0000
1818.00,-0.0002
1817.00,-0.0002
1816.00,-0.0002
1815.00,-0.0002
1814.00,-0.0000
1813.00,0.0001
1812.00,0.0002
1811.00,0.0002
1810.00,0.0002
1809.00,0.0001
1808.00,0.0001
1807.00,0.0002
1806.00,0.0002
1805.00,0.0002
1804.00,0.0003
1803.00,0.0004
1802.00,0.0004
1801.00,0.0004
1800.00,0.0004
1799.00,0.0004
1798.00,0.0004
1797.00,0.0004
1796.00,0.0005
1795.00,0.0005
1794.00,0.0005
1793.00,0.0006
1792.00,0.0005
1791.00,0.0005
1790.00,0.0005
1789.00,0.0005
1788.00,0.0005
1787.00,0.0005
1786.00,0.0005
1785.00,0.0005
1784.00,0.0005
1783.00,0.0005
1782.00,0.0006
1781.00,0.0006
1780.00,0.0006
1779.00,0.0006
1778.00,0.0006
1777.00,0.0006
1776.00,0.0006
1775.00,0.0007
1774.00,0.0008
1773.00,0.0008
1772.00,0.0007
1771.00,0.0007
1770.00,0.0007
1769.00,0.0007
1768.00,0.0007
1767.00,0.0008
1766.00,0.0008
1765.00,0.0008
1764.00,0.0009
1763.00,0.0009
1762.00,0.0010
1761.00,0.0010
1760.00,0.0009
1759.00,0.0009
1758.00,0.0009
1757.00,0.0009
1756.00,0.0010
1755.00,0.0010
1754.00,0.0010
1753.00,0.0011
1752.00,0.0011
1751.00,0.0012
1750.00,0.0012
1749.00,0.0013
1748.00,0.0014
1747.00,0.0015
1746.00,0.0015
1745.00,0.0015
1744.00,0.0015
1743.00,0.0015
1742.00,0.0016
1741.00,0.0016
1740.00,0.0016
1739.00,0.0016
1738.00,0.0015
1737.00,0.0016
1736.00,0.0016
1735.00,0.0016
1734.00,0.0017
1733.00,0.0017
1732.00,0.0017
1731.00,0.0017
1730.00,0.0016
1729.00,0.0017
1728.00,0.0017
1727.00,0.0018
1726.00,0.0018
1725.00,0.0019
1724.00,0.0020
1723.00,0.0020
1722.00,0.0020
1721.00,0.0020
1720.00,0.0020
1719.00,0.0020
1718.00,0.0020
1717.00,0.0020
1716.00,0.0020
1715.00,0.0020
1714.00,0.0020
1713.00,0.0019
1712.00,0.0019
1711.00,0.0020
1710.00,0.0020
1709.00,0.0020
1708.00,0.0021
1707.00,0.0021
1706.00,0.0021
1705.00,0.0021
1704.00,0.0021
1703.00,0.0021
1702.00,0.0021
1701.00,0.0021
1700.00,0.0022
1699.00,0.0022
1698.00,0.0023
1697.00,0.0023
1696.00,0.0023
1695.00,0.0023
1694.00,0.0023
1693.00,0.0023
1692.00,0.0023
1691.00,0.0023
1690.00,0.0023
1689.00,0.0024
1688.00,0.0024
1687.00,0.0024
1686.00,0.0024
1685.00,0.0025
1684.00,0.0025
1683.00,0.0026
1682.00,0.0026
1681.00,0.0027
1680.00,0.0027
1679.00,0.0027
1678.00,0.0028
1677.00,0.0028
1676.00,0.0027
1675.00,0.0027
1674.00,0.0026
1673.00,0.0027
1672.00,0.0027
1671.00,0.0027
1670.00,0.0028
1669.00,0.0028
1668.00,0.0029
1667.00,0.0029
1666.00,0.0030
1665.00,0.0030
1664.00,0.0030
1663.00,0.0031
1662.00,0.0031
1661.00,0.0031
1660.00,0.0031
1659.00,0.0031
1658.00,0.0031
1657.00,0.0032
1656.00,0.0032
1655.00,0.0032
1654.00,0.0031
1653.00,0.0031
1652.00,0.0032
1651.00,0.0033
1650.00,0.0034
1649.00,0.0034
1648.00,0.0034
1647.00,0.0034
1646.00,0.0035
1645.00,0.0036
1644.00,0.0036
1643.00,0.0037
1642.00,0.0038
1641.00,0.0038
1640.00,0.0039
1639.00,0.0039
1638.00,0.0040
1637.00,0.0040
1636.00,0.0041
1635.00,0.0041
1634.00,0.0040
1633.00,0.0039
1632.00,0.0039
1631.00,0.0038
1630.00,0.0038
1629.00,0.0038
1628.00,0.0038
1627.00,0.0038
1626.00,0.0037
1625.00,0.0037
1624.00,0.0036
1623.00,0.0036
1622.00,0.0035
1621.00,0.0035
1620.00,0.0035
1619.00,0.0034
1618.00,0.0034
1617.00,0.0033
1616.00,0.0034
1615.00,0.0034
1614.00,0.0034
1613.00,0.0035
1612.00,0.0035
1611.00,0.0035
1610.00,0.0034
1609.00,0.0034
1608.00,0.0033
1607.00,0.0033
1606.00,0.0033
1605.00,0.0033
1604.00,0.0033
1603.00,0.0034
1602.00,0.0034
1601.00,0.0034
1600.00,0.0034
1599.00,0.0033
1598.00,0.0033
1597.00,0.0033
1596.00,0.0032
1595.00,0.0032
1594.00,0.0032
1593.00,0.0032
1592.00,0.0032
1591.00,0.0032
1590.00,0.0032
1589.00,0.0032
1588.00,0.0032
1587.00,0.0033
1586.00,0.0033
1585.00,0.0034
1584.00,0.0035
1583.00,0.0035
1582.00,0.0035
1581.00,0.0035
1580.00,0.0036
1579.00,0.0036
1578.00,0.0036
1577.00,0.0036
1576.00,0.0037
1575.00,0.0037
1574.00,0.0037
1573.00,0.0037
1572.00,0.0038
1571.00,0.0038
1570.00,0.0039
1569.00,0.0039
1568.00,0.0040
1567.00,0.0039
1566.00,0.0039
1565.00,0.0039
1564.00,0.0039
1563.00,0.0039
1562.00,0.0040
1561.00,0.0041
1560.00,0.0041
1559.00,0.0041
1558.00,0.0041
1557.00,0.0041
1556.00,0.0041
1555.00,0.0041
1554.00,0.0041
1553.00,0.0042
1552.00,0.0042
1551.00,0.0041
1550.00,0.0041
1549.00,0.0041
1548.00,0.0042
1547.00,0.0042
1546.00,0.0043
1545.00,0.0043
1544.00,0.0044
1543.00,0.0044
1542.00,0.0044
1541.00,0.0044
1540.00,0.0044
1539.00,0.0043
1538.00,0.0042
1537.00,0.0041
1536.00,0.0041
1535.00,0.0040
1534.00,0.0039
1533.00,0.0038
1532.00,0.0038
1531.00,0.0038
1530.00,0.0038
1529.00,0.0038
1528.00,0.0039
1527.00,0.0039
1526.00,0.0039
1525.00,0.0039
1524.00,0.0040
1523.00,0.0041
1522.00,0.0041
1521.00,0.0041
1520.00,0.0042
1519.00,0.0042
1518.00,0.0042
1517.00,0.0043
1516.00,0.0043
1515.00,0.0043
1514.00,0.0043
1513.00,0.0044
1512.00,0.0046
1511.00,0.0046
1510.00,0.0047
1509.00,0.0048
1508.00,0.0050
1507.00,0.0052
1506.00,0.0053
1505.00,0.0054
1504.00,0.0055
1503.00,0.0056
1502.00,0.0057
1501.00,0.0059
1500.00,0.0062
1499.00,0.0065
1498.00,0.0067
1497.00,0.0069
1496.00,0.0071
1495.00,0.0072
1494.00,0.0074
1493.00,0.0077
1492.00,0.0081
1491.00,0.0084
1490.00,0.0088
1489.00,0.0092
1488.00,0.0097
1487.00,0.0101
1486.00,0.0105
1485.00,0.0111
1484.00,0.0117
1483.00,0.0124
1482.00,0.0132
1481.00,0.0142
1480.00,0.0154
1479.00,0.0166
1478.00,0.0181
1477.00,0.0202
1476.00,0.0228
1475.00,0.0258
1474.00,0.0298
1473.00,0.0357
1472.00,0.0427
1471.00,0.0494
1470.00,0.0559
1469.00,0.0628
1468.00,0.0702
1467.00,0.0783
1466.00,0.0877
1465.00,0.0977
1464.00,0.1064
1463.00,0.1123
1462.00,0.1159
1461.00,0.1183
1460.00,0.1198
1459.00,0.1207
1458.00,0.1211
1457.00,0.1211
1456.00,0.1203
1455.00,0.1190
1454.00,0.1174
1453.00,0.1153
1452.00,0.1123
1451.00,0.1081
1450.00,0.1026
1449.00,0.0953
1448.00,0.0861
1447.00,0.0765
1446.00,0.0681
1445.00,0.0610
1444.00,0.0549
1443.00,0.0500
1442.00,0.0462
1441.00,0.0436
1440.00,0.0421
1439.00,0.0415
1438.00,0.0417
1437.00,0.0419
1436.00,0.0411
1435.00,0.0387
1434.00,0.0351
1433.00,0.0308
1432.00,0.0262
1431.00,0.0222
1430.00,0.0190
1429.00,0.0167
1428.00,0.0151
1427.00,0.0142
1426.00,0.0135
1425.00,0.0129
1424.00,0.0122
1423.00,0.0118
1422.00,0.0115
1421.00,0.0112
1420.00,0.0108
1419.00,0.0106
1418.00,0.0104
1417.00,0.0102
1416.00,0.0099
1415.00,0.0098
1414.00,0.0098
1413.00,0.0097
1412.00,0.0095
1411.00,0.0094
1410.00,0.0095
1409.00,0.0094
1408.00,0.0094
1407.00,0.0094
1406.00,0.0095
1405.00,0.0095
1404.00,0.0095
1403.00,0.0096
1402.00,0.0098
1401.00,0.0099
1400.00,0.0100
1399.00,0.0101
1398.00,0.0104
1397.00,0.0105
1396.00,0.0107
1395.00,0.0111
1394.00,0.0116
1393.00,0.0121
1392.00,0.0127
1391.00,0.0135
1390.00,0.0145
1389.00,0.0159
1388.00,0.0180
1387.00,0.0212
1386.00,0.0256
1385.00,0.0313
1384.00,0.0391
1383.00,0.0502
1382.00,0.0654
1381.00,0.0852
1380.00,0.1102
1379.00,0.1390
1378.00,0.1674
1377.00,0.1888
1376.00,0.1967
1375.00,0.1872
1374.00,0.1631
1373.00,0.1339
1372.00,0.1073
1371.00,0.0855
1370.00,0.0681
1369.00,0.0550
1368.00,0.0460
1367.00,0.0405
1366.00,0.0375
1365.00,0.0363
1364.00,0.0366
1363.00,0.0380
1362.00,0.0403
1361.00,0.0427
1360.00,0.0444
1359.00,0.0449
1358.00,0.0439
1357.00,0.0413
1356.00,0.0376
1355.00,0.0334
1354.00,0.0294
1353.00,0.0259
1352.00,0.0231
1351.00,0.0209
1350.00,0.0190
1349.00,0.0175
1348.00,0.0163
1347.00,0.0152
1346.00,0.0143
1345.00,0.0136
1344.00,0.0130
1343.00,0.0124
1342.00,0.0120
1341.00,0.0116
1340.00,0.0113
1339.00,0.0111
1338.00,0.0110
1337.00,0.0109
1336.00,0.0110
1335.00,0.0112
1334.00,0.0116
1333.00,0.0120
1332.00,0.0125
1331.00,0.0128
1330.00,0.0129
1329.00,0.0128
1328.00,0.0125
1327.00,0.0120
1326.00,0.0114
1325.00,0.0108
1324.00,0.0102
1323.00,0.0097
1322.00,0.0094
1321.00,0.0091
1320.00,0.0089
1319.00,0.0087
1318.00,0.0086
1317.00,0.0084
1316.00,0.0082
1315.00,0.0082
1314.00,0.0082
1313.00,0.0082
1312.00,0.0082
1311.00,0.0084
1310.00,0.0087
1309.00,0.0092
1308.00,0.0100
1307.00,0.0109
1306.00,0.0118
1305.00,0.0124
1304.00,0.0126
1303.00,0.0125
1302.00,0.0122
1301.00,0.0119
1300.00,0.0119
1299.00,0.0120
1298.00,0.0121
1297.00,0.0122
1296.00,0.0122
1295.00,0.0120
1294.00,0.0116
1293.00,0.0111
1292.00,0.0106
1291.00,0.0101
1290.00,0.0096
1289.00,0.0092
1288.00,0.0089
1287.00,0.0086
1286.00,0.0083
1285.00,0.0081
1284.00,0.0079
1283.00,0.0078
1282.00,0.0077
1281.00,0.0076
1280.00,0.0075
1279.00,0.0074
1278.00,0.0074
1277.00,0.0073
1276.00,0.0073
1275.00,0.0073
1274.00,0.0072
1273.00,0.0072
1272.00,0.0071
1271.00,0.0071
1270.00,0.0071
1269.00,0.0073
1268.00,0.0074
1267.00,0.0076
1266.00,0.0077
1265.00,0.0079
1264.00,0.0081
1263.00,0.0084
1262.00,0.0086
1261.00,0.0089
1260.00,0.0094
1259.00,0.0099
1258.00,0.0105
1257.00,0.0110
1256.00,0.0113
1255.00,0.0111
1254.00,0.0106
1253.00,0.0100
1252.00,0.0093
1251.00,0.0088
1250.00,0.0084
1249.00,0.0081
1248.00,0.0078
1247.00,0.0076
1246.00,0.0074
1245.00,0.0072
1244.00,0.0070
1243.00,0.0070
1242.00,0.0070
1241.00,0.0069
1240.00,0.0069
1239.00,0.0068
1238.00,0.0068
1237.00,0.0067
1236.00,0.0067
1235.00,0.0067
1234.00,0.0067
1233.00,0.0067
1232.00,0.0068
1231.00,0.0068
1230.00,0.0069
1229.00,0.0069
1228.00,0.0070
1227.00,0.0071
1226.00,0.0074
1225.00,0.0077
1224.00,0.0080
1223.00,0.0084
1222.00,0.0087
1221.00,0.0090
1220.00,0.0092
1219.00,0.0093
1218.00,0.0093
1217.00,0.0091
1216.00,0.0089
1215.00,0.0086
1214.00,0.0082
1213.00,0.0079
1212.00,0.0077
1211.00,0.0075
1210.00,0.0074
1209.00,0.0073
1208.00,0.0072
1207.00,0.0071
1206.00,0.0069
1205.00,0.0068
1204.00,0.0067
1203.00,0.0067
1202.00,0.0067
1201.00,0.0067
1200.00,0.0066
1199.00,0.0066
1198.00,0.0066
1197.00,0.0066
1196.00,0.0066
1195.00,0.0066
1194.00,0.0066
1193.00,0.0066
1192.00,0.0066
1191.00,0.0066
1190.00,0.0066
1189.00,0.0066
1188.00,0.0067
1187.00,0.0067
1186.00,0.0068
1185.00,0.0068
1184.00,0.0068
1183.00,0.0069
1182.00,0.0071
1181.00,0.0073
1180.00,0.0076
1179.00,0.0080
1178.00,0.0085
1177.00,0.0092
1176.00,0.0100
1175.00,0.0113
1174.00,0.0129
1173.00,0.0151
1172.00,0.0175
1171.00,0.0202
1170.00,0.0228
1169.00,0.0249
1168.00,0.0262
1167.00,0.0264
1166.00,0.0258
1165.00,0.0247
1164.00,0.0234
1163.00,0.0221
1162.00,0.0209
1161.00,0.0200
1160.00,0.0193
1159.00,0.0188
1158.00,0.0185
1157.00,0.0184
1156.00,0.0184
1155.00,0.0184
1154.00,0.0183
1153.00,0.0181
1152.00,0.0177
1151.00,0.0171
1150.00,0.0162
1149.00,0.0153
1148.00,0.0142
1147.00,0.0132
1146.00,0.0123
1145.00,0.0116
1144.00,0.0109
1143.00,0.0103
1142.00,0.0097
1141.00,0.0091
1140.00,0.0086
1139.00,0.0082
1138.00,0.0078
1137.00,0.0075
1136.00,0.0073
1135.00,0.0071
1134.00,0.0069
1133.00,0.0068
1132.00,0.0067
1131.00,0.0067
1130.00,0.0066
1129.00,0.0066
1128.00,0.0065
1127.00,0.0066
1126.00,0.0066
1125.00,0.0067
1124.00,0.0068
1123.00,0.0068
1122.00,0.0069
1121.00,0.0069
1120.00,0.0069
1119.00,0.0069
1118.00,0.0070
1117.00,0.0071
1116.00,0.0071
1115.00,0.0072
1114.00,0.0073
1113.00,0.0075
1112.00,0.0078
1111.00,0.0081
1110.00,0.0086
1109.00,0.0091
1108.00,0.0096
1107.00,0.0102
1106.00,0.0108
1105.00,0.0114
1104.00,0.0118
1103.00,0.0120
1102.00,0.0119
1101.00,0.0115
1100.00,0.0110
1099.00,0.0104
1098.00,0.0098
1097.00,0.0092
1096.00,0.0087
1095.00,0.0083
1094.00,0.0080
1093.00,0.0078
1092.00,0.0076
1091.00,0.0075
1090.00,0.0074
1089.00,0.0072
1088.00,0.0071
1087.00,0.0071
1086.00,0.0070
1085.00,0.0070
1084.00,0.0070
1083.00,0.0070
1082.00,0.0069
1081.00,0.0068
1080.00,0.0067
1079.00,0.0066
1078.00,0.0066
1077.00,0.0065
1076.00,0.0065
1075.00,0.0065
1074.00,0.0065
1073.00,0.0065
1072.00,0.0065
1071.00,0.0065
1070.00,0.0065
1069.00,0.0065
1068.00,0.0065
1067.00,0.0065
1066.00,0.0066
1065.00,0.0067
1064.00,0.0068
1063.00,0.0068
1062.00,0.0068
1061.00,0.0068
1060.00,0.0069
1059.00,0.0070
1058.00,0.0072
1057.00,0.0074
1056.00,0.0076
1055.00,0.0077
1054.00,0.0079
1053.00,0.0082
1052.00,0.0085
1051.00,0.0090
1050.00,0.0094
1049.00,0.0099
1048.00,0.0103
1047.00,0.0107
1046.00,0.0111
1045.00,0.0113
1044.00,0.0114
1043.00,0.0114
1042.00,0.0112
1041.00,0.0110
1040.00,0.0108
1039.00,0.0107
1038.00,0.0107
1037.00,0.0106
1036.00,0.0105
1035.00,0.0104
1034.00,0.0104
1033.00,0.0103
1032.00,0.0102
1031.00,0.0101
1030.00,0.0101
1029.00,0.0101
1028.00,0.0102
1027.00,0.0104
1026.00,0.0106
1025.00,0.0108
1024.00,0.0110
1023.00,0.0113
1022.00,0.0115
1021.00,0.0116
1020.00,0.0117
1019.00,0.0119
1018.00,0.0121
1017.00,0.0123
1016.00,0.0124
1015.00,0.0124
1014.00,0.0124
1013.00,0.0122
1012.00,0.0121
1011.00,0.0121
1010.00,0.0122
1009.00,0.0124
1008.00,0.0126
1007.00,0.0130
1006.00,0.0136
1005.00,0.0144
1004.00,0.0157
1003.00,0.0174
1002.00,0.0198
1001.00,0.0228
1000.00,0.0259
999.00,0.0284
998.00,0.0295
997.00,0.0288
996.00,0.0265
995.00,0.0232
994.00,0.0199
993.00,0.0170
992.00,0.0148
991.00,0.0131
990.00,0.0121
989.00,0.0114
988.00,0.0110
987.00,0.0108
986.00,0.0109
985.00,0.0111
984.00,0.0115
983.00,0.0122
982.00,0.0131
981.00,0.0144
980.00,0.0164
979.00,0.0190
978.00,0.0223
977.00,0.0260
976.00,0.0299
975.00,0.0333
974.00,0.0356
973.00,0.0362
972.00,0.0346
971.00,0.0313
970.00,0.0269
969.00,0.0226
968.00,0.0190
967.00,0.0162
966.00,0.0143
965.00,0.0128
964.00,0.0116
963.00,0.0107
962.00,0.0100
961.00,0.0094
960.00,0.0090
959.00,0.0087
958.00,0.0085
957.00,0.0083
956.00,0.0081
955.00,0.0078
954.00,0.0076
953.00,0.0075
952.00,0.0074
951.00,0.0073
950.00,0.0073
949.00,0.0073
948.00,0.0073
947.00,0.0074
946.00,0.0076
945.00,0.0078
944.00,0.0081
943.00,0.0084
942.00,0.0088
941.00,0.0091
940.00,0.0092
939.00,0.0090
938.00,0.0085
937.00,0.0079
936.00,0.0073
935.00,0.0068
934.00,0.0064
933.00,0.0061
932.00,0.0059
931.00,0.0058
930.00,0.0058
929.00,0.0058
928.00,0.0059
927.00,0.0059
926.00,0.0059
925.00,0.0059
924.00,0.0058
923.00,0.0057
922.00,0.0057
921.00,0.0056
920.00,0.0056
919.00,0.0057
918.00,0.0058
917.00,0.0059
916.00,0.0062
915.00,0.0064
914.00,0.0066
913.00,0.0067
912.00,0.0069
911.00,0.0071
910.00,0.0072
909.00,0.0074
908.00,0.0075
907.00,0.0079
906.00,0.0085
905.00,0.0095
904.00,0.0110
903.00,0.0128
902.00,0.0148
901.00,0.0167
900.00,0.0179
899.00,0.0180
898.00,0.0172
897.00,0.0155
896.00,0.0136
895.00,0.0117
894.00,0.0103
893.00,0.0092
892.00,0.0084
891.00,0.0078
890.00,0.0074
889.00,0.0072
888.00,0.0070
887.00,0.0069
886.00,0.0067
885.00,0.0067
884.00,0.0066
883.00,0.0066
882.00,0.0065
881.00,0.0065
880.00,0.0065
879.00,0.0065
878.00,0.0065
877.00,0.0065
876.00,0.0066
875.00,0.0067
874.00,0.0068
873.00,0.0069
872.00,0.0069
871.00,0.0070
870.00,0.0070
869.00,0.0070
868.00,0.0070
867.00,0.0071
866.00,0.0072
865.00,0.0073
864.00,0.0074
863.00,0.0075
862.00,0.0076
861.00,0.0077
860.00,0.0078
859.00,0.0078
858.00,0.0077
857.00,0.0078
856.00,0.0079
855.00,0.0080
854.00,0.0083
853.00,0.0085
852.00,0.0089
851.00,0.0094
850.00,0.0099
849.00,0.0104
848.00,0.0110
847.00,0.0120
846.00,0.0135
845.00,0.0160
844.00,0.0195
843.00,0.0236
842.00,0.0269
841.00,0.0278
840.00,0.0259
839.00,0.0221
838.00,0.0180
837.00,0.0149
836.00,0.0129
835.00,0.0117
834.00,0.0110
833.00,0.0104
832.00,0.0100
831.00,0.0098
830.00,0.0095
829.00,0.0094
828.00,0.0092
827.00,0.0091
826.00,0.0090
825.00,0.0089
824.00,0.0089
823.00,0.0090
822.00,0.0093
821.00,0.0095
820.00,0.0097
819.00,0.0100
818.00,0.0104
817.00,0.0111
816.00,0.0120
815.00,0.0131
814.00,0.0146
813.00,0.0164
812.00,0.0183
811.00,0.0202
810.00,0.0216
809.00,0.0223
808.00,0.0220
807.00,0.0208
806.00,0.0189
805.00,0.0169
804.00,0.0150
803.00,0.0134
802.00,0.0122
801.00,0.0114
800.00,0.0109
799.00,0.0105
798.00,0.0101
797.00,0.0097
796.00,0.0093
795.00,0.0089
794.00,0.0087
793.00,0.0086
792.00,0.0084
791.00,0.0080
790.00,0.0077
789.00,0.0073
788.00,0.0069
787.00,0.0067
786.00,0.0065
785.00,0.0063
784.00,0.0062
783.00,0.0061
782.00,0.0060
781.00,0.0059
780.00,0.0058
779.00,0.0057
778.00,0.0057
777.00,0.0056
776.00,0.0055
775.00,0.0054
774.00,0.0054
773.00,0.0056
772.00,0.0058
771.00,0.0060
770.00,0.0061
769.00,0.0060
768.00,0.0059
767.00,0.0058
766.00,0.0058
765.00,0.0059
764.00,0.0061
763.00,0.0062
762.00,0.0063
761.00,0.0064
760.00,0.0065
759.00,0.0065
758.00,0.0065
757.00,0.0066
756.00,0.0066
755.00,0.0067
754.00,0.0067
753.00,0.0068
752.00,0.0068
751.00,0.0068
750.00,0.0068
749.00,0.0069
748.00,0.0071
747.00,0.0073
746.00,0.0075
745.00,0.0077
744.00,0.0078
743.00,0.0079
742.00,0.0081
741.00,0.0085
740.00,0.0089
739.00,0.0093
738.00,0.0096
737.00,0.0099
736.00,0.0102
735.00,0.0107
734.00,0.0112
733.00,0.0119
732.00,0.0126
731.00,0.0133
730.00,0.0139
729.00,0.0142
728.00,0.0143
727.00,0.0143
726.00,0.0144
725.00,0.0147
724.00,0.0152
723.00,0.0160
722.00,0.0167
721.00,0.0172
720.00,0.0171
719.00,0.0164
718.00,0.0151
717.00,0.0137
716.00,0.0125
715.00,0.0117
714.00,0.0112
713.00,0.0108
712.00,0.0106
711.00,0.0102
710.00,0.0098
709.00,0.0095
708.00,0.0092
707.00,0.0091
706.00,0.0090
705.00,0.0090
704.00,0.0090
703.00,0.0091
702.00,0.0091
701.00,0.0091
700.00,0.0088
699.00,0.0086
698.00,0.0083
697.00,0.0082
696.00,0.0082
695.00,0.0083
694.00,0.0084
693.00,0.0085
692.00,0.0084
691.00,0.0083
690.00,0.0082
689.00,0.0083
688.00,0.0085
687.00,0.0088
686.00,0.0089
685.00,0.0088
684.00,0.0086
683.00,0.0085
682.00,0.0085
681.00,0.0086
680.00,0.0086
679.00,0.0086
678.00,0.0084
677.00,0.0083
676.00,0.0083
675.00,0.0085
674.00,0.0088
673.00,0.0090
672.00,0.0092
671.00,0.0094
670.00,0.0095
669.00,0.0095
668.00,0.0094
667.00,0.0093
666.00,0.0091
665.00,0.0088
664.00,0.0086
663.00,0.0084
662.00,0.0082
661.00,0.0081
660.00,0.0079
659.00,0.0076
658.00,0.0073
657.00,0.0071
656.00,0.0070
655.00,0.0072
654.00,0.0074
653.00,0.0076
652.00,0.0076
651.00,0.0076
650.00,0.0076
649.00,0.0076
648.00,0.0076
647.00,0.0078
646.00,0.0079
645.00,0.0079
644.00,0.0078
643.00,0.0075
642.00,0.0074
641.00,0.0073
640.00,0.0073
639.00,0.0073
638.00,0.0073
637.00,0.0073
636.00,0.0073
635.00,0.0075
634.00,0.0076
633.00,0.0078
632.00,0.0079
631.00,0.0079
630.00,0.0079
629.00,0.0080
628.00,0.0079
627.00,0.0077
626.00,0.0075
625.00,0.0074
624.00,0.0074
623.00,0.0074
622.00,0.0076
621.00,0.0077
620.00,0.0079
619.00,0.0079
618.00,0.0076
617.00,0.0073
616.00,0.0070
615.00,0.0069
614.00,0.0067
613.00,0.0065
612.00,0.0063
611.00,0.0064
610.00,0.0068
609.00,0.0072
608.00,0.0076
607.00,0.0077
606.00,0.0075
605.00,0.0070
604.00,0.0066
603.00,0.0066
602.00,0.0069
601.00,0.0072
600.00,0.0074
599.00,0.0074
598.00,0.0073
597.00,0.0073
596.00,0.0073
595.00,0.0073
594.00,0.0073
593.00,0.0071
592.00,0.0068
591.00,0.0064
590.00,0.0062
589.00,0.0061
588.00,0.0062
587.00,0.0065
586.00,0.0067
585.00,0.0070
584.00,0.0072
583.00,0.0076
582.00,0.0079
581.00,0.0081
580.00,0.0080
579.00,0.0078
578.00,0.0078
577.00,0.0078
576.00,0.0077
575.00,0.0074
574.00,0.0071
573.00,0.0070
572.00,0.0070
571.00,0.0070
570.00,0.0071
569.00,0.0072
568.00,0.0072
567.00,0.0073
566.00,0.0072
565.00,0.0071
564.00,0.0069
563.00,0.0069
562.00,0.0069
561.00,0.0070
560.00,0.0071
559.00,0.0072
558.00,0.0073
557.00,0.0074
556.00,0.0075
555.00,0.0076
554.00,0.0077
553.00,0.0076
552.00,0.0075
551.00,0.0074
550.00,0.0074
549.00,0.0076
548.00,0.0077
547.00,0.0077
546.00,0.0078
545.00,0.0082
544.00,0.0087
543.00,0.0094
542.00,0.0098
541.00,0.0099
540.00,0.0099
539.00,0.0100
538.00,0.0102
537.00,0.0104
536.00,0.0104
535.00,0.0102
534.00,0.0101
533.00,0.0101
532.00,0.0102
531.00,0.0102
530.00,0.0100
529.00,0.0097
528.00,0.0096
527.00,0.0097
526.00,0.0096
525.00,0.0093
524.00,0.0089
523.00,0.0086
522.00,0.0086
521.00,0.0089
520.00,0.0092
519.00,0.0092
518.00,0.0089
517.00,0.0083
516.00,0.0077
515.00,0.0070
514.00,0.0067
513.00,0.0065
512.00,0.0066
511.00,0.0066
510.00,0.0066
509.00,0.0064
508.00,0.0063
507.00,0.0066
506.00,0.0072
505.00,0.0078
504.00,0.0080
503.00,0.0078
502.00,0.0076
501.00,0.0076
500.00,0.0078
499.00,0.0081
498.00,0.0080
497.00,0.0076
496.00,0.0068
495.00,0.0062
494.00,0.0059
493.00,0.0058
492.00,0.0056
491.00,0.0055
490.00,0.0057
489.00,0.0063
488.00,0.0069
487.00,0.0073
486.00,0.0075
485.00,0.0075
484.00,0.0075
483.00,0.0076
482.00,0.0079
481.00,0.0081
480.00,0.0081
479.00,0.0081
478.00,0.0085
477.00,0.0091
476.00,0.0094
475.00,0.0092
474.00,0.0088
473.00,0.0090
472.00,0.0099
471.00,0.0109
470.00,0.0113
469.00,0.0111
468.00,0.0109
467.00,0.0114
466.00,0.0126
465.00,0.0142
464.00,0.0159
463.00,0.0175
462.00,0.0188
461.00,0.0199
460.00,0.0204
459.00,0.0203
458.00,0.0197
457.00,0.0193
456.00,0.0189
455.00,0.0184
454.00,0.0172
453.00,0.0155
452.00,0.0137
451.00,0.0125
450.00,0.0120
