Created as New Dataset,Sample 055 By Administrator Date Thursday, September 04 2025
cm-1,A
4000.00,0.0008
3999.00,0.0009
3998.00,0.0009
3997.00,0.0009
3996.00,0.0009
3995.00,0.0009
3994.00,0.0009
3993.00,0.0009
3992.00,0.0009
3991.00,0.0009
3990.00,0.0008
3989.00,0.0008
3988.00,0.0008
3987.00,0.0008
3986.00,0.0008
3985.00,0.0008
3984.00,0.0008
3983.00,0.0008
3982.00,0.0008
3981.00,0.0008
3980.00,0.0007
3979.00,0.0007
3978.00,0.0007
3977.00,0.0007
3976.00,0.0007
3975.00,0.0006
3974.00,0.0006
3973.00,0.0006
3972.00,0.0006
3971.00,0.0006
3970.00,0.0006
3969.00,0.0006
3968.00,0.0006
3967.00,0.0006
3966.00,0.0006
3965.00,0.0006
3964.00,0.0006
3963.00,0.0006
3962.00,0.0006
3961.00,0.0006
3960.00,0.0006
3959.00,0.0006
3958.00,0.0006
3957.00,0.0006
3956.00,0.0006
3955.00,0.0005
3954.00,0.0006
3953.00,0.0006
3952.00,0.0006
3951.00,0.0006
3950.00,0.0007
3949.00,0.0007
3948.00,0.0006
3947.00,0.0006
3946.00,0.0006
3945.00,0.0006
3944.00,0.0006
3943.00,0.0007
3942.00,0.0007
3941.00,0.0007
3940.00,0.0007
3939.00,0.0007
3938.00,0.0007
3937.00,0.0007
3936.00,0.0007
3935.00,0.0007
3934.00,0.0007
3933.00,0.0007
3932.00,0.0007
3931.00,0.0007
3930.00,0.0008
3929.00,0.0008
3928.00,0.0007
3927.00,0.0007
3926.00,0.0007
3925.00,0.0007
3924.00,0.0007
3923.00,0.0007
3922.00,0.0007
3921.00,0.0007
3920.00,0.0007
3919.00,0.0007
3918.00,0.0007
3917.00,0.0006
3916.00,0.0006
3915.00,0.0006
3914.00,0.0006
3913.00,0.0007
3912.00,0.0007
3911.00,0.0007
3910.00,0.0007
3909.00,0.0007
3908.00,0.0007
3907.00,0.0007
3906.00,0.0006
3905.00,0.0006
3904.00,0.0006
3903.00,0.0006
3902.00,0.0006
3901.00,0.0006
3900.00,0.0006
3899.00,0.0006
3898.00,0.0006
3897.00,0.0006
3896.00,0.0006
3895.00,0.0006
3894.00,0.0006
3893.00,0.0006
3892.00,0.0006
3891.00,0.0006
3890.00,0.0006
3889.00,0.0007
3888.00,0.0007
3887.00,0.0006
3886.00,0.0006
3885.00,0.0006
3884.00,0.0006
3883.00,0.0006
3882.00,0.0006
3881.00,0.0006
3880.00,0.0005
3879.00,0.0006
3878.00,0.0006
3877.00,0.0006
3876.00,0.0006
3875.00,0.0006
3874.00,0.0006
3873.00,0.0006
3872.00,0.0007
3871.00,0.0007
3870.00,0.0006
3869.00,0.0006
3868.00,0.0006
3867.00,0.0006
3866.00,0.0006
3865.00,0.0005
3864.00,0.0005
3863.00,0.0005
3862.00,0.0006
3861.00,0.0006
3860.00,0.0006
3859.00,0.0006
3858.00,0.0006
3857.00,0.0007
3856.00,0.0007
3855.00,0.0006
3854.00,0.0005
3853.00,0.0004
3852.00,0.0004
3851.00,0.0004
3850.00,0.0005
3849.00,0.0005
3848.00,0.0005
3847.00,0.0005
3846.00,0.0006
3845.00,0.0006
3844.00,0.0006
3843.00,0.0006
3842.00,0.0006
3841.00,0.0006
3840.00,0.0007
3839.00,0.0007
3838.00,0.0007
3837.00,0.0007
3836.00,0.0007
3835.00,0.0007
3834.00,0.0007
3833.00,0.0006
3832.00,0.0006
3831.00,0.0006
3830.00,0.0006
3829.00,0.0006
3828.00,0.0006
3827.00,0.0006
3826.00,0.0006
3825.00,0.0006
3824.00,0.0006
3823.00,0.0006
3822.00,0.0006
3821.00,0.0006
3820.00,0.0006
3819.00,0.0007
3818.00,0.0007
3817.00,0.0007
3816.00,0.0007
3815.00,0.0007
3814.00,0.0007
3813.00,0.0007
3812.00,0.0008
3811.00,0.0008
3810.00,0.0008
3809.00,0.0008
3808.00,0.0007
3807.00,0.0006
3806.00,0.0006
3805.00,0.0006
3804.00,0.0006
3803.00,0.0006
3802.00,0.0005
3801.00,0.0005
3800.00,0.0005
3799.00,0.0006
3798.00,0.0006
3797.00,0.0005
3796.00,0.0005
3795.00,0.0005
3794.00,0.0005
3793.00,0.0005
3792.00,0.0005
3791.00,0.0005
3790.00,0.0005
3789.00,0.0005
3788.00,0.0006
3787.00,0.0006
3786.00,0.0006
3785.00,0.0006
3784.00,0.0006
3783.00,0.0006
3782.00,0.0006
3781.00,0.0006
3780.00,0.0006
3779.00,0.0006
3778.00,0.0006
3777.00,0.0006
3776.00,0.0006
3775.00,0.0006
3774.00,0.0006
3773.00,0.0006
3772.00,0.0006
3771.00,0.0005
3770.00,0.0005
3769.00,0.0006
3768.00,0.0006
3767.00,0.0007
3766.00,0.0007
3765.00,0.0007
3764.00,0.0008
3763.00,0.0007
3762.00,0.0007
3761.00,0.0007
3760.00,0.0007
3759.00,0.0007
3758.00,0.0007
3757.00,0.0007
3756.00,0.0006
3755.00,0.0007
3754.00,0.0007
3753.00,0.0008
3752.00,0.0008
3751.00,0.0008
3750.00,0.0008
3749.00,0.0008
3748.00,0.0008
3747.00,0.0008
3746.00,0.0008
3745.00,0.0007
3744.00,0.0007
3743.00,0.0007
3742.00,0.0007
3741.00,0.0007
3740.00,0.0007
3739.00,0.0007
3738.00,0.0006
3737.00,0.0006
3736.00,0.0007
3735.00,0.0007
3734.00,0.0007
3733.00,0.0007
3732.00,0.0007
3731.00,0.0006
3730.00,0.0006
3729.00,0.0006
3728.00,0.0006
3727.00,0.0006
3726.00,0.0006
3725.00,0.0006
3724.00,0.0006
3723.00,0.0006
3722.00,0.0006
3721.00,0.0006
3720.00,0.0006
3719.00,0.0006
3718.00,0.0006
3717.00,0.0006
3716.00,0.0006
3715.00,0.0006
3714.00,0.0005
3713.00,0.0005
3712.00,0.0004
3711.00,0.0004
3710.00,0.0004
3709.00,0.0004
3708.00,0.0004
3707.00,0.0004
3706.00,0.0004
3705.00,0.0004
3704.00,0.0004
3703.00,0.0004
3702.00,0.0004
3701.00,0.0004
3700.00,0.0004
3699.00,0.0004
3698.00,0.0004
3697.00,0.0004
3696.00,0.0004
3695.00,0.0004
3694.00,0.0004
3693.00,0.0004
3692.00,0.0003
3691.00,0.0003
3690.00,0.0003
3689.00,0.0003
3688.00,0.0004
3687.00,0.0004
3686.00,0.0004
3685.00,0.0005
3684.00,0.0004
3683.00,0.0004
3682.00,0.0004
3681.00,0.0004
3680.00,0.0004
3679.00,0.0005
3678.00,0.0006
3677.00,0.0006
3676.00,0.0005
3675.00,0.0004
3674.00,0.0005
3673.00,0.0005
3672.00,0.0005
3671.00,0.0004
3670.00,0.0003
3669.00,0.0003
3668.00,0.0003
3667.00,0.0003
3666.00,0.0003
3665.00,0.0003
3664.00,0.0003
3663.00,0.0003
3662.00,0.0003
3661.00,0.0003
3660.00,0.0003
3659.00,0.0002
3658.00,0.0002
3657.00,0.0001
3656.00,0.0001
3655.00,0.0002
3654.00,0.0002
3653.00,0.0002
3652.00,0.0002
3651.00,0.0002
3650.00,0.0002
3649.00,0.0002
3648.00,0.0002
3647.00,0.0002
3646.00,0.0002
3645.00,0.0002
3644.00,0.0003
3643.00,0.0003
3642.00,0.0003
3641.00,0.0004
3640.00,0.0004
3639.00,0.0004
3638.00,0.0004
3637.00,0.0004
3636.00,0.0004
3635.00,0.0004
3634.00,0.0004
3633.00,0.0005
3632.00,0.0005
3631.00,0.0005
3630.00,0.0004
3629.00,0.0004
3628.00,0.0003
3627.00,0.0003
3626.00,0.0004
3625.00,0.0004
3624.00,0.0004
3623.00,0.0004
3622.00,0.0004
3621.00,0.0004
3620.00,0.0005
3619.00,0.0005
3618.00,0.0005
3617.00,0.0005
3616.00,0.0006
3615.00,0.0006
3614.00,0.0006
3613.00,0.0006
3612.00,0.0006
3611.00,0.0005
3610.00,0.0005
3609.00,0.0005
3608.00,0.0004
3607.00,0.0004
3606.00,0.0004
3605.00,0.0003
3604.00,0.0003
3603.00,0.0003
3602.00,0.0004
3601.00,0.0005
3600.00,0.0005
3599.00,0.0006
3598.00,0.0005
3597.00,0.0005
3596.00,0.0005
3595.00,0.0005
3594.00,0.0005
3593.00,0.0006
3592.00,0.0006
3591.00,0.0006
3590.00,0.0005
3589.00,0.0005
3588.00,0.0005
3587.00,0.0005
3586.00,0.0005
3585.00,0.0006
3584.00,0.0006
3583.00,0.0006
3582.00,0.0006
3581.00,0.0005
3580.00,0.0006
3579.00,0.0006
3578.00,0.0006
3577.00,0.0006
3576.00,0.0006
3575.00,0.0006
3574.00,0.0006
3573.00,0.0006
3572.00,0.0007
3571.00,0.0007
3570.00,0.0007
3569.00,0.0007
3568.00,0.0007
3567.00,0.0007
3566.00,0.0008
3565.00,0.0008
3564.00,0.0008
3563.00,0.0008
3562.00,0.0008
3561.00,0.0008
3560.00,0.0008
3559.00,0.0008
3558.00,0.0008
3557.00,0.0008
3556.00,0.0008
3555.00,0.0009
3554.00,0.0009
3553.00,0.0009
3552.00,0.0009
3551.00,0.0009
3550.00,0.0009
3549.00,0.0009
3548.00,0.0010
3547.00,0.0010
3546.00,0.0010
3545.00,0.0010
3544.00,0.0010
3543.00,0.0010
3542.00,0.0010
3541.00,0.0010
3540.00,0.0010
3539.00,0.0010
3538.00,0.0010
3537.00,0.0010
3536.00,0.0010
3535.00,0.0010
3534.00,0.0010
3533.00,0.0011
3532.00,0.0011
3531.00,0.0011
3530.00,0.0012
3529.00,0.0012
3528.00,0.0013
3527.00,0.0013
3526.00,0.0013
3525.00,0.0013
3524.00,0.0013
3523.00,0.0013
3522.00,0.0013
3521.00,0.0013
3520.00,0.0013
3519.00,0.0013
3518.00,0.0013
3517.00,0.0013
3516.00,0.0013
3515.00,0.0013
3514.00,0.0014
3513.00,0.0014
3512.00,0.0014
3511.00,0.0015
3510.00,0.0015
3509.00,0.0015
3508.00,0.0015
3507.00,0.0015
3506.00,0.0014
3505.00,0.0014
3504.00,0.0014
3503.00,0.0015
3502.00,0.0015
3501.00,0.0015
3500.00,0.0015
3499.00,0.0015
3498.00,0.0015
3497.00,0.0015
3496.00,0.0015
3495.00,0.0016
3494.00,0.0016
3493.00,0.0017
3492.00,0.0017
3491.00,0.0017
3490.00,0.0017
3489.00,0.0016
3488.00,0.0016
3487.00,0.0017
3486.00,0.0017
3485.00,0.0017
3484.00,0.0017
3483.00,0.0018
3482.00,0.0018
3481.00,0.0018
3480.00,0.0018
3479.00,0.0017
3478.00,0.0017
3477.00,0.0018
3476.00,0.0018
3475.00,0.0018
3474.00,0.0018
3473.00,0.0018
3472.00,0.0019
3471.00,0.0019
3470.00,0.0019
3469.00,0.0019
3468.00,0.0018
3467.00,0.0018
3466.00,0.0018
3465.00,0.0019
3464.00,0.0019
3463.00,0.0020
3462.00,0.0020
3461.00,0.0021
3460.00,0.0021
3459.00,0.0021
3458.00,0.0020
3457.00,0.0020
3456.00,0.0020
3455.00,0.0019
3454.00,0.0019
3453.00,0.0020
3452.00,0.0020
3451.00,0.0020
3450.00,0.0021
3449.00,0.0021
3448.00,0.0021
3447.00,0.0021
3446.00,0.0022
3445.00,0.0022
3444.00,0.0022
3443.00,0.0023
3442.00,0.0023
3441.00,0.0023
3440.00,0.0023
3439.00,0.0023
3438.00,0.0023
3437.00,0.0023
3436.00,0.0024
3435.00,0.0024
3434.00,0.0024
3433.00,0.0024
3432.00,0.0024
3431.00,0.0024
3430.00,0.0024
3429.00,0.0025
3428.00,0.0025
3427.00,0.0025
3426.00,0.0025
3425.00,0.0025
3424.00,0.0024
3423.00,0.0024
3422.00,0.0025
3421.00,0.0025
3420.00,0.0025
3419.00,0.0026
3418.00,0.0026
3417.00,0.0026
3416.00,0.0026
3415.00,0.0026
3414.00,0.0026
3413.00,0.0026
3412.00,0.0026
3411.00,0.0026
3410.00,0.0026
3409.00,0.0026
3408.00,0.0026
3407.00,0.0026
3406.00,0.0027
3405.00,0.0027
3404.00,0.0028
3403.00,0.0028
3402.00,0.0028
3401.00,0.0028
3400.00,0.0029
3399.00,0.0029
3398.00,0.0029
3397.00,0.0029
3396.00,0.0029
3395.00,0.0028
3394.00,0.0028
3393.00,0.0028
3392.00,0.0029
3391.00,0.0029
3390.00,0.0029
3389.00,0.0029
3388.00,0.0028
3387.00,0.0028
3386.00,0.0028
3385.00,0.0029
3384.00,0.0029
3383.00,0.0029
3382.00,0.0029
3381.00,0.0029
3380.00,0.0029
3379.00,0.0029
3378.00,0.0030
3377.00,0.0030
3376.00,0.0030
3375.00,0.0030
3374.00,0.0030
3373.00,0.0030
3372.00,0.0030
3371.00,0.0030
3370.00,0.0030
3369.00,0.0029
3368.00,0.0029
3367.00,0.0029
3366.00,0.0028
3365.00,0.0028
3364.00,0.0029
3363.00,0.0029
3362.00,0.0029
3361.00,0.0030
3360.00,0.0030
3359.00,0.0030
3358.00,0.0031
3357.00,0.0031
3356.00,0.0031
3355.00,0.0030
3354.00,0.0030
3353.00,0.0030
3352.00,0.0030
3351.00,0.0030
3350.00,0.0031
3349.00,0.0031
3348.00,0.0031
3347.00,0.0031
3346.00,0.0031
3345.00,0.0031
3344.00,0.0031
3343.00,0.0030
3342.00,0.0030
3341.00,0.0030
3340.00,0.0030
3339.00,0.0030
3338.00,0.0030
3337.00,0.0031
3336.00,0.0031
3335.00,0.0031
3334.00,0.0031
3333.00,0.0031
3332.00,0.0031
3331.00,0.0030
3330.00,0.0030
3329.00,0.0030
3328.00,0.0030
3327.00,0.0030
3326.00,0.0030
3325.00,0.0030
3324.00,0.0030
3323.00,0.0030
3322.00,0.0029
3321.00,0.0030
3320.00,0.0030
3319.00,0.0030
3318.00,0.0030
3317.00,0.0030
3316.00,0.0030
3315.00,0.0030
3314.00,0.0030
3313.00,0.0030
3312.00,0.0030
3311.00,0.0030
3310.00,0.0030
3309.00,0.0031
3308.00,0.0031
3307.00,0.0032
3306.00,0.0032
3305.00,0.0033
3304.00,0.0034
3303.00,0.0034
3302.00,0.0034
3301.00,0.0034
3300.00,0.0033
3299.00,0.0033
3298.00,0.0032
3297.00,0.0032
3296.00,0.0032
3295.00,0.0032
3294.00,0.0031
3293.00,0.0031
3292.00,0.0030
3291.00,0.0030
3290.00,0.0029
3289.00,0.0029
3288.00,0.0029
3287.00,0.0030
3286.00,0.0030
3285.00,0.0030
3284.00,0.0029
3283.00,0.0028
3282.00,0.0028
3281.00,0.0028
3280.00,0.0028
3279.00,0.0028
3278.00,0.0029
3277.00,0.0029
3276.00,0.0029
3275.00,0.0028
3274.00,0.0028
3273.00,0.0028
3272.00,0.0027
3271.00,0.0027
3270.00,0.0027
3269.00,0.0027
3268.00,0.0027
3267.00,0.0027
3266.00,0.0027
3265.00,0.0027
3264.00,0.0027
3263.00,0.0027
3262.00,0.0026
3261.00,0.0026
3260.00,0.0026
3259.00,0.0026
3258.00,0.0025
3257.00,0.0025
3256.00,0.0025
3255.00,0.0026
3254.00,0.0026
3253.00,0.0026
3252.00,0.0026
3251.00,0.0026
3250.00,0.0026
3249.00,0.0026
3248.00,0.0025
3247.00,0.0025
3246.00,0.0025
3245.00,0.0025
3244.00,0.0025
3243.00,0.0026
3242.00,0.0026
3241.00,0.0026
3240.00,0.0026
3239.00,0.0026
3238.00,0.0026
3237.00,0.0026
3236.00,0.0026
3235.00,0.0026
3234.00,0.0026
3233.00,0.0026
3232.00,0.0026
3231.00,0.0026
3230.00,0.0026
3229.00,0.0026
3228.00,0.0027
3227.00,0.0027
3226.00,0.0028
3225.00,0.0028
3224.00,0.0029
3223.00,0.0029
3222.00,0.0029
3221.00,0.0029
3220.00,0.0029
3219.00,0.0029
3218.00,0.0029
3217.00,0.0029
3216.00,0.0030
3215.00,0.0029
3214.00,0.0029
3213.00,0.0029
3212.00,0.0030
3211.00,0.0030
3210.00,0.0030
3209.00,0.0031
3208.00,0.0031
3207.00,0.0031
3206.00,0.0031
3205.00,0.0032
3204.00,0.0032
3203.00,0.0032
3202.00,0.0032
3201.00,0.0032
3200.00,0.0032
3199.00,0.0032
3198.00,0.0033
3197.00,0.0033
3196.00,0.0033
3195.00,0.0032
3194.00,0.0032
3193.00,0.0032
3192.00,0.0031
3191.00,0.0031
3190.00,0.0031
3189.00,0.0031
3188.00,0.0031
3187.00,0.0031
3186.00,0.0031
3185.00,0.0031
3184.00,0.0031
3183.00,0.0031
3182.00,0.0031
3181.00,0.0031
3180.00,0.0031
3179.00,0.0030
3178.00,0.0030
3177.00,0.0030
3176.00,0.0029
3175.00,0.0029
3174.00,0.0029
3173.00,0.0028
3172.00,0.0028
3171.00,0.0028
3170.00,0.0028
3169.00,0.0028
3168.00,0.0029
3167.00,0.0028
3166.00,0.0028
3165.00,0.0028
3164.00,0.0028
3163.00,0.0028
3162.00,0.0028
3161.00,0.0028
3160.00,0.0028
3159.00,0.0028
3158.00,0.0028
3157.00,0.0028
3156.00,0.0028
3155.00,0.0027
3154.00,0.0027
3153.00,0.0027
3152.00,0.0027
3151.00,0.0027
3150.00,0.0028
3149.00,0.0028
3148.00,0.0028
3147.00,0.0029
3146.00,0.0029
3145.00,0.0028
3144.00,0.0028
3143.00,0.0028
3142.00,0.0028
3141.00,0.0028
3140.00,0.0028
3139.00,0.0028
3138.00,0.0028
3137.00,0.0027
3136.00,0.0027
3135.00,0.0027
3134.00,0.0026
3133.00,0.0026
3132.00,0.0026
3131.00,0.0026
3130.00,0.0026
3129.00,0.0026
3128.00,0.0026
3127.00,0.0026
3126.00,0.0026
3125.00,0.0026
3124.00,0.0025
3123.00,0.0025
3122.00,0.0025
3121.00,0.0025
3120.00,0.0025
3119.00,0.0025
3118.00,0.0024
3117.00,0.0024
3116.00,0.0024
3115.00,0.0024
3114.00,0.0024
3113.00,0.0023
3112.00,0.0024
3111.00,0.0024
3110.00,0.0024
3109.00,0.0024
3108.00,0.0024
3107.00,0.0024
3106.00,0.0024
3105.00,0.0024
3104.00,0.0023
3103.00,0.0023
3102.00,0.0023
3101.00,0.0023
3100.00,0.0023
3099.00,0.0022
3098.00,0.0022
3097.00,0.0022
3096.00,0.0022
3095.00,0.0022
3094.00,0.0022
3093.00,0.0022
3092.00,0.0022
3091.00,0.0022
3090.00,0.0023
3089.00,0.0023
3088.00,0.0023
3087.00,0.0023
3086.00,0.0022
3085.00,0.0022
3084.00,0.0022
3083.00,0.0022
3082.00,0.0023
3081.00,0.0023
3080.00,0.0023
3079.00,0.0023
3078.00,0.0023
3077.00,0.0023
3076.00,0.0024
3075.00,0.0024
3074.00,0.0024
3073.00,0.0024
3072.00,0.0024
3071.00,0.0024
3070.00,0.0024
3069.00,0.0024
3068.00,0.0024
3067.00,0.0024
3066.00,0.0025
3065.00,0.0025
3064.00,0.0025
3063.00,0.0025
3062.00,0.0025
3061.00,0.0025
3060.00,0.0025
3059.00,0.0025
3058.00,0.0025
3057.00,0.0025
3056.00,0.0026
3055.00,0.0026
3054.00,0.0026
3053.00,0.0026
3052.00,0.0027
3051.00,0.0027
3050.00,0.0027
3049.00,0.0027
3048.00,0.0028
3047.00,0.0028
3046.00,0.0028
3045.00,0.0028
3044.00,0.0028
3043.00,0.0028
3042.00,0.0029
3041.00,0.0029
3040.00,0.0030
3039.00,0.0030
3038.00,0.0030
3037.00,0.0030
3036.00,0.0030
3035.00,0.0030
3034.00,0.0031
3033.00,0.0031
3032.00,0.0032
3031.00,0.0033
3030.00,0.0033
3029.00,0.0034
3028.00,0.0034
3027.00,0.0035
3026.00,0.0036
3025.00,0.0036
3024.00,0.0037
3023.00,0.0037
3022.00,0.0038
3021.00,0.0038
3020.00,0.0039
3019.00,0.0040
3018.00,0.0041
3017.00,0.0042
3016.00,0.0043
3015.00,0.0044
3014.00,0.0045
3013.00,0.0046
3012.00,0.0047
3011.00,0.0049
3010.00,0.0050
3009.00,0.0051
3008.00,0.0052
3007.00,0.0054
3006.00,0.0055
3005.00,0.0057
3004.00,0.0059
3003.00,0.0061
3002.00,0.0063
3001.00,0.0065
3000.00,0.0068
2999.00,0.0071
2998.00,0.0073
2997.00,0.0076
2996.00,0.0080
2995.00,0.0084
2994.00,0.0088
2993.00,0.0093
2992.00,0.0098
2991.00,0.0104
2990.00,0.0110
2989.00,0.0116
2988.00,0.0123
2987.00,0.0131
2986.00,0.0140
2985.00,0.0150
2984.00,0.0161
2983.00,0.0173
2982.00,0.0188
2981.00,0.0204
2980.00,0.0223
2979.00,0.0244
2978.00,0.0268
2977.00,0.0295
2976.00,0.0326
2975.00,0.0362
2974.00,0.0402
2973.00,0.0449
2972.00,0.0501
2971.00,0.0559
2970.00,0.0623
2969.00,0.0692
2968.00,0.0766
2967.00,0.0844
2966.00,0.0923
2965.00,0.1002
2964.00,0.1077
2963.00,0.1142
2962.00,0.1195
2961.00,0.1237
2960.00,0.1270
2959.00,0.1301
2958.00,0.1338
2957.00,0.1389
2956.00,0.1459
2955.00,0.1550
2954.00,0.1659
2953.00,0.1775
2952.00,0.1884
2951.00,0.1967
2950.00,0.2007
2949.00,0.1993
2948.00,0.1925
2947.00,0.1812
2946.00,0.1672
2945.00,0.1525
2944.00,0.1387
2943.00,0.1270
2942.00,0.1178
2941.00,0.1115
2940.00,0.1077
2939.00,0.1063
2938.00,0.1071
2937.00,0.1096
2936.00,0.1139
2935.00,0.1198
2934.00,0.1273
2933.00,0.1362
2932.00,0.1464
2931.00,0.1578
2930.00,0.1702
2929.00,0.1833
2928.00,0.1967
2927.00,0.2102
2926.00,0.2235
2925.00,0.2366
2924.00,0.2498
2923.00,0.2633
2922.00,0.2770
2921.00,0.2906
2920.00,0.3029
2919.00,0.3126
2918.00,0.3177
2917.00,0.3172
2916.00,0.3108
2915.00,0.2996
2914.00,0.2854
2913.00,0.2701
2912.00,0.2554
2911.00,0.2421
2910.00,0.2304
2909.00,0.2202
2908.00,0.2111
2907.00,0.2026
2906.00,0.1944
2905.00,0.1863
2904.00,0.1784
2903.00,0.1707
2902.00,0.1632
2901.00,0.1560
2900.00,0.1492
2899.00,0.1428
2898.00,0.1369
2897.00,0.1314
2896.00,0.1265
2895.00,0.1223
2894.00,0.1187
2893.00,0.1159
2892.00,0.1137
2891.00,0.1122
2890.00,0.1112
2889.00,0.1108
2888.00,0.1106
2887.00,0.1109
2886.00,0.1114
2885.00,0.1122
2884.00,0.1135
2883.00,0.1151
2882.00,0.1172
2881.00,0.1194
2880.00,0.1216
2879.00,0.1233
2878.00,0.1242
2877.00,0.1242
2876.00,0.1235
2875.00,0.1227
2874.00,0.1222
2873.00,0.1226
2872.00,0.1238
2871.00,0.1259
2870.00,0.1286
2869.00,0.1312
2868.00,0.1331
2867.00,0.1333
2866.00,0.1311
2865.00,0.1262
2864.00,0.1190
2863.00,0.1104
2862.00,0.1017
2861.00,0.0940
2860.00,0.0878
2859.00,0.0834
2858.00,0.0807
2857.00,0.0794
2856.00,0.0793
2855.00,0.0800
2854.00,0.0814
2853.00,0.0832
2852.00,0.0853
2851.00,0.0872
2850.00,0.0889
2849.00,0.0902
2848.00,0.0916
2847.00,0.0934
2846.00,0.0960
2845.00,0.0996
2844.00,0.1043
2843.00,0.1096
2842.00,0.1150
2841.00,0.1197
2840.00,0.1229
2839.00,0.1240
2838.00,0.1223
2837.00,0.1176
2836.00,0.1102
2835.00,0.1007
2834.00,0.0902
2833.00,0.0796
2832.00,0.0697
2831.00,0.0611
2830.00,0.0539
2829.00,0.0479
2828.00,0.0430
2827.00,0.0391
2826.00,0.0358
2825.00,0.0332
2824.00,0.0309
2823.00,0.0290
2822.00,0.0274
2821.00,0.0259
2820.00,0.0246
2819.00,0.0235
2818.00,0.0225
2817.00,0.0217
2816.00,0.0210
2815.00,0.0203
2814.00,0.0197
2813.00,0.0192
2812.00,0.0186
2811.00,0.0180
2810.00,0.0175
2809.00,0.0168
2808.00,0.0162
2807.00,0.0155
2806.00,0.0149
2805.00,0.0142
2804.00,0.0136
2803.00,0.0130
2802.00,0.0124
2801.00,0.0120
2800.00,0.0116
2799.00,0.0112
2798.00,0.0110
2797.00,0.0107
2796.00,0.0105
2795.00,0.0102
2794.00,0.0100
2793.00,0.0097
2792.00,0.0094
2791.00,0.0091
2790.00,0.0088
2789.00,0.0085
2788.00,0.0082
2787.00,0.0079
2786.00,0.0076
2785.00,0.0074
2784.00,0.0071
2783.00,0.0069
2782.00,0.0067
2781.00,0.0066
2780.00,0.0064
2779.00,0.0063
2778.00,0.0061
2777.00,0.0060
2776.00,0.0058
2775.00,0.0057
2774.00,0.0056
2773.00,0.0056
2772.00,0.0055
2771.00,0.0055
2770.00,0.0055
2769.00,0.0055
2768.00,0.0054
2767.00,0.0054
2766.00,0.0053
2765.00,0.0053
2764.00,0.0052
2763.00,0.0052
2762.00,0.0052
2761.00,0.0051
2760.00,0.0051
2759.00,0.0051
2758.00,0.0051
2757.00,0.0050
2756.00,0.0050
2755.00,0.0050
2754.00,0.0050
2753.00,0.0050
2752.00,0.0050
2751.00,0.0050
2750.00,0.0050
2749.00,0.0049
2748.00,0.0049
2747.00,0.0049
2746.00,0.0050
2745.00,0.0051
2744.00,0.0051
2743.00,0.0052
2742.00,0.0053
2741.00,0.0054
2740.00,0.0056
2739.00,0.0057
2738.00,0.0058
2737.00,0.0060
2736.00,0.0061
2735.00,0.0062
2734.00,0.0064
2733.00,0.0066
2732.00,0.0068
2731.00,0.0070
2730.00,0.0072
2729.00,0.0074
2728.00,0.0077
2727.00,0.0080
2726.00,0.0083
2725.00,0.0085
2724.00,0.0087
2723.00,0.0088
2722.00,0.0087
2721.00,0.0086
2720.00,0.0083
2719.00,0.0080
2718.00,0.0076
2717.00,0.0073
2716.00,0.0069
2715.00,0.0066
2714.00,0.0064
2713.00,0.0061
2712.00,0.0059
2711.00,0.0057
2710.00,0.0055
2709.00,0.0054
2708.00,0.0052
2707.00,0.0051
2706.00,0.0049
2705.00,0.0048
2704.00,0.0047
2703.00,0.0046
2702.00,0.0046
2701.00,0.0045
2700.00,0.0044
2699.00,0.0044
2698.00,0.0043
2697.00,0.0043
2696.00,0.0043
2695.00,0.0043
2694.00,0.0042
2693.00,0.0042
2692.00,0.0043
2691.00,0.0043
2690.00,0.0043
2689.00,0.0043
2688.00,0.0043
2687.00,0.0043
2686.00,0.0043
2685.00,0.0043
2684.00,0.0043
2683.00,0.0043
2682.00,0.0043
2681.00,0.0044
2680.00,0.0044
2679.00,0.0044
2678.00,0.0045
2677.00,0.0045
2676.00,0.0045
2675.00,0.0045
2674.00,0.0044
2673.00,0.0044
2672.00,0.0043
2671.00,0.0043
2670.00,0.0043
2669.00,0.0043
2668.00,0.0043
2667.00,0.0044
2666.00,0.0044
2665.00,0.0045
2664.00,0.0045
2663.00,0.0046
2662.00,0.0047
2661.00,0.0047
2660.00,0.0047
2659.00,0.0047
2658.00,0.0047
2657.00,0.0047
2656.00,0.0046
2655.00,0.0046
2654.00,0.0046
2653.00,0.0045
2652.00,0.0044
2651.00,0.0043
2650.00,0.0043
2649.00,0.0042
2648.00,0.0041
2647.00,0.0041
2646.00,0.0041
2645.00,0.0041
2644.00,0.0040
2643.00,0.0040
2642.00,0.0039
2641.00,0.0039
2640.00,0.0039
2639.00,0.0039
2638.00,0.0038
2637.00,0.0038
2636.00,0.0038
2635.00,0.0038
2634.00,0.0038
2633.00,0.0038
2632.00,0.0038
2631.00,0.0038
2630.00,0.0038
2629.00,0.0038
2628.00,0.0038
2627.00,0.0039
2626.00,0.0039
2625.00,0.0039
2624.00,0.0039
2623.00,0.0039
2622.00,0.0038
2621.00,0.0038
2620.00,0.0038
2619.00,0.0039
2618.00,0.0039
2617.00,0.0039
2616.00,0.0039
2615.00,0.0039
2614.00,0.0039
2613.00,0.0038
2612.00,0.0038
2611.00,0.0037
2610.00,0.0036
2609.00,0.0036
2608.00,0.0035
2607.00,0.0034
2606.00,0.0034
2605.00,0.0033
2604.00,0.0032
2603.00,0.0032
2602.00,0.0032
2601.00,0.0032
2600.00,0.0031
2599.00,0.0031
2598.00,0.0031
2597.00,0.0032
2596.00,0.0032
2595.00,0.0033
2594.00,0.0033
2593.00,0.0033
2592.00,0.0034
2591.00,0.0034
2590.00,0.0034
2589.00,0.0034
2588.00,0.0034
2587.00,0.0035
2586.00,0.0036
2585.00,0.0037
2584.00,0.0038
2583.00,0.0039
2582.00,0.0039
2581.00,0.0039
2580.00,0.0038
2579.00,0.0037
2578.00,0.0036
2577.00,0.0036
2576.00,0.0035
2575.00,0.0034
2574.00,0.0032
2573.00,0.0031
2572.00,0.0030
2571.00,0.0028
2570.00,0.0027
2569.00,0.0026
2568.00,0.0025
2567.00,0.0025
2566.00,0.0024
2565.00,0.0024
2564.00,0.0023
2563.00,0.0023
2562.00,0.0022
2561.00,0.0022
2560.00,0.0022
2559.00,0.0023
2558.00,0.0023
2557.00,0.0023
2556.00,0.0023
2555.00,0.0023
2554.00,0.0022
2553.00,0.0022
2552.00,0.0021
2551.00,0.0021
2550.00,0.0020
2549.00,0.0019
2548.00,0.0019
2547.00,0.0018
2546.00,0.0017
2545.00,0.0017
2544.00,0.0017
2543.00,0.0017
2542.00,0.0017
2541.00,0.0017
2540.00,0.0017
2539.00,0.0017
2538.00,0.0017
2537.00,0.0017
2536.00,0.0017
2535.00,0.0017
2534.00,0.0017
2533.00,0.0016
2532.00,0.0015
2531.00,0.0015
2530.00,0.0015
2529.00,0.0015
2528.00,0.0014
2527.00,0.0014
2526.00,0.0013
2525.00,0.0012
2524.00,0.0012
2523.00,0.0013
2522.00,0.0013
2521.00,0.0014
2520.00,0.0014
2519.00,0.0013
2518.00,0.0013
2517.00,0.0011
2516.00,0.0010
2515.00,0.0010
2514.00,0.0010
2513.00,0.0009
2512.00,0.0010
2511.00,0.0010
2510.00,0.0010
2509.00,0.0010
2508.00,0.0010
2507.00,0.0010
2506.00,0.0010
2505.00,0.0010
2504.00,0.0010
2503.00,0.0010
2502.00,0.0010
2501.00,0.0010
2500.00,0.0009
2499.00,0.0008
2498.00,0.0008
2497.00,0.0008
2496.00,0.0008
2495.00,0.0009
2494.00,0.0009
2493.00,0.0009
2492.00,0.0009
2491.00,0.0010
2490.00,0.0010
2489.00,0.0010
2488.00,0.0010
2487.00,0.0010
2486.00,0.0010
2485.00,0.0010
2484.00,0.0009
2483.00,0.0009
2482.00,0.0009
2481.00,0.0009
2480.00,0.0009
2479.00,0.0008
2478.00,0.0008
2477.00,0.0008
2476.00,0.0008
2475.00,0.0008
2474.00,0.0008
2473.00,0.0008
2472.00,0.0008
2471.00,0.0008
2470.00,0.0007
2469.00,0.0008
2468.00,0.0008
2467.00,0.0009
2466.00,0.0009
2465.00,0.0009
2464.00,0.0009
2463.00,0.0009
2462.00,0.0009
2461.00,0.0009
2460.00,0.0009
2459.00,0.0009
2458.00,0.0010
2457.00,0.0010
2456.00,0.0010
2455.00,0.0010
2454.00,0.0009
2453.00,0.0010
2452.00,0.0010
2451.00,0.0011
2450.00,0.0011
2449.00,0.0010
2448.00,0.0010
2447.00,0.0010
2446.00,0.0010
2445.00,0.0010
2444.00,0.0010
2443.00,0.0010
2442.00,0.0009
2441.00,0.0009
2440.00,0.0009
2439.00,0.0009
2438.00,0.0009
2437.00,0.0009
2436.00,0.0009
2435.00,0.0010
2434.00,0.0010
2433.00,0.0010
2432.00,0.0010
2431.00,0.0010
2430.00,0.0010
2429.00,0.0011
2428.00,0.0011
2427.00,0.0011
2426.00,0.0011
2425.00,0.0011
2424.00,0.0010
2423.00,0.0010
2422.00,0.0010
2421.00,0.0010
2420.00,0.0009
2419.00,0.0009
2418.00,0.0009
2417.00,0.0009
2416.00,0.0009
2415.00,0.0009
2414.00,0.0009
2413.00,0.0009
2412.00,0.0010
2411.00,0.0010
2410.00,0.0010
2409.00,0.0011
2408.00,0.0010
2407.00,0.0009
2406.00,0.0008
2405.00,0.0007
2404.00,0.0006
2403.00,0.0006
2402.00,0.0006
2401.00,0.0007
2400.00,0.0007
2399.00,0.0007
2398.00,0.0007
2397.00,0.0008
2396.00,0.0007
2395.00,0.0007
2394.00,0.0007
2393.00,0.0007
2392.00,0.0006
2391.00,0.0006
2390.00,0.0006
2389.00,0.0006
2388.00,0.0005
2387.00,0.0005
2386.00,0.0005
2385.00,0.0005
2384.00,0.0005
2383.00,0.0005
2382.00,0.0005
2381.00,0.0005
2380.00,0.0005
2379.00,0.0004
2378.00,0.0004
2377.00,0.0004
2376.00,0.0004
2375.00,0.0005
2374.00,0.0005
2373.00,0.0005
2372.00,0.0005
2371.00,0.0004
2370.00,0.0003
2369.00,0.0003
2368.00,0.0003
2367.00,0.0003
2366.00,0.0004
2365.00,0.0004
2364.00,0.0004
2363.00,0.0005
2362.00,0.0005
2361.00,0.0005
2360.00,0.0005
2359.00,0.0006
2358.00,0.0005
2357.00,0.0005
2356.00,0.0006
2355.00,0.0006
2354.00,0.0006
2353.00,0.0006
2352.00,0.0006
2351.00,0.0006
2350.00,0.0006
2349.00,0.0006
2348.00,0.0006
2347.00,0.0006
2346.00,0.0006
2345.00,0.0007
2344.00,0.0008
2343.00,0.0009
2342.00,0.0009
2341.00,0.0009
2340.00,0.0009
2339.00,0.0009
2338.00,0.0009
2337.00,0.0009
2336.00,0.0009
2335.00,0.0009
2334.00,0.0008
2333.00,0.0008
2332.00,0.0008
2331.00,0.0008
2330.00,0.0009
2329.00,0.0010
2328.00,0.0011
2327.00,0.0014
2326.00,0.0018
2325.00,0.0021
2324.00,0.0022
2323.00,0.0021
2322.00,0.0019
2321.00,0.0017
2320.00,0.0016
2319.00,0.0014
2318.00,0.0014
2317.00,0.0013
2316.00,0.0012
2315.00,0.0012
2314.00,0.0011
2313.00,0.0011
2312.00,0.0011
2311.00,0.0011
2310.00,0.0011
2309.00,0.0011
2308.00,0.0011
2307.00,0.0010
2306.00,0.0010
2305.00,0.0010
2304.00,0.0010
2303.00,0.0011
2302.00,0.0011
2301.00,0.0011
2300.00,0.0011
2299.00,0.0011
2298.00,0.0011
2297.00,0.0011
2296.00,0.0011
2295.00,0.0012
2294.00,0.0012
2293.00,0.0013
2292.00,0.0014
2291.00,0.0015
2290.00,0.0015
2289.00,0.0016
2288.00,0.0017
2287.00,0.0017
2286.00,0.0017
2285.00,0.0017
2284.00,0.0016
2283.00,0.0016
2282.00,0.0016
2281.00,0.0015
2280.00,0.0015
2279.00,0.0014
2278.00,0.0014
2277.00,0.0013
2276.00,0.0012
2275.00,0.0012
2274.00,0.0012
2273.00,0.0012
2272.00,0.0012
2271.00,0.0012
2270.00,0.0012
2269.00,0.0012
2268.00,0.0011
2267.00,0.0010
2266.00,0.0009
2265.00,0.0008
2264.00,0.0009
2263.00,0.0009
2262.00,0.0010
2261.00,0.0012
2260.00,0.0013
2259.00,0.0014
2258.00,0.0014
2257.00,0.0012
2256.00,0.0011
2255.00,0.0009
2254.00,0.0008
2253.00,0.0008
2252.00,0.0008
2251.00,0.0008
2250.00,0.0009
2249.00,0.0010
2248.00,0.0011
2247.00,0.0011
2246.00,0.0009
2245.00,0.0007
2244.00,0.0006
2243.00,0.0005
2242.00,0.0006
2241.00,0.0006
2240.00,0.0007
2239.00,0.0008
2238.00,0.0008
2237.00,0.0009
2236.00,0.0008
2235.00,0.0006
2234.00,0.0004
2233.00,0.0003
2232.00,0.0002
2231.00,0.0002
2230.00,0.0002
2229.00,0.0003
2228.00,0.0004
2227.00,0.0004
2226.00,0.0005
2225.00,0.0005
2224.00,0.0006
2223.00,0.0005
2222.00,0.0005
2221.00,0.0005
2220.00,0.0005
2219.00,0.0006
2218.00,0.0006
2217.00,0.0005
2216.00,0.0005
2215.00,0.0005
2214.00,0.0006
2213.00,0.0006
2212.00,0.0007
2211.00,0.0007
2210.00,0.0007
2209.00,0.0007
2208.00,0.0007
2207.00,0.0006
2206.00,0.0007
2205.00,0.0007
2204.00,0.0007
2203.00,0.0007
2202.00,0.0005
2201.00,0.0004
2200.00,0.0002
2199.00,0.0002
2198.00,0.0002
2197.00,0.0003
2196.00,0.0005
2195.00,0.0006
2194.00,0.0007
2193.00,0.0009
2192.00,0.0010
2191.00,0.0011
2190.00,0.0010
2189.00,0.0010
2188.00,0.0010
2187.00,0.0011
2186.00,0.0011
2185.00,0.0011
2184.00,0.0009
2183.00,0.0005
2182.00,0.0002
2181.00,0.0002
2180.00,0.0004
2179.00,0.0008
2178.00,0.0009
2177.00,0.0008
2176.00,0.0006
2175.00,0.0003
2174.00,0.0003
2173.00,0.0003
2172.00,0.0003
2171.00,0.0003
2170.00,0.0003
2169.00,0.0004
2168.00,0.0006
2167.00,0.0007
2166.00,0.0008
2165.00,0.0010
2164.00,0.0014
2163.00,0.0018
2162.00,0.0021
2161.00,0.0017
2160.00,0.0006
2159.00,-0.0009
2158.00,-0.0022
2157.00,-0.0027
2156.00,-0.0028
2155.00,-0.0026
2154.00,-0.0024
2153.00,-0.0022
2152.00,-0.0020
2151.00,-0.0018
2150.00,-0.0016
2149.00,-0.0016
2148.00,-0.0016
2147.00,-0.0016
2146.00,-0.0015
2145.00,-0.0014
2144.00,-0.0013
2143.00,-0.0013
2142.00,-0.0014
2141.00,-0.0015
2140.00,-0.0014
2139.00,-0.0014
2138.00,-0.0013
2137.00,-0.0013
2136.00,-0.0014
2135.00,-0.0017
2134.00,-0.0019
2133.00,-0.0021
2132.00,-0.0020
2131.00,-0.0018
2130.00,-0.0015
2129.00,-0.0013
2128.00,-0.0012
2127.00,-0.0012
2126.00,-0.0012
2125.00,-0.0012
2124.00,-0.0011
2123.00,-0.0011
2122.00,-0.0009
2121.00,-0.0008
2120.00,-0.0006
2119.00,-0.0005
2118.00,-0.0003
2117.00,-0.0001
2116.00,0.0001
2115.00,0.0002
2114.00,0.0002
2113.00,0.0002
2112.00,0.0001
2111.00,0.0001
2110.00,0.0002
2109.00,0.0002
2108.00,0.0001
2107.00,-0.0000
2106.00,-0.0002
2105.00,-0.0004
2104.00,-0.0004
2103.00,-0.0003
2102.00,-0.0002
2101.00,-0.0001
2100.00,0.0000
2099.00,0.0000
2098.00,-0.0000
2097.00,-0.0001
2096.00,-0.0002
2095.00,-0.0003
2094.00,-0.0004
2093.00,-0.0004
2092.00,-0.0004
2091.00,-0.0003
2090.00,-0.0003
2089.00,-0.0002
2088.00,-0.0002
2087.00,-0.0002
2086.00,-0.0001
2085.00,-0.0001
2084.00,-0.0000
2083.00,-0.0000
2082.00,-0.0000
2081.00,0.0001
2080.00,0.0002
2079.00,0.0003
2078.00,0.0003
2077.00,0.0003
2076.00,0.0002
2075.00,0.0002
2074.00,0.0002
2073.00,0.0001
2072.00,0.0001
2071.00,-0.0000
2070.00,-0.0000
2069.00,-0.0000
2068.00,0.0000
2067.00,-0.0000
2066.00,-0.0001
2065.00,-0.0002
2064.00,-0.0002
2063.00,-0.0001
2062.00,0.0001
2061.00,0.0001
2060.00,-0.0000
2059.00,-0.0002
2058.00,-0.0003
2057.00,-0.0003
2056.00,-0.0002
2055.00,-0.0002
2054.00,-0.0001
2053.00,0.0002
2052.00,0.0007
2051.00,0.0010
2050.00,0.0011
2049.00,0.0009
2048.00,0.0007
2047.00,0.0005
2046.00,0.0004
2045.00,0.0003
2044.00,0.0003
2043.00,0.0003
2042.00,0.0003
2041.00,0.0003
2040.00,0.0002
2039.00,0.0001
2038.00,-0.0001
2037.00,-0.0002
2036.00,-0.0004
2035.00,-0.0006
2034.00,-0.0008
2033.00,-0.0009
2032.00,-0.0009
2031.00,-0.0010
2030.00,-0.0011
2029.00,-0.0012
2028.00,-0.0013
2027.00,-0.0015
2026.00,-0.0015
2025.00,-0.0015
2024.00,-0.0015
2023.00,-0.0017
2022.00,-0.0019
2021.00,-0.0020
2020.00,-0.0020
2019.00,-0.0019
2018.00,-0.0016
2017.00,-0.0013
2016.00,-0.0011
2015.00,-0.0010
2014.00,-0.0011
2013.00,-0.0011
2012.00,-0.0011
2011.00,-0.0012
2010.00,-0.0013
2009.00,-0.0014
2008.00,-0.0016
2007.00,-0.0019
2006.00,-0.0020
2005.00,-0.0018
2004.00,-0.0014
2003.00,-0.0012
2002.00,-0.0011
2001.00,-0.0011
2000.00,-0.0012
1999.00,-0.0011
1998.00,-0.0010
1997.00,-0.0009
1996.00,-0.0009
1995.00,-0.0010
1994.00,-0.0010
1993.00,-0.0010
1992.00,-0.0009
1991.00,-0.0010
1990.00,-0.0009
1989.00,-0.0006
1988.00,-0.0002
1987.00,0.0001
1986.00,0.0001
1985.00,-0.0001
1984.00,-0.0002
1983.00,-0.0001
1982.00,0.0000
1981.00,0.0001
1980.00,0.0001
1979.00,-0.0001
1978.00,-0.0004
1977.00,-0.0008
1976.00,-0.0013
1975.00,-0.0018
1974.00,-0.0020
1973.00,-0.0019
1972.00,-0.0017
1971.00,-0.0017
1970.00,-0.0017
1969.00,-0.0016
1968.00,-0.0016
1967.00,-0.0017
1966.00,-0.0019
1965.00,-0.0019
1964.00,-0.0017
1963.00,-0.0014
1962.00,-0.0013
1961.00,-0.0014
1960.00,-0.0017
1959.00,-0.0021
1958.00,-0.0023
1957.00,-0.0023
1956.00,-0.0020
1955.00,-0.0017
1954.00,-0.0016
1953.00,-0.0015
1952.00,-0.0016
1951.00,-0.0017
1950.00,-0.0017
1949.00,-0.0017
1948.00,-0.0017
1947.00,-0.0017
1946.00,-0.0018
1945.00,-0.0018
1944.00,-0.0018
1943.00,-0.0017
1942.00,-0.0015
1941.00,-0.0014
1940.00,-0.0014
1939.00,-0.0013
1938.00,-0.0012
1937.00,-0.0012
1936.00,-0.0012
1935.00,-0.0012
1934.00,-0.0010
1933.00,-0.0008
1932.00,-0.0007
1931.00,-0.0006
1930.00,-0.0006
1929.00,-0.0007
1928.00,-0.0008
1927.00,-0.0009
1926.00,-0.0010
1925.00,-0.0009
1924.00,-0.0009
1923.00,-0.0008
1922.00,-0.0007
1921.00,-0.0006
1920.00,-0.0005
1919.00,-0.0004
1918.00,-0.0003
1917.00,-0.0003
1916.00,-0.0002
1915.00,-0.0002
1914.00,-0.0003
1913.00,-0.0003
1912.00,-0.0003
1911.00,-0.0003
1910.00,-0.0003
1909.00,-0.0003
1908.00,-0.0002
1907.00,-0.0002
1906.00,-0.0002
1905.00,-0.0002
1904.00,-0.0001
1903.00,-0.0001
1902.00,-0.0001
1901.00,-0.0001
1900.00,-0.0002
1899.00,-0.0003
1898.00,-0.0003
1897.00,-0.0004
1896.00,-0.0003
1895.00,-0.0002
1894.00,-0.0001
1893.00,0.0000
1892.00,0.0001
1891.00,-0.0000
1890.00,-0.0001
1889.00,-0.0003
1888.00,-0.0003
1887.00,-0.0003
1886.00,-0.0003
1885.00,-0.0003
1884.00,-0.0004
1883.00,-0.0004
1882.00,-0.0003
1881.00,-0.0003
1880.00,-0.0003
1879.00,-0.0003
1878.00,-0.0003
1877.00,-0.0003
1876.00,-0.0003
1875.00,-0.0002
1874.00,-0.0003
1873.00,-0.0003
1872.00,-0.0004
1871.00,-0.0005
1870.00,-0.0005
1869.00,-0.0004
1868.00,-0.0003
1867.00,-0.0002
1866.00,-0.0002
1865.00,-0.0001
1864.00,-0.0001
1863.00,-0.0000
1862.00,0.0000
1861.00,0.0000
1860.00,-0.0000
1859.00,-0.0001
1858.00,-0.0002
1857.00,-0.0002
1856.00,-0.0003
1855.00,-0.0004
1854.00,-0.0004
1853.00,-0.0003
1852.00,-0.0002
1851.00,-0.0001
1850.00,-0.0001
1849.00,-0.0001
1848.00,-0.0000
1847.00,0.0000
1846.00,0.0001
1845.00,0.0002
1844.00,0.0003
1843.00,0.0002
1842.00,0.0001
1841.00,0.0000
1840.00,-0.0000
1839.00,-0.0000
1838.00,-0.0000
1837.00,0.0000
1836.00,0.0001
1835.00,0.0002
1834.00,0.0002
1833.00,0.0002
1832.00,0.0002
1831.00,0.0002
1830.00,0.0002
1829.00,0.0003
1828.00,0.0003
1827.00,0.0003
1826.00,0.0003
1825.00,0.0002
1824.00,0.0001
1823.00,0.0001
1822.00,0.0001
1821.00,0.0001
1820.00,0.0001
1819.00,-0.0000
1818.00,-0.0002
1817.00,-0.0002
1816.00,-0.0002
1815.00,-0.0001
1814.00,0.0000
1813.00,0.0001
1812.00,0.0001
1811.00,0.0001
1810.00,0.0001
1809.00,0.0001
1808.00,0.0002
1807.00,0.0002
1806.00,0.0002
1805.00,0.0002
1804.00,0.0002
1803.00,0.0002
1802.00,0.0003
1801.00,0.0003
1800.00,0.0003
1799.00,0.0003
1798.00,0.0003
1797.00,0.0002
1796.00,0.0002
1795.00,0.0002
1794.00,0.0002
1793.00,0.0003
1792.00,0.0003
1791.00,0.0004
1790.00,0.0005
1789.00,0.0005
1788.00,0.0005
1787.00,0.0005
1786.00,0.0005
1785.00,0.0005
1784.00,0.0005
1783.00,0.0005
1782.00,0.0005
1781.00,0.0005
1780.00,0.0006
1779.00,0.0006
1778.00,0.0006
1777.00,0.0006
1776.00,0.0005
1775.00,0.0004
1774.00,0.0004
1773.00,0.0004
1772.00,0.0005
1771.00,0.0005
1770.00,0.0006
1769.00,0.0007
1768.00,0.0007
1767.00,0.0007
1766.00,0.0008
1765.00,0.0008
1764.00,0.0008
1763.00,0.0008
1762.00,0.0009
1761.00,0.0009
1760.00,0.0009
1759.00,0.0010
1758.00,0.0010
1757.00,0.0011
1756.00,0.0011
1755.00,0.0011
1754.00,0.0011
1753.00,0.0011
1752.00,0.0011
1751.00,0.0012
1750.00,0.0012
1749.00,0.0013
1748.00,0.0013
1747.00,0.0013
1746.00,0.0014
1745.00,0.0014
1744.00,0.0015
1743.00,0.0015
1742.00,0.0015
1741.00,0.0015
1740.00,0.0016
1739.00,0.0015
1738.00,0.0015
1737.00,0.0015
1736.00,0.0015
1735.00,0.0015
1734.00,0.0014
1733.00,0.0014
1732.00,0.0014
1731.00,0.0014
1730.00,0.0015
1729.00,0.0015
1728.00,0.0015
1727.00,0.0015
1726.00,0.0016
1725.00,0.0016
1724.00,0.0017
1723.00,0.0018
1722.00,0.0019
1721.00,0.0019
1720.00,0.0020
1719.00,0.0019
1718.00,0.0019
1717.00,0.0018
1716.00,0.0018
1715.00,0.0018
1714.00,0.0018
1713.00,0.0018
1712.00,0.0019
1711.00,0.0019
1710.00,0.0019
1709.00,0.0019
1708.00,0.0019
1707.00,0.0019
1706.00,0.0019
1705.00,0.0019
1704.00,0.0019
1703.00,0.0019
1702.00,0.0019
1701.00,0.0021
1700.00,0.0022
1699.00,0.0022
1698.00,0.0022
1697.00,0.0023
1696.00,0.0023
1695.00,0.0023
1694.00,0.0023
1693.00,0.0023
1692.00,0.0023
1691.00,0.0023
1690.00,0.0023
1689.00,0.0023
1688.00,0.0023
1687.00,0.0024
1686.00,0.0023
1685.00,0.0023
1684.00,0.0024
1683.00,0.0024
1682.00,0.0025
1681.00,0.0026
1680.00,0.0026
1679.00,0.0027
1678.00,0.0027
1677.00,0.0027
1676.00,0.0028
1675.00,0.0028
1674.00,0.0029
1673.00,0.0029
1672.00,0.0030
1671.00,0.0030
1670.00,0.0030
1669.00,0.0030
1668.00,0.0031
1667.00,0.0031
1666.00,0.0031
1665.00,0.0032
1664.00,0.0032
1663.00,0.0032
1662.00,0.0033
1661.00,0.0033
1660.00,0.0033
1659.00,0.0034
1658.00,0.0034
1657.00,0.0035
1656.00,0.0035
1655.00,0.0035
1654.00,0.0035
1653.00,0.0035
1652.00,0.0036
1651.00,0.0037
1650.00,0.0038
1649.00,0.0039
1648.00,0.0041
1647.00,0.0044
1646.00,0.0045
1645.00,0.0046
1644.00,0.0046
1643.00,0.0047
1642.00,0.0047
1641.00,0.0047
1640.00,0.0048
1639.00,0.0048
1638.00,0.0048
1637.00,0.0049
1636.00,0.0049
1635.00,0.0048
1634.00,0.0048
1633.00,0.0048
1632.00,0.0048
1631.00,0.0047
1630.00,0.0046
1629.00,0.0046
1628.00,0.0045
1627.00,0.0045
1626.00,0.0044
1625.00,0.0044
1624.00,0.0043
1623.00,0.0043
1622.00,0.0042
1621.00,0.0042
1620.00,0.0042
1619.00,0.0042
1618.00,0.0041
1617.00,0.0041
1616.00,0.0040
1615.00,0.0040
1614.00,0.0040
1613.00,0.0041
1612.00,0.0041
1611.00,0.0041
1610.00,0.0041
1609.00,0.0042
1608.00,0.0042
1607.00,0.0042
1606.00,0.0042
1605.00,0.0042
1604.00,0.0042
1603.00,0.0042
1602.00,0.0042
1601.00,0.0042
1600.00,0.0042
1599.00,0.0041
1598.00,0.0041
1597.00,0.0041
1596.00,0.0041
1595.00,0.0041
1594.00,0.0041
1593.00,0.0041
1592.00,0.0042
1591.00,0.0042
1590.00,0.0042
1589.00,0.0042
1588.00,0.0042
1587.00,0.0042
1586.00,0.0042
1585.00,0.0043
1584.00,0.0044
1583.00,0.0044
1582.00,0.0044
1581.00,0.0045
1580.00,0.0046
1579.00,0.0046
1578.00,0.0047
1577.00,0.0048
1576.00,0.0049
1575.00,0.0049
1574.00,0.0048
1573.00,0.0048
1572.00,0.0047
1571.00,0.0047
1570.00,0.0047
1569.00,0.0047
1568.00,0.0048
1567.00,0.0048
1566.00,0.0048
1565.00,0.0048
1564.00,0.0048
1563.00,0.0048
1562.00,0.0047
1561.00,0.0048
1560.00,0.0048
1559.00,0.0047
1558.00,0.0046
1557.00,0.0046
1556.00,0.0047
1555.00,0.0048
1554.00,0.0048
1553.00,0.0049
1552.00,0.0050
1551.00,0.0051
1550.00,0.0052
1549.00,0.0052
1548.00,0.0052
1547.00,0.0052
1546.00,0.0053
1545.00,0.0053
1544.00,0.0054
1543.00,0.0054
1542.00,0.0054
1541.00,0.0054
1540.00,0.0053
1539.00,0.0052
1538.00,0.0051
1537.00,0.0051
1536.00,0.0051
1535.00,0.0050
1534.00,0.0049
1533.00,0.0047
1532.00,0.0046
1531.00,0.0045
1530.00,0.0044
1529.00,0.0044
1528.00,0.0044
1527.00,0.0045
1526.00,0.0044
1525.00,0.0044
1524.00,0.0045
1523.00,0.0045
1522.00,0.0046
1521.00,0.0046
1520.00,0.0045
1519.00,0.0044
1518.00,0.0043
1517.00,0.0044
1516.00,0.0045
1515.00,0.0045
1514.00,0.0046
1513.00,0.0047
1512.00,0.0048
1511.00,0.0049
1510.00,0.0050
1509.00,0.0051
1508.00,0.0052
1507.00,0.0053
1506.00,0.0054
1505.00,0.0055
1504.00,0.0057
1503.00,0.0058
1502.00,0.0060
1501.00,0.0062
1500.00,0.0064
1499.00,0.0066
1498.00,0.0068
1497.00,0.0071
1496.00,0.0075
1495.00,0.0077
1494.00,0.0078
1493.00,0.0080
1492.00,0.0084
1491.00,0.0087
1490.00,0.0091
1489.00,0.0096
1488.00,0.0101
1487.00,0.0105
1486.00,0.0109
1485.00,0.0115
1484.00,0.0122
1483.00,0.0130
1482.00,0.0138
1481.00,0.0149
1480.00,0.0161
1479.00,0.0174
1478.00,0.0189
1477.00,0.0210
1476.00,0.0235
1475.00,0.0266
1474.00,0.0307
1473.00,0.0366
1472.00,0.0435
1471.00,0.0503
1470.00,0.0568
1469.00,0.0637
1468.00,0.0712
1467.00,0.0795
1466.00,0.0888
1465.00,0.0988
1464.00,0.1074
1463.00,0.1133
1462.00,0.1170
1461.00,0.1193
1460.00,0.1207
1459.00,0.1213
1458.00,0.1216
1457.00,0.1213
1456.00,0.1203
1455.00,0.1188
1454.00,0.1172
1453.00,0.1150
1452.00,0.1120
1451.00,0.1080
1450.00,0.1028
1449.00,0.0957
1448.00,0.0867
1447.00,0.0771
1446.00,0.0685
1445.00,0.0612
1444.00,0.0550
1443.00,0.0499
1442.00,0.0461
1441.00,0.0436
1440.00,0.0420
1439.00,0.0416
1438.00,0.0420
1437.00,0.0426
1436.00,0.0421
1435.00,0.0398
1434.00,0.0362
1433.00,0.0318
1432.00,0.0271
1431.00,0.0229
1430.00,0.0197
1429.00,0.0173
1428.00,0.0157
1427.00,0.0147
1426.00,0.0140
1425.00,0.0133
1424.00,0.0127
1423.00,0.0123
1422.00,0.0120
1421.00,0.0118
1420.00,0.0115
1419.00,0.0113
1418.00,0.0112
1417.00,0.0109
1416.00,0.0107
1415.00,0.0106
1414.00,0.0106
1413.00,0.0104
1412.00,0.0103
1411.00,0.0102
1410.00,0.0102
1409.00,0.0101
1408.00,0.0099
1407.00,0.0099
1406.00,0.0100
1405.00,0.0100
1404.00,0.0100
1403.00,0.0101
1402.00,0.0103
1401.00,0.0103
1400.00,0.0104
1399.00,0.0106
1398.00,0.0109
1397.00,0.0111
1396.00,0.0113
1395.00,0.0117
1394.00,0.0122
1393.00,0.0126
1392.00,0.0131
1391.00,0.0139
1390.00,0.0149
1389.00,0.0163
1388.00,0.0183
1387.00,0.0213
1386.00,0.0254
1385.00,0.0308
1384.00,0.0383
1383.00,0.0488
1382.00,0.0632
1381.00,0.0821
1380.00,0.1064
1379.00,0.1356
1378.00,0.1658
1377.00,0.1904
1376.00,0.2019
1375.00,0.1952
1374.00,0.1723
1373.00,0.1425
1372.00,0.1142
1371.00,0.0906
1370.00,0.0717
1369.00,0.0576
1368.00,0.0479
1367.00,0.0421
1366.00,0.0389
1365.00,0.0377
1364.00,0.0380
1363.00,0.0395
1362.00,0.0419
1361.00,0.0445
1360.00,0.0465
1359.00,0.0471
1358.00,0.0460
1357.00,0.0432
1356.00,0.0392
1355.00,0.0347
1354.00,0.0304
1353.00,0.0268
1352.00,0.0239
1351.00,0.0215
1350.00,0.0196
1349.00,0.0180
1348.00,0.0167
1347.00,0.0156
1346.00,0.0147
1345.00,0.0139
1344.00,0.0133
1343.00,0.0128
1342.00,0.0123
1341.00,0.0120
1340.00,0.0117
1339.00,0.0115
1338.00,0.0113
1337.00,0.0113
1336.00,0.0113
1335.00,0.0115
1334.00,0.0119
1333.00,0.0123
1332.00,0.0128
1331.00,0.0131
1330.00,0.0132
1329.00,0.0131
1328.00,0.0127
1327.00,0.0122
1326.00,0.0116
1325.00,0.0111
1324.00,0.0105
1323.00,0.0100
1322.00,0.0095
1321.00,0.0092
1320.00,0.0090
1319.00,0.0088
1318.00,0.0086
1317.00,0.0085
1316.00,0.0084
1315.00,0.0083
1314.00,0.0082
1313.00,0.0082
1312.00,0.0083
1311.00,0.0085
1310.00,0.0088
1309.00,0.0092
1308.00,0.0099
1307.00,0.0107
1306.00,0.0115
1305.00,0.0121
1304.00,0.0123
1303.00,0.0122
1302.00,0.0119
1301.00,0.0116
1300.00,0.0116
1299.00,0.0117
1298.00,0.0119
1297.00,0.0120
1296.00,0.0119
1295.00,0.0117
1294.00,0.0113
1293.00,0.0108
1292.00,0.0102
1291.00,0.0096
1290.00,0.0092
1289.00,0.0088
1288.00,0.0085
1287.00,0.0082
1286.00,0.0080
1285.00,0.0078
1284.00,0.0076
1283.00,0.0074
1282.00,0.0073
1281.00,0.0072
1280.00,0.0071
1279.00,0.0070
1278.00,0.0069
1277.00,0.0068
1276.00,0.0068
1275.00,0.0068
1274.00,0.0068
1273.00,0.0069
1272.00,0.0070
1271.00,0.0071
1270.00,0.0072
1269.00,0.0074
1268.00,0.0076
1267.00,0.0079
1266.00,0.0082
1265.00,0.0085
1264.00,0.0088
1263.00,0.0091
1262.00,0.0093
1261.00,0.0096
1260.00,0.0099
1259.00,0.0103
1258.00,0.0107
1257.00,0.0111
1256.00,0.0112
1255.00,0.0111
1254.00,0.0107
1253.00,0.0100
1252.00,0.0094
1251.00,0.0089
1250.00,0.0085
1249.00,0.0082
1248.00,0.0080
1247.00,0.0078
1246.00,0.0076
1245.00,0.0074
1244.00,0.0072
1243.00,0.0071
1242.00,0.0070
1241.00,0.0070
1240.00,0.0070
1239.00,0.0069
1238.00,0.0069
1237.00,0.0068
1236.00,0.0068
1235.00,0.0068
1234.00,0.0069
1233.00,0.0070
1232.00,0.0070
1231.00,0.0071
1230.00,0.0072
1229.00,0.0073
1228.00,0.0074
1227.00,0.0075
1226.00,0.0078
1225.00,0.0082
1224.00,0.0086
1223.00,0.0089
1222.00,0.0093
1221.00,0.0096
1220.00,0.0097
1219.00,0.0098
1218.00,0.0097
1217.00,0.0095
1216.00,0.0092
1215.00,0.0089
1214.00,0.0086
1213.00,0.0083
1212.00,0.0080
1211.00,0.0078
1210.00,0.0076
1209.00,0.0075
1208.00,0.0074
1207.00,0.0073
1206.00,0.0073
1205.00,0.0072
1204.00,0.0072
1203.00,0.0072
1202.00,0.0072
1201.00,0.0072
1200.00,0.0072
1199.00,0.0072
1198.00,0.0071
1197.00,0.0071
1196.00,0.0071
1195.00,0.0071
1194.00,0.0071
1193.00,0.0071
1192.00,0.0071
1191.00,0.0071
1190.00,0.0071
1189.00,0.0071
1188.00,0.0071
1187.00,0.0072
1186.00,0.0072
1185.00,0.0071
1184.00,0.0072
1183.00,0.0073
1182.00,0.0075
1181.00,0.0077
1180.00,0.0079
1179.00,0.0083
1178.00,0.0087
1177.00,0.0093
1176.00,0.0102
1175.00,0.0113
1174.00,0.0128
1173.00,0.0146
1172.00,0.0168
1171.00,0.0193
1170.00,0.0217
1169.00,0.0237
1168.00,0.0250
1167.00,0.0254
1166.00,0.0250
1165.00,0.0240
1164.00,0.0228
1163.00,0.0217
1162.00,0.0207
1161.00,0.0199
1160.00,0.0193
1159.00,0.0189
1158.00,0.0186
1157.00,0.0184
1156.00,0.0182
1155.00,0.0182
1154.00,0.0182
1153.00,0.0181
1152.00,0.0178
1151.00,0.0172
1150.00,0.0164
1149.00,0.0155
1148.00,0.0146
1147.00,0.0138
1146.00,0.0129
1145.00,0.0121
1144.00,0.0113
1143.00,0.0106
1142.00,0.0100
1141.00,0.0094
1140.00,0.0090
1139.00,0.0086
1138.00,0.0082
1137.00,0.0078
1136.00,0.0075
1135.00,0.0073
1134.00,0.0071
1133.00,0.0071
1132.00,0.0071
1131.00,0.0071
1130.00,0.0071
1129.00,0.0071
1128.00,0.0071
1127.00,0.0072
1126.00,0.0072
1125.00,0.0072
1124.00,0.0072
1123.00,0.0073
1122.00,0.0074
1121.00,0.0075
1120.00,0.0076
1119.00,0.0077
1118.00,0.0079
1117.00,0.0080
1116.00,0.0082
1115.00,0.0083
1114.00,0.0085
1113.00,0.0088
1112.00,0.0090
1111.00,0.0093
1110.00,0.0095
1109.00,0.0098
1108.00,0.0103
1107.00,0.0109
1106.00,0.0116
1105.00,0.0122
1104.00,0.0128
1103.00,0.0132
1102.00,0.0132
1101.00,0.0129
1100.00,0.0123
1099.00,0.0117
1098.00,0.0111
1097.00,0.0105
1096.00,0.0100
1095.00,0.0095
1094.00,0.0092
1093.00,0.0089
1092.00,0.0087
1091.00,0.0085
1090.00,0.0084
1089.00,0.0083
1088.00,0.0082
1087.00,0.0081
1086.00,0.0080
1085.00,0.0080
1084.00,0.0080
1083.00,0.0080
1082.00,0.0080
1081.00,0.0080
1080.00,0.0078
1079.00,0.0077
1078.00,0.0075
1077.00,0.0074
1076.00,0.0073
1075.00,0.0072
1074.00,0.0072
1073.00,0.0072
1072.00,0.0073
1071.00,0.0073
1070.00,0.0073
1069.00,0.0073
1068.00,0.0073
1067.00,0.0074
1066.00,0.0075
1065.00,0.0076
1064.00,0.0077
1063.00,0.0077
1062.00,0.0077
1061.00,0.0079
1060.00,0.0080
1059.00,0.0082
1058.00,0.0083
1057.00,0.0084
1056.00,0.0085
1055.00,0.0086
1054.00,0.0087
1053.00,0.0090
1052.00,0.0093
1051.00,0.0096
1050.00,0.0100
1049.00,0.0104
1048.00,0.0108
1047.00,0.0113
1046.00,0.0117
1045.00,0.0119
1044.00,0.0120
1043.00,0.0120
1042.00,0.0118
1041.00,0.0117
1040.00,0.0116
1039.00,0.0115
1038.00,0.0115
1037.00,0.0115
1036.00,0.0115
1035.00,0.0115
1034.00,0.0115
1033.00,0.0113
1032.00,0.0111
1031.00,0.0110
1030.00,0.0110
1029.00,0.0110
1028.00,0.0112
1027.00,0.0114
1026.00,0.0117
1025.00,0.0119
1024.00,0.0122
1023.00,0.0124
1022.00,0.0126
1021.00,0.0128
1020.00,0.0130
1019.00,0.0132
1018.00,0.0133
1017.00,0.0133
1016.00,0.0132
1015.00,0.0132
1014.00,0.0131
1013.00,0.0130
1012.00,0.0129
1011.00,0.0128
1010.00,0.0128
1009.00,0.0129
1008.00,0.0130
1007.00,0.0132
1006.00,0.0136
1005.00,0.0143
1004.00,0.0154
1003.00,0.0170
1002.00,0.0192
1001.00,0.0219
1000.00,0.0247
999.00,0.0270
998.00,0.0279
997.00,0.0271
996.00,0.0249
995.00,0.0218
994.00,0.0187
993.00,0.0162
992.00,0.0142
991.00,0.0128
990.00,0.0119
989.00,0.0112
988.00,0.0107
987.00,0.0105
986.00,0.0105
985.00,0.0107
984.00,0.0111
983.00,0.0117
982.00,0.0126
981.00,0.0139
980.00,0.0158
979.00,0.0182
978.00,0.0212
977.00,0.0246
976.00,0.0281
975.00,0.0312
974.00,0.0335
973.00,0.0341
972.00,0.0328
971.00,0.0297
970.00,0.0257
969.00,0.0216
968.00,0.0181
967.00,0.0156
966.00,0.0138
965.00,0.0125
964.00,0.0115
963.00,0.0107
962.00,0.0101
961.00,0.0096
960.00,0.0091
959.00,0.0089
958.00,0.0087
957.00,0.0086
956.00,0.0085
955.00,0.0082
954.00,0.0080
953.00,0.0077
952.00,0.0075
951.00,0.0074
950.00,0.0073
949.00,0.0072
948.00,0.0073
947.00,0.0074
946.00,0.0077
945.00,0.0080
944.00,0.0084
943.00,0.0088
942.00,0.0092
941.00,0.0095
940.00,0.0096
939.00,0.0094
938.00,0.0089
937.00,0.0082
936.00,0.0076
935.00,0.0071
934.00,0.0066
933.00,0.0062
932.00,0.0060
931.00,0.0059
930.00,0.0059
929.00,0.0059
928.00,0.0060
927.00,0.0060
926.00,0.0060
925.00,0.0060
924.00,0.0061
923.00,0.0061
922.00,0.0062
921.00,0.0062
920.00,0.0062
919.00,0.0061
918.00,0.0061
917.00,0.0061
916.00,0.0062
915.00,0.0063
914.00,0.0065
913.00,0.0067
912.00,0.0068
911.00,0.0069
910.00,0.0071
909.00,0.0073
908.00,0.0077
907.00,0.0081
906.00,0.0088
905.00,0.0098
904.00,0.0113
903.00,0.0133
902.00,0.0155
901.00,0.0175
900.00,0.0189
899.00,0.0192
898.00,0.0182
897.00,0.0164
896.00,0.0142
895.00,0.0122
894.00,0.0107
893.00,0.0095
892.00,0.0088
891.00,0.0082
890.00,0.0078
889.00,0.0075
888.00,0.0072
887.00,0.0069
886.00,0.0067
885.00,0.0067
884.00,0.0066
883.00,0.0067
882.00,0.0067
881.00,0.0067
880.00,0.0067
879.00,0.0068
878.00,0.0069
877.00,0.0070
876.00,0.0071
875.00,0.0072
874.00,0.0073
873.00,0.0073
872.00,0.0073
871.00,0.0073
870.00,0.0072
869.00,0.0071
868.00,0.0070
867.00,0.0070
866.00,0.0072
865.00,0.0075
864.00,0.0077
863.00,0.0078
862.00,0.0078
861.00,0.0078
860.00,0.0078
859.00,0.0080
858.00,0.0082
857.00,0.0084
856.00,0.0086
855.00,0.0087
854.00,0.0089
853.00,0.0091
852.00,0.0093
851.00,0.0095
850.00,0.0097
849.00,0.0101
848.00,0.0105
847.00,0.0114
846.00,0.0127
845.00,0.0149
844.00,0.0181
843.00,0.0218
842.00,0.0249
841.00,0.0259
840.00,0.0244
839.00,0.0211
838.00,0.0175
837.00,0.0145
836.00,0.0125
835.00,0.0112
834.00,0.0104
833.00,0.0101
832.00,0.0100
831.00,0.0100
830.00,0.0100
829.00,0.0099
828.00,0.0097
827.00,0.0096
826.00,0.0097
825.00,0.0098
824.00,0.0099
823.00,0.0100
822.00,0.0101
821.00,0.0103
820.00,0.0105
819.00,0.0107
818.00,0.0110
817.00,0.0116
816.00,0.0125
815.00,0.0138
814.00,0.0155
813.00,0.0175
812.00,0.0196
811.00,0.0215
810.00,0.0230
809.00,0.0236
808.00,0.0231
807.00,0.0218
806.00,0.0199
805.00,0.0178
804.00,0.0158
803.00,0.0143
802.00,0.0133
801.00,0.0126
800.00,0.0120
799.00,0.0115
798.00,0.0110
797.00,0.0104
796.00,0.0100
795.00,0.0098
794.00,0.0096
793.00,0.0095
792.00,0.0092
791.00,0.0088
790.00,0.0083
789.00,0.0080
788.00,0.0077
787.00,0.0074
786.00,0.0071
785.00,0.0068
784.00,0.0065
783.00,0.0063
782.00,0.0062
781.00,0.0063
780.00,0.0065
779.00,0.0065
778.00,0.0065
777.00,0.0062
776.00,0.0060
775.00,0.0058
774.00,0.0057
773.00,0.0058
772.00,0.0060
771.00,0.0061
770.00,0.0061
769.00,0.0061
768.00,0.0061
767.00,0.0062
766.00,0.0062
765.00,0.0063
764.00,0.0063
763.00,0.0064
762.00,0.0064
761.00,0.0065
760.00,0.0067
759.00,0.0067
758.00,0.0066
757.00,0.0065
756.00,0.0065
755.00,0.0067
754.00,0.0069
753.00,0.0071
752.00,0.0073
751.00,0.0075
750.00,0.0076
749.00,0.0077
748.00,0.0077
747.00,0.0076
746.00,0.0077
745.00,0.0079
744.00,0.0081
743.00,0.0085
742.00,0.0088
741.00,0.0092
740.00,0.0094
739.00,0.0095
738.00,0.0097
737.00,0.0101
736.00,0.0106
735.00,0.0112
734.00,0.0118
733.00,0.0124
732.00,0.0130
731.00,0.0135
730.00,0.0139
729.00,0.0141
728.00,0.0142
727.00,0.0144
726.00,0.0148
725.00,0.0152
724.00,0.0157
723.00,0.0163
722.00,0.0169
721.00,0.0174
720.00,0.0174
719.00,0.0167
718.00,0.0155
717.00,0.0140
716.00,0.0128
715.00,0.0120
714.00,0.0115
713.00,0.0111
712.00,0.0108
711.00,0.0105
710.00,0.0103
709.00,0.0102
708.00,0.0100
707.00,0.0099
706.00,0.0097
705.00,0.0096
704.00,0.0095
703.00,0.0093
702.00,0.0091
701.00,0.0090
700.00,0.0089
699.00,0.0090
698.00,0.0091
697.00,0.0092
696.00,0.0092
695.00,0.0091
694.00,0.0090
693.00,0.0090
692.00,0.0090
691.00,0.0091
690.00,0.0092
689.00,0.0092
688.00,0.0091
687.00,0.0092
686.00,0.0092
685.00,0.0092
684.00,0.0092
683.00,0.0091
682.00,0.0090
681.00,0.0089
680.00,0.0089
679.00,0.0089
678.00,0.0090
677.00,0.0091
676.00,0.0092
675.00,0.0093
674.00,0.0096
673.00,0.0100
672.00,0.0104
671.00,0.0106
670.00,0.0108
669.00,0.0109
668.00,0.0109
667.00,0.0107
666.00,0.0103
665.00,0.0098
664.00,0.0094
663.00,0.0091
662.00,0.0088
661.00,0.0085
660.00,0.0083
659.00,0.0082
658.00,0.0082
657.00,0.0081
656.00,0.0081
655.00,0.0081
654.00,0.0082
653.00,0.0081
652.00,0.0081
651.00,0.0082
650.00,0.0082
649.00,0.0081
648.00,0.0079
647.00,0.0077
646.00,0.0076
645.00,0.0077
644.00,0.0078
643.00,0.0079
642.00,0.0080
641.00,0.0080
640.00,0.0080
639.00,0.0080
638.00,0.0080
637.00,0.0081
636.00,0.0080
635.00,0.0079
634.00,0.0078
633.00,0.0078
632.00,0.0078
631.00,0.0079
630.00,0.0080
629.00,0.0080
628.00,0.0078
627.00,0.0076
626.00,0.0075
625.00,0.0075
624.00,0.0074
623.00,0.0074
622.00,0.0072
621.00,0.0072
620.00,0.0073
619.00,0.0076
618.00,0.0077
617.00,0.0077
616.00,0.0075
615.00,0.0072
614.00,0.0070
613.00,0.0069
612.00,0.0069
611.00,0.0069
610.00,0.0070
609.00,0.0071
608.00,0.0073
607.00,0.0076
606.00,0.0079
605.00,0.0080
604.00,0.0079
603.00,0.0077
602.00,0.0075
601.00,0.0075
600.00,0.0076
599.00,0.0079
598.00,0.0080
597.00,0.0080
596.00,0.0078
595.00,0.0077
594.00,0.0075
593.00,0.0074
592.00,0.0074
591.00,0.0076
590.00,0.0078
589.00,0.0078
588.00,0.0078
587.00,0.0076
586.00,0.0073
585.00,0.0072
584.00,0.0072
583.00,0.0074
582.00,0.0076
581.00,0.0075
580.00,0.0073
579.00,0.0072
578.00,0.0073
577.00,0.0076
576.00,0.0077
575.00,0.0077
574.00,0.0074
573.00,0.0071
572.00,0.0069
571.00,0.0071
570.00,0.0075
569.00,0.0078
568.00,0.0079
567.00,0.0077
566.00,0.0075
565.00,0.0072
564.00,0.0070
563.00,0.0070
562.00,0.0070
561.00,0.0071
560.00,0.0073
559.00,0.0074
558.00,0.0073
557.00,0.0070
556.00,0.0067
555.00,0.0068
554.00,0.0072
553.00,0.0077
552.00,0.0081
551.00,0.0086
550.00,0.0089
549.00,0.0091
548.00,0.0089
547.00,0.0086
546.00,0.0084
545.00,0.0084
544.00,0.0086
543.00,0.0089
542.00,0.0094
541.00,0.0099
540.00,0.0101
539.00,0.0103
538.00,0.0104
537.00,0.0106
536.00,0.0109
535.00,0.0112
534.00,0.0113
533.00,0.0113
532.00,0.0112
531.00,0.0109
530.00,0.0106
529.00,0.0101
528.00,0.0098
527.00,0.0099
526.00,0.0102
525.00,0.0105
524.00,0.0104
523.00,0.0099
522.00,0.0092
521.00,0.0085
520.00,0.0077
519.00,0.0070
518.00,0.0065
517.00,0.0065
516.00,0.0070
515.00,0.0078
514.00,0.0085
513.00,0.0087
512.00,0.0085
511.00,0.0084
510.00,0.0085
509.00,0.0084
508.00,0.0082
507.00,0.0079
506.00,0.0079
505.00,0.0082
504.00,0.0087
503.00,0.0090
502.00,0.0090
501.00,0.0088
500.00,0.0086
499.00,0.0087
498.00,0.0089
497.00,0.0088
496.00,0.0083
495.00,0.0075
494.00,0.0073
493.00,0.0075
492.00,0.0078
491.00,0.0077
490.00,0.0074
489.00,0.0074
488.00,0.0079
487.00,0.0085
486.00,0.0087
485.00,0.0085
484.00,0.0083
483.00,0.0085
482.00,0.0090
481.00,0.0092
480.00,0.0089
479.00,0.0087
478.00,0.0092
477.00,0.0103
476.00,0.0113
475.00,0.0117
474.00,0.0117
473.00,0.0118
472.00,0.0124
471.00,0.0133
470.00,0.0142
469.00,0.0147
468.00,0.0147
467.00,0.0144
466.00,0.0145
465.00,0.0155
464.00,0.0171
463.00,0.0183
462.00,0.0186
461.00,0.0184
460.00,0.0185
459.00,0.0191
458.00,0.0198
457.00,0.0201
456.00,0.0201
455.00,0.0200
454.00,0.0198
453.00,0.0196
452.00,0.0192
451.00,0.0188
450.00,0.0184
