Created as New Dataset,Sample 040 By Administrator Date Wednesday, September 03 2025
cm-1,A
4000.00,0.0010
3999.00,0.0010
3998.00,0.0010
3997.00,0.0010
3996.00,0.0010
3995.00,0.0010
3994.00,0.0010
3993.00,0.0010
3992.00,0.0010
3991.00,0.0009
3990.00,0.0009
3989.00,0.0009
3988.00,0.0009
3987.00,0.0009
3986.00,0.0009
3985.00,0.0009
3984.00,0.0009
3983.00,0.0009
3982.00,0.0009
3981.00,0.0009
3980.00,0.0008
3979.00,0.0008
3978.00,0.0008
3977.00,0.0008
3976.00,0.0009
3975.00,0.0009
3974.00,0.0009
3973.00,0.0009
3972.00,0.0009
3971.00,0.0009
3970.00,0.0009
3969.00,0.0009
3968.00,0.0008
3967.00,0.0008
3966.00,0.0008
3965.00,0.0008
3964.00,0.0008
3963.00,0.0008
3962.00,0.0009
3961.00,0.0009
3960.00,0.0009
3959.00,0.0009
3958.00,0.0009
3957.00,0.0009
3956.00,0.0009
3955.00,0.0009
3954.00,0.0009
3953.00,0.0009
3952.00,0.0009
3951.00,0.0009
3950.00,0.0009
3949.00,0.0009
3948.00,0.0009
3947.00,0.0009
3946.00,0.0009
3945.00,0.0009
3944.00,0.0009
3943.00,0.0009
3942.00,0.0008
3941.00,0.0008
3940.00,0.0008
3939.00,0.0008
3938.00,0.0009
3937.00,0.0009
3936.00,0.0009
3935.00,0.0009
3934.00,0.0009
3933.00,0.0008
3932.00,0.0008
3931.00,0.0008
3930.00,0.0008
3929.00,0.0008
3928.00,0.0008
3927.00,0.0009
3926.00,0.0009
3925.00,0.0009
3924.00,0.0009
3923.00,0.0009
3922.00,0.0009
3921.00,0.0009
3920.00,0.0009
3919.00,0.0009
3918.00,0.0009
3917.00,0.0009
3916.00,0.0008
3915.00,0.0008
3914.00,0.0008
3913.00,0.0008
3912.00,0.0008
3911.00,0.0008
3910.00,0.0008
3909.00,0.0008
3908.00,0.0008
3907.00,0.0008
3906.00,0.0008
3905.00,0.0008
3904.00,0.0009
3903.00,0.0009
3902.00,0.0009
3901.00,0.0009
3900.00,0.0009
3899.00,0.0009
3898.00,0.0008
3897.00,0.0008
3896.00,0.0008
3895.00,0.0008
3894.00,0.0007
3893.00,0.0007
3892.00,0.0007
3891.00,0.0007
3890.00,0.0008
3889.00,0.0008
3888.00,0.0008
3887.00,0.0008
3886.00,0.0009
3885.00,0.0009
3884.00,0.0009
3883.00,0.0009
3882.00,0.0008
3881.00,0.0008
3880.00,0.0008
3879.00,0.0008
3878.00,0.0008
3877.00,0.0008
3876.00,0.0008
3875.00,0.0008
3874.00,0.0008
3873.00,0.0008
3872.00,0.0008
3871.00,0.0008
3870.00,0.0007
3869.00,0.0007
3868.00,0.0007
3867.00,0.0007
3866.00,0.0006
3865.00,0.0006
3864.00,0.0006
3863.00,0.0007
3862.00,0.0007
3861.00,0.0007
3860.00,0.0007
3859.00,0.0006
3858.00,0.0006
3857.00,0.0006
3856.00,0.0006
3855.00,0.0005
3854.00,0.0004
3853.00,0.0004
3852.00,0.0004
3851.00,0.0005
3850.00,0.0006
3849.00,0.0006
3848.00,0.0006
3847.00,0.0006
3846.00,0.0006
3845.00,0.0006
3844.00,0.0006
3843.00,0.0005
3842.00,0.0005
3841.00,0.0005
3840.00,0.0006
3839.00,0.0006
3838.00,0.0006
3837.00,0.0006
3836.00,0.0006
3835.00,0.0006
3834.00,0.0005
3833.00,0.0005
3832.00,0.0005
3831.00,0.0006
3830.00,0.0006
3829.00,0.0006
3828.00,0.0006
3827.00,0.0006
3826.00,0.0006
3825.00,0.0006
3824.00,0.0006
3823.00,0.0006
3822.00,0.0006
3821.00,0.0006
3820.00,0.0006
3819.00,0.0006
3818.00,0.0007
3817.00,0.0007
3816.00,0.0007
3815.00,0.0007
3814.00,0.0007
3813.00,0.0007
3812.00,0.0007
3811.00,0.0007
3810.00,0.0007
3809.00,0.0007
3808.00,0.0006
3807.00,0.0006
3806.00,0.0006
3805.00,0.0006
3804.00,0.0006
3803.00,0.0005
3802.00,0.0005
3801.00,0.0006
3800.00,0.0006
3799.00,0.0007
3798.00,0.0007
3797.00,0.0006
3796.00,0.0006
3795.00,0.0007
3794.00,0.0007
3793.00,0.0007
3792.00,0.0007
3791.00,0.0007
3790.00,0.0007
3789.00,0.0007
3788.00,0.0007
3787.00,0.0007
3786.00,0.0007
3785.00,0.0007
3784.00,0.0007
3783.00,0.0006
3782.00,0.0006
3781.00,0.0007
3780.00,0.0007
3779.00,0.0008
3778.00,0.0008
3777.00,0.0009
3776.00,0.0009
3775.00,0.0009
3774.00,0.0009
3773.00,0.0008
3772.00,0.0008
3771.00,0.0008
3770.00,0.0008
3769.00,0.0008
3768.00,0.0008
3767.00,0.0008
3766.00,0.0008
3765.00,0.0008
3764.00,0.0008
3763.00,0.0008
3762.00,0.0008
3761.00,0.0008
3760.00,0.0008
3759.00,0.0007
3758.00,0.0007
3757.00,0.0007
3756.00,0.0007
3755.00,0.0007
3754.00,0.0007
3753.00,0.0007
3752.00,0.0006
3751.00,0.0006
3750.00,0.0005
3749.00,0.0005
3748.00,0.0005
3747.00,0.0006
3746.00,0.0006
3745.00,0.0006
3744.00,0.0006
3743.00,0.0006
3742.00,0.0006
3741.00,0.0006
3740.00,0.0006
3739.00,0.0006
3738.00,0.0006
3737.00,0.0006
3736.00,0.0006
3735.00,0.0006
3734.00,0.0006
3733.00,0.0006
3732.00,0.0006
3731.00,0.0006
3730.00,0.0006
3729.00,0.0006
3728.00,0.0006
3727.00,0.0006
3726.00,0.0006
3725.00,0.0006
3724.00,0.0006
3723.00,0.0006
3722.00,0.0006
3721.00,0.0006
3720.00,0.0006
3719.00,0.0006
3718.00,0.0006
3717.00,0.0006
3716.00,0.0006
3715.00,0.0006
3714.00,0.0005
3713.00,0.0005
3712.00,0.0005
3711.00,0.0006
3710.00,0.0006
3709.00,0.0007
3708.00,0.0007
3707.00,0.0007
3706.00,0.0007
3705.00,0.0007
3704.00,0.0007
3703.00,0.0006
3702.00,0.0006
3701.00,0.0007
3700.00,0.0007
3699.00,0.0007
3698.00,0.0007
3697.00,0.0007
3696.00,0.0007
3695.00,0.0007
3694.00,0.0007
3693.00,0.0007
3692.00,0.0006
3691.00,0.0006
3690.00,0.0005
3689.00,0.0005
3688.00,0.0005
3687.00,0.0006
3686.00,0.0006
3685.00,0.0006
3684.00,0.0006
3683.00,0.0006
3682.00,0.0005
3681.00,0.0005
3680.00,0.0005
3679.00,0.0005
3678.00,0.0005
3677.00,0.0005
3676.00,0.0004
3675.00,0.0003
3674.00,0.0002
3673.00,0.0002
3672.00,0.0002
3671.00,0.0002
3670.00,0.0001
3669.00,0.0001
3668.00,0.0001
3667.00,0.0001
3666.00,0.0001
3665.00,0.0001
3664.00,0.0001
3663.00,0.0001
3662.00,0.0001
3661.00,0.0001
3660.00,0.0001
3659.00,0.0001
3658.00,0.0002
3657.00,0.0002
3656.00,0.0002
3655.00,0.0002
3654.00,0.0002
3653.00,0.0002
3652.00,0.0002
3651.00,0.0002
3650.00,0.0002
3649.00,0.0003
3648.00,0.0004
3647.00,0.0005
3646.00,0.0006
3645.00,0.0006
3644.00,0.0006
3643.00,0.0006
3642.00,0.0007
3641.00,0.0007
3640.00,0.0007
3639.00,0.0007
3638.00,0.0007
3637.00,0.0007
3636.00,0.0007
3635.00,0.0008
3634.00,0.0009
3633.00,0.0010
3632.00,0.0011
3631.00,0.0011
3630.00,0.0012
3629.00,0.0012
3628.00,0.0013
3627.00,0.0014
3626.00,0.0014
3625.00,0.0014
3624.00,0.0014
3623.00,0.0014
3622.00,0.0015
3621.00,0.0016
3620.00,0.0016
3619.00,0.0017
3618.00,0.0017
3617.00,0.0017
3616.00,0.0017
3615.00,0.0017
3614.00,0.0018
3613.00,0.0018
3612.00,0.0018
3611.00,0.0019
3610.00,0.0019
3609.00,0.0019
3608.00,0.0020
3607.00,0.0020
3606.00,0.0021
3605.00,0.0022
3604.00,0.0022
3603.00,0.0022
3602.00,0.0022
3601.00,0.0023
3600.00,0.0023
3599.00,0.0024
3598.00,0.0025
3597.00,0.0026
3596.00,0.0026
3595.00,0.0026
3594.00,0.0027
3593.00,0.0027
3592.00,0.0028
3591.00,0.0028
3590.00,0.0029
3589.00,0.0029
3588.00,0.0029
3587.00,0.0030
3586.00,0.0030
3585.00,0.0031
3584.00,0.0031
3583.00,0.0031
3582.00,0.0032
3581.00,0.0032
3580.00,0.0032
3579.00,0.0032
3578.00,0.0032
3577.00,0.0033
3576.00,0.0033
3575.00,0.0033
3574.00,0.0034
3573.00,0.0034
3572.00,0.0035
3571.00,0.0036
3570.00,0.0037
3569.00,0.0038
3568.00,0.0038
3567.00,0.0039
3566.00,0.0039
3565.00,0.0039
3564.00,0.0039
3563.00,0.0039
3562.00,0.0039
3561.00,0.0039
3560.00,0.0040
3559.00,0.0040
3558.00,0.0040
3557.00,0.0041
3556.00,0.0041
3555.00,0.0042
3554.00,0.0043
3553.00,0.0043
3552.00,0.0044
3551.00,0.0044
3550.00,0.0045
3549.00,0.0045
3548.00,0.0046
3547.00,0.0046
3546.00,0.0047
3545.00,0.0047
3544.00,0.0048
3543.00,0.0048
3542.00,0.0048
3541.00,0.0049
3540.00,0.0049
3539.00,0.0050
3538.00,0.0050
3537.00,0.0051
3536.00,0.0051
3535.00,0.0051
3534.00,0.0052
3533.00,0.0052
3532.00,0.0053
3531.00,0.0053
3530.00,0.0054
3529.00,0.0054
3528.00,0.0055
3527.00,0.0056
3526.00,0.0057
3525.00,0.0057
3524.00,0.0057
3523.00,0.0058
3522.00,0.0058
3521.00,0.0059
3520.00,0.0059
3519.00,0.0059
3518.00,0.0060
3517.00,0.0060
3516.00,0.0061
3515.00,0.0061
3514.00,0.0062
3513.00,0.0062
3512.00,0.0062
3511.00,0.0063
3510.00,0.0064
3509.00,0.0064
3508.00,0.0065
3507.00,0.0065
3506.00,0.0066
3505.00,0.0066
3504.00,0.0066
3503.00,0.0066
3502.00,0.0067
3501.00,0.0067
3500.00,0.0068
3499.00,0.0069
3498.00,0.0069
3497.00,0.0070
3496.00,0.0070
3495.00,0.0071
3494.00,0.0072
3493.00,0.0072
3492.00,0.0072
3491.00,0.0073
3490.00,0.0073
3489.00,0.0074
3488.00,0.0075
3487.00,0.0075
3486.00,0.0076
3485.00,0.0076
3484.00,0.0077
3483.00,0.0077
3482.00,0.0077
3481.00,0.0077
3480.00,0.0077
3479.00,0.0077
3478.00,0.0078
3477.00,0.0079
3476.00,0.0079
3475.00,0.0080
3474.00,0.0081
3473.00,0.0081
3472.00,0.0081
3471.00,0.0082
3470.00,0.0082
3469.00,0.0082
3468.00,0.0083
3467.00,0.0083
3466.00,0.0084
3465.00,0.0084
3464.00,0.0085
3463.00,0.0085
3462.00,0.0085
3461.00,0.0086
3460.00,0.0086
3459.00,0.0086
3458.00,0.0087
3457.00,0.0087
3456.00,0.0088
3455.00,0.0088
3454.00,0.0088
3453.00,0.0088
3452.00,0.0089
3451.00,0.0089
3450.00,0.0090
3449.00,0.0090
3448.00,0.0091
3447.00,0.0092
3446.00,0.0093
3445.00,0.0093
3444.00,0.0094
3443.00,0.0094
3442.00,0.0094
3441.00,0.0095
3440.00,0.0095
3439.00,0.0096
3438.00,0.0096
3437.00,0.0097
3436.00,0.0097
3435.00,0.0097
3434.00,0.0098
3433.00,0.0098
3432.00,0.0098
3431.00,0.0098
3430.00,0.0098
3429.00,0.0098
3428.00,0.0099
3427.00,0.0100
3426.00,0.0100
3425.00,0.0101
3424.00,0.0101
3423.00,0.0101
3422.00,0.0101
3421.00,0.0102
3420.00,0.0102
3419.00,0.0102
3418.00,0.0103
3417.00,0.0103
3416.00,0.0103
3415.00,0.0103
3414.00,0.0104
3413.00,0.0105
3412.00,0.0105
3411.00,0.0106
3410.00,0.0106
3409.00,0.0106
3408.00,0.0107
3407.00,0.0107
3406.00,0.0108
3405.00,0.0108
3404.00,0.0108
3403.00,0.0108
3402.00,0.0108
3401.00,0.0108
3400.00,0.0108
3399.00,0.0109
3398.00,0.0109
3397.00,0.0110
3396.00,0.0110
3395.00,0.0110
3394.00,0.0110
3393.00,0.0111
3392.00,0.0111
3391.00,0.0111
3390.00,0.0111
3389.00,0.0111
3388.00,0.0111
3387.00,0.0111
3386.00,0.0112
3385.00,0.0112
3384.00,0.0112
3383.00,0.0112
3382.00,0.0112
3381.00,0.0112
3380.00,0.0112
3379.00,0.0112
3378.00,0.0112
3377.00,0.0112
3376.00,0.0113
3375.00,0.0113
3374.00,0.0113
3373.00,0.0114
3372.00,0.0113
3371.00,0.0113
3370.00,0.0113
3369.00,0.0113
3368.00,0.0114
3367.00,0.0114
3366.00,0.0114
3365.00,0.0114
3364.00,0.0114
3363.00,0.0114
3362.00,0.0114
3361.00,0.0114
3360.00,0.0114
3359.00,0.0115
3358.00,0.0115
3357.00,0.0115
3356.00,0.0115
3355.00,0.0115
3354.00,0.0115
3353.00,0.0116
3352.00,0.0116
3351.00,0.0116
3350.00,0.0116
3349.00,0.0116
3348.00,0.0116
3347.00,0.0116
3346.00,0.0116
3345.00,0.0116
3344.00,0.0116
3343.00,0.0116
3342.00,0.0115
3341.00,0.0115
3340.00,0.0115
3339.00,0.0115
3338.00,0.0115
3337.00,0.0115
3336.00,0.0115
3335.00,0.0115
3334.00,0.0115
3333.00,0.0114
3332.00,0.0114
3331.00,0.0114
3330.00,0.0115
3329.00,0.0115
3328.00,0.0115
3327.00,0.0115
3326.00,0.0115
3325.00,0.0114
3324.00,0.0114
3323.00,0.0114
3322.00,0.0114
3321.00,0.0114
3320.00,0.0114
3319.00,0.0114
3318.00,0.0113
3317.00,0.0113
3316.00,0.0113
3315.00,0.0113
3314.00,0.0113
3313.00,0.0113
3312.00,0.0113
3311.00,0.0113
3310.00,0.0113
3309.00,0.0114
3308.00,0.0114
3307.00,0.0114
3306.00,0.0114
3305.00,0.0114
3304.00,0.0114
3303.00,0.0114
3302.00,0.0114
3301.00,0.0113
3300.00,0.0113
3299.00,0.0113
3298.00,0.0112
3297.00,0.0112
3296.00,0.0111
3295.00,0.0111
3294.00,0.0111
3293.00,0.0110
3292.00,0.0110
3291.00,0.0110
3290.00,0.0109
3289.00,0.0109
3288.00,0.0108
3287.00,0.0108
3286.00,0.0107
3285.00,0.0107
3284.00,0.0107
3283.00,0.0106
3282.00,0.0106
3281.00,0.0105
3280.00,0.0105
3279.00,0.0104
3278.00,0.0104
3277.00,0.0104
3276.00,0.0103
3275.00,0.0103
3274.00,0.0103
3273.00,0.0103
3272.00,0.0103
3271.00,0.0102
3270.00,0.0102
3269.00,0.0101
3268.00,0.0101
3267.00,0.0101
3266.00,0.0101
3265.00,0.0101
3264.00,0.0100
3263.00,0.0099
3262.00,0.0098
3261.00,0.0098
3260.00,0.0097
3259.00,0.0097
3258.00,0.0096
3257.00,0.0095
3256.00,0.0095
3255.00,0.0094
3254.00,0.0094
3253.00,0.0094
3252.00,0.0093
3251.00,0.0093
3250.00,0.0093
3249.00,0.0092
3248.00,0.0092
3247.00,0.0092
3246.00,0.0092
3245.00,0.0092
3244.00,0.0092
3243.00,0.0091
3242.00,0.0091
3241.00,0.0091
3240.00,0.0090
3239.00,0.0090
3238.00,0.0090
3237.00,0.0089
3236.00,0.0089
3235.00,0.0089
3234.00,0.0089
3233.00,0.0088
3232.00,0.0088
3231.00,0.0088
3230.00,0.0088
3229.00,0.0088
3228.00,0.0088
3227.00,0.0089
3226.00,0.0089
3225.00,0.0088
3224.00,0.0088
3223.00,0.0088
3222.00,0.0088
3221.00,0.0088
3220.00,0.0088
3219.00,0.0088
3218.00,0.0088
3217.00,0.0088
3216.00,0.0088
3215.00,0.0088
3214.00,0.0087
3213.00,0.0087
3212.00,0.0087
3211.00,0.0087
3210.00,0.0087
3209.00,0.0087
3208.00,0.0088
3207.00,0.0088
3206.00,0.0088
3205.00,0.0087
3204.00,0.0087
3203.00,0.0087
3202.00,0.0087
3201.00,0.0086
3200.00,0.0086
3199.00,0.0086
3198.00,0.0086
3197.00,0.0086
3196.00,0.0086
3195.00,0.0086
3194.00,0.0085
3193.00,0.0085
3192.00,0.0085
3191.00,0.0084
3190.00,0.0084
3189.00,0.0084
3188.00,0.0084
3187.00,0.0083
3186.00,0.0083
3185.00,0.0083
3184.00,0.0083
3183.00,0.0083
3182.00,0.0083
3181.00,0.0082
3180.00,0.0082
3179.00,0.0081
3178.00,0.0081
3177.00,0.0080
3176.00,0.0080
3175.00,0.0079
3174.00,0.0079
3173.00,0.0079
3172.00,0.0079
3171.00,0.0079
3170.00,0.0079
3169.00,0.0078
3168.00,0.0078
3167.00,0.0078
3166.00,0.0077
3165.00,0.0076
3164.00,0.0076
3163.00,0.0076
3162.00,0.0076
3161.00,0.0076
3160.00,0.0076
3159.00,0.0075
3158.00,0.0075
3157.00,0.0075
3156.00,0.0074
3155.00,0.0074
3154.00,0.0073
3153.00,0.0073
3152.00,0.0073
3151.00,0.0073
3150.00,0.0073
3149.00,0.0073
3148.00,0.0073
3147.00,0.0073
3146.00,0.0072
3145.00,0.0071
3144.00,0.0070
3143.00,0.0070
3142.00,0.0070
3141.00,0.0070
3140.00,0.0070
3139.00,0.0069
3138.00,0.0069
3137.00,0.0069
3136.00,0.0069
3135.00,0.0069
3134.00,0.0068
3133.00,0.0068
3132.00,0.0067
3131.00,0.0067
3130.00,0.0067
3129.00,0.0067
3128.00,0.0066
3127.00,0.0066
3126.00,0.0065
3125.00,0.0064
3124.00,0.0064
3123.00,0.0064
3122.00,0.0064
3121.00,0.0064
3120.00,0.0063
3119.00,0.0063
3118.00,0.0062
3117.00,0.0061
3116.00,0.0061
3115.00,0.0060
3114.00,0.0060
3113.00,0.0060
3112.00,0.0060
3111.00,0.0060
3110.00,0.0060
3109.00,0.0059
3108.00,0.0059
3107.00,0.0059
3106.00,0.0059
3105.00,0.0058
3104.00,0.0058
3103.00,0.0058
3102.00,0.0057
3101.00,0.0057
3100.00,0.0057
3099.00,0.0057
3098.00,0.0057
3097.00,0.0057
3096.00,0.0057
3095.00,0.0057
3094.00,0.0056
3093.00,0.0056
3092.00,0.0056
3091.00,0.0056
3090.00,0.0056
3089.00,0.0056
3088.00,0.0056
3087.00,0.0056
3086.00,0.0056
3085.00,0.0056
3084.00,0.0056
3083.00,0.0055
3082.00,0.0055
3081.00,0.0054
3080.00,0.0054
3079.00,0.0054
3078.00,0.0054
3077.00,0.0054
3076.00,0.0055
3075.00,0.0055
3074.00,0.0055
3073.00,0.0055
3072.00,0.0055
3071.00,0.0055
3070.00,0.0055
3069.00,0.0055
3068.00,0.0056
3067.00,0.0056
3066.00,0.0057
3065.00,0.0057
3064.00,0.0057
3063.00,0.0057
3062.00,0.0057
3061.00,0.0058
3060.00,0.0058
3059.00,0.0057
3058.00,0.0057
3057.00,0.0057
3056.00,0.0057
3055.00,0.0056
3054.00,0.0056
3053.00,0.0056
3052.00,0.0057
3051.00,0.0057
3050.00,0.0057
3049.00,0.0057
3048.00,0.0057
3047.00,0.0057
3046.00,0.0058
3045.00,0.0058
3044.00,0.0058
3043.00,0.0058
3042.00,0.0059
3041.00,0.0059
3040.00,0.0059
3039.00,0.0060
3038.00,0.0060
3037.00,0.0061
3036.00,0.0061
3035.00,0.0062
3034.00,0.0062
3033.00,0.0062
3032.00,0.0063
3031.00,0.0063
3030.00,0.0063
3029.00,0.0063
3028.00,0.0063
3027.00,0.0064
3026.00,0.0064
3025.00,0.0064
3024.00,0.0064
3023.00,0.0064
3022.00,0.0064
3021.00,0.0064
3020.00,0.0065
3019.00,0.0065
3018.00,0.0065
3017.00,0.0065
3016.00,0.0065
3015.00,0.0065
3014.00,0.0065
3013.00,0.0065
3012.00,0.0064
3011.00,0.0064
3010.00,0.0063
3009.00,0.0062
3008.00,0.0061
3007.00,0.0060
3006.00,0.0059
3005.00,0.0058
3004.00,0.0057
3003.00,0.0057
3002.00,0.0056
3001.00,0.0056
3000.00,0.0056
2999.00,0.0056
2998.00,0.0057
2997.00,0.0058
2996.00,0.0060
2995.00,0.0062
2994.00,0.0064
2993.00,0.0067
2992.00,0.0071
2991.00,0.0075
2990.00,0.0079
2989.00,0.0084
2988.00,0.0089
2987.00,0.0094
2986.00,0.0099
2985.00,0.0102
2984.00,0.0105
2983.00,0.0110
2982.00,0.0119
2981.00,0.0133
2980.00,0.0152
2979.00,0.0175
2978.00,0.0200
2977.00,0.0229
2976.00,0.0259
2975.00,0.0291
2974.00,0.0327
2973.00,0.0368
2972.00,0.0415
2971.00,0.0469
2970.00,0.0531
2969.00,0.0598
2968.00,0.0671
2967.00,0.0749
2966.00,0.0829
2965.00,0.0911
2964.00,0.0990
2963.00,0.1065
2962.00,0.1132
2961.00,0.1189
2960.00,0.1237
2959.00,0.1278
2958.00,0.1316
2957.00,0.1354
2956.00,0.1396
2955.00,0.1445
2954.00,0.1499
2953.00,0.1555
2952.00,0.1605
2951.00,0.1640
2950.00,0.1653
2949.00,0.1635
2948.00,0.1587
2947.00,0.1511
2946.00,0.1418
2945.00,0.1318
2944.00,0.1223
2943.00,0.1141
2942.00,0.1079
2941.00,0.1039
2940.00,0.1019
2939.00,0.1020
2938.00,0.1037
2937.00,0.1070
2936.00,0.1116
2935.00,0.1176
2934.00,0.1247
2933.00,0.1329
2932.00,0.1420
2931.00,0.1519
2930.00,0.1623
2929.00,0.1729
2928.00,0.1835
2927.00,0.1939
2926.00,0.2038
2925.00,0.2133
2924.00,0.2224
2923.00,0.2313
2922.00,0.2399
2921.00,0.2481
2920.00,0.2552
2919.00,0.2606
2918.00,0.2634
2917.00,0.2628
2916.00,0.2587
2915.00,0.2515
2914.00,0.2421
2913.00,0.2316
2912.00,0.2210
2911.00,0.2110
2910.00,0.2019
2909.00,0.1937
2908.00,0.1863
2907.00,0.1795
2906.00,0.1729
2905.00,0.1664
2904.00,0.1599
2903.00,0.1535
2902.00,0.1473
2901.00,0.1412
2900.00,0.1353
2899.00,0.1297
2898.00,0.1244
2897.00,0.1195
2896.00,0.1151
2895.00,0.1112
2894.00,0.1078
2893.00,0.1049
2892.00,0.1026
2891.00,0.1008
2890.00,0.0995
2889.00,0.0987
2888.00,0.0981
2887.00,0.0980
2886.00,0.0981
2885.00,0.0986
2884.00,0.0996
2883.00,0.1011
2882.00,0.1031
2881.00,0.1054
2880.00,0.1079
2879.00,0.1102
2878.00,0.1119
2877.00,0.1128
2876.00,0.1130
2875.00,0.1127
2874.00,0.1123
2873.00,0.1122
2872.00,0.1127
2871.00,0.1138
2870.00,0.1153
2869.00,0.1168
2868.00,0.1179
2867.00,0.1178
2866.00,0.1162
2865.00,0.1127
2864.00,0.1077
2863.00,0.1019
2862.00,0.0962
2861.00,0.0913
2860.00,0.0876
2859.00,0.0852
2858.00,0.0842
2857.00,0.0842
2856.00,0.0850
2855.00,0.0865
2854.00,0.0882
2853.00,0.0900
2852.00,0.0916
2851.00,0.0927
2850.00,0.0930
2849.00,0.0926
2848.00,0.0919
2847.00,0.0914
2846.00,0.0916
2845.00,0.0929
2844.00,0.0954
2843.00,0.0988
2842.00,0.1029
2841.00,0.1070
2840.00,0.1105
2839.00,0.1125
2838.00,0.1125
2837.00,0.1099
2836.00,0.1046
2835.00,0.0969
2834.00,0.0878
2833.00,0.0780
2832.00,0.0686
2831.00,0.0602
2830.00,0.0530
2829.00,0.0470
2828.00,0.0422
2827.00,0.0383
2826.00,0.0351
2825.00,0.0325
2824.00,0.0303
2823.00,0.0284
2822.00,0.0268
2821.00,0.0254
2820.00,0.0242
2819.00,0.0232
2818.00,0.0223
2817.00,0.0216
2816.00,0.0208
2815.00,0.0202
2814.00,0.0196
2813.00,0.0190
2812.00,0.0185
2811.00,0.0179
2810.00,0.0174
2809.00,0.0169
2808.00,0.0163
2807.00,0.0157
2806.00,0.0151
2805.00,0.0145
2804.00,0.0139
2803.00,0.0134
2802.00,0.0129
2801.00,0.0125
2800.00,0.0121
2799.00,0.0118
2798.00,0.0115
2797.00,0.0113
2796.00,0.0111
2795.00,0.0108
2794.00,0.0106
2793.00,0.0104
2792.00,0.0101
2791.00,0.0098
2790.00,0.0094
2789.00,0.0091
2788.00,0.0089
2787.00,0.0086
2786.00,0.0084
2785.00,0.0081
2784.00,0.0079
2783.00,0.0077
2782.00,0.0075
2781.00,0.0073
2780.00,0.0072
2779.00,0.0070
2778.00,0.0069
2777.00,0.0067
2776.00,0.0066
2775.00,0.0065
2774.00,0.0064
2773.00,0.0063
2772.00,0.0063
2771.00,0.0062
2770.00,0.0062
2769.00,0.0062
2768.00,0.0062
2767.00,0.0061
2766.00,0.0061
2765.00,0.0060
2764.00,0.0060
2763.00,0.0060
2762.00,0.0059
2761.00,0.0059
2760.00,0.0058
2759.00,0.0058
2758.00,0.0057
2757.00,0.0057
2756.00,0.0057
2755.00,0.0057
2754.00,0.0057
2753.00,0.0057
2752.00,0.0057
2751.00,0.0057
2750.00,0.0056
2749.00,0.0056
2748.00,0.0056
2747.00,0.0056
2746.00,0.0056
2745.00,0.0057
2744.00,0.0057
2743.00,0.0058
2742.00,0.0059
2741.00,0.0060
2740.00,0.0061
2739.00,0.0062
2738.00,0.0063
2737.00,0.0064
2736.00,0.0065
2735.00,0.0066
2734.00,0.0067
2733.00,0.0068
2732.00,0.0070
2731.00,0.0071
2730.00,0.0073
2729.00,0.0076
2728.00,0.0078
2727.00,0.0081
2726.00,0.0083
2725.00,0.0085
2724.00,0.0087
2723.00,0.0087
2722.00,0.0086
2721.00,0.0085
2720.00,0.0083
2719.00,0.0080
2718.00,0.0077
2717.00,0.0074
2716.00,0.0072
2715.00,0.0069
2714.00,0.0067
2713.00,0.0065
2712.00,0.0063
2711.00,0.0061
2710.00,0.0059
2709.00,0.0058
2708.00,0.0057
2707.00,0.0056
2706.00,0.0054
2705.00,0.0053
2704.00,0.0052
2703.00,0.0051
2702.00,0.0051
2701.00,0.0050
2700.00,0.0050
2699.00,0.0049
2698.00,0.0049
2697.00,0.0048
2696.00,0.0048
2695.00,0.0048
2694.00,0.0048
2693.00,0.0048
2692.00,0.0048
2691.00,0.0048
2690.00,0.0048
2689.00,0.0048
2688.00,0.0048
2687.00,0.0048
2686.00,0.0048
2685.00,0.0047
2684.00,0.0047
2683.00,0.0048
2682.00,0.0048
2681.00,0.0048
2680.00,0.0048
2679.00,0.0048
2678.00,0.0048
2677.00,0.0047
2676.00,0.0047
2675.00,0.0047
2674.00,0.0047
2673.00,0.0047
2672.00,0.0046
2671.00,0.0046
2670.00,0.0045
2669.00,0.0045
2668.00,0.0046
2667.00,0.0046
2666.00,0.0047
2665.00,0.0048
2664.00,0.0048
2663.00,0.0049
2662.00,0.0049
2661.00,0.0049
2660.00,0.0049
2659.00,0.0050
2658.00,0.0050
2657.00,0.0050
2656.00,0.0049
2655.00,0.0049
2654.00,0.0048
2653.00,0.0048
2652.00,0.0047
2651.00,0.0047
2650.00,0.0046
2649.00,0.0046
2648.00,0.0045
2647.00,0.0045
2646.00,0.0044
2645.00,0.0044
2644.00,0.0044
2643.00,0.0043
2642.00,0.0043
2641.00,0.0042
2640.00,0.0042
2639.00,0.0041
2638.00,0.0041
2637.00,0.0041
2636.00,0.0041
2635.00,0.0042
2634.00,0.0042
2633.00,0.0042
2632.00,0.0042
2631.00,0.0042
2630.00,0.0042
2629.00,0.0042
2628.00,0.0042
2627.00,0.0041
2626.00,0.0041
2625.00,0.0041
2624.00,0.0041
2623.00,0.0042
2622.00,0.0042
2621.00,0.0042
2620.00,0.0043
2619.00,0.0043
2618.00,0.0042
2617.00,0.0042
2616.00,0.0041
2615.00,0.0041
2614.00,0.0041
2613.00,0.0040
2612.00,0.0040
2611.00,0.0040
2610.00,0.0040
2609.00,0.0039
2608.00,0.0038
2607.00,0.0038
2606.00,0.0037
2605.00,0.0036
2604.00,0.0036
2603.00,0.0035
2602.00,0.0034
2601.00,0.0034
2600.00,0.0033
2599.00,0.0033
2598.00,0.0033
2597.00,0.0033
2596.00,0.0033
2595.00,0.0033
2594.00,0.0034
2593.00,0.0035
2592.00,0.0036
2591.00,0.0037
2590.00,0.0038
2589.00,0.0038
2588.00,0.0038
2587.00,0.0038
2586.00,0.0039
2585.00,0.0039
2584.00,0.0040
2583.00,0.0040
2582.00,0.0041
2581.00,0.0040
2580.00,0.0040
2579.00,0.0039
2578.00,0.0038
2577.00,0.0036
2576.00,0.0035
2575.00,0.0034
2574.00,0.0033
2573.00,0.0032
2572.00,0.0032
2571.00,0.0031
2570.00,0.0030
2569.00,0.0030
2568.00,0.0029
2567.00,0.0028
2566.00,0.0027
2565.00,0.0027
2564.00,0.0026
2563.00,0.0026
2562.00,0.0025
2561.00,0.0025
2560.00,0.0025
2559.00,0.0025
2558.00,0.0024
2557.00,0.0024
2556.00,0.0024
2555.00,0.0023
2554.00,0.0023
2553.00,0.0023
2552.00,0.0024
2551.00,0.0023
2550.00,0.0023
2549.00,0.0023
2548.00,0.0022
2547.00,0.0021
2546.00,0.0021
2545.00,0.0020
2544.00,0.0020
2543.00,0.0020
2542.00,0.0020
2541.00,0.0020
2540.00,0.0020
2539.00,0.0020
2538.00,0.0019
2537.00,0.0019
2536.00,0.0019
2535.00,0.0019
2534.00,0.0018
2533.00,0.0018
2532.00,0.0018
2531.00,0.0017
2530.00,0.0017
2529.00,0.0018
2528.00,0.0017
2527.00,0.0017
2526.00,0.0017
2525.00,0.0017
2524.00,0.0018
2523.00,0.0017
2522.00,0.0017
2521.00,0.0017
2520.00,0.0016
2519.00,0.0016
2518.00,0.0016
2517.00,0.0016
2516.00,0.0016
2515.00,0.0015
2514.00,0.0014
2513.00,0.0013
2512.00,0.0013
2511.00,0.0013
2510.00,0.0014
2509.00,0.0015
2508.00,0.0015
2507.00,0.0015
2506.00,0.0014
2505.00,0.0014
2504.00,0.0013
2503.00,0.0013
2502.00,0.0013
2501.00,0.0013
2500.00,0.0012
2499.00,0.0012
2498.00,0.0012
2497.00,0.0013
2496.00,0.0014
2495.00,0.0014
2494.00,0.0014
2493.00,0.0013
2492.00,0.0013
2491.00,0.0013
2490.00,0.0013
2489.00,0.0014
2488.00,0.0014
2487.00,0.0014
2486.00,0.0014
2485.00,0.0014
2484.00,0.0013
2483.00,0.0013
2482.00,0.0013
2481.00,0.0012
2480.00,0.0012
2479.00,0.0012
2478.00,0.0013
2477.00,0.0013
2476.00,0.0014
2475.00,0.0013
2474.00,0.0013
2473.00,0.0013
2472.00,0.0012
2471.00,0.0012
2470.00,0.0012
2469.00,0.0012
2468.00,0.0013
2467.00,0.0014
2466.00,0.0014
2465.00,0.0015
2464.00,0.0014
2463.00,0.0014
2462.00,0.0013
2461.00,0.0012
2460.00,0.0012
2459.00,0.0012
2458.00,0.0012
2457.00,0.0012
2456.00,0.0013
2455.00,0.0013
2454.00,0.0014
2453.00,0.0013
2452.00,0.0013
2451.00,0.0013
2450.00,0.0013
2449.00,0.0014
2448.00,0.0014
2447.00,0.0014
2446.00,0.0014
2445.00,0.0013
2444.00,0.0013
2443.00,0.0012
2442.00,0.0012
2441.00,0.0012
2440.00,0.0012
2439.00,0.0013
2438.00,0.0013
2437.00,0.0013
2436.00,0.0014
2435.00,0.0014
2434.00,0.0014
2433.00,0.0014
2432.00,0.0014
2431.00,0.0014
2430.00,0.0014
2429.00,0.0014
2428.00,0.0013
2427.00,0.0013
2426.00,0.0013
2425.00,0.0014
2424.00,0.0014
2423.00,0.0014
2422.00,0.0013
2421.00,0.0013
2420.00,0.0012
2419.00,0.0011
2418.00,0.0011
2417.00,0.0012
2416.00,0.0012
2415.00,0.0013
2414.00,0.0013
2413.00,0.0013
2412.00,0.0013
2411.00,0.0013
2410.00,0.0013
2409.00,0.0013
2408.00,0.0013
2407.00,0.0013
2406.00,0.0012
2405.00,0.0011
2404.00,0.0010
2403.00,0.0010
2402.00,0.0009
2401.00,0.0009
2400.00,0.0009
2399.00,0.0009
2398.00,0.0009
2397.00,0.0009
2396.00,0.0009
2395.00,0.0010
2394.00,0.0010
2393.00,0.0010
2392.00,0.0010
2391.00,0.0010
2390.00,0.0010
2389.00,0.0010
2388.00,0.0010
2387.00,0.0009
2386.00,0.0009
2385.00,0.0008
2384.00,0.0008
2383.00,0.0007
2382.00,0.0006
2381.00,0.0006
2380.00,0.0005
2379.00,0.0005
2378.00,0.0005
2377.00,0.0005
2376.00,0.0006
2375.00,0.0006
2374.00,0.0006
2373.00,0.0006
2372.00,0.0006
2371.00,0.0005
2370.00,0.0005
2369.00,0.0004
2368.00,0.0005
2367.00,0.0005
2366.00,0.0005
2365.00,0.0005
2364.00,0.0005
2363.00,0.0005
2362.00,0.0005
2361.00,0.0005
2360.00,0.0005
2359.00,0.0005
2358.00,0.0005
2357.00,0.0006
2356.00,0.0006
2355.00,0.0006
2354.00,0.0006
2353.00,0.0006
2352.00,0.0006
2351.00,0.0006
2350.00,0.0007
2349.00,0.0007
2348.00,0.0008
2347.00,0.0008
2346.00,0.0008
2345.00,0.0008
2344.00,0.0008
2343.00,0.0008
2342.00,0.0008
2341.00,0.0009
2340.00,0.0009
2339.00,0.0010
2338.00,0.0010
2337.00,0.0011
2336.00,0.0011
2335.00,0.0010
2334.00,0.0010
2333.00,0.0010
2332.00,0.0010
2331.00,0.0010
2330.00,0.0010
2329.00,0.0011
2328.00,0.0012
2327.00,0.0015
2326.00,0.0018
2325.00,0.0021
2324.00,0.0022
2323.00,0.0021
2322.00,0.0020
2321.00,0.0018
2320.00,0.0017
2319.00,0.0017
2318.00,0.0017
2317.00,0.0017
2316.00,0.0016
2315.00,0.0016
2314.00,0.0015
2313.00,0.0015
2312.00,0.0013
2311.00,0.0012
2310.00,0.0011
2309.00,0.0011
2308.00,0.0012
2307.00,0.0013
2306.00,0.0013
2305.00,0.0013
2304.00,0.0013
2303.00,0.0013
2302.00,0.0013
2301.00,0.0013
2300.00,0.0014
2299.00,0.0014
2298.00,0.0014
2297.00,0.0015
2296.00,0.0016
2295.00,0.0017
2294.00,0.0017
2293.00,0.0017
2292.00,0.0017
2291.00,0.0018
2290.00,0.0019
2289.00,0.0020
2288.00,0.0021
2287.00,0.0022
2286.00,0.0022
2285.00,0.0021
2284.00,0.0021
2283.00,0.0020
2282.00,0.0019
2281.00,0.0018
2280.00,0.0017
2279.00,0.0015
2278.00,0.0014
2277.00,0.0014
2276.00,0.0014
2275.00,0.0014
2274.00,0.0014
2273.00,0.0014
2272.00,0.0014
2271.00,0.0014
2270.00,0.0014
2269.00,0.0015
2268.00,0.0015
2267.00,0.0015
2266.00,0.0015
2265.00,0.0014
2264.00,0.0015
2263.00,0.0016
2262.00,0.0017
2261.00,0.0018
2260.00,0.0017
2259.00,0.0015
2258.00,0.0014
2257.00,0.0013
2256.00,0.0013
2255.00,0.0013
2254.00,0.0013
2253.00,0.0012
2252.00,0.0011
2251.00,0.0011
2250.00,0.0010
2249.00,0.0010
2248.00,0.0010
2247.00,0.0010
2246.00,0.0011
2245.00,0.0013
2244.00,0.0014
2243.00,0.0014
2242.00,0.0014
2241.00,0.0013
2240.00,0.0012
2239.00,0.0011
2238.00,0.0011
2237.00,0.0012
2236.00,0.0012
2235.00,0.0013
2234.00,0.0012
2233.00,0.0012
2232.00,0.0013
2231.00,0.0014
2230.00,0.0016
2229.00,0.0017
2228.00,0.0018
2227.00,0.0017
2226.00,0.0014
2225.00,0.0011
2224.00,0.0009
2223.00,0.0007
2222.00,0.0006
2221.00,0.0006
2220.00,0.0007
2219.00,0.0008
2218.00,0.0009
2217.00,0.0008
2216.00,0.0007
2215.00,0.0005
2214.00,0.0004
2213.00,0.0003
2212.00,0.0005
2211.00,0.0007
2210.00,0.0010
2209.00,0.0011
2208.00,0.0011
2207.00,0.0010
2206.00,0.0009
2205.00,0.0010
2204.00,0.0010
2203.00,0.0010
2202.00,0.0009
2201.00,0.0009
2200.00,0.0009
2199.00,0.0009
2198.00,0.0010
2197.00,0.0010
2196.00,0.0010
2195.00,0.0011
2194.00,0.0011
2193.00,0.0011
2192.00,0.0010
2191.00,0.0009
2190.00,0.0009
2189.00,0.0010
2188.00,0.0011
2187.00,0.0012
2186.00,0.0013
2185.00,0.0014
2184.00,0.0015
2183.00,0.0014
2182.00,0.0011
2181.00,0.0008
2180.00,0.0007
2179.00,0.0008
2178.00,0.0010
2177.00,0.0009
2176.00,0.0008
2175.00,0.0005
2174.00,0.0004
2173.00,0.0006
2172.00,0.0010
2171.00,0.0014
2170.00,0.0016
2169.00,0.0017
2168.00,0.0016
2167.00,0.0016
2166.00,0.0018
2165.00,0.0022
2164.00,0.0026
2163.00,0.0028
2162.00,0.0028
2161.00,0.0024
2160.00,0.0016
2159.00,0.0002
2158.00,-0.0011
2157.00,-0.0019
2156.00,-0.0021
2155.00,-0.0019
2154.00,-0.0016
2153.00,-0.0013
2152.00,-0.0011
2151.00,-0.0009
2150.00,-0.0008
2149.00,-0.0008
2148.00,-0.0008
2147.00,-0.0008
2146.00,-0.0006
2145.00,-0.0005
2144.00,-0.0004
2143.00,-0.0006
2142.00,-0.0007
2141.00,-0.0008
2140.00,-0.0007
2139.00,-0.0006
2138.00,-0.0005
2137.00,-0.0005
2136.00,-0.0006
2135.00,-0.0008
2134.00,-0.0009
2133.00,-0.0009
2132.00,-0.0009
2131.00,-0.0009
2130.00,-0.0009
2129.00,-0.0007
2128.00,-0.0005
2127.00,-0.0004
2126.00,-0.0003
2125.00,-0.0002
2124.00,-0.0002
2123.00,-0.0001
2122.00,-0.0000
2121.00,0.0001
2120.00,0.0001
2119.00,0.0001
2118.00,0.0002
2117.00,0.0003
2116.00,0.0004
2115.00,0.0005
2114.00,0.0005
2113.00,0.0006
2112.00,0.0007
2111.00,0.0007
2110.00,0.0007
2109.00,0.0006
2108.00,0.0005
2107.00,0.0004
2106.00,0.0003
2105.00,0.0004
2104.00,0.0005
2103.00,0.0006
2102.00,0.0008
2101.00,0.0008
2100.00,0.0009
2099.00,0.0008
2098.00,0.0007
2097.00,0.0005
2096.00,0.0002
2095.00,0.0000
2094.00,-0.0001
2093.00,-0.0001
2092.00,0.0001
2091.00,0.0003
2090.00,0.0004
2089.00,0.0004
2088.00,0.0004
2087.00,0.0003
2086.00,0.0003
2085.00,0.0003
2084.00,0.0003
2083.00,0.0004
2082.00,0.0005
2081.00,0.0006
2080.00,0.0007
2079.00,0.0007
2078.00,0.0006
2077.00,0.0005
2076.00,0.0005
2075.00,0.0005
2074.00,0.0006
2073.00,0.0007
2072.00,0.0008
2071.00,0.0008
2070.00,0.0008
2069.00,0.0006
2068.00,0.0003
2067.00,0.0001
2066.00,-0.0001
2065.00,-0.0001
2064.00,-0.0000
2063.00,0.0002
2062.00,0.0003
2061.00,0.0005
2060.00,0.0005
2059.00,0.0005
2058.00,0.0005
2057.00,0.0005
2056.00,0.0005
2055.00,0.0005
2054.00,0.0005
2053.00,0.0008
2052.00,0.0012
2051.00,0.0015
2050.00,0.0014
2049.00,0.0011
2048.00,0.0008
2047.00,0.0005
2046.00,0.0005
2045.00,0.0005
2044.00,0.0006
2043.00,0.0007
2042.00,0.0007
2041.00,0.0007
2040.00,0.0007
2039.00,0.0008
2038.00,0.0008
2037.00,0.0008
2036.00,0.0007
2035.00,0.0004
2034.00,-0.0001
2033.00,-0.0005
2032.00,-0.0008
2031.00,-0.0010
2030.00,-0.0009
2029.00,-0.0007
2028.00,-0.0005
2027.00,-0.0005
2026.00,-0.0006
2025.00,-0.0006
2024.00,-0.0006
2023.00,-0.0007
2022.00,-0.0009
2021.00,-0.0009
2020.00,-0.0009
2019.00,-0.0008
2018.00,-0.0008
2017.00,-0.0007
2016.00,-0.0006
2015.00,-0.0005
2014.00,-0.0004
2013.00,-0.0003
2012.00,-0.0001
2011.00,0.0002
2010.00,0.0004
2009.00,0.0003
2008.00,-0.0001
2007.00,-0.0007
2006.00,-0.0011
2005.00,-0.0012
2004.00,-0.0010
2003.00,-0.0007
2002.00,-0.0006
2001.00,-0.0006
2000.00,-0.0006
1999.00,-0.0005
1998.00,-0.0004
1997.00,-0.0004
1996.00,-0.0007
1995.00,-0.0010
1994.00,-0.0012
1993.00,-0.0011
1992.00,-0.0009
1991.00,-0.0008
1990.00,-0.0007
1989.00,-0.0005
1988.00,-0.0004
1987.00,-0.0002
1986.00,-0.0001
1985.00,0.0001
1984.00,0.0003
1983.00,0.0006
1982.00,0.0009
1981.00,0.0011
1980.00,0.0011
1979.00,0.0008
1978.00,0.0002
1977.00,-0.0004
1976.00,-0.0007
1975.00,-0.0007
1974.00,-0.0006
1973.00,-0.0006
1972.00,-0.0006
1971.00,-0.0008
1970.00,-0.0010
1969.00,-0.0010
1968.00,-0.0010
1967.00,-0.0010
1966.00,-0.0009
1965.00,-0.0008
1964.00,-0.0007
1963.00,-0.0006
1962.00,-0.0006
1961.00,-0.0008
1960.00,-0.0010
1959.00,-0.0011
1958.00,-0.0011
1957.00,-0.0010
1956.00,-0.0008
1955.00,-0.0007
1954.00,-0.0007
1953.00,-0.0008
1952.00,-0.0009
1951.00,-0.0009
1950.00,-0.0009
1949.00,-0.0008
1948.00,-0.0007
1947.00,-0.0008
1946.00,-0.0008
1945.00,-0.0009
1944.00,-0.0009
1943.00,-0.0010
1942.00,-0.0010
1941.00,-0.0010
1940.00,-0.0009
1939.00,-0.0008
1938.00,-0.0008
1937.00,-0.0008
1936.00,-0.0006
1935.00,-0.0005
1934.00,-0.0004
1933.00,-0.0004
1932.00,-0.0004
1931.00,-0.0005
1930.00,-0.0005
1929.00,-0.0005
1928.00,-0.0004
1927.00,-0.0003
1926.00,-0.0001
1925.00,-0.0000
1924.00,-0.0000
1923.00,-0.0001
1922.00,-0.0002
1921.00,-0.0002
1920.00,-0.0003
1919.00,-0.0003
1918.00,-0.0003
1917.00,-0.0002
1916.00,-0.0000
1915.00,0.0001
1914.00,0.0000
1913.00,0.0000
1912.00,0.0000
1911.00,0.0001
1910.00,0.0001
1909.00,0.0001
1908.00,0.0001
1907.00,-0.0000
1906.00,-0.0000
1905.00,0.0000
1904.00,0.0002
1903.00,0.0004
1902.00,0.0005
1901.00,0.0005
1900.00,0.0005
1899.00,0.0004
1898.00,0.0004
1897.00,0.0003
1896.00,0.0003
1895.00,0.0002
1894.00,0.0002
1893.00,0.0001
1892.00,0.0001
1891.00,0.0000
1890.00,0.0001
1889.00,0.0001
1888.00,0.0002
1887.00,0.0002
1886.00,0.0001
1885.00,0.0001
1884.00,0.0001
1883.00,-0.0000
1882.00,-0.0001
1881.00,-0.0000
1880.00,0.0001
1879.00,0.0001
1878.00,0.0002
1877.00,0.0002
1876.00,0.0002
1875.00,0.0003
1874.00,0.0003
1873.00,0.0003
1872.00,0.0002
1871.00,0.0001
1870.00,0.0001
1869.00,0.0001
1868.00,0.0002
1867.00,0.0002
1866.00,0.0003
1865.00,0.0003
1864.00,0.0003
1863.00,0.0003
1862.00,0.0003
1861.00,0.0003
1860.00,0.0004
1859.00,0.0004
1858.00,0.0005
1857.00,0.0005
1856.00,0.0006
1855.00,0.0006
1854.00,0.0006
1853.00,0.0006
1852.00,0.0005
1851.00,0.0005
1850.00,0.0004
1849.00,0.0004
1848.00,0.0004
1847.00,0.0004
1846.00,0.0004
1845.00,0.0004
1844.00,0.0005
1843.00,0.0005
1842.00,0.0005
1841.00,0.0005
1840.00,0.0004
1839.00,0.0004
1838.00,0.0004
1837.00,0.0005
1836.00,0.0005
1835.00,0.0006
1834.00,0.0006
1833.00,0.0007
1832.00,0.0007
1831.00,0.0006
1830.00,0.0006
1829.00,0.0006
1828.00,0.0006
1827.00,0.0006
1826.00,0.0006
1825.00,0.0007
1824.00,0.0007
1823.00,0.0007
1822.00,0.0007
1821.00,0.0007
1820.00,0.0006
1819.00,0.0005
1818.00,0.0004
1817.00,0.0003
1816.00,0.0003
1815.00,0.0004
1814.00,0.0004
1813.00,0.0005
1812.00,0.0006
1811.00,0.0007
1810.00,0.0007
1809.00,0.0007
1808.00,0.0008
1807.00,0.0008
1806.00,0.0008
1805.00,0.0008
1804.00,0.0008
1803.00,0.0008
1802.00,0.0008
1801.00,0.0008
1800.00,0.0008
1799.00,0.0009
1798.00,0.0009
1797.00,0.0010
1796.00,0.0010
1795.00,0.0009
1794.00,0.0009
1793.00,0.0009
1792.00,0.0010
1791.00,0.0010
1790.00,0.0009
1789.00,0.0009
1788.00,0.0010
1787.00,0.0011
1786.00,0.0012
1785.00,0.0013
1784.00,0.0013
1783.00,0.0013
1782.00,0.0013
1781.00,0.0013
1780.00,0.0013
1779.00,0.0012
1778.00,0.0012
1777.00,0.0012
1776.00,0.0012
1775.00,0.0012
1774.00,0.0011
1773.00,0.0012
1772.00,0.0012
1771.00,0.0013
1770.00,0.0013
1769.00,0.0013
1768.00,0.0013
1767.00,0.0013
1766.00,0.0014
1765.00,0.0014
1764.00,0.0015
1763.00,0.0016
1762.00,0.0016
1761.00,0.0017
1760.00,0.0017
1759.00,0.0017
1758.00,0.0018
1757.00,0.0019
1756.00,0.0020
1755.00,0.0021
1754.00,0.0021
1753.00,0.0022
1752.00,0.0023
1751.00,0.0023
1750.00,0.0024
1749.00,0.0025
1748.00,0.0027
1747.00,0.0028
1746.00,0.0030
1745.00,0.0031
1744.00,0.0032
1743.00,0.0032
1742.00,0.0033
1741.00,0.0033
1740.00,0.0034
1739.00,0.0035
1738.00,0.0035
1737.00,0.0035
1736.00,0.0036
1735.00,0.0037
1734.00,0.0038
1733.00,0.0038
1732.00,0.0038
1731.00,0.0038
1730.00,0.0038
1729.00,0.0038
1728.00,0.0038
1727.00,0.0037
1726.00,0.0037
1725.00,0.0038
1724.00,0.0038
1723.00,0.0038
1722.00,0.0038
1721.00,0.0038
1720.00,0.0038
1719.00,0.0037
1718.00,0.0036
1717.00,0.0036
1716.00,0.0036
1715.00,0.0036
1714.00,0.0036
1713.00,0.0036
1712.00,0.0037
1711.00,0.0037
1710.00,0.0037
1709.00,0.0038
1708.00,0.0038
1707.00,0.0038
1706.00,0.0037
1705.00,0.0037
1704.00,0.0038
1703.00,0.0038
1702.00,0.0040
1701.00,0.0042
1700.00,0.0044
1699.00,0.0044
1698.00,0.0045
1697.00,0.0047
1696.00,0.0051
1695.00,0.0054
1694.00,0.0056
1693.00,0.0058
1692.00,0.0060
1691.00,0.0063
1690.00,0.0066
1689.00,0.0068
1688.00,0.0071
1687.00,0.0073
1686.00,0.0075
1685.00,0.0078
1684.00,0.0081
1683.00,0.0084
1682.00,0.0085
1681.00,0.0088
1680.00,0.0090
1679.00,0.0093
1678.00,0.0094
1677.00,0.0096
1676.00,0.0099
1675.00,0.0101
1674.00,0.0103
1673.00,0.0105
1672.00,0.0107
1671.00,0.0109
1670.00,0.0111
1669.00,0.0113
1668.00,0.0115
1667.00,0.0116
1666.00,0.0116
1665.00,0.0117
1664.00,0.0118
1663.00,0.0120
1662.00,0.0121
1661.00,0.0123
1660.00,0.0124
1659.00,0.0126
1658.00,0.0127
1657.00,0.0127
1656.00,0.0128
1655.00,0.0128
1654.00,0.0129
1653.00,0.0130
1652.00,0.0132
1651.00,0.0132
1650.00,0.0133
1649.00,0.0135
1648.00,0.0138
1647.00,0.0139
1646.00,0.0140
1645.00,0.0141
1644.00,0.0141
1643.00,0.0141
1642.00,0.0141
1641.00,0.0141
1640.00,0.0142
1639.00,0.0142
1638.00,0.0142
1637.00,0.0142
1636.00,0.0142
1635.00,0.0141
1634.00,0.0140
1633.00,0.0140
1632.00,0.0140
1631.00,0.0139
1630.00,0.0139
1629.00,0.0138
1628.00,0.0137
1627.00,0.0136
1626.00,0.0136
1625.00,0.0135
1624.00,0.0134
1623.00,0.0134
1622.00,0.0132
1621.00,0.0131
1620.00,0.0130
1619.00,0.0130
1618.00,0.0129
1617.00,0.0128
1616.00,0.0127
1615.00,0.0127
1614.00,0.0126
1613.00,0.0126
1612.00,0.0126
1611.00,0.0125
1610.00,0.0125
1609.00,0.0125
1608.00,0.0124
1607.00,0.0123
1606.00,0.0123
1605.00,0.0123
1604.00,0.0123
1603.00,0.0122
1602.00,0.0122
1601.00,0.0122
1600.00,0.0122
1599.00,0.0122
1598.00,0.0121
1597.00,0.0121
1596.00,0.0121
1595.00,0.0121
1594.00,0.0121
1593.00,0.0122
1592.00,0.0122
1591.00,0.0123
1590.00,0.0123
1589.00,0.0123
1588.00,0.0125
1587.00,0.0126
1586.00,0.0128
1585.00,0.0130
1584.00,0.0133
1583.00,0.0137
1582.00,0.0141
1581.00,0.0145
1580.00,0.0148
1579.00,0.0151
1578.00,0.0153
1577.00,0.0154
1576.00,0.0154
1575.00,0.0152
1574.00,0.0150
1573.00,0.0148
1572.00,0.0146
1571.00,0.0144
1570.00,0.0141
1569.00,0.0138
1568.00,0.0136
1567.00,0.0135
1566.00,0.0135
1565.00,0.0135
1564.00,0.0135
1563.00,0.0135
1562.00,0.0135
1561.00,0.0135
1560.00,0.0136
1559.00,0.0136
1558.00,0.0137
1557.00,0.0138
1556.00,0.0140
1555.00,0.0143
1554.00,0.0145
1553.00,0.0147
1552.00,0.0150
1551.00,0.0152
1550.00,0.0155
1549.00,0.0158
1548.00,0.0160
1547.00,0.0163
1546.00,0.0166
1545.00,0.0170
1544.00,0.0173
1543.00,0.0175
1542.00,0.0176
1541.00,0.0175
1540.00,0.0170
1539.00,0.0164
1538.00,0.0158
1537.00,0.0153
1536.00,0.0149
1535.00,0.0143
1534.00,0.0136
1533.00,0.0129
1532.00,0.0124
1531.00,0.0120
1530.00,0.0118
1529.00,0.0115
1528.00,0.0112
1527.00,0.0109
1526.00,0.0106
1525.00,0.0105
1524.00,0.0104
1523.00,0.0104
1522.00,0.0103
1521.00,0.0102
1520.00,0.0101
1519.00,0.0100
1518.00,0.0099
1517.00,0.0099
1516.00,0.0099
1515.00,0.0098
1514.00,0.0097
1513.00,0.0098
1512.00,0.0099
1511.00,0.0099
1510.00,0.0099
1509.00,0.0099
1508.00,0.0098
1507.00,0.0096
1506.00,0.0095
1505.00,0.0097
1504.00,0.0099
1503.00,0.0101
1502.00,0.0104
1501.00,0.0107
1500.00,0.0110
1499.00,0.0113
1498.00,0.0116
1497.00,0.0120
1496.00,0.0124
1495.00,0.0127
1494.00,0.0131
1493.00,0.0135
1492.00,0.0140
1491.00,0.0145
1490.00,0.0150
1489.00,0.0156
1488.00,0.0162
1487.00,0.0168
1486.00,0.0174
1485.00,0.0181
1484.00,0.0190
1483.00,0.0199
1482.00,0.0209
1481.00,0.0221
1480.00,0.0234
1479.00,0.0247
1478.00,0.0262
1477.00,0.0282
1476.00,0.0306
1475.00,0.0334
1474.00,0.0372
1473.00,0.0427
1472.00,0.0492
1471.00,0.0556
1470.00,0.0617
1469.00,0.0680
1468.00,0.0747
1467.00,0.0819
1466.00,0.0900
1465.00,0.0986
1464.00,0.1060
1463.00,0.1111
1462.00,0.1143
1461.00,0.1164
1460.00,0.1177
1459.00,0.1185
1458.00,0.1191
1457.00,0.1193
1456.00,0.1189
1455.00,0.1179
1454.00,0.1166
1453.00,0.1147
1452.00,0.1119
1451.00,0.1080
1450.00,0.1029
1449.00,0.0960
1448.00,0.0874
1447.00,0.0785
1446.00,0.0706
1445.00,0.0639
1444.00,0.0582
1443.00,0.0536
1442.00,0.0500
1441.00,0.0476
1440.00,0.0461
1439.00,0.0456
1438.00,0.0458
1437.00,0.0461
1436.00,0.0453
1435.00,0.0431
1434.00,0.0398
1433.00,0.0357
1432.00,0.0314
1431.00,0.0276
1430.00,0.0245
1429.00,0.0222
1428.00,0.0207
1427.00,0.0197
1426.00,0.0191
1425.00,0.0186
1424.00,0.0181
1423.00,0.0178
1422.00,0.0176
1421.00,0.0174
1420.00,0.0171
1419.00,0.0168
1418.00,0.0165
1417.00,0.0161
1416.00,0.0157
1415.00,0.0155
1414.00,0.0153
1413.00,0.0151
1412.00,0.0148
1411.00,0.0145
1410.00,0.0144
1409.00,0.0142
1408.00,0.0140
1407.00,0.0139
1406.00,0.0139
1405.00,0.0137
1404.00,0.0135
1403.00,0.0134
1402.00,0.0134
1401.00,0.0134
1400.00,0.0133
1399.00,0.0134
1398.00,0.0134
1397.00,0.0134
1396.00,0.0134
1395.00,0.0136
1394.00,0.0139
1393.00,0.0143
1392.00,0.0148
1391.00,0.0154
1390.00,0.0163
1389.00,0.0176
1388.00,0.0195
1387.00,0.0223
1386.00,0.0261
1385.00,0.0311
1384.00,0.0383
1383.00,0.0487
1382.00,0.0631
1381.00,0.0820
1380.00,0.1056
1379.00,0.1320
1378.00,0.1571
1377.00,0.1747
1376.00,0.1799
1375.00,0.1701
1374.00,0.1482
1373.00,0.1224
1372.00,0.0991
1371.00,0.0801
1370.00,0.0650
1369.00,0.0536
1368.00,0.0457
1367.00,0.0408
1366.00,0.0382
1365.00,0.0371
1364.00,0.0373
1363.00,0.0385
1362.00,0.0404
1361.00,0.0426
1360.00,0.0442
1359.00,0.0448
1358.00,0.0440
1357.00,0.0419
1356.00,0.0387
1355.00,0.0350
1354.00,0.0314
1353.00,0.0284
1352.00,0.0259
1351.00,0.0238
1350.00,0.0221
1349.00,0.0207
1348.00,0.0196
1347.00,0.0187
1346.00,0.0179
1345.00,0.0173
1344.00,0.0167
1343.00,0.0161
1342.00,0.0156
1341.00,0.0152
1340.00,0.0148
1339.00,0.0145
1338.00,0.0143
1337.00,0.0143
1336.00,0.0143
1335.00,0.0145
1334.00,0.0149
1333.00,0.0153
1332.00,0.0157
1331.00,0.0160
1330.00,0.0162
1329.00,0.0161
1328.00,0.0157
1327.00,0.0153
1326.00,0.0147
1325.00,0.0141
1324.00,0.0136
1323.00,0.0132
1322.00,0.0128
1321.00,0.0126
1320.00,0.0123
1319.00,0.0122
1318.00,0.0120
1317.00,0.0119
1316.00,0.0118
1315.00,0.0117
1314.00,0.0117
1313.00,0.0117
1312.00,0.0118
1311.00,0.0120
1310.00,0.0123
1309.00,0.0129
1308.00,0.0137
1307.00,0.0147
1306.00,0.0156
1305.00,0.0162
1304.00,0.0165
1303.00,0.0163
1302.00,0.0159
1301.00,0.0156
1300.00,0.0154
1299.00,0.0154
1298.00,0.0154
1297.00,0.0154
1296.00,0.0154
1295.00,0.0152
1294.00,0.0149
1293.00,0.0144
1292.00,0.0139
1291.00,0.0134
1290.00,0.0129
1289.00,0.0125
1288.00,0.0121
1287.00,0.0118
1286.00,0.0115
1285.00,0.0113
1284.00,0.0111
1283.00,0.0109
1282.00,0.0108
1281.00,0.0107
1280.00,0.0106
1279.00,0.0105
1278.00,0.0104
1277.00,0.0103
1276.00,0.0102
1275.00,0.0102
1274.00,0.0101
1273.00,0.0100
1272.00,0.0100
1271.00,0.0099
1270.00,0.0100
1269.00,0.0101
1268.00,0.0103
1267.00,0.0106
1266.00,0.0109
1265.00,0.0112
1264.00,0.0115
1263.00,0.0118
1262.00,0.0121
1261.00,0.0125
1260.00,0.0129
1259.00,0.0134
1258.00,0.0139
1257.00,0.0143
1256.00,0.0143
1255.00,0.0139
1254.00,0.0133
1253.00,0.0125
1252.00,0.0118
1251.00,0.0113
1250.00,0.0109
1249.00,0.0107
1248.00,0.0105
1247.00,0.0104
1246.00,0.0102
1245.00,0.0101
1244.00,0.0100
1243.00,0.0099
1242.00,0.0099
1241.00,0.0098
1240.00,0.0097
1239.00,0.0097
1238.00,0.0096
1237.00,0.0096
1236.00,0.0096
1235.00,0.0097
1234.00,0.0098
1233.00,0.0099
1232.00,0.0101
1231.00,0.0103
1230.00,0.0105
1229.00,0.0107
1228.00,0.0108
1227.00,0.0111
1226.00,0.0114
1225.00,0.0118
1224.00,0.0122
1223.00,0.0127
1222.00,0.0131
1221.00,0.0134
1220.00,0.0137
1219.00,0.0138
1218.00,0.0138
1217.00,0.0137
1216.00,0.0135
1215.00,0.0131
1214.00,0.0127
1213.00,0.0122
1212.00,0.0119
1211.00,0.0116
1210.00,0.0115
1209.00,0.0113
1208.00,0.0112
1207.00,0.0111
1206.00,0.0110
1205.00,0.0109
1204.00,0.0109
1203.00,0.0110
1202.00,0.0111
1201.00,0.0111
1200.00,0.0111
1199.00,0.0111
1198.00,0.0110
1197.00,0.0110
1196.00,0.0110
1195.00,0.0110
1194.00,0.0110
1193.00,0.0110
1192.00,0.0110
1191.00,0.0109
1190.00,0.0109
1189.00,0.0108
1188.00,0.0107
1187.00,0.0106
1186.00,0.0106
1185.00,0.0106
1184.00,0.0106
1183.00,0.0106
1182.00,0.0106
1181.00,0.0108
1180.00,0.0109
1179.00,0.0112
1178.00,0.0116
1177.00,0.0122
1176.00,0.0131
1175.00,0.0142
1174.00,0.0158
1173.00,0.0178
1172.00,0.0202
1171.00,0.0228
1170.00,0.0253
1169.00,0.0273
1168.00,0.0285
1167.00,0.0287
1166.00,0.0281
1165.00,0.0269
1164.00,0.0256
1163.00,0.0243
1162.00,0.0231
1161.00,0.0222
1160.00,0.0214
1159.00,0.0208
1158.00,0.0204
1157.00,0.0201
1156.00,0.0200
1155.00,0.0201
1154.00,0.0201
1153.00,0.0200
1152.00,0.0197
1151.00,0.0193
1150.00,0.0186
1149.00,0.0179
1148.00,0.0172
1147.00,0.0165
1146.00,0.0158
1145.00,0.0152
1144.00,0.0146
1143.00,0.0142
1142.00,0.0137
1141.00,0.0133
1140.00,0.0130
1139.00,0.0127
1138.00,0.0126
1137.00,0.0124
1136.00,0.0122
1135.00,0.0121
1134.00,0.0120
1133.00,0.0121
1132.00,0.0121
1131.00,0.0122
1130.00,0.0123
1129.00,0.0125
1128.00,0.0128
1127.00,0.0131
1126.00,0.0134
1125.00,0.0137
1124.00,0.0140
1123.00,0.0143
1122.00,0.0145
1121.00,0.0147
1120.00,0.0150
1119.00,0.0152
1118.00,0.0153
1117.00,0.0155
1116.00,0.0157
1115.00,0.0158
1114.00,0.0160
1113.00,0.0162
1112.00,0.0163
1111.00,0.0165
1110.00,0.0168
1109.00,0.0171
1108.00,0.0175
1107.00,0.0181
1106.00,0.0186
1105.00,0.0191
1104.00,0.0194
1103.00,0.0196
1102.00,0.0194
1101.00,0.0190
1100.00,0.0183
1099.00,0.0176
1098.00,0.0169
1097.00,0.0163
1096.00,0.0158
1095.00,0.0153
1094.00,0.0149
1093.00,0.0144
1092.00,0.0140
1091.00,0.0136
1090.00,0.0133
1089.00,0.0131
1088.00,0.0130
1087.00,0.0130
1086.00,0.0130
1085.00,0.0129
1084.00,0.0127
1083.00,0.0125
1082.00,0.0122
1081.00,0.0121
1080.00,0.0119
1079.00,0.0117
1078.00,0.0116
1077.00,0.0114
1076.00,0.0112
1075.00,0.0110
1074.00,0.0109
1073.00,0.0108
1072.00,0.0107
1071.00,0.0107
1070.00,0.0106
1069.00,0.0107
1068.00,0.0107
1067.00,0.0108
1066.00,0.0109
1065.00,0.0110
1064.00,0.0110
1063.00,0.0111
1062.00,0.0113
1061.00,0.0114
1060.00,0.0115
1059.00,0.0115
1058.00,0.0115
1057.00,0.0115
1056.00,0.0115
1055.00,0.0117
1054.00,0.0120
1053.00,0.0124
1052.00,0.0128
1051.00,0.0133
1050.00,0.0138
1049.00,0.0143
1048.00,0.0149
1047.00,0.0154
1046.00,0.0158
1045.00,0.0161
1044.00,0.0162
1043.00,0.0162
1042.00,0.0160
1041.00,0.0159
1040.00,0.0159
1039.00,0.0159
1038.00,0.0160
1037.00,0.0161
1036.00,0.0161
1035.00,0.0161
1034.00,0.0160
1033.00,0.0157
1032.00,0.0155
1031.00,0.0154
1030.00,0.0153
1029.00,0.0153
1028.00,0.0153
1027.00,0.0153
1026.00,0.0154
1025.00,0.0156
1024.00,0.0157
1023.00,0.0159
1022.00,0.0162
1021.00,0.0163
1020.00,0.0165
1019.00,0.0165
1018.00,0.0166
1017.00,0.0166
1016.00,0.0165
1015.00,0.0165
1014.00,0.0164
1013.00,0.0164
1012.00,0.0164
1011.00,0.0163
1010.00,0.0163
1009.00,0.0164
1008.00,0.0165
1007.00,0.0167
1006.00,0.0171
1005.00,0.0179
1004.00,0.0191
1003.00,0.0209
1002.00,0.0234
1001.00,0.0265
1000.00,0.0297
999.00,0.0323
998.00,0.0334
997.00,0.0327
996.00,0.0304
995.00,0.0270
994.00,0.0235
993.00,0.0204
992.00,0.0180
991.00,0.0164
990.00,0.0152
989.00,0.0145
988.00,0.0140
987.00,0.0137
986.00,0.0135
985.00,0.0135
984.00,0.0138
983.00,0.0143
982.00,0.0151
981.00,0.0163
980.00,0.0181
979.00,0.0204
978.00,0.0234
977.00,0.0269
976.00,0.0306
975.00,0.0341
974.00,0.0365
973.00,0.0371
972.00,0.0356
971.00,0.0321
970.00,0.0276
969.00,0.0232
968.00,0.0194
967.00,0.0165
966.00,0.0144
965.00,0.0129
964.00,0.0118
963.00,0.0110
962.00,0.0104
961.00,0.0099
960.00,0.0095
959.00,0.0090
958.00,0.0086
957.00,0.0082
956.00,0.0079
955.00,0.0077
954.00,0.0075
953.00,0.0073
952.00,0.0072
951.00,0.0073
950.00,0.0073
949.00,0.0074
948.00,0.0074
947.00,0.0076
946.00,0.0079
945.00,0.0083
944.00,0.0087
943.00,0.0091
942.00,0.0095
941.00,0.0097
940.00,0.0097
939.00,0.0095
938.00,0.0091
937.00,0.0086
936.00,0.0082
935.00,0.0079
934.00,0.0077
933.00,0.0077
932.00,0.0077
931.00,0.0077
930.00,0.0077
929.00,0.0078
928.00,0.0078
927.00,0.0078
926.00,0.0077
925.00,0.0078
924.00,0.0079
923.00,0.0080
922.00,0.0081
921.00,0.0081
920.00,0.0082
919.00,0.0082
918.00,0.0082
917.00,0.0081
916.00,0.0082
915.00,0.0083
914.00,0.0085
913.00,0.0087
912.00,0.0088
911.00,0.0089
910.00,0.0091
909.00,0.0094
908.00,0.0098
907.00,0.0103
906.00,0.0110
905.00,0.0120
904.00,0.0133
903.00,0.0151
902.00,0.0170
901.00,0.0187
900.00,0.0199
899.00,0.0201
898.00,0.0192
897.00,0.0176
896.00,0.0157
895.00,0.0139
894.00,0.0125
893.00,0.0114
892.00,0.0107
891.00,0.0102
890.00,0.0099
889.00,0.0097
888.00,0.0096
887.00,0.0095
886.00,0.0095
885.00,0.0094
884.00,0.0093
883.00,0.0093
882.00,0.0094
881.00,0.0094
880.00,0.0094
879.00,0.0094
878.00,0.0095
877.00,0.0096
876.00,0.0097
875.00,0.0099
874.00,0.0100
873.00,0.0100
872.00,0.0099
871.00,0.0098
870.00,0.0096
869.00,0.0096
868.00,0.0096
867.00,0.0097
866.00,0.0098
865.00,0.0099
864.00,0.0100
863.00,0.0101
862.00,0.0102
861.00,0.0101
860.00,0.0101
859.00,0.0101
858.00,0.0102
857.00,0.0103
856.00,0.0103
855.00,0.0103
854.00,0.0105
853.00,0.0107
852.00,0.0111
851.00,0.0115
850.00,0.0118
849.00,0.0123
848.00,0.0129
847.00,0.0140
846.00,0.0159
845.00,0.0187
844.00,0.0226
843.00,0.0270
842.00,0.0305
841.00,0.0318
840.00,0.0300
839.00,0.0261
838.00,0.0216
837.00,0.0179
836.00,0.0154
835.00,0.0138
834.00,0.0129
833.00,0.0124
832.00,0.0120
831.00,0.0117
830.00,0.0114
829.00,0.0112
828.00,0.0111
827.00,0.0112
826.00,0.0112
825.00,0.0112
824.00,0.0112
823.00,0.0112
822.00,0.0112
821.00,0.0113
820.00,0.0115
819.00,0.0119
818.00,0.0125
817.00,0.0133
816.00,0.0141
815.00,0.0152
814.00,0.0167
813.00,0.0185
812.00,0.0206
811.00,0.0225
810.00,0.0239
809.00,0.0245
808.00,0.0241
807.00,0.0229
806.00,0.0212
805.00,0.0193
804.00,0.0177
803.00,0.0163
802.00,0.0153
801.00,0.0145
800.00,0.0139
799.00,0.0133
798.00,0.0128
797.00,0.0124
796.00,0.0121
795.00,0.0118
794.00,0.0115
793.00,0.0111
792.00,0.0107
791.00,0.0104
790.00,0.0103
789.00,0.0102
788.00,0.0101
787.00,0.0099
786.00,0.0097
785.00,0.0095
784.00,0.0094
783.00,0.0094
782.00,0.0095
781.00,0.0095
780.00,0.0095
779.00,0.0094
778.00,0.0092
777.00,0.0091
776.00,0.0090
775.00,0.0089
774.00,0.0089
773.00,0.0089
772.00,0.0090
771.00,0.0090
770.00,0.0091
769.00,0.0093
768.00,0.0094
767.00,0.0094
766.00,0.0094
765.00,0.0094
764.00,0.0094
763.00,0.0093
762.00,0.0092
761.00,0.0091
760.00,0.0090
759.00,0.0092
758.00,0.0095
757.00,0.0097
756.00,0.0099
755.00,0.0100
754.00,0.0101
753.00,0.0102
752.00,0.0102
751.00,0.0103
750.00,0.0104
749.00,0.0105
748.00,0.0108
747.00,0.0111
746.00,0.0115
745.00,0.0119
744.00,0.0123
743.00,0.0125
742.00,0.0128
741.00,0.0132
740.00,0.0136
739.00,0.0140
738.00,0.0145
737.00,0.0149
736.00,0.0154
735.00,0.0159
734.00,0.0165
733.00,0.0173
732.00,0.0180
731.00,0.0188
730.00,0.0193
729.00,0.0196
728.00,0.0198
727.00,0.0198
726.00,0.0200
725.00,0.0203
724.00,0.0209
723.00,0.0216
722.00,0.0223
721.00,0.0227
720.00,0.0226
719.00,0.0218
718.00,0.0205
717.00,0.0189
716.00,0.0175
715.00,0.0165
714.00,0.0156
713.00,0.0150
712.00,0.0146
711.00,0.0144
710.00,0.0143
709.00,0.0142
708.00,0.0143
707.00,0.0144
706.00,0.0145
705.00,0.0145
704.00,0.0144
703.00,0.0143
702.00,0.0141
701.00,0.0139
700.00,0.0137
699.00,0.0135
698.00,0.0134
697.00,0.0132
696.00,0.0131
695.00,0.0129
694.00,0.0128
693.00,0.0128
692.00,0.0130
691.00,0.0131
690.00,0.0132
689.00,0.0131
688.00,0.0130
687.00,0.0128
686.00,0.0126
685.00,0.0125
684.00,0.0125
683.00,0.0126
682.00,0.0128
681.00,0.0129
680.00,0.0129
679.00,0.0128
678.00,0.0128
677.00,0.0129
676.00,0.0130
675.00,0.0131
674.00,0.0134
673.00,0.0137
672.00,0.0141
671.00,0.0144
670.00,0.0145
669.00,0.0145
668.00,0.0144
667.00,0.0143
666.00,0.0139
665.00,0.0134
664.00,0.0129
663.00,0.0125
662.00,0.0122
661.00,0.0121
660.00,0.0122
659.00,0.0123
658.00,0.0123
657.00,0.0121
656.00,0.0119
655.00,0.0117
654.00,0.0116
653.00,0.0116
652.00,0.0115
651.00,0.0115
650.00,0.0115
649.00,0.0116
648.00,0.0118
647.00,0.0119
646.00,0.0119
645.00,0.0119
644.00,0.0120
643.00,0.0121
642.00,0.0121
641.00,0.0120
640.00,0.0119
639.00,0.0119
638.00,0.0120
637.00,0.0121
636.00,0.0120
635.00,0.0118
634.00,0.0115
633.00,0.0115
632.00,0.0117
631.00,0.0120
630.00,0.0121
629.00,0.0121
628.00,0.0122
627.00,0.0123
626.00,0.0125
625.00,0.0126
624.00,0.0125
623.00,0.0124
622.00,0.0123
621.00,0.0122
620.00,0.0122
619.00,0.0122
618.00,0.0124
617.00,0.0124
616.00,0.0124
615.00,0.0123
614.00,0.0122
613.00,0.0121
612.00,0.0120
611.00,0.0117
610.00,0.0115
609.00,0.0114
608.00,0.0116
607.00,0.0117
606.00,0.0117
605.00,0.0116
604.00,0.0114
603.00,0.0115
602.00,0.0117
601.00,0.0122
600.00,0.0124
599.00,0.0125
598.00,0.0123
597.00,0.0123
596.00,0.0124
595.00,0.0125
594.00,0.0125
593.00,0.0122
592.00,0.0118
591.00,0.0116
590.00,0.0116
589.00,0.0117
588.00,0.0119
587.00,0.0121
586.00,0.0123
585.00,0.0124
584.00,0.0126
583.00,0.0128
582.00,0.0129
581.00,0.0129
580.00,0.0127
579.00,0.0124
578.00,0.0121
577.00,0.0118
576.00,0.0114
575.00,0.0113
574.00,0.0112
573.00,0.0113
572.00,0.0115
571.00,0.0118
570.00,0.0121
569.00,0.0124
568.00,0.0125
567.00,0.0124
566.00,0.0123
565.00,0.0122
564.00,0.0120
563.00,0.0118
562.00,0.0116
561.00,0.0114
560.00,0.0114
559.00,0.0115
558.00,0.0117
557.00,0.0117
556.00,0.0116
555.00,0.0116
554.00,0.0118
553.00,0.0120
552.00,0.0123
551.00,0.0124
550.00,0.0125
549.00,0.0125
548.00,0.0126
547.00,0.0127
546.00,0.0127
545.00,0.0126
544.00,0.0123
543.00,0.0120
542.00,0.0121
541.00,0.0124
540.00,0.0130
539.00,0.0137
538.00,0.0144
537.00,0.0149
536.00,0.0150
535.00,0.0148
534.00,0.0148
533.00,0.0149
532.00,0.0150
531.00,0.0151
530.00,0.0150
529.00,0.0148
528.00,0.0143
527.00,0.0137
526.00,0.0131
525.00,0.0127
524.00,0.0127
523.00,0.0128
522.00,0.0128
521.00,0.0125
520.00,0.0122
519.00,0.0119
518.00,0.0119
517.00,0.0119
516.00,0.0119
515.00,0.0118
514.00,0.0116
513.00,0.0115
512.00,0.0117
511.00,0.0120
510.00,0.0123
509.00,0.0124
508.00,0.0121
507.00,0.0119
506.00,0.0120
505.00,0.0125
504.00,0.0128
503.00,0.0126
502.00,0.0119
501.00,0.0112
500.00,0.0107
499.00,0.0106
498.00,0.0107
497.00,0.0108
496.00,0.0111
495.00,0.0114
494.00,0.0118
493.00,0.0119
492.00,0.0115
491.00,0.0109
490.00,0.0106
489.00,0.0108
488.00,0.0114
487.00,0.0117
486.00,0.0115
485.00,0.0110
484.00,0.0102
483.00,0.0098
482.00,0.0102
481.00,0.0114
480.00,0.0129
479.00,0.0141
478.00,0.0147
477.00,0.0149
476.00,0.0153
475.00,0.0162
474.00,0.0172
473.00,0.0176
472.00,0.0173
471.00,0.0169
470.00,0.0171
469.00,0.0179
468.00,0.0190
467.00,0.0201
466.00,0.0206
465.00,0.0207
464.00,0.0203
463.00,0.0200
462.00,0.0202
461.00,0.0214
460.00,0.0234
459.00,0.0253
458.00,0.0260
457.00,0.0253
456.00,0.0241
455.00,0.0230
454.00,0.0220
453.00,0.0209
452.00,0.0197
451.00,0.0191
450.00,0.0189
