Created as New Dataset,Sample 090 By Administrator Date Thursday, September 04 2025
cm-1,A
4000.00,0.0010
3999.00,0.0010
3998.00,0.0010
3997.00,0.0010
3996.00,0.0010
3995.00,0.0010
3994.00,0.0010
3993.00,0.0010
3992.00,0.0010
3991.00,0.0010
3990.00,0.0010
3989.00,0.0009
3988.00,0.0009
3987.00,0.0009
3986.00,0.0008
3985.00,0.0009
3984.00,0.0008
3983.00,0.0008
3982.00,0.0008
3981.00,0.0008
3980.00,0.0008
3979.00,0.0008
3978.00,0.0008
3977.00,0.0008
3976.00,0.0008
3975.00,0.0008
3974.00,0.0008
3973.00,0.0007
3972.00,0.0007
3971.00,0.0007
3970.00,0.0008
3969.00,0.0008
3968.00,0.0008
3967.00,0.0009
3966.00,0.0009
3965.00,0.0009
3964.00,0.0008
3963.00,0.0008
3962.00,0.0008
3961.00,0.0008
3960.00,0.0008
3959.00,0.0008
3958.00,0.0008
3957.00,0.0008
3956.00,0.0008
3955.00,0.0008
3954.00,0.0008
3953.00,0.0007
3952.00,0.0007
3951.00,0.0007
3950.00,0.0007
3949.00,0.0007
3948.00,0.0007
3947.00,0.0007
3946.00,0.0008
3945.00,0.0008
3944.00,0.0008
3943.00,0.0008
3942.00,0.0007
3941.00,0.0007
3940.00,0.0007
3939.00,0.0007
3938.00,0.0007
3937.00,0.0008
3936.00,0.0008
3935.00,0.0008
3934.00,0.0007
3933.00,0.0007
3932.00,0.0007
3931.00,0.0007
3930.00,0.0007
3929.00,0.0008
3928.00,0.0008
3927.00,0.0008
3926.00,0.0008
3925.00,0.0008
3924.00,0.0007
3923.00,0.0007
3922.00,0.0007
3921.00,0.0007
3920.00,0.0007
3919.00,0.0007
3918.00,0.0007
3917.00,0.0007
3916.00,0.0007
3915.00,0.0007
3914.00,0.0007
3913.00,0.0008
3912.00,0.0008
3911.00,0.0009
3910.00,0.0009
3909.00,0.0009
3908.00,0.0009
3907.00,0.0008
3906.00,0.0008
3905.00,0.0007
3904.00,0.0006
3903.00,0.0006
3902.00,0.0006
3901.00,0.0005
3900.00,0.0005
3899.00,0.0005
3898.00,0.0005
3897.00,0.0005
3896.00,0.0006
3895.00,0.0006
3894.00,0.0006
3893.00,0.0006
3892.00,0.0006
3891.00,0.0006
3890.00,0.0006
3889.00,0.0006
3888.00,0.0007
3887.00,0.0007
3886.00,0.0007
3885.00,0.0007
3884.00,0.0007
3883.00,0.0007
3882.00,0.0007
3881.00,0.0007
3880.00,0.0007
3879.00,0.0007
3878.00,0.0008
3877.00,0.0008
3876.00,0.0008
3875.00,0.0007
3874.00,0.0007
3873.00,0.0007
3872.00,0.0007
3871.00,0.0007
3870.00,0.0007
3869.00,0.0006
3868.00,0.0006
3867.00,0.0006
3866.00,0.0006
3865.00,0.0006
3864.00,0.0007
3863.00,0.0007
3862.00,0.0007
3861.00,0.0007
3860.00,0.0007
3859.00,0.0007
3858.00,0.0008
3857.00,0.0008
3856.00,0.0007
3855.00,0.0007
3854.00,0.0006
3853.00,0.0006
3852.00,0.0006
3851.00,0.0006
3850.00,0.0007
3849.00,0.0007
3848.00,0.0007
3847.00,0.0007
3846.00,0.0007
3845.00,0.0007
3844.00,0.0007
3843.00,0.0007
3842.00,0.0007
3841.00,0.0007
3840.00,0.0007
3839.00,0.0007
3838.00,0.0007
3837.00,0.0007
3836.00,0.0007
3835.00,0.0007
3834.00,0.0007
3833.00,0.0007
3832.00,0.0007
3831.00,0.0007
3830.00,0.0007
3829.00,0.0007
3828.00,0.0007
3827.00,0.0007
3826.00,0.0007
3825.00,0.0007
3824.00,0.0007
3823.00,0.0007
3822.00,0.0007
3821.00,0.0007
3820.00,0.0007
3819.00,0.0008
3818.00,0.0008
3817.00,0.0008
3816.00,0.0009
3815.00,0.0008
3814.00,0.0008
3813.00,0.0008
3812.00,0.0008
3811.00,0.0008
3810.00,0.0007
3809.00,0.0007
3808.00,0.0007
3807.00,0.0007
3806.00,0.0007
3805.00,0.0007
3804.00,0.0007
3803.00,0.0007
3802.00,0.0007
3801.00,0.0007
3800.00,0.0007
3799.00,0.0007
3798.00,0.0007
3797.00,0.0007
3796.00,0.0007
3795.00,0.0007
3794.00,0.0006
3793.00,0.0006
3792.00,0.0006
3791.00,0.0006
3790.00,0.0007
3789.00,0.0007
3788.00,0.0007
3787.00,0.0007
3786.00,0.0007
3785.00,0.0007
3784.00,0.0007
3783.00,0.0007
3782.00,0.0008
3781.00,0.0008
3780.00,0.0009
3779.00,0.0008
3778.00,0.0008
3777.00,0.0008
3776.00,0.0008
3775.00,0.0008
3774.00,0.0008
3773.00,0.0008
3772.00,0.0008
3771.00,0.0008
3770.00,0.0008
3769.00,0.0008
3768.00,0.0008
3767.00,0.0008
3766.00,0.0007
3765.00,0.0007
3764.00,0.0007
3763.00,0.0007
3762.00,0.0007
3761.00,0.0007
3760.00,0.0008
3759.00,0.0008
3758.00,0.0008
3757.00,0.0008
3756.00,0.0008
3755.00,0.0008
3754.00,0.0008
3753.00,0.0008
3752.00,0.0008
3751.00,0.0007
3750.00,0.0006
3749.00,0.0006
3748.00,0.0006
3747.00,0.0006
3746.00,0.0006
3745.00,0.0006
3744.00,0.0005
3743.00,0.0005
3742.00,0.0005
3741.00,0.0006
3740.00,0.0006
3739.00,0.0006
3738.00,0.0005
3737.00,0.0005
3736.00,0.0006
3735.00,0.0006
3734.00,0.0006
3733.00,0.0006
3732.00,0.0006
3731.00,0.0006
3730.00,0.0006
3729.00,0.0006
3728.00,0.0006
3727.00,0.0006
3726.00,0.0005
3725.00,0.0005
3724.00,0.0005
3723.00,0.0006
3722.00,0.0006
3721.00,0.0006
3720.00,0.0006
3719.00,0.0006
3718.00,0.0006
3717.00,0.0007
3716.00,0.0007
3715.00,0.0007
3714.00,0.0007
3713.00,0.0007
3712.00,0.0007
3711.00,0.0007
3710.00,0.0007
3709.00,0.0006
3708.00,0.0006
3707.00,0.0006
3706.00,0.0006
3705.00,0.0006
3704.00,0.0007
3703.00,0.0007
3702.00,0.0007
3701.00,0.0007
3700.00,0.0006
3699.00,0.0006
3698.00,0.0006
3697.00,0.0006
3696.00,0.0006
3695.00,0.0007
3694.00,0.0007
3693.00,0.0007
3692.00,0.0008
3691.00,0.0007
3690.00,0.0007
3689.00,0.0006
3688.00,0.0006
3687.00,0.0005
3686.00,0.0005
3685.00,0.0006
3684.00,0.0006
3683.00,0.0006
3682.00,0.0007
3681.00,0.0008
3680.00,0.0008
3679.00,0.0009
3678.00,0.0010
3677.00,0.0011
3676.00,0.0010
3675.00,0.0010
3674.00,0.0009
3673.00,0.0008
3672.00,0.0008
3671.00,0.0009
3670.00,0.0009
3669.00,0.0009
3668.00,0.0009
3667.00,0.0008
3666.00,0.0008
3665.00,0.0008
3664.00,0.0008
3663.00,0.0008
3662.00,0.0007
3661.00,0.0007
3660.00,0.0007
3659.00,0.0008
3658.00,0.0008
3657.00,0.0009
3656.00,0.0009
3655.00,0.0009
3654.00,0.0009
3653.00,0.0009
3652.00,0.0008
3651.00,0.0008
3650.00,0.0008
3649.00,0.0008
3648.00,0.0008
3647.00,0.0008
3646.00,0.0008
3645.00,0.0008
3644.00,0.0008
3643.00,0.0008
3642.00,0.0008
3641.00,0.0008
3640.00,0.0008
3639.00,0.0008
3638.00,0.0008
3637.00,0.0008
3636.00,0.0007
3635.00,0.0007
3634.00,0.0006
3633.00,0.0006
3632.00,0.0006
3631.00,0.0005
3630.00,0.0005
3629.00,0.0005
3628.00,0.0005
3627.00,0.0005
3626.00,0.0006
3625.00,0.0006
3624.00,0.0006
3623.00,0.0006
3622.00,0.0007
3621.00,0.0007
3620.00,0.0007
3619.00,0.0007
3618.00,0.0007
3617.00,0.0007
3616.00,0.0008
3615.00,0.0008
3614.00,0.0008
3613.00,0.0008
3612.00,0.0008
3611.00,0.0007
3610.00,0.0007
3609.00,0.0007
3608.00,0.0007
3607.00,0.0006
3606.00,0.0006
3605.00,0.0007
3604.00,0.0007
3603.00,0.0007
3602.00,0.0007
3601.00,0.0008
3600.00,0.0008
3599.00,0.0008
3598.00,0.0007
3597.00,0.0007
3596.00,0.0006
3595.00,0.0007
3594.00,0.0007
3593.00,0.0008
3592.00,0.0008
3591.00,0.0008
3590.00,0.0008
3589.00,0.0008
3588.00,0.0008
3587.00,0.0008
3586.00,0.0008
3585.00,0.0009
3584.00,0.0009
3583.00,0.0009
3582.00,0.0009
3581.00,0.0009
3580.00,0.0009
3579.00,0.0009
3578.00,0.0010
3577.00,0.0010
3576.00,0.0011
3575.00,0.0011
3574.00,0.0011
3573.00,0.0011
3572.00,0.0011
3571.00,0.0012
3570.00,0.0012
3569.00,0.0012
3568.00,0.0012
3567.00,0.0012
3566.00,0.0012
3565.00,0.0012
3564.00,0.0012
3563.00,0.0012
3562.00,0.0012
3561.00,0.0012
3560.00,0.0012
3559.00,0.0013
3558.00,0.0013
3557.00,0.0013
3556.00,0.0014
3555.00,0.0013
3554.00,0.0013
3553.00,0.0013
3552.00,0.0013
3551.00,0.0013
3550.00,0.0012
3549.00,0.0012
3548.00,0.0012
3547.00,0.0012
3546.00,0.0013
3545.00,0.0013
3544.00,0.0014
3543.00,0.0014
3542.00,0.0014
3541.00,0.0013
3540.00,0.0014
3539.00,0.0014
3538.00,0.0014
3537.00,0.0015
3536.00,0.0015
3535.00,0.0016
3534.00,0.0016
3533.00,0.0016
3532.00,0.0016
3531.00,0.0016
3530.00,0.0016
3529.00,0.0016
3528.00,0.0016
3527.00,0.0016
3526.00,0.0015
3525.00,0.0015
3524.00,0.0015
3523.00,0.0015
3522.00,0.0016
3521.00,0.0017
3520.00,0.0017
3519.00,0.0017
3518.00,0.0017
3517.00,0.0018
3516.00,0.0018
3515.00,0.0018
3514.00,0.0019
3513.00,0.0019
3512.00,0.0019
3511.00,0.0019
3510.00,0.0019
3509.00,0.0019
3508.00,0.0018
3507.00,0.0018
3506.00,0.0019
3505.00,0.0019
3504.00,0.0019
3503.00,0.0020
3502.00,0.0020
3501.00,0.0020
3500.00,0.0021
3499.00,0.0021
3498.00,0.0021
3497.00,0.0021
3496.00,0.0021
3495.00,0.0021
3494.00,0.0021
3493.00,0.0021
3492.00,0.0021
3491.00,0.0021
3490.00,0.0021
3489.00,0.0022
3488.00,0.0023
3487.00,0.0023
3486.00,0.0023
3485.00,0.0023
3484.00,0.0023
3483.00,0.0023
3482.00,0.0023
3481.00,0.0024
3480.00,0.0024
3479.00,0.0024
3478.00,0.0024
3477.00,0.0024
3476.00,0.0024
3475.00,0.0024
3474.00,0.0024
3473.00,0.0024
3472.00,0.0024
3471.00,0.0024
3470.00,0.0025
3469.00,0.0025
3468.00,0.0025
3467.00,0.0025
3466.00,0.0025
3465.00,0.0025
3464.00,0.0025
3463.00,0.0026
3462.00,0.0027
3461.00,0.0027
3460.00,0.0027
3459.00,0.0027
3458.00,0.0027
3457.00,0.0027
3456.00,0.0027
3455.00,0.0027
3454.00,0.0027
3453.00,0.0027
3452.00,0.0028
3451.00,0.0028
3450.00,0.0028
3449.00,0.0028
3448.00,0.0028
3447.00,0.0028
3446.00,0.0028
3445.00,0.0029
3444.00,0.0029
3443.00,0.0029
3442.00,0.0030
3441.00,0.0030
3440.00,0.0030
3439.00,0.0030
3438.00,0.0030
3437.00,0.0030
3436.00,0.0030
3435.00,0.0030
3434.00,0.0030
3433.00,0.0030
3432.00,0.0030
3431.00,0.0030
3430.00,0.0031
3429.00,0.0031
3428.00,0.0032
3427.00,0.0032
3426.00,0.0032
3425.00,0.0032
3424.00,0.0031
3423.00,0.0031
3422.00,0.0032
3421.00,0.0033
3420.00,0.0033
3419.00,0.0034
3418.00,0.0034
3417.00,0.0034
3416.00,0.0034
3415.00,0.0034
3414.00,0.0034
3413.00,0.0034
3412.00,0.0034
3411.00,0.0034
3410.00,0.0034
3409.00,0.0034
3408.00,0.0034
3407.00,0.0034
3406.00,0.0035
3405.00,0.0035
3404.00,0.0035
3403.00,0.0035
3402.00,0.0035
3401.00,0.0035
3400.00,0.0035
3399.00,0.0035
3398.00,0.0035
3397.00,0.0036
3396.00,0.0036
3395.00,0.0036
3394.00,0.0036
3393.00,0.0036
3392.00,0.0036
3391.00,0.0035
3390.00,0.0035
3389.00,0.0035
3388.00,0.0035
3387.00,0.0035
3386.00,0.0036
3385.00,0.0036
3384.00,0.0036
3383.00,0.0036
3382.00,0.0036
3381.00,0.0036
3380.00,0.0036
3379.00,0.0036
3378.00,0.0036
3377.00,0.0036
3376.00,0.0036
3375.00,0.0037
3374.00,0.0037
3373.00,0.0038
3372.00,0.0038
3371.00,0.0038
3370.00,0.0037
3369.00,0.0037
3368.00,0.0037
3367.00,0.0036
3366.00,0.0036
3365.00,0.0037
3364.00,0.0037
3363.00,0.0037
3362.00,0.0037
3361.00,0.0037
3360.00,0.0038
3359.00,0.0038
3358.00,0.0039
3357.00,0.0039
3356.00,0.0039
3355.00,0.0039
3354.00,0.0039
3353.00,0.0039
3352.00,0.0039
3351.00,0.0038
3350.00,0.0038
3349.00,0.0039
3348.00,0.0039
3347.00,0.0039
3346.00,0.0039
3345.00,0.0039
3344.00,0.0040
3343.00,0.0040
3342.00,0.0040
3341.00,0.0039
3340.00,0.0039
3339.00,0.0039
3338.00,0.0039
3337.00,0.0039
3336.00,0.0039
3335.00,0.0039
3334.00,0.0039
3333.00,0.0038
3332.00,0.0038
3331.00,0.0038
3330.00,0.0038
3329.00,0.0038
3328.00,0.0038
3327.00,0.0039
3326.00,0.0039
3325.00,0.0039
3324.00,0.0039
3323.00,0.0039
3322.00,0.0038
3321.00,0.0038
3320.00,0.0038
3319.00,0.0038
3318.00,0.0038
3317.00,0.0038
3316.00,0.0039
3315.00,0.0039
3314.00,0.0039
3313.00,0.0039
3312.00,0.0039
3311.00,0.0039
3310.00,0.0039
3309.00,0.0039
3308.00,0.0040
3307.00,0.0040
3306.00,0.0040
3305.00,0.0040
3304.00,0.0041
3303.00,0.0041
3302.00,0.0042
3301.00,0.0042
3300.00,0.0042
3299.00,0.0041
3298.00,0.0041
3297.00,0.0040
3296.00,0.0040
3295.00,0.0040
3294.00,0.0040
3293.00,0.0039
3292.00,0.0039
3291.00,0.0039
3290.00,0.0038
3289.00,0.0038
3288.00,0.0038
3287.00,0.0037
3286.00,0.0037
3285.00,0.0037
3284.00,0.0036
3283.00,0.0036
3282.00,0.0036
3281.00,0.0036
3280.00,0.0036
3279.00,0.0036
3278.00,0.0036
3277.00,0.0035
3276.00,0.0035
3275.00,0.0035
3274.00,0.0036
3273.00,0.0036
3272.00,0.0036
3271.00,0.0036
3270.00,0.0036
3269.00,0.0036
3268.00,0.0036
3267.00,0.0035
3266.00,0.0035
3265.00,0.0035
3264.00,0.0034
3263.00,0.0034
3262.00,0.0034
3261.00,0.0034
3260.00,0.0034
3259.00,0.0034
3258.00,0.0034
3257.00,0.0034
3256.00,0.0034
3255.00,0.0034
3254.00,0.0034
3253.00,0.0034
3252.00,0.0034
3251.00,0.0034
3250.00,0.0034
3249.00,0.0034
3248.00,0.0034
3247.00,0.0034
3246.00,0.0034
3245.00,0.0034
3244.00,0.0034
3243.00,0.0033
3242.00,0.0033
3241.00,0.0032
3240.00,0.0032
3239.00,0.0032
3238.00,0.0032
3237.00,0.0032
3236.00,0.0033
3235.00,0.0033
3234.00,0.0033
3233.00,0.0033
3232.00,0.0033
3231.00,0.0032
3230.00,0.0032
3229.00,0.0032
3228.00,0.0033
3227.00,0.0033
3226.00,0.0034
3225.00,0.0034
3224.00,0.0035
3223.00,0.0035
3222.00,0.0035
3221.00,0.0035
3220.00,0.0035
3219.00,0.0036
3218.00,0.0036
3217.00,0.0036
3216.00,0.0037
3215.00,0.0037
3214.00,0.0037
3213.00,0.0037
3212.00,0.0037
3211.00,0.0037
3210.00,0.0036
3209.00,0.0037
3208.00,0.0037
3207.00,0.0037
3206.00,0.0037
3205.00,0.0037
3204.00,0.0037
3203.00,0.0037
3202.00,0.0038
3201.00,0.0038
3200.00,0.0038
3199.00,0.0038
3198.00,0.0038
3197.00,0.0038
3196.00,0.0038
3195.00,0.0038
3194.00,0.0038
3193.00,0.0039
3192.00,0.0039
3191.00,0.0039
3190.00,0.0039
3189.00,0.0039
3188.00,0.0039
3187.00,0.0038
3186.00,0.0038
3185.00,0.0037
3184.00,0.0037
3183.00,0.0037
3182.00,0.0036
3181.00,0.0036
3180.00,0.0036
3179.00,0.0036
3178.00,0.0036
3177.00,0.0036
3176.00,0.0036
3175.00,0.0036
3174.00,0.0035
3173.00,0.0035
3172.00,0.0035
3171.00,0.0035
3170.00,0.0035
3169.00,0.0035
3168.00,0.0034
3167.00,0.0034
3166.00,0.0034
3165.00,0.0034
3164.00,0.0034
3163.00,0.0035
3162.00,0.0035
3161.00,0.0035
3160.00,0.0035
3159.00,0.0034
3158.00,0.0035
3157.00,0.0035
3156.00,0.0035
3155.00,0.0035
3154.00,0.0034
3153.00,0.0034
3152.00,0.0034
3151.00,0.0034
3150.00,0.0034
3149.00,0.0034
3148.00,0.0034
3147.00,0.0034
3146.00,0.0034
3145.00,0.0034
3144.00,0.0034
3143.00,0.0034
3142.00,0.0034
3141.00,0.0034
3140.00,0.0034
3139.00,0.0034
3138.00,0.0034
3137.00,0.0033
3136.00,0.0033
3135.00,0.0032
3134.00,0.0032
3133.00,0.0032
3132.00,0.0032
3131.00,0.0032
3130.00,0.0031
3129.00,0.0031
3128.00,0.0031
3127.00,0.0031
3126.00,0.0031
3125.00,0.0030
3124.00,0.0030
3123.00,0.0030
3122.00,0.0030
3121.00,0.0030
3120.00,0.0030
3119.00,0.0030
3118.00,0.0030
3117.00,0.0030
3116.00,0.0029
3115.00,0.0029
3114.00,0.0029
3113.00,0.0029
3112.00,0.0029
3111.00,0.0028
3110.00,0.0028
3109.00,0.0029
3108.00,0.0029
3107.00,0.0029
3106.00,0.0029
3105.00,0.0029
3104.00,0.0029
3103.00,0.0028
3102.00,0.0028
3101.00,0.0028
3100.00,0.0028
3099.00,0.0028
3098.00,0.0028
3097.00,0.0028
3096.00,0.0028
3095.00,0.0028
3094.00,0.0028
3093.00,0.0027
3092.00,0.0027
3091.00,0.0027
3090.00,0.0027
3089.00,0.0027
3088.00,0.0027
3087.00,0.0027
3086.00,0.0027
3085.00,0.0027
3084.00,0.0027
3083.00,0.0027
3082.00,0.0027
3081.00,0.0027
3080.00,0.0027
3079.00,0.0027
3078.00,0.0027
3077.00,0.0027
3076.00,0.0028
3075.00,0.0028
3074.00,0.0028
3073.00,0.0028
3072.00,0.0028
3071.00,0.0027
3070.00,0.0027
3069.00,0.0027
3068.00,0.0027
3067.00,0.0028
3066.00,0.0029
3065.00,0.0029
3064.00,0.0030
3063.00,0.0030
3062.00,0.0030
3061.00,0.0030
3060.00,0.0030
3059.00,0.0030
3058.00,0.0030
3057.00,0.0030
3056.00,0.0030
3055.00,0.0030
3054.00,0.0030
3053.00,0.0030
3052.00,0.0031
3051.00,0.0031
3050.00,0.0032
3049.00,0.0032
3048.00,0.0032
3047.00,0.0032
3046.00,0.0032
3045.00,0.0032
3044.00,0.0032
3043.00,0.0032
3042.00,0.0033
3041.00,0.0033
3040.00,0.0034
3039.00,0.0034
3038.00,0.0034
3037.00,0.0035
3036.00,0.0035
3035.00,0.0035
3034.00,0.0035
3033.00,0.0035
3032.00,0.0036
3031.00,0.0036
3030.00,0.0037
3029.00,0.0037
3028.00,0.0038
3027.00,0.0038
3026.00,0.0039
3025.00,0.0040
3024.00,0.0041
3023.00,0.0042
3022.00,0.0043
3021.00,0.0043
3020.00,0.0043
3019.00,0.0044
3018.00,0.0045
3017.00,0.0046
3016.00,0.0047
3015.00,0.0049
3014.00,0.0051
3013.00,0.0052
3012.00,0.0054
3011.00,0.0056
3010.00,0.0058
3009.00,0.0060
3008.00,0.0063
3007.00,0.0065
3006.00,0.0068
3005.00,0.0070
3004.00,0.0073
3003.00,0.0077
3002.00,0.0080
3001.00,0.0083
3000.00,0.0087
2999.00,0.0090
2998.00,0.0094
2997.00,0.0098
2996.00,0.0102
2995.00,0.0106
2994.00,0.0111
2993.00,0.0116
2992.00,0.0122
2991.00,0.0128
2990.00,0.0135
2989.00,0.0143
2988.00,0.0151
2987.00,0.0161
2986.00,0.0172
2985.00,0.0185
2984.00,0.0200
2983.00,0.0217
2982.00,0.0234
2981.00,0.0251
2980.00,0.0270
2979.00,0.0290
2978.00,0.0314
2977.00,0.0341
2976.00,0.0373
2975.00,0.0410
2974.00,0.0454
2973.00,0.0504
2972.00,0.0560
2971.00,0.0623
2970.00,0.0692
2969.00,0.0768
2968.00,0.0851
2967.00,0.0941
2966.00,0.1035
2965.00,0.1131
2964.00,0.1225
2963.00,0.1310
2962.00,0.1383
2961.00,0.1440
2960.00,0.1482
2959.00,0.1512
2958.00,0.1540
2957.00,0.1572
2956.00,0.1616
2955.00,0.1674
2954.00,0.1746
2953.00,0.1823
2952.00,0.1893
2951.00,0.1942
2950.00,0.1956
2949.00,0.1926
2948.00,0.1853
2947.00,0.1745
2946.00,0.1616
2945.00,0.1482
2944.00,0.1357
2943.00,0.1250
2942.00,0.1167
2941.00,0.1110
2940.00,0.1077
2939.00,0.1066
2938.00,0.1075
2937.00,0.1102
2936.00,0.1145
2935.00,0.1203
2934.00,0.1276
2933.00,0.1361
2932.00,0.1458
2931.00,0.1565
2930.00,0.1679
2929.00,0.1798
2928.00,0.1917
2927.00,0.2036
2926.00,0.2151
2925.00,0.2263
2924.00,0.2373
2923.00,0.2483
2922.00,0.2591
2921.00,0.2695
2920.00,0.2787
2919.00,0.2855
2918.00,0.2887
2917.00,0.2874
2916.00,0.2817
2915.00,0.2724
2914.00,0.2610
2913.00,0.2490
2912.00,0.2374
2911.00,0.2271
2910.00,0.2180
2909.00,0.2102
2908.00,0.2031
2907.00,0.1964
2906.00,0.1897
2905.00,0.1829
2904.00,0.1760
2903.00,0.1689
2902.00,0.1620
2901.00,0.1552
2900.00,0.1486
2899.00,0.1423
2898.00,0.1364
2897.00,0.1310
2896.00,0.1262
2895.00,0.1220
2894.00,0.1184
2893.00,0.1154
2892.00,0.1131
2891.00,0.1114
2890.00,0.1102
2889.00,0.1095
2888.00,0.1091
2887.00,0.1090
2886.00,0.1092
2885.00,0.1098
2884.00,0.1107
2883.00,0.1120
2882.00,0.1136
2881.00,0.1155
2880.00,0.1172
2879.00,0.1186
2878.00,0.1193
2877.00,0.1192
2876.00,0.1185
2875.00,0.1177
2874.00,0.1173
2873.00,0.1175
2872.00,0.1184
2871.00,0.1201
2870.00,0.1223
2869.00,0.1243
2868.00,0.1256
2867.00,0.1254
2866.00,0.1230
2865.00,0.1183
2864.00,0.1118
2863.00,0.1043
2862.00,0.0967
2861.00,0.0901
2860.00,0.0849
2859.00,0.0813
2858.00,0.0792
2857.00,0.0785
2856.00,0.0788
2855.00,0.0798
2854.00,0.0815
2853.00,0.0835
2852.00,0.0856
2851.00,0.0876
2850.00,0.0892
2849.00,0.0905
2848.00,0.0917
2847.00,0.0933
2846.00,0.0957
2845.00,0.0991
2844.00,0.1036
2843.00,0.1089
2842.00,0.1143
2841.00,0.1192
2840.00,0.1228
2839.00,0.1242
2838.00,0.1228
2837.00,0.1184
2836.00,0.1112
2835.00,0.1019
2834.00,0.0914
2833.00,0.0807
2832.00,0.0708
2831.00,0.0620
2830.00,0.0546
2829.00,0.0485
2828.00,0.0436
2827.00,0.0395
2826.00,0.0363
2825.00,0.0335
2824.00,0.0313
2823.00,0.0293
2822.00,0.0277
2821.00,0.0262
2820.00,0.0249
2819.00,0.0238
2818.00,0.0229
2817.00,0.0220
2816.00,0.0212
2815.00,0.0205
2814.00,0.0198
2813.00,0.0192
2812.00,0.0186
2811.00,0.0181
2810.00,0.0176
2809.00,0.0171
2808.00,0.0165
2807.00,0.0159
2806.00,0.0152
2805.00,0.0146
2804.00,0.0139
2803.00,0.0133
2802.00,0.0128
2801.00,0.0123
2800.00,0.0119
2799.00,0.0116
2798.00,0.0114
2797.00,0.0111
2796.00,0.0109
2795.00,0.0107
2794.00,0.0104
2793.00,0.0101
2792.00,0.0098
2791.00,0.0095
2790.00,0.0091
2789.00,0.0088
2788.00,0.0085
2787.00,0.0082
2786.00,0.0080
2785.00,0.0077
2784.00,0.0075
2783.00,0.0072
2782.00,0.0070
2781.00,0.0069
2780.00,0.0067
2779.00,0.0065
2778.00,0.0063
2777.00,0.0062
2776.00,0.0061
2775.00,0.0059
2774.00,0.0058
2773.00,0.0058
2772.00,0.0057
2771.00,0.0057
2770.00,0.0056
2769.00,0.0056
2768.00,0.0055
2767.00,0.0055
2766.00,0.0054
2765.00,0.0054
2764.00,0.0054
2763.00,0.0054
2762.00,0.0054
2761.00,0.0054
2760.00,0.0054
2759.00,0.0053
2758.00,0.0053
2757.00,0.0052
2756.00,0.0052
2755.00,0.0052
2754.00,0.0052
2753.00,0.0052
2752.00,0.0052
2751.00,0.0051
2750.00,0.0051
2749.00,0.0051
2748.00,0.0051
2747.00,0.0051
2746.00,0.0052
2745.00,0.0052
2744.00,0.0053
2743.00,0.0054
2742.00,0.0054
2741.00,0.0055
2740.00,0.0056
2739.00,0.0057
2738.00,0.0059
2737.00,0.0060
2736.00,0.0062
2735.00,0.0063
2734.00,0.0065
2733.00,0.0066
2732.00,0.0068
2731.00,0.0070
2730.00,0.0072
2729.00,0.0074
2728.00,0.0077
2727.00,0.0080
2726.00,0.0083
2725.00,0.0085
2724.00,0.0087
2723.00,0.0087
2722.00,0.0086
2721.00,0.0085
2720.00,0.0082
2719.00,0.0079
2718.00,0.0076
2717.00,0.0073
2716.00,0.0070
2715.00,0.0067
2714.00,0.0064
2713.00,0.0062
2712.00,0.0060
2711.00,0.0058
2710.00,0.0056
2709.00,0.0055
2708.00,0.0054
2707.00,0.0052
2706.00,0.0051
2705.00,0.0050
2704.00,0.0049
2703.00,0.0048
2702.00,0.0048
2701.00,0.0047
2700.00,0.0046
2699.00,0.0045
2698.00,0.0045
2697.00,0.0044
2696.00,0.0044
2695.00,0.0045
2694.00,0.0045
2693.00,0.0045
2692.00,0.0045
2691.00,0.0045
2690.00,0.0045
2689.00,0.0045
2688.00,0.0045
2687.00,0.0045
2686.00,0.0045
2685.00,0.0045
2684.00,0.0045
2683.00,0.0045
2682.00,0.0045
2681.00,0.0045
2680.00,0.0045
2679.00,0.0045
2678.00,0.0045
2677.00,0.0045
2676.00,0.0045
2675.00,0.0045
2674.00,0.0045
2673.00,0.0045
2672.00,0.0044
2671.00,0.0044
2670.00,0.0044
2669.00,0.0045
2668.00,0.0045
2667.00,0.0045
2666.00,0.0046
2665.00,0.0046
2664.00,0.0047
2663.00,0.0047
2662.00,0.0048
2661.00,0.0048
2660.00,0.0048
2659.00,0.0048
2658.00,0.0048
2657.00,0.0048
2656.00,0.0048
2655.00,0.0048
2654.00,0.0047
2653.00,0.0046
2652.00,0.0046
2651.00,0.0045
2650.00,0.0045
2649.00,0.0044
2648.00,0.0044
2647.00,0.0043
2646.00,0.0043
2645.00,0.0043
2644.00,0.0042
2643.00,0.0042
2642.00,0.0041
2641.00,0.0041
2640.00,0.0040
2639.00,0.0040
2638.00,0.0039
2637.00,0.0039
2636.00,0.0039
2635.00,0.0039
2634.00,0.0039
2633.00,0.0039
2632.00,0.0039
2631.00,0.0039
2630.00,0.0039
2629.00,0.0039
2628.00,0.0039
2627.00,0.0040
2626.00,0.0040
2625.00,0.0040
2624.00,0.0040
2623.00,0.0040
2622.00,0.0040
2621.00,0.0040
2620.00,0.0040
2619.00,0.0040
2618.00,0.0040
2617.00,0.0040
2616.00,0.0039
2615.00,0.0039
2614.00,0.0039
2613.00,0.0039
2612.00,0.0038
2611.00,0.0037
2610.00,0.0036
2609.00,0.0036
2608.00,0.0035
2607.00,0.0035
2606.00,0.0034
2605.00,0.0033
2604.00,0.0032
2603.00,0.0031
2602.00,0.0030
2601.00,0.0030
2600.00,0.0030
2599.00,0.0030
2598.00,0.0030
2597.00,0.0031
2596.00,0.0031
2595.00,0.0031
2594.00,0.0031
2593.00,0.0032
2592.00,0.0032
2591.00,0.0033
2590.00,0.0035
2589.00,0.0036
2588.00,0.0036
2587.00,0.0037
2586.00,0.0037
2585.00,0.0038
2584.00,0.0039
2583.00,0.0039
2582.00,0.0039
2581.00,0.0039
2580.00,0.0038
2579.00,0.0037
2578.00,0.0036
2577.00,0.0035
2576.00,0.0034
2575.00,0.0032
2574.00,0.0031
2573.00,0.0029
2572.00,0.0028
2571.00,0.0027
2570.00,0.0026
2569.00,0.0026
2568.00,0.0026
2567.00,0.0026
2566.00,0.0026
2565.00,0.0026
2564.00,0.0026
2563.00,0.0025
2562.00,0.0025
2561.00,0.0023
2560.00,0.0023
2559.00,0.0022
2558.00,0.0022
2557.00,0.0023
2556.00,0.0023
2555.00,0.0023
2554.00,0.0022
2553.00,0.0022
2552.00,0.0021
2551.00,0.0021
2550.00,0.0020
2549.00,0.0019
2548.00,0.0018
2547.00,0.0017
2546.00,0.0017
2545.00,0.0017
2544.00,0.0018
2543.00,0.0019
2542.00,0.0019
2541.00,0.0019
2540.00,0.0018
2539.00,0.0018
2538.00,0.0017
2537.00,0.0016
2536.00,0.0016
2535.00,0.0015
2534.00,0.0016
2533.00,0.0016
2532.00,0.0016
2531.00,0.0016
2530.00,0.0015
2529.00,0.0015
2528.00,0.0015
2527.00,0.0015
2526.00,0.0015
2525.00,0.0015
2524.00,0.0015
2523.00,0.0014
2522.00,0.0013
2521.00,0.0013
2520.00,0.0012
2519.00,0.0012
2518.00,0.0012
2517.00,0.0011
2516.00,0.0011
2515.00,0.0011
2514.00,0.0011
2513.00,0.0011
2512.00,0.0011
2511.00,0.0011
2510.00,0.0011
2509.00,0.0011
2508.00,0.0011
2507.00,0.0011
2506.00,0.0010
2505.00,0.0010
2504.00,0.0010
2503.00,0.0011
2502.00,0.0011
2501.00,0.0011
2500.00,0.0011
2499.00,0.0010
2498.00,0.0010
2497.00,0.0010
2496.00,0.0010
2495.00,0.0010
2494.00,0.0010
2493.00,0.0011
2492.00,0.0011
2491.00,0.0011
2490.00,0.0011
2489.00,0.0011
2488.00,0.0011
2487.00,0.0011
2486.00,0.0011
2485.00,0.0010
2484.00,0.0010
2483.00,0.0010
2482.00,0.0010
2481.00,0.0010
2480.00,0.0010
2479.00,0.0010
2478.00,0.0010
2477.00,0.0010
2476.00,0.0010
2475.00,0.0010
2474.00,0.0009
2473.00,0.0009
2472.00,0.0009
2471.00,0.0009
2470.00,0.0009
2469.00,0.0009
2468.00,0.0009
2467.00,0.0009
2466.00,0.0009
2465.00,0.0009
2464.00,0.0009
2463.00,0.0010
2462.00,0.0010
2461.00,0.0010
2460.00,0.0009
2459.00,0.0009
2458.00,0.0009
2457.00,0.0009
2456.00,0.0009
2455.00,0.0010
2454.00,0.0010
2453.00,0.0010
2452.00,0.0011
2451.00,0.0011
2450.00,0.0011
2449.00,0.0011
2448.00,0.0011
2447.00,0.0011
2446.00,0.0010
2445.00,0.0010
2444.00,0.0010
2443.00,0.0009
2442.00,0.0010
2441.00,0.0010
2440.00,0.0010
2439.00,0.0011
2438.00,0.0012
2437.00,0.0012
2436.00,0.0012
2435.00,0.0012
2434.00,0.0012
2433.00,0.0012
2432.00,0.0013
2431.00,0.0013
2430.00,0.0012
2429.00,0.0012
2428.00,0.0012
2427.00,0.0012
2426.00,0.0012
2425.00,0.0012
2424.00,0.0012
2423.00,0.0012
2422.00,0.0012
2421.00,0.0012
2420.00,0.0011
2419.00,0.0011
2418.00,0.0011
2417.00,0.0010
2416.00,0.0010
2415.00,0.0009
2414.00,0.0009
2413.00,0.0009
2412.00,0.0009
2411.00,0.0010
2410.00,0.0010
2409.00,0.0010
2408.00,0.0009
2407.00,0.0009
2406.00,0.0008
2405.00,0.0008
2404.00,0.0008
2403.00,0.0008
2402.00,0.0008
2401.00,0.0008
2400.00,0.0008
2399.00,0.0008
2398.00,0.0009
2397.00,0.0009
2396.00,0.0008
2395.00,0.0008
2394.00,0.0008
2393.00,0.0007
2392.00,0.0007
2391.00,0.0007
2390.00,0.0007
2389.00,0.0007
2388.00,0.0007
2387.00,0.0007
2386.00,0.0007
2385.00,0.0007
2384.00,0.0006
2383.00,0.0006
2382.00,0.0005
2381.00,0.0005
2380.00,0.0004
2379.00,0.0004
2378.00,0.0004
2377.00,0.0004
2376.00,0.0004
2375.00,0.0005
2374.00,0.0006
2373.00,0.0006
2372.00,0.0006
2371.00,0.0005
2370.00,0.0005
2369.00,0.0004
2368.00,0.0004
2367.00,0.0004
2366.00,0.0004
2365.00,0.0004
2364.00,0.0005
2363.00,0.0005
2362.00,0.0006
2361.00,0.0007
2360.00,0.0007
2359.00,0.0008
2358.00,0.0007
2357.00,0.0007
2356.00,0.0007
2355.00,0.0007
2354.00,0.0007
2353.00,0.0007
2352.00,0.0007
2351.00,0.0007
2350.00,0.0007
2349.00,0.0008
2348.00,0.0007
2347.00,0.0007
2346.00,0.0007
2345.00,0.0008
2344.00,0.0009
2343.00,0.0010
2342.00,0.0010
2341.00,0.0010
2340.00,0.0010
2339.00,0.0010
2338.00,0.0009
2337.00,0.0009
2336.00,0.0009
2335.00,0.0008
2334.00,0.0008
2333.00,0.0008
2332.00,0.0009
2331.00,0.0009
2330.00,0.0009
2329.00,0.0009
2328.00,0.0011
2327.00,0.0014
2326.00,0.0018
2325.00,0.0021
2324.00,0.0022
2323.00,0.0021
2322.00,0.0019
2321.00,0.0017
2320.00,0.0016
2319.00,0.0015
2318.00,0.0014
2317.00,0.0014
2316.00,0.0013
2315.00,0.0013
2314.00,0.0012
2313.00,0.0012
2312.00,0.0010
2311.00,0.0010
2310.00,0.0009
2309.00,0.0009
2308.00,0.0010
2307.00,0.0010
2306.00,0.0011
2305.00,0.0011
2304.00,0.0010
2303.00,0.0010
2302.00,0.0011
2301.00,0.0012
2300.00,0.0012
2299.00,0.0012
2298.00,0.0012
2297.00,0.0012
2296.00,0.0013
2295.00,0.0013
2294.00,0.0015
2293.00,0.0016
2292.00,0.0017
2291.00,0.0018
2290.00,0.0018
2289.00,0.0018
2288.00,0.0018
2287.00,0.0018
2286.00,0.0018
2285.00,0.0017
2284.00,0.0016
2283.00,0.0015
2282.00,0.0014
2281.00,0.0014
2280.00,0.0015
2279.00,0.0016
2278.00,0.0017
2277.00,0.0017
2276.00,0.0016
2275.00,0.0015
2274.00,0.0015
2273.00,0.0015
2272.00,0.0015
2271.00,0.0015
2270.00,0.0014
2269.00,0.0013
2268.00,0.0013
2267.00,0.0013
2266.00,0.0013
2265.00,0.0013
2264.00,0.0013
2263.00,0.0012
2262.00,0.0012
2261.00,0.0012
2260.00,0.0013
2259.00,0.0013
2258.00,0.0012
2257.00,0.0011
2256.00,0.0010
2255.00,0.0009
2254.00,0.0009
2253.00,0.0009
2252.00,0.0008
2251.00,0.0008
2250.00,0.0008
2249.00,0.0008
2248.00,0.0009
2247.00,0.0009
2246.00,0.0009
2245.00,0.0009
2244.00,0.0009
2243.00,0.0007
2242.00,0.0006
2241.00,0.0006
2240.00,0.0007
2239.00,0.0008
2238.00,0.0009
2237.00,0.0010
2236.00,0.0011
2235.00,0.0010
2234.00,0.0009
2233.00,0.0007
2232.00,0.0007
2231.00,0.0007
2230.00,0.0008
2229.00,0.0009
2228.00,0.0010
2227.00,0.0010
2226.00,0.0008
2225.00,0.0006
2224.00,0.0004
2223.00,0.0002
2222.00,0.0001
2221.00,0.0001
2220.00,0.0002
2219.00,0.0002
2218.00,0.0003
2217.00,0.0003
2216.00,0.0004
2215.00,0.0004
2214.00,0.0004
2213.00,0.0005
2212.00,0.0007
2211.00,0.0009
2210.00,0.0010
2209.00,0.0011
2208.00,0.0011
2207.00,0.0010
2206.00,0.0008
2205.00,0.0007
2204.00,0.0005
2203.00,0.0004
2202.00,0.0002
2201.00,0.0002
2200.00,0.0002
2199.00,0.0003
2198.00,0.0005
2197.00,0.0006
2196.00,0.0005
2195.00,0.0005
2194.00,0.0005
2193.00,0.0007
2192.00,0.0010
2191.00,0.0011
2190.00,0.0012
2189.00,0.0012
2188.00,0.0012
2187.00,0.0013
2186.00,0.0012
2185.00,0.0011
2184.00,0.0008
2183.00,0.0004
2182.00,0.0001
2181.00,-0.0001
2180.00,-0.0001
2179.00,0.0001
2178.00,0.0003
2177.00,0.0005
2176.00,0.0005
2175.00,0.0005
2174.00,0.0005
2173.00,0.0006
2172.00,0.0007
2171.00,0.0007
2170.00,0.0009
2169.00,0.0011
2168.00,0.0014
2167.00,0.0015
2166.00,0.0014
2165.00,0.0013
2164.00,0.0012
2163.00,0.0010
2162.00,0.0007
2161.00,0.0002
2160.00,-0.0008
2159.00,-0.0019
2158.00,-0.0027
2157.00,-0.0030
2156.00,-0.0028
2155.00,-0.0024
2154.00,-0.0020
2153.00,-0.0017
2152.00,-0.0016
2151.00,-0.0016
2150.00,-0.0017
2149.00,-0.0018
2148.00,-0.0018
2147.00,-0.0018
2146.00,-0.0018
2145.00,-0.0018
2144.00,-0.0017
2143.00,-0.0015
2142.00,-0.0014
2141.00,-0.0013
2140.00,-0.0011
2139.00,-0.0010
2138.00,-0.0011
2137.00,-0.0015
2136.00,-0.0018
2135.00,-0.0021
2134.00,-0.0022
2133.00,-0.0022
2132.00,-0.0020
2131.00,-0.0017
2130.00,-0.0014
2129.00,-0.0012
2128.00,-0.0010
2127.00,-0.0008
2126.00,-0.0006
2125.00,-0.0005
2124.00,-0.0004
2123.00,-0.0004
2122.00,-0.0005
2121.00,-0.0005
2120.00,-0.0004
2119.00,-0.0003
2118.00,-0.0002
2117.00,-0.0000
2116.00,0.0002
2115.00,0.0003
2114.00,0.0004
2113.00,0.0003
2112.00,0.0003
2111.00,0.0002
2110.00,0.0001
2109.00,-0.0001
2108.00,-0.0002
2107.00,-0.0003
2106.00,-0.0002
2105.00,-0.0001
2104.00,0.0000
2103.00,0.0001
2102.00,0.0002
2101.00,0.0003
2100.00,0.0003
2099.00,0.0003
2098.00,0.0002
2097.00,0.0000
2096.00,-0.0002
2095.00,-0.0005
2094.00,-0.0007
2093.00,-0.0008
2092.00,-0.0006
2091.00,-0.0005
2090.00,-0.0002
2089.00,-0.0001
2088.00,0.0001
2087.00,0.0002
2086.00,0.0002
2085.00,0.0001
2084.00,0.0001
2083.00,-0.0000
2082.00,-0.0001
2081.00,-0.0002
2080.00,-0.0002
2079.00,-0.0001
2078.00,0.0000
2077.00,0.0001
2076.00,0.0003
2075.00,0.0003
2074.00,0.0004
2073.00,0.0003
2072.00,0.0003
2071.00,0.0002
2070.00,0.0002
2069.00,0.0002
2068.00,0.0001
2067.00,-0.0000
2066.00,-0.0003
2065.00,-0.0004
2064.00,-0.0004
2063.00,-0.0003
2062.00,-0.0002
2061.00,-0.0002
2060.00,-0.0002
2059.00,-0.0002
2058.00,-0.0003
2057.00,-0.0004
2056.00,-0.0006
2055.00,-0.0007
2054.00,-0.0006
2053.00,-0.0002
2052.00,0.0004
2051.00,0.0010
2050.00,0.0012
2049.00,0.0011
2048.00,0.0007
2047.00,0.0003
2046.00,-0.0001
2045.00,-0.0004
2044.00,-0.0006
2043.00,-0.0007
2042.00,-0.0007
2041.00,-0.0006
2040.00,-0.0003
2039.00,-0.0001
2038.00,0.0002
2037.00,0.0004
2036.00,0.0003
2035.00,0.0000
2034.00,-0.0003
2033.00,-0.0006
2032.00,-0.0008
2031.00,-0.0007
2030.00,-0.0006
2029.00,-0.0008
2028.00,-0.0011
2027.00,-0.0015
2026.00,-0.0018
2025.00,-0.0017
2024.00,-0.0014
2023.00,-0.0011
2022.00,-0.0009
2021.00,-0.0009
2020.00,-0.0011
2019.00,-0.0013
2018.00,-0.0013
2017.00,-0.0012
2016.00,-0.0010
2015.00,-0.0008
2014.00,-0.0008
2013.00,-0.0006
2012.00,-0.0006
2011.00,-0.0006
2010.00,-0.0008
2009.00,-0.0012
2008.00,-0.0017
2007.00,-0.0022
2006.00,-0.0025
2005.00,-0.0025
2004.00,-0.0023
2003.00,-0.0020
2002.00,-0.0016
2001.00,-0.0012
2000.00,-0.0009
1999.00,-0.0008
1998.00,-0.0010
1997.00,-0.0012
1996.00,-0.0014
1995.00,-0.0014
1994.00,-0.0013
1993.00,-0.0010
1992.00,-0.0007
1991.00,-0.0004
1990.00,-0.0003
1989.00,-0.0003
1988.00,-0.0005
1987.00,-0.0007
1986.00,-0.0008
1985.00,-0.0006
1984.00,-0.0002
1983.00,0.0002
1982.00,0.0005
1981.00,0.0008
1980.00,0.0009
1979.00,0.0005
1978.00,-0.0002
1977.00,-0.0007
1976.00,-0.0009
1975.00,-0.0008
1974.00,-0.0008
1973.00,-0.0011
1972.00,-0.0015
1971.00,-0.0019
1970.00,-0.0021
1969.00,-0.0021
1968.00,-0.0021
1967.00,-0.0021
1966.00,-0.0021
1965.00,-0.0021
1964.00,-0.0020
1963.00,-0.0019
1962.00,-0.0017
1961.00,-0.0015
1960.00,-0.0013
1959.00,-0.0013
1958.00,-0.0015
1957.00,-0.0016
1956.00,-0.0017
1955.00,-0.0018
1954.00,-0.0018
1953.00,-0.0018
1952.00,-0.0018
1951.00,-0.0017
1950.00,-0.0016
1949.00,-0.0016
1948.00,-0.0016
1947.00,-0.0016
1946.00,-0.0017
1945.00,-0.0018
1944.00,-0.0020
1943.00,-0.0021
1942.00,-0.0021
1941.00,-0.0020
1940.00,-0.0017
1939.00,-0.0015
1938.00,-0.0013
1937.00,-0.0012
1936.00,-0.0013
1935.00,-0.0013
1934.00,-0.0013
1933.00,-0.0012
1932.00,-0.0010
1931.00,-0.0009
1930.00,-0.0008
1929.00,-0.0008
1928.00,-0.0009
1927.00,-0.0009
1926.00,-0.0010
1925.00,-0.0010
1924.00,-0.0011
1923.00,-0.0011
1922.00,-0.0010
1921.00,-0.0009
1920.00,-0.0008
1919.00,-0.0007
1918.00,-0.0006
1917.00,-0.0005
1916.00,-0.0004
1915.00,-0.0004
1914.00,-0.0004
1913.00,-0.0004
1912.00,-0.0004
1911.00,-0.0003
1910.00,-0.0003
1909.00,-0.0002
1908.00,-0.0002
1907.00,-0.0002
1906.00,-0.0002
1905.00,-0.0001
1904.00,-0.0001
1903.00,-0.0001
1902.00,-0.0002
1901.00,-0.0003
1900.00,-0.0003
1899.00,-0.0003
1898.00,-0.0003
1897.00,-0.0003
1896.00,-0.0003
1895.00,-0.0004
1894.00,-0.0004
1893.00,-0.0004
1892.00,-0.0003
1891.00,-0.0003
1890.00,-0.0002
1889.00,-0.0002
1888.00,-0.0002
1887.00,-0.0002
1886.00,-0.0002
1885.00,-0.0002
1884.00,-0.0002
1883.00,-0.0002
1882.00,-0.0003
1881.00,-0.0003
1880.00,-0.0003
1879.00,-0.0002
1878.00,-0.0001
1877.00,-0.0000
1876.00,0.0000
1875.00,0.0000
1874.00,-0.0000
1873.00,-0.0001
1872.00,-0.0002
1871.00,-0.0002
1870.00,-0.0002
1869.00,-0.0002
1868.00,-0.0001
1867.00,0.0000
1866.00,0.0000
1865.00,-0.0000
1864.00,-0.0001
1863.00,-0.0001
1862.00,-0.0001
1861.00,-0.0001
1860.00,-0.0001
1859.00,-0.0001
1858.00,-0.0002
1857.00,-0.0002
1856.00,-0.0001
1855.00,-0.0001
1854.00,-0.0001
1853.00,-0.0001
1852.00,-0.0002
1851.00,-0.0002
1850.00,-0.0002
1849.00,-0.0002
1848.00,-0.0002
1847.00,-0.0001
1846.00,0.0001
1845.00,0.0002
1844.00,0.0002
1843.00,0.0001
1842.00,0.0000
1841.00,-0.0000
1840.00,-0.0000
1839.00,0.0001
1838.00,0.0002
1837.00,0.0002
1836.00,0.0002
1835.00,0.0002
1834.00,0.0002
1833.00,0.0002
1832.00,0.0003
1831.00,0.0003
1830.00,0.0004
1829.00,0.0004
1828.00,0.0004
1827.00,0.0003
1826.00,0.0004
1825.00,0.0004
1824.00,0.0004
1823.00,0.0004
1822.00,0.0003
1821.00,0.0003
1820.00,0.0002
1819.00,0.0001
1818.00,-0.0000
1817.00,-0.0001
1816.00,-0.0001
1815.00,-0.0000
1814.00,0.0000
1813.00,0.0001
1812.00,0.0001
1811.00,0.0002
1810.00,0.0002
1809.00,0.0002
1808.00,0.0002
1807.00,0.0003
1806.00,0.0003
1805.00,0.0003
1804.00,0.0004
1803.00,0.0004
1802.00,0.0004
1801.00,0.0004
1800.00,0.0004
1799.00,0.0004
1798.00,0.0004
1797.00,0.0004
1796.00,0.0005
1795.00,0.0005
1794.00,0.0006
1793.00,0.0006
1792.00,0.0006
1791.00,0.0006
1790.00,0.0005
1789.00,0.0005
1788.00,0.0005
1787.00,0.0005
1786.00,0.0005
1785.00,0.0006
1784.00,0.0007
1783.00,0.0007
1782.00,0.0007
1781.00,0.0008
1780.00,0.0008
1779.00,0.0008
1778.00,0.0008
1777.00,0.0008
1776.00,0.0008
1775.00,0.0007
1774.00,0.0007
1773.00,0.0008
1772.00,0.0008
1771.00,0.0009
1770.00,0.0009
1769.00,0.0009
1768.00,0.0009
1767.00,0.0009
1766.00,0.0009
1765.00,0.0009
1764.00,0.0009
1763.00,0.0009
1762.00,0.0009
1761.00,0.0010
1760.00,0.0010
1759.00,0.0010
1758.00,0.0011
1757.00,0.0012
1756.00,0.0012
1755.00,0.0013
1754.00,0.0014
1753.00,0.0014
1752.00,0.0014
1751.00,0.0014
1750.00,0.0015
1749.00,0.0015
1748.00,0.0016
1747.00,0.0016
1746.00,0.0017
1745.00,0.0017
1744.00,0.0018
1743.00,0.0018
1742.00,0.0019
1741.00,0.0020
1740.00,0.0021
1739.00,0.0021
1738.00,0.0022
1737.00,0.0022
1736.00,0.0023
1735.00,0.0023
1734.00,0.0023
1733.00,0.0022
1732.00,0.0022
1731.00,0.0022
1730.00,0.0023
1729.00,0.0023
1728.00,0.0023
1727.00,0.0023
1726.00,0.0024
1725.00,0.0024
1724.00,0.0025
1723.00,0.0025
1722.00,0.0025
1721.00,0.0025
1720.00,0.0025
1719.00,0.0025
1718.00,0.0024
1717.00,0.0023
1716.00,0.0023
1715.00,0.0022
1714.00,0.0022
1713.00,0.0022
1712.00,0.0022
1711.00,0.0022
1710.00,0.0022
1709.00,0.0022
1708.00,0.0022
1707.00,0.0022
1706.00,0.0022
1705.00,0.0023
1704.00,0.0024
1703.00,0.0024
1702.00,0.0024
1701.00,0.0024
1700.00,0.0024
1699.00,0.0024
1698.00,0.0024
1697.00,0.0025
1696.00,0.0026
1695.00,0.0027
1694.00,0.0028
1693.00,0.0028
1692.00,0.0028
1691.00,0.0028
1690.00,0.0028
1689.00,0.0029
1688.00,0.0030
1687.00,0.0029
1686.00,0.0029
1685.00,0.0029
1684.00,0.0029
1683.00,0.0031
1682.00,0.0032
1681.00,0.0033
1680.00,0.0033
1679.00,0.0034
1678.00,0.0034
1677.00,0.0035
1676.00,0.0035
1675.00,0.0036
1674.00,0.0036
1673.00,0.0037
1672.00,0.0038
1671.00,0.0039
1670.00,0.0040
1669.00,0.0041
1668.00,0.0041
1667.00,0.0041
1666.00,0.0041
1665.00,0.0041
1664.00,0.0041
1663.00,0.0041
1662.00,0.0042
1661.00,0.0043
1660.00,0.0043
1659.00,0.0044
1658.00,0.0045
1657.00,0.0046
1656.00,0.0047
1655.00,0.0047
1654.00,0.0047
1653.00,0.0048
1652.00,0.0048
1651.00,0.0048
1650.00,0.0048
1649.00,0.0048
1648.00,0.0049
1647.00,0.0051
1646.00,0.0052
1645.00,0.0054
1644.00,0.0054
1643.00,0.0055
1642.00,0.0056
1641.00,0.0057
1640.00,0.0058
1639.00,0.0059
1638.00,0.0060
1637.00,0.0060
1636.00,0.0060
1635.00,0.0060
1634.00,0.0059
1633.00,0.0058
1632.00,0.0057
1631.00,0.0056
1630.00,0.0056
1629.00,0.0055
1628.00,0.0055
1627.00,0.0055
1626.00,0.0055
1625.00,0.0055
1624.00,0.0055
1623.00,0.0055
1622.00,0.0055
1621.00,0.0054
1620.00,0.0053
1619.00,0.0052
1618.00,0.0052
1617.00,0.0052
1616.00,0.0053
1615.00,0.0053
1614.00,0.0053
1613.00,0.0053
1612.00,0.0053
1611.00,0.0053
1610.00,0.0053
1609.00,0.0054
1608.00,0.0054
1607.00,0.0054
1606.00,0.0054
1605.00,0.0054
1604.00,0.0054
1603.00,0.0054
1602.00,0.0054
1601.00,0.0054
1600.00,0.0054
1599.00,0.0054
1598.00,0.0053
1597.00,0.0053
1596.00,0.0053
1595.00,0.0053
1594.00,0.0054
1593.00,0.0054
1592.00,0.0055
1591.00,0.0055
1590.00,0.0055
1589.00,0.0055
1588.00,0.0056
1587.00,0.0057
1586.00,0.0059
1585.00,0.0060
1584.00,0.0062
1583.00,0.0064
1582.00,0.0066
1581.00,0.0068
1580.00,0.0070
1579.00,0.0072
1578.00,0.0073
1577.00,0.0073
1576.00,0.0073
1575.00,0.0072
1574.00,0.0070
1573.00,0.0069
1572.00,0.0068
1571.00,0.0068
1570.00,0.0067
1569.00,0.0066
1568.00,0.0065
1567.00,0.0064
1566.00,0.0063
1565.00,0.0063
1564.00,0.0063
1563.00,0.0062
1562.00,0.0062
1561.00,0.0062
1560.00,0.0062
1559.00,0.0062
1558.00,0.0063
1557.00,0.0063
1556.00,0.0063
1555.00,0.0064
1554.00,0.0064
1553.00,0.0065
1552.00,0.0066
1551.00,0.0067
1550.00,0.0068
1549.00,0.0070
1548.00,0.0071
1547.00,0.0072
1546.00,0.0074
1545.00,0.0076
1544.00,0.0078
1543.00,0.0081
1542.00,0.0082
1541.00,0.0083
1540.00,0.0081
1539.00,0.0077
1538.00,0.0073
1537.00,0.0071
1536.00,0.0069
1535.00,0.0067
1534.00,0.0064
1533.00,0.0061
1532.00,0.0059
1531.00,0.0058
1530.00,0.0056
1529.00,0.0055
1528.00,0.0055
1527.00,0.0054
1526.00,0.0054
1525.00,0.0055
1524.00,0.0055
1523.00,0.0055
1522.00,0.0055
1521.00,0.0056
1520.00,0.0056
1519.00,0.0056
1518.00,0.0055
1517.00,0.0055
1516.00,0.0055
1515.00,0.0055
1514.00,0.0055
1513.00,0.0056
1512.00,0.0057
1511.00,0.0057
1510.00,0.0058
1509.00,0.0058
1508.00,0.0059
1507.00,0.0059
1506.00,0.0059
1505.00,0.0060
1504.00,0.0062
1503.00,0.0064
1502.00,0.0065
1501.00,0.0068
1500.00,0.0071
1499.00,0.0073
1498.00,0.0075
1497.00,0.0078
1496.00,0.0081
1495.00,0.0083
1494.00,0.0086
1493.00,0.0089
1492.00,0.0093
1491.00,0.0097
1490.00,0.0100
1489.00,0.0105
1488.00,0.0111
1487.00,0.0116
1486.00,0.0122
1485.00,0.0128
1484.00,0.0135
1483.00,0.0143
1482.00,0.0152
1481.00,0.0164
1480.00,0.0177
1479.00,0.0190
1478.00,0.0206
1477.00,0.0228
1476.00,0.0254
1475.00,0.0284
1474.00,0.0324
1473.00,0.0380
1472.00,0.0446
1471.00,0.0510
1470.00,0.0573
1469.00,0.0639
1468.00,0.0711
1467.00,0.0790
1466.00,0.0879
1465.00,0.0973
1464.00,0.1055
1463.00,0.1111
1462.00,0.1147
1461.00,0.1171
1460.00,0.1187
1459.00,0.1197
1458.00,0.1203
1457.00,0.1207
1456.00,0.1204
1455.00,0.1194
1454.00,0.1181
1453.00,0.1163
1452.00,0.1136
1451.00,0.1099
1450.00,0.1048
1449.00,0.0979
1448.00,0.0891
1447.00,0.0796
1446.00,0.0710
1445.00,0.0635
1444.00,0.0571
1443.00,0.0518
1442.00,0.0479
1441.00,0.0452
1440.00,0.0435
1439.00,0.0428
1438.00,0.0428
1437.00,0.0429
1436.00,0.0421
1435.00,0.0397
1434.00,0.0362
1433.00,0.0320
1432.00,0.0276
1431.00,0.0236
1430.00,0.0205
1429.00,0.0182
1428.00,0.0166
1427.00,0.0155
1426.00,0.0149
1425.00,0.0143
1424.00,0.0138
1423.00,0.0136
1422.00,0.0134
1421.00,0.0131
1420.00,0.0128
1419.00,0.0125
1418.00,0.0123
1417.00,0.0120
1416.00,0.0117
1415.00,0.0116
1414.00,0.0116
1413.00,0.0115
1412.00,0.0114
1411.00,0.0114
1410.00,0.0114
1409.00,0.0113
1408.00,0.0113
1407.00,0.0113
1406.00,0.0114
1405.00,0.0113
1404.00,0.0113
1403.00,0.0114
1402.00,0.0116
1401.00,0.0118
1400.00,0.0119
1399.00,0.0122
1398.00,0.0125
1397.00,0.0127
1396.00,0.0130
1395.00,0.0134
1394.00,0.0140
1393.00,0.0145
1392.00,0.0150
1391.00,0.0157
1390.00,0.0167
1389.00,0.0181
1388.00,0.0201
1387.00,0.0232
1386.00,0.0274
1385.00,0.0330
1384.00,0.0406
1383.00,0.0512
1382.00,0.0655
1381.00,0.0840
1380.00,0.1072
1379.00,0.1340
1378.00,0.1605
1377.00,0.1806
1376.00,0.1882
1375.00,0.1796
1374.00,0.1575
1373.00,0.1303
1372.00,0.1052
1371.00,0.0843
1370.00,0.0678
1369.00,0.0553
1368.00,0.0467
1367.00,0.0414
1366.00,0.0384
1365.00,0.0372
1364.00,0.0374
1363.00,0.0386
1362.00,0.0407
1361.00,0.0429
1360.00,0.0447
1359.00,0.0452
1358.00,0.0441
1357.00,0.0415
1356.00,0.0379
1355.00,0.0339
1354.00,0.0300
1353.00,0.0267
1352.00,0.0240
1351.00,0.0218
1350.00,0.0200
1349.00,0.0186
1348.00,0.0174
1347.00,0.0163
1346.00,0.0155
1345.00,0.0147
1344.00,0.0141
1343.00,0.0135
1342.00,0.0130
1341.00,0.0126
1340.00,0.0123
1339.00,0.0122
1338.00,0.0121
1337.00,0.0121
1336.00,0.0122
1335.00,0.0123
1334.00,0.0126
1333.00,0.0129
1332.00,0.0133
1331.00,0.0136
1330.00,0.0137
1329.00,0.0135
1328.00,0.0132
1327.00,0.0127
1326.00,0.0122
1325.00,0.0116
1324.00,0.0111
1323.00,0.0106
1322.00,0.0103
1321.00,0.0100
1320.00,0.0097
1319.00,0.0096
1318.00,0.0095
1317.00,0.0094
1316.00,0.0093
1315.00,0.0092
1314.00,0.0091
1313.00,0.0091
1312.00,0.0092
1311.00,0.0094
1310.00,0.0098
1309.00,0.0104
1308.00,0.0113
1307.00,0.0124
1306.00,0.0135
1305.00,0.0142
1304.00,0.0144
1303.00,0.0141
1302.00,0.0135
1301.00,0.0130
1300.00,0.0127
1299.00,0.0126
1298.00,0.0127
1297.00,0.0127
1296.00,0.0127
1295.00,0.0125
1294.00,0.0121
1293.00,0.0116
1292.00,0.0111
1291.00,0.0106
1290.00,0.0101
1289.00,0.0098
1288.00,0.0096
1287.00,0.0094
1286.00,0.0092
1285.00,0.0090
1284.00,0.0088
1283.00,0.0087
1282.00,0.0086
1281.00,0.0085
1280.00,0.0084
1279.00,0.0084
1278.00,0.0084
1277.00,0.0083
1276.00,0.0083
1275.00,0.0083
1274.00,0.0083
1273.00,0.0084
1272.00,0.0086
1271.00,0.0088
1270.00,0.0090
1269.00,0.0093
1268.00,0.0096
1267.00,0.0100
1266.00,0.0104
1265.00,0.0108
1264.00,0.0111
1263.00,0.0115
1262.00,0.0118
1261.00,0.0122
1260.00,0.0126
1259.00,0.0132
1258.00,0.0138
1257.00,0.0143
1256.00,0.0144
1255.00,0.0142
1254.00,0.0135
1253.00,0.0127
1252.00,0.0118
1251.00,0.0110
1250.00,0.0105
1249.00,0.0100
1248.00,0.0097
1247.00,0.0095
1246.00,0.0093
1245.00,0.0091
1244.00,0.0089
1243.00,0.0088
1242.00,0.0087
1241.00,0.0086
1240.00,0.0085
1239.00,0.0084
1238.00,0.0083
1237.00,0.0083
1236.00,0.0082
1235.00,0.0083
1234.00,0.0083
1233.00,0.0083
1232.00,0.0083
1231.00,0.0084
1230.00,0.0085
1229.00,0.0086
1228.00,0.0087
1227.00,0.0088
1226.00,0.0090
1225.00,0.0093
1224.00,0.0097
1223.00,0.0100
1222.00,0.0104
1221.00,0.0106
1220.00,0.0107
1219.00,0.0107
1218.00,0.0106
1217.00,0.0103
1216.00,0.0101
1215.00,0.0098
1214.00,0.0095
1213.00,0.0092
1212.00,0.0089
1211.00,0.0087
1210.00,0.0086
1209.00,0.0084
1208.00,0.0083
1207.00,0.0082
1206.00,0.0082
1205.00,0.0082
1204.00,0.0082
1203.00,0.0082
1202.00,0.0081
1201.00,0.0081
1200.00,0.0081
1199.00,0.0081
1198.00,0.0081
1197.00,0.0082
1196.00,0.0083
1195.00,0.0083
1194.00,0.0084
1193.00,0.0084
1192.00,0.0083
1191.00,0.0082
1190.00,0.0082
1189.00,0.0082
1188.00,0.0082
1187.00,0.0084
1186.00,0.0085
1185.00,0.0086
1184.00,0.0087
1183.00,0.0089
1182.00,0.0091
1181.00,0.0094
1180.00,0.0098
1179.00,0.0103
1178.00,0.0109
1177.00,0.0118
1176.00,0.0128
1175.00,0.0143
1174.00,0.0161
1173.00,0.0186
1172.00,0.0215
1171.00,0.0248
1170.00,0.0281
1169.00,0.0308
1168.00,0.0324
1167.00,0.0327
1166.00,0.0319
1165.00,0.0304
1164.00,0.0286
1163.00,0.0269
1162.00,0.0255
1161.00,0.0242
1160.00,0.0233
1159.00,0.0225
1158.00,0.0219
1157.00,0.0215
1156.00,0.0213
1155.00,0.0212
1154.00,0.0211
1153.00,0.0209
1152.00,0.0205
1151.00,0.0198
1150.00,0.0189
1149.00,0.0179
1148.00,0.0168
1147.00,0.0159
1146.00,0.0150
1145.00,0.0141
1144.00,0.0134
1143.00,0.0127
1142.00,0.0121
1141.00,0.0115
1140.00,0.0111
1139.00,0.0107
1138.00,0.0103
1137.00,0.0099
1136.00,0.0096
1135.00,0.0094
1134.00,0.0092
1133.00,0.0091
1132.00,0.0091
1131.00,0.0091
1130.00,0.0091
1129.00,0.0092
1128.00,0.0092
1127.00,0.0093
1126.00,0.0094
1125.00,0.0093
1124.00,0.0092
1123.00,0.0092
1122.00,0.0093
1121.00,0.0094
1120.00,0.0095
1119.00,0.0096
1118.00,0.0097
1117.00,0.0098
1116.00,0.0099
1115.00,0.0100
1114.00,0.0101
1113.00,0.0103
1112.00,0.0106
1111.00,0.0109
1110.00,0.0113
1109.00,0.0116
1108.00,0.0120
1107.00,0.0125
1106.00,0.0131
1105.00,0.0137
1104.00,0.0143
1103.00,0.0146
1102.00,0.0146
1101.00,0.0142
1100.00,0.0136
1099.00,0.0130
1098.00,0.0125
1097.00,0.0121
1096.00,0.0117
1095.00,0.0114
1094.00,0.0112
1093.00,0.0110
1092.00,0.0108
1091.00,0.0107
1090.00,0.0106
1089.00,0.0104
1088.00,0.0103
1087.00,0.0101
1086.00,0.0100
1085.00,0.0100
1084.00,0.0099
1083.00,0.0100
1082.00,0.0100
1081.00,0.0100
1080.00,0.0099
1079.00,0.0099
1078.00,0.0098
1077.00,0.0097
1076.00,0.0097
1075.00,0.0097
1074.00,0.0096
1073.00,0.0095
1072.00,0.0094
1071.00,0.0093
1070.00,0.0093
1069.00,0.0093
1068.00,0.0093
1067.00,0.0094
1066.00,0.0094
1065.00,0.0093
1064.00,0.0093
1063.00,0.0093
1062.00,0.0093
1061.00,0.0094
1060.00,0.0095
1059.00,0.0097
1058.00,0.0098
1057.00,0.0100
1056.00,0.0101
1055.00,0.0103
1054.00,0.0104
1053.00,0.0105
1052.00,0.0108
1051.00,0.0112
1050.00,0.0117
1049.00,0.0121
1048.00,0.0126
1047.00,0.0130
1046.00,0.0133
1045.00,0.0135
1044.00,0.0135
1043.00,0.0134
1042.00,0.0132
1041.00,0.0130
1040.00,0.0129
1039.00,0.0128
1038.00,0.0128
1037.00,0.0128
1036.00,0.0129
1035.00,0.0128
1034.00,0.0126
1033.00,0.0124
1032.00,0.0121
1031.00,0.0119
1030.00,0.0119
1029.00,0.0119
1028.00,0.0120
1027.00,0.0122
1026.00,0.0124
1025.00,0.0126
1024.00,0.0128
1023.00,0.0130
1022.00,0.0132
1021.00,0.0134
1020.00,0.0136
1019.00,0.0138
1018.00,0.0139
1017.00,0.0139
1016.00,0.0139
1015.00,0.0139
1014.00,0.0139
1013.00,0.0139
1012.00,0.0140
1011.00,0.0141
1010.00,0.0141
1009.00,0.0142
1008.00,0.0144
1007.00,0.0148
1006.00,0.0154
1005.00,0.0163
1004.00,0.0177
1003.00,0.0198
1002.00,0.0227
1001.00,0.0265
1000.00,0.0305
999.00,0.0338
998.00,0.0354
997.00,0.0347
996.00,0.0319
995.00,0.0279
994.00,0.0238
993.00,0.0202
992.00,0.0175
991.00,0.0154
990.00,0.0140
989.00,0.0129
988.00,0.0122
987.00,0.0119
986.00,0.0119
985.00,0.0122
984.00,0.0125
983.00,0.0132
982.00,0.0142
981.00,0.0156
980.00,0.0177
979.00,0.0205
978.00,0.0242
977.00,0.0285
976.00,0.0331
975.00,0.0375
974.00,0.0407
973.00,0.0419
972.00,0.0406
971.00,0.0369
970.00,0.0319
969.00,0.0268
968.00,0.0223
967.00,0.0189
966.00,0.0164
965.00,0.0147
964.00,0.0135
963.00,0.0127
962.00,0.0121
961.00,0.0116
960.00,0.0111
959.00,0.0107
958.00,0.0104
957.00,0.0101
956.00,0.0099
955.00,0.0096
954.00,0.0094
953.00,0.0092
952.00,0.0090
951.00,0.0089
950.00,0.0089
949.00,0.0088
948.00,0.0088
947.00,0.0089
946.00,0.0090
945.00,0.0093
944.00,0.0095
943.00,0.0098
942.00,0.0101
941.00,0.0103
940.00,0.0102
939.00,0.0100
938.00,0.0096
937.00,0.0090
936.00,0.0084
935.00,0.0079
934.00,0.0074
933.00,0.0071
932.00,0.0069
931.00,0.0068
930.00,0.0068
929.00,0.0068
928.00,0.0066
927.00,0.0065
926.00,0.0063
925.00,0.0062
924.00,0.0062
923.00,0.0062
922.00,0.0062
921.00,0.0062
920.00,0.0063
919.00,0.0063
918.00,0.0064
917.00,0.0064
916.00,0.0065
915.00,0.0066
914.00,0.0066
913.00,0.0067
912.00,0.0067
911.00,0.0069
910.00,0.0071
909.00,0.0073
908.00,0.0077
907.00,0.0082
906.00,0.0089
905.00,0.0098
904.00,0.0111
903.00,0.0127
902.00,0.0144
901.00,0.0161
900.00,0.0173
899.00,0.0176
898.00,0.0170
897.00,0.0155
896.00,0.0137
895.00,0.0120
894.00,0.0106
893.00,0.0095
892.00,0.0088
891.00,0.0084
890.00,0.0080
889.00,0.0076
888.00,0.0073
887.00,0.0072
886.00,0.0071
885.00,0.0071
884.00,0.0071
883.00,0.0071
882.00,0.0071
881.00,0.0072
880.00,0.0072
879.00,0.0072
878.00,0.0072
877.00,0.0072
876.00,0.0073
875.00,0.0074
874.00,0.0076
873.00,0.0076
872.00,0.0076
871.00,0.0076
870.00,0.0076
869.00,0.0076
868.00,0.0076
867.00,0.0076
866.00,0.0077
865.00,0.0079
864.00,0.0080
863.00,0.0081
862.00,0.0082
861.00,0.0083
860.00,0.0084
859.00,0.0086
858.00,0.0088
857.00,0.0090
856.00,0.0092
855.00,0.0094
854.00,0.0096
853.00,0.0098
852.00,0.0100
851.00,0.0103
850.00,0.0108
849.00,0.0114
848.00,0.0122
847.00,0.0134
846.00,0.0152
845.00,0.0182
844.00,0.0226
843.00,0.0278
842.00,0.0323
841.00,0.0339
840.00,0.0320
839.00,0.0274
838.00,0.0222
837.00,0.0180
836.00,0.0151
835.00,0.0133
834.00,0.0122
833.00,0.0117
832.00,0.0114
831.00,0.0113
830.00,0.0111
829.00,0.0109
828.00,0.0108
827.00,0.0107
826.00,0.0107
825.00,0.0107
824.00,0.0108
823.00,0.0108
822.00,0.0109
821.00,0.0109
820.00,0.0111
819.00,0.0114
818.00,0.0118
817.00,0.0124
816.00,0.0131
815.00,0.0142
814.00,0.0157
813.00,0.0177
812.00,0.0198
811.00,0.0216
810.00,0.0228
809.00,0.0233
808.00,0.0229
807.00,0.0218
806.00,0.0202
805.00,0.0183
804.00,0.0165
803.00,0.0151
802.00,0.0140
801.00,0.0134
800.00,0.0129
799.00,0.0125
798.00,0.0119
797.00,0.0114
796.00,0.0109
795.00,0.0106
794.00,0.0103
793.00,0.0101
792.00,0.0098
791.00,0.0094
790.00,0.0090
789.00,0.0085
788.00,0.0082
787.00,0.0079
786.00,0.0076
785.00,0.0072
784.00,0.0070
783.00,0.0068
782.00,0.0067
781.00,0.0067
780.00,0.0067
779.00,0.0068
778.00,0.0068
777.00,0.0067
776.00,0.0066
775.00,0.0066
774.00,0.0067
773.00,0.0068
772.00,0.0069
771.00,0.0070
770.00,0.0069
769.00,0.0068
768.00,0.0066
767.00,0.0065
766.00,0.0064
765.00,0.0064
764.00,0.0065
763.00,0.0067
762.00,0.0069
761.00,0.0071
760.00,0.0072
759.00,0.0072
758.00,0.0072
757.00,0.0071
756.00,0.0071
755.00,0.0071
754.00,0.0071
753.00,0.0072
752.00,0.0075
751.00,0.0077
750.00,0.0078
749.00,0.0078
748.00,0.0077
747.00,0.0077
746.00,0.0079
745.00,0.0082
744.00,0.0084
743.00,0.0087
742.00,0.0089
741.00,0.0091
740.00,0.0095
739.00,0.0099
738.00,0.0103
737.00,0.0108
736.00,0.0112
735.00,0.0116
734.00,0.0121
733.00,0.0126
732.00,0.0131
731.00,0.0137
730.00,0.0142
729.00,0.0145
728.00,0.0147
727.00,0.0149
726.00,0.0152
725.00,0.0157
724.00,0.0164
723.00,0.0170
722.00,0.0176
721.00,0.0178
720.00,0.0177
719.00,0.0170
718.00,0.0159
717.00,0.0147
716.00,0.0136
715.00,0.0127
714.00,0.0120
713.00,0.0115
712.00,0.0111
711.00,0.0108
710.00,0.0107
709.00,0.0104
708.00,0.0102
707.00,0.0100
706.00,0.0101
705.00,0.0103
704.00,0.0104
703.00,0.0105
702.00,0.0103
701.00,0.0100
700.00,0.0098
699.00,0.0097
698.00,0.0096
697.00,0.0096
696.00,0.0095
695.00,0.0094
694.00,0.0095
693.00,0.0096
692.00,0.0096
691.00,0.0097
690.00,0.0099
689.00,0.0100
688.00,0.0100
687.00,0.0100
686.00,0.0098
685.00,0.0096
684.00,0.0095
683.00,0.0093
682.00,0.0093
681.00,0.0093
680.00,0.0094
679.00,0.0094
678.00,0.0095
677.00,0.0097
676.00,0.0099
675.00,0.0100
674.00,0.0101
673.00,0.0101
672.00,0.0102
671.00,0.0104
670.00,0.0107
669.00,0.0108
668.00,0.0107
667.00,0.0105
666.00,0.0103
665.00,0.0099
664.00,0.0096
663.00,0.0093
662.00,0.0091
661.00,0.0091
660.00,0.0090
659.00,0.0088
658.00,0.0086
657.00,0.0083
656.00,0.0082
655.00,0.0082
654.00,0.0083
653.00,0.0085
652.00,0.0086
651.00,0.0086
650.00,0.0085
649.00,0.0084
648.00,0.0083
647.00,0.0084
646.00,0.0085
645.00,0.0085
644.00,0.0085
643.00,0.0084
642.00,0.0083
641.00,0.0083
640.00,0.0083
639.00,0.0084
638.00,0.0085
637.00,0.0083
636.00,0.0081
635.00,0.0079
634.00,0.0077
633.00,0.0077
632.00,0.0078
631.00,0.0082
630.00,0.0085
629.00,0.0086
628.00,0.0087
627.00,0.0088
626.00,0.0090
625.00,0.0091
624.00,0.0093
623.00,0.0092
622.00,0.0090
621.00,0.0085
620.00,0.0079
619.00,0.0076
618.00,0.0077
617.00,0.0081
616.00,0.0084
615.00,0.0086
614.00,0.0086
613.00,0.0086
612.00,0.0086
611.00,0.0085
610.00,0.0086
609.00,0.0086
608.00,0.0087
607.00,0.0087
606.00,0.0086
605.00,0.0084
604.00,0.0082
603.00,0.0082
602.00,0.0082
601.00,0.0080
600.00,0.0079
599.00,0.0079
598.00,0.0082
597.00,0.0086
596.00,0.0088
595.00,0.0087
594.00,0.0085
593.00,0.0083
592.00,0.0081
591.00,0.0078
590.00,0.0077
589.00,0.0076
588.00,0.0077
587.00,0.0078
586.00,0.0080
585.00,0.0082
584.00,0.0083
583.00,0.0083
582.00,0.0082
581.00,0.0081
580.00,0.0081
579.00,0.0082
578.00,0.0084
577.00,0.0085
576.00,0.0085
575.00,0.0084
574.00,0.0083
573.00,0.0082
572.00,0.0081
571.00,0.0081
570.00,0.0082
569.00,0.0085
568.00,0.0088
567.00,0.0091
566.00,0.0093
565.00,0.0094
564.00,0.0093
563.00,0.0091
562.00,0.0087
561.00,0.0084
560.00,0.0080
559.00,0.0079
558.00,0.0080
557.00,0.0082
556.00,0.0084
555.00,0.0085
554.00,0.0085
553.00,0.0086
552.00,0.0087
551.00,0.0087
550.00,0.0088
549.00,0.0087
548.00,0.0086
547.00,0.0086
546.00,0.0086
545.00,0.0089
544.00,0.0094
543.00,0.0099
542.00,0.0102
541.00,0.0104
540.00,0.0104
539.00,0.0104
538.00,0.0105
537.00,0.0106
536.00,0.0107
535.00,0.0110
534.00,0.0114
533.00,0.0118
532.00,0.0119
531.00,0.0116
530.00,0.0109
529.00,0.0102
528.00,0.0098
527.00,0.0098
526.00,0.0100
525.00,0.0101
524.00,0.0101
523.00,0.0100
522.00,0.0098
521.00,0.0095
520.00,0.0093
519.00,0.0092
518.00,0.0092
517.00,0.0091
516.00,0.0090
515.00,0.0087
514.00,0.0085
513.00,0.0084
512.00,0.0084
511.00,0.0084
510.00,0.0084
509.00,0.0082
508.00,0.0078
507.00,0.0075
506.00,0.0075
505.00,0.0079
504.00,0.0083
503.00,0.0086
502.00,0.0086
501.00,0.0085
500.00,0.0084
499.00,0.0087
498.00,0.0091
497.00,0.0096
496.00,0.0098
495.00,0.0095
494.00,0.0090
493.00,0.0086
492.00,0.0084
491.00,0.0085
490.00,0.0087
489.00,0.0088
488.00,0.0088
487.00,0.0086
486.00,0.0081
485.00,0.0077
484.00,0.0075
483.00,0.0075
482.00,0.0075
481.00,0.0073
480.00,0.0073
479.00,0.0075
478.00,0.0081
477.00,0.0090
476.00,0.0100
475.00,0.0109
474.00,0.0117
473.00,0.0122
472.00,0.0126
471.00,0.0130
470.00,0.0135
469.00,0.0140
468.00,0.0148
467.00,0.0157
466.00,0.0164
465.00,0.0170
464.00,0.0175
463.00,0.0179
462.00,0.0182
461.00,0.0185
460.00,0.0189
459.00,0.0194
458.00,0.0195
457.00,0.0193
456.00,0.0190
455.00,0.0185
454.00,0.0174
453.00,0.0155
452.00,0.0137
451.00,0.0129
450.00,0.0132
