Created as New Dataset,Sample 051 By Administrator Date Thursday, September 04 2025
cm-1,A
4000.00,0.0010
3999.00,0.0010
3998.00,0.0010
3997.00,0.0010
3996.00,0.0010
3995.00,0.0010
3994.00,0.0010
3993.00,0.0010
3992.00,0.0010
3991.00,0.0010
3990.00,0.0010
3989.00,0.0010
3988.00,0.0009
3987.00,0.0009
3986.00,0.0009
3985.00,0.0009
3984.00,0.0009
3983.00,0.0009
3982.00,0.0009
3981.00,0.0009
3980.00,0.0009
3979.00,0.0009
3978.00,0.0009
3977.00,0.0009
3976.00,0.0008
3975.00,0.0008
3974.00,0.0008
3973.00,0.0007
3972.00,0.0008
3971.00,0.0008
3970.00,0.0008
3969.00,0.0008
3968.00,0.0008
3967.00,0.0008
3966.00,0.0008
3965.00,0.0008
3964.00,0.0009
3963.00,0.0009
3962.00,0.0009
3961.00,0.0009
3960.00,0.0009
3959.00,0.0009
3958.00,0.0009
3957.00,0.0009
3956.00,0.0009
3955.00,0.0008
3954.00,0.0008
3953.00,0.0008
3952.00,0.0008
3951.00,0.0008
3950.00,0.0008
3949.00,0.0008
3948.00,0.0008
3947.00,0.0008
3946.00,0.0009
3945.00,0.0009
3944.00,0.0009
3943.00,0.0008
3942.00,0.0008
3941.00,0.0008
3940.00,0.0008
3939.00,0.0008
3938.00,0.0008
3937.00,0.0009
3936.00,0.0009
3935.00,0.0009
3934.00,0.0009
3933.00,0.0009
3932.00,0.0009
3931.00,0.0009
3930.00,0.0009
3929.00,0.0009
3928.00,0.0009
3927.00,0.0009
3926.00,0.0009
3925.00,0.0009
3924.00,0.0009
3923.00,0.0009
3922.00,0.0010
3921.00,0.0010
3920.00,0.0009
3919.00,0.0009
3918.00,0.0009
3917.00,0.0009
3916.00,0.0008
3915.00,0.0008
3914.00,0.0008
3913.00,0.0008
3912.00,0.0008
3911.00,0.0008
3910.00,0.0008
3909.00,0.0008
3908.00,0.0008
3907.00,0.0008
3906.00,0.0008
3905.00,0.0008
3904.00,0.0008
3903.00,0.0008
3902.00,0.0009
3901.00,0.0009
3900.00,0.0009
3899.00,0.0009
3898.00,0.0009
3897.00,0.0009
3896.00,0.0009
3895.00,0.0009
3894.00,0.0009
3893.00,0.0008
3892.00,0.0008
3891.00,0.0008
3890.00,0.0008
3889.00,0.0008
3888.00,0.0008
3887.00,0.0008
3886.00,0.0008
3885.00,0.0008
3884.00,0.0008
3883.00,0.0009
3882.00,0.0010
3881.00,0.0009
3880.00,0.0009
3879.00,0.0009
3878.00,0.0009
3877.00,0.0009
3876.00,0.0008
3875.00,0.0008
3874.00,0.0008
3873.00,0.0008
3872.00,0.0008
3871.00,0.0008
3870.00,0.0008
3869.00,0.0008
3868.00,0.0008
3867.00,0.0009
3866.00,0.0009
3865.00,0.0008
3864.00,0.0009
3863.00,0.0009
3862.00,0.0009
3861.00,0.0009
3860.00,0.0009
3859.00,0.0008
3858.00,0.0007
3857.00,0.0006
3856.00,0.0006
3855.00,0.0006
3854.00,0.0006
3853.00,0.0007
3852.00,0.0008
3851.00,0.0008
3850.00,0.0008
3849.00,0.0008
3848.00,0.0008
3847.00,0.0008
3846.00,0.0008
3845.00,0.0008
3844.00,0.0008
3843.00,0.0008
3842.00,0.0008
3841.00,0.0008
3840.00,0.0008
3839.00,0.0008
3838.00,0.0008
3837.00,0.0008
3836.00,0.0008
3835.00,0.0008
3834.00,0.0008
3833.00,0.0008
3832.00,0.0008
3831.00,0.0008
3830.00,0.0008
3829.00,0.0008
3828.00,0.0008
3827.00,0.0008
3826.00,0.0008
3825.00,0.0008
3824.00,0.0008
3823.00,0.0008
3822.00,0.0008
3821.00,0.0008
3820.00,0.0007
3819.00,0.0007
3818.00,0.0007
3817.00,0.0007
3816.00,0.0007
3815.00,0.0008
3814.00,0.0008
3813.00,0.0008
3812.00,0.0009
3811.00,0.0009
3810.00,0.0008
3809.00,0.0008
3808.00,0.0008
3807.00,0.0007
3806.00,0.0007
3805.00,0.0008
3804.00,0.0008
3803.00,0.0008
3802.00,0.0008
3801.00,0.0008
3800.00,0.0008
3799.00,0.0008
3798.00,0.0008
3797.00,0.0008
3796.00,0.0008
3795.00,0.0008
3794.00,0.0008
3793.00,0.0008
3792.00,0.0008
3791.00,0.0008
3790.00,0.0008
3789.00,0.0008
3788.00,0.0008
3787.00,0.0008
3786.00,0.0008
3785.00,0.0008
3784.00,0.0008
3783.00,0.0008
3782.00,0.0008
3781.00,0.0008
3780.00,0.0008
3779.00,0.0007
3778.00,0.0007
3777.00,0.0007
3776.00,0.0008
3775.00,0.0008
3774.00,0.0008
3773.00,0.0008
3772.00,0.0009
3771.00,0.0009
3770.00,0.0009
3769.00,0.0009
3768.00,0.0008
3767.00,0.0008
3766.00,0.0008
3765.00,0.0008
3764.00,0.0008
3763.00,0.0009
3762.00,0.0009
3761.00,0.0009
3760.00,0.0009
3759.00,0.0008
3758.00,0.0008
3757.00,0.0007
3756.00,0.0007
3755.00,0.0007
3754.00,0.0007
3753.00,0.0007
3752.00,0.0007
3751.00,0.0007
3750.00,0.0008
3749.00,0.0008
3748.00,0.0008
3747.00,0.0008
3746.00,0.0008
3745.00,0.0008
3744.00,0.0008
3743.00,0.0008
3742.00,0.0008
3741.00,0.0008
3740.00,0.0008
3739.00,0.0008
3738.00,0.0008
3737.00,0.0008
3736.00,0.0007
3735.00,0.0007
3734.00,0.0006
3733.00,0.0005
3732.00,0.0005
3731.00,0.0005
3730.00,0.0005
3729.00,0.0005
3728.00,0.0005
3727.00,0.0005
3726.00,0.0006
3725.00,0.0006
3724.00,0.0006
3723.00,0.0005
3722.00,0.0005
3721.00,0.0005
3720.00,0.0005
3719.00,0.0005
3718.00,0.0006
3717.00,0.0006
3716.00,0.0006
3715.00,0.0006
3714.00,0.0007
3713.00,0.0007
3712.00,0.0007
3711.00,0.0007
3710.00,0.0007
3709.00,0.0006
3708.00,0.0006
3707.00,0.0006
3706.00,0.0006
3705.00,0.0006
3704.00,0.0006
3703.00,0.0005
3702.00,0.0004
3701.00,0.0004
3700.00,0.0005
3699.00,0.0006
3698.00,0.0006
3697.00,0.0007
3696.00,0.0007
3695.00,0.0006
3694.00,0.0006
3693.00,0.0006
3692.00,0.0006
3691.00,0.0006
3690.00,0.0006
3689.00,0.0006
3688.00,0.0007
3687.00,0.0007
3686.00,0.0007
3685.00,0.0007
3684.00,0.0006
3683.00,0.0006
3682.00,0.0007
3681.00,0.0007
3680.00,0.0009
3679.00,0.0010
3678.00,0.0011
3677.00,0.0011
3676.00,0.0010
3675.00,0.0010
3674.00,0.0010
3673.00,0.0011
3672.00,0.0011
3671.00,0.0010
3670.00,0.0010
3669.00,0.0009
3668.00,0.0010
3667.00,0.0010
3666.00,0.0009
3665.00,0.0009
3664.00,0.0009
3663.00,0.0009
3662.00,0.0008
3661.00,0.0008
3660.00,0.0008
3659.00,0.0009
3658.00,0.0009
3657.00,0.0009
3656.00,0.0009
3655.00,0.0009
3654.00,0.0009
3653.00,0.0010
3652.00,0.0010
3651.00,0.0011
3650.00,0.0011
3649.00,0.0010
3648.00,0.0010
3647.00,0.0010
3646.00,0.0010
3645.00,0.0010
3644.00,0.0010
3643.00,0.0010
3642.00,0.0009
3641.00,0.0009
3640.00,0.0009
3639.00,0.0009
3638.00,0.0009
3637.00,0.0010
3636.00,0.0010
3635.00,0.0010
3634.00,0.0010
3633.00,0.0010
3632.00,0.0009
3631.00,0.0010
3630.00,0.0010
3629.00,0.0010
3628.00,0.0011
3627.00,0.0011
3626.00,0.0011
3625.00,0.0011
3624.00,0.0011
3623.00,0.0011
3622.00,0.0011
3621.00,0.0011
3620.00,0.0011
3619.00,0.0011
3618.00,0.0011
3617.00,0.0011
3616.00,0.0012
3615.00,0.0012
3614.00,0.0012
3613.00,0.0011
3612.00,0.0011
3611.00,0.0011
3610.00,0.0012
3609.00,0.0012
3608.00,0.0013
3607.00,0.0014
3606.00,0.0014
3605.00,0.0014
3604.00,0.0014
3603.00,0.0014
3602.00,0.0013
3601.00,0.0013
3600.00,0.0013
3599.00,0.0013
3598.00,0.0013
3597.00,0.0012
3596.00,0.0012
3595.00,0.0012
3594.00,0.0012
3593.00,0.0013
3592.00,0.0014
3591.00,0.0014
3590.00,0.0015
3589.00,0.0015
3588.00,0.0015
3587.00,0.0015
3586.00,0.0015
3585.00,0.0016
3584.00,0.0016
3583.00,0.0017
3582.00,0.0017
3581.00,0.0018
3580.00,0.0018
3579.00,0.0018
3578.00,0.0018
3577.00,0.0018
3576.00,0.0019
3575.00,0.0019
3574.00,0.0019
3573.00,0.0019
3572.00,0.0019
3571.00,0.0019
3570.00,0.0020
3569.00,0.0020
3568.00,0.0020
3567.00,0.0020
3566.00,0.0020
3565.00,0.0020
3564.00,0.0020
3563.00,0.0021
3562.00,0.0021
3561.00,0.0022
3560.00,0.0022
3559.00,0.0022
3558.00,0.0023
3557.00,0.0023
3556.00,0.0023
3555.00,0.0023
3554.00,0.0023
3553.00,0.0023
3552.00,0.0023
3551.00,0.0024
3550.00,0.0025
3549.00,0.0025
3548.00,0.0026
3547.00,0.0027
3546.00,0.0027
3545.00,0.0027
3544.00,0.0027
3543.00,0.0026
3542.00,0.0026
3541.00,0.0026
3540.00,0.0027
3539.00,0.0027
3538.00,0.0028
3537.00,0.0028
3536.00,0.0028
3535.00,0.0029
3534.00,0.0029
3533.00,0.0029
3532.00,0.0029
3531.00,0.0029
3530.00,0.0029
3529.00,0.0030
3528.00,0.0030
3527.00,0.0031
3526.00,0.0031
3525.00,0.0031
3524.00,0.0031
3523.00,0.0031
3522.00,0.0031
3521.00,0.0031
3520.00,0.0032
3519.00,0.0032
3518.00,0.0032
3517.00,0.0033
3516.00,0.0033
3515.00,0.0033
3514.00,0.0033
3513.00,0.0034
3512.00,0.0034
3511.00,0.0034
3510.00,0.0035
3509.00,0.0035
3508.00,0.0036
3507.00,0.0036
3506.00,0.0037
3505.00,0.0037
3504.00,0.0037
3503.00,0.0037
3502.00,0.0037
3501.00,0.0038
3500.00,0.0038
3499.00,0.0038
3498.00,0.0039
3497.00,0.0039
3496.00,0.0039
3495.00,0.0039
3494.00,0.0040
3493.00,0.0040
3492.00,0.0040
3491.00,0.0040
3490.00,0.0040
3489.00,0.0041
3488.00,0.0041
3487.00,0.0042
3486.00,0.0042
3485.00,0.0042
3484.00,0.0043
3483.00,0.0043
3482.00,0.0043
3481.00,0.0044
3480.00,0.0044
3479.00,0.0044
3478.00,0.0044
3477.00,0.0045
3476.00,0.0045
3475.00,0.0046
3474.00,0.0046
3473.00,0.0047
3472.00,0.0047
3471.00,0.0047
3470.00,0.0047
3469.00,0.0047
3468.00,0.0047
3467.00,0.0047
3466.00,0.0047
3465.00,0.0048
3464.00,0.0048
3463.00,0.0048
3462.00,0.0048
3461.00,0.0048
3460.00,0.0048
3459.00,0.0049
3458.00,0.0049
3457.00,0.0049
3456.00,0.0049
3455.00,0.0049
3454.00,0.0049
3453.00,0.0049
3452.00,0.0050
3451.00,0.0050
3450.00,0.0051
3449.00,0.0051
3448.00,0.0051
3447.00,0.0051
3446.00,0.0051
3445.00,0.0052
3444.00,0.0052
3443.00,0.0053
3442.00,0.0053
3441.00,0.0054
3440.00,0.0054
3439.00,0.0054
3438.00,0.0054
3437.00,0.0055
3436.00,0.0055
3435.00,0.0055
3434.00,0.0055
3433.00,0.0056
3432.00,0.0056
3431.00,0.0056
3430.00,0.0056
3429.00,0.0056
3428.00,0.0056
3427.00,0.0056
3426.00,0.0056
3425.00,0.0057
3424.00,0.0057
3423.00,0.0057
3422.00,0.0057
3421.00,0.0058
3420.00,0.0058
3419.00,0.0058
3418.00,0.0058
3417.00,0.0059
3416.00,0.0059
3415.00,0.0059
3414.00,0.0059
3413.00,0.0059
3412.00,0.0059
3411.00,0.0059
3410.00,0.0059
3409.00,0.0060
3408.00,0.0060
3407.00,0.0061
3406.00,0.0062
3405.00,0.0062
3404.00,0.0062
3403.00,0.0062
3402.00,0.0061
3401.00,0.0061
3400.00,0.0061
3399.00,0.0061
3398.00,0.0062
3397.00,0.0062
3396.00,0.0062
3395.00,0.0062
3394.00,0.0062
3393.00,0.0062
3392.00,0.0063
3391.00,0.0063
3390.00,0.0063
3389.00,0.0063
3388.00,0.0063
3387.00,0.0063
3386.00,0.0063
3385.00,0.0063
3384.00,0.0063
3383.00,0.0063
3382.00,0.0063
3381.00,0.0063
3380.00,0.0063
3379.00,0.0064
3378.00,0.0064
3377.00,0.0064
3376.00,0.0065
3375.00,0.0065
3374.00,0.0065
3373.00,0.0065
3372.00,0.0065
3371.00,0.0065
3370.00,0.0065
3369.00,0.0065
3368.00,0.0066
3367.00,0.0066
3366.00,0.0066
3365.00,0.0067
3364.00,0.0067
3363.00,0.0067
3362.00,0.0067
3361.00,0.0067
3360.00,0.0066
3359.00,0.0066
3358.00,0.0066
3357.00,0.0066
3356.00,0.0066
3355.00,0.0067
3354.00,0.0067
3353.00,0.0067
3352.00,0.0067
3351.00,0.0067
3350.00,0.0067
3349.00,0.0067
3348.00,0.0068
3347.00,0.0068
3346.00,0.0068
3345.00,0.0068
3344.00,0.0068
3343.00,0.0068
3342.00,0.0068
3341.00,0.0068
3340.00,0.0068
3339.00,0.0067
3338.00,0.0067
3337.00,0.0067
3336.00,0.0067
3335.00,0.0067
3334.00,0.0067
3333.00,0.0067
3332.00,0.0067
3331.00,0.0067
3330.00,0.0067
3329.00,0.0067
3328.00,0.0067
3327.00,0.0066
3326.00,0.0066
3325.00,0.0066
3324.00,0.0066
3323.00,0.0066
3322.00,0.0066
3321.00,0.0066
3320.00,0.0066
3319.00,0.0066
3318.00,0.0066
3317.00,0.0066
3316.00,0.0066
3315.00,0.0066
3314.00,0.0066
3313.00,0.0067
3312.00,0.0067
3311.00,0.0067
3310.00,0.0068
3309.00,0.0068
3308.00,0.0068
3307.00,0.0068
3306.00,0.0068
3305.00,0.0068
3304.00,0.0069
3303.00,0.0069
3302.00,0.0068
3301.00,0.0068
3300.00,0.0068
3299.00,0.0067
3298.00,0.0067
3297.00,0.0066
3296.00,0.0066
3295.00,0.0066
3294.00,0.0066
3293.00,0.0066
3292.00,0.0066
3291.00,0.0065
3290.00,0.0065
3289.00,0.0064
3288.00,0.0064
3287.00,0.0063
3286.00,0.0063
3285.00,0.0063
3284.00,0.0063
3283.00,0.0063
3282.00,0.0062
3281.00,0.0061
3280.00,0.0061
3279.00,0.0061
3278.00,0.0061
3277.00,0.0061
3276.00,0.0061
3275.00,0.0061
3274.00,0.0060
3273.00,0.0060
3272.00,0.0060
3271.00,0.0060
3270.00,0.0060
3269.00,0.0060
3268.00,0.0059
3267.00,0.0059
3266.00,0.0059
3265.00,0.0058
3264.00,0.0058
3263.00,0.0058
3262.00,0.0057
3261.00,0.0057
3260.00,0.0057
3259.00,0.0057
3258.00,0.0056
3257.00,0.0056
3256.00,0.0056
3255.00,0.0056
3254.00,0.0055
3253.00,0.0055
3252.00,0.0055
3251.00,0.0055
3250.00,0.0054
3249.00,0.0054
3248.00,0.0054
3247.00,0.0053
3246.00,0.0054
3245.00,0.0054
3244.00,0.0054
3243.00,0.0054
3242.00,0.0054
3241.00,0.0054
3240.00,0.0054
3239.00,0.0054
3238.00,0.0054
3237.00,0.0054
3236.00,0.0054
3235.00,0.0054
3234.00,0.0054
3233.00,0.0054
3232.00,0.0054
3231.00,0.0054
3230.00,0.0054
3229.00,0.0054
3228.00,0.0054
3227.00,0.0054
3226.00,0.0054
3225.00,0.0054
3224.00,0.0054
3223.00,0.0054
3222.00,0.0054
3221.00,0.0054
3220.00,0.0055
3219.00,0.0055
3218.00,0.0055
3217.00,0.0055
3216.00,0.0055
3215.00,0.0054
3214.00,0.0054
3213.00,0.0055
3212.00,0.0055
3211.00,0.0055
3210.00,0.0056
3209.00,0.0056
3208.00,0.0056
3207.00,0.0056
3206.00,0.0057
3205.00,0.0057
3204.00,0.0057
3203.00,0.0057
3202.00,0.0057
3201.00,0.0057
3200.00,0.0057
3199.00,0.0056
3198.00,0.0056
3197.00,0.0056
3196.00,0.0056
3195.00,0.0055
3194.00,0.0055
3193.00,0.0056
3192.00,0.0056
3191.00,0.0056
3190.00,0.0055
3189.00,0.0055
3188.00,0.0055
3187.00,0.0055
3186.00,0.0054
3185.00,0.0054
3184.00,0.0054
3183.00,0.0054
3182.00,0.0054
3181.00,0.0054
3180.00,0.0054
3179.00,0.0054
3178.00,0.0053
3177.00,0.0053
3176.00,0.0052
3175.00,0.0052
3174.00,0.0052
3173.00,0.0051
3172.00,0.0051
3171.00,0.0051
3170.00,0.0051
3169.00,0.0051
3168.00,0.0051
3167.00,0.0051
3166.00,0.0050
3165.00,0.0050
3164.00,0.0050
3163.00,0.0050
3162.00,0.0050
3161.00,0.0049
3160.00,0.0049
3159.00,0.0049
3158.00,0.0049
3157.00,0.0049
3156.00,0.0049
3155.00,0.0049
3154.00,0.0049
3153.00,0.0049
3152.00,0.0049
3151.00,0.0049
3150.00,0.0049
3149.00,0.0049
3148.00,0.0049
3147.00,0.0049
3146.00,0.0049
3145.00,0.0049
3144.00,0.0048
3143.00,0.0048
3142.00,0.0047
3141.00,0.0047
3140.00,0.0047
3139.00,0.0047
3138.00,0.0047
3137.00,0.0047
3136.00,0.0047
3135.00,0.0047
3134.00,0.0047
3133.00,0.0047
3132.00,0.0046
3131.00,0.0046
3130.00,0.0045
3129.00,0.0045
3128.00,0.0044
3127.00,0.0044
3126.00,0.0043
3125.00,0.0042
3124.00,0.0042
3123.00,0.0042
3122.00,0.0042
3121.00,0.0042
3120.00,0.0042
3119.00,0.0042
3118.00,0.0042
3117.00,0.0041
3116.00,0.0041
3115.00,0.0040
3114.00,0.0040
3113.00,0.0040
3112.00,0.0040
3111.00,0.0040
3110.00,0.0040
3109.00,0.0040
3108.00,0.0040
3107.00,0.0040
3106.00,0.0039
3105.00,0.0039
3104.00,0.0039
3103.00,0.0038
3102.00,0.0038
3101.00,0.0038
3100.00,0.0039
3099.00,0.0039
3098.00,0.0039
3097.00,0.0039
3096.00,0.0038
3095.00,0.0038
3094.00,0.0038
3093.00,0.0038
3092.00,0.0038
3091.00,0.0038
3090.00,0.0038
3089.00,0.0037
3088.00,0.0037
3087.00,0.0037
3086.00,0.0037
3085.00,0.0037
3084.00,0.0037
3083.00,0.0037
3082.00,0.0037
3081.00,0.0037
3080.00,0.0037
3079.00,0.0037
3078.00,0.0037
3077.00,0.0037
3076.00,0.0037
3075.00,0.0037
3074.00,0.0037
3073.00,0.0037
3072.00,0.0037
3071.00,0.0037
3070.00,0.0037
3069.00,0.0037
3068.00,0.0037
3067.00,0.0038
3066.00,0.0038
3065.00,0.0038
3064.00,0.0038
3063.00,0.0038
3062.00,0.0038
3061.00,0.0038
3060.00,0.0038
3059.00,0.0038
3058.00,0.0038
3057.00,0.0038
3056.00,0.0038
3055.00,0.0038
3054.00,0.0039
3053.00,0.0039
3052.00,0.0039
3051.00,0.0040
3050.00,0.0040
3049.00,0.0041
3048.00,0.0041
3047.00,0.0041
3046.00,0.0041
3045.00,0.0041
3044.00,0.0040
3043.00,0.0040
3042.00,0.0040
3041.00,0.0041
3040.00,0.0041
3039.00,0.0042
3038.00,0.0042
3037.00,0.0042
3036.00,0.0042
3035.00,0.0043
3034.00,0.0043
3033.00,0.0043
3032.00,0.0043
3031.00,0.0044
3030.00,0.0044
3029.00,0.0045
3028.00,0.0046
3027.00,0.0046
3026.00,0.0047
3025.00,0.0047
3024.00,0.0048
3023.00,0.0049
3022.00,0.0049
3021.00,0.0050
3020.00,0.0051
3019.00,0.0052
3018.00,0.0053
3017.00,0.0054
3016.00,0.0055
3015.00,0.0056
3014.00,0.0058
3013.00,0.0059
3012.00,0.0060
3011.00,0.0062
3010.00,0.0064
3009.00,0.0066
3008.00,0.0068
3007.00,0.0070
3006.00,0.0072
3005.00,0.0074
3004.00,0.0076
3003.00,0.0079
3002.00,0.0082
3001.00,0.0085
3000.00,0.0088
2999.00,0.0091
2998.00,0.0095
2997.00,0.0099
2996.00,0.0103
2995.00,0.0107
2994.00,0.0112
2993.00,0.0116
2992.00,0.0122
2991.00,0.0128
2990.00,0.0134
2989.00,0.0141
2988.00,0.0150
2987.00,0.0159
2986.00,0.0170
2985.00,0.0182
2984.00,0.0195
2983.00,0.0210
2982.00,0.0227
2981.00,0.0245
2980.00,0.0264
2979.00,0.0285
2978.00,0.0309
2977.00,0.0338
2976.00,0.0371
2975.00,0.0409
2974.00,0.0453
2973.00,0.0503
2972.00,0.0560
2971.00,0.0625
2970.00,0.0696
2969.00,0.0774
2968.00,0.0860
2967.00,0.0953
2966.00,0.1051
2965.00,0.1153
2964.00,0.1253
2963.00,0.1347
2962.00,0.1429
2961.00,0.1494
2960.00,0.1542
2959.00,0.1574
2958.00,0.1599
2957.00,0.1623
2956.00,0.1655
2955.00,0.1700
2954.00,0.1756
2953.00,0.1816
2952.00,0.1870
2951.00,0.1905
2950.00,0.1908
2949.00,0.1872
2948.00,0.1798
2947.00,0.1693
2946.00,0.1571
2945.00,0.1444
2944.00,0.1327
2943.00,0.1226
2942.00,0.1149
2941.00,0.1096
2940.00,0.1067
2939.00,0.1059
2938.00,0.1070
2937.00,0.1097
2936.00,0.1140
2935.00,0.1196
2934.00,0.1266
2933.00,0.1348
2932.00,0.1441
2931.00,0.1543
2930.00,0.1652
2929.00,0.1764
2928.00,0.1876
2927.00,0.1986
2926.00,0.2093
2925.00,0.2196
2924.00,0.2296
2923.00,0.2395
2922.00,0.2492
2921.00,0.2584
2920.00,0.2664
2919.00,0.2721
2918.00,0.2745
2917.00,0.2731
2916.00,0.2677
2915.00,0.2593
2914.00,0.2491
2913.00,0.2383
2912.00,0.2281
2911.00,0.2189
2910.00,0.2110
2909.00,0.2041
2908.00,0.1979
2907.00,0.1920
2906.00,0.1860
2905.00,0.1797
2904.00,0.1732
2903.00,0.1665
2902.00,0.1599
2901.00,0.1533
2900.00,0.1469
2899.00,0.1408
2898.00,0.1350
2897.00,0.1297
2896.00,0.1249
2895.00,0.1207
2894.00,0.1172
2893.00,0.1142
2892.00,0.1118
2891.00,0.1101
2890.00,0.1088
2889.00,0.1079
2888.00,0.1073
2887.00,0.1071
2886.00,0.1072
2885.00,0.1075
2884.00,0.1083
2883.00,0.1094
2882.00,0.1108
2881.00,0.1124
2880.00,0.1139
2879.00,0.1150
2878.00,0.1154
2877.00,0.1152
2876.00,0.1145
2875.00,0.1138
2874.00,0.1134
2873.00,0.1137
2872.00,0.1147
2871.00,0.1163
2870.00,0.1183
2869.00,0.1203
2868.00,0.1215
2867.00,0.1213
2866.00,0.1191
2865.00,0.1148
2864.00,0.1088
2863.00,0.1019
2862.00,0.0950
2861.00,0.0890
2860.00,0.0844
2859.00,0.0814
2858.00,0.0797
2857.00,0.0792
2856.00,0.0797
2855.00,0.0809
2854.00,0.0826
2853.00,0.0846
2852.00,0.0867
2851.00,0.0885
2850.00,0.0900
2849.00,0.0911
2848.00,0.0922
2847.00,0.0936
2846.00,0.0958
2845.00,0.0991
2844.00,0.1035
2843.00,0.1086
2842.00,0.1138
2841.00,0.1184
2840.00,0.1216
2839.00,0.1228
2838.00,0.1213
2837.00,0.1169
2836.00,0.1098
2835.00,0.1006
2834.00,0.0903
2833.00,0.0799
2832.00,0.0702
2831.00,0.0616
2830.00,0.0544
2829.00,0.0485
2828.00,0.0436
2827.00,0.0397
2826.00,0.0365
2825.00,0.0337
2824.00,0.0314
2823.00,0.0295
2822.00,0.0278
2821.00,0.0264
2820.00,0.0251
2819.00,0.0240
2818.00,0.0230
2817.00,0.0221
2816.00,0.0213
2815.00,0.0206
2814.00,0.0200
2813.00,0.0194
2812.00,0.0189
2811.00,0.0184
2810.00,0.0178
2809.00,0.0173
2808.00,0.0167
2807.00,0.0161
2806.00,0.0154
2805.00,0.0148
2804.00,0.0142
2803.00,0.0136
2802.00,0.0132
2801.00,0.0128
2800.00,0.0124
2799.00,0.0121
2798.00,0.0118
2797.00,0.0115
2796.00,0.0112
2795.00,0.0110
2794.00,0.0108
2793.00,0.0105
2792.00,0.0102
2791.00,0.0099
2790.00,0.0096
2789.00,0.0092
2788.00,0.0089
2787.00,0.0086
2786.00,0.0083
2785.00,0.0081
2784.00,0.0078
2783.00,0.0076
2782.00,0.0074
2781.00,0.0071
2780.00,0.0070
2779.00,0.0068
2778.00,0.0067
2777.00,0.0065
2776.00,0.0064
2775.00,0.0063
2774.00,0.0062
2773.00,0.0061
2772.00,0.0061
2771.00,0.0060
2770.00,0.0059
2769.00,0.0059
2768.00,0.0059
2767.00,0.0058
2766.00,0.0058
2765.00,0.0057
2764.00,0.0057
2763.00,0.0056
2762.00,0.0056
2761.00,0.0056
2760.00,0.0056
2759.00,0.0055
2758.00,0.0055
2757.00,0.0055
2756.00,0.0055
2755.00,0.0054
2754.00,0.0054
2753.00,0.0054
2752.00,0.0054
2751.00,0.0054
2750.00,0.0053
2749.00,0.0053
2748.00,0.0054
2747.00,0.0054
2746.00,0.0054
2745.00,0.0055
2744.00,0.0055
2743.00,0.0056
2742.00,0.0057
2741.00,0.0058
2740.00,0.0059
2739.00,0.0061
2738.00,0.0062
2737.00,0.0063
2736.00,0.0064
2735.00,0.0065
2734.00,0.0066
2733.00,0.0068
2732.00,0.0070
2731.00,0.0072
2730.00,0.0074
2729.00,0.0076
2728.00,0.0078
2727.00,0.0080
2726.00,0.0083
2725.00,0.0085
2724.00,0.0086
2723.00,0.0087
2722.00,0.0086
2721.00,0.0085
2720.00,0.0082
2719.00,0.0080
2718.00,0.0076
2717.00,0.0073
2716.00,0.0071
2715.00,0.0068
2714.00,0.0066
2713.00,0.0064
2712.00,0.0062
2711.00,0.0060
2710.00,0.0058
2709.00,0.0057
2708.00,0.0056
2707.00,0.0054
2706.00,0.0054
2705.00,0.0053
2704.00,0.0052
2703.00,0.0051
2702.00,0.0050
2701.00,0.0049
2700.00,0.0048
2699.00,0.0047
2698.00,0.0047
2697.00,0.0047
2696.00,0.0047
2695.00,0.0047
2694.00,0.0047
2693.00,0.0047
2692.00,0.0047
2691.00,0.0047
2690.00,0.0047
2689.00,0.0047
2688.00,0.0047
2687.00,0.0048
2686.00,0.0048
2685.00,0.0048
2684.00,0.0048
2683.00,0.0048
2682.00,0.0048
2681.00,0.0047
2680.00,0.0047
2679.00,0.0047
2678.00,0.0047
2677.00,0.0048
2676.00,0.0048
2675.00,0.0047
2674.00,0.0047
2673.00,0.0047
2672.00,0.0047
2671.00,0.0047
2670.00,0.0047
2669.00,0.0047
2668.00,0.0047
2667.00,0.0047
2666.00,0.0047
2665.00,0.0048
2664.00,0.0048
2663.00,0.0049
2662.00,0.0049
2661.00,0.0049
2660.00,0.0049
2659.00,0.0050
2658.00,0.0050
2657.00,0.0050
2656.00,0.0049
2655.00,0.0049
2654.00,0.0048
2653.00,0.0047
2652.00,0.0047
2651.00,0.0046
2650.00,0.0046
2649.00,0.0045
2648.00,0.0045
2647.00,0.0044
2646.00,0.0044
2645.00,0.0044
2644.00,0.0044
2643.00,0.0044
2642.00,0.0043
2641.00,0.0042
2640.00,0.0042
2639.00,0.0041
2638.00,0.0040
2637.00,0.0040
2636.00,0.0040
2635.00,0.0040
2634.00,0.0040
2633.00,0.0041
2632.00,0.0041
2631.00,0.0041
2630.00,0.0041
2629.00,0.0041
2628.00,0.0041
2627.00,0.0041
2626.00,0.0041
2625.00,0.0041
2624.00,0.0042
2623.00,0.0042
2622.00,0.0042
2621.00,0.0042
2620.00,0.0042
2619.00,0.0042
2618.00,0.0042
2617.00,0.0041
2616.00,0.0041
2615.00,0.0040
2614.00,0.0040
2613.00,0.0039
2612.00,0.0039
2611.00,0.0039
2610.00,0.0038
2609.00,0.0038
2608.00,0.0038
2607.00,0.0037
2606.00,0.0036
2605.00,0.0035
2604.00,0.0034
2603.00,0.0033
2602.00,0.0033
2601.00,0.0033
2600.00,0.0033
2599.00,0.0033
2598.00,0.0033
2597.00,0.0033
2596.00,0.0033
2595.00,0.0033
2594.00,0.0033
2593.00,0.0033
2592.00,0.0033
2591.00,0.0034
2590.00,0.0034
2589.00,0.0035
2588.00,0.0035
2587.00,0.0036
2586.00,0.0036
2585.00,0.0037
2584.00,0.0039
2583.00,0.0040
2582.00,0.0040
2581.00,0.0040
2580.00,0.0039
2579.00,0.0038
2578.00,0.0037
2577.00,0.0036
2576.00,0.0034
2575.00,0.0033
2574.00,0.0032
2573.00,0.0030
2572.00,0.0029
2571.00,0.0028
2570.00,0.0027
2569.00,0.0027
2568.00,0.0026
2567.00,0.0027
2566.00,0.0027
2565.00,0.0027
2564.00,0.0027
2563.00,0.0027
2562.00,0.0026
2561.00,0.0026
2560.00,0.0025
2559.00,0.0025
2558.00,0.0025
2557.00,0.0025
2556.00,0.0025
2555.00,0.0025
2554.00,0.0025
2553.00,0.0024
2552.00,0.0022
2551.00,0.0021
2550.00,0.0021
2549.00,0.0021
2548.00,0.0021
2547.00,0.0021
2546.00,0.0021
2545.00,0.0021
2544.00,0.0021
2543.00,0.0021
2542.00,0.0020
2541.00,0.0020
2540.00,0.0019
2539.00,0.0019
2538.00,0.0020
2537.00,0.0020
2536.00,0.0020
2535.00,0.0020
2534.00,0.0019
2533.00,0.0019
2532.00,0.0018
2531.00,0.0017
2530.00,0.0017
2529.00,0.0017
2528.00,0.0017
2527.00,0.0016
2526.00,0.0015
2525.00,0.0015
2524.00,0.0014
2523.00,0.0014
2522.00,0.0015
2521.00,0.0014
2520.00,0.0014
2519.00,0.0013
2518.00,0.0013
2517.00,0.0013
2516.00,0.0013
2515.00,0.0013
2514.00,0.0012
2513.00,0.0011
2512.00,0.0011
2511.00,0.0011
2510.00,0.0011
2509.00,0.0011
2508.00,0.0012
2507.00,0.0012
2506.00,0.0012
2505.00,0.0012
2504.00,0.0012
2503.00,0.0012
2502.00,0.0012
2501.00,0.0011
2500.00,0.0011
2499.00,0.0012
2498.00,0.0012
2497.00,0.0012
2496.00,0.0012
2495.00,0.0012
2494.00,0.0012
2493.00,0.0013
2492.00,0.0013
2491.00,0.0013
2490.00,0.0012
2489.00,0.0012
2488.00,0.0011
2487.00,0.0011
2486.00,0.0011
2485.00,0.0011
2484.00,0.0011
2483.00,0.0011
2482.00,0.0011
2481.00,0.0011
2480.00,0.0011
2479.00,0.0011
2478.00,0.0010
2477.00,0.0010
2476.00,0.0010
2475.00,0.0010
2474.00,0.0010
2473.00,0.0010
2472.00,0.0010
2471.00,0.0009
2470.00,0.0009
2469.00,0.0010
2468.00,0.0010
2467.00,0.0010
2466.00,0.0010
2465.00,0.0011
2464.00,0.0011
2463.00,0.0011
2462.00,0.0011
2461.00,0.0011
2460.00,0.0011
2459.00,0.0011
2458.00,0.0011
2457.00,0.0012
2456.00,0.0012
2455.00,0.0012
2454.00,0.0012
2453.00,0.0012
2452.00,0.0012
2451.00,0.0012
2450.00,0.0013
2449.00,0.0013
2448.00,0.0013
2447.00,0.0013
2446.00,0.0013
2445.00,0.0014
2444.00,0.0014
2443.00,0.0014
2442.00,0.0013
2441.00,0.0013
2440.00,0.0013
2439.00,0.0013
2438.00,0.0013
2437.00,0.0013
2436.00,0.0013
2435.00,0.0013
2434.00,0.0013
2433.00,0.0013
2432.00,0.0013
2431.00,0.0012
2430.00,0.0012
2429.00,0.0012
2428.00,0.0012
2427.00,0.0012
2426.00,0.0012
2425.00,0.0012
2424.00,0.0011
2423.00,0.0011
2422.00,0.0012
2421.00,0.0012
2420.00,0.0011
2419.00,0.0011
2418.00,0.0010
2417.00,0.0010
2416.00,0.0009
2415.00,0.0010
2414.00,0.0010
2413.00,0.0011
2412.00,0.0012
2411.00,0.0013
2410.00,0.0013
2409.00,0.0013
2408.00,0.0012
2407.00,0.0011
2406.00,0.0010
2405.00,0.0010
2404.00,0.0009
2403.00,0.0009
2402.00,0.0009
2401.00,0.0009
2400.00,0.0009
2399.00,0.0009
2398.00,0.0008
2397.00,0.0009
2396.00,0.0009
2395.00,0.0009
2394.00,0.0009
2393.00,0.0009
2392.00,0.0009
2391.00,0.0009
2390.00,0.0009
2389.00,0.0009
2388.00,0.0009
2387.00,0.0008
2386.00,0.0007
2385.00,0.0006
2384.00,0.0005
2383.00,0.0004
2382.00,0.0003
2381.00,0.0003
2380.00,0.0003
2379.00,0.0003
2378.00,0.0003
2377.00,0.0003
2376.00,0.0003
2375.00,0.0002
2374.00,0.0002
2373.00,0.0001
2372.00,0.0000
2371.00,0.0000
2370.00,-0.0000
2369.00,-0.0001
2368.00,-0.0001
2367.00,-0.0002
2366.00,-0.0002
2365.00,-0.0002
2364.00,-0.0001
2363.00,-0.0000
2362.00,0.0000
2361.00,0.0001
2360.00,0.0001
2359.00,0.0001
2358.00,0.0001
2357.00,0.0001
2356.00,0.0001
2355.00,0.0001
2354.00,0.0001
2353.00,0.0001
2352.00,0.0001
2351.00,0.0001
2350.00,0.0002
2349.00,0.0002
2348.00,0.0002
2347.00,0.0002
2346.00,0.0002
2345.00,0.0002
2344.00,0.0002
2343.00,0.0002
2342.00,0.0002
2341.00,0.0003
2340.00,0.0004
2339.00,0.0005
2338.00,0.0005
2337.00,0.0006
2336.00,0.0006
2335.00,0.0006
2334.00,0.0006
2333.00,0.0006
2332.00,0.0005
2331.00,0.0005
2330.00,0.0004
2329.00,0.0005
2328.00,0.0006
2327.00,0.0009
2326.00,0.0014
2325.00,0.0018
2324.00,0.0020
2323.00,0.0019
2322.00,0.0018
2321.00,0.0016
2320.00,0.0014
2319.00,0.0012
2318.00,0.0012
2317.00,0.0011
2316.00,0.0011
2315.00,0.0011
2314.00,0.0010
2313.00,0.0009
2312.00,0.0008
2311.00,0.0008
2310.00,0.0007
2309.00,0.0007
2308.00,0.0006
2307.00,0.0005
2306.00,0.0005
2305.00,0.0006
2304.00,0.0007
2303.00,0.0008
2302.00,0.0008
2301.00,0.0009
2300.00,0.0010
2299.00,0.0011
2298.00,0.0011
2297.00,0.0012
2296.00,0.0012
2295.00,0.0013
2294.00,0.0014
2293.00,0.0015
2292.00,0.0016
2291.00,0.0016
2290.00,0.0017
2289.00,0.0018
2288.00,0.0019
2287.00,0.0020
2286.00,0.0020
2285.00,0.0019
2284.00,0.0018
2283.00,0.0017
2282.00,0.0016
2281.00,0.0015
2280.00,0.0015
2279.00,0.0015
2278.00,0.0015
2277.00,0.0015
2276.00,0.0014
2275.00,0.0013
2274.00,0.0013
2273.00,0.0013
2272.00,0.0014
2271.00,0.0015
2270.00,0.0015
2269.00,0.0014
2268.00,0.0014
2267.00,0.0013
2266.00,0.0012
2265.00,0.0012
2264.00,0.0012
2263.00,0.0012
2262.00,0.0012
2261.00,0.0012
2260.00,0.0012
2259.00,0.0013
2258.00,0.0013
2257.00,0.0013
2256.00,0.0013
2255.00,0.0012
2254.00,0.0011
2253.00,0.0011
2252.00,0.0011
2251.00,0.0010
2250.00,0.0010
2249.00,0.0010
2248.00,0.0010
2247.00,0.0010
2246.00,0.0009
2245.00,0.0009
2244.00,0.0009
2243.00,0.0010
2242.00,0.0010
2241.00,0.0010
2240.00,0.0009
2239.00,0.0008
2238.00,0.0009
2237.00,0.0009
2236.00,0.0010
2235.00,0.0010
2234.00,0.0009
2233.00,0.0008
2232.00,0.0008
2231.00,0.0008
2230.00,0.0008
2229.00,0.0009
2228.00,0.0010
2227.00,0.0010
2226.00,0.0010
2225.00,0.0010
2224.00,0.0009
2223.00,0.0009
2222.00,0.0008
2221.00,0.0008
2220.00,0.0008
2219.00,0.0009
2218.00,0.0009
2217.00,0.0008
2216.00,0.0007
2215.00,0.0007
2214.00,0.0007
2213.00,0.0008
2212.00,0.0009
2211.00,0.0009
2210.00,0.0009
2209.00,0.0008
2208.00,0.0008
2207.00,0.0008
2206.00,0.0008
2205.00,0.0008
2204.00,0.0007
2203.00,0.0006
2202.00,0.0005
2201.00,0.0004
2200.00,0.0003
2199.00,0.0003
2198.00,0.0005
2197.00,0.0007
2196.00,0.0009
2195.00,0.0010
2194.00,0.0012
2193.00,0.0014
2192.00,0.0014
2191.00,0.0014
2190.00,0.0012
2189.00,0.0011
2188.00,0.0011
2187.00,0.0011
2186.00,0.0011
2185.00,0.0011
2184.00,0.0011
2183.00,0.0011
2182.00,0.0010
2181.00,0.0010
2180.00,0.0009
2179.00,0.0008
2178.00,0.0010
2177.00,0.0011
2176.00,0.0011
2175.00,0.0010
2174.00,0.0009
2173.00,0.0009
2172.00,0.0009
2171.00,0.0009
2170.00,0.0010
2169.00,0.0012
2168.00,0.0014
2167.00,0.0015
2166.00,0.0014
2165.00,0.0014
2164.00,0.0014
2163.00,0.0017
2162.00,0.0019
2161.00,0.0017
2160.00,0.0007
2159.00,-0.0008
2158.00,-0.0021
2157.00,-0.0028
2156.00,-0.0028
2155.00,-0.0024
2154.00,-0.0020
2153.00,-0.0017
2152.00,-0.0015
2151.00,-0.0014
2150.00,-0.0014
2149.00,-0.0013
2148.00,-0.0013
2147.00,-0.0015
2146.00,-0.0015
2145.00,-0.0015
2144.00,-0.0013
2143.00,-0.0013
2142.00,-0.0014
2141.00,-0.0015
2140.00,-0.0017
2139.00,-0.0018
2138.00,-0.0018
2137.00,-0.0017
2136.00,-0.0016
2135.00,-0.0016
2134.00,-0.0016
2133.00,-0.0016
2132.00,-0.0015
2131.00,-0.0013
2130.00,-0.0012
2129.00,-0.0011
2128.00,-0.0010
2127.00,-0.0009
2126.00,-0.0008
2125.00,-0.0007
2124.00,-0.0006
2123.00,-0.0004
2122.00,-0.0003
2121.00,-0.0001
2120.00,0.0001
2119.00,0.0002
2118.00,0.0003
2117.00,0.0004
2116.00,0.0005
2115.00,0.0006
2114.00,0.0006
2113.00,0.0005
2112.00,0.0005
2111.00,0.0005
2110.00,0.0005
2109.00,0.0005
2108.00,0.0004
2107.00,0.0003
2106.00,0.0002
2105.00,0.0002
2104.00,0.0002
2103.00,0.0002
2102.00,0.0003
2101.00,0.0004
2100.00,0.0004
2099.00,0.0004
2098.00,0.0003
2097.00,0.0002
2096.00,0.0000
2095.00,-0.0001
2094.00,-0.0002
2093.00,-0.0002
2092.00,-0.0001
2091.00,0.0001
2090.00,0.0002
2089.00,0.0003
2088.00,0.0003
2087.00,0.0002
2086.00,0.0002
2085.00,0.0003
2084.00,0.0004
2083.00,0.0004
2082.00,0.0004
2081.00,0.0004
2080.00,0.0004
2079.00,0.0004
2078.00,0.0004
2077.00,0.0002
2076.00,0.0001
2075.00,0.0000
2074.00,0.0001
2073.00,0.0002
2072.00,0.0002
2071.00,0.0001
2070.00,-0.0001
2069.00,-0.0002
2068.00,-0.0001
2067.00,-0.0000
2066.00,0.0000
2065.00,-0.0000
2064.00,-0.0001
2063.00,-0.0002
2062.00,-0.0001
2061.00,-0.0001
2060.00,-0.0000
2059.00,-0.0000
2058.00,-0.0000
2057.00,0.0001
2056.00,0.0002
2055.00,0.0002
2054.00,0.0004
2053.00,0.0007
2052.00,0.0011
2051.00,0.0014
2050.00,0.0013
2049.00,0.0009
2048.00,0.0005
2047.00,0.0004
2046.00,0.0005
2045.00,0.0007
2044.00,0.0008
2043.00,0.0008
2042.00,0.0007
2041.00,0.0005
2040.00,0.0005
2039.00,0.0006
2038.00,0.0007
2037.00,0.0006
2036.00,0.0003
2035.00,-0.0001
2034.00,-0.0004
2033.00,-0.0005
2032.00,-0.0004
2031.00,-0.0001
2030.00,0.0001
2029.00,0.0003
2028.00,0.0001
2027.00,-0.0003
2026.00,-0.0007
2025.00,-0.0009
2024.00,-0.0008
2023.00,-0.0007
2022.00,-0.0007
2021.00,-0.0009
2020.00,-0.0010
2019.00,-0.0011
2018.00,-0.0010
2017.00,-0.0010
2016.00,-0.0009
2015.00,-0.0009
2014.00,-0.0009
2013.00,-0.0008
2012.00,-0.0008
2011.00,-0.0008
2010.00,-0.0008
2009.00,-0.0008
2008.00,-0.0009
2007.00,-0.0013
2006.00,-0.0018
2005.00,-0.0021
2004.00,-0.0022
2003.00,-0.0022
2002.00,-0.0021
2001.00,-0.0018
2000.00,-0.0015
1999.00,-0.0011
1998.00,-0.0008
1997.00,-0.0007
1996.00,-0.0006
1995.00,-0.0005
1994.00,-0.0005
1993.00,-0.0005
1992.00,-0.0006
1991.00,-0.0008
1990.00,-0.0011
1989.00,-0.0012
1988.00,-0.0011
1987.00,-0.0009
1986.00,-0.0007
1985.00,-0.0004
1984.00,-0.0002
1983.00,-0.0000
1982.00,0.0001
1981.00,0.0002
1980.00,0.0002
1979.00,-0.0001
1978.00,-0.0006
1977.00,-0.0010
1976.00,-0.0012
1975.00,-0.0013
1974.00,-0.0015
1973.00,-0.0016
1972.00,-0.0017
1971.00,-0.0015
1970.00,-0.0012
1969.00,-0.0008
1968.00,-0.0004
1967.00,-0.0002
1966.00,-0.0001
1965.00,-0.0001
1964.00,-0.0002
1963.00,-0.0005
1962.00,-0.0007
1961.00,-0.0010
1960.00,-0.0012
1959.00,-0.0015
1958.00,-0.0017
1957.00,-0.0017
1956.00,-0.0015
1955.00,-0.0014
1954.00,-0.0013
1953.00,-0.0014
1952.00,-0.0015
1951.00,-0.0016
1950.00,-0.0016
1949.00,-0.0017
1948.00,-0.0017
1947.00,-0.0018
1946.00,-0.0019
1945.00,-0.0019
1944.00,-0.0018
1943.00,-0.0017
1942.00,-0.0015
1941.00,-0.0013
1940.00,-0.0010
1939.00,-0.0008
1938.00,-0.0008
1937.00,-0.0009
1936.00,-0.0010
1935.00,-0.0010
1934.00,-0.0010
1933.00,-0.0010
1932.00,-0.0008
1931.00,-0.0007
1930.00,-0.0005
1929.00,-0.0004
1928.00,-0.0004
1927.00,-0.0004
1926.00,-0.0004
1925.00,-0.0004
1924.00,-0.0004
1923.00,-0.0004
1922.00,-0.0005
1921.00,-0.0005
1920.00,-0.0004
1919.00,-0.0004
1918.00,-0.0004
1917.00,-0.0004
1916.00,-0.0005
1915.00,-0.0004
1914.00,-0.0003
1913.00,-0.0003
1912.00,-0.0003
1911.00,-0.0003
1910.00,-0.0004
1909.00,-0.0005
1908.00,-0.0004
1907.00,-0.0002
1906.00,-0.0001
1905.00,0.0001
1904.00,0.0001
1903.00,0.0001
1902.00,0.0000
1901.00,-0.0000
1900.00,-0.0001
1899.00,-0.0001
1898.00,-0.0001
1897.00,-0.0000
1896.00,-0.0001
1895.00,-0.0001
1894.00,-0.0001
1893.00,-0.0001
1892.00,0.0001
1891.00,0.0001
1890.00,0.0002
1889.00,0.0001
1888.00,0.0000
1887.00,-0.0000
1886.00,-0.0001
1885.00,-0.0000
1884.00,0.0000
1883.00,0.0001
1882.00,0.0002
1881.00,0.0002
1880.00,0.0001
1879.00,-0.0000
1878.00,-0.0002
1877.00,-0.0002
1876.00,-0.0002
1875.00,-0.0002
1874.00,-0.0001
1873.00,-0.0000
1872.00,0.0000
1871.00,0.0000
1870.00,-0.0000
1869.00,-0.0000
1868.00,-0.0000
1867.00,-0.0001
1866.00,-0.0001
1865.00,-0.0000
1864.00,0.0001
1863.00,0.0001
1862.00,0.0001
1861.00,0.0000
1860.00,-0.0001
1859.00,-0.0001
1858.00,-0.0001
1857.00,-0.0000
1856.00,0.0001
1855.00,0.0002
1854.00,0.0002
1853.00,0.0002
1852.00,0.0002
1851.00,0.0003
1850.00,0.0003
1849.00,0.0002
1848.00,0.0002
1847.00,0.0001
1846.00,0.0001
1845.00,0.0002
1844.00,0.0003
1843.00,0.0004
1842.00,0.0004
1841.00,0.0004
1840.00,0.0003
1839.00,0.0003
1838.00,0.0003
1837.00,0.0003
1836.00,0.0003
1835.00,0.0004
1834.00,0.0004
1833.00,0.0003
1832.00,0.0003
1831.00,0.0002
1830.00,0.0001
1829.00,0.0001
1828.00,0.0001
1827.00,0.0001
1826.00,0.0002
1825.00,0.0003
1824.00,0.0004
1823.00,0.0004
1822.00,0.0003
1821.00,0.0003
1820.00,0.0003
1819.00,0.0002
1818.00,0.0002
1817.00,0.0001
1816.00,0.0002
1815.00,0.0002
1814.00,0.0003
1813.00,0.0003
1812.00,0.0004
1811.00,0.0004
1810.00,0.0004
1809.00,0.0005
1808.00,0.0005
1807.00,0.0005
1806.00,0.0005
1805.00,0.0005
1804.00,0.0005
1803.00,0.0005
1802.00,0.0006
1801.00,0.0006
1800.00,0.0006
1799.00,0.0006
1798.00,0.0007
1797.00,0.0007
1796.00,0.0007
1795.00,0.0007
1794.00,0.0007
1793.00,0.0007
1792.00,0.0008
1791.00,0.0009
1790.00,0.0009
1789.00,0.0009
1788.00,0.0009
1787.00,0.0008
1786.00,0.0008
1785.00,0.0008
1784.00,0.0009
1783.00,0.0009
1782.00,0.0010
1781.00,0.0010
1780.00,0.0009
1779.00,0.0009
1778.00,0.0009
1777.00,0.0009
1776.00,0.0009
1775.00,0.0008
1774.00,0.0008
1773.00,0.0008
1772.00,0.0008
1771.00,0.0009
1770.00,0.0010
1769.00,0.0012
1768.00,0.0013
1767.00,0.0012
1766.00,0.0012
1765.00,0.0011
1764.00,0.0011
1763.00,0.0011
1762.00,0.0011
1761.00,0.0012
1760.00,0.0012
1759.00,0.0013
1758.00,0.0013
1757.00,0.0014
1756.00,0.0016
1755.00,0.0016
1754.00,0.0017
1753.00,0.0018
1752.00,0.0019
1751.00,0.0021
1750.00,0.0021
1749.00,0.0022
1748.00,0.0022
1747.00,0.0023
1746.00,0.0023
1745.00,0.0023
1744.00,0.0024
1743.00,0.0025
1742.00,0.0026
1741.00,0.0026
1740.00,0.0027
1739.00,0.0027
1738.00,0.0027
1737.00,0.0028
1736.00,0.0028
1735.00,0.0029
1734.00,0.0029
1733.00,0.0029
1732.00,0.0029
1731.00,0.0029
1730.00,0.0029
1729.00,0.0029
1728.00,0.0029
1727.00,0.0029
1726.00,0.0029
1725.00,0.0029
1724.00,0.0029
1723.00,0.0028
1722.00,0.0028
1721.00,0.0027
1720.00,0.0027
1719.00,0.0027
1718.00,0.0027
1717.00,0.0027
1716.00,0.0027
1715.00,0.0027
1714.00,0.0027
1713.00,0.0027
1712.00,0.0027
1711.00,0.0027
1710.00,0.0027
1709.00,0.0027
1708.00,0.0027
1707.00,0.0027
1706.00,0.0027
1705.00,0.0027
1704.00,0.0027
1703.00,0.0028
1702.00,0.0029
1701.00,0.0030
1700.00,0.0031
1699.00,0.0032
1698.00,0.0032
1697.00,0.0032
1696.00,0.0032
1695.00,0.0033
1694.00,0.0034
1693.00,0.0035
1692.00,0.0036
1691.00,0.0038
1690.00,0.0039
1689.00,0.0040
1688.00,0.0040
1687.00,0.0040
1686.00,0.0040
1685.00,0.0041
1684.00,0.0042
1683.00,0.0044
1682.00,0.0045
1681.00,0.0047
1680.00,0.0048
1679.00,0.0048
1678.00,0.0048
1677.00,0.0049
1676.00,0.0050
1675.00,0.0051
1674.00,0.0053
1673.00,0.0054
1672.00,0.0056
1671.00,0.0058
1670.00,0.0059
1669.00,0.0060
1668.00,0.0060
1667.00,0.0061
1666.00,0.0062
1665.00,0.0063
1664.00,0.0064
1663.00,0.0064
1662.00,0.0065
1661.00,0.0066
1660.00,0.0067
1659.00,0.0068
1658.00,0.0068
1657.00,0.0069
1656.00,0.0070
1655.00,0.0071
1654.00,0.0071
1653.00,0.0072
1652.00,0.0073
1651.00,0.0075
1650.00,0.0075
1649.00,0.0075
1648.00,0.0076
1647.00,0.0076
1646.00,0.0077
1645.00,0.0078
1644.00,0.0079
1643.00,0.0080
1642.00,0.0081
1641.00,0.0082
1640.00,0.0083
1639.00,0.0083
1638.00,0.0084
1637.00,0.0084
1636.00,0.0083
1635.00,0.0083
1634.00,0.0082
1633.00,0.0082
1632.00,0.0082
1631.00,0.0082
1630.00,0.0082
1629.00,0.0081
1628.00,0.0080
1627.00,0.0080
1626.00,0.0079
1625.00,0.0078
1624.00,0.0078
1623.00,0.0077
1622.00,0.0076
1621.00,0.0076
1620.00,0.0076
1619.00,0.0076
1618.00,0.0076
1617.00,0.0076
1616.00,0.0076
1615.00,0.0076
1614.00,0.0076
1613.00,0.0076
1612.00,0.0076
1611.00,0.0076
1610.00,0.0076
1609.00,0.0076
1608.00,0.0076
1607.00,0.0076
1606.00,0.0076
1605.00,0.0077
1604.00,0.0077
1603.00,0.0077
1602.00,0.0077
1601.00,0.0077
1600.00,0.0077
1599.00,0.0077
1598.00,0.0077
1597.00,0.0077
1596.00,0.0077
1595.00,0.0077
1594.00,0.0077
1593.00,0.0077
1592.00,0.0078
1591.00,0.0078
1590.00,0.0079
1589.00,0.0080
1588.00,0.0080
1587.00,0.0081
1586.00,0.0082
1585.00,0.0084
1584.00,0.0087
1583.00,0.0089
1582.00,0.0091
1581.00,0.0094
1580.00,0.0095
1579.00,0.0097
1578.00,0.0098
1577.00,0.0098
1576.00,0.0097
1575.00,0.0096
1574.00,0.0094
1573.00,0.0094
1572.00,0.0093
1571.00,0.0092
1570.00,0.0091
1569.00,0.0090
1568.00,0.0090
1567.00,0.0090
1566.00,0.0089
1565.00,0.0089
1564.00,0.0088
1563.00,0.0087
1562.00,0.0086
1561.00,0.0087
1560.00,0.0087
1559.00,0.0087
1558.00,0.0087
1557.00,0.0089
1556.00,0.0091
1555.00,0.0093
1554.00,0.0095
1553.00,0.0097
1552.00,0.0099
1551.00,0.0100
1550.00,0.0101
1549.00,0.0102
1548.00,0.0104
1547.00,0.0105
1546.00,0.0108
1545.00,0.0110
1544.00,0.0112
1543.00,0.0112
1542.00,0.0113
1541.00,0.0112
1540.00,0.0108
1539.00,0.0103
1538.00,0.0099
1537.00,0.0097
1536.00,0.0095
1535.00,0.0092
1534.00,0.0088
1533.00,0.0084
1532.00,0.0081
1531.00,0.0079
1530.00,0.0078
1529.00,0.0077
1528.00,0.0075
1527.00,0.0074
1526.00,0.0072
1525.00,0.0071
1524.00,0.0071
1523.00,0.0070
1522.00,0.0069
1521.00,0.0068
1520.00,0.0069
1519.00,0.0069
1518.00,0.0070
1517.00,0.0070
1516.00,0.0071
1515.00,0.0070
1514.00,0.0070
1513.00,0.0070
1512.00,0.0071
1511.00,0.0071
1510.00,0.0071
1509.00,0.0072
1508.00,0.0074
1507.00,0.0075
1506.00,0.0075
1505.00,0.0077
1504.00,0.0079
1503.00,0.0080
1502.00,0.0082
1501.00,0.0084
1500.00,0.0086
1499.00,0.0088
1498.00,0.0091
1497.00,0.0096
1496.00,0.0100
1495.00,0.0102
1494.00,0.0104
1493.00,0.0107
1492.00,0.0110
1491.00,0.0114
1490.00,0.0118
1489.00,0.0124
1488.00,0.0129
1487.00,0.0135
1486.00,0.0140
1485.00,0.0147
1484.00,0.0155
1483.00,0.0164
1482.00,0.0173
1481.00,0.0185
1480.00,0.0198
1479.00,0.0211
1478.00,0.0227
1477.00,0.0249
1476.00,0.0275
1475.00,0.0306
1474.00,0.0346
1473.00,0.0402
1472.00,0.0467
1471.00,0.0530
1470.00,0.0592
1469.00,0.0656
1468.00,0.0725
1467.00,0.0800
1466.00,0.0885
1465.00,0.0976
1464.00,0.1055
1463.00,0.1110
1462.00,0.1145
1461.00,0.1169
1460.00,0.1186
1459.00,0.1197
1458.00,0.1207
1457.00,0.1214
1456.00,0.1213
1455.00,0.1207
1454.00,0.1197
1453.00,0.1182
1452.00,0.1158
1451.00,0.1124
1450.00,0.1076
1449.00,0.1008
1448.00,0.0921
1447.00,0.0827
1446.00,0.0741
1445.00,0.0666
1444.00,0.0601
1443.00,0.0548
1442.00,0.0507
1441.00,0.0478
1440.00,0.0460
1439.00,0.0451
1438.00,0.0450
1437.00,0.0449
1436.00,0.0439
1435.00,0.0415
1434.00,0.0381
1433.00,0.0339
1432.00,0.0296
1431.00,0.0257
1430.00,0.0227
1429.00,0.0205
1428.00,0.0190
1427.00,0.0180
1426.00,0.0174
1425.00,0.0167
1424.00,0.0162
1423.00,0.0158
1422.00,0.0156
1421.00,0.0153
1420.00,0.0150
1419.00,0.0148
1418.00,0.0147
1417.00,0.0144
1416.00,0.0141
1415.00,0.0140
1414.00,0.0138
1413.00,0.0136
1412.00,0.0134
1411.00,0.0133
1410.00,0.0132
1409.00,0.0131
1408.00,0.0130
1407.00,0.0130
1406.00,0.0130
1405.00,0.0130
1404.00,0.0129
1403.00,0.0130
1402.00,0.0131
1401.00,0.0133
1400.00,0.0133
1399.00,0.0135
1398.00,0.0137
1397.00,0.0139
1396.00,0.0141
1395.00,0.0145
1394.00,0.0149
1393.00,0.0153
1392.00,0.0158
1391.00,0.0165
1390.00,0.0174
1389.00,0.0188
1388.00,0.0208
1387.00,0.0238
1386.00,0.0279
1385.00,0.0333
1384.00,0.0408
1383.00,0.0513
1382.00,0.0652
1381.00,0.0830
1380.00,0.1050
1379.00,0.1302
1378.00,0.1549
1377.00,0.1734
1376.00,0.1801
1375.00,0.1716
1374.00,0.1507
1373.00,0.1250
1372.00,0.1013
1371.00,0.0818
1370.00,0.0662
1369.00,0.0544
1368.00,0.0462
1367.00,0.0412
1366.00,0.0384
1365.00,0.0372
1364.00,0.0373
1363.00,0.0385
1362.00,0.0405
1361.00,0.0426
1360.00,0.0443
1359.00,0.0447
1358.00,0.0437
1357.00,0.0413
1356.00,0.0379
1355.00,0.0341
1354.00,0.0305
1353.00,0.0274
1352.00,0.0248
1351.00,0.0228
1350.00,0.0211
1349.00,0.0197
1348.00,0.0185
1347.00,0.0174
1346.00,0.0165
1345.00,0.0158
1344.00,0.0152
1343.00,0.0147
1342.00,0.0143
1341.00,0.0140
1340.00,0.0137
1339.00,0.0135
1338.00,0.0133
1337.00,0.0132
1336.00,0.0132
1335.00,0.0133
1334.00,0.0135
1333.00,0.0138
1332.00,0.0142
1331.00,0.0144
1330.00,0.0146
1329.00,0.0145
1328.00,0.0142
1327.00,0.0138
1326.00,0.0132
1325.00,0.0127
1324.00,0.0122
1323.00,0.0117
1322.00,0.0114
1321.00,0.0111
1320.00,0.0109
1319.00,0.0107
1318.00,0.0105
1317.00,0.0103
1316.00,0.0102
1315.00,0.0101
1314.00,0.0101
1313.00,0.0101
1312.00,0.0102
1311.00,0.0105
1310.00,0.0109
1309.00,0.0116
1308.00,0.0125
1307.00,0.0137
1306.00,0.0149
1305.00,0.0157
1304.00,0.0159
1303.00,0.0156
1302.00,0.0149
1301.00,0.0143
1300.00,0.0139
1299.00,0.0137
1298.00,0.0136
1297.00,0.0136
1296.00,0.0135
1295.00,0.0133
1294.00,0.0130
1293.00,0.0126
1292.00,0.0122
1291.00,0.0117
1290.00,0.0113
1289.00,0.0110
1288.00,0.0107
1287.00,0.0105
1286.00,0.0103
1285.00,0.0101
1284.00,0.0099
1283.00,0.0097
1282.00,0.0096
1281.00,0.0094
1280.00,0.0093
1279.00,0.0092
1278.00,0.0091
1277.00,0.0090
1276.00,0.0090
1275.00,0.0090
1274.00,0.0090
1273.00,0.0091
1272.00,0.0092
1271.00,0.0094
1270.00,0.0096
1269.00,0.0098
1268.00,0.0100
1267.00,0.0103
1266.00,0.0105
1265.00,0.0109
1264.00,0.0112
1263.00,0.0116
1262.00,0.0120
1261.00,0.0125
1260.00,0.0131
1259.00,0.0138
1258.00,0.0146
1257.00,0.0152
1256.00,0.0154
1255.00,0.0152
1254.00,0.0145
1253.00,0.0136
1252.00,0.0126
1251.00,0.0119
1250.00,0.0113
1249.00,0.0108
1248.00,0.0104
1247.00,0.0101
1246.00,0.0099
1245.00,0.0097
1244.00,0.0096
1243.00,0.0094
1242.00,0.0093
1241.00,0.0092
1240.00,0.0091
1239.00,0.0091
1238.00,0.0091
1237.00,0.0091
1236.00,0.0090
1235.00,0.0090
1234.00,0.0090
1233.00,0.0091
1232.00,0.0091
1231.00,0.0091
1230.00,0.0091
1229.00,0.0091
1228.00,0.0092
1227.00,0.0094
1226.00,0.0096
1225.00,0.0099
1224.00,0.0102
1223.00,0.0105
1222.00,0.0108
1221.00,0.0110
1220.00,0.0112
1219.00,0.0113
1218.00,0.0112
1217.00,0.0111
1216.00,0.0108
1215.00,0.0106
1214.00,0.0103
1213.00,0.0100
1212.00,0.0098
1211.00,0.0096
1210.00,0.0094
1209.00,0.0093
1208.00,0.0092
1207.00,0.0091
1206.00,0.0090
1205.00,0.0090
1204.00,0.0089
1203.00,0.0089
1202.00,0.0089
1201.00,0.0089
1200.00,0.0090
1199.00,0.0090
1198.00,0.0091
1197.00,0.0091
1196.00,0.0091
1195.00,0.0092
1194.00,0.0092
1193.00,0.0092
1192.00,0.0093
1191.00,0.0094
1190.00,0.0094
1189.00,0.0094
1188.00,0.0094
1187.00,0.0094
1186.00,0.0095
1185.00,0.0096
1184.00,0.0097
1183.00,0.0099
1182.00,0.0101
1181.00,0.0104
1180.00,0.0108
1179.00,0.0113
1178.00,0.0120
1177.00,0.0129
1176.00,0.0140
1175.00,0.0156
1174.00,0.0177
1173.00,0.0204
1172.00,0.0237
1171.00,0.0273
1170.00,0.0309
1169.00,0.0337
1168.00,0.0355
1167.00,0.0358
1166.00,0.0349
1165.00,0.0331
1164.00,0.0311
1163.00,0.0291
1162.00,0.0274
1161.00,0.0260
1160.00,0.0249
1159.00,0.0240
1158.00,0.0234
1157.00,0.0229
1156.00,0.0227
1155.00,0.0225
1154.00,0.0223
1153.00,0.0220
1152.00,0.0216
1151.00,0.0210
1150.00,0.0202
1149.00,0.0192
1148.00,0.0183
1147.00,0.0173
1146.00,0.0164
1145.00,0.0156
1144.00,0.0149
1143.00,0.0142
1142.00,0.0136
1141.00,0.0130
1140.00,0.0124
1139.00,0.0120
1138.00,0.0117
1137.00,0.0114
1136.00,0.0112
1135.00,0.0109
1134.00,0.0107
1133.00,0.0106
1132.00,0.0105
1131.00,0.0106
1130.00,0.0107
1129.00,0.0108
1128.00,0.0109
1127.00,0.0110
1126.00,0.0111
1125.00,0.0111
1124.00,0.0112
1123.00,0.0112
1122.00,0.0112
1121.00,0.0112
1120.00,0.0113
1119.00,0.0114
1118.00,0.0115
1117.00,0.0117
1116.00,0.0119
1115.00,0.0120
1114.00,0.0121
1113.00,0.0122
1112.00,0.0123
1111.00,0.0125
1110.00,0.0127
1109.00,0.0131
1108.00,0.0135
1107.00,0.0139
1106.00,0.0145
1105.00,0.0150
1104.00,0.0155
1103.00,0.0158
1102.00,0.0159
1101.00,0.0156
1100.00,0.0152
1099.00,0.0146
1098.00,0.0140
1097.00,0.0134
1096.00,0.0130
1095.00,0.0127
1094.00,0.0125
1093.00,0.0123
1092.00,0.0122
1091.00,0.0120
1090.00,0.0119
1089.00,0.0117
1088.00,0.0115
1087.00,0.0114
1086.00,0.0113
1085.00,0.0112
1084.00,0.0112
1083.00,0.0111
1082.00,0.0110
1081.00,0.0109
1080.00,0.0109
1079.00,0.0108
1078.00,0.0107
1077.00,0.0106
1076.00,0.0106
1075.00,0.0106
1074.00,0.0106
1073.00,0.0106
1072.00,0.0105
1071.00,0.0104
1070.00,0.0103
1069.00,0.0103
1068.00,0.0103
1067.00,0.0103
1066.00,0.0103
1065.00,0.0104
1064.00,0.0104
1063.00,0.0104
1062.00,0.0104
1061.00,0.0104
1060.00,0.0105
1059.00,0.0107
1058.00,0.0109
1057.00,0.0111
1056.00,0.0113
1055.00,0.0114
1054.00,0.0116
1053.00,0.0118
1052.00,0.0120
1051.00,0.0124
1050.00,0.0128
1049.00,0.0132
1048.00,0.0138
1047.00,0.0143
1046.00,0.0146
1045.00,0.0148
1044.00,0.0148
1043.00,0.0145
1042.00,0.0142
1041.00,0.0140
1040.00,0.0138
1039.00,0.0138
1038.00,0.0138
1037.00,0.0139
1036.00,0.0139
1035.00,0.0139
1034.00,0.0137
1033.00,0.0135
1032.00,0.0132
1031.00,0.0130
1030.00,0.0129
1029.00,0.0129
1028.00,0.0130
1027.00,0.0132
1026.00,0.0133
1025.00,0.0134
1024.00,0.0136
1023.00,0.0139
1022.00,0.0142
1021.00,0.0145
1020.00,0.0147
1019.00,0.0149
1018.00,0.0149
1017.00,0.0150
1016.00,0.0150
1015.00,0.0151
1014.00,0.0151
1013.00,0.0150
1012.00,0.0150
1011.00,0.0150
1010.00,0.0151
1009.00,0.0153
1008.00,0.0157
1007.00,0.0161
1006.00,0.0168
1005.00,0.0178
1004.00,0.0193
1003.00,0.0217
1002.00,0.0250
1001.00,0.0292
1000.00,0.0338
999.00,0.0377
998.00,0.0396
997.00,0.0389
996.00,0.0358
995.00,0.0313
994.00,0.0265
993.00,0.0224
992.00,0.0192
991.00,0.0170
990.00,0.0155
989.00,0.0146
988.00,0.0139
987.00,0.0136
986.00,0.0134
985.00,0.0136
984.00,0.0139
983.00,0.0146
982.00,0.0156
981.00,0.0172
980.00,0.0194
979.00,0.0223
978.00,0.0260
977.00,0.0304
976.00,0.0353
975.00,0.0402
974.00,0.0440
973.00,0.0457
972.00,0.0444
971.00,0.0404
970.00,0.0348
969.00,0.0290
968.00,0.0240
967.00,0.0202
966.00,0.0176
965.00,0.0157
964.00,0.0144
963.00,0.0135
962.00,0.0128
961.00,0.0122
960.00,0.0117
959.00,0.0113
958.00,0.0109
957.00,0.0106
956.00,0.0102
955.00,0.0100
954.00,0.0099
953.00,0.0099
952.00,0.0098
951.00,0.0097
950.00,0.0096
949.00,0.0094
948.00,0.0094
947.00,0.0094
946.00,0.0095
945.00,0.0096
944.00,0.0097
943.00,0.0100
942.00,0.0103
941.00,0.0105
940.00,0.0106
939.00,0.0105
938.00,0.0101
937.00,0.0095
936.00,0.0089
935.00,0.0085
934.00,0.0081
933.00,0.0079
932.00,0.0077
931.00,0.0076
930.00,0.0075
929.00,0.0074
928.00,0.0072
927.00,0.0071
926.00,0.0071
925.00,0.0071
924.00,0.0071
923.00,0.0070
922.00,0.0069
921.00,0.0068
920.00,0.0068
919.00,0.0068
918.00,0.0069
917.00,0.0070
916.00,0.0071
915.00,0.0073
914.00,0.0074
913.00,0.0075
912.00,0.0076
911.00,0.0077
910.00,0.0078
909.00,0.0079
908.00,0.0082
907.00,0.0086
906.00,0.0092
905.00,0.0101
904.00,0.0114
903.00,0.0131
902.00,0.0149
901.00,0.0166
900.00,0.0176
899.00,0.0178
898.00,0.0171
897.00,0.0157
896.00,0.0141
895.00,0.0124
894.00,0.0111
893.00,0.0100
892.00,0.0094
891.00,0.0090
890.00,0.0088
889.00,0.0087
888.00,0.0085
887.00,0.0083
886.00,0.0081
885.00,0.0080
884.00,0.0080
883.00,0.0081
882.00,0.0082
881.00,0.0082
880.00,0.0083
879.00,0.0085
878.00,0.0086
877.00,0.0086
876.00,0.0086
875.00,0.0086
874.00,0.0086
873.00,0.0086
872.00,0.0086
871.00,0.0084
870.00,0.0083
869.00,0.0083
868.00,0.0083
867.00,0.0083
866.00,0.0085
865.00,0.0086
864.00,0.0087
863.00,0.0087
862.00,0.0087
861.00,0.0088
860.00,0.0089
859.00,0.0092
858.00,0.0094
857.00,0.0095
856.00,0.0097
855.00,0.0099
854.00,0.0101
853.00,0.0104
852.00,0.0107
851.00,0.0111
850.00,0.0116
849.00,0.0122
848.00,0.0131
847.00,0.0145
846.00,0.0166
845.00,0.0200
844.00,0.0250
843.00,0.0310
842.00,0.0362
841.00,0.0384
840.00,0.0363
839.00,0.0310
838.00,0.0249
837.00,0.0200
836.00,0.0167
835.00,0.0148
834.00,0.0136
833.00,0.0129
832.00,0.0124
831.00,0.0121
830.00,0.0118
829.00,0.0117
828.00,0.0115
827.00,0.0113
826.00,0.0111
825.00,0.0109
824.00,0.0110
823.00,0.0111
822.00,0.0112
821.00,0.0115
820.00,0.0117
819.00,0.0119
818.00,0.0122
817.00,0.0126
816.00,0.0133
815.00,0.0143
814.00,0.0156
813.00,0.0174
812.00,0.0192
811.00,0.0209
810.00,0.0222
809.00,0.0226
808.00,0.0222
807.00,0.0210
806.00,0.0195
805.00,0.0179
804.00,0.0165
803.00,0.0152
802.00,0.0142
801.00,0.0134
800.00,0.0127
799.00,0.0122
798.00,0.0117
797.00,0.0114
796.00,0.0110
795.00,0.0106
794.00,0.0102
793.00,0.0099
792.00,0.0096
791.00,0.0093
790.00,0.0090
789.00,0.0087
788.00,0.0085
787.00,0.0083
786.00,0.0082
785.00,0.0080
784.00,0.0078
783.00,0.0076
782.00,0.0075
781.00,0.0074
780.00,0.0072
779.00,0.0071
778.00,0.0071
777.00,0.0072
776.00,0.0073
775.00,0.0073
774.00,0.0072
773.00,0.0071
772.00,0.0070
771.00,0.0070
770.00,0.0069
769.00,0.0070
768.00,0.0071
767.00,0.0072
766.00,0.0073
765.00,0.0073
764.00,0.0073
763.00,0.0073
762.00,0.0073
761.00,0.0074
760.00,0.0074
759.00,0.0075
758.00,0.0076
757.00,0.0077
756.00,0.0079
755.00,0.0081
754.00,0.0083
753.00,0.0086
752.00,0.0087
751.00,0.0087
750.00,0.0087
749.00,0.0089
748.00,0.0092
747.00,0.0094
746.00,0.0096
745.00,0.0097
744.00,0.0098
743.00,0.0099
742.00,0.0102
741.00,0.0105
740.00,0.0108
739.00,0.0112
738.00,0.0116
737.00,0.0120
736.00,0.0124
735.00,0.0129
734.00,0.0133
733.00,0.0139
732.00,0.0146
731.00,0.0153
730.00,0.0160
729.00,0.0164
728.00,0.0166
727.00,0.0166
726.00,0.0167
725.00,0.0170
724.00,0.0175
723.00,0.0183
722.00,0.0190
721.00,0.0193
720.00,0.0191
719.00,0.0184
718.00,0.0174
717.00,0.0163
716.00,0.0153
715.00,0.0144
714.00,0.0136
713.00,0.0129
712.00,0.0123
711.00,0.0119
710.00,0.0116
709.00,0.0114
708.00,0.0114
707.00,0.0114
706.00,0.0115
705.00,0.0115
704.00,0.0114
703.00,0.0113
702.00,0.0110
701.00,0.0108
700.00,0.0104
699.00,0.0102
698.00,0.0102
697.00,0.0104
696.00,0.0106
695.00,0.0108
694.00,0.0107
693.00,0.0106
692.00,0.0106
691.00,0.0106
690.00,0.0106
689.00,0.0105
688.00,0.0104
687.00,0.0102
686.00,0.0100
685.00,0.0099
684.00,0.0100
683.00,0.0102
682.00,0.0103
681.00,0.0103
680.00,0.0100
679.00,0.0099
678.00,0.0101
677.00,0.0105
676.00,0.0108
675.00,0.0109
674.00,0.0108
673.00,0.0108
672.00,0.0109
671.00,0.0110
670.00,0.0112
669.00,0.0112
668.00,0.0113
667.00,0.0113
666.00,0.0111
665.00,0.0108
664.00,0.0107
663.00,0.0105
662.00,0.0103
661.00,0.0100
660.00,0.0098
659.00,0.0097
658.00,0.0096
657.00,0.0095
656.00,0.0095
655.00,0.0097
654.00,0.0100
653.00,0.0102
652.00,0.0101
651.00,0.0099
650.00,0.0097
649.00,0.0096
648.00,0.0095
647.00,0.0096
646.00,0.0096
645.00,0.0095
644.00,0.0093
643.00,0.0091
642.00,0.0090
641.00,0.0089
640.00,0.0089
639.00,0.0089
638.00,0.0090
637.00,0.0089
636.00,0.0089
635.00,0.0090
634.00,0.0092
633.00,0.0094
632.00,0.0094
631.00,0.0095
630.00,0.0095
629.00,0.0096
628.00,0.0096
627.00,0.0097
626.00,0.0097
625.00,0.0096
624.00,0.0096
623.00,0.0097
622.00,0.0099
621.00,0.0101
620.00,0.0101
619.00,0.0099
618.00,0.0095
617.00,0.0092
616.00,0.0091
615.00,0.0092
614.00,0.0095
613.00,0.0097
612.00,0.0097
611.00,0.0097
610.00,0.0098
609.00,0.0099
608.00,0.0099
607.00,0.0099
606.00,0.0099
605.00,0.0098
604.00,0.0097
603.00,0.0097
602.00,0.0096
601.00,0.0097
600.00,0.0099
599.00,0.0100
598.00,0.0101
597.00,0.0101
596.00,0.0100
595.00,0.0098
594.00,0.0095
593.00,0.0093
592.00,0.0092
591.00,0.0093
590.00,0.0094
589.00,0.0095
588.00,0.0096
587.00,0.0098
586.00,0.0098
585.00,0.0098
584.00,0.0096
583.00,0.0094
582.00,0.0093
581.00,0.0093
580.00,0.0092
579.00,0.0093
578.00,0.0096
577.00,0.0099
576.00,0.0102
575.00,0.0103
574.00,0.0102
573.00,0.0100
572.00,0.0097
571.00,0.0095
570.00,0.0096
569.00,0.0099
568.00,0.0101
567.00,0.0100
566.00,0.0098
565.00,0.0095
564.00,0.0093
563.00,0.0094
562.00,0.0095
561.00,0.0092
560.00,0.0088
559.00,0.0084
558.00,0.0085
557.00,0.0090
556.00,0.0097
555.00,0.0103
554.00,0.0108
553.00,0.0109
552.00,0.0109
551.00,0.0107
550.00,0.0106
549.00,0.0105
548.00,0.0104
547.00,0.0102
546.00,0.0102
545.00,0.0105
544.00,0.0107
543.00,0.0108
542.00,0.0107
541.00,0.0107
540.00,0.0109
539.00,0.0113
538.00,0.0118
537.00,0.0121
536.00,0.0123
535.00,0.0123
534.00,0.0123
533.00,0.0122
532.00,0.0119
531.00,0.0115
530.00,0.0111
529.00,0.0109
528.00,0.0108
527.00,0.0107
526.00,0.0106
525.00,0.0104
524.00,0.0104
523.00,0.0108
522.00,0.0115
521.00,0.0121
520.00,0.0122
519.00,0.0114
518.00,0.0103
517.00,0.0095
516.00,0.0092
515.00,0.0090
514.00,0.0089
513.00,0.0087
512.00,0.0085
511.00,0.0082
510.00,0.0079
509.00,0.0078
508.00,0.0079
507.00,0.0082
506.00,0.0087
505.00,0.0093
504.00,0.0097
503.00,0.0098
502.00,0.0095
501.00,0.0091
500.00,0.0088
499.00,0.0086
498.00,0.0085
497.00,0.0086
496.00,0.0089
495.00,0.0093
494.00,0.0096
493.00,0.0099
492.00,0.0102
491.00,0.0106
490.00,0.0109
489.00,0.0107
488.00,0.0104
487.00,0.0100
486.00,0.0096
485.00,0.0093
484.00,0.0090
483.00,0.0092
482.00,0.0098
481.00,0.0107
480.00,0.0112
479.00,0.0114
478.00,0.0115
477.00,0.0116
476.00,0.0117
475.00,0.0119
474.00,0.0125
473.00,0.0133
472.00,0.0142
471.00,0.0150
470.00,0.0159
469.00,0.0170
468.00,0.0181
467.00,0.0189
466.00,0.0191
465.00,0.0189
464.00,0.0184
463.00,0.0178
462.00,0.0173
461.00,0.0169
460.00,0.0166
459.00,0.0163
458.00,0.0163
457.00,0.0172
456.00,0.0184
455.00,0.0196
454.00,0.0207
453.00,0.0213
452.00,0.0211
451.00,0.0200
450.00,0.0184
