Created as New Dataset,Sample 003 By Administrator Date Wednesday, September 03 2025
cm-1,A
4000.00,0.0012
3999.00,0.0012
3998.00,0.0012
3997.00,0.0013
3996.00,0.0013
3995.00,0.0013
3994.00,0.0013
3993.00,0.0012
3992.00,0.0012
3991.00,0.0012
3990.00,0.0012
3989.00,0.0012
3988.00,0.0012
3987.00,0.0012
3986.00,0.0011
3985.00,0.0011
3984.00,0.0011
3983.00,0.0011
3982.00,0.0011
3981.00,0.0011
3980.00,0.0011
3979.00,0.0011
3978.00,0.0011
3977.00,0.0011
3976.00,0.0011
3975.00,0.0012
3974.00,0.0012
3973.00,0.0012
3972.00,0.0011
3971.00,0.0011
3970.00,0.0011
3969.00,0.0011
3968.00,0.0011
3967.00,0.0011
3966.00,0.0011
3965.00,0.0011
3964.00,0.0011
3963.00,0.0011
3962.00,0.0011
3961.00,0.0011
3960.00,0.0011
3959.00,0.0011
3958.00,0.0011
3957.00,0.0012
3956.00,0.0012
3955.00,0.0012
3954.00,0.0012
3953.00,0.0012
3952.00,0.0012
3951.00,0.0012
3950.00,0.0011
3949.00,0.0011
3948.00,0.0010
3947.00,0.0010
3946.00,0.0010
3945.00,0.0010
3944.00,0.0010
3943.00,0.0010
3942.00,0.0010
3941.00,0.0010
3940.00,0.0010
3939.00,0.0010
3938.00,0.0010
3937.00,0.0010
3936.00,0.0011
3935.00,0.0011
3934.00,0.0010
3933.00,0.0010
3932.00,0.0010
3931.00,0.0010
3930.00,0.0010
3929.00,0.0010
3928.00,0.0010
3927.00,0.0011
3926.00,0.0011
3925.00,0.0011
3924.00,0.0010
3923.00,0.0010
3922.00,0.0011
3921.00,0.0011
3920.00,0.0011
3919.00,0.0011
3918.00,0.0011
3917.00,0.0011
3916.00,0.0011
3915.00,0.0011
3914.00,0.0011
3913.00,0.0010
3912.00,0.0010
3911.00,0.0010
3910.00,0.0010
3909.00,0.0010
3908.00,0.0010
3907.00,0.0010
3906.00,0.0010
3905.00,0.0010
3904.00,0.0010
3903.00,0.0010
3902.00,0.0010
3901.00,0.0010
3900.00,0.0010
3899.00,0.0010
3898.00,0.0010
3897.00,0.0010
3896.00,0.0010
3895.00,0.0010
3894.00,0.0010
3893.00,0.0010
3892.00,0.0011
3891.00,0.0011
3890.00,0.0011
3889.00,0.0011
3888.00,0.0011
3887.00,0.0011
3886.00,0.0010
3885.00,0.0010
3884.00,0.0010
3883.00,0.0010
3882.00,0.0009
3881.00,0.0009
3880.00,0.0008
3879.00,0.0008
3878.00,0.0009
3877.00,0.0009
3876.00,0.0010
3875.00,0.0011
3874.00,0.0011
3873.00,0.0011
3872.00,0.0011
3871.00,0.0011
3870.00,0.0010
3869.00,0.0010
3868.00,0.0010
3867.00,0.0010
3866.00,0.0010
3865.00,0.0010
3864.00,0.0010
3863.00,0.0010
3862.00,0.0010
3861.00,0.0009
3860.00,0.0009
3859.00,0.0008
3858.00,0.0009
3857.00,0.0009
3856.00,0.0009
3855.00,0.0009
3854.00,0.0009
3853.00,0.0009
3852.00,0.0009
3851.00,0.0009
3850.00,0.0009
3849.00,0.0009
3848.00,0.0009
3847.00,0.0009
3846.00,0.0009
3845.00,0.0009
3844.00,0.0009
3843.00,0.0009
3842.00,0.0009
3841.00,0.0009
3840.00,0.0009
3839.00,0.0009
3838.00,0.0009
3837.00,0.0010
3836.00,0.0010
3835.00,0.0009
3834.00,0.0009
3833.00,0.0009
3832.00,0.0009
3831.00,0.0009
3830.00,0.0009
3829.00,0.0009
3828.00,0.0009
3827.00,0.0009
3826.00,0.0009
3825.00,0.0009
3824.00,0.0010
3823.00,0.0010
3822.00,0.0009
3821.00,0.0009
3820.00,0.0009
3819.00,0.0009
3818.00,0.0009
3817.00,0.0009
3816.00,0.0009
3815.00,0.0009
3814.00,0.0009
3813.00,0.0009
3812.00,0.0008
3811.00,0.0008
3810.00,0.0009
3809.00,0.0009
3808.00,0.0009
3807.00,0.0010
3806.00,0.0010
3805.00,0.0010
3804.00,0.0010
3803.00,0.0010
3802.00,0.0010
3801.00,0.0010
3800.00,0.0010
3799.00,0.0010
3798.00,0.0010
3797.00,0.0009
3796.00,0.0009
3795.00,0.0009
3794.00,0.0009
3793.00,0.0009
3792.00,0.0009
3791.00,0.0010
3790.00,0.0010
3789.00,0.0010
3788.00,0.0010
3787.00,0.0010
3786.00,0.0009
3785.00,0.0009
3784.00,0.0009
3783.00,0.0009
3782.00,0.0009
3781.00,0.0009
3780.00,0.0010
3779.00,0.0010
3778.00,0.0010
3777.00,0.0010
3776.00,0.0010
3775.00,0.0010
3774.00,0.0010
3773.00,0.0010
3772.00,0.0010
3771.00,0.0010
3770.00,0.0010
3769.00,0.0010
3768.00,0.0010
3767.00,0.0010
3766.00,0.0010
3765.00,0.0010
3764.00,0.0010
3763.00,0.0010
3762.00,0.0010
3761.00,0.0010
3760.00,0.0010
3759.00,0.0011
3758.00,0.0011
3757.00,0.0011
3756.00,0.0011
3755.00,0.0011
3754.00,0.0011
3753.00,0.0011
3752.00,0.0011
3751.00,0.0010
3750.00,0.0010
3749.00,0.0009
3748.00,0.0009
3747.00,0.0010
3746.00,0.0010
3745.00,0.0009
3744.00,0.0009
3743.00,0.0010
3742.00,0.0010
3741.00,0.0010
3740.00,0.0010
3739.00,0.0009
3738.00,0.0009
3737.00,0.0009
3736.00,0.0009
3735.00,0.0009
3734.00,0.0009
3733.00,0.0009
3732.00,0.0009
3731.00,0.0009
3730.00,0.0009
3729.00,0.0009
3728.00,0.0009
3727.00,0.0008
3726.00,0.0008
3725.00,0.0008
3724.00,0.0008
3723.00,0.0009
3722.00,0.0009
3721.00,0.0009
3720.00,0.0009
3719.00,0.0009
3718.00,0.0008
3717.00,0.0008
3716.00,0.0008
3715.00,0.0008
3714.00,0.0008
3713.00,0.0009
3712.00,0.0009
3711.00,0.0010
3710.00,0.0010
3709.00,0.0010
3708.00,0.0010
3707.00,0.0009
3706.00,0.0009
3705.00,0.0010
3704.00,0.0010
3703.00,0.0010
3702.00,0.0010
3701.00,0.0010
3700.00,0.0010
3699.00,0.0010
3698.00,0.0010
3697.00,0.0010
3696.00,0.0010
3695.00,0.0010
3694.00,0.0011
3693.00,0.0010
3692.00,0.0010
3691.00,0.0010
3690.00,0.0010
3689.00,0.0009
3688.00,0.0009
3687.00,0.0009
3686.00,0.0008
3685.00,0.0008
3684.00,0.0007
3683.00,0.0007
3682.00,0.0006
3681.00,0.0006
3680.00,0.0006
3679.00,0.0006
3678.00,0.0006
3677.00,0.0005
3676.00,0.0004
3675.00,0.0003
3674.00,0.0003
3673.00,0.0002
3672.00,0.0001
3671.00,-0.0000
3670.00,-0.0001
3669.00,-0.0001
3668.00,-0.0001
3667.00,-0.0001
3666.00,-0.0001
3665.00,-0.0001
3664.00,-0.0001
3663.00,-0.0002
3662.00,-0.0002
3661.00,-0.0002
3660.00,-0.0002
3659.00,-0.0002
3658.00,-0.0001
3657.00,-0.0001
3656.00,-0.0000
3655.00,0.0000
3654.00,0.0001
3653.00,0.0001
3652.00,0.0001
3651.00,0.0000
3650.00,0.0000
3649.00,0.0001
3648.00,0.0002
3647.00,0.0003
3646.00,0.0004
3645.00,0.0005
3644.00,0.0006
3643.00,0.0006
3642.00,0.0007
3641.00,0.0007
3640.00,0.0008
3639.00,0.0008
3638.00,0.0008
3637.00,0.0009
3636.00,0.0010
3635.00,0.0011
3634.00,0.0013
3633.00,0.0015
3632.00,0.0016
3631.00,0.0017
3630.00,0.0018
3629.00,0.0019
3628.00,0.0020
3627.00,0.0021
3626.00,0.0021
3625.00,0.0021
3624.00,0.0021
3623.00,0.0021
3622.00,0.0022
3621.00,0.0022
3620.00,0.0023
3619.00,0.0023
3618.00,0.0023
3617.00,0.0024
3616.00,0.0024
3615.00,0.0025
3614.00,0.0026
3613.00,0.0027
3612.00,0.0027
3611.00,0.0028
3610.00,0.0028
3609.00,0.0028
3608.00,0.0029
3607.00,0.0029
3606.00,0.0030
3605.00,0.0031
3604.00,0.0031
3603.00,0.0032
3602.00,0.0032
3601.00,0.0033
3600.00,0.0034
3599.00,0.0034
3598.00,0.0035
3597.00,0.0036
3596.00,0.0036
3595.00,0.0037
3594.00,0.0037
3593.00,0.0037
3592.00,0.0038
3591.00,0.0039
3590.00,0.0040
3589.00,0.0041
3588.00,0.0042
3587.00,0.0043
3586.00,0.0043
3585.00,0.0043
3584.00,0.0043
3583.00,0.0044
3582.00,0.0044
3581.00,0.0045
3580.00,0.0045
3579.00,0.0046
3578.00,0.0046
3577.00,0.0046
3576.00,0.0046
3575.00,0.0047
3574.00,0.0048
3573.00,0.0048
3572.00,0.0049
3571.00,0.0050
3570.00,0.0051
3569.00,0.0052
3568.00,0.0052
3567.00,0.0052
3566.00,0.0053
3565.00,0.0053
3564.00,0.0054
3563.00,0.0054
3562.00,0.0055
3561.00,0.0056
3560.00,0.0056
3559.00,0.0057
3558.00,0.0057
3557.00,0.0058
3556.00,0.0059
3555.00,0.0059
3554.00,0.0060
3553.00,0.0060
3552.00,0.0061
3551.00,0.0061
3550.00,0.0062
3549.00,0.0062
3548.00,0.0063
3547.00,0.0064
3546.00,0.0064
3545.00,0.0065
3544.00,0.0066
3543.00,0.0066
3542.00,0.0067
3541.00,0.0067
3540.00,0.0068
3539.00,0.0068
3538.00,0.0069
3537.00,0.0070
3536.00,0.0071
3535.00,0.0071
3534.00,0.0072
3533.00,0.0073
3532.00,0.0073
3531.00,0.0074
3530.00,0.0074
3529.00,0.0075
3528.00,0.0075
3527.00,0.0076
3526.00,0.0076
3525.00,0.0077
3524.00,0.0078
3523.00,0.0078
3522.00,0.0079
3521.00,0.0080
3520.00,0.0081
3519.00,0.0081
3518.00,0.0082
3517.00,0.0082
3516.00,0.0082
3515.00,0.0083
3514.00,0.0083
3513.00,0.0083
3512.00,0.0084
3511.00,0.0085
3510.00,0.0086
3509.00,0.0087
3508.00,0.0088
3507.00,0.0088
3506.00,0.0089
3505.00,0.0090
3504.00,0.0090
3503.00,0.0090
3502.00,0.0091
3501.00,0.0091
3500.00,0.0091
3499.00,0.0092
3498.00,0.0092
3497.00,0.0093
3496.00,0.0094
3495.00,0.0095
3494.00,0.0096
3493.00,0.0097
3492.00,0.0097
3491.00,0.0098
3490.00,0.0099
3489.00,0.0100
3488.00,0.0100
3487.00,0.0101
3486.00,0.0101
3485.00,0.0102
3484.00,0.0102
3483.00,0.0103
3482.00,0.0103
3481.00,0.0103
3480.00,0.0104
3479.00,0.0105
3478.00,0.0105
3477.00,0.0106
3476.00,0.0106
3475.00,0.0107
3474.00,0.0107
3473.00,0.0107
3472.00,0.0108
3471.00,0.0109
3470.00,0.0110
3469.00,0.0110
3468.00,0.0111
3467.00,0.0111
3466.00,0.0112
3465.00,0.0112
3464.00,0.0112
3463.00,0.0113
3462.00,0.0114
3461.00,0.0114
3460.00,0.0114
3459.00,0.0115
3458.00,0.0116
3457.00,0.0116
3456.00,0.0117
3455.00,0.0117
3454.00,0.0117
3453.00,0.0117
3452.00,0.0118
3451.00,0.0118
3450.00,0.0119
3449.00,0.0120
3448.00,0.0121
3447.00,0.0122
3446.00,0.0122
3445.00,0.0122
3444.00,0.0123
3443.00,0.0123
3442.00,0.0124
3441.00,0.0124
3440.00,0.0125
3439.00,0.0126
3438.00,0.0126
3437.00,0.0126
3436.00,0.0127
3435.00,0.0127
3434.00,0.0127
3433.00,0.0128
3432.00,0.0128
3431.00,0.0129
3430.00,0.0129
3429.00,0.0129
3428.00,0.0130
3427.00,0.0131
3426.00,0.0131
3425.00,0.0132
3424.00,0.0132
3423.00,0.0133
3422.00,0.0133
3421.00,0.0134
3420.00,0.0135
3419.00,0.0135
3418.00,0.0136
3417.00,0.0136
3416.00,0.0136
3415.00,0.0137
3414.00,0.0137
3413.00,0.0138
3412.00,0.0139
3411.00,0.0139
3410.00,0.0140
3409.00,0.0140
3408.00,0.0140
3407.00,0.0141
3406.00,0.0141
3405.00,0.0142
3404.00,0.0142
3403.00,0.0142
3402.00,0.0142
3401.00,0.0142
3400.00,0.0143
3399.00,0.0143
3398.00,0.0143
3397.00,0.0144
3396.00,0.0145
3395.00,0.0145
3394.00,0.0145
3393.00,0.0146
3392.00,0.0146
3391.00,0.0146
3390.00,0.0146
3389.00,0.0146
3388.00,0.0146
3387.00,0.0146
3386.00,0.0146
3385.00,0.0147
3384.00,0.0147
3383.00,0.0147
3382.00,0.0148
3381.00,0.0148
3380.00,0.0148
3379.00,0.0148
3378.00,0.0148
3377.00,0.0148
3376.00,0.0149
3375.00,0.0149
3374.00,0.0150
3373.00,0.0150
3372.00,0.0150
3371.00,0.0151
3370.00,0.0151
3369.00,0.0151
3368.00,0.0151
3367.00,0.0151
3366.00,0.0152
3365.00,0.0152
3364.00,0.0152
3363.00,0.0152
3362.00,0.0152
3361.00,0.0152
3360.00,0.0153
3359.00,0.0153
3358.00,0.0153
3357.00,0.0153
3356.00,0.0154
3355.00,0.0154
3354.00,0.0154
3353.00,0.0154
3352.00,0.0154
3351.00,0.0155
3350.00,0.0155
3349.00,0.0155
3348.00,0.0155
3347.00,0.0155
3346.00,0.0155
3345.00,0.0155
3344.00,0.0155
3343.00,0.0155
3342.00,0.0155
3341.00,0.0155
3340.00,0.0154
3339.00,0.0154
3338.00,0.0154
3337.00,0.0155
3336.00,0.0155
3335.00,0.0155
3334.00,0.0155
3333.00,0.0155
3332.00,0.0155
3331.00,0.0155
3330.00,0.0155
3329.00,0.0155
3328.00,0.0155
3327.00,0.0155
3326.00,0.0155
3325.00,0.0155
3324.00,0.0155
3323.00,0.0155
3322.00,0.0155
3321.00,0.0155
3320.00,0.0154
3319.00,0.0154
3318.00,0.0154
3317.00,0.0154
3316.00,0.0154
3315.00,0.0154
3314.00,0.0154
3313.00,0.0154
3312.00,0.0154
3311.00,0.0154
3310.00,0.0154
3309.00,0.0154
3308.00,0.0154
3307.00,0.0154
3306.00,0.0154
3305.00,0.0155
3304.00,0.0155
3303.00,0.0155
3302.00,0.0155
3301.00,0.0155
3300.00,0.0155
3299.00,0.0154
3298.00,0.0153
3297.00,0.0153
3296.00,0.0152
3295.00,0.0151
3294.00,0.0150
3293.00,0.0149
3292.00,0.0149
3291.00,0.0148
3290.00,0.0148
3289.00,0.0147
3288.00,0.0147
3287.00,0.0147
3286.00,0.0146
3285.00,0.0146
3284.00,0.0146
3283.00,0.0145
3282.00,0.0145
3281.00,0.0144
3280.00,0.0143
3279.00,0.0143
3278.00,0.0142
3277.00,0.0142
3276.00,0.0141
3275.00,0.0141
3274.00,0.0141
3273.00,0.0140
3272.00,0.0140
3271.00,0.0139
3270.00,0.0139
3269.00,0.0139
3268.00,0.0138
3267.00,0.0138
3266.00,0.0137
3265.00,0.0136
3264.00,0.0136
3263.00,0.0135
3262.00,0.0134
3261.00,0.0133
3260.00,0.0133
3259.00,0.0132
3258.00,0.0131
3257.00,0.0131
3256.00,0.0130
3255.00,0.0130
3254.00,0.0129
3253.00,0.0129
3252.00,0.0128
3251.00,0.0127
3250.00,0.0127
3249.00,0.0126
3248.00,0.0125
3247.00,0.0125
3246.00,0.0124
3245.00,0.0124
3244.00,0.0123
3243.00,0.0123
3242.00,0.0123
3241.00,0.0123
3240.00,0.0123
3239.00,0.0122
3238.00,0.0122
3237.00,0.0121
3236.00,0.0121
3235.00,0.0120
3234.00,0.0120
3233.00,0.0119
3232.00,0.0119
3231.00,0.0118
3230.00,0.0118
3229.00,0.0119
3228.00,0.0119
3227.00,0.0119
3226.00,0.0119
3225.00,0.0119
3224.00,0.0118
3223.00,0.0118
3222.00,0.0118
3221.00,0.0118
3220.00,0.0118
3219.00,0.0117
3218.00,0.0117
3217.00,0.0117
3216.00,0.0117
3215.00,0.0116
3214.00,0.0116
3213.00,0.0116
3212.00,0.0116
3211.00,0.0116
3210.00,0.0116
3209.00,0.0116
3208.00,0.0116
3207.00,0.0116
3206.00,0.0116
3205.00,0.0115
3204.00,0.0115
3203.00,0.0115
3202.00,0.0115
3201.00,0.0115
3200.00,0.0114
3199.00,0.0114
3198.00,0.0114
3197.00,0.0114
3196.00,0.0114
3195.00,0.0114
3194.00,0.0113
3193.00,0.0113
3192.00,0.0113
3191.00,0.0112
3190.00,0.0112
3189.00,0.0112
3188.00,0.0111
3187.00,0.0111
3186.00,0.0110
3185.00,0.0110
3184.00,0.0110
3183.00,0.0110
3182.00,0.0110
3181.00,0.0109
3180.00,0.0108
3179.00,0.0108
3178.00,0.0107
3177.00,0.0106
3176.00,0.0106
3175.00,0.0106
3174.00,0.0106
3173.00,0.0105
3172.00,0.0105
3171.00,0.0105
3170.00,0.0104
3169.00,0.0104
3168.00,0.0104
3167.00,0.0103
3166.00,0.0103
3165.00,0.0102
3164.00,0.0102
3163.00,0.0102
3162.00,0.0101
3161.00,0.0101
3160.00,0.0101
3159.00,0.0100
3158.00,0.0100
3157.00,0.0099
3156.00,0.0099
3155.00,0.0098
3154.00,0.0098
3153.00,0.0098
3152.00,0.0098
3151.00,0.0097
3150.00,0.0097
3149.00,0.0097
3148.00,0.0096
3147.00,0.0096
3146.00,0.0095
3145.00,0.0095
3144.00,0.0094
3143.00,0.0094
3142.00,0.0094
3141.00,0.0094
3140.00,0.0093
3139.00,0.0093
3138.00,0.0093
3137.00,0.0092
3136.00,0.0092
3135.00,0.0092
3134.00,0.0091
3133.00,0.0090
3132.00,0.0090
3131.00,0.0089
3130.00,0.0089
3129.00,0.0089
3128.00,0.0088
3127.00,0.0088
3126.00,0.0087
3125.00,0.0087
3124.00,0.0086
3123.00,0.0085
3122.00,0.0085
3121.00,0.0084
3120.00,0.0084
3119.00,0.0083
3118.00,0.0083
3117.00,0.0083
3116.00,0.0082
3115.00,0.0082
3114.00,0.0082
3113.00,0.0081
3112.00,0.0081
3111.00,0.0080
3110.00,0.0080
3109.00,0.0080
3108.00,0.0080
3107.00,0.0080
3106.00,0.0079
3105.00,0.0079
3104.00,0.0078
3103.00,0.0078
3102.00,0.0077
3101.00,0.0077
3100.00,0.0076
3099.00,0.0076
3098.00,0.0077
3097.00,0.0077
3096.00,0.0077
3095.00,0.0077
3094.00,0.0077
3093.00,0.0076
3092.00,0.0076
3091.00,0.0075
3090.00,0.0075
3089.00,0.0075
3088.00,0.0075
3087.00,0.0075
3086.00,0.0075
3085.00,0.0075
3084.00,0.0075
3083.00,0.0075
3082.00,0.0074
3081.00,0.0073
3080.00,0.0073
3079.00,0.0073
3078.00,0.0073
3077.00,0.0073
3076.00,0.0073
3075.00,0.0073
3074.00,0.0073
3073.00,0.0074
3072.00,0.0074
3071.00,0.0074
3070.00,0.0074
3069.00,0.0074
3068.00,0.0074
3067.00,0.0074
3066.00,0.0074
3065.00,0.0075
3064.00,0.0075
3063.00,0.0075
3062.00,0.0075
3061.00,0.0076
3060.00,0.0076
3059.00,0.0075
3058.00,0.0075
3057.00,0.0075
3056.00,0.0075
3055.00,0.0075
3054.00,0.0075
3053.00,0.0075
3052.00,0.0075
3051.00,0.0075
3050.00,0.0075
3049.00,0.0075
3048.00,0.0076
3047.00,0.0076
3046.00,0.0075
3045.00,0.0075
3044.00,0.0075
3043.00,0.0075
3042.00,0.0076
3041.00,0.0076
3040.00,0.0077
3039.00,0.0077
3038.00,0.0078
3037.00,0.0078
3036.00,0.0079
3035.00,0.0079
3034.00,0.0079
3033.00,0.0079
3032.00,0.0079
3031.00,0.0079
3030.00,0.0079
3029.00,0.0079
3028.00,0.0079
3027.00,0.0080
3026.00,0.0080
3025.00,0.0080
3024.00,0.0080
3023.00,0.0079
3022.00,0.0079
3021.00,0.0079
3020.00,0.0078
3019.00,0.0078
3018.00,0.0078
3017.00,0.0077
3016.00,0.0076
3015.00,0.0075
3014.00,0.0074
3013.00,0.0073
3012.00,0.0072
3011.00,0.0070
3010.00,0.0067
3009.00,0.0065
3008.00,0.0062
3007.00,0.0059
3006.00,0.0056
3005.00,0.0052
3004.00,0.0049
3003.00,0.0046
3002.00,0.0044
3001.00,0.0041
3000.00,0.0039
2999.00,0.0038
2998.00,0.0037
2997.00,0.0037
2996.00,0.0038
2995.00,0.0039
2994.00,0.0040
2993.00,0.0042
2992.00,0.0044
2991.00,0.0047
2990.00,0.0050
2989.00,0.0054
2988.00,0.0058
2987.00,0.0061
2986.00,0.0063
2985.00,0.0061
2984.00,0.0058
2983.00,0.0056
2982.00,0.0060
2981.00,0.0073
2980.00,0.0094
2979.00,0.0121
2978.00,0.0150
2977.00,0.0181
2976.00,0.0214
2975.00,0.0247
2974.00,0.0282
2973.00,0.0322
2972.00,0.0368
2971.00,0.0423
2970.00,0.0487
2969.00,0.0558
2968.00,0.0635
2967.00,0.0717
2966.00,0.0802
2965.00,0.0891
2964.00,0.0980
2963.00,0.1066
2962.00,0.1145
2961.00,0.1214
2960.00,0.1271
2959.00,0.1316
2958.00,0.1352
2957.00,0.1382
2956.00,0.1411
2955.00,0.1441
2954.00,0.1474
2953.00,0.1506
2952.00,0.1533
2951.00,0.1549
2950.00,0.1545
2949.00,0.1518
2948.00,0.1468
2947.00,0.1397
2946.00,0.1314
2945.00,0.1227
2944.00,0.1146
2943.00,0.1079
2942.00,0.1029
2941.00,0.0998
2940.00,0.0985
2939.00,0.0989
2938.00,0.1009
2937.00,0.1042
2936.00,0.1088
2935.00,0.1145
2934.00,0.1211
2933.00,0.1287
2932.00,0.1371
2931.00,0.1461
2930.00,0.1555
2929.00,0.1652
2928.00,0.1748
2927.00,0.1841
2926.00,0.1931
2925.00,0.2015
2924.00,0.2095
2923.00,0.2172
2922.00,0.2244
2921.00,0.2311
2920.00,0.2367
2919.00,0.2406
2918.00,0.2422
2917.00,0.2408
2916.00,0.2363
2915.00,0.2293
2914.00,0.2206
2913.00,0.2111
2912.00,0.2019
2911.00,0.1934
2910.00,0.1858
2909.00,0.1792
2908.00,0.1733
2907.00,0.1678
2906.00,0.1624
2905.00,0.1570
2904.00,0.1515
2903.00,0.1459
2902.00,0.1403
2901.00,0.1347
2900.00,0.1293
2899.00,0.1240
2898.00,0.1190
2897.00,0.1144
2896.00,0.1101
2895.00,0.1063
2894.00,0.1029
2893.00,0.1000
2892.00,0.0976
2891.00,0.0957
2890.00,0.0942
2889.00,0.0931
2888.00,0.0924
2887.00,0.0920
2886.00,0.0918
2885.00,0.0920
2884.00,0.0926
2883.00,0.0937
2882.00,0.0952
2881.00,0.0970
2880.00,0.0988
2879.00,0.1005
2878.00,0.1017
2877.00,0.1023
2876.00,0.1024
2875.00,0.1022
2874.00,0.1021
2873.00,0.1022
2872.00,0.1029
2871.00,0.1040
2870.00,0.1054
2869.00,0.1068
2868.00,0.1078
2867.00,0.1078
2866.00,0.1065
2865.00,0.1037
2864.00,0.0999
2863.00,0.0955
2862.00,0.0913
2861.00,0.0878
2860.00,0.0854
2859.00,0.0843
2858.00,0.0841
2857.00,0.0848
2856.00,0.0862
2855.00,0.0880
2854.00,0.0901
2853.00,0.0922
2852.00,0.0941
2851.00,0.0954
2850.00,0.0958
2849.00,0.0953
2848.00,0.0941
2847.00,0.0929
2846.00,0.0924
2845.00,0.0929
2844.00,0.0945
2843.00,0.0971
2842.00,0.1003
2841.00,0.1036
2840.00,0.1063
2839.00,0.1077
2838.00,0.1071
2837.00,0.1041
2836.00,0.0987
2835.00,0.0914
2834.00,0.0827
2833.00,0.0737
2832.00,0.0651
2831.00,0.0574
2830.00,0.0509
2829.00,0.0455
2828.00,0.0411
2827.00,0.0375
2826.00,0.0345
2825.00,0.0320
2824.00,0.0299
2823.00,0.0282
2822.00,0.0266
2821.00,0.0253
2820.00,0.0241
2819.00,0.0231
2818.00,0.0222
2817.00,0.0214
2816.00,0.0207
2815.00,0.0201
2814.00,0.0195
2813.00,0.0190
2812.00,0.0185
2811.00,0.0180
2810.00,0.0175
2809.00,0.0170
2808.00,0.0165
2807.00,0.0160
2806.00,0.0154
2805.00,0.0149
2804.00,0.0143
2803.00,0.0138
2802.00,0.0133
2801.00,0.0129
2800.00,0.0126
2799.00,0.0123
2798.00,0.0120
2797.00,0.0118
2796.00,0.0116
2795.00,0.0114
2794.00,0.0112
2793.00,0.0109
2792.00,0.0106
2791.00,0.0103
2790.00,0.0100
2789.00,0.0097
2788.00,0.0094
2787.00,0.0092
2786.00,0.0089
2785.00,0.0087
2784.00,0.0085
2783.00,0.0082
2782.00,0.0080
2781.00,0.0079
2780.00,0.0077
2779.00,0.0075
2778.00,0.0074
2777.00,0.0073
2776.00,0.0071
2775.00,0.0070
2774.00,0.0069
2773.00,0.0069
2772.00,0.0068
2771.00,0.0068
2770.00,0.0067
2769.00,0.0067
2768.00,0.0067
2767.00,0.0066
2766.00,0.0066
2765.00,0.0065
2764.00,0.0065
2763.00,0.0064
2762.00,0.0064
2761.00,0.0064
2760.00,0.0063
2759.00,0.0062
2758.00,0.0062
2757.00,0.0062
2756.00,0.0062
2755.00,0.0062
2754.00,0.0062
2753.00,0.0062
2752.00,0.0062
2751.00,0.0062
2750.00,0.0062
2749.00,0.0061
2748.00,0.0061
2747.00,0.0061
2746.00,0.0061
2745.00,0.0061
2744.00,0.0062
2743.00,0.0062
2742.00,0.0063
2741.00,0.0064
2740.00,0.0065
2739.00,0.0066
2738.00,0.0067
2737.00,0.0068
2736.00,0.0069
2735.00,0.0070
2734.00,0.0071
2733.00,0.0072
2732.00,0.0073
2731.00,0.0074
2730.00,0.0076
2729.00,0.0078
2728.00,0.0080
2727.00,0.0083
2726.00,0.0085
2725.00,0.0086
2724.00,0.0087
2723.00,0.0088
2722.00,0.0087
2721.00,0.0085
2720.00,0.0083
2719.00,0.0081
2718.00,0.0078
2717.00,0.0076
2716.00,0.0074
2715.00,0.0071
2714.00,0.0069
2713.00,0.0067
2712.00,0.0066
2711.00,0.0064
2710.00,0.0063
2709.00,0.0062
2708.00,0.0061
2707.00,0.0060
2706.00,0.0059
2705.00,0.0058
2704.00,0.0057
2703.00,0.0056
2702.00,0.0055
2701.00,0.0054
2700.00,0.0054
2699.00,0.0054
2698.00,0.0053
2697.00,0.0053
2696.00,0.0053
2695.00,0.0053
2694.00,0.0053
2693.00,0.0053
2692.00,0.0053
2691.00,0.0053
2690.00,0.0053
2689.00,0.0053
2688.00,0.0052
2687.00,0.0052
2686.00,0.0052
2685.00,0.0052
2684.00,0.0052
2683.00,0.0052
2682.00,0.0052
2681.00,0.0051
2680.00,0.0051
2679.00,0.0051
2678.00,0.0051
2677.00,0.0051
2676.00,0.0051
2675.00,0.0051
2674.00,0.0050
2673.00,0.0050
2672.00,0.0050
2671.00,0.0049
2670.00,0.0049
2669.00,0.0049
2668.00,0.0049
2667.00,0.0049
2666.00,0.0050
2665.00,0.0051
2664.00,0.0051
2663.00,0.0051
2662.00,0.0052
2661.00,0.0052
2660.00,0.0052
2659.00,0.0052
2658.00,0.0052
2657.00,0.0052
2656.00,0.0052
2655.00,0.0051
2654.00,0.0050
2653.00,0.0050
2652.00,0.0049
2651.00,0.0049
2650.00,0.0049
2649.00,0.0048
2648.00,0.0048
2647.00,0.0047
2646.00,0.0047
2645.00,0.0047
2644.00,0.0047
2643.00,0.0047
2642.00,0.0046
2641.00,0.0046
2640.00,0.0045
2639.00,0.0044
2638.00,0.0044
2637.00,0.0044
2636.00,0.0044
2635.00,0.0044
2634.00,0.0045
2633.00,0.0045
2632.00,0.0045
2631.00,0.0045
2630.00,0.0045
2629.00,0.0045
2628.00,0.0045
2627.00,0.0045
2626.00,0.0044
2625.00,0.0044
2624.00,0.0044
2623.00,0.0044
2622.00,0.0044
2621.00,0.0045
2620.00,0.0045
2619.00,0.0045
2618.00,0.0046
2617.00,0.0046
2616.00,0.0046
2615.00,0.0045
2614.00,0.0045
2613.00,0.0044
2612.00,0.0043
2611.00,0.0043
2610.00,0.0042
2609.00,0.0042
2608.00,0.0041
2607.00,0.0040
2606.00,0.0039
2605.00,0.0039
2604.00,0.0038
2603.00,0.0038
2602.00,0.0038
2601.00,0.0038
2600.00,0.0038
2599.00,0.0037
2598.00,0.0037
2597.00,0.0036
2596.00,0.0036
2595.00,0.0036
2594.00,0.0037
2593.00,0.0038
2592.00,0.0039
2591.00,0.0040
2590.00,0.0040
2589.00,0.0040
2588.00,0.0040
2587.00,0.0040
2586.00,0.0041
2585.00,0.0041
2584.00,0.0041
2583.00,0.0042
2582.00,0.0042
2581.00,0.0042
2580.00,0.0041
2579.00,0.0040
2578.00,0.0038
2577.00,0.0037
2576.00,0.0037
2575.00,0.0036
2574.00,0.0035
2573.00,0.0035
2572.00,0.0034
2571.00,0.0033
2570.00,0.0033
2569.00,0.0032
2568.00,0.0032
2567.00,0.0031
2566.00,0.0031
2565.00,0.0031
2564.00,0.0030
2563.00,0.0030
2562.00,0.0030
2561.00,0.0030
2560.00,0.0029
2559.00,0.0029
2558.00,0.0028
2557.00,0.0028
2556.00,0.0027
2555.00,0.0027
2554.00,0.0027
2553.00,0.0027
2552.00,0.0027
2551.00,0.0026
2550.00,0.0025
2549.00,0.0025
2548.00,0.0025
2547.00,0.0025
2546.00,0.0025
2545.00,0.0024
2544.00,0.0024
2543.00,0.0024
2542.00,0.0024
2541.00,0.0024
2540.00,0.0024
2539.00,0.0024
2538.00,0.0023
2537.00,0.0023
2536.00,0.0023
2535.00,0.0023
2534.00,0.0022
2533.00,0.0022
2532.00,0.0021
2531.00,0.0021
2530.00,0.0020
2529.00,0.0020
2528.00,0.0020
2527.00,0.0020
2526.00,0.0020
2525.00,0.0020
2524.00,0.0020
2523.00,0.0020
2522.00,0.0020
2521.00,0.0020
2520.00,0.0020
2519.00,0.0019
2518.00,0.0019
2517.00,0.0019
2516.00,0.0019
2515.00,0.0019
2514.00,0.0019
2513.00,0.0019
2512.00,0.0019
2511.00,0.0018
2510.00,0.0018
2509.00,0.0018
2508.00,0.0018
2507.00,0.0017
2506.00,0.0016
2505.00,0.0016
2504.00,0.0016
2503.00,0.0016
2502.00,0.0016
2501.00,0.0016
2500.00,0.0016
2499.00,0.0015
2498.00,0.0016
2497.00,0.0017
2496.00,0.0017
2495.00,0.0018
2494.00,0.0017
2493.00,0.0017
2492.00,0.0016
2491.00,0.0016
2490.00,0.0017
2489.00,0.0017
2488.00,0.0018
2487.00,0.0018
2486.00,0.0017
2485.00,0.0017
2484.00,0.0017
2483.00,0.0016
2482.00,0.0016
2481.00,0.0016
2480.00,0.0015
2479.00,0.0016
2478.00,0.0016
2477.00,0.0016
2476.00,0.0016
2475.00,0.0016
2474.00,0.0016
2473.00,0.0016
2472.00,0.0015
2471.00,0.0015
2470.00,0.0015
2469.00,0.0014
2468.00,0.0015
2467.00,0.0015
2466.00,0.0015
2465.00,0.0015
2464.00,0.0015
2463.00,0.0015
2462.00,0.0015
2461.00,0.0016
2460.00,0.0016
2459.00,0.0017
2458.00,0.0017
2457.00,0.0017
2456.00,0.0017
2455.00,0.0016
2454.00,0.0016
2453.00,0.0015
2452.00,0.0015
2451.00,0.0015
2450.00,0.0016
2449.00,0.0016
2448.00,0.0017
2447.00,0.0017
2446.00,0.0017
2445.00,0.0017
2444.00,0.0016
2443.00,0.0015
2442.00,0.0015
2441.00,0.0015
2440.00,0.0015
2439.00,0.0016
2438.00,0.0016
2437.00,0.0016
2436.00,0.0016
2435.00,0.0016
2434.00,0.0016
2433.00,0.0016
2432.00,0.0016
2431.00,0.0016
2430.00,0.0016
2429.00,0.0016
2428.00,0.0016
2427.00,0.0017
2426.00,0.0017
2425.00,0.0017
2424.00,0.0016
2423.00,0.0016
2422.00,0.0015
2421.00,0.0014
2420.00,0.0014
2419.00,0.0014
2418.00,0.0014
2417.00,0.0014
2416.00,0.0015
2415.00,0.0015
2414.00,0.0015
2413.00,0.0015
2412.00,0.0015
2411.00,0.0015
2410.00,0.0016
2409.00,0.0016
2408.00,0.0016
2407.00,0.0015
2406.00,0.0015
2405.00,0.0014
2404.00,0.0013
2403.00,0.0013
2402.00,0.0013
2401.00,0.0013
2400.00,0.0013
2399.00,0.0014
2398.00,0.0014
2397.00,0.0013
2396.00,0.0013
2395.00,0.0013
2394.00,0.0014
2393.00,0.0014
2392.00,0.0014
2391.00,0.0014
2390.00,0.0014
2389.00,0.0014
2388.00,0.0013
2387.00,0.0013
2386.00,0.0012
2385.00,0.0011
2384.00,0.0010
2383.00,0.0010
2382.00,0.0009
2381.00,0.0009
2380.00,0.0009
2379.00,0.0008
2378.00,0.0008
2377.00,0.0008
2376.00,0.0008
2375.00,0.0009
2374.00,0.0009
2373.00,0.0009
2372.00,0.0009
2371.00,0.0010
2370.00,0.0010
2369.00,0.0010
2368.00,0.0010
2367.00,0.0009
2366.00,0.0009
2365.00,0.0009
2364.00,0.0009
2363.00,0.0010
2362.00,0.0011
2361.00,0.0012
2360.00,0.0012
2359.00,0.0012
2358.00,0.0012
2357.00,0.0011
2356.00,0.0011
2355.00,0.0011
2354.00,0.0011
2353.00,0.0011
2352.00,0.0011
2351.00,0.0011
2350.00,0.0011
2349.00,0.0011
2348.00,0.0012
2347.00,0.0012
2346.00,0.0012
2345.00,0.0012
2344.00,0.0013
2343.00,0.0013
2342.00,0.0014
2341.00,0.0015
2340.00,0.0015
2339.00,0.0015
2338.00,0.0014
2337.00,0.0013
2336.00,0.0013
2335.00,0.0012
2334.00,0.0012
2333.00,0.0013
2332.00,0.0013
2331.00,0.0014
2330.00,0.0014
2329.00,0.0014
2328.00,0.0016
2327.00,0.0018
2326.00,0.0022
2325.00,0.0025
2324.00,0.0026
2323.00,0.0025
2322.00,0.0023
2321.00,0.0022
2320.00,0.0021
2319.00,0.0021
2318.00,0.0020
2317.00,0.0019
2316.00,0.0018
2315.00,0.0017
2314.00,0.0017
2313.00,0.0017
2312.00,0.0016
2311.00,0.0016
2310.00,0.0015
2309.00,0.0015
2308.00,0.0016
2307.00,0.0016
2306.00,0.0016
2305.00,0.0016
2304.00,0.0016
2303.00,0.0016
2302.00,0.0016
2301.00,0.0016
2300.00,0.0016
2299.00,0.0017
2298.00,0.0017
2297.00,0.0017
2296.00,0.0018
2295.00,0.0019
2294.00,0.0020
2293.00,0.0020
2292.00,0.0021
2291.00,0.0022
2290.00,0.0022
2289.00,0.0022
2288.00,0.0022
2287.00,0.0022
2286.00,0.0022
2285.00,0.0022
2284.00,0.0023
2283.00,0.0023
2282.00,0.0022
2281.00,0.0022
2280.00,0.0021
2279.00,0.0020
2278.00,0.0019
2277.00,0.0018
2276.00,0.0018
2275.00,0.0017
2274.00,0.0017
2273.00,0.0015
2272.00,0.0015
2271.00,0.0014
2270.00,0.0015
2269.00,0.0015
2268.00,0.0015
2267.00,0.0015
2266.00,0.0015
2265.00,0.0015
2264.00,0.0017
2263.00,0.0018
2262.00,0.0020
2261.00,0.0020
2260.00,0.0019
2259.00,0.0017
2258.00,0.0016
2257.00,0.0015
2256.00,0.0015
2255.00,0.0014
2254.00,0.0014
2253.00,0.0014
2252.00,0.0015
2251.00,0.0015
2250.00,0.0014
2249.00,0.0012
2248.00,0.0011
2247.00,0.0011
2246.00,0.0013
2245.00,0.0015
2244.00,0.0017
2243.00,0.0017
2242.00,0.0016
2241.00,0.0015
2240.00,0.0015
2239.00,0.0014
2238.00,0.0015
2237.00,0.0016
2236.00,0.0016
2235.00,0.0015
2234.00,0.0015
2233.00,0.0015
2232.00,0.0015
2231.00,0.0016
2230.00,0.0017
2229.00,0.0017
2228.00,0.0016
2227.00,0.0015
2226.00,0.0014
2225.00,0.0013
2224.00,0.0013
2223.00,0.0012
2222.00,0.0011
2221.00,0.0010
2220.00,0.0009
2219.00,0.0009
2218.00,0.0009
2217.00,0.0009
2216.00,0.0009
2215.00,0.0009
2214.00,0.0009
2213.00,0.0008
2212.00,0.0008
2211.00,0.0009
2210.00,0.0010
2209.00,0.0012
2208.00,0.0012
2207.00,0.0012
2206.00,0.0011
2205.00,0.0010
2204.00,0.0010
2203.00,0.0011
2202.00,0.0013
2201.00,0.0016
2200.00,0.0018
2199.00,0.0019
2198.00,0.0018
2197.00,0.0018
2196.00,0.0017
2195.00,0.0015
2194.00,0.0012
2193.00,0.0009
2192.00,0.0008
2191.00,0.0009
2190.00,0.0011
2189.00,0.0014
2188.00,0.0016
2187.00,0.0017
2186.00,0.0017
2185.00,0.0018
2184.00,0.0018
2183.00,0.0017
2182.00,0.0014
2181.00,0.0012
2180.00,0.0012
2179.00,0.0013
2178.00,0.0014
2177.00,0.0012
2176.00,0.0008
2175.00,0.0005
2174.00,0.0004
2173.00,0.0007
2172.00,0.0011
2171.00,0.0016
2170.00,0.0020
2169.00,0.0022
2168.00,0.0021
2167.00,0.0020
2166.00,0.0020
2165.00,0.0022
2164.00,0.0025
2163.00,0.0026
2162.00,0.0025
2161.00,0.0021
2160.00,0.0011
2159.00,-0.0004
2158.00,-0.0019
2157.00,-0.0026
2156.00,-0.0025
2155.00,-0.0019
2154.00,-0.0013
2153.00,-0.0010
2152.00,-0.0009
2151.00,-0.0010
2150.00,-0.0010
2149.00,-0.0009
2148.00,-0.0008
2147.00,-0.0007
2146.00,-0.0006
2145.00,-0.0005
2144.00,-0.0005
2143.00,-0.0005
2142.00,-0.0007
2141.00,-0.0008
2140.00,-0.0007
2139.00,-0.0005
2138.00,-0.0003
2137.00,-0.0002
2136.00,-0.0002
2135.00,-0.0004
2134.00,-0.0006
2133.00,-0.0007
2132.00,-0.0006
2131.00,-0.0004
2130.00,-0.0002
2129.00,0.0000
2128.00,0.0001
2127.00,0.0002
2126.00,0.0002
2125.00,0.0003
2124.00,0.0004
2123.00,0.0005
2122.00,0.0005
2121.00,0.0006
2120.00,0.0006
2119.00,0.0006
2118.00,0.0006
2117.00,0.0007
2116.00,0.0008
2115.00,0.0009
2114.00,0.0010
2113.00,0.0010
2112.00,0.0010
2111.00,0.0010
2110.00,0.0009
2109.00,0.0008
2108.00,0.0007
2107.00,0.0005
2106.00,0.0005
2105.00,0.0005
2104.00,0.0006
2103.00,0.0007
2102.00,0.0007
2101.00,0.0007
2100.00,0.0007
2099.00,0.0006
2098.00,0.0006
2097.00,0.0005
2096.00,0.0004
2095.00,0.0003
2094.00,0.0003
2093.00,0.0004
2092.00,0.0006
2091.00,0.0007
2090.00,0.0006
2089.00,0.0005
2088.00,0.0005
2087.00,0.0005
2086.00,0.0005
2085.00,0.0005
2084.00,0.0007
2083.00,0.0008
2082.00,0.0009
2081.00,0.0010
2080.00,0.0010
2079.00,0.0010
2078.00,0.0010
2077.00,0.0010
2076.00,0.0010
2075.00,0.0009
2074.00,0.0008
2073.00,0.0007
2072.00,0.0006
2071.00,0.0007
2070.00,0.0007
2069.00,0.0006
2068.00,0.0004
2067.00,0.0002
2066.00,0.0000
2065.00,-0.0000
2064.00,0.0001
2063.00,0.0003
2062.00,0.0006
2061.00,0.0008
2060.00,0.0010
2059.00,0.0010
2058.00,0.0009
2057.00,0.0008
2056.00,0.0008
2055.00,0.0008
2054.00,0.0009
2053.00,0.0012
2052.00,0.0016
2051.00,0.0018
2050.00,0.0017
2049.00,0.0014
2048.00,0.0012
2047.00,0.0011
2046.00,0.0011
2045.00,0.0011
2044.00,0.0011
2043.00,0.0010
2042.00,0.0008
2041.00,0.0007
2040.00,0.0005
2039.00,0.0003
2038.00,0.0002
2037.00,0.0002
2036.00,0.0003
2035.00,0.0005
2034.00,0.0004
2033.00,0.0003
2032.00,0.0000
2031.00,-0.0002
2030.00,-0.0003
2029.00,-0.0002
2028.00,-0.0002
2027.00,-0.0003
2026.00,-0.0005
2025.00,-0.0006
2024.00,-0.0005
2023.00,-0.0006
2022.00,-0.0007
2021.00,-0.0009
2020.00,-0.0011
2019.00,-0.0011
2018.00,-0.0009
2017.00,-0.0007
2016.00,-0.0005
2015.00,-0.0003
2014.00,-0.0001
2013.00,0.0001
2012.00,0.0002
2011.00,0.0003
2010.00,0.0003
2009.00,0.0002
2008.00,-0.0001
2007.00,-0.0005
2006.00,-0.0006
2005.00,-0.0005
2004.00,-0.0003
2003.00,-0.0002
2002.00,-0.0001
2001.00,-0.0001
2000.00,-0.0001
1999.00,-0.0001
1998.00,-0.0001
1997.00,-0.0002
1996.00,-0.0003
1995.00,-0.0005
1994.00,-0.0006
1993.00,-0.0005
1992.00,-0.0003
1991.00,-0.0001
1990.00,-0.0001
1989.00,-0.0001
1988.00,-0.0000
1987.00,0.0001
1986.00,0.0002
1985.00,0.0004
1984.00,0.0008
1983.00,0.0011
1982.00,0.0014
1981.00,0.0016
1980.00,0.0015
1979.00,0.0012
1978.00,0.0007
1977.00,0.0003
1976.00,0.0001
1975.00,-0.0001
1974.00,-0.0002
1973.00,-0.0003
1972.00,-0.0004
1971.00,-0.0005
1970.00,-0.0006
1969.00,-0.0006
1968.00,-0.0007
1967.00,-0.0008
1966.00,-0.0010
1965.00,-0.0009
1964.00,-0.0007
1963.00,-0.0004
1962.00,-0.0002
1961.00,-0.0002
1960.00,-0.0003
1959.00,-0.0005
1958.00,-0.0008
1957.00,-0.0009
1956.00,-0.0009
1955.00,-0.0009
1954.00,-0.0009
1953.00,-0.0009
1952.00,-0.0010
1951.00,-0.0012
1950.00,-0.0012
1949.00,-0.0010
1948.00,-0.0008
1947.00,-0.0006
1946.00,-0.0006
1945.00,-0.0006
1944.00,-0.0007
1943.00,-0.0008
1942.00,-0.0008
1941.00,-0.0008
1940.00,-0.0007
1939.00,-0.0007
1938.00,-0.0006
1937.00,-0.0005
1936.00,-0.0003
1935.00,-0.0001
1934.00,-0.0000
1933.00,-0.0000
1932.00,-0.0001
1931.00,-0.0002
1930.00,-0.0003
1929.00,-0.0003
1928.00,-0.0002
1927.00,-0.0001
1926.00,-0.0001
1925.00,-0.0001
1924.00,-0.0001
1923.00,-0.0001
1922.00,0.0001
1921.00,0.0002
1920.00,0.0003
1919.00,0.0003
1918.00,0.0004
1917.00,0.0004
1916.00,0.0004
1915.00,0.0003
1914.00,0.0002
1913.00,0.0002
1912.00,0.0003
1911.00,0.0004
1910.00,0.0005
1909.00,0.0005
1908.00,0.0004
1907.00,0.0004
1906.00,0.0003
1905.00,0.0004
1904.00,0.0004
1903.00,0.0004
1902.00,0.0005
1901.00,0.0006
1900.00,0.0006
1899.00,0.0006
1898.00,0.0006
1897.00,0.0006
1896.00,0.0007
1895.00,0.0007
1894.00,0.0007
1893.00,0.0007
1892.00,0.0006
1891.00,0.0005
1890.00,0.0005
1889.00,0.0005
1888.00,0.0006
1887.00,0.0005
1886.00,0.0004
1885.00,0.0003
1884.00,0.0003
1883.00,0.0002
1882.00,0.0002
1881.00,0.0002
1880.00,0.0003
1879.00,0.0004
1878.00,0.0004
1877.00,0.0005
1876.00,0.0006
1875.00,0.0006
1874.00,0.0006
1873.00,0.0006
1872.00,0.0006
1871.00,0.0006
1870.00,0.0006
1869.00,0.0007
1868.00,0.0008
1867.00,0.0008
1866.00,0.0007
1865.00,0.0006
1864.00,0.0006
1863.00,0.0005
1862.00,0.0005
1861.00,0.0005
1860.00,0.0006
1859.00,0.0007
1858.00,0.0008
1857.00,0.0008
1856.00,0.0009
1855.00,0.0009
1854.00,0.0009
1853.00,0.0009
1852.00,0.0009
1851.00,0.0008
1850.00,0.0008
1849.00,0.0008
1848.00,0.0008
1847.00,0.0008
1846.00,0.0008
1845.00,0.0009
1844.00,0.0010
1843.00,0.0010
1842.00,0.0010
1841.00,0.0010
1840.00,0.0009
1839.00,0.0008
1838.00,0.0008
1837.00,0.0008
1836.00,0.0008
1835.00,0.0008
1834.00,0.0009
1833.00,0.0009
1832.00,0.0009
1831.00,0.0009
1830.00,0.0009
1829.00,0.0011
1828.00,0.0011
1827.00,0.0012
1826.00,0.0011
1825.00,0.0010
1824.00,0.0010
1823.00,0.0010
1822.00,0.0009
1821.00,0.0009
1820.00,0.0009
1819.00,0.0008
1818.00,0.0007
1817.00,0.0006
1816.00,0.0006
1815.00,0.0006
1814.00,0.0007
1813.00,0.0008
1812.00,0.0009
1811.00,0.0009
1810.00,0.0010
1809.00,0.0010
1808.00,0.0011
1807.00,0.0011
1806.00,0.0011
1805.00,0.0011
1804.00,0.0012
1803.00,0.0012
1802.00,0.0012
1801.00,0.0012
1800.00,0.0012
1799.00,0.0012
1798.00,0.0012
1797.00,0.0013
1796.00,0.0013
1795.00,0.0013
1794.00,0.0013
1793.00,0.0014
1792.00,0.0014
1791.00,0.0015
1790.00,0.0015
1789.00,0.0014
1788.00,0.0014
1787.00,0.0015
1786.00,0.0015
1785.00,0.0016
1784.00,0.0016
1783.00,0.0016
1782.00,0.0016
1781.00,0.0016
1780.00,0.0016
1779.00,0.0015
1778.00,0.0015
1777.00,0.0015
1776.00,0.0015
1775.00,0.0016
1774.00,0.0016
1773.00,0.0016
1772.00,0.0017
1771.00,0.0018
1770.00,0.0019
1769.00,0.0019
1768.00,0.0020
1767.00,0.0020
1766.00,0.0019
1765.00,0.0020
1764.00,0.0020
1763.00,0.0022
1762.00,0.0023
1761.00,0.0023
1760.00,0.0023
1759.00,0.0024
1758.00,0.0024
1757.00,0.0026
1756.00,0.0027
1755.00,0.0028
1754.00,0.0028
1753.00,0.0029
1752.00,0.0030
1751.00,0.0031
1750.00,0.0032
1749.00,0.0033
1748.00,0.0035
1747.00,0.0036
1746.00,0.0038
1745.00,0.0040
1744.00,0.0041
1743.00,0.0042
1742.00,0.0043
1741.00,0.0044
1740.00,0.0045
1739.00,0.0047
1738.00,0.0047
1737.00,0.0047
1736.00,0.0048
1735.00,0.0049
1734.00,0.0050
1733.00,0.0050
1732.00,0.0050
1731.00,0.0049
1730.00,0.0049
1729.00,0.0049
1728.00,0.0049
1727.00,0.0049
1726.00,0.0049
1725.00,0.0049
1724.00,0.0049
1723.00,0.0049
1722.00,0.0049
1721.00,0.0049
1720.00,0.0049
1719.00,0.0049
1718.00,0.0047
1717.00,0.0047
1716.00,0.0047
1715.00,0.0048
1714.00,0.0049
1713.00,0.0050
1712.00,0.0050
1711.00,0.0050
1710.00,0.0050
1709.00,0.0050
1708.00,0.0051
1707.00,0.0051
1706.00,0.0052
1705.00,0.0053
1704.00,0.0054
1703.00,0.0055
1702.00,0.0057
1701.00,0.0059
1700.00,0.0061
1699.00,0.0063
1698.00,0.0063
1697.00,0.0066
1696.00,0.0070
1695.00,0.0074
1694.00,0.0077
1693.00,0.0079
1692.00,0.0081
1691.00,0.0085
1690.00,0.0088
1689.00,0.0092
1688.00,0.0096
1687.00,0.0099
1686.00,0.0101
1685.00,0.0105
1684.00,0.0110
1683.00,0.0114
1682.00,0.0117
1681.00,0.0120
1680.00,0.0124
1679.00,0.0128
1678.00,0.0131
1677.00,0.0135
1676.00,0.0139
1675.00,0.0143
1674.00,0.0145
1673.00,0.0148
1672.00,0.0150
1671.00,0.0153
1670.00,0.0156
1669.00,0.0160
1668.00,0.0163
1667.00,0.0165
1666.00,0.0166
1665.00,0.0167
1664.00,0.0169
1663.00,0.0171
1662.00,0.0174
1661.00,0.0177
1660.00,0.0179
1659.00,0.0180
1658.00,0.0181
1657.00,0.0182
1656.00,0.0183
1655.00,0.0183
1654.00,0.0183
1653.00,0.0185
1652.00,0.0187
1651.00,0.0187
1650.00,0.0187
1649.00,0.0188
1648.00,0.0190
1647.00,0.0191
1646.00,0.0192
1645.00,0.0193
1644.00,0.0193
1643.00,0.0194
1642.00,0.0194
1641.00,0.0195
1640.00,0.0195
1639.00,0.0196
1638.00,0.0196
1637.00,0.0197
1636.00,0.0197
1635.00,0.0196
1634.00,0.0195
1633.00,0.0194
1632.00,0.0194
1631.00,0.0193
1630.00,0.0192
1629.00,0.0191
1628.00,0.0190
1627.00,0.0190
1626.00,0.0189
1625.00,0.0188
1624.00,0.0187
1623.00,0.0186
1622.00,0.0185
1621.00,0.0183
1620.00,0.0182
1619.00,0.0181
1618.00,0.0179
1617.00,0.0179
1616.00,0.0179
1615.00,0.0179
1614.00,0.0178
1613.00,0.0178
1612.00,0.0178
1611.00,0.0178
1610.00,0.0177
1609.00,0.0177
1608.00,0.0177
1607.00,0.0177
1606.00,0.0177
1605.00,0.0177
1604.00,0.0177
1603.00,0.0177
1602.00,0.0177
1601.00,0.0177
1600.00,0.0177
1599.00,0.0177
1598.00,0.0177
1597.00,0.0177
1596.00,0.0177
1595.00,0.0178
1594.00,0.0178
1593.00,0.0179
1592.00,0.0179
1591.00,0.0180
1590.00,0.0181
1589.00,0.0183
1588.00,0.0186
1587.00,0.0189
1586.00,0.0192
1585.00,0.0197
1584.00,0.0203
1583.00,0.0210
1582.00,0.0217
1581.00,0.0225
1580.00,0.0232
1579.00,0.0238
1578.00,0.0242
1577.00,0.0243
1576.00,0.0242
1575.00,0.0238
1574.00,0.0233
1573.00,0.0229
1572.00,0.0225
1571.00,0.0219
1570.00,0.0213
1569.00,0.0207
1568.00,0.0203
1567.00,0.0200
1566.00,0.0198
1565.00,0.0196
1564.00,0.0194
1563.00,0.0194
1562.00,0.0194
1561.00,0.0195
1560.00,0.0195
1559.00,0.0196
1558.00,0.0198
1557.00,0.0200
1556.00,0.0202
1555.00,0.0205
1554.00,0.0209
1553.00,0.0212
1552.00,0.0216
1551.00,0.0220
1550.00,0.0224
1549.00,0.0229
1548.00,0.0235
1547.00,0.0240
1546.00,0.0247
1545.00,0.0255
1544.00,0.0262
1543.00,0.0268
1542.00,0.0271
1541.00,0.0271
1540.00,0.0264
1539.00,0.0253
1538.00,0.0242
1537.00,0.0233
1536.00,0.0225
1535.00,0.0215
1534.00,0.0202
1533.00,0.0189
1532.00,0.0179
1531.00,0.0172
1530.00,0.0167
1529.00,0.0162
1528.00,0.0157
1527.00,0.0153
1526.00,0.0148
1525.00,0.0145
1524.00,0.0144
1523.00,0.0142
1522.00,0.0139
1521.00,0.0138
1520.00,0.0137
1519.00,0.0136
1518.00,0.0136
1517.00,0.0135
1516.00,0.0135
1515.00,0.0134
1514.00,0.0132
1513.00,0.0132
1512.00,0.0132
1511.00,0.0132
1510.00,0.0131
1509.00,0.0132
1508.00,0.0131
1507.00,0.0130
1506.00,0.0129
1505.00,0.0129
1504.00,0.0130
1503.00,0.0132
1502.00,0.0134
1501.00,0.0138
1500.00,0.0141
1499.00,0.0145
1498.00,0.0148
1497.00,0.0153
1496.00,0.0158
1495.00,0.0162
1494.00,0.0166
1493.00,0.0171
1492.00,0.0177
1491.00,0.0183
1490.00,0.0190
1489.00,0.0198
1488.00,0.0205
1487.00,0.0212
1486.00,0.0219
1485.00,0.0227
1484.00,0.0237
1483.00,0.0247
1482.00,0.0259
1481.00,0.0274
1480.00,0.0289
1479.00,0.0304
1478.00,0.0320
1477.00,0.0340
1476.00,0.0364
1475.00,0.0391
1474.00,0.0426
1473.00,0.0479
1472.00,0.0541
1471.00,0.0601
1470.00,0.0658
1469.00,0.0716
1468.00,0.0778
1467.00,0.0843
1466.00,0.0915
1465.00,0.0991
1464.00,0.1055
1463.00,0.1100
1462.00,0.1128
1461.00,0.1149
1460.00,0.1164
1459.00,0.1174
1458.00,0.1185
1457.00,0.1194
1456.00,0.1196
1455.00,0.1189
1454.00,0.1178
1453.00,0.1163
1452.00,0.1139
1451.00,0.1105
1450.00,0.1059
1449.00,0.0996
1448.00,0.0916
1447.00,0.0831
1446.00,0.0753
1445.00,0.0687
1444.00,0.0630
1443.00,0.0582
1442.00,0.0547
1441.00,0.0521
1440.00,0.0506
1439.00,0.0498
1438.00,0.0497
1437.00,0.0497
1436.00,0.0486
1435.00,0.0464
1434.00,0.0432
1433.00,0.0394
1432.00,0.0354
1431.00,0.0317
1430.00,0.0287
1429.00,0.0266
1428.00,0.0251
1427.00,0.0243
1426.00,0.0238
1425.00,0.0233
1424.00,0.0230
1423.00,0.0227
1422.00,0.0226
1421.00,0.0225
1420.00,0.0221
1419.00,0.0217
1418.00,0.0213
1417.00,0.0207
1416.00,0.0202
1415.00,0.0197
1414.00,0.0194
1413.00,0.0190
1412.00,0.0185
1411.00,0.0182
1410.00,0.0179
1409.00,0.0176
1408.00,0.0172
1407.00,0.0169
1406.00,0.0167
1405.00,0.0163
1404.00,0.0160
1403.00,0.0157
1402.00,0.0155
1401.00,0.0153
1400.00,0.0150
1399.00,0.0149
1398.00,0.0147
1397.00,0.0145
1396.00,0.0144
1395.00,0.0144
1394.00,0.0146
1393.00,0.0148
1392.00,0.0152
1391.00,0.0158
1390.00,0.0167
1389.00,0.0179
1388.00,0.0197
1387.00,0.0224
1386.00,0.0260
1385.00,0.0308
1384.00,0.0376
1383.00,0.0472
1382.00,0.0603
1381.00,0.0773
1380.00,0.0979
1379.00,0.1208
1378.00,0.1419
1377.00,0.1564
1376.00,0.1602
1375.00,0.1514
1374.00,0.1327
1373.00,0.1106
1372.00,0.0907
1371.00,0.0743
1370.00,0.0613
1369.00,0.0513
1368.00,0.0444
1367.00,0.0402
1366.00,0.0378
1365.00,0.0369
1364.00,0.0371
1363.00,0.0381
1362.00,0.0397
1361.00,0.0415
1360.00,0.0429
1359.00,0.0434
1358.00,0.0427
1357.00,0.0408
1356.00,0.0380
1355.00,0.0348
1354.00,0.0317
1353.00,0.0290
1352.00,0.0268
1351.00,0.0251
1350.00,0.0237
1349.00,0.0225
1348.00,0.0214
1347.00,0.0206
1346.00,0.0199
1345.00,0.0192
1344.00,0.0186
1343.00,0.0181
1342.00,0.0176
1341.00,0.0172
1340.00,0.0169
1339.00,0.0167
1338.00,0.0165
1337.00,0.0165
1336.00,0.0165
1335.00,0.0166
1334.00,0.0169
1333.00,0.0172
1332.00,0.0176
1331.00,0.0178
1330.00,0.0179
1329.00,0.0178
1328.00,0.0175
1327.00,0.0171
1326.00,0.0167
1325.00,0.0162
1324.00,0.0158
1323.00,0.0154
1322.00,0.0151
1321.00,0.0148
1320.00,0.0147
1319.00,0.0145
1318.00,0.0144
1317.00,0.0142
1316.00,0.0141
1315.00,0.0140
1314.00,0.0139
1313.00,0.0139
1312.00,0.0140
1311.00,0.0142
1310.00,0.0147
1309.00,0.0153
1308.00,0.0163
1307.00,0.0174
1306.00,0.0185
1305.00,0.0193
1304.00,0.0195
1303.00,0.0192
1302.00,0.0186
1301.00,0.0180
1300.00,0.0176
1299.00,0.0174
1298.00,0.0173
1297.00,0.0172
1296.00,0.0171
1295.00,0.0168
1294.00,0.0165
1293.00,0.0160
1292.00,0.0155
1291.00,0.0151
1290.00,0.0146
1289.00,0.0142
1288.00,0.0139
1287.00,0.0136
1286.00,0.0133
1285.00,0.0131
1284.00,0.0128
1283.00,0.0126
1282.00,0.0124
1281.00,0.0123
1280.00,0.0122
1279.00,0.0121
1278.00,0.0119
1277.00,0.0118
1276.00,0.0116
1275.00,0.0115
1274.00,0.0114
1273.00,0.0113
1272.00,0.0112
1271.00,0.0112
1270.00,0.0113
1269.00,0.0114
1268.00,0.0117
1267.00,0.0120
1266.00,0.0124
1265.00,0.0127
1264.00,0.0131
1263.00,0.0135
1262.00,0.0139
1261.00,0.0143
1260.00,0.0149
1259.00,0.0154
1258.00,0.0160
1257.00,0.0164
1256.00,0.0164
1255.00,0.0160
1254.00,0.0151
1253.00,0.0141
1252.00,0.0132
1251.00,0.0125
1250.00,0.0121
1249.00,0.0118
1248.00,0.0117
1247.00,0.0116
1246.00,0.0115
1245.00,0.0113
1244.00,0.0112
1243.00,0.0111
1242.00,0.0111
1241.00,0.0110
1240.00,0.0110
1239.00,0.0109
1238.00,0.0109
1237.00,0.0110
1236.00,0.0112
1235.00,0.0114
1234.00,0.0116
1233.00,0.0118
1232.00,0.0120
1231.00,0.0122
1230.00,0.0124
1229.00,0.0127
1228.00,0.0130
1227.00,0.0134
1226.00,0.0138
1225.00,0.0143
1224.00,0.0147
1223.00,0.0152
1222.00,0.0156
1221.00,0.0160
1220.00,0.0163
1219.00,0.0165
1218.00,0.0165
1217.00,0.0164
1216.00,0.0162
1215.00,0.0159
1214.00,0.0155
1213.00,0.0152
1212.00,0.0149
1211.00,0.0147
1210.00,0.0145
1209.00,0.0143
1208.00,0.0142
1207.00,0.0142
1206.00,0.0141
1205.00,0.0141
1204.00,0.0140
1203.00,0.0140
1202.00,0.0141
1201.00,0.0142
1200.00,0.0142
1199.00,0.0143
1198.00,0.0143
1197.00,0.0143
1196.00,0.0144
1195.00,0.0144
1194.00,0.0145
1193.00,0.0145
1192.00,0.0144
1191.00,0.0143
1190.00,0.0141
1189.00,0.0139
1188.00,0.0137
1187.00,0.0136
1186.00,0.0134
1185.00,0.0133
1184.00,0.0131
1183.00,0.0131
1182.00,0.0131
1181.00,0.0133
1180.00,0.0135
1179.00,0.0138
1178.00,0.0143
1177.00,0.0149
1176.00,0.0158
1175.00,0.0171
1174.00,0.0189
1173.00,0.0212
1172.00,0.0241
1171.00,0.0272
1170.00,0.0302
1169.00,0.0326
1168.00,0.0339
1167.00,0.0340
1166.00,0.0330
1165.00,0.0314
1164.00,0.0295
1163.00,0.0277
1162.00,0.0261
1161.00,0.0248
1160.00,0.0237
1159.00,0.0229
1158.00,0.0223
1157.00,0.0219
1156.00,0.0216
1155.00,0.0215
1154.00,0.0214
1153.00,0.0213
1152.00,0.0210
1151.00,0.0205
1150.00,0.0198
1149.00,0.0191
1148.00,0.0184
1147.00,0.0179
1146.00,0.0174
1145.00,0.0169
1144.00,0.0165
1143.00,0.0161
1142.00,0.0156
1141.00,0.0152
1140.00,0.0149
1139.00,0.0147
1138.00,0.0146
1137.00,0.0145
1136.00,0.0144
1135.00,0.0144
1134.00,0.0145
1133.00,0.0146
1132.00,0.0148
1131.00,0.0149
1130.00,0.0152
1129.00,0.0156
1128.00,0.0161
1127.00,0.0166
1126.00,0.0170
1125.00,0.0173
1124.00,0.0177
1123.00,0.0179
1122.00,0.0182
1121.00,0.0184
1120.00,0.0187
1119.00,0.0190
1118.00,0.0193
1117.00,0.0196
1116.00,0.0199
1115.00,0.0201
1114.00,0.0203
1113.00,0.0205
1112.00,0.0206
1111.00,0.0208
1110.00,0.0210
1109.00,0.0213
1108.00,0.0217
1107.00,0.0221
1106.00,0.0225
1105.00,0.0228
1104.00,0.0231
1103.00,0.0232
1102.00,0.0231
1101.00,0.0227
1100.00,0.0221
1099.00,0.0213
1098.00,0.0206
1097.00,0.0199
1096.00,0.0193
1095.00,0.0188
1094.00,0.0183
1093.00,0.0178
1092.00,0.0173
1091.00,0.0169
1090.00,0.0165
1089.00,0.0162
1088.00,0.0160
1087.00,0.0159
1086.00,0.0159
1085.00,0.0158
1084.00,0.0156
1083.00,0.0153
1082.00,0.0151
1081.00,0.0148
1080.00,0.0146
1079.00,0.0143
1078.00,0.0140
1077.00,0.0137
1076.00,0.0134
1075.00,0.0132
1074.00,0.0129
1073.00,0.0127
1072.00,0.0126
1071.00,0.0126
1070.00,0.0127
1069.00,0.0127
1068.00,0.0128
1067.00,0.0129
1066.00,0.0130
1065.00,0.0132
1064.00,0.0133
1063.00,0.0134
1062.00,0.0135
1061.00,0.0136
1060.00,0.0137
1059.00,0.0138
1058.00,0.0139
1057.00,0.0140
1056.00,0.0141
1055.00,0.0143
1054.00,0.0147
1053.00,0.0151
1052.00,0.0157
1051.00,0.0162
1050.00,0.0168
1049.00,0.0175
1048.00,0.0181
1047.00,0.0186
1046.00,0.0190
1045.00,0.0194
1044.00,0.0196
1043.00,0.0197
1042.00,0.0196
1041.00,0.0195
1040.00,0.0195
1039.00,0.0196
1038.00,0.0198
1037.00,0.0201
1036.00,0.0202
1035.00,0.0202
1034.00,0.0201
1033.00,0.0198
1032.00,0.0194
1031.00,0.0190
1030.00,0.0188
1029.00,0.0187
1028.00,0.0186
1027.00,0.0186
1026.00,0.0187
1025.00,0.0188
1024.00,0.0189
1023.00,0.0191
1022.00,0.0192
1021.00,0.0193
1020.00,0.0194
1019.00,0.0194
1018.00,0.0195
1017.00,0.0196
1016.00,0.0196
1015.00,0.0197
1014.00,0.0198
1013.00,0.0199
1012.00,0.0200
1011.00,0.0200
1010.00,0.0199
1009.00,0.0197
1008.00,0.0197
1007.00,0.0198
1006.00,0.0202
1005.00,0.0211
1004.00,0.0226
1003.00,0.0247
1002.00,0.0277
1001.00,0.0315
1000.00,0.0356
999.00,0.0391
998.00,0.0409
997.00,0.0403
996.00,0.0376
995.00,0.0334
994.00,0.0289
993.00,0.0250
992.00,0.0219
991.00,0.0196
990.00,0.0181
989.00,0.0170
988.00,0.0163
987.00,0.0158
986.00,0.0155
985.00,0.0155
984.00,0.0156
983.00,0.0161
982.00,0.0169
981.00,0.0182
980.00,0.0201
979.00,0.0227
978.00,0.0260
977.00,0.0299
976.00,0.0342
975.00,0.0383
974.00,0.0414
973.00,0.0425
972.00,0.0410
971.00,0.0370
970.00,0.0315
969.00,0.0259
968.00,0.0211
967.00,0.0175
966.00,0.0149
965.00,0.0132
964.00,0.0119
963.00,0.0110
962.00,0.0102
961.00,0.0096
960.00,0.0090
959.00,0.0085
958.00,0.0079
957.00,0.0075
956.00,0.0072
955.00,0.0069
954.00,0.0067
953.00,0.0064
952.00,0.0063
951.00,0.0064
950.00,0.0064
949.00,0.0065
948.00,0.0066
947.00,0.0067
946.00,0.0070
945.00,0.0073
944.00,0.0076
943.00,0.0080
942.00,0.0084
941.00,0.0087
940.00,0.0088
939.00,0.0088
938.00,0.0086
937.00,0.0083
936.00,0.0080
935.00,0.0079
934.00,0.0079
933.00,0.0080
932.00,0.0081
931.00,0.0082
930.00,0.0083
929.00,0.0085
928.00,0.0085
927.00,0.0085
926.00,0.0086
925.00,0.0086
924.00,0.0088
923.00,0.0089
922.00,0.0090
921.00,0.0091
920.00,0.0091
919.00,0.0092
918.00,0.0092
917.00,0.0093
916.00,0.0093
915.00,0.0094
914.00,0.0096
913.00,0.0097
912.00,0.0098
911.00,0.0100
910.00,0.0102
909.00,0.0104
908.00,0.0107
907.00,0.0111
906.00,0.0118
905.00,0.0127
904.00,0.0139
903.00,0.0155
902.00,0.0171
901.00,0.0185
900.00,0.0195
899.00,0.0196
898.00,0.0189
897.00,0.0176
896.00,0.0160
895.00,0.0145
894.00,0.0134
893.00,0.0125
892.00,0.0119
891.00,0.0114
890.00,0.0111
889.00,0.0109
888.00,0.0108
887.00,0.0107
886.00,0.0107
885.00,0.0107
884.00,0.0107
883.00,0.0108
882.00,0.0110
881.00,0.0113
880.00,0.0114
879.00,0.0115
878.00,0.0116
877.00,0.0117
876.00,0.0119
875.00,0.0120
874.00,0.0119
873.00,0.0118
872.00,0.0116
871.00,0.0114
870.00,0.0113
869.00,0.0112
868.00,0.0111
867.00,0.0111
866.00,0.0112
865.00,0.0113
864.00,0.0114
863.00,0.0115
862.00,0.0115
861.00,0.0115
860.00,0.0115
859.00,0.0116
858.00,0.0118
857.00,0.0120
856.00,0.0121
855.00,0.0122
854.00,0.0124
853.00,0.0126
852.00,0.0128
851.00,0.0131
850.00,0.0136
849.00,0.0142
848.00,0.0151
847.00,0.0166
846.00,0.0189
845.00,0.0224
844.00,0.0273
843.00,0.0330
842.00,0.0378
841.00,0.0395
840.00,0.0373
839.00,0.0322
838.00,0.0263
837.00,0.0214
836.00,0.0182
835.00,0.0162
834.00,0.0152
833.00,0.0145
832.00,0.0140
831.00,0.0134
830.00,0.0130
829.00,0.0127
828.00,0.0125
827.00,0.0125
826.00,0.0125
825.00,0.0125
824.00,0.0125
823.00,0.0126
822.00,0.0128
821.00,0.0130
820.00,0.0132
819.00,0.0135
818.00,0.0138
817.00,0.0144
816.00,0.0151
815.00,0.0160
814.00,0.0173
813.00,0.0189
812.00,0.0206
811.00,0.0222
810.00,0.0234
809.00,0.0240
808.00,0.0238
807.00,0.0228
806.00,0.0214
805.00,0.0198
804.00,0.0184
803.00,0.0173
802.00,0.0165
801.00,0.0159
800.00,0.0153
799.00,0.0148
798.00,0.0144
797.00,0.0140
796.00,0.0136
795.00,0.0133
794.00,0.0130
793.00,0.0128
792.00,0.0126
791.00,0.0125
790.00,0.0123
789.00,0.0120
788.00,0.0118
787.00,0.0116
786.00,0.0115
785.00,0.0114
784.00,0.0112
783.00,0.0112
782.00,0.0111
781.00,0.0110
780.00,0.0109
779.00,0.0108
778.00,0.0107
777.00,0.0106
776.00,0.0106
775.00,0.0106
774.00,0.0106
773.00,0.0107
772.00,0.0107
771.00,0.0108
770.00,0.0109
769.00,0.0110
768.00,0.0110
767.00,0.0111
766.00,0.0112
765.00,0.0113
764.00,0.0113
763.00,0.0112
762.00,0.0111
761.00,0.0110
760.00,0.0110
759.00,0.0111
758.00,0.0114
757.00,0.0117
756.00,0.0120
755.00,0.0122
754.00,0.0123
753.00,0.0125
752.00,0.0125
751.00,0.0126
750.00,0.0127
749.00,0.0128
748.00,0.0130
747.00,0.0132
746.00,0.0135
745.00,0.0138
744.00,0.0141
743.00,0.0145
742.00,0.0148
741.00,0.0153
740.00,0.0159
739.00,0.0165
738.00,0.0170
737.00,0.0175
736.00,0.0179
735.00,0.0184
734.00,0.0190
733.00,0.0197
732.00,0.0206
731.00,0.0214
730.00,0.0220
729.00,0.0225
728.00,0.0227
727.00,0.0229
726.00,0.0232
725.00,0.0235
724.00,0.0240
723.00,0.0246
722.00,0.0251
721.00,0.0253
720.00,0.0249
719.00,0.0238
718.00,0.0223
717.00,0.0207
716.00,0.0194
715.00,0.0184
714.00,0.0177
713.00,0.0172
712.00,0.0169
711.00,0.0167
710.00,0.0167
709.00,0.0168
708.00,0.0170
707.00,0.0173
706.00,0.0175
705.00,0.0176
704.00,0.0176
703.00,0.0175
702.00,0.0173
701.00,0.0169
700.00,0.0163
699.00,0.0157
698.00,0.0152
697.00,0.0148
696.00,0.0145
695.00,0.0144
694.00,0.0145
693.00,0.0148
692.00,0.0151
691.00,0.0152
690.00,0.0151
689.00,0.0151
688.00,0.0151
687.00,0.0151
686.00,0.0152
685.00,0.0152
684.00,0.0152
683.00,0.0152
682.00,0.0153
681.00,0.0154
680.00,0.0155
679.00,0.0156
678.00,0.0158
677.00,0.0159
676.00,0.0160
675.00,0.0160
674.00,0.0161
673.00,0.0162
672.00,0.0165
671.00,0.0167
670.00,0.0169
669.00,0.0168
668.00,0.0165
667.00,0.0162
666.00,0.0161
665.00,0.0160
664.00,0.0158
663.00,0.0156
662.00,0.0153
661.00,0.0151
660.00,0.0150
659.00,0.0148
658.00,0.0146
657.00,0.0142
656.00,0.0139
655.00,0.0139
654.00,0.0141
653.00,0.0143
652.00,0.0142
651.00,0.0140
650.00,0.0137
649.00,0.0137
648.00,0.0138
647.00,0.0140
646.00,0.0142
645.00,0.0144
644.00,0.0145
643.00,0.0146
642.00,0.0145
641.00,0.0143
640.00,0.0140
639.00,0.0138
638.00,0.0137
637.00,0.0136
636.00,0.0135
635.00,0.0135
634.00,0.0135
633.00,0.0137
632.00,0.0140
631.00,0.0143
630.00,0.0144
629.00,0.0142
628.00,0.0142
627.00,0.0143
626.00,0.0146
625.00,0.0148
624.00,0.0149
623.00,0.0150
622.00,0.0152
621.00,0.0153
620.00,0.0154
619.00,0.0153
618.00,0.0152
617.00,0.0151
616.00,0.0150
615.00,0.0150
614.00,0.0150
613.00,0.0150
612.00,0.0149
611.00,0.0147
610.00,0.0146
609.00,0.0146
608.00,0.0147
607.00,0.0149
606.00,0.0149
605.00,0.0148
604.00,0.0147
603.00,0.0147
602.00,0.0148
601.00,0.0149
600.00,0.0149
599.00,0.0148
598.00,0.0147
597.00,0.0146
596.00,0.0146
595.00,0.0145
594.00,0.0144
593.00,0.0142
592.00,0.0141
591.00,0.0141
590.00,0.0142
589.00,0.0144
588.00,0.0145
587.00,0.0144
586.00,0.0142
585.00,0.0142
584.00,0.0145
583.00,0.0150
582.00,0.0154
581.00,0.0155
580.00,0.0154
579.00,0.0151
578.00,0.0151
577.00,0.0151
576.00,0.0151
575.00,0.0150
574.00,0.0148
573.00,0.0147
572.00,0.0146
571.00,0.0146
570.00,0.0147
569.00,0.0148
568.00,0.0150
567.00,0.0153
566.00,0.0155
565.00,0.0153
564.00,0.0148
563.00,0.0143
562.00,0.0138
561.00,0.0137
560.00,0.0140
559.00,0.0144
558.00,0.0147
557.00,0.0148
556.00,0.0146
555.00,0.0145
554.00,0.0146
553.00,0.0147
552.00,0.0147
551.00,0.0146
550.00,0.0146
549.00,0.0147
548.00,0.0149
547.00,0.0152
546.00,0.0154
545.00,0.0154
544.00,0.0154
543.00,0.0154
542.00,0.0155
541.00,0.0157
540.00,0.0160
539.00,0.0161
538.00,0.0163
537.00,0.0165
536.00,0.0168
535.00,0.0169
534.00,0.0169
533.00,0.0169
532.00,0.0168
531.00,0.0165
530.00,0.0160
529.00,0.0156
528.00,0.0155
527.00,0.0155
526.00,0.0154
525.00,0.0151
524.00,0.0147
523.00,0.0145
522.00,0.0143
521.00,0.0142
520.00,0.0141
519.00,0.0141
518.00,0.0141
517.00,0.0141
516.00,0.0141
515.00,0.0141
514.00,0.0140
513.00,0.0139
512.00,0.0138
511.00,0.0138
510.00,0.0136
509.00,0.0133
508.00,0.0130
507.00,0.0129
506.00,0.0133
505.00,0.0142
504.00,0.0151
503.00,0.0157
502.00,0.0155
501.00,0.0149
500.00,0.0143
499.00,0.0139
498.00,0.0136
497.00,0.0133
496.00,0.0132
495.00,0.0133
494.00,0.0138
493.00,0.0142
492.00,0.0147
491.00,0.0148
490.00,0.0148
489.00,0.0145
488.00,0.0141
487.00,0.0139
486.00,0.0137
485.00,0.0136
484.00,0.0134
483.00,0.0133
482.00,0.0135
481.00,0.0140
480.00,0.0149
479.00,0.0159
478.00,0.0165
477.00,0.0165
476.00,0.0162
475.00,0.0160
474.00,0.0162
473.00,0.0167
472.00,0.0177
471.00,0.0192
470.00,0.0206
469.00,0.0215
468.00,0.0218
467.00,0.0216
466.00,0.0212
465.00,0.0208
464.00,0.0206
463.00,0.0208
462.00,0.0216
461.00,0.0229
460.00,0.0245
459.00,0.0257
458.00,0.0259
457.00,0.0249
456.00,0.0231
455.00,0.0216
454.00,0.0201
453.00,0.0189
452.00,0.0184
451.00,0.0187
450.00,0.0196
