Created as New Dataset,Sample 024 By Administrator Date Friday, September 05 2025
cm-1,A
4000.00,0.0012
3999.00,0.0012
3998.00,0.0012
3997.00,0.0012
3996.00,0.0012
3995.00,0.0012
3994.00,0.0012
3993.00,0.0012
3992.00,0.0012
3991.00,0.0012
3990.00,0.0012
3989.00,0.0012
3988.00,0.0012
3987.00,0.0011
3986.00,0.0011
3985.00,0.0011
3984.00,0.0011
3983.00,0.0011
3982.00,0.0011
3981.00,0.0012
3980.00,0.0012
3979.00,0.0012
3978.00,0.0012
3977.00,0.0012
3976.00,0.0012
3975.00,0.0011
3974.00,0.0011
3973.00,0.0011
3972.00,0.0011
3971.00,0.0011
3970.00,0.0011
3969.00,0.0011
3968.00,0.0011
3967.00,0.0011
3966.00,0.0011
3965.00,0.0011
3964.00,0.0011
3963.00,0.0011
3962.00,0.0011
3961.00,0.0011
3960.00,0.0011
3959.00,0.0010
3958.00,0.0010
3957.00,0.0010
3956.00,0.0011
3955.00,0.0011
3954.00,0.0010
3953.00,0.0010
3952.00,0.0010
3951.00,0.0010
3950.00,0.0011
3949.00,0.0011
3948.00,0.0011
3947.00,0.0010
3946.00,0.0010
3945.00,0.0010
3944.00,0.0010
3943.00,0.0010
3942.00,0.0010
3941.00,0.0010
3940.00,0.0010
3939.00,0.0011
3938.00,0.0011
3937.00,0.0011
3936.00,0.0011
3935.00,0.0012
3934.00,0.0012
3933.00,0.0012
3932.00,0.0012
3931.00,0.0011
3930.00,0.0011
3929.00,0.0010
3928.00,0.0011
3927.00,0.0011
3926.00,0.0011
3925.00,0.0011
3924.00,0.0012
3923.00,0.0012
3922.00,0.0011
3921.00,0.0011
3920.00,0.0010
3919.00,0.0010
3918.00,0.0010
3917.00,0.0010
3916.00,0.0011
3915.00,0.0011
3914.00,0.0011
3913.00,0.0011
3912.00,0.0011
3911.00,0.0011
3910.00,0.0011
3909.00,0.0011
3908.00,0.0011
3907.00,0.0011
3906.00,0.0011
3905.00,0.0011
3904.00,0.0011
3903.00,0.0011
3902.00,0.0011
3901.00,0.0011
3900.00,0.0011
3899.00,0.0011
3898.00,0.0011
3897.00,0.0011
3896.00,0.0011
3895.00,0.0011
3894.00,0.0011
3893.00,0.0012
3892.00,0.0012
3891.00,0.0012
3890.00,0.0012
3889.00,0.0011
3888.00,0.0011
3887.00,0.0011
3886.00,0.0011
3885.00,0.0011
3884.00,0.0011
3883.00,0.0011
3882.00,0.0011
3881.00,0.0012
3880.00,0.0012
3879.00,0.0012
3878.00,0.0011
3877.00,0.0011
3876.00,0.0011
3875.00,0.0011
3874.00,0.0011
3873.00,0.0011
3872.00,0.0011
3871.00,0.0011
3870.00,0.0011
3869.00,0.0011
3868.00,0.0010
3867.00,0.0010
3866.00,0.0010
3865.00,0.0010
3864.00,0.0010
3863.00,0.0010
3862.00,0.0010
3861.00,0.0010
3860.00,0.0010
3859.00,0.0010
3858.00,0.0010
3857.00,0.0010
3856.00,0.0010
3855.00,0.0010
3854.00,0.0010
3853.00,0.0009
3852.00,0.0009
3851.00,0.0009
3850.00,0.0009
3849.00,0.0009
3848.00,0.0010
3847.00,0.0010
3846.00,0.0010
3845.00,0.0010
3844.00,0.0010
3843.00,0.0010
3842.00,0.0011
3841.00,0.0010
3840.00,0.0010
3839.00,0.0010
3838.00,0.0010
3837.00,0.0010
3836.00,0.0010
3835.00,0.0009
3834.00,0.0009
3833.00,0.0009
3832.00,0.0009
3831.00,0.0010
3830.00,0.0010
3829.00,0.0010
3828.00,0.0010
3827.00,0.0011
3826.00,0.0011
3825.00,0.0011
3824.00,0.0011
3823.00,0.0011
3822.00,0.0011
3821.00,0.0010
3820.00,0.0010
3819.00,0.0009
3818.00,0.0009
3817.00,0.0009
3816.00,0.0009
3815.00,0.0009
3814.00,0.0009
3813.00,0.0009
3812.00,0.0010
3811.00,0.0010
3810.00,0.0011
3809.00,0.0011
3808.00,0.0011
3807.00,0.0012
3806.00,0.0012
3805.00,0.0011
3804.00,0.0011
3803.00,0.0011
3802.00,0.0010
3801.00,0.0010
3800.00,0.0010
3799.00,0.0010
3798.00,0.0010
3797.00,0.0010
3796.00,0.0011
3795.00,0.0010
3794.00,0.0010
3793.00,0.0010
3792.00,0.0010
3791.00,0.0010
3790.00,0.0010
3789.00,0.0010
3788.00,0.0010
3787.00,0.0010
3786.00,0.0010
3785.00,0.0009
3784.00,0.0010
3783.00,0.0010
3782.00,0.0010
3781.00,0.0010
3780.00,0.0011
3779.00,0.0011
3778.00,0.0010
3777.00,0.0010
3776.00,0.0010
3775.00,0.0010
3774.00,0.0010
3773.00,0.0011
3772.00,0.0011
3771.00,0.0011
3770.00,0.0011
3769.00,0.0011
3768.00,0.0011
3767.00,0.0011
3766.00,0.0011
3765.00,0.0011
3764.00,0.0011
3763.00,0.0010
3762.00,0.0010
3761.00,0.0011
3760.00,0.0011
3759.00,0.0011
3758.00,0.0011
3757.00,0.0011
3756.00,0.0011
3755.00,0.0012
3754.00,0.0012
3753.00,0.0012
3752.00,0.0011
3751.00,0.0011
3750.00,0.0010
3749.00,0.0010
3748.00,0.0010
3747.00,0.0009
3746.00,0.0009
3745.00,0.0009
3744.00,0.0009
3743.00,0.0009
3742.00,0.0010
3741.00,0.0011
3740.00,0.0011
3739.00,0.0011
3738.00,0.0011
3737.00,0.0010
3736.00,0.0010
3735.00,0.0009
3734.00,0.0009
3733.00,0.0008
3732.00,0.0008
3731.00,0.0008
3730.00,0.0009
3729.00,0.0009
3728.00,0.0010
3727.00,0.0010
3726.00,0.0010
3725.00,0.0010
3724.00,0.0010
3723.00,0.0010
3722.00,0.0010
3721.00,0.0010
3720.00,0.0010
3719.00,0.0010
3718.00,0.0010
3717.00,0.0010
3716.00,0.0010
3715.00,0.0009
3714.00,0.0009
3713.00,0.0009
3712.00,0.0009
3711.00,0.0008
3710.00,0.0008
3709.00,0.0008
3708.00,0.0008
3707.00,0.0009
3706.00,0.0009
3705.00,0.0008
3704.00,0.0008
3703.00,0.0008
3702.00,0.0009
3701.00,0.0009
3700.00,0.0010
3699.00,0.0010
3698.00,0.0011
3697.00,0.0010
3696.00,0.0010
3695.00,0.0010
3694.00,0.0010
3693.00,0.0010
3692.00,0.0011
3691.00,0.0011
3690.00,0.0010
3689.00,0.0010
3688.00,0.0009
3687.00,0.0009
3686.00,0.0009
3685.00,0.0009
3684.00,0.0008
3683.00,0.0008
3682.00,0.0008
3681.00,0.0009
3680.00,0.0009
3679.00,0.0010
3678.00,0.0010
3677.00,0.0010
3676.00,0.0009
3675.00,0.0008
3674.00,0.0007
3673.00,0.0007
3672.00,0.0007
3671.00,0.0007
3670.00,0.0007
3669.00,0.0006
3668.00,0.0006
3667.00,0.0006
3666.00,0.0006
3665.00,0.0006
3664.00,0.0005
3663.00,0.0005
3662.00,0.0005
3661.00,0.0005
3660.00,0.0005
3659.00,0.0006
3658.00,0.0006
3657.00,0.0007
3656.00,0.0007
3655.00,0.0007
3654.00,0.0007
3653.00,0.0007
3652.00,0.0007
3651.00,0.0008
3650.00,0.0008
3649.00,0.0007
3648.00,0.0007
3647.00,0.0007
3646.00,0.0007
3645.00,0.0007
3644.00,0.0008
3643.00,0.0008
3642.00,0.0009
3641.00,0.0010
3640.00,0.0010
3639.00,0.0010
3638.00,0.0010
3637.00,0.0010
3636.00,0.0011
3635.00,0.0011
3634.00,0.0012
3633.00,0.0012
3632.00,0.0012
3631.00,0.0011
3630.00,0.0011
3629.00,0.0011
3628.00,0.0011
3627.00,0.0012
3626.00,0.0012
3625.00,0.0012
3624.00,0.0013
3623.00,0.0013
3622.00,0.0013
3621.00,0.0014
3620.00,0.0015
3619.00,0.0016
3618.00,0.0016
3617.00,0.0016
3616.00,0.0017
3615.00,0.0017
3614.00,0.0017
3613.00,0.0016
3612.00,0.0016
3611.00,0.0017
3610.00,0.0017
3609.00,0.0018
3608.00,0.0018
3607.00,0.0018
3606.00,0.0018
3605.00,0.0018
3604.00,0.0018
3603.00,0.0019
3602.00,0.0019
3601.00,0.0019
3600.00,0.0019
3599.00,0.0019
3598.00,0.0019
3597.00,0.0019
3596.00,0.0019
3595.00,0.0020
3594.00,0.0020
3593.00,0.0021
3592.00,0.0021
3591.00,0.0021
3590.00,0.0021
3589.00,0.0021
3588.00,0.0021
3587.00,0.0022
3586.00,0.0022
3585.00,0.0022
3584.00,0.0022
3583.00,0.0022
3582.00,0.0022
3581.00,0.0022
3580.00,0.0023
3579.00,0.0023
3578.00,0.0024
3577.00,0.0024
3576.00,0.0025
3575.00,0.0025
3574.00,0.0026
3573.00,0.0026
3572.00,0.0026
3571.00,0.0027
3570.00,0.0027
3569.00,0.0027
3568.00,0.0028
3567.00,0.0028
3566.00,0.0029
3565.00,0.0029
3564.00,0.0029
3563.00,0.0029
3562.00,0.0028
3561.00,0.0028
3560.00,0.0028
3559.00,0.0029
3558.00,0.0029
3557.00,0.0030
3556.00,0.0031
3555.00,0.0031
3554.00,0.0032
3553.00,0.0033
3552.00,0.0033
3551.00,0.0033
3550.00,0.0032
3549.00,0.0032
3548.00,0.0032
3547.00,0.0033
3546.00,0.0033
3545.00,0.0033
3544.00,0.0033
3543.00,0.0033
3542.00,0.0033
3541.00,0.0033
3540.00,0.0034
3539.00,0.0034
3538.00,0.0035
3537.00,0.0035
3536.00,0.0035
3535.00,0.0036
3534.00,0.0036
3533.00,0.0036
3532.00,0.0037
3531.00,0.0037
3530.00,0.0038
3529.00,0.0038
3528.00,0.0038
3527.00,0.0038
3526.00,0.0038
3525.00,0.0039
3524.00,0.0039
3523.00,0.0039
3522.00,0.0040
3521.00,0.0040
3520.00,0.0040
3519.00,0.0040
3518.00,0.0040
3517.00,0.0040
3516.00,0.0040
3515.00,0.0040
3514.00,0.0041
3513.00,0.0041
3512.00,0.0041
3511.00,0.0042
3510.00,0.0042
3509.00,0.0042
3508.00,0.0042
3507.00,0.0042
3506.00,0.0042
3505.00,0.0043
3504.00,0.0044
3503.00,0.0044
3502.00,0.0044
3501.00,0.0045
3500.00,0.0045
3499.00,0.0045
3498.00,0.0046
3497.00,0.0046
3496.00,0.0046
3495.00,0.0046
3494.00,0.0045
3493.00,0.0045
3492.00,0.0046
3491.00,0.0046
3490.00,0.0046
3489.00,0.0046
3488.00,0.0046
3487.00,0.0047
3486.00,0.0047
3485.00,0.0048
3484.00,0.0048
3483.00,0.0048
3482.00,0.0048
3481.00,0.0048
3480.00,0.0049
3479.00,0.0049
3478.00,0.0049
3477.00,0.0050
3476.00,0.0050
3475.00,0.0051
3474.00,0.0051
3473.00,0.0051
3472.00,0.0051
3471.00,0.0051
3470.00,0.0051
3469.00,0.0052
3468.00,0.0052
3467.00,0.0053
3466.00,0.0053
3465.00,0.0053
3464.00,0.0053
3463.00,0.0053
3462.00,0.0053
3461.00,0.0053
3460.00,0.0054
3459.00,0.0054
3458.00,0.0054
3457.00,0.0055
3456.00,0.0055
3455.00,0.0055
3454.00,0.0055
3453.00,0.0055
3452.00,0.0055
3451.00,0.0055
3450.00,0.0055
3449.00,0.0056
3448.00,0.0056
3447.00,0.0057
3446.00,0.0057
3445.00,0.0058
3444.00,0.0058
3443.00,0.0058
3442.00,0.0059
3441.00,0.0059
3440.00,0.0059
3439.00,0.0059
3438.00,0.0059
3437.00,0.0060
3436.00,0.0060
3435.00,0.0060
3434.00,0.0060
3433.00,0.0060
3432.00,0.0060
3431.00,0.0060
3430.00,0.0061
3429.00,0.0061
3428.00,0.0061
3427.00,0.0062
3426.00,0.0062
3425.00,0.0063
3424.00,0.0063
3423.00,0.0063
3422.00,0.0063
3421.00,0.0063
3420.00,0.0063
3419.00,0.0064
3418.00,0.0064
3417.00,0.0064
3416.00,0.0064
3415.00,0.0064
3414.00,0.0064
3413.00,0.0064
3412.00,0.0065
3411.00,0.0065
3410.00,0.0066
3409.00,0.0066
3408.00,0.0066
3407.00,0.0066
3406.00,0.0066
3405.00,0.0066
3404.00,0.0066
3403.00,0.0066
3402.00,0.0066
3401.00,0.0066
3400.00,0.0066
3399.00,0.0066
3398.00,0.0066
3397.00,0.0066
3396.00,0.0066
3395.00,0.0066
3394.00,0.0066
3393.00,0.0067
3392.00,0.0067
3391.00,0.0067
3390.00,0.0067
3389.00,0.0068
3388.00,0.0068
3387.00,0.0068
3386.00,0.0068
3385.00,0.0068
3384.00,0.0068
3383.00,0.0068
3382.00,0.0068
3381.00,0.0068
3380.00,0.0069
3379.00,0.0069
3378.00,0.0070
3377.00,0.0070
3376.00,0.0070
3375.00,0.0069
3374.00,0.0069
3373.00,0.0069
3372.00,0.0069
3371.00,0.0069
3370.00,0.0069
3369.00,0.0069
3368.00,0.0069
3367.00,0.0070
3366.00,0.0070
3365.00,0.0070
3364.00,0.0070
3363.00,0.0071
3362.00,0.0071
3361.00,0.0071
3360.00,0.0072
3359.00,0.0072
3358.00,0.0072
3357.00,0.0072
3356.00,0.0071
3355.00,0.0071
3354.00,0.0071
3353.00,0.0071
3352.00,0.0071
3351.00,0.0072
3350.00,0.0072
3349.00,0.0072
3348.00,0.0073
3347.00,0.0072
3346.00,0.0072
3345.00,0.0072
3344.00,0.0071
3343.00,0.0071
3342.00,0.0071
3341.00,0.0072
3340.00,0.0072
3339.00,0.0072
3338.00,0.0072
3337.00,0.0072
3336.00,0.0072
3335.00,0.0072
3334.00,0.0072
3333.00,0.0072
3332.00,0.0072
3331.00,0.0072
3330.00,0.0072
3329.00,0.0072
3328.00,0.0072
3327.00,0.0071
3326.00,0.0071
3325.00,0.0071
3324.00,0.0071
3323.00,0.0071
3322.00,0.0071
3321.00,0.0071
3320.00,0.0071
3319.00,0.0071
3318.00,0.0071
3317.00,0.0071
3316.00,0.0071
3315.00,0.0071
3314.00,0.0071
3313.00,0.0071
3312.00,0.0071
3311.00,0.0071
3310.00,0.0072
3309.00,0.0072
3308.00,0.0072
3307.00,0.0072
3306.00,0.0073
3305.00,0.0073
3304.00,0.0074
3303.00,0.0074
3302.00,0.0073
3301.00,0.0073
3300.00,0.0072
3299.00,0.0072
3298.00,0.0072
3297.00,0.0072
3296.00,0.0071
3295.00,0.0070
3294.00,0.0070
3293.00,0.0069
3292.00,0.0069
3291.00,0.0069
3290.00,0.0068
3289.00,0.0068
3288.00,0.0068
3287.00,0.0068
3286.00,0.0067
3285.00,0.0067
3284.00,0.0067
3283.00,0.0067
3282.00,0.0067
3281.00,0.0067
3280.00,0.0067
3279.00,0.0066
3278.00,0.0066
3277.00,0.0065
3276.00,0.0065
3275.00,0.0065
3274.00,0.0064
3273.00,0.0064
3272.00,0.0064
3271.00,0.0064
3270.00,0.0064
3269.00,0.0064
3268.00,0.0064
3267.00,0.0064
3266.00,0.0063
3265.00,0.0063
3264.00,0.0062
3263.00,0.0062
3262.00,0.0061
3261.00,0.0061
3260.00,0.0061
3259.00,0.0061
3258.00,0.0061
3257.00,0.0061
3256.00,0.0060
3255.00,0.0060
3254.00,0.0059
3253.00,0.0059
3252.00,0.0059
3251.00,0.0059
3250.00,0.0059
3249.00,0.0059
3248.00,0.0059
3247.00,0.0059
3246.00,0.0059
3245.00,0.0059
3244.00,0.0058
3243.00,0.0058
3242.00,0.0058
3241.00,0.0058
3240.00,0.0058
3239.00,0.0058
3238.00,0.0058
3237.00,0.0058
3236.00,0.0058
3235.00,0.0058
3234.00,0.0057
3233.00,0.0057
3232.00,0.0057
3231.00,0.0057
3230.00,0.0057
3229.00,0.0057
3228.00,0.0057
3227.00,0.0057
3226.00,0.0057
3225.00,0.0057
3224.00,0.0058
3223.00,0.0058
3222.00,0.0057
3221.00,0.0057
3220.00,0.0057
3219.00,0.0058
3218.00,0.0058
3217.00,0.0059
3216.00,0.0059
3215.00,0.0060
3214.00,0.0060
3213.00,0.0060
3212.00,0.0060
3211.00,0.0060
3210.00,0.0060
3209.00,0.0059
3208.00,0.0059
3207.00,0.0060
3206.00,0.0060
3205.00,0.0060
3204.00,0.0059
3203.00,0.0059
3202.00,0.0059
3201.00,0.0059
3200.00,0.0060
3199.00,0.0060
3198.00,0.0060
3197.00,0.0060
3196.00,0.0059
3195.00,0.0059
3194.00,0.0059
3193.00,0.0058
3192.00,0.0058
3191.00,0.0058
3190.00,0.0059
3189.00,0.0059
3188.00,0.0059
3187.00,0.0059
3186.00,0.0058
3185.00,0.0058
3184.00,0.0058
3183.00,0.0057
3182.00,0.0057
3181.00,0.0057
3180.00,0.0056
3179.00,0.0055
3178.00,0.0055
3177.00,0.0055
3176.00,0.0055
3175.00,0.0055
3174.00,0.0055
3173.00,0.0055
3172.00,0.0055
3171.00,0.0055
3170.00,0.0054
3169.00,0.0053
3168.00,0.0053
3167.00,0.0052
3166.00,0.0052
3165.00,0.0052
3164.00,0.0052
3163.00,0.0052
3162.00,0.0052
3161.00,0.0052
3160.00,0.0052
3159.00,0.0052
3158.00,0.0051
3157.00,0.0051
3156.00,0.0052
3155.00,0.0052
3154.00,0.0051
3153.00,0.0051
3152.00,0.0051
3151.00,0.0051
3150.00,0.0051
3149.00,0.0052
3148.00,0.0051
3147.00,0.0051
3146.00,0.0051
3145.00,0.0050
3144.00,0.0050
3143.00,0.0050
3142.00,0.0050
3141.00,0.0050
3140.00,0.0049
3139.00,0.0049
3138.00,0.0049
3137.00,0.0048
3136.00,0.0048
3135.00,0.0048
3134.00,0.0048
3133.00,0.0047
3132.00,0.0047
3131.00,0.0047
3130.00,0.0047
3129.00,0.0047
3128.00,0.0047
3127.00,0.0047
3126.00,0.0047
3125.00,0.0046
3124.00,0.0046
3123.00,0.0046
3122.00,0.0045
3121.00,0.0045
3120.00,0.0045
3119.00,0.0044
3118.00,0.0044
3117.00,0.0044
3116.00,0.0044
3115.00,0.0044
3114.00,0.0043
3113.00,0.0043
3112.00,0.0043
3111.00,0.0043
3110.00,0.0042
3109.00,0.0042
3108.00,0.0042
3107.00,0.0041
3106.00,0.0041
3105.00,0.0041
3104.00,0.0042
3103.00,0.0042
3102.00,0.0042
3101.00,0.0042
3100.00,0.0041
3099.00,0.0041
3098.00,0.0041
3097.00,0.0041
3096.00,0.0042
3095.00,0.0041
3094.00,0.0041
3093.00,0.0041
3092.00,0.0041
3091.00,0.0041
3090.00,0.0040
3089.00,0.0040
3088.00,0.0040
3087.00,0.0040
3086.00,0.0040
3085.00,0.0040
3084.00,0.0040
3083.00,0.0040
3082.00,0.0040
3081.00,0.0040
3080.00,0.0039
3079.00,0.0039
3078.00,0.0039
3077.00,0.0040
3076.00,0.0040
3075.00,0.0041
3074.00,0.0041
3073.00,0.0041
3072.00,0.0041
3071.00,0.0041
3070.00,0.0041
3069.00,0.0041
3068.00,0.0041
3067.00,0.0041
3066.00,0.0041
3065.00,0.0041
3064.00,0.0041
3063.00,0.0041
3062.00,0.0041
3061.00,0.0041
3060.00,0.0041
3059.00,0.0041
3058.00,0.0041
3057.00,0.0042
3056.00,0.0042
3055.00,0.0042
3054.00,0.0042
3053.00,0.0042
3052.00,0.0042
3051.00,0.0043
3050.00,0.0043
3049.00,0.0043
3048.00,0.0043
3047.00,0.0044
3046.00,0.0044
3045.00,0.0044
3044.00,0.0044
3043.00,0.0044
3042.00,0.0044
3041.00,0.0045
3040.00,0.0045
3039.00,0.0046
3038.00,0.0046
3037.00,0.0046
3036.00,0.0046
3035.00,0.0046
3034.00,0.0046
3033.00,0.0046
3032.00,0.0046
3031.00,0.0046
3030.00,0.0047
3029.00,0.0047
3028.00,0.0048
3027.00,0.0048
3026.00,0.0049
3025.00,0.0049
3024.00,0.0049
3023.00,0.0050
3022.00,0.0051
3021.00,0.0051
3020.00,0.0052
3019.00,0.0053
3018.00,0.0054
3017.00,0.0054
3016.00,0.0055
3015.00,0.0055
3014.00,0.0055
3013.00,0.0055
3012.00,0.0055
3011.00,0.0056
3010.00,0.0057
3009.00,0.0057
3008.00,0.0058
3007.00,0.0058
3006.00,0.0058
3005.00,0.0059
3004.00,0.0060
3003.00,0.0061
3002.00,0.0062
3001.00,0.0063
3000.00,0.0064
2999.00,0.0065
2998.00,0.0067
2997.00,0.0069
2996.00,0.0072
2995.00,0.0076
2994.00,0.0080
2993.00,0.0084
2992.00,0.0089
2991.00,0.0094
2990.00,0.0099
2989.00,0.0106
2988.00,0.0113
2987.00,0.0120
2986.00,0.0127
2985.00,0.0134
2984.00,0.0142
2983.00,0.0152
2982.00,0.0166
2981.00,0.0183
2980.00,0.0204
2979.00,0.0229
2978.00,0.0257
2977.00,0.0289
2976.00,0.0324
2975.00,0.0363
2974.00,0.0407
2973.00,0.0458
2972.00,0.0516
2971.00,0.0583
2970.00,0.0658
2969.00,0.0742
2968.00,0.0834
2967.00,0.0932
2966.00,0.1037
2965.00,0.1145
2964.00,0.1254
2963.00,0.1355
2962.00,0.1444
2961.00,0.1514
2960.00,0.1564
2959.00,0.1598
2958.00,0.1620
2957.00,0.1641
2956.00,0.1668
2955.00,0.1707
2954.00,0.1757
2953.00,0.1813
2952.00,0.1862
2951.00,0.1892
2950.00,0.1891
2949.00,0.1851
2948.00,0.1773
2947.00,0.1667
2946.00,0.1543
2945.00,0.1417
2944.00,0.1301
2943.00,0.1202
2942.00,0.1126
2941.00,0.1073
2940.00,0.1044
2939.00,0.1035
2938.00,0.1045
2937.00,0.1071
2936.00,0.1112
2935.00,0.1168
2934.00,0.1236
2933.00,0.1316
2932.00,0.1407
2931.00,0.1507
2930.00,0.1614
2929.00,0.1724
2928.00,0.1835
2927.00,0.1944
2926.00,0.2049
2925.00,0.2151
2924.00,0.2251
2923.00,0.2349
2922.00,0.2445
2921.00,0.2536
2920.00,0.2614
2919.00,0.2669
2918.00,0.2692
2917.00,0.2676
2916.00,0.2622
2915.00,0.2539
2914.00,0.2438
2913.00,0.2333
2912.00,0.2234
2911.00,0.2146
2910.00,0.2071
2909.00,0.2006
2908.00,0.1948
2907.00,0.1892
2906.00,0.1835
2905.00,0.1774
2904.00,0.1711
2903.00,0.1645
2902.00,0.1578
2901.00,0.1513
2900.00,0.1449
2899.00,0.1387
2898.00,0.1329
2897.00,0.1276
2896.00,0.1228
2895.00,0.1186
2894.00,0.1150
2893.00,0.1120
2892.00,0.1096
2891.00,0.1078
2890.00,0.1065
2889.00,0.1055
2888.00,0.1049
2887.00,0.1047
2886.00,0.1047
2885.00,0.1050
2884.00,0.1057
2883.00,0.1068
2882.00,0.1081
2881.00,0.1096
2880.00,0.1110
2879.00,0.1119
2878.00,0.1123
2877.00,0.1120
2876.00,0.1113
2875.00,0.1106
2874.00,0.1103
2873.00,0.1106
2872.00,0.1117
2871.00,0.1134
2870.00,0.1154
2869.00,0.1174
2868.00,0.1186
2867.00,0.1184
2866.00,0.1163
2865.00,0.1120
2864.00,0.1061
2863.00,0.0993
2862.00,0.0926
2861.00,0.0868
2860.00,0.0823
2859.00,0.0794
2858.00,0.0779
2857.00,0.0775
2856.00,0.0781
2855.00,0.0794
2854.00,0.0812
2853.00,0.0833
2852.00,0.0855
2851.00,0.0877
2850.00,0.0894
2849.00,0.0908
2848.00,0.0920
2847.00,0.0936
2846.00,0.0960
2845.00,0.0994
2844.00,0.1039
2843.00,0.1090
2842.00,0.1144
2841.00,0.1190
2840.00,0.1222
2839.00,0.1232
2838.00,0.1215
2837.00,0.1167
2836.00,0.1094
2835.00,0.1000
2834.00,0.0897
2833.00,0.0793
2832.00,0.0697
2831.00,0.0613
2830.00,0.0542
2829.00,0.0483
2828.00,0.0436
2827.00,0.0397
2826.00,0.0365
2825.00,0.0338
2824.00,0.0315
2823.00,0.0296
2822.00,0.0279
2821.00,0.0264
2820.00,0.0252
2819.00,0.0241
2818.00,0.0231
2817.00,0.0222
2816.00,0.0214
2815.00,0.0207
2814.00,0.0201
2813.00,0.0196
2812.00,0.0191
2811.00,0.0186
2810.00,0.0181
2809.00,0.0175
2808.00,0.0169
2807.00,0.0162
2806.00,0.0156
2805.00,0.0150
2804.00,0.0144
2803.00,0.0138
2802.00,0.0133
2801.00,0.0129
2800.00,0.0125
2799.00,0.0123
2798.00,0.0120
2797.00,0.0118
2796.00,0.0116
2795.00,0.0113
2794.00,0.0110
2793.00,0.0107
2792.00,0.0104
2791.00,0.0101
2790.00,0.0098
2789.00,0.0094
2788.00,0.0091
2787.00,0.0088
2786.00,0.0085
2785.00,0.0082
2784.00,0.0080
2783.00,0.0077
2782.00,0.0075
2781.00,0.0074
2780.00,0.0072
2779.00,0.0070
2778.00,0.0069
2777.00,0.0067
2776.00,0.0066
2775.00,0.0064
2774.00,0.0063
2773.00,0.0062
2772.00,0.0061
2771.00,0.0061
2770.00,0.0061
2769.00,0.0060
2768.00,0.0060
2767.00,0.0059
2766.00,0.0059
2765.00,0.0059
2764.00,0.0058
2763.00,0.0058
2762.00,0.0058
2761.00,0.0058
2760.00,0.0058
2759.00,0.0057
2758.00,0.0057
2757.00,0.0057
2756.00,0.0057
2755.00,0.0057
2754.00,0.0057
2753.00,0.0056
2752.00,0.0056
2751.00,0.0056
2750.00,0.0055
2749.00,0.0055
2748.00,0.0055
2747.00,0.0055
2746.00,0.0056
2745.00,0.0057
2744.00,0.0057
2743.00,0.0058
2742.00,0.0058
2741.00,0.0059
2740.00,0.0060
2739.00,0.0061
2738.00,0.0063
2737.00,0.0064
2736.00,0.0065
2735.00,0.0067
2734.00,0.0069
2733.00,0.0070
2732.00,0.0072
2731.00,0.0074
2730.00,0.0075
2729.00,0.0077
2728.00,0.0079
2727.00,0.0082
2726.00,0.0084
2725.00,0.0087
2724.00,0.0089
2723.00,0.0089
2722.00,0.0089
2721.00,0.0087
2720.00,0.0085
2719.00,0.0082
2718.00,0.0079
2717.00,0.0076
2716.00,0.0073
2715.00,0.0070
2714.00,0.0067
2713.00,0.0065
2712.00,0.0064
2711.00,0.0062
2710.00,0.0061
2709.00,0.0060
2708.00,0.0058
2707.00,0.0057
2706.00,0.0056
2705.00,0.0055
2704.00,0.0054
2703.00,0.0053
2702.00,0.0052
2701.00,0.0051
2700.00,0.0051
2699.00,0.0050
2698.00,0.0050
2697.00,0.0050
2696.00,0.0050
2695.00,0.0050
2694.00,0.0050
2693.00,0.0050
2692.00,0.0050
2691.00,0.0049
2690.00,0.0049
2689.00,0.0050
2688.00,0.0050
2687.00,0.0050
2686.00,0.0050
2685.00,0.0049
2684.00,0.0049
2683.00,0.0048
2682.00,0.0048
2681.00,0.0049
2680.00,0.0049
2679.00,0.0050
2678.00,0.0049
2677.00,0.0049
2676.00,0.0049
2675.00,0.0049
2674.00,0.0049
2673.00,0.0049
2672.00,0.0049
2671.00,0.0049
2670.00,0.0048
2669.00,0.0048
2668.00,0.0047
2667.00,0.0047
2666.00,0.0047
2665.00,0.0048
2664.00,0.0048
2663.00,0.0049
2662.00,0.0050
2661.00,0.0051
2660.00,0.0051
2659.00,0.0051
2658.00,0.0051
2657.00,0.0051
2656.00,0.0051
2655.00,0.0050
2654.00,0.0049
2653.00,0.0049
2652.00,0.0048
2651.00,0.0047
2650.00,0.0047
2649.00,0.0046
2648.00,0.0046
2647.00,0.0046
2646.00,0.0046
2645.00,0.0045
2644.00,0.0045
2643.00,0.0044
2642.00,0.0044
2641.00,0.0043
2640.00,0.0042
2639.00,0.0042
2638.00,0.0042
2637.00,0.0042
2636.00,0.0042
2635.00,0.0042
2634.00,0.0042
2633.00,0.0042
2632.00,0.0042
2631.00,0.0042
2630.00,0.0042
2629.00,0.0042
2628.00,0.0042
2627.00,0.0043
2626.00,0.0043
2625.00,0.0043
2624.00,0.0044
2623.00,0.0044
2622.00,0.0044
2621.00,0.0044
2620.00,0.0044
2619.00,0.0043
2618.00,0.0043
2617.00,0.0044
2616.00,0.0044
2615.00,0.0044
2614.00,0.0044
2613.00,0.0044
2612.00,0.0043
2611.00,0.0042
2610.00,0.0041
2609.00,0.0040
2608.00,0.0039
2607.00,0.0038
2606.00,0.0037
2605.00,0.0037
2604.00,0.0036
2603.00,0.0036
2602.00,0.0035
2601.00,0.0035
2600.00,0.0034
2599.00,0.0034
2598.00,0.0034
2597.00,0.0034
2596.00,0.0033
2595.00,0.0033
2594.00,0.0033
2593.00,0.0034
2592.00,0.0035
2591.00,0.0036
2590.00,0.0037
2589.00,0.0038
2588.00,0.0038
2587.00,0.0038
2586.00,0.0039
2585.00,0.0039
2584.00,0.0040
2583.00,0.0041
2582.00,0.0041
2581.00,0.0041
2580.00,0.0041
2579.00,0.0040
2578.00,0.0039
2577.00,0.0038
2576.00,0.0036
2575.00,0.0035
2574.00,0.0034
2573.00,0.0033
2572.00,0.0033
2571.00,0.0032
2570.00,0.0031
2569.00,0.0030
2568.00,0.0029
2567.00,0.0028
2566.00,0.0028
2565.00,0.0029
2564.00,0.0029
2563.00,0.0029
2562.00,0.0029
2561.00,0.0028
2560.00,0.0028
2559.00,0.0027
2558.00,0.0026
2557.00,0.0026
2556.00,0.0025
2555.00,0.0025
2554.00,0.0025
2553.00,0.0025
2552.00,0.0025
2551.00,0.0025
2550.00,0.0025
2549.00,0.0025
2548.00,0.0025
2547.00,0.0024
2546.00,0.0023
2545.00,0.0023
2544.00,0.0022
2543.00,0.0021
2542.00,0.0021
2541.00,0.0021
2540.00,0.0021
2539.00,0.0021
2538.00,0.0021
2537.00,0.0021
2536.00,0.0021
2535.00,0.0021
2534.00,0.0021
2533.00,0.0020
2532.00,0.0020
2531.00,0.0019
2530.00,0.0019
2529.00,0.0019
2528.00,0.0018
2527.00,0.0018
2526.00,0.0018
2525.00,0.0018
2524.00,0.0018
2523.00,0.0018
2522.00,0.0017
2521.00,0.0017
2520.00,0.0016
2519.00,0.0016
2518.00,0.0016
2517.00,0.0016
2516.00,0.0016
2515.00,0.0015
2514.00,0.0015
2513.00,0.0015
2512.00,0.0015
2511.00,0.0016
2510.00,0.0016
2509.00,0.0017
2508.00,0.0017
2507.00,0.0016
2506.00,0.0015
2505.00,0.0015
2504.00,0.0014
2503.00,0.0014
2502.00,0.0014
2501.00,0.0014
2500.00,0.0015
2499.00,0.0015
2498.00,0.0015
2497.00,0.0016
2496.00,0.0016
2495.00,0.0015
2494.00,0.0015
2493.00,0.0015
2492.00,0.0015
2491.00,0.0014
2490.00,0.0014
2489.00,0.0014
2488.00,0.0013
2487.00,0.0013
2486.00,0.0013
2485.00,0.0013
2484.00,0.0013
2483.00,0.0013
2482.00,0.0013
2481.00,0.0013
2480.00,0.0014
2479.00,0.0014
2478.00,0.0013
2477.00,0.0013
2476.00,0.0013
2475.00,0.0013
2474.00,0.0013
2473.00,0.0013
2472.00,0.0013
2471.00,0.0013
2470.00,0.0012
2469.00,0.0012
2468.00,0.0011
2467.00,0.0011
2466.00,0.0011
2465.00,0.0012
2464.00,0.0013
2463.00,0.0013
2462.00,0.0014
2461.00,0.0014
2460.00,0.0014
2459.00,0.0013
2458.00,0.0013
2457.00,0.0013
2456.00,0.0014
2455.00,0.0014
2454.00,0.0015
2453.00,0.0015
2452.00,0.0015
2451.00,0.0015
2450.00,0.0015
2449.00,0.0015
2448.00,0.0014
2447.00,0.0014
2446.00,0.0014
2445.00,0.0014
2444.00,0.0014
2443.00,0.0015
2442.00,0.0015
2441.00,0.0015
2440.00,0.0015
2439.00,0.0015
2438.00,0.0015
2437.00,0.0016
2436.00,0.0016
2435.00,0.0016
2434.00,0.0015
2433.00,0.0015
2432.00,0.0015
2431.00,0.0015
2430.00,0.0015
2429.00,0.0015
2428.00,0.0016
2427.00,0.0015
2426.00,0.0015
2425.00,0.0015
2424.00,0.0015
2423.00,0.0014
2422.00,0.0014
2421.00,0.0014
2420.00,0.0013
2419.00,0.0013
2418.00,0.0013
2417.00,0.0012
2416.00,0.0012
2415.00,0.0012
2414.00,0.0013
2413.00,0.0013
2412.00,0.0014
2411.00,0.0014
2410.00,0.0014
2409.00,0.0014
2408.00,0.0014
2407.00,0.0013
2406.00,0.0013
2405.00,0.0013
2404.00,0.0013
2403.00,0.0013
2402.00,0.0013
2401.00,0.0013
2400.00,0.0013
2399.00,0.0013
2398.00,0.0013
2397.00,0.0013
2396.00,0.0012
2395.00,0.0012
2394.00,0.0011
2393.00,0.0011
2392.00,0.0012
2391.00,0.0012
2390.00,0.0012
2389.00,0.0012
2388.00,0.0012
2387.00,0.0010
2386.00,0.0009
2385.00,0.0009
2384.00,0.0008
2383.00,0.0008
2382.00,0.0007
2381.00,0.0007
2380.00,0.0006
2379.00,0.0006
2378.00,0.0006
2377.00,0.0007
2376.00,0.0007
2375.00,0.0007
2374.00,0.0007
2373.00,0.0007
2372.00,0.0006
2371.00,0.0006
2370.00,0.0005
2369.00,0.0005
2368.00,0.0006
2367.00,0.0006
2366.00,0.0006
2365.00,0.0006
2364.00,0.0006
2363.00,0.0006
2362.00,0.0006
2361.00,0.0007
2360.00,0.0006
2359.00,0.0006
2358.00,0.0006
2357.00,0.0006
2356.00,0.0007
2355.00,0.0008
2354.00,0.0008
2353.00,0.0008
2352.00,0.0008
2351.00,0.0007
2350.00,0.0007
2349.00,0.0008
2348.00,0.0008
2347.00,0.0009
2346.00,0.0008
2345.00,0.0008
2344.00,0.0009
2343.00,0.0009
2342.00,0.0010
2341.00,0.0010
2340.00,0.0010
2339.00,0.0010
2338.00,0.0010
2337.00,0.0010
2336.00,0.0010
2335.00,0.0010
2334.00,0.0010
2333.00,0.0009
2332.00,0.0009
2331.00,0.0010
2330.00,0.0011
2329.00,0.0012
2328.00,0.0014
2327.00,0.0017
2326.00,0.0020
2325.00,0.0023
2324.00,0.0024
2323.00,0.0023
2322.00,0.0021
2321.00,0.0019
2320.00,0.0017
2319.00,0.0016
2318.00,0.0015
2317.00,0.0014
2316.00,0.0014
2315.00,0.0013
2314.00,0.0011
2313.00,0.0011
2312.00,0.0010
2311.00,0.0011
2310.00,0.0011
2309.00,0.0011
2308.00,0.0012
2307.00,0.0012
2306.00,0.0012
2305.00,0.0012
2304.00,0.0012
2303.00,0.0013
2302.00,0.0013
2301.00,0.0014
2300.00,0.0014
2299.00,0.0015
2298.00,0.0015
2297.00,0.0016
2296.00,0.0016
2295.00,0.0016
2294.00,0.0016
2293.00,0.0016
2292.00,0.0017
2291.00,0.0018
2290.00,0.0020
2289.00,0.0021
2288.00,0.0022
2287.00,0.0023
2286.00,0.0022
2285.00,0.0021
2284.00,0.0020
2283.00,0.0019
2282.00,0.0018
2281.00,0.0017
2280.00,0.0017
2279.00,0.0016
2278.00,0.0015
2277.00,0.0015
2276.00,0.0015
2275.00,0.0016
2274.00,0.0017
2273.00,0.0018
2272.00,0.0018
2271.00,0.0017
2270.00,0.0017
2269.00,0.0017
2268.00,0.0018
2267.00,0.0018
2266.00,0.0018
2265.00,0.0018
2264.00,0.0018
2263.00,0.0017
2262.00,0.0017
2261.00,0.0017
2260.00,0.0017
2259.00,0.0017
2258.00,0.0016
2257.00,0.0015
2256.00,0.0014
2255.00,0.0013
2254.00,0.0013
2253.00,0.0014
2252.00,0.0015
2251.00,0.0016
2250.00,0.0016
2249.00,0.0015
2248.00,0.0014
2247.00,0.0012
2246.00,0.0010
2245.00,0.0009
2244.00,0.0009
2243.00,0.0010
2242.00,0.0010
2241.00,0.0010
2240.00,0.0009
2239.00,0.0009
2238.00,0.0010
2237.00,0.0012
2236.00,0.0015
2235.00,0.0016
2234.00,0.0016
2233.00,0.0015
2232.00,0.0014
2231.00,0.0012
2230.00,0.0011
2229.00,0.0012
2228.00,0.0013
2227.00,0.0014
2226.00,0.0014
2225.00,0.0013
2224.00,0.0013
2223.00,0.0013
2222.00,0.0013
2221.00,0.0011
2220.00,0.0008
2219.00,0.0005
2218.00,0.0004
2217.00,0.0004
2216.00,0.0005
2215.00,0.0006
2214.00,0.0006
2213.00,0.0007
2212.00,0.0008
2211.00,0.0009
2210.00,0.0010
2209.00,0.0011
2208.00,0.0012
2207.00,0.0013
2206.00,0.0014
2205.00,0.0014
2204.00,0.0015
2203.00,0.0015
2202.00,0.0013
2201.00,0.0011
2200.00,0.0010
2199.00,0.0010
2198.00,0.0011
2197.00,0.0013
2196.00,0.0016
2195.00,0.0017
2194.00,0.0017
2193.00,0.0016
2192.00,0.0013
2191.00,0.0011
2190.00,0.0011
2189.00,0.0013
2188.00,0.0016
2187.00,0.0018
2186.00,0.0019
2185.00,0.0017
2184.00,0.0014
2183.00,0.0011
2182.00,0.0011
2181.00,0.0011
2180.00,0.0012
2179.00,0.0011
2178.00,0.0010
2177.00,0.0008
2176.00,0.0006
2175.00,0.0005
2174.00,0.0006
2173.00,0.0007
2172.00,0.0007
2171.00,0.0007
2170.00,0.0008
2169.00,0.0010
2168.00,0.0014
2167.00,0.0018
2166.00,0.0022
2165.00,0.0024
2164.00,0.0025
2163.00,0.0025
2162.00,0.0022
2161.00,0.0015
2160.00,0.0003
2159.00,-0.0010
2158.00,-0.0021
2157.00,-0.0026
2156.00,-0.0027
2155.00,-0.0025
2154.00,-0.0021
2153.00,-0.0015
2152.00,-0.0010
2151.00,-0.0007
2150.00,-0.0007
2149.00,-0.0008
2148.00,-0.0009
2147.00,-0.0009
2146.00,-0.0008
2145.00,-0.0006
2144.00,-0.0004
2143.00,-0.0002
2142.00,-0.0002
2141.00,-0.0001
2140.00,-0.0001
2139.00,-0.0003
2138.00,-0.0005
2137.00,-0.0007
2136.00,-0.0008
2135.00,-0.0010
2134.00,-0.0011
2133.00,-0.0011
2132.00,-0.0010
2131.00,-0.0008
2130.00,-0.0007
2129.00,-0.0006
2128.00,-0.0004
2127.00,-0.0002
2126.00,-0.0001
2125.00,-0.0000
2124.00,0.0000
2123.00,0.0001
2122.00,0.0001
2121.00,0.0002
2120.00,0.0002
2119.00,0.0003
2118.00,0.0003
2117.00,0.0004
2116.00,0.0005
2115.00,0.0007
2114.00,0.0008
2113.00,0.0008
2112.00,0.0008
2111.00,0.0006
2110.00,0.0005
2109.00,0.0004
2108.00,0.0003
2107.00,0.0004
2106.00,0.0005
2105.00,0.0006
2104.00,0.0007
2103.00,0.0007
2102.00,0.0006
2101.00,0.0005
2100.00,0.0004
2099.00,0.0002
2098.00,0.0001
2097.00,0.0002
2096.00,0.0002
2095.00,0.0001
2094.00,0.0001
2093.00,0.0000
2092.00,0.0001
2091.00,0.0001
2090.00,0.0001
2089.00,0.0002
2088.00,0.0003
2087.00,0.0004
2086.00,0.0005
2085.00,0.0007
2084.00,0.0007
2083.00,0.0007
2082.00,0.0006
2081.00,0.0005
2080.00,0.0004
2079.00,0.0004
2078.00,0.0004
2077.00,0.0005
2076.00,0.0006
2075.00,0.0007
2074.00,0.0007
2073.00,0.0006
2072.00,0.0006
2071.00,0.0005
2070.00,0.0004
2069.00,0.0003
2068.00,0.0003
2067.00,0.0004
2066.00,0.0004
2065.00,0.0005
2064.00,0.0005
2063.00,0.0005
2062.00,0.0006
2061.00,0.0006
2060.00,0.0006
2059.00,0.0005
2058.00,0.0002
2057.00,0.0001
2056.00,0.0001
2055.00,0.0004
2054.00,0.0008
2053.00,0.0013
2052.00,0.0017
2051.00,0.0018
2050.00,0.0015
2049.00,0.0011
2048.00,0.0006
2047.00,0.0004
2046.00,0.0002
2045.00,0.0001
2044.00,-0.0000
2043.00,-0.0002
2042.00,-0.0003
2041.00,-0.0004
2040.00,-0.0003
2039.00,-0.0002
2038.00,0.0001
2037.00,0.0004
2036.00,0.0005
2035.00,0.0004
2034.00,0.0002
2033.00,0.0000
2032.00,-0.0001
2031.00,-0.0001
2030.00,-0.0000
2029.00,0.0000
2028.00,0.0001
2027.00,0.0000
2026.00,-0.0001
2025.00,-0.0003
2024.00,-0.0006
2023.00,-0.0008
2022.00,-0.0011
2021.00,-0.0011
2020.00,-0.0010
2019.00,-0.0010
2018.00,-0.0010
2017.00,-0.0010
2016.00,-0.0009
2015.00,-0.0007
2014.00,-0.0004
2013.00,-0.0000
2012.00,0.0003
2011.00,0.0002
2010.00,-0.0001
2009.00,-0.0006
2008.00,-0.0009
2007.00,-0.0010
2006.00,-0.0008
2005.00,-0.0006
2004.00,-0.0005
2003.00,-0.0007
2002.00,-0.0010
2001.00,-0.0012
2000.00,-0.0012
1999.00,-0.0012
1998.00,-0.0012
1997.00,-0.0011
1996.00,-0.0008
1995.00,-0.0006
1994.00,-0.0004
1993.00,-0.0004
1992.00,-0.0006
1991.00,-0.0007
1990.00,-0.0007
1989.00,-0.0007
1988.00,-0.0006
1987.00,-0.0004
1986.00,-0.0001
1985.00,0.0002
1984.00,0.0005
1983.00,0.0006
1982.00,0.0007
1981.00,0.0009
1980.00,0.0010
1979.00,0.0009
1978.00,0.0005
1977.00,-0.0000
1976.00,-0.0005
1975.00,-0.0008
1974.00,-0.0009
1973.00,-0.0009
1972.00,-0.0008
1971.00,-0.0009
1970.00,-0.0010
1969.00,-0.0010
1968.00,-0.0010
1967.00,-0.0011
1966.00,-0.0010
1965.00,-0.0009
1964.00,-0.0009
1963.00,-0.0010
1962.00,-0.0011
1961.00,-0.0013
1960.00,-0.0013
1959.00,-0.0013
1958.00,-0.0010
1957.00,-0.0007
1956.00,-0.0004
1955.00,-0.0002
1954.00,-0.0002
1953.00,-0.0003
1952.00,-0.0005
1951.00,-0.0006
1950.00,-0.0007
1949.00,-0.0008
1948.00,-0.0009
1947.00,-0.0010
1946.00,-0.0010
1945.00,-0.0009
1944.00,-0.0007
1943.00,-0.0006
1942.00,-0.0006
1941.00,-0.0006
1940.00,-0.0005
1939.00,-0.0005
1938.00,-0.0006
1937.00,-0.0007
1936.00,-0.0007
1935.00,-0.0007
1934.00,-0.0006
1933.00,-0.0005
1932.00,-0.0005
1931.00,-0.0005
1930.00,-0.0006
1929.00,-0.0007
1928.00,-0.0007
1927.00,-0.0006
1926.00,-0.0005
1925.00,-0.0003
1924.00,-0.0001
1923.00,0.0000
1922.00,0.0001
1921.00,0.0001
1920.00,0.0001
1919.00,0.0002
1918.00,0.0002
1917.00,0.0002
1916.00,0.0001
1915.00,0.0000
1914.00,0.0000
1913.00,-0.0000
1912.00,0.0000
1911.00,0.0001
1910.00,0.0002
1909.00,0.0003
1908.00,0.0003
1907.00,0.0003
1906.00,0.0003
1905.00,0.0003
1904.00,0.0003
1903.00,0.0003
1902.00,0.0004
1901.00,0.0004
1900.00,0.0004
1899.00,0.0004
1898.00,0.0003
1897.00,0.0003
1896.00,0.0005
1895.00,0.0006
1894.00,0.0006
1893.00,0.0006
1892.00,0.0005
1891.00,0.0005
1890.00,0.0005
1889.00,0.0005
1888.00,0.0005
1887.00,0.0005
1886.00,0.0005
1885.00,0.0005
1884.00,0.0005
1883.00,0.0004
1882.00,0.0003
1881.00,0.0003
1880.00,0.0002
1879.00,0.0002
1878.00,0.0002
1877.00,0.0002
1876.00,0.0002
1875.00,0.0002
1874.00,0.0001
1873.00,0.0002
1872.00,0.0002
1871.00,0.0003
1870.00,0.0004
1869.00,0.0004
1868.00,0.0005
1867.00,0.0006
1866.00,0.0006
1865.00,0.0005
1864.00,0.0005
1863.00,0.0005
1862.00,0.0005
1861.00,0.0005
1860.00,0.0005
1859.00,0.0005
1858.00,0.0005
1857.00,0.0006
1856.00,0.0007
1855.00,0.0007
1854.00,0.0007
1853.00,0.0007
1852.00,0.0007
1851.00,0.0006
1850.00,0.0006
1849.00,0.0006
1848.00,0.0005
1847.00,0.0004
1846.00,0.0003
1845.00,0.0003
1844.00,0.0004
1843.00,0.0005
1842.00,0.0005
1841.00,0.0005
1840.00,0.0005
1839.00,0.0005
1838.00,0.0006
1837.00,0.0006
1836.00,0.0007
1835.00,0.0007
1834.00,0.0007
1833.00,0.0007
1832.00,0.0007
1831.00,0.0007
1830.00,0.0008
1829.00,0.0009
1828.00,0.0009
1827.00,0.0008
1826.00,0.0009
1825.00,0.0009
1824.00,0.0009
1823.00,0.0009
1822.00,0.0008
1821.00,0.0007
1820.00,0.0006
1819.00,0.0006
1818.00,0.0005
1817.00,0.0005
1816.00,0.0005
1815.00,0.0006
1814.00,0.0006
1813.00,0.0007
1812.00,0.0007
1811.00,0.0008
1810.00,0.0008
1809.00,0.0008
1808.00,0.0008
1807.00,0.0008
1806.00,0.0008
1805.00,0.0009
1804.00,0.0009
1803.00,0.0010
1802.00,0.0010
1801.00,0.0011
1800.00,0.0011
1799.00,0.0011
1798.00,0.0011
1797.00,0.0010
1796.00,0.0010
1795.00,0.0009
1794.00,0.0010
1793.00,0.0010
1792.00,0.0011
1791.00,0.0012
1790.00,0.0012
1789.00,0.0011
1788.00,0.0012
1787.00,0.0012
1786.00,0.0012
1785.00,0.0012
1784.00,0.0012
1783.00,0.0012
1782.00,0.0012
1781.00,0.0011
1780.00,0.0012
1779.00,0.0012
1778.00,0.0012
1777.00,0.0012
1776.00,0.0013
1775.00,0.0013
1774.00,0.0013
1773.00,0.0013
1772.00,0.0014
1771.00,0.0014
1770.00,0.0015
1769.00,0.0016
1768.00,0.0016
1767.00,0.0016
1766.00,0.0015
1765.00,0.0015
1764.00,0.0015
1763.00,0.0015
1762.00,0.0017
1761.00,0.0018
1760.00,0.0018
1759.00,0.0018
1758.00,0.0019
1757.00,0.0019
1756.00,0.0020
1755.00,0.0020
1754.00,0.0020
1753.00,0.0021
1752.00,0.0023
1751.00,0.0025
1750.00,0.0026
1749.00,0.0026
1748.00,0.0027
1747.00,0.0028
1746.00,0.0029
1745.00,0.0030
1744.00,0.0032
1743.00,0.0033
1742.00,0.0034
1741.00,0.0035
1740.00,0.0036
1739.00,0.0037
1738.00,0.0038
1737.00,0.0037
1736.00,0.0037
1735.00,0.0037
1734.00,0.0037
1733.00,0.0037
1732.00,0.0037
1731.00,0.0038
1730.00,0.0038
1729.00,0.0038
1728.00,0.0038
1727.00,0.0037
1726.00,0.0037
1725.00,0.0036
1724.00,0.0036
1723.00,0.0036
1722.00,0.0036
1721.00,0.0035
1720.00,0.0035
1719.00,0.0034
1718.00,0.0034
1717.00,0.0034
1716.00,0.0035
1715.00,0.0035
1714.00,0.0034
1713.00,0.0034
1712.00,0.0033
1711.00,0.0033
1710.00,0.0033
1709.00,0.0034
1708.00,0.0034
1707.00,0.0034
1706.00,0.0035
1705.00,0.0035
1704.00,0.0036
1703.00,0.0036
1702.00,0.0037
1701.00,0.0038
1700.00,0.0039
1699.00,0.0039
1698.00,0.0038
1697.00,0.0039
1696.00,0.0040
1695.00,0.0042
1694.00,0.0044
1693.00,0.0045
1692.00,0.0047
1691.00,0.0048
1690.00,0.0049
1689.00,0.0050
1688.00,0.0051
1687.00,0.0051
1686.00,0.0052
1685.00,0.0055
1684.00,0.0058
1683.00,0.0061
1682.00,0.0062
1681.00,0.0063
1680.00,0.0064
1679.00,0.0065
1678.00,0.0066
1677.00,0.0067
1676.00,0.0069
1675.00,0.0070
1674.00,0.0071
1673.00,0.0073
1672.00,0.0074
1671.00,0.0076
1670.00,0.0077
1669.00,0.0078
1668.00,0.0079
1667.00,0.0080
1666.00,0.0081
1665.00,0.0082
1664.00,0.0083
1663.00,0.0083
1662.00,0.0084
1661.00,0.0085
1660.00,0.0085
1659.00,0.0085
1658.00,0.0086
1657.00,0.0086
1656.00,0.0086
1655.00,0.0086
1654.00,0.0087
1653.00,0.0087
1652.00,0.0088
1651.00,0.0088
1650.00,0.0088
1649.00,0.0089
1648.00,0.0089
1647.00,0.0090
1646.00,0.0090
1645.00,0.0091
1644.00,0.0091
1643.00,0.0092
1642.00,0.0092
1641.00,0.0093
1640.00,0.0094
1639.00,0.0094
1638.00,0.0094
1637.00,0.0094
1636.00,0.0095
1635.00,0.0094
1634.00,0.0093
1633.00,0.0091
1632.00,0.0090
1631.00,0.0089
1630.00,0.0088
1629.00,0.0088
1628.00,0.0087
1627.00,0.0086
1626.00,0.0085
1625.00,0.0084
1624.00,0.0083
1623.00,0.0082
1622.00,0.0082
1621.00,0.0081
1620.00,0.0080
1619.00,0.0079
1618.00,0.0079
1617.00,0.0079
1616.00,0.0079
1615.00,0.0078
1614.00,0.0078
1613.00,0.0078
1612.00,0.0078
1611.00,0.0078
1610.00,0.0078
1609.00,0.0078
1608.00,0.0077
1607.00,0.0077
1606.00,0.0077
1605.00,0.0077
1604.00,0.0077
1603.00,0.0078
1602.00,0.0077
1601.00,0.0077
1600.00,0.0076
1599.00,0.0076
1598.00,0.0076
1597.00,0.0076
1596.00,0.0077
1595.00,0.0077
1594.00,0.0077
1593.00,0.0078
1592.00,0.0078
1591.00,0.0079
1590.00,0.0080
1589.00,0.0082
1588.00,0.0083
1587.00,0.0085
1586.00,0.0087
1585.00,0.0089
1584.00,0.0092
1583.00,0.0095
1582.00,0.0098
1581.00,0.0101
1580.00,0.0103
1579.00,0.0105
1578.00,0.0106
1577.00,0.0106
1576.00,0.0106
1575.00,0.0105
1574.00,0.0104
1573.00,0.0103
1572.00,0.0102
1571.00,0.0100
1570.00,0.0099
1569.00,0.0097
1568.00,0.0096
1567.00,0.0095
1566.00,0.0094
1565.00,0.0093
1564.00,0.0092
1563.00,0.0091
1562.00,0.0090
1561.00,0.0090
1560.00,0.0090
1559.00,0.0090
1558.00,0.0090
1557.00,0.0092
1556.00,0.0094
1555.00,0.0095
1554.00,0.0097
1553.00,0.0098
1552.00,0.0099
1551.00,0.0100
1550.00,0.0102
1549.00,0.0104
1548.00,0.0107
1547.00,0.0109
1546.00,0.0112
1545.00,0.0116
1544.00,0.0120
1543.00,0.0123
1542.00,0.0123
1541.00,0.0123
1540.00,0.0120
1539.00,0.0115
1538.00,0.0111
1537.00,0.0108
1536.00,0.0105
1535.00,0.0101
1534.00,0.0096
1533.00,0.0091
1532.00,0.0088
1531.00,0.0085
1530.00,0.0083
1529.00,0.0083
1528.00,0.0082
1527.00,0.0080
1526.00,0.0079
1525.00,0.0078
1524.00,0.0077
1523.00,0.0076
1522.00,0.0076
1521.00,0.0076
1520.00,0.0078
1519.00,0.0079
1518.00,0.0079
1517.00,0.0080
1516.00,0.0080
1515.00,0.0079
1514.00,0.0078
1513.00,0.0078
1512.00,0.0079
1511.00,0.0080
1510.00,0.0081
1509.00,0.0082
1508.00,0.0083
1507.00,0.0082
1506.00,0.0081
1505.00,0.0082
1504.00,0.0084
1503.00,0.0085
1502.00,0.0086
1501.00,0.0088
1500.00,0.0091
1499.00,0.0093
1498.00,0.0094
1497.00,0.0097
1496.00,0.0100
1495.00,0.0102
1494.00,0.0104
1493.00,0.0107
1492.00,0.0112
1491.00,0.0116
1490.00,0.0121
1489.00,0.0126
1488.00,0.0132
1487.00,0.0136
1486.00,0.0141
1485.00,0.0147
1484.00,0.0155
1483.00,0.0163
1482.00,0.0173
1481.00,0.0186
1480.00,0.0199
1479.00,0.0213
1478.00,0.0229
1477.00,0.0251
1476.00,0.0277
1475.00,0.0306
1474.00,0.0345
1473.00,0.0401
1472.00,0.0467
1471.00,0.0530
1470.00,0.0590
1469.00,0.0653
1468.00,0.0721
1467.00,0.0795
1466.00,0.0878
1465.00,0.0968
1464.00,0.1046
1463.00,0.1099
1462.00,0.1134
1461.00,0.1158
1460.00,0.1175
1459.00,0.1188
1458.00,0.1200
1457.00,0.1209
1456.00,0.1210
1455.00,0.1205
1454.00,0.1196
1453.00,0.1184
1452.00,0.1162
1451.00,0.1131
1450.00,0.1085
1449.00,0.1020
1448.00,0.0933
1447.00,0.0838
1446.00,0.0750
1445.00,0.0675
1444.00,0.0609
1443.00,0.0555
1442.00,0.0513
1441.00,0.0483
1440.00,0.0464
1439.00,0.0455
1438.00,0.0453
1437.00,0.0452
1436.00,0.0441
1435.00,0.0417
1434.00,0.0384
1433.00,0.0344
1432.00,0.0301
1431.00,0.0264
1430.00,0.0234
1429.00,0.0212
1428.00,0.0196
1427.00,0.0186
1426.00,0.0180
1425.00,0.0174
1424.00,0.0168
1423.00,0.0165
1422.00,0.0163
1421.00,0.0160
1420.00,0.0157
1419.00,0.0154
1418.00,0.0152
1417.00,0.0148
1416.00,0.0145
1415.00,0.0143
1414.00,0.0142
1413.00,0.0139
1412.00,0.0137
1411.00,0.0135
1410.00,0.0134
1409.00,0.0132
1408.00,0.0130
1407.00,0.0130
1406.00,0.0129
1405.00,0.0128
1404.00,0.0126
1403.00,0.0126
1402.00,0.0126
1401.00,0.0126
1400.00,0.0125
1399.00,0.0126
1398.00,0.0128
1397.00,0.0129
1396.00,0.0130
1395.00,0.0132
1394.00,0.0136
1393.00,0.0139
1392.00,0.0142
1391.00,0.0149
1390.00,0.0159
1389.00,0.0173
1388.00,0.0193
1387.00,0.0223
1386.00,0.0264
1385.00,0.0316
1384.00,0.0389
1383.00,0.0490
1382.00,0.0627
1381.00,0.0801
1380.00,0.1017
1379.00,0.1265
1378.00,0.1507
1377.00,0.1688
1376.00,0.1754
1375.00,0.1671
1374.00,0.1464
1373.00,0.1213
1372.00,0.0983
1371.00,0.0795
1370.00,0.0644
1369.00,0.0529
1368.00,0.0449
1367.00,0.0400
1366.00,0.0374
1365.00,0.0364
1364.00,0.0366
1363.00,0.0380
1362.00,0.0399
1361.00,0.0420
1360.00,0.0435
1359.00,0.0439
1358.00,0.0428
1357.00,0.0404
1356.00,0.0371
1355.00,0.0334
1354.00,0.0299
1353.00,0.0269
1352.00,0.0245
1351.00,0.0225
1350.00,0.0208
1349.00,0.0194
1348.00,0.0182
1347.00,0.0172
1346.00,0.0163
1345.00,0.0156
1344.00,0.0149
1343.00,0.0144
1342.00,0.0141
1341.00,0.0138
1340.00,0.0136
1339.00,0.0134
1338.00,0.0132
1337.00,0.0132
1336.00,0.0132
1335.00,0.0133
1334.00,0.0135
1333.00,0.0138
1332.00,0.0142
1331.00,0.0145
1330.00,0.0146
1329.00,0.0146
1328.00,0.0144
1327.00,0.0140
1326.00,0.0136
1325.00,0.0131
1324.00,0.0126
1323.00,0.0121
1322.00,0.0118
1321.00,0.0116
1320.00,0.0114
1319.00,0.0113
1318.00,0.0111
1317.00,0.0109
1316.00,0.0108
1315.00,0.0107
1314.00,0.0107
1313.00,0.0107
1312.00,0.0107
1311.00,0.0110
1310.00,0.0115
1309.00,0.0122
1308.00,0.0133
1307.00,0.0146
1306.00,0.0159
1305.00,0.0167
1304.00,0.0169
1303.00,0.0165
1302.00,0.0157
1301.00,0.0150
1300.00,0.0146
1299.00,0.0144
1298.00,0.0144
1297.00,0.0143
1296.00,0.0142
1295.00,0.0139
1294.00,0.0136
1293.00,0.0131
1292.00,0.0127
1291.00,0.0123
1290.00,0.0119
1289.00,0.0115
1288.00,0.0112
1287.00,0.0109
1286.00,0.0107
1285.00,0.0105
1284.00,0.0103
1283.00,0.0102
1282.00,0.0101
1281.00,0.0100
1280.00,0.0099
1279.00,0.0098
1278.00,0.0096
1277.00,0.0095
1276.00,0.0095
1275.00,0.0094
1274.00,0.0094
1273.00,0.0094
1272.00,0.0095
1271.00,0.0095
1270.00,0.0096
1269.00,0.0098
1268.00,0.0100
1267.00,0.0103
1266.00,0.0106
1265.00,0.0108
1264.00,0.0111
1263.00,0.0115
1262.00,0.0119
1261.00,0.0124
1260.00,0.0130
1259.00,0.0137
1258.00,0.0145
1257.00,0.0151
1256.00,0.0154
1255.00,0.0151
1254.00,0.0143
1253.00,0.0133
1252.00,0.0122
1251.00,0.0114
1250.00,0.0107
1249.00,0.0102
1248.00,0.0098
1247.00,0.0096
1246.00,0.0095
1245.00,0.0093
1244.00,0.0092
1243.00,0.0091
1242.00,0.0090
1241.00,0.0089
1240.00,0.0088
1239.00,0.0088
1238.00,0.0089
1237.00,0.0089
1236.00,0.0089
1235.00,0.0090
1234.00,0.0090
1233.00,0.0090
1232.00,0.0091
1231.00,0.0092
1230.00,0.0093
1229.00,0.0094
1228.00,0.0096
1227.00,0.0098
1226.00,0.0100
1225.00,0.0103
1224.00,0.0106
1223.00,0.0109
1222.00,0.0113
1221.00,0.0116
1220.00,0.0118
1219.00,0.0119
1218.00,0.0119
1217.00,0.0118
1216.00,0.0115
1215.00,0.0113
1214.00,0.0110
1213.00,0.0107
1212.00,0.0105
1211.00,0.0103
1210.00,0.0102
1209.00,0.0102
1208.00,0.0101
1207.00,0.0101
1206.00,0.0100
1205.00,0.0099
1204.00,0.0099
1203.00,0.0099
1202.00,0.0098
1201.00,0.0098
1200.00,0.0098
1199.00,0.0099
1198.00,0.0099
1197.00,0.0100
1196.00,0.0100
1195.00,0.0100
1194.00,0.0100
1193.00,0.0100
1192.00,0.0100
1191.00,0.0100
1190.00,0.0101
1189.00,0.0101
1188.00,0.0101
1187.00,0.0101
1186.00,0.0102
1185.00,0.0103
1184.00,0.0103
1183.00,0.0105
1182.00,0.0106
1181.00,0.0109
1180.00,0.0113
1179.00,0.0118
1178.00,0.0125
1177.00,0.0134
1176.00,0.0147
1175.00,0.0163
1174.00,0.0185
1173.00,0.0213
1172.00,0.0247
1171.00,0.0286
1170.00,0.0324
1169.00,0.0355
1168.00,0.0373
1167.00,0.0376
1166.00,0.0365
1165.00,0.0344
1164.00,0.0321
1163.00,0.0298
1162.00,0.0278
1161.00,0.0261
1160.00,0.0248
1159.00,0.0238
1158.00,0.0230
1157.00,0.0225
1156.00,0.0221
1155.00,0.0219
1154.00,0.0216
1153.00,0.0213
1152.00,0.0209
1151.00,0.0202
1150.00,0.0193
1149.00,0.0183
1148.00,0.0173
1147.00,0.0165
1146.00,0.0157
1145.00,0.0150
1144.00,0.0143
1143.00,0.0137
1142.00,0.0132
1141.00,0.0126
1140.00,0.0121
1139.00,0.0116
1138.00,0.0112
1137.00,0.0109
1136.00,0.0107
1135.00,0.0106
1134.00,0.0105
1133.00,0.0105
1132.00,0.0105
1131.00,0.0106
1130.00,0.0106
1129.00,0.0107
1128.00,0.0108
1127.00,0.0109
1126.00,0.0110
1125.00,0.0111
1124.00,0.0112
1123.00,0.0113
1122.00,0.0114
1121.00,0.0115
1120.00,0.0117
1119.00,0.0119
1118.00,0.0121
1117.00,0.0122
1116.00,0.0123
1115.00,0.0125
1114.00,0.0126
1113.00,0.0128
1112.00,0.0130
1111.00,0.0133
1110.00,0.0136
1109.00,0.0140
1108.00,0.0144
1107.00,0.0149
1106.00,0.0154
1105.00,0.0158
1104.00,0.0162
1103.00,0.0164
1102.00,0.0164
1101.00,0.0160
1100.00,0.0155
1099.00,0.0150
1098.00,0.0145
1097.00,0.0140
1096.00,0.0136
1095.00,0.0133
1094.00,0.0129
1093.00,0.0126
1092.00,0.0123
1091.00,0.0120
1090.00,0.0117
1089.00,0.0115
1088.00,0.0113
1087.00,0.0113
1086.00,0.0113
1085.00,0.0113
1084.00,0.0113
1083.00,0.0112
1082.00,0.0111
1081.00,0.0110
1080.00,0.0109
1079.00,0.0108
1078.00,0.0108
1077.00,0.0108
1076.00,0.0108
1075.00,0.0107
1074.00,0.0107
1073.00,0.0106
1072.00,0.0106
1071.00,0.0105
1070.00,0.0105
1069.00,0.0104
1068.00,0.0105
1067.00,0.0105
1066.00,0.0106
1065.00,0.0107
1064.00,0.0109
1063.00,0.0110
1062.00,0.0112
1061.00,0.0112
1060.00,0.0113
1059.00,0.0114
1058.00,0.0116
1057.00,0.0119
1056.00,0.0121
1055.00,0.0123
1054.00,0.0126
1053.00,0.0129
1052.00,0.0133
1051.00,0.0138
1050.00,0.0143
1049.00,0.0149
1048.00,0.0156
1047.00,0.0163
1046.00,0.0168
1045.00,0.0171
1044.00,0.0171
1043.00,0.0170
1042.00,0.0168
1041.00,0.0165
1040.00,0.0164
1039.00,0.0162
1038.00,0.0162
1037.00,0.0162
1036.00,0.0162
1035.00,0.0161
1034.00,0.0159
1033.00,0.0157
1032.00,0.0155
1031.00,0.0154
1030.00,0.0154
1029.00,0.0154
1028.00,0.0155
1027.00,0.0156
1026.00,0.0157
1025.00,0.0160
1024.00,0.0162
1023.00,0.0165
1022.00,0.0168
1021.00,0.0171
1020.00,0.0173
1019.00,0.0175
1018.00,0.0176
1017.00,0.0176
1016.00,0.0176
1015.00,0.0176
1014.00,0.0176
1013.00,0.0176
1012.00,0.0175
1011.00,0.0174
1010.00,0.0173
1009.00,0.0174
1008.00,0.0177
1007.00,0.0182
1006.00,0.0190
1005.00,0.0202
1004.00,0.0220
1003.00,0.0245
1002.00,0.0279
1001.00,0.0322
1000.00,0.0370
999.00,0.0411
998.00,0.0432
997.00,0.0425
996.00,0.0392
995.00,0.0345
994.00,0.0295
993.00,0.0252
992.00,0.0218
991.00,0.0194
990.00,0.0177
989.00,0.0165
988.00,0.0157
987.00,0.0152
986.00,0.0149
985.00,0.0148
984.00,0.0151
983.00,0.0158
982.00,0.0168
981.00,0.0183
980.00,0.0204
979.00,0.0233
978.00,0.0271
977.00,0.0316
976.00,0.0368
975.00,0.0418
974.00,0.0458
973.00,0.0475
972.00,0.0462
971.00,0.0419
970.00,0.0360
969.00,0.0298
968.00,0.0244
967.00,0.0203
966.00,0.0173
965.00,0.0153
964.00,0.0138
963.00,0.0128
962.00,0.0120
961.00,0.0113
960.00,0.0108
959.00,0.0103
958.00,0.0098
957.00,0.0094
956.00,0.0091
955.00,0.0089
954.00,0.0088
953.00,0.0086
952.00,0.0085
951.00,0.0084
950.00,0.0084
949.00,0.0083
948.00,0.0083
947.00,0.0082
946.00,0.0083
945.00,0.0085
944.00,0.0087
943.00,0.0091
942.00,0.0094
941.00,0.0096
940.00,0.0097
939.00,0.0095
938.00,0.0091
937.00,0.0087
936.00,0.0082
935.00,0.0079
934.00,0.0076
933.00,0.0076
932.00,0.0076
931.00,0.0076
930.00,0.0075
929.00,0.0075
928.00,0.0074
927.00,0.0074
926.00,0.0073
925.00,0.0073
924.00,0.0073
923.00,0.0074
922.00,0.0075
921.00,0.0075
920.00,0.0075
919.00,0.0075
918.00,0.0075
917.00,0.0075
916.00,0.0077
915.00,0.0078
914.00,0.0079
913.00,0.0080
912.00,0.0081
911.00,0.0082
910.00,0.0084
909.00,0.0085
908.00,0.0087
907.00,0.0090
906.00,0.0096
905.00,0.0105
904.00,0.0118
903.00,0.0134
902.00,0.0151
901.00,0.0167
900.00,0.0178
899.00,0.0181
898.00,0.0174
897.00,0.0160
896.00,0.0143
895.00,0.0127
894.00,0.0115
893.00,0.0105
892.00,0.0099
891.00,0.0094
890.00,0.0091
889.00,0.0089
888.00,0.0088
887.00,0.0088
886.00,0.0088
885.00,0.0088
884.00,0.0088
883.00,0.0087
882.00,0.0087
881.00,0.0086
880.00,0.0087
879.00,0.0088
878.00,0.0089
877.00,0.0090
876.00,0.0090
875.00,0.0090
874.00,0.0090
873.00,0.0090
872.00,0.0090
871.00,0.0090
870.00,0.0090
869.00,0.0090
868.00,0.0090
867.00,0.0091
866.00,0.0091
865.00,0.0092
864.00,0.0093
863.00,0.0094
862.00,0.0096
861.00,0.0096
860.00,0.0097
859.00,0.0098
858.00,0.0099
857.00,0.0100
856.00,0.0102
855.00,0.0105
854.00,0.0108
853.00,0.0112
852.00,0.0115
851.00,0.0119
850.00,0.0124
849.00,0.0130
848.00,0.0139
847.00,0.0154
846.00,0.0177
845.00,0.0214
844.00,0.0267
843.00,0.0332
842.00,0.0389
841.00,0.0413
840.00,0.0391
839.00,0.0334
838.00,0.0269
837.00,0.0215
836.00,0.0180
835.00,0.0159
834.00,0.0146
833.00,0.0137
832.00,0.0130
831.00,0.0125
830.00,0.0121
829.00,0.0119
828.00,0.0117
827.00,0.0115
826.00,0.0113
825.00,0.0113
824.00,0.0114
823.00,0.0116
822.00,0.0118
821.00,0.0120
820.00,0.0122
819.00,0.0125
818.00,0.0128
817.00,0.0132
816.00,0.0138
815.00,0.0147
814.00,0.0159
813.00,0.0175
812.00,0.0193
811.00,0.0211
810.00,0.0223
809.00,0.0228
808.00,0.0225
807.00,0.0215
806.00,0.0201
805.00,0.0184
804.00,0.0169
803.00,0.0156
802.00,0.0147
801.00,0.0141
800.00,0.0136
799.00,0.0131
798.00,0.0127
797.00,0.0123
796.00,0.0118
795.00,0.0114
794.00,0.0110
793.00,0.0106
792.00,0.0102
791.00,0.0099
790.00,0.0096
789.00,0.0093
788.00,0.0090
787.00,0.0086
786.00,0.0084
785.00,0.0083
784.00,0.0083
783.00,0.0083
782.00,0.0082
781.00,0.0081
780.00,0.0079
779.00,0.0078
778.00,0.0077
777.00,0.0078
776.00,0.0078
775.00,0.0079
774.00,0.0079
773.00,0.0080
772.00,0.0080
771.00,0.0080
770.00,0.0080
769.00,0.0080
768.00,0.0080
767.00,0.0081
766.00,0.0083
765.00,0.0084
764.00,0.0085
763.00,0.0085
762.00,0.0085
761.00,0.0084
760.00,0.0083
759.00,0.0082
758.00,0.0083
757.00,0.0084
756.00,0.0086
755.00,0.0087
754.00,0.0089
753.00,0.0090
752.00,0.0091
751.00,0.0091
750.00,0.0091
749.00,0.0093
748.00,0.0095
747.00,0.0098
746.00,0.0101
745.00,0.0103
744.00,0.0106
743.00,0.0108
742.00,0.0111
741.00,0.0114
740.00,0.0117
739.00,0.0121
738.00,0.0125
737.00,0.0129
736.00,0.0132
735.00,0.0136
734.00,0.0140
733.00,0.0146
732.00,0.0154
731.00,0.0161
730.00,0.0167
729.00,0.0171
728.00,0.0172
727.00,0.0173
726.00,0.0175
725.00,0.0179
724.00,0.0184
723.00,0.0190
722.00,0.0196
721.00,0.0198
720.00,0.0196
719.00,0.0189
718.00,0.0178
717.00,0.0166
716.00,0.0155
715.00,0.0146
714.00,0.0140
713.00,0.0137
712.00,0.0135
711.00,0.0134
710.00,0.0132
709.00,0.0129
708.00,0.0127
707.00,0.0124
706.00,0.0122
705.00,0.0122
704.00,0.0122
703.00,0.0123
702.00,0.0123
701.00,0.0122
700.00,0.0120
699.00,0.0117
698.00,0.0116
697.00,0.0116
696.00,0.0116
695.00,0.0116
694.00,0.0115
693.00,0.0115
692.00,0.0117
691.00,0.0118
690.00,0.0119
689.00,0.0119
688.00,0.0119
687.00,0.0119
686.00,0.0118
685.00,0.0118
684.00,0.0118
683.00,0.0119
682.00,0.0119
681.00,0.0119
680.00,0.0119
679.00,0.0118
678.00,0.0119
677.00,0.0121
676.00,0.0123
675.00,0.0125
674.00,0.0127
673.00,0.0129
672.00,0.0130
671.00,0.0131
670.00,0.0133
669.00,0.0133
668.00,0.0131
667.00,0.0126
666.00,0.0120
665.00,0.0117
664.00,0.0116
663.00,0.0117
662.00,0.0117
661.00,0.0117
660.00,0.0115
659.00,0.0112
658.00,0.0109
657.00,0.0106
656.00,0.0104
655.00,0.0103
654.00,0.0105
653.00,0.0109
652.00,0.0111
651.00,0.0111
650.00,0.0108
649.00,0.0105
648.00,0.0103
647.00,0.0103
646.00,0.0104
645.00,0.0107
644.00,0.0107
643.00,0.0107
642.00,0.0105
641.00,0.0105
640.00,0.0106
639.00,0.0107
638.00,0.0108
637.00,0.0109
636.00,0.0110
635.00,0.0111
634.00,0.0111
633.00,0.0109
632.00,0.0109
631.00,0.0109
630.00,0.0109
629.00,0.0109
628.00,0.0108
627.00,0.0110
626.00,0.0112
625.00,0.0116
624.00,0.0118
623.00,0.0118
622.00,0.0117
621.00,0.0115
620.00,0.0112
619.00,0.0111
618.00,0.0110
617.00,0.0109
616.00,0.0107
615.00,0.0106
614.00,0.0106
613.00,0.0107
612.00,0.0108
611.00,0.0110
610.00,0.0113
609.00,0.0116
608.00,0.0118
607.00,0.0119
606.00,0.0120
605.00,0.0118
604.00,0.0115
603.00,0.0111
602.00,0.0109
601.00,0.0109
600.00,0.0110
599.00,0.0111
598.00,0.0110
597.00,0.0108
596.00,0.0107
595.00,0.0107
594.00,0.0108
593.00,0.0109
592.00,0.0110
591.00,0.0110
590.00,0.0110
589.00,0.0108
588.00,0.0107
587.00,0.0107
586.00,0.0108
585.00,0.0109
584.00,0.0110
583.00,0.0112
582.00,0.0113
581.00,0.0113
580.00,0.0112
579.00,0.0111
578.00,0.0111
577.00,0.0114
576.00,0.0117
575.00,0.0119
574.00,0.0120
573.00,0.0118
572.00,0.0115
571.00,0.0112
570.00,0.0110
569.00,0.0109
568.00,0.0110
567.00,0.0111
566.00,0.0114
565.00,0.0117
564.00,0.0119
563.00,0.0120
562.00,0.0121
561.00,0.0122
560.00,0.0122
559.00,0.0120
558.00,0.0117
557.00,0.0113
556.00,0.0112
555.00,0.0114
554.00,0.0118
553.00,0.0120
552.00,0.0120
551.00,0.0118
550.00,0.0117
549.00,0.0117
548.00,0.0119
547.00,0.0121
546.00,0.0123
545.00,0.0124
544.00,0.0124
543.00,0.0124
542.00,0.0125
541.00,0.0127
540.00,0.0131
539.00,0.0137
538.00,0.0142
537.00,0.0144
536.00,0.0144
535.00,0.0143
534.00,0.0143
533.00,0.0144
532.00,0.0145
531.00,0.0145
530.00,0.0144
529.00,0.0141
528.00,0.0136
527.00,0.0131
526.00,0.0127
525.00,0.0124
524.00,0.0122
523.00,0.0122
522.00,0.0124
521.00,0.0126
520.00,0.0127
519.00,0.0126
518.00,0.0123
517.00,0.0120
516.00,0.0118
515.00,0.0117
514.00,0.0114
513.00,0.0111
512.00,0.0108
511.00,0.0107
510.00,0.0107
509.00,0.0107
508.00,0.0106
507.00,0.0104
506.00,0.0104
505.00,0.0105
504.00,0.0109
503.00,0.0114
502.00,0.0122
501.00,0.0130
500.00,0.0134
499.00,0.0131
498.00,0.0120
497.00,0.0109
496.00,0.0105
495.00,0.0107
494.00,0.0112
493.00,0.0114
492.00,0.0112
491.00,0.0108
490.00,0.0102
489.00,0.0097
488.00,0.0095
487.00,0.0096
486.00,0.0100
485.00,0.0104
484.00,0.0111
483.00,0.0120
482.00,0.0129
481.00,0.0133
480.00,0.0132
479.00,0.0131
478.00,0.0132
477.00,0.0133
476.00,0.0132
475.00,0.0132
474.00,0.0135
473.00,0.0141
472.00,0.0147
471.00,0.0150
470.00,0.0151
469.00,0.0157
468.00,0.0171
467.00,0.0189
466.00,0.0205
465.00,0.0213
464.00,0.0219
463.00,0.0224
462.00,0.0229
461.00,0.0231
460.00,0.0230
459.00,0.0228
458.00,0.0230
457.00,0.0236
456.00,0.0244
455.00,0.0246
454.00,0.0235
453.00,0.0212
452.00,0.0187
451.00,0.0174
450.00,0.0173
