Created as New Dataset,Sample 024 By Administrator Date Thursday, September 04 2025
cm-1,A
4000.00,0.0010
3999.00,0.0010
3998.00,0.0009
3997.00,0.0009
3996.00,0.0009
3995.00,0.0009
3994.00,0.0010
3993.00,0.0010
3992.00,0.0010
3991.00,0.0010
3990.00,0.0010
3989.00,0.0010
3988.00,0.0010
3987.00,0.0010
3986.00,0.0009
3985.00,0.0009
3984.00,0.0009
3983.00,0.0009
3982.00,0.0008
3981.00,0.0008
3980.00,0.0008
3979.00,0.0008
3978.00,0.0008
3977.00,0.0007
3976.00,0.0007
3975.00,0.0007
3974.00,0.0007
3973.00,0.0007
3972.00,0.0007
3971.00,0.0008
3970.00,0.0008
3969.00,0.0008
3968.00,0.0008
3967.00,0.0008
3966.00,0.0008
3965.00,0.0007
3964.00,0.0007
3963.00,0.0007
3962.00,0.0007
3961.00,0.0007
3960.00,0.0007
3959.00,0.0007
3958.00,0.0007
3957.00,0.0007
3956.00,0.0008
3955.00,0.0008
3954.00,0.0008
3953.00,0.0008
3952.00,0.0008
3951.00,0.0008
3950.00,0.0008
3949.00,0.0008
3948.00,0.0008
3947.00,0.0007
3946.00,0.0007
3945.00,0.0007
3944.00,0.0007
3943.00,0.0008
3942.00,0.0008
3941.00,0.0008
3940.00,0.0008
3939.00,0.0008
3938.00,0.0008
3937.00,0.0008
3936.00,0.0009
3935.00,0.0009
3934.00,0.0009
3933.00,0.0008
3932.00,0.0008
3931.00,0.0008
3930.00,0.0008
3929.00,0.0007
3928.00,0.0007
3927.00,0.0007
3926.00,0.0007
3925.00,0.0008
3924.00,0.0008
3923.00,0.0008
3922.00,0.0008
3921.00,0.0008
3920.00,0.0008
3919.00,0.0008
3918.00,0.0008
3917.00,0.0008
3916.00,0.0008
3915.00,0.0008
3914.00,0.0007
3913.00,0.0007
3912.00,0.0007
3911.00,0.0008
3910.00,0.0008
3909.00,0.0008
3908.00,0.0008
3907.00,0.0008
3906.00,0.0008
3905.00,0.0007
3904.00,0.0007
3903.00,0.0007
3902.00,0.0007
3901.00,0.0007
3900.00,0.0007
3899.00,0.0007
3898.00,0.0007
3897.00,0.0007
3896.00,0.0007
3895.00,0.0007
3894.00,0.0007
3893.00,0.0006
3892.00,0.0006
3891.00,0.0007
3890.00,0.0007
3889.00,0.0007
3888.00,0.0007
3887.00,0.0007
3886.00,0.0007
3885.00,0.0007
3884.00,0.0007
3883.00,0.0007
3882.00,0.0006
3881.00,0.0006
3880.00,0.0007
3879.00,0.0007
3878.00,0.0007
3877.00,0.0007
3876.00,0.0007
3875.00,0.0007
3874.00,0.0007
3873.00,0.0007
3872.00,0.0006
3871.00,0.0007
3870.00,0.0007
3869.00,0.0007
3868.00,0.0007
3867.00,0.0007
3866.00,0.0006
3865.00,0.0007
3864.00,0.0007
3863.00,0.0007
3862.00,0.0007
3861.00,0.0007
3860.00,0.0007
3859.00,0.0008
3858.00,0.0008
3857.00,0.0008
3856.00,0.0007
3855.00,0.0007
3854.00,0.0007
3853.00,0.0006
3852.00,0.0006
3851.00,0.0005
3850.00,0.0005
3849.00,0.0006
3848.00,0.0006
3847.00,0.0006
3846.00,0.0007
3845.00,0.0007
3844.00,0.0008
3843.00,0.0008
3842.00,0.0008
3841.00,0.0008
3840.00,0.0007
3839.00,0.0007
3838.00,0.0006
3837.00,0.0006
3836.00,0.0005
3835.00,0.0005
3834.00,0.0006
3833.00,0.0006
3832.00,0.0007
3831.00,0.0007
3830.00,0.0008
3829.00,0.0008
3828.00,0.0008
3827.00,0.0008
3826.00,0.0008
3825.00,0.0008
3824.00,0.0008
3823.00,0.0008
3822.00,0.0008
3821.00,0.0007
3820.00,0.0007
3819.00,0.0007
3818.00,0.0007
3817.00,0.0007
3816.00,0.0007
3815.00,0.0007
3814.00,0.0007
3813.00,0.0007
3812.00,0.0007
3811.00,0.0007
3810.00,0.0007
3809.00,0.0007
3808.00,0.0007
3807.00,0.0007
3806.00,0.0008
3805.00,0.0008
3804.00,0.0008
3803.00,0.0008
3802.00,0.0007
3801.00,0.0007
3800.00,0.0006
3799.00,0.0006
3798.00,0.0005
3797.00,0.0006
3796.00,0.0006
3795.00,0.0006
3794.00,0.0006
3793.00,0.0006
3792.00,0.0006
3791.00,0.0006
3790.00,0.0006
3789.00,0.0007
3788.00,0.0007
3787.00,0.0007
3786.00,0.0007
3785.00,0.0007
3784.00,0.0007
3783.00,0.0007
3782.00,0.0006
3781.00,0.0006
3780.00,0.0007
3779.00,0.0007
3778.00,0.0008
3777.00,0.0008
3776.00,0.0008
3775.00,0.0009
3774.00,0.0009
3773.00,0.0008
3772.00,0.0008
3771.00,0.0007
3770.00,0.0008
3769.00,0.0008
3768.00,0.0008
3767.00,0.0007
3766.00,0.0007
3765.00,0.0007
3764.00,0.0008
3763.00,0.0008
3762.00,0.0009
3761.00,0.0009
3760.00,0.0008
3759.00,0.0008
3758.00,0.0008
3757.00,0.0009
3756.00,0.0009
3755.00,0.0009
3754.00,0.0009
3753.00,0.0009
3752.00,0.0009
3751.00,0.0009
3750.00,0.0009
3749.00,0.0008
3748.00,0.0008
3747.00,0.0007
3746.00,0.0006
3745.00,0.0007
3744.00,0.0007
3743.00,0.0007
3742.00,0.0007
3741.00,0.0007
3740.00,0.0007
3739.00,0.0008
3738.00,0.0008
3737.00,0.0008
3736.00,0.0007
3735.00,0.0007
3734.00,0.0006
3733.00,0.0006
3732.00,0.0006
3731.00,0.0006
3730.00,0.0006
3729.00,0.0006
3728.00,0.0006
3727.00,0.0006
3726.00,0.0006
3725.00,0.0006
3724.00,0.0006
3723.00,0.0006
3722.00,0.0006
3721.00,0.0006
3720.00,0.0006
3719.00,0.0006
3718.00,0.0006
3717.00,0.0006
3716.00,0.0006
3715.00,0.0006
3714.00,0.0006
3713.00,0.0006
3712.00,0.0006
3711.00,0.0006
3710.00,0.0006
3709.00,0.0005
3708.00,0.0005
3707.00,0.0005
3706.00,0.0005
3705.00,0.0005
3704.00,0.0005
3703.00,0.0005
3702.00,0.0005
3701.00,0.0005
3700.00,0.0005
3699.00,0.0005
3698.00,0.0006
3697.00,0.0006
3696.00,0.0006
3695.00,0.0006
3694.00,0.0006
3693.00,0.0005
3692.00,0.0005
3691.00,0.0005
3690.00,0.0005
3689.00,0.0005
3688.00,0.0005
3687.00,0.0005
3686.00,0.0005
3685.00,0.0005
3684.00,0.0005
3683.00,0.0006
3682.00,0.0006
3681.00,0.0007
3680.00,0.0008
3679.00,0.0008
3678.00,0.0008
3677.00,0.0008
3676.00,0.0007
3675.00,0.0007
3674.00,0.0006
3673.00,0.0005
3672.00,0.0005
3671.00,0.0005
3670.00,0.0005
3669.00,0.0005
3668.00,0.0006
3667.00,0.0005
3666.00,0.0005
3665.00,0.0005
3664.00,0.0005
3663.00,0.0005
3662.00,0.0004
3661.00,0.0004
3660.00,0.0004
3659.00,0.0004
3658.00,0.0005
3657.00,0.0005
3656.00,0.0005
3655.00,0.0006
3654.00,0.0006
3653.00,0.0006
3652.00,0.0006
3651.00,0.0006
3650.00,0.0006
3649.00,0.0005
3648.00,0.0005
3647.00,0.0005
3646.00,0.0005
3645.00,0.0006
3644.00,0.0007
3643.00,0.0007
3642.00,0.0007
3641.00,0.0006
3640.00,0.0006
3639.00,0.0006
3638.00,0.0006
3637.00,0.0007
3636.00,0.0007
3635.00,0.0007
3634.00,0.0007
3633.00,0.0007
3632.00,0.0007
3631.00,0.0006
3630.00,0.0006
3629.00,0.0006
3628.00,0.0006
3627.00,0.0007
3626.00,0.0007
3625.00,0.0007
3624.00,0.0007
3623.00,0.0006
3622.00,0.0006
3621.00,0.0006
3620.00,0.0007
3619.00,0.0007
3618.00,0.0008
3617.00,0.0008
3616.00,0.0008
3615.00,0.0008
3614.00,0.0008
3613.00,0.0008
3612.00,0.0008
3611.00,0.0008
3610.00,0.0008
3609.00,0.0008
3608.00,0.0008
3607.00,0.0009
3606.00,0.0009
3605.00,0.0009
3604.00,0.0009
3603.00,0.0009
3602.00,0.0009
3601.00,0.0009
3600.00,0.0009
3599.00,0.0009
3598.00,0.0010
3597.00,0.0010
3596.00,0.0011
3595.00,0.0011
3594.00,0.0011
3593.00,0.0011
3592.00,0.0011
3591.00,0.0011
3590.00,0.0011
3589.00,0.0010
3588.00,0.0010
3587.00,0.0011
3586.00,0.0011
3585.00,0.0011
3584.00,0.0012
3583.00,0.0012
3582.00,0.0012
3581.00,0.0013
3580.00,0.0013
3579.00,0.0012
3578.00,0.0012
3577.00,0.0012
3576.00,0.0012
3575.00,0.0012
3574.00,0.0013
3573.00,0.0013
3572.00,0.0014
3571.00,0.0014
3570.00,0.0014
3569.00,0.0014
3568.00,0.0013
3567.00,0.0013
3566.00,0.0013
3565.00,0.0013
3564.00,0.0014
3563.00,0.0014
3562.00,0.0015
3561.00,0.0015
3560.00,0.0015
3559.00,0.0016
3558.00,0.0016
3557.00,0.0016
3556.00,0.0016
3555.00,0.0016
3554.00,0.0016
3553.00,0.0016
3552.00,0.0016
3551.00,0.0017
3550.00,0.0017
3549.00,0.0017
3548.00,0.0018
3547.00,0.0018
3546.00,0.0019
3545.00,0.0019
3544.00,0.0019
3543.00,0.0019
3542.00,0.0019
3541.00,0.0019
3540.00,0.0019
3539.00,0.0019
3538.00,0.0019
3537.00,0.0019
3536.00,0.0020
3535.00,0.0020
3534.00,0.0021
3533.00,0.0021
3532.00,0.0021
3531.00,0.0021
3530.00,0.0021
3529.00,0.0021
3528.00,0.0021
3527.00,0.0022
3526.00,0.0022
3525.00,0.0022
3524.00,0.0022
3523.00,0.0022
3522.00,0.0022
3521.00,0.0023
3520.00,0.0023
3519.00,0.0023
3518.00,0.0023
3517.00,0.0023
3516.00,0.0023
3515.00,0.0023
3514.00,0.0024
3513.00,0.0024
3512.00,0.0025
3511.00,0.0025
3510.00,0.0026
3509.00,0.0026
3508.00,0.0026
3507.00,0.0026
3506.00,0.0026
3505.00,0.0026
3504.00,0.0027
3503.00,0.0027
3502.00,0.0027
3501.00,0.0027
3500.00,0.0027
3499.00,0.0027
3498.00,0.0027
3497.00,0.0027
3496.00,0.0027
3495.00,0.0027
3494.00,0.0028
3493.00,0.0028
3492.00,0.0028
3491.00,0.0028
3490.00,0.0028
3489.00,0.0028
3488.00,0.0029
3487.00,0.0029
3486.00,0.0030
3485.00,0.0030
3484.00,0.0030
3483.00,0.0030
3482.00,0.0030
3481.00,0.0031
3480.00,0.0031
3479.00,0.0031
3478.00,0.0031
3477.00,0.0031
3476.00,0.0032
3475.00,0.0032
3474.00,0.0032
3473.00,0.0033
3472.00,0.0033
3471.00,0.0033
3470.00,0.0033
3469.00,0.0033
3468.00,0.0033
3467.00,0.0033
3466.00,0.0033
3465.00,0.0033
3464.00,0.0034
3463.00,0.0034
3462.00,0.0034
3461.00,0.0034
3460.00,0.0034
3459.00,0.0034
3458.00,0.0034
3457.00,0.0035
3456.00,0.0035
3455.00,0.0035
3454.00,0.0036
3453.00,0.0036
3452.00,0.0036
3451.00,0.0037
3450.00,0.0037
3449.00,0.0037
3448.00,0.0037
3447.00,0.0037
3446.00,0.0037
3445.00,0.0037
3444.00,0.0038
3443.00,0.0038
3442.00,0.0038
3441.00,0.0039
3440.00,0.0039
3439.00,0.0039
3438.00,0.0040
3437.00,0.0040
3436.00,0.0040
3435.00,0.0040
3434.00,0.0040
3433.00,0.0040
3432.00,0.0040
3431.00,0.0041
3430.00,0.0041
3429.00,0.0042
3428.00,0.0042
3427.00,0.0042
3426.00,0.0042
3425.00,0.0042
3424.00,0.0042
3423.00,0.0042
3422.00,0.0043
3421.00,0.0043
3420.00,0.0043
3419.00,0.0044
3418.00,0.0044
3417.00,0.0044
3416.00,0.0044
3415.00,0.0044
3414.00,0.0045
3413.00,0.0045
3412.00,0.0045
3411.00,0.0045
3410.00,0.0045
3409.00,0.0045
3408.00,0.0045
3407.00,0.0045
3406.00,0.0046
3405.00,0.0046
3404.00,0.0047
3403.00,0.0047
3402.00,0.0048
3401.00,0.0048
3400.00,0.0048
3399.00,0.0048
3398.00,0.0048
3397.00,0.0048
3396.00,0.0048
3395.00,0.0048
3394.00,0.0047
3393.00,0.0048
3392.00,0.0048
3391.00,0.0048
3390.00,0.0048
3389.00,0.0048
3388.00,0.0048
3387.00,0.0048
3386.00,0.0047
3385.00,0.0047
3384.00,0.0047
3383.00,0.0048
3382.00,0.0048
3381.00,0.0048
3380.00,0.0048
3379.00,0.0048
3378.00,0.0047
3377.00,0.0047
3376.00,0.0047
3375.00,0.0048
3374.00,0.0048
3373.00,0.0048
3372.00,0.0048
3371.00,0.0048
3370.00,0.0048
3369.00,0.0048
3368.00,0.0048
3367.00,0.0048
3366.00,0.0048
3365.00,0.0049
3364.00,0.0049
3363.00,0.0049
3362.00,0.0049
3361.00,0.0049
3360.00,0.0049
3359.00,0.0049
3358.00,0.0049
3357.00,0.0049
3356.00,0.0049
3355.00,0.0049
3354.00,0.0049
3353.00,0.0049
3352.00,0.0049
3351.00,0.0049
3350.00,0.0049
3349.00,0.0050
3348.00,0.0050
3347.00,0.0050
3346.00,0.0050
3345.00,0.0050
3344.00,0.0050
3343.00,0.0050
3342.00,0.0050
3341.00,0.0049
3340.00,0.0049
3339.00,0.0049
3338.00,0.0049
3337.00,0.0049
3336.00,0.0049
3335.00,0.0049
3334.00,0.0049
3333.00,0.0049
3332.00,0.0049
3331.00,0.0049
3330.00,0.0049
3329.00,0.0049
3328.00,0.0049
3327.00,0.0049
3326.00,0.0049
3325.00,0.0049
3324.00,0.0049
3323.00,0.0049
3322.00,0.0048
3321.00,0.0048
3320.00,0.0048
3319.00,0.0048
3318.00,0.0049
3317.00,0.0049
3316.00,0.0049
3315.00,0.0050
3314.00,0.0050
3313.00,0.0050
3312.00,0.0050
3311.00,0.0051
3310.00,0.0051
3309.00,0.0051
3308.00,0.0052
3307.00,0.0052
3306.00,0.0052
3305.00,0.0053
3304.00,0.0053
3303.00,0.0053
3302.00,0.0054
3301.00,0.0054
3300.00,0.0054
3299.00,0.0053
3298.00,0.0053
3297.00,0.0052
3296.00,0.0051
3295.00,0.0051
3294.00,0.0050
3293.00,0.0049
3292.00,0.0049
3291.00,0.0048
3290.00,0.0048
3289.00,0.0047
3288.00,0.0047
3287.00,0.0047
3286.00,0.0047
3285.00,0.0047
3284.00,0.0046
3283.00,0.0046
3282.00,0.0046
3281.00,0.0045
3280.00,0.0046
3279.00,0.0046
3278.00,0.0046
3277.00,0.0046
3276.00,0.0045
3275.00,0.0045
3274.00,0.0044
3273.00,0.0044
3272.00,0.0044
3271.00,0.0044
3270.00,0.0044
3269.00,0.0043
3268.00,0.0043
3267.00,0.0043
3266.00,0.0043
3265.00,0.0043
3264.00,0.0043
3263.00,0.0043
3262.00,0.0043
3261.00,0.0043
3260.00,0.0042
3259.00,0.0042
3258.00,0.0042
3257.00,0.0042
3256.00,0.0042
3255.00,0.0042
3254.00,0.0041
3253.00,0.0041
3252.00,0.0041
3251.00,0.0040
3250.00,0.0040
3249.00,0.0040
3248.00,0.0040
3247.00,0.0040
3246.00,0.0040
3245.00,0.0040
3244.00,0.0040
3243.00,0.0040
3242.00,0.0040
3241.00,0.0040
3240.00,0.0040
3239.00,0.0040
3238.00,0.0041
3237.00,0.0041
3236.00,0.0041
3235.00,0.0040
3234.00,0.0040
3233.00,0.0040
3232.00,0.0040
3231.00,0.0040
3230.00,0.0040
3229.00,0.0040
3228.00,0.0040
3227.00,0.0040
3226.00,0.0040
3225.00,0.0041
3224.00,0.0041
3223.00,0.0041
3222.00,0.0041
3221.00,0.0041
3220.00,0.0041
3219.00,0.0041
3218.00,0.0041
3217.00,0.0041
3216.00,0.0041
3215.00,0.0042
3214.00,0.0042
3213.00,0.0042
3212.00,0.0041
3211.00,0.0042
3210.00,0.0042
3209.00,0.0042
3208.00,0.0043
3207.00,0.0043
3206.00,0.0044
3205.00,0.0044
3204.00,0.0044
3203.00,0.0044
3202.00,0.0044
3201.00,0.0044
3200.00,0.0044
3199.00,0.0044
3198.00,0.0044
3197.00,0.0044
3196.00,0.0044
3195.00,0.0044
3194.00,0.0044
3193.00,0.0044
3192.00,0.0044
3191.00,0.0043
3190.00,0.0042
3189.00,0.0042
3188.00,0.0042
3187.00,0.0042
3186.00,0.0042
3185.00,0.0042
3184.00,0.0042
3183.00,0.0042
3182.00,0.0041
3181.00,0.0041
3180.00,0.0041
3179.00,0.0041
3178.00,0.0041
3177.00,0.0041
3176.00,0.0041
3175.00,0.0041
3174.00,0.0041
3173.00,0.0040
3172.00,0.0040
3171.00,0.0039
3170.00,0.0039
3169.00,0.0039
3168.00,0.0040
3167.00,0.0040
3166.00,0.0039
3165.00,0.0039
3164.00,0.0039
3163.00,0.0038
3162.00,0.0038
3161.00,0.0038
3160.00,0.0038
3159.00,0.0038
3158.00,0.0038
3157.00,0.0038
3156.00,0.0038
3155.00,0.0039
3154.00,0.0039
3153.00,0.0038
3152.00,0.0038
3151.00,0.0038
3150.00,0.0037
3149.00,0.0036
3148.00,0.0036
3147.00,0.0036
3146.00,0.0037
3145.00,0.0037
3144.00,0.0037
3143.00,0.0037
3142.00,0.0036
3141.00,0.0036
3140.00,0.0036
3139.00,0.0036
3138.00,0.0036
3137.00,0.0036
3136.00,0.0035
3135.00,0.0035
3134.00,0.0035
3133.00,0.0035
3132.00,0.0034
3131.00,0.0034
3130.00,0.0034
3129.00,0.0034
3128.00,0.0034
3127.00,0.0034
3126.00,0.0034
3125.00,0.0033
3124.00,0.0033
3123.00,0.0032
3122.00,0.0032
3121.00,0.0032
3120.00,0.0031
3119.00,0.0031
3118.00,0.0031
3117.00,0.0031
3116.00,0.0031
3115.00,0.0031
3114.00,0.0031
3113.00,0.0031
3112.00,0.0031
3111.00,0.0030
3110.00,0.0030
3109.00,0.0030
3108.00,0.0030
3107.00,0.0030
3106.00,0.0030
3105.00,0.0030
3104.00,0.0029
3103.00,0.0029
3102.00,0.0030
3101.00,0.0030
3100.00,0.0029
3099.00,0.0029
3098.00,0.0029
3097.00,0.0029
3096.00,0.0029
3095.00,0.0029
3094.00,0.0029
3093.00,0.0029
3092.00,0.0029
3091.00,0.0029
3090.00,0.0029
3089.00,0.0029
3088.00,0.0029
3087.00,0.0029
3086.00,0.0029
3085.00,0.0029
3084.00,0.0029
3083.00,0.0029
3082.00,0.0029
3081.00,0.0029
3080.00,0.0030
3079.00,0.0030
3078.00,0.0030
3077.00,0.0029
3076.00,0.0029
3075.00,0.0029
3074.00,0.0029
3073.00,0.0030
3072.00,0.0030
3071.00,0.0030
3070.00,0.0030
3069.00,0.0030
3068.00,0.0030
3067.00,0.0030
3066.00,0.0031
3065.00,0.0031
3064.00,0.0032
3063.00,0.0032
3062.00,0.0032
3061.00,0.0032
3060.00,0.0031
3059.00,0.0031
3058.00,0.0031
3057.00,0.0031
3056.00,0.0031
3055.00,0.0031
3054.00,0.0032
3053.00,0.0032
3052.00,0.0032
3051.00,0.0032
3050.00,0.0032
3049.00,0.0033
3048.00,0.0033
3047.00,0.0033
3046.00,0.0033
3045.00,0.0033
3044.00,0.0033
3043.00,0.0034
3042.00,0.0034
3041.00,0.0034
3040.00,0.0034
3039.00,0.0035
3038.00,0.0035
3037.00,0.0036
3036.00,0.0036
3035.00,0.0036
3034.00,0.0036
3033.00,0.0036
3032.00,0.0037
3031.00,0.0037
3030.00,0.0038
3029.00,0.0039
3028.00,0.0039
3027.00,0.0040
3026.00,0.0040
3025.00,0.0041
3024.00,0.0042
3023.00,0.0043
3022.00,0.0043
3021.00,0.0044
3020.00,0.0044
3019.00,0.0045
3018.00,0.0046
3017.00,0.0047
3016.00,0.0048
3015.00,0.0049
3014.00,0.0050
3013.00,0.0050
3012.00,0.0051
3011.00,0.0053
3010.00,0.0054
3009.00,0.0056
3008.00,0.0057
3007.00,0.0059
3006.00,0.0060
3005.00,0.0062
3004.00,0.0063
3003.00,0.0065
3002.00,0.0067
3001.00,0.0069
3000.00,0.0072
2999.00,0.0075
2998.00,0.0078
2997.00,0.0081
2996.00,0.0084
2995.00,0.0088
2994.00,0.0092
2993.00,0.0096
2992.00,0.0101
2991.00,0.0106
2990.00,0.0112
2989.00,0.0119
2988.00,0.0126
2987.00,0.0134
2986.00,0.0143
2985.00,0.0152
2984.00,0.0163
2983.00,0.0175
2982.00,0.0189
2981.00,0.0205
2980.00,0.0223
2979.00,0.0243
2978.00,0.0267
2977.00,0.0293
2976.00,0.0323
2975.00,0.0358
2974.00,0.0397
2973.00,0.0441
2972.00,0.0491
2971.00,0.0547
2970.00,0.0609
2969.00,0.0675
2968.00,0.0747
2967.00,0.0821
2966.00,0.0898
2965.00,0.0973
2964.00,0.1044
2963.00,0.1108
2962.00,0.1161
2961.00,0.1205
2960.00,0.1241
2959.00,0.1277
2958.00,0.1318
2957.00,0.1371
2956.00,0.1440
2955.00,0.1526
2954.00,0.1626
2953.00,0.1732
2952.00,0.1830
2951.00,0.1904
2950.00,0.1939
2949.00,0.1926
2948.00,0.1864
2947.00,0.1761
2946.00,0.1632
2945.00,0.1496
2944.00,0.1367
2943.00,0.1257
2942.00,0.1171
2941.00,0.1112
2940.00,0.1078
2939.00,0.1068
2938.00,0.1078
2937.00,0.1107
2936.00,0.1152
2935.00,0.1213
2934.00,0.1289
2933.00,0.1379
2932.00,0.1481
2931.00,0.1595
2930.00,0.1717
2929.00,0.1845
2928.00,0.1976
2927.00,0.2107
2926.00,0.2237
2925.00,0.2365
2924.00,0.2493
2923.00,0.2623
2922.00,0.2755
2921.00,0.2885
2920.00,0.3003
2919.00,0.3096
2918.00,0.3147
2917.00,0.3144
2916.00,0.3084
2915.00,0.2976
2914.00,0.2838
2913.00,0.2688
2912.00,0.2542
2911.00,0.2409
2910.00,0.2291
2909.00,0.2188
2908.00,0.2095
2907.00,0.2008
2906.00,0.1925
2905.00,0.1844
2904.00,0.1765
2903.00,0.1689
2902.00,0.1616
2901.00,0.1546
2900.00,0.1480
2899.00,0.1417
2898.00,0.1359
2897.00,0.1306
2896.00,0.1258
2895.00,0.1216
2894.00,0.1181
2893.00,0.1152
2892.00,0.1131
2891.00,0.1115
2890.00,0.1105
2889.00,0.1099
2888.00,0.1097
2887.00,0.1098
2886.00,0.1103
2885.00,0.1110
2884.00,0.1123
2883.00,0.1140
2882.00,0.1161
2881.00,0.1185
2880.00,0.1209
2879.00,0.1229
2878.00,0.1241
2877.00,0.1244
2876.00,0.1240
2875.00,0.1233
2874.00,0.1228
2873.00,0.1230
2872.00,0.1240
2871.00,0.1258
2870.00,0.1282
2869.00,0.1306
2868.00,0.1323
2867.00,0.1324
2866.00,0.1303
2865.00,0.1256
2864.00,0.1188
2863.00,0.1107
2862.00,0.1025
2861.00,0.0952
2860.00,0.0895
2859.00,0.0854
2858.00,0.0830
2857.00,0.0820
2856.00,0.0821
2855.00,0.0831
2854.00,0.0848
2853.00,0.0869
2852.00,0.0891
2851.00,0.0911
2850.00,0.0926
2849.00,0.0935
2848.00,0.0942
2847.00,0.0951
2846.00,0.0968
2845.00,0.0996
2844.00,0.1034
2843.00,0.1080
2842.00,0.1129
2841.00,0.1174
2840.00,0.1206
2839.00,0.1219
2838.00,0.1205
2837.00,0.1163
2836.00,0.1094
2835.00,0.1003
2834.00,0.0901
2833.00,0.0797
2832.00,0.0698
2831.00,0.0612
2830.00,0.0538
2829.00,0.0479
2828.00,0.0430
2827.00,0.0390
2826.00,0.0358
2825.00,0.0332
2824.00,0.0309
2823.00,0.0290
2822.00,0.0274
2821.00,0.0260
2820.00,0.0247
2819.00,0.0237
2818.00,0.0227
2817.00,0.0219
2816.00,0.0211
2815.00,0.0204
2814.00,0.0198
2813.00,0.0192
2812.00,0.0187
2811.00,0.0181
2810.00,0.0175
2809.00,0.0168
2808.00,0.0162
2807.00,0.0155
2806.00,0.0149
2805.00,0.0142
2804.00,0.0136
2803.00,0.0130
2802.00,0.0125
2801.00,0.0121
2800.00,0.0117
2799.00,0.0114
2798.00,0.0111
2797.00,0.0109
2796.00,0.0107
2795.00,0.0104
2794.00,0.0101
2793.00,0.0098
2792.00,0.0095
2791.00,0.0092
2790.00,0.0089
2789.00,0.0086
2788.00,0.0083
2787.00,0.0081
2786.00,0.0078
2785.00,0.0076
2784.00,0.0074
2783.00,0.0072
2782.00,0.0070
2781.00,0.0068
2780.00,0.0066
2779.00,0.0065
2778.00,0.0064
2777.00,0.0062
2776.00,0.0061
2775.00,0.0060
2774.00,0.0059
2773.00,0.0058
2772.00,0.0058
2771.00,0.0057
2770.00,0.0057
2769.00,0.0056
2768.00,0.0056
2767.00,0.0056
2766.00,0.0056
2765.00,0.0055
2764.00,0.0055
2763.00,0.0054
2762.00,0.0054
2761.00,0.0053
2760.00,0.0053
2759.00,0.0053
2758.00,0.0052
2757.00,0.0052
2756.00,0.0052
2755.00,0.0052
2754.00,0.0052
2753.00,0.0052
2752.00,0.0052
2751.00,0.0051
2750.00,0.0051
2749.00,0.0051
2748.00,0.0051
2747.00,0.0052
2746.00,0.0052
2745.00,0.0053
2744.00,0.0053
2743.00,0.0054
2742.00,0.0055
2741.00,0.0056
2740.00,0.0057
2739.00,0.0059
2738.00,0.0060
2737.00,0.0061
2736.00,0.0062
2735.00,0.0064
2734.00,0.0065
2733.00,0.0067
2732.00,0.0068
2731.00,0.0070
2730.00,0.0072
2729.00,0.0075
2728.00,0.0078
2727.00,0.0081
2726.00,0.0083
2725.00,0.0085
2724.00,0.0087
2723.00,0.0088
2722.00,0.0087
2721.00,0.0086
2720.00,0.0083
2719.00,0.0080
2718.00,0.0077
2717.00,0.0074
2716.00,0.0071
2715.00,0.0068
2714.00,0.0066
2713.00,0.0063
2712.00,0.0061
2711.00,0.0059
2710.00,0.0057
2709.00,0.0055
2708.00,0.0053
2707.00,0.0052
2706.00,0.0051
2705.00,0.0050
2704.00,0.0049
2703.00,0.0048
2702.00,0.0047
2701.00,0.0047
2700.00,0.0046
2699.00,0.0046
2698.00,0.0045
2697.00,0.0045
2696.00,0.0045
2695.00,0.0045
2694.00,0.0045
2693.00,0.0044
2692.00,0.0044
2691.00,0.0044
2690.00,0.0044
2689.00,0.0044
2688.00,0.0045
2687.00,0.0045
2686.00,0.0044
2685.00,0.0044
2684.00,0.0044
2683.00,0.0044
2682.00,0.0044
2681.00,0.0045
2680.00,0.0045
2679.00,0.0046
2678.00,0.0046
2677.00,0.0046
2676.00,0.0046
2675.00,0.0046
2674.00,0.0045
2673.00,0.0045
2672.00,0.0045
2671.00,0.0044
2670.00,0.0044
2669.00,0.0044
2668.00,0.0045
2667.00,0.0045
2666.00,0.0046
2665.00,0.0046
2664.00,0.0047
2663.00,0.0047
2662.00,0.0048
2661.00,0.0048
2660.00,0.0048
2659.00,0.0048
2658.00,0.0048
2657.00,0.0048
2656.00,0.0048
2655.00,0.0047
2654.00,0.0047
2653.00,0.0046
2652.00,0.0046
2651.00,0.0045
2650.00,0.0045
2649.00,0.0044
2648.00,0.0044
2647.00,0.0043
2646.00,0.0043
2645.00,0.0042
2644.00,0.0042
2643.00,0.0042
2642.00,0.0042
2641.00,0.0041
2640.00,0.0040
2639.00,0.0039
2638.00,0.0039
2637.00,0.0038
2636.00,0.0038
2635.00,0.0038
2634.00,0.0039
2633.00,0.0039
2632.00,0.0039
2631.00,0.0040
2630.00,0.0040
2629.00,0.0040
2628.00,0.0040
2627.00,0.0040
2626.00,0.0040
2625.00,0.0039
2624.00,0.0039
2623.00,0.0039
2622.00,0.0040
2621.00,0.0040
2620.00,0.0040
2619.00,0.0041
2618.00,0.0041
2617.00,0.0041
2616.00,0.0041
2615.00,0.0041
2614.00,0.0040
2613.00,0.0040
2612.00,0.0039
2611.00,0.0039
2610.00,0.0038
2609.00,0.0037
2608.00,0.0036
2607.00,0.0035
2606.00,0.0035
2605.00,0.0034
2604.00,0.0033
2603.00,0.0033
2602.00,0.0032
2601.00,0.0032
2600.00,0.0032
2599.00,0.0032
2598.00,0.0033
2597.00,0.0033
2596.00,0.0033
2595.00,0.0033
2594.00,0.0034
2593.00,0.0034
2592.00,0.0034
2591.00,0.0035
2590.00,0.0035
2589.00,0.0035
2588.00,0.0036
2587.00,0.0037
2586.00,0.0039
2585.00,0.0040
2584.00,0.0041
2583.00,0.0041
2582.00,0.0041
2581.00,0.0040
2580.00,0.0040
2579.00,0.0039
2578.00,0.0038
2577.00,0.0036
2576.00,0.0035
2575.00,0.0034
2574.00,0.0033
2573.00,0.0032
2572.00,0.0032
2571.00,0.0031
2570.00,0.0030
2569.00,0.0028
2568.00,0.0027
2567.00,0.0026
2566.00,0.0025
2565.00,0.0025
2564.00,0.0024
2563.00,0.0024
2562.00,0.0024
2561.00,0.0024
2560.00,0.0024
2559.00,0.0024
2558.00,0.0024
2557.00,0.0024
2556.00,0.0024
2555.00,0.0023
2554.00,0.0023
2553.00,0.0022
2552.00,0.0022
2551.00,0.0021
2550.00,0.0021
2549.00,0.0020
2548.00,0.0020
2547.00,0.0019
2546.00,0.0019
2545.00,0.0018
2544.00,0.0018
2543.00,0.0018
2542.00,0.0018
2541.00,0.0018
2540.00,0.0018
2539.00,0.0017
2538.00,0.0016
2537.00,0.0016
2536.00,0.0017
2535.00,0.0017
2534.00,0.0018
2533.00,0.0017
2532.00,0.0017
2531.00,0.0016
2530.00,0.0016
2529.00,0.0016
2528.00,0.0015
2527.00,0.0015
2526.00,0.0015
2525.00,0.0015
2524.00,0.0015
2523.00,0.0015
2522.00,0.0015
2521.00,0.0015
2520.00,0.0014
2519.00,0.0014
2518.00,0.0013
2517.00,0.0012
2516.00,0.0011
2515.00,0.0011
2514.00,0.0011
2513.00,0.0011
2512.00,0.0011
2511.00,0.0010
2510.00,0.0009
2509.00,0.0009
2508.00,0.0008
2507.00,0.0008
2506.00,0.0008
2505.00,0.0009
2504.00,0.0009
2503.00,0.0010
2502.00,0.0011
2501.00,0.0011
2500.00,0.0011
2499.00,0.0011
2498.00,0.0011
2497.00,0.0010
2496.00,0.0010
2495.00,0.0010
2494.00,0.0010
2493.00,0.0010
2492.00,0.0010
2491.00,0.0009
2490.00,0.0009
2489.00,0.0010
2488.00,0.0010
2487.00,0.0010
2486.00,0.0010
2485.00,0.0009
2484.00,0.0009
2483.00,0.0009
2482.00,0.0009
2481.00,0.0009
2480.00,0.0009
2479.00,0.0009
2478.00,0.0009
2477.00,0.0009
2476.00,0.0010
2475.00,0.0010
2474.00,0.0010
2473.00,0.0009
2472.00,0.0008
2471.00,0.0008
2470.00,0.0008
2469.00,0.0008
2468.00,0.0009
2467.00,0.0009
2466.00,0.0008
2465.00,0.0008
2464.00,0.0008
2463.00,0.0009
2462.00,0.0010
2461.00,0.0011
2460.00,0.0011
2459.00,0.0011
2458.00,0.0011
2457.00,0.0012
2456.00,0.0012
2455.00,0.0012
2454.00,0.0011
2453.00,0.0011
2452.00,0.0011
2451.00,0.0011
2450.00,0.0012
2449.00,0.0012
2448.00,0.0012
2447.00,0.0011
2446.00,0.0011
2445.00,0.0010
2444.00,0.0010
2443.00,0.0010
2442.00,0.0010
2441.00,0.0011
2440.00,0.0011
2439.00,0.0011
2438.00,0.0011
2437.00,0.0010
2436.00,0.0009
2435.00,0.0009
2434.00,0.0009
2433.00,0.0009
2432.00,0.0010
2431.00,0.0010
2430.00,0.0011
2429.00,0.0011
2428.00,0.0011
2427.00,0.0011
2426.00,0.0011
2425.00,0.0011
2424.00,0.0011
2423.00,0.0010
2422.00,0.0010
2421.00,0.0010
2420.00,0.0010
2419.00,0.0009
2418.00,0.0009
2417.00,0.0009
2416.00,0.0009
2415.00,0.0009
2414.00,0.0009
2413.00,0.0010
2412.00,0.0010
2411.00,0.0010
2410.00,0.0010
2409.00,0.0010
2408.00,0.0009
2407.00,0.0009
2406.00,0.0009
2405.00,0.0009
2404.00,0.0008
2403.00,0.0008
2402.00,0.0008
2401.00,0.0008
2400.00,0.0008
2399.00,0.0008
2398.00,0.0008
2397.00,0.0008
2396.00,0.0007
2395.00,0.0007
2394.00,0.0007
2393.00,0.0007
2392.00,0.0007
2391.00,0.0007
2390.00,0.0006
2389.00,0.0006
2388.00,0.0005
2387.00,0.0005
2386.00,0.0005
2385.00,0.0005
2384.00,0.0005
2383.00,0.0004
2382.00,0.0004
2381.00,0.0004
2380.00,0.0004
2379.00,0.0003
2378.00,0.0003
2377.00,0.0003
2376.00,0.0003
2375.00,0.0003
2374.00,0.0003
2373.00,0.0003
2372.00,0.0004
2371.00,0.0004
2370.00,0.0003
2369.00,0.0002
2368.00,0.0001
2367.00,0.0001
2366.00,0.0001
2365.00,0.0002
2364.00,0.0003
2363.00,0.0004
2362.00,0.0004
2361.00,0.0004
2360.00,0.0003
2359.00,0.0003
2358.00,0.0003
2357.00,0.0003
2356.00,0.0004
2355.00,0.0004
2354.00,0.0004
2353.00,0.0003
2352.00,0.0003
2351.00,0.0004
2350.00,0.0004
2349.00,0.0004
2348.00,0.0005
2347.00,0.0005
2346.00,0.0005
2345.00,0.0005
2344.00,0.0005
2343.00,0.0005
2342.00,0.0005
2341.00,0.0005
2340.00,0.0006
2339.00,0.0006
2338.00,0.0007
2337.00,0.0007
2336.00,0.0007
2335.00,0.0007
2334.00,0.0006
2333.00,0.0006
2332.00,0.0005
2331.00,0.0005
2330.00,0.0005
2329.00,0.0006
2328.00,0.0007
2327.00,0.0011
2326.00,0.0015
2325.00,0.0019
2324.00,0.0021
2323.00,0.0020
2322.00,0.0018
2321.00,0.0015
2320.00,0.0013
2319.00,0.0012
2318.00,0.0011
2317.00,0.0011
2316.00,0.0010
2315.00,0.0009
2314.00,0.0009
2313.00,0.0008
2312.00,0.0008
2311.00,0.0008
2310.00,0.0008
2309.00,0.0008
2308.00,0.0008
2307.00,0.0008
2306.00,0.0008
2305.00,0.0009
2304.00,0.0009
2303.00,0.0010
2302.00,0.0009
2301.00,0.0009
2300.00,0.0009
2299.00,0.0010
2298.00,0.0010
2297.00,0.0011
2296.00,0.0012
2295.00,0.0013
2294.00,0.0014
2293.00,0.0015
2292.00,0.0015
2291.00,0.0017
2290.00,0.0018
2289.00,0.0019
2288.00,0.0020
2287.00,0.0020
2286.00,0.0019
2285.00,0.0018
2284.00,0.0017
2283.00,0.0016
2282.00,0.0015
2281.00,0.0014
2280.00,0.0014
2279.00,0.0014
2278.00,0.0014
2277.00,0.0014
2276.00,0.0015
2275.00,0.0015
2274.00,0.0016
2273.00,0.0016
2272.00,0.0016
2271.00,0.0016
2270.00,0.0015
2269.00,0.0014
2268.00,0.0014
2267.00,0.0013
2266.00,0.0012
2265.00,0.0011
2264.00,0.0010
2263.00,0.0009
2262.00,0.0009
2261.00,0.0009
2260.00,0.0010
2259.00,0.0010
2258.00,0.0010
2257.00,0.0010
2256.00,0.0009
2255.00,0.0007
2254.00,0.0006
2253.00,0.0006
2252.00,0.0006
2251.00,0.0007
2250.00,0.0008
2249.00,0.0009
2248.00,0.0010
2247.00,0.0009
2246.00,0.0009
2245.00,0.0008
2244.00,0.0008
2243.00,0.0008
2242.00,0.0008
2241.00,0.0009
2240.00,0.0009
2239.00,0.0010
2238.00,0.0011
2237.00,0.0011
2236.00,0.0011
2235.00,0.0010
2234.00,0.0009
2233.00,0.0008
2232.00,0.0007
2231.00,0.0008
2230.00,0.0008
2229.00,0.0008
2228.00,0.0008
2227.00,0.0008
2226.00,0.0007
2225.00,0.0007
2224.00,0.0007
2223.00,0.0006
2222.00,0.0005
2221.00,0.0005
2220.00,0.0005
2219.00,0.0006
2218.00,0.0008
2217.00,0.0010
2216.00,0.0009
2215.00,0.0008
2214.00,0.0006
2213.00,0.0006
2212.00,0.0007
2211.00,0.0006
2210.00,0.0005
2209.00,0.0004
2208.00,0.0002
2207.00,0.0002
2206.00,0.0001
2205.00,0.0002
2204.00,0.0003
2203.00,0.0005
2202.00,0.0007
2201.00,0.0008
2200.00,0.0009
2199.00,0.0008
2198.00,0.0006
2197.00,0.0005
2196.00,0.0005
2195.00,0.0004
2194.00,0.0004
2193.00,0.0004
2192.00,0.0004
2191.00,0.0006
2190.00,0.0007
2189.00,0.0009
2188.00,0.0011
2187.00,0.0011
2186.00,0.0012
2185.00,0.0011
2184.00,0.0010
2183.00,0.0007
2182.00,0.0005
2181.00,0.0004
2180.00,0.0005
2179.00,0.0006
2178.00,0.0006
2177.00,0.0005
2176.00,0.0005
2175.00,0.0005
2174.00,0.0007
2173.00,0.0009
2172.00,0.0011
2171.00,0.0012
2170.00,0.0014
2169.00,0.0016
2168.00,0.0017
2167.00,0.0017
2166.00,0.0017
2165.00,0.0016
2164.00,0.0016
2163.00,0.0016
2162.00,0.0015
2161.00,0.0011
2160.00,0.0002
2159.00,-0.0011
2158.00,-0.0022
2157.00,-0.0028
2156.00,-0.0028
2155.00,-0.0027
2154.00,-0.0026
2153.00,-0.0025
2152.00,-0.0025
2151.00,-0.0024
2150.00,-0.0023
2149.00,-0.0021
2148.00,-0.0018
2147.00,-0.0016
2146.00,-0.0015
2145.00,-0.0013
2144.00,-0.0012
2143.00,-0.0011
2142.00,-0.0011
2141.00,-0.0011
2140.00,-0.0011
2139.00,-0.0010
2138.00,-0.0010
2137.00,-0.0010
2136.00,-0.0011
2135.00,-0.0014
2134.00,-0.0017
2133.00,-0.0018
2132.00,-0.0017
2131.00,-0.0014
2130.00,-0.0013
2129.00,-0.0011
2128.00,-0.0010
2127.00,-0.0009
2126.00,-0.0008
2125.00,-0.0007
2124.00,-0.0007
2123.00,-0.0007
2122.00,-0.0006
2121.00,-0.0006
2120.00,-0.0005
2119.00,-0.0004
2118.00,-0.0002
2117.00,-0.0001
2116.00,0.0001
2115.00,0.0001
2114.00,0.0001
2113.00,0.0001
2112.00,0.0001
2111.00,0.0000
2110.00,0.0000
2109.00,0.0000
2108.00,0.0001
2107.00,0.0001
2106.00,0.0000
2105.00,0.0000
2104.00,0.0001
2103.00,0.0001
2102.00,0.0002
2101.00,0.0001
2100.00,0.0000
2099.00,-0.0001
2098.00,-0.0002
2097.00,-0.0003
2096.00,-0.0004
2095.00,-0.0005
2094.00,-0.0006
2093.00,-0.0005
2092.00,-0.0005
2091.00,-0.0003
2090.00,-0.0002
2089.00,-0.0002
2088.00,-0.0002
2087.00,-0.0001
2086.00,0.0001
2085.00,0.0003
2084.00,0.0004
2083.00,0.0005
2082.00,0.0004
2081.00,0.0004
2080.00,0.0003
2079.00,0.0002
2078.00,0.0002
2077.00,0.0001
2076.00,0.0001
2075.00,0.0001
2074.00,0.0002
2073.00,0.0003
2072.00,0.0004
2071.00,0.0002
2070.00,0.0001
2069.00,-0.0001
2068.00,-0.0001
2067.00,-0.0001
2066.00,-0.0001
2065.00,-0.0001
2064.00,-0.0001
2063.00,-0.0000
2062.00,0.0001
2061.00,0.0001
2060.00,0.0001
2059.00,-0.0000
2058.00,-0.0002
2057.00,-0.0002
2056.00,-0.0003
2055.00,-0.0004
2054.00,-0.0003
2053.00,0.0002
2052.00,0.0008
2051.00,0.0013
2050.00,0.0013
2049.00,0.0008
2048.00,0.0002
2047.00,-0.0002
2046.00,-0.0003
2045.00,-0.0002
2044.00,-0.0002
2043.00,-0.0003
2042.00,-0.0005
2041.00,-0.0006
2040.00,-0.0006
2039.00,-0.0005
2038.00,-0.0002
2037.00,0.0001
2036.00,0.0001
2035.00,-0.0001
2034.00,-0.0005
2033.00,-0.0008
2032.00,-0.0009
2031.00,-0.0010
2030.00,-0.0012
2029.00,-0.0014
2028.00,-0.0014
2027.00,-0.0014
2026.00,-0.0014
2025.00,-0.0013
2024.00,-0.0012
2023.00,-0.0012
2022.00,-0.0012
2021.00,-0.0012
2020.00,-0.0012
2019.00,-0.0012
2018.00,-0.0012
2017.00,-0.0010
2016.00,-0.0007
2015.00,-0.0005
2014.00,-0.0005
2013.00,-0.0005
2012.00,-0.0005
2011.00,-0.0005
2010.00,-0.0006
2009.00,-0.0008
2008.00,-0.0010
2007.00,-0.0013
2006.00,-0.0015
2005.00,-0.0015
2004.00,-0.0015
2003.00,-0.0014
2002.00,-0.0013
2001.00,-0.0011
2000.00,-0.0009
1999.00,-0.0010
1998.00,-0.0010
1997.00,-0.0010
1996.00,-0.0009
1995.00,-0.0009
1994.00,-0.0011
1993.00,-0.0014
1992.00,-0.0014
1991.00,-0.0012
1990.00,-0.0009
1989.00,-0.0005
1988.00,-0.0003
1987.00,-0.0002
1986.00,-0.0001
1985.00,-0.0000
1984.00,0.0001
1983.00,0.0004
1982.00,0.0007
1981.00,0.0010
1980.00,0.0011
1979.00,0.0008
1978.00,0.0002
1977.00,-0.0005
1976.00,-0.0010
1975.00,-0.0013
1974.00,-0.0014
1973.00,-0.0014
1972.00,-0.0014
1971.00,-0.0014
1970.00,-0.0015
1969.00,-0.0017
1968.00,-0.0020
1967.00,-0.0022
1966.00,-0.0024
1965.00,-0.0025
1964.00,-0.0025
1963.00,-0.0025
1962.00,-0.0024
1961.00,-0.0023
1960.00,-0.0023
1959.00,-0.0023
1958.00,-0.0024
1957.00,-0.0023
1956.00,-0.0022
1955.00,-0.0021
1954.00,-0.0019
1953.00,-0.0016
1952.00,-0.0014
1951.00,-0.0013
1950.00,-0.0013
1949.00,-0.0012
1948.00,-0.0011
1947.00,-0.0011
1946.00,-0.0012
1945.00,-0.0013
1944.00,-0.0015
1943.00,-0.0016
1942.00,-0.0015
1941.00,-0.0014
1940.00,-0.0012
1939.00,-0.0011
1938.00,-0.0011
1937.00,-0.0010
1936.00,-0.0010
1935.00,-0.0010
1934.00,-0.0009
1933.00,-0.0009
1932.00,-0.0009
1931.00,-0.0009
1930.00,-0.0009
1929.00,-0.0010
1928.00,-0.0010
1927.00,-0.0010
1926.00,-0.0010
1925.00,-0.0009
1924.00,-0.0007
1923.00,-0.0006
1922.00,-0.0005
1921.00,-0.0005
1920.00,-0.0005
1919.00,-0.0005
1918.00,-0.0006
1917.00,-0.0006
1916.00,-0.0006
1915.00,-0.0005
1914.00,-0.0005
1913.00,-0.0005
1912.00,-0.0005
1911.00,-0.0006
1910.00,-0.0006
1909.00,-0.0006
1908.00,-0.0006
1907.00,-0.0007
1906.00,-0.0007
1905.00,-0.0006
1904.00,-0.0005
1903.00,-0.0004
1902.00,-0.0004
1901.00,-0.0003
1900.00,-0.0003
1899.00,-0.0002
1898.00,-0.0003
1897.00,-0.0003
1896.00,-0.0003
1895.00,-0.0003
1894.00,-0.0003
1893.00,-0.0003
1892.00,-0.0002
1891.00,-0.0001
1890.00,-0.0000
1889.00,0.0000
1888.00,-0.0000
1887.00,-0.0001
1886.00,-0.0002
1885.00,-0.0003
1884.00,-0.0003
1883.00,-0.0002
1882.00,-0.0001
1881.00,-0.0001
1880.00,-0.0001
1879.00,-0.0001
1878.00,-0.0002
1877.00,-0.0003
1876.00,-0.0003
1875.00,-0.0004
1874.00,-0.0004
1873.00,-0.0003
1872.00,-0.0001
1871.00,-0.0000
1870.00,0.0000
1869.00,0.0001
1868.00,0.0000
1867.00,-0.0000
1866.00,-0.0001
1865.00,-0.0001
1864.00,-0.0002
1863.00,-0.0002
1862.00,-0.0002
1861.00,-0.0002
1860.00,-0.0001
1859.00,-0.0000
1858.00,-0.0000
1857.00,-0.0000
1856.00,-0.0001
1855.00,-0.0001
1854.00,-0.0001
1853.00,-0.0001
1852.00,-0.0001
1851.00,-0.0001
1850.00,-0.0000
1849.00,0.0000
1848.00,0.0000
1847.00,0.0000
1846.00,0.0000
1845.00,0.0000
1844.00,0.0001
1843.00,0.0001
1842.00,0.0001
1841.00,0.0002
1840.00,0.0002
1839.00,0.0002
1838.00,0.0002
1837.00,0.0002
1836.00,0.0002
1835.00,0.0002
1834.00,0.0002
1833.00,0.0003
1832.00,0.0003
1831.00,0.0003
1830.00,0.0003
1829.00,0.0003
1828.00,0.0003
1827.00,0.0003
1826.00,0.0003
1825.00,0.0003
1824.00,0.0003
1823.00,0.0003
1822.00,0.0002
1821.00,0.0002
1820.00,0.0002
1819.00,0.0002
1818.00,0.0001
1817.00,0.0000
1816.00,0.0000
1815.00,0.0001
1814.00,0.0002
1813.00,0.0003
1812.00,0.0003
1811.00,0.0003
1810.00,0.0003
1809.00,0.0003
1808.00,0.0003
1807.00,0.0003
1806.00,0.0003
1805.00,0.0003
1804.00,0.0004
1803.00,0.0005
1802.00,0.0005
1801.00,0.0005
1800.00,0.0005
1799.00,0.0005
1798.00,0.0005
1797.00,0.0005
1796.00,0.0006
1795.00,0.0006
1794.00,0.0006
1793.00,0.0007
1792.00,0.0008
1791.00,0.0008
1790.00,0.0008
1789.00,0.0009
1788.00,0.0009
1787.00,0.0009
1786.00,0.0009
1785.00,0.0009
1784.00,0.0009
1783.00,0.0008
1782.00,0.0007
1781.00,0.0007
1780.00,0.0007
1779.00,0.0007
1778.00,0.0007
1777.00,0.0008
1776.00,0.0008
1775.00,0.0008
1774.00,0.0008
1773.00,0.0009
1772.00,0.0010
1771.00,0.0010
1770.00,0.0010
1769.00,0.0010
1768.00,0.0010
1767.00,0.0010
1766.00,0.0010
1765.00,0.0011
1764.00,0.0011
1763.00,0.0012
1762.00,0.0012
1761.00,0.0013
1760.00,0.0013
1759.00,0.0013
1758.00,0.0013
1757.00,0.0013
1756.00,0.0013
1755.00,0.0013
1754.00,0.0013
1753.00,0.0014
1752.00,0.0015
1751.00,0.0017
1750.00,0.0018
1749.00,0.0018
1748.00,0.0019
1747.00,0.0020
1746.00,0.0021
1745.00,0.0022
1744.00,0.0023
1743.00,0.0024
1742.00,0.0024
1741.00,0.0025
1740.00,0.0026
1739.00,0.0026
1738.00,0.0026
1737.00,0.0026
1736.00,0.0026
1735.00,0.0027
1734.00,0.0027
1733.00,0.0027
1732.00,0.0027
1731.00,0.0027
1730.00,0.0027
1729.00,0.0027
1728.00,0.0027
1727.00,0.0027
1726.00,0.0027
1725.00,0.0027
1724.00,0.0027
1723.00,0.0027
1722.00,0.0028
1721.00,0.0028
1720.00,0.0028
1719.00,0.0028
1718.00,0.0028
1717.00,0.0027
1716.00,0.0027
1715.00,0.0027
1714.00,0.0026
1713.00,0.0025
1712.00,0.0025
1711.00,0.0024
1710.00,0.0024
1709.00,0.0025
1708.00,0.0025
1707.00,0.0025
1706.00,0.0026
1705.00,0.0026
1704.00,0.0027
1703.00,0.0027
1702.00,0.0027
1701.00,0.0027
1700.00,0.0027
1699.00,0.0027
1698.00,0.0028
1697.00,0.0028
1696.00,0.0030
1695.00,0.0030
1694.00,0.0030
1693.00,0.0030
1692.00,0.0030
1691.00,0.0030
1690.00,0.0031
1689.00,0.0031
1688.00,0.0032
1687.00,0.0032
1686.00,0.0031
1685.00,0.0032
1684.00,0.0034
1683.00,0.0036
1682.00,0.0037
1681.00,0.0037
1680.00,0.0038
1679.00,0.0038
1678.00,0.0039
1677.00,0.0040
1676.00,0.0041
1675.00,0.0041
1674.00,0.0041
1673.00,0.0042
1672.00,0.0042
1671.00,0.0042
1670.00,0.0043
1669.00,0.0044
1668.00,0.0044
1667.00,0.0045
1666.00,0.0045
1665.00,0.0046
1664.00,0.0046
1663.00,0.0047
1662.00,0.0047
1661.00,0.0048
1660.00,0.0048
1659.00,0.0048
1658.00,0.0049
1657.00,0.0050
1656.00,0.0051
1655.00,0.0052
1654.00,0.0054
1653.00,0.0056
1652.00,0.0057
1651.00,0.0058
1650.00,0.0059
1649.00,0.0061
1648.00,0.0063
1647.00,0.0065
1646.00,0.0066
1645.00,0.0066
1644.00,0.0066
1643.00,0.0067
1642.00,0.0068
1641.00,0.0069
1640.00,0.0070
1639.00,0.0071
1638.00,0.0072
1637.00,0.0072
1636.00,0.0072
1635.00,0.0070
1634.00,0.0069
1633.00,0.0068
1632.00,0.0067
1631.00,0.0066
1630.00,0.0065
1629.00,0.0065
1628.00,0.0064
1627.00,0.0064
1626.00,0.0064
1625.00,0.0063
1624.00,0.0062
1623.00,0.0061
1622.00,0.0060
1621.00,0.0060
1620.00,0.0060
1619.00,0.0059
1618.00,0.0059
1617.00,0.0059
1616.00,0.0059
1615.00,0.0059
1614.00,0.0058
1613.00,0.0058
1612.00,0.0058
1611.00,0.0058
1610.00,0.0059
1609.00,0.0059
1608.00,0.0059
1607.00,0.0058
1606.00,0.0058
1605.00,0.0057
1604.00,0.0057
1603.00,0.0058
1602.00,0.0058
1601.00,0.0058
1600.00,0.0058
1599.00,0.0058
1598.00,0.0057
1597.00,0.0057
1596.00,0.0058
1595.00,0.0058
1594.00,0.0057
1593.00,0.0057
1592.00,0.0058
1591.00,0.0058
1590.00,0.0059
1589.00,0.0059
1588.00,0.0060
1587.00,0.0061
1586.00,0.0062
1585.00,0.0064
1584.00,0.0066
1583.00,0.0067
1582.00,0.0069
1581.00,0.0070
1580.00,0.0073
1579.00,0.0074
1578.00,0.0076
1577.00,0.0077
1576.00,0.0078
1575.00,0.0077
1574.00,0.0075
1573.00,0.0074
1572.00,0.0074
1571.00,0.0074
1570.00,0.0074
1569.00,0.0074
1568.00,0.0073
1567.00,0.0072
1566.00,0.0071
1565.00,0.0071
1564.00,0.0071
1563.00,0.0071
1562.00,0.0070
1561.00,0.0070
1560.00,0.0070
1559.00,0.0071
1558.00,0.0071
1557.00,0.0071
1556.00,0.0071
1555.00,0.0071
1554.00,0.0072
1553.00,0.0073
1552.00,0.0074
1551.00,0.0075
1550.00,0.0076
1549.00,0.0078
1548.00,0.0079
1547.00,0.0081
1546.00,0.0083
1545.00,0.0086
1544.00,0.0088
1543.00,0.0091
1542.00,0.0092
1541.00,0.0091
1540.00,0.0089
1539.00,0.0085
1538.00,0.0082
1537.00,0.0080
1536.00,0.0078
1535.00,0.0076
1534.00,0.0073
1533.00,0.0070
1532.00,0.0068
1531.00,0.0066
1530.00,0.0065
1529.00,0.0065
1528.00,0.0064
1527.00,0.0064
1526.00,0.0064
1525.00,0.0063
1524.00,0.0063
1523.00,0.0063
1522.00,0.0063
1521.00,0.0064
1520.00,0.0064
1519.00,0.0064
1518.00,0.0064
1517.00,0.0065
1516.00,0.0066
1515.00,0.0066
1514.00,0.0067
1513.00,0.0068
1512.00,0.0069
1511.00,0.0069
1510.00,0.0070
1509.00,0.0071
1508.00,0.0073
1507.00,0.0073
1506.00,0.0073
1505.00,0.0074
1504.00,0.0075
1503.00,0.0077
1502.00,0.0078
1501.00,0.0081
1500.00,0.0084
1499.00,0.0086
1498.00,0.0089
1497.00,0.0092
1496.00,0.0096
1495.00,0.0099
1494.00,0.0102
1493.00,0.0105
1492.00,0.0110
1491.00,0.0114
1490.00,0.0118
1489.00,0.0124
1488.00,0.0129
1487.00,0.0133
1486.00,0.0138
1485.00,0.0144
1484.00,0.0151
1483.00,0.0159
1482.00,0.0168
1481.00,0.0180
1480.00,0.0194
1479.00,0.0208
1478.00,0.0225
1477.00,0.0247
1476.00,0.0275
1475.00,0.0306
1474.00,0.0347
1473.00,0.0406
1472.00,0.0474
1471.00,0.0540
1470.00,0.0604
1469.00,0.0672
1468.00,0.0746
1467.00,0.0828
1466.00,0.0921
1465.00,0.1019
1464.00,0.1105
1463.00,0.1163
1462.00,0.1198
1461.00,0.1220
1460.00,0.1233
1459.00,0.1239
1458.00,0.1242
1457.00,0.1239
1456.00,0.1228
1455.00,0.1212
1454.00,0.1194
1453.00,0.1172
1452.00,0.1141
1451.00,0.1101
1450.00,0.1048
1449.00,0.0976
1448.00,0.0888
1447.00,0.0794
1446.00,0.0711
1445.00,0.0640
1444.00,0.0580
1443.00,0.0531
1442.00,0.0494
1441.00,0.0470
1440.00,0.0456
1439.00,0.0452
1438.00,0.0458
1437.00,0.0464
1436.00,0.0459
1435.00,0.0436
1434.00,0.0400
1433.00,0.0356
1432.00,0.0309
1431.00,0.0267
1430.00,0.0235
1429.00,0.0211
1428.00,0.0194
1427.00,0.0184
1426.00,0.0178
1425.00,0.0171
1424.00,0.0166
1423.00,0.0162
1422.00,0.0161
1421.00,0.0159
1420.00,0.0156
1419.00,0.0153
1418.00,0.0150
1417.00,0.0146
1416.00,0.0143
1415.00,0.0141
1414.00,0.0139
1413.00,0.0138
1412.00,0.0136
1411.00,0.0134
1410.00,0.0133
1409.00,0.0132
1408.00,0.0131
1407.00,0.0131
1406.00,0.0131
1405.00,0.0131
1404.00,0.0129
1403.00,0.0129
1402.00,0.0129
1401.00,0.0130
1400.00,0.0131
1399.00,0.0132
1398.00,0.0135
1397.00,0.0136
1396.00,0.0138
1395.00,0.0141
1394.00,0.0145
1393.00,0.0149
1392.00,0.0153
1391.00,0.0160
1390.00,0.0170
1389.00,0.0183
1388.00,0.0202
1387.00,0.0232
1386.00,0.0272
1385.00,0.0326
1384.00,0.0400
1383.00,0.0506
1382.00,0.0652
1381.00,0.0844
1380.00,0.1090
1379.00,0.1382
1378.00,0.1682
1377.00,0.1922
1376.00,0.2029
1375.00,0.1957
1374.00,0.1725
1373.00,0.1428
1372.00,0.1148
1371.00,0.0913
1370.00,0.0727
1369.00,0.0587
1368.00,0.0491
1367.00,0.0432
1366.00,0.0401
1365.00,0.0389
1364.00,0.0392
1363.00,0.0408
1362.00,0.0431
1361.00,0.0457
1360.00,0.0476
1359.00,0.0482
1358.00,0.0471
1357.00,0.0443
1356.00,0.0404
1355.00,0.0359
1354.00,0.0317
1353.00,0.0280
1352.00,0.0251
1351.00,0.0228
1350.00,0.0209
1349.00,0.0193
1348.00,0.0180
1347.00,0.0169
1346.00,0.0159
1345.00,0.0151
1344.00,0.0145
1343.00,0.0140
1342.00,0.0136
1341.00,0.0132
1340.00,0.0129
1339.00,0.0127
1338.00,0.0125
1337.00,0.0125
1336.00,0.0125
1335.00,0.0127
1334.00,0.0130
1333.00,0.0134
1332.00,0.0139
1331.00,0.0142
1330.00,0.0144
1329.00,0.0143
1328.00,0.0139
1327.00,0.0134
1326.00,0.0128
1325.00,0.0122
1324.00,0.0116
1323.00,0.0111
1322.00,0.0106
1321.00,0.0103
1320.00,0.0101
1319.00,0.0099
1318.00,0.0097
1317.00,0.0095
1316.00,0.0094
1315.00,0.0093
1314.00,0.0092
1313.00,0.0093
1312.00,0.0094
1311.00,0.0095
1310.00,0.0098
1309.00,0.0102
1308.00,0.0109
1307.00,0.0117
1306.00,0.0125
1305.00,0.0130
1304.00,0.0132
1303.00,0.0131
1302.00,0.0129
1301.00,0.0127
1300.00,0.0127
1299.00,0.0128
1298.00,0.0130
1297.00,0.0131
1296.00,0.0130
1295.00,0.0129
1294.00,0.0125
1293.00,0.0121
1292.00,0.0116
1291.00,0.0111
1290.00,0.0106
1289.00,0.0102
1288.00,0.0099
1287.00,0.0097
1286.00,0.0095
1285.00,0.0093
1284.00,0.0091
1283.00,0.0089
1282.00,0.0087
1281.00,0.0085
1280.00,0.0085
1279.00,0.0085
1278.00,0.0085
1277.00,0.0085
1276.00,0.0084
1275.00,0.0084
1274.00,0.0084
1273.00,0.0084
1272.00,0.0085
1271.00,0.0087
1270.00,0.0088
1269.00,0.0090
1268.00,0.0092
1267.00,0.0095
1266.00,0.0099
1265.00,0.0101
1264.00,0.0104
1263.00,0.0106
1262.00,0.0108
1261.00,0.0110
1260.00,0.0114
1259.00,0.0118
1258.00,0.0122
1257.00,0.0125
1256.00,0.0125
1255.00,0.0123
1254.00,0.0117
1253.00,0.0111
1252.00,0.0106
1251.00,0.0101
1250.00,0.0098
1249.00,0.0095
1248.00,0.0093
1247.00,0.0091
1246.00,0.0088
1245.00,0.0087
1244.00,0.0085
1243.00,0.0084
1242.00,0.0083
1241.00,0.0082
1240.00,0.0082
1239.00,0.0081
1238.00,0.0081
1237.00,0.0081
1236.00,0.0081
1235.00,0.0081
1234.00,0.0082
1233.00,0.0082
1232.00,0.0083
1231.00,0.0083
1230.00,0.0084
1229.00,0.0085
1228.00,0.0086
1227.00,0.0088
1226.00,0.0091
1225.00,0.0094
1224.00,0.0098
1223.00,0.0102
1222.00,0.0106
1221.00,0.0109
1220.00,0.0111
1219.00,0.0111
1218.00,0.0110
1217.00,0.0108
1216.00,0.0105
1215.00,0.0101
1214.00,0.0098
1213.00,0.0095
1212.00,0.0093
1211.00,0.0090
1210.00,0.0088
1209.00,0.0087
1208.00,0.0085
1207.00,0.0084
1206.00,0.0083
1205.00,0.0082
1204.00,0.0081
1203.00,0.0081
1202.00,0.0082
1201.00,0.0083
1200.00,0.0083
1199.00,0.0083
1198.00,0.0083
1197.00,0.0083
1196.00,0.0083
1195.00,0.0083
1194.00,0.0084
1193.00,0.0084
1192.00,0.0084
1191.00,0.0084
1190.00,0.0084
1189.00,0.0084
1188.00,0.0083
1187.00,0.0083
1186.00,0.0083
1185.00,0.0083
1184.00,0.0084
1183.00,0.0086
1182.00,0.0087
1181.00,0.0089
1180.00,0.0091
1179.00,0.0094
1178.00,0.0099
1177.00,0.0104
1176.00,0.0112
1175.00,0.0122
1174.00,0.0136
1173.00,0.0153
1172.00,0.0174
1171.00,0.0197
1170.00,0.0220
1169.00,0.0238
1168.00,0.0250
1167.00,0.0253
1166.00,0.0249
1165.00,0.0241
1164.00,0.0231
1163.00,0.0221
1162.00,0.0212
1161.00,0.0205
1160.00,0.0201
1159.00,0.0197
1158.00,0.0195
1157.00,0.0194
1156.00,0.0193
1155.00,0.0194
1154.00,0.0194
1153.00,0.0194
1152.00,0.0191
1151.00,0.0185
1150.00,0.0176
1149.00,0.0167
1148.00,0.0158
1147.00,0.0150
1146.00,0.0143
1145.00,0.0136
1144.00,0.0129
1143.00,0.0122
1142.00,0.0116
1141.00,0.0110
1140.00,0.0106
1139.00,0.0103
1138.00,0.0100
1137.00,0.0099
1136.00,0.0097
1135.00,0.0096
1134.00,0.0095
1133.00,0.0093
1132.00,0.0092
1131.00,0.0091
1130.00,0.0091
1129.00,0.0092
1128.00,0.0093
1127.00,0.0094
1126.00,0.0095
1125.00,0.0096
1124.00,0.0098
1123.00,0.0099
1122.00,0.0099
1121.00,0.0099
1120.00,0.0099
1119.00,0.0100
1118.00,0.0100
1117.00,0.0101
1116.00,0.0103
1115.00,0.0104
1114.00,0.0106
1113.00,0.0109
1112.00,0.0111
1111.00,0.0114
1110.00,0.0118
1109.00,0.0121
1108.00,0.0126
1107.00,0.0133
1106.00,0.0140
1105.00,0.0146
1104.00,0.0152
1103.00,0.0155
1102.00,0.0155
1101.00,0.0152
1100.00,0.0146
1099.00,0.0138
1098.00,0.0131
1097.00,0.0124
1096.00,0.0119
1095.00,0.0115
1094.00,0.0112
1093.00,0.0110
1092.00,0.0109
1091.00,0.0107
1090.00,0.0104
1089.00,0.0102
1088.00,0.0100
1087.00,0.0100
1086.00,0.0100
1085.00,0.0100
1084.00,0.0100
1083.00,0.0099
1082.00,0.0098
1081.00,0.0097
1080.00,0.0096
1079.00,0.0096
1078.00,0.0095
1077.00,0.0095
1076.00,0.0094
1075.00,0.0094
1074.00,0.0093
1073.00,0.0093
1072.00,0.0093
1071.00,0.0093
1070.00,0.0093
1069.00,0.0092
1068.00,0.0092
1067.00,0.0092
1066.00,0.0092
1065.00,0.0092
1064.00,0.0093
1063.00,0.0094
1062.00,0.0095
1061.00,0.0095
1060.00,0.0095
1059.00,0.0096
1058.00,0.0098
1057.00,0.0100
1056.00,0.0102
1055.00,0.0104
1054.00,0.0106
1053.00,0.0108
1052.00,0.0110
1051.00,0.0113
1050.00,0.0117
1049.00,0.0120
1048.00,0.0123
1047.00,0.0126
1046.00,0.0129
1045.00,0.0132
1044.00,0.0133
1043.00,0.0134
1042.00,0.0134
1041.00,0.0133
1040.00,0.0133
1039.00,0.0132
1038.00,0.0131
1037.00,0.0130
1036.00,0.0130
1035.00,0.0129
1034.00,0.0128
1033.00,0.0127
1032.00,0.0125
1031.00,0.0124
1030.00,0.0123
1029.00,0.0124
1028.00,0.0125
1027.00,0.0126
1026.00,0.0128
1025.00,0.0130
1024.00,0.0131
1023.00,0.0133
1022.00,0.0135
1021.00,0.0136
1020.00,0.0138
1019.00,0.0139
1018.00,0.0140
1017.00,0.0140
1016.00,0.0139
1015.00,0.0139
1014.00,0.0139
1013.00,0.0139
1012.00,0.0138
1011.00,0.0137
1010.00,0.0136
1009.00,0.0136
1008.00,0.0136
1007.00,0.0138
1006.00,0.0142
1005.00,0.0149
1004.00,0.0159
1003.00,0.0174
1002.00,0.0193
1001.00,0.0217
1000.00,0.0241
999.00,0.0261
998.00,0.0269
997.00,0.0262
996.00,0.0243
995.00,0.0217
994.00,0.0190
993.00,0.0166
992.00,0.0147
991.00,0.0133
990.00,0.0124
989.00,0.0117
988.00,0.0113
987.00,0.0111
986.00,0.0111
985.00,0.0113
984.00,0.0117
983.00,0.0123
982.00,0.0132
981.00,0.0144
980.00,0.0162
979.00,0.0184
978.00,0.0212
977.00,0.0243
976.00,0.0276
975.00,0.0305
974.00,0.0325
973.00,0.0330
972.00,0.0317
971.00,0.0288
970.00,0.0251
969.00,0.0215
968.00,0.0184
967.00,0.0160
966.00,0.0142
965.00,0.0129
964.00,0.0119
963.00,0.0113
962.00,0.0108
961.00,0.0104
960.00,0.0101
959.00,0.0097
958.00,0.0094
957.00,0.0091
956.00,0.0089
955.00,0.0087
954.00,0.0086
953.00,0.0084
952.00,0.0083
951.00,0.0082
950.00,0.0082
949.00,0.0082
948.00,0.0082
947.00,0.0083
946.00,0.0085
945.00,0.0088
944.00,0.0091
943.00,0.0095
942.00,0.0099
941.00,0.0101
940.00,0.0101
939.00,0.0099
938.00,0.0094
937.00,0.0089
936.00,0.0083
935.00,0.0077
934.00,0.0073
933.00,0.0070
932.00,0.0069
931.00,0.0069
930.00,0.0068
929.00,0.0068
928.00,0.0067
927.00,0.0066
926.00,0.0066
925.00,0.0067
924.00,0.0067
923.00,0.0067
922.00,0.0066
921.00,0.0066
920.00,0.0065
919.00,0.0064
918.00,0.0064
917.00,0.0063
916.00,0.0064
915.00,0.0065
914.00,0.0068
913.00,0.0070
912.00,0.0073
911.00,0.0075
910.00,0.0077
909.00,0.0079
908.00,0.0082
907.00,0.0087
906.00,0.0095
905.00,0.0106
904.00,0.0121
903.00,0.0139
902.00,0.0160
901.00,0.0178
900.00,0.0191
899.00,0.0194
898.00,0.0186
897.00,0.0169
896.00,0.0148
895.00,0.0127
894.00,0.0111
893.00,0.0099
892.00,0.0090
891.00,0.0085
890.00,0.0082
889.00,0.0081
888.00,0.0079
887.00,0.0078
886.00,0.0076
885.00,0.0075
884.00,0.0075
883.00,0.0075
882.00,0.0076
881.00,0.0077
880.00,0.0079
879.00,0.0081
878.00,0.0082
877.00,0.0083
876.00,0.0084
875.00,0.0086
874.00,0.0087
873.00,0.0088
872.00,0.0088
871.00,0.0086
870.00,0.0084
869.00,0.0082
868.00,0.0081
867.00,0.0080
866.00,0.0080
865.00,0.0079
864.00,0.0079
863.00,0.0081
862.00,0.0082
861.00,0.0084
860.00,0.0085
859.00,0.0086
858.00,0.0086
857.00,0.0087
856.00,0.0089
855.00,0.0091
854.00,0.0092
853.00,0.0093
852.00,0.0095
851.00,0.0098
850.00,0.0101
849.00,0.0105
848.00,0.0110
847.00,0.0117
846.00,0.0129
845.00,0.0148
844.00,0.0177
843.00,0.0210
842.00,0.0237
841.00,0.0246
840.00,0.0233
839.00,0.0205
838.00,0.0173
837.00,0.0147
836.00,0.0129
835.00,0.0119
834.00,0.0113
833.00,0.0109
832.00,0.0107
831.00,0.0105
830.00,0.0103
829.00,0.0102
828.00,0.0102
827.00,0.0101
826.00,0.0101
825.00,0.0102
824.00,0.0103
823.00,0.0104
822.00,0.0106
821.00,0.0108
820.00,0.0111
819.00,0.0115
818.00,0.0120
817.00,0.0127
816.00,0.0135
815.00,0.0146
814.00,0.0162
813.00,0.0183
812.00,0.0207
811.00,0.0229
810.00,0.0246
809.00,0.0252
808.00,0.0247
807.00,0.0232
806.00,0.0212
805.00,0.0192
804.00,0.0174
803.00,0.0159
802.00,0.0147
801.00,0.0138
800.00,0.0131
799.00,0.0126
798.00,0.0121
797.00,0.0116
796.00,0.0111
795.00,0.0106
794.00,0.0102
793.00,0.0099
792.00,0.0096
791.00,0.0094
790.00,0.0091
789.00,0.0087
788.00,0.0084
787.00,0.0082
786.00,0.0079
785.00,0.0077
784.00,0.0074
783.00,0.0073
782.00,0.0073
781.00,0.0072
780.00,0.0071
779.00,0.0070
778.00,0.0069
777.00,0.0069
776.00,0.0069
775.00,0.0069
774.00,0.0070
773.00,0.0070
772.00,0.0069
771.00,0.0067
770.00,0.0066
769.00,0.0065
768.00,0.0064
767.00,0.0065
766.00,0.0065
765.00,0.0066
764.00,0.0067
763.00,0.0067
762.00,0.0069
761.00,0.0070
760.00,0.0072
759.00,0.0072
758.00,0.0071
757.00,0.0072
756.00,0.0073
755.00,0.0074
754.00,0.0076
753.00,0.0078
752.00,0.0080
751.00,0.0082
750.00,0.0084
749.00,0.0086
748.00,0.0087
747.00,0.0087
746.00,0.0087
745.00,0.0088
744.00,0.0089
743.00,0.0091
742.00,0.0093
741.00,0.0097
740.00,0.0102
739.00,0.0107
738.00,0.0112
737.00,0.0115
736.00,0.0119
735.00,0.0124
734.00,0.0130
733.00,0.0136
732.00,0.0143
731.00,0.0150
730.00,0.0156
729.00,0.0159
728.00,0.0160
727.00,0.0161
726.00,0.0162
725.00,0.0165
724.00,0.0170
723.00,0.0178
722.00,0.0185
721.00,0.0188
720.00,0.0185
719.00,0.0177
718.00,0.0165
717.00,0.0153
716.00,0.0143
715.00,0.0135
714.00,0.0130
713.00,0.0126
712.00,0.0123
711.00,0.0121
710.00,0.0119
709.00,0.0117
708.00,0.0114
707.00,0.0112
706.00,0.0110
705.00,0.0109
704.00,0.0108
703.00,0.0105
702.00,0.0102
701.00,0.0100
700.00,0.0099
699.00,0.0100
698.00,0.0100
697.00,0.0100
696.00,0.0099
695.00,0.0100
694.00,0.0100
693.00,0.0100
692.00,0.0100
691.00,0.0101
690.00,0.0102
689.00,0.0103
688.00,0.0105
687.00,0.0107
686.00,0.0108
685.00,0.0108
684.00,0.0107
683.00,0.0106
682.00,0.0106
681.00,0.0105
680.00,0.0105
679.00,0.0104
678.00,0.0103
677.00,0.0104
676.00,0.0105
675.00,0.0106
674.00,0.0108
673.00,0.0110
672.00,0.0112
671.00,0.0115
670.00,0.0115
669.00,0.0114
668.00,0.0111
667.00,0.0108
666.00,0.0106
665.00,0.0104
664.00,0.0103
663.00,0.0102
662.00,0.0099
661.00,0.0097
660.00,0.0096
659.00,0.0096
658.00,0.0096
657.00,0.0096
656.00,0.0094
655.00,0.0091
654.00,0.0090
653.00,0.0089
652.00,0.0091
651.00,0.0093
650.00,0.0094
649.00,0.0094
648.00,0.0092
647.00,0.0091
646.00,0.0090
645.00,0.0090
644.00,0.0089
643.00,0.0089
642.00,0.0088
641.00,0.0088
640.00,0.0088
639.00,0.0090
638.00,0.0091
637.00,0.0092
636.00,0.0092
635.00,0.0091
634.00,0.0090
633.00,0.0091
632.00,0.0093
631.00,0.0095
630.00,0.0097
629.00,0.0096
628.00,0.0094
627.00,0.0091
626.00,0.0089
625.00,0.0088
624.00,0.0088
623.00,0.0088
622.00,0.0088
621.00,0.0087
620.00,0.0087
619.00,0.0088
618.00,0.0090
617.00,0.0092
616.00,0.0091
615.00,0.0089
614.00,0.0088
613.00,0.0087
612.00,0.0087
611.00,0.0087
610.00,0.0087
609.00,0.0087
608.00,0.0086
607.00,0.0085
606.00,0.0084
605.00,0.0083
604.00,0.0084
603.00,0.0085
602.00,0.0087
601.00,0.0087
600.00,0.0086
599.00,0.0084
598.00,0.0083
597.00,0.0083
596.00,0.0084
595.00,0.0084
594.00,0.0085
593.00,0.0086
592.00,0.0086
591.00,0.0085
590.00,0.0083
589.00,0.0082
588.00,0.0083
587.00,0.0085
586.00,0.0087
585.00,0.0087
584.00,0.0087
583.00,0.0089
582.00,0.0091
581.00,0.0092
580.00,0.0092
579.00,0.0091
578.00,0.0090
577.00,0.0089
576.00,0.0089
575.00,0.0087
574.00,0.0085
573.00,0.0083
572.00,0.0082
571.00,0.0083
570.00,0.0083
569.00,0.0084
568.00,0.0086
567.00,0.0088
566.00,0.0089
565.00,0.0090
564.00,0.0091
563.00,0.0094
562.00,0.0096
561.00,0.0096
560.00,0.0094
559.00,0.0090
558.00,0.0085
557.00,0.0081
556.00,0.0079
555.00,0.0079
554.00,0.0079
553.00,0.0079
552.00,0.0079
551.00,0.0082
550.00,0.0087
549.00,0.0092
548.00,0.0095
547.00,0.0096
546.00,0.0095
545.00,0.0094
544.00,0.0093
543.00,0.0092
542.00,0.0093
541.00,0.0096
540.00,0.0100
539.00,0.0103
538.00,0.0103
537.00,0.0102
536.00,0.0104
535.00,0.0109
534.00,0.0113
533.00,0.0113
532.00,0.0112
531.00,0.0113
530.00,0.0117
529.00,0.0122
528.00,0.0125
527.00,0.0126
526.00,0.0123
525.00,0.0117
524.00,0.0108
523.00,0.0099
522.00,0.0093
521.00,0.0093
520.00,0.0095
519.00,0.0094
518.00,0.0090
517.00,0.0086
516.00,0.0086
515.00,0.0091
514.00,0.0094
513.00,0.0094
512.00,0.0088
511.00,0.0081
510.00,0.0077
509.00,0.0079
508.00,0.0085
507.00,0.0093
506.00,0.0100
505.00,0.0101
504.00,0.0100
503.00,0.0097
502.00,0.0098
501.00,0.0101
500.00,0.0104
499.00,0.0104
498.00,0.0100
497.00,0.0094
496.00,0.0088
495.00,0.0083
494.00,0.0080
493.00,0.0080
492.00,0.0082
491.00,0.0085
490.00,0.0089
489.00,0.0090
488.00,0.0088
487.00,0.0085
486.00,0.0082
485.00,0.0083
484.00,0.0091
483.00,0.0104
482.00,0.0114
481.00,0.0115
480.00,0.0108
479.00,0.0098
478.00,0.0096
477.00,0.0104
476.00,0.0117
475.00,0.0126
474.00,0.0129
473.00,0.0131
472.00,0.0135
471.00,0.0143
470.00,0.0150
469.00,0.0156
468.00,0.0160
467.00,0.0160
466.00,0.0153
465.00,0.0146
464.00,0.0148
463.00,0.0166
462.00,0.0195
461.00,0.0224
460.00,0.0243
459.00,0.0245
458.00,0.0231
457.00,0.0210
456.00,0.0196
455.00,0.0190
454.00,0.0187
453.00,0.0180
452.00,0.0165
451.00,0.0148
450.00,0.0130
