Created as New Dataset,Sample 016 By Administrator Date Friday, September 05 2025
cm-1,A
4000.00,0.0022
3999.00,0.0022
3998.00,0.0022
3997.00,0.0022
3996.00,0.0022
3995.00,0.0022
3994.00,0.0021
3993.00,0.0021
3992.00,0.0021
3991.00,0.0021
3990.00,0.0021
3989.00,0.0021
3988.00,0.0021
3987.00,0.0021
3986.00,0.0021
3985.00,0.0022
3984.00,0.0022
3983.00,0.0022
3982.00,0.0021
3981.00,0.0021
3980.00,0.0021
3979.00,0.0021
3978.00,0.0021
3977.00,0.0021
3976.00,0.0021
3975.00,0.0021
3974.00,0.0021
3973.00,0.0020
3972.00,0.0020
3971.00,0.0020
3970.00,0.0020
3969.00,0.0020
3968.00,0.0020
3967.00,0.0020
3966.00,0.0020
3965.00,0.0021
3964.00,0.0021
3963.00,0.0021
3962.00,0.0021
3961.00,0.0020
3960.00,0.0020
3959.00,0.0020
3958.00,0.0020
3957.00,0.0020
3956.00,0.0020
3955.00,0.0020
3954.00,0.0020
3953.00,0.0020
3952.00,0.0020
3951.00,0.0020
3950.00,0.0020
3949.00,0.0020
3948.00,0.0020
3947.00,0.0020
3946.00,0.0020
3945.00,0.0020
3944.00,0.0020
3943.00,0.0020
3942.00,0.0020
3941.00,0.0020
3940.00,0.0020
3939.00,0.0020
3938.00,0.0020
3937.00,0.0020
3936.00,0.0020
3935.00,0.0021
3934.00,0.0021
3933.00,0.0021
3932.00,0.0021
3931.00,0.0021
3930.00,0.0020
3929.00,0.0020
3928.00,0.0021
3927.00,0.0021
3926.00,0.0021
3925.00,0.0021
3924.00,0.0021
3923.00,0.0021
3922.00,0.0020
3921.00,0.0020
3920.00,0.0020
3919.00,0.0019
3918.00,0.0019
3917.00,0.0020
3916.00,0.0020
3915.00,0.0020
3914.00,0.0020
3913.00,0.0020
3912.00,0.0020
3911.00,0.0020
3910.00,0.0020
3909.00,0.0021
3908.00,0.0021
3907.00,0.0021
3906.00,0.0021
3905.00,0.0021
3904.00,0.0021
3903.00,0.0021
3902.00,0.0021
3901.00,0.0020
3900.00,0.0020
3899.00,0.0019
3898.00,0.0019
3897.00,0.0019
3896.00,0.0020
3895.00,0.0020
3894.00,0.0020
3893.00,0.0020
3892.00,0.0020
3891.00,0.0020
3890.00,0.0021
3889.00,0.0021
3888.00,0.0020
3887.00,0.0020
3886.00,0.0020
3885.00,0.0020
3884.00,0.0020
3883.00,0.0021
3882.00,0.0021
3881.00,0.0021
3880.00,0.0021
3879.00,0.0021
3878.00,0.0021
3877.00,0.0021
3876.00,0.0021
3875.00,0.0021
3874.00,0.0020
3873.00,0.0020
3872.00,0.0020
3871.00,0.0021
3870.00,0.0021
3869.00,0.0021
3868.00,0.0020
3867.00,0.0020
3866.00,0.0019
3865.00,0.0019
3864.00,0.0019
3863.00,0.0020
3862.00,0.0020
3861.00,0.0020
3860.00,0.0021
3859.00,0.0021
3858.00,0.0021
3857.00,0.0021
3856.00,0.0021
3855.00,0.0021
3854.00,0.0021
3853.00,0.0020
3852.00,0.0020
3851.00,0.0020
3850.00,0.0019
3849.00,0.0019
3848.00,0.0019
3847.00,0.0019
3846.00,0.0020
3845.00,0.0020
3844.00,0.0021
3843.00,0.0021
3842.00,0.0021
3841.00,0.0021
3840.00,0.0021
3839.00,0.0021
3838.00,0.0020
3837.00,0.0020
3836.00,0.0020
3835.00,0.0020
3834.00,0.0019
3833.00,0.0019
3832.00,0.0019
3831.00,0.0019
3830.00,0.0019
3829.00,0.0019
3828.00,0.0020
3827.00,0.0020
3826.00,0.0020
3825.00,0.0020
3824.00,0.0020
3823.00,0.0021
3822.00,0.0021
3821.00,0.0021
3820.00,0.0020
3819.00,0.0020
3818.00,0.0020
3817.00,0.0020
3816.00,0.0020
3815.00,0.0020
3814.00,0.0020
3813.00,0.0020
3812.00,0.0020
3811.00,0.0020
3810.00,0.0020
3809.00,0.0021
3808.00,0.0021
3807.00,0.0021
3806.00,0.0021
3805.00,0.0020
3804.00,0.0020
3803.00,0.0020
3802.00,0.0020
3801.00,0.0020
3800.00,0.0020
3799.00,0.0020
3798.00,0.0020
3797.00,0.0020
3796.00,0.0020
3795.00,0.0020
3794.00,0.0020
3793.00,0.0019
3792.00,0.0019
3791.00,0.0019
3790.00,0.0020
3789.00,0.0020
3788.00,0.0020
3787.00,0.0020
3786.00,0.0020
3785.00,0.0020
3784.00,0.0019
3783.00,0.0019
3782.00,0.0019
3781.00,0.0019
3780.00,0.0019
3779.00,0.0020
3778.00,0.0020
3777.00,0.0020
3776.00,0.0021
3775.00,0.0020
3774.00,0.0020
3773.00,0.0020
3772.00,0.0020
3771.00,0.0020
3770.00,0.0020
3769.00,0.0020
3768.00,0.0020
3767.00,0.0020
3766.00,0.0020
3765.00,0.0020
3764.00,0.0020
3763.00,0.0020
3762.00,0.0020
3761.00,0.0020
3760.00,0.0021
3759.00,0.0021
3758.00,0.0021
3757.00,0.0022
3756.00,0.0022
3755.00,0.0022
3754.00,0.0022
3753.00,0.0022
3752.00,0.0022
3751.00,0.0022
3750.00,0.0021
3749.00,0.0021
3748.00,0.0021
3747.00,0.0021
3746.00,0.0021
3745.00,0.0021
3744.00,0.0021
3743.00,0.0021
3742.00,0.0021
3741.00,0.0021
3740.00,0.0021
3739.00,0.0020
3738.00,0.0020
3737.00,0.0020
3736.00,0.0020
3735.00,0.0019
3734.00,0.0019
3733.00,0.0018
3732.00,0.0018
3731.00,0.0018
3730.00,0.0019
3729.00,0.0019
3728.00,0.0019
3727.00,0.0019
3726.00,0.0019
3725.00,0.0019
3724.00,0.0018
3723.00,0.0018
3722.00,0.0018
3721.00,0.0018
3720.00,0.0018
3719.00,0.0018
3718.00,0.0018
3717.00,0.0018
3716.00,0.0019
3715.00,0.0019
3714.00,0.0019
3713.00,0.0019
3712.00,0.0019
3711.00,0.0019
3710.00,0.0018
3709.00,0.0017
3708.00,0.0017
3707.00,0.0017
3706.00,0.0017
3705.00,0.0017
3704.00,0.0017
3703.00,0.0017
3702.00,0.0017
3701.00,0.0018
3700.00,0.0018
3699.00,0.0019
3698.00,0.0019
3697.00,0.0018
3696.00,0.0018
3695.00,0.0018
3694.00,0.0018
3693.00,0.0018
3692.00,0.0018
3691.00,0.0019
3690.00,0.0019
3689.00,0.0018
3688.00,0.0018
3687.00,0.0018
3686.00,0.0018
3685.00,0.0018
3684.00,0.0017
3683.00,0.0018
3682.00,0.0018
3681.00,0.0018
3680.00,0.0019
3679.00,0.0020
3678.00,0.0021
3677.00,0.0021
3676.00,0.0021
3675.00,0.0020
3674.00,0.0020
3673.00,0.0019
3672.00,0.0018
3671.00,0.0018
3670.00,0.0018
3669.00,0.0017
3668.00,0.0017
3667.00,0.0017
3666.00,0.0016
3665.00,0.0016
3664.00,0.0016
3663.00,0.0016
3662.00,0.0017
3661.00,0.0017
3660.00,0.0017
3659.00,0.0017
3658.00,0.0018
3657.00,0.0018
3656.00,0.0018
3655.00,0.0018
3654.00,0.0018
3653.00,0.0018
3652.00,0.0018
3651.00,0.0019
3650.00,0.0019
3649.00,0.0019
3648.00,0.0019
3647.00,0.0018
3646.00,0.0018
3645.00,0.0018
3644.00,0.0018
3643.00,0.0018
3642.00,0.0018
3641.00,0.0019
3640.00,0.0019
3639.00,0.0020
3638.00,0.0020
3637.00,0.0020
3636.00,0.0020
3635.00,0.0020
3634.00,0.0020
3633.00,0.0020
3632.00,0.0020
3631.00,0.0020
3630.00,0.0020
3629.00,0.0020
3628.00,0.0021
3627.00,0.0021
3626.00,0.0021
3625.00,0.0021
3624.00,0.0021
3623.00,0.0021
3622.00,0.0021
3621.00,0.0021
3620.00,0.0022
3619.00,0.0022
3618.00,0.0022
3617.00,0.0023
3616.00,0.0023
3615.00,0.0023
3614.00,0.0023
3613.00,0.0023
3612.00,0.0023
3611.00,0.0024
3610.00,0.0024
3609.00,0.0024
3608.00,0.0024
3607.00,0.0024
3606.00,0.0023
3605.00,0.0023
3604.00,0.0023
3603.00,0.0024
3602.00,0.0024
3601.00,0.0024
3600.00,0.0024
3599.00,0.0024
3598.00,0.0024
3597.00,0.0024
3596.00,0.0024
3595.00,0.0025
3594.00,0.0025
3593.00,0.0025
3592.00,0.0025
3591.00,0.0025
3590.00,0.0025
3589.00,0.0025
3588.00,0.0026
3587.00,0.0026
3586.00,0.0026
3585.00,0.0026
3584.00,0.0026
3583.00,0.0027
3582.00,0.0027
3581.00,0.0027
3580.00,0.0027
3579.00,0.0027
3578.00,0.0027
3577.00,0.0028
3576.00,0.0029
3575.00,0.0029
3574.00,0.0029
3573.00,0.0030
3572.00,0.0030
3571.00,0.0030
3570.00,0.0030
3569.00,0.0030
3568.00,0.0031
3567.00,0.0031
3566.00,0.0031
3565.00,0.0031
3564.00,0.0031
3563.00,0.0031
3562.00,0.0031
3561.00,0.0031
3560.00,0.0031
3559.00,0.0031
3558.00,0.0032
3557.00,0.0032
3556.00,0.0033
3555.00,0.0034
3554.00,0.0034
3553.00,0.0035
3552.00,0.0035
3551.00,0.0035
3550.00,0.0035
3549.00,0.0035
3548.00,0.0035
3547.00,0.0035
3546.00,0.0035
3545.00,0.0035
3544.00,0.0035
3543.00,0.0035
3542.00,0.0036
3541.00,0.0036
3540.00,0.0036
3539.00,0.0036
3538.00,0.0037
3537.00,0.0037
3536.00,0.0037
3535.00,0.0037
3534.00,0.0037
3533.00,0.0037
3532.00,0.0037
3531.00,0.0038
3530.00,0.0038
3529.00,0.0039
3528.00,0.0039
3527.00,0.0039
3526.00,0.0039
3525.00,0.0039
3524.00,0.0038
3523.00,0.0039
3522.00,0.0039
3521.00,0.0040
3520.00,0.0040
3519.00,0.0041
3518.00,0.0041
3517.00,0.0041
3516.00,0.0041
3515.00,0.0041
3514.00,0.0041
3513.00,0.0041
3512.00,0.0041
3511.00,0.0041
3510.00,0.0041
3509.00,0.0041
3508.00,0.0042
3507.00,0.0042
3506.00,0.0042
3505.00,0.0042
3504.00,0.0043
3503.00,0.0043
3502.00,0.0043
3501.00,0.0043
3500.00,0.0044
3499.00,0.0044
3498.00,0.0045
3497.00,0.0045
3496.00,0.0045
3495.00,0.0045
3494.00,0.0044
3493.00,0.0044
3492.00,0.0044
3491.00,0.0044
3490.00,0.0044
3489.00,0.0045
3488.00,0.0045
3487.00,0.0046
3486.00,0.0046
3485.00,0.0047
3484.00,0.0047
3483.00,0.0047
3482.00,0.0047
3481.00,0.0047
3480.00,0.0047
3479.00,0.0047
3478.00,0.0048
3477.00,0.0048
3476.00,0.0049
3475.00,0.0049
3474.00,0.0049
3473.00,0.0050
3472.00,0.0050
3471.00,0.0050
3470.00,0.0050
3469.00,0.0050
3468.00,0.0050
3467.00,0.0050
3466.00,0.0050
3465.00,0.0051
3464.00,0.0051
3463.00,0.0051
3462.00,0.0051
3461.00,0.0051
3460.00,0.0051
3459.00,0.0051
3458.00,0.0052
3457.00,0.0051
3456.00,0.0051
3455.00,0.0051
3454.00,0.0051
3453.00,0.0051
3452.00,0.0052
3451.00,0.0052
3450.00,0.0053
3449.00,0.0053
3448.00,0.0053
3447.00,0.0053
3446.00,0.0054
3445.00,0.0054
3444.00,0.0054
3443.00,0.0055
3442.00,0.0055
3441.00,0.0055
3440.00,0.0056
3439.00,0.0056
3438.00,0.0056
3437.00,0.0056
3436.00,0.0056
3435.00,0.0057
3434.00,0.0057
3433.00,0.0057
3432.00,0.0057
3431.00,0.0057
3430.00,0.0057
3429.00,0.0057
3428.00,0.0057
3427.00,0.0057
3426.00,0.0057
3425.00,0.0058
3424.00,0.0058
3423.00,0.0058
3422.00,0.0058
3421.00,0.0058
3420.00,0.0058
3419.00,0.0058
3418.00,0.0058
3417.00,0.0058
3416.00,0.0058
3415.00,0.0058
3414.00,0.0059
3413.00,0.0059
3412.00,0.0060
3411.00,0.0061
3410.00,0.0061
3409.00,0.0061
3408.00,0.0061
3407.00,0.0061
3406.00,0.0061
3405.00,0.0061
3404.00,0.0060
3403.00,0.0060
3402.00,0.0060
3401.00,0.0061
3400.00,0.0061
3399.00,0.0061
3398.00,0.0062
3397.00,0.0062
3396.00,0.0062
3395.00,0.0061
3394.00,0.0061
3393.00,0.0061
3392.00,0.0061
3391.00,0.0061
3390.00,0.0061
3389.00,0.0061
3388.00,0.0061
3387.00,0.0061
3386.00,0.0061
3385.00,0.0061
3384.00,0.0061
3383.00,0.0062
3382.00,0.0062
3381.00,0.0062
3380.00,0.0063
3379.00,0.0063
3378.00,0.0063
3377.00,0.0063
3376.00,0.0063
3375.00,0.0063
3374.00,0.0063
3373.00,0.0063
3372.00,0.0063
3371.00,0.0062
3370.00,0.0062
3369.00,0.0062
3368.00,0.0063
3367.00,0.0063
3366.00,0.0063
3365.00,0.0063
3364.00,0.0063
3363.00,0.0064
3362.00,0.0064
3361.00,0.0064
3360.00,0.0064
3359.00,0.0064
3358.00,0.0064
3357.00,0.0064
3356.00,0.0064
3355.00,0.0064
3354.00,0.0064
3353.00,0.0064
3352.00,0.0064
3351.00,0.0064
3350.00,0.0065
3349.00,0.0065
3348.00,0.0065
3347.00,0.0064
3346.00,0.0064
3345.00,0.0064
3344.00,0.0064
3343.00,0.0064
3342.00,0.0064
3341.00,0.0064
3340.00,0.0064
3339.00,0.0064
3338.00,0.0064
3337.00,0.0064
3336.00,0.0064
3335.00,0.0064
3334.00,0.0064
3333.00,0.0064
3332.00,0.0064
3331.00,0.0064
3330.00,0.0064
3329.00,0.0064
3328.00,0.0063
3327.00,0.0063
3326.00,0.0063
3325.00,0.0063
3324.00,0.0063
3323.00,0.0063
3322.00,0.0063
3321.00,0.0063
3320.00,0.0063
3319.00,0.0063
3318.00,0.0063
3317.00,0.0063
3316.00,0.0063
3315.00,0.0063
3314.00,0.0063
3313.00,0.0063
3312.00,0.0063
3311.00,0.0062
3310.00,0.0062
3309.00,0.0062
3308.00,0.0063
3307.00,0.0063
3306.00,0.0063
3305.00,0.0064
3304.00,0.0064
3303.00,0.0064
3302.00,0.0064
3301.00,0.0064
3300.00,0.0064
3299.00,0.0064
3298.00,0.0063
3297.00,0.0063
3296.00,0.0062
3295.00,0.0062
3294.00,0.0062
3293.00,0.0062
3292.00,0.0062
3291.00,0.0062
3290.00,0.0061
3289.00,0.0061
3288.00,0.0061
3287.00,0.0061
3286.00,0.0060
3285.00,0.0060
3284.00,0.0060
3283.00,0.0060
3282.00,0.0060
3281.00,0.0060
3280.00,0.0060
3279.00,0.0059
3278.00,0.0059
3277.00,0.0059
3276.00,0.0059
3275.00,0.0059
3274.00,0.0059
3273.00,0.0059
3272.00,0.0058
3271.00,0.0058
3270.00,0.0058
3269.00,0.0058
3268.00,0.0058
3267.00,0.0058
3266.00,0.0058
3265.00,0.0057
3264.00,0.0057
3263.00,0.0057
3262.00,0.0057
3261.00,0.0057
3260.00,0.0057
3259.00,0.0057
3258.00,0.0056
3257.00,0.0056
3256.00,0.0055
3255.00,0.0055
3254.00,0.0055
3253.00,0.0055
3252.00,0.0055
3251.00,0.0055
3250.00,0.0055
3249.00,0.0055
3248.00,0.0055
3247.00,0.0055
3246.00,0.0055
3245.00,0.0054
3244.00,0.0054
3243.00,0.0054
3242.00,0.0054
3241.00,0.0055
3240.00,0.0055
3239.00,0.0055
3238.00,0.0055
3237.00,0.0055
3236.00,0.0055
3235.00,0.0055
3234.00,0.0054
3233.00,0.0054
3232.00,0.0053
3231.00,0.0053
3230.00,0.0054
3229.00,0.0054
3228.00,0.0055
3227.00,0.0055
3226.00,0.0055
3225.00,0.0055
3224.00,0.0055
3223.00,0.0055
3222.00,0.0055
3221.00,0.0055
3220.00,0.0056
3219.00,0.0056
3218.00,0.0056
3217.00,0.0056
3216.00,0.0056
3215.00,0.0057
3214.00,0.0057
3213.00,0.0057
3212.00,0.0057
3211.00,0.0057
3210.00,0.0056
3209.00,0.0056
3208.00,0.0056
3207.00,0.0056
3206.00,0.0057
3205.00,0.0057
3204.00,0.0057
3203.00,0.0057
3202.00,0.0057
3201.00,0.0057
3200.00,0.0057
3199.00,0.0057
3198.00,0.0057
3197.00,0.0057
3196.00,0.0057
3195.00,0.0057
3194.00,0.0057
3193.00,0.0056
3192.00,0.0056
3191.00,0.0057
3190.00,0.0057
3189.00,0.0057
3188.00,0.0057
3187.00,0.0057
3186.00,0.0056
3185.00,0.0056
3184.00,0.0055
3183.00,0.0055
3182.00,0.0055
3181.00,0.0055
3180.00,0.0055
3179.00,0.0054
3178.00,0.0054
3177.00,0.0053
3176.00,0.0053
3175.00,0.0054
3174.00,0.0054
3173.00,0.0054
3172.00,0.0054
3171.00,0.0053
3170.00,0.0053
3169.00,0.0052
3168.00,0.0052
3167.00,0.0052
3166.00,0.0052
3165.00,0.0052
3164.00,0.0052
3163.00,0.0052
3162.00,0.0051
3161.00,0.0051
3160.00,0.0051
3159.00,0.0051
3158.00,0.0051
3157.00,0.0051
3156.00,0.0051
3155.00,0.0051
3154.00,0.0051
3153.00,0.0051
3152.00,0.0051
3151.00,0.0051
3150.00,0.0052
3149.00,0.0052
3148.00,0.0052
3147.00,0.0051
3146.00,0.0051
3145.00,0.0050
3144.00,0.0050
3143.00,0.0050
3142.00,0.0050
3141.00,0.0049
3140.00,0.0049
3139.00,0.0049
3138.00,0.0049
3137.00,0.0048
3136.00,0.0048
3135.00,0.0048
3134.00,0.0048
3133.00,0.0048
3132.00,0.0047
3131.00,0.0047
3130.00,0.0047
3129.00,0.0047
3128.00,0.0048
3127.00,0.0048
3126.00,0.0047
3125.00,0.0047
3124.00,0.0046
3123.00,0.0046
3122.00,0.0046
3121.00,0.0046
3120.00,0.0045
3119.00,0.0045
3118.00,0.0045
3117.00,0.0045
3116.00,0.0045
3115.00,0.0045
3114.00,0.0045
3113.00,0.0044
3112.00,0.0044
3111.00,0.0044
3110.00,0.0043
3109.00,0.0043
3108.00,0.0043
3107.00,0.0043
3106.00,0.0043
3105.00,0.0043
3104.00,0.0043
3103.00,0.0043
3102.00,0.0043
3101.00,0.0044
3100.00,0.0043
3099.00,0.0043
3098.00,0.0043
3097.00,0.0043
3096.00,0.0043
3095.00,0.0043
3094.00,0.0043
3093.00,0.0043
3092.00,0.0042
3091.00,0.0042
3090.00,0.0041
3089.00,0.0041
3088.00,0.0041
3087.00,0.0041
3086.00,0.0041
3085.00,0.0041
3084.00,0.0041
3083.00,0.0041
3082.00,0.0041
3081.00,0.0041
3080.00,0.0041
3079.00,0.0040
3078.00,0.0040
3077.00,0.0041
3076.00,0.0041
3075.00,0.0042
3074.00,0.0042
3073.00,0.0043
3072.00,0.0043
3071.00,0.0043
3070.00,0.0042
3069.00,0.0042
3068.00,0.0042
3067.00,0.0042
3066.00,0.0043
3065.00,0.0043
3064.00,0.0043
3063.00,0.0043
3062.00,0.0043
3061.00,0.0044
3060.00,0.0044
3059.00,0.0044
3058.00,0.0044
3057.00,0.0044
3056.00,0.0044
3055.00,0.0044
3054.00,0.0045
3053.00,0.0045
3052.00,0.0045
3051.00,0.0045
3050.00,0.0045
3049.00,0.0046
3048.00,0.0046
3047.00,0.0046
3046.00,0.0046
3045.00,0.0046
3044.00,0.0046
3043.00,0.0046
3042.00,0.0046
3041.00,0.0046
3040.00,0.0047
3039.00,0.0048
3038.00,0.0048
3037.00,0.0048
3036.00,0.0048
3035.00,0.0048
3034.00,0.0048
3033.00,0.0048
3032.00,0.0048
3031.00,0.0049
3030.00,0.0049
3029.00,0.0050
3028.00,0.0050
3027.00,0.0051
3026.00,0.0052
3025.00,0.0052
3024.00,0.0052
3023.00,0.0053
3022.00,0.0053
3021.00,0.0054
3020.00,0.0055
3019.00,0.0057
3018.00,0.0057
3017.00,0.0058
3016.00,0.0058
3015.00,0.0058
3014.00,0.0059
3013.00,0.0060
3012.00,0.0061
3011.00,0.0062
3010.00,0.0063
3009.00,0.0064
3008.00,0.0064
3007.00,0.0065
3006.00,0.0066
3005.00,0.0067
3004.00,0.0069
3003.00,0.0070
3002.00,0.0072
3001.00,0.0073
3000.00,0.0075
2999.00,0.0077
2998.00,0.0080
2997.00,0.0083
2996.00,0.0086
2995.00,0.0090
2994.00,0.0095
2993.00,0.0099
2992.00,0.0105
2991.00,0.0110
2990.00,0.0116
2989.00,0.0123
2988.00,0.0131
2987.00,0.0139
2986.00,0.0148
2985.00,0.0157
2984.00,0.0167
2983.00,0.0179
2982.00,0.0194
2981.00,0.0213
2980.00,0.0235
2979.00,0.0260
2978.00,0.0288
2977.00,0.0320
2976.00,0.0355
2975.00,0.0395
2974.00,0.0440
2973.00,0.0491
2972.00,0.0549
2971.00,0.0613
2970.00,0.0685
2969.00,0.0763
2968.00,0.0848
2967.00,0.0939
2966.00,0.1035
2965.00,0.1133
2964.00,0.1230
2963.00,0.1320
2962.00,0.1399
2961.00,0.1463
2960.00,0.1510
2959.00,0.1545
2958.00,0.1572
2957.00,0.1600
2956.00,0.1635
2955.00,0.1681
2954.00,0.1735
2953.00,0.1792
2952.00,0.1842
2951.00,0.1871
2950.00,0.1870
2949.00,0.1832
2948.00,0.1759
2947.00,0.1657
2946.00,0.1538
2945.00,0.1416
2944.00,0.1302
2943.00,0.1204
2942.00,0.1129
2941.00,0.1077
2940.00,0.1049
2939.00,0.1041
2938.00,0.1053
2937.00,0.1081
2936.00,0.1124
2935.00,0.1181
2934.00,0.1251
2933.00,0.1333
2932.00,0.1424
2931.00,0.1523
2930.00,0.1628
2929.00,0.1736
2928.00,0.1844
2927.00,0.1949
2926.00,0.2050
2925.00,0.2146
2924.00,0.2240
2923.00,0.2331
2922.00,0.2419
2921.00,0.2501
2920.00,0.2571
2919.00,0.2621
2918.00,0.2642
2917.00,0.2628
2916.00,0.2581
2915.00,0.2507
2914.00,0.2416
2913.00,0.2319
2912.00,0.2226
2911.00,0.2141
2910.00,0.2067
2909.00,0.2002
2908.00,0.1942
2907.00,0.1884
2906.00,0.1825
2905.00,0.1764
2904.00,0.1701
2903.00,0.1636
2902.00,0.1572
2901.00,0.1508
2900.00,0.1446
2899.00,0.1386
2898.00,0.1331
2897.00,0.1279
2896.00,0.1233
2895.00,0.1193
2894.00,0.1158
2893.00,0.1130
2892.00,0.1107
2891.00,0.1090
2890.00,0.1077
2889.00,0.1069
2888.00,0.1064
2887.00,0.1062
2886.00,0.1064
2885.00,0.1069
2884.00,0.1078
2883.00,0.1090
2882.00,0.1106
2881.00,0.1122
2880.00,0.1138
2879.00,0.1150
2878.00,0.1156
2877.00,0.1156
2876.00,0.1150
2875.00,0.1143
2874.00,0.1139
2873.00,0.1140
2872.00,0.1149
2871.00,0.1164
2870.00,0.1181
2869.00,0.1197
2868.00,0.1205
2867.00,0.1199
2866.00,0.1173
2865.00,0.1127
2864.00,0.1064
2863.00,0.0994
2862.00,0.0924
2861.00,0.0862
2860.00,0.0813
2859.00,0.0779
2858.00,0.0759
2857.00,0.0751
2856.00,0.0752
2855.00,0.0761
2854.00,0.0775
2853.00,0.0792
2852.00,0.0810
2851.00,0.0828
2850.00,0.0844
2849.00,0.0860
2848.00,0.0876
2847.00,0.0898
2846.00,0.0927
2845.00,0.0966
2844.00,0.1014
2843.00,0.1068
2842.00,0.1123
2841.00,0.1172
2840.00,0.1208
2839.00,0.1223
2838.00,0.1212
2837.00,0.1171
2836.00,0.1104
2835.00,0.1015
2834.00,0.0915
2833.00,0.0813
2832.00,0.0716
2831.00,0.0631
2830.00,0.0559
2829.00,0.0499
2828.00,0.0451
2827.00,0.0412
2826.00,0.0379
2825.00,0.0352
2824.00,0.0329
2823.00,0.0310
2822.00,0.0293
2821.00,0.0278
2820.00,0.0265
2819.00,0.0254
2818.00,0.0244
2817.00,0.0235
2816.00,0.0227
2815.00,0.0220
2814.00,0.0214
2813.00,0.0208
2812.00,0.0203
2811.00,0.0198
2810.00,0.0192
2809.00,0.0186
2808.00,0.0180
2807.00,0.0174
2806.00,0.0167
2805.00,0.0161
2804.00,0.0155
2803.00,0.0149
2802.00,0.0144
2801.00,0.0140
2800.00,0.0136
2799.00,0.0133
2798.00,0.0130
2797.00,0.0127
2796.00,0.0125
2795.00,0.0123
2794.00,0.0120
2793.00,0.0117
2792.00,0.0114
2791.00,0.0111
2790.00,0.0107
2789.00,0.0104
2788.00,0.0101
2787.00,0.0098
2786.00,0.0095
2785.00,0.0092
2784.00,0.0090
2783.00,0.0087
2782.00,0.0086
2781.00,0.0084
2780.00,0.0082
2779.00,0.0080
2778.00,0.0078
2777.00,0.0077
2776.00,0.0075
2775.00,0.0073
2774.00,0.0072
2773.00,0.0072
2772.00,0.0071
2771.00,0.0071
2770.00,0.0070
2769.00,0.0070
2768.00,0.0070
2767.00,0.0069
2766.00,0.0069
2765.00,0.0069
2764.00,0.0069
2763.00,0.0068
2762.00,0.0068
2761.00,0.0067
2760.00,0.0067
2759.00,0.0067
2758.00,0.0067
2757.00,0.0067
2756.00,0.0066
2755.00,0.0066
2754.00,0.0066
2753.00,0.0066
2752.00,0.0065
2751.00,0.0065
2750.00,0.0064
2749.00,0.0064
2748.00,0.0064
2747.00,0.0065
2746.00,0.0065
2745.00,0.0066
2744.00,0.0067
2743.00,0.0068
2742.00,0.0068
2741.00,0.0069
2740.00,0.0070
2739.00,0.0071
2738.00,0.0072
2737.00,0.0073
2736.00,0.0075
2735.00,0.0077
2734.00,0.0079
2733.00,0.0081
2732.00,0.0082
2731.00,0.0084
2730.00,0.0086
2729.00,0.0087
2728.00,0.0090
2727.00,0.0092
2726.00,0.0095
2725.00,0.0097
2724.00,0.0098
2723.00,0.0099
2722.00,0.0098
2721.00,0.0097
2720.00,0.0095
2719.00,0.0092
2718.00,0.0089
2717.00,0.0085
2716.00,0.0083
2715.00,0.0080
2714.00,0.0077
2713.00,0.0075
2712.00,0.0073
2711.00,0.0072
2710.00,0.0070
2709.00,0.0069
2708.00,0.0068
2707.00,0.0066
2706.00,0.0065
2705.00,0.0064
2704.00,0.0064
2703.00,0.0063
2702.00,0.0062
2701.00,0.0061
2700.00,0.0060
2699.00,0.0059
2698.00,0.0059
2697.00,0.0059
2696.00,0.0059
2695.00,0.0059
2694.00,0.0059
2693.00,0.0059
2692.00,0.0058
2691.00,0.0058
2690.00,0.0058
2689.00,0.0058
2688.00,0.0059
2687.00,0.0059
2686.00,0.0058
2685.00,0.0058
2684.00,0.0058
2683.00,0.0058
2682.00,0.0058
2681.00,0.0058
2680.00,0.0059
2679.00,0.0059
2678.00,0.0059
2677.00,0.0059
2676.00,0.0058
2675.00,0.0058
2674.00,0.0058
2673.00,0.0058
2672.00,0.0057
2671.00,0.0057
2670.00,0.0057
2669.00,0.0057
2668.00,0.0057
2667.00,0.0057
2666.00,0.0057
2665.00,0.0058
2664.00,0.0059
2663.00,0.0059
2662.00,0.0060
2661.00,0.0061
2660.00,0.0061
2659.00,0.0061
2658.00,0.0061
2657.00,0.0061
2656.00,0.0060
2655.00,0.0060
2654.00,0.0059
2653.00,0.0059
2652.00,0.0058
2651.00,0.0058
2650.00,0.0058
2649.00,0.0057
2648.00,0.0057
2647.00,0.0057
2646.00,0.0056
2645.00,0.0056
2644.00,0.0055
2643.00,0.0055
2642.00,0.0054
2641.00,0.0053
2640.00,0.0053
2639.00,0.0053
2638.00,0.0053
2637.00,0.0053
2636.00,0.0053
2635.00,0.0053
2634.00,0.0052
2633.00,0.0052
2632.00,0.0052
2631.00,0.0052
2630.00,0.0053
2629.00,0.0053
2628.00,0.0053
2627.00,0.0053
2626.00,0.0053
2625.00,0.0054
2624.00,0.0054
2623.00,0.0054
2622.00,0.0055
2621.00,0.0055
2620.00,0.0055
2619.00,0.0055
2618.00,0.0055
2617.00,0.0055
2616.00,0.0055
2615.00,0.0055
2614.00,0.0054
2613.00,0.0054
2612.00,0.0052
2611.00,0.0051
2610.00,0.0051
2609.00,0.0050
2608.00,0.0049
2607.00,0.0049
2606.00,0.0048
2605.00,0.0048
2604.00,0.0047
2603.00,0.0046
2602.00,0.0046
2601.00,0.0045
2600.00,0.0045
2599.00,0.0044
2598.00,0.0044
2597.00,0.0044
2596.00,0.0044
2595.00,0.0044
2594.00,0.0044
2593.00,0.0045
2592.00,0.0046
2591.00,0.0047
2590.00,0.0047
2589.00,0.0048
2588.00,0.0048
2587.00,0.0049
2586.00,0.0050
2585.00,0.0050
2584.00,0.0050
2583.00,0.0051
2582.00,0.0051
2581.00,0.0051
2580.00,0.0051
2579.00,0.0050
2578.00,0.0049
2577.00,0.0048
2576.00,0.0047
2575.00,0.0045
2574.00,0.0044
2573.00,0.0043
2572.00,0.0043
2571.00,0.0042
2570.00,0.0041
2569.00,0.0040
2568.00,0.0039
2567.00,0.0039
2566.00,0.0038
2565.00,0.0038
2564.00,0.0038
2563.00,0.0038
2562.00,0.0039
2561.00,0.0039
2560.00,0.0038
2559.00,0.0038
2558.00,0.0037
2557.00,0.0037
2556.00,0.0037
2555.00,0.0037
2554.00,0.0036
2553.00,0.0035
2552.00,0.0034
2551.00,0.0034
2550.00,0.0034
2549.00,0.0034
2548.00,0.0034
2547.00,0.0033
2546.00,0.0032
2545.00,0.0032
2544.00,0.0031
2543.00,0.0031
2542.00,0.0031
2541.00,0.0031
2540.00,0.0031
2539.00,0.0031
2538.00,0.0031
2537.00,0.0030
2536.00,0.0030
2535.00,0.0030
2534.00,0.0030
2533.00,0.0030
2532.00,0.0030
2531.00,0.0030
2530.00,0.0029
2529.00,0.0029
2528.00,0.0030
2527.00,0.0030
2526.00,0.0030
2525.00,0.0030
2524.00,0.0029
2523.00,0.0029
2522.00,0.0029
2521.00,0.0029
2520.00,0.0029
2519.00,0.0029
2518.00,0.0029
2517.00,0.0028
2516.00,0.0027
2515.00,0.0026
2514.00,0.0026
2513.00,0.0025
2512.00,0.0025
2511.00,0.0025
2510.00,0.0025
2509.00,0.0026
2508.00,0.0026
2507.00,0.0026
2506.00,0.0026
2505.00,0.0026
2504.00,0.0025
2503.00,0.0025
2502.00,0.0025
2501.00,0.0025
2500.00,0.0025
2499.00,0.0025
2498.00,0.0026
2497.00,0.0026
2496.00,0.0026
2495.00,0.0025
2494.00,0.0025
2493.00,0.0024
2492.00,0.0024
2491.00,0.0024
2490.00,0.0024
2489.00,0.0024
2488.00,0.0024
2487.00,0.0023
2486.00,0.0023
2485.00,0.0022
2484.00,0.0021
2483.00,0.0021
2482.00,0.0021
2481.00,0.0021
2480.00,0.0022
2479.00,0.0022
2478.00,0.0022
2477.00,0.0022
2476.00,0.0022
2475.00,0.0022
2474.00,0.0022
2473.00,0.0022
2472.00,0.0022
2471.00,0.0022
2470.00,0.0022
2469.00,0.0022
2468.00,0.0021
2467.00,0.0021
2466.00,0.0021
2465.00,0.0022
2464.00,0.0022
2463.00,0.0022
2462.00,0.0022
2461.00,0.0023
2460.00,0.0023
2459.00,0.0023
2458.00,0.0023
2457.00,0.0023
2456.00,0.0023
2455.00,0.0024
2454.00,0.0024
2453.00,0.0024
2452.00,0.0024
2451.00,0.0024
2450.00,0.0024
2449.00,0.0023
2448.00,0.0023
2447.00,0.0022
2446.00,0.0022
2445.00,0.0023
2444.00,0.0023
2443.00,0.0023
2442.00,0.0023
2441.00,0.0022
2440.00,0.0022
2439.00,0.0022
2438.00,0.0023
2437.00,0.0023
2436.00,0.0024
2435.00,0.0024
2434.00,0.0025
2433.00,0.0025
2432.00,0.0026
2431.00,0.0025
2430.00,0.0025
2429.00,0.0025
2428.00,0.0024
2427.00,0.0024
2426.00,0.0024
2425.00,0.0023
2424.00,0.0023
2423.00,0.0023
2422.00,0.0023
2421.00,0.0023
2420.00,0.0023
2419.00,0.0022
2418.00,0.0022
2417.00,0.0021
2416.00,0.0021
2415.00,0.0021
2414.00,0.0022
2413.00,0.0022
2412.00,0.0022
2411.00,0.0022
2410.00,0.0022
2409.00,0.0022
2408.00,0.0022
2407.00,0.0021
2406.00,0.0020
2405.00,0.0020
2404.00,0.0020
2403.00,0.0020
2402.00,0.0020
2401.00,0.0020
2400.00,0.0021
2399.00,0.0021
2398.00,0.0021
2397.00,0.0021
2396.00,0.0021
2395.00,0.0020
2394.00,0.0020
2393.00,0.0019
2392.00,0.0019
2391.00,0.0019
2390.00,0.0020
2389.00,0.0020
2388.00,0.0020
2387.00,0.0019
2386.00,0.0018
2385.00,0.0017
2384.00,0.0017
2383.00,0.0016
2382.00,0.0015
2381.00,0.0015
2380.00,0.0014
2379.00,0.0014
2378.00,0.0014
2377.00,0.0014
2376.00,0.0014
2375.00,0.0014
2374.00,0.0013
2373.00,0.0013
2372.00,0.0012
2371.00,0.0011
2370.00,0.0010
2369.00,0.0010
2368.00,0.0011
2367.00,0.0011
2366.00,0.0012
2365.00,0.0012
2364.00,0.0012
2363.00,0.0012
2362.00,0.0012
2361.00,0.0012
2360.00,0.0012
2359.00,0.0012
2358.00,0.0012
2357.00,0.0012
2356.00,0.0013
2355.00,0.0013
2354.00,0.0013
2353.00,0.0013
2352.00,0.0013
2351.00,0.0012
2350.00,0.0012
2349.00,0.0013
2348.00,0.0014
2347.00,0.0015
2346.00,0.0015
2345.00,0.0014
2344.00,0.0014
2343.00,0.0013
2342.00,0.0014
2341.00,0.0015
2340.00,0.0016
2339.00,0.0017
2338.00,0.0017
2337.00,0.0017
2336.00,0.0017
2335.00,0.0017
2334.00,0.0018
2333.00,0.0017
2332.00,0.0017
2331.00,0.0016
2330.00,0.0016
2329.00,0.0017
2328.00,0.0020
2327.00,0.0024
2326.00,0.0029
2325.00,0.0033
2324.00,0.0034
2323.00,0.0033
2322.00,0.0030
2321.00,0.0027
2320.00,0.0025
2319.00,0.0023
2318.00,0.0022
2317.00,0.0022
2316.00,0.0022
2315.00,0.0021
2314.00,0.0020
2313.00,0.0019
2312.00,0.0018
2311.00,0.0018
2310.00,0.0018
2309.00,0.0018
2308.00,0.0019
2307.00,0.0019
2306.00,0.0020
2305.00,0.0020
2304.00,0.0020
2303.00,0.0021
2302.00,0.0021
2301.00,0.0021
2300.00,0.0021
2299.00,0.0022
2298.00,0.0022
2297.00,0.0023
2296.00,0.0024
2295.00,0.0025
2294.00,0.0026
2293.00,0.0027
2292.00,0.0028
2291.00,0.0029
2290.00,0.0030
2289.00,0.0032
2288.00,0.0033
2287.00,0.0034
2286.00,0.0034
2285.00,0.0033
2284.00,0.0032
2283.00,0.0031
2282.00,0.0029
2281.00,0.0027
2280.00,0.0026
2279.00,0.0025
2278.00,0.0025
2277.00,0.0025
2276.00,0.0025
2275.00,0.0025
2274.00,0.0026
2273.00,0.0027
2272.00,0.0027
2271.00,0.0027
2270.00,0.0026
2269.00,0.0027
2268.00,0.0027
2267.00,0.0027
2266.00,0.0026
2265.00,0.0026
2264.00,0.0025
2263.00,0.0025
2262.00,0.0026
2261.00,0.0027
2260.00,0.0027
2259.00,0.0028
2258.00,0.0028
2257.00,0.0027
2256.00,0.0026
2255.00,0.0023
2254.00,0.0021
2253.00,0.0020
2252.00,0.0020
2251.00,0.0021
2250.00,0.0022
2249.00,0.0023
2248.00,0.0023
2247.00,0.0022
2246.00,0.0021
2245.00,0.0021
2244.00,0.0020
2243.00,0.0020
2242.00,0.0020
2241.00,0.0021
2240.00,0.0021
2239.00,0.0020
2238.00,0.0020
2237.00,0.0021
2236.00,0.0022
2235.00,0.0023
2234.00,0.0023
2233.00,0.0022
2232.00,0.0021
2231.00,0.0021
2230.00,0.0021
2229.00,0.0021
2228.00,0.0022
2227.00,0.0023
2226.00,0.0023
2225.00,0.0023
2224.00,0.0022
2223.00,0.0021
2222.00,0.0020
2221.00,0.0019
2220.00,0.0018
2219.00,0.0017
2218.00,0.0018
2217.00,0.0018
2216.00,0.0018
2215.00,0.0017
2214.00,0.0017
2213.00,0.0017
2212.00,0.0018
2211.00,0.0018
2210.00,0.0017
2209.00,0.0017
2208.00,0.0017
2207.00,0.0017
2206.00,0.0018
2205.00,0.0019
2204.00,0.0021
2203.00,0.0021
2202.00,0.0019
2201.00,0.0017
2200.00,0.0016
2199.00,0.0016
2198.00,0.0016
2197.00,0.0018
2196.00,0.0020
2195.00,0.0023
2194.00,0.0025
2193.00,0.0027
2192.00,0.0026
2191.00,0.0024
2190.00,0.0023
2189.00,0.0022
2188.00,0.0023
2187.00,0.0025
2186.00,0.0025
2185.00,0.0024
2184.00,0.0022
2183.00,0.0020
2182.00,0.0020
2181.00,0.0021
2180.00,0.0023
2179.00,0.0023
2178.00,0.0022
2177.00,0.0020
2176.00,0.0018
2175.00,0.0015
2174.00,0.0015
2173.00,0.0018
2172.00,0.0020
2171.00,0.0020
2170.00,0.0020
2169.00,0.0022
2168.00,0.0025
2167.00,0.0030
2166.00,0.0034
2165.00,0.0038
2164.00,0.0042
2163.00,0.0045
2162.00,0.0044
2161.00,0.0036
2160.00,0.0020
2159.00,0.0001
2158.00,-0.0015
2157.00,-0.0024
2156.00,-0.0027
2155.00,-0.0025
2154.00,-0.0020
2153.00,-0.0014
2152.00,-0.0008
2151.00,-0.0004
2150.00,-0.0001
2149.00,-0.0000
2148.00,0.0001
2147.00,0.0000
2146.00,-0.0001
2145.00,-0.0002
2144.00,-0.0002
2143.00,-0.0002
2142.00,-0.0002
2141.00,-0.0001
2140.00,0.0000
2139.00,0.0001
2138.00,0.0001
2137.00,-0.0001
2136.00,-0.0004
2135.00,-0.0006
2134.00,-0.0008
2133.00,-0.0007
2132.00,-0.0006
2131.00,-0.0004
2130.00,-0.0002
2129.00,0.0000
2128.00,0.0002
2127.00,0.0004
2126.00,0.0004
2125.00,0.0005
2124.00,0.0006
2123.00,0.0007
2122.00,0.0008
2121.00,0.0009
2120.00,0.0010
2119.00,0.0012
2118.00,0.0012
2117.00,0.0013
2116.00,0.0014
2115.00,0.0014
2114.00,0.0015
2113.00,0.0016
2112.00,0.0015
2111.00,0.0015
2110.00,0.0014
2109.00,0.0013
2108.00,0.0012
2107.00,0.0011
2106.00,0.0010
2105.00,0.0010
2104.00,0.0011
2103.00,0.0012
2102.00,0.0013
2101.00,0.0013
2100.00,0.0013
2099.00,0.0013
2098.00,0.0012
2097.00,0.0011
2096.00,0.0009
2095.00,0.0008
2094.00,0.0007
2093.00,0.0007
2092.00,0.0008
2091.00,0.0010
2090.00,0.0012
2089.00,0.0013
2088.00,0.0013
2087.00,0.0014
2086.00,0.0015
2085.00,0.0016
2084.00,0.0016
2083.00,0.0015
2082.00,0.0013
2081.00,0.0012
2080.00,0.0011
2079.00,0.0012
2078.00,0.0013
2077.00,0.0015
2076.00,0.0016
2075.00,0.0016
2074.00,0.0015
2073.00,0.0015
2072.00,0.0014
2071.00,0.0012
2070.00,0.0010
2069.00,0.0008
2068.00,0.0008
2067.00,0.0009
2066.00,0.0009
2065.00,0.0009
2064.00,0.0008
2063.00,0.0007
2062.00,0.0008
2061.00,0.0010
2060.00,0.0012
2059.00,0.0012
2058.00,0.0012
2057.00,0.0011
2056.00,0.0011
2055.00,0.0012
2054.00,0.0015
2053.00,0.0021
2052.00,0.0027
2051.00,0.0031
2050.00,0.0030
2049.00,0.0025
2048.00,0.0021
2047.00,0.0017
2046.00,0.0014
2045.00,0.0011
2044.00,0.0010
2043.00,0.0010
2042.00,0.0011
2041.00,0.0013
2040.00,0.0014
2039.00,0.0014
2038.00,0.0015
2037.00,0.0015
2036.00,0.0014
2035.00,0.0011
2034.00,0.0006
2033.00,0.0002
2032.00,-0.0000
2031.00,-0.0001
2030.00,-0.0001
2029.00,0.0001
2028.00,0.0003
2027.00,0.0005
2026.00,0.0005
2025.00,0.0004
2024.00,0.0002
2023.00,-0.0001
2022.00,-0.0002
2021.00,-0.0002
2020.00,0.0000
2019.00,0.0001
2018.00,0.0001
2017.00,0.0001
2016.00,0.0002
2015.00,0.0004
2014.00,0.0006
2013.00,0.0010
2012.00,0.0012
2011.00,0.0013
2010.00,0.0013
2009.00,0.0011
2008.00,0.0007
2007.00,0.0004
2006.00,0.0001
2005.00,0.0001
2004.00,0.0001
2003.00,-0.0001
2002.00,-0.0003
2001.00,-0.0003
2000.00,-0.0001
1999.00,0.0001
1998.00,0.0002
1997.00,0.0002
1996.00,0.0001
1995.00,0.0001
1994.00,0.0001
1993.00,0.0003
1992.00,0.0004
1991.00,0.0006
1990.00,0.0006
1989.00,0.0007
1988.00,0.0009
1987.00,0.0010
1986.00,0.0013
1985.00,0.0015
1984.00,0.0017
1983.00,0.0018
1982.00,0.0018
1981.00,0.0019
1980.00,0.0019
1979.00,0.0016
1978.00,0.0011
1977.00,0.0006
1976.00,0.0002
1975.00,0.0000
1974.00,-0.0001
1973.00,-0.0002
1972.00,-0.0004
1971.00,-0.0006
1970.00,-0.0007
1969.00,-0.0007
1968.00,-0.0006
1967.00,-0.0006
1966.00,-0.0008
1965.00,-0.0009
1964.00,-0.0010
1963.00,-0.0009
1962.00,-0.0008
1961.00,-0.0007
1960.00,-0.0006
1959.00,-0.0005
1958.00,-0.0005
1957.00,-0.0003
1956.00,-0.0001
1955.00,0.0000
1954.00,0.0001
1953.00,0.0002
1952.00,0.0001
1951.00,0.0001
1950.00,-0.0001
1949.00,-0.0002
1948.00,-0.0002
1947.00,-0.0003
1946.00,-0.0003
1945.00,-0.0003
1944.00,-0.0002
1943.00,-0.0001
1942.00,-0.0000
1941.00,0.0001
1940.00,0.0002
1939.00,0.0002
1938.00,0.0002
1937.00,0.0002
1936.00,0.0002
1935.00,0.0003
1934.00,0.0004
1933.00,0.0005
1932.00,0.0005
1931.00,0.0005
1930.00,0.0005
1929.00,0.0004
1928.00,0.0004
1927.00,0.0004
1926.00,0.0005
1925.00,0.0006
1924.00,0.0008
1923.00,0.0009
1922.00,0.0009
1921.00,0.0009
1920.00,0.0009
1919.00,0.0009
1918.00,0.0009
1917.00,0.0008
1916.00,0.0008
1915.00,0.0007
1914.00,0.0006
1913.00,0.0007
1912.00,0.0008
1911.00,0.0009
1910.00,0.0010
1909.00,0.0010
1908.00,0.0011
1907.00,0.0011
1906.00,0.0010
1905.00,0.0010
1904.00,0.0010
1903.00,0.0011
1902.00,0.0011
1901.00,0.0011
1900.00,0.0011
1899.00,0.0011
1898.00,0.0011
1897.00,0.0012
1896.00,0.0012
1895.00,0.0013
1894.00,0.0012
1893.00,0.0012
1892.00,0.0012
1891.00,0.0012
1890.00,0.0011
1889.00,0.0012
1888.00,0.0012
1887.00,0.0012
1886.00,0.0012
1885.00,0.0011
1884.00,0.0011
1883.00,0.0011
1882.00,0.0011
1881.00,0.0011
1880.00,0.0011
1879.00,0.0011
1878.00,0.0011
1877.00,0.0011
1876.00,0.0011
1875.00,0.0011
1874.00,0.0011
1873.00,0.0011
1872.00,0.0011
1871.00,0.0011
1870.00,0.0011
1869.00,0.0011
1868.00,0.0011
1867.00,0.0011
1866.00,0.0011
1865.00,0.0012
1864.00,0.0012
1863.00,0.0012
1862.00,0.0012
1861.00,0.0012
1860.00,0.0012
1859.00,0.0012
1858.00,0.0012
1857.00,0.0013
1856.00,0.0013
1855.00,0.0014
1854.00,0.0015
1853.00,0.0015
1852.00,0.0015
1851.00,0.0014
1850.00,0.0014
1849.00,0.0013
1848.00,0.0013
1847.00,0.0013
1846.00,0.0012
1845.00,0.0012
1844.00,0.0013
1843.00,0.0013
1842.00,0.0013
1841.00,0.0013
1840.00,0.0013
1839.00,0.0013
1838.00,0.0013
1837.00,0.0014
1836.00,0.0014
1835.00,0.0015
1834.00,0.0015
1833.00,0.0016
1832.00,0.0016
1831.00,0.0017
1830.00,0.0017
1829.00,0.0017
1828.00,0.0017
1827.00,0.0016
1826.00,0.0016
1825.00,0.0017
1824.00,0.0017
1823.00,0.0017
1822.00,0.0016
1821.00,0.0016
1820.00,0.0015
1819.00,0.0014
1818.00,0.0013
1817.00,0.0013
1816.00,0.0013
1815.00,0.0014
1814.00,0.0015
1813.00,0.0015
1812.00,0.0015
1811.00,0.0016
1810.00,0.0016
1809.00,0.0017
1808.00,0.0017
1807.00,0.0018
1806.00,0.0019
1805.00,0.0019
1804.00,0.0020
1803.00,0.0020
1802.00,0.0020
1801.00,0.0020
1800.00,0.0020
1799.00,0.0021
1798.00,0.0022
1797.00,0.0022
1796.00,0.0022
1795.00,0.0022
1794.00,0.0022
1793.00,0.0022
1792.00,0.0023
1791.00,0.0022
1790.00,0.0022
1789.00,0.0022
1788.00,0.0022
1787.00,0.0022
1786.00,0.0022
1785.00,0.0022
1784.00,0.0022
1783.00,0.0022
1782.00,0.0021
1781.00,0.0021
1780.00,0.0021
1779.00,0.0022
1778.00,0.0022
1777.00,0.0022
1776.00,0.0022
1775.00,0.0022
1774.00,0.0021
1773.00,0.0021
1772.00,0.0021
1771.00,0.0021
1770.00,0.0022
1769.00,0.0023
1768.00,0.0023
1767.00,0.0023
1766.00,0.0023
1765.00,0.0023
1764.00,0.0023
1763.00,0.0024
1762.00,0.0025
1761.00,0.0026
1760.00,0.0027
1759.00,0.0027
1758.00,0.0027
1757.00,0.0028
1756.00,0.0029
1755.00,0.0029
1754.00,0.0030
1753.00,0.0031
1752.00,0.0032
1751.00,0.0034
1750.00,0.0035
1749.00,0.0035
1748.00,0.0036
1747.00,0.0038
1746.00,0.0039
1745.00,0.0042
1744.00,0.0044
1743.00,0.0045
1742.00,0.0046
1741.00,0.0047
1740.00,0.0048
1739.00,0.0049
1738.00,0.0050
1737.00,0.0051
1736.00,0.0051
1735.00,0.0051
1734.00,0.0051
1733.00,0.0050
1732.00,0.0050
1731.00,0.0050
1730.00,0.0050
1729.00,0.0050
1728.00,0.0049
1727.00,0.0048
1726.00,0.0047
1725.00,0.0046
1724.00,0.0046
1723.00,0.0045
1722.00,0.0045
1721.00,0.0045
1720.00,0.0044
1719.00,0.0044
1718.00,0.0043
1717.00,0.0042
1716.00,0.0042
1715.00,0.0041
1714.00,0.0041
1713.00,0.0040
1712.00,0.0040
1711.00,0.0039
1710.00,0.0039
1709.00,0.0039
1708.00,0.0040
1707.00,0.0040
1706.00,0.0040
1705.00,0.0041
1704.00,0.0042
1703.00,0.0043
1702.00,0.0043
1701.00,0.0043
1700.00,0.0043
1699.00,0.0043
1698.00,0.0044
1697.00,0.0044
1696.00,0.0045
1695.00,0.0046
1694.00,0.0047
1693.00,0.0048
1692.00,0.0049
1691.00,0.0050
1690.00,0.0051
1689.00,0.0051
1688.00,0.0052
1687.00,0.0052
1686.00,0.0053
1685.00,0.0053
1684.00,0.0055
1683.00,0.0057
1682.00,0.0058
1681.00,0.0060
1680.00,0.0061
1679.00,0.0062
1678.00,0.0063
1677.00,0.0063
1676.00,0.0064
1675.00,0.0064
1674.00,0.0064
1673.00,0.0065
1672.00,0.0066
1671.00,0.0067
1670.00,0.0068
1669.00,0.0069
1668.00,0.0070
1667.00,0.0071
1666.00,0.0072
1665.00,0.0073
1664.00,0.0074
1663.00,0.0074
1662.00,0.0074
1661.00,0.0075
1660.00,0.0075
1659.00,0.0076
1658.00,0.0076
1657.00,0.0076
1656.00,0.0077
1655.00,0.0077
1654.00,0.0077
1653.00,0.0078
1652.00,0.0079
1651.00,0.0080
1650.00,0.0080
1649.00,0.0080
1648.00,0.0080
1647.00,0.0080
1646.00,0.0080
1645.00,0.0080
1644.00,0.0081
1643.00,0.0081
1642.00,0.0082
1641.00,0.0082
1640.00,0.0083
1639.00,0.0083
1638.00,0.0083
1637.00,0.0082
1636.00,0.0082
1635.00,0.0082
1634.00,0.0082
1633.00,0.0081
1632.00,0.0081
1631.00,0.0080
1630.00,0.0080
1629.00,0.0079
1628.00,0.0079
1627.00,0.0079
1626.00,0.0078
1625.00,0.0078
1624.00,0.0077
1623.00,0.0077
1622.00,0.0076
1621.00,0.0076
1620.00,0.0076
1619.00,0.0075
1618.00,0.0075
1617.00,0.0074
1616.00,0.0074
1615.00,0.0075
1614.00,0.0075
1613.00,0.0075
1612.00,0.0075
1611.00,0.0075
1610.00,0.0075
1609.00,0.0075
1608.00,0.0075
1607.00,0.0075
1606.00,0.0074
1605.00,0.0075
1604.00,0.0075
1603.00,0.0076
1602.00,0.0076
1601.00,0.0075
1600.00,0.0075
1599.00,0.0075
1598.00,0.0075
1597.00,0.0076
1596.00,0.0076
1595.00,0.0076
1594.00,0.0076
1593.00,0.0077
1592.00,0.0078
1591.00,0.0079
1590.00,0.0080
1589.00,0.0082
1588.00,0.0083
1587.00,0.0084
1586.00,0.0085
1585.00,0.0087
1584.00,0.0089
1583.00,0.0091
1582.00,0.0093
1581.00,0.0095
1580.00,0.0098
1579.00,0.0100
1578.00,0.0101
1577.00,0.0102
1576.00,0.0101
1575.00,0.0100
1574.00,0.0099
1573.00,0.0098
1572.00,0.0097
1571.00,0.0096
1570.00,0.0094
1569.00,0.0093
1568.00,0.0093
1567.00,0.0093
1566.00,0.0092
1565.00,0.0092
1564.00,0.0092
1563.00,0.0092
1562.00,0.0092
1561.00,0.0092
1560.00,0.0093
1559.00,0.0093
1558.00,0.0093
1557.00,0.0094
1556.00,0.0096
1555.00,0.0098
1554.00,0.0100
1553.00,0.0101
1552.00,0.0103
1551.00,0.0104
1550.00,0.0106
1549.00,0.0108
1548.00,0.0110
1547.00,0.0113
1546.00,0.0116
1545.00,0.0120
1544.00,0.0123
1543.00,0.0126
1542.00,0.0127
1541.00,0.0128
1540.00,0.0127
1539.00,0.0124
1538.00,0.0121
1537.00,0.0119
1536.00,0.0118
1535.00,0.0116
1534.00,0.0113
1533.00,0.0111
1532.00,0.0109
1531.00,0.0108
1530.00,0.0107
1529.00,0.0107
1528.00,0.0108
1527.00,0.0108
1526.00,0.0108
1525.00,0.0109
1524.00,0.0110
1523.00,0.0111
1522.00,0.0112
1521.00,0.0114
1520.00,0.0117
1519.00,0.0118
1518.00,0.0119
1517.00,0.0120
1516.00,0.0122
1515.00,0.0123
1514.00,0.0124
1513.00,0.0126
1512.00,0.0128
1511.00,0.0130
1510.00,0.0131
1509.00,0.0133
1508.00,0.0136
1507.00,0.0138
1506.00,0.0141
1505.00,0.0144
1504.00,0.0148
1503.00,0.0150
1502.00,0.0153
1501.00,0.0157
1500.00,0.0161
1499.00,0.0164
1498.00,0.0168
1497.00,0.0173
1496.00,0.0179
1495.00,0.0183
1494.00,0.0187
1493.00,0.0191
1492.00,0.0196
1491.00,0.0202
1490.00,0.0208
1489.00,0.0216
1488.00,0.0224
1487.00,0.0230
1486.00,0.0237
1485.00,0.0245
1484.00,0.0253
1483.00,0.0262
1482.00,0.0273
1481.00,0.0286
1480.00,0.0301
1479.00,0.0315
1478.00,0.0332
1477.00,0.0354
1476.00,0.0382
1475.00,0.0412
1474.00,0.0452
1473.00,0.0510
1472.00,0.0578
1471.00,0.0643
1470.00,0.0704
1469.00,0.0768
1468.00,0.0836
1467.00,0.0910
1466.00,0.0995
1465.00,0.1089
1464.00,0.1172
1463.00,0.1230
1462.00,0.1269
1461.00,0.1296
1460.00,0.1316
1459.00,0.1332
1458.00,0.1348
1457.00,0.1365
1456.00,0.1372
1455.00,0.1368
1454.00,0.1360
1453.00,0.1347
1452.00,0.1326
1451.00,0.1296
1450.00,0.1253
1449.00,0.1192
1448.00,0.1112
1447.00,0.1024
1446.00,0.0942
1445.00,0.0870
1444.00,0.0808
1443.00,0.0756
1442.00,0.0716
1441.00,0.0687
1440.00,0.0669
1439.00,0.0660
1438.00,0.0659
1437.00,0.0662
1436.00,0.0655
1435.00,0.0634
1434.00,0.0601
1433.00,0.0561
1432.00,0.0518
1431.00,0.0479
1430.00,0.0448
1429.00,0.0425
1428.00,0.0409
1427.00,0.0398
1426.00,0.0390
1425.00,0.0383
1424.00,0.0376
1423.00,0.0371
1422.00,0.0367
1421.00,0.0362
1420.00,0.0355
1419.00,0.0349
1418.00,0.0344
1417.00,0.0337
1416.00,0.0330
1415.00,0.0324
1414.00,0.0318
1413.00,0.0311
1412.00,0.0303
1411.00,0.0296
1410.00,0.0289
1409.00,0.0282
1408.00,0.0276
1407.00,0.0270
1406.00,0.0265
1405.00,0.0260
1404.00,0.0256
1403.00,0.0252
1402.00,0.0250
1401.00,0.0248
1400.00,0.0245
1399.00,0.0244
1398.00,0.0243
1397.00,0.0241
1396.00,0.0239
1395.00,0.0239
1394.00,0.0239
1393.00,0.0239
1392.00,0.0240
1391.00,0.0244
1390.00,0.0251
1389.00,0.0262
1388.00,0.0280
1387.00,0.0308
1386.00,0.0348
1385.00,0.0401
1384.00,0.0475
1383.00,0.0581
1382.00,0.0725
1381.00,0.0910
1380.00,0.1136
1379.00,0.1393
1378.00,0.1640
1377.00,0.1820
1376.00,0.1880
1375.00,0.1787
1374.00,0.1570
1373.00,0.1308
1372.00,0.1070
1371.00,0.0874
1370.00,0.0716
1369.00,0.0594
1368.00,0.0509
1367.00,0.0455
1366.00,0.0426
1365.00,0.0413
1364.00,0.0414
1363.00,0.0426
1362.00,0.0444
1361.00,0.0463
1360.00,0.0477
1359.00,0.0480
1358.00,0.0468
1357.00,0.0442
1356.00,0.0407
1355.00,0.0368
1354.00,0.0331
1353.00,0.0299
1352.00,0.0273
1351.00,0.0252
1350.00,0.0234
1349.00,0.0219
1348.00,0.0207
1347.00,0.0196
1346.00,0.0187
1345.00,0.0179
1344.00,0.0172
1343.00,0.0167
1342.00,0.0162
1341.00,0.0159
1340.00,0.0156
1339.00,0.0154
1338.00,0.0152
1337.00,0.0151
1336.00,0.0151
1335.00,0.0153
1334.00,0.0155
1333.00,0.0158
1332.00,0.0161
1331.00,0.0164
1330.00,0.0165
1329.00,0.0164
1328.00,0.0161
1327.00,0.0157
1326.00,0.0152
1325.00,0.0147
1324.00,0.0141
1323.00,0.0136
1322.00,0.0132
1321.00,0.0130
1320.00,0.0128
1319.00,0.0126
1318.00,0.0125
1317.00,0.0122
1316.00,0.0121
1315.00,0.0120
1314.00,0.0119
1313.00,0.0120
1312.00,0.0120
1311.00,0.0123
1310.00,0.0127
1309.00,0.0134
1308.00,0.0145
1307.00,0.0157
1306.00,0.0169
1305.00,0.0177
1304.00,0.0178
1303.00,0.0175
1302.00,0.0169
1301.00,0.0162
1300.00,0.0158
1299.00,0.0156
1298.00,0.0156
1297.00,0.0155
1296.00,0.0154
1295.00,0.0153
1294.00,0.0149
1293.00,0.0145
1292.00,0.0140
1291.00,0.0136
1290.00,0.0132
1289.00,0.0128
1288.00,0.0124
1287.00,0.0121
1286.00,0.0118
1285.00,0.0116
1284.00,0.0114
1283.00,0.0112
1282.00,0.0111
1281.00,0.0110
1280.00,0.0109
1279.00,0.0108
1278.00,0.0108
1277.00,0.0107
1276.00,0.0106
1275.00,0.0106
1274.00,0.0106
1273.00,0.0106
1272.00,0.0106
1271.00,0.0106
1270.00,0.0107
1269.00,0.0108
1268.00,0.0110
1267.00,0.0113
1266.00,0.0116
1265.00,0.0120
1264.00,0.0123
1263.00,0.0127
1262.00,0.0131
1261.00,0.0136
1260.00,0.0142
1259.00,0.0149
1258.00,0.0156
1257.00,0.0162
1256.00,0.0164
1255.00,0.0160
1254.00,0.0153
1253.00,0.0143
1252.00,0.0133
1251.00,0.0125
1250.00,0.0118
1249.00,0.0114
1248.00,0.0111
1247.00,0.0109
1246.00,0.0107
1245.00,0.0106
1244.00,0.0104
1243.00,0.0103
1242.00,0.0102
1241.00,0.0101
1240.00,0.0099
1239.00,0.0099
1238.00,0.0099
1237.00,0.0099
1236.00,0.0099
1235.00,0.0099
1234.00,0.0099
1233.00,0.0100
1232.00,0.0100
1231.00,0.0101
1230.00,0.0102
1229.00,0.0103
1228.00,0.0104
1227.00,0.0106
1226.00,0.0108
1225.00,0.0111
1224.00,0.0114
1223.00,0.0117
1222.00,0.0119
1221.00,0.0122
1220.00,0.0124
1219.00,0.0125
1218.00,0.0124
1217.00,0.0122
1216.00,0.0120
1215.00,0.0117
1214.00,0.0114
1213.00,0.0112
1212.00,0.0111
1211.00,0.0110
1210.00,0.0109
1209.00,0.0108
1208.00,0.0107
1207.00,0.0106
1206.00,0.0105
1205.00,0.0104
1204.00,0.0103
1203.00,0.0102
1202.00,0.0103
1201.00,0.0103
1200.00,0.0104
1199.00,0.0104
1198.00,0.0105
1197.00,0.0105
1196.00,0.0105
1195.00,0.0105
1194.00,0.0105
1193.00,0.0105
1192.00,0.0105
1191.00,0.0105
1190.00,0.0106
1189.00,0.0106
1188.00,0.0105
1187.00,0.0105
1186.00,0.0105
1185.00,0.0106
1184.00,0.0108
1183.00,0.0110
1182.00,0.0112
1181.00,0.0115
1180.00,0.0120
1179.00,0.0125
1178.00,0.0132
1177.00,0.0142
1176.00,0.0155
1175.00,0.0172
1174.00,0.0193
1173.00,0.0220
1172.00,0.0253
1171.00,0.0288
1170.00,0.0322
1169.00,0.0349
1168.00,0.0365
1167.00,0.0366
1166.00,0.0356
1165.00,0.0339
1164.00,0.0318
1163.00,0.0298
1162.00,0.0281
1161.00,0.0267
1160.00,0.0255
1159.00,0.0247
1158.00,0.0240
1157.00,0.0236
1156.00,0.0232
1155.00,0.0230
1154.00,0.0227
1153.00,0.0223
1152.00,0.0218
1151.00,0.0211
1150.00,0.0203
1149.00,0.0193
1148.00,0.0183
1147.00,0.0173
1146.00,0.0165
1145.00,0.0157
1144.00,0.0150
1143.00,0.0143
1142.00,0.0137
1141.00,0.0131
1140.00,0.0126
1139.00,0.0121
1138.00,0.0118
1137.00,0.0115
1136.00,0.0112
1135.00,0.0111
1134.00,0.0110
1133.00,0.0109
1132.00,0.0109
1131.00,0.0109
1130.00,0.0110
1129.00,0.0111
1128.00,0.0112
1127.00,0.0113
1126.00,0.0114
1125.00,0.0114
1124.00,0.0115
1123.00,0.0116
1122.00,0.0117
1121.00,0.0118
1120.00,0.0119
1119.00,0.0120
1118.00,0.0122
1117.00,0.0124
1116.00,0.0126
1115.00,0.0127
1114.00,0.0129
1113.00,0.0131
1112.00,0.0133
1111.00,0.0136
1110.00,0.0139
1109.00,0.0143
1108.00,0.0148
1107.00,0.0153
1106.00,0.0159
1105.00,0.0164
1104.00,0.0168
1103.00,0.0170
1102.00,0.0169
1101.00,0.0166
1100.00,0.0162
1099.00,0.0156
1098.00,0.0150
1097.00,0.0145
1096.00,0.0140
1095.00,0.0136
1094.00,0.0133
1093.00,0.0131
1092.00,0.0129
1091.00,0.0128
1090.00,0.0126
1089.00,0.0124
1088.00,0.0122
1087.00,0.0122
1086.00,0.0122
1085.00,0.0123
1084.00,0.0123
1083.00,0.0123
1082.00,0.0122
1081.00,0.0120
1080.00,0.0118
1079.00,0.0117
1078.00,0.0117
1077.00,0.0117
1076.00,0.0116
1075.00,0.0116
1074.00,0.0116
1073.00,0.0116
1072.00,0.0116
1071.00,0.0115
1070.00,0.0114
1069.00,0.0114
1068.00,0.0114
1067.00,0.0115
1066.00,0.0116
1065.00,0.0117
1064.00,0.0118
1063.00,0.0119
1062.00,0.0121
1061.00,0.0122
1060.00,0.0123
1059.00,0.0125
1058.00,0.0126
1057.00,0.0128
1056.00,0.0129
1055.00,0.0132
1054.00,0.0134
1053.00,0.0138
1052.00,0.0142
1051.00,0.0146
1050.00,0.0151
1049.00,0.0157
1048.00,0.0164
1047.00,0.0170
1046.00,0.0175
1045.00,0.0177
1044.00,0.0177
1043.00,0.0175
1042.00,0.0172
1041.00,0.0169
1040.00,0.0166
1039.00,0.0165
1038.00,0.0165
1037.00,0.0166
1036.00,0.0166
1035.00,0.0166
1034.00,0.0164
1033.00,0.0163
1032.00,0.0161
1031.00,0.0160
1030.00,0.0160
1029.00,0.0160
1028.00,0.0161
1027.00,0.0163
1026.00,0.0165
1025.00,0.0168
1024.00,0.0170
1023.00,0.0173
1022.00,0.0175
1021.00,0.0178
1020.00,0.0179
1019.00,0.0180
1018.00,0.0181
1017.00,0.0181
1016.00,0.0181
1015.00,0.0180
1014.00,0.0179
1013.00,0.0178
1012.00,0.0177
1011.00,0.0177
1010.00,0.0176
1009.00,0.0177
1008.00,0.0179
1007.00,0.0182
1006.00,0.0190
1005.00,0.0201
1004.00,0.0218
1003.00,0.0243
1002.00,0.0277
1001.00,0.0318
1000.00,0.0362
999.00,0.0399
998.00,0.0417
997.00,0.0409
996.00,0.0377
995.00,0.0333
994.00,0.0286
993.00,0.0246
992.00,0.0215
991.00,0.0192
990.00,0.0176
989.00,0.0165
988.00,0.0157
987.00,0.0152
986.00,0.0150
985.00,0.0151
984.00,0.0154
983.00,0.0161
982.00,0.0171
981.00,0.0186
980.00,0.0209
979.00,0.0240
978.00,0.0278
977.00,0.0323
976.00,0.0372
975.00,0.0419
974.00,0.0454
973.00,0.0466
972.00,0.0448
971.00,0.0405
970.00,0.0347
969.00,0.0289
968.00,0.0240
967.00,0.0203
966.00,0.0176
965.00,0.0158
964.00,0.0145
963.00,0.0135
962.00,0.0128
961.00,0.0121
960.00,0.0115
959.00,0.0110
958.00,0.0107
957.00,0.0104
956.00,0.0102
955.00,0.0100
954.00,0.0098
953.00,0.0097
952.00,0.0095
951.00,0.0094
950.00,0.0093
949.00,0.0092
948.00,0.0091
947.00,0.0091
946.00,0.0092
945.00,0.0094
944.00,0.0098
943.00,0.0101
942.00,0.0105
941.00,0.0108
940.00,0.0108
939.00,0.0106
938.00,0.0102
937.00,0.0096
936.00,0.0091
935.00,0.0086
934.00,0.0083
933.00,0.0080
932.00,0.0079
931.00,0.0079
930.00,0.0079
929.00,0.0079
928.00,0.0079
927.00,0.0079
926.00,0.0078
925.00,0.0079
924.00,0.0079
923.00,0.0080
922.00,0.0079
921.00,0.0079
920.00,0.0079
919.00,0.0080
918.00,0.0081
917.00,0.0082
916.00,0.0082
915.00,0.0083
914.00,0.0083
913.00,0.0083
912.00,0.0084
911.00,0.0085
910.00,0.0087
909.00,0.0090
908.00,0.0093
907.00,0.0097
906.00,0.0104
905.00,0.0114
904.00,0.0127
903.00,0.0144
902.00,0.0163
901.00,0.0180
900.00,0.0190
899.00,0.0192
898.00,0.0184
897.00,0.0168
896.00,0.0150
895.00,0.0134
894.00,0.0121
893.00,0.0111
892.00,0.0103
891.00,0.0099
890.00,0.0096
889.00,0.0096
888.00,0.0096
887.00,0.0098
886.00,0.0101
885.00,0.0103
884.00,0.0106
883.00,0.0111
882.00,0.0119
881.00,0.0129
880.00,0.0142
879.00,0.0154
878.00,0.0166
877.00,0.0174
876.00,0.0180
875.00,0.0181
874.00,0.0179
873.00,0.0171
872.00,0.0159
871.00,0.0144
870.00,0.0130
869.00,0.0119
868.00,0.0111
867.00,0.0106
866.00,0.0105
865.00,0.0104
864.00,0.0104
863.00,0.0105
862.00,0.0104
861.00,0.0103
860.00,0.0103
859.00,0.0104
858.00,0.0106
857.00,0.0108
856.00,0.0110
855.00,0.0113
854.00,0.0116
853.00,0.0119
852.00,0.0122
851.00,0.0125
850.00,0.0130
849.00,0.0137
848.00,0.0148
847.00,0.0164
846.00,0.0187
845.00,0.0222
844.00,0.0271
843.00,0.0330
842.00,0.0379
841.00,0.0397
840.00,0.0372
839.00,0.0318
838.00,0.0257
837.00,0.0209
836.00,0.0177
835.00,0.0158
834.00,0.0146
833.00,0.0138
832.00,0.0133
831.00,0.0129
830.00,0.0126
829.00,0.0124
828.00,0.0123
827.00,0.0122
826.00,0.0120
825.00,0.0120
824.00,0.0120
823.00,0.0121
822.00,0.0122
821.00,0.0124
820.00,0.0126
819.00,0.0130
818.00,0.0134
817.00,0.0140
816.00,0.0148
815.00,0.0158
814.00,0.0173
813.00,0.0190
812.00,0.0210
811.00,0.0229
810.00,0.0242
809.00,0.0247
808.00,0.0241
807.00,0.0228
806.00,0.0211
805.00,0.0192
804.00,0.0176
803.00,0.0164
802.00,0.0155
801.00,0.0148
800.00,0.0141
799.00,0.0136
798.00,0.0132
797.00,0.0128
796.00,0.0125
795.00,0.0120
794.00,0.0116
793.00,0.0113
792.00,0.0110
791.00,0.0108
790.00,0.0106
789.00,0.0102
788.00,0.0098
787.00,0.0094
786.00,0.0091
785.00,0.0089
784.00,0.0088
783.00,0.0088
782.00,0.0088
781.00,0.0087
780.00,0.0085
779.00,0.0083
778.00,0.0082
777.00,0.0081
776.00,0.0082
775.00,0.0083
774.00,0.0084
773.00,0.0084
772.00,0.0084
771.00,0.0085
770.00,0.0085
769.00,0.0084
768.00,0.0083
767.00,0.0084
766.00,0.0084
765.00,0.0085
764.00,0.0085
763.00,0.0086
762.00,0.0087
761.00,0.0088
760.00,0.0088
759.00,0.0088
758.00,0.0089
757.00,0.0090
756.00,0.0092
755.00,0.0093
754.00,0.0094
753.00,0.0094
752.00,0.0094
751.00,0.0094
750.00,0.0094
749.00,0.0094
748.00,0.0096
747.00,0.0098
746.00,0.0100
745.00,0.0102
744.00,0.0104
743.00,0.0105
742.00,0.0107
741.00,0.0110
740.00,0.0113
739.00,0.0117
738.00,0.0121
737.00,0.0125
736.00,0.0128
735.00,0.0132
734.00,0.0137
733.00,0.0143
732.00,0.0150
731.00,0.0157
730.00,0.0162
729.00,0.0165
728.00,0.0166
727.00,0.0167
726.00,0.0169
725.00,0.0172
724.00,0.0177
723.00,0.0183
722.00,0.0189
721.00,0.0193
720.00,0.0193
719.00,0.0188
718.00,0.0180
717.00,0.0171
716.00,0.0163
715.00,0.0157
714.00,0.0154
713.00,0.0153
712.00,0.0150
711.00,0.0146
710.00,0.0141
709.00,0.0136
708.00,0.0132
707.00,0.0129
706.00,0.0126
705.00,0.0125
704.00,0.0125
703.00,0.0126
702.00,0.0126
701.00,0.0125
700.00,0.0123
699.00,0.0121
698.00,0.0119
697.00,0.0117
696.00,0.0116
695.00,0.0116
694.00,0.0117
693.00,0.0118
692.00,0.0118
691.00,0.0119
690.00,0.0120
689.00,0.0120
688.00,0.0121
687.00,0.0120
686.00,0.0119
685.00,0.0119
684.00,0.0119
683.00,0.0119
682.00,0.0118
681.00,0.0117
680.00,0.0116
679.00,0.0116
678.00,0.0117
677.00,0.0120
676.00,0.0123
675.00,0.0124
674.00,0.0126
673.00,0.0127
672.00,0.0129
671.00,0.0133
670.00,0.0136
669.00,0.0137
668.00,0.0135
667.00,0.0131
666.00,0.0125
665.00,0.0122
664.00,0.0121
663.00,0.0121
662.00,0.0121
661.00,0.0119
660.00,0.0118
659.00,0.0117
658.00,0.0115
657.00,0.0113
656.00,0.0111
655.00,0.0109
654.00,0.0108
653.00,0.0108
652.00,0.0108
651.00,0.0108
650.00,0.0108
649.00,0.0107
648.00,0.0106
647.00,0.0105
646.00,0.0106
645.00,0.0107
644.00,0.0107
643.00,0.0106
642.00,0.0105
641.00,0.0105
640.00,0.0106
639.00,0.0107
638.00,0.0108
637.00,0.0108
636.00,0.0108
635.00,0.0109
634.00,0.0110
633.00,0.0111
632.00,0.0113
631.00,0.0114
630.00,0.0115
629.00,0.0113
628.00,0.0110
627.00,0.0110
626.00,0.0111
625.00,0.0115
624.00,0.0116
623.00,0.0116
622.00,0.0114
621.00,0.0111
620.00,0.0109
619.00,0.0107
618.00,0.0106
617.00,0.0106
616.00,0.0106
615.00,0.0109
614.00,0.0111
613.00,0.0112
612.00,0.0112
611.00,0.0112
610.00,0.0113
609.00,0.0114
608.00,0.0114
607.00,0.0113
606.00,0.0113
605.00,0.0111
604.00,0.0108
603.00,0.0105
602.00,0.0103
601.00,0.0103
600.00,0.0104
599.00,0.0106
598.00,0.0108
597.00,0.0109
596.00,0.0109
595.00,0.0108
594.00,0.0109
593.00,0.0111
592.00,0.0115
591.00,0.0117
590.00,0.0118
589.00,0.0117
588.00,0.0115
587.00,0.0114
586.00,0.0115
585.00,0.0118
584.00,0.0121
583.00,0.0124
582.00,0.0125
581.00,0.0124
580.00,0.0122
579.00,0.0120
578.00,0.0118
577.00,0.0117
576.00,0.0116
575.00,0.0116
574.00,0.0114
573.00,0.0113
572.00,0.0111
571.00,0.0112
570.00,0.0113
569.00,0.0116
568.00,0.0119
567.00,0.0121
566.00,0.0122
565.00,0.0123
564.00,0.0124
563.00,0.0126
562.00,0.0128
561.00,0.0128
560.00,0.0127
559.00,0.0123
558.00,0.0118
557.00,0.0113
556.00,0.0110
555.00,0.0111
554.00,0.0115
553.00,0.0119
552.00,0.0122
551.00,0.0122
550.00,0.0119
549.00,0.0115
548.00,0.0111
547.00,0.0109
546.00,0.0110
545.00,0.0114
544.00,0.0118
543.00,0.0122
542.00,0.0125
541.00,0.0129
540.00,0.0133
539.00,0.0137
538.00,0.0141
537.00,0.0144
536.00,0.0145
535.00,0.0143
534.00,0.0141
533.00,0.0139
532.00,0.0139
531.00,0.0141
530.00,0.0142
529.00,0.0141
528.00,0.0139
527.00,0.0136
526.00,0.0132
525.00,0.0128
524.00,0.0124
523.00,0.0121
522.00,0.0119
521.00,0.0117
520.00,0.0113
519.00,0.0108
518.00,0.0105
517.00,0.0106
516.00,0.0111
515.00,0.0114
514.00,0.0113
513.00,0.0109
512.00,0.0107
511.00,0.0107
510.00,0.0108
509.00,0.0106
508.00,0.0102
507.00,0.0100
506.00,0.0102
505.00,0.0107
504.00,0.0111
503.00,0.0114
502.00,0.0118
501.00,0.0122
500.00,0.0124
499.00,0.0121
498.00,0.0116
497.00,0.0109
496.00,0.0107
495.00,0.0109
494.00,0.0113
493.00,0.0115
492.00,0.0113
491.00,0.0109
490.00,0.0108
489.00,0.0107
488.00,0.0104
487.00,0.0098
486.00,0.0091
485.00,0.0090
484.00,0.0096
483.00,0.0108
482.00,0.0120
481.00,0.0127
480.00,0.0130
479.00,0.0131
478.00,0.0133
477.00,0.0137
476.00,0.0138
475.00,0.0136
474.00,0.0135
473.00,0.0140
472.00,0.0152
471.00,0.0166
470.00,0.0176
469.00,0.0184
468.00,0.0193
467.00,0.0202
466.00,0.0211
465.00,0.0217
464.00,0.0224
463.00,0.0231
462.00,0.0237
461.00,0.0243
460.00,0.0245
459.00,0.0245
458.00,0.0242
457.00,0.0240
456.00,0.0240
455.00,0.0242
454.00,0.0239
453.00,0.0228
452.00,0.0212
451.00,0.0199
450.00,0.0191
