Created as New Dataset,Sample 033 By Administrator Date Wednesday, September 03 2025
cm-1,A
4000.00,0.0010
3999.00,0.0010
3998.00,0.0010
3997.00,0.0010
3996.00,0.0010
3995.00,0.0010
3994.00,0.0010
3993.00,0.0010
3992.00,0.0010
3991.00,0.0010
3990.00,0.0010
3989.00,0.0010
3988.00,0.0010
3987.00,0.0010
3986.00,0.0010
3985.00,0.0010
3984.00,0.0010
3983.00,0.0010
3982.00,0.0010
3981.00,0.0009
3980.00,0.0009
3979.00,0.0009
3978.00,0.0009
3977.00,0.0009
3976.00,0.0009
3975.00,0.0009
3974.00,0.0009
3973.00,0.0009
3972.00,0.0009
3971.00,0.0009
3970.00,0.0008
3969.00,0.0008
3968.00,0.0008
3967.00,0.0009
3966.00,0.0009
3965.00,0.0009
3964.00,0.0009
3963.00,0.0009
3962.00,0.0009
3961.00,0.0009
3960.00,0.0009
3959.00,0.0009
3958.00,0.0009
3957.00,0.0009
3956.00,0.0009
3955.00,0.0008
3954.00,0.0008
3953.00,0.0009
3952.00,0.0009
3951.00,0.0009
3950.00,0.0009
3949.00,0.0009
3948.00,0.0009
3947.00,0.0009
3946.00,0.0009
3945.00,0.0009
3944.00,0.0009
3943.00,0.0009
3942.00,0.0008
3941.00,0.0008
3940.00,0.0008
3939.00,0.0008
3938.00,0.0009
3937.00,0.0009
3936.00,0.0009
3935.00,0.0009
3934.00,0.0008
3933.00,0.0008
3932.00,0.0008
3931.00,0.0008
3930.00,0.0009
3929.00,0.0009
3928.00,0.0010
3927.00,0.0010
3926.00,0.0009
3925.00,0.0009
3924.00,0.0009
3923.00,0.0009
3922.00,0.0009
3921.00,0.0009
3920.00,0.0009
3919.00,0.0010
3918.00,0.0010
3917.00,0.0009
3916.00,0.0009
3915.00,0.0009
3914.00,0.0008
3913.00,0.0008
3912.00,0.0008
3911.00,0.0008
3910.00,0.0008
3909.00,0.0008
3908.00,0.0008
3907.00,0.0009
3906.00,0.0009
3905.00,0.0010
3904.00,0.0010
3903.00,0.0010
3902.00,0.0010
3901.00,0.0010
3900.00,0.0009
3899.00,0.0009
3898.00,0.0009
3897.00,0.0009
3896.00,0.0009
3895.00,0.0009
3894.00,0.0009
3893.00,0.0009
3892.00,0.0009
3891.00,0.0009
3890.00,0.0009
3889.00,0.0010
3888.00,0.0010
3887.00,0.0010
3886.00,0.0010
3885.00,0.0009
3884.00,0.0009
3883.00,0.0009
3882.00,0.0008
3881.00,0.0008
3880.00,0.0008
3879.00,0.0008
3878.00,0.0009
3877.00,0.0009
3876.00,0.0009
3875.00,0.0009
3874.00,0.0009
3873.00,0.0010
3872.00,0.0010
3871.00,0.0009
3870.00,0.0009
3869.00,0.0009
3868.00,0.0009
3867.00,0.0009
3866.00,0.0009
3865.00,0.0009
3864.00,0.0009
3863.00,0.0009
3862.00,0.0009
3861.00,0.0009
3860.00,0.0009
3859.00,0.0009
3858.00,0.0009
3857.00,0.0010
3856.00,0.0010
3855.00,0.0010
3854.00,0.0010
3853.00,0.0009
3852.00,0.0010
3851.00,0.0010
3850.00,0.0009
3849.00,0.0009
3848.00,0.0008
3847.00,0.0008
3846.00,0.0008
3845.00,0.0009
3844.00,0.0009
3843.00,0.0008
3842.00,0.0008
3841.00,0.0008
3840.00,0.0008
3839.00,0.0009
3838.00,0.0009
3837.00,0.0009
3836.00,0.0009
3835.00,0.0009
3834.00,0.0009
3833.00,0.0009
3832.00,0.0009
3831.00,0.0009
3830.00,0.0009
3829.00,0.0009
3828.00,0.0008
3827.00,0.0008
3826.00,0.0008
3825.00,0.0008
3824.00,0.0009
3823.00,0.0009
3822.00,0.0008
3821.00,0.0008
3820.00,0.0008
3819.00,0.0009
3818.00,0.0009
3817.00,0.0009
3816.00,0.0009
3815.00,0.0008
3814.00,0.0008
3813.00,0.0008
3812.00,0.0008
3811.00,0.0007
3810.00,0.0007
3809.00,0.0007
3808.00,0.0007
3807.00,0.0007
3806.00,0.0008
3805.00,0.0009
3804.00,0.0009
3803.00,0.0010
3802.00,0.0010
3801.00,0.0010
3800.00,0.0010
3799.00,0.0010
3798.00,0.0009
3797.00,0.0009
3796.00,0.0008
3795.00,0.0008
3794.00,0.0008
3793.00,0.0008
3792.00,0.0008
3791.00,0.0009
3790.00,0.0009
3789.00,0.0009
3788.00,0.0008
3787.00,0.0008
3786.00,0.0008
3785.00,0.0008
3784.00,0.0008
3783.00,0.0008
3782.00,0.0008
3781.00,0.0008
3780.00,0.0008
3779.00,0.0008
3778.00,0.0009
3777.00,0.0009
3776.00,0.0009
3775.00,0.0009
3774.00,0.0009
3773.00,0.0009
3772.00,0.0009
3771.00,0.0009
3770.00,0.0009
3769.00,0.0009
3768.00,0.0009
3767.00,0.0010
3766.00,0.0010
3765.00,0.0010
3764.00,0.0010
3763.00,0.0010
3762.00,0.0010
3761.00,0.0010
3760.00,0.0010
3759.00,0.0010
3758.00,0.0009
3757.00,0.0009
3756.00,0.0009
3755.00,0.0009
3754.00,0.0009
3753.00,0.0009
3752.00,0.0009
3751.00,0.0009
3750.00,0.0009
3749.00,0.0010
3748.00,0.0010
3747.00,0.0010
3746.00,0.0010
3745.00,0.0009
3744.00,0.0009
3743.00,0.0009
3742.00,0.0009
3741.00,0.0009
3740.00,0.0008
3739.00,0.0008
3738.00,0.0008
3737.00,0.0008
3736.00,0.0008
3735.00,0.0008
3734.00,0.0008
3733.00,0.0008
3732.00,0.0008
3731.00,0.0008
3730.00,0.0007
3729.00,0.0007
3728.00,0.0007
3727.00,0.0007
3726.00,0.0007
3725.00,0.0007
3724.00,0.0007
3723.00,0.0007
3722.00,0.0007
3721.00,0.0008
3720.00,0.0007
3719.00,0.0007
3718.00,0.0007
3717.00,0.0006
3716.00,0.0006
3715.00,0.0006
3714.00,0.0007
3713.00,0.0007
3712.00,0.0007
3711.00,0.0007
3710.00,0.0007
3709.00,0.0008
3708.00,0.0008
3707.00,0.0008
3706.00,0.0008
3705.00,0.0007
3704.00,0.0007
3703.00,0.0007
3702.00,0.0007
3701.00,0.0007
3700.00,0.0007
3699.00,0.0007
3698.00,0.0007
3697.00,0.0007
3696.00,0.0007
3695.00,0.0007
3694.00,0.0007
3693.00,0.0007
3692.00,0.0007
3691.00,0.0007
3690.00,0.0007
3689.00,0.0007
3688.00,0.0007
3687.00,0.0008
3686.00,0.0008
3685.00,0.0008
3684.00,0.0007
3683.00,0.0007
3682.00,0.0007
3681.00,0.0008
3680.00,0.0008
3679.00,0.0009
3678.00,0.0009
3677.00,0.0009
3676.00,0.0009
3675.00,0.0008
3674.00,0.0008
3673.00,0.0007
3672.00,0.0007
3671.00,0.0007
3670.00,0.0007
3669.00,0.0007
3668.00,0.0007
3667.00,0.0006
3666.00,0.0006
3665.00,0.0006
3664.00,0.0005
3663.00,0.0005
3662.00,0.0005
3661.00,0.0005
3660.00,0.0005
3659.00,0.0006
3658.00,0.0006
3657.00,0.0006
3656.00,0.0006
3655.00,0.0006
3654.00,0.0006
3653.00,0.0007
3652.00,0.0007
3651.00,0.0007
3650.00,0.0007
3649.00,0.0007
3648.00,0.0008
3647.00,0.0008
3646.00,0.0009
3645.00,0.0009
3644.00,0.0008
3643.00,0.0008
3642.00,0.0008
3641.00,0.0008
3640.00,0.0008
3639.00,0.0008
3638.00,0.0009
3637.00,0.0009
3636.00,0.0009
3635.00,0.0010
3634.00,0.0011
3633.00,0.0012
3632.00,0.0012
3631.00,0.0012
3630.00,0.0012
3629.00,0.0012
3628.00,0.0013
3627.00,0.0014
3626.00,0.0014
3625.00,0.0013
3624.00,0.0012
3623.00,0.0012
3622.00,0.0012
3621.00,0.0013
3620.00,0.0013
3619.00,0.0013
3618.00,0.0014
3617.00,0.0014
3616.00,0.0014
3615.00,0.0015
3614.00,0.0015
3613.00,0.0015
3612.00,0.0015
3611.00,0.0015
3610.00,0.0015
3609.00,0.0015
3608.00,0.0015
3607.00,0.0015
3606.00,0.0016
3605.00,0.0016
3604.00,0.0017
3603.00,0.0017
3602.00,0.0017
3601.00,0.0017
3600.00,0.0017
3599.00,0.0018
3598.00,0.0019
3597.00,0.0019
3596.00,0.0019
3595.00,0.0019
3594.00,0.0019
3593.00,0.0020
3592.00,0.0020
3591.00,0.0021
3590.00,0.0021
3589.00,0.0022
3588.00,0.0022
3587.00,0.0023
3586.00,0.0023
3585.00,0.0023
3584.00,0.0023
3583.00,0.0023
3582.00,0.0023
3581.00,0.0024
3580.00,0.0024
3579.00,0.0024
3578.00,0.0024
3577.00,0.0024
3576.00,0.0024
3575.00,0.0024
3574.00,0.0025
3573.00,0.0025
3572.00,0.0025
3571.00,0.0026
3570.00,0.0027
3569.00,0.0027
3568.00,0.0027
3567.00,0.0027
3566.00,0.0027
3565.00,0.0028
3564.00,0.0028
3563.00,0.0029
3562.00,0.0029
3561.00,0.0030
3560.00,0.0030
3559.00,0.0030
3558.00,0.0031
3557.00,0.0031
3556.00,0.0031
3555.00,0.0032
3554.00,0.0032
3553.00,0.0032
3552.00,0.0033
3551.00,0.0033
3550.00,0.0033
3549.00,0.0034
3548.00,0.0034
3547.00,0.0034
3546.00,0.0034
3545.00,0.0035
3544.00,0.0035
3543.00,0.0035
3542.00,0.0035
3541.00,0.0035
3540.00,0.0036
3539.00,0.0036
3538.00,0.0037
3537.00,0.0037
3536.00,0.0037
3535.00,0.0038
3534.00,0.0038
3533.00,0.0038
3532.00,0.0039
3531.00,0.0039
3530.00,0.0039
3529.00,0.0039
3528.00,0.0040
3527.00,0.0040
3526.00,0.0041
3525.00,0.0042
3524.00,0.0042
3523.00,0.0043
3522.00,0.0043
3521.00,0.0043
3520.00,0.0044
3519.00,0.0044
3518.00,0.0044
3517.00,0.0044
3516.00,0.0044
3515.00,0.0044
3514.00,0.0045
3513.00,0.0045
3512.00,0.0045
3511.00,0.0046
3510.00,0.0046
3509.00,0.0047
3508.00,0.0047
3507.00,0.0047
3506.00,0.0047
3505.00,0.0048
3504.00,0.0048
3503.00,0.0048
3502.00,0.0049
3501.00,0.0049
3500.00,0.0050
3499.00,0.0050
3498.00,0.0050
3497.00,0.0050
3496.00,0.0051
3495.00,0.0051
3494.00,0.0052
3493.00,0.0052
3492.00,0.0053
3491.00,0.0053
3490.00,0.0054
3489.00,0.0054
3488.00,0.0054
3487.00,0.0055
3486.00,0.0055
3485.00,0.0056
3484.00,0.0056
3483.00,0.0057
3482.00,0.0057
3481.00,0.0056
3480.00,0.0057
3479.00,0.0057
3478.00,0.0057
3477.00,0.0057
3476.00,0.0057
3475.00,0.0058
3474.00,0.0058
3473.00,0.0059
3472.00,0.0059
3471.00,0.0060
3470.00,0.0060
3469.00,0.0061
3468.00,0.0061
3467.00,0.0061
3466.00,0.0061
3465.00,0.0062
3464.00,0.0062
3463.00,0.0062
3462.00,0.0063
3461.00,0.0063
3460.00,0.0063
3459.00,0.0063
3458.00,0.0064
3457.00,0.0064
3456.00,0.0064
3455.00,0.0064
3454.00,0.0064
3453.00,0.0064
3452.00,0.0064
3451.00,0.0065
3450.00,0.0065
3449.00,0.0066
3448.00,0.0067
3447.00,0.0067
3446.00,0.0067
3445.00,0.0067
3444.00,0.0068
3443.00,0.0068
3442.00,0.0068
3441.00,0.0068
3440.00,0.0068
3439.00,0.0069
3438.00,0.0069
3437.00,0.0069
3436.00,0.0070
3435.00,0.0070
3434.00,0.0070
3433.00,0.0070
3432.00,0.0070
3431.00,0.0070
3430.00,0.0070
3429.00,0.0070
3428.00,0.0070
3427.00,0.0071
3426.00,0.0072
3425.00,0.0072
3424.00,0.0073
3423.00,0.0073
3422.00,0.0073
3421.00,0.0074
3420.00,0.0074
3419.00,0.0074
3418.00,0.0074
3417.00,0.0074
3416.00,0.0074
3415.00,0.0074
3414.00,0.0074
3413.00,0.0075
3412.00,0.0075
3411.00,0.0075
3410.00,0.0076
3409.00,0.0076
3408.00,0.0076
3407.00,0.0076
3406.00,0.0077
3405.00,0.0076
3404.00,0.0076
3403.00,0.0076
3402.00,0.0076
3401.00,0.0076
3400.00,0.0076
3399.00,0.0076
3398.00,0.0077
3397.00,0.0077
3396.00,0.0077
3395.00,0.0077
3394.00,0.0077
3393.00,0.0077
3392.00,0.0076
3391.00,0.0076
3390.00,0.0077
3389.00,0.0077
3388.00,0.0077
3387.00,0.0077
3386.00,0.0077
3385.00,0.0078
3384.00,0.0078
3383.00,0.0078
3382.00,0.0078
3381.00,0.0078
3380.00,0.0078
3379.00,0.0078
3378.00,0.0078
3377.00,0.0078
3376.00,0.0078
3375.00,0.0078
3374.00,0.0079
3373.00,0.0079
3372.00,0.0079
3371.00,0.0079
3370.00,0.0079
3369.00,0.0079
3368.00,0.0079
3367.00,0.0079
3366.00,0.0080
3365.00,0.0080
3364.00,0.0079
3363.00,0.0079
3362.00,0.0079
3361.00,0.0078
3360.00,0.0079
3359.00,0.0079
3358.00,0.0080
3357.00,0.0080
3356.00,0.0080
3355.00,0.0080
3354.00,0.0080
3353.00,0.0080
3352.00,0.0080
3351.00,0.0080
3350.00,0.0080
3349.00,0.0080
3348.00,0.0080
3347.00,0.0080
3346.00,0.0080
3345.00,0.0080
3344.00,0.0080
3343.00,0.0079
3342.00,0.0079
3341.00,0.0078
3340.00,0.0078
3339.00,0.0078
3338.00,0.0078
3337.00,0.0078
3336.00,0.0078
3335.00,0.0078
3334.00,0.0078
3333.00,0.0078
3332.00,0.0077
3331.00,0.0077
3330.00,0.0077
3329.00,0.0077
3328.00,0.0077
3327.00,0.0077
3326.00,0.0077
3325.00,0.0077
3324.00,0.0076
3323.00,0.0076
3322.00,0.0076
3321.00,0.0076
3320.00,0.0076
3319.00,0.0076
3318.00,0.0075
3317.00,0.0075
3316.00,0.0075
3315.00,0.0075
3314.00,0.0075
3313.00,0.0075
3312.00,0.0075
3311.00,0.0075
3310.00,0.0076
3309.00,0.0076
3308.00,0.0076
3307.00,0.0076
3306.00,0.0075
3305.00,0.0075
3304.00,0.0075
3303.00,0.0075
3302.00,0.0075
3301.00,0.0075
3300.00,0.0074
3299.00,0.0074
3298.00,0.0074
3297.00,0.0073
3296.00,0.0073
3295.00,0.0073
3294.00,0.0072
3293.00,0.0072
3292.00,0.0072
3291.00,0.0071
3290.00,0.0071
3289.00,0.0071
3288.00,0.0070
3287.00,0.0070
3286.00,0.0070
3285.00,0.0070
3284.00,0.0070
3283.00,0.0070
3282.00,0.0069
3281.00,0.0069
3280.00,0.0069
3279.00,0.0068
3278.00,0.0068
3277.00,0.0068
3276.00,0.0068
3275.00,0.0069
3274.00,0.0069
3273.00,0.0068
3272.00,0.0068
3271.00,0.0068
3270.00,0.0067
3269.00,0.0066
3268.00,0.0066
3267.00,0.0066
3266.00,0.0066
3265.00,0.0066
3264.00,0.0066
3263.00,0.0065
3262.00,0.0065
3261.00,0.0064
3260.00,0.0064
3259.00,0.0064
3258.00,0.0063
3257.00,0.0063
3256.00,0.0063
3255.00,0.0062
3254.00,0.0062
3253.00,0.0062
3252.00,0.0062
3251.00,0.0061
3250.00,0.0061
3249.00,0.0061
3248.00,0.0061
3247.00,0.0061
3246.00,0.0062
3245.00,0.0062
3244.00,0.0062
3243.00,0.0061
3242.00,0.0061
3241.00,0.0060
3240.00,0.0060
3239.00,0.0060
3238.00,0.0059
3237.00,0.0059
3236.00,0.0059
3235.00,0.0059
3234.00,0.0059
3233.00,0.0059
3232.00,0.0058
3231.00,0.0058
3230.00,0.0058
3229.00,0.0058
3228.00,0.0059
3227.00,0.0059
3226.00,0.0059
3225.00,0.0059
3224.00,0.0059
3223.00,0.0059
3222.00,0.0059
3221.00,0.0060
3220.00,0.0060
3219.00,0.0060
3218.00,0.0059
3217.00,0.0059
3216.00,0.0059
3215.00,0.0059
3214.00,0.0059
3213.00,0.0059
3212.00,0.0060
3211.00,0.0060
3210.00,0.0060
3209.00,0.0060
3208.00,0.0060
3207.00,0.0060
3206.00,0.0059
3205.00,0.0059
3204.00,0.0059
3203.00,0.0059
3202.00,0.0059
3201.00,0.0059
3200.00,0.0059
3199.00,0.0059
3198.00,0.0059
3197.00,0.0059
3196.00,0.0059
3195.00,0.0059
3194.00,0.0058
3193.00,0.0058
3192.00,0.0058
3191.00,0.0058
3190.00,0.0058
3189.00,0.0058
3188.00,0.0058
3187.00,0.0058
3186.00,0.0058
3185.00,0.0058
3184.00,0.0058
3183.00,0.0058
3182.00,0.0057
3181.00,0.0057
3180.00,0.0056
3179.00,0.0056
3178.00,0.0055
3177.00,0.0054
3176.00,0.0054
3175.00,0.0054
3174.00,0.0054
3173.00,0.0054
3172.00,0.0054
3171.00,0.0053
3170.00,0.0053
3169.00,0.0054
3168.00,0.0053
3167.00,0.0053
3166.00,0.0053
3165.00,0.0053
3164.00,0.0052
3163.00,0.0052
3162.00,0.0052
3161.00,0.0052
3160.00,0.0052
3159.00,0.0052
3158.00,0.0052
3157.00,0.0052
3156.00,0.0051
3155.00,0.0051
3154.00,0.0051
3153.00,0.0051
3152.00,0.0051
3151.00,0.0051
3150.00,0.0051
3149.00,0.0051
3148.00,0.0051
3147.00,0.0051
3146.00,0.0051
3145.00,0.0050
3144.00,0.0049
3143.00,0.0049
3142.00,0.0049
3141.00,0.0049
3140.00,0.0049
3139.00,0.0049
3138.00,0.0049
3137.00,0.0049
3136.00,0.0049
3135.00,0.0049
3134.00,0.0048
3133.00,0.0048
3132.00,0.0048
3131.00,0.0047
3130.00,0.0047
3129.00,0.0046
3128.00,0.0046
3127.00,0.0045
3126.00,0.0045
3125.00,0.0044
3124.00,0.0044
3123.00,0.0044
3122.00,0.0045
3121.00,0.0044
3120.00,0.0044
3119.00,0.0043
3118.00,0.0043
3117.00,0.0043
3116.00,0.0042
3115.00,0.0042
3114.00,0.0042
3113.00,0.0042
3112.00,0.0042
3111.00,0.0042
3110.00,0.0042
3109.00,0.0042
3108.00,0.0041
3107.00,0.0041
3106.00,0.0041
3105.00,0.0041
3104.00,0.0041
3103.00,0.0041
3102.00,0.0041
3101.00,0.0040
3100.00,0.0040
3099.00,0.0040
3098.00,0.0040
3097.00,0.0040
3096.00,0.0040
3095.00,0.0040
3094.00,0.0039
3093.00,0.0039
3092.00,0.0039
3091.00,0.0039
3090.00,0.0039
3089.00,0.0039
3088.00,0.0039
3087.00,0.0040
3086.00,0.0040
3085.00,0.0040
3084.00,0.0040
3083.00,0.0039
3082.00,0.0039
3081.00,0.0039
3080.00,0.0039
3079.00,0.0039
3078.00,0.0039
3077.00,0.0039
3076.00,0.0039
3075.00,0.0039
3074.00,0.0039
3073.00,0.0039
3072.00,0.0039
3071.00,0.0039
3070.00,0.0040
3069.00,0.0040
3068.00,0.0040
3067.00,0.0040
3066.00,0.0040
3065.00,0.0040
3064.00,0.0041
3063.00,0.0041
3062.00,0.0042
3061.00,0.0042
3060.00,0.0042
3059.00,0.0042
3058.00,0.0041
3057.00,0.0041
3056.00,0.0041
3055.00,0.0041
3054.00,0.0041
3053.00,0.0042
3052.00,0.0042
3051.00,0.0042
3050.00,0.0042
3049.00,0.0042
3048.00,0.0043
3047.00,0.0043
3046.00,0.0043
3045.00,0.0043
3044.00,0.0043
3043.00,0.0043
3042.00,0.0044
3041.00,0.0044
3040.00,0.0044
3039.00,0.0045
3038.00,0.0046
3037.00,0.0046
3036.00,0.0047
3035.00,0.0047
3034.00,0.0048
3033.00,0.0048
3032.00,0.0048
3031.00,0.0049
3030.00,0.0049
3029.00,0.0049
3028.00,0.0049
3027.00,0.0050
3026.00,0.0050
3025.00,0.0050
3024.00,0.0050
3023.00,0.0051
3022.00,0.0051
3021.00,0.0052
3020.00,0.0052
3019.00,0.0053
3018.00,0.0054
3017.00,0.0054
3016.00,0.0055
3015.00,0.0056
3014.00,0.0056
3013.00,0.0057
3012.00,0.0057
3011.00,0.0058
3010.00,0.0058
3009.00,0.0059
3008.00,0.0060
3007.00,0.0060
3006.00,0.0061
3005.00,0.0062
3004.00,0.0063
3003.00,0.0064
3002.00,0.0065
3001.00,0.0066
3000.00,0.0068
2999.00,0.0070
2998.00,0.0072
2997.00,0.0075
2996.00,0.0078
2995.00,0.0081
2994.00,0.0085
2993.00,0.0089
2992.00,0.0094
2991.00,0.0099
2990.00,0.0104
2989.00,0.0110
2988.00,0.0117
2987.00,0.0124
2986.00,0.0132
2985.00,0.0140
2984.00,0.0149
2983.00,0.0159
2982.00,0.0172
2981.00,0.0188
2980.00,0.0207
2979.00,0.0230
2978.00,0.0255
2977.00,0.0284
2976.00,0.0317
2975.00,0.0353
2974.00,0.0395
2973.00,0.0442
2972.00,0.0497
2971.00,0.0558
2970.00,0.0628
2969.00,0.0705
2968.00,0.0789
2967.00,0.0881
2966.00,0.0979
2965.00,0.1082
2964.00,0.1186
2963.00,0.1288
2962.00,0.1383
2961.00,0.1466
2960.00,0.1534
2959.00,0.1585
2958.00,0.1623
2957.00,0.1650
2956.00,0.1673
2955.00,0.1696
2954.00,0.1720
2953.00,0.1744
2952.00,0.1762
2951.00,0.1766
2950.00,0.1750
2949.00,0.1707
2948.00,0.1638
2947.00,0.1546
2946.00,0.1441
2945.00,0.1334
2944.00,0.1234
2943.00,0.1150
2942.00,0.1086
2941.00,0.1044
2940.00,0.1022
2939.00,0.1020
2938.00,0.1035
2937.00,0.1065
2936.00,0.1109
2935.00,0.1166
2934.00,0.1234
2933.00,0.1312
2932.00,0.1398
2931.00,0.1492
2930.00,0.1589
2929.00,0.1688
2928.00,0.1786
2927.00,0.1880
2926.00,0.1969
2925.00,0.2052
2924.00,0.2132
2923.00,0.2207
2922.00,0.2279
2921.00,0.2344
2920.00,0.2400
2919.00,0.2439
2918.00,0.2455
2917.00,0.2442
2916.00,0.2401
2915.00,0.2336
2914.00,0.2256
2913.00,0.2170
2912.00,0.2086
2911.00,0.2011
2910.00,0.1944
2909.00,0.1885
2908.00,0.1832
2907.00,0.1781
2906.00,0.1730
2905.00,0.1676
2904.00,0.1619
2903.00,0.1561
2902.00,0.1501
2901.00,0.1440
2900.00,0.1381
2899.00,0.1324
2898.00,0.1269
2897.00,0.1220
2896.00,0.1174
2895.00,0.1135
2894.00,0.1100
2893.00,0.1071
2892.00,0.1047
2891.00,0.1028
2890.00,0.1014
2889.00,0.1004
2888.00,0.0997
2887.00,0.0993
2886.00,0.0992
2885.00,0.0995
2884.00,0.1002
2883.00,0.1012
2882.00,0.1027
2881.00,0.1044
2880.00,0.1060
2879.00,0.1073
2878.00,0.1081
2877.00,0.1083
2876.00,0.1079
2875.00,0.1073
2874.00,0.1068
2873.00,0.1068
2872.00,0.1074
2871.00,0.1086
2870.00,0.1102
2869.00,0.1116
2868.00,0.1125
2867.00,0.1122
2866.00,0.1102
2865.00,0.1066
2864.00,0.1016
2863.00,0.0959
2862.00,0.0904
2861.00,0.0857
2860.00,0.0822
2859.00,0.0801
2858.00,0.0791
2857.00,0.0792
2856.00,0.0801
2855.00,0.0815
2854.00,0.0833
2853.00,0.0852
2852.00,0.0870
2851.00,0.0884
2850.00,0.0893
2849.00,0.0898
2848.00,0.0900
2847.00,0.0906
2846.00,0.0919
2845.00,0.0943
2844.00,0.0979
2843.00,0.1023
2842.00,0.1072
2841.00,0.1120
2840.00,0.1158
2839.00,0.1178
2838.00,0.1173
2837.00,0.1140
2836.00,0.1078
2835.00,0.0994
2834.00,0.0896
2833.00,0.0794
2832.00,0.0696
2831.00,0.0610
2830.00,0.0537
2829.00,0.0477
2828.00,0.0428
2827.00,0.0388
2826.00,0.0356
2825.00,0.0329
2824.00,0.0306
2823.00,0.0287
2822.00,0.0271
2821.00,0.0256
2820.00,0.0244
2819.00,0.0233
2818.00,0.0223
2817.00,0.0215
2816.00,0.0207
2815.00,0.0200
2814.00,0.0194
2813.00,0.0189
2812.00,0.0184
2811.00,0.0179
2810.00,0.0174
2809.00,0.0168
2808.00,0.0163
2807.00,0.0157
2806.00,0.0151
2805.00,0.0145
2804.00,0.0139
2803.00,0.0134
2802.00,0.0129
2801.00,0.0125
2800.00,0.0121
2799.00,0.0118
2798.00,0.0115
2797.00,0.0113
2796.00,0.0111
2795.00,0.0109
2794.00,0.0106
2793.00,0.0103
2792.00,0.0100
2791.00,0.0097
2790.00,0.0094
2789.00,0.0091
2788.00,0.0087
2787.00,0.0085
2786.00,0.0082
2785.00,0.0079
2784.00,0.0076
2783.00,0.0074
2782.00,0.0072
2781.00,0.0070
2780.00,0.0068
2779.00,0.0067
2778.00,0.0065
2777.00,0.0064
2776.00,0.0062
2775.00,0.0061
2774.00,0.0060
2773.00,0.0059
2772.00,0.0059
2771.00,0.0059
2770.00,0.0058
2769.00,0.0058
2768.00,0.0058
2767.00,0.0057
2766.00,0.0057
2765.00,0.0057
2764.00,0.0056
2763.00,0.0056
2762.00,0.0055
2761.00,0.0055
2760.00,0.0055
2759.00,0.0054
2758.00,0.0054
2757.00,0.0054
2756.00,0.0054
2755.00,0.0054
2754.00,0.0054
2753.00,0.0053
2752.00,0.0053
2751.00,0.0053
2750.00,0.0053
2749.00,0.0053
2748.00,0.0053
2747.00,0.0053
2746.00,0.0053
2745.00,0.0054
2744.00,0.0054
2743.00,0.0055
2742.00,0.0056
2741.00,0.0057
2740.00,0.0058
2739.00,0.0059
2738.00,0.0060
2737.00,0.0061
2736.00,0.0063
2735.00,0.0064
2734.00,0.0065
2733.00,0.0066
2732.00,0.0067
2731.00,0.0068
2730.00,0.0070
2729.00,0.0072
2728.00,0.0075
2727.00,0.0078
2726.00,0.0080
2725.00,0.0082
2724.00,0.0084
2723.00,0.0084
2722.00,0.0083
2721.00,0.0082
2720.00,0.0079
2719.00,0.0077
2718.00,0.0074
2717.00,0.0071
2716.00,0.0069
2715.00,0.0067
2714.00,0.0064
2713.00,0.0062
2712.00,0.0060
2711.00,0.0059
2710.00,0.0057
2709.00,0.0056
2708.00,0.0055
2707.00,0.0054
2706.00,0.0053
2705.00,0.0052
2704.00,0.0051
2703.00,0.0050
2702.00,0.0049
2701.00,0.0048
2700.00,0.0048
2699.00,0.0047
2698.00,0.0047
2697.00,0.0047
2696.00,0.0046
2695.00,0.0046
2694.00,0.0046
2693.00,0.0046
2692.00,0.0047
2691.00,0.0047
2690.00,0.0047
2689.00,0.0047
2688.00,0.0046
2687.00,0.0046
2686.00,0.0046
2685.00,0.0046
2684.00,0.0046
2683.00,0.0046
2682.00,0.0047
2681.00,0.0047
2680.00,0.0047
2679.00,0.0047
2678.00,0.0046
2677.00,0.0046
2676.00,0.0045
2675.00,0.0045
2674.00,0.0045
2673.00,0.0045
2672.00,0.0045
2671.00,0.0045
2670.00,0.0044
2669.00,0.0044
2668.00,0.0044
2667.00,0.0045
2666.00,0.0046
2665.00,0.0046
2664.00,0.0047
2663.00,0.0047
2662.00,0.0048
2661.00,0.0048
2660.00,0.0048
2659.00,0.0048
2658.00,0.0048
2657.00,0.0048
2656.00,0.0048
2655.00,0.0047
2654.00,0.0047
2653.00,0.0046
2652.00,0.0046
2651.00,0.0046
2650.00,0.0045
2649.00,0.0045
2648.00,0.0044
2647.00,0.0044
2646.00,0.0043
2645.00,0.0043
2644.00,0.0043
2643.00,0.0043
2642.00,0.0042
2641.00,0.0042
2640.00,0.0041
2639.00,0.0041
2638.00,0.0040
2637.00,0.0039
2636.00,0.0039
2635.00,0.0039
2634.00,0.0040
2633.00,0.0040
2632.00,0.0040
2631.00,0.0040
2630.00,0.0040
2629.00,0.0040
2628.00,0.0041
2627.00,0.0041
2626.00,0.0041
2625.00,0.0041
2624.00,0.0041
2623.00,0.0041
2622.00,0.0041
2621.00,0.0041
2620.00,0.0041
2619.00,0.0041
2618.00,0.0041
2617.00,0.0041
2616.00,0.0041
2615.00,0.0041
2614.00,0.0040
2613.00,0.0040
2612.00,0.0040
2611.00,0.0039
2610.00,0.0038
2609.00,0.0038
2608.00,0.0037
2607.00,0.0036
2606.00,0.0035
2605.00,0.0034
2604.00,0.0034
2603.00,0.0033
2602.00,0.0033
2601.00,0.0033
2600.00,0.0033
2599.00,0.0032
2598.00,0.0032
2597.00,0.0032
2596.00,0.0031
2595.00,0.0031
2594.00,0.0032
2593.00,0.0033
2592.00,0.0034
2591.00,0.0034
2590.00,0.0035
2589.00,0.0035
2588.00,0.0035
2587.00,0.0035
2586.00,0.0036
2585.00,0.0036
2584.00,0.0037
2583.00,0.0038
2582.00,0.0038
2581.00,0.0037
2580.00,0.0036
2579.00,0.0035
2578.00,0.0034
2577.00,0.0033
2576.00,0.0033
2575.00,0.0032
2574.00,0.0032
2573.00,0.0031
2572.00,0.0030
2571.00,0.0029
2570.00,0.0028
2569.00,0.0028
2568.00,0.0027
2567.00,0.0027
2566.00,0.0026
2565.00,0.0026
2564.00,0.0025
2563.00,0.0025
2562.00,0.0024
2561.00,0.0024
2560.00,0.0024
2559.00,0.0024
2558.00,0.0024
2557.00,0.0024
2556.00,0.0023
2555.00,0.0023
2554.00,0.0022
2553.00,0.0022
2552.00,0.0022
2551.00,0.0021
2550.00,0.0021
2549.00,0.0020
2548.00,0.0020
2547.00,0.0019
2546.00,0.0019
2545.00,0.0019
2544.00,0.0019
2543.00,0.0020
2542.00,0.0020
2541.00,0.0019
2540.00,0.0019
2539.00,0.0019
2538.00,0.0019
2537.00,0.0019
2536.00,0.0019
2535.00,0.0019
2534.00,0.0019
2533.00,0.0018
2532.00,0.0018
2531.00,0.0017
2530.00,0.0017
2529.00,0.0017
2528.00,0.0016
2527.00,0.0016
2526.00,0.0015
2525.00,0.0015
2524.00,0.0014
2523.00,0.0014
2522.00,0.0014
2521.00,0.0014
2520.00,0.0014
2519.00,0.0013
2518.00,0.0013
2517.00,0.0013
2516.00,0.0013
2515.00,0.0013
2514.00,0.0013
2513.00,0.0013
2512.00,0.0013
2511.00,0.0012
2510.00,0.0012
2509.00,0.0012
2508.00,0.0011
2507.00,0.0011
2506.00,0.0011
2505.00,0.0011
2504.00,0.0011
2503.00,0.0012
2502.00,0.0012
2501.00,0.0011
2500.00,0.0011
2499.00,0.0011
2498.00,0.0011
2497.00,0.0012
2496.00,0.0013
2495.00,0.0013
2494.00,0.0013
2493.00,0.0012
2492.00,0.0012
2491.00,0.0012
2490.00,0.0012
2489.00,0.0012
2488.00,0.0012
2487.00,0.0011
2486.00,0.0011
2485.00,0.0011
2484.00,0.0011
2483.00,0.0011
2482.00,0.0011
2481.00,0.0011
2480.00,0.0011
2479.00,0.0011
2478.00,0.0011
2477.00,0.0011
2476.00,0.0011
2475.00,0.0011
2474.00,0.0011
2473.00,0.0012
2472.00,0.0012
2471.00,0.0011
2470.00,0.0011
2469.00,0.0011
2468.00,0.0011
2467.00,0.0011
2466.00,0.0012
2465.00,0.0012
2464.00,0.0012
2463.00,0.0011
2462.00,0.0011
2461.00,0.0010
2460.00,0.0010
2459.00,0.0011
2458.00,0.0011
2457.00,0.0012
2456.00,0.0012
2455.00,0.0012
2454.00,0.0012
2453.00,0.0011
2452.00,0.0011
2451.00,0.0011
2450.00,0.0011
2449.00,0.0012
2448.00,0.0012
2447.00,0.0013
2446.00,0.0013
2445.00,0.0012
2444.00,0.0011
2443.00,0.0010
2442.00,0.0010
2441.00,0.0011
2440.00,0.0011
2439.00,0.0011
2438.00,0.0011
2437.00,0.0011
2436.00,0.0012
2435.00,0.0012
2434.00,0.0013
2433.00,0.0013
2432.00,0.0014
2431.00,0.0013
2430.00,0.0013
2429.00,0.0013
2428.00,0.0014
2427.00,0.0014
2426.00,0.0013
2425.00,0.0013
2424.00,0.0013
2423.00,0.0012
2422.00,0.0011
2421.00,0.0010
2420.00,0.0010
2419.00,0.0010
2418.00,0.0010
2417.00,0.0011
2416.00,0.0011
2415.00,0.0012
2414.00,0.0012
2413.00,0.0012
2412.00,0.0012
2411.00,0.0013
2410.00,0.0013
2409.00,0.0013
2408.00,0.0013
2407.00,0.0012
2406.00,0.0011
2405.00,0.0010
2404.00,0.0009
2403.00,0.0009
2402.00,0.0009
2401.00,0.0009
2400.00,0.0010
2399.00,0.0010
2398.00,0.0010
2397.00,0.0010
2396.00,0.0010
2395.00,0.0010
2394.00,0.0010
2393.00,0.0009
2392.00,0.0009
2391.00,0.0009
2390.00,0.0009
2389.00,0.0009
2388.00,0.0009
2387.00,0.0008
2386.00,0.0008
2385.00,0.0006
2384.00,0.0005
2383.00,0.0004
2382.00,0.0003
2381.00,0.0002
2380.00,0.0000
2379.00,-0.0000
2378.00,-0.0000
2377.00,0.0001
2376.00,0.0001
2375.00,0.0002
2374.00,0.0003
2373.00,0.0003
2372.00,0.0003
2371.00,0.0002
2370.00,0.0001
2369.00,0.0001
2368.00,0.0001
2367.00,0.0001
2366.00,0.0001
2365.00,0.0001
2364.00,0.0001
2363.00,0.0001
2362.00,0.0002
2361.00,0.0002
2360.00,0.0002
2359.00,0.0002
2358.00,0.0003
2357.00,0.0003
2356.00,0.0003
2355.00,0.0004
2354.00,0.0004
2353.00,0.0003
2352.00,0.0003
2351.00,0.0003
2350.00,0.0003
2349.00,0.0004
2348.00,0.0004
2347.00,0.0004
2346.00,0.0005
2345.00,0.0005
2344.00,0.0004
2343.00,0.0004
2342.00,0.0004
2341.00,0.0005
2340.00,0.0006
2339.00,0.0007
2338.00,0.0007
2337.00,0.0008
2336.00,0.0008
2335.00,0.0008
2334.00,0.0008
2333.00,0.0007
2332.00,0.0007
2331.00,0.0007
2330.00,0.0007
2329.00,0.0007
2328.00,0.0009
2327.00,0.0011
2326.00,0.0015
2325.00,0.0018
2324.00,0.0019
2323.00,0.0019
2322.00,0.0017
2321.00,0.0014
2320.00,0.0013
2319.00,0.0012
2318.00,0.0011
2317.00,0.0011
2316.00,0.0011
2315.00,0.0010
2314.00,0.0010
2313.00,0.0009
2312.00,0.0007
2311.00,0.0006
2310.00,0.0005
2309.00,0.0005
2308.00,0.0005
2307.00,0.0006
2306.00,0.0006
2305.00,0.0007
2304.00,0.0007
2303.00,0.0008
2302.00,0.0009
2301.00,0.0009
2300.00,0.0009
2299.00,0.0009
2298.00,0.0010
2297.00,0.0011
2296.00,0.0012
2295.00,0.0013
2294.00,0.0013
2293.00,0.0014
2292.00,0.0014
2291.00,0.0015
2290.00,0.0016
2289.00,0.0017
2288.00,0.0017
2287.00,0.0018
2286.00,0.0019
2285.00,0.0019
2284.00,0.0019
2283.00,0.0018
2282.00,0.0017
2281.00,0.0016
2280.00,0.0015
2279.00,0.0014
2278.00,0.0014
2277.00,0.0014
2276.00,0.0015
2275.00,0.0015
2274.00,0.0015
2273.00,0.0014
2272.00,0.0014
2271.00,0.0014
2270.00,0.0014
2269.00,0.0014
2268.00,0.0013
2267.00,0.0012
2266.00,0.0011
2265.00,0.0012
2264.00,0.0013
2263.00,0.0014
2262.00,0.0016
2261.00,0.0017
2260.00,0.0017
2259.00,0.0015
2258.00,0.0013
2257.00,0.0011
2256.00,0.0010
2255.00,0.0009
2254.00,0.0009
2253.00,0.0009
2252.00,0.0009
2251.00,0.0009
2250.00,0.0009
2249.00,0.0008
2248.00,0.0008
2247.00,0.0008
2246.00,0.0009
2245.00,0.0010
2244.00,0.0012
2243.00,0.0013
2242.00,0.0014
2241.00,0.0014
2240.00,0.0013
2239.00,0.0013
2238.00,0.0013
2237.00,0.0013
2236.00,0.0014
2235.00,0.0013
2234.00,0.0012
2233.00,0.0011
2232.00,0.0011
2231.00,0.0011
2230.00,0.0011
2229.00,0.0012
2228.00,0.0011
2227.00,0.0010
2226.00,0.0010
2225.00,0.0010
2224.00,0.0010
2223.00,0.0009
2222.00,0.0009
2221.00,0.0007
2220.00,0.0006
2219.00,0.0006
2218.00,0.0005
2217.00,0.0005
2216.00,0.0005
2215.00,0.0003
2214.00,0.0002
2213.00,0.0001
2212.00,0.0002
2211.00,0.0005
2210.00,0.0007
2209.00,0.0008
2208.00,0.0007
2207.00,0.0005
2206.00,0.0004
2205.00,0.0004
2204.00,0.0005
2203.00,0.0007
2202.00,0.0009
2201.00,0.0011
2200.00,0.0012
2199.00,0.0013
2198.00,0.0012
2197.00,0.0011
2196.00,0.0010
2195.00,0.0009
2194.00,0.0008
2193.00,0.0007
2192.00,0.0006
2191.00,0.0004
2190.00,0.0004
2189.00,0.0005
2188.00,0.0007
2187.00,0.0009
2186.00,0.0011
2185.00,0.0012
2184.00,0.0012
2183.00,0.0010
2182.00,0.0007
2181.00,0.0004
2180.00,0.0004
2179.00,0.0006
2178.00,0.0008
2177.00,0.0008
2176.00,0.0005
2175.00,0.0002
2174.00,0.0002
2173.00,0.0005
2172.00,0.0010
2171.00,0.0015
2170.00,0.0018
2169.00,0.0018
2168.00,0.0018
2167.00,0.0017
2166.00,0.0018
2165.00,0.0021
2164.00,0.0025
2163.00,0.0028
2162.00,0.0028
2161.00,0.0023
2160.00,0.0011
2159.00,-0.0006
2158.00,-0.0020
2157.00,-0.0028
2156.00,-0.0029
2155.00,-0.0028
2154.00,-0.0026
2153.00,-0.0023
2152.00,-0.0019
2151.00,-0.0013
2150.00,-0.0007
2149.00,-0.0004
2148.00,-0.0004
2147.00,-0.0005
2146.00,-0.0006
2145.00,-0.0007
2144.00,-0.0008
2143.00,-0.0011
2142.00,-0.0012
2141.00,-0.0012
2140.00,-0.0010
2139.00,-0.0007
2138.00,-0.0006
2137.00,-0.0006
2136.00,-0.0008
2135.00,-0.0011
2134.00,-0.0014
2133.00,-0.0015
2132.00,-0.0013
2131.00,-0.0011
2130.00,-0.0008
2129.00,-0.0005
2128.00,-0.0003
2127.00,-0.0003
2126.00,-0.0002
2125.00,-0.0002
2124.00,-0.0002
2123.00,-0.0002
2122.00,-0.0003
2121.00,-0.0002
2120.00,-0.0002
2119.00,-0.0002
2118.00,-0.0002
2117.00,-0.0001
2116.00,0.0000
2115.00,0.0002
2114.00,0.0004
2113.00,0.0006
2112.00,0.0008
2111.00,0.0008
2110.00,0.0006
2109.00,0.0004
2108.00,0.0003
2107.00,0.0002
2106.00,0.0003
2105.00,0.0004
2104.00,0.0005
2103.00,0.0006
2102.00,0.0006
2101.00,0.0006
2100.00,0.0005
2099.00,0.0005
2098.00,0.0003
2097.00,0.0001
2096.00,-0.0002
2095.00,-0.0003
2094.00,-0.0003
2093.00,-0.0001
2092.00,0.0002
2091.00,0.0004
2090.00,0.0004
2089.00,0.0003
2088.00,0.0002
2087.00,0.0002
2086.00,0.0003
2085.00,0.0003
2084.00,0.0004
2083.00,0.0005
2082.00,0.0006
2081.00,0.0007
2080.00,0.0007
2079.00,0.0007
2078.00,0.0006
2077.00,0.0006
2076.00,0.0005
2075.00,0.0005
2074.00,0.0003
2073.00,0.0003
2072.00,0.0003
2071.00,0.0003
2070.00,0.0003
2069.00,0.0003
2068.00,0.0001
2067.00,-0.0000
2066.00,-0.0002
2065.00,-0.0003
2064.00,-0.0002
2063.00,-0.0000
2062.00,0.0003
2061.00,0.0006
2060.00,0.0007
2059.00,0.0007
2058.00,0.0007
2057.00,0.0006
2056.00,0.0004
2055.00,0.0003
2054.00,0.0004
2053.00,0.0007
2052.00,0.0013
2051.00,0.0017
2050.00,0.0017
2049.00,0.0013
2048.00,0.0007
2047.00,0.0003
2046.00,0.0001
2045.00,0.0001
2044.00,0.0001
2043.00,0.0002
2042.00,0.0003
2041.00,0.0005
2040.00,0.0005
2039.00,0.0004
2038.00,0.0001
2037.00,-0.0000
2036.00,-0.0001
2035.00,-0.0000
2034.00,0.0001
2033.00,0.0001
2032.00,-0.0000
2031.00,-0.0003
2030.00,-0.0007
2029.00,-0.0009
2028.00,-0.0009
2027.00,-0.0010
2026.00,-0.0010
2025.00,-0.0009
2024.00,-0.0008
2023.00,-0.0008
2022.00,-0.0009
2021.00,-0.0010
2020.00,-0.0009
2019.00,-0.0009
2018.00,-0.0008
2017.00,-0.0008
2016.00,-0.0007
2015.00,-0.0006
2014.00,-0.0005
2013.00,-0.0005
2012.00,-0.0006
2011.00,-0.0006
2010.00,-0.0006
2009.00,-0.0007
2008.00,-0.0011
2007.00,-0.0016
2006.00,-0.0020
2005.00,-0.0019
2004.00,-0.0016
2003.00,-0.0013
2002.00,-0.0011
2001.00,-0.0010
2000.00,-0.0009
1999.00,-0.0007
1998.00,-0.0006
1997.00,-0.0006
1996.00,-0.0008
1995.00,-0.0010
1994.00,-0.0012
1993.00,-0.0012
1992.00,-0.0010
1991.00,-0.0008
1990.00,-0.0008
1989.00,-0.0009
1988.00,-0.0008
1987.00,-0.0006
1986.00,-0.0004
1985.00,-0.0002
1984.00,-0.0001
1983.00,-0.0000
1982.00,0.0002
1981.00,0.0006
1980.00,0.0009
1979.00,0.0008
1978.00,0.0003
1977.00,-0.0003
1976.00,-0.0008
1975.00,-0.0009
1974.00,-0.0009
1973.00,-0.0007
1972.00,-0.0005
1971.00,-0.0004
1970.00,-0.0004
1969.00,-0.0005
1968.00,-0.0007
1967.00,-0.0011
1966.00,-0.0014
1965.00,-0.0016
1964.00,-0.0015
1963.00,-0.0013
1962.00,-0.0012
1961.00,-0.0011
1960.00,-0.0011
1959.00,-0.0011
1958.00,-0.0012
1957.00,-0.0013
1956.00,-0.0012
1955.00,-0.0011
1954.00,-0.0011
1953.00,-0.0012
1952.00,-0.0013
1951.00,-0.0014
1950.00,-0.0015
1949.00,-0.0014
1948.00,-0.0012
1947.00,-0.0011
1946.00,-0.0011
1945.00,-0.0012
1944.00,-0.0013
1943.00,-0.0015
1942.00,-0.0015
1941.00,-0.0014
1940.00,-0.0012
1939.00,-0.0010
1938.00,-0.0009
1937.00,-0.0008
1936.00,-0.0008
1935.00,-0.0007
1934.00,-0.0007
1933.00,-0.0007
1932.00,-0.0007
1931.00,-0.0007
1930.00,-0.0006
1929.00,-0.0005
1928.00,-0.0004
1927.00,-0.0005
1926.00,-0.0006
1925.00,-0.0007
1924.00,-0.0008
1923.00,-0.0008
1922.00,-0.0007
1921.00,-0.0006
1920.00,-0.0006
1919.00,-0.0006
1918.00,-0.0005
1917.00,-0.0004
1916.00,-0.0003
1915.00,-0.0002
1914.00,-0.0002
1913.00,-0.0002
1912.00,-0.0002
1911.00,-0.0001
1910.00,-0.0000
1909.00,0.0001
1908.00,0.0001
1907.00,-0.0000
1906.00,-0.0002
1905.00,-0.0003
1904.00,-0.0003
1903.00,-0.0003
1902.00,-0.0001
1901.00,0.0001
1900.00,0.0002
1899.00,0.0002
1898.00,0.0002
1897.00,0.0002
1896.00,0.0002
1895.00,0.0002
1894.00,0.0002
1893.00,0.0002
1892.00,0.0002
1891.00,0.0001
1890.00,0.0000
1889.00,0.0000
1888.00,0.0000
1887.00,0.0000
1886.00,-0.0000
1885.00,-0.0001
1884.00,-0.0002
1883.00,-0.0003
1882.00,-0.0003
1881.00,-0.0003
1880.00,-0.0003
1879.00,-0.0002
1878.00,-0.0001
1877.00,-0.0001
1876.00,-0.0001
1875.00,-0.0000
1874.00,0.0000
1873.00,0.0001
1872.00,0.0001
1871.00,0.0000
1870.00,0.0000
1869.00,0.0001
1868.00,0.0002
1867.00,0.0002
1866.00,0.0003
1865.00,0.0002
1864.00,0.0002
1863.00,0.0002
1862.00,0.0002
1861.00,0.0002
1860.00,0.0003
1859.00,0.0003
1858.00,0.0003
1857.00,0.0004
1856.00,0.0004
1855.00,0.0005
1854.00,0.0005
1853.00,0.0005
1852.00,0.0004
1851.00,0.0004
1850.00,0.0004
1849.00,0.0004
1848.00,0.0004
1847.00,0.0004
1846.00,0.0004
1845.00,0.0005
1844.00,0.0005
1843.00,0.0006
1842.00,0.0005
1841.00,0.0005
1840.00,0.0004
1839.00,0.0003
1838.00,0.0003
1837.00,0.0004
1836.00,0.0005
1835.00,0.0005
1834.00,0.0005
1833.00,0.0005
1832.00,0.0004
1831.00,0.0004
1830.00,0.0004
1829.00,0.0005
1828.00,0.0006
1827.00,0.0006
1826.00,0.0006
1825.00,0.0006
1824.00,0.0006
1823.00,0.0005
1822.00,0.0005
1821.00,0.0004
1820.00,0.0003
1819.00,0.0002
1818.00,0.0001
1817.00,0.0001
1816.00,0.0001
1815.00,0.0002
1814.00,0.0003
1813.00,0.0003
1812.00,0.0004
1811.00,0.0004
1810.00,0.0005
1809.00,0.0005
1808.00,0.0006
1807.00,0.0006
1806.00,0.0006
1805.00,0.0006
1804.00,0.0006
1803.00,0.0006
1802.00,0.0006
1801.00,0.0005
1800.00,0.0005
1799.00,0.0006
1798.00,0.0007
1797.00,0.0007
1796.00,0.0007
1795.00,0.0007
1794.00,0.0007
1793.00,0.0008
1792.00,0.0008
1791.00,0.0009
1790.00,0.0009
1789.00,0.0009
1788.00,0.0009
1787.00,0.0009
1786.00,0.0009
1785.00,0.0010
1784.00,0.0010
1783.00,0.0010
1782.00,0.0010
1781.00,0.0010
1780.00,0.0010
1779.00,0.0009
1778.00,0.0009
1777.00,0.0009
1776.00,0.0010
1775.00,0.0010
1774.00,0.0010
1773.00,0.0011
1772.00,0.0011
1771.00,0.0012
1770.00,0.0013
1769.00,0.0013
1768.00,0.0013
1767.00,0.0012
1766.00,0.0012
1765.00,0.0013
1764.00,0.0013
1763.00,0.0014
1762.00,0.0015
1761.00,0.0015
1760.00,0.0016
1759.00,0.0016
1758.00,0.0017
1757.00,0.0017
1756.00,0.0018
1755.00,0.0019
1754.00,0.0019
1753.00,0.0020
1752.00,0.0020
1751.00,0.0021
1750.00,0.0021
1749.00,0.0022
1748.00,0.0023
1747.00,0.0024
1746.00,0.0025
1745.00,0.0025
1744.00,0.0026
1743.00,0.0026
1742.00,0.0027
1741.00,0.0028
1740.00,0.0029
1739.00,0.0029
1738.00,0.0029
1737.00,0.0029
1736.00,0.0030
1735.00,0.0030
1734.00,0.0030
1733.00,0.0030
1732.00,0.0031
1731.00,0.0030
1730.00,0.0030
1729.00,0.0031
1728.00,0.0031
1727.00,0.0031
1726.00,0.0031
1725.00,0.0030
1724.00,0.0030
1723.00,0.0030
1722.00,0.0030
1721.00,0.0030
1720.00,0.0030
1719.00,0.0029
1718.00,0.0028
1717.00,0.0027
1716.00,0.0028
1715.00,0.0029
1714.00,0.0030
1713.00,0.0030
1712.00,0.0029
1711.00,0.0029
1710.00,0.0029
1709.00,0.0029
1708.00,0.0029
1707.00,0.0029
1706.00,0.0029
1705.00,0.0028
1704.00,0.0029
1703.00,0.0029
1702.00,0.0029
1701.00,0.0030
1700.00,0.0030
1699.00,0.0031
1698.00,0.0031
1697.00,0.0032
1696.00,0.0033
1695.00,0.0035
1694.00,0.0036
1693.00,0.0037
1692.00,0.0038
1691.00,0.0038
1690.00,0.0039
1689.00,0.0041
1688.00,0.0042
1687.00,0.0043
1686.00,0.0045
1685.00,0.0046
1684.00,0.0048
1683.00,0.0049
1682.00,0.0050
1681.00,0.0051
1680.00,0.0052
1679.00,0.0052
1678.00,0.0053
1677.00,0.0054
1676.00,0.0056
1675.00,0.0058
1674.00,0.0059
1673.00,0.0059
1672.00,0.0060
1671.00,0.0060
1670.00,0.0061
1669.00,0.0063
1668.00,0.0064
1667.00,0.0065
1666.00,0.0065
1665.00,0.0065
1664.00,0.0065
1663.00,0.0065
1662.00,0.0066
1661.00,0.0067
1660.00,0.0068
1659.00,0.0069
1658.00,0.0069
1657.00,0.0069
1656.00,0.0070
1655.00,0.0070
1654.00,0.0070
1653.00,0.0072
1652.00,0.0075
1651.00,0.0076
1650.00,0.0076
1649.00,0.0076
1648.00,0.0077
1647.00,0.0078
1646.00,0.0079
1645.00,0.0081
1644.00,0.0082
1643.00,0.0082
1642.00,0.0083
1641.00,0.0084
1640.00,0.0085
1639.00,0.0087
1638.00,0.0087
1637.00,0.0088
1636.00,0.0088
1635.00,0.0088
1634.00,0.0088
1633.00,0.0088
1632.00,0.0087
1631.00,0.0086
1630.00,0.0086
1629.00,0.0086
1628.00,0.0085
1627.00,0.0085
1626.00,0.0085
1625.00,0.0085
1624.00,0.0085
1623.00,0.0085
1622.00,0.0084
1621.00,0.0083
1620.00,0.0083
1619.00,0.0082
1618.00,0.0082
1617.00,0.0081
1616.00,0.0081
1615.00,0.0081
1614.00,0.0081
1613.00,0.0081
1612.00,0.0080
1611.00,0.0080
1610.00,0.0080
1609.00,0.0080
1608.00,0.0080
1607.00,0.0080
1606.00,0.0080
1605.00,0.0080
1604.00,0.0079
1603.00,0.0079
1602.00,0.0078
1601.00,0.0078
1600.00,0.0078
1599.00,0.0078
1598.00,0.0078
1597.00,0.0078
1596.00,0.0078
1595.00,0.0079
1594.00,0.0079
1593.00,0.0080
1592.00,0.0080
1591.00,0.0081
1590.00,0.0081
1589.00,0.0082
1588.00,0.0084
1587.00,0.0086
1586.00,0.0087
1585.00,0.0090
1584.00,0.0093
1583.00,0.0096
1582.00,0.0100
1581.00,0.0104
1580.00,0.0108
1579.00,0.0111
1578.00,0.0113
1577.00,0.0114
1576.00,0.0114
1575.00,0.0113
1574.00,0.0111
1573.00,0.0109
1572.00,0.0108
1571.00,0.0105
1570.00,0.0102
1569.00,0.0099
1568.00,0.0098
1567.00,0.0096
1566.00,0.0095
1565.00,0.0094
1564.00,0.0093
1563.00,0.0093
1562.00,0.0093
1561.00,0.0094
1560.00,0.0095
1559.00,0.0095
1558.00,0.0095
1557.00,0.0096
1556.00,0.0097
1555.00,0.0098
1554.00,0.0098
1553.00,0.0100
1552.00,0.0101
1551.00,0.0103
1550.00,0.0105
1549.00,0.0107
1548.00,0.0110
1547.00,0.0113
1546.00,0.0116
1545.00,0.0120
1544.00,0.0123
1543.00,0.0126
1542.00,0.0128
1541.00,0.0128
1540.00,0.0126
1539.00,0.0121
1538.00,0.0117
1537.00,0.0112
1536.00,0.0108
1535.00,0.0103
1534.00,0.0096
1533.00,0.0091
1532.00,0.0087
1531.00,0.0084
1530.00,0.0082
1529.00,0.0080
1528.00,0.0078
1527.00,0.0076
1526.00,0.0075
1525.00,0.0074
1524.00,0.0074
1523.00,0.0074
1522.00,0.0074
1521.00,0.0073
1520.00,0.0073
1519.00,0.0072
1518.00,0.0072
1517.00,0.0071
1516.00,0.0071
1515.00,0.0071
1514.00,0.0071
1513.00,0.0072
1512.00,0.0073
1511.00,0.0074
1510.00,0.0074
1509.00,0.0074
1508.00,0.0075
1507.00,0.0074
1506.00,0.0074
1505.00,0.0077
1504.00,0.0079
1503.00,0.0081
1502.00,0.0083
1501.00,0.0085
1500.00,0.0089
1499.00,0.0091
1498.00,0.0094
1497.00,0.0098
1496.00,0.0102
1495.00,0.0105
1494.00,0.0108
1493.00,0.0111
1492.00,0.0116
1491.00,0.0121
1490.00,0.0127
1489.00,0.0133
1488.00,0.0139
1487.00,0.0144
1486.00,0.0150
1485.00,0.0157
1484.00,0.0165
1483.00,0.0174
1482.00,0.0184
1481.00,0.0196
1480.00,0.0209
1479.00,0.0223
1478.00,0.0238
1477.00,0.0258
1476.00,0.0283
1475.00,0.0311
1474.00,0.0348
1473.00,0.0402
1472.00,0.0466
1471.00,0.0528
1470.00,0.0586
1469.00,0.0647
1468.00,0.0712
1467.00,0.0783
1466.00,0.0862
1465.00,0.0946
1464.00,0.1018
1463.00,0.1069
1462.00,0.1101
1461.00,0.1123
1460.00,0.1139
1459.00,0.1151
1458.00,0.1163
1457.00,0.1175
1456.00,0.1180
1455.00,0.1176
1454.00,0.1168
1453.00,0.1154
1452.00,0.1132
1451.00,0.1100
1450.00,0.1053
1449.00,0.0987
1448.00,0.0901
1447.00,0.0808
1446.00,0.0724
1445.00,0.0651
1444.00,0.0588
1443.00,0.0536
1442.00,0.0496
1441.00,0.0467
1440.00,0.0449
1439.00,0.0440
1438.00,0.0437
1437.00,0.0435
1436.00,0.0423
1435.00,0.0399
1434.00,0.0365
1433.00,0.0326
1432.00,0.0285
1431.00,0.0248
1430.00,0.0219
1429.00,0.0197
1428.00,0.0182
1427.00,0.0173
1426.00,0.0167
1425.00,0.0161
1424.00,0.0156
1423.00,0.0153
1422.00,0.0152
1421.00,0.0150
1420.00,0.0147
1419.00,0.0144
1418.00,0.0141
1417.00,0.0137
1416.00,0.0134
1415.00,0.0132
1414.00,0.0131
1413.00,0.0128
1412.00,0.0126
1411.00,0.0124
1410.00,0.0123
1409.00,0.0122
1408.00,0.0121
1407.00,0.0120
1406.00,0.0120
1405.00,0.0119
1404.00,0.0118
1403.00,0.0118
1402.00,0.0120
1401.00,0.0120
1400.00,0.0121
1399.00,0.0121
1398.00,0.0123
1397.00,0.0124
1396.00,0.0125
1395.00,0.0128
1394.00,0.0133
1393.00,0.0137
1392.00,0.0142
1391.00,0.0149
1390.00,0.0159
1389.00,0.0172
1388.00,0.0192
1387.00,0.0221
1386.00,0.0262
1385.00,0.0315
1384.00,0.0389
1383.00,0.0492
1382.00,0.0630
1381.00,0.0806
1380.00,0.1017
1379.00,0.1249
1378.00,0.1462
1377.00,0.1606
1376.00,0.1640
1375.00,0.1544
1374.00,0.1347
1373.00,0.1117
1372.00,0.0910
1371.00,0.0740
1370.00,0.0604
1369.00,0.0500
1368.00,0.0428
1367.00,0.0383
1366.00,0.0358
1365.00,0.0347
1364.00,0.0348
1363.00,0.0359
1362.00,0.0376
1361.00,0.0395
1360.00,0.0409
1359.00,0.0414
1358.00,0.0406
1357.00,0.0385
1356.00,0.0355
1355.00,0.0321
1354.00,0.0287
1353.00,0.0259
1352.00,0.0236
1351.00,0.0217
1350.00,0.0202
1349.00,0.0190
1348.00,0.0179
1347.00,0.0171
1346.00,0.0163
1345.00,0.0156
1344.00,0.0150
1343.00,0.0145
1342.00,0.0140
1341.00,0.0135
1340.00,0.0132
1339.00,0.0129
1338.00,0.0127
1337.00,0.0127
1336.00,0.0128
1335.00,0.0130
1334.00,0.0132
1333.00,0.0136
1332.00,0.0139
1331.00,0.0142
1330.00,0.0143
1329.00,0.0143
1328.00,0.0140
1327.00,0.0136
1326.00,0.0131
1325.00,0.0125
1324.00,0.0120
1323.00,0.0116
1322.00,0.0112
1321.00,0.0110
1320.00,0.0108
1319.00,0.0107
1318.00,0.0105
1317.00,0.0104
1316.00,0.0104
1315.00,0.0103
1314.00,0.0103
1313.00,0.0103
1312.00,0.0104
1311.00,0.0107
1310.00,0.0111
1309.00,0.0119
1308.00,0.0130
1307.00,0.0144
1306.00,0.0157
1305.00,0.0166
1304.00,0.0168
1303.00,0.0163
1302.00,0.0156
1301.00,0.0150
1300.00,0.0145
1299.00,0.0141
1298.00,0.0140
1297.00,0.0138
1296.00,0.0137
1295.00,0.0134
1294.00,0.0131
1293.00,0.0127
1292.00,0.0122
1291.00,0.0117
1290.00,0.0113
1289.00,0.0109
1288.00,0.0106
1287.00,0.0103
1286.00,0.0101
1285.00,0.0100
1284.00,0.0099
1283.00,0.0097
1282.00,0.0096
1281.00,0.0095
1280.00,0.0094
1279.00,0.0093
1278.00,0.0093
1277.00,0.0092
1276.00,0.0092
1275.00,0.0091
1274.00,0.0091
1273.00,0.0091
1272.00,0.0091
1271.00,0.0092
1270.00,0.0093
1269.00,0.0094
1268.00,0.0096
1267.00,0.0099
1266.00,0.0102
1265.00,0.0106
1264.00,0.0110
1263.00,0.0114
1262.00,0.0118
1261.00,0.0123
1260.00,0.0129
1259.00,0.0137
1258.00,0.0145
1257.00,0.0151
1256.00,0.0154
1255.00,0.0150
1254.00,0.0142
1253.00,0.0132
1252.00,0.0122
1251.00,0.0114
1250.00,0.0109
1249.00,0.0105
1248.00,0.0102
1247.00,0.0099
1246.00,0.0096
1245.00,0.0094
1244.00,0.0092
1243.00,0.0091
1242.00,0.0090
1241.00,0.0089
1240.00,0.0088
1239.00,0.0088
1238.00,0.0087
1237.00,0.0086
1236.00,0.0086
1235.00,0.0087
1234.00,0.0087
1233.00,0.0088
1232.00,0.0089
1231.00,0.0090
1230.00,0.0091
1229.00,0.0093
1228.00,0.0095
1227.00,0.0097
1226.00,0.0100
1225.00,0.0102
1224.00,0.0105
1223.00,0.0108
1222.00,0.0112
1221.00,0.0115
1220.00,0.0116
1219.00,0.0117
1218.00,0.0117
1217.00,0.0116
1216.00,0.0113
1215.00,0.0109
1214.00,0.0106
1213.00,0.0102
1212.00,0.0100
1211.00,0.0098
1210.00,0.0097
1209.00,0.0095
1208.00,0.0094
1207.00,0.0094
1206.00,0.0093
1205.00,0.0093
1204.00,0.0092
1203.00,0.0092
1202.00,0.0093
1201.00,0.0093
1200.00,0.0093
1199.00,0.0093
1198.00,0.0092
1197.00,0.0092
1196.00,0.0092
1195.00,0.0093
1194.00,0.0093
1193.00,0.0093
1192.00,0.0093
1191.00,0.0094
1190.00,0.0094
1189.00,0.0094
1188.00,0.0095
1187.00,0.0095
1186.00,0.0096
1185.00,0.0096
1184.00,0.0096
1183.00,0.0097
1182.00,0.0099
1181.00,0.0103
1180.00,0.0107
1179.00,0.0113
1178.00,0.0119
1177.00,0.0128
1176.00,0.0140
1175.00,0.0156
1174.00,0.0179
1173.00,0.0208
1172.00,0.0243
1171.00,0.0281
1170.00,0.0318
1169.00,0.0347
1168.00,0.0364
1167.00,0.0366
1166.00,0.0355
1165.00,0.0335
1164.00,0.0312
1163.00,0.0290
1162.00,0.0271
1161.00,0.0255
1160.00,0.0243
1159.00,0.0233
1158.00,0.0225
1157.00,0.0219
1156.00,0.0215
1155.00,0.0213
1154.00,0.0211
1153.00,0.0208
1152.00,0.0204
1151.00,0.0198
1150.00,0.0190
1149.00,0.0181
1148.00,0.0172
1147.00,0.0164
1146.00,0.0156
1145.00,0.0149
1144.00,0.0143
1143.00,0.0137
1142.00,0.0132
1141.00,0.0127
1140.00,0.0122
1139.00,0.0119
1138.00,0.0116
1137.00,0.0114
1136.00,0.0111
1135.00,0.0109
1134.00,0.0107
1133.00,0.0106
1132.00,0.0106
1131.00,0.0106
1130.00,0.0106
1129.00,0.0107
1128.00,0.0108
1127.00,0.0110
1126.00,0.0112
1125.00,0.0114
1124.00,0.0116
1123.00,0.0118
1122.00,0.0119
1121.00,0.0121
1120.00,0.0122
1119.00,0.0124
1118.00,0.0126
1117.00,0.0128
1116.00,0.0129
1115.00,0.0130
1114.00,0.0130
1113.00,0.0131
1112.00,0.0132
1111.00,0.0134
1110.00,0.0136
1109.00,0.0139
1108.00,0.0144
1107.00,0.0149
1106.00,0.0154
1105.00,0.0159
1104.00,0.0162
1103.00,0.0163
1102.00,0.0162
1101.00,0.0158
1100.00,0.0152
1099.00,0.0146
1098.00,0.0140
1097.00,0.0134
1096.00,0.0130
1095.00,0.0126
1094.00,0.0123
1093.00,0.0119
1092.00,0.0116
1091.00,0.0114
1090.00,0.0112
1089.00,0.0112
1088.00,0.0111
1087.00,0.0111
1086.00,0.0112
1085.00,0.0112
1084.00,0.0111
1083.00,0.0109
1082.00,0.0107
1081.00,0.0105
1080.00,0.0104
1079.00,0.0104
1078.00,0.0104
1077.00,0.0102
1076.00,0.0100
1075.00,0.0098
1074.00,0.0097
1073.00,0.0097
1072.00,0.0097
1071.00,0.0097
1070.00,0.0098
1069.00,0.0098
1068.00,0.0098
1067.00,0.0098
1066.00,0.0098
1065.00,0.0098
1064.00,0.0099
1063.00,0.0099
1062.00,0.0100
1061.00,0.0101
1060.00,0.0102
1059.00,0.0103
1058.00,0.0103
1057.00,0.0102
1056.00,0.0102
1055.00,0.0104
1054.00,0.0107
1053.00,0.0112
1052.00,0.0117
1051.00,0.0121
1050.00,0.0125
1049.00,0.0131
1048.00,0.0137
1047.00,0.0142
1046.00,0.0147
1045.00,0.0150
1044.00,0.0151
1043.00,0.0149
1042.00,0.0147
1041.00,0.0144
1040.00,0.0141
1039.00,0.0140
1038.00,0.0140
1037.00,0.0139
1036.00,0.0138
1035.00,0.0138
1034.00,0.0137
1033.00,0.0136
1032.00,0.0134
1031.00,0.0133
1030.00,0.0133
1029.00,0.0134
1028.00,0.0135
1027.00,0.0136
1026.00,0.0137
1025.00,0.0138
1024.00,0.0140
1023.00,0.0142
1022.00,0.0145
1021.00,0.0148
1020.00,0.0150
1019.00,0.0151
1018.00,0.0152
1017.00,0.0151
1016.00,0.0151
1015.00,0.0151
1014.00,0.0152
1013.00,0.0153
1012.00,0.0153
1011.00,0.0154
1010.00,0.0155
1009.00,0.0157
1008.00,0.0160
1007.00,0.0165
1006.00,0.0173
1005.00,0.0185
1004.00,0.0203
1003.00,0.0230
1002.00,0.0265
1001.00,0.0311
1000.00,0.0359
999.00,0.0401
998.00,0.0424
997.00,0.0418
996.00,0.0387
995.00,0.0340
994.00,0.0290
993.00,0.0246
992.00,0.0212
991.00,0.0187
990.00,0.0169
989.00,0.0157
988.00,0.0150
987.00,0.0145
986.00,0.0143
985.00,0.0143
984.00,0.0145
983.00,0.0151
982.00,0.0161
981.00,0.0177
980.00,0.0199
979.00,0.0229
978.00,0.0268
977.00,0.0316
976.00,0.0368
975.00,0.0420
974.00,0.0459
973.00,0.0476
972.00,0.0463
971.00,0.0421
970.00,0.0361
969.00,0.0299
968.00,0.0245
967.00,0.0204
966.00,0.0175
965.00,0.0154
964.00,0.0140
963.00,0.0128
962.00,0.0120
961.00,0.0114
960.00,0.0109
959.00,0.0104
958.00,0.0100
957.00,0.0096
956.00,0.0093
955.00,0.0091
954.00,0.0088
953.00,0.0086
952.00,0.0084
951.00,0.0083
950.00,0.0083
949.00,0.0082
948.00,0.0082
947.00,0.0083
946.00,0.0084
945.00,0.0086
944.00,0.0090
943.00,0.0093
942.00,0.0097
941.00,0.0099
940.00,0.0099
939.00,0.0097
938.00,0.0092
937.00,0.0087
936.00,0.0082
935.00,0.0079
934.00,0.0078
933.00,0.0077
932.00,0.0076
931.00,0.0076
930.00,0.0075
929.00,0.0075
928.00,0.0074
927.00,0.0074
926.00,0.0074
925.00,0.0074
924.00,0.0074
923.00,0.0074
922.00,0.0074
921.00,0.0074
920.00,0.0074
919.00,0.0074
918.00,0.0075
917.00,0.0075
916.00,0.0076
915.00,0.0076
914.00,0.0077
913.00,0.0077
912.00,0.0077
911.00,0.0079
910.00,0.0081
909.00,0.0084
908.00,0.0088
907.00,0.0092
906.00,0.0099
905.00,0.0108
904.00,0.0120
903.00,0.0136
902.00,0.0152
901.00,0.0167
900.00,0.0177
899.00,0.0178
898.00,0.0171
897.00,0.0157
896.00,0.0141
895.00,0.0125
894.00,0.0112
893.00,0.0102
892.00,0.0096
891.00,0.0092
890.00,0.0089
889.00,0.0087
888.00,0.0086
887.00,0.0085
886.00,0.0084
885.00,0.0084
884.00,0.0083
883.00,0.0083
882.00,0.0083
881.00,0.0084
880.00,0.0085
879.00,0.0086
878.00,0.0087
877.00,0.0087
876.00,0.0088
875.00,0.0089
874.00,0.0090
873.00,0.0090
872.00,0.0090
871.00,0.0090
870.00,0.0089
869.00,0.0089
868.00,0.0088
867.00,0.0088
866.00,0.0088
865.00,0.0088
864.00,0.0090
863.00,0.0092
862.00,0.0094
861.00,0.0095
860.00,0.0095
859.00,0.0096
858.00,0.0098
857.00,0.0100
856.00,0.0102
855.00,0.0103
854.00,0.0106
853.00,0.0108
852.00,0.0111
851.00,0.0115
850.00,0.0120
849.00,0.0127
848.00,0.0136
847.00,0.0151
846.00,0.0177
845.00,0.0217
844.00,0.0275
843.00,0.0342
842.00,0.0400
841.00,0.0423
840.00,0.0400
839.00,0.0341
838.00,0.0273
837.00,0.0216
836.00,0.0178
835.00,0.0154
834.00,0.0140
833.00,0.0131
832.00,0.0125
831.00,0.0120
830.00,0.0116
829.00,0.0113
828.00,0.0112
827.00,0.0112
826.00,0.0111
825.00,0.0111
824.00,0.0111
823.00,0.0111
822.00,0.0111
821.00,0.0111
820.00,0.0112
819.00,0.0114
818.00,0.0118
817.00,0.0123
816.00,0.0130
815.00,0.0139
814.00,0.0153
813.00,0.0169
812.00,0.0187
811.00,0.0204
810.00,0.0216
809.00,0.0220
808.00,0.0217
807.00,0.0206
806.00,0.0191
805.00,0.0175
804.00,0.0161
803.00,0.0150
802.00,0.0141
801.00,0.0133
800.00,0.0126
799.00,0.0120
798.00,0.0117
797.00,0.0113
796.00,0.0110
795.00,0.0108
794.00,0.0105
793.00,0.0103
792.00,0.0101
791.00,0.0098
790.00,0.0095
789.00,0.0091
788.00,0.0088
787.00,0.0085
786.00,0.0083
785.00,0.0082
784.00,0.0082
783.00,0.0082
782.00,0.0082
781.00,0.0082
780.00,0.0081
779.00,0.0080
778.00,0.0080
777.00,0.0080
776.00,0.0079
775.00,0.0079
774.00,0.0078
773.00,0.0077
772.00,0.0077
771.00,0.0077
770.00,0.0077
769.00,0.0077
768.00,0.0079
767.00,0.0081
766.00,0.0082
765.00,0.0082
764.00,0.0082
763.00,0.0081
762.00,0.0079
761.00,0.0078
760.00,0.0077
759.00,0.0078
758.00,0.0080
757.00,0.0082
756.00,0.0084
755.00,0.0085
754.00,0.0087
753.00,0.0087
752.00,0.0088
751.00,0.0088
750.00,0.0089
749.00,0.0090
748.00,0.0092
747.00,0.0095
746.00,0.0099
745.00,0.0103
744.00,0.0106
743.00,0.0108
742.00,0.0111
741.00,0.0115
740.00,0.0119
739.00,0.0123
738.00,0.0127
737.00,0.0131
736.00,0.0136
735.00,0.0141
734.00,0.0146
733.00,0.0152
732.00,0.0159
731.00,0.0164
730.00,0.0169
729.00,0.0172
728.00,0.0174
727.00,0.0175
726.00,0.0177
725.00,0.0181
724.00,0.0186
723.00,0.0192
722.00,0.0197
721.00,0.0198
720.00,0.0195
719.00,0.0187
718.00,0.0175
717.00,0.0163
716.00,0.0152
715.00,0.0143
714.00,0.0136
713.00,0.0131
712.00,0.0127
711.00,0.0125
710.00,0.0124
709.00,0.0124
708.00,0.0124
707.00,0.0123
706.00,0.0122
705.00,0.0121
704.00,0.0120
703.00,0.0119
702.00,0.0119
701.00,0.0117
700.00,0.0115
699.00,0.0113
698.00,0.0112
697.00,0.0112
696.00,0.0111
695.00,0.0110
694.00,0.0109
693.00,0.0109
692.00,0.0110
691.00,0.0110
690.00,0.0110
689.00,0.0111
688.00,0.0111
687.00,0.0111
686.00,0.0110
685.00,0.0108
684.00,0.0107
683.00,0.0108
682.00,0.0109
681.00,0.0111
680.00,0.0112
679.00,0.0112
678.00,0.0112
677.00,0.0113
676.00,0.0114
675.00,0.0115
674.00,0.0116
673.00,0.0117
672.00,0.0117
671.00,0.0118
670.00,0.0120
669.00,0.0121
668.00,0.0123
667.00,0.0123
666.00,0.0120
665.00,0.0114
664.00,0.0109
663.00,0.0105
662.00,0.0103
661.00,0.0103
660.00,0.0103
659.00,0.0102
658.00,0.0100
657.00,0.0099
656.00,0.0098
655.00,0.0099
654.00,0.0100
653.00,0.0100
652.00,0.0098
651.00,0.0096
650.00,0.0094
649.00,0.0094
648.00,0.0095
647.00,0.0097
646.00,0.0098
645.00,0.0099
644.00,0.0100
643.00,0.0100
642.00,0.0100
641.00,0.0099
640.00,0.0098
639.00,0.0097
638.00,0.0097
637.00,0.0098
636.00,0.0098
635.00,0.0096
634.00,0.0094
633.00,0.0094
632.00,0.0095
631.00,0.0096
630.00,0.0096
629.00,0.0095
628.00,0.0095
627.00,0.0096
626.00,0.0098
625.00,0.0099
624.00,0.0101
623.00,0.0102
622.00,0.0102
621.00,0.0103
620.00,0.0103
619.00,0.0103
618.00,0.0104
617.00,0.0104
616.00,0.0104
615.00,0.0104
614.00,0.0103
613.00,0.0102
612.00,0.0100
611.00,0.0097
610.00,0.0095
609.00,0.0095
608.00,0.0097
607.00,0.0099
606.00,0.0101
605.00,0.0101
604.00,0.0101
603.00,0.0103
602.00,0.0106
601.00,0.0108
600.00,0.0109
599.00,0.0107
598.00,0.0104
597.00,0.0103
596.00,0.0104
595.00,0.0106
594.00,0.0107
593.00,0.0106
592.00,0.0103
591.00,0.0101
590.00,0.0101
589.00,0.0102
588.00,0.0104
587.00,0.0103
586.00,0.0101
585.00,0.0100
584.00,0.0102
583.00,0.0107
582.00,0.0112
581.00,0.0113
580.00,0.0110
579.00,0.0106
578.00,0.0102
577.00,0.0100
576.00,0.0099
575.00,0.0098
574.00,0.0098
573.00,0.0100
572.00,0.0102
571.00,0.0105
570.00,0.0107
569.00,0.0108
568.00,0.0111
567.00,0.0113
566.00,0.0114
565.00,0.0113
564.00,0.0109
563.00,0.0105
562.00,0.0101
561.00,0.0101
560.00,0.0103
559.00,0.0107
558.00,0.0109
557.00,0.0110
556.00,0.0110
555.00,0.0110
554.00,0.0110
553.00,0.0110
552.00,0.0109
551.00,0.0106
550.00,0.0104
549.00,0.0102
548.00,0.0104
547.00,0.0106
546.00,0.0108
545.00,0.0107
544.00,0.0106
543.00,0.0107
542.00,0.0110
541.00,0.0115
540.00,0.0121
539.00,0.0126
538.00,0.0132
537.00,0.0136
536.00,0.0138
535.00,0.0137
534.00,0.0134
533.00,0.0132
532.00,0.0130
531.00,0.0128
530.00,0.0127
529.00,0.0125
528.00,0.0123
527.00,0.0120
526.00,0.0117
525.00,0.0113
524.00,0.0111
523.00,0.0111
522.00,0.0110
521.00,0.0109
520.00,0.0107
519.00,0.0104
518.00,0.0102
517.00,0.0102
516.00,0.0103
515.00,0.0104
514.00,0.0104
513.00,0.0104
512.00,0.0104
511.00,0.0107
510.00,0.0110
509.00,0.0111
508.00,0.0110
507.00,0.0107
506.00,0.0105
505.00,0.0106
504.00,0.0111
503.00,0.0118
502.00,0.0122
501.00,0.0120
500.00,0.0116
499.00,0.0113
498.00,0.0113
497.00,0.0115
496.00,0.0116
495.00,0.0115
494.00,0.0113
493.00,0.0109
492.00,0.0107
491.00,0.0107
490.00,0.0111
489.00,0.0117
488.00,0.0121
487.00,0.0123
486.00,0.0121
485.00,0.0119
484.00,0.0121
483.00,0.0125
482.00,0.0128
481.00,0.0128
480.00,0.0128
479.00,0.0129
478.00,0.0129
477.00,0.0127
476.00,0.0128
475.00,0.0134
474.00,0.0143
473.00,0.0153
472.00,0.0162
471.00,0.0170
470.00,0.0176
469.00,0.0178
468.00,0.0178
467.00,0.0179
466.00,0.0180
465.00,0.0181
464.00,0.0181
463.00,0.0186
462.00,0.0197
461.00,0.0210
460.00,0.0219
459.00,0.0222
458.00,0.0218
457.00,0.0209
456.00,0.0200
455.00,0.0192
454.00,0.0183
453.00,0.0174
452.00,0.0167
451.00,0.0167
450.00,0.0172
