Created as New Dataset,Sample 050 By Administrator Date Friday, September 05 2025
cm-1,A
4000.00,0.0013
3999.00,0.0013
3998.00,0.0013
3997.00,0.0013
3996.00,0.0013
3995.00,0.0013
3994.00,0.0013
3993.00,0.0014
3992.00,0.0014
3991.00,0.0014
3990.00,0.0014
3989.00,0.0014
3988.00,0.0014
3987.00,0.0014
3986.00,0.0014
3985.00,0.0014
3984.00,0.0013
3983.00,0.0013
3982.00,0.0012
3981.00,0.0012
3980.00,0.0012
3979.00,0.0012
3978.00,0.0012
3977.00,0.0012
3976.00,0.0012
3975.00,0.0012
3974.00,0.0012
3973.00,0.0012
3972.00,0.0012
3971.00,0.0013
3970.00,0.0013
3969.00,0.0012
3968.00,0.0012
3967.00,0.0012
3966.00,0.0012
3965.00,0.0012
3964.00,0.0012
3963.00,0.0012
3962.00,0.0012
3961.00,0.0012
3960.00,0.0012
3959.00,0.0012
3958.00,0.0012
3957.00,0.0012
3956.00,0.0012
3955.00,0.0012
3954.00,0.0012
3953.00,0.0012
3952.00,0.0012
3951.00,0.0012
3950.00,0.0012
3949.00,0.0012
3948.00,0.0012
3947.00,0.0012
3946.00,0.0012
3945.00,0.0012
3944.00,0.0012
3943.00,0.0012
3942.00,0.0011
3941.00,0.0011
3940.00,0.0011
3939.00,0.0012
3938.00,0.0012
3937.00,0.0012
3936.00,0.0013
3935.00,0.0013
3934.00,0.0013
3933.00,0.0013
3932.00,0.0013
3931.00,0.0012
3930.00,0.0012
3929.00,0.0011
3928.00,0.0011
3927.00,0.0011
3926.00,0.0011
3925.00,0.0011
3924.00,0.0012
3923.00,0.0012
3922.00,0.0012
3921.00,0.0012
3920.00,0.0013
3919.00,0.0013
3918.00,0.0013
3917.00,0.0013
3916.00,0.0013
3915.00,0.0012
3914.00,0.0012
3913.00,0.0012
3912.00,0.0012
3911.00,0.0012
3910.00,0.0012
3909.00,0.0012
3908.00,0.0012
3907.00,0.0012
3906.00,0.0012
3905.00,0.0012
3904.00,0.0012
3903.00,0.0012
3902.00,0.0012
3901.00,0.0012
3900.00,0.0012
3899.00,0.0012
3898.00,0.0012
3897.00,0.0012
3896.00,0.0012
3895.00,0.0012
3894.00,0.0012
3893.00,0.0012
3892.00,0.0011
3891.00,0.0011
3890.00,0.0011
3889.00,0.0011
3888.00,0.0012
3887.00,0.0012
3886.00,0.0012
3885.00,0.0012
3884.00,0.0012
3883.00,0.0012
3882.00,0.0012
3881.00,0.0012
3880.00,0.0011
3879.00,0.0011
3878.00,0.0011
3877.00,0.0011
3876.00,0.0011
3875.00,0.0011
3874.00,0.0011
3873.00,0.0011
3872.00,0.0011
3871.00,0.0012
3870.00,0.0012
3869.00,0.0011
3868.00,0.0011
3867.00,0.0011
3866.00,0.0012
3865.00,0.0012
3864.00,0.0012
3863.00,0.0011
3862.00,0.0011
3861.00,0.0010
3860.00,0.0010
3859.00,0.0010
3858.00,0.0010
3857.00,0.0009
3856.00,0.0008
3855.00,0.0008
3854.00,0.0009
3853.00,0.0009
3852.00,0.0010
3851.00,0.0011
3850.00,0.0011
3849.00,0.0011
3848.00,0.0011
3847.00,0.0011
3846.00,0.0011
3845.00,0.0011
3844.00,0.0011
3843.00,0.0011
3842.00,0.0010
3841.00,0.0011
3840.00,0.0010
3839.00,0.0010
3838.00,0.0009
3837.00,0.0009
3836.00,0.0009
3835.00,0.0010
3834.00,0.0010
3833.00,0.0011
3832.00,0.0011
3831.00,0.0011
3830.00,0.0011
3829.00,0.0011
3828.00,0.0011
3827.00,0.0011
3826.00,0.0011
3825.00,0.0010
3824.00,0.0010
3823.00,0.0009
3822.00,0.0009
3821.00,0.0009
3820.00,0.0009
3819.00,0.0010
3818.00,0.0010
3817.00,0.0010
3816.00,0.0010
3815.00,0.0010
3814.00,0.0010
3813.00,0.0011
3812.00,0.0011
3811.00,0.0011
3810.00,0.0011
3809.00,0.0011
3808.00,0.0011
3807.00,0.0011
3806.00,0.0011
3805.00,0.0010
3804.00,0.0010
3803.00,0.0010
3802.00,0.0010
3801.00,0.0010
3800.00,0.0010
3799.00,0.0011
3798.00,0.0011
3797.00,0.0011
3796.00,0.0011
3795.00,0.0011
3794.00,0.0011
3793.00,0.0012
3792.00,0.0012
3791.00,0.0012
3790.00,0.0012
3789.00,0.0012
3788.00,0.0012
3787.00,0.0012
3786.00,0.0012
3785.00,0.0012
3784.00,0.0011
3783.00,0.0011
3782.00,0.0010
3781.00,0.0010
3780.00,0.0010
3779.00,0.0010
3778.00,0.0010
3777.00,0.0011
3776.00,0.0011
3775.00,0.0012
3774.00,0.0011
3773.00,0.0011
3772.00,0.0011
3771.00,0.0011
3770.00,0.0011
3769.00,0.0011
3768.00,0.0011
3767.00,0.0011
3766.00,0.0011
3765.00,0.0011
3764.00,0.0011
3763.00,0.0011
3762.00,0.0012
3761.00,0.0012
3760.00,0.0012
3759.00,0.0012
3758.00,0.0012
3757.00,0.0012
3756.00,0.0012
3755.00,0.0011
3754.00,0.0011
3753.00,0.0011
3752.00,0.0011
3751.00,0.0011
3750.00,0.0010
3749.00,0.0010
3748.00,0.0010
3747.00,0.0010
3746.00,0.0010
3745.00,0.0010
3744.00,0.0011
3743.00,0.0012
3742.00,0.0013
3741.00,0.0014
3740.00,0.0014
3739.00,0.0013
3738.00,0.0013
3737.00,0.0013
3736.00,0.0012
3735.00,0.0012
3734.00,0.0011
3733.00,0.0011
3732.00,0.0010
3731.00,0.0010
3730.00,0.0010
3729.00,0.0011
3728.00,0.0011
3727.00,0.0011
3726.00,0.0011
3725.00,0.0011
3724.00,0.0011
3723.00,0.0011
3722.00,0.0011
3721.00,0.0011
3720.00,0.0011
3719.00,0.0010
3718.00,0.0010
3717.00,0.0010
3716.00,0.0009
3715.00,0.0010
3714.00,0.0010
3713.00,0.0010
3712.00,0.0010
3711.00,0.0010
3710.00,0.0011
3709.00,0.0011
3708.00,0.0011
3707.00,0.0012
3706.00,0.0012
3705.00,0.0012
3704.00,0.0012
3703.00,0.0011
3702.00,0.0011
3701.00,0.0011
3700.00,0.0011
3699.00,0.0012
3698.00,0.0012
3697.00,0.0012
3696.00,0.0012
3695.00,0.0012
3694.00,0.0011
3693.00,0.0011
3692.00,0.0011
3691.00,0.0010
3690.00,0.0010
3689.00,0.0010
3688.00,0.0011
3687.00,0.0011
3686.00,0.0012
3685.00,0.0012
3684.00,0.0011
3683.00,0.0011
3682.00,0.0010
3681.00,0.0010
3680.00,0.0010
3679.00,0.0010
3678.00,0.0011
3677.00,0.0012
3676.00,0.0012
3675.00,0.0010
3674.00,0.0009
3673.00,0.0009
3672.00,0.0009
3671.00,0.0009
3670.00,0.0010
3669.00,0.0009
3668.00,0.0010
3667.00,0.0010
3666.00,0.0011
3665.00,0.0011
3664.00,0.0010
3663.00,0.0010
3662.00,0.0010
3661.00,0.0009
3660.00,0.0009
3659.00,0.0009
3658.00,0.0009
3657.00,0.0009
3656.00,0.0010
3655.00,0.0010
3654.00,0.0010
3653.00,0.0011
3652.00,0.0011
3651.00,0.0012
3650.00,0.0012
3649.00,0.0012
3648.00,0.0012
3647.00,0.0012
3646.00,0.0012
3645.00,0.0012
3644.00,0.0013
3643.00,0.0013
3642.00,0.0013
3641.00,0.0013
3640.00,0.0013
3639.00,0.0013
3638.00,0.0013
3637.00,0.0013
3636.00,0.0014
3635.00,0.0014
3634.00,0.0015
3633.00,0.0015
3632.00,0.0015
3631.00,0.0016
3630.00,0.0017
3629.00,0.0017
3628.00,0.0017
3627.00,0.0017
3626.00,0.0017
3625.00,0.0017
3624.00,0.0017
3623.00,0.0017
3622.00,0.0018
3621.00,0.0019
3620.00,0.0019
3619.00,0.0019
3618.00,0.0019
3617.00,0.0019
3616.00,0.0020
3615.00,0.0021
3614.00,0.0021
3613.00,0.0022
3612.00,0.0023
3611.00,0.0023
3610.00,0.0024
3609.00,0.0024
3608.00,0.0024
3607.00,0.0024
3606.00,0.0023
3605.00,0.0023
3604.00,0.0024
3603.00,0.0025
3602.00,0.0026
3601.00,0.0026
3600.00,0.0027
3599.00,0.0027
3598.00,0.0027
3597.00,0.0027
3596.00,0.0027
3595.00,0.0027
3594.00,0.0028
3593.00,0.0028
3592.00,0.0028
3591.00,0.0029
3590.00,0.0030
3589.00,0.0030
3588.00,0.0031
3587.00,0.0031
3586.00,0.0031
3585.00,0.0032
3584.00,0.0032
3583.00,0.0031
3582.00,0.0031
3581.00,0.0031
3580.00,0.0031
3579.00,0.0031
3578.00,0.0031
3577.00,0.0032
3576.00,0.0032
3575.00,0.0032
3574.00,0.0033
3573.00,0.0033
3572.00,0.0034
3571.00,0.0035
3570.00,0.0036
3569.00,0.0037
3568.00,0.0038
3567.00,0.0039
3566.00,0.0038
3565.00,0.0038
3564.00,0.0038
3563.00,0.0037
3562.00,0.0037
3561.00,0.0037
3560.00,0.0038
3559.00,0.0039
3558.00,0.0039
3557.00,0.0040
3556.00,0.0041
3555.00,0.0041
3554.00,0.0041
3553.00,0.0041
3552.00,0.0041
3551.00,0.0041
3550.00,0.0042
3549.00,0.0043
3548.00,0.0044
3547.00,0.0044
3546.00,0.0045
3545.00,0.0044
3544.00,0.0044
3543.00,0.0044
3542.00,0.0045
3541.00,0.0045
3540.00,0.0046
3539.00,0.0046
3538.00,0.0047
3537.00,0.0047
3536.00,0.0047
3535.00,0.0047
3534.00,0.0047
3533.00,0.0048
3532.00,0.0048
3531.00,0.0049
3530.00,0.0049
3529.00,0.0050
3528.00,0.0050
3527.00,0.0050
3526.00,0.0051
3525.00,0.0051
3524.00,0.0051
3523.00,0.0051
3522.00,0.0051
3521.00,0.0051
3520.00,0.0052
3519.00,0.0052
3518.00,0.0052
3517.00,0.0052
3516.00,0.0053
3515.00,0.0053
3514.00,0.0054
3513.00,0.0054
3512.00,0.0055
3511.00,0.0055
3510.00,0.0056
3509.00,0.0056
3508.00,0.0056
3507.00,0.0056
3506.00,0.0056
3505.00,0.0056
3504.00,0.0056
3503.00,0.0057
3502.00,0.0057
3501.00,0.0058
3500.00,0.0058
3499.00,0.0059
3498.00,0.0059
3497.00,0.0060
3496.00,0.0061
3495.00,0.0061
3494.00,0.0061
3493.00,0.0061
3492.00,0.0061
3491.00,0.0061
3490.00,0.0061
3489.00,0.0062
3488.00,0.0062
3487.00,0.0062
3486.00,0.0062
3485.00,0.0063
3484.00,0.0063
3483.00,0.0064
3482.00,0.0064
3481.00,0.0064
3480.00,0.0064
3479.00,0.0065
3478.00,0.0065
3477.00,0.0066
3476.00,0.0066
3475.00,0.0067
3474.00,0.0067
3473.00,0.0067
3472.00,0.0068
3471.00,0.0068
3470.00,0.0068
3469.00,0.0068
3468.00,0.0068
3467.00,0.0068
3466.00,0.0068
3465.00,0.0069
3464.00,0.0069
3463.00,0.0069
3462.00,0.0069
3461.00,0.0070
3460.00,0.0070
3459.00,0.0070
3458.00,0.0071
3457.00,0.0071
3456.00,0.0071
3455.00,0.0071
3454.00,0.0071
3453.00,0.0071
3452.00,0.0072
3451.00,0.0072
3450.00,0.0072
3449.00,0.0073
3448.00,0.0073
3447.00,0.0074
3446.00,0.0074
3445.00,0.0074
3444.00,0.0074
3443.00,0.0075
3442.00,0.0075
3441.00,0.0075
3440.00,0.0076
3439.00,0.0076
3438.00,0.0076
3437.00,0.0076
3436.00,0.0076
3435.00,0.0076
3434.00,0.0077
3433.00,0.0077
3432.00,0.0077
3431.00,0.0078
3430.00,0.0078
3429.00,0.0078
3428.00,0.0078
3427.00,0.0079
3426.00,0.0079
3425.00,0.0079
3424.00,0.0079
3423.00,0.0080
3422.00,0.0081
3421.00,0.0081
3420.00,0.0082
3419.00,0.0082
3418.00,0.0082
3417.00,0.0082
3416.00,0.0082
3415.00,0.0081
3414.00,0.0081
3413.00,0.0081
3412.00,0.0081
3411.00,0.0082
3410.00,0.0082
3409.00,0.0082
3408.00,0.0082
3407.00,0.0083
3406.00,0.0083
3405.00,0.0083
3404.00,0.0083
3403.00,0.0083
3402.00,0.0084
3401.00,0.0084
3400.00,0.0084
3399.00,0.0084
3398.00,0.0084
3397.00,0.0084
3396.00,0.0084
3395.00,0.0085
3394.00,0.0085
3393.00,0.0085
3392.00,0.0085
3391.00,0.0085
3390.00,0.0085
3389.00,0.0085
3388.00,0.0085
3387.00,0.0085
3386.00,0.0085
3385.00,0.0086
3384.00,0.0086
3383.00,0.0086
3382.00,0.0086
3381.00,0.0087
3380.00,0.0087
3379.00,0.0087
3378.00,0.0087
3377.00,0.0087
3376.00,0.0087
3375.00,0.0086
3374.00,0.0086
3373.00,0.0087
3372.00,0.0087
3371.00,0.0087
3370.00,0.0088
3369.00,0.0088
3368.00,0.0087
3367.00,0.0087
3366.00,0.0087
3365.00,0.0087
3364.00,0.0087
3363.00,0.0087
3362.00,0.0088
3361.00,0.0088
3360.00,0.0088
3359.00,0.0088
3358.00,0.0088
3357.00,0.0088
3356.00,0.0089
3355.00,0.0089
3354.00,0.0089
3353.00,0.0089
3352.00,0.0089
3351.00,0.0089
3350.00,0.0088
3349.00,0.0088
3348.00,0.0088
3347.00,0.0088
3346.00,0.0088
3345.00,0.0088
3344.00,0.0088
3343.00,0.0088
3342.00,0.0088
3341.00,0.0088
3340.00,0.0088
3339.00,0.0089
3338.00,0.0089
3337.00,0.0089
3336.00,0.0088
3335.00,0.0088
3334.00,0.0087
3333.00,0.0087
3332.00,0.0087
3331.00,0.0086
3330.00,0.0086
3329.00,0.0086
3328.00,0.0086
3327.00,0.0086
3326.00,0.0085
3325.00,0.0086
3324.00,0.0086
3323.00,0.0086
3322.00,0.0086
3321.00,0.0086
3320.00,0.0086
3319.00,0.0086
3318.00,0.0086
3317.00,0.0086
3316.00,0.0086
3315.00,0.0085
3314.00,0.0085
3313.00,0.0085
3312.00,0.0085
3311.00,0.0086
3310.00,0.0086
3309.00,0.0085
3308.00,0.0085
3307.00,0.0085
3306.00,0.0085
3305.00,0.0086
3304.00,0.0086
3303.00,0.0085
3302.00,0.0085
3301.00,0.0085
3300.00,0.0085
3299.00,0.0085
3298.00,0.0085
3297.00,0.0085
3296.00,0.0085
3295.00,0.0084
3294.00,0.0084
3293.00,0.0083
3292.00,0.0082
3291.00,0.0082
3290.00,0.0082
3289.00,0.0081
3288.00,0.0081
3287.00,0.0080
3286.00,0.0080
3285.00,0.0080
3284.00,0.0080
3283.00,0.0080
3282.00,0.0080
3281.00,0.0080
3280.00,0.0079
3279.00,0.0079
3278.00,0.0078
3277.00,0.0078
3276.00,0.0077
3275.00,0.0077
3274.00,0.0077
3273.00,0.0077
3272.00,0.0077
3271.00,0.0077
3270.00,0.0077
3269.00,0.0077
3268.00,0.0077
3267.00,0.0076
3266.00,0.0076
3265.00,0.0075
3264.00,0.0075
3263.00,0.0075
3262.00,0.0074
3261.00,0.0074
3260.00,0.0074
3259.00,0.0074
3258.00,0.0074
3257.00,0.0073
3256.00,0.0073
3255.00,0.0072
3254.00,0.0072
3253.00,0.0071
3252.00,0.0071
3251.00,0.0071
3250.00,0.0071
3249.00,0.0070
3248.00,0.0070
3247.00,0.0070
3246.00,0.0070
3245.00,0.0069
3244.00,0.0069
3243.00,0.0069
3242.00,0.0069
3241.00,0.0069
3240.00,0.0069
3239.00,0.0069
3238.00,0.0069
3237.00,0.0069
3236.00,0.0069
3235.00,0.0068
3234.00,0.0068
3233.00,0.0068
3232.00,0.0068
3231.00,0.0068
3230.00,0.0068
3229.00,0.0068
3228.00,0.0068
3227.00,0.0068
3226.00,0.0068
3225.00,0.0069
3224.00,0.0069
3223.00,0.0068
3222.00,0.0068
3221.00,0.0068
3220.00,0.0069
3219.00,0.0069
3218.00,0.0069
3217.00,0.0069
3216.00,0.0070
3215.00,0.0070
3214.00,0.0070
3213.00,0.0070
3212.00,0.0070
3211.00,0.0070
3210.00,0.0070
3209.00,0.0070
3208.00,0.0069
3207.00,0.0069
3206.00,0.0069
3205.00,0.0069
3204.00,0.0069
3203.00,0.0069
3202.00,0.0069
3201.00,0.0070
3200.00,0.0070
3199.00,0.0070
3198.00,0.0070
3197.00,0.0070
3196.00,0.0069
3195.00,0.0069
3194.00,0.0069
3193.00,0.0069
3192.00,0.0068
3191.00,0.0068
3190.00,0.0068
3189.00,0.0067
3188.00,0.0067
3187.00,0.0067
3186.00,0.0067
3185.00,0.0067
3184.00,0.0067
3183.00,0.0066
3182.00,0.0066
3181.00,0.0066
3180.00,0.0066
3179.00,0.0066
3178.00,0.0065
3177.00,0.0065
3176.00,0.0064
3175.00,0.0064
3174.00,0.0064
3173.00,0.0064
3172.00,0.0064
3171.00,0.0064
3170.00,0.0063
3169.00,0.0063
3168.00,0.0063
3167.00,0.0063
3166.00,0.0063
3165.00,0.0062
3164.00,0.0062
3163.00,0.0062
3162.00,0.0061
3161.00,0.0061
3160.00,0.0061
3159.00,0.0060
3158.00,0.0060
3157.00,0.0060
3156.00,0.0060
3155.00,0.0060
3154.00,0.0059
3153.00,0.0059
3152.00,0.0059
3151.00,0.0059
3150.00,0.0060
3149.00,0.0060
3148.00,0.0060
3147.00,0.0059
3146.00,0.0059
3145.00,0.0058
3144.00,0.0058
3143.00,0.0058
3142.00,0.0057
3141.00,0.0057
3140.00,0.0057
3139.00,0.0057
3138.00,0.0057
3137.00,0.0057
3136.00,0.0057
3135.00,0.0056
3134.00,0.0056
3133.00,0.0056
3132.00,0.0055
3131.00,0.0055
3130.00,0.0055
3129.00,0.0055
3128.00,0.0054
3127.00,0.0054
3126.00,0.0054
3125.00,0.0054
3124.00,0.0053
3123.00,0.0052
3122.00,0.0052
3121.00,0.0051
3120.00,0.0051
3119.00,0.0050
3118.00,0.0050
3117.00,0.0049
3116.00,0.0049
3115.00,0.0049
3114.00,0.0049
3113.00,0.0050
3112.00,0.0050
3111.00,0.0050
3110.00,0.0049
3109.00,0.0049
3108.00,0.0048
3107.00,0.0048
3106.00,0.0048
3105.00,0.0048
3104.00,0.0048
3103.00,0.0048
3102.00,0.0048
3101.00,0.0048
3100.00,0.0048
3099.00,0.0048
3098.00,0.0048
3097.00,0.0047
3096.00,0.0047
3095.00,0.0047
3094.00,0.0047
3093.00,0.0047
3092.00,0.0047
3091.00,0.0047
3090.00,0.0047
3089.00,0.0047
3088.00,0.0046
3087.00,0.0046
3086.00,0.0046
3085.00,0.0046
3084.00,0.0046
3083.00,0.0046
3082.00,0.0046
3081.00,0.0046
3080.00,0.0045
3079.00,0.0045
3078.00,0.0045
3077.00,0.0045
3076.00,0.0045
3075.00,0.0045
3074.00,0.0045
3073.00,0.0045
3072.00,0.0046
3071.00,0.0046
3070.00,0.0046
3069.00,0.0047
3068.00,0.0047
3067.00,0.0047
3066.00,0.0047
3065.00,0.0047
3064.00,0.0047
3063.00,0.0047
3062.00,0.0047
3061.00,0.0047
3060.00,0.0047
3059.00,0.0047
3058.00,0.0047
3057.00,0.0047
3056.00,0.0047
3055.00,0.0048
3054.00,0.0048
3053.00,0.0048
3052.00,0.0048
3051.00,0.0048
3050.00,0.0049
3049.00,0.0049
3048.00,0.0049
3047.00,0.0049
3046.00,0.0049
3045.00,0.0049
3044.00,0.0049
3043.00,0.0049
3042.00,0.0049
3041.00,0.0050
3040.00,0.0050
3039.00,0.0050
3038.00,0.0051
3037.00,0.0051
3036.00,0.0052
3035.00,0.0052
3034.00,0.0052
3033.00,0.0052
3032.00,0.0053
3031.00,0.0053
3030.00,0.0053
3029.00,0.0054
3028.00,0.0054
3027.00,0.0054
3026.00,0.0055
3025.00,0.0055
3024.00,0.0056
3023.00,0.0056
3022.00,0.0056
3021.00,0.0057
3020.00,0.0057
3019.00,0.0058
3018.00,0.0058
3017.00,0.0059
3016.00,0.0059
3015.00,0.0060
3014.00,0.0060
3013.00,0.0061
3012.00,0.0061
3011.00,0.0062
3010.00,0.0063
3009.00,0.0064
3008.00,0.0065
3007.00,0.0066
3006.00,0.0067
3005.00,0.0067
3004.00,0.0068
3003.00,0.0070
3002.00,0.0071
3001.00,0.0073
3000.00,0.0074
2999.00,0.0077
2998.00,0.0079
2997.00,0.0082
2996.00,0.0085
2995.00,0.0088
2994.00,0.0092
2993.00,0.0095
2992.00,0.0100
2991.00,0.0105
2990.00,0.0111
2989.00,0.0118
2988.00,0.0125
2987.00,0.0133
2986.00,0.0141
2985.00,0.0150
2984.00,0.0159
2983.00,0.0170
2982.00,0.0184
2981.00,0.0200
2980.00,0.0220
2979.00,0.0243
2978.00,0.0270
2977.00,0.0299
2976.00,0.0332
2975.00,0.0370
2974.00,0.0412
2973.00,0.0461
2972.00,0.0516
2971.00,0.0580
2970.00,0.0651
2969.00,0.0730
2968.00,0.0817
2967.00,0.0911
2966.00,0.1011
2965.00,0.1117
2964.00,0.1223
2963.00,0.1328
2962.00,0.1424
2961.00,0.1506
2960.00,0.1572
2959.00,0.1622
2958.00,0.1657
2957.00,0.1682
2956.00,0.1704
2955.00,0.1727
2954.00,0.1753
2953.00,0.1779
2952.00,0.1798
2951.00,0.1803
2950.00,0.1785
2949.00,0.1740
2948.00,0.1668
2947.00,0.1574
2946.00,0.1468
2945.00,0.1360
2944.00,0.1260
2943.00,0.1175
2942.00,0.1110
2941.00,0.1066
2940.00,0.1044
2939.00,0.1041
2938.00,0.1055
2937.00,0.1086
2936.00,0.1130
2935.00,0.1187
2934.00,0.1256
2933.00,0.1335
2932.00,0.1423
2931.00,0.1519
2930.00,0.1620
2929.00,0.1723
2928.00,0.1826
2927.00,0.1927
2926.00,0.2025
2925.00,0.2118
2924.00,0.2208
2923.00,0.2296
2922.00,0.2380
2921.00,0.2459
2920.00,0.2525
2919.00,0.2573
2918.00,0.2592
2917.00,0.2577
2916.00,0.2530
2915.00,0.2454
2914.00,0.2361
2913.00,0.2263
2912.00,0.2168
2911.00,0.2083
2910.00,0.2010
2909.00,0.1947
2908.00,0.1892
2907.00,0.1839
2906.00,0.1786
2905.00,0.1730
2904.00,0.1672
2903.00,0.1611
2902.00,0.1550
2901.00,0.1488
2900.00,0.1427
2899.00,0.1368
2898.00,0.1312
2897.00,0.1260
2896.00,0.1213
2895.00,0.1171
2894.00,0.1135
2893.00,0.1105
2892.00,0.1080
2891.00,0.1060
2890.00,0.1044
2889.00,0.1033
2888.00,0.1024
2887.00,0.1019
2886.00,0.1017
2885.00,0.1019
2884.00,0.1024
2883.00,0.1033
2882.00,0.1045
2881.00,0.1059
2880.00,0.1073
2879.00,0.1084
2878.00,0.1091
2877.00,0.1091
2876.00,0.1088
2875.00,0.1082
2874.00,0.1079
2873.00,0.1081
2872.00,0.1088
2871.00,0.1101
2870.00,0.1116
2869.00,0.1131
2868.00,0.1139
2867.00,0.1135
2866.00,0.1114
2865.00,0.1077
2864.00,0.1026
2863.00,0.0970
2862.00,0.0915
2861.00,0.0869
2860.00,0.0835
2859.00,0.0815
2858.00,0.0808
2857.00,0.0812
2856.00,0.0825
2855.00,0.0846
2854.00,0.0872
2853.00,0.0901
2852.00,0.0930
2851.00,0.0954
2850.00,0.0970
2849.00,0.0976
2848.00,0.0974
2847.00,0.0973
2846.00,0.0978
2845.00,0.0995
2844.00,0.1023
2843.00,0.1062
2842.00,0.1106
2841.00,0.1147
2840.00,0.1179
2839.00,0.1194
2838.00,0.1184
2837.00,0.1146
2836.00,0.1082
2835.00,0.0996
2834.00,0.0897
2833.00,0.0795
2832.00,0.0699
2831.00,0.0614
2830.00,0.0542
2829.00,0.0483
2828.00,0.0435
2827.00,0.0395
2826.00,0.0363
2825.00,0.0336
2824.00,0.0313
2823.00,0.0294
2822.00,0.0276
2821.00,0.0262
2820.00,0.0249
2819.00,0.0238
2818.00,0.0228
2817.00,0.0220
2816.00,0.0212
2815.00,0.0205
2814.00,0.0199
2813.00,0.0194
2812.00,0.0189
2811.00,0.0184
2810.00,0.0179
2809.00,0.0173
2808.00,0.0168
2807.00,0.0162
2806.00,0.0156
2805.00,0.0149
2804.00,0.0143
2803.00,0.0138
2802.00,0.0133
2801.00,0.0129
2800.00,0.0125
2799.00,0.0122
2798.00,0.0120
2797.00,0.0118
2796.00,0.0115
2795.00,0.0113
2794.00,0.0110
2793.00,0.0108
2792.00,0.0105
2791.00,0.0102
2790.00,0.0099
2789.00,0.0096
2788.00,0.0093
2787.00,0.0089
2786.00,0.0086
2785.00,0.0083
2784.00,0.0080
2783.00,0.0078
2782.00,0.0076
2781.00,0.0074
2780.00,0.0072
2779.00,0.0071
2778.00,0.0069
2777.00,0.0068
2776.00,0.0066
2775.00,0.0065
2774.00,0.0064
2773.00,0.0063
2772.00,0.0063
2771.00,0.0062
2770.00,0.0062
2769.00,0.0061
2768.00,0.0061
2767.00,0.0061
2766.00,0.0060
2765.00,0.0060
2764.00,0.0060
2763.00,0.0059
2762.00,0.0058
2761.00,0.0058
2760.00,0.0058
2759.00,0.0057
2758.00,0.0057
2757.00,0.0057
2756.00,0.0057
2755.00,0.0057
2754.00,0.0057
2753.00,0.0056
2752.00,0.0056
2751.00,0.0056
2750.00,0.0056
2749.00,0.0056
2748.00,0.0056
2747.00,0.0056
2746.00,0.0057
2745.00,0.0058
2744.00,0.0059
2743.00,0.0059
2742.00,0.0060
2741.00,0.0061
2740.00,0.0062
2739.00,0.0062
2738.00,0.0063
2737.00,0.0064
2736.00,0.0065
2735.00,0.0066
2734.00,0.0068
2733.00,0.0069
2732.00,0.0071
2731.00,0.0072
2730.00,0.0074
2729.00,0.0076
2728.00,0.0078
2727.00,0.0081
2726.00,0.0083
2725.00,0.0085
2724.00,0.0087
2723.00,0.0087
2722.00,0.0086
2721.00,0.0085
2720.00,0.0083
2719.00,0.0080
2718.00,0.0077
2717.00,0.0074
2716.00,0.0072
2715.00,0.0069
2714.00,0.0067
2713.00,0.0065
2712.00,0.0064
2711.00,0.0062
2710.00,0.0061
2709.00,0.0059
2708.00,0.0058
2707.00,0.0057
2706.00,0.0056
2705.00,0.0055
2704.00,0.0054
2703.00,0.0053
2702.00,0.0053
2701.00,0.0052
2700.00,0.0052
2699.00,0.0051
2698.00,0.0051
2697.00,0.0050
2696.00,0.0049
2695.00,0.0049
2694.00,0.0049
2693.00,0.0049
2692.00,0.0050
2691.00,0.0050
2690.00,0.0050
2689.00,0.0050
2688.00,0.0050
2687.00,0.0050
2686.00,0.0050
2685.00,0.0049
2684.00,0.0049
2683.00,0.0049
2682.00,0.0049
2681.00,0.0050
2680.00,0.0050
2679.00,0.0050
2678.00,0.0050
2677.00,0.0050
2676.00,0.0050
2675.00,0.0050
2674.00,0.0049
2673.00,0.0049
2672.00,0.0049
2671.00,0.0049
2670.00,0.0049
2669.00,0.0048
2668.00,0.0048
2667.00,0.0049
2666.00,0.0049
2665.00,0.0050
2664.00,0.0050
2663.00,0.0051
2662.00,0.0051
2661.00,0.0051
2660.00,0.0052
2659.00,0.0052
2658.00,0.0052
2657.00,0.0052
2656.00,0.0052
2655.00,0.0051
2654.00,0.0050
2653.00,0.0050
2652.00,0.0049
2651.00,0.0048
2650.00,0.0048
2649.00,0.0048
2648.00,0.0047
2647.00,0.0047
2646.00,0.0046
2645.00,0.0046
2644.00,0.0046
2643.00,0.0046
2642.00,0.0045
2641.00,0.0045
2640.00,0.0044
2639.00,0.0043
2638.00,0.0042
2637.00,0.0042
2636.00,0.0042
2635.00,0.0042
2634.00,0.0042
2633.00,0.0042
2632.00,0.0042
2631.00,0.0043
2630.00,0.0043
2629.00,0.0043
2628.00,0.0043
2627.00,0.0043
2626.00,0.0044
2625.00,0.0044
2624.00,0.0044
2623.00,0.0043
2622.00,0.0043
2621.00,0.0043
2620.00,0.0043
2619.00,0.0043
2618.00,0.0043
2617.00,0.0044
2616.00,0.0044
2615.00,0.0043
2614.00,0.0042
2613.00,0.0041
2612.00,0.0041
2611.00,0.0041
2610.00,0.0041
2609.00,0.0041
2608.00,0.0040
2607.00,0.0039
2606.00,0.0039
2605.00,0.0038
2604.00,0.0038
2603.00,0.0037
2602.00,0.0037
2601.00,0.0036
2600.00,0.0035
2599.00,0.0035
2598.00,0.0035
2597.00,0.0035
2596.00,0.0035
2595.00,0.0034
2594.00,0.0035
2593.00,0.0035
2592.00,0.0035
2591.00,0.0036
2590.00,0.0036
2589.00,0.0036
2588.00,0.0037
2587.00,0.0038
2586.00,0.0039
2585.00,0.0040
2584.00,0.0040
2583.00,0.0040
2582.00,0.0040
2581.00,0.0040
2580.00,0.0039
2579.00,0.0038
2578.00,0.0038
2577.00,0.0037
2576.00,0.0037
2575.00,0.0036
2574.00,0.0035
2573.00,0.0034
2572.00,0.0033
2571.00,0.0032
2570.00,0.0031
2569.00,0.0030
2568.00,0.0029
2567.00,0.0029
2566.00,0.0028
2565.00,0.0028
2564.00,0.0027
2563.00,0.0027
2562.00,0.0027
2561.00,0.0026
2560.00,0.0026
2559.00,0.0026
2558.00,0.0026
2557.00,0.0026
2556.00,0.0025
2555.00,0.0025
2554.00,0.0024
2553.00,0.0024
2552.00,0.0023
2551.00,0.0023
2550.00,0.0023
2549.00,0.0022
2548.00,0.0023
2547.00,0.0023
2546.00,0.0023
2545.00,0.0023
2544.00,0.0022
2543.00,0.0021
2542.00,0.0021
2541.00,0.0021
2540.00,0.0021
2539.00,0.0021
2538.00,0.0021
2537.00,0.0021
2536.00,0.0021
2535.00,0.0021
2534.00,0.0021
2533.00,0.0021
2532.00,0.0020
2531.00,0.0020
2530.00,0.0019
2529.00,0.0018
2528.00,0.0018
2527.00,0.0018
2526.00,0.0019
2525.00,0.0019
2524.00,0.0019
2523.00,0.0019
2522.00,0.0018
2521.00,0.0018
2520.00,0.0017
2519.00,0.0017
2518.00,0.0016
2517.00,0.0016
2516.00,0.0015
2515.00,0.0014
2514.00,0.0014
2513.00,0.0015
2512.00,0.0015
2511.00,0.0016
2510.00,0.0016
2509.00,0.0015
2508.00,0.0015
2507.00,0.0014
2506.00,0.0014
2505.00,0.0014
2504.00,0.0014
2503.00,0.0014
2502.00,0.0015
2501.00,0.0015
2500.00,0.0016
2499.00,0.0016
2498.00,0.0015
2497.00,0.0015
2496.00,0.0014
2495.00,0.0014
2494.00,0.0015
2493.00,0.0015
2492.00,0.0015
2491.00,0.0014
2490.00,0.0014
2489.00,0.0014
2488.00,0.0014
2487.00,0.0014
2486.00,0.0014
2485.00,0.0014
2484.00,0.0014
2483.00,0.0013
2482.00,0.0012
2481.00,0.0012
2480.00,0.0012
2479.00,0.0013
2478.00,0.0013
2477.00,0.0014
2476.00,0.0014
2475.00,0.0013
2474.00,0.0013
2473.00,0.0012
2472.00,0.0013
2471.00,0.0013
2470.00,0.0013
2469.00,0.0013
2468.00,0.0013
2467.00,0.0013
2466.00,0.0013
2465.00,0.0013
2464.00,0.0013
2463.00,0.0013
2462.00,0.0013
2461.00,0.0013
2460.00,0.0014
2459.00,0.0014
2458.00,0.0014
2457.00,0.0015
2456.00,0.0015
2455.00,0.0015
2454.00,0.0015
2453.00,0.0015
2452.00,0.0015
2451.00,0.0016
2450.00,0.0016
2449.00,0.0016
2448.00,0.0016
2447.00,0.0016
2446.00,0.0015
2445.00,0.0015
2444.00,0.0014
2443.00,0.0014
2442.00,0.0015
2441.00,0.0015
2440.00,0.0015
2439.00,0.0016
2438.00,0.0016
2437.00,0.0016
2436.00,0.0016
2435.00,0.0016
2434.00,0.0017
2433.00,0.0017
2432.00,0.0017
2431.00,0.0016
2430.00,0.0015
2429.00,0.0014
2428.00,0.0014
2427.00,0.0014
2426.00,0.0014
2425.00,0.0015
2424.00,0.0015
2423.00,0.0015
2422.00,0.0015
2421.00,0.0015
2420.00,0.0014
2419.00,0.0014
2418.00,0.0014
2417.00,0.0014
2416.00,0.0014
2415.00,0.0013
2414.00,0.0013
2413.00,0.0013
2412.00,0.0013
2411.00,0.0013
2410.00,0.0013
2409.00,0.0013
2408.00,0.0012
2407.00,0.0011
2406.00,0.0011
2405.00,0.0011
2404.00,0.0012
2403.00,0.0013
2402.00,0.0013
2401.00,0.0014
2400.00,0.0014
2399.00,0.0013
2398.00,0.0013
2397.00,0.0012
2396.00,0.0012
2395.00,0.0011
2394.00,0.0011
2393.00,0.0011
2392.00,0.0011
2391.00,0.0011
2390.00,0.0011
2389.00,0.0011
2388.00,0.0011
2387.00,0.0011
2386.00,0.0011
2385.00,0.0011
2384.00,0.0011
2383.00,0.0011
2382.00,0.0011
2381.00,0.0011
2380.00,0.0011
2379.00,0.0010
2378.00,0.0010
2377.00,0.0010
2376.00,0.0010
2375.00,0.0011
2374.00,0.0011
2373.00,0.0011
2372.00,0.0011
2371.00,0.0011
2370.00,0.0011
2369.00,0.0011
2368.00,0.0011
2367.00,0.0010
2366.00,0.0010
2365.00,0.0009
2364.00,0.0010
2363.00,0.0010
2362.00,0.0011
2361.00,0.0012
2360.00,0.0012
2359.00,0.0012
2358.00,0.0013
2357.00,0.0013
2356.00,0.0013
2355.00,0.0013
2354.00,0.0013
2353.00,0.0012
2352.00,0.0012
2351.00,0.0011
2350.00,0.0011
2349.00,0.0011
2348.00,0.0013
2347.00,0.0014
2346.00,0.0015
2345.00,0.0015
2344.00,0.0014
2343.00,0.0013
2342.00,0.0013
2341.00,0.0014
2340.00,0.0015
2339.00,0.0016
2338.00,0.0016
2337.00,0.0016
2336.00,0.0015
2335.00,0.0015
2334.00,0.0015
2333.00,0.0015
2332.00,0.0015
2331.00,0.0014
2330.00,0.0014
2329.00,0.0014
2328.00,0.0016
2327.00,0.0019
2326.00,0.0023
2325.00,0.0026
2324.00,0.0028
2323.00,0.0027
2322.00,0.0024
2321.00,0.0022
2320.00,0.0019
2319.00,0.0018
2318.00,0.0017
2317.00,0.0018
2316.00,0.0018
2315.00,0.0017
2314.00,0.0017
2313.00,0.0016
2312.00,0.0015
2311.00,0.0014
2310.00,0.0013
2309.00,0.0012
2308.00,0.0012
2307.00,0.0012
2306.00,0.0013
2305.00,0.0014
2304.00,0.0015
2303.00,0.0015
2302.00,0.0015
2301.00,0.0015
2300.00,0.0015
2299.00,0.0015
2298.00,0.0015
2297.00,0.0015
2296.00,0.0016
2295.00,0.0016
2294.00,0.0017
2293.00,0.0018
2292.00,0.0020
2291.00,0.0020
2290.00,0.0021
2289.00,0.0022
2288.00,0.0023
2287.00,0.0023
2286.00,0.0024
2285.00,0.0023
2284.00,0.0023
2283.00,0.0022
2282.00,0.0021
2281.00,0.0020
2280.00,0.0019
2279.00,0.0017
2278.00,0.0016
2277.00,0.0016
2276.00,0.0016
2275.00,0.0016
2274.00,0.0016
2273.00,0.0017
2272.00,0.0018
2271.00,0.0018
2270.00,0.0018
2269.00,0.0017
2268.00,0.0015
2267.00,0.0014
2266.00,0.0013
2265.00,0.0013
2264.00,0.0013
2263.00,0.0014
2262.00,0.0015
2261.00,0.0016
2260.00,0.0018
2259.00,0.0019
2258.00,0.0019
2257.00,0.0018
2256.00,0.0017
2255.00,0.0015
2254.00,0.0014
2253.00,0.0014
2252.00,0.0013
2251.00,0.0013
2250.00,0.0013
2249.00,0.0013
2248.00,0.0014
2247.00,0.0015
2246.00,0.0016
2245.00,0.0015
2244.00,0.0014
2243.00,0.0013
2242.00,0.0012
2241.00,0.0012
2240.00,0.0012
2239.00,0.0013
2238.00,0.0014
2237.00,0.0015
2236.00,0.0014
2235.00,0.0013
2234.00,0.0011
2233.00,0.0010
2232.00,0.0010
2231.00,0.0012
2230.00,0.0013
2229.00,0.0015
2228.00,0.0015
2227.00,0.0014
2226.00,0.0012
2225.00,0.0012
2224.00,0.0013
2223.00,0.0013
2222.00,0.0013
2221.00,0.0013
2220.00,0.0013
2219.00,0.0013
2218.00,0.0013
2217.00,0.0012
2216.00,0.0011
2215.00,0.0010
2214.00,0.0010
2213.00,0.0010
2212.00,0.0010
2211.00,0.0009
2210.00,0.0008
2209.00,0.0008
2208.00,0.0008
2207.00,0.0008
2206.00,0.0009
2205.00,0.0010
2204.00,0.0011
2203.00,0.0012
2202.00,0.0012
2201.00,0.0012
2200.00,0.0013
2199.00,0.0013
2198.00,0.0012
2197.00,0.0012
2196.00,0.0011
2195.00,0.0011
2194.00,0.0011
2193.00,0.0012
2192.00,0.0013
2191.00,0.0014
2190.00,0.0015
2189.00,0.0015
2188.00,0.0014
2187.00,0.0011
2186.00,0.0009
2185.00,0.0008
2184.00,0.0008
2183.00,0.0009
2182.00,0.0010
2181.00,0.0011
2180.00,0.0013
2179.00,0.0013
2178.00,0.0012
2177.00,0.0011
2176.00,0.0009
2175.00,0.0007
2174.00,0.0006
2173.00,0.0006
2172.00,0.0007
2171.00,0.0010
2170.00,0.0014
2169.00,0.0019
2168.00,0.0023
2167.00,0.0025
2166.00,0.0023
2165.00,0.0020
2164.00,0.0017
2163.00,0.0016
2162.00,0.0016
2161.00,0.0012
2160.00,0.0002
2159.00,-0.0011
2158.00,-0.0021
2157.00,-0.0023
2156.00,-0.0021
2155.00,-0.0019
2154.00,-0.0017
2153.00,-0.0016
2152.00,-0.0014
2151.00,-0.0012
2150.00,-0.0011
2149.00,-0.0010
2148.00,-0.0010
2147.00,-0.0011
2146.00,-0.0012
2145.00,-0.0012
2144.00,-0.0010
2143.00,-0.0007
2142.00,-0.0005
2141.00,-0.0005
2140.00,-0.0006
2139.00,-0.0008
2138.00,-0.0008
2137.00,-0.0007
2136.00,-0.0007
2135.00,-0.0007
2134.00,-0.0008
2133.00,-0.0008
2132.00,-0.0008
2131.00,-0.0007
2130.00,-0.0006
2129.00,-0.0005
2128.00,-0.0005
2127.00,-0.0004
2126.00,-0.0004
2125.00,-0.0002
2124.00,0.0000
2123.00,0.0001
2122.00,0.0001
2121.00,0.0001
2120.00,0.0001
2119.00,0.0002
2118.00,0.0004
2117.00,0.0006
2116.00,0.0008
2115.00,0.0009
2114.00,0.0010
2113.00,0.0011
2112.00,0.0011
2111.00,0.0010
2110.00,0.0008
2109.00,0.0007
2108.00,0.0007
2107.00,0.0007
2106.00,0.0007
2105.00,0.0008
2104.00,0.0008
2103.00,0.0008
2102.00,0.0008
2101.00,0.0007
2100.00,0.0007
2099.00,0.0005
2098.00,0.0004
2097.00,0.0003
2096.00,0.0003
2095.00,0.0002
2094.00,0.0001
2093.00,-0.0000
2092.00,0.0000
2091.00,0.0002
2090.00,0.0003
2089.00,0.0005
2088.00,0.0007
2087.00,0.0008
2086.00,0.0008
2085.00,0.0009
2084.00,0.0010
2083.00,0.0010
2082.00,0.0010
2081.00,0.0010
2080.00,0.0010
2079.00,0.0009
2078.00,0.0007
2077.00,0.0005
2076.00,0.0003
2075.00,0.0002
2074.00,0.0003
2073.00,0.0004
2072.00,0.0005
2071.00,0.0005
2070.00,0.0004
2069.00,0.0005
2068.00,0.0006
2067.00,0.0006
2066.00,0.0005
2065.00,0.0004
2064.00,0.0005
2063.00,0.0005
2062.00,0.0006
2061.00,0.0007
2060.00,0.0007
2059.00,0.0006
2058.00,0.0005
2057.00,0.0003
2056.00,0.0002
2055.00,0.0002
2054.00,0.0004
2053.00,0.0008
2052.00,0.0013
2051.00,0.0017
2050.00,0.0016
2049.00,0.0012
2048.00,0.0008
2047.00,0.0005
2046.00,0.0005
2045.00,0.0005
2044.00,0.0007
2043.00,0.0008
2042.00,0.0007
2041.00,0.0006
2040.00,0.0005
2039.00,0.0004
2038.00,0.0004
2037.00,0.0005
2036.00,0.0005
2035.00,0.0004
2034.00,0.0003
2033.00,0.0000
2032.00,-0.0003
2031.00,-0.0006
2030.00,-0.0007
2029.00,-0.0007
2028.00,-0.0007
2027.00,-0.0009
2026.00,-0.0011
2025.00,-0.0012
2024.00,-0.0011
2023.00,-0.0010
2022.00,-0.0010
2021.00,-0.0007
2020.00,-0.0002
2019.00,0.0001
2018.00,0.0001
2017.00,-0.0001
2016.00,-0.0003
2015.00,-0.0005
2014.00,-0.0006
2013.00,-0.0007
2012.00,-0.0007
2011.00,-0.0007
2010.00,-0.0009
2009.00,-0.0010
2008.00,-0.0011
2007.00,-0.0011
2006.00,-0.0011
2005.00,-0.0011
2004.00,-0.0012
2003.00,-0.0013
2002.00,-0.0012
2001.00,-0.0010
2000.00,-0.0009
1999.00,-0.0009
1998.00,-0.0010
1997.00,-0.0011
1996.00,-0.0011
1995.00,-0.0011
1994.00,-0.0009
1993.00,-0.0007
1992.00,-0.0003
1991.00,-0.0001
1990.00,0.0001
1989.00,0.0002
1988.00,0.0003
1987.00,0.0002
1986.00,0.0003
1985.00,0.0005
1984.00,0.0008
1983.00,0.0011
1982.00,0.0013
1981.00,0.0015
1980.00,0.0013
1979.00,0.0008
1978.00,0.0001
1977.00,-0.0006
1976.00,-0.0011
1975.00,-0.0014
1974.00,-0.0016
1973.00,-0.0016
1972.00,-0.0016
1971.00,-0.0015
1970.00,-0.0015
1969.00,-0.0014
1968.00,-0.0012
1967.00,-0.0011
1966.00,-0.0010
1965.00,-0.0010
1964.00,-0.0009
1963.00,-0.0011
1962.00,-0.0013
1961.00,-0.0015
1960.00,-0.0015
1959.00,-0.0014
1958.00,-0.0012
1957.00,-0.0010
1956.00,-0.0009
1955.00,-0.0008
1954.00,-0.0009
1953.00,-0.0008
1952.00,-0.0007
1951.00,-0.0007
1950.00,-0.0006
1949.00,-0.0006
1948.00,-0.0007
1947.00,-0.0009
1946.00,-0.0012
1945.00,-0.0013
1944.00,-0.0013
1943.00,-0.0012
1942.00,-0.0009
1941.00,-0.0007
1940.00,-0.0005
1939.00,-0.0004
1938.00,-0.0004
1937.00,-0.0004
1936.00,-0.0004
1935.00,-0.0004
1934.00,-0.0004
1933.00,-0.0004
1932.00,-0.0003
1931.00,-0.0003
1930.00,-0.0004
1929.00,-0.0004
1928.00,-0.0003
1927.00,-0.0003
1926.00,-0.0003
1925.00,-0.0003
1924.00,-0.0003
1923.00,-0.0002
1922.00,-0.0001
1921.00,-0.0000
1920.00,0.0001
1919.00,0.0002
1918.00,0.0003
1917.00,0.0002
1916.00,0.0002
1915.00,0.0002
1914.00,0.0001
1913.00,0.0001
1912.00,0.0002
1911.00,0.0002
1910.00,0.0002
1909.00,0.0002
1908.00,0.0002
1907.00,0.0001
1906.00,0.0001
1905.00,0.0002
1904.00,0.0003
1903.00,0.0003
1902.00,0.0003
1901.00,0.0003
1900.00,0.0003
1899.00,0.0002
1898.00,0.0002
1897.00,0.0002
1896.00,0.0003
1895.00,0.0003
1894.00,0.0002
1893.00,0.0002
1892.00,0.0003
1891.00,0.0004
1890.00,0.0004
1889.00,0.0004
1888.00,0.0004
1887.00,0.0004
1886.00,0.0004
1885.00,0.0004
1884.00,0.0004
1883.00,0.0003
1882.00,0.0002
1881.00,0.0001
1880.00,0.0002
1879.00,0.0003
1878.00,0.0004
1877.00,0.0005
1876.00,0.0005
1875.00,0.0005
1874.00,0.0005
1873.00,0.0005
1872.00,0.0006
1871.00,0.0006
1870.00,0.0005
1869.00,0.0005
1868.00,0.0004
1867.00,0.0003
1866.00,0.0002
1865.00,0.0001
1864.00,0.0001
1863.00,0.0001
1862.00,0.0001
1861.00,0.0002
1860.00,0.0002
1859.00,0.0003
1858.00,0.0004
1857.00,0.0005
1856.00,0.0006
1855.00,0.0007
1854.00,0.0007
1853.00,0.0006
1852.00,0.0006
1851.00,0.0006
1850.00,0.0005
1849.00,0.0004
1848.00,0.0004
1847.00,0.0004
1846.00,0.0004
1845.00,0.0004
1844.00,0.0005
1843.00,0.0005
1842.00,0.0006
1841.00,0.0006
1840.00,0.0006
1839.00,0.0007
1838.00,0.0007
1837.00,0.0007
1836.00,0.0007
1835.00,0.0007
1834.00,0.0008
1833.00,0.0008
1832.00,0.0008
1831.00,0.0007
1830.00,0.0006
1829.00,0.0006
1828.00,0.0007
1827.00,0.0007
1826.00,0.0007
1825.00,0.0007
1824.00,0.0007
1823.00,0.0008
1822.00,0.0008
1821.00,0.0008
1820.00,0.0007
1819.00,0.0006
1818.00,0.0005
1817.00,0.0004
1816.00,0.0004
1815.00,0.0005
1814.00,0.0006
1813.00,0.0007
1812.00,0.0008
1811.00,0.0008
1810.00,0.0008
1809.00,0.0008
1808.00,0.0009
1807.00,0.0009
1806.00,0.0009
1805.00,0.0009
1804.00,0.0010
1803.00,0.0011
1802.00,0.0011
1801.00,0.0011
1800.00,0.0010
1799.00,0.0010
1798.00,0.0010
1797.00,0.0010
1796.00,0.0010
1795.00,0.0010
1794.00,0.0010
1793.00,0.0011
1792.00,0.0011
1791.00,0.0012
1790.00,0.0012
1789.00,0.0013
1788.00,0.0013
1787.00,0.0013
1786.00,0.0012
1785.00,0.0012
1784.00,0.0013
1783.00,0.0013
1782.00,0.0013
1781.00,0.0014
1780.00,0.0014
1779.00,0.0014
1778.00,0.0013
1777.00,0.0013
1776.00,0.0013
1775.00,0.0014
1774.00,0.0014
1773.00,0.0014
1772.00,0.0015
1771.00,0.0016
1770.00,0.0017
1769.00,0.0017
1768.00,0.0017
1767.00,0.0017
1766.00,0.0017
1765.00,0.0018
1764.00,0.0018
1763.00,0.0019
1762.00,0.0019
1761.00,0.0019
1760.00,0.0019
1759.00,0.0019
1758.00,0.0020
1757.00,0.0021
1756.00,0.0022
1755.00,0.0022
1754.00,0.0023
1753.00,0.0025
1752.00,0.0027
1751.00,0.0028
1750.00,0.0029
1749.00,0.0030
1748.00,0.0031
1747.00,0.0032
1746.00,0.0032
1745.00,0.0033
1744.00,0.0034
1743.00,0.0035
1742.00,0.0035
1741.00,0.0036
1740.00,0.0037
1739.00,0.0037
1738.00,0.0037
1737.00,0.0037
1736.00,0.0038
1735.00,0.0038
1734.00,0.0038
1733.00,0.0038
1732.00,0.0038
1731.00,0.0038
1730.00,0.0037
1729.00,0.0037
1728.00,0.0036
1727.00,0.0036
1726.00,0.0037
1725.00,0.0037
1724.00,0.0038
1723.00,0.0038
1722.00,0.0037
1721.00,0.0037
1720.00,0.0037
1719.00,0.0037
1718.00,0.0036
1717.00,0.0036
1716.00,0.0036
1715.00,0.0035
1714.00,0.0034
1713.00,0.0033
1712.00,0.0033
1711.00,0.0034
1710.00,0.0035
1709.00,0.0035
1708.00,0.0036
1707.00,0.0036
1706.00,0.0036
1705.00,0.0037
1704.00,0.0038
1703.00,0.0039
1702.00,0.0040
1701.00,0.0041
1700.00,0.0043
1699.00,0.0044
1698.00,0.0045
1697.00,0.0045
1696.00,0.0046
1695.00,0.0047
1694.00,0.0048
1693.00,0.0050
1692.00,0.0051
1691.00,0.0052
1690.00,0.0054
1689.00,0.0055
1688.00,0.0057
1687.00,0.0058
1686.00,0.0059
1685.00,0.0061
1684.00,0.0065
1683.00,0.0069
1682.00,0.0072
1681.00,0.0075
1680.00,0.0077
1679.00,0.0078
1678.00,0.0080
1677.00,0.0081
1676.00,0.0083
1675.00,0.0085
1674.00,0.0087
1673.00,0.0089
1672.00,0.0091
1671.00,0.0093
1670.00,0.0094
1669.00,0.0095
1668.00,0.0097
1667.00,0.0097
1666.00,0.0098
1665.00,0.0099
1664.00,0.0100
1663.00,0.0101
1662.00,0.0102
1661.00,0.0103
1660.00,0.0104
1659.00,0.0104
1658.00,0.0105
1657.00,0.0105
1656.00,0.0106
1655.00,0.0106
1654.00,0.0106
1653.00,0.0106
1652.00,0.0107
1651.00,0.0107
1650.00,0.0108
1649.00,0.0108
1648.00,0.0109
1647.00,0.0109
1646.00,0.0109
1645.00,0.0109
1644.00,0.0110
1643.00,0.0110
1642.00,0.0111
1641.00,0.0111
1640.00,0.0111
1639.00,0.0111
1638.00,0.0111
1637.00,0.0111
1636.00,0.0112
1635.00,0.0112
1634.00,0.0112
1633.00,0.0111
1632.00,0.0111
1631.00,0.0110
1630.00,0.0109
1629.00,0.0109
1628.00,0.0108
1627.00,0.0107
1626.00,0.0107
1625.00,0.0106
1624.00,0.0106
1623.00,0.0105
1622.00,0.0105
1621.00,0.0105
1620.00,0.0104
1619.00,0.0103
1618.00,0.0102
1617.00,0.0102
1616.00,0.0101
1615.00,0.0101
1614.00,0.0101
1613.00,0.0101
1612.00,0.0101
1611.00,0.0101
1610.00,0.0101
1609.00,0.0101
1608.00,0.0101
1607.00,0.0100
1606.00,0.0100
1605.00,0.0101
1604.00,0.0101
1603.00,0.0101
1602.00,0.0102
1601.00,0.0103
1600.00,0.0103
1599.00,0.0104
1598.00,0.0103
1597.00,0.0103
1596.00,0.0104
1595.00,0.0105
1594.00,0.0106
1593.00,0.0107
1592.00,0.0110
1591.00,0.0113
1590.00,0.0116
1589.00,0.0120
1588.00,0.0124
1587.00,0.0129
1586.00,0.0135
1585.00,0.0143
1584.00,0.0151
1583.00,0.0160
1582.00,0.0169
1581.00,0.0178
1580.00,0.0186
1579.00,0.0192
1578.00,0.0195
1577.00,0.0194
1576.00,0.0191
1575.00,0.0187
1574.00,0.0182
1573.00,0.0177
1572.00,0.0171
1571.00,0.0165
1570.00,0.0158
1569.00,0.0151
1568.00,0.0146
1567.00,0.0142
1566.00,0.0138
1565.00,0.0135
1564.00,0.0133
1563.00,0.0131
1562.00,0.0131
1561.00,0.0131
1560.00,0.0132
1559.00,0.0133
1558.00,0.0133
1557.00,0.0135
1556.00,0.0137
1555.00,0.0139
1554.00,0.0141
1553.00,0.0144
1552.00,0.0148
1551.00,0.0153
1550.00,0.0158
1549.00,0.0164
1548.00,0.0171
1547.00,0.0178
1546.00,0.0188
1545.00,0.0199
1544.00,0.0209
1543.00,0.0218
1542.00,0.0224
1541.00,0.0224
1540.00,0.0216
1539.00,0.0202
1538.00,0.0190
1537.00,0.0181
1536.00,0.0172
1535.00,0.0161
1534.00,0.0148
1533.00,0.0135
1532.00,0.0127
1531.00,0.0121
1530.00,0.0116
1529.00,0.0113
1528.00,0.0110
1527.00,0.0107
1526.00,0.0105
1525.00,0.0103
1524.00,0.0102
1523.00,0.0101
1522.00,0.0099
1521.00,0.0099
1520.00,0.0099
1519.00,0.0099
1518.00,0.0098
1517.00,0.0098
1516.00,0.0097
1515.00,0.0096
1514.00,0.0096
1513.00,0.0096
1512.00,0.0097
1511.00,0.0098
1510.00,0.0098
1509.00,0.0098
1508.00,0.0100
1507.00,0.0099
1506.00,0.0097
1505.00,0.0098
1504.00,0.0100
1503.00,0.0101
1502.00,0.0103
1501.00,0.0106
1500.00,0.0110
1499.00,0.0113
1498.00,0.0116
1497.00,0.0119
1496.00,0.0123
1495.00,0.0126
1494.00,0.0128
1493.00,0.0132
1492.00,0.0138
1491.00,0.0143
1490.00,0.0150
1489.00,0.0157
1488.00,0.0164
1487.00,0.0170
1486.00,0.0177
1485.00,0.0185
1484.00,0.0196
1483.00,0.0208
1482.00,0.0222
1481.00,0.0239
1480.00,0.0257
1479.00,0.0274
1478.00,0.0294
1477.00,0.0318
1476.00,0.0345
1475.00,0.0375
1474.00,0.0414
1473.00,0.0469
1472.00,0.0532
1471.00,0.0592
1470.00,0.0647
1469.00,0.0706
1468.00,0.0769
1467.00,0.0839
1466.00,0.0917
1465.00,0.1000
1464.00,0.1071
1463.00,0.1120
1462.00,0.1150
1461.00,0.1171
1460.00,0.1187
1459.00,0.1198
1458.00,0.1209
1457.00,0.1218
1456.00,0.1220
1455.00,0.1214
1454.00,0.1205
1453.00,0.1191
1452.00,0.1168
1451.00,0.1134
1450.00,0.1087
1449.00,0.1020
1448.00,0.0935
1447.00,0.0844
1446.00,0.0760
1445.00,0.0688
1444.00,0.0626
1443.00,0.0575
1442.00,0.0536
1441.00,0.0508
1440.00,0.0491
1439.00,0.0482
1438.00,0.0479
1437.00,0.0477
1436.00,0.0465
1435.00,0.0441
1434.00,0.0409
1433.00,0.0370
1432.00,0.0329
1431.00,0.0292
1430.00,0.0263
1429.00,0.0241
1428.00,0.0225
1427.00,0.0217
1426.00,0.0212
1425.00,0.0207
1424.00,0.0203
1423.00,0.0200
1422.00,0.0199
1421.00,0.0196
1420.00,0.0191
1419.00,0.0187
1418.00,0.0183
1417.00,0.0178
1416.00,0.0173
1415.00,0.0169
1414.00,0.0166
1413.00,0.0162
1412.00,0.0159
1411.00,0.0156
1410.00,0.0154
1409.00,0.0152
1408.00,0.0149
1407.00,0.0147
1406.00,0.0146
1405.00,0.0144
1404.00,0.0141
1403.00,0.0140
1402.00,0.0140
1401.00,0.0140
1400.00,0.0139
1399.00,0.0140
1398.00,0.0141
1397.00,0.0141
1396.00,0.0141
1395.00,0.0144
1394.00,0.0147
1393.00,0.0150
1392.00,0.0154
1391.00,0.0160
1390.00,0.0169
1389.00,0.0182
1388.00,0.0202
1387.00,0.0233
1386.00,0.0274
1385.00,0.0328
1384.00,0.0402
1383.00,0.0504
1382.00,0.0641
1381.00,0.0813
1380.00,0.1022
1379.00,0.1252
1378.00,0.1465
1377.00,0.1612
1376.00,0.1650
1375.00,0.1558
1374.00,0.1362
1373.00,0.1132
1372.00,0.0925
1371.00,0.0755
1370.00,0.0619
1369.00,0.0515
1368.00,0.0442
1367.00,0.0397
1366.00,0.0372
1365.00,0.0362
1364.00,0.0363
1363.00,0.0373
1362.00,0.0390
1361.00,0.0407
1360.00,0.0421
1359.00,0.0424
1358.00,0.0416
1357.00,0.0395
1356.00,0.0365
1355.00,0.0332
1354.00,0.0299
1353.00,0.0271
1352.00,0.0248
1351.00,0.0230
1350.00,0.0214
1349.00,0.0201
1348.00,0.0189
1347.00,0.0180
1346.00,0.0171
1345.00,0.0164
1344.00,0.0158
1343.00,0.0154
1342.00,0.0150
1341.00,0.0147
1340.00,0.0144
1339.00,0.0143
1338.00,0.0141
1337.00,0.0141
1336.00,0.0141
1335.00,0.0142
1334.00,0.0144
1333.00,0.0147
1332.00,0.0149
1331.00,0.0151
1330.00,0.0152
1329.00,0.0151
1328.00,0.0148
1327.00,0.0145
1326.00,0.0142
1325.00,0.0138
1324.00,0.0133
1323.00,0.0130
1322.00,0.0127
1321.00,0.0125
1320.00,0.0123
1319.00,0.0122
1318.00,0.0120
1317.00,0.0118
1316.00,0.0116
1315.00,0.0115
1314.00,0.0115
1313.00,0.0115
1312.00,0.0116
1311.00,0.0118
1310.00,0.0123
1309.00,0.0130
1308.00,0.0141
1307.00,0.0154
1306.00,0.0167
1305.00,0.0176
1304.00,0.0179
1303.00,0.0175
1302.00,0.0168
1301.00,0.0162
1300.00,0.0157
1299.00,0.0155
1298.00,0.0154
1297.00,0.0153
1296.00,0.0152
1295.00,0.0149
1294.00,0.0146
1293.00,0.0142
1292.00,0.0138
1291.00,0.0134
1290.00,0.0130
1289.00,0.0126
1288.00,0.0122
1287.00,0.0119
1286.00,0.0116
1285.00,0.0113
1284.00,0.0111
1283.00,0.0109
1282.00,0.0108
1281.00,0.0107
1280.00,0.0106
1279.00,0.0106
1278.00,0.0105
1277.00,0.0105
1276.00,0.0104
1275.00,0.0103
1274.00,0.0103
1273.00,0.0103
1272.00,0.0102
1271.00,0.0103
1270.00,0.0104
1269.00,0.0106
1268.00,0.0108
1267.00,0.0111
1266.00,0.0114
1265.00,0.0118
1264.00,0.0122
1263.00,0.0126
1262.00,0.0130
1261.00,0.0135
1260.00,0.0141
1259.00,0.0149
1258.00,0.0157
1257.00,0.0163
1256.00,0.0166
1255.00,0.0163
1254.00,0.0155
1253.00,0.0145
1252.00,0.0134
1251.00,0.0125
1250.00,0.0119
1249.00,0.0114
1248.00,0.0110
1247.00,0.0108
1246.00,0.0106
1245.00,0.0104
1244.00,0.0103
1243.00,0.0102
1242.00,0.0102
1241.00,0.0102
1240.00,0.0102
1239.00,0.0101
1238.00,0.0101
1237.00,0.0101
1236.00,0.0102
1235.00,0.0102
1234.00,0.0103
1233.00,0.0104
1232.00,0.0105
1231.00,0.0106
1230.00,0.0108
1229.00,0.0110
1228.00,0.0112
1227.00,0.0114
1226.00,0.0117
1225.00,0.0120
1224.00,0.0124
1223.00,0.0127
1222.00,0.0130
1221.00,0.0132
1220.00,0.0134
1219.00,0.0135
1218.00,0.0135
1217.00,0.0134
1216.00,0.0132
1215.00,0.0129
1214.00,0.0126
1213.00,0.0124
1212.00,0.0122
1211.00,0.0120
1210.00,0.0119
1209.00,0.0118
1208.00,0.0117
1207.00,0.0115
1206.00,0.0114
1205.00,0.0113
1204.00,0.0113
1203.00,0.0113
1202.00,0.0114
1201.00,0.0114
1200.00,0.0114
1199.00,0.0115
1198.00,0.0115
1197.00,0.0115
1196.00,0.0115
1195.00,0.0116
1194.00,0.0117
1193.00,0.0117
1192.00,0.0117
1191.00,0.0117
1190.00,0.0117
1189.00,0.0117
1188.00,0.0118
1187.00,0.0118
1186.00,0.0118
1185.00,0.0118
1184.00,0.0118
1183.00,0.0119
1182.00,0.0121
1181.00,0.0123
1180.00,0.0126
1179.00,0.0132
1178.00,0.0138
1177.00,0.0147
1176.00,0.0159
1175.00,0.0175
1174.00,0.0197
1173.00,0.0225
1172.00,0.0259
1171.00,0.0297
1170.00,0.0335
1169.00,0.0365
1168.00,0.0382
1167.00,0.0384
1166.00,0.0372
1165.00,0.0352
1164.00,0.0329
1163.00,0.0307
1162.00,0.0287
1161.00,0.0271
1160.00,0.0258
1159.00,0.0248
1158.00,0.0240
1157.00,0.0234
1156.00,0.0230
1155.00,0.0227
1154.00,0.0224
1153.00,0.0220
1152.00,0.0215
1151.00,0.0208
1150.00,0.0200
1149.00,0.0191
1148.00,0.0181
1147.00,0.0171
1146.00,0.0163
1145.00,0.0155
1144.00,0.0148
1143.00,0.0142
1142.00,0.0137
1141.00,0.0132
1140.00,0.0128
1139.00,0.0125
1138.00,0.0122
1137.00,0.0120
1136.00,0.0118
1135.00,0.0117
1134.00,0.0116
1133.00,0.0115
1132.00,0.0115
1131.00,0.0116
1130.00,0.0117
1129.00,0.0118
1128.00,0.0119
1127.00,0.0121
1126.00,0.0123
1125.00,0.0124
1124.00,0.0125
1123.00,0.0126
1122.00,0.0127
1121.00,0.0127
1120.00,0.0128
1119.00,0.0129
1118.00,0.0130
1117.00,0.0131
1116.00,0.0133
1115.00,0.0135
1114.00,0.0137
1113.00,0.0139
1112.00,0.0141
1111.00,0.0144
1110.00,0.0147
1109.00,0.0150
1108.00,0.0153
1107.00,0.0157
1106.00,0.0161
1105.00,0.0166
1104.00,0.0169
1103.00,0.0171
1102.00,0.0170
1101.00,0.0167
1100.00,0.0162
1099.00,0.0156
1098.00,0.0151
1097.00,0.0146
1096.00,0.0142
1095.00,0.0137
1094.00,0.0134
1093.00,0.0130
1092.00,0.0127
1091.00,0.0125
1090.00,0.0123
1089.00,0.0121
1088.00,0.0120
1087.00,0.0119
1086.00,0.0118
1085.00,0.0118
1084.00,0.0118
1083.00,0.0117
1082.00,0.0116
1081.00,0.0114
1080.00,0.0112
1079.00,0.0111
1078.00,0.0110
1077.00,0.0109
1076.00,0.0107
1075.00,0.0106
1074.00,0.0105
1073.00,0.0104
1072.00,0.0104
1071.00,0.0104
1070.00,0.0105
1069.00,0.0105
1068.00,0.0105
1067.00,0.0105
1066.00,0.0105
1065.00,0.0106
1064.00,0.0107
1063.00,0.0108
1062.00,0.0109
1061.00,0.0109
1060.00,0.0110
1059.00,0.0112
1058.00,0.0114
1057.00,0.0117
1056.00,0.0119
1055.00,0.0121
1054.00,0.0124
1053.00,0.0127
1052.00,0.0131
1051.00,0.0136
1050.00,0.0142
1049.00,0.0149
1048.00,0.0155
1047.00,0.0162
1046.00,0.0168
1045.00,0.0171
1044.00,0.0172
1043.00,0.0171
1042.00,0.0168
1041.00,0.0165
1040.00,0.0163
1039.00,0.0164
1038.00,0.0165
1037.00,0.0167
1036.00,0.0168
1035.00,0.0167
1034.00,0.0165
1033.00,0.0162
1032.00,0.0158
1031.00,0.0155
1030.00,0.0154
1029.00,0.0153
1028.00,0.0153
1027.00,0.0154
1026.00,0.0155
1025.00,0.0156
1024.00,0.0158
1023.00,0.0161
1022.00,0.0163
1021.00,0.0166
1020.00,0.0169
1019.00,0.0171
1018.00,0.0174
1017.00,0.0176
1016.00,0.0178
1015.00,0.0180
1014.00,0.0182
1013.00,0.0183
1012.00,0.0183
1011.00,0.0183
1010.00,0.0183
1009.00,0.0182
1008.00,0.0182
1007.00,0.0185
1006.00,0.0191
1005.00,0.0201
1004.00,0.0218
1003.00,0.0243
1002.00,0.0278
1001.00,0.0322
1000.00,0.0371
999.00,0.0413
998.00,0.0435
997.00,0.0428
996.00,0.0396
995.00,0.0349
994.00,0.0298
993.00,0.0253
992.00,0.0218
991.00,0.0192
990.00,0.0174
989.00,0.0161
988.00,0.0153
987.00,0.0148
986.00,0.0146
985.00,0.0146
984.00,0.0150
983.00,0.0157
982.00,0.0168
981.00,0.0184
980.00,0.0206
979.00,0.0236
978.00,0.0276
977.00,0.0324
976.00,0.0377
975.00,0.0428
974.00,0.0468
973.00,0.0485
972.00,0.0472
971.00,0.0429
970.00,0.0368
969.00,0.0305
968.00,0.0249
967.00,0.0207
966.00,0.0177
965.00,0.0154
964.00,0.0139
963.00,0.0127
962.00,0.0119
961.00,0.0113
960.00,0.0108
959.00,0.0103
958.00,0.0100
957.00,0.0097
956.00,0.0095
955.00,0.0094
954.00,0.0092
953.00,0.0090
952.00,0.0088
951.00,0.0087
950.00,0.0085
949.00,0.0084
948.00,0.0083
947.00,0.0083
946.00,0.0084
945.00,0.0087
944.00,0.0089
943.00,0.0092
942.00,0.0094
941.00,0.0096
940.00,0.0097
939.00,0.0096
938.00,0.0093
937.00,0.0089
936.00,0.0085
935.00,0.0082
934.00,0.0079
933.00,0.0078
932.00,0.0076
931.00,0.0074
930.00,0.0073
929.00,0.0073
928.00,0.0074
927.00,0.0075
926.00,0.0076
925.00,0.0075
924.00,0.0074
923.00,0.0074
922.00,0.0074
921.00,0.0073
920.00,0.0073
919.00,0.0073
918.00,0.0074
917.00,0.0076
916.00,0.0078
915.00,0.0079
914.00,0.0079
913.00,0.0080
912.00,0.0081
911.00,0.0084
910.00,0.0086
909.00,0.0087
908.00,0.0089
907.00,0.0091
906.00,0.0096
905.00,0.0104
904.00,0.0116
903.00,0.0131
902.00,0.0148
901.00,0.0162
900.00,0.0171
899.00,0.0172
898.00,0.0165
897.00,0.0151
896.00,0.0136
895.00,0.0123
894.00,0.0112
893.00,0.0104
892.00,0.0099
891.00,0.0095
890.00,0.0092
889.00,0.0090
888.00,0.0088
887.00,0.0087
886.00,0.0086
885.00,0.0086
884.00,0.0087
883.00,0.0089
882.00,0.0091
881.00,0.0092
880.00,0.0092
879.00,0.0091
878.00,0.0091
877.00,0.0092
876.00,0.0093
875.00,0.0095
874.00,0.0095
873.00,0.0095
872.00,0.0094
871.00,0.0092
870.00,0.0091
869.00,0.0090
868.00,0.0089
867.00,0.0090
866.00,0.0091
865.00,0.0092
864.00,0.0092
863.00,0.0094
862.00,0.0095
861.00,0.0097
860.00,0.0098
859.00,0.0098
858.00,0.0099
857.00,0.0100
856.00,0.0102
855.00,0.0104
854.00,0.0107
853.00,0.0111
852.00,0.0115
851.00,0.0121
850.00,0.0127
849.00,0.0135
848.00,0.0145
847.00,0.0159
846.00,0.0183
845.00,0.0222
844.00,0.0279
843.00,0.0348
842.00,0.0407
841.00,0.0430
840.00,0.0406
839.00,0.0347
838.00,0.0279
837.00,0.0224
836.00,0.0187
835.00,0.0165
834.00,0.0153
833.00,0.0144
832.00,0.0138
831.00,0.0133
830.00,0.0128
829.00,0.0124
828.00,0.0120
827.00,0.0117
826.00,0.0116
825.00,0.0114
824.00,0.0114
823.00,0.0113
822.00,0.0114
821.00,0.0117
820.00,0.0119
819.00,0.0122
818.00,0.0126
817.00,0.0131
816.00,0.0139
815.00,0.0148
814.00,0.0161
813.00,0.0176
812.00,0.0192
811.00,0.0207
810.00,0.0217
809.00,0.0221
808.00,0.0218
807.00,0.0209
806.00,0.0196
805.00,0.0182
804.00,0.0167
803.00,0.0155
802.00,0.0145
801.00,0.0137
800.00,0.0132
799.00,0.0128
798.00,0.0125
797.00,0.0121
796.00,0.0118
795.00,0.0116
794.00,0.0113
793.00,0.0111
792.00,0.0107
791.00,0.0103
790.00,0.0098
789.00,0.0095
788.00,0.0093
787.00,0.0091
786.00,0.0091
785.00,0.0090
784.00,0.0090
783.00,0.0089
782.00,0.0089
781.00,0.0088
780.00,0.0086
779.00,0.0084
778.00,0.0083
777.00,0.0081
776.00,0.0080
775.00,0.0080
774.00,0.0081
773.00,0.0082
772.00,0.0084
771.00,0.0085
770.00,0.0086
769.00,0.0086
768.00,0.0086
767.00,0.0086
766.00,0.0086
765.00,0.0087
764.00,0.0087
763.00,0.0087
762.00,0.0087
761.00,0.0088
760.00,0.0088
759.00,0.0089
758.00,0.0089
757.00,0.0091
756.00,0.0093
755.00,0.0095
754.00,0.0097
753.00,0.0097
752.00,0.0096
751.00,0.0096
750.00,0.0096
749.00,0.0099
748.00,0.0102
747.00,0.0104
746.00,0.0107
745.00,0.0108
744.00,0.0109
743.00,0.0110
742.00,0.0113
741.00,0.0118
740.00,0.0123
739.00,0.0128
738.00,0.0132
737.00,0.0136
736.00,0.0139
735.00,0.0144
734.00,0.0150
733.00,0.0157
732.00,0.0165
731.00,0.0173
730.00,0.0180
729.00,0.0185
728.00,0.0186
727.00,0.0186
726.00,0.0186
725.00,0.0188
724.00,0.0194
723.00,0.0202
722.00,0.0209
721.00,0.0212
720.00,0.0210
719.00,0.0202
718.00,0.0189
717.00,0.0174
716.00,0.0162
715.00,0.0152
714.00,0.0146
713.00,0.0141
712.00,0.0137
711.00,0.0133
710.00,0.0131
709.00,0.0131
708.00,0.0132
707.00,0.0133
706.00,0.0133
705.00,0.0132
704.00,0.0131
703.00,0.0131
702.00,0.0130
701.00,0.0129
700.00,0.0126
699.00,0.0123
698.00,0.0121
697.00,0.0120
696.00,0.0121
695.00,0.0122
694.00,0.0123
693.00,0.0123
692.00,0.0122
691.00,0.0121
690.00,0.0120
689.00,0.0120
688.00,0.0122
687.00,0.0125
686.00,0.0126
685.00,0.0126
684.00,0.0125
683.00,0.0125
682.00,0.0125
681.00,0.0127
680.00,0.0129
679.00,0.0129
678.00,0.0129
677.00,0.0128
676.00,0.0127
675.00,0.0129
674.00,0.0131
673.00,0.0134
672.00,0.0137
671.00,0.0139
670.00,0.0140
669.00,0.0139
668.00,0.0136
667.00,0.0132
666.00,0.0129
665.00,0.0127
664.00,0.0126
663.00,0.0125
662.00,0.0124
661.00,0.0122
660.00,0.0119
659.00,0.0116
658.00,0.0113
657.00,0.0110
656.00,0.0109
655.00,0.0109
654.00,0.0110
653.00,0.0111
652.00,0.0113
651.00,0.0115
650.00,0.0116
649.00,0.0116
648.00,0.0115
647.00,0.0114
646.00,0.0114
645.00,0.0113
644.00,0.0111
643.00,0.0110
642.00,0.0110
641.00,0.0109
640.00,0.0109
639.00,0.0109
638.00,0.0110
637.00,0.0112
636.00,0.0114
635.00,0.0117
634.00,0.0118
633.00,0.0119
632.00,0.0118
631.00,0.0116
630.00,0.0116
629.00,0.0117
628.00,0.0117
627.00,0.0115
626.00,0.0114
625.00,0.0114
624.00,0.0116
623.00,0.0119
622.00,0.0122
621.00,0.0124
620.00,0.0125
619.00,0.0123
618.00,0.0119
617.00,0.0116
616.00,0.0114
615.00,0.0112
614.00,0.0111
613.00,0.0110
612.00,0.0109
611.00,0.0110
610.00,0.0112
609.00,0.0115
608.00,0.0116
607.00,0.0117
606.00,0.0115
605.00,0.0113
604.00,0.0112
603.00,0.0111
602.00,0.0111
601.00,0.0111
600.00,0.0112
599.00,0.0114
598.00,0.0116
597.00,0.0116
596.00,0.0116
595.00,0.0115
594.00,0.0113
593.00,0.0112
592.00,0.0110
591.00,0.0109
590.00,0.0108
589.00,0.0106
588.00,0.0105
587.00,0.0106
586.00,0.0109
585.00,0.0115
584.00,0.0120
583.00,0.0124
582.00,0.0126
581.00,0.0125
580.00,0.0122
579.00,0.0120
578.00,0.0120
577.00,0.0120
576.00,0.0118
575.00,0.0115
574.00,0.0114
573.00,0.0115
572.00,0.0118
571.00,0.0120
570.00,0.0121
569.00,0.0121
568.00,0.0121
567.00,0.0121
566.00,0.0121
565.00,0.0120
564.00,0.0117
563.00,0.0116
562.00,0.0116
561.00,0.0118
560.00,0.0122
559.00,0.0124
558.00,0.0125
557.00,0.0124
556.00,0.0123
555.00,0.0123
554.00,0.0123
553.00,0.0122
552.00,0.0121
551.00,0.0120
550.00,0.0119
549.00,0.0117
548.00,0.0116
547.00,0.0116
546.00,0.0120
545.00,0.0125
544.00,0.0131
543.00,0.0136
542.00,0.0140
541.00,0.0141
540.00,0.0141
539.00,0.0142
538.00,0.0144
537.00,0.0145
536.00,0.0143
535.00,0.0140
534.00,0.0138
533.00,0.0136
532.00,0.0133
531.00,0.0130
530.00,0.0128
529.00,0.0127
528.00,0.0128
527.00,0.0129
526.00,0.0130
525.00,0.0130
524.00,0.0129
523.00,0.0129
522.00,0.0130
521.00,0.0130
520.00,0.0128
519.00,0.0126
518.00,0.0123
517.00,0.0117
516.00,0.0108
515.00,0.0100
514.00,0.0097
513.00,0.0102
512.00,0.0109
511.00,0.0113
510.00,0.0111
509.00,0.0107
508.00,0.0105
507.00,0.0107
506.00,0.0113
505.00,0.0120
504.00,0.0124
503.00,0.0124
502.00,0.0123
501.00,0.0120
500.00,0.0116
499.00,0.0113
498.00,0.0110
497.00,0.0110
496.00,0.0111
495.00,0.0113
494.00,0.0114
493.00,0.0111
492.00,0.0106
491.00,0.0099
490.00,0.0093
489.00,0.0090
488.00,0.0091
487.00,0.0096
486.00,0.0103
485.00,0.0106
484.00,0.0106
483.00,0.0107
482.00,0.0112
481.00,0.0118
480.00,0.0123
479.00,0.0125
478.00,0.0126
477.00,0.0128
476.00,0.0128
475.00,0.0127
474.00,0.0127
473.00,0.0131
472.00,0.0140
471.00,0.0153
470.00,0.0166
469.00,0.0175
468.00,0.0179
467.00,0.0181
466.00,0.0186
465.00,0.0192
464.00,0.0198
463.00,0.0201
462.00,0.0201
461.00,0.0201
460.00,0.0199
459.00,0.0195
458.00,0.0193
457.00,0.0198
456.00,0.0209
455.00,0.0217
454.00,0.0216
453.00,0.0205
452.00,0.0192
451.00,0.0181
450.00,0.0174
