Created as New Dataset,Sample 042 By Administrator Date Thursday, September 04 2025
cm-1,A
4000.00,0.0010
3999.00,0.0010
3998.00,0.0010
3997.00,0.0010
3996.00,0.0010
3995.00,0.0010
3994.00,0.0010
3993.00,0.0010
3992.00,0.0010
3991.00,0.0009
3990.00,0.0010
3989.00,0.0010
3988.00,0.0010
3987.00,0.0010
3986.00,0.0010
3985.00,0.0010
3984.00,0.0009
3983.00,0.0009
3982.00,0.0009
3981.00,0.0009
3980.00,0.0008
3979.00,0.0008
3978.00,0.0009
3977.00,0.0008
3976.00,0.0008
3975.00,0.0008
3974.00,0.0008
3973.00,0.0008
3972.00,0.0008
3971.00,0.0009
3970.00,0.0009
3969.00,0.0008
3968.00,0.0008
3967.00,0.0008
3966.00,0.0008
3965.00,0.0008
3964.00,0.0008
3963.00,0.0008
3962.00,0.0009
3961.00,0.0009
3960.00,0.0009
3959.00,0.0009
3958.00,0.0009
3957.00,0.0009
3956.00,0.0009
3955.00,0.0008
3954.00,0.0008
3953.00,0.0008
3952.00,0.0007
3951.00,0.0007
3950.00,0.0007
3949.00,0.0008
3948.00,0.0008
3947.00,0.0008
3946.00,0.0008
3945.00,0.0008
3944.00,0.0008
3943.00,0.0008
3942.00,0.0008
3941.00,0.0008
3940.00,0.0008
3939.00,0.0008
3938.00,0.0008
3937.00,0.0008
3936.00,0.0008
3935.00,0.0008
3934.00,0.0008
3933.00,0.0008
3932.00,0.0008
3931.00,0.0009
3930.00,0.0009
3929.00,0.0009
3928.00,0.0009
3927.00,0.0009
3926.00,0.0009
3925.00,0.0009
3924.00,0.0009
3923.00,0.0009
3922.00,0.0009
3921.00,0.0009
3920.00,0.0009
3919.00,0.0009
3918.00,0.0008
3917.00,0.0008
3916.00,0.0008
3915.00,0.0008
3914.00,0.0008
3913.00,0.0008
3912.00,0.0008
3911.00,0.0008
3910.00,0.0008
3909.00,0.0008
3908.00,0.0008
3907.00,0.0008
3906.00,0.0008
3905.00,0.0008
3904.00,0.0008
3903.00,0.0008
3902.00,0.0008
3901.00,0.0009
3900.00,0.0009
3899.00,0.0009
3898.00,0.0009
3897.00,0.0008
3896.00,0.0008
3895.00,0.0008
3894.00,0.0008
3893.00,0.0008
3892.00,0.0008
3891.00,0.0008
3890.00,0.0007
3889.00,0.0007
3888.00,0.0007
3887.00,0.0007
3886.00,0.0007
3885.00,0.0007
3884.00,0.0007
3883.00,0.0007
3882.00,0.0007
3881.00,0.0007
3880.00,0.0007
3879.00,0.0007
3878.00,0.0007
3877.00,0.0007
3876.00,0.0007
3875.00,0.0008
3874.00,0.0007
3873.00,0.0007
3872.00,0.0007
3871.00,0.0007
3870.00,0.0007
3869.00,0.0007
3868.00,0.0007
3867.00,0.0007
3866.00,0.0007
3865.00,0.0007
3864.00,0.0008
3863.00,0.0008
3862.00,0.0008
3861.00,0.0008
3860.00,0.0008
3859.00,0.0007
3858.00,0.0006
3857.00,0.0006
3856.00,0.0005
3855.00,0.0005
3854.00,0.0005
3853.00,0.0006
3852.00,0.0006
3851.00,0.0006
3850.00,0.0006
3849.00,0.0007
3848.00,0.0007
3847.00,0.0007
3846.00,0.0007
3845.00,0.0006
3844.00,0.0006
3843.00,0.0006
3842.00,0.0006
3841.00,0.0006
3840.00,0.0006
3839.00,0.0007
3838.00,0.0007
3837.00,0.0007
3836.00,0.0007
3835.00,0.0007
3834.00,0.0007
3833.00,0.0007
3832.00,0.0007
3831.00,0.0007
3830.00,0.0007
3829.00,0.0008
3828.00,0.0008
3827.00,0.0008
3826.00,0.0008
3825.00,0.0008
3824.00,0.0007
3823.00,0.0007
3822.00,0.0007
3821.00,0.0007
3820.00,0.0007
3819.00,0.0007
3818.00,0.0007
3817.00,0.0007
3816.00,0.0007
3815.00,0.0008
3814.00,0.0008
3813.00,0.0008
3812.00,0.0008
3811.00,0.0008
3810.00,0.0008
3809.00,0.0008
3808.00,0.0007
3807.00,0.0007
3806.00,0.0007
3805.00,0.0007
3804.00,0.0007
3803.00,0.0007
3802.00,0.0007
3801.00,0.0007
3800.00,0.0007
3799.00,0.0007
3798.00,0.0007
3797.00,0.0007
3796.00,0.0007
3795.00,0.0008
3794.00,0.0008
3793.00,0.0008
3792.00,0.0008
3791.00,0.0008
3790.00,0.0008
3789.00,0.0008
3788.00,0.0008
3787.00,0.0008
3786.00,0.0008
3785.00,0.0007
3784.00,0.0007
3783.00,0.0007
3782.00,0.0007
3781.00,0.0007
3780.00,0.0008
3779.00,0.0008
3778.00,0.0007
3777.00,0.0007
3776.00,0.0007
3775.00,0.0007
3774.00,0.0008
3773.00,0.0008
3772.00,0.0008
3771.00,0.0009
3770.00,0.0008
3769.00,0.0008
3768.00,0.0007
3767.00,0.0007
3766.00,0.0007
3765.00,0.0008
3764.00,0.0008
3763.00,0.0008
3762.00,0.0009
3761.00,0.0008
3760.00,0.0008
3759.00,0.0008
3758.00,0.0008
3757.00,0.0007
3756.00,0.0007
3755.00,0.0007
3754.00,0.0007
3753.00,0.0006
3752.00,0.0006
3751.00,0.0006
3750.00,0.0006
3749.00,0.0006
3748.00,0.0006
3747.00,0.0006
3746.00,0.0007
3745.00,0.0007
3744.00,0.0007
3743.00,0.0007
3742.00,0.0007
3741.00,0.0008
3740.00,0.0008
3739.00,0.0008
3738.00,0.0007
3737.00,0.0007
3736.00,0.0007
3735.00,0.0006
3734.00,0.0006
3733.00,0.0006
3732.00,0.0006
3731.00,0.0006
3730.00,0.0006
3729.00,0.0006
3728.00,0.0006
3727.00,0.0006
3726.00,0.0006
3725.00,0.0006
3724.00,0.0006
3723.00,0.0006
3722.00,0.0005
3721.00,0.0005
3720.00,0.0005
3719.00,0.0006
3718.00,0.0006
3717.00,0.0006
3716.00,0.0006
3715.00,0.0006
3714.00,0.0006
3713.00,0.0006
3712.00,0.0006
3711.00,0.0006
3710.00,0.0006
3709.00,0.0006
3708.00,0.0006
3707.00,0.0006
3706.00,0.0006
3705.00,0.0006
3704.00,0.0006
3703.00,0.0006
3702.00,0.0006
3701.00,0.0006
3700.00,0.0006
3699.00,0.0006
3698.00,0.0007
3697.00,0.0007
3696.00,0.0006
3695.00,0.0006
3694.00,0.0005
3693.00,0.0005
3692.00,0.0006
3691.00,0.0006
3690.00,0.0007
3689.00,0.0007
3688.00,0.0008
3687.00,0.0008
3686.00,0.0008
3685.00,0.0008
3684.00,0.0008
3683.00,0.0008
3682.00,0.0009
3681.00,0.0009
3680.00,0.0010
3679.00,0.0010
3678.00,0.0011
3677.00,0.0011
3676.00,0.0011
3675.00,0.0011
3674.00,0.0011
3673.00,0.0011
3672.00,0.0011
3671.00,0.0011
3670.00,0.0011
3669.00,0.0010
3668.00,0.0010
3667.00,0.0010
3666.00,0.0010
3665.00,0.0010
3664.00,0.0010
3663.00,0.0010
3662.00,0.0010
3661.00,0.0011
3660.00,0.0011
3659.00,0.0011
3658.00,0.0011
3657.00,0.0011
3656.00,0.0011
3655.00,0.0011
3654.00,0.0010
3653.00,0.0011
3652.00,0.0011
3651.00,0.0012
3650.00,0.0012
3649.00,0.0012
3648.00,0.0012
3647.00,0.0012
3646.00,0.0011
3645.00,0.0011
3644.00,0.0011
3643.00,0.0011
3642.00,0.0010
3641.00,0.0010
3640.00,0.0010
3639.00,0.0011
3638.00,0.0011
3637.00,0.0011
3636.00,0.0011
3635.00,0.0011
3634.00,0.0010
3633.00,0.0010
3632.00,0.0010
3631.00,0.0010
3630.00,0.0010
3629.00,0.0010
3628.00,0.0010
3627.00,0.0010
3626.00,0.0010
3625.00,0.0010
3624.00,0.0011
3623.00,0.0011
3622.00,0.0011
3621.00,0.0011
3620.00,0.0011
3619.00,0.0011
3618.00,0.0011
3617.00,0.0012
3616.00,0.0012
3615.00,0.0012
3614.00,0.0012
3613.00,0.0012
3612.00,0.0011
3611.00,0.0011
3610.00,0.0011
3609.00,0.0012
3608.00,0.0013
3607.00,0.0013
3606.00,0.0013
3605.00,0.0013
3604.00,0.0013
3603.00,0.0013
3602.00,0.0013
3601.00,0.0014
3600.00,0.0014
3599.00,0.0014
3598.00,0.0014
3597.00,0.0013
3596.00,0.0013
3595.00,0.0013
3594.00,0.0014
3593.00,0.0014
3592.00,0.0015
3591.00,0.0015
3590.00,0.0016
3589.00,0.0016
3588.00,0.0016
3587.00,0.0016
3586.00,0.0016
3585.00,0.0016
3584.00,0.0016
3583.00,0.0017
3582.00,0.0017
3581.00,0.0018
3580.00,0.0019
3579.00,0.0019
3578.00,0.0020
3577.00,0.0020
3576.00,0.0020
3575.00,0.0020
3574.00,0.0020
3573.00,0.0020
3572.00,0.0020
3571.00,0.0020
3570.00,0.0020
3569.00,0.0020
3568.00,0.0020
3567.00,0.0021
3566.00,0.0021
3565.00,0.0021
3564.00,0.0021
3563.00,0.0021
3562.00,0.0022
3561.00,0.0022
3560.00,0.0023
3559.00,0.0023
3558.00,0.0023
3557.00,0.0024
3556.00,0.0024
3555.00,0.0024
3554.00,0.0025
3553.00,0.0025
3552.00,0.0025
3551.00,0.0026
3550.00,0.0026
3549.00,0.0027
3548.00,0.0027
3547.00,0.0028
3546.00,0.0028
3545.00,0.0028
3544.00,0.0028
3543.00,0.0028
3542.00,0.0028
3541.00,0.0028
3540.00,0.0029
3539.00,0.0029
3538.00,0.0030
3537.00,0.0030
3536.00,0.0030
3535.00,0.0030
3534.00,0.0031
3533.00,0.0031
3532.00,0.0031
3531.00,0.0032
3530.00,0.0032
3529.00,0.0032
3528.00,0.0033
3527.00,0.0033
3526.00,0.0033
3525.00,0.0034
3524.00,0.0034
3523.00,0.0035
3522.00,0.0035
3521.00,0.0035
3520.00,0.0035
3519.00,0.0035
3518.00,0.0035
3517.00,0.0035
3516.00,0.0036
3515.00,0.0037
3514.00,0.0037
3513.00,0.0038
3512.00,0.0038
3511.00,0.0038
3510.00,0.0038
3509.00,0.0038
3508.00,0.0039
3507.00,0.0039
3506.00,0.0040
3505.00,0.0040
3504.00,0.0040
3503.00,0.0040
3502.00,0.0040
3501.00,0.0041
3500.00,0.0041
3499.00,0.0041
3498.00,0.0042
3497.00,0.0042
3496.00,0.0042
3495.00,0.0043
3494.00,0.0043
3493.00,0.0043
3492.00,0.0044
3491.00,0.0044
3490.00,0.0044
3489.00,0.0045
3488.00,0.0045
3487.00,0.0046
3486.00,0.0046
3485.00,0.0046
3484.00,0.0047
3483.00,0.0047
3482.00,0.0047
3481.00,0.0048
3480.00,0.0048
3479.00,0.0049
3478.00,0.0049
3477.00,0.0049
3476.00,0.0050
3475.00,0.0050
3474.00,0.0051
3473.00,0.0052
3472.00,0.0052
3471.00,0.0052
3470.00,0.0052
3469.00,0.0052
3468.00,0.0052
3467.00,0.0052
3466.00,0.0052
3465.00,0.0052
3464.00,0.0053
3463.00,0.0053
3462.00,0.0053
3461.00,0.0053
3460.00,0.0053
3459.00,0.0054
3458.00,0.0054
3457.00,0.0054
3456.00,0.0054
3455.00,0.0054
3454.00,0.0054
3453.00,0.0054
3452.00,0.0054
3451.00,0.0055
3450.00,0.0055
3449.00,0.0056
3448.00,0.0057
3447.00,0.0057
3446.00,0.0057
3445.00,0.0057
3444.00,0.0057
3443.00,0.0058
3442.00,0.0058
3441.00,0.0058
3440.00,0.0059
3439.00,0.0059
3438.00,0.0059
3437.00,0.0059
3436.00,0.0060
3435.00,0.0060
3434.00,0.0060
3433.00,0.0061
3432.00,0.0061
3431.00,0.0061
3430.00,0.0062
3429.00,0.0062
3428.00,0.0062
3427.00,0.0062
3426.00,0.0063
3425.00,0.0063
3424.00,0.0063
3423.00,0.0063
3422.00,0.0063
3421.00,0.0064
3420.00,0.0064
3419.00,0.0064
3418.00,0.0065
3417.00,0.0065
3416.00,0.0065
3415.00,0.0065
3414.00,0.0066
3413.00,0.0066
3412.00,0.0066
3411.00,0.0066
3410.00,0.0066
3409.00,0.0067
3408.00,0.0067
3407.00,0.0068
3406.00,0.0068
3405.00,0.0069
3404.00,0.0069
3403.00,0.0069
3402.00,0.0069
3401.00,0.0069
3400.00,0.0069
3399.00,0.0070
3398.00,0.0070
3397.00,0.0070
3396.00,0.0070
3395.00,0.0070
3394.00,0.0070
3393.00,0.0071
3392.00,0.0071
3391.00,0.0071
3390.00,0.0071
3389.00,0.0071
3388.00,0.0071
3387.00,0.0071
3386.00,0.0071
3385.00,0.0071
3384.00,0.0070
3383.00,0.0070
3382.00,0.0070
3381.00,0.0070
3380.00,0.0070
3379.00,0.0070
3378.00,0.0071
3377.00,0.0071
3376.00,0.0071
3375.00,0.0072
3374.00,0.0072
3373.00,0.0072
3372.00,0.0072
3371.00,0.0072
3370.00,0.0072
3369.00,0.0072
3368.00,0.0072
3367.00,0.0072
3366.00,0.0072
3365.00,0.0072
3364.00,0.0072
3363.00,0.0072
3362.00,0.0072
3361.00,0.0072
3360.00,0.0072
3359.00,0.0072
3358.00,0.0072
3357.00,0.0072
3356.00,0.0072
3355.00,0.0072
3354.00,0.0072
3353.00,0.0072
3352.00,0.0073
3351.00,0.0073
3350.00,0.0073
3349.00,0.0073
3348.00,0.0073
3347.00,0.0073
3346.00,0.0073
3345.00,0.0073
3344.00,0.0073
3343.00,0.0072
3342.00,0.0072
3341.00,0.0072
3340.00,0.0072
3339.00,0.0072
3338.00,0.0072
3337.00,0.0073
3336.00,0.0073
3335.00,0.0072
3334.00,0.0072
3333.00,0.0072
3332.00,0.0072
3331.00,0.0072
3330.00,0.0072
3329.00,0.0072
3328.00,0.0071
3327.00,0.0071
3326.00,0.0071
3325.00,0.0071
3324.00,0.0071
3323.00,0.0071
3322.00,0.0071
3321.00,0.0071
3320.00,0.0071
3319.00,0.0071
3318.00,0.0071
3317.00,0.0071
3316.00,0.0071
3315.00,0.0071
3314.00,0.0071
3313.00,0.0071
3312.00,0.0072
3311.00,0.0072
3310.00,0.0072
3309.00,0.0072
3308.00,0.0073
3307.00,0.0073
3306.00,0.0074
3305.00,0.0074
3304.00,0.0075
3303.00,0.0075
3302.00,0.0075
3301.00,0.0075
3300.00,0.0074
3299.00,0.0074
3298.00,0.0073
3297.00,0.0073
3296.00,0.0072
3295.00,0.0071
3294.00,0.0070
3293.00,0.0069
3292.00,0.0069
3291.00,0.0069
3290.00,0.0068
3289.00,0.0068
3288.00,0.0068
3287.00,0.0068
3286.00,0.0067
3285.00,0.0067
3284.00,0.0067
3283.00,0.0066
3282.00,0.0066
3281.00,0.0065
3280.00,0.0065
3279.00,0.0065
3278.00,0.0065
3277.00,0.0065
3276.00,0.0065
3275.00,0.0065
3274.00,0.0064
3273.00,0.0064
3272.00,0.0064
3271.00,0.0063
3270.00,0.0063
3269.00,0.0063
3268.00,0.0063
3267.00,0.0063
3266.00,0.0063
3265.00,0.0063
3264.00,0.0062
3263.00,0.0061
3262.00,0.0061
3261.00,0.0061
3260.00,0.0060
3259.00,0.0060
3258.00,0.0060
3257.00,0.0060
3256.00,0.0060
3255.00,0.0060
3254.00,0.0060
3253.00,0.0059
3252.00,0.0058
3251.00,0.0058
3250.00,0.0058
3249.00,0.0058
3248.00,0.0058
3247.00,0.0057
3246.00,0.0057
3245.00,0.0057
3244.00,0.0057
3243.00,0.0057
3242.00,0.0057
3241.00,0.0057
3240.00,0.0057
3239.00,0.0057
3238.00,0.0056
3237.00,0.0057
3236.00,0.0057
3235.00,0.0057
3234.00,0.0057
3233.00,0.0057
3232.00,0.0057
3231.00,0.0056
3230.00,0.0056
3229.00,0.0056
3228.00,0.0056
3227.00,0.0056
3226.00,0.0056
3225.00,0.0057
3224.00,0.0057
3223.00,0.0057
3222.00,0.0057
3221.00,0.0057
3220.00,0.0058
3219.00,0.0058
3218.00,0.0058
3217.00,0.0058
3216.00,0.0058
3215.00,0.0058
3214.00,0.0058
3213.00,0.0058
3212.00,0.0058
3211.00,0.0058
3210.00,0.0058
3209.00,0.0058
3208.00,0.0059
3207.00,0.0059
3206.00,0.0059
3205.00,0.0060
3204.00,0.0060
3203.00,0.0060
3202.00,0.0060
3201.00,0.0060
3200.00,0.0060
3199.00,0.0060
3198.00,0.0060
3197.00,0.0060
3196.00,0.0060
3195.00,0.0060
3194.00,0.0059
3193.00,0.0059
3192.00,0.0059
3191.00,0.0059
3190.00,0.0059
3189.00,0.0059
3188.00,0.0058
3187.00,0.0058
3186.00,0.0058
3185.00,0.0058
3184.00,0.0058
3183.00,0.0058
3182.00,0.0058
3181.00,0.0058
3180.00,0.0057
3179.00,0.0057
3178.00,0.0056
3177.00,0.0056
3176.00,0.0055
3175.00,0.0055
3174.00,0.0054
3173.00,0.0054
3172.00,0.0054
3171.00,0.0054
3170.00,0.0054
3169.00,0.0054
3168.00,0.0054
3167.00,0.0054
3166.00,0.0053
3165.00,0.0053
3164.00,0.0052
3163.00,0.0052
3162.00,0.0051
3161.00,0.0051
3160.00,0.0051
3159.00,0.0051
3158.00,0.0051
3157.00,0.0051
3156.00,0.0051
3155.00,0.0051
3154.00,0.0051
3153.00,0.0050
3152.00,0.0050
3151.00,0.0050
3150.00,0.0051
3149.00,0.0051
3148.00,0.0051
3147.00,0.0050
3146.00,0.0050
3145.00,0.0050
3144.00,0.0050
3143.00,0.0050
3142.00,0.0050
3141.00,0.0050
3140.00,0.0050
3139.00,0.0050
3138.00,0.0050
3137.00,0.0049
3136.00,0.0049
3135.00,0.0048
3134.00,0.0047
3133.00,0.0047
3132.00,0.0046
3131.00,0.0047
3130.00,0.0047
3129.00,0.0046
3128.00,0.0046
3127.00,0.0045
3126.00,0.0045
3125.00,0.0044
3124.00,0.0044
3123.00,0.0044
3122.00,0.0044
3121.00,0.0044
3120.00,0.0044
3119.00,0.0043
3118.00,0.0043
3117.00,0.0042
3116.00,0.0042
3115.00,0.0042
3114.00,0.0042
3113.00,0.0041
3112.00,0.0041
3111.00,0.0041
3110.00,0.0041
3109.00,0.0041
3108.00,0.0040
3107.00,0.0040
3106.00,0.0040
3105.00,0.0040
3104.00,0.0039
3103.00,0.0039
3102.00,0.0040
3101.00,0.0040
3100.00,0.0040
3099.00,0.0040
3098.00,0.0040
3097.00,0.0040
3096.00,0.0040
3095.00,0.0040
3094.00,0.0039
3093.00,0.0039
3092.00,0.0039
3091.00,0.0039
3090.00,0.0038
3089.00,0.0038
3088.00,0.0038
3087.00,0.0038
3086.00,0.0038
3085.00,0.0038
3084.00,0.0038
3083.00,0.0038
3082.00,0.0038
3081.00,0.0037
3080.00,0.0037
3079.00,0.0037
3078.00,0.0037
3077.00,0.0037
3076.00,0.0038
3075.00,0.0038
3074.00,0.0038
3073.00,0.0038
3072.00,0.0039
3071.00,0.0039
3070.00,0.0039
3069.00,0.0038
3068.00,0.0038
3067.00,0.0038
3066.00,0.0038
3065.00,0.0039
3064.00,0.0039
3063.00,0.0039
3062.00,0.0039
3061.00,0.0039
3060.00,0.0039
3059.00,0.0039
3058.00,0.0039
3057.00,0.0039
3056.00,0.0039
3055.00,0.0040
3054.00,0.0040
3053.00,0.0040
3052.00,0.0040
3051.00,0.0041
3050.00,0.0041
3049.00,0.0041
3048.00,0.0041
3047.00,0.0041
3046.00,0.0041
3045.00,0.0041
3044.00,0.0041
3043.00,0.0041
3042.00,0.0042
3041.00,0.0042
3040.00,0.0042
3039.00,0.0043
3038.00,0.0043
3037.00,0.0043
3036.00,0.0043
3035.00,0.0044
3034.00,0.0044
3033.00,0.0045
3032.00,0.0046
3031.00,0.0046
3030.00,0.0047
3029.00,0.0047
3028.00,0.0047
3027.00,0.0048
3026.00,0.0048
3025.00,0.0049
3024.00,0.0049
3023.00,0.0050
3022.00,0.0051
3021.00,0.0052
3020.00,0.0053
3019.00,0.0054
3018.00,0.0055
3017.00,0.0056
3016.00,0.0057
3015.00,0.0058
3014.00,0.0059
3013.00,0.0060
3012.00,0.0062
3011.00,0.0064
3010.00,0.0066
3009.00,0.0069
3008.00,0.0071
3007.00,0.0073
3006.00,0.0076
3005.00,0.0079
3004.00,0.0082
3003.00,0.0085
3002.00,0.0088
3001.00,0.0091
3000.00,0.0094
2999.00,0.0098
2998.00,0.0102
2997.00,0.0106
2996.00,0.0110
2995.00,0.0114
2994.00,0.0118
2993.00,0.0123
2992.00,0.0128
2991.00,0.0134
2990.00,0.0141
2989.00,0.0148
2988.00,0.0156
2987.00,0.0166
2986.00,0.0176
2985.00,0.0189
2984.00,0.0204
2983.00,0.0220
2982.00,0.0237
2981.00,0.0254
2980.00,0.0272
2979.00,0.0292
2978.00,0.0315
2977.00,0.0342
2976.00,0.0373
2975.00,0.0410
2974.00,0.0452
2973.00,0.0501
2972.00,0.0556
2971.00,0.0618
2970.00,0.0686
2969.00,0.0761
2968.00,0.0843
2967.00,0.0930
2966.00,0.1023
2965.00,0.1116
2964.00,0.1207
2963.00,0.1290
2962.00,0.1361
2961.00,0.1416
2960.00,0.1456
2959.00,0.1486
2958.00,0.1515
2957.00,0.1548
2956.00,0.1595
2955.00,0.1657
2954.00,0.1734
2953.00,0.1815
2952.00,0.1890
2951.00,0.1942
2950.00,0.1958
2949.00,0.1930
2948.00,0.1858
2947.00,0.1750
2946.00,0.1621
2945.00,0.1486
2944.00,0.1360
2943.00,0.1251
2942.00,0.1167
2941.00,0.1109
2940.00,0.1075
2939.00,0.1063
2938.00,0.1071
2937.00,0.1096
2936.00,0.1137
2935.00,0.1193
2934.00,0.1264
2933.00,0.1347
2932.00,0.1443
2931.00,0.1549
2930.00,0.1662
2929.00,0.1780
2928.00,0.1899
2927.00,0.2017
2926.00,0.2132
2925.00,0.2243
2924.00,0.2354
2923.00,0.2464
2922.00,0.2573
2921.00,0.2679
2920.00,0.2772
2919.00,0.2841
2918.00,0.2873
2917.00,0.2859
2916.00,0.2800
2915.00,0.2705
2914.00,0.2588
2913.00,0.2464
2912.00,0.2345
2911.00,0.2239
2910.00,0.2148
2909.00,0.2068
2908.00,0.1997
2907.00,0.1928
2906.00,0.1861
2905.00,0.1792
2904.00,0.1722
2903.00,0.1652
2902.00,0.1583
2901.00,0.1516
2900.00,0.1451
2899.00,0.1389
2898.00,0.1331
2897.00,0.1279
2896.00,0.1232
2895.00,0.1192
2894.00,0.1158
2893.00,0.1130
2892.00,0.1109
2891.00,0.1093
2890.00,0.1083
2889.00,0.1078
2888.00,0.1076
2887.00,0.1077
2886.00,0.1081
2885.00,0.1089
2884.00,0.1100
2883.00,0.1115
2882.00,0.1133
2881.00,0.1153
2880.00,0.1172
2879.00,0.1187
2878.00,0.1195
2877.00,0.1195
2876.00,0.1188
2875.00,0.1181
2874.00,0.1176
2873.00,0.1178
2872.00,0.1188
2871.00,0.1206
2870.00,0.1228
2869.00,0.1250
2868.00,0.1264
2867.00,0.1263
2866.00,0.1241
2865.00,0.1195
2864.00,0.1130
2863.00,0.1053
2862.00,0.0976
2861.00,0.0907
2860.00,0.0852
2859.00,0.0813
2858.00,0.0788
2857.00,0.0776
2856.00,0.0774
2855.00,0.0780
2854.00,0.0791
2853.00,0.0807
2852.00,0.0824
2851.00,0.0842
2850.00,0.0858
2849.00,0.0873
2848.00,0.0887
2847.00,0.0906
2846.00,0.0933
2845.00,0.0971
2844.00,0.1018
2843.00,0.1072
2842.00,0.1128
2841.00,0.1178
2840.00,0.1214
2839.00,0.1229
2838.00,0.1216
2837.00,0.1174
2836.00,0.1104
2835.00,0.1012
2834.00,0.0909
2833.00,0.0804
2832.00,0.0705
2831.00,0.0619
2830.00,0.0546
2829.00,0.0486
2828.00,0.0437
2827.00,0.0398
2826.00,0.0365
2825.00,0.0338
2824.00,0.0315
2823.00,0.0296
2822.00,0.0279
2821.00,0.0265
2820.00,0.0253
2819.00,0.0242
2818.00,0.0232
2817.00,0.0223
2816.00,0.0215
2815.00,0.0208
2814.00,0.0201
2813.00,0.0196
2812.00,0.0190
2811.00,0.0185
2810.00,0.0179
2809.00,0.0173
2808.00,0.0167
2807.00,0.0161
2806.00,0.0155
2805.00,0.0148
2804.00,0.0142
2803.00,0.0136
2802.00,0.0131
2801.00,0.0127
2800.00,0.0123
2799.00,0.0120
2798.00,0.0117
2797.00,0.0114
2796.00,0.0112
2795.00,0.0109
2794.00,0.0107
2793.00,0.0104
2792.00,0.0101
2791.00,0.0098
2790.00,0.0095
2789.00,0.0092
2788.00,0.0089
2787.00,0.0086
2786.00,0.0083
2785.00,0.0081
2784.00,0.0078
2783.00,0.0076
2782.00,0.0074
2781.00,0.0071
2780.00,0.0069
2779.00,0.0068
2778.00,0.0067
2777.00,0.0066
2776.00,0.0064
2775.00,0.0063
2774.00,0.0062
2773.00,0.0061
2772.00,0.0061
2771.00,0.0060
2770.00,0.0060
2769.00,0.0059
2768.00,0.0059
2767.00,0.0059
2766.00,0.0058
2765.00,0.0058
2764.00,0.0057
2763.00,0.0057
2762.00,0.0057
2761.00,0.0056
2760.00,0.0056
2759.00,0.0055
2758.00,0.0055
2757.00,0.0055
2756.00,0.0055
2755.00,0.0055
2754.00,0.0055
2753.00,0.0054
2752.00,0.0054
2751.00,0.0054
2750.00,0.0054
2749.00,0.0054
2748.00,0.0054
2747.00,0.0054
2746.00,0.0055
2745.00,0.0055
2744.00,0.0056
2743.00,0.0057
2742.00,0.0058
2741.00,0.0059
2740.00,0.0060
2739.00,0.0061
2738.00,0.0062
2737.00,0.0063
2736.00,0.0064
2735.00,0.0066
2734.00,0.0067
2733.00,0.0069
2732.00,0.0070
2731.00,0.0072
2730.00,0.0074
2729.00,0.0077
2728.00,0.0080
2727.00,0.0083
2726.00,0.0085
2725.00,0.0088
2724.00,0.0089
2723.00,0.0089
2722.00,0.0088
2721.00,0.0087
2720.00,0.0084
2719.00,0.0081
2718.00,0.0078
2717.00,0.0075
2716.00,0.0072
2715.00,0.0069
2714.00,0.0066
2713.00,0.0064
2712.00,0.0062
2711.00,0.0060
2710.00,0.0058
2709.00,0.0057
2708.00,0.0056
2707.00,0.0054
2706.00,0.0053
2705.00,0.0053
2704.00,0.0052
2703.00,0.0050
2702.00,0.0049
2701.00,0.0048
2700.00,0.0047
2699.00,0.0047
2698.00,0.0047
2697.00,0.0047
2696.00,0.0047
2695.00,0.0047
2694.00,0.0047
2693.00,0.0047
2692.00,0.0047
2691.00,0.0047
2690.00,0.0047
2689.00,0.0047
2688.00,0.0047
2687.00,0.0047
2686.00,0.0047
2685.00,0.0047
2684.00,0.0047
2683.00,0.0047
2682.00,0.0047
2681.00,0.0047
2680.00,0.0047
2679.00,0.0047
2678.00,0.0047
2677.00,0.0047
2676.00,0.0047
2675.00,0.0047
2674.00,0.0047
2673.00,0.0047
2672.00,0.0047
2671.00,0.0046
2670.00,0.0046
2669.00,0.0046
2668.00,0.0047
2667.00,0.0047
2666.00,0.0047
2665.00,0.0047
2664.00,0.0048
2663.00,0.0049
2662.00,0.0049
2661.00,0.0049
2660.00,0.0050
2659.00,0.0050
2658.00,0.0050
2657.00,0.0050
2656.00,0.0050
2655.00,0.0049
2654.00,0.0049
2653.00,0.0048
2652.00,0.0048
2651.00,0.0047
2650.00,0.0047
2649.00,0.0046
2648.00,0.0045
2647.00,0.0045
2646.00,0.0044
2645.00,0.0044
2644.00,0.0043
2643.00,0.0043
2642.00,0.0042
2641.00,0.0042
2640.00,0.0042
2639.00,0.0041
2638.00,0.0041
2637.00,0.0041
2636.00,0.0041
2635.00,0.0040
2634.00,0.0040
2633.00,0.0041
2632.00,0.0041
2631.00,0.0041
2630.00,0.0041
2629.00,0.0041
2628.00,0.0041
2627.00,0.0041
2626.00,0.0041
2625.00,0.0041
2624.00,0.0042
2623.00,0.0042
2622.00,0.0042
2621.00,0.0042
2620.00,0.0041
2619.00,0.0041
2618.00,0.0041
2617.00,0.0041
2616.00,0.0041
2615.00,0.0041
2614.00,0.0041
2613.00,0.0040
2612.00,0.0039
2611.00,0.0039
2610.00,0.0039
2609.00,0.0038
2608.00,0.0038
2607.00,0.0038
2606.00,0.0037
2605.00,0.0035
2604.00,0.0034
2603.00,0.0034
2602.00,0.0033
2601.00,0.0033
2600.00,0.0033
2599.00,0.0033
2598.00,0.0033
2597.00,0.0033
2596.00,0.0033
2595.00,0.0033
2594.00,0.0033
2593.00,0.0033
2592.00,0.0034
2591.00,0.0034
2590.00,0.0035
2589.00,0.0036
2588.00,0.0037
2587.00,0.0038
2586.00,0.0039
2585.00,0.0040
2584.00,0.0041
2583.00,0.0041
2582.00,0.0041
2581.00,0.0040
2580.00,0.0039
2579.00,0.0038
2578.00,0.0037
2577.00,0.0036
2576.00,0.0035
2575.00,0.0034
2574.00,0.0033
2573.00,0.0032
2572.00,0.0031
2571.00,0.0030
2570.00,0.0029
2569.00,0.0028
2568.00,0.0027
2567.00,0.0027
2566.00,0.0027
2565.00,0.0027
2564.00,0.0026
2563.00,0.0026
2562.00,0.0026
2561.00,0.0025
2560.00,0.0025
2559.00,0.0025
2558.00,0.0025
2557.00,0.0024
2556.00,0.0024
2555.00,0.0024
2554.00,0.0023
2553.00,0.0022
2552.00,0.0022
2551.00,0.0022
2550.00,0.0021
2549.00,0.0021
2548.00,0.0021
2547.00,0.0020
2546.00,0.0020
2545.00,0.0020
2544.00,0.0019
2543.00,0.0019
2542.00,0.0019
2541.00,0.0019
2540.00,0.0019
2539.00,0.0019
2538.00,0.0019
2537.00,0.0019
2536.00,0.0018
2535.00,0.0018
2534.00,0.0018
2533.00,0.0017
2532.00,0.0017
2531.00,0.0017
2530.00,0.0017
2529.00,0.0016
2528.00,0.0016
2527.00,0.0015
2526.00,0.0014
2525.00,0.0014
2524.00,0.0014
2523.00,0.0014
2522.00,0.0015
2521.00,0.0014
2520.00,0.0014
2519.00,0.0013
2518.00,0.0013
2517.00,0.0012
2516.00,0.0012
2515.00,0.0012
2514.00,0.0012
2513.00,0.0012
2512.00,0.0011
2511.00,0.0011
2510.00,0.0011
2509.00,0.0011
2508.00,0.0012
2507.00,0.0012
2506.00,0.0012
2505.00,0.0012
2504.00,0.0011
2503.00,0.0011
2502.00,0.0011
2501.00,0.0010
2500.00,0.0010
2499.00,0.0010
2498.00,0.0011
2497.00,0.0011
2496.00,0.0011
2495.00,0.0011
2494.00,0.0011
2493.00,0.0011
2492.00,0.0012
2491.00,0.0012
2490.00,0.0012
2489.00,0.0011
2488.00,0.0011
2487.00,0.0011
2486.00,0.0011
2485.00,0.0011
2484.00,0.0011
2483.00,0.0011
2482.00,0.0011
2481.00,0.0011
2480.00,0.0010
2479.00,0.0010
2478.00,0.0010
2477.00,0.0010
2476.00,0.0010
2475.00,0.0010
2474.00,0.0010
2473.00,0.0010
2472.00,0.0009
2471.00,0.0009
2470.00,0.0010
2469.00,0.0010
2468.00,0.0010
2467.00,0.0010
2466.00,0.0010
2465.00,0.0009
2464.00,0.0009
2463.00,0.0010
2462.00,0.0010
2461.00,0.0011
2460.00,0.0011
2459.00,0.0012
2458.00,0.0012
2457.00,0.0013
2456.00,0.0013
2455.00,0.0013
2454.00,0.0013
2453.00,0.0013
2452.00,0.0013
2451.00,0.0013
2450.00,0.0013
2449.00,0.0012
2448.00,0.0013
2447.00,0.0013
2446.00,0.0014
2445.00,0.0014
2444.00,0.0013
2443.00,0.0013
2442.00,0.0013
2441.00,0.0012
2440.00,0.0012
2439.00,0.0012
2438.00,0.0012
2437.00,0.0012
2436.00,0.0012
2435.00,0.0012
2434.00,0.0012
2433.00,0.0013
2432.00,0.0012
2431.00,0.0012
2430.00,0.0012
2429.00,0.0012
2428.00,0.0013
2427.00,0.0013
2426.00,0.0013
2425.00,0.0013
2424.00,0.0013
2423.00,0.0012
2422.00,0.0012
2421.00,0.0012
2420.00,0.0011
2419.00,0.0011
2418.00,0.0010
2417.00,0.0010
2416.00,0.0010
2415.00,0.0010
2414.00,0.0010
2413.00,0.0010
2412.00,0.0011
2411.00,0.0011
2410.00,0.0011
2409.00,0.0011
2408.00,0.0011
2407.00,0.0010
2406.00,0.0009
2405.00,0.0009
2404.00,0.0009
2403.00,0.0009
2402.00,0.0009
2401.00,0.0009
2400.00,0.0009
2399.00,0.0009
2398.00,0.0008
2397.00,0.0008
2396.00,0.0008
2395.00,0.0008
2394.00,0.0008
2393.00,0.0008
2392.00,0.0008
2391.00,0.0007
2390.00,0.0007
2389.00,0.0007
2388.00,0.0007
2387.00,0.0007
2386.00,0.0007
2385.00,0.0007
2384.00,0.0006
2383.00,0.0006
2382.00,0.0005
2381.00,0.0006
2380.00,0.0006
2379.00,0.0006
2378.00,0.0006
2377.00,0.0006
2376.00,0.0006
2375.00,0.0005
2374.00,0.0005
2373.00,0.0005
2372.00,0.0005
2371.00,0.0006
2370.00,0.0006
2369.00,0.0006
2368.00,0.0005
2367.00,0.0004
2366.00,0.0004
2365.00,0.0004
2364.00,0.0005
2363.00,0.0006
2362.00,0.0006
2361.00,0.0006
2360.00,0.0007
2359.00,0.0007
2358.00,0.0008
2357.00,0.0009
2356.00,0.0008
2355.00,0.0007
2354.00,0.0006
2353.00,0.0006
2352.00,0.0006
2351.00,0.0006
2350.00,0.0007
2349.00,0.0007
2348.00,0.0008
2347.00,0.0008
2346.00,0.0008
2345.00,0.0008
2344.00,0.0009
2343.00,0.0009
2342.00,0.0009
2341.00,0.0010
2340.00,0.0011
2339.00,0.0011
2338.00,0.0011
2337.00,0.0011
2336.00,0.0011
2335.00,0.0011
2334.00,0.0011
2333.00,0.0011
2332.00,0.0011
2331.00,0.0011
2330.00,0.0011
2329.00,0.0011
2328.00,0.0013
2327.00,0.0015
2326.00,0.0019
2325.00,0.0023
2324.00,0.0024
2323.00,0.0024
2322.00,0.0022
2321.00,0.0020
2320.00,0.0018
2319.00,0.0017
2318.00,0.0016
2317.00,0.0015
2316.00,0.0015
2315.00,0.0014
2314.00,0.0013
2313.00,0.0012
2312.00,0.0011
2311.00,0.0011
2310.00,0.0011
2309.00,0.0011
2308.00,0.0011
2307.00,0.0010
2306.00,0.0010
2305.00,0.0010
2304.00,0.0010
2303.00,0.0010
2302.00,0.0011
2301.00,0.0011
2300.00,0.0012
2299.00,0.0012
2298.00,0.0013
2297.00,0.0014
2296.00,0.0014
2295.00,0.0015
2294.00,0.0016
2293.00,0.0016
2292.00,0.0017
2291.00,0.0017
2290.00,0.0018
2289.00,0.0018
2288.00,0.0019
2287.00,0.0020
2286.00,0.0020
2285.00,0.0020
2284.00,0.0019
2283.00,0.0018
2282.00,0.0018
2281.00,0.0017
2280.00,0.0017
2279.00,0.0016
2278.00,0.0016
2277.00,0.0016
2276.00,0.0015
2275.00,0.0015
2274.00,0.0014
2273.00,0.0014
2272.00,0.0015
2271.00,0.0015
2270.00,0.0015
2269.00,0.0014
2268.00,0.0012
2267.00,0.0011
2266.00,0.0010
2265.00,0.0011
2264.00,0.0012
2263.00,0.0013
2262.00,0.0013
2261.00,0.0014
2260.00,0.0014
2259.00,0.0015
2258.00,0.0015
2257.00,0.0015
2256.00,0.0014
2255.00,0.0013
2254.00,0.0012
2253.00,0.0011
2252.00,0.0010
2251.00,0.0008
2250.00,0.0007
2249.00,0.0007
2248.00,0.0007
2247.00,0.0007
2246.00,0.0007
2245.00,0.0008
2244.00,0.0008
2243.00,0.0008
2242.00,0.0009
2241.00,0.0009
2240.00,0.0008
2239.00,0.0009
2238.00,0.0009
2237.00,0.0010
2236.00,0.0010
2235.00,0.0010
2234.00,0.0010
2233.00,0.0009
2232.00,0.0009
2231.00,0.0010
2230.00,0.0009
2229.00,0.0008
2228.00,0.0008
2227.00,0.0008
2226.00,0.0009
2225.00,0.0010
2224.00,0.0010
2223.00,0.0009
2222.00,0.0009
2221.00,0.0008
2220.00,0.0009
2219.00,0.0009
2218.00,0.0008
2217.00,0.0006
2216.00,0.0005
2215.00,0.0005
2214.00,0.0005
2213.00,0.0006
2212.00,0.0006
2211.00,0.0008
2210.00,0.0010
2209.00,0.0012
2208.00,0.0013
2207.00,0.0012
2206.00,0.0011
2205.00,0.0010
2204.00,0.0009
2203.00,0.0009
2202.00,0.0010
2201.00,0.0010
2200.00,0.0009
2199.00,0.0008
2198.00,0.0007
2197.00,0.0007
2196.00,0.0008
2195.00,0.0009
2194.00,0.0009
2193.00,0.0009
2192.00,0.0010
2191.00,0.0009
2190.00,0.0008
2189.00,0.0008
2188.00,0.0008
2187.00,0.0009
2186.00,0.0011
2185.00,0.0012
2184.00,0.0012
2183.00,0.0011
2182.00,0.0009
2181.00,0.0005
2180.00,0.0003
2179.00,0.0004
2178.00,0.0005
2177.00,0.0007
2176.00,0.0007
2175.00,0.0006
2174.00,0.0008
2173.00,0.0010
2172.00,0.0014
2171.00,0.0016
2170.00,0.0017
2169.00,0.0017
2168.00,0.0017
2167.00,0.0017
2166.00,0.0016
2165.00,0.0016
2164.00,0.0017
2163.00,0.0020
2162.00,0.0023
2161.00,0.0021
2160.00,0.0011
2159.00,-0.0006
2158.00,-0.0022
2157.00,-0.0030
2156.00,-0.0030
2155.00,-0.0024
2154.00,-0.0020
2153.00,-0.0017
2152.00,-0.0016
2151.00,-0.0015
2150.00,-0.0014
2149.00,-0.0014
2148.00,-0.0013
2147.00,-0.0014
2146.00,-0.0015
2145.00,-0.0015
2144.00,-0.0014
2143.00,-0.0015
2142.00,-0.0015
2141.00,-0.0016
2140.00,-0.0017
2139.00,-0.0017
2138.00,-0.0017
2137.00,-0.0017
2136.00,-0.0018
2135.00,-0.0018
2134.00,-0.0018
2133.00,-0.0018
2132.00,-0.0016
2131.00,-0.0015
2130.00,-0.0014
2129.00,-0.0013
2128.00,-0.0012
2127.00,-0.0010
2126.00,-0.0008
2125.00,-0.0006
2124.00,-0.0005
2123.00,-0.0005
2122.00,-0.0004
2121.00,-0.0002
2120.00,-0.0000
2119.00,0.0002
2118.00,0.0002
2117.00,0.0003
2116.00,0.0003
2115.00,0.0003
2114.00,0.0004
2113.00,0.0004
2112.00,0.0004
2111.00,0.0005
2110.00,0.0005
2109.00,0.0004
2108.00,0.0003
2107.00,0.0002
2106.00,0.0002
2105.00,0.0001
2104.00,0.0001
2103.00,0.0002
2102.00,0.0003
2101.00,0.0003
2100.00,0.0003
2099.00,0.0002
2098.00,0.0002
2097.00,0.0001
2096.00,-0.0001
2095.00,-0.0002
2094.00,-0.0003
2093.00,-0.0002
2092.00,-0.0001
2091.00,-0.0000
2090.00,0.0000
2089.00,0.0001
2088.00,0.0001
2087.00,0.0001
2086.00,0.0001
2085.00,0.0002
2084.00,0.0002
2083.00,0.0002
2082.00,0.0003
2081.00,0.0004
2080.00,0.0005
2079.00,0.0006
2078.00,0.0005
2077.00,0.0005
2076.00,0.0004
2075.00,0.0004
2074.00,0.0005
2073.00,0.0005
2072.00,0.0006
2071.00,0.0005
2070.00,0.0004
2069.00,0.0003
2068.00,0.0002
2067.00,0.0002
2066.00,0.0002
2065.00,0.0002
2064.00,0.0001
2063.00,-0.0001
2062.00,-0.0003
2061.00,-0.0004
2060.00,-0.0003
2059.00,-0.0003
2058.00,-0.0001
2057.00,0.0001
2056.00,0.0002
2055.00,0.0003
2054.00,0.0004
2053.00,0.0006
2052.00,0.0009
2051.00,0.0011
2050.00,0.0010
2049.00,0.0007
2048.00,0.0004
2047.00,0.0002
2046.00,0.0001
2045.00,0.0001
2044.00,0.0002
2043.00,0.0002
2042.00,0.0003
2041.00,0.0003
2040.00,0.0003
2039.00,0.0004
2038.00,0.0006
2037.00,0.0007
2036.00,0.0006
2035.00,0.0003
2034.00,0.0000
2033.00,-0.0001
2032.00,-0.0002
2031.00,-0.0002
2030.00,-0.0002
2029.00,-0.0002
2028.00,-0.0003
2027.00,-0.0006
2026.00,-0.0008
2025.00,-0.0008
2024.00,-0.0006
2023.00,-0.0005
2022.00,-0.0003
2021.00,-0.0003
2020.00,-0.0004
2019.00,-0.0006
2018.00,-0.0009
2017.00,-0.0011
2016.00,-0.0011
2015.00,-0.0010
2014.00,-0.0009
2013.00,-0.0008
2012.00,-0.0007
2011.00,-0.0008
2010.00,-0.0009
2009.00,-0.0010
2008.00,-0.0012
2007.00,-0.0014
2006.00,-0.0016
2005.00,-0.0018
2004.00,-0.0018
2003.00,-0.0017
2002.00,-0.0017
2001.00,-0.0016
2000.00,-0.0015
1999.00,-0.0013
1998.00,-0.0011
1997.00,-0.0009
1996.00,-0.0006
1995.00,-0.0005
1994.00,-0.0004
1993.00,-0.0004
1992.00,-0.0005
1991.00,-0.0006
1990.00,-0.0007
1989.00,-0.0007
1988.00,-0.0006
1987.00,-0.0004
1986.00,-0.0000
1985.00,0.0004
1984.00,0.0007
1983.00,0.0009
1982.00,0.0009
1981.00,0.0009
1980.00,0.0009
1979.00,0.0006
1978.00,-0.0001
1977.00,-0.0008
1976.00,-0.0012
1975.00,-0.0014
1974.00,-0.0014
1973.00,-0.0014
1972.00,-0.0014
1971.00,-0.0014
1970.00,-0.0014
1969.00,-0.0013
1968.00,-0.0011
1967.00,-0.0008
1966.00,-0.0005
1965.00,-0.0003
1964.00,-0.0001
1963.00,-0.0003
1962.00,-0.0005
1961.00,-0.0008
1960.00,-0.0011
1959.00,-0.0014
1958.00,-0.0017
1957.00,-0.0018
1956.00,-0.0016
1955.00,-0.0014
1954.00,-0.0012
1953.00,-0.0011
1952.00,-0.0011
1951.00,-0.0013
1950.00,-0.0015
1949.00,-0.0016
1948.00,-0.0016
1947.00,-0.0015
1946.00,-0.0015
1945.00,-0.0015
1944.00,-0.0015
1943.00,-0.0016
1942.00,-0.0016
1941.00,-0.0014
1940.00,-0.0012
1939.00,-0.0011
1938.00,-0.0010
1937.00,-0.0010
1936.00,-0.0011
1935.00,-0.0011
1934.00,-0.0011
1933.00,-0.0010
1932.00,-0.0009
1931.00,-0.0007
1930.00,-0.0006
1929.00,-0.0006
1928.00,-0.0006
1927.00,-0.0006
1926.00,-0.0006
1925.00,-0.0006
1924.00,-0.0006
1923.00,-0.0006
1922.00,-0.0006
1921.00,-0.0006
1920.00,-0.0005
1919.00,-0.0004
1918.00,-0.0004
1917.00,-0.0004
1916.00,-0.0005
1915.00,-0.0004
1914.00,-0.0004
1913.00,-0.0003
1912.00,-0.0002
1911.00,-0.0002
1910.00,-0.0002
1909.00,-0.0002
1908.00,-0.0002
1907.00,-0.0002
1906.00,-0.0002
1905.00,-0.0002
1904.00,-0.0001
1903.00,-0.0001
1902.00,-0.0002
1901.00,-0.0002
1900.00,-0.0003
1899.00,-0.0003
1898.00,-0.0003
1897.00,-0.0002
1896.00,-0.0002
1895.00,-0.0002
1894.00,-0.0002
1893.00,-0.0003
1892.00,-0.0004
1891.00,-0.0003
1890.00,-0.0002
1889.00,-0.0000
1888.00,0.0001
1887.00,0.0001
1886.00,0.0000
1885.00,0.0000
1884.00,0.0000
1883.00,0.0001
1882.00,0.0000
1881.00,-0.0001
1880.00,-0.0001
1879.00,-0.0002
1878.00,-0.0002
1877.00,-0.0001
1876.00,0.0000
1875.00,0.0001
1874.00,0.0002
1873.00,0.0002
1872.00,0.0002
1871.00,0.0002
1870.00,0.0002
1869.00,0.0002
1868.00,0.0002
1867.00,0.0002
1866.00,0.0001
1865.00,0.0001
1864.00,0.0001
1863.00,0.0001
1862.00,0.0001
1861.00,0.0000
1860.00,0.0000
1859.00,0.0000
1858.00,0.0001
1857.00,0.0001
1856.00,0.0002
1855.00,0.0001
1854.00,0.0001
1853.00,0.0000
1852.00,0.0000
1851.00,0.0001
1850.00,0.0002
1849.00,0.0003
1848.00,0.0003
1847.00,0.0003
1846.00,0.0004
1845.00,0.0004
1844.00,0.0005
1843.00,0.0004
1842.00,0.0004
1841.00,0.0003
1840.00,0.0003
1839.00,0.0002
1838.00,0.0002
1837.00,0.0002
1836.00,0.0003
1835.00,0.0003
1834.00,0.0003
1833.00,0.0003
1832.00,0.0003
1831.00,0.0003
1830.00,0.0004
1829.00,0.0004
1828.00,0.0004
1827.00,0.0004
1826.00,0.0003
1825.00,0.0004
1824.00,0.0004
1823.00,0.0004
1822.00,0.0004
1821.00,0.0004
1820.00,0.0004
1819.00,0.0003
1818.00,0.0002
1817.00,0.0001
1816.00,0.0001
1815.00,0.0002
1814.00,0.0003
1813.00,0.0003
1812.00,0.0004
1811.00,0.0005
1810.00,0.0005
1809.00,0.0005
1808.00,0.0005
1807.00,0.0005
1806.00,0.0005
1805.00,0.0005
1804.00,0.0005
1803.00,0.0005
1802.00,0.0005
1801.00,0.0005
1800.00,0.0006
1799.00,0.0007
1798.00,0.0007
1797.00,0.0007
1796.00,0.0007
1795.00,0.0007
1794.00,0.0007
1793.00,0.0008
1792.00,0.0009
1791.00,0.0009
1790.00,0.0009
1789.00,0.0009
1788.00,0.0009
1787.00,0.0009
1786.00,0.0009
1785.00,0.0009
1784.00,0.0009
1783.00,0.0009
1782.00,0.0009
1781.00,0.0009
1780.00,0.0009
1779.00,0.0009
1778.00,0.0009
1777.00,0.0008
1776.00,0.0008
1775.00,0.0009
1774.00,0.0008
1773.00,0.0009
1772.00,0.0009
1771.00,0.0010
1770.00,0.0010
1769.00,0.0011
1768.00,0.0011
1767.00,0.0011
1766.00,0.0011
1765.00,0.0011
1764.00,0.0011
1763.00,0.0012
1762.00,0.0012
1761.00,0.0013
1760.00,0.0014
1759.00,0.0014
1758.00,0.0015
1757.00,0.0015
1756.00,0.0016
1755.00,0.0016
1754.00,0.0017
1753.00,0.0019
1752.00,0.0020
1751.00,0.0020
1750.00,0.0020
1749.00,0.0020
1748.00,0.0021
1747.00,0.0021
1746.00,0.0022
1745.00,0.0023
1744.00,0.0024
1743.00,0.0025
1742.00,0.0026
1741.00,0.0027
1740.00,0.0027
1739.00,0.0027
1738.00,0.0027
1737.00,0.0028
1736.00,0.0029
1735.00,0.0029
1734.00,0.0030
1733.00,0.0030
1732.00,0.0030
1731.00,0.0030
1730.00,0.0030
1729.00,0.0030
1728.00,0.0030
1727.00,0.0030
1726.00,0.0030
1725.00,0.0031
1724.00,0.0030
1723.00,0.0030
1722.00,0.0029
1721.00,0.0029
1720.00,0.0028
1719.00,0.0028
1718.00,0.0028
1717.00,0.0027
1716.00,0.0027
1715.00,0.0027
1714.00,0.0027
1713.00,0.0027
1712.00,0.0027
1711.00,0.0027
1710.00,0.0027
1709.00,0.0026
1708.00,0.0026
1707.00,0.0027
1706.00,0.0028
1705.00,0.0028
1704.00,0.0029
1703.00,0.0030
1702.00,0.0031
1701.00,0.0031
1700.00,0.0032
1699.00,0.0032
1698.00,0.0032
1697.00,0.0032
1696.00,0.0032
1695.00,0.0032
1694.00,0.0033
1693.00,0.0034
1692.00,0.0035
1691.00,0.0037
1690.00,0.0038
1689.00,0.0039
1688.00,0.0040
1687.00,0.0040
1686.00,0.0040
1685.00,0.0040
1684.00,0.0041
1683.00,0.0042
1682.00,0.0044
1681.00,0.0045
1680.00,0.0046
1679.00,0.0047
1678.00,0.0048
1677.00,0.0049
1676.00,0.0050
1675.00,0.0051
1674.00,0.0052
1673.00,0.0053
1672.00,0.0055
1671.00,0.0056
1670.00,0.0057
1669.00,0.0058
1668.00,0.0059
1667.00,0.0059
1666.00,0.0060
1665.00,0.0061
1664.00,0.0062
1663.00,0.0062
1662.00,0.0063
1661.00,0.0064
1660.00,0.0065
1659.00,0.0066
1658.00,0.0066
1657.00,0.0068
1656.00,0.0069
1655.00,0.0071
1654.00,0.0073
1653.00,0.0075
1652.00,0.0076
1651.00,0.0076
1650.00,0.0077
1649.00,0.0078
1648.00,0.0080
1647.00,0.0082
1646.00,0.0083
1645.00,0.0084
1644.00,0.0085
1643.00,0.0086
1642.00,0.0086
1641.00,0.0087
1640.00,0.0087
1639.00,0.0088
1638.00,0.0089
1637.00,0.0089
1636.00,0.0089
1635.00,0.0089
1634.00,0.0088
1633.00,0.0087
1632.00,0.0087
1631.00,0.0086
1630.00,0.0085
1629.00,0.0084
1628.00,0.0084
1627.00,0.0083
1626.00,0.0082
1625.00,0.0081
1624.00,0.0080
1623.00,0.0079
1622.00,0.0078
1621.00,0.0078
1620.00,0.0079
1619.00,0.0079
1618.00,0.0078
1617.00,0.0078
1616.00,0.0078
1615.00,0.0077
1614.00,0.0077
1613.00,0.0077
1612.00,0.0077
1611.00,0.0077
1610.00,0.0077
1609.00,0.0077
1608.00,0.0077
1607.00,0.0076
1606.00,0.0076
1605.00,0.0077
1604.00,0.0077
1603.00,0.0077
1602.00,0.0076
1601.00,0.0076
1600.00,0.0076
1599.00,0.0075
1598.00,0.0075
1597.00,0.0074
1596.00,0.0074
1595.00,0.0074
1594.00,0.0074
1593.00,0.0074
1592.00,0.0075
1591.00,0.0075
1590.00,0.0075
1589.00,0.0075
1588.00,0.0076
1587.00,0.0076
1586.00,0.0077
1585.00,0.0078
1584.00,0.0080
1583.00,0.0082
1582.00,0.0084
1581.00,0.0086
1580.00,0.0088
1579.00,0.0090
1578.00,0.0092
1577.00,0.0093
1576.00,0.0093
1575.00,0.0091
1574.00,0.0090
1573.00,0.0089
1572.00,0.0088
1571.00,0.0087
1570.00,0.0086
1569.00,0.0086
1568.00,0.0086
1567.00,0.0086
1566.00,0.0086
1565.00,0.0086
1564.00,0.0086
1563.00,0.0086
1562.00,0.0086
1561.00,0.0086
1560.00,0.0087
1559.00,0.0087
1558.00,0.0087
1557.00,0.0088
1556.00,0.0089
1555.00,0.0090
1554.00,0.0091
1553.00,0.0093
1552.00,0.0094
1551.00,0.0095
1550.00,0.0096
1549.00,0.0097
1548.00,0.0098
1547.00,0.0099
1546.00,0.0101
1545.00,0.0103
1544.00,0.0104
1543.00,0.0105
1542.00,0.0105
1541.00,0.0105
1540.00,0.0103
1539.00,0.0099
1538.00,0.0095
1537.00,0.0093
1536.00,0.0091
1535.00,0.0089
1534.00,0.0085
1533.00,0.0081
1532.00,0.0078
1531.00,0.0076
1530.00,0.0075
1529.00,0.0074
1528.00,0.0073
1527.00,0.0072
1526.00,0.0070
1525.00,0.0069
1524.00,0.0069
1523.00,0.0068
1522.00,0.0067
1521.00,0.0066
1520.00,0.0066
1519.00,0.0067
1518.00,0.0068
1517.00,0.0069
1516.00,0.0069
1515.00,0.0069
1514.00,0.0069
1513.00,0.0069
1512.00,0.0069
1511.00,0.0069
1510.00,0.0069
1509.00,0.0070
1508.00,0.0072
1507.00,0.0073
1506.00,0.0073
1505.00,0.0075
1504.00,0.0076
1503.00,0.0078
1502.00,0.0080
1501.00,0.0082
1500.00,0.0085
1499.00,0.0088
1498.00,0.0091
1497.00,0.0095
1496.00,0.0099
1495.00,0.0102
1494.00,0.0105
1493.00,0.0108
1492.00,0.0112
1491.00,0.0116
1490.00,0.0120
1489.00,0.0126
1488.00,0.0132
1487.00,0.0137
1486.00,0.0142
1485.00,0.0148
1484.00,0.0156
1483.00,0.0164
1482.00,0.0173
1481.00,0.0185
1480.00,0.0197
1479.00,0.0210
1478.00,0.0226
1477.00,0.0246
1476.00,0.0272
1475.00,0.0302
1474.00,0.0342
1473.00,0.0399
1472.00,0.0465
1471.00,0.0530
1470.00,0.0591
1469.00,0.0657
1468.00,0.0727
1467.00,0.0803
1466.00,0.0890
1465.00,0.0984
1464.00,0.1066
1463.00,0.1123
1462.00,0.1159
1461.00,0.1184
1460.00,0.1200
1459.00,0.1211
1458.00,0.1218
1457.00,0.1222
1456.00,0.1218
1455.00,0.1209
1454.00,0.1197
1453.00,0.1181
1452.00,0.1156
1451.00,0.1120
1450.00,0.1071
1449.00,0.1002
1448.00,0.0914
1447.00,0.0818
1446.00,0.0731
1445.00,0.0656
1444.00,0.0591
1443.00,0.0538
1442.00,0.0498
1441.00,0.0470
1440.00,0.0453
1439.00,0.0446
1438.00,0.0448
1437.00,0.0450
1436.00,0.0442
1435.00,0.0418
1434.00,0.0383
1433.00,0.0340
1432.00,0.0295
1431.00,0.0255
1430.00,0.0223
1429.00,0.0200
1428.00,0.0184
1427.00,0.0174
1426.00,0.0168
1425.00,0.0163
1424.00,0.0157
1423.00,0.0154
1422.00,0.0153
1421.00,0.0151
1420.00,0.0148
1419.00,0.0146
1418.00,0.0145
1417.00,0.0142
1416.00,0.0139
1415.00,0.0137
1414.00,0.0136
1413.00,0.0134
1412.00,0.0132
1411.00,0.0131
1410.00,0.0131
1409.00,0.0130
1408.00,0.0129
1407.00,0.0129
1406.00,0.0130
1405.00,0.0130
1404.00,0.0130
1403.00,0.0131
1402.00,0.0133
1401.00,0.0134
1400.00,0.0135
1399.00,0.0137
1398.00,0.0141
1397.00,0.0143
1396.00,0.0146
1395.00,0.0150
1394.00,0.0154
1393.00,0.0159
1392.00,0.0163
1391.00,0.0170
1390.00,0.0180
1389.00,0.0194
1388.00,0.0214
1387.00,0.0244
1386.00,0.0284
1385.00,0.0338
1384.00,0.0413
1383.00,0.0518
1382.00,0.0660
1381.00,0.0843
1380.00,0.1074
1379.00,0.1343
1378.00,0.1613
1377.00,0.1821
1376.00,0.1904
1375.00,0.1823
1374.00,0.1603
1373.00,0.1329
1372.00,0.1074
1371.00,0.0862
1370.00,0.0693
1369.00,0.0566
1368.00,0.0478
1367.00,0.0424
1366.00,0.0395
1365.00,0.0383
1364.00,0.0385
1363.00,0.0398
1362.00,0.0420
1361.00,0.0444
1360.00,0.0462
1359.00,0.0468
1358.00,0.0458
1357.00,0.0432
1356.00,0.0395
1355.00,0.0354
1354.00,0.0314
1353.00,0.0281
1352.00,0.0253
1351.00,0.0231
1350.00,0.0213
1349.00,0.0199
1348.00,0.0187
1347.00,0.0176
1346.00,0.0167
1345.00,0.0159
1344.00,0.0153
1343.00,0.0148
1342.00,0.0143
1341.00,0.0140
1340.00,0.0137
1339.00,0.0135
1338.00,0.0133
1337.00,0.0132
1336.00,0.0132
1335.00,0.0133
1334.00,0.0136
1333.00,0.0139
1332.00,0.0144
1331.00,0.0148
1330.00,0.0149
1329.00,0.0148
1328.00,0.0145
1327.00,0.0139
1326.00,0.0134
1325.00,0.0128
1324.00,0.0123
1323.00,0.0118
1322.00,0.0114
1321.00,0.0110
1320.00,0.0108
1319.00,0.0105
1318.00,0.0104
1317.00,0.0102
1316.00,0.0102
1315.00,0.0101
1314.00,0.0101
1313.00,0.0101
1312.00,0.0102
1311.00,0.0104
1310.00,0.0108
1309.00,0.0114
1308.00,0.0124
1307.00,0.0135
1306.00,0.0146
1305.00,0.0153
1304.00,0.0154
1303.00,0.0151
1302.00,0.0146
1301.00,0.0141
1300.00,0.0139
1299.00,0.0138
1298.00,0.0139
1297.00,0.0139
1296.00,0.0138
1295.00,0.0136
1294.00,0.0133
1293.00,0.0128
1292.00,0.0123
1291.00,0.0119
1290.00,0.0114
1289.00,0.0110
1288.00,0.0107
1287.00,0.0104
1286.00,0.0103
1285.00,0.0101
1284.00,0.0100
1283.00,0.0098
1282.00,0.0097
1281.00,0.0095
1280.00,0.0094
1279.00,0.0094
1278.00,0.0093
1277.00,0.0093
1276.00,0.0093
1275.00,0.0093
1274.00,0.0094
1273.00,0.0095
1272.00,0.0096
1271.00,0.0097
1270.00,0.0099
1269.00,0.0102
1268.00,0.0105
1267.00,0.0108
1266.00,0.0111
1265.00,0.0114
1264.00,0.0117
1263.00,0.0120
1262.00,0.0123
1261.00,0.0128
1260.00,0.0133
1259.00,0.0139
1258.00,0.0145
1257.00,0.0150
1256.00,0.0152
1255.00,0.0150
1254.00,0.0144
1253.00,0.0136
1252.00,0.0128
1251.00,0.0121
1250.00,0.0116
1249.00,0.0112
1248.00,0.0108
1247.00,0.0105
1246.00,0.0103
1245.00,0.0101
1244.00,0.0099
1243.00,0.0098
1242.00,0.0096
1241.00,0.0095
1240.00,0.0094
1239.00,0.0093
1238.00,0.0093
1237.00,0.0093
1236.00,0.0092
1235.00,0.0092
1234.00,0.0092
1233.00,0.0092
1232.00,0.0093
1231.00,0.0093
1230.00,0.0093
1229.00,0.0093
1228.00,0.0094
1227.00,0.0095
1226.00,0.0097
1225.00,0.0099
1224.00,0.0103
1223.00,0.0106
1222.00,0.0109
1221.00,0.0112
1220.00,0.0113
1219.00,0.0114
1218.00,0.0113
1217.00,0.0112
1216.00,0.0109
1215.00,0.0106
1214.00,0.0103
1213.00,0.0100
1212.00,0.0098
1211.00,0.0096
1210.00,0.0094
1209.00,0.0092
1208.00,0.0091
1207.00,0.0090
1206.00,0.0089
1205.00,0.0089
1204.00,0.0088
1203.00,0.0088
1202.00,0.0087
1201.00,0.0087
1200.00,0.0087
1199.00,0.0087
1198.00,0.0087
1197.00,0.0088
1196.00,0.0088
1195.00,0.0089
1194.00,0.0089
1193.00,0.0089
1192.00,0.0090
1191.00,0.0090
1190.00,0.0090
1189.00,0.0090
1188.00,0.0091
1187.00,0.0091
1186.00,0.0092
1185.00,0.0092
1184.00,0.0094
1183.00,0.0096
1182.00,0.0098
1181.00,0.0102
1180.00,0.0106
1179.00,0.0111
1178.00,0.0117
1177.00,0.0125
1176.00,0.0136
1175.00,0.0149
1174.00,0.0168
1173.00,0.0191
1172.00,0.0221
1171.00,0.0254
1170.00,0.0287
1169.00,0.0314
1168.00,0.0330
1167.00,0.0333
1166.00,0.0325
1165.00,0.0311
1164.00,0.0293
1163.00,0.0276
1162.00,0.0261
1161.00,0.0250
1160.00,0.0242
1159.00,0.0236
1158.00,0.0232
1157.00,0.0229
1156.00,0.0227
1155.00,0.0226
1154.00,0.0225
1153.00,0.0223
1152.00,0.0219
1151.00,0.0213
1150.00,0.0205
1149.00,0.0196
1148.00,0.0186
1147.00,0.0177
1146.00,0.0168
1145.00,0.0161
1144.00,0.0154
1143.00,0.0147
1142.00,0.0141
1141.00,0.0135
1140.00,0.0130
1139.00,0.0126
1138.00,0.0123
1137.00,0.0121
1136.00,0.0118
1135.00,0.0116
1134.00,0.0114
1133.00,0.0112
1132.00,0.0111
1131.00,0.0111
1130.00,0.0111
1129.00,0.0111
1128.00,0.0113
1127.00,0.0114
1126.00,0.0116
1125.00,0.0117
1124.00,0.0117
1123.00,0.0118
1122.00,0.0118
1121.00,0.0119
1120.00,0.0120
1119.00,0.0122
1118.00,0.0124
1117.00,0.0125
1116.00,0.0127
1115.00,0.0128
1114.00,0.0129
1113.00,0.0130
1112.00,0.0131
1111.00,0.0133
1110.00,0.0135
1109.00,0.0138
1108.00,0.0142
1107.00,0.0148
1106.00,0.0154
1105.00,0.0161
1104.00,0.0166
1103.00,0.0169
1102.00,0.0168
1101.00,0.0166
1100.00,0.0161
1099.00,0.0155
1098.00,0.0149
1097.00,0.0143
1096.00,0.0138
1095.00,0.0134
1094.00,0.0132
1093.00,0.0131
1092.00,0.0129
1091.00,0.0128
1090.00,0.0126
1089.00,0.0124
1088.00,0.0123
1087.00,0.0122
1086.00,0.0121
1085.00,0.0120
1084.00,0.0119
1083.00,0.0119
1082.00,0.0119
1081.00,0.0118
1080.00,0.0117
1079.00,0.0115
1078.00,0.0113
1077.00,0.0112
1076.00,0.0112
1075.00,0.0112
1074.00,0.0111
1073.00,0.0111
1072.00,0.0110
1071.00,0.0109
1070.00,0.0109
1069.00,0.0109
1068.00,0.0109
1067.00,0.0109
1066.00,0.0110
1065.00,0.0111
1064.00,0.0111
1063.00,0.0111
1062.00,0.0111
1061.00,0.0112
1060.00,0.0112
1059.00,0.0113
1058.00,0.0115
1057.00,0.0117
1056.00,0.0118
1055.00,0.0119
1054.00,0.0121
1053.00,0.0124
1052.00,0.0127
1051.00,0.0130
1050.00,0.0133
1049.00,0.0137
1048.00,0.0141
1047.00,0.0146
1046.00,0.0150
1045.00,0.0153
1044.00,0.0153
1043.00,0.0151
1042.00,0.0149
1041.00,0.0147
1040.00,0.0145
1039.00,0.0144
1038.00,0.0143
1037.00,0.0143
1036.00,0.0142
1035.00,0.0142
1034.00,0.0141
1033.00,0.0140
1032.00,0.0138
1031.00,0.0137
1030.00,0.0135
1029.00,0.0135
1028.00,0.0136
1027.00,0.0138
1026.00,0.0140
1025.00,0.0142
1024.00,0.0144
1023.00,0.0147
1022.00,0.0149
1021.00,0.0151
1020.00,0.0153
1019.00,0.0154
1018.00,0.0154
1017.00,0.0155
1016.00,0.0155
1015.00,0.0156
1014.00,0.0156
1013.00,0.0155
1012.00,0.0154
1011.00,0.0153
1010.00,0.0153
1009.00,0.0154
1008.00,0.0156
1007.00,0.0161
1006.00,0.0167
1005.00,0.0176
1004.00,0.0190
1003.00,0.0211
1002.00,0.0240
1001.00,0.0277
1000.00,0.0316
999.00,0.0349
998.00,0.0364
997.00,0.0356
996.00,0.0328
995.00,0.0288
994.00,0.0247
993.00,0.0211
992.00,0.0184
991.00,0.0164
990.00,0.0151
989.00,0.0142
988.00,0.0135
987.00,0.0132
986.00,0.0131
985.00,0.0132
984.00,0.0136
983.00,0.0142
982.00,0.0152
981.00,0.0166
980.00,0.0186
979.00,0.0214
978.00,0.0249
977.00,0.0290
976.00,0.0335
975.00,0.0378
974.00,0.0410
973.00,0.0422
972.00,0.0409
971.00,0.0372
970.00,0.0322
969.00,0.0272
968.00,0.0229
967.00,0.0196
966.00,0.0173
965.00,0.0157
964.00,0.0145
963.00,0.0136
962.00,0.0130
961.00,0.0124
960.00,0.0120
959.00,0.0117
958.00,0.0114
957.00,0.0110
956.00,0.0106
955.00,0.0103
954.00,0.0102
953.00,0.0102
952.00,0.0102
951.00,0.0101
950.00,0.0100
949.00,0.0100
948.00,0.0100
947.00,0.0101
946.00,0.0102
945.00,0.0104
944.00,0.0106
943.00,0.0108
942.00,0.0111
941.00,0.0113
940.00,0.0114
939.00,0.0112
938.00,0.0108
937.00,0.0101
936.00,0.0094
935.00,0.0089
934.00,0.0086
933.00,0.0084
932.00,0.0083
931.00,0.0081
930.00,0.0079
929.00,0.0077
928.00,0.0076
927.00,0.0075
926.00,0.0075
925.00,0.0074
924.00,0.0073
923.00,0.0072
922.00,0.0072
921.00,0.0073
920.00,0.0074
919.00,0.0073
918.00,0.0072
917.00,0.0071
916.00,0.0071
915.00,0.0073
914.00,0.0075
913.00,0.0078
912.00,0.0079
911.00,0.0080
910.00,0.0080
909.00,0.0082
908.00,0.0085
907.00,0.0090
906.00,0.0097
905.00,0.0108
904.00,0.0122
903.00,0.0140
902.00,0.0159
901.00,0.0177
900.00,0.0188
899.00,0.0190
898.00,0.0182
897.00,0.0167
896.00,0.0149
895.00,0.0131
894.00,0.0116
893.00,0.0105
892.00,0.0097
891.00,0.0092
890.00,0.0089
889.00,0.0087
888.00,0.0085
887.00,0.0083
886.00,0.0082
885.00,0.0080
884.00,0.0080
883.00,0.0080
882.00,0.0080
881.00,0.0081
880.00,0.0081
879.00,0.0082
878.00,0.0084
877.00,0.0085
876.00,0.0085
875.00,0.0086
874.00,0.0087
873.00,0.0087
872.00,0.0086
871.00,0.0085
870.00,0.0084
869.00,0.0083
868.00,0.0083
867.00,0.0084
866.00,0.0085
865.00,0.0086
864.00,0.0087
863.00,0.0088
862.00,0.0088
861.00,0.0090
860.00,0.0091
859.00,0.0093
858.00,0.0095
857.00,0.0096
856.00,0.0098
855.00,0.0099
854.00,0.0101
853.00,0.0102
852.00,0.0104
851.00,0.0108
850.00,0.0114
849.00,0.0120
848.00,0.0128
847.00,0.0140
846.00,0.0158
845.00,0.0188
844.00,0.0230
843.00,0.0282
842.00,0.0327
841.00,0.0345
840.00,0.0326
839.00,0.0280
838.00,0.0229
837.00,0.0187
836.00,0.0160
835.00,0.0144
834.00,0.0133
833.00,0.0126
832.00,0.0122
831.00,0.0118
830.00,0.0116
829.00,0.0115
828.00,0.0114
827.00,0.0113
826.00,0.0111
825.00,0.0110
824.00,0.0111
823.00,0.0112
822.00,0.0114
821.00,0.0117
820.00,0.0119
819.00,0.0121
818.00,0.0124
817.00,0.0129
816.00,0.0137
815.00,0.0148
814.00,0.0164
813.00,0.0185
812.00,0.0207
811.00,0.0228
810.00,0.0242
809.00,0.0246
808.00,0.0239
807.00,0.0224
806.00,0.0205
805.00,0.0186
804.00,0.0169
803.00,0.0156
802.00,0.0147
801.00,0.0140
800.00,0.0134
799.00,0.0128
798.00,0.0123
797.00,0.0118
796.00,0.0114
795.00,0.0109
794.00,0.0105
793.00,0.0100
792.00,0.0097
791.00,0.0095
790.00,0.0093
789.00,0.0091
788.00,0.0088
787.00,0.0085
786.00,0.0082
785.00,0.0081
784.00,0.0080
783.00,0.0078
782.00,0.0077
781.00,0.0076
780.00,0.0075
779.00,0.0075
778.00,0.0075
777.00,0.0075
776.00,0.0075
775.00,0.0076
774.00,0.0076
773.00,0.0076
772.00,0.0076
771.00,0.0074
770.00,0.0074
769.00,0.0074
768.00,0.0075
767.00,0.0076
766.00,0.0076
765.00,0.0076
764.00,0.0075
763.00,0.0074
762.00,0.0073
761.00,0.0074
760.00,0.0075
759.00,0.0077
758.00,0.0080
757.00,0.0082
756.00,0.0086
755.00,0.0088
754.00,0.0090
753.00,0.0091
752.00,0.0089
751.00,0.0087
750.00,0.0086
749.00,0.0088
748.00,0.0091
747.00,0.0095
746.00,0.0097
745.00,0.0098
744.00,0.0099
743.00,0.0101
742.00,0.0105
741.00,0.0110
740.00,0.0114
739.00,0.0117
738.00,0.0121
737.00,0.0124
736.00,0.0127
735.00,0.0131
734.00,0.0135
733.00,0.0141
732.00,0.0149
731.00,0.0157
730.00,0.0164
729.00,0.0168
728.00,0.0168
727.00,0.0168
726.00,0.0168
725.00,0.0171
724.00,0.0177
723.00,0.0184
722.00,0.0190
721.00,0.0193
720.00,0.0192
719.00,0.0185
718.00,0.0175
717.00,0.0163
716.00,0.0153
715.00,0.0144
714.00,0.0138
713.00,0.0133
712.00,0.0129
711.00,0.0126
710.00,0.0124
709.00,0.0123
708.00,0.0122
707.00,0.0121
706.00,0.0120
705.00,0.0119
704.00,0.0119
703.00,0.0117
702.00,0.0114
701.00,0.0112
700.00,0.0110
699.00,0.0110
698.00,0.0111
697.00,0.0112
696.00,0.0113
695.00,0.0113
694.00,0.0113
693.00,0.0112
692.00,0.0112
691.00,0.0112
690.00,0.0111
689.00,0.0111
688.00,0.0110
687.00,0.0110
686.00,0.0108
685.00,0.0107
684.00,0.0108
683.00,0.0109
682.00,0.0111
681.00,0.0110
680.00,0.0108
679.00,0.0106
678.00,0.0108
677.00,0.0110
676.00,0.0113
675.00,0.0115
674.00,0.0116
673.00,0.0117
672.00,0.0118
671.00,0.0121
670.00,0.0124
669.00,0.0125
668.00,0.0126
667.00,0.0125
666.00,0.0121
665.00,0.0117
664.00,0.0114
663.00,0.0111
662.00,0.0109
661.00,0.0106
660.00,0.0104
659.00,0.0103
658.00,0.0102
657.00,0.0101
656.00,0.0101
655.00,0.0103
654.00,0.0106
653.00,0.0108
652.00,0.0108
651.00,0.0107
650.00,0.0106
649.00,0.0105
648.00,0.0104
647.00,0.0102
646.00,0.0100
645.00,0.0099
644.00,0.0098
643.00,0.0098
642.00,0.0097
641.00,0.0096
640.00,0.0095
639.00,0.0094
638.00,0.0095
637.00,0.0098
636.00,0.0101
635.00,0.0102
634.00,0.0102
633.00,0.0101
632.00,0.0101
631.00,0.0100
630.00,0.0101
629.00,0.0101
628.00,0.0102
627.00,0.0102
626.00,0.0101
625.00,0.0099
624.00,0.0098
623.00,0.0099
622.00,0.0101
621.00,0.0103
620.00,0.0102
619.00,0.0098
618.00,0.0094
617.00,0.0092
616.00,0.0092
615.00,0.0094
614.00,0.0096
613.00,0.0097
612.00,0.0097
611.00,0.0097
610.00,0.0098
609.00,0.0099
608.00,0.0100
607.00,0.0100
606.00,0.0100
605.00,0.0100
604.00,0.0099
603.00,0.0098
602.00,0.0098
601.00,0.0098
600.00,0.0099
599.00,0.0100
598.00,0.0100
597.00,0.0099
596.00,0.0099
595.00,0.0098
594.00,0.0098
593.00,0.0098
592.00,0.0099
591.00,0.0100
590.00,0.0101
589.00,0.0102
588.00,0.0104
587.00,0.0107
586.00,0.0110
585.00,0.0110
584.00,0.0107
583.00,0.0104
582.00,0.0101
581.00,0.0099
580.00,0.0097
579.00,0.0097
578.00,0.0098
577.00,0.0101
576.00,0.0105
575.00,0.0108
574.00,0.0110
573.00,0.0110
572.00,0.0109
571.00,0.0106
570.00,0.0103
569.00,0.0101
568.00,0.0099
567.00,0.0098
566.00,0.0097
565.00,0.0097
564.00,0.0098
563.00,0.0100
562.00,0.0102
561.00,0.0101
560.00,0.0098
559.00,0.0097
558.00,0.0099
557.00,0.0104
556.00,0.0110
555.00,0.0115
554.00,0.0116
553.00,0.0112
552.00,0.0107
551.00,0.0102
550.00,0.0101
549.00,0.0101
548.00,0.0102
547.00,0.0103
546.00,0.0105
545.00,0.0108
544.00,0.0111
543.00,0.0112
542.00,0.0111
541.00,0.0110
540.00,0.0110
539.00,0.0110
538.00,0.0111
537.00,0.0113
536.00,0.0115
535.00,0.0118
534.00,0.0121
533.00,0.0122
532.00,0.0122
531.00,0.0123
530.00,0.0126
529.00,0.0129
528.00,0.0128
527.00,0.0123
526.00,0.0116
525.00,0.0111
524.00,0.0108
523.00,0.0107
522.00,0.0107
521.00,0.0110
520.00,0.0115
519.00,0.0120
518.00,0.0121
517.00,0.0118
516.00,0.0111
515.00,0.0103
514.00,0.0097
513.00,0.0093
512.00,0.0091
511.00,0.0092
510.00,0.0094
509.00,0.0095
508.00,0.0093
507.00,0.0091
506.00,0.0089
505.00,0.0090
504.00,0.0095
503.00,0.0101
502.00,0.0106
501.00,0.0108
500.00,0.0106
499.00,0.0101
498.00,0.0098
497.00,0.0099
496.00,0.0104
495.00,0.0111
494.00,0.0116
493.00,0.0117
492.00,0.0116
491.00,0.0112
490.00,0.0108
489.00,0.0105
488.00,0.0104
487.00,0.0106
486.00,0.0108
485.00,0.0107
484.00,0.0103
483.00,0.0103
482.00,0.0107
481.00,0.0115
480.00,0.0121
479.00,0.0123
478.00,0.0125
477.00,0.0128
476.00,0.0131
475.00,0.0136
474.00,0.0144
473.00,0.0154
472.00,0.0163
471.00,0.0166
470.00,0.0166
469.00,0.0169
468.00,0.0178
467.00,0.0189
466.00,0.0198
465.00,0.0203
464.00,0.0203
463.00,0.0201
462.00,0.0197
461.00,0.0194
460.00,0.0191
459.00,0.0189
458.00,0.0190
457.00,0.0193
456.00,0.0193
455.00,0.0193
454.00,0.0191
453.00,0.0186
452.00,0.0174
451.00,0.0158
450.00,0.0145
