Created as New Dataset,Sample 050 By Administrator Date Thursday, September 04 2025
cm-1,A
4000.00,0.0010
3999.00,0.0010
3998.00,0.0010
3997.00,0.0011
3996.00,0.0011
3995.00,0.0010
3994.00,0.0010
3993.00,0.0010
3992.00,0.0010
3991.00,0.0010
3990.00,0.0010
3989.00,0.0009
3988.00,0.0009
3987.00,0.0009
3986.00,0.0009
3985.00,0.0009
3984.00,0.0009
3983.00,0.0009
3982.00,0.0009
3981.00,0.0009
3980.00,0.0009
3979.00,0.0009
3978.00,0.0008
3977.00,0.0008
3976.00,0.0008
3975.00,0.0008
3974.00,0.0008
3973.00,0.0008
3972.00,0.0008
3971.00,0.0008
3970.00,0.0008
3969.00,0.0007
3968.00,0.0007
3967.00,0.0007
3966.00,0.0007
3965.00,0.0007
3964.00,0.0007
3963.00,0.0007
3962.00,0.0007
3961.00,0.0007
3960.00,0.0007
3959.00,0.0007
3958.00,0.0007
3957.00,0.0007
3956.00,0.0007
3955.00,0.0007
3954.00,0.0008
3953.00,0.0008
3952.00,0.0008
3951.00,0.0008
3950.00,0.0007
3949.00,0.0007
3948.00,0.0007
3947.00,0.0007
3946.00,0.0007
3945.00,0.0007
3944.00,0.0008
3943.00,0.0008
3942.00,0.0008
3941.00,0.0009
3940.00,0.0009
3939.00,0.0009
3938.00,0.0008
3937.00,0.0008
3936.00,0.0008
3935.00,0.0008
3934.00,0.0008
3933.00,0.0008
3932.00,0.0008
3931.00,0.0009
3930.00,0.0009
3929.00,0.0009
3928.00,0.0009
3927.00,0.0009
3926.00,0.0009
3925.00,0.0009
3924.00,0.0008
3923.00,0.0008
3922.00,0.0008
3921.00,0.0008
3920.00,0.0008
3919.00,0.0008
3918.00,0.0008
3917.00,0.0008
3916.00,0.0008
3915.00,0.0008
3914.00,0.0008
3913.00,0.0008
3912.00,0.0008
3911.00,0.0008
3910.00,0.0008
3909.00,0.0008
3908.00,0.0008
3907.00,0.0008
3906.00,0.0008
3905.00,0.0008
3904.00,0.0009
3903.00,0.0009
3902.00,0.0009
3901.00,0.0009
3900.00,0.0009
3899.00,0.0009
3898.00,0.0008
3897.00,0.0008
3896.00,0.0008
3895.00,0.0008
3894.00,0.0008
3893.00,0.0008
3892.00,0.0008
3891.00,0.0008
3890.00,0.0008
3889.00,0.0008
3888.00,0.0009
3887.00,0.0008
3886.00,0.0008
3885.00,0.0008
3884.00,0.0008
3883.00,0.0008
3882.00,0.0008
3881.00,0.0008
3880.00,0.0008
3879.00,0.0008
3878.00,0.0008
3877.00,0.0008
3876.00,0.0008
3875.00,0.0008
3874.00,0.0008
3873.00,0.0008
3872.00,0.0008
3871.00,0.0008
3870.00,0.0008
3869.00,0.0008
3868.00,0.0008
3867.00,0.0008
3866.00,0.0008
3865.00,0.0008
3864.00,0.0008
3863.00,0.0008
3862.00,0.0008
3861.00,0.0008
3860.00,0.0008
3859.00,0.0008
3858.00,0.0008
3857.00,0.0008
3856.00,0.0007
3855.00,0.0007
3854.00,0.0007
3853.00,0.0006
3852.00,0.0006
3851.00,0.0006
3850.00,0.0006
3849.00,0.0006
3848.00,0.0006
3847.00,0.0007
3846.00,0.0007
3845.00,0.0008
3844.00,0.0008
3843.00,0.0008
3842.00,0.0008
3841.00,0.0008
3840.00,0.0009
3839.00,0.0009
3838.00,0.0009
3837.00,0.0009
3836.00,0.0009
3835.00,0.0008
3834.00,0.0008
3833.00,0.0008
3832.00,0.0008
3831.00,0.0008
3830.00,0.0008
3829.00,0.0008
3828.00,0.0008
3827.00,0.0008
3826.00,0.0008
3825.00,0.0009
3824.00,0.0009
3823.00,0.0010
3822.00,0.0010
3821.00,0.0010
3820.00,0.0010
3819.00,0.0010
3818.00,0.0010
3817.00,0.0009
3816.00,0.0008
3815.00,0.0008
3814.00,0.0008
3813.00,0.0008
3812.00,0.0008
3811.00,0.0008
3810.00,0.0008
3809.00,0.0008
3808.00,0.0008
3807.00,0.0008
3806.00,0.0008
3805.00,0.0008
3804.00,0.0009
3803.00,0.0009
3802.00,0.0009
3801.00,0.0009
3800.00,0.0008
3799.00,0.0008
3798.00,0.0009
3797.00,0.0009
3796.00,0.0009
3795.00,0.0009
3794.00,0.0008
3793.00,0.0008
3792.00,0.0007
3791.00,0.0007
3790.00,0.0007
3789.00,0.0007
3788.00,0.0007
3787.00,0.0008
3786.00,0.0008
3785.00,0.0008
3784.00,0.0007
3783.00,0.0007
3782.00,0.0007
3781.00,0.0007
3780.00,0.0008
3779.00,0.0008
3778.00,0.0008
3777.00,0.0008
3776.00,0.0008
3775.00,0.0008
3774.00,0.0008
3773.00,0.0008
3772.00,0.0008
3771.00,0.0008
3770.00,0.0008
3769.00,0.0009
3768.00,0.0009
3767.00,0.0009
3766.00,0.0009
3765.00,0.0009
3764.00,0.0009
3763.00,0.0009
3762.00,0.0009
3761.00,0.0009
3760.00,0.0009
3759.00,0.0010
3758.00,0.0009
3757.00,0.0009
3756.00,0.0008
3755.00,0.0008
3754.00,0.0008
3753.00,0.0009
3752.00,0.0009
3751.00,0.0009
3750.00,0.0008
3749.00,0.0008
3748.00,0.0008
3747.00,0.0009
3746.00,0.0009
3745.00,0.0009
3744.00,0.0009
3743.00,0.0009
3742.00,0.0008
3741.00,0.0008
3740.00,0.0008
3739.00,0.0008
3738.00,0.0009
3737.00,0.0009
3736.00,0.0009
3735.00,0.0008
3734.00,0.0008
3733.00,0.0008
3732.00,0.0008
3731.00,0.0008
3730.00,0.0008
3729.00,0.0008
3728.00,0.0007
3727.00,0.0007
3726.00,0.0007
3725.00,0.0007
3724.00,0.0007
3723.00,0.0007
3722.00,0.0007
3721.00,0.0007
3720.00,0.0007
3719.00,0.0007
3718.00,0.0007
3717.00,0.0007
3716.00,0.0007
3715.00,0.0007
3714.00,0.0007
3713.00,0.0007
3712.00,0.0007
3711.00,0.0007
3710.00,0.0006
3709.00,0.0007
3708.00,0.0007
3707.00,0.0007
3706.00,0.0007
3705.00,0.0006
3704.00,0.0006
3703.00,0.0005
3702.00,0.0005
3701.00,0.0005
3700.00,0.0005
3699.00,0.0005
3698.00,0.0005
3697.00,0.0005
3696.00,0.0005
3695.00,0.0005
3694.00,0.0005
3693.00,0.0005
3692.00,0.0005
3691.00,0.0005
3690.00,0.0005
3689.00,0.0005
3688.00,0.0005
3687.00,0.0005
3686.00,0.0005
3685.00,0.0005
3684.00,0.0005
3683.00,0.0005
3682.00,0.0005
3681.00,0.0005
3680.00,0.0005
3679.00,0.0006
3678.00,0.0006
3677.00,0.0007
3676.00,0.0007
3675.00,0.0006
3674.00,0.0006
3673.00,0.0006
3672.00,0.0006
3671.00,0.0005
3670.00,0.0005
3669.00,0.0004
3668.00,0.0005
3667.00,0.0005
3666.00,0.0004
3665.00,0.0004
3664.00,0.0003
3663.00,0.0003
3662.00,0.0003
3661.00,0.0003
3660.00,0.0003
3659.00,0.0003
3658.00,0.0003
3657.00,0.0003
3656.00,0.0003
3655.00,0.0003
3654.00,0.0004
3653.00,0.0004
3652.00,0.0004
3651.00,0.0005
3650.00,0.0005
3649.00,0.0005
3648.00,0.0006
3647.00,0.0006
3646.00,0.0005
3645.00,0.0005
3644.00,0.0004
3643.00,0.0004
3642.00,0.0004
3641.00,0.0004
3640.00,0.0004
3639.00,0.0004
3638.00,0.0004
3637.00,0.0004
3636.00,0.0004
3635.00,0.0004
3634.00,0.0004
3633.00,0.0004
3632.00,0.0004
3631.00,0.0004
3630.00,0.0004
3629.00,0.0004
3628.00,0.0004
3627.00,0.0004
3626.00,0.0004
3625.00,0.0003
3624.00,0.0003
3623.00,0.0003
3622.00,0.0004
3621.00,0.0004
3620.00,0.0004
3619.00,0.0004
3618.00,0.0004
3617.00,0.0005
3616.00,0.0005
3615.00,0.0005
3614.00,0.0005
3613.00,0.0005
3612.00,0.0005
3611.00,0.0005
3610.00,0.0005
3609.00,0.0005
3608.00,0.0005
3607.00,0.0004
3606.00,0.0004
3605.00,0.0003
3604.00,0.0003
3603.00,0.0003
3602.00,0.0003
3601.00,0.0004
3600.00,0.0004
3599.00,0.0004
3598.00,0.0003
3597.00,0.0003
3596.00,0.0003
3595.00,0.0003
3594.00,0.0003
3593.00,0.0003
3592.00,0.0003
3591.00,0.0003
3590.00,0.0003
3589.00,0.0003
3588.00,0.0003
3587.00,0.0003
3586.00,0.0003
3585.00,0.0003
3584.00,0.0003
3583.00,0.0003
3582.00,0.0003
3581.00,0.0003
3580.00,0.0002
3579.00,0.0003
3578.00,0.0003
3577.00,0.0003
3576.00,0.0003
3575.00,0.0003
3574.00,0.0003
3573.00,0.0003
3572.00,0.0003
3571.00,0.0003
3570.00,0.0003
3569.00,0.0004
3568.00,0.0004
3567.00,0.0004
3566.00,0.0004
3565.00,0.0004
3564.00,0.0004
3563.00,0.0004
3562.00,0.0004
3561.00,0.0004
3560.00,0.0004
3559.00,0.0005
3558.00,0.0005
3557.00,0.0006
3556.00,0.0006
3555.00,0.0005
3554.00,0.0005
3553.00,0.0005
3552.00,0.0005
3551.00,0.0005
3550.00,0.0005
3549.00,0.0005
3548.00,0.0005
3547.00,0.0005
3546.00,0.0005
3545.00,0.0005
3544.00,0.0006
3543.00,0.0006
3542.00,0.0006
3541.00,0.0006
3540.00,0.0006
3539.00,0.0006
3538.00,0.0006
3537.00,0.0006
3536.00,0.0006
3535.00,0.0005
3534.00,0.0005
3533.00,0.0006
3532.00,0.0006
3531.00,0.0006
3530.00,0.0006
3529.00,0.0006
3528.00,0.0007
3527.00,0.0007
3526.00,0.0007
3525.00,0.0007
3524.00,0.0007
3523.00,0.0007
3522.00,0.0007
3521.00,0.0007
3520.00,0.0007
3519.00,0.0007
3518.00,0.0006
3517.00,0.0006
3516.00,0.0006
3515.00,0.0006
3514.00,0.0006
3513.00,0.0006
3512.00,0.0007
3511.00,0.0007
3510.00,0.0007
3509.00,0.0008
3508.00,0.0008
3507.00,0.0008
3506.00,0.0008
3505.00,0.0007
3504.00,0.0007
3503.00,0.0007
3502.00,0.0007
3501.00,0.0007
3500.00,0.0007
3499.00,0.0007
3498.00,0.0007
3497.00,0.0007
3496.00,0.0007
3495.00,0.0007
3494.00,0.0008
3493.00,0.0008
3492.00,0.0008
3491.00,0.0008
3490.00,0.0008
3489.00,0.0008
3488.00,0.0008
3487.00,0.0008
3486.00,0.0008
3485.00,0.0008
3484.00,0.0008
3483.00,0.0009
3482.00,0.0009
3481.00,0.0009
3480.00,0.0009
3479.00,0.0009
3478.00,0.0009
3477.00,0.0009
3476.00,0.0009
3475.00,0.0008
3474.00,0.0008
3473.00,0.0008
3472.00,0.0009
3471.00,0.0009
3470.00,0.0009
3469.00,0.0009
3468.00,0.0008
3467.00,0.0008
3466.00,0.0008
3465.00,0.0008
3464.00,0.0008
3463.00,0.0009
3462.00,0.0009
3461.00,0.0010
3460.00,0.0010
3459.00,0.0010
3458.00,0.0009
3457.00,0.0009
3456.00,0.0009
3455.00,0.0009
3454.00,0.0008
3453.00,0.0008
3452.00,0.0009
3451.00,0.0009
3450.00,0.0009
3449.00,0.0009
3448.00,0.0009
3447.00,0.0010
3446.00,0.0010
3445.00,0.0010
3444.00,0.0011
3443.00,0.0011
3442.00,0.0011
3441.00,0.0011
3440.00,0.0011
3439.00,0.0011
3438.00,0.0011
3437.00,0.0011
3436.00,0.0011
3435.00,0.0011
3434.00,0.0011
3433.00,0.0011
3432.00,0.0012
3431.00,0.0012
3430.00,0.0012
3429.00,0.0013
3428.00,0.0013
3427.00,0.0013
3426.00,0.0013
3425.00,0.0013
3424.00,0.0012
3423.00,0.0012
3422.00,0.0012
3421.00,0.0012
3420.00,0.0013
3419.00,0.0013
3418.00,0.0013
3417.00,0.0014
3416.00,0.0014
3415.00,0.0014
3414.00,0.0013
3413.00,0.0012
3412.00,0.0012
3411.00,0.0012
3410.00,0.0011
3409.00,0.0011
3408.00,0.0011
3407.00,0.0012
3406.00,0.0012
3405.00,0.0012
3404.00,0.0013
3403.00,0.0013
3402.00,0.0013
3401.00,0.0013
3400.00,0.0013
3399.00,0.0013
3398.00,0.0013
3397.00,0.0013
3396.00,0.0012
3395.00,0.0012
3394.00,0.0012
3393.00,0.0012
3392.00,0.0012
3391.00,0.0012
3390.00,0.0012
3389.00,0.0012
3388.00,0.0012
3387.00,0.0012
3386.00,0.0013
3385.00,0.0013
3384.00,0.0013
3383.00,0.0013
3382.00,0.0013
3381.00,0.0014
3380.00,0.0014
3379.00,0.0014
3378.00,0.0014
3377.00,0.0013
3376.00,0.0013
3375.00,0.0013
3374.00,0.0013
3373.00,0.0013
3372.00,0.0014
3371.00,0.0014
3370.00,0.0014
3369.00,0.0013
3368.00,0.0013
3367.00,0.0013
3366.00,0.0013
3365.00,0.0013
3364.00,0.0013
3363.00,0.0014
3362.00,0.0014
3361.00,0.0014
3360.00,0.0014
3359.00,0.0014
3358.00,0.0015
3357.00,0.0015
3356.00,0.0015
3355.00,0.0015
3354.00,0.0015
3353.00,0.0015
3352.00,0.0015
3351.00,0.0015
3350.00,0.0014
3349.00,0.0014
3348.00,0.0014
3347.00,0.0014
3346.00,0.0014
3345.00,0.0014
3344.00,0.0015
3343.00,0.0015
3342.00,0.0015
3341.00,0.0015
3340.00,0.0015
3339.00,0.0015
3338.00,0.0015
3337.00,0.0015
3336.00,0.0015
3335.00,0.0015
3334.00,0.0015
3333.00,0.0014
3332.00,0.0014
3331.00,0.0013
3330.00,0.0013
3329.00,0.0013
3328.00,0.0013
3327.00,0.0014
3326.00,0.0013
3325.00,0.0013
3324.00,0.0013
3323.00,0.0013
3322.00,0.0013
3321.00,0.0013
3320.00,0.0013
3319.00,0.0013
3318.00,0.0014
3317.00,0.0014
3316.00,0.0014
3315.00,0.0014
3314.00,0.0014
3313.00,0.0015
3312.00,0.0015
3311.00,0.0015
3310.00,0.0016
3309.00,0.0016
3308.00,0.0016
3307.00,0.0016
3306.00,0.0016
3305.00,0.0017
3304.00,0.0017
3303.00,0.0018
3302.00,0.0018
3301.00,0.0018
3300.00,0.0017
3299.00,0.0017
3298.00,0.0016
3297.00,0.0016
3296.00,0.0016
3295.00,0.0016
3294.00,0.0016
3293.00,0.0016
3292.00,0.0015
3291.00,0.0015
3290.00,0.0015
3289.00,0.0014
3288.00,0.0014
3287.00,0.0015
3286.00,0.0015
3285.00,0.0015
3284.00,0.0015
3283.00,0.0014
3282.00,0.0014
3281.00,0.0014
3280.00,0.0014
3279.00,0.0014
3278.00,0.0014
3277.00,0.0014
3276.00,0.0014
3275.00,0.0014
3274.00,0.0014
3273.00,0.0014
3272.00,0.0014
3271.00,0.0014
3270.00,0.0014
3269.00,0.0014
3268.00,0.0014
3267.00,0.0014
3266.00,0.0014
3265.00,0.0013
3264.00,0.0013
3263.00,0.0013
3262.00,0.0013
3261.00,0.0013
3260.00,0.0013
3259.00,0.0013
3258.00,0.0013
3257.00,0.0013
3256.00,0.0013
3255.00,0.0013
3254.00,0.0013
3253.00,0.0013
3252.00,0.0013
3251.00,0.0013
3250.00,0.0013
3249.00,0.0012
3248.00,0.0012
3247.00,0.0013
3246.00,0.0013
3245.00,0.0013
3244.00,0.0013
3243.00,0.0013
3242.00,0.0013
3241.00,0.0013
3240.00,0.0013
3239.00,0.0013
3238.00,0.0014
3237.00,0.0014
3236.00,0.0014
3235.00,0.0014
3234.00,0.0014
3233.00,0.0014
3232.00,0.0014
3231.00,0.0014
3230.00,0.0015
3229.00,0.0015
3228.00,0.0015
3227.00,0.0015
3226.00,0.0016
3225.00,0.0016
3224.00,0.0016
3223.00,0.0017
3222.00,0.0017
3221.00,0.0017
3220.00,0.0018
3219.00,0.0018
3218.00,0.0018
3217.00,0.0018
3216.00,0.0018
3215.00,0.0018
3214.00,0.0018
3213.00,0.0018
3212.00,0.0018
3211.00,0.0018
3210.00,0.0019
3209.00,0.0019
3208.00,0.0019
3207.00,0.0020
3206.00,0.0020
3205.00,0.0021
3204.00,0.0021
3203.00,0.0020
3202.00,0.0020
3201.00,0.0020
3200.00,0.0020
3199.00,0.0020
3198.00,0.0021
3197.00,0.0021
3196.00,0.0021
3195.00,0.0020
3194.00,0.0020
3193.00,0.0020
3192.00,0.0020
3191.00,0.0020
3190.00,0.0020
3189.00,0.0020
3188.00,0.0019
3187.00,0.0019
3186.00,0.0019
3185.00,0.0020
3184.00,0.0020
3183.00,0.0020
3182.00,0.0020
3181.00,0.0020
3180.00,0.0019
3179.00,0.0019
3178.00,0.0019
3177.00,0.0019
3176.00,0.0019
3175.00,0.0018
3174.00,0.0018
3173.00,0.0018
3172.00,0.0018
3171.00,0.0018
3170.00,0.0018
3169.00,0.0018
3168.00,0.0018
3167.00,0.0019
3166.00,0.0019
3165.00,0.0019
3164.00,0.0018
3163.00,0.0018
3162.00,0.0018
3161.00,0.0018
3160.00,0.0019
3159.00,0.0019
3158.00,0.0019
3157.00,0.0019
3156.00,0.0019
3155.00,0.0019
3154.00,0.0019
3153.00,0.0019
3152.00,0.0019
3151.00,0.0020
3150.00,0.0020
3149.00,0.0020
3148.00,0.0020
3147.00,0.0020
3146.00,0.0020
3145.00,0.0020
3144.00,0.0020
3143.00,0.0020
3142.00,0.0019
3141.00,0.0020
3140.00,0.0020
3139.00,0.0020
3138.00,0.0020
3137.00,0.0019
3136.00,0.0019
3135.00,0.0019
3134.00,0.0019
3133.00,0.0019
3132.00,0.0019
3131.00,0.0018
3130.00,0.0018
3129.00,0.0018
3128.00,0.0018
3127.00,0.0018
3126.00,0.0018
3125.00,0.0018
3124.00,0.0018
3123.00,0.0018
3122.00,0.0017
3121.00,0.0017
3120.00,0.0017
3119.00,0.0017
3118.00,0.0017
3117.00,0.0017
3116.00,0.0017
3115.00,0.0017
3114.00,0.0017
3113.00,0.0017
3112.00,0.0017
3111.00,0.0016
3110.00,0.0016
3109.00,0.0016
3108.00,0.0017
3107.00,0.0017
3106.00,0.0017
3105.00,0.0017
3104.00,0.0017
3103.00,0.0017
3102.00,0.0016
3101.00,0.0016
3100.00,0.0017
3099.00,0.0017
3098.00,0.0017
3097.00,0.0017
3096.00,0.0017
3095.00,0.0016
3094.00,0.0016
3093.00,0.0016
3092.00,0.0016
3091.00,0.0016
3090.00,0.0016
3089.00,0.0017
3088.00,0.0017
3087.00,0.0017
3086.00,0.0018
3085.00,0.0018
3084.00,0.0018
3083.00,0.0018
3082.00,0.0018
3081.00,0.0018
3080.00,0.0018
3079.00,0.0018
3078.00,0.0018
3077.00,0.0018
3076.00,0.0018
3075.00,0.0018
3074.00,0.0018
3073.00,0.0019
3072.00,0.0019
3071.00,0.0019
3070.00,0.0019
3069.00,0.0019
3068.00,0.0019
3067.00,0.0019
3066.00,0.0020
3065.00,0.0020
3064.00,0.0020
3063.00,0.0020
3062.00,0.0020
3061.00,0.0020
3060.00,0.0020
3059.00,0.0020
3058.00,0.0020
3057.00,0.0021
3056.00,0.0021
3055.00,0.0021
3054.00,0.0022
3053.00,0.0022
3052.00,0.0022
3051.00,0.0023
3050.00,0.0023
3049.00,0.0023
3048.00,0.0023
3047.00,0.0023
3046.00,0.0023
3045.00,0.0024
3044.00,0.0024
3043.00,0.0024
3042.00,0.0024
3041.00,0.0024
3040.00,0.0025
3039.00,0.0025
3038.00,0.0026
3037.00,0.0026
3036.00,0.0026
3035.00,0.0026
3034.00,0.0026
3033.00,0.0026
3032.00,0.0027
3031.00,0.0028
3030.00,0.0028
3029.00,0.0029
3028.00,0.0029
3027.00,0.0030
3026.00,0.0031
3025.00,0.0032
3024.00,0.0033
3023.00,0.0033
3022.00,0.0034
3021.00,0.0035
3020.00,0.0035
3019.00,0.0036
3018.00,0.0037
3017.00,0.0037
3016.00,0.0038
3015.00,0.0039
3014.00,0.0040
3013.00,0.0041
3012.00,0.0042
3011.00,0.0044
3010.00,0.0045
3009.00,0.0046
3008.00,0.0048
3007.00,0.0049
3006.00,0.0051
3005.00,0.0053
3004.00,0.0055
3003.00,0.0057
3002.00,0.0060
3001.00,0.0062
3000.00,0.0064
2999.00,0.0067
2998.00,0.0070
2997.00,0.0074
2996.00,0.0078
2995.00,0.0082
2994.00,0.0086
2993.00,0.0091
2992.00,0.0096
2991.00,0.0101
2990.00,0.0107
2989.00,0.0114
2988.00,0.0121
2987.00,0.0129
2986.00,0.0139
2985.00,0.0149
2984.00,0.0160
2983.00,0.0173
2982.00,0.0188
2981.00,0.0205
2980.00,0.0224
2979.00,0.0246
2978.00,0.0270
2977.00,0.0298
2976.00,0.0329
2975.00,0.0365
2974.00,0.0407
2973.00,0.0454
2972.00,0.0507
2971.00,0.0566
2970.00,0.0632
2969.00,0.0702
2968.00,0.0777
2967.00,0.0856
2966.00,0.0936
2965.00,0.1016
2964.00,0.1091
2963.00,0.1158
2962.00,0.1212
2961.00,0.1254
2960.00,0.1288
2959.00,0.1320
2958.00,0.1359
2957.00,0.1412
2956.00,0.1484
2955.00,0.1578
2954.00,0.1689
2953.00,0.1808
2952.00,0.1920
2951.00,0.2005
2950.00,0.2046
2949.00,0.2031
2948.00,0.1960
2947.00,0.1843
2946.00,0.1699
2945.00,0.1547
2944.00,0.1404
2943.00,0.1282
2942.00,0.1186
2941.00,0.1119
2940.00,0.1079
2939.00,0.1063
2938.00,0.1068
2937.00,0.1093
2936.00,0.1135
2935.00,0.1194
2934.00,0.1269
2933.00,0.1358
2932.00,0.1462
2931.00,0.1577
2930.00,0.1703
2929.00,0.1836
2928.00,0.1971
2927.00,0.2107
2926.00,0.2241
2925.00,0.2375
2924.00,0.2508
2923.00,0.2645
2922.00,0.2785
2921.00,0.2923
2920.00,0.3050
2919.00,0.3149
2918.00,0.3203
2917.00,0.3198
2916.00,0.3133
2915.00,0.3019
2914.00,0.2875
2913.00,0.2721
2912.00,0.2572
2911.00,0.2438
2910.00,0.2320
2909.00,0.2217
2908.00,0.2125
2907.00,0.2039
2906.00,0.1956
2905.00,0.1874
2904.00,0.1795
2903.00,0.1717
2902.00,0.1642
2901.00,0.1570
2900.00,0.1501
2899.00,0.1437
2898.00,0.1377
2897.00,0.1321
2896.00,0.1272
2895.00,0.1230
2894.00,0.1194
2893.00,0.1166
2892.00,0.1145
2891.00,0.1131
2890.00,0.1121
2889.00,0.1117
2888.00,0.1116
2887.00,0.1118
2886.00,0.1124
2885.00,0.1133
2884.00,0.1146
2883.00,0.1164
2882.00,0.1186
2881.00,0.1210
2880.00,0.1232
2879.00,0.1249
2878.00,0.1258
2877.00,0.1258
2876.00,0.1250
2875.00,0.1241
2874.00,0.1236
2873.00,0.1239
2872.00,0.1251
2871.00,0.1272
2870.00,0.1299
2869.00,0.1325
2868.00,0.1344
2867.00,0.1346
2866.00,0.1322
2865.00,0.1269
2864.00,0.1193
2863.00,0.1103
2862.00,0.1012
2861.00,0.0930
2860.00,0.0864
2859.00,0.0816
2858.00,0.0786
2857.00,0.0771
2856.00,0.0768
2855.00,0.0774
2854.00,0.0787
2853.00,0.0805
2852.00,0.0825
2851.00,0.0846
2850.00,0.0864
2849.00,0.0882
2848.00,0.0899
2847.00,0.0922
2846.00,0.0952
2845.00,0.0994
2844.00,0.1045
2843.00,0.1101
2842.00,0.1159
2841.00,0.1209
2840.00,0.1243
2839.00,0.1256
2838.00,0.1240
2837.00,0.1193
2836.00,0.1118
2835.00,0.1022
2834.00,0.0914
2833.00,0.0807
2832.00,0.0707
2831.00,0.0619
2830.00,0.0545
2829.00,0.0484
2828.00,0.0434
2827.00,0.0393
2826.00,0.0360
2825.00,0.0333
2824.00,0.0310
2823.00,0.0291
2822.00,0.0274
2821.00,0.0260
2820.00,0.0247
2819.00,0.0236
2818.00,0.0226
2817.00,0.0218
2816.00,0.0211
2815.00,0.0204
2814.00,0.0198
2813.00,0.0192
2812.00,0.0186
2811.00,0.0180
2810.00,0.0174
2809.00,0.0168
2808.00,0.0161
2807.00,0.0155
2806.00,0.0148
2805.00,0.0141
2804.00,0.0135
2803.00,0.0129
2802.00,0.0124
2801.00,0.0119
2800.00,0.0115
2799.00,0.0111
2798.00,0.0109
2797.00,0.0106
2796.00,0.0104
2795.00,0.0102
2794.00,0.0099
2793.00,0.0096
2792.00,0.0093
2791.00,0.0090
2790.00,0.0087
2789.00,0.0084
2788.00,0.0081
2787.00,0.0079
2786.00,0.0076
2785.00,0.0074
2784.00,0.0071
2783.00,0.0069
2782.00,0.0067
2781.00,0.0065
2780.00,0.0064
2779.00,0.0062
2778.00,0.0060
2777.00,0.0059
2776.00,0.0057
2775.00,0.0056
2774.00,0.0055
2773.00,0.0055
2772.00,0.0055
2771.00,0.0054
2770.00,0.0054
2769.00,0.0054
2768.00,0.0053
2767.00,0.0053
2766.00,0.0052
2765.00,0.0052
2764.00,0.0051
2763.00,0.0051
2762.00,0.0050
2761.00,0.0050
2760.00,0.0050
2759.00,0.0050
2758.00,0.0049
2757.00,0.0049
2756.00,0.0049
2755.00,0.0049
2754.00,0.0048
2753.00,0.0048
2752.00,0.0048
2751.00,0.0048
2750.00,0.0048
2749.00,0.0048
2748.00,0.0049
2747.00,0.0049
2746.00,0.0050
2745.00,0.0050
2744.00,0.0051
2743.00,0.0052
2742.00,0.0053
2741.00,0.0054
2740.00,0.0055
2739.00,0.0056
2738.00,0.0058
2737.00,0.0059
2736.00,0.0060
2735.00,0.0062
2734.00,0.0064
2733.00,0.0065
2732.00,0.0067
2731.00,0.0069
2730.00,0.0071
2729.00,0.0074
2728.00,0.0077
2727.00,0.0080
2726.00,0.0083
2725.00,0.0086
2724.00,0.0088
2723.00,0.0088
2722.00,0.0088
2721.00,0.0086
2720.00,0.0083
2719.00,0.0080
2718.00,0.0077
2717.00,0.0073
2716.00,0.0070
2715.00,0.0066
2714.00,0.0064
2713.00,0.0061
2712.00,0.0059
2711.00,0.0057
2710.00,0.0056
2709.00,0.0054
2708.00,0.0052
2707.00,0.0051
2706.00,0.0049
2705.00,0.0048
2704.00,0.0047
2703.00,0.0046
2702.00,0.0045
2701.00,0.0044
2700.00,0.0044
2699.00,0.0043
2698.00,0.0043
2697.00,0.0043
2696.00,0.0042
2695.00,0.0042
2694.00,0.0042
2693.00,0.0042
2692.00,0.0043
2691.00,0.0043
2690.00,0.0043
2689.00,0.0043
2688.00,0.0043
2687.00,0.0042
2686.00,0.0042
2685.00,0.0043
2684.00,0.0043
2683.00,0.0043
2682.00,0.0043
2681.00,0.0044
2680.00,0.0044
2679.00,0.0044
2678.00,0.0045
2677.00,0.0045
2676.00,0.0045
2675.00,0.0044
2674.00,0.0044
2673.00,0.0043
2672.00,0.0043
2671.00,0.0043
2670.00,0.0043
2669.00,0.0043
2668.00,0.0043
2667.00,0.0043
2666.00,0.0044
2665.00,0.0044
2664.00,0.0045
2663.00,0.0046
2662.00,0.0046
2661.00,0.0047
2660.00,0.0047
2659.00,0.0048
2658.00,0.0047
2657.00,0.0047
2656.00,0.0047
2655.00,0.0046
2654.00,0.0045
2653.00,0.0045
2652.00,0.0044
2651.00,0.0043
2650.00,0.0043
2649.00,0.0042
2648.00,0.0042
2647.00,0.0042
2646.00,0.0042
2645.00,0.0042
2644.00,0.0041
2643.00,0.0041
2642.00,0.0040
2641.00,0.0040
2640.00,0.0039
2639.00,0.0039
2638.00,0.0039
2637.00,0.0039
2636.00,0.0039
2635.00,0.0038
2634.00,0.0038
2633.00,0.0038
2632.00,0.0038
2631.00,0.0038
2630.00,0.0038
2629.00,0.0038
2628.00,0.0038
2627.00,0.0038
2626.00,0.0038
2625.00,0.0038
2624.00,0.0039
2623.00,0.0039
2622.00,0.0039
2621.00,0.0039
2620.00,0.0039
2619.00,0.0039
2618.00,0.0039
2617.00,0.0040
2616.00,0.0040
2615.00,0.0040
2614.00,0.0039
2613.00,0.0039
2612.00,0.0038
2611.00,0.0037
2610.00,0.0037
2609.00,0.0036
2608.00,0.0035
2607.00,0.0034
2606.00,0.0033
2605.00,0.0033
2604.00,0.0032
2603.00,0.0031
2602.00,0.0031
2601.00,0.0031
2600.00,0.0031
2599.00,0.0031
2598.00,0.0031
2597.00,0.0031
2596.00,0.0032
2595.00,0.0032
2594.00,0.0032
2593.00,0.0032
2592.00,0.0032
2591.00,0.0033
2590.00,0.0034
2589.00,0.0035
2588.00,0.0035
2587.00,0.0036
2586.00,0.0037
2585.00,0.0039
2584.00,0.0040
2583.00,0.0041
2582.00,0.0041
2581.00,0.0041
2580.00,0.0040
2579.00,0.0039
2578.00,0.0038
2577.00,0.0037
2576.00,0.0036
2575.00,0.0034
2574.00,0.0033
2573.00,0.0031
2572.00,0.0030
2571.00,0.0028
2570.00,0.0027
2569.00,0.0026
2568.00,0.0025
2567.00,0.0024
2566.00,0.0024
2565.00,0.0023
2564.00,0.0023
2563.00,0.0023
2562.00,0.0022
2561.00,0.0021
2560.00,0.0021
2559.00,0.0021
2558.00,0.0021
2557.00,0.0021
2556.00,0.0021
2555.00,0.0022
2554.00,0.0022
2553.00,0.0022
2552.00,0.0022
2551.00,0.0021
2550.00,0.0020
2549.00,0.0020
2548.00,0.0018
2547.00,0.0018
2546.00,0.0017
2545.00,0.0016
2544.00,0.0016
2543.00,0.0016
2542.00,0.0016
2541.00,0.0016
2540.00,0.0016
2539.00,0.0015
2538.00,0.0016
2537.00,0.0016
2536.00,0.0016
2535.00,0.0016
2534.00,0.0016
2533.00,0.0016
2532.00,0.0016
2531.00,0.0016
2530.00,0.0016
2529.00,0.0016
2528.00,0.0015
2527.00,0.0014
2526.00,0.0013
2525.00,0.0013
2524.00,0.0012
2523.00,0.0012
2522.00,0.0013
2521.00,0.0013
2520.00,0.0013
2519.00,0.0012
2518.00,0.0012
2517.00,0.0011
2516.00,0.0011
2515.00,0.0010
2514.00,0.0010
2513.00,0.0010
2512.00,0.0009
2511.00,0.0009
2510.00,0.0010
2509.00,0.0010
2508.00,0.0011
2507.00,0.0011
2506.00,0.0010
2505.00,0.0010
2504.00,0.0009
2503.00,0.0009
2502.00,0.0009
2501.00,0.0009
2500.00,0.0009
2499.00,0.0009
2498.00,0.0009
2497.00,0.0008
2496.00,0.0008
2495.00,0.0008
2494.00,0.0008
2493.00,0.0009
2492.00,0.0009
2491.00,0.0009
2490.00,0.0009
2489.00,0.0009
2488.00,0.0009
2487.00,0.0009
2486.00,0.0008
2485.00,0.0008
2484.00,0.0008
2483.00,0.0008
2482.00,0.0008
2481.00,0.0007
2480.00,0.0007
2479.00,0.0007
2478.00,0.0007
2477.00,0.0007
2476.00,0.0007
2475.00,0.0008
2474.00,0.0008
2473.00,0.0008
2472.00,0.0007
2471.00,0.0006
2470.00,0.0006
2469.00,0.0006
2468.00,0.0006
2467.00,0.0007
2466.00,0.0008
2465.00,0.0009
2464.00,0.0009
2463.00,0.0010
2462.00,0.0009
2461.00,0.0009
2460.00,0.0009
2459.00,0.0009
2458.00,0.0009
2457.00,0.0009
2456.00,0.0009
2455.00,0.0009
2454.00,0.0009
2453.00,0.0009
2452.00,0.0009
2451.00,0.0010
2450.00,0.0011
2449.00,0.0012
2448.00,0.0012
2447.00,0.0012
2446.00,0.0011
2445.00,0.0011
2444.00,0.0010
2443.00,0.0010
2442.00,0.0010
2441.00,0.0010
2440.00,0.0009
2439.00,0.0009
2438.00,0.0009
2437.00,0.0009
2436.00,0.0009
2435.00,0.0009
2434.00,0.0009
2433.00,0.0010
2432.00,0.0010
2431.00,0.0010
2430.00,0.0010
2429.00,0.0011
2428.00,0.0011
2427.00,0.0011
2426.00,0.0010
2425.00,0.0010
2424.00,0.0009
2423.00,0.0009
2422.00,0.0009
2421.00,0.0008
2420.00,0.0008
2419.00,0.0008
2418.00,0.0008
2417.00,0.0008
2416.00,0.0008
2415.00,0.0008
2414.00,0.0008
2413.00,0.0008
2412.00,0.0008
2411.00,0.0008
2410.00,0.0009
2409.00,0.0009
2408.00,0.0009
2407.00,0.0008
2406.00,0.0007
2405.00,0.0007
2404.00,0.0006
2403.00,0.0006
2402.00,0.0006
2401.00,0.0006
2400.00,0.0006
2399.00,0.0007
2398.00,0.0007
2397.00,0.0007
2396.00,0.0007
2395.00,0.0007
2394.00,0.0007
2393.00,0.0006
2392.00,0.0006
2391.00,0.0006
2390.00,0.0005
2389.00,0.0005
2388.00,0.0006
2387.00,0.0006
2386.00,0.0006
2385.00,0.0005
2384.00,0.0005
2383.00,0.0004
2382.00,0.0004
2381.00,0.0004
2380.00,0.0004
2379.00,0.0004
2378.00,0.0003
2377.00,0.0003
2376.00,0.0004
2375.00,0.0004
2374.00,0.0004
2373.00,0.0004
2372.00,0.0004
2371.00,0.0004
2370.00,0.0004
2369.00,0.0003
2368.00,0.0003
2367.00,0.0003
2366.00,0.0004
2365.00,0.0004
2364.00,0.0004
2363.00,0.0004
2362.00,0.0004
2361.00,0.0004
2360.00,0.0005
2359.00,0.0005
2358.00,0.0005
2357.00,0.0005
2356.00,0.0005
2355.00,0.0006
2354.00,0.0006
2353.00,0.0006
2352.00,0.0005
2351.00,0.0004
2350.00,0.0004
2349.00,0.0005
2348.00,0.0005
2347.00,0.0006
2346.00,0.0006
2345.00,0.0006
2344.00,0.0006
2343.00,0.0007
2342.00,0.0007
2341.00,0.0007
2340.00,0.0007
2339.00,0.0008
2338.00,0.0008
2337.00,0.0008
2336.00,0.0008
2335.00,0.0008
2334.00,0.0008
2333.00,0.0008
2332.00,0.0008
2331.00,0.0007
2330.00,0.0007
2329.00,0.0007
2328.00,0.0009
2327.00,0.0013
2326.00,0.0018
2325.00,0.0022
2324.00,0.0023
2323.00,0.0022
2322.00,0.0019
2321.00,0.0016
2320.00,0.0014
2319.00,0.0013
2318.00,0.0012
2317.00,0.0011
2316.00,0.0010
2315.00,0.0010
2314.00,0.0009
2313.00,0.0009
2312.00,0.0008
2311.00,0.0007
2310.00,0.0007
2309.00,0.0007
2308.00,0.0007
2307.00,0.0007
2306.00,0.0007
2305.00,0.0006
2304.00,0.0007
2303.00,0.0007
2302.00,0.0007
2301.00,0.0007
2300.00,0.0007
2299.00,0.0006
2298.00,0.0006
2297.00,0.0007
2296.00,0.0008
2295.00,0.0009
2294.00,0.0010
2293.00,0.0011
2292.00,0.0012
2291.00,0.0013
2290.00,0.0014
2289.00,0.0016
2288.00,0.0016
2287.00,0.0017
2286.00,0.0017
2285.00,0.0017
2284.00,0.0017
2283.00,0.0017
2282.00,0.0016
2281.00,0.0014
2280.00,0.0013
2279.00,0.0011
2278.00,0.0011
2277.00,0.0010
2276.00,0.0010
2275.00,0.0010
2274.00,0.0011
2273.00,0.0012
2272.00,0.0012
2271.00,0.0012
2270.00,0.0012
2269.00,0.0012
2268.00,0.0012
2267.00,0.0012
2266.00,0.0010
2265.00,0.0009
2264.00,0.0008
2263.00,0.0008
2262.00,0.0009
2261.00,0.0009
2260.00,0.0010
2259.00,0.0010
2258.00,0.0009
2257.00,0.0009
2256.00,0.0008
2255.00,0.0006
2254.00,0.0005
2253.00,0.0004
2252.00,0.0003
2251.00,0.0004
2250.00,0.0005
2249.00,0.0007
2248.00,0.0008
2247.00,0.0008
2246.00,0.0007
2245.00,0.0006
2244.00,0.0005
2243.00,0.0006
2242.00,0.0007
2241.00,0.0008
2240.00,0.0009
2239.00,0.0009
2238.00,0.0010
2237.00,0.0010
2236.00,0.0010
2235.00,0.0010
2234.00,0.0009
2233.00,0.0009
2232.00,0.0007
2231.00,0.0006
2230.00,0.0006
2229.00,0.0006
2228.00,0.0006
2227.00,0.0005
2226.00,0.0005
2225.00,0.0006
2224.00,0.0006
2223.00,0.0005
2222.00,0.0004
2221.00,0.0003
2220.00,0.0004
2219.00,0.0005
2218.00,0.0006
2217.00,0.0006
2216.00,0.0007
2215.00,0.0008
2214.00,0.0009
2213.00,0.0010
2212.00,0.0010
2211.00,0.0009
2210.00,0.0008
2209.00,0.0006
2208.00,0.0005
2207.00,0.0003
2206.00,0.0001
2205.00,0.0001
2204.00,0.0002
2203.00,0.0002
2202.00,0.0003
2201.00,0.0004
2200.00,0.0006
2199.00,0.0008
2198.00,0.0009
2197.00,0.0009
2196.00,0.0009
2195.00,0.0009
2194.00,0.0008
2193.00,0.0008
2192.00,0.0007
2191.00,0.0005
2190.00,0.0005
2189.00,0.0005
2188.00,0.0007
2187.00,0.0009
2186.00,0.0010
2185.00,0.0010
2184.00,0.0009
2183.00,0.0006
2182.00,0.0004
2181.00,0.0004
2180.00,0.0006
2179.00,0.0007
2178.00,0.0009
2177.00,0.0009
2176.00,0.0008
2175.00,0.0007
2174.00,0.0005
2173.00,0.0004
2172.00,0.0004
2171.00,0.0004
2170.00,0.0005
2169.00,0.0006
2168.00,0.0008
2167.00,0.0009
2166.00,0.0010
2165.00,0.0011
2164.00,0.0014
2163.00,0.0018
2162.00,0.0020
2161.00,0.0016
2160.00,0.0005
2159.00,-0.0011
2158.00,-0.0024
2157.00,-0.0029
2156.00,-0.0029
2155.00,-0.0025
2154.00,-0.0019
2153.00,-0.0015
2152.00,-0.0013
2151.00,-0.0013
2150.00,-0.0015
2149.00,-0.0018
2148.00,-0.0019
2147.00,-0.0019
2146.00,-0.0018
2145.00,-0.0017
2144.00,-0.0015
2143.00,-0.0015
2142.00,-0.0017
2141.00,-0.0017
2140.00,-0.0017
2139.00,-0.0015
2138.00,-0.0012
2137.00,-0.0011
2136.00,-0.0013
2135.00,-0.0015
2134.00,-0.0018
2133.00,-0.0020
2132.00,-0.0020
2131.00,-0.0019
2130.00,-0.0017
2129.00,-0.0015
2128.00,-0.0013
2127.00,-0.0012
2126.00,-0.0012
2125.00,-0.0012
2124.00,-0.0013
2123.00,-0.0012
2122.00,-0.0011
2121.00,-0.0009
2120.00,-0.0007
2119.00,-0.0006
2118.00,-0.0005
2117.00,-0.0004
2116.00,-0.0002
2115.00,-0.0000
2114.00,0.0001
2113.00,0.0003
2112.00,0.0003
2111.00,0.0004
2110.00,0.0003
2109.00,0.0003
2108.00,0.0002
2107.00,0.0001
2106.00,0.0000
2105.00,-0.0001
2104.00,-0.0002
2103.00,-0.0002
2102.00,-0.0002
2101.00,-0.0001
2100.00,-0.0001
2099.00,-0.0001
2098.00,-0.0001
2097.00,-0.0003
2096.00,-0.0005
2095.00,-0.0007
2094.00,-0.0008
2093.00,-0.0007
2092.00,-0.0006
2091.00,-0.0004
2090.00,-0.0003
2089.00,-0.0002
2088.00,-0.0000
2087.00,0.0001
2086.00,0.0001
2085.00,0.0001
2084.00,0.0001
2083.00,0.0001
2082.00,-0.0000
2081.00,-0.0000
2080.00,-0.0000
2079.00,0.0001
2078.00,0.0002
2077.00,0.0002
2076.00,0.0002
2075.00,0.0001
2074.00,-0.0000
2073.00,-0.0001
2072.00,-0.0003
2071.00,-0.0004
2070.00,-0.0005
2069.00,-0.0006
2068.00,-0.0005
2067.00,-0.0005
2066.00,-0.0004
2065.00,-0.0002
2064.00,-0.0002
2063.00,-0.0002
2062.00,-0.0002
2061.00,-0.0002
2060.00,-0.0002
2059.00,-0.0002
2058.00,-0.0003
2057.00,-0.0002
2056.00,-0.0002
2055.00,-0.0003
2054.00,-0.0003
2053.00,-0.0001
2052.00,0.0003
2051.00,0.0006
2050.00,0.0006
2049.00,0.0003
2048.00,0.0001
2047.00,-0.0000
2046.00,-0.0001
2045.00,-0.0001
2044.00,-0.0002
2043.00,-0.0003
2042.00,-0.0002
2041.00,0.0001
2040.00,0.0003
2039.00,0.0005
2038.00,0.0005
2037.00,0.0005
2036.00,0.0004
2035.00,0.0001
2034.00,-0.0001
2033.00,-0.0003
2032.00,-0.0004
2031.00,-0.0005
2030.00,-0.0006
2029.00,-0.0008
2028.00,-0.0008
2027.00,-0.0010
2026.00,-0.0011
2025.00,-0.0012
2024.00,-0.0013
2023.00,-0.0014
2022.00,-0.0015
2021.00,-0.0015
2020.00,-0.0014
2019.00,-0.0014
2018.00,-0.0015
2017.00,-0.0016
2016.00,-0.0017
2015.00,-0.0016
2014.00,-0.0014
2013.00,-0.0012
2012.00,-0.0010
2011.00,-0.0010
2010.00,-0.0010
2009.00,-0.0012
2008.00,-0.0015
2007.00,-0.0018
2006.00,-0.0021
2005.00,-0.0020
2004.00,-0.0016
2003.00,-0.0012
2002.00,-0.0009
2001.00,-0.0007
2000.00,-0.0007
1999.00,-0.0007
1998.00,-0.0008
1997.00,-0.0010
1996.00,-0.0012
1995.00,-0.0014
1994.00,-0.0015
1993.00,-0.0015
1992.00,-0.0014
1991.00,-0.0013
1990.00,-0.0011
1989.00,-0.0007
1988.00,-0.0003
1987.00,-0.0000
1986.00,-0.0000
1985.00,-0.0001
1984.00,-0.0001
1983.00,0.0000
1982.00,0.0002
1981.00,0.0003
1980.00,0.0003
1979.00,0.0001
1978.00,-0.0003
1977.00,-0.0008
1976.00,-0.0013
1975.00,-0.0016
1974.00,-0.0017
1973.00,-0.0016
1972.00,-0.0015
1971.00,-0.0016
1970.00,-0.0018
1969.00,-0.0019
1968.00,-0.0019
1967.00,-0.0019
1966.00,-0.0020
1965.00,-0.0021
1964.00,-0.0022
1963.00,-0.0021
1962.00,-0.0019
1961.00,-0.0016
1960.00,-0.0016
1959.00,-0.0018
1958.00,-0.0021
1957.00,-0.0021
1956.00,-0.0020
1955.00,-0.0017
1954.00,-0.0016
1953.00,-0.0015
1952.00,-0.0016
1951.00,-0.0016
1950.00,-0.0016
1949.00,-0.0016
1948.00,-0.0015
1947.00,-0.0014
1946.00,-0.0014
1945.00,-0.0015
1944.00,-0.0016
1943.00,-0.0017
1942.00,-0.0018
1941.00,-0.0018
1940.00,-0.0016
1939.00,-0.0014
1938.00,-0.0013
1937.00,-0.0012
1936.00,-0.0012
1935.00,-0.0011
1934.00,-0.0010
1933.00,-0.0009
1932.00,-0.0007
1931.00,-0.0007
1930.00,-0.0008
1929.00,-0.0010
1928.00,-0.0011
1927.00,-0.0011
1926.00,-0.0010
1925.00,-0.0009
1924.00,-0.0008
1923.00,-0.0007
1922.00,-0.0006
1921.00,-0.0006
1920.00,-0.0006
1919.00,-0.0006
1918.00,-0.0006
1917.00,-0.0005
1916.00,-0.0005
1915.00,-0.0004
1914.00,-0.0004
1913.00,-0.0005
1912.00,-0.0006
1911.00,-0.0006
1910.00,-0.0006
1909.00,-0.0005
1908.00,-0.0004
1907.00,-0.0004
1906.00,-0.0004
1905.00,-0.0004
1904.00,-0.0003
1903.00,-0.0001
1902.00,-0.0000
1901.00,-0.0000
1900.00,-0.0001
1899.00,-0.0002
1898.00,-0.0004
1897.00,-0.0005
1896.00,-0.0005
1895.00,-0.0004
1894.00,-0.0003
1893.00,-0.0002
1892.00,-0.0001
1891.00,-0.0001
1890.00,-0.0001
1889.00,-0.0001
1888.00,-0.0002
1887.00,-0.0002
1886.00,-0.0002
1885.00,-0.0003
1884.00,-0.0003
1883.00,-0.0003
1882.00,-0.0004
1881.00,-0.0004
1880.00,-0.0003
1879.00,-0.0003
1878.00,-0.0002
1877.00,-0.0002
1876.00,-0.0003
1875.00,-0.0004
1874.00,-0.0004
1873.00,-0.0004
1872.00,-0.0004
1871.00,-0.0004
1870.00,-0.0004
1869.00,-0.0003
1868.00,-0.0002
1867.00,-0.0002
1866.00,-0.0002
1865.00,-0.0002
1864.00,-0.0001
1863.00,-0.0001
1862.00,-0.0001
1861.00,-0.0000
1860.00,-0.0000
1859.00,-0.0001
1858.00,-0.0001
1857.00,-0.0002
1856.00,-0.0003
1855.00,-0.0003
1854.00,-0.0004
1853.00,-0.0003
1852.00,-0.0003
1851.00,-0.0003
1850.00,-0.0002
1849.00,-0.0002
1848.00,-0.0002
1847.00,-0.0002
1846.00,-0.0002
1845.00,-0.0002
1844.00,-0.0001
1843.00,-0.0000
1842.00,-0.0000
1841.00,-0.0000
1840.00,-0.0000
1839.00,-0.0001
1838.00,-0.0001
1837.00,-0.0001
1836.00,0.0000
1835.00,0.0001
1834.00,0.0002
1833.00,0.0002
1832.00,0.0001
1831.00,0.0001
1830.00,0.0001
1829.00,0.0001
1828.00,0.0002
1827.00,0.0002
1826.00,0.0002
1825.00,0.0001
1824.00,0.0001
1823.00,0.0001
1822.00,0.0001
1821.00,0.0001
1820.00,0.0000
1819.00,-0.0001
1818.00,-0.0002
1817.00,-0.0003
1816.00,-0.0002
1815.00,-0.0001
1814.00,-0.0000
1813.00,0.0000
1812.00,0.0000
1811.00,-0.0000
1810.00,-0.0000
1809.00,-0.0000
1808.00,-0.0000
1807.00,0.0000
1806.00,0.0001
1805.00,0.0001
1804.00,0.0002
1803.00,0.0002
1802.00,0.0002
1801.00,0.0003
1800.00,0.0003
1799.00,0.0003
1798.00,0.0002
1797.00,0.0002
1796.00,0.0002
1795.00,0.0002
1794.00,0.0002
1793.00,0.0003
1792.00,0.0004
1791.00,0.0004
1790.00,0.0005
1789.00,0.0005
1788.00,0.0005
1787.00,0.0005
1786.00,0.0005
1785.00,0.0005
1784.00,0.0005
1783.00,0.0005
1782.00,0.0004
1781.00,0.0004
1780.00,0.0004
1779.00,0.0004
1778.00,0.0005
1777.00,0.0005
1776.00,0.0005
1775.00,0.0005
1774.00,0.0004
1773.00,0.0004
1772.00,0.0005
1771.00,0.0006
1770.00,0.0007
1769.00,0.0007
1768.00,0.0007
1767.00,0.0007
1766.00,0.0007
1765.00,0.0007
1764.00,0.0007
1763.00,0.0007
1762.00,0.0008
1761.00,0.0008
1760.00,0.0009
1759.00,0.0009
1758.00,0.0010
1757.00,0.0010
1756.00,0.0011
1755.00,0.0011
1754.00,0.0011
1753.00,0.0010
1752.00,0.0010
1751.00,0.0011
1750.00,0.0011
1749.00,0.0012
1748.00,0.0013
1747.00,0.0014
1746.00,0.0015
1745.00,0.0016
1744.00,0.0016
1743.00,0.0017
1742.00,0.0017
1741.00,0.0017
1740.00,0.0018
1739.00,0.0018
1738.00,0.0018
1737.00,0.0019
1736.00,0.0019
1735.00,0.0019
1734.00,0.0020
1733.00,0.0020
1732.00,0.0020
1731.00,0.0020
1730.00,0.0021
1729.00,0.0021
1728.00,0.0021
1727.00,0.0021
1726.00,0.0021
1725.00,0.0021
1724.00,0.0021
1723.00,0.0022
1722.00,0.0022
1721.00,0.0022
1720.00,0.0021
1719.00,0.0021
1718.00,0.0020
1717.00,0.0019
1716.00,0.0019
1715.00,0.0019
1714.00,0.0018
1713.00,0.0018
1712.00,0.0018
1711.00,0.0019
1710.00,0.0019
1709.00,0.0019
1708.00,0.0019
1707.00,0.0019
1706.00,0.0019
1705.00,0.0019
1704.00,0.0019
1703.00,0.0020
1702.00,0.0020
1701.00,0.0020
1700.00,0.0021
1699.00,0.0021
1698.00,0.0021
1697.00,0.0021
1696.00,0.0021
1695.00,0.0021
1694.00,0.0022
1693.00,0.0022
1692.00,0.0022
1691.00,0.0021
1690.00,0.0021
1689.00,0.0021
1688.00,0.0021
1687.00,0.0021
1686.00,0.0021
1685.00,0.0020
1684.00,0.0020
1683.00,0.0020
1682.00,0.0020
1681.00,0.0021
1680.00,0.0021
1679.00,0.0022
1678.00,0.0022
1677.00,0.0022
1676.00,0.0022
1675.00,0.0021
1674.00,0.0021
1673.00,0.0022
1672.00,0.0022
1671.00,0.0022
1670.00,0.0022
1669.00,0.0022
1668.00,0.0022
1667.00,0.0023
1666.00,0.0023
1665.00,0.0023
1664.00,0.0024
1663.00,0.0024
1662.00,0.0023
1661.00,0.0023
1660.00,0.0024
1659.00,0.0024
1658.00,0.0024
1657.00,0.0024
1656.00,0.0024
1655.00,0.0024
1654.00,0.0023
1653.00,0.0024
1652.00,0.0025
1651.00,0.0026
1650.00,0.0026
1649.00,0.0027
1648.00,0.0027
1647.00,0.0029
1646.00,0.0030
1645.00,0.0030
1644.00,0.0031
1643.00,0.0031
1642.00,0.0031
1641.00,0.0032
1640.00,0.0032
1639.00,0.0033
1638.00,0.0033
1637.00,0.0033
1636.00,0.0033
1635.00,0.0033
1634.00,0.0033
1633.00,0.0032
1632.00,0.0032
1631.00,0.0032
1630.00,0.0031
1629.00,0.0031
1628.00,0.0030
1627.00,0.0030
1626.00,0.0029
1625.00,0.0029
1624.00,0.0029
1623.00,0.0029
1622.00,0.0029
1621.00,0.0029
1620.00,0.0029
1619.00,0.0029
1618.00,0.0028
1617.00,0.0028
1616.00,0.0027
1615.00,0.0027
1614.00,0.0027
1613.00,0.0027
1612.00,0.0027
1611.00,0.0027
1610.00,0.0027
1609.00,0.0028
1608.00,0.0028
1607.00,0.0028
1606.00,0.0028
1605.00,0.0029
1604.00,0.0029
1603.00,0.0029
1602.00,0.0028
1601.00,0.0028
1600.00,0.0028
1599.00,0.0028
1598.00,0.0028
1597.00,0.0028
1596.00,0.0028
1595.00,0.0027
1594.00,0.0027
1593.00,0.0028
1592.00,0.0028
1591.00,0.0028
1590.00,0.0028
1589.00,0.0028
1588.00,0.0029
1587.00,0.0029
1586.00,0.0029
1585.00,0.0029
1584.00,0.0030
1583.00,0.0030
1582.00,0.0030
1581.00,0.0030
1580.00,0.0031
1579.00,0.0031
1578.00,0.0032
1577.00,0.0033
1576.00,0.0033
1575.00,0.0033
1574.00,0.0033
1573.00,0.0033
1572.00,0.0033
1571.00,0.0033
1570.00,0.0034
1569.00,0.0034
1568.00,0.0034
1567.00,0.0035
1566.00,0.0035
1565.00,0.0035
1564.00,0.0036
1563.00,0.0036
1562.00,0.0036
1561.00,0.0037
1560.00,0.0037
1559.00,0.0036
1558.00,0.0035
1557.00,0.0035
1556.00,0.0034
1555.00,0.0034
1554.00,0.0034
1553.00,0.0035
1552.00,0.0036
1551.00,0.0036
1550.00,0.0036
1549.00,0.0037
1548.00,0.0037
1547.00,0.0038
1546.00,0.0038
1545.00,0.0038
1544.00,0.0039
1543.00,0.0040
1542.00,0.0040
1541.00,0.0039
1540.00,0.0039
1539.00,0.0038
1538.00,0.0038
1537.00,0.0039
1536.00,0.0039
1535.00,0.0039
1534.00,0.0038
1533.00,0.0037
1532.00,0.0037
1531.00,0.0037
1530.00,0.0037
1529.00,0.0038
1528.00,0.0039
1527.00,0.0039
1526.00,0.0039
1525.00,0.0039
1524.00,0.0040
1523.00,0.0040
1522.00,0.0041
1521.00,0.0042
1520.00,0.0042
1519.00,0.0042
1518.00,0.0042
1517.00,0.0044
1516.00,0.0045
1515.00,0.0046
1514.00,0.0046
1513.00,0.0047
1512.00,0.0048
1511.00,0.0049
1510.00,0.0050
1509.00,0.0052
1508.00,0.0053
1507.00,0.0054
1506.00,0.0055
1505.00,0.0056
1504.00,0.0057
1503.00,0.0058
1502.00,0.0059
1501.00,0.0062
1500.00,0.0064
1499.00,0.0065
1498.00,0.0067
1497.00,0.0069
1496.00,0.0072
1495.00,0.0074
1494.00,0.0076
1493.00,0.0078
1492.00,0.0081
1491.00,0.0084
1490.00,0.0088
1489.00,0.0093
1488.00,0.0098
1487.00,0.0102
1486.00,0.0106
1485.00,0.0112
1484.00,0.0119
1483.00,0.0126
1482.00,0.0135
1481.00,0.0146
1480.00,0.0157
1479.00,0.0170
1478.00,0.0185
1477.00,0.0206
1476.00,0.0232
1475.00,0.0263
1474.00,0.0305
1473.00,0.0364
1472.00,0.0434
1471.00,0.0502
1470.00,0.0568
1469.00,0.0638
1468.00,0.0714
1467.00,0.0798
1466.00,0.0893
1465.00,0.0995
1464.00,0.1083
1463.00,0.1143
1462.00,0.1180
1461.00,0.1204
1460.00,0.1218
1459.00,0.1225
1458.00,0.1226
1457.00,0.1223
1456.00,0.1213
1455.00,0.1199
1454.00,0.1184
1453.00,0.1163
1452.00,0.1134
1451.00,0.1095
1450.00,0.1042
1449.00,0.0970
1448.00,0.0879
1447.00,0.0783
1446.00,0.0697
1445.00,0.0623
1444.00,0.0561
1443.00,0.0510
1442.00,0.0472
1441.00,0.0446
1440.00,0.0431
1439.00,0.0426
1438.00,0.0430
1437.00,0.0435
1436.00,0.0429
1435.00,0.0407
1434.00,0.0371
1433.00,0.0327
1432.00,0.0280
1431.00,0.0238
1430.00,0.0205
1429.00,0.0181
1428.00,0.0165
1427.00,0.0154
1426.00,0.0147
1425.00,0.0139
1424.00,0.0133
1423.00,0.0129
1422.00,0.0126
1421.00,0.0123
1420.00,0.0119
1419.00,0.0116
1418.00,0.0114
1417.00,0.0112
1416.00,0.0110
1415.00,0.0109
1414.00,0.0109
1413.00,0.0108
1412.00,0.0106
1411.00,0.0105
1410.00,0.0105
1409.00,0.0104
1408.00,0.0102
1407.00,0.0102
1406.00,0.0103
1405.00,0.0102
1404.00,0.0102
1403.00,0.0102
1402.00,0.0104
1401.00,0.0104
1400.00,0.0105
1399.00,0.0106
1398.00,0.0109
1397.00,0.0111
1396.00,0.0113
1395.00,0.0117
1394.00,0.0121
1393.00,0.0126
1392.00,0.0131
1391.00,0.0138
1390.00,0.0149
1389.00,0.0163
1388.00,0.0183
1387.00,0.0213
1386.00,0.0255
1385.00,0.0310
1384.00,0.0386
1383.00,0.0493
1382.00,0.0639
1381.00,0.0830
1380.00,0.1077
1379.00,0.1373
1378.00,0.1679
1377.00,0.1927
1376.00,0.2043
1375.00,0.1973
1374.00,0.1740
1373.00,0.1437
1372.00,0.1151
1371.00,0.0911
1370.00,0.0720
1369.00,0.0576
1368.00,0.0478
1367.00,0.0419
1366.00,0.0387
1365.00,0.0375
1364.00,0.0378
1363.00,0.0394
1362.00,0.0418
1361.00,0.0444
1360.00,0.0464
1359.00,0.0470
1358.00,0.0458
1357.00,0.0430
1356.00,0.0389
1355.00,0.0344
1354.00,0.0301
1353.00,0.0264
1352.00,0.0234
1351.00,0.0211
1350.00,0.0191
1349.00,0.0175
1348.00,0.0162
1347.00,0.0151
1346.00,0.0142
1345.00,0.0134
1344.00,0.0127
1343.00,0.0122
1342.00,0.0118
1341.00,0.0114
1340.00,0.0111
1339.00,0.0109
1338.00,0.0108
1337.00,0.0109
1336.00,0.0110
1335.00,0.0112
1334.00,0.0115
1333.00,0.0119
1332.00,0.0124
1331.00,0.0127
1330.00,0.0129
1329.00,0.0127
1328.00,0.0124
1327.00,0.0119
1326.00,0.0113
1325.00,0.0107
1324.00,0.0101
1323.00,0.0096
1322.00,0.0091
1321.00,0.0088
1320.00,0.0086
1319.00,0.0085
1318.00,0.0083
1317.00,0.0082
1316.00,0.0081
1315.00,0.0080
1314.00,0.0079
1313.00,0.0079
1312.00,0.0080
1311.00,0.0082
1310.00,0.0085
1309.00,0.0090
1308.00,0.0097
1307.00,0.0105
1306.00,0.0113
1305.00,0.0119
1304.00,0.0121
1303.00,0.0120
1302.00,0.0117
1301.00,0.0115
1300.00,0.0115
1299.00,0.0117
1298.00,0.0119
1297.00,0.0121
1296.00,0.0121
1295.00,0.0119
1294.00,0.0115
1293.00,0.0110
1292.00,0.0105
1291.00,0.0100
1290.00,0.0096
1289.00,0.0092
1288.00,0.0089
1287.00,0.0086
1286.00,0.0084
1285.00,0.0083
1284.00,0.0082
1283.00,0.0080
1282.00,0.0079
1281.00,0.0077
1280.00,0.0076
1279.00,0.0076
1278.00,0.0075
1277.00,0.0075
1276.00,0.0075
1275.00,0.0074
1274.00,0.0074
1273.00,0.0074
1272.00,0.0074
1271.00,0.0075
1270.00,0.0075
1269.00,0.0076
1268.00,0.0077
1267.00,0.0079
1266.00,0.0081
1265.00,0.0082
1264.00,0.0084
1263.00,0.0086
1262.00,0.0089
1261.00,0.0092
1260.00,0.0096
1259.00,0.0100
1258.00,0.0105
1257.00,0.0108
1256.00,0.0110
1255.00,0.0108
1254.00,0.0103
1253.00,0.0097
1252.00,0.0091
1251.00,0.0086
1250.00,0.0082
1249.00,0.0079
1248.00,0.0076
1247.00,0.0074
1246.00,0.0072
1245.00,0.0070
1244.00,0.0069
1243.00,0.0068
1242.00,0.0067
1241.00,0.0066
1240.00,0.0066
1239.00,0.0065
1238.00,0.0065
1237.00,0.0064
1236.00,0.0063
1235.00,0.0063
1234.00,0.0064
1233.00,0.0065
1232.00,0.0066
1231.00,0.0067
1230.00,0.0068
1229.00,0.0069
1228.00,0.0070
1227.00,0.0072
1226.00,0.0075
1225.00,0.0078
1224.00,0.0082
1223.00,0.0085
1222.00,0.0088
1221.00,0.0091
1220.00,0.0092
1219.00,0.0092
1218.00,0.0091
1217.00,0.0088
1216.00,0.0085
1215.00,0.0082
1214.00,0.0080
1213.00,0.0078
1212.00,0.0076
1211.00,0.0074
1210.00,0.0072
1209.00,0.0070
1208.00,0.0069
1207.00,0.0069
1206.00,0.0068
1205.00,0.0068
1204.00,0.0067
1203.00,0.0067
1202.00,0.0067
1201.00,0.0067
1200.00,0.0067
1199.00,0.0067
1198.00,0.0067
1197.00,0.0067
1196.00,0.0066
1195.00,0.0066
1194.00,0.0066
1193.00,0.0066
1192.00,0.0066
1191.00,0.0066
1190.00,0.0066
1189.00,0.0066
1188.00,0.0066
1187.00,0.0066
1186.00,0.0066
1185.00,0.0066
1184.00,0.0067
1183.00,0.0069
1182.00,0.0071
1181.00,0.0073
1180.00,0.0075
1179.00,0.0078
1178.00,0.0082
1177.00,0.0089
1176.00,0.0097
1175.00,0.0109
1174.00,0.0125
1173.00,0.0144
1172.00,0.0166
1171.00,0.0191
1170.00,0.0215
1169.00,0.0235
1168.00,0.0248
1167.00,0.0251
1166.00,0.0247
1165.00,0.0236
1164.00,0.0225
1163.00,0.0213
1162.00,0.0203
1161.00,0.0195
1160.00,0.0188
1159.00,0.0183
1158.00,0.0180
1157.00,0.0178
1156.00,0.0177
1155.00,0.0177
1154.00,0.0176
1153.00,0.0175
1152.00,0.0172
1151.00,0.0166
1150.00,0.0158
1149.00,0.0149
1148.00,0.0140
1147.00,0.0131
1146.00,0.0123
1145.00,0.0116
1144.00,0.0108
1143.00,0.0100
1142.00,0.0094
1141.00,0.0088
1140.00,0.0084
1139.00,0.0080
1138.00,0.0077
1137.00,0.0074
1136.00,0.0071
1135.00,0.0069
1134.00,0.0068
1133.00,0.0067
1132.00,0.0067
1131.00,0.0067
1130.00,0.0066
1129.00,0.0065
1128.00,0.0065
1127.00,0.0065
1126.00,0.0065
1125.00,0.0065
1124.00,0.0065
1123.00,0.0066
1122.00,0.0066
1121.00,0.0067
1120.00,0.0068
1119.00,0.0069
1118.00,0.0070
1117.00,0.0071
1116.00,0.0071
1115.00,0.0072
1114.00,0.0073
1113.00,0.0075
1112.00,0.0077
1111.00,0.0079
1110.00,0.0081
1109.00,0.0084
1108.00,0.0089
1107.00,0.0094
1106.00,0.0101
1105.00,0.0108
1104.00,0.0113
1103.00,0.0116
1102.00,0.0116
1101.00,0.0113
1100.00,0.0107
1099.00,0.0101
1098.00,0.0094
1097.00,0.0088
1096.00,0.0084
1095.00,0.0080
1094.00,0.0077
1093.00,0.0074
1092.00,0.0072
1091.00,0.0071
1090.00,0.0070
1089.00,0.0069
1088.00,0.0069
1087.00,0.0069
1086.00,0.0069
1085.00,0.0068
1084.00,0.0068
1083.00,0.0068
1082.00,0.0068
1081.00,0.0068
1080.00,0.0068
1079.00,0.0067
1078.00,0.0066
1077.00,0.0066
1076.00,0.0065
1075.00,0.0065
1074.00,0.0065
1073.00,0.0066
1072.00,0.0067
1071.00,0.0067
1070.00,0.0067
1069.00,0.0068
1068.00,0.0068
1067.00,0.0069
1066.00,0.0069
1065.00,0.0069
1064.00,0.0069
1063.00,0.0068
1062.00,0.0068
1061.00,0.0068
1060.00,0.0069
1059.00,0.0070
1058.00,0.0071
1057.00,0.0073
1056.00,0.0074
1055.00,0.0076
1054.00,0.0078
1053.00,0.0080
1052.00,0.0083
1051.00,0.0086
1050.00,0.0090
1049.00,0.0094
1048.00,0.0097
1047.00,0.0102
1046.00,0.0106
1045.00,0.0110
1044.00,0.0111
1043.00,0.0111
1042.00,0.0109
1041.00,0.0107
1040.00,0.0105
1039.00,0.0104
1038.00,0.0104
1037.00,0.0105
1036.00,0.0105
1035.00,0.0106
1034.00,0.0105
1033.00,0.0104
1032.00,0.0102
1031.00,0.0101
1030.00,0.0101
1029.00,0.0102
1028.00,0.0103
1027.00,0.0105
1026.00,0.0107
1025.00,0.0109
1024.00,0.0111
1023.00,0.0114
1022.00,0.0117
1021.00,0.0119
1020.00,0.0120
1019.00,0.0121
1018.00,0.0121
1017.00,0.0122
1016.00,0.0122
1015.00,0.0122
1014.00,0.0121
1013.00,0.0121
1012.00,0.0120
1011.00,0.0120
1010.00,0.0120
1009.00,0.0121
1008.00,0.0122
1007.00,0.0126
1006.00,0.0130
1005.00,0.0138
1004.00,0.0148
1003.00,0.0164
1002.00,0.0186
1001.00,0.0214
1000.00,0.0243
999.00,0.0266
998.00,0.0275
997.00,0.0268
996.00,0.0246
995.00,0.0216
994.00,0.0186
993.00,0.0159
992.00,0.0140
991.00,0.0126
990.00,0.0117
989.00,0.0110
988.00,0.0106
987.00,0.0103
986.00,0.0102
985.00,0.0104
984.00,0.0108
983.00,0.0114
982.00,0.0123
981.00,0.0136
980.00,0.0154
979.00,0.0179
978.00,0.0209
977.00,0.0244
976.00,0.0280
975.00,0.0312
974.00,0.0334
973.00,0.0339
972.00,0.0325
971.00,0.0295
970.00,0.0254
969.00,0.0214
968.00,0.0180
967.00,0.0154
966.00,0.0136
965.00,0.0123
964.00,0.0114
963.00,0.0107
962.00,0.0100
961.00,0.0094
960.00,0.0090
959.00,0.0087
958.00,0.0084
957.00,0.0082
956.00,0.0079
955.00,0.0077
954.00,0.0075
953.00,0.0074
952.00,0.0073
951.00,0.0072
950.00,0.0072
949.00,0.0072
948.00,0.0072
947.00,0.0073
946.00,0.0074
945.00,0.0077
944.00,0.0080
943.00,0.0085
942.00,0.0090
941.00,0.0093
940.00,0.0094
939.00,0.0091
938.00,0.0086
937.00,0.0079
936.00,0.0073
935.00,0.0068
934.00,0.0063
933.00,0.0059
932.00,0.0057
931.00,0.0056
930.00,0.0057
929.00,0.0058
928.00,0.0058
927.00,0.0058
926.00,0.0059
925.00,0.0059
924.00,0.0058
923.00,0.0058
922.00,0.0057
921.00,0.0058
920.00,0.0058
919.00,0.0058
918.00,0.0059
917.00,0.0059
916.00,0.0059
915.00,0.0059
914.00,0.0061
913.00,0.0062
912.00,0.0064
911.00,0.0065
910.00,0.0067
909.00,0.0069
908.00,0.0073
907.00,0.0079
906.00,0.0087
905.00,0.0098
904.00,0.0113
903.00,0.0132
902.00,0.0153
901.00,0.0172
900.00,0.0185
899.00,0.0188
898.00,0.0179
897.00,0.0161
896.00,0.0139
895.00,0.0119
894.00,0.0103
893.00,0.0091
892.00,0.0083
891.00,0.0077
890.00,0.0073
889.00,0.0069
888.00,0.0067
887.00,0.0066
886.00,0.0066
885.00,0.0066
884.00,0.0067
883.00,0.0067
882.00,0.0066
881.00,0.0065
880.00,0.0064
879.00,0.0064
878.00,0.0066
877.00,0.0068
876.00,0.0071
875.00,0.0073
874.00,0.0074
873.00,0.0074
872.00,0.0073
871.00,0.0072
870.00,0.0070
869.00,0.0070
868.00,0.0069
867.00,0.0069
866.00,0.0069
865.00,0.0071
864.00,0.0072
863.00,0.0073
862.00,0.0073
861.00,0.0074
860.00,0.0075
859.00,0.0077
858.00,0.0079
857.00,0.0080
856.00,0.0081
855.00,0.0082
854.00,0.0084
853.00,0.0086
852.00,0.0087
851.00,0.0089
850.00,0.0093
849.00,0.0097
848.00,0.0103
847.00,0.0111
846.00,0.0125
845.00,0.0146
844.00,0.0178
843.00,0.0215
842.00,0.0245
841.00,0.0255
840.00,0.0240
839.00,0.0207
838.00,0.0170
837.00,0.0140
836.00,0.0120
835.00,0.0109
834.00,0.0103
833.00,0.0099
832.00,0.0097
831.00,0.0096
830.00,0.0095
829.00,0.0094
828.00,0.0093
827.00,0.0092
826.00,0.0093
825.00,0.0095
824.00,0.0095
823.00,0.0096
822.00,0.0096
821.00,0.0097
820.00,0.0099
819.00,0.0102
818.00,0.0105
817.00,0.0111
816.00,0.0119
815.00,0.0131
814.00,0.0147
813.00,0.0167
812.00,0.0189
811.00,0.0210
810.00,0.0225
809.00,0.0230
808.00,0.0225
807.00,0.0210
806.00,0.0191
805.00,0.0170
804.00,0.0152
803.00,0.0137
802.00,0.0126
801.00,0.0118
800.00,0.0111
799.00,0.0105
798.00,0.0098
797.00,0.0093
796.00,0.0089
795.00,0.0086
794.00,0.0085
793.00,0.0084
792.00,0.0082
791.00,0.0080
790.00,0.0077
789.00,0.0073
788.00,0.0070
787.00,0.0066
786.00,0.0064
785.00,0.0062
784.00,0.0060
783.00,0.0059
782.00,0.0058
781.00,0.0057
780.00,0.0058
779.00,0.0058
778.00,0.0058
777.00,0.0057
776.00,0.0056
775.00,0.0056
774.00,0.0056
773.00,0.0057
772.00,0.0058
771.00,0.0059
770.00,0.0060
769.00,0.0060
768.00,0.0060
767.00,0.0059
766.00,0.0059
765.00,0.0058
764.00,0.0058
763.00,0.0059
762.00,0.0060
761.00,0.0060
760.00,0.0061
759.00,0.0061
758.00,0.0061
757.00,0.0062
756.00,0.0063
755.00,0.0066
754.00,0.0069
753.00,0.0070
752.00,0.0071
751.00,0.0072
750.00,0.0072
749.00,0.0073
748.00,0.0074
747.00,0.0075
746.00,0.0075
745.00,0.0076
744.00,0.0077
743.00,0.0080
742.00,0.0084
741.00,0.0087
740.00,0.0090
739.00,0.0092
738.00,0.0095
737.00,0.0098
736.00,0.0102
735.00,0.0106
734.00,0.0111
733.00,0.0117
732.00,0.0124
731.00,0.0131
730.00,0.0135
729.00,0.0138
728.00,0.0139
727.00,0.0139
726.00,0.0141
725.00,0.0145
724.00,0.0150
723.00,0.0156
722.00,0.0162
721.00,0.0164
720.00,0.0162
719.00,0.0155
718.00,0.0145
717.00,0.0134
716.00,0.0125
715.00,0.0118
714.00,0.0112
713.00,0.0107
712.00,0.0102
711.00,0.0099
710.00,0.0096
709.00,0.0095
708.00,0.0093
707.00,0.0092
706.00,0.0089
705.00,0.0086
704.00,0.0085
703.00,0.0084
702.00,0.0084
701.00,0.0085
700.00,0.0085
699.00,0.0086
698.00,0.0086
697.00,0.0087
696.00,0.0087
695.00,0.0088
694.00,0.0087
693.00,0.0086
692.00,0.0085
691.00,0.0084
690.00,0.0084
689.00,0.0085
688.00,0.0086
687.00,0.0087
686.00,0.0088
685.00,0.0087
684.00,0.0087
683.00,0.0088
682.00,0.0089
681.00,0.0088
680.00,0.0087
679.00,0.0085
678.00,0.0085
677.00,0.0085
676.00,0.0086
675.00,0.0087
674.00,0.0088
673.00,0.0090
672.00,0.0091
671.00,0.0093
670.00,0.0097
669.00,0.0103
668.00,0.0107
667.00,0.0106
666.00,0.0100
665.00,0.0093
664.00,0.0088
663.00,0.0084
662.00,0.0082
661.00,0.0079
660.00,0.0077
659.00,0.0075
658.00,0.0073
657.00,0.0074
656.00,0.0077
655.00,0.0081
654.00,0.0083
653.00,0.0082
652.00,0.0079
651.00,0.0077
650.00,0.0076
649.00,0.0076
648.00,0.0077
647.00,0.0077
646.00,0.0078
645.00,0.0077
644.00,0.0074
643.00,0.0072
642.00,0.0071
641.00,0.0071
640.00,0.0071
639.00,0.0071
638.00,0.0070
637.00,0.0069
636.00,0.0069
635.00,0.0069
634.00,0.0068
633.00,0.0068
632.00,0.0070
631.00,0.0072
630.00,0.0074
629.00,0.0075
628.00,0.0075
627.00,0.0073
626.00,0.0071
625.00,0.0070
624.00,0.0069
623.00,0.0070
622.00,0.0071
621.00,0.0073
620.00,0.0074
619.00,0.0075
618.00,0.0074
617.00,0.0072
616.00,0.0070
615.00,0.0069
614.00,0.0069
613.00,0.0070
612.00,0.0070
611.00,0.0069
610.00,0.0067
609.00,0.0066
608.00,0.0065
607.00,0.0064
606.00,0.0064
605.00,0.0064
604.00,0.0065
603.00,0.0066
602.00,0.0066
601.00,0.0066
600.00,0.0064
599.00,0.0063
598.00,0.0064
597.00,0.0067
596.00,0.0071
595.00,0.0074
594.00,0.0075
593.00,0.0075
592.00,0.0075
591.00,0.0076
590.00,0.0076
589.00,0.0077
588.00,0.0076
587.00,0.0072
586.00,0.0066
585.00,0.0061
584.00,0.0061
583.00,0.0065
582.00,0.0070
581.00,0.0073
580.00,0.0072
579.00,0.0070
578.00,0.0070
577.00,0.0070
576.00,0.0071
575.00,0.0072
574.00,0.0072
573.00,0.0070
572.00,0.0067
571.00,0.0065
570.00,0.0065
569.00,0.0066
568.00,0.0068
567.00,0.0069
566.00,0.0069
565.00,0.0068
564.00,0.0066
563.00,0.0066
562.00,0.0065
561.00,0.0064
560.00,0.0064
559.00,0.0063
558.00,0.0063
557.00,0.0062
556.00,0.0061
555.00,0.0062
554.00,0.0065
553.00,0.0069
552.00,0.0071
551.00,0.0073
550.00,0.0073
549.00,0.0073
548.00,0.0073
547.00,0.0075
546.00,0.0078
545.00,0.0081
544.00,0.0083
543.00,0.0084
542.00,0.0087
541.00,0.0091
540.00,0.0093
539.00,0.0094
538.00,0.0092
537.00,0.0090
536.00,0.0089
535.00,0.0089
534.00,0.0091
533.00,0.0093
532.00,0.0094
531.00,0.0093
530.00,0.0094
529.00,0.0097
528.00,0.0101
527.00,0.0103
526.00,0.0102
525.00,0.0098
524.00,0.0094
523.00,0.0090
522.00,0.0087
521.00,0.0083
520.00,0.0078
519.00,0.0071
518.00,0.0063
517.00,0.0059
516.00,0.0059
515.00,0.0063
514.00,0.0067
513.00,0.0070
512.00,0.0073
511.00,0.0077
510.00,0.0079
509.00,0.0077
508.00,0.0071
507.00,0.0067
506.00,0.0068
505.00,0.0075
504.00,0.0082
503.00,0.0088
502.00,0.0091
501.00,0.0091
500.00,0.0087
499.00,0.0080
498.00,0.0073
497.00,0.0068
496.00,0.0066
495.00,0.0068
494.00,0.0072
493.00,0.0074
492.00,0.0073
491.00,0.0067
490.00,0.0063
489.00,0.0063
488.00,0.0067
487.00,0.0070
486.00,0.0071
485.00,0.0071
484.00,0.0075
483.00,0.0083
482.00,0.0093
481.00,0.0100
480.00,0.0104
479.00,0.0105
478.00,0.0105
477.00,0.0105
476.00,0.0107
475.00,0.0112
474.00,0.0122
473.00,0.0132
472.00,0.0140
471.00,0.0145
470.00,0.0148
469.00,0.0149
468.00,0.0150
467.00,0.0153
466.00,0.0164
465.00,0.0179
464.00,0.0192
463.00,0.0196
462.00,0.0192
461.00,0.0186
460.00,0.0187
459.00,0.0198
458.00,0.0213
457.00,0.0218
456.00,0.0210
455.00,0.0194
454.00,0.0180
453.00,0.0171
452.00,0.0168
451.00,0.0166
450.00,0.0161
