Created as New Dataset,Sample 001 By Administrator Date Thursday, September 04 2025
cm-1,A
4000.00,0.0015
3999.00,0.0015
3998.00,0.0015
3997.00,0.0015
3996.00,0.0015
3995.00,0.0015
3994.00,0.0015
3993.00,0.0015
3992.00,0.0015
3991.00,0.0015
3990.00,0.0014
3989.00,0.0014
3988.00,0.0014
3987.00,0.0014
3986.00,0.0014
3985.00,0.0014
3984.00,0.0014
3983.00,0.0014
3982.00,0.0013
3981.00,0.0013
3980.00,0.0013
3979.00,0.0013
3978.00,0.0014
3977.00,0.0014
3976.00,0.0014
3975.00,0.0014
3974.00,0.0014
3973.00,0.0014
3972.00,0.0014
3971.00,0.0014
3970.00,0.0014
3969.00,0.0013
3968.00,0.0013
3967.00,0.0013
3966.00,0.0013
3965.00,0.0013
3964.00,0.0013
3963.00,0.0013
3962.00,0.0013
3961.00,0.0012
3960.00,0.0012
3959.00,0.0012
3958.00,0.0012
3957.00,0.0013
3956.00,0.0013
3955.00,0.0013
3954.00,0.0013
3953.00,0.0013
3952.00,0.0013
3951.00,0.0012
3950.00,0.0012
3949.00,0.0013
3948.00,0.0013
3947.00,0.0013
3946.00,0.0013
3945.00,0.0013
3944.00,0.0013
3943.00,0.0014
3942.00,0.0014
3941.00,0.0014
3940.00,0.0014
3939.00,0.0014
3938.00,0.0013
3937.00,0.0013
3936.00,0.0013
3935.00,0.0013
3934.00,0.0013
3933.00,0.0013
3932.00,0.0013
3931.00,0.0013
3930.00,0.0013
3929.00,0.0013
3928.00,0.0014
3927.00,0.0014
3926.00,0.0014
3925.00,0.0014
3924.00,0.0014
3923.00,0.0013
3922.00,0.0013
3921.00,0.0013
3920.00,0.0013
3919.00,0.0012
3918.00,0.0012
3917.00,0.0012
3916.00,0.0012
3915.00,0.0013
3914.00,0.0013
3913.00,0.0013
3912.00,0.0013
3911.00,0.0013
3910.00,0.0013
3909.00,0.0013
3908.00,0.0013
3907.00,0.0013
3906.00,0.0012
3905.00,0.0012
3904.00,0.0012
3903.00,0.0012
3902.00,0.0012
3901.00,0.0012
3900.00,0.0012
3899.00,0.0012
3898.00,0.0013
3897.00,0.0013
3896.00,0.0013
3895.00,0.0013
3894.00,0.0013
3893.00,0.0013
3892.00,0.0013
3891.00,0.0013
3890.00,0.0012
3889.00,0.0012
3888.00,0.0012
3887.00,0.0012
3886.00,0.0012
3885.00,0.0012
3884.00,0.0012
3883.00,0.0011
3882.00,0.0011
3881.00,0.0011
3880.00,0.0011
3879.00,0.0011
3878.00,0.0011
3877.00,0.0011
3876.00,0.0012
3875.00,0.0012
3874.00,0.0012
3873.00,0.0012
3872.00,0.0012
3871.00,0.0012
3870.00,0.0012
3869.00,0.0012
3868.00,0.0011
3867.00,0.0011
3866.00,0.0011
3865.00,0.0011
3864.00,0.0011
3863.00,0.0011
3862.00,0.0011
3861.00,0.0011
3860.00,0.0011
3859.00,0.0012
3858.00,0.0012
3857.00,0.0012
3856.00,0.0013
3855.00,0.0013
3854.00,0.0013
3853.00,0.0013
3852.00,0.0012
3851.00,0.0012
3850.00,0.0012
3849.00,0.0012
3848.00,0.0012
3847.00,0.0012
3846.00,0.0012
3845.00,0.0012
3844.00,0.0012
3843.00,0.0012
3842.00,0.0013
3841.00,0.0013
3840.00,0.0013
3839.00,0.0013
3838.00,0.0013
3837.00,0.0013
3836.00,0.0012
3835.00,0.0012
3834.00,0.0012
3833.00,0.0011
3832.00,0.0011
3831.00,0.0011
3830.00,0.0012
3829.00,0.0012
3828.00,0.0012
3827.00,0.0012
3826.00,0.0012
3825.00,0.0012
3824.00,0.0011
3823.00,0.0011
3822.00,0.0011
3821.00,0.0012
3820.00,0.0012
3819.00,0.0012
3818.00,0.0013
3817.00,0.0013
3816.00,0.0014
3815.00,0.0014
3814.00,0.0013
3813.00,0.0013
3812.00,0.0013
3811.00,0.0012
3810.00,0.0012
3809.00,0.0012
3808.00,0.0012
3807.00,0.0012
3806.00,0.0012
3805.00,0.0012
3804.00,0.0013
3803.00,0.0013
3802.00,0.0013
3801.00,0.0013
3800.00,0.0013
3799.00,0.0012
3798.00,0.0012
3797.00,0.0012
3796.00,0.0012
3795.00,0.0012
3794.00,0.0012
3793.00,0.0012
3792.00,0.0012
3791.00,0.0013
3790.00,0.0013
3789.00,0.0013
3788.00,0.0013
3787.00,0.0013
3786.00,0.0012
3785.00,0.0012
3784.00,0.0012
3783.00,0.0012
3782.00,0.0012
3781.00,0.0012
3780.00,0.0012
3779.00,0.0012
3778.00,0.0012
3777.00,0.0012
3776.00,0.0012
3775.00,0.0012
3774.00,0.0012
3773.00,0.0012
3772.00,0.0012
3771.00,0.0012
3770.00,0.0012
3769.00,0.0012
3768.00,0.0012
3767.00,0.0012
3766.00,0.0013
3765.00,0.0013
3764.00,0.0013
3763.00,0.0012
3762.00,0.0012
3761.00,0.0012
3760.00,0.0013
3759.00,0.0013
3758.00,0.0013
3757.00,0.0013
3756.00,0.0013
3755.00,0.0013
3754.00,0.0012
3753.00,0.0012
3752.00,0.0012
3751.00,0.0011
3750.00,0.0011
3749.00,0.0011
3748.00,0.0010
3747.00,0.0010
3746.00,0.0010
3745.00,0.0010
3744.00,0.0010
3743.00,0.0010
3742.00,0.0011
3741.00,0.0012
3740.00,0.0012
3739.00,0.0012
3738.00,0.0012
3737.00,0.0012
3736.00,0.0012
3735.00,0.0011
3734.00,0.0010
3733.00,0.0009
3732.00,0.0009
3731.00,0.0008
3730.00,0.0008
3729.00,0.0009
3728.00,0.0009
3727.00,0.0009
3726.00,0.0009
3725.00,0.0009
3724.00,0.0009
3723.00,0.0009
3722.00,0.0009
3721.00,0.0010
3720.00,0.0010
3719.00,0.0010
3718.00,0.0010
3717.00,0.0010
3716.00,0.0010
3715.00,0.0011
3714.00,0.0011
3713.00,0.0011
3712.00,0.0010
3711.00,0.0010
3710.00,0.0009
3709.00,0.0009
3708.00,0.0009
3707.00,0.0010
3706.00,0.0010
3705.00,0.0010
3704.00,0.0011
3703.00,0.0011
3702.00,0.0010
3701.00,0.0010
3700.00,0.0010
3699.00,0.0009
3698.00,0.0010
3697.00,0.0010
3696.00,0.0009
3695.00,0.0009
3694.00,0.0009
3693.00,0.0009
3692.00,0.0009
3691.00,0.0009
3690.00,0.0009
3689.00,0.0009
3688.00,0.0009
3687.00,0.0009
3686.00,0.0009
3685.00,0.0009
3684.00,0.0010
3683.00,0.0010
3682.00,0.0010
3681.00,0.0010
3680.00,0.0010
3679.00,0.0010
3678.00,0.0010
3677.00,0.0010
3676.00,0.0009
3675.00,0.0008
3674.00,0.0008
3673.00,0.0007
3672.00,0.0007
3671.00,0.0007
3670.00,0.0007
3669.00,0.0007
3668.00,0.0008
3667.00,0.0008
3666.00,0.0008
3665.00,0.0008
3664.00,0.0008
3663.00,0.0008
3662.00,0.0009
3661.00,0.0008
3660.00,0.0008
3659.00,0.0008
3658.00,0.0008
3657.00,0.0008
3656.00,0.0007
3655.00,0.0007
3654.00,0.0007
3653.00,0.0006
3652.00,0.0006
3651.00,0.0007
3650.00,0.0007
3649.00,0.0008
3648.00,0.0008
3647.00,0.0008
3646.00,0.0008
3645.00,0.0008
3644.00,0.0008
3643.00,0.0008
3642.00,0.0008
3641.00,0.0007
3640.00,0.0007
3639.00,0.0007
3638.00,0.0007
3637.00,0.0007
3636.00,0.0007
3635.00,0.0008
3634.00,0.0008
3633.00,0.0007
3632.00,0.0007
3631.00,0.0007
3630.00,0.0007
3629.00,0.0006
3628.00,0.0006
3627.00,0.0006
3626.00,0.0007
3625.00,0.0007
3624.00,0.0007
3623.00,0.0007
3622.00,0.0007
3621.00,0.0007
3620.00,0.0007
3619.00,0.0007
3618.00,0.0007
3617.00,0.0007
3616.00,0.0007
3615.00,0.0007
3614.00,0.0007
3613.00,0.0007
3612.00,0.0007
3611.00,0.0007
3610.00,0.0007
3609.00,0.0007
3608.00,0.0007
3607.00,0.0007
3606.00,0.0008
3605.00,0.0008
3604.00,0.0009
3603.00,0.0009
3602.00,0.0010
3601.00,0.0010
3600.00,0.0010
3599.00,0.0009
3598.00,0.0009
3597.00,0.0009
3596.00,0.0009
3595.00,0.0009
3594.00,0.0009
3593.00,0.0009
3592.00,0.0009
3591.00,0.0008
3590.00,0.0009
3589.00,0.0009
3588.00,0.0009
3587.00,0.0009
3586.00,0.0009
3585.00,0.0009
3584.00,0.0009
3583.00,0.0009
3582.00,0.0009
3581.00,0.0009
3580.00,0.0010
3579.00,0.0010
3578.00,0.0011
3577.00,0.0011
3576.00,0.0011
3575.00,0.0011
3574.00,0.0011
3573.00,0.0010
3572.00,0.0010
3571.00,0.0010
3570.00,0.0010
3569.00,0.0010
3568.00,0.0011
3567.00,0.0011
3566.00,0.0011
3565.00,0.0011
3564.00,0.0011
3563.00,0.0011
3562.00,0.0011
3561.00,0.0012
3560.00,0.0012
3559.00,0.0012
3558.00,0.0012
3557.00,0.0012
3556.00,0.0011
3555.00,0.0011
3554.00,0.0011
3553.00,0.0012
3552.00,0.0012
3551.00,0.0012
3550.00,0.0012
3549.00,0.0012
3548.00,0.0012
3547.00,0.0012
3546.00,0.0012
3545.00,0.0012
3544.00,0.0013
3543.00,0.0013
3542.00,0.0013
3541.00,0.0013
3540.00,0.0013
3539.00,0.0014
3538.00,0.0014
3537.00,0.0014
3536.00,0.0014
3535.00,0.0015
3534.00,0.0015
3533.00,0.0015
3532.00,0.0015
3531.00,0.0014
3530.00,0.0014
3529.00,0.0015
3528.00,0.0015
3527.00,0.0015
3526.00,0.0015
3525.00,0.0015
3524.00,0.0016
3523.00,0.0016
3522.00,0.0016
3521.00,0.0016
3520.00,0.0016
3519.00,0.0016
3518.00,0.0015
3517.00,0.0015
3516.00,0.0015
3515.00,0.0016
3514.00,0.0016
3513.00,0.0016
3512.00,0.0017
3511.00,0.0017
3510.00,0.0017
3509.00,0.0017
3508.00,0.0016
3507.00,0.0016
3506.00,0.0016
3505.00,0.0017
3504.00,0.0017
3503.00,0.0017
3502.00,0.0017
3501.00,0.0017
3500.00,0.0017
3499.00,0.0017
3498.00,0.0017
3497.00,0.0018
3496.00,0.0018
3495.00,0.0018
3494.00,0.0019
3493.00,0.0019
3492.00,0.0019
3491.00,0.0019
3490.00,0.0019
3489.00,0.0019
3488.00,0.0019
3487.00,0.0019
3486.00,0.0019
3485.00,0.0019
3484.00,0.0019
3483.00,0.0019
3482.00,0.0019
3481.00,0.0019
3480.00,0.0020
3479.00,0.0020
3478.00,0.0020
3477.00,0.0019
3476.00,0.0019
3475.00,0.0019
3474.00,0.0019
3473.00,0.0019
3472.00,0.0019
3471.00,0.0020
3470.00,0.0020
3469.00,0.0020
3468.00,0.0020
3467.00,0.0020
3466.00,0.0020
3465.00,0.0020
3464.00,0.0020
3463.00,0.0020
3462.00,0.0020
3461.00,0.0020
3460.00,0.0021
3459.00,0.0021
3458.00,0.0021
3457.00,0.0021
3456.00,0.0022
3455.00,0.0022
3454.00,0.0022
3453.00,0.0022
3452.00,0.0022
3451.00,0.0022
3450.00,0.0022
3449.00,0.0022
3448.00,0.0023
3447.00,0.0023
3446.00,0.0024
3445.00,0.0024
3444.00,0.0024
3443.00,0.0023
3442.00,0.0023
3441.00,0.0022
3440.00,0.0022
3439.00,0.0022
3438.00,0.0023
3437.00,0.0023
3436.00,0.0024
3435.00,0.0024
3434.00,0.0024
3433.00,0.0024
3432.00,0.0024
3431.00,0.0024
3430.00,0.0024
3429.00,0.0024
3428.00,0.0024
3427.00,0.0024
3426.00,0.0024
3425.00,0.0024
3424.00,0.0024
3423.00,0.0024
3422.00,0.0024
3421.00,0.0025
3420.00,0.0025
3419.00,0.0026
3418.00,0.0026
3417.00,0.0026
3416.00,0.0026
3415.00,0.0026
3414.00,0.0026
3413.00,0.0026
3412.00,0.0026
3411.00,0.0026
3410.00,0.0026
3409.00,0.0026
3408.00,0.0026
3407.00,0.0025
3406.00,0.0025
3405.00,0.0025
3404.00,0.0026
3403.00,0.0026
3402.00,0.0027
3401.00,0.0027
3400.00,0.0027
3399.00,0.0026
3398.00,0.0026
3397.00,0.0025
3396.00,0.0025
3395.00,0.0025
3394.00,0.0026
3393.00,0.0026
3392.00,0.0025
3391.00,0.0025
3390.00,0.0025
3389.00,0.0025
3388.00,0.0025
3387.00,0.0025
3386.00,0.0025
3385.00,0.0025
3384.00,0.0025
3383.00,0.0026
3382.00,0.0026
3381.00,0.0026
3380.00,0.0027
3379.00,0.0027
3378.00,0.0027
3377.00,0.0027
3376.00,0.0027
3375.00,0.0026
3374.00,0.0026
3373.00,0.0026
3372.00,0.0027
3371.00,0.0027
3370.00,0.0028
3369.00,0.0028
3368.00,0.0028
3367.00,0.0028
3366.00,0.0028
3365.00,0.0028
3364.00,0.0028
3363.00,0.0028
3362.00,0.0027
3361.00,0.0027
3360.00,0.0027
3359.00,0.0027
3358.00,0.0027
3357.00,0.0027
3356.00,0.0028
3355.00,0.0028
3354.00,0.0028
3353.00,0.0028
3352.00,0.0029
3351.00,0.0029
3350.00,0.0029
3349.00,0.0029
3348.00,0.0028
3347.00,0.0028
3346.00,0.0028
3345.00,0.0028
3344.00,0.0028
3343.00,0.0028
3342.00,0.0028
3341.00,0.0028
3340.00,0.0028
3339.00,0.0027
3338.00,0.0027
3337.00,0.0027
3336.00,0.0027
3335.00,0.0027
3334.00,0.0027
3333.00,0.0027
3332.00,0.0027
3331.00,0.0027
3330.00,0.0027
3329.00,0.0027
3328.00,0.0027
3327.00,0.0026
3326.00,0.0026
3325.00,0.0026
3324.00,0.0026
3323.00,0.0026
3322.00,0.0026
3321.00,0.0027
3320.00,0.0027
3319.00,0.0027
3318.00,0.0027
3317.00,0.0026
3316.00,0.0026
3315.00,0.0026
3314.00,0.0026
3313.00,0.0027
3312.00,0.0027
3311.00,0.0027
3310.00,0.0027
3309.00,0.0027
3308.00,0.0027
3307.00,0.0027
3306.00,0.0027
3305.00,0.0027
3304.00,0.0027
3303.00,0.0027
3302.00,0.0028
3301.00,0.0028
3300.00,0.0028
3299.00,0.0028
3298.00,0.0028
3297.00,0.0028
3296.00,0.0028
3295.00,0.0028
3294.00,0.0027
3293.00,0.0027
3292.00,0.0026
3291.00,0.0026
3290.00,0.0026
3289.00,0.0026
3288.00,0.0026
3287.00,0.0027
3286.00,0.0027
3285.00,0.0026
3284.00,0.0026
3283.00,0.0026
3282.00,0.0026
3281.00,0.0025
3280.00,0.0025
3279.00,0.0025
3278.00,0.0025
3277.00,0.0025
3276.00,0.0025
3275.00,0.0025
3274.00,0.0025
3273.00,0.0024
3272.00,0.0024
3271.00,0.0024
3270.00,0.0024
3269.00,0.0024
3268.00,0.0025
3267.00,0.0025
3266.00,0.0025
3265.00,0.0025
3264.00,0.0025
3263.00,0.0025
3262.00,0.0024
3261.00,0.0024
3260.00,0.0024
3259.00,0.0023
3258.00,0.0023
3257.00,0.0023
3256.00,0.0024
3255.00,0.0024
3254.00,0.0024
3253.00,0.0023
3252.00,0.0023
3251.00,0.0023
3250.00,0.0023
3249.00,0.0023
3248.00,0.0023
3247.00,0.0023
3246.00,0.0023
3245.00,0.0023
3244.00,0.0023
3243.00,0.0023
3242.00,0.0023
3241.00,0.0023
3240.00,0.0023
3239.00,0.0023
3238.00,0.0024
3237.00,0.0024
3236.00,0.0024
3235.00,0.0024
3234.00,0.0024
3233.00,0.0024
3232.00,0.0024
3231.00,0.0024
3230.00,0.0024
3229.00,0.0024
3228.00,0.0024
3227.00,0.0024
3226.00,0.0025
3225.00,0.0025
3224.00,0.0025
3223.00,0.0025
3222.00,0.0025
3221.00,0.0026
3220.00,0.0026
3219.00,0.0026
3218.00,0.0027
3217.00,0.0026
3216.00,0.0026
3215.00,0.0027
3214.00,0.0027
3213.00,0.0027
3212.00,0.0027
3211.00,0.0028
3210.00,0.0028
3209.00,0.0028
3208.00,0.0029
3207.00,0.0029
3206.00,0.0029
3205.00,0.0029
3204.00,0.0029
3203.00,0.0029
3202.00,0.0029
3201.00,0.0029
3200.00,0.0030
3199.00,0.0030
3198.00,0.0030
3197.00,0.0029
3196.00,0.0029
3195.00,0.0029
3194.00,0.0029
3193.00,0.0029
3192.00,0.0029
3191.00,0.0029
3190.00,0.0029
3189.00,0.0029
3188.00,0.0029
3187.00,0.0028
3186.00,0.0028
3185.00,0.0028
3184.00,0.0028
3183.00,0.0028
3182.00,0.0028
3181.00,0.0028
3180.00,0.0028
3179.00,0.0028
3178.00,0.0028
3177.00,0.0028
3176.00,0.0028
3175.00,0.0028
3174.00,0.0028
3173.00,0.0027
3172.00,0.0027
3171.00,0.0027
3170.00,0.0027
3169.00,0.0027
3168.00,0.0027
3167.00,0.0027
3166.00,0.0027
3165.00,0.0027
3164.00,0.0026
3163.00,0.0026
3162.00,0.0026
3161.00,0.0026
3160.00,0.0027
3159.00,0.0027
3158.00,0.0027
3157.00,0.0027
3156.00,0.0027
3155.00,0.0027
3154.00,0.0028
3153.00,0.0028
3152.00,0.0028
3151.00,0.0028
3150.00,0.0027
3149.00,0.0027
3148.00,0.0027
3147.00,0.0027
3146.00,0.0028
3145.00,0.0028
3144.00,0.0028
3143.00,0.0028
3142.00,0.0028
3141.00,0.0028
3140.00,0.0027
3139.00,0.0027
3138.00,0.0027
3137.00,0.0027
3136.00,0.0027
3135.00,0.0027
3134.00,0.0027
3133.00,0.0026
3132.00,0.0026
3131.00,0.0026
3130.00,0.0026
3129.00,0.0026
3128.00,0.0026
3127.00,0.0026
3126.00,0.0025
3125.00,0.0025
3124.00,0.0025
3123.00,0.0025
3122.00,0.0025
3121.00,0.0025
3120.00,0.0025
3119.00,0.0025
3118.00,0.0024
3117.00,0.0024
3116.00,0.0024
3115.00,0.0023
3114.00,0.0023
3113.00,0.0023
3112.00,0.0023
3111.00,0.0023
3110.00,0.0023
3109.00,0.0023
3108.00,0.0023
3107.00,0.0023
3106.00,0.0023
3105.00,0.0023
3104.00,0.0023
3103.00,0.0022
3102.00,0.0022
3101.00,0.0022
3100.00,0.0022
3099.00,0.0023
3098.00,0.0023
3097.00,0.0023
3096.00,0.0023
3095.00,0.0022
3094.00,0.0022
3093.00,0.0022
3092.00,0.0023
3091.00,0.0023
3090.00,0.0023
3089.00,0.0023
3088.00,0.0023
3087.00,0.0024
3086.00,0.0024
3085.00,0.0024
3084.00,0.0024
3083.00,0.0024
3082.00,0.0024
3081.00,0.0024
3080.00,0.0025
3079.00,0.0025
3078.00,0.0024
3077.00,0.0024
3076.00,0.0023
3075.00,0.0023
3074.00,0.0023
3073.00,0.0024
3072.00,0.0024
3071.00,0.0025
3070.00,0.0024
3069.00,0.0024
3068.00,0.0024
3067.00,0.0024
3066.00,0.0024
3065.00,0.0025
3064.00,0.0025
3063.00,0.0025
3062.00,0.0025
3061.00,0.0025
3060.00,0.0025
3059.00,0.0025
3058.00,0.0026
3057.00,0.0026
3056.00,0.0026
3055.00,0.0027
3054.00,0.0027
3053.00,0.0027
3052.00,0.0027
3051.00,0.0027
3050.00,0.0028
3049.00,0.0028
3048.00,0.0028
3047.00,0.0028
3046.00,0.0029
3045.00,0.0029
3044.00,0.0029
3043.00,0.0029
3042.00,0.0029
3041.00,0.0030
3040.00,0.0030
3039.00,0.0031
3038.00,0.0031
3037.00,0.0031
3036.00,0.0032
3035.00,0.0032
3034.00,0.0032
3033.00,0.0032
3032.00,0.0032
3031.00,0.0033
3030.00,0.0033
3029.00,0.0034
3028.00,0.0035
3027.00,0.0035
3026.00,0.0036
3025.00,0.0036
3024.00,0.0037
3023.00,0.0037
3022.00,0.0038
3021.00,0.0039
3020.00,0.0040
3019.00,0.0041
3018.00,0.0042
3017.00,0.0043
3016.00,0.0044
3015.00,0.0045
3014.00,0.0046
3013.00,0.0047
3012.00,0.0049
3011.00,0.0050
3010.00,0.0052
3009.00,0.0053
3008.00,0.0055
3007.00,0.0056
3006.00,0.0058
3005.00,0.0060
3004.00,0.0062
3003.00,0.0064
3002.00,0.0067
3001.00,0.0069
3000.00,0.0071
2999.00,0.0074
2998.00,0.0078
2997.00,0.0081
2996.00,0.0085
2995.00,0.0089
2994.00,0.0093
2993.00,0.0098
2992.00,0.0103
2991.00,0.0109
2990.00,0.0115
2989.00,0.0122
2988.00,0.0130
2987.00,0.0139
2986.00,0.0149
2985.00,0.0160
2984.00,0.0173
2983.00,0.0187
2982.00,0.0203
2981.00,0.0221
2980.00,0.0240
2979.00,0.0263
2978.00,0.0289
2977.00,0.0318
2976.00,0.0352
2975.00,0.0392
2974.00,0.0436
2973.00,0.0488
2972.00,0.0547
2971.00,0.0613
2970.00,0.0687
2969.00,0.0769
2968.00,0.0858
2967.00,0.0955
2966.00,0.1057
2965.00,0.1161
2964.00,0.1265
2963.00,0.1361
2962.00,0.1444
2961.00,0.1511
2960.00,0.1559
2959.00,0.1593
2958.00,0.1619
2957.00,0.1647
2956.00,0.1683
2955.00,0.1731
2954.00,0.1792
2953.00,0.1857
2952.00,0.1917
2951.00,0.1955
2950.00,0.1960
2949.00,0.1924
2948.00,0.1848
2947.00,0.1738
2946.00,0.1609
2945.00,0.1475
2944.00,0.1349
2943.00,0.1242
2942.00,0.1158
2941.00,0.1100
2940.00,0.1066
2939.00,0.1055
2938.00,0.1063
2937.00,0.1090
2936.00,0.1133
2935.00,0.1191
2934.00,0.1263
2933.00,0.1347
2932.00,0.1442
2931.00,0.1547
2930.00,0.1659
2929.00,0.1774
2928.00,0.1890
2927.00,0.2003
2926.00,0.2113
2925.00,0.2219
2924.00,0.2322
2923.00,0.2424
2922.00,0.2525
2921.00,0.2620
2920.00,0.2703
2919.00,0.2764
2918.00,0.2791
2917.00,0.2778
2916.00,0.2725
2915.00,0.2640
2914.00,0.2536
2913.00,0.2426
2912.00,0.2321
2911.00,0.2228
2910.00,0.2147
2909.00,0.2077
2908.00,0.2013
2907.00,0.1951
2906.00,0.1889
2905.00,0.1824
2904.00,0.1757
2903.00,0.1688
2902.00,0.1619
2901.00,0.1551
2900.00,0.1485
2899.00,0.1422
2898.00,0.1362
2897.00,0.1308
2896.00,0.1259
2895.00,0.1216
2894.00,0.1179
2893.00,0.1149
2892.00,0.1126
2891.00,0.1108
2890.00,0.1095
2889.00,0.1087
2888.00,0.1082
2887.00,0.1081
2886.00,0.1082
2885.00,0.1087
2884.00,0.1095
2883.00,0.1108
2882.00,0.1124
2881.00,0.1142
2880.00,0.1159
2879.00,0.1171
2878.00,0.1177
2877.00,0.1176
2876.00,0.1169
2875.00,0.1161
2874.00,0.1155
2873.00,0.1157
2872.00,0.1166
2871.00,0.1183
2870.00,0.1204
2869.00,0.1224
2868.00,0.1236
2867.00,0.1232
2866.00,0.1208
2865.00,0.1161
2864.00,0.1095
2863.00,0.1019
2862.00,0.0944
2861.00,0.0879
2860.00,0.0827
2859.00,0.0793
2858.00,0.0773
2857.00,0.0766
2856.00,0.0768
2855.00,0.0779
2854.00,0.0795
2853.00,0.0814
2852.00,0.0835
2851.00,0.0854
2850.00,0.0871
2849.00,0.0886
2848.00,0.0901
2847.00,0.0921
2846.00,0.0950
2845.00,0.0990
2844.00,0.1039
2843.00,0.1096
2842.00,0.1154
2841.00,0.1207
2840.00,0.1245
2839.00,0.1261
2838.00,0.1248
2837.00,0.1204
2836.00,0.1131
2835.00,0.1037
2834.00,0.0930
2833.00,0.0821
2832.00,0.0719
2831.00,0.0629
2830.00,0.0553
2829.00,0.0490
2828.00,0.0440
2827.00,0.0399
2826.00,0.0365
2825.00,0.0338
2824.00,0.0315
2823.00,0.0295
2822.00,0.0278
2821.00,0.0263
2820.00,0.0250
2819.00,0.0238
2818.00,0.0228
2817.00,0.0219
2816.00,0.0211
2815.00,0.0204
2814.00,0.0198
2813.00,0.0192
2812.00,0.0187
2811.00,0.0182
2810.00,0.0176
2809.00,0.0170
2808.00,0.0164
2807.00,0.0158
2806.00,0.0151
2805.00,0.0145
2804.00,0.0139
2803.00,0.0134
2802.00,0.0129
2801.00,0.0124
2800.00,0.0120
2799.00,0.0117
2798.00,0.0114
2797.00,0.0111
2796.00,0.0109
2795.00,0.0107
2794.00,0.0104
2793.00,0.0101
2792.00,0.0098
2791.00,0.0095
2790.00,0.0092
2789.00,0.0089
2788.00,0.0086
2787.00,0.0082
2786.00,0.0080
2785.00,0.0077
2784.00,0.0074
2783.00,0.0072
2782.00,0.0070
2781.00,0.0068
2780.00,0.0066
2779.00,0.0064
2778.00,0.0062
2777.00,0.0061
2776.00,0.0060
2775.00,0.0059
2774.00,0.0058
2773.00,0.0057
2772.00,0.0057
2771.00,0.0056
2770.00,0.0056
2769.00,0.0055
2768.00,0.0055
2767.00,0.0055
2766.00,0.0055
2765.00,0.0054
2764.00,0.0054
2763.00,0.0054
2762.00,0.0053
2761.00,0.0053
2760.00,0.0053
2759.00,0.0053
2758.00,0.0052
2757.00,0.0052
2756.00,0.0052
2755.00,0.0052
2754.00,0.0052
2753.00,0.0052
2752.00,0.0051
2751.00,0.0051
2750.00,0.0051
2749.00,0.0051
2748.00,0.0051
2747.00,0.0051
2746.00,0.0052
2745.00,0.0052
2744.00,0.0053
2743.00,0.0055
2742.00,0.0056
2741.00,0.0057
2740.00,0.0058
2739.00,0.0059
2738.00,0.0060
2737.00,0.0061
2736.00,0.0062
2735.00,0.0063
2734.00,0.0065
2733.00,0.0066
2732.00,0.0068
2731.00,0.0070
2730.00,0.0072
2729.00,0.0075
2728.00,0.0078
2727.00,0.0080
2726.00,0.0083
2725.00,0.0086
2724.00,0.0087
2723.00,0.0088
2722.00,0.0087
2721.00,0.0086
2720.00,0.0083
2719.00,0.0080
2718.00,0.0077
2717.00,0.0074
2716.00,0.0071
2715.00,0.0068
2714.00,0.0065
2713.00,0.0063
2712.00,0.0061
2711.00,0.0059
2710.00,0.0058
2709.00,0.0057
2708.00,0.0055
2707.00,0.0054
2706.00,0.0052
2705.00,0.0051
2704.00,0.0050
2703.00,0.0049
2702.00,0.0048
2701.00,0.0048
2700.00,0.0047
2699.00,0.0047
2698.00,0.0047
2697.00,0.0046
2696.00,0.0046
2695.00,0.0046
2694.00,0.0046
2693.00,0.0046
2692.00,0.0046
2691.00,0.0045
2690.00,0.0045
2689.00,0.0045
2688.00,0.0045
2687.00,0.0045
2686.00,0.0046
2685.00,0.0046
2684.00,0.0046
2683.00,0.0046
2682.00,0.0047
2681.00,0.0047
2680.00,0.0047
2679.00,0.0047
2678.00,0.0047
2677.00,0.0047
2676.00,0.0046
2675.00,0.0046
2674.00,0.0046
2673.00,0.0046
2672.00,0.0046
2671.00,0.0045
2670.00,0.0045
2669.00,0.0045
2668.00,0.0045
2667.00,0.0045
2666.00,0.0045
2665.00,0.0046
2664.00,0.0047
2663.00,0.0047
2662.00,0.0048
2661.00,0.0049
2660.00,0.0050
2659.00,0.0050
2658.00,0.0049
2657.00,0.0049
2656.00,0.0048
2655.00,0.0048
2654.00,0.0048
2653.00,0.0047
2652.00,0.0047
2651.00,0.0046
2650.00,0.0046
2649.00,0.0045
2648.00,0.0044
2647.00,0.0044
2646.00,0.0043
2645.00,0.0043
2644.00,0.0042
2643.00,0.0042
2642.00,0.0041
2641.00,0.0041
2640.00,0.0040
2639.00,0.0040
2638.00,0.0040
2637.00,0.0040
2636.00,0.0040
2635.00,0.0040
2634.00,0.0040
2633.00,0.0040
2632.00,0.0040
2631.00,0.0040
2630.00,0.0040
2629.00,0.0040
2628.00,0.0041
2627.00,0.0041
2626.00,0.0041
2625.00,0.0042
2624.00,0.0042
2623.00,0.0041
2622.00,0.0041
2621.00,0.0041
2620.00,0.0041
2619.00,0.0041
2618.00,0.0042
2617.00,0.0042
2616.00,0.0042
2615.00,0.0042
2614.00,0.0041
2613.00,0.0041
2612.00,0.0040
2611.00,0.0040
2610.00,0.0039
2609.00,0.0038
2608.00,0.0037
2607.00,0.0036
2606.00,0.0035
2605.00,0.0034
2604.00,0.0034
2603.00,0.0034
2602.00,0.0034
2601.00,0.0033
2600.00,0.0032
2599.00,0.0032
2598.00,0.0032
2597.00,0.0032
2596.00,0.0032
2595.00,0.0032
2594.00,0.0032
2593.00,0.0033
2592.00,0.0034
2591.00,0.0035
2590.00,0.0035
2589.00,0.0035
2588.00,0.0036
2587.00,0.0037
2586.00,0.0038
2585.00,0.0039
2584.00,0.0039
2583.00,0.0040
2582.00,0.0040
2581.00,0.0040
2580.00,0.0039
2579.00,0.0037
2578.00,0.0036
2577.00,0.0035
2576.00,0.0034
2575.00,0.0033
2574.00,0.0032
2573.00,0.0031
2572.00,0.0031
2571.00,0.0030
2570.00,0.0030
2569.00,0.0029
2568.00,0.0028
2567.00,0.0028
2566.00,0.0027
2565.00,0.0027
2564.00,0.0026
2563.00,0.0025
2562.00,0.0025
2561.00,0.0024
2560.00,0.0024
2559.00,0.0023
2558.00,0.0023
2557.00,0.0022
2556.00,0.0022
2555.00,0.0021
2554.00,0.0022
2553.00,0.0022
2552.00,0.0022
2551.00,0.0021
2550.00,0.0021
2549.00,0.0020
2548.00,0.0020
2547.00,0.0019
2546.00,0.0018
2545.00,0.0018
2544.00,0.0018
2543.00,0.0018
2542.00,0.0019
2541.00,0.0019
2540.00,0.0019
2539.00,0.0018
2538.00,0.0017
2537.00,0.0017
2536.00,0.0017
2535.00,0.0017
2534.00,0.0017
2533.00,0.0016
2532.00,0.0016
2531.00,0.0016
2530.00,0.0016
2529.00,0.0016
2528.00,0.0016
2527.00,0.0016
2526.00,0.0016
2525.00,0.0015
2524.00,0.0015
2523.00,0.0015
2522.00,0.0015
2521.00,0.0014
2520.00,0.0014
2519.00,0.0014
2518.00,0.0013
2517.00,0.0013
2516.00,0.0012
2515.00,0.0012
2514.00,0.0011
2513.00,0.0011
2512.00,0.0011
2511.00,0.0011
2510.00,0.0011
2509.00,0.0011
2508.00,0.0011
2507.00,0.0011
2506.00,0.0011
2505.00,0.0011
2504.00,0.0010
2503.00,0.0010
2502.00,0.0010
2501.00,0.0010
2500.00,0.0011
2499.00,0.0011
2498.00,0.0011
2497.00,0.0011
2496.00,0.0011
2495.00,0.0011
2494.00,0.0011
2493.00,0.0012
2492.00,0.0012
2491.00,0.0012
2490.00,0.0012
2489.00,0.0011
2488.00,0.0011
2487.00,0.0010
2486.00,0.0010
2485.00,0.0010
2484.00,0.0010
2483.00,0.0010
2482.00,0.0010
2481.00,0.0009
2480.00,0.0009
2479.00,0.0009
2478.00,0.0009
2477.00,0.0009
2476.00,0.0009
2475.00,0.0009
2474.00,0.0010
2473.00,0.0009
2472.00,0.0009
2471.00,0.0010
2470.00,0.0010
2469.00,0.0010
2468.00,0.0010
2467.00,0.0009
2466.00,0.0009
2465.00,0.0009
2464.00,0.0009
2463.00,0.0010
2462.00,0.0011
2461.00,0.0011
2460.00,0.0011
2459.00,0.0011
2458.00,0.0012
2457.00,0.0012
2456.00,0.0012
2455.00,0.0012
2454.00,0.0011
2453.00,0.0011
2452.00,0.0011
2451.00,0.0011
2450.00,0.0011
2449.00,0.0012
2448.00,0.0012
2447.00,0.0012
2446.00,0.0012
2445.00,0.0011
2444.00,0.0011
2443.00,0.0011
2442.00,0.0011
2441.00,0.0012
2440.00,0.0012
2439.00,0.0012
2438.00,0.0012
2437.00,0.0011
2436.00,0.0010
2435.00,0.0010
2434.00,0.0011
2433.00,0.0011
2432.00,0.0012
2431.00,0.0012
2430.00,0.0012
2429.00,0.0012
2428.00,0.0012
2427.00,0.0012
2426.00,0.0012
2425.00,0.0011
2424.00,0.0011
2423.00,0.0011
2422.00,0.0010
2421.00,0.0010
2420.00,0.0009
2419.00,0.0009
2418.00,0.0008
2417.00,0.0008
2416.00,0.0008
2415.00,0.0008
2414.00,0.0009
2413.00,0.0009
2412.00,0.0009
2411.00,0.0010
2410.00,0.0009
2409.00,0.0009
2408.00,0.0008
2407.00,0.0007
2406.00,0.0007
2405.00,0.0007
2404.00,0.0008
2403.00,0.0008
2402.00,0.0009
2401.00,0.0009
2400.00,0.0008
2399.00,0.0007
2398.00,0.0006
2397.00,0.0006
2396.00,0.0006
2395.00,0.0006
2394.00,0.0007
2393.00,0.0007
2392.00,0.0007
2391.00,0.0007
2390.00,0.0007
2389.00,0.0007
2388.00,0.0007
2387.00,0.0006
2386.00,0.0005
2385.00,0.0004
2384.00,0.0003
2383.00,0.0003
2382.00,0.0003
2381.00,0.0003
2380.00,0.0003
2379.00,0.0003
2378.00,0.0003
2377.00,0.0002
2376.00,0.0002
2375.00,0.0002
2374.00,0.0002
2373.00,0.0002
2372.00,0.0002
2371.00,0.0002
2370.00,0.0001
2369.00,0.0001
2368.00,0.0000
2367.00,-0.0000
2366.00,-0.0000
2365.00,0.0000
2364.00,0.0000
2363.00,0.0001
2362.00,0.0001
2361.00,0.0001
2360.00,0.0001
2359.00,0.0002
2358.00,0.0002
2357.00,0.0002
2356.00,0.0001
2355.00,0.0001
2354.00,0.0001
2353.00,0.0002
2352.00,0.0002
2351.00,0.0002
2350.00,0.0002
2349.00,0.0002
2348.00,0.0002
2347.00,0.0002
2346.00,0.0002
2345.00,0.0003
2344.00,0.0003
2343.00,0.0004
2342.00,0.0004
2341.00,0.0005
2340.00,0.0005
2339.00,0.0004
2338.00,0.0004
2337.00,0.0005
2336.00,0.0005
2335.00,0.0006
2334.00,0.0006
2333.00,0.0005
2332.00,0.0005
2331.00,0.0004
2330.00,0.0005
2329.00,0.0005
2328.00,0.0007
2327.00,0.0010
2326.00,0.0014
2325.00,0.0018
2324.00,0.0020
2323.00,0.0020
2322.00,0.0018
2321.00,0.0015
2320.00,0.0013
2319.00,0.0011
2318.00,0.0010
2317.00,0.0009
2316.00,0.0009
2315.00,0.0008
2314.00,0.0007
2313.00,0.0006
2312.00,0.0006
2311.00,0.0006
2310.00,0.0006
2309.00,0.0006
2308.00,0.0007
2307.00,0.0008
2306.00,0.0009
2305.00,0.0009
2304.00,0.0009
2303.00,0.0010
2302.00,0.0011
2301.00,0.0011
2300.00,0.0012
2299.00,0.0012
2298.00,0.0012
2297.00,0.0013
2296.00,0.0014
2295.00,0.0014
2294.00,0.0015
2293.00,0.0015
2292.00,0.0016
2291.00,0.0016
2290.00,0.0016
2289.00,0.0017
2288.00,0.0018
2287.00,0.0019
2286.00,0.0019
2285.00,0.0019
2284.00,0.0019
2283.00,0.0018
2282.00,0.0017
2281.00,0.0016
2280.00,0.0015
2279.00,0.0014
2278.00,0.0014
2277.00,0.0013
2276.00,0.0013
2275.00,0.0013
2274.00,0.0013
2273.00,0.0013
2272.00,0.0014
2271.00,0.0014
2270.00,0.0014
2269.00,0.0014
2268.00,0.0012
2267.00,0.0011
2266.00,0.0010
2265.00,0.0009
2264.00,0.0009
2263.00,0.0009
2262.00,0.0009
2261.00,0.0010
2260.00,0.0010
2259.00,0.0011
2258.00,0.0011
2257.00,0.0011
2256.00,0.0011
2255.00,0.0011
2254.00,0.0010
2253.00,0.0010
2252.00,0.0009
2251.00,0.0008
2250.00,0.0007
2249.00,0.0006
2248.00,0.0005
2247.00,0.0004
2246.00,0.0004
2245.00,0.0004
2244.00,0.0005
2243.00,0.0006
2242.00,0.0007
2241.00,0.0007
2240.00,0.0008
2239.00,0.0008
2238.00,0.0008
2237.00,0.0007
2236.00,0.0007
2235.00,0.0006
2234.00,0.0006
2233.00,0.0006
2232.00,0.0006
2231.00,0.0007
2230.00,0.0007
2229.00,0.0008
2228.00,0.0007
2227.00,0.0007
2226.00,0.0006
2225.00,0.0006
2224.00,0.0007
2223.00,0.0007
2222.00,0.0007
2221.00,0.0007
2220.00,0.0006
2219.00,0.0007
2218.00,0.0008
2217.00,0.0008
2216.00,0.0008
2215.00,0.0008
2214.00,0.0008
2213.00,0.0008
2212.00,0.0007
2211.00,0.0005
2210.00,0.0003
2209.00,0.0003
2208.00,0.0002
2207.00,0.0002
2206.00,0.0002
2205.00,0.0002
2204.00,0.0003
2203.00,0.0004
2202.00,0.0003
2201.00,0.0003
2200.00,0.0005
2199.00,0.0007
2198.00,0.0009
2197.00,0.0011
2196.00,0.0012
2195.00,0.0013
2194.00,0.0012
2193.00,0.0009
2192.00,0.0006
2191.00,0.0006
2190.00,0.0007
2189.00,0.0008
2188.00,0.0009
2187.00,0.0008
2186.00,0.0007
2185.00,0.0007
2184.00,0.0008
2183.00,0.0008
2182.00,0.0007
2181.00,0.0005
2180.00,0.0003
2179.00,0.0002
2178.00,0.0003
2177.00,0.0003
2176.00,0.0002
2175.00,0.0002
2174.00,0.0003
2173.00,0.0004
2172.00,0.0006
2171.00,0.0009
2170.00,0.0012
2169.00,0.0016
2168.00,0.0020
2167.00,0.0021
2166.00,0.0022
2165.00,0.0023
2164.00,0.0024
2163.00,0.0023
2162.00,0.0017
2161.00,0.0007
2160.00,-0.0008
2159.00,-0.0023
2158.00,-0.0034
2157.00,-0.0038
2156.00,-0.0038
2155.00,-0.0035
2154.00,-0.0031
2153.00,-0.0026
2152.00,-0.0021
2151.00,-0.0017
2150.00,-0.0015
2149.00,-0.0015
2148.00,-0.0016
2147.00,-0.0018
2146.00,-0.0019
2145.00,-0.0019
2144.00,-0.0017
2143.00,-0.0015
2142.00,-0.0013
2141.00,-0.0012
2140.00,-0.0012
2139.00,-0.0012
2138.00,-0.0012
2137.00,-0.0012
2136.00,-0.0013
2135.00,-0.0015
2134.00,-0.0019
2133.00,-0.0021
2132.00,-0.0022
2131.00,-0.0021
2130.00,-0.0018
2129.00,-0.0015
2128.00,-0.0012
2127.00,-0.0010
2126.00,-0.0009
2125.00,-0.0008
2124.00,-0.0007
2123.00,-0.0007
2122.00,-0.0008
2121.00,-0.0008
2120.00,-0.0007
2119.00,-0.0006
2118.00,-0.0004
2117.00,-0.0002
2116.00,0.0000
2115.00,0.0002
2114.00,0.0002
2113.00,0.0002
2112.00,0.0002
2111.00,0.0002
2110.00,0.0002
2109.00,0.0001
2108.00,0.0001
2107.00,0.0001
2106.00,0.0002
2105.00,0.0002
2104.00,0.0002
2103.00,0.0002
2102.00,0.0002
2101.00,0.0002
2100.00,0.0002
2099.00,0.0001
2098.00,-0.0000
2097.00,-0.0003
2096.00,-0.0004
2095.00,-0.0005
2094.00,-0.0005
2093.00,-0.0005
2092.00,-0.0005
2091.00,-0.0005
2090.00,-0.0005
2089.00,-0.0004
2088.00,-0.0003
2087.00,-0.0001
2086.00,0.0000
2085.00,0.0002
2084.00,0.0003
2083.00,0.0004
2082.00,0.0004
2081.00,0.0004
2080.00,0.0003
2079.00,0.0002
2078.00,0.0002
2077.00,0.0002
2076.00,0.0003
2075.00,0.0004
2074.00,0.0004
2073.00,0.0003
2072.00,0.0002
2071.00,0.0000
2070.00,0.0000
2069.00,0.0002
2068.00,0.0003
2067.00,0.0002
2066.00,0.0001
2065.00,0.0000
2064.00,-0.0000
2063.00,-0.0000
2062.00,-0.0001
2061.00,-0.0001
2060.00,-0.0001
2059.00,-0.0001
2058.00,-0.0001
2057.00,0.0000
2056.00,0.0001
2055.00,0.0001
2054.00,0.0001
2053.00,0.0005
2052.00,0.0011
2051.00,0.0016
2050.00,0.0017
2049.00,0.0014
2048.00,0.0009
2047.00,0.0004
2046.00,0.0001
2045.00,-0.0002
2044.00,-0.0004
2043.00,-0.0004
2042.00,-0.0005
2041.00,-0.0005
2040.00,-0.0004
2039.00,-0.0004
2038.00,-0.0006
2037.00,-0.0008
2036.00,-0.0009
2035.00,-0.0009
2034.00,-0.0006
2033.00,-0.0003
2032.00,-0.0002
2031.00,-0.0003
2030.00,-0.0007
2029.00,-0.0010
2028.00,-0.0013
2027.00,-0.0014
2026.00,-0.0013
2025.00,-0.0012
2024.00,-0.0010
2023.00,-0.0009
2022.00,-0.0007
2021.00,-0.0005
2020.00,-0.0005
2019.00,-0.0006
2018.00,-0.0007
2017.00,-0.0006
2016.00,-0.0004
2015.00,-0.0002
2014.00,-0.0001
2013.00,-0.0003
2012.00,-0.0005
2011.00,-0.0008
2010.00,-0.0010
2009.00,-0.0011
2008.00,-0.0013
2007.00,-0.0016
2006.00,-0.0019
2005.00,-0.0020
2004.00,-0.0021
2003.00,-0.0020
2002.00,-0.0020
2001.00,-0.0018
2000.00,-0.0017
1999.00,-0.0016
1998.00,-0.0015
1997.00,-0.0014
1996.00,-0.0014
1995.00,-0.0013
1994.00,-0.0012
1993.00,-0.0011
1992.00,-0.0009
1991.00,-0.0008
1990.00,-0.0009
1989.00,-0.0009
1988.00,-0.0008
1987.00,-0.0005
1986.00,-0.0001
1985.00,0.0001
1984.00,0.0003
1983.00,0.0004
1982.00,0.0005
1981.00,0.0006
1980.00,0.0005
1979.00,-0.0002
1978.00,-0.0010
1977.00,-0.0018
1976.00,-0.0020
1975.00,-0.0019
1974.00,-0.0017
1973.00,-0.0016
1972.00,-0.0017
1971.00,-0.0018
1970.00,-0.0018
1969.00,-0.0016
1968.00,-0.0014
1967.00,-0.0013
1966.00,-0.0014
1965.00,-0.0014
1964.00,-0.0016
1963.00,-0.0017
1962.00,-0.0018
1961.00,-0.0018
1960.00,-0.0018
1959.00,-0.0019
1958.00,-0.0019
1957.00,-0.0018
1956.00,-0.0017
1955.00,-0.0016
1954.00,-0.0016
1953.00,-0.0016
1952.00,-0.0016
1951.00,-0.0016
1950.00,-0.0016
1949.00,-0.0015
1948.00,-0.0015
1947.00,-0.0016
1946.00,-0.0017
1945.00,-0.0018
1944.00,-0.0018
1943.00,-0.0018
1942.00,-0.0018
1941.00,-0.0016
1940.00,-0.0014
1939.00,-0.0012
1938.00,-0.0011
1937.00,-0.0011
1936.00,-0.0011
1935.00,-0.0011
1934.00,-0.0011
1933.00,-0.0009
1932.00,-0.0008
1931.00,-0.0009
1930.00,-0.0011
1929.00,-0.0013
1928.00,-0.0013
1927.00,-0.0011
1926.00,-0.0010
1925.00,-0.0009
1924.00,-0.0008
1923.00,-0.0008
1922.00,-0.0007
1921.00,-0.0006
1920.00,-0.0006
1919.00,-0.0006
1918.00,-0.0006
1917.00,-0.0005
1916.00,-0.0004
1915.00,-0.0004
1914.00,-0.0004
1913.00,-0.0004
1912.00,-0.0004
1911.00,-0.0004
1910.00,-0.0004
1909.00,-0.0004
1908.00,-0.0004
1907.00,-0.0004
1906.00,-0.0005
1905.00,-0.0005
1904.00,-0.0005
1903.00,-0.0004
1902.00,-0.0003
1901.00,-0.0002
1900.00,-0.0002
1899.00,-0.0003
1898.00,-0.0003
1897.00,-0.0002
1896.00,-0.0001
1895.00,-0.0001
1894.00,-0.0001
1893.00,-0.0002
1892.00,-0.0003
1891.00,-0.0003
1890.00,-0.0003
1889.00,-0.0002
1888.00,-0.0001
1887.00,-0.0001
1886.00,-0.0001
1885.00,-0.0002
1884.00,-0.0003
1883.00,-0.0004
1882.00,-0.0004
1881.00,-0.0003
1880.00,-0.0001
1879.00,-0.0000
1878.00,0.0000
1877.00,0.0001
1876.00,0.0001
1875.00,0.0000
1874.00,-0.0001
1873.00,-0.0001
1872.00,-0.0002
1871.00,-0.0003
1870.00,-0.0002
1869.00,-0.0002
1868.00,-0.0001
1867.00,-0.0001
1866.00,-0.0001
1865.00,-0.0001
1864.00,-0.0001
1863.00,-0.0001
1862.00,-0.0001
1861.00,-0.0001
1860.00,-0.0000
1859.00,-0.0000
1858.00,-0.0000
1857.00,-0.0001
1856.00,-0.0000
1855.00,0.0000
1854.00,0.0001
1853.00,0.0001
1852.00,0.0001
1851.00,-0.0000
1850.00,-0.0001
1849.00,-0.0001
1848.00,-0.0000
1847.00,0.0000
1846.00,0.0001
1845.00,0.0002
1844.00,0.0002
1843.00,0.0002
1842.00,0.0002
1841.00,0.0002
1840.00,0.0001
1839.00,0.0001
1838.00,0.0000
1837.00,-0.0000
1836.00,-0.0001
1835.00,-0.0000
1834.00,-0.0000
1833.00,0.0000
1832.00,0.0001
1831.00,0.0001
1830.00,0.0001
1829.00,0.0001
1828.00,0.0002
1827.00,0.0003
1826.00,0.0003
1825.00,0.0002
1824.00,0.0002
1823.00,0.0002
1822.00,0.0003
1821.00,0.0003
1820.00,0.0002
1819.00,0.0000
1818.00,-0.0002
1817.00,-0.0003
1816.00,-0.0003
1815.00,-0.0002
1814.00,-0.0000
1813.00,0.0001
1812.00,0.0002
1811.00,0.0003
1810.00,0.0003
1809.00,0.0003
1808.00,0.0003
1807.00,0.0003
1806.00,0.0003
1805.00,0.0003
1804.00,0.0002
1803.00,0.0002
1802.00,0.0002
1801.00,0.0003
1800.00,0.0003
1799.00,0.0003
1798.00,0.0003
1797.00,0.0003
1796.00,0.0003
1795.00,0.0003
1794.00,0.0003
1793.00,0.0004
1792.00,0.0005
1791.00,0.0005
1790.00,0.0006
1789.00,0.0007
1788.00,0.0007
1787.00,0.0007
1786.00,0.0007
1785.00,0.0007
1784.00,0.0007
1783.00,0.0007
1782.00,0.0007
1781.00,0.0007
1780.00,0.0007
1779.00,0.0007
1778.00,0.0007
1777.00,0.0007
1776.00,0.0007
1775.00,0.0007
1774.00,0.0008
1773.00,0.0008
1772.00,0.0009
1771.00,0.0009
1770.00,0.0009
1769.00,0.0009
1768.00,0.0009
1767.00,0.0008
1766.00,0.0008
1765.00,0.0008
1764.00,0.0008
1763.00,0.0009
1762.00,0.0010
1761.00,0.0010
1760.00,0.0011
1759.00,0.0012
1758.00,0.0012
1757.00,0.0013
1756.00,0.0013
1755.00,0.0012
1754.00,0.0012
1753.00,0.0013
1752.00,0.0014
1751.00,0.0015
1750.00,0.0016
1749.00,0.0017
1748.00,0.0018
1747.00,0.0018
1746.00,0.0019
1745.00,0.0019
1744.00,0.0019
1743.00,0.0018
1742.00,0.0018
1741.00,0.0019
1740.00,0.0020
1739.00,0.0020
1738.00,0.0020
1737.00,0.0020
1736.00,0.0020
1735.00,0.0021
1734.00,0.0021
1733.00,0.0021
1732.00,0.0021
1731.00,0.0021
1730.00,0.0021
1729.00,0.0021
1728.00,0.0022
1727.00,0.0022
1726.00,0.0022
1725.00,0.0022
1724.00,0.0022
1723.00,0.0022
1722.00,0.0021
1721.00,0.0021
1720.00,0.0021
1719.00,0.0021
1718.00,0.0021
1717.00,0.0021
1716.00,0.0020
1715.00,0.0020
1714.00,0.0020
1713.00,0.0020
1712.00,0.0020
1711.00,0.0020
1710.00,0.0019
1709.00,0.0019
1708.00,0.0018
1707.00,0.0018
1706.00,0.0018
1705.00,0.0018
1704.00,0.0019
1703.00,0.0019
1702.00,0.0019
1701.00,0.0020
1700.00,0.0020
1699.00,0.0020
1698.00,0.0020
1697.00,0.0020
1696.00,0.0020
1695.00,0.0021
1694.00,0.0021
1693.00,0.0022
1692.00,0.0022
1691.00,0.0023
1690.00,0.0023
1689.00,0.0024
1688.00,0.0024
1687.00,0.0025
1686.00,0.0025
1685.00,0.0025
1684.00,0.0024
1683.00,0.0023
1682.00,0.0022
1681.00,0.0022
1680.00,0.0022
1679.00,0.0022
1678.00,0.0022
1677.00,0.0023
1676.00,0.0023
1675.00,0.0024
1674.00,0.0024
1673.00,0.0024
1672.00,0.0024
1671.00,0.0025
1670.00,0.0025
1669.00,0.0025
1668.00,0.0026
1667.00,0.0026
1666.00,0.0026
1665.00,0.0026
1664.00,0.0027
1663.00,0.0027
1662.00,0.0027
1661.00,0.0027
1660.00,0.0027
1659.00,0.0027
1658.00,0.0028
1657.00,0.0029
1656.00,0.0029
1655.00,0.0029
1654.00,0.0029
1653.00,0.0029
1652.00,0.0029
1651.00,0.0030
1650.00,0.0031
1649.00,0.0032
1648.00,0.0033
1647.00,0.0033
1646.00,0.0033
1645.00,0.0034
1644.00,0.0034
1643.00,0.0035
1642.00,0.0035
1641.00,0.0036
1640.00,0.0037
1639.00,0.0037
1638.00,0.0037
1637.00,0.0038
1636.00,0.0038
1635.00,0.0037
1634.00,0.0037
1633.00,0.0036
1632.00,0.0036
1631.00,0.0036
1630.00,0.0036
1629.00,0.0036
1628.00,0.0036
1627.00,0.0036
1626.00,0.0035
1625.00,0.0034
1624.00,0.0034
1623.00,0.0034
1622.00,0.0034
1621.00,0.0034
1620.00,0.0034
1619.00,0.0033
1618.00,0.0033
1617.00,0.0033
1616.00,0.0033
1615.00,0.0033
1614.00,0.0033
1613.00,0.0034
1612.00,0.0034
1611.00,0.0035
1610.00,0.0034
1609.00,0.0034
1608.00,0.0033
1607.00,0.0033
1606.00,0.0033
1605.00,0.0033
1604.00,0.0033
1603.00,0.0033
1602.00,0.0032
1601.00,0.0032
1600.00,0.0033
1599.00,0.0033
1598.00,0.0033
1597.00,0.0033
1596.00,0.0033
1595.00,0.0033
1594.00,0.0033
1593.00,0.0033
1592.00,0.0034
1591.00,0.0034
1590.00,0.0034
1589.00,0.0035
1588.00,0.0035
1587.00,0.0035
1586.00,0.0036
1585.00,0.0037
1584.00,0.0039
1583.00,0.0041
1582.00,0.0042
1581.00,0.0044
1580.00,0.0045
1579.00,0.0046
1578.00,0.0046
1577.00,0.0047
1576.00,0.0048
1575.00,0.0047
1574.00,0.0046
1573.00,0.0046
1572.00,0.0045
1571.00,0.0044
1570.00,0.0043
1569.00,0.0042
1568.00,0.0041
1567.00,0.0041
1566.00,0.0041
1565.00,0.0041
1564.00,0.0040
1563.00,0.0040
1562.00,0.0039
1561.00,0.0038
1560.00,0.0038
1559.00,0.0037
1558.00,0.0036
1557.00,0.0037
1556.00,0.0039
1555.00,0.0040
1554.00,0.0041
1553.00,0.0043
1552.00,0.0044
1551.00,0.0044
1550.00,0.0045
1549.00,0.0046
1548.00,0.0047
1547.00,0.0048
1546.00,0.0050
1545.00,0.0052
1544.00,0.0053
1543.00,0.0054
1542.00,0.0055
1541.00,0.0056
1540.00,0.0056
1539.00,0.0054
1538.00,0.0052
1537.00,0.0051
1536.00,0.0050
1535.00,0.0049
1534.00,0.0047
1533.00,0.0046
1532.00,0.0044
1531.00,0.0043
1530.00,0.0043
1529.00,0.0043
1528.00,0.0043
1527.00,0.0043
1526.00,0.0043
1525.00,0.0043
1524.00,0.0043
1523.00,0.0043
1522.00,0.0043
1521.00,0.0043
1520.00,0.0044
1519.00,0.0044
1518.00,0.0045
1517.00,0.0046
1516.00,0.0046
1515.00,0.0047
1514.00,0.0047
1513.00,0.0048
1512.00,0.0049
1511.00,0.0049
1510.00,0.0050
1509.00,0.0050
1508.00,0.0052
1507.00,0.0052
1506.00,0.0052
1505.00,0.0053
1504.00,0.0055
1503.00,0.0056
1502.00,0.0058
1501.00,0.0060
1500.00,0.0063
1499.00,0.0065
1498.00,0.0067
1497.00,0.0070
1496.00,0.0073
1495.00,0.0075
1494.00,0.0078
1493.00,0.0081
1492.00,0.0084
1491.00,0.0088
1490.00,0.0091
1489.00,0.0096
1488.00,0.0101
1487.00,0.0105
1486.00,0.0110
1485.00,0.0117
1484.00,0.0124
1483.00,0.0132
1482.00,0.0141
1481.00,0.0152
1480.00,0.0163
1479.00,0.0175
1478.00,0.0190
1477.00,0.0211
1476.00,0.0237
1475.00,0.0268
1474.00,0.0308
1473.00,0.0365
1472.00,0.0431
1471.00,0.0495
1470.00,0.0558
1469.00,0.0624
1468.00,0.0695
1467.00,0.0773
1466.00,0.0861
1465.00,0.0955
1464.00,0.1036
1463.00,0.1093
1462.00,0.1129
1461.00,0.1154
1460.00,0.1171
1459.00,0.1182
1458.00,0.1191
1457.00,0.1197
1456.00,0.1197
1455.00,0.1191
1454.00,0.1181
1453.00,0.1165
1452.00,0.1140
1451.00,0.1104
1450.00,0.1054
1449.00,0.0985
1448.00,0.0895
1447.00,0.0800
1446.00,0.0712
1445.00,0.0636
1444.00,0.0571
1443.00,0.0517
1442.00,0.0476
1441.00,0.0447
1440.00,0.0429
1439.00,0.0420
1438.00,0.0419
1437.00,0.0418
1436.00,0.0408
1435.00,0.0384
1434.00,0.0349
1433.00,0.0308
1432.00,0.0265
1431.00,0.0226
1430.00,0.0196
1429.00,0.0174
1428.00,0.0158
1427.00,0.0147
1426.00,0.0141
1425.00,0.0134
1424.00,0.0129
1423.00,0.0125
1422.00,0.0122
1421.00,0.0119
1420.00,0.0116
1419.00,0.0113
1418.00,0.0111
1417.00,0.0108
1416.00,0.0106
1415.00,0.0105
1414.00,0.0104
1413.00,0.0103
1412.00,0.0101
1411.00,0.0101
1410.00,0.0100
1409.00,0.0099
1408.00,0.0098
1407.00,0.0098
1406.00,0.0099
1405.00,0.0099
1404.00,0.0099
1403.00,0.0099
1402.00,0.0101
1401.00,0.0102
1400.00,0.0103
1399.00,0.0105
1398.00,0.0108
1397.00,0.0109
1396.00,0.0111
1395.00,0.0115
1394.00,0.0120
1393.00,0.0125
1392.00,0.0131
1391.00,0.0138
1390.00,0.0148
1389.00,0.0162
1388.00,0.0183
1387.00,0.0214
1386.00,0.0257
1385.00,0.0313
1384.00,0.0390
1383.00,0.0497
1382.00,0.0641
1381.00,0.0826
1380.00,0.1054
1379.00,0.1316
1378.00,0.1571
1377.00,0.1761
1376.00,0.1827
1375.00,0.1738
1374.00,0.1519
1373.00,0.1253
1372.00,0.1009
1371.00,0.0808
1370.00,0.0648
1369.00,0.0527
1368.00,0.0444
1367.00,0.0392
1366.00,0.0364
1365.00,0.0353
1364.00,0.0355
1363.00,0.0368
1362.00,0.0388
1361.00,0.0410
1360.00,0.0426
1359.00,0.0431
1358.00,0.0421
1357.00,0.0396
1356.00,0.0361
1355.00,0.0322
1354.00,0.0284
1353.00,0.0252
1352.00,0.0226
1351.00,0.0205
1350.00,0.0188
1349.00,0.0173
1348.00,0.0161
1347.00,0.0151
1346.00,0.0142
1345.00,0.0134
1344.00,0.0129
1343.00,0.0124
1342.00,0.0120
1341.00,0.0117
1340.00,0.0114
1339.00,0.0112
1338.00,0.0111
1337.00,0.0111
1336.00,0.0112
1335.00,0.0114
1334.00,0.0116
1333.00,0.0119
1332.00,0.0123
1331.00,0.0127
1330.00,0.0128
1329.00,0.0128
1328.00,0.0125
1327.00,0.0120
1326.00,0.0114
1325.00,0.0109
1324.00,0.0104
1323.00,0.0100
1322.00,0.0096
1321.00,0.0093
1320.00,0.0090
1319.00,0.0088
1318.00,0.0086
1317.00,0.0085
1316.00,0.0084
1315.00,0.0083
1314.00,0.0083
1313.00,0.0084
1312.00,0.0085
1311.00,0.0088
1310.00,0.0092
1309.00,0.0099
1308.00,0.0109
1307.00,0.0120
1306.00,0.0132
1305.00,0.0140
1304.00,0.0142
1303.00,0.0139
1302.00,0.0133
1301.00,0.0127
1300.00,0.0123
1299.00,0.0122
1298.00,0.0121
1297.00,0.0121
1296.00,0.0121
1295.00,0.0118
1294.00,0.0115
1293.00,0.0110
1292.00,0.0105
1291.00,0.0101
1290.00,0.0098
1289.00,0.0094
1288.00,0.0091
1287.00,0.0088
1286.00,0.0086
1285.00,0.0084
1284.00,0.0082
1283.00,0.0080
1282.00,0.0079
1281.00,0.0079
1280.00,0.0078
1279.00,0.0077
1278.00,0.0077
1277.00,0.0076
1276.00,0.0075
1275.00,0.0075
1274.00,0.0076
1273.00,0.0076
1272.00,0.0077
1271.00,0.0077
1270.00,0.0078
1269.00,0.0079
1268.00,0.0081
1267.00,0.0084
1266.00,0.0087
1265.00,0.0089
1264.00,0.0093
1263.00,0.0096
1262.00,0.0100
1261.00,0.0104
1260.00,0.0110
1259.00,0.0116
1258.00,0.0122
1257.00,0.0128
1256.00,0.0131
1255.00,0.0129
1254.00,0.0123
1253.00,0.0114
1252.00,0.0105
1251.00,0.0097
1250.00,0.0091
1249.00,0.0087
1248.00,0.0083
1247.00,0.0080
1246.00,0.0077
1245.00,0.0076
1244.00,0.0076
1243.00,0.0075
1242.00,0.0074
1241.00,0.0073
1240.00,0.0072
1239.00,0.0071
1238.00,0.0071
1237.00,0.0071
1236.00,0.0071
1235.00,0.0071
1234.00,0.0072
1233.00,0.0072
1232.00,0.0072
1231.00,0.0073
1230.00,0.0073
1229.00,0.0074
1228.00,0.0075
1227.00,0.0077
1226.00,0.0079
1225.00,0.0082
1224.00,0.0085
1223.00,0.0089
1222.00,0.0092
1221.00,0.0094
1220.00,0.0095
1219.00,0.0095
1218.00,0.0094
1217.00,0.0092
1216.00,0.0090
1215.00,0.0087
1214.00,0.0085
1213.00,0.0082
1212.00,0.0080
1211.00,0.0079
1210.00,0.0078
1209.00,0.0076
1208.00,0.0075
1207.00,0.0074
1206.00,0.0074
1205.00,0.0074
1204.00,0.0074
1203.00,0.0074
1202.00,0.0074
1201.00,0.0073
1200.00,0.0073
1199.00,0.0073
1198.00,0.0073
1197.00,0.0074
1196.00,0.0074
1195.00,0.0074
1194.00,0.0074
1193.00,0.0075
1192.00,0.0075
1191.00,0.0075
1190.00,0.0075
1189.00,0.0074
1188.00,0.0074
1187.00,0.0075
1186.00,0.0075
1185.00,0.0076
1184.00,0.0078
1183.00,0.0079
1182.00,0.0082
1181.00,0.0085
1180.00,0.0088
1179.00,0.0093
1178.00,0.0099
1177.00,0.0107
1176.00,0.0118
1175.00,0.0134
1174.00,0.0155
1173.00,0.0182
1172.00,0.0215
1171.00,0.0251
1170.00,0.0286
1169.00,0.0315
1168.00,0.0331
1167.00,0.0333
1166.00,0.0323
1165.00,0.0305
1164.00,0.0284
1163.00,0.0265
1162.00,0.0248
1161.00,0.0234
1160.00,0.0223
1159.00,0.0214
1158.00,0.0208
1157.00,0.0203
1156.00,0.0199
1155.00,0.0196
1154.00,0.0194
1153.00,0.0191
1152.00,0.0186
1151.00,0.0179
1150.00,0.0170
1149.00,0.0159
1148.00,0.0149
1147.00,0.0139
1146.00,0.0131
1145.00,0.0124
1144.00,0.0117
1143.00,0.0111
1142.00,0.0105
1141.00,0.0100
1140.00,0.0095
1139.00,0.0091
1138.00,0.0087
1137.00,0.0084
1136.00,0.0081
1135.00,0.0078
1134.00,0.0076
1133.00,0.0075
1132.00,0.0073
1131.00,0.0072
1130.00,0.0072
1129.00,0.0072
1128.00,0.0072
1127.00,0.0071
1126.00,0.0071
1125.00,0.0072
1124.00,0.0072
1123.00,0.0072
1122.00,0.0073
1121.00,0.0073
1120.00,0.0074
1119.00,0.0075
1118.00,0.0076
1117.00,0.0077
1116.00,0.0078
1115.00,0.0079
1114.00,0.0080
1113.00,0.0081
1112.00,0.0083
1111.00,0.0086
1110.00,0.0089
1109.00,0.0093
1108.00,0.0097
1107.00,0.0102
1106.00,0.0108
1105.00,0.0114
1104.00,0.0119
1103.00,0.0122
1102.00,0.0122
1101.00,0.0119
1100.00,0.0114
1099.00,0.0107
1098.00,0.0101
1097.00,0.0095
1096.00,0.0091
1095.00,0.0088
1094.00,0.0086
1093.00,0.0084
1092.00,0.0082
1091.00,0.0080
1090.00,0.0079
1089.00,0.0078
1088.00,0.0078
1087.00,0.0079
1086.00,0.0079
1085.00,0.0080
1084.00,0.0079
1083.00,0.0079
1082.00,0.0078
1081.00,0.0077
1080.00,0.0076
1079.00,0.0074
1078.00,0.0074
1077.00,0.0073
1076.00,0.0073
1075.00,0.0073
1074.00,0.0073
1073.00,0.0072
1072.00,0.0071
1071.00,0.0070
1070.00,0.0070
1069.00,0.0071
1068.00,0.0072
1067.00,0.0073
1066.00,0.0074
1065.00,0.0074
1064.00,0.0075
1063.00,0.0076
1062.00,0.0077
1061.00,0.0078
1060.00,0.0079
1059.00,0.0079
1058.00,0.0080
1057.00,0.0081
1056.00,0.0083
1055.00,0.0085
1054.00,0.0088
1053.00,0.0090
1052.00,0.0093
1051.00,0.0096
1050.00,0.0101
1049.00,0.0106
1048.00,0.0112
1047.00,0.0117
1046.00,0.0121
1045.00,0.0123
1044.00,0.0123
1043.00,0.0121
1042.00,0.0118
1041.00,0.0116
1040.00,0.0114
1039.00,0.0113
1038.00,0.0114
1037.00,0.0114
1036.00,0.0114
1035.00,0.0113
1034.00,0.0111
1033.00,0.0109
1032.00,0.0108
1031.00,0.0107
1030.00,0.0107
1029.00,0.0108
1028.00,0.0109
1027.00,0.0110
1026.00,0.0112
1025.00,0.0113
1024.00,0.0115
1023.00,0.0116
1022.00,0.0118
1021.00,0.0120
1020.00,0.0122
1019.00,0.0124
1018.00,0.0126
1017.00,0.0127
1016.00,0.0128
1015.00,0.0129
1014.00,0.0129
1013.00,0.0129
1012.00,0.0129
1011.00,0.0130
1010.00,0.0131
1009.00,0.0134
1008.00,0.0137
1007.00,0.0143
1006.00,0.0151
1005.00,0.0162
1004.00,0.0179
1003.00,0.0202
1002.00,0.0234
1001.00,0.0274
1000.00,0.0318
999.00,0.0356
998.00,0.0374
997.00,0.0368
996.00,0.0338
995.00,0.0295
994.00,0.0250
993.00,0.0210
992.00,0.0180
991.00,0.0159
990.00,0.0145
989.00,0.0135
988.00,0.0128
987.00,0.0124
986.00,0.0123
985.00,0.0123
984.00,0.0127
983.00,0.0134
982.00,0.0145
981.00,0.0161
980.00,0.0184
979.00,0.0213
978.00,0.0250
977.00,0.0295
976.00,0.0344
975.00,0.0391
974.00,0.0428
973.00,0.0442
972.00,0.0428
971.00,0.0389
970.00,0.0333
969.00,0.0276
968.00,0.0226
967.00,0.0188
966.00,0.0161
965.00,0.0142
964.00,0.0129
963.00,0.0119
962.00,0.0112
961.00,0.0106
960.00,0.0101
959.00,0.0096
958.00,0.0092
957.00,0.0089
956.00,0.0086
955.00,0.0083
954.00,0.0081
953.00,0.0080
952.00,0.0079
951.00,0.0079
950.00,0.0079
949.00,0.0079
948.00,0.0078
947.00,0.0078
946.00,0.0078
945.00,0.0079
944.00,0.0082
943.00,0.0085
942.00,0.0089
941.00,0.0092
940.00,0.0092
939.00,0.0090
938.00,0.0086
937.00,0.0081
936.00,0.0077
935.00,0.0072
934.00,0.0068
933.00,0.0065
932.00,0.0063
931.00,0.0061
930.00,0.0061
929.00,0.0061
928.00,0.0060
927.00,0.0060
926.00,0.0060
925.00,0.0061
924.00,0.0061
923.00,0.0060
922.00,0.0059
921.00,0.0058
920.00,0.0057
919.00,0.0056
918.00,0.0057
917.00,0.0057
916.00,0.0058
915.00,0.0059
914.00,0.0060
913.00,0.0061
912.00,0.0063
911.00,0.0064
910.00,0.0067
909.00,0.0070
908.00,0.0074
907.00,0.0078
906.00,0.0084
905.00,0.0093
904.00,0.0106
903.00,0.0123
902.00,0.0141
901.00,0.0157
900.00,0.0167
899.00,0.0170
898.00,0.0164
897.00,0.0150
896.00,0.0133
895.00,0.0116
894.00,0.0103
893.00,0.0093
892.00,0.0085
891.00,0.0080
890.00,0.0077
889.00,0.0075
888.00,0.0073
887.00,0.0072
886.00,0.0071
885.00,0.0071
884.00,0.0070
883.00,0.0070
882.00,0.0069
881.00,0.0069
880.00,0.0068
879.00,0.0068
878.00,0.0069
877.00,0.0069
876.00,0.0070
875.00,0.0071
874.00,0.0071
873.00,0.0071
872.00,0.0071
871.00,0.0072
870.00,0.0072
869.00,0.0072
868.00,0.0073
867.00,0.0074
866.00,0.0076
865.00,0.0077
864.00,0.0078
863.00,0.0079
862.00,0.0079
861.00,0.0079
860.00,0.0079
859.00,0.0080
858.00,0.0082
857.00,0.0084
856.00,0.0087
855.00,0.0089
854.00,0.0091
853.00,0.0094
852.00,0.0097
851.00,0.0101
850.00,0.0106
849.00,0.0113
848.00,0.0123
847.00,0.0137
846.00,0.0158
845.00,0.0191
844.00,0.0239
843.00,0.0296
842.00,0.0345
841.00,0.0365
840.00,0.0343
839.00,0.0292
838.00,0.0233
837.00,0.0187
836.00,0.0156
835.00,0.0138
834.00,0.0127
833.00,0.0120
832.00,0.0115
831.00,0.0111
830.00,0.0107
829.00,0.0104
828.00,0.0102
827.00,0.0099
826.00,0.0097
825.00,0.0094
824.00,0.0093
823.00,0.0093
822.00,0.0095
821.00,0.0099
820.00,0.0102
819.00,0.0106
818.00,0.0111
817.00,0.0117
816.00,0.0125
815.00,0.0135
814.00,0.0149
813.00,0.0166
812.00,0.0184
811.00,0.0201
810.00,0.0213
809.00,0.0218
808.00,0.0214
807.00,0.0202
806.00,0.0185
805.00,0.0168
804.00,0.0154
803.00,0.0142
802.00,0.0132
801.00,0.0123
800.00,0.0116
799.00,0.0111
798.00,0.0107
797.00,0.0104
796.00,0.0100
795.00,0.0096
794.00,0.0092
793.00,0.0088
792.00,0.0086
791.00,0.0083
790.00,0.0081
789.00,0.0079
788.00,0.0075
787.00,0.0071
786.00,0.0068
785.00,0.0066
784.00,0.0066
783.00,0.0067
782.00,0.0067
781.00,0.0067
780.00,0.0066
779.00,0.0064
778.00,0.0062
777.00,0.0062
776.00,0.0062
775.00,0.0063
774.00,0.0063
773.00,0.0062
772.00,0.0062
771.00,0.0061
770.00,0.0061
769.00,0.0060
768.00,0.0060
767.00,0.0060
766.00,0.0060
765.00,0.0059
764.00,0.0059
763.00,0.0060
762.00,0.0061
761.00,0.0063
760.00,0.0065
759.00,0.0066
758.00,0.0067
757.00,0.0067
756.00,0.0067
755.00,0.0067
754.00,0.0068
753.00,0.0069
752.00,0.0070
751.00,0.0072
750.00,0.0074
749.00,0.0075
748.00,0.0077
747.00,0.0078
746.00,0.0079
745.00,0.0081
744.00,0.0083
743.00,0.0085
742.00,0.0087
741.00,0.0089
740.00,0.0092
739.00,0.0094
738.00,0.0097
737.00,0.0100
736.00,0.0104
735.00,0.0110
734.00,0.0116
733.00,0.0123
732.00,0.0130
731.00,0.0136
730.00,0.0139
729.00,0.0140
728.00,0.0140
727.00,0.0140
726.00,0.0143
725.00,0.0147
724.00,0.0152
723.00,0.0158
722.00,0.0163
721.00,0.0166
720.00,0.0165
719.00,0.0158
718.00,0.0148
717.00,0.0137
716.00,0.0128
715.00,0.0122
714.00,0.0116
713.00,0.0111
712.00,0.0105
711.00,0.0101
710.00,0.0098
709.00,0.0096
708.00,0.0095
707.00,0.0093
706.00,0.0092
705.00,0.0091
704.00,0.0090
703.00,0.0091
702.00,0.0092
701.00,0.0092
700.00,0.0091
699.00,0.0090
698.00,0.0089
697.00,0.0088
696.00,0.0089
695.00,0.0090
694.00,0.0090
693.00,0.0091
692.00,0.0092
691.00,0.0093
690.00,0.0092
689.00,0.0092
688.00,0.0091
687.00,0.0091
686.00,0.0090
685.00,0.0089
684.00,0.0087
683.00,0.0086
682.00,0.0086
681.00,0.0085
680.00,0.0085
679.00,0.0086
678.00,0.0087
677.00,0.0089
676.00,0.0090
675.00,0.0091
674.00,0.0093
673.00,0.0094
672.00,0.0096
671.00,0.0097
670.00,0.0099
669.00,0.0099
668.00,0.0097
667.00,0.0094
666.00,0.0090
665.00,0.0088
664.00,0.0088
663.00,0.0087
662.00,0.0086
661.00,0.0086
660.00,0.0086
659.00,0.0085
658.00,0.0083
657.00,0.0081
656.00,0.0080
655.00,0.0079
654.00,0.0079
653.00,0.0078
652.00,0.0078
651.00,0.0078
650.00,0.0078
649.00,0.0077
648.00,0.0077
647.00,0.0078
646.00,0.0079
645.00,0.0078
644.00,0.0076
643.00,0.0075
642.00,0.0074
641.00,0.0075
640.00,0.0076
639.00,0.0078
638.00,0.0079
637.00,0.0078
636.00,0.0075
635.00,0.0073
634.00,0.0072
633.00,0.0074
632.00,0.0076
631.00,0.0078
630.00,0.0079
629.00,0.0078
628.00,0.0078
627.00,0.0078
626.00,0.0079
625.00,0.0081
624.00,0.0082
623.00,0.0083
622.00,0.0082
621.00,0.0079
620.00,0.0076
619.00,0.0075
618.00,0.0076
617.00,0.0079
616.00,0.0082
615.00,0.0084
614.00,0.0084
613.00,0.0082
612.00,0.0079
611.00,0.0077
610.00,0.0074
609.00,0.0073
608.00,0.0072
607.00,0.0073
606.00,0.0075
605.00,0.0076
604.00,0.0077
603.00,0.0077
602.00,0.0079
601.00,0.0082
600.00,0.0082
599.00,0.0080
598.00,0.0077
597.00,0.0076
596.00,0.0076
595.00,0.0078
594.00,0.0077
593.00,0.0072
592.00,0.0068
591.00,0.0069
590.00,0.0074
589.00,0.0079
588.00,0.0082
587.00,0.0083
586.00,0.0083
585.00,0.0083
584.00,0.0083
583.00,0.0081
582.00,0.0078
581.00,0.0075
580.00,0.0073
579.00,0.0072
578.00,0.0074
577.00,0.0075
576.00,0.0075
575.00,0.0077
574.00,0.0079
573.00,0.0080
572.00,0.0081
571.00,0.0081
570.00,0.0082
569.00,0.0084
568.00,0.0085
567.00,0.0084
566.00,0.0081
565.00,0.0078
564.00,0.0077
563.00,0.0076
562.00,0.0077
561.00,0.0078
560.00,0.0080
559.00,0.0082
558.00,0.0083
557.00,0.0084
556.00,0.0084
555.00,0.0083
554.00,0.0081
553.00,0.0078
552.00,0.0077
551.00,0.0076
550.00,0.0075
549.00,0.0075
548.00,0.0075
547.00,0.0077
546.00,0.0080
545.00,0.0085
544.00,0.0090
543.00,0.0095
542.00,0.0100
541.00,0.0103
540.00,0.0106
539.00,0.0108
538.00,0.0107
537.00,0.0106
536.00,0.0106
535.00,0.0110
534.00,0.0115
533.00,0.0118
532.00,0.0118
531.00,0.0115
530.00,0.0113
529.00,0.0111
528.00,0.0110
527.00,0.0109
526.00,0.0109
525.00,0.0107
524.00,0.0104
523.00,0.0100
522.00,0.0097
521.00,0.0094
520.00,0.0090
519.00,0.0086
518.00,0.0085
517.00,0.0085
516.00,0.0084
515.00,0.0082
514.00,0.0080
513.00,0.0080
512.00,0.0082
511.00,0.0085
510.00,0.0087
509.00,0.0089
508.00,0.0091
507.00,0.0092
506.00,0.0089
505.00,0.0085
504.00,0.0081
503.00,0.0080
502.00,0.0081
501.00,0.0082
500.00,0.0084
499.00,0.0088
498.00,0.0091
497.00,0.0090
496.00,0.0084
495.00,0.0076
494.00,0.0071
493.00,0.0072
492.00,0.0077
491.00,0.0085
490.00,0.0090
489.00,0.0090
488.00,0.0089
487.00,0.0089
486.00,0.0090
485.00,0.0089
484.00,0.0086
483.00,0.0084
482.00,0.0084
481.00,0.0084
480.00,0.0084
479.00,0.0087
478.00,0.0096
477.00,0.0108
476.00,0.0119
475.00,0.0123
474.00,0.0119
473.00,0.0108
472.00,0.0095
471.00,0.0086
470.00,0.0090
469.00,0.0105
468.00,0.0128
467.00,0.0154
466.00,0.0175
465.00,0.0186
464.00,0.0192
463.00,0.0196
462.00,0.0196
461.00,0.0192
460.00,0.0185
459.00,0.0185
458.00,0.0193
457.00,0.0204
456.00,0.0211
455.00,0.0213
454.00,0.0211
453.00,0.0202
452.00,0.0186
451.00,0.0169
450.00,0.0156
