Created as New Dataset,Sample 014 By Administrator Date Thursday, September 04 2025
cm-1,A
4000.00,0.0010
3999.00,0.0010
3998.00,0.0010
3997.00,0.0010
3996.00,0.0010
3995.00,0.0010
3994.00,0.0011
3993.00,0.0011
3992.00,0.0011
3991.00,0.0011
3990.00,0.0011
3989.00,0.0011
3988.00,0.0011
3987.00,0.0011
3986.00,0.0011
3985.00,0.0011
3984.00,0.0011
3983.00,0.0010
3982.00,0.0010
3981.00,0.0010
3980.00,0.0009
3979.00,0.0009
3978.00,0.0009
3977.00,0.0008
3976.00,0.0008
3975.00,0.0008
3974.00,0.0008
3973.00,0.0008
3972.00,0.0008
3971.00,0.0008
3970.00,0.0009
3969.00,0.0009
3968.00,0.0009
3967.00,0.0009
3966.00,0.0009
3965.00,0.0009
3964.00,0.0009
3963.00,0.0008
3962.00,0.0008
3961.00,0.0008
3960.00,0.0008
3959.00,0.0008
3958.00,0.0008
3957.00,0.0008
3956.00,0.0008
3955.00,0.0008
3954.00,0.0008
3953.00,0.0008
3952.00,0.0008
3951.00,0.0008
3950.00,0.0008
3949.00,0.0008
3948.00,0.0008
3947.00,0.0008
3946.00,0.0008
3945.00,0.0008
3944.00,0.0008
3943.00,0.0008
3942.00,0.0008
3941.00,0.0009
3940.00,0.0009
3939.00,0.0009
3938.00,0.0009
3937.00,0.0010
3936.00,0.0010
3935.00,0.0010
3934.00,0.0009
3933.00,0.0009
3932.00,0.0008
3931.00,0.0008
3930.00,0.0007
3929.00,0.0007
3928.00,0.0007
3927.00,0.0007
3926.00,0.0007
3925.00,0.0008
3924.00,0.0009
3923.00,0.0009
3922.00,0.0009
3921.00,0.0009
3920.00,0.0009
3919.00,0.0009
3918.00,0.0009
3917.00,0.0009
3916.00,0.0009
3915.00,0.0009
3914.00,0.0009
3913.00,0.0008
3912.00,0.0008
3911.00,0.0008
3910.00,0.0009
3909.00,0.0009
3908.00,0.0009
3907.00,0.0009
3906.00,0.0009
3905.00,0.0009
3904.00,0.0009
3903.00,0.0008
3902.00,0.0008
3901.00,0.0007
3900.00,0.0007
3899.00,0.0007
3898.00,0.0007
3897.00,0.0007
3896.00,0.0007
3895.00,0.0007
3894.00,0.0007
3893.00,0.0007
3892.00,0.0008
3891.00,0.0008
3890.00,0.0008
3889.00,0.0007
3888.00,0.0007
3887.00,0.0007
3886.00,0.0007
3885.00,0.0008
3884.00,0.0008
3883.00,0.0007
3882.00,0.0008
3881.00,0.0008
3880.00,0.0008
3879.00,0.0008
3878.00,0.0008
3877.00,0.0008
3876.00,0.0008
3875.00,0.0008
3874.00,0.0008
3873.00,0.0008
3872.00,0.0008
3871.00,0.0008
3870.00,0.0008
3869.00,0.0008
3868.00,0.0007
3867.00,0.0007
3866.00,0.0007
3865.00,0.0007
3864.00,0.0007
3863.00,0.0007
3862.00,0.0007
3861.00,0.0007
3860.00,0.0007
3859.00,0.0008
3858.00,0.0008
3857.00,0.0008
3856.00,0.0008
3855.00,0.0008
3854.00,0.0008
3853.00,0.0007
3852.00,0.0007
3851.00,0.0007
3850.00,0.0007
3849.00,0.0007
3848.00,0.0008
3847.00,0.0008
3846.00,0.0008
3845.00,0.0008
3844.00,0.0008
3843.00,0.0009
3842.00,0.0009
3841.00,0.0008
3840.00,0.0008
3839.00,0.0007
3838.00,0.0007
3837.00,0.0006
3836.00,0.0006
3835.00,0.0007
3834.00,0.0007
3833.00,0.0007
3832.00,0.0008
3831.00,0.0008
3830.00,0.0008
3829.00,0.0008
3828.00,0.0008
3827.00,0.0007
3826.00,0.0007
3825.00,0.0007
3824.00,0.0007
3823.00,0.0007
3822.00,0.0008
3821.00,0.0008
3820.00,0.0008
3819.00,0.0007
3818.00,0.0006
3817.00,0.0006
3816.00,0.0007
3815.00,0.0007
3814.00,0.0007
3813.00,0.0008
3812.00,0.0008
3811.00,0.0008
3810.00,0.0008
3809.00,0.0008
3808.00,0.0008
3807.00,0.0008
3806.00,0.0008
3805.00,0.0008
3804.00,0.0008
3803.00,0.0007
3802.00,0.0007
3801.00,0.0007
3800.00,0.0007
3799.00,0.0006
3798.00,0.0006
3797.00,0.0007
3796.00,0.0007
3795.00,0.0007
3794.00,0.0007
3793.00,0.0007
3792.00,0.0007
3791.00,0.0007
3790.00,0.0007
3789.00,0.0007
3788.00,0.0008
3787.00,0.0008
3786.00,0.0008
3785.00,0.0008
3784.00,0.0008
3783.00,0.0007
3782.00,0.0007
3781.00,0.0006
3780.00,0.0006
3779.00,0.0007
3778.00,0.0007
3777.00,0.0008
3776.00,0.0008
3775.00,0.0008
3774.00,0.0008
3773.00,0.0008
3772.00,0.0008
3771.00,0.0008
3770.00,0.0009
3769.00,0.0008
3768.00,0.0008
3767.00,0.0008
3766.00,0.0008
3765.00,0.0008
3764.00,0.0008
3763.00,0.0008
3762.00,0.0008
3761.00,0.0008
3760.00,0.0008
3759.00,0.0008
3758.00,0.0008
3757.00,0.0008
3756.00,0.0008
3755.00,0.0008
3754.00,0.0008
3753.00,0.0008
3752.00,0.0009
3751.00,0.0009
3750.00,0.0008
3749.00,0.0007
3748.00,0.0007
3747.00,0.0006
3746.00,0.0006
3745.00,0.0007
3744.00,0.0007
3743.00,0.0006
3742.00,0.0006
3741.00,0.0006
3740.00,0.0006
3739.00,0.0006
3738.00,0.0006
3737.00,0.0005
3736.00,0.0005
3735.00,0.0005
3734.00,0.0005
3733.00,0.0005
3732.00,0.0005
3731.00,0.0006
3730.00,0.0005
3729.00,0.0005
3728.00,0.0005
3727.00,0.0005
3726.00,0.0005
3725.00,0.0005
3724.00,0.0005
3723.00,0.0005
3722.00,0.0005
3721.00,0.0005
3720.00,0.0005
3719.00,0.0006
3718.00,0.0006
3717.00,0.0007
3716.00,0.0007
3715.00,0.0007
3714.00,0.0007
3713.00,0.0007
3712.00,0.0007
3711.00,0.0007
3710.00,0.0006
3709.00,0.0005
3708.00,0.0005
3707.00,0.0004
3706.00,0.0004
3705.00,0.0005
3704.00,0.0005
3703.00,0.0005
3702.00,0.0005
3701.00,0.0005
3700.00,0.0005
3699.00,0.0005
3698.00,0.0005
3697.00,0.0005
3696.00,0.0005
3695.00,0.0005
3694.00,0.0005
3693.00,0.0005
3692.00,0.0005
3691.00,0.0005
3690.00,0.0005
3689.00,0.0005
3688.00,0.0005
3687.00,0.0005
3686.00,0.0005
3685.00,0.0005
3684.00,0.0005
3683.00,0.0005
3682.00,0.0006
3681.00,0.0006
3680.00,0.0007
3679.00,0.0008
3678.00,0.0008
3677.00,0.0008
3676.00,0.0007
3675.00,0.0006
3674.00,0.0005
3673.00,0.0004
3672.00,0.0003
3671.00,0.0003
3670.00,0.0003
3669.00,0.0003
3668.00,0.0004
3667.00,0.0004
3666.00,0.0005
3665.00,0.0005
3664.00,0.0005
3663.00,0.0005
3662.00,0.0005
3661.00,0.0005
3660.00,0.0005
3659.00,0.0005
3658.00,0.0005
3657.00,0.0006
3656.00,0.0006
3655.00,0.0005
3654.00,0.0005
3653.00,0.0005
3652.00,0.0005
3651.00,0.0005
3650.00,0.0005
3649.00,0.0005
3648.00,0.0005
3647.00,0.0004
3646.00,0.0004
3645.00,0.0004
3644.00,0.0005
3643.00,0.0005
3642.00,0.0005
3641.00,0.0006
3640.00,0.0006
3639.00,0.0006
3638.00,0.0005
3637.00,0.0005
3636.00,0.0005
3635.00,0.0005
3634.00,0.0006
3633.00,0.0006
3632.00,0.0006
3631.00,0.0005
3630.00,0.0005
3629.00,0.0005
3628.00,0.0004
3627.00,0.0004
3626.00,0.0004
3625.00,0.0004
3624.00,0.0005
3623.00,0.0005
3622.00,0.0005
3621.00,0.0005
3620.00,0.0004
3619.00,0.0004
3618.00,0.0004
3617.00,0.0004
3616.00,0.0004
3615.00,0.0005
3614.00,0.0005
3613.00,0.0006
3612.00,0.0006
3611.00,0.0005
3610.00,0.0005
3609.00,0.0005
3608.00,0.0005
3607.00,0.0005
3606.00,0.0005
3605.00,0.0005
3604.00,0.0005
3603.00,0.0005
3602.00,0.0005
3601.00,0.0005
3600.00,0.0005
3599.00,0.0005
3598.00,0.0006
3597.00,0.0006
3596.00,0.0007
3595.00,0.0007
3594.00,0.0007
3593.00,0.0007
3592.00,0.0006
3591.00,0.0006
3590.00,0.0006
3589.00,0.0006
3588.00,0.0006
3587.00,0.0006
3586.00,0.0006
3585.00,0.0006
3584.00,0.0006
3583.00,0.0007
3582.00,0.0007
3581.00,0.0007
3580.00,0.0007
3579.00,0.0007
3578.00,0.0007
3577.00,0.0007
3576.00,0.0007
3575.00,0.0007
3574.00,0.0007
3573.00,0.0007
3572.00,0.0008
3571.00,0.0008
3570.00,0.0008
3569.00,0.0007
3568.00,0.0007
3567.00,0.0007
3566.00,0.0007
3565.00,0.0007
3564.00,0.0007
3563.00,0.0007
3562.00,0.0008
3561.00,0.0008
3560.00,0.0008
3559.00,0.0008
3558.00,0.0009
3557.00,0.0009
3556.00,0.0010
3555.00,0.0010
3554.00,0.0009
3553.00,0.0009
3552.00,0.0010
3551.00,0.0010
3550.00,0.0010
3549.00,0.0011
3548.00,0.0011
3547.00,0.0011
3546.00,0.0011
3545.00,0.0011
3544.00,0.0011
3543.00,0.0012
3542.00,0.0012
3541.00,0.0012
3540.00,0.0012
3539.00,0.0011
3538.00,0.0011
3537.00,0.0011
3536.00,0.0012
3535.00,0.0012
3534.00,0.0012
3533.00,0.0012
3532.00,0.0012
3531.00,0.0012
3530.00,0.0012
3529.00,0.0012
3528.00,0.0013
3527.00,0.0013
3526.00,0.0013
3525.00,0.0012
3524.00,0.0012
3523.00,0.0013
3522.00,0.0013
3521.00,0.0013
3520.00,0.0013
3519.00,0.0013
3518.00,0.0013
3517.00,0.0014
3516.00,0.0014
3515.00,0.0014
3514.00,0.0014
3513.00,0.0014
3512.00,0.0015
3511.00,0.0015
3510.00,0.0015
3509.00,0.0015
3508.00,0.0015
3507.00,0.0015
3506.00,0.0015
3505.00,0.0015
3504.00,0.0015
3503.00,0.0015
3502.00,0.0015
3501.00,0.0015
3500.00,0.0015
3499.00,0.0015
3498.00,0.0015
3497.00,0.0016
3496.00,0.0016
3495.00,0.0015
3494.00,0.0016
3493.00,0.0016
3492.00,0.0016
3491.00,0.0017
3490.00,0.0017
3489.00,0.0017
3488.00,0.0018
3487.00,0.0018
3486.00,0.0018
3485.00,0.0018
3484.00,0.0018
3483.00,0.0018
3482.00,0.0018
3481.00,0.0018
3480.00,0.0018
3479.00,0.0019
3478.00,0.0019
3477.00,0.0019
3476.00,0.0019
3475.00,0.0020
3474.00,0.0020
3473.00,0.0020
3472.00,0.0020
3471.00,0.0021
3470.00,0.0021
3469.00,0.0020
3468.00,0.0020
3467.00,0.0020
3466.00,0.0020
3465.00,0.0020
3464.00,0.0021
3463.00,0.0021
3462.00,0.0021
3461.00,0.0021
3460.00,0.0021
3459.00,0.0021
3458.00,0.0022
3457.00,0.0022
3456.00,0.0022
3455.00,0.0022
3454.00,0.0022
3453.00,0.0022
3452.00,0.0022
3451.00,0.0023
3450.00,0.0023
3449.00,0.0023
3448.00,0.0023
3447.00,0.0023
3446.00,0.0023
3445.00,0.0023
3444.00,0.0023
3443.00,0.0023
3442.00,0.0023
3441.00,0.0024
3440.00,0.0024
3439.00,0.0024
3438.00,0.0025
3437.00,0.0025
3436.00,0.0025
3435.00,0.0025
3434.00,0.0025
3433.00,0.0025
3432.00,0.0025
3431.00,0.0026
3430.00,0.0026
3429.00,0.0026
3428.00,0.0026
3427.00,0.0026
3426.00,0.0026
3425.00,0.0026
3424.00,0.0026
3423.00,0.0026
3422.00,0.0026
3421.00,0.0027
3420.00,0.0027
3419.00,0.0028
3418.00,0.0028
3417.00,0.0028
3416.00,0.0028
3415.00,0.0028
3414.00,0.0028
3413.00,0.0028
3412.00,0.0028
3411.00,0.0028
3410.00,0.0028
3409.00,0.0028
3408.00,0.0028
3407.00,0.0028
3406.00,0.0028
3405.00,0.0028
3404.00,0.0028
3403.00,0.0028
3402.00,0.0029
3401.00,0.0029
3400.00,0.0029
3399.00,0.0029
3398.00,0.0029
3397.00,0.0029
3396.00,0.0029
3395.00,0.0029
3394.00,0.0029
3393.00,0.0029
3392.00,0.0029
3391.00,0.0029
3390.00,0.0029
3389.00,0.0030
3388.00,0.0029
3387.00,0.0029
3386.00,0.0029
3385.00,0.0030
3384.00,0.0030
3383.00,0.0030
3382.00,0.0030
3381.00,0.0030
3380.00,0.0030
3379.00,0.0030
3378.00,0.0029
3377.00,0.0029
3376.00,0.0029
3375.00,0.0030
3374.00,0.0030
3373.00,0.0030
3372.00,0.0030
3371.00,0.0030
3370.00,0.0030
3369.00,0.0030
3368.00,0.0030
3367.00,0.0031
3366.00,0.0031
3365.00,0.0031
3364.00,0.0031
3363.00,0.0030
3362.00,0.0030
3361.00,0.0030
3360.00,0.0030
3359.00,0.0030
3358.00,0.0031
3357.00,0.0031
3356.00,0.0031
3355.00,0.0031
3354.00,0.0031
3353.00,0.0031
3352.00,0.0031
3351.00,0.0031
3350.00,0.0031
3349.00,0.0031
3348.00,0.0032
3347.00,0.0032
3346.00,0.0032
3345.00,0.0032
3344.00,0.0032
3343.00,0.0031
3342.00,0.0031
3341.00,0.0031
3340.00,0.0031
3339.00,0.0032
3338.00,0.0032
3337.00,0.0032
3336.00,0.0031
3335.00,0.0031
3334.00,0.0031
3333.00,0.0031
3332.00,0.0031
3331.00,0.0031
3330.00,0.0031
3329.00,0.0031
3328.00,0.0031
3327.00,0.0031
3326.00,0.0030
3325.00,0.0030
3324.00,0.0030
3323.00,0.0030
3322.00,0.0030
3321.00,0.0031
3320.00,0.0031
3319.00,0.0031
3318.00,0.0031
3317.00,0.0031
3316.00,0.0032
3315.00,0.0032
3314.00,0.0033
3313.00,0.0033
3312.00,0.0033
3311.00,0.0033
3310.00,0.0033
3309.00,0.0034
3308.00,0.0034
3307.00,0.0035
3306.00,0.0036
3305.00,0.0036
3304.00,0.0036
3303.00,0.0036
3302.00,0.0036
3301.00,0.0037
3300.00,0.0037
3299.00,0.0036
3298.00,0.0036
3297.00,0.0035
3296.00,0.0034
3295.00,0.0034
3294.00,0.0033
3293.00,0.0032
3292.00,0.0032
3291.00,0.0032
3290.00,0.0031
3289.00,0.0031
3288.00,0.0031
3287.00,0.0031
3286.00,0.0031
3285.00,0.0031
3284.00,0.0031
3283.00,0.0030
3282.00,0.0030
3281.00,0.0030
3280.00,0.0030
3279.00,0.0030
3278.00,0.0030
3277.00,0.0030
3276.00,0.0030
3275.00,0.0029
3274.00,0.0029
3273.00,0.0029
3272.00,0.0029
3271.00,0.0029
3270.00,0.0029
3269.00,0.0029
3268.00,0.0029
3267.00,0.0029
3266.00,0.0028
3265.00,0.0028
3264.00,0.0028
3263.00,0.0028
3262.00,0.0028
3261.00,0.0028
3260.00,0.0028
3259.00,0.0028
3258.00,0.0028
3257.00,0.0028
3256.00,0.0027
3255.00,0.0027
3254.00,0.0027
3253.00,0.0027
3252.00,0.0027
3251.00,0.0026
3250.00,0.0026
3249.00,0.0026
3248.00,0.0026
3247.00,0.0026
3246.00,0.0026
3245.00,0.0026
3244.00,0.0026
3243.00,0.0027
3242.00,0.0027
3241.00,0.0027
3240.00,0.0027
3239.00,0.0027
3238.00,0.0027
3237.00,0.0027
3236.00,0.0027
3235.00,0.0026
3234.00,0.0026
3233.00,0.0026
3232.00,0.0027
3231.00,0.0027
3230.00,0.0027
3229.00,0.0027
3228.00,0.0027
3227.00,0.0028
3226.00,0.0028
3225.00,0.0028
3224.00,0.0029
3223.00,0.0028
3222.00,0.0028
3221.00,0.0028
3220.00,0.0029
3219.00,0.0029
3218.00,0.0029
3217.00,0.0030
3216.00,0.0030
3215.00,0.0030
3214.00,0.0030
3213.00,0.0030
3212.00,0.0030
3211.00,0.0031
3210.00,0.0031
3209.00,0.0031
3208.00,0.0032
3207.00,0.0032
3206.00,0.0032
3205.00,0.0032
3204.00,0.0033
3203.00,0.0033
3202.00,0.0033
3201.00,0.0033
3200.00,0.0033
3199.00,0.0033
3198.00,0.0033
3197.00,0.0033
3196.00,0.0033
3195.00,0.0033
3194.00,0.0033
3193.00,0.0033
3192.00,0.0033
3191.00,0.0033
3190.00,0.0032
3189.00,0.0032
3188.00,0.0032
3187.00,0.0032
3186.00,0.0032
3185.00,0.0032
3184.00,0.0031
3183.00,0.0031
3182.00,0.0031
3181.00,0.0031
3180.00,0.0031
3179.00,0.0031
3178.00,0.0030
3177.00,0.0030
3176.00,0.0030
3175.00,0.0030
3174.00,0.0030
3173.00,0.0030
3172.00,0.0030
3171.00,0.0030
3170.00,0.0029
3169.00,0.0029
3168.00,0.0029
3167.00,0.0029
3166.00,0.0029
3165.00,0.0029
3164.00,0.0029
3163.00,0.0029
3162.00,0.0029
3161.00,0.0028
3160.00,0.0028
3159.00,0.0028
3158.00,0.0028
3157.00,0.0028
3156.00,0.0029
3155.00,0.0029
3154.00,0.0029
3153.00,0.0029
3152.00,0.0029
3151.00,0.0029
3150.00,0.0029
3149.00,0.0029
3148.00,0.0028
3147.00,0.0028
3146.00,0.0029
3145.00,0.0029
3144.00,0.0029
3143.00,0.0029
3142.00,0.0028
3141.00,0.0028
3140.00,0.0028
3139.00,0.0028
3138.00,0.0028
3137.00,0.0028
3136.00,0.0028
3135.00,0.0028
3134.00,0.0028
3133.00,0.0028
3132.00,0.0028
3131.00,0.0028
3130.00,0.0027
3129.00,0.0027
3128.00,0.0027
3127.00,0.0027
3126.00,0.0027
3125.00,0.0026
3124.00,0.0026
3123.00,0.0026
3122.00,0.0025
3121.00,0.0025
3120.00,0.0025
3119.00,0.0025
3118.00,0.0025
3117.00,0.0025
3116.00,0.0025
3115.00,0.0025
3114.00,0.0025
3113.00,0.0024
3112.00,0.0024
3111.00,0.0024
3110.00,0.0024
3109.00,0.0024
3108.00,0.0024
3107.00,0.0025
3106.00,0.0025
3105.00,0.0024
3104.00,0.0024
3103.00,0.0023
3102.00,0.0023
3101.00,0.0023
3100.00,0.0023
3099.00,0.0024
3098.00,0.0024
3097.00,0.0024
3096.00,0.0024
3095.00,0.0024
3094.00,0.0024
3093.00,0.0024
3092.00,0.0023
3091.00,0.0023
3090.00,0.0023
3089.00,0.0024
3088.00,0.0024
3087.00,0.0024
3086.00,0.0024
3085.00,0.0023
3084.00,0.0023
3083.00,0.0024
3082.00,0.0024
3081.00,0.0024
3080.00,0.0024
3079.00,0.0024
3078.00,0.0024
3077.00,0.0024
3076.00,0.0025
3075.00,0.0025
3074.00,0.0025
3073.00,0.0025
3072.00,0.0025
3071.00,0.0025
3070.00,0.0024
3069.00,0.0024
3068.00,0.0025
3067.00,0.0025
3066.00,0.0025
3065.00,0.0025
3064.00,0.0026
3063.00,0.0026
3062.00,0.0026
3061.00,0.0026
3060.00,0.0026
3059.00,0.0026
3058.00,0.0026
3057.00,0.0026
3056.00,0.0026
3055.00,0.0026
3054.00,0.0026
3053.00,0.0026
3052.00,0.0027
3051.00,0.0027
3050.00,0.0027
3049.00,0.0028
3048.00,0.0028
3047.00,0.0028
3046.00,0.0028
3045.00,0.0028
3044.00,0.0028
3043.00,0.0028
3042.00,0.0028
3041.00,0.0029
3040.00,0.0029
3039.00,0.0029
3038.00,0.0030
3037.00,0.0030
3036.00,0.0031
3035.00,0.0032
3034.00,0.0032
3033.00,0.0032
3032.00,0.0033
3031.00,0.0033
3030.00,0.0033
3029.00,0.0034
3028.00,0.0034
3027.00,0.0035
3026.00,0.0035
3025.00,0.0036
3024.00,0.0037
3023.00,0.0038
3022.00,0.0039
3021.00,0.0040
3020.00,0.0041
3019.00,0.0041
3018.00,0.0042
3017.00,0.0043
3016.00,0.0044
3015.00,0.0045
3014.00,0.0046
3013.00,0.0047
3012.00,0.0048
3011.00,0.0050
3010.00,0.0051
3009.00,0.0052
3008.00,0.0054
3007.00,0.0056
3006.00,0.0058
3005.00,0.0059
3004.00,0.0061
3003.00,0.0063
3002.00,0.0065
3001.00,0.0068
3000.00,0.0071
2999.00,0.0075
2998.00,0.0078
2997.00,0.0081
2996.00,0.0085
2995.00,0.0089
2994.00,0.0093
2993.00,0.0098
2992.00,0.0103
2991.00,0.0109
2990.00,0.0115
2989.00,0.0122
2988.00,0.0130
2987.00,0.0139
2986.00,0.0149
2985.00,0.0161
2984.00,0.0173
2983.00,0.0187
2982.00,0.0203
2981.00,0.0221
2980.00,0.0241
2979.00,0.0264
2978.00,0.0291
2977.00,0.0321
2976.00,0.0356
2975.00,0.0398
2974.00,0.0445
2973.00,0.0499
2972.00,0.0562
2971.00,0.0632
2970.00,0.0711
2969.00,0.0798
2968.00,0.0893
2967.00,0.0997
2966.00,0.1109
2965.00,0.1226
2964.00,0.1345
2963.00,0.1459
2962.00,0.1561
2961.00,0.1644
2960.00,0.1704
2959.00,0.1745
2958.00,0.1770
2957.00,0.1789
2956.00,0.1809
2955.00,0.1838
2954.00,0.1877
2953.00,0.1919
2952.00,0.1954
2951.00,0.1971
2950.00,0.1957
2949.00,0.1908
2948.00,0.1822
2947.00,0.1709
2946.00,0.1580
2945.00,0.1449
2944.00,0.1328
2943.00,0.1225
2942.00,0.1145
2941.00,0.1089
2940.00,0.1057
2939.00,0.1046
2938.00,0.1054
2937.00,0.1080
2936.00,0.1121
2935.00,0.1176
2934.00,0.1245
2933.00,0.1326
2932.00,0.1418
2931.00,0.1519
2930.00,0.1625
2929.00,0.1734
2928.00,0.1843
2927.00,0.1949
2926.00,0.2050
2925.00,0.2147
2924.00,0.2240
2923.00,0.2331
2922.00,0.2420
2921.00,0.2503
2920.00,0.2575
2919.00,0.2625
2918.00,0.2646
2917.00,0.2632
2916.00,0.2583
2915.00,0.2507
2914.00,0.2416
2913.00,0.2321
2912.00,0.2232
2911.00,0.2153
2910.00,0.2087
2909.00,0.2029
2908.00,0.1976
2907.00,0.1924
2906.00,0.1869
2905.00,0.1810
2904.00,0.1746
2903.00,0.1679
2902.00,0.1612
2901.00,0.1544
2900.00,0.1478
2899.00,0.1415
2898.00,0.1355
2897.00,0.1300
2896.00,0.1251
2895.00,0.1208
2894.00,0.1171
2893.00,0.1141
2892.00,0.1118
2891.00,0.1099
2890.00,0.1086
2889.00,0.1077
2888.00,0.1071
2887.00,0.1068
2886.00,0.1068
2885.00,0.1071
2884.00,0.1078
2883.00,0.1088
2882.00,0.1100
2881.00,0.1114
2880.00,0.1127
2879.00,0.1135
2878.00,0.1137
2877.00,0.1134
2876.00,0.1126
2875.00,0.1118
2874.00,0.1114
2873.00,0.1116
2872.00,0.1126
2871.00,0.1142
2870.00,0.1162
2869.00,0.1181
2868.00,0.1192
2867.00,0.1189
2866.00,0.1165
2865.00,0.1121
2864.00,0.1059
2863.00,0.0988
2862.00,0.0918
2861.00,0.0857
2860.00,0.0809
2859.00,0.0777
2858.00,0.0759
2857.00,0.0753
2856.00,0.0757
2855.00,0.0768
2854.00,0.0785
2853.00,0.0805
2852.00,0.0826
2851.00,0.0847
2850.00,0.0866
2849.00,0.0883
2848.00,0.0900
2847.00,0.0922
2846.00,0.0952
2845.00,0.0994
2844.00,0.1046
2843.00,0.1105
2842.00,0.1166
2841.00,0.1219
2840.00,0.1257
2839.00,0.1272
2838.00,0.1257
2837.00,0.1211
2836.00,0.1137
2835.00,0.1041
2834.00,0.0933
2833.00,0.0823
2832.00,0.0721
2831.00,0.0631
2830.00,0.0555
2829.00,0.0492
2828.00,0.0442
2827.00,0.0401
2826.00,0.0368
2825.00,0.0340
2824.00,0.0317
2823.00,0.0297
2822.00,0.0279
2821.00,0.0264
2820.00,0.0251
2819.00,0.0239
2818.00,0.0229
2817.00,0.0220
2816.00,0.0212
2815.00,0.0206
2814.00,0.0199
2813.00,0.0193
2812.00,0.0188
2811.00,0.0182
2810.00,0.0176
2809.00,0.0171
2808.00,0.0165
2807.00,0.0159
2806.00,0.0153
2805.00,0.0147
2804.00,0.0141
2803.00,0.0135
2802.00,0.0130
2801.00,0.0125
2800.00,0.0122
2799.00,0.0119
2798.00,0.0116
2797.00,0.0114
2796.00,0.0112
2795.00,0.0109
2794.00,0.0107
2793.00,0.0104
2792.00,0.0100
2791.00,0.0097
2790.00,0.0094
2789.00,0.0090
2788.00,0.0087
2787.00,0.0083
2786.00,0.0080
2785.00,0.0077
2784.00,0.0074
2783.00,0.0072
2782.00,0.0070
2781.00,0.0068
2780.00,0.0066
2779.00,0.0064
2778.00,0.0063
2777.00,0.0061
2776.00,0.0060
2775.00,0.0059
2774.00,0.0058
2773.00,0.0057
2772.00,0.0056
2771.00,0.0056
2770.00,0.0055
2769.00,0.0054
2768.00,0.0054
2767.00,0.0054
2766.00,0.0054
2765.00,0.0053
2764.00,0.0053
2763.00,0.0053
2762.00,0.0052
2761.00,0.0052
2760.00,0.0051
2759.00,0.0051
2758.00,0.0051
2757.00,0.0051
2756.00,0.0051
2755.00,0.0051
2754.00,0.0051
2753.00,0.0050
2752.00,0.0050
2751.00,0.0050
2750.00,0.0050
2749.00,0.0050
2748.00,0.0050
2747.00,0.0051
2746.00,0.0051
2745.00,0.0051
2744.00,0.0052
2743.00,0.0053
2742.00,0.0053
2741.00,0.0054
2740.00,0.0056
2739.00,0.0057
2738.00,0.0058
2737.00,0.0060
2736.00,0.0061
2735.00,0.0062
2734.00,0.0063
2733.00,0.0065
2732.00,0.0066
2731.00,0.0068
2730.00,0.0070
2729.00,0.0072
2728.00,0.0075
2727.00,0.0078
2726.00,0.0080
2725.00,0.0082
2724.00,0.0084
2723.00,0.0085
2722.00,0.0085
2721.00,0.0083
2720.00,0.0080
2719.00,0.0077
2718.00,0.0074
2717.00,0.0071
2716.00,0.0068
2715.00,0.0066
2714.00,0.0064
2713.00,0.0061
2712.00,0.0059
2711.00,0.0057
2710.00,0.0055
2709.00,0.0054
2708.00,0.0053
2707.00,0.0052
2706.00,0.0051
2705.00,0.0050
2704.00,0.0049
2703.00,0.0048
2702.00,0.0047
2701.00,0.0046
2700.00,0.0046
2699.00,0.0045
2698.00,0.0045
2697.00,0.0045
2696.00,0.0045
2695.00,0.0045
2694.00,0.0045
2693.00,0.0045
2692.00,0.0045
2691.00,0.0045
2690.00,0.0045
2689.00,0.0045
2688.00,0.0045
2687.00,0.0045
2686.00,0.0045
2685.00,0.0045
2684.00,0.0045
2683.00,0.0045
2682.00,0.0045
2681.00,0.0045
2680.00,0.0045
2679.00,0.0046
2678.00,0.0046
2677.00,0.0046
2676.00,0.0046
2675.00,0.0045
2674.00,0.0045
2673.00,0.0045
2672.00,0.0044
2671.00,0.0044
2670.00,0.0044
2669.00,0.0044
2668.00,0.0044
2667.00,0.0044
2666.00,0.0045
2665.00,0.0045
2664.00,0.0046
2663.00,0.0046
2662.00,0.0047
2661.00,0.0047
2660.00,0.0047
2659.00,0.0047
2658.00,0.0047
2657.00,0.0047
2656.00,0.0046
2655.00,0.0046
2654.00,0.0046
2653.00,0.0045
2652.00,0.0045
2651.00,0.0044
2650.00,0.0044
2649.00,0.0044
2648.00,0.0043
2647.00,0.0043
2646.00,0.0042
2645.00,0.0042
2644.00,0.0041
2643.00,0.0041
2642.00,0.0041
2641.00,0.0040
2640.00,0.0039
2639.00,0.0039
2638.00,0.0038
2637.00,0.0038
2636.00,0.0038
2635.00,0.0038
2634.00,0.0038
2633.00,0.0038
2632.00,0.0038
2631.00,0.0039
2630.00,0.0039
2629.00,0.0039
2628.00,0.0040
2627.00,0.0040
2626.00,0.0040
2625.00,0.0039
2624.00,0.0039
2623.00,0.0039
2622.00,0.0039
2621.00,0.0039
2620.00,0.0039
2619.00,0.0039
2618.00,0.0040
2617.00,0.0040
2616.00,0.0040
2615.00,0.0040
2614.00,0.0040
2613.00,0.0040
2612.00,0.0039
2611.00,0.0038
2610.00,0.0037
2609.00,0.0036
2608.00,0.0035
2607.00,0.0034
2606.00,0.0034
2605.00,0.0033
2604.00,0.0033
2603.00,0.0032
2602.00,0.0031
2601.00,0.0031
2600.00,0.0031
2599.00,0.0031
2598.00,0.0031
2597.00,0.0031
2596.00,0.0031
2595.00,0.0031
2594.00,0.0031
2593.00,0.0031
2592.00,0.0031
2591.00,0.0031
2590.00,0.0031
2589.00,0.0032
2588.00,0.0033
2587.00,0.0034
2586.00,0.0035
2585.00,0.0036
2584.00,0.0037
2583.00,0.0037
2582.00,0.0037
2581.00,0.0037
2580.00,0.0037
2579.00,0.0036
2578.00,0.0035
2577.00,0.0034
2576.00,0.0032
2575.00,0.0031
2574.00,0.0030
2573.00,0.0029
2572.00,0.0028
2571.00,0.0027
2570.00,0.0027
2569.00,0.0026
2568.00,0.0025
2567.00,0.0025
2566.00,0.0024
2565.00,0.0024
2564.00,0.0023
2563.00,0.0023
2562.00,0.0024
2561.00,0.0024
2560.00,0.0024
2559.00,0.0023
2558.00,0.0023
2557.00,0.0023
2556.00,0.0022
2555.00,0.0022
2554.00,0.0022
2553.00,0.0021
2552.00,0.0020
2551.00,0.0020
2550.00,0.0020
2549.00,0.0019
2548.00,0.0019
2547.00,0.0018
2546.00,0.0018
2545.00,0.0017
2544.00,0.0017
2543.00,0.0017
2542.00,0.0017
2541.00,0.0017
2540.00,0.0017
2539.00,0.0016
2538.00,0.0016
2537.00,0.0016
2536.00,0.0017
2535.00,0.0017
2534.00,0.0017
2533.00,0.0017
2532.00,0.0016
2531.00,0.0016
2530.00,0.0015
2529.00,0.0015
2528.00,0.0014
2527.00,0.0014
2526.00,0.0014
2525.00,0.0014
2524.00,0.0013
2523.00,0.0013
2522.00,0.0013
2521.00,0.0012
2520.00,0.0012
2519.00,0.0011
2518.00,0.0011
2517.00,0.0012
2516.00,0.0011
2515.00,0.0011
2514.00,0.0011
2513.00,0.0010
2512.00,0.0010
2511.00,0.0010
2510.00,0.0009
2509.00,0.0008
2508.00,0.0007
2507.00,0.0007
2506.00,0.0007
2505.00,0.0008
2504.00,0.0009
2503.00,0.0010
2502.00,0.0010
2501.00,0.0010
2500.00,0.0010
2499.00,0.0010
2498.00,0.0010
2497.00,0.0010
2496.00,0.0010
2495.00,0.0010
2494.00,0.0010
2493.00,0.0010
2492.00,0.0009
2491.00,0.0008
2490.00,0.0008
2489.00,0.0009
2488.00,0.0009
2487.00,0.0010
2486.00,0.0010
2485.00,0.0009
2484.00,0.0009
2483.00,0.0008
2482.00,0.0008
2481.00,0.0008
2480.00,0.0008
2479.00,0.0008
2478.00,0.0008
2477.00,0.0009
2476.00,0.0009
2475.00,0.0009
2474.00,0.0009
2473.00,0.0009
2472.00,0.0008
2471.00,0.0007
2470.00,0.0006
2469.00,0.0006
2468.00,0.0007
2467.00,0.0007
2466.00,0.0007
2465.00,0.0008
2464.00,0.0008
2463.00,0.0009
2462.00,0.0009
2461.00,0.0010
2460.00,0.0010
2459.00,0.0010
2458.00,0.0010
2457.00,0.0009
2456.00,0.0009
2455.00,0.0009
2454.00,0.0009
2453.00,0.0010
2452.00,0.0011
2451.00,0.0011
2450.00,0.0011
2449.00,0.0011
2448.00,0.0011
2447.00,0.0011
2446.00,0.0010
2445.00,0.0009
2444.00,0.0009
2443.00,0.0009
2442.00,0.0009
2441.00,0.0010
2440.00,0.0012
2439.00,0.0012
2438.00,0.0012
2437.00,0.0011
2436.00,0.0010
2435.00,0.0010
2434.00,0.0010
2433.00,0.0010
2432.00,0.0010
2431.00,0.0010
2430.00,0.0010
2429.00,0.0010
2428.00,0.0010
2427.00,0.0011
2426.00,0.0011
2425.00,0.0010
2424.00,0.0010
2423.00,0.0010
2422.00,0.0010
2421.00,0.0010
2420.00,0.0009
2419.00,0.0009
2418.00,0.0009
2417.00,0.0009
2416.00,0.0009
2415.00,0.0009
2414.00,0.0009
2413.00,0.0009
2412.00,0.0009
2411.00,0.0009
2410.00,0.0009
2409.00,0.0009
2408.00,0.0009
2407.00,0.0009
2406.00,0.0009
2405.00,0.0008
2404.00,0.0008
2403.00,0.0008
2402.00,0.0008
2401.00,0.0008
2400.00,0.0008
2399.00,0.0008
2398.00,0.0008
2397.00,0.0008
2396.00,0.0008
2395.00,0.0008
2394.00,0.0007
2393.00,0.0008
2392.00,0.0008
2391.00,0.0007
2390.00,0.0007
2389.00,0.0006
2388.00,0.0006
2387.00,0.0005
2386.00,0.0005
2385.00,0.0004
2384.00,0.0004
2383.00,0.0004
2382.00,0.0004
2381.00,0.0003
2380.00,0.0003
2379.00,0.0002
2378.00,0.0002
2377.00,0.0002
2376.00,0.0002
2375.00,0.0003
2374.00,0.0003
2373.00,0.0003
2372.00,0.0003
2371.00,0.0003
2370.00,0.0002
2369.00,0.0002
2368.00,0.0002
2367.00,0.0002
2366.00,0.0002
2365.00,0.0003
2364.00,0.0004
2363.00,0.0004
2362.00,0.0004
2361.00,0.0003
2360.00,0.0003
2359.00,0.0002
2358.00,0.0001
2357.00,0.0002
2356.00,0.0003
2355.00,0.0003
2354.00,0.0003
2353.00,0.0002
2352.00,0.0002
2351.00,0.0002
2350.00,0.0003
2349.00,0.0004
2348.00,0.0004
2347.00,0.0004
2346.00,0.0004
2345.00,0.0004
2344.00,0.0005
2343.00,0.0005
2342.00,0.0005
2341.00,0.0005
2340.00,0.0006
2339.00,0.0006
2338.00,0.0006
2337.00,0.0005
2336.00,0.0005
2335.00,0.0005
2334.00,0.0005
2333.00,0.0005
2332.00,0.0005
2331.00,0.0005
2330.00,0.0005
2329.00,0.0007
2328.00,0.0009
2327.00,0.0012
2326.00,0.0016
2325.00,0.0019
2324.00,0.0020
2323.00,0.0019
2322.00,0.0017
2321.00,0.0014
2320.00,0.0013
2319.00,0.0012
2318.00,0.0011
2317.00,0.0010
2316.00,0.0010
2315.00,0.0009
2314.00,0.0008
2313.00,0.0008
2312.00,0.0008
2311.00,0.0008
2310.00,0.0009
2309.00,0.0009
2308.00,0.0009
2307.00,0.0009
2306.00,0.0009
2305.00,0.0010
2304.00,0.0010
2303.00,0.0011
2302.00,0.0011
2301.00,0.0010
2300.00,0.0010
2299.00,0.0010
2298.00,0.0011
2297.00,0.0011
2296.00,0.0012
2295.00,0.0012
2294.00,0.0013
2293.00,0.0014
2292.00,0.0015
2291.00,0.0016
2290.00,0.0017
2289.00,0.0018
2288.00,0.0019
2287.00,0.0019
2286.00,0.0019
2285.00,0.0018
2284.00,0.0017
2283.00,0.0016
2282.00,0.0014
2281.00,0.0013
2280.00,0.0012
2279.00,0.0013
2278.00,0.0014
2277.00,0.0014
2276.00,0.0014
2275.00,0.0015
2274.00,0.0015
2273.00,0.0015
2272.00,0.0013
2271.00,0.0012
2270.00,0.0011
2269.00,0.0011
2268.00,0.0012
2267.00,0.0012
2266.00,0.0012
2265.00,0.0011
2264.00,0.0010
2263.00,0.0010
2262.00,0.0009
2261.00,0.0009
2260.00,0.0010
2259.00,0.0010
2258.00,0.0010
2257.00,0.0010
2256.00,0.0009
2255.00,0.0008
2254.00,0.0007
2253.00,0.0007
2252.00,0.0008
2251.00,0.0008
2250.00,0.0007
2249.00,0.0006
2248.00,0.0006
2247.00,0.0006
2246.00,0.0008
2245.00,0.0010
2244.00,0.0011
2243.00,0.0012
2242.00,0.0011
2241.00,0.0011
2240.00,0.0010
2239.00,0.0010
2238.00,0.0009
2237.00,0.0009
2236.00,0.0009
2235.00,0.0008
2234.00,0.0008
2233.00,0.0008
2232.00,0.0008
2231.00,0.0007
2230.00,0.0007
2229.00,0.0007
2228.00,0.0007
2227.00,0.0006
2226.00,0.0004
2225.00,0.0003
2224.00,0.0003
2223.00,0.0004
2222.00,0.0005
2221.00,0.0005
2220.00,0.0005
2219.00,0.0005
2218.00,0.0005
2217.00,0.0006
2216.00,0.0007
2215.00,0.0005
2214.00,0.0003
2213.00,0.0003
2212.00,0.0002
2211.00,0.0002
2210.00,0.0002
2209.00,0.0002
2208.00,0.0001
2207.00,0.0001
2206.00,-0.0000
2205.00,-0.0001
2204.00,-0.0000
2203.00,0.0000
2202.00,0.0002
2201.00,0.0004
2200.00,0.0005
2199.00,0.0005
2198.00,0.0004
2197.00,0.0003
2196.00,0.0002
2195.00,0.0002
2194.00,0.0003
2193.00,0.0003
2192.00,0.0002
2191.00,0.0001
2190.00,0.0001
2189.00,0.0003
2188.00,0.0004
2187.00,0.0004
2186.00,0.0004
2185.00,0.0004
2184.00,0.0004
2183.00,0.0003
2182.00,0.0001
2181.00,-0.0000
2180.00,0.0000
2179.00,0.0003
2178.00,0.0004
2177.00,0.0004
2176.00,0.0003
2175.00,0.0003
2174.00,0.0004
2173.00,0.0006
2172.00,0.0008
2171.00,0.0010
2170.00,0.0010
2169.00,0.0011
2168.00,0.0013
2167.00,0.0013
2166.00,0.0012
2165.00,0.0011
2164.00,0.0010
2163.00,0.0010
2162.00,0.0010
2161.00,0.0006
2160.00,-0.0002
2159.00,-0.0013
2158.00,-0.0023
2157.00,-0.0028
2156.00,-0.0029
2155.00,-0.0028
2154.00,-0.0026
2153.00,-0.0023
2152.00,-0.0021
2151.00,-0.0019
2150.00,-0.0018
2149.00,-0.0018
2148.00,-0.0019
2147.00,-0.0019
2146.00,-0.0018
2145.00,-0.0017
2144.00,-0.0016
2143.00,-0.0016
2142.00,-0.0016
2141.00,-0.0016
2140.00,-0.0015
2139.00,-0.0013
2138.00,-0.0011
2137.00,-0.0010
2136.00,-0.0012
2135.00,-0.0015
2134.00,-0.0019
2133.00,-0.0019
2132.00,-0.0018
2131.00,-0.0015
2130.00,-0.0013
2129.00,-0.0011
2128.00,-0.0010
2127.00,-0.0009
2126.00,-0.0009
2125.00,-0.0009
2124.00,-0.0009
2123.00,-0.0008
2122.00,-0.0008
2121.00,-0.0008
2120.00,-0.0007
2119.00,-0.0006
2118.00,-0.0005
2117.00,-0.0004
2116.00,-0.0002
2115.00,-0.0001
2114.00,0.0000
2113.00,0.0001
2112.00,0.0001
2111.00,0.0001
2110.00,-0.0000
2109.00,-0.0000
2108.00,0.0001
2107.00,0.0002
2106.00,0.0002
2105.00,0.0002
2104.00,0.0002
2103.00,0.0002
2102.00,0.0003
2101.00,0.0002
2100.00,0.0001
2099.00,-0.0001
2098.00,-0.0002
2097.00,-0.0003
2096.00,-0.0004
2095.00,-0.0006
2094.00,-0.0007
2093.00,-0.0007
2092.00,-0.0006
2091.00,-0.0004
2090.00,-0.0002
2089.00,-0.0002
2088.00,-0.0002
2087.00,-0.0002
2086.00,-0.0001
2085.00,-0.0001
2084.00,0.0000
2083.00,0.0000
2082.00,0.0000
2081.00,-0.0000
2080.00,-0.0000
2079.00,-0.0000
2078.00,-0.0000
2077.00,-0.0000
2076.00,-0.0001
2075.00,-0.0001
2074.00,-0.0001
2073.00,-0.0002
2072.00,-0.0003
2071.00,-0.0003
2070.00,-0.0003
2069.00,-0.0002
2068.00,-0.0002
2067.00,-0.0002
2066.00,-0.0003
2065.00,-0.0004
2064.00,-0.0004
2063.00,-0.0003
2062.00,-0.0001
2061.00,0.0000
2060.00,0.0001
2059.00,-0.0000
2058.00,-0.0001
2057.00,-0.0003
2056.00,-0.0006
2055.00,-0.0009
2054.00,-0.0009
2053.00,-0.0005
2052.00,0.0002
2051.00,0.0008
2050.00,0.0009
2049.00,0.0006
2048.00,0.0002
2047.00,-0.0002
2046.00,-0.0003
2045.00,-0.0003
2044.00,-0.0005
2043.00,-0.0008
2042.00,-0.0010
2041.00,-0.0009
2040.00,-0.0007
2039.00,-0.0003
2038.00,-0.0001
2037.00,-0.0000
2036.00,-0.0003
2035.00,-0.0009
2034.00,-0.0015
2033.00,-0.0020
2032.00,-0.0021
2031.00,-0.0019
2030.00,-0.0017
2029.00,-0.0015
2028.00,-0.0014
2027.00,-0.0013
2026.00,-0.0012
2025.00,-0.0010
2024.00,-0.0010
2023.00,-0.0012
2022.00,-0.0014
2021.00,-0.0014
2020.00,-0.0014
2019.00,-0.0013
2018.00,-0.0012
2017.00,-0.0010
2016.00,-0.0008
2015.00,-0.0007
2014.00,-0.0007
2013.00,-0.0008
2012.00,-0.0009
2011.00,-0.0010
2010.00,-0.0012
2009.00,-0.0013
2008.00,-0.0016
2007.00,-0.0019
2006.00,-0.0022
2005.00,-0.0023
2004.00,-0.0021
2003.00,-0.0018
2002.00,-0.0015
2001.00,-0.0013
2000.00,-0.0012
1999.00,-0.0014
1998.00,-0.0016
1997.00,-0.0019
1996.00,-0.0020
1995.00,-0.0020
1994.00,-0.0018
1993.00,-0.0016
1992.00,-0.0015
1991.00,-0.0014
1990.00,-0.0013
1989.00,-0.0011
1988.00,-0.0009
1987.00,-0.0006
1986.00,-0.0004
1985.00,-0.0003
1984.00,-0.0002
1983.00,0.0001
1982.00,0.0005
1981.00,0.0007
1980.00,0.0007
1979.00,0.0004
1978.00,-0.0002
1977.00,-0.0008
1976.00,-0.0011
1975.00,-0.0012
1974.00,-0.0013
1973.00,-0.0014
1972.00,-0.0015
1971.00,-0.0016
1970.00,-0.0017
1969.00,-0.0020
1968.00,-0.0023
1967.00,-0.0026
1966.00,-0.0026
1965.00,-0.0027
1964.00,-0.0027
1963.00,-0.0027
1962.00,-0.0025
1961.00,-0.0023
1960.00,-0.0022
1959.00,-0.0023
1958.00,-0.0024
1957.00,-0.0024
1956.00,-0.0023
1955.00,-0.0022
1954.00,-0.0021
1953.00,-0.0019
1952.00,-0.0018
1951.00,-0.0018
1950.00,-0.0018
1949.00,-0.0018
1948.00,-0.0018
1947.00,-0.0018
1946.00,-0.0018
1945.00,-0.0018
1944.00,-0.0019
1943.00,-0.0020
1942.00,-0.0020
1941.00,-0.0019
1940.00,-0.0017
1939.00,-0.0016
1938.00,-0.0016
1937.00,-0.0015
1936.00,-0.0013
1935.00,-0.0011
1934.00,-0.0010
1933.00,-0.0009
1932.00,-0.0009
1931.00,-0.0010
1930.00,-0.0011
1929.00,-0.0012
1928.00,-0.0012
1927.00,-0.0011
1926.00,-0.0010
1925.00,-0.0008
1924.00,-0.0007
1923.00,-0.0005
1922.00,-0.0004
1921.00,-0.0003
1920.00,-0.0004
1919.00,-0.0005
1918.00,-0.0006
1917.00,-0.0007
1916.00,-0.0006
1915.00,-0.0005
1914.00,-0.0004
1913.00,-0.0003
1912.00,-0.0003
1911.00,-0.0004
1910.00,-0.0004
1909.00,-0.0005
1908.00,-0.0005
1907.00,-0.0006
1906.00,-0.0007
1905.00,-0.0006
1904.00,-0.0006
1903.00,-0.0006
1902.00,-0.0005
1901.00,-0.0005
1900.00,-0.0004
1899.00,-0.0003
1898.00,-0.0003
1897.00,-0.0003
1896.00,-0.0002
1895.00,-0.0002
1894.00,-0.0002
1893.00,-0.0001
1892.00,-0.0001
1891.00,-0.0001
1890.00,-0.0000
1889.00,-0.0001
1888.00,-0.0001
1887.00,-0.0001
1886.00,-0.0002
1885.00,-0.0003
1884.00,-0.0003
1883.00,-0.0003
1882.00,-0.0003
1881.00,-0.0003
1880.00,-0.0002
1879.00,-0.0002
1878.00,-0.0002
1877.00,-0.0002
1876.00,-0.0003
1875.00,-0.0003
1874.00,-0.0003
1873.00,-0.0002
1872.00,-0.0001
1871.00,-0.0000
1870.00,-0.0000
1869.00,-0.0001
1868.00,-0.0002
1867.00,-0.0002
1866.00,-0.0003
1865.00,-0.0002
1864.00,-0.0002
1863.00,-0.0001
1862.00,-0.0001
1861.00,-0.0001
1860.00,-0.0001
1859.00,-0.0001
1858.00,-0.0001
1857.00,-0.0001
1856.00,-0.0000
1855.00,-0.0000
1854.00,-0.0001
1853.00,-0.0001
1852.00,-0.0002
1851.00,-0.0003
1850.00,-0.0003
1849.00,-0.0003
1848.00,-0.0003
1847.00,-0.0003
1846.00,-0.0003
1845.00,-0.0002
1844.00,-0.0001
1843.00,-0.0001
1842.00,-0.0000
1841.00,0.0000
1840.00,0.0001
1839.00,0.0001
1838.00,0.0000
1837.00,0.0000
1836.00,0.0000
1835.00,0.0001
1834.00,0.0001
1833.00,0.0001
1832.00,0.0001
1831.00,0.0002
1830.00,0.0002
1829.00,0.0002
1828.00,0.0001
1827.00,0.0000
1826.00,0.0000
1825.00,0.0001
1824.00,0.0001
1823.00,0.0001
1822.00,0.0001
1821.00,0.0001
1820.00,0.0001
1819.00,0.0001
1818.00,0.0001
1817.00,-0.0000
1816.00,-0.0000
1815.00,-0.0000
1814.00,0.0000
1813.00,0.0001
1812.00,0.0001
1811.00,0.0002
1810.00,0.0002
1809.00,0.0001
1808.00,0.0001
1807.00,0.0001
1806.00,0.0001
1805.00,0.0001
1804.00,0.0002
1803.00,0.0003
1802.00,0.0004
1801.00,0.0004
1800.00,0.0004
1799.00,0.0004
1798.00,0.0003
1797.00,0.0003
1796.00,0.0003
1795.00,0.0003
1794.00,0.0003
1793.00,0.0004
1792.00,0.0005
1791.00,0.0005
1790.00,0.0006
1789.00,0.0006
1788.00,0.0007
1787.00,0.0007
1786.00,0.0007
1785.00,0.0007
1784.00,0.0006
1783.00,0.0006
1782.00,0.0005
1781.00,0.0005
1780.00,0.0005
1779.00,0.0006
1778.00,0.0007
1777.00,0.0007
1776.00,0.0008
1775.00,0.0008
1774.00,0.0008
1773.00,0.0008
1772.00,0.0008
1771.00,0.0008
1770.00,0.0008
1769.00,0.0009
1768.00,0.0009
1767.00,0.0010
1766.00,0.0010
1765.00,0.0009
1764.00,0.0009
1763.00,0.0009
1762.00,0.0009
1761.00,0.0010
1760.00,0.0010
1759.00,0.0010
1758.00,0.0011
1757.00,0.0011
1756.00,0.0011
1755.00,0.0010
1754.00,0.0010
1753.00,0.0011
1752.00,0.0012
1751.00,0.0013
1750.00,0.0014
1749.00,0.0015
1748.00,0.0015
1747.00,0.0016
1746.00,0.0017
1745.00,0.0017
1744.00,0.0018
1743.00,0.0018
1742.00,0.0018
1741.00,0.0018
1740.00,0.0019
1739.00,0.0020
1738.00,0.0020
1737.00,0.0020
1736.00,0.0020
1735.00,0.0021
1734.00,0.0021
1733.00,0.0020
1732.00,0.0020
1731.00,0.0020
1730.00,0.0020
1729.00,0.0021
1728.00,0.0021
1727.00,0.0021
1726.00,0.0021
1725.00,0.0022
1724.00,0.0022
1723.00,0.0022
1722.00,0.0022
1721.00,0.0022
1720.00,0.0022
1719.00,0.0022
1718.00,0.0021
1717.00,0.0020
1716.00,0.0020
1715.00,0.0019
1714.00,0.0019
1713.00,0.0019
1712.00,0.0019
1711.00,0.0019
1710.00,0.0019
1709.00,0.0019
1708.00,0.0020
1707.00,0.0019
1706.00,0.0019
1705.00,0.0020
1704.00,0.0020
1703.00,0.0020
1702.00,0.0021
1701.00,0.0021
1700.00,0.0021
1699.00,0.0021
1698.00,0.0021
1697.00,0.0022
1696.00,0.0023
1695.00,0.0024
1694.00,0.0023
1693.00,0.0023
1692.00,0.0023
1691.00,0.0023
1690.00,0.0024
1689.00,0.0024
1688.00,0.0025
1687.00,0.0025
1686.00,0.0024
1685.00,0.0024
1684.00,0.0024
1683.00,0.0025
1682.00,0.0025
1681.00,0.0026
1680.00,0.0026
1679.00,0.0027
1678.00,0.0028
1677.00,0.0029
1676.00,0.0030
1675.00,0.0031
1674.00,0.0030
1673.00,0.0030
1672.00,0.0029
1671.00,0.0030
1670.00,0.0030
1669.00,0.0031
1668.00,0.0031
1667.00,0.0031
1666.00,0.0032
1665.00,0.0032
1664.00,0.0033
1663.00,0.0033
1662.00,0.0033
1661.00,0.0034
1660.00,0.0034
1659.00,0.0035
1658.00,0.0035
1657.00,0.0035
1656.00,0.0035
1655.00,0.0035
1654.00,0.0036
1653.00,0.0037
1652.00,0.0038
1651.00,0.0039
1650.00,0.0039
1649.00,0.0040
1648.00,0.0041
1647.00,0.0043
1646.00,0.0044
1645.00,0.0044
1644.00,0.0045
1643.00,0.0046
1642.00,0.0048
1641.00,0.0049
1640.00,0.0050
1639.00,0.0052
1638.00,0.0052
1637.00,0.0053
1636.00,0.0054
1635.00,0.0053
1634.00,0.0051
1633.00,0.0050
1632.00,0.0049
1631.00,0.0048
1630.00,0.0047
1629.00,0.0046
1628.00,0.0045
1627.00,0.0044
1626.00,0.0044
1625.00,0.0043
1624.00,0.0043
1623.00,0.0043
1622.00,0.0042
1621.00,0.0042
1620.00,0.0042
1619.00,0.0042
1618.00,0.0042
1617.00,0.0043
1616.00,0.0043
1615.00,0.0042
1614.00,0.0042
1613.00,0.0042
1612.00,0.0042
1611.00,0.0042
1610.00,0.0042
1609.00,0.0042
1608.00,0.0042
1607.00,0.0042
1606.00,0.0042
1605.00,0.0042
1604.00,0.0042
1603.00,0.0042
1602.00,0.0041
1601.00,0.0041
1600.00,0.0041
1599.00,0.0040
1598.00,0.0040
1597.00,0.0040
1596.00,0.0040
1595.00,0.0041
1594.00,0.0041
1593.00,0.0041
1592.00,0.0041
1591.00,0.0041
1590.00,0.0040
1589.00,0.0041
1588.00,0.0041
1587.00,0.0042
1586.00,0.0042
1585.00,0.0043
1584.00,0.0043
1583.00,0.0044
1582.00,0.0045
1581.00,0.0046
1580.00,0.0047
1579.00,0.0048
1578.00,0.0049
1577.00,0.0049
1576.00,0.0050
1575.00,0.0049
1574.00,0.0048
1573.00,0.0048
1572.00,0.0048
1571.00,0.0049
1570.00,0.0050
1569.00,0.0050
1568.00,0.0050
1567.00,0.0050
1566.00,0.0050
1565.00,0.0050
1564.00,0.0050
1563.00,0.0050
1562.00,0.0049
1561.00,0.0049
1560.00,0.0049
1559.00,0.0049
1558.00,0.0048
1557.00,0.0048
1556.00,0.0049
1555.00,0.0049
1554.00,0.0049
1553.00,0.0049
1552.00,0.0050
1551.00,0.0051
1550.00,0.0052
1549.00,0.0052
1548.00,0.0053
1547.00,0.0053
1546.00,0.0053
1545.00,0.0054
1544.00,0.0055
1543.00,0.0055
1542.00,0.0055
1541.00,0.0056
1540.00,0.0055
1539.00,0.0053
1538.00,0.0052
1537.00,0.0051
1536.00,0.0051
1535.00,0.0050
1534.00,0.0048
1533.00,0.0047
1532.00,0.0046
1531.00,0.0045
1530.00,0.0045
1529.00,0.0045
1528.00,0.0045
1527.00,0.0045
1526.00,0.0044
1525.00,0.0044
1524.00,0.0045
1523.00,0.0044
1522.00,0.0044
1521.00,0.0045
1520.00,0.0046
1519.00,0.0045
1518.00,0.0045
1517.00,0.0046
1516.00,0.0047
1515.00,0.0047
1514.00,0.0047
1513.00,0.0048
1512.00,0.0050
1511.00,0.0051
1510.00,0.0051
1509.00,0.0052
1508.00,0.0053
1507.00,0.0054
1506.00,0.0054
1505.00,0.0055
1504.00,0.0056
1503.00,0.0057
1502.00,0.0059
1501.00,0.0061
1500.00,0.0063
1499.00,0.0065
1498.00,0.0067
1497.00,0.0071
1496.00,0.0074
1495.00,0.0075
1494.00,0.0077
1493.00,0.0079
1492.00,0.0083
1491.00,0.0086
1490.00,0.0090
1489.00,0.0095
1488.00,0.0100
1487.00,0.0104
1486.00,0.0109
1485.00,0.0114
1484.00,0.0121
1483.00,0.0127
1482.00,0.0136
1481.00,0.0146
1480.00,0.0158
1479.00,0.0171
1478.00,0.0186
1477.00,0.0207
1476.00,0.0232
1475.00,0.0262
1474.00,0.0302
1473.00,0.0357
1472.00,0.0423
1471.00,0.0486
1470.00,0.0548
1469.00,0.0613
1468.00,0.0682
1467.00,0.0758
1466.00,0.0844
1465.00,0.0935
1464.00,0.1014
1463.00,0.1070
1462.00,0.1106
1461.00,0.1131
1460.00,0.1149
1459.00,0.1164
1458.00,0.1179
1457.00,0.1193
1456.00,0.1197
1455.00,0.1193
1454.00,0.1185
1453.00,0.1173
1452.00,0.1153
1451.00,0.1122
1450.00,0.1076
1449.00,0.1008
1448.00,0.0919
1447.00,0.0822
1446.00,0.0732
1445.00,0.0653
1444.00,0.0584
1443.00,0.0527
1442.00,0.0483
1441.00,0.0451
1440.00,0.0431
1439.00,0.0421
1438.00,0.0417
1437.00,0.0414
1436.00,0.0401
1435.00,0.0377
1434.00,0.0342
1433.00,0.0302
1432.00,0.0259
1431.00,0.0221
1430.00,0.0191
1429.00,0.0170
1428.00,0.0154
1427.00,0.0145
1426.00,0.0138
1425.00,0.0131
1424.00,0.0125
1423.00,0.0122
1422.00,0.0120
1421.00,0.0118
1420.00,0.0115
1419.00,0.0113
1418.00,0.0111
1417.00,0.0108
1416.00,0.0106
1415.00,0.0105
1414.00,0.0105
1413.00,0.0103
1412.00,0.0102
1411.00,0.0101
1410.00,0.0101
1409.00,0.0100
1408.00,0.0099
1407.00,0.0100
1406.00,0.0101
1405.00,0.0101
1404.00,0.0100
1403.00,0.0101
1402.00,0.0102
1401.00,0.0103
1400.00,0.0104
1399.00,0.0105
1398.00,0.0107
1397.00,0.0109
1396.00,0.0112
1395.00,0.0116
1394.00,0.0121
1393.00,0.0126
1392.00,0.0131
1391.00,0.0139
1390.00,0.0149
1389.00,0.0163
1388.00,0.0183
1387.00,0.0214
1386.00,0.0256
1385.00,0.0311
1384.00,0.0387
1383.00,0.0492
1382.00,0.0632
1381.00,0.0810
1380.00,0.1027
1379.00,0.1271
1378.00,0.1506
1377.00,0.1676
1376.00,0.1731
1375.00,0.1643
1374.00,0.1438
1373.00,0.1191
1372.00,0.0965
1371.00,0.0777
1370.00,0.0627
1369.00,0.0513
1368.00,0.0435
1367.00,0.0386
1366.00,0.0359
1365.00,0.0348
1364.00,0.0349
1363.00,0.0361
1362.00,0.0380
1361.00,0.0400
1360.00,0.0416
1359.00,0.0420
1358.00,0.0411
1357.00,0.0387
1356.00,0.0354
1355.00,0.0316
1354.00,0.0280
1353.00,0.0249
1352.00,0.0224
1351.00,0.0204
1350.00,0.0188
1349.00,0.0174
1348.00,0.0163
1347.00,0.0153
1346.00,0.0144
1345.00,0.0137
1344.00,0.0131
1343.00,0.0126
1342.00,0.0122
1341.00,0.0119
1340.00,0.0116
1339.00,0.0114
1338.00,0.0113
1337.00,0.0113
1336.00,0.0113
1335.00,0.0115
1334.00,0.0117
1333.00,0.0120
1332.00,0.0125
1331.00,0.0128
1330.00,0.0130
1329.00,0.0129
1328.00,0.0126
1327.00,0.0122
1326.00,0.0117
1325.00,0.0112
1324.00,0.0106
1323.00,0.0100
1322.00,0.0096
1321.00,0.0093
1320.00,0.0091
1319.00,0.0090
1318.00,0.0088
1317.00,0.0087
1316.00,0.0086
1315.00,0.0085
1314.00,0.0086
1313.00,0.0087
1312.00,0.0089
1311.00,0.0092
1310.00,0.0097
1309.00,0.0105
1308.00,0.0116
1307.00,0.0130
1306.00,0.0144
1305.00,0.0153
1304.00,0.0154
1303.00,0.0149
1302.00,0.0141
1301.00,0.0133
1300.00,0.0128
1299.00,0.0125
1298.00,0.0124
1297.00,0.0122
1296.00,0.0121
1295.00,0.0119
1294.00,0.0115
1293.00,0.0111
1292.00,0.0106
1291.00,0.0102
1290.00,0.0098
1289.00,0.0094
1288.00,0.0091
1287.00,0.0088
1286.00,0.0086
1285.00,0.0084
1284.00,0.0083
1283.00,0.0081
1282.00,0.0080
1281.00,0.0079
1280.00,0.0078
1279.00,0.0078
1278.00,0.0078
1277.00,0.0077
1276.00,0.0077
1275.00,0.0077
1274.00,0.0077
1273.00,0.0077
1272.00,0.0078
1271.00,0.0078
1270.00,0.0079
1269.00,0.0081
1268.00,0.0083
1267.00,0.0085
1266.00,0.0088
1265.00,0.0091
1264.00,0.0094
1263.00,0.0097
1262.00,0.0101
1261.00,0.0106
1260.00,0.0113
1259.00,0.0122
1258.00,0.0131
1257.00,0.0139
1256.00,0.0142
1255.00,0.0139
1254.00,0.0132
1253.00,0.0122
1252.00,0.0111
1251.00,0.0102
1250.00,0.0095
1249.00,0.0090
1248.00,0.0087
1247.00,0.0084
1246.00,0.0082
1245.00,0.0080
1244.00,0.0078
1243.00,0.0077
1242.00,0.0076
1241.00,0.0075
1240.00,0.0074
1239.00,0.0073
1238.00,0.0072
1237.00,0.0072
1236.00,0.0072
1235.00,0.0072
1234.00,0.0073
1233.00,0.0073
1232.00,0.0073
1231.00,0.0073
1230.00,0.0074
1229.00,0.0075
1228.00,0.0076
1227.00,0.0077
1226.00,0.0079
1225.00,0.0081
1224.00,0.0084
1223.00,0.0087
1222.00,0.0090
1221.00,0.0093
1220.00,0.0095
1219.00,0.0095
1218.00,0.0094
1217.00,0.0093
1216.00,0.0090
1215.00,0.0088
1214.00,0.0086
1213.00,0.0083
1212.00,0.0081
1211.00,0.0079
1210.00,0.0078
1209.00,0.0077
1208.00,0.0076
1207.00,0.0075
1206.00,0.0074
1205.00,0.0073
1204.00,0.0073
1203.00,0.0073
1202.00,0.0073
1201.00,0.0073
1200.00,0.0073
1199.00,0.0073
1198.00,0.0073
1197.00,0.0074
1196.00,0.0074
1195.00,0.0075
1194.00,0.0075
1193.00,0.0075
1192.00,0.0075
1191.00,0.0075
1190.00,0.0075
1189.00,0.0075
1188.00,0.0075
1187.00,0.0076
1186.00,0.0077
1185.00,0.0078
1184.00,0.0080
1183.00,0.0082
1182.00,0.0084
1181.00,0.0087
1180.00,0.0092
1179.00,0.0098
1178.00,0.0106
1177.00,0.0116
1176.00,0.0129
1175.00,0.0146
1174.00,0.0169
1173.00,0.0199
1172.00,0.0237
1171.00,0.0278
1170.00,0.0319
1169.00,0.0353
1168.00,0.0373
1167.00,0.0376
1166.00,0.0365
1165.00,0.0343
1164.00,0.0317
1163.00,0.0291
1162.00,0.0270
1161.00,0.0252
1160.00,0.0238
1159.00,0.0227
1158.00,0.0219
1157.00,0.0212
1156.00,0.0208
1155.00,0.0205
1154.00,0.0202
1153.00,0.0198
1152.00,0.0192
1151.00,0.0184
1150.00,0.0175
1149.00,0.0165
1148.00,0.0155
1147.00,0.0146
1146.00,0.0138
1145.00,0.0130
1144.00,0.0122
1143.00,0.0115
1142.00,0.0108
1141.00,0.0102
1140.00,0.0097
1139.00,0.0093
1138.00,0.0089
1137.00,0.0086
1136.00,0.0083
1135.00,0.0081
1134.00,0.0079
1133.00,0.0077
1132.00,0.0075
1131.00,0.0075
1130.00,0.0075
1129.00,0.0075
1128.00,0.0075
1127.00,0.0075
1126.00,0.0075
1125.00,0.0075
1124.00,0.0075
1123.00,0.0076
1122.00,0.0075
1121.00,0.0075
1120.00,0.0075
1119.00,0.0075
1118.00,0.0076
1117.00,0.0077
1116.00,0.0079
1115.00,0.0080
1114.00,0.0082
1113.00,0.0084
1112.00,0.0086
1111.00,0.0088
1110.00,0.0091
1109.00,0.0094
1108.00,0.0099
1107.00,0.0104
1106.00,0.0109
1105.00,0.0115
1104.00,0.0119
1103.00,0.0122
1102.00,0.0122
1101.00,0.0119
1100.00,0.0113
1099.00,0.0107
1098.00,0.0101
1097.00,0.0096
1096.00,0.0092
1095.00,0.0089
1094.00,0.0088
1093.00,0.0087
1092.00,0.0086
1091.00,0.0084
1090.00,0.0081
1089.00,0.0079
1088.00,0.0078
1087.00,0.0077
1086.00,0.0077
1085.00,0.0078
1084.00,0.0078
1083.00,0.0078
1082.00,0.0078
1081.00,0.0077
1080.00,0.0076
1079.00,0.0075
1078.00,0.0074
1077.00,0.0074
1076.00,0.0074
1075.00,0.0074
1074.00,0.0074
1073.00,0.0074
1072.00,0.0073
1071.00,0.0073
1070.00,0.0073
1069.00,0.0074
1068.00,0.0074
1067.00,0.0075
1066.00,0.0076
1065.00,0.0077
1064.00,0.0077
1063.00,0.0077
1062.00,0.0078
1061.00,0.0078
1060.00,0.0079
1059.00,0.0080
1058.00,0.0082
1057.00,0.0083
1056.00,0.0085
1055.00,0.0087
1054.00,0.0089
1053.00,0.0092
1052.00,0.0096
1051.00,0.0100
1050.00,0.0105
1049.00,0.0110
1048.00,0.0115
1047.00,0.0120
1046.00,0.0125
1045.00,0.0128
1044.00,0.0129
1043.00,0.0129
1042.00,0.0126
1041.00,0.0123
1040.00,0.0121
1039.00,0.0119
1038.00,0.0118
1037.00,0.0116
1036.00,0.0115
1035.00,0.0113
1034.00,0.0111
1033.00,0.0109
1032.00,0.0108
1031.00,0.0108
1030.00,0.0107
1029.00,0.0108
1028.00,0.0108
1027.00,0.0110
1026.00,0.0113
1025.00,0.0116
1024.00,0.0118
1023.00,0.0121
1022.00,0.0123
1021.00,0.0124
1020.00,0.0126
1019.00,0.0127
1018.00,0.0129
1017.00,0.0131
1016.00,0.0132
1015.00,0.0134
1014.00,0.0134
1013.00,0.0134
1012.00,0.0133
1011.00,0.0133
1010.00,0.0134
1009.00,0.0136
1008.00,0.0140
1007.00,0.0146
1006.00,0.0156
1005.00,0.0170
1004.00,0.0191
1003.00,0.0220
1002.00,0.0258
1001.00,0.0306
1000.00,0.0359
999.00,0.0404
998.00,0.0429
997.00,0.0424
996.00,0.0391
995.00,0.0342
994.00,0.0288
993.00,0.0240
992.00,0.0203
991.00,0.0176
990.00,0.0157
989.00,0.0145
988.00,0.0136
987.00,0.0131
986.00,0.0130
985.00,0.0131
984.00,0.0135
983.00,0.0142
982.00,0.0152
981.00,0.0169
980.00,0.0192
979.00,0.0223
978.00,0.0263
977.00,0.0311
976.00,0.0366
975.00,0.0421
974.00,0.0466
973.00,0.0487
972.00,0.0476
971.00,0.0433
970.00,0.0370
969.00,0.0305
968.00,0.0247
967.00,0.0204
966.00,0.0173
965.00,0.0151
964.00,0.0135
963.00,0.0123
962.00,0.0114
961.00,0.0107
960.00,0.0101
959.00,0.0097
958.00,0.0093
957.00,0.0090
956.00,0.0087
955.00,0.0085
954.00,0.0083
953.00,0.0082
952.00,0.0081
951.00,0.0080
950.00,0.0079
949.00,0.0079
948.00,0.0079
947.00,0.0079
946.00,0.0079
945.00,0.0080
944.00,0.0082
943.00,0.0085
942.00,0.0088
941.00,0.0090
940.00,0.0091
939.00,0.0089
938.00,0.0086
937.00,0.0082
936.00,0.0078
935.00,0.0073
934.00,0.0069
933.00,0.0065
932.00,0.0064
931.00,0.0063
930.00,0.0062
929.00,0.0061
928.00,0.0060
927.00,0.0059
926.00,0.0060
925.00,0.0061
924.00,0.0061
923.00,0.0061
922.00,0.0060
921.00,0.0059
920.00,0.0058
919.00,0.0058
918.00,0.0058
917.00,0.0058
916.00,0.0058
915.00,0.0058
914.00,0.0060
913.00,0.0062
912.00,0.0064
911.00,0.0066
910.00,0.0068
909.00,0.0070
908.00,0.0072
907.00,0.0077
906.00,0.0083
905.00,0.0092
904.00,0.0104
903.00,0.0120
902.00,0.0136
901.00,0.0151
900.00,0.0161
899.00,0.0163
898.00,0.0156
897.00,0.0142
896.00,0.0124
895.00,0.0109
894.00,0.0097
893.00,0.0088
892.00,0.0082
891.00,0.0077
890.00,0.0075
889.00,0.0074
888.00,0.0072
887.00,0.0071
886.00,0.0070
885.00,0.0068
884.00,0.0067
883.00,0.0067
882.00,0.0068
881.00,0.0069
880.00,0.0069
879.00,0.0070
878.00,0.0070
877.00,0.0070
876.00,0.0070
875.00,0.0071
874.00,0.0072
873.00,0.0073
872.00,0.0073
871.00,0.0074
870.00,0.0074
869.00,0.0075
868.00,0.0076
867.00,0.0076
866.00,0.0075
865.00,0.0075
864.00,0.0076
863.00,0.0077
862.00,0.0079
861.00,0.0081
860.00,0.0083
859.00,0.0084
858.00,0.0086
857.00,0.0087
856.00,0.0088
855.00,0.0090
854.00,0.0092
853.00,0.0095
852.00,0.0099
851.00,0.0104
850.00,0.0109
849.00,0.0116
848.00,0.0126
847.00,0.0142
846.00,0.0168
845.00,0.0208
844.00,0.0266
843.00,0.0337
842.00,0.0400
841.00,0.0429
840.00,0.0407
839.00,0.0346
838.00,0.0273
837.00,0.0213
836.00,0.0173
835.00,0.0149
834.00,0.0133
833.00,0.0123
832.00,0.0115
831.00,0.0110
830.00,0.0107
829.00,0.0105
828.00,0.0104
827.00,0.0103
826.00,0.0101
825.00,0.0099
824.00,0.0098
823.00,0.0097
822.00,0.0098
821.00,0.0099
820.00,0.0101
819.00,0.0104
818.00,0.0108
817.00,0.0114
816.00,0.0121
815.00,0.0130
814.00,0.0142
813.00,0.0157
812.00,0.0174
811.00,0.0191
810.00,0.0204
809.00,0.0209
808.00,0.0204
807.00,0.0191
806.00,0.0175
805.00,0.0160
804.00,0.0147
803.00,0.0137
802.00,0.0128
801.00,0.0120
800.00,0.0115
799.00,0.0111
798.00,0.0107
797.00,0.0103
796.00,0.0097
795.00,0.0092
794.00,0.0087
793.00,0.0085
792.00,0.0083
791.00,0.0081
790.00,0.0079
789.00,0.0075
788.00,0.0072
787.00,0.0070
786.00,0.0068
785.00,0.0066
784.00,0.0065
783.00,0.0063
782.00,0.0062
781.00,0.0061
780.00,0.0060
779.00,0.0058
778.00,0.0057
777.00,0.0057
776.00,0.0058
775.00,0.0060
774.00,0.0061
773.00,0.0062
772.00,0.0062
771.00,0.0060
770.00,0.0058
769.00,0.0057
768.00,0.0056
767.00,0.0057
766.00,0.0057
765.00,0.0058
764.00,0.0059
763.00,0.0060
762.00,0.0062
761.00,0.0062
760.00,0.0062
759.00,0.0061
758.00,0.0060
757.00,0.0061
756.00,0.0063
755.00,0.0065
754.00,0.0067
753.00,0.0068
752.00,0.0069
751.00,0.0071
750.00,0.0073
749.00,0.0075
748.00,0.0076
747.00,0.0077
746.00,0.0077
745.00,0.0078
744.00,0.0080
743.00,0.0081
742.00,0.0083
741.00,0.0085
740.00,0.0088
739.00,0.0091
738.00,0.0095
737.00,0.0099
736.00,0.0104
735.00,0.0107
734.00,0.0110
733.00,0.0115
732.00,0.0122
731.00,0.0130
730.00,0.0136
729.00,0.0140
728.00,0.0141
727.00,0.0142
726.00,0.0144
725.00,0.0148
724.00,0.0153
723.00,0.0158
722.00,0.0163
721.00,0.0166
720.00,0.0165
719.00,0.0158
718.00,0.0148
717.00,0.0137
716.00,0.0128
715.00,0.0121
714.00,0.0116
713.00,0.0111
712.00,0.0107
711.00,0.0104
710.00,0.0101
709.00,0.0099
708.00,0.0097
707.00,0.0095
706.00,0.0093
705.00,0.0090
704.00,0.0087
703.00,0.0085
702.00,0.0084
701.00,0.0084
700.00,0.0086
699.00,0.0088
698.00,0.0088
697.00,0.0086
696.00,0.0084
695.00,0.0083
694.00,0.0083
693.00,0.0084
692.00,0.0085
691.00,0.0087
690.00,0.0087
689.00,0.0087
688.00,0.0087
687.00,0.0088
686.00,0.0088
685.00,0.0088
684.00,0.0086
683.00,0.0085
682.00,0.0084
681.00,0.0084
680.00,0.0084
679.00,0.0084
678.00,0.0085
677.00,0.0087
676.00,0.0089
675.00,0.0091
674.00,0.0092
673.00,0.0092
672.00,0.0092
671.00,0.0093
670.00,0.0092
669.00,0.0090
668.00,0.0087
667.00,0.0085
666.00,0.0083
665.00,0.0081
664.00,0.0081
663.00,0.0082
662.00,0.0082
661.00,0.0082
660.00,0.0081
659.00,0.0081
658.00,0.0080
657.00,0.0079
656.00,0.0076
655.00,0.0074
654.00,0.0074
653.00,0.0074
652.00,0.0076
651.00,0.0077
650.00,0.0078
649.00,0.0077
648.00,0.0076
647.00,0.0074
646.00,0.0074
645.00,0.0074
644.00,0.0073
643.00,0.0071
642.00,0.0068
641.00,0.0067
640.00,0.0068
639.00,0.0070
638.00,0.0072
637.00,0.0074
636.00,0.0076
635.00,0.0077
634.00,0.0076
633.00,0.0075
632.00,0.0075
631.00,0.0074
630.00,0.0075
629.00,0.0074
628.00,0.0074
627.00,0.0074
626.00,0.0074
625.00,0.0075
624.00,0.0076
623.00,0.0077
622.00,0.0076
621.00,0.0074
620.00,0.0073
619.00,0.0073
618.00,0.0075
617.00,0.0078
616.00,0.0080
615.00,0.0081
614.00,0.0081
613.00,0.0080
612.00,0.0078
611.00,0.0075
610.00,0.0073
609.00,0.0071
608.00,0.0071
607.00,0.0071
606.00,0.0073
605.00,0.0075
604.00,0.0075
603.00,0.0074
602.00,0.0072
601.00,0.0070
600.00,0.0070
599.00,0.0072
598.00,0.0074
597.00,0.0075
596.00,0.0076
595.00,0.0077
594.00,0.0078
593.00,0.0079
592.00,0.0079
591.00,0.0077
590.00,0.0075
589.00,0.0075
588.00,0.0076
587.00,0.0078
586.00,0.0079
585.00,0.0078
584.00,0.0076
583.00,0.0076
582.00,0.0077
581.00,0.0079
580.00,0.0080
579.00,0.0080
578.00,0.0079
577.00,0.0078
576.00,0.0076
575.00,0.0074
574.00,0.0073
573.00,0.0073
572.00,0.0074
571.00,0.0074
570.00,0.0075
569.00,0.0079
568.00,0.0083
567.00,0.0086
566.00,0.0085
565.00,0.0083
564.00,0.0081
563.00,0.0080
562.00,0.0080
561.00,0.0080
560.00,0.0081
559.00,0.0082
558.00,0.0082
557.00,0.0080
556.00,0.0077
555.00,0.0075
554.00,0.0074
553.00,0.0074
552.00,0.0075
551.00,0.0077
550.00,0.0079
549.00,0.0081
548.00,0.0083
547.00,0.0087
546.00,0.0090
545.00,0.0091
544.00,0.0090
543.00,0.0089
542.00,0.0091
541.00,0.0096
540.00,0.0099
539.00,0.0099
538.00,0.0097
537.00,0.0097
536.00,0.0101
535.00,0.0105
534.00,0.0106
533.00,0.0105
532.00,0.0103
531.00,0.0102
530.00,0.0103
529.00,0.0103
528.00,0.0099
527.00,0.0093
526.00,0.0086
525.00,0.0084
524.00,0.0085
523.00,0.0085
522.00,0.0083
521.00,0.0081
520.00,0.0081
519.00,0.0080
518.00,0.0079
517.00,0.0078
516.00,0.0079
515.00,0.0083
514.00,0.0085
513.00,0.0085
512.00,0.0083
511.00,0.0080
510.00,0.0079
509.00,0.0080
508.00,0.0082
507.00,0.0084
506.00,0.0086
505.00,0.0086
504.00,0.0087
503.00,0.0090
502.00,0.0096
501.00,0.0100
500.00,0.0100
499.00,0.0095
498.00,0.0090
497.00,0.0087
496.00,0.0087
495.00,0.0085
494.00,0.0080
493.00,0.0075
492.00,0.0072
491.00,0.0074
490.00,0.0077
489.00,0.0078
488.00,0.0076
487.00,0.0071
486.00,0.0066
485.00,0.0065
484.00,0.0069
483.00,0.0080
482.00,0.0093
481.00,0.0101
480.00,0.0101
479.00,0.0097
478.00,0.0095
477.00,0.0101
476.00,0.0109
475.00,0.0115
474.00,0.0118
473.00,0.0119
472.00,0.0119
471.00,0.0120
470.00,0.0125
469.00,0.0134
468.00,0.0143
467.00,0.0146
466.00,0.0142
465.00,0.0140
464.00,0.0146
463.00,0.0162
462.00,0.0183
461.00,0.0199
460.00,0.0205
459.00,0.0199
458.00,0.0187
457.00,0.0177
456.00,0.0170
455.00,0.0162
454.00,0.0153
453.00,0.0147
452.00,0.0144
451.00,0.0138
450.00,0.0126
