Created as New Dataset,Sample 058 By Administrator Date Thursday, September 04 2025
cm-1,A
4000.00,0.0009
3999.00,0.0009
3998.00,0.0009
3997.00,0.0009
3996.00,0.0009
3995.00,0.0009
3994.00,0.0009
3993.00,0.0010
3992.00,0.0010
3991.00,0.0009
3990.00,0.0009
3989.00,0.0009
3988.00,0.0008
3987.00,0.0008
3986.00,0.0008
3985.00,0.0008
3984.00,0.0008
3983.00,0.0008
3982.00,0.0008
3981.00,0.0008
3980.00,0.0008
3979.00,0.0008
3978.00,0.0008
3977.00,0.0008
3976.00,0.0007
3975.00,0.0007
3974.00,0.0007
3973.00,0.0008
3972.00,0.0008
3971.00,0.0008
3970.00,0.0008
3969.00,0.0008
3968.00,0.0008
3967.00,0.0008
3966.00,0.0008
3965.00,0.0008
3964.00,0.0007
3963.00,0.0007
3962.00,0.0007
3961.00,0.0006
3960.00,0.0006
3959.00,0.0006
3958.00,0.0006
3957.00,0.0006
3956.00,0.0006
3955.00,0.0006
3954.00,0.0006
3953.00,0.0007
3952.00,0.0007
3951.00,0.0007
3950.00,0.0007
3949.00,0.0007
3948.00,0.0006
3947.00,0.0006
3946.00,0.0006
3945.00,0.0006
3944.00,0.0007
3943.00,0.0007
3942.00,0.0007
3941.00,0.0007
3940.00,0.0007
3939.00,0.0007
3938.00,0.0007
3937.00,0.0007
3936.00,0.0006
3935.00,0.0006
3934.00,0.0006
3933.00,0.0007
3932.00,0.0007
3931.00,0.0008
3930.00,0.0008
3929.00,0.0009
3928.00,0.0009
3927.00,0.0009
3926.00,0.0008
3925.00,0.0008
3924.00,0.0008
3923.00,0.0007
3922.00,0.0007
3921.00,0.0007
3920.00,0.0006
3919.00,0.0006
3918.00,0.0006
3917.00,0.0006
3916.00,0.0007
3915.00,0.0007
3914.00,0.0007
3913.00,0.0007
3912.00,0.0007
3911.00,0.0007
3910.00,0.0007
3909.00,0.0007
3908.00,0.0007
3907.00,0.0007
3906.00,0.0006
3905.00,0.0006
3904.00,0.0006
3903.00,0.0006
3902.00,0.0006
3901.00,0.0006
3900.00,0.0006
3899.00,0.0006
3898.00,0.0006
3897.00,0.0006
3896.00,0.0007
3895.00,0.0007
3894.00,0.0007
3893.00,0.0007
3892.00,0.0008
3891.00,0.0008
3890.00,0.0008
3889.00,0.0008
3888.00,0.0008
3887.00,0.0008
3886.00,0.0007
3885.00,0.0007
3884.00,0.0006
3883.00,0.0006
3882.00,0.0007
3881.00,0.0007
3880.00,0.0007
3879.00,0.0006
3878.00,0.0006
3877.00,0.0006
3876.00,0.0007
3875.00,0.0007
3874.00,0.0007
3873.00,0.0007
3872.00,0.0007
3871.00,0.0006
3870.00,0.0006
3869.00,0.0006
3868.00,0.0006
3867.00,0.0005
3866.00,0.0005
3865.00,0.0005
3864.00,0.0006
3863.00,0.0006
3862.00,0.0006
3861.00,0.0006
3860.00,0.0007
3859.00,0.0007
3858.00,0.0007
3857.00,0.0007
3856.00,0.0007
3855.00,0.0007
3854.00,0.0006
3853.00,0.0006
3852.00,0.0005
3851.00,0.0005
3850.00,0.0005
3849.00,0.0005
3848.00,0.0005
3847.00,0.0005
3846.00,0.0005
3845.00,0.0006
3844.00,0.0006
3843.00,0.0006
3842.00,0.0006
3841.00,0.0006
3840.00,0.0006
3839.00,0.0006
3838.00,0.0007
3837.00,0.0007
3836.00,0.0007
3835.00,0.0007
3834.00,0.0007
3833.00,0.0007
3832.00,0.0007
3831.00,0.0007
3830.00,0.0007
3829.00,0.0007
3828.00,0.0007
3827.00,0.0007
3826.00,0.0007
3825.00,0.0007
3824.00,0.0007
3823.00,0.0007
3822.00,0.0007
3821.00,0.0007
3820.00,0.0007
3819.00,0.0007
3818.00,0.0007
3817.00,0.0007
3816.00,0.0007
3815.00,0.0007
3814.00,0.0007
3813.00,0.0008
3812.00,0.0008
3811.00,0.0008
3810.00,0.0008
3809.00,0.0008
3808.00,0.0008
3807.00,0.0007
3806.00,0.0007
3805.00,0.0007
3804.00,0.0007
3803.00,0.0007
3802.00,0.0007
3801.00,0.0007
3800.00,0.0007
3799.00,0.0007
3798.00,0.0007
3797.00,0.0007
3796.00,0.0007
3795.00,0.0007
3794.00,0.0007
3793.00,0.0006
3792.00,0.0005
3791.00,0.0005
3790.00,0.0005
3789.00,0.0006
3788.00,0.0006
3787.00,0.0006
3786.00,0.0007
3785.00,0.0006
3784.00,0.0006
3783.00,0.0006
3782.00,0.0007
3781.00,0.0007
3780.00,0.0007
3779.00,0.0007
3778.00,0.0006
3777.00,0.0006
3776.00,0.0006
3775.00,0.0006
3774.00,0.0006
3773.00,0.0006
3772.00,0.0006
3771.00,0.0006
3770.00,0.0006
3769.00,0.0006
3768.00,0.0007
3767.00,0.0007
3766.00,0.0008
3765.00,0.0008
3764.00,0.0008
3763.00,0.0008
3762.00,0.0008
3761.00,0.0008
3760.00,0.0007
3759.00,0.0007
3758.00,0.0007
3757.00,0.0007
3756.00,0.0007
3755.00,0.0007
3754.00,0.0007
3753.00,0.0006
3752.00,0.0006
3751.00,0.0006
3750.00,0.0006
3749.00,0.0006
3748.00,0.0006
3747.00,0.0006
3746.00,0.0006
3745.00,0.0006
3744.00,0.0006
3743.00,0.0005
3742.00,0.0005
3741.00,0.0005
3740.00,0.0005
3739.00,0.0004
3738.00,0.0005
3737.00,0.0005
3736.00,0.0005
3735.00,0.0005
3734.00,0.0005
3733.00,0.0006
3732.00,0.0006
3731.00,0.0006
3730.00,0.0006
3729.00,0.0006
3728.00,0.0006
3727.00,0.0006
3726.00,0.0006
3725.00,0.0006
3724.00,0.0006
3723.00,0.0005
3722.00,0.0005
3721.00,0.0005
3720.00,0.0006
3719.00,0.0006
3718.00,0.0007
3717.00,0.0007
3716.00,0.0007
3715.00,0.0006
3714.00,0.0006
3713.00,0.0005
3712.00,0.0005
3711.00,0.0005
3710.00,0.0005
3709.00,0.0005
3708.00,0.0005
3707.00,0.0005
3706.00,0.0005
3705.00,0.0005
3704.00,0.0005
3703.00,0.0005
3702.00,0.0005
3701.00,0.0005
3700.00,0.0005
3699.00,0.0005
3698.00,0.0005
3697.00,0.0005
3696.00,0.0006
3695.00,0.0006
3694.00,0.0006
3693.00,0.0005
3692.00,0.0005
3691.00,0.0005
3690.00,0.0005
3689.00,0.0005
3688.00,0.0005
3687.00,0.0005
3686.00,0.0005
3685.00,0.0005
3684.00,0.0005
3683.00,0.0005
3682.00,0.0005
3681.00,0.0005
3680.00,0.0006
3679.00,0.0007
3678.00,0.0007
3677.00,0.0008
3676.00,0.0007
3675.00,0.0007
3674.00,0.0006
3673.00,0.0005
3672.00,0.0004
3671.00,0.0004
3670.00,0.0004
3669.00,0.0004
3668.00,0.0005
3667.00,0.0005
3666.00,0.0004
3665.00,0.0004
3664.00,0.0003
3663.00,0.0003
3662.00,0.0003
3661.00,0.0003
3660.00,0.0003
3659.00,0.0003
3658.00,0.0003
3657.00,0.0003
3656.00,0.0003
3655.00,0.0003
3654.00,0.0003
3653.00,0.0003
3652.00,0.0004
3651.00,0.0004
3650.00,0.0005
3649.00,0.0006
3648.00,0.0006
3647.00,0.0005
3646.00,0.0005
3645.00,0.0004
3644.00,0.0004
3643.00,0.0004
3642.00,0.0004
3641.00,0.0005
3640.00,0.0005
3639.00,0.0006
3638.00,0.0006
3637.00,0.0006
3636.00,0.0005
3635.00,0.0005
3634.00,0.0006
3633.00,0.0006
3632.00,0.0006
3631.00,0.0007
3630.00,0.0006
3629.00,0.0006
3628.00,0.0006
3627.00,0.0006
3626.00,0.0006
3625.00,0.0006
3624.00,0.0006
3623.00,0.0006
3622.00,0.0006
3621.00,0.0006
3620.00,0.0006
3619.00,0.0007
3618.00,0.0007
3617.00,0.0007
3616.00,0.0007
3615.00,0.0007
3614.00,0.0007
3613.00,0.0008
3612.00,0.0008
3611.00,0.0008
3610.00,0.0008
3609.00,0.0008
3608.00,0.0008
3607.00,0.0008
3606.00,0.0008
3605.00,0.0008
3604.00,0.0007
3603.00,0.0007
3602.00,0.0008
3601.00,0.0008
3600.00,0.0009
3599.00,0.0009
3598.00,0.0009
3597.00,0.0009
3596.00,0.0008
3595.00,0.0009
3594.00,0.0009
3593.00,0.0010
3592.00,0.0011
3591.00,0.0011
3590.00,0.0010
3589.00,0.0010
3588.00,0.0010
3587.00,0.0010
3586.00,0.0010
3585.00,0.0011
3584.00,0.0011
3583.00,0.0011
3582.00,0.0011
3581.00,0.0011
3580.00,0.0011
3579.00,0.0011
3578.00,0.0011
3577.00,0.0011
3576.00,0.0011
3575.00,0.0011
3574.00,0.0011
3573.00,0.0011
3572.00,0.0012
3571.00,0.0012
3570.00,0.0012
3569.00,0.0012
3568.00,0.0012
3567.00,0.0012
3566.00,0.0013
3565.00,0.0014
3564.00,0.0014
3563.00,0.0014
3562.00,0.0014
3561.00,0.0014
3560.00,0.0015
3559.00,0.0015
3558.00,0.0016
3557.00,0.0016
3556.00,0.0016
3555.00,0.0016
3554.00,0.0016
3553.00,0.0016
3552.00,0.0017
3551.00,0.0017
3550.00,0.0017
3549.00,0.0017
3548.00,0.0017
3547.00,0.0017
3546.00,0.0018
3545.00,0.0018
3544.00,0.0018
3543.00,0.0019
3542.00,0.0019
3541.00,0.0019
3540.00,0.0019
3539.00,0.0019
3538.00,0.0020
3537.00,0.0020
3536.00,0.0021
3535.00,0.0021
3534.00,0.0021
3533.00,0.0021
3532.00,0.0021
3531.00,0.0021
3530.00,0.0021
3529.00,0.0022
3528.00,0.0023
3527.00,0.0023
3526.00,0.0023
3525.00,0.0023
3524.00,0.0023
3523.00,0.0024
3522.00,0.0024
3521.00,0.0024
3520.00,0.0025
3519.00,0.0025
3518.00,0.0025
3517.00,0.0025
3516.00,0.0025
3515.00,0.0025
3514.00,0.0026
3513.00,0.0026
3512.00,0.0027
3511.00,0.0027
3510.00,0.0027
3509.00,0.0027
3508.00,0.0027
3507.00,0.0027
3506.00,0.0027
3505.00,0.0027
3504.00,0.0028
3503.00,0.0028
3502.00,0.0029
3501.00,0.0029
3500.00,0.0029
3499.00,0.0029
3498.00,0.0029
3497.00,0.0029
3496.00,0.0029
3495.00,0.0030
3494.00,0.0030
3493.00,0.0031
3492.00,0.0031
3491.00,0.0031
3490.00,0.0031
3489.00,0.0032
3488.00,0.0032
3487.00,0.0032
3486.00,0.0033
3485.00,0.0033
3484.00,0.0033
3483.00,0.0033
3482.00,0.0033
3481.00,0.0034
3480.00,0.0034
3479.00,0.0034
3478.00,0.0035
3477.00,0.0035
3476.00,0.0035
3475.00,0.0035
3474.00,0.0035
3473.00,0.0036
3472.00,0.0036
3471.00,0.0037
3470.00,0.0037
3469.00,0.0037
3468.00,0.0037
3467.00,0.0037
3466.00,0.0037
3465.00,0.0037
3464.00,0.0037
3463.00,0.0038
3462.00,0.0038
3461.00,0.0039
3460.00,0.0039
3459.00,0.0040
3458.00,0.0040
3457.00,0.0040
3456.00,0.0040
3455.00,0.0039
3454.00,0.0039
3453.00,0.0039
3452.00,0.0039
3451.00,0.0040
3450.00,0.0040
3449.00,0.0040
3448.00,0.0041
3447.00,0.0041
3446.00,0.0041
3445.00,0.0041
3444.00,0.0042
3443.00,0.0042
3442.00,0.0042
3441.00,0.0042
3440.00,0.0042
3439.00,0.0043
3438.00,0.0043
3437.00,0.0043
3436.00,0.0044
3435.00,0.0044
3434.00,0.0045
3433.00,0.0045
3432.00,0.0045
3431.00,0.0045
3430.00,0.0046
3429.00,0.0046
3428.00,0.0046
3427.00,0.0047
3426.00,0.0046
3425.00,0.0046
3424.00,0.0046
3423.00,0.0046
3422.00,0.0047
3421.00,0.0047
3420.00,0.0047
3419.00,0.0048
3418.00,0.0048
3417.00,0.0049
3416.00,0.0049
3415.00,0.0049
3414.00,0.0049
3413.00,0.0048
3412.00,0.0048
3411.00,0.0048
3410.00,0.0048
3409.00,0.0048
3408.00,0.0049
3407.00,0.0049
3406.00,0.0049
3405.00,0.0049
3404.00,0.0050
3403.00,0.0050
3402.00,0.0050
3401.00,0.0051
3400.00,0.0051
3399.00,0.0051
3398.00,0.0051
3397.00,0.0051
3396.00,0.0051
3395.00,0.0050
3394.00,0.0050
3393.00,0.0050
3392.00,0.0051
3391.00,0.0051
3390.00,0.0052
3389.00,0.0052
3388.00,0.0052
3387.00,0.0052
3386.00,0.0052
3385.00,0.0052
3384.00,0.0052
3383.00,0.0053
3382.00,0.0053
3381.00,0.0053
3380.00,0.0053
3379.00,0.0054
3378.00,0.0054
3377.00,0.0054
3376.00,0.0054
3375.00,0.0054
3374.00,0.0054
3373.00,0.0054
3372.00,0.0054
3371.00,0.0054
3370.00,0.0054
3369.00,0.0054
3368.00,0.0054
3367.00,0.0054
3366.00,0.0054
3365.00,0.0054
3364.00,0.0054
3363.00,0.0054
3362.00,0.0054
3361.00,0.0054
3360.00,0.0055
3359.00,0.0055
3358.00,0.0056
3357.00,0.0056
3356.00,0.0056
3355.00,0.0055
3354.00,0.0055
3353.00,0.0055
3352.00,0.0055
3351.00,0.0055
3350.00,0.0055
3349.00,0.0055
3348.00,0.0055
3347.00,0.0056
3346.00,0.0056
3345.00,0.0056
3344.00,0.0056
3343.00,0.0056
3342.00,0.0056
3341.00,0.0056
3340.00,0.0055
3339.00,0.0055
3338.00,0.0055
3337.00,0.0055
3336.00,0.0055
3335.00,0.0056
3334.00,0.0056
3333.00,0.0056
3332.00,0.0055
3331.00,0.0055
3330.00,0.0055
3329.00,0.0054
3328.00,0.0054
3327.00,0.0054
3326.00,0.0054
3325.00,0.0053
3324.00,0.0053
3323.00,0.0053
3322.00,0.0053
3321.00,0.0054
3320.00,0.0054
3319.00,0.0055
3318.00,0.0055
3317.00,0.0055
3316.00,0.0055
3315.00,0.0055
3314.00,0.0055
3313.00,0.0055
3312.00,0.0056
3311.00,0.0057
3310.00,0.0057
3309.00,0.0057
3308.00,0.0058
3307.00,0.0058
3306.00,0.0059
3305.00,0.0060
3304.00,0.0061
3303.00,0.0061
3302.00,0.0061
3301.00,0.0061
3300.00,0.0060
3299.00,0.0059
3298.00,0.0059
3297.00,0.0058
3296.00,0.0057
3295.00,0.0057
3294.00,0.0056
3293.00,0.0055
3292.00,0.0055
3291.00,0.0054
3290.00,0.0054
3289.00,0.0053
3288.00,0.0053
3287.00,0.0053
3286.00,0.0053
3285.00,0.0053
3284.00,0.0052
3283.00,0.0052
3282.00,0.0052
3281.00,0.0051
3280.00,0.0051
3279.00,0.0051
3278.00,0.0051
3277.00,0.0051
3276.00,0.0051
3275.00,0.0051
3274.00,0.0050
3273.00,0.0050
3272.00,0.0049
3271.00,0.0049
3270.00,0.0049
3269.00,0.0048
3268.00,0.0048
3267.00,0.0048
3266.00,0.0048
3265.00,0.0048
3264.00,0.0047
3263.00,0.0047
3262.00,0.0047
3261.00,0.0047
3260.00,0.0046
3259.00,0.0046
3258.00,0.0046
3257.00,0.0045
3256.00,0.0046
3255.00,0.0046
3254.00,0.0046
3253.00,0.0046
3252.00,0.0046
3251.00,0.0046
3250.00,0.0045
3249.00,0.0045
3248.00,0.0044
3247.00,0.0044
3246.00,0.0044
3245.00,0.0045
3244.00,0.0045
3243.00,0.0045
3242.00,0.0045
3241.00,0.0045
3240.00,0.0045
3239.00,0.0045
3238.00,0.0045
3237.00,0.0045
3236.00,0.0045
3235.00,0.0045
3234.00,0.0045
3233.00,0.0045
3232.00,0.0044
3231.00,0.0044
3230.00,0.0043
3229.00,0.0044
3228.00,0.0044
3227.00,0.0044
3226.00,0.0045
3225.00,0.0045
3224.00,0.0046
3223.00,0.0046
3222.00,0.0046
3221.00,0.0047
3220.00,0.0046
3219.00,0.0046
3218.00,0.0046
3217.00,0.0046
3216.00,0.0046
3215.00,0.0046
3214.00,0.0046
3213.00,0.0046
3212.00,0.0046
3211.00,0.0047
3210.00,0.0047
3209.00,0.0048
3208.00,0.0048
3207.00,0.0048
3206.00,0.0048
3205.00,0.0048
3204.00,0.0048
3203.00,0.0048
3202.00,0.0048
3201.00,0.0048
3200.00,0.0048
3199.00,0.0048
3198.00,0.0048
3197.00,0.0048
3196.00,0.0048
3195.00,0.0048
3194.00,0.0048
3193.00,0.0048
3192.00,0.0048
3191.00,0.0048
3190.00,0.0048
3189.00,0.0047
3188.00,0.0047
3187.00,0.0047
3186.00,0.0046
3185.00,0.0046
3184.00,0.0046
3183.00,0.0046
3182.00,0.0046
3181.00,0.0046
3180.00,0.0046
3179.00,0.0046
3178.00,0.0045
3177.00,0.0045
3176.00,0.0045
3175.00,0.0044
3174.00,0.0044
3173.00,0.0043
3172.00,0.0043
3171.00,0.0042
3170.00,0.0042
3169.00,0.0043
3168.00,0.0043
3167.00,0.0043
3166.00,0.0043
3165.00,0.0043
3164.00,0.0043
3163.00,0.0042
3162.00,0.0042
3161.00,0.0042
3160.00,0.0042
3159.00,0.0042
3158.00,0.0042
3157.00,0.0042
3156.00,0.0042
3155.00,0.0042
3154.00,0.0042
3153.00,0.0041
3152.00,0.0041
3151.00,0.0041
3150.00,0.0042
3149.00,0.0042
3148.00,0.0042
3147.00,0.0041
3146.00,0.0041
3145.00,0.0041
3144.00,0.0041
3143.00,0.0041
3142.00,0.0041
3141.00,0.0041
3140.00,0.0041
3139.00,0.0041
3138.00,0.0041
3137.00,0.0040
3136.00,0.0040
3135.00,0.0040
3134.00,0.0039
3133.00,0.0039
3132.00,0.0039
3131.00,0.0039
3130.00,0.0038
3129.00,0.0038
3128.00,0.0038
3127.00,0.0038
3126.00,0.0037
3125.00,0.0037
3124.00,0.0037
3123.00,0.0037
3122.00,0.0036
3121.00,0.0036
3120.00,0.0036
3119.00,0.0036
3118.00,0.0035
3117.00,0.0035
3116.00,0.0035
3115.00,0.0034
3114.00,0.0034
3113.00,0.0034
3112.00,0.0034
3111.00,0.0034
3110.00,0.0034
3109.00,0.0034
3108.00,0.0034
3107.00,0.0034
3106.00,0.0034
3105.00,0.0034
3104.00,0.0034
3103.00,0.0034
3102.00,0.0034
3101.00,0.0033
3100.00,0.0033
3099.00,0.0033
3098.00,0.0032
3097.00,0.0032
3096.00,0.0032
3095.00,0.0032
3094.00,0.0032
3093.00,0.0032
3092.00,0.0032
3091.00,0.0032
3090.00,0.0032
3089.00,0.0032
3088.00,0.0032
3087.00,0.0032
3086.00,0.0032
3085.00,0.0032
3084.00,0.0032
3083.00,0.0032
3082.00,0.0031
3081.00,0.0031
3080.00,0.0031
3079.00,0.0031
3078.00,0.0031
3077.00,0.0031
3076.00,0.0032
3075.00,0.0032
3074.00,0.0033
3073.00,0.0033
3072.00,0.0033
3071.00,0.0033
3070.00,0.0033
3069.00,0.0033
3068.00,0.0032
3067.00,0.0033
3066.00,0.0033
3065.00,0.0033
3064.00,0.0033
3063.00,0.0033
3062.00,0.0033
3061.00,0.0033
3060.00,0.0033
3059.00,0.0033
3058.00,0.0033
3057.00,0.0034
3056.00,0.0034
3055.00,0.0034
3054.00,0.0035
3053.00,0.0035
3052.00,0.0035
3051.00,0.0035
3050.00,0.0035
3049.00,0.0035
3048.00,0.0036
3047.00,0.0036
3046.00,0.0036
3045.00,0.0036
3044.00,0.0036
3043.00,0.0036
3042.00,0.0036
3041.00,0.0037
3040.00,0.0037
3039.00,0.0037
3038.00,0.0038
3037.00,0.0038
3036.00,0.0038
3035.00,0.0039
3034.00,0.0039
3033.00,0.0040
3032.00,0.0040
3031.00,0.0041
3030.00,0.0041
3029.00,0.0042
3028.00,0.0042
3027.00,0.0043
3026.00,0.0043
3025.00,0.0044
3024.00,0.0045
3023.00,0.0046
3022.00,0.0046
3021.00,0.0047
3020.00,0.0047
3019.00,0.0048
3018.00,0.0048
3017.00,0.0049
3016.00,0.0050
3015.00,0.0051
3014.00,0.0052
3013.00,0.0053
3012.00,0.0054
3011.00,0.0056
3010.00,0.0057
3009.00,0.0058
3008.00,0.0060
3007.00,0.0061
3006.00,0.0063
3005.00,0.0065
3004.00,0.0066
3003.00,0.0068
3002.00,0.0070
3001.00,0.0072
3000.00,0.0075
2999.00,0.0077
2998.00,0.0080
2997.00,0.0083
2996.00,0.0087
2995.00,0.0091
2994.00,0.0096
2993.00,0.0101
2992.00,0.0106
2991.00,0.0112
2990.00,0.0118
2989.00,0.0125
2988.00,0.0133
2987.00,0.0141
2986.00,0.0150
2985.00,0.0161
2984.00,0.0172
2983.00,0.0185
2982.00,0.0200
2981.00,0.0218
2980.00,0.0238
2979.00,0.0261
2978.00,0.0287
2977.00,0.0316
2976.00,0.0350
2975.00,0.0390
2974.00,0.0435
2973.00,0.0487
2972.00,0.0547
2971.00,0.0616
2970.00,0.0692
2969.00,0.0778
2968.00,0.0872
2967.00,0.0973
2966.00,0.1082
2965.00,0.1197
2964.00,0.1313
2963.00,0.1425
2962.00,0.1524
2961.00,0.1604
2960.00,0.1661
2959.00,0.1697
2958.00,0.1719
2957.00,0.1734
2956.00,0.1753
2955.00,0.1782
2954.00,0.1822
2953.00,0.1867
2952.00,0.1906
2951.00,0.1927
2950.00,0.1917
2949.00,0.1870
2948.00,0.1788
2947.00,0.1677
2946.00,0.1550
2945.00,0.1423
2944.00,0.1305
2943.00,0.1206
2942.00,0.1130
2941.00,0.1078
2940.00,0.1048
2939.00,0.1038
2938.00,0.1047
2937.00,0.1072
2936.00,0.1112
2935.00,0.1166
2934.00,0.1233
2933.00,0.1311
2932.00,0.1400
2931.00,0.1498
2930.00,0.1602
2929.00,0.1709
2928.00,0.1817
2927.00,0.1921
2926.00,0.2022
2925.00,0.2117
2924.00,0.2209
2923.00,0.2299
2922.00,0.2385
2921.00,0.2466
2920.00,0.2534
2919.00,0.2580
2918.00,0.2598
2917.00,0.2581
2916.00,0.2530
2915.00,0.2455
2914.00,0.2364
2913.00,0.2270
2912.00,0.2182
2911.00,0.2106
2910.00,0.2041
2909.00,0.1985
2908.00,0.1934
2907.00,0.1883
2906.00,0.1830
2905.00,0.1772
2904.00,0.1711
2903.00,0.1646
2902.00,0.1580
2901.00,0.1514
2900.00,0.1449
2899.00,0.1387
2898.00,0.1329
2897.00,0.1276
2896.00,0.1228
2895.00,0.1187
2894.00,0.1151
2893.00,0.1122
2892.00,0.1099
2891.00,0.1081
2890.00,0.1067
2889.00,0.1058
2888.00,0.1052
2887.00,0.1049
2886.00,0.1049
2885.00,0.1052
2884.00,0.1058
2883.00,0.1067
2882.00,0.1078
2881.00,0.1091
2880.00,0.1102
2879.00,0.1109
2878.00,0.1110
2877.00,0.1106
2876.00,0.1098
2875.00,0.1090
2874.00,0.1087
2873.00,0.1091
2872.00,0.1102
2871.00,0.1119
2870.00,0.1140
2869.00,0.1160
2868.00,0.1173
2867.00,0.1172
2866.00,0.1151
2865.00,0.1110
2864.00,0.1052
2863.00,0.0986
2862.00,0.0920
2861.00,0.0863
2860.00,0.0819
2859.00,0.0789
2858.00,0.0773
2857.00,0.0767
2856.00,0.0771
2855.00,0.0780
2854.00,0.0794
2853.00,0.0811
2852.00,0.0828
2851.00,0.0845
2850.00,0.0861
2849.00,0.0875
2848.00,0.0891
2847.00,0.0911
2846.00,0.0941
2845.00,0.0982
2844.00,0.1033
2843.00,0.1090
2842.00,0.1148
2841.00,0.1198
2840.00,0.1233
2839.00,0.1244
2838.00,0.1226
2837.00,0.1177
2836.00,0.1102
2835.00,0.1006
2834.00,0.0901
2833.00,0.0796
2832.00,0.0699
2831.00,0.0614
2830.00,0.0542
2829.00,0.0483
2828.00,0.0435
2827.00,0.0396
2826.00,0.0363
2825.00,0.0337
2824.00,0.0314
2823.00,0.0295
2822.00,0.0278
2821.00,0.0263
2820.00,0.0250
2819.00,0.0238
2818.00,0.0228
2817.00,0.0219
2816.00,0.0212
2815.00,0.0205
2814.00,0.0198
2813.00,0.0192
2812.00,0.0187
2811.00,0.0181
2810.00,0.0176
2809.00,0.0171
2808.00,0.0166
2807.00,0.0160
2806.00,0.0154
2805.00,0.0148
2804.00,0.0142
2803.00,0.0136
2802.00,0.0131
2801.00,0.0126
2800.00,0.0122
2799.00,0.0119
2798.00,0.0117
2797.00,0.0115
2796.00,0.0113
2795.00,0.0111
2794.00,0.0109
2793.00,0.0105
2792.00,0.0102
2791.00,0.0098
2790.00,0.0095
2789.00,0.0091
2788.00,0.0088
2787.00,0.0085
2786.00,0.0082
2785.00,0.0079
2784.00,0.0076
2783.00,0.0074
2782.00,0.0072
2781.00,0.0070
2780.00,0.0068
2779.00,0.0066
2778.00,0.0064
2777.00,0.0063
2776.00,0.0062
2775.00,0.0061
2774.00,0.0060
2773.00,0.0059
2772.00,0.0058
2771.00,0.0058
2770.00,0.0058
2769.00,0.0057
2768.00,0.0057
2767.00,0.0056
2766.00,0.0056
2765.00,0.0056
2764.00,0.0055
2763.00,0.0054
2762.00,0.0054
2761.00,0.0054
2760.00,0.0054
2759.00,0.0054
2758.00,0.0053
2757.00,0.0053
2756.00,0.0052
2755.00,0.0052
2754.00,0.0052
2753.00,0.0052
2752.00,0.0052
2751.00,0.0052
2750.00,0.0051
2749.00,0.0051
2748.00,0.0051
2747.00,0.0052
2746.00,0.0053
2745.00,0.0053
2744.00,0.0054
2743.00,0.0054
2742.00,0.0055
2741.00,0.0056
2740.00,0.0057
2739.00,0.0059
2738.00,0.0060
2737.00,0.0061
2736.00,0.0062
2735.00,0.0063
2734.00,0.0064
2733.00,0.0065
2732.00,0.0067
2731.00,0.0069
2730.00,0.0071
2729.00,0.0073
2728.00,0.0075
2727.00,0.0078
2726.00,0.0081
2725.00,0.0083
2724.00,0.0085
2723.00,0.0086
2722.00,0.0085
2721.00,0.0083
2720.00,0.0081
2719.00,0.0078
2718.00,0.0075
2717.00,0.0072
2716.00,0.0069
2715.00,0.0066
2714.00,0.0063
2713.00,0.0061
2712.00,0.0059
2711.00,0.0058
2710.00,0.0056
2709.00,0.0055
2708.00,0.0054
2707.00,0.0052
2706.00,0.0051
2705.00,0.0050
2704.00,0.0050
2703.00,0.0049
2702.00,0.0048
2701.00,0.0047
2700.00,0.0047
2699.00,0.0046
2698.00,0.0046
2697.00,0.0046
2696.00,0.0045
2695.00,0.0045
2694.00,0.0045
2693.00,0.0046
2692.00,0.0046
2691.00,0.0046
2690.00,0.0046
2689.00,0.0046
2688.00,0.0046
2687.00,0.0046
2686.00,0.0046
2685.00,0.0046
2684.00,0.0046
2683.00,0.0046
2682.00,0.0046
2681.00,0.0046
2680.00,0.0046
2679.00,0.0046
2678.00,0.0046
2677.00,0.0046
2676.00,0.0046
2675.00,0.0046
2674.00,0.0045
2673.00,0.0045
2672.00,0.0045
2671.00,0.0044
2670.00,0.0044
2669.00,0.0044
2668.00,0.0044
2667.00,0.0044
2666.00,0.0045
2665.00,0.0045
2664.00,0.0046
2663.00,0.0046
2662.00,0.0047
2661.00,0.0048
2660.00,0.0048
2659.00,0.0048
2658.00,0.0048
2657.00,0.0048
2656.00,0.0047
2655.00,0.0046
2654.00,0.0046
2653.00,0.0045
2652.00,0.0044
2651.00,0.0043
2650.00,0.0043
2649.00,0.0042
2648.00,0.0042
2647.00,0.0042
2646.00,0.0042
2645.00,0.0042
2644.00,0.0042
2643.00,0.0041
2642.00,0.0040
2641.00,0.0040
2640.00,0.0039
2639.00,0.0039
2638.00,0.0039
2637.00,0.0039
2636.00,0.0039
2635.00,0.0039
2634.00,0.0039
2633.00,0.0039
2632.00,0.0039
2631.00,0.0039
2630.00,0.0039
2629.00,0.0039
2628.00,0.0039
2627.00,0.0039
2626.00,0.0039
2625.00,0.0039
2624.00,0.0040
2623.00,0.0040
2622.00,0.0040
2621.00,0.0040
2620.00,0.0039
2619.00,0.0039
2618.00,0.0039
2617.00,0.0039
2616.00,0.0040
2615.00,0.0040
2614.00,0.0040
2613.00,0.0039
2612.00,0.0039
2611.00,0.0038
2610.00,0.0037
2609.00,0.0036
2608.00,0.0036
2607.00,0.0035
2606.00,0.0034
2605.00,0.0033
2604.00,0.0032
2603.00,0.0032
2602.00,0.0032
2601.00,0.0031
2600.00,0.0031
2599.00,0.0031
2598.00,0.0031
2597.00,0.0031
2596.00,0.0031
2595.00,0.0031
2594.00,0.0031
2593.00,0.0031
2592.00,0.0031
2591.00,0.0032
2590.00,0.0033
2589.00,0.0034
2588.00,0.0035
2587.00,0.0036
2586.00,0.0037
2585.00,0.0038
2584.00,0.0038
2583.00,0.0038
2582.00,0.0038
2581.00,0.0038
2580.00,0.0037
2579.00,0.0036
2578.00,0.0035
2577.00,0.0034
2576.00,0.0033
2575.00,0.0032
2574.00,0.0031
2573.00,0.0031
2572.00,0.0030
2571.00,0.0029
2570.00,0.0028
2569.00,0.0027
2568.00,0.0026
2567.00,0.0025
2566.00,0.0024
2565.00,0.0024
2564.00,0.0024
2563.00,0.0024
2562.00,0.0024
2561.00,0.0023
2560.00,0.0023
2559.00,0.0023
2558.00,0.0023
2557.00,0.0023
2556.00,0.0023
2555.00,0.0023
2554.00,0.0023
2553.00,0.0023
2552.00,0.0022
2551.00,0.0021
2550.00,0.0021
2549.00,0.0020
2548.00,0.0020
2547.00,0.0019
2546.00,0.0019
2545.00,0.0018
2544.00,0.0018
2543.00,0.0018
2542.00,0.0018
2541.00,0.0017
2540.00,0.0017
2539.00,0.0017
2538.00,0.0016
2537.00,0.0016
2536.00,0.0016
2535.00,0.0016
2534.00,0.0016
2533.00,0.0016
2532.00,0.0016
2531.00,0.0016
2530.00,0.0016
2529.00,0.0016
2528.00,0.0016
2527.00,0.0015
2526.00,0.0015
2525.00,0.0014
2524.00,0.0014
2523.00,0.0014
2522.00,0.0013
2521.00,0.0013
2520.00,0.0012
2519.00,0.0012
2518.00,0.0011
2517.00,0.0011
2516.00,0.0011
2515.00,0.0011
2514.00,0.0011
2513.00,0.0011
2512.00,0.0011
2511.00,0.0011
2510.00,0.0011
2509.00,0.0011
2508.00,0.0011
2507.00,0.0011
2506.00,0.0011
2505.00,0.0011
2504.00,0.0011
2503.00,0.0012
2502.00,0.0012
2501.00,0.0012
2500.00,0.0011
2499.00,0.0011
2498.00,0.0010
2497.00,0.0010
2496.00,0.0010
2495.00,0.0010
2494.00,0.0010
2493.00,0.0010
2492.00,0.0010
2491.00,0.0011
2490.00,0.0011
2489.00,0.0011
2488.00,0.0011
2487.00,0.0011
2486.00,0.0011
2485.00,0.0012
2484.00,0.0012
2483.00,0.0012
2482.00,0.0011
2481.00,0.0009
2480.00,0.0008
2479.00,0.0008
2478.00,0.0008
2477.00,0.0008
2476.00,0.0008
2475.00,0.0008
2474.00,0.0008
2473.00,0.0008
2472.00,0.0007
2471.00,0.0007
2470.00,0.0007
2469.00,0.0007
2468.00,0.0007
2467.00,0.0008
2466.00,0.0008
2465.00,0.0009
2464.00,0.0009
2463.00,0.0009
2462.00,0.0009
2461.00,0.0009
2460.00,0.0010
2459.00,0.0010
2458.00,0.0010
2457.00,0.0010
2456.00,0.0010
2455.00,0.0010
2454.00,0.0011
2453.00,0.0011
2452.00,0.0011
2451.00,0.0011
2450.00,0.0011
2449.00,0.0012
2448.00,0.0012
2447.00,0.0012
2446.00,0.0011
2445.00,0.0011
2444.00,0.0011
2443.00,0.0011
2442.00,0.0011
2441.00,0.0010
2440.00,0.0010
2439.00,0.0010
2438.00,0.0010
2437.00,0.0010
2436.00,0.0010
2435.00,0.0010
2434.00,0.0011
2433.00,0.0011
2432.00,0.0011
2431.00,0.0011
2430.00,0.0011
2429.00,0.0011
2428.00,0.0010
2427.00,0.0010
2426.00,0.0010
2425.00,0.0010
2424.00,0.0010
2423.00,0.0010
2422.00,0.0010
2421.00,0.0010
2420.00,0.0010
2419.00,0.0010
2418.00,0.0010
2417.00,0.0009
2416.00,0.0009
2415.00,0.0009
2414.00,0.0009
2413.00,0.0009
2412.00,0.0009
2411.00,0.0009
2410.00,0.0010
2409.00,0.0010
2408.00,0.0010
2407.00,0.0010
2406.00,0.0009
2405.00,0.0008
2404.00,0.0008
2403.00,0.0007
2402.00,0.0007
2401.00,0.0008
2400.00,0.0008
2399.00,0.0008
2398.00,0.0008
2397.00,0.0009
2396.00,0.0009
2395.00,0.0009
2394.00,0.0009
2393.00,0.0009
2392.00,0.0008
2391.00,0.0008
2390.00,0.0007
2389.00,0.0006
2388.00,0.0006
2387.00,0.0006
2386.00,0.0006
2385.00,0.0006
2384.00,0.0006
2383.00,0.0006
2382.00,0.0006
2381.00,0.0006
2380.00,0.0007
2379.00,0.0006
2378.00,0.0006
2377.00,0.0005
2376.00,0.0005
2375.00,0.0005
2374.00,0.0006
2373.00,0.0006
2372.00,0.0005
2371.00,0.0005
2370.00,0.0005
2369.00,0.0004
2368.00,0.0003
2367.00,0.0003
2366.00,0.0004
2365.00,0.0004
2364.00,0.0005
2363.00,0.0005
2362.00,0.0005
2361.00,0.0006
2360.00,0.0006
2359.00,0.0006
2358.00,0.0006
2357.00,0.0006
2356.00,0.0006
2355.00,0.0007
2354.00,0.0007
2353.00,0.0006
2352.00,0.0006
2351.00,0.0006
2350.00,0.0006
2349.00,0.0007
2348.00,0.0007
2347.00,0.0007
2346.00,0.0007
2345.00,0.0008
2344.00,0.0008
2343.00,0.0008
2342.00,0.0009
2341.00,0.0009
2340.00,0.0009
2339.00,0.0009
2338.00,0.0009
2337.00,0.0010
2336.00,0.0010
2335.00,0.0010
2334.00,0.0009
2333.00,0.0008
2332.00,0.0007
2331.00,0.0007
2330.00,0.0007
2329.00,0.0008
2328.00,0.0010
2327.00,0.0013
2326.00,0.0017
2325.00,0.0020
2324.00,0.0022
2323.00,0.0021
2322.00,0.0018
2321.00,0.0016
2320.00,0.0015
2319.00,0.0014
2318.00,0.0014
2317.00,0.0013
2316.00,0.0013
2315.00,0.0012
2314.00,0.0011
2313.00,0.0011
2312.00,0.0011
2311.00,0.0011
2310.00,0.0011
2309.00,0.0011
2308.00,0.0011
2307.00,0.0010
2306.00,0.0010
2305.00,0.0010
2304.00,0.0010
2303.00,0.0010
2302.00,0.0011
2301.00,0.0011
2300.00,0.0010
2299.00,0.0010
2298.00,0.0011
2297.00,0.0011
2296.00,0.0012
2295.00,0.0013
2294.00,0.0013
2293.00,0.0013
2292.00,0.0014
2291.00,0.0014
2290.00,0.0015
2289.00,0.0016
2288.00,0.0016
2287.00,0.0017
2286.00,0.0017
2285.00,0.0017
2284.00,0.0018
2283.00,0.0018
2282.00,0.0017
2281.00,0.0016
2280.00,0.0015
2279.00,0.0014
2278.00,0.0013
2277.00,0.0012
2276.00,0.0012
2275.00,0.0013
2274.00,0.0013
2273.00,0.0013
2272.00,0.0013
2271.00,0.0013
2270.00,0.0014
2269.00,0.0013
2268.00,0.0013
2267.00,0.0012
2266.00,0.0011
2265.00,0.0010
2264.00,0.0010
2263.00,0.0010
2262.00,0.0010
2261.00,0.0011
2260.00,0.0011
2259.00,0.0011
2258.00,0.0010
2257.00,0.0009
2256.00,0.0008
2255.00,0.0006
2254.00,0.0006
2253.00,0.0006
2252.00,0.0008
2251.00,0.0009
2250.00,0.0010
2249.00,0.0010
2248.00,0.0011
2247.00,0.0011
2246.00,0.0010
2245.00,0.0009
2244.00,0.0009
2243.00,0.0009
2242.00,0.0009
2241.00,0.0009
2240.00,0.0009
2239.00,0.0010
2238.00,0.0010
2237.00,0.0010
2236.00,0.0009
2235.00,0.0008
2234.00,0.0006
2233.00,0.0005
2232.00,0.0004
2231.00,0.0003
2230.00,0.0003
2229.00,0.0004
2228.00,0.0005
2227.00,0.0005
2226.00,0.0006
2225.00,0.0006
2224.00,0.0006
2223.00,0.0005
2222.00,0.0003
2221.00,0.0002
2220.00,0.0002
2219.00,0.0003
2218.00,0.0005
2217.00,0.0007
2216.00,0.0008
2215.00,0.0009
2214.00,0.0010
2213.00,0.0010
2212.00,0.0011
2211.00,0.0011
2210.00,0.0011
2209.00,0.0010
2208.00,0.0009
2207.00,0.0008
2206.00,0.0007
2205.00,0.0007
2204.00,0.0006
2203.00,0.0005
2202.00,0.0004
2201.00,0.0005
2200.00,0.0006
2199.00,0.0007
2198.00,0.0007
2197.00,0.0007
2196.00,0.0007
2195.00,0.0007
2194.00,0.0007
2193.00,0.0007
2192.00,0.0007
2191.00,0.0006
2190.00,0.0006
2189.00,0.0006
2188.00,0.0007
2187.00,0.0007
2186.00,0.0008
2185.00,0.0009
2184.00,0.0009
2183.00,0.0008
2182.00,0.0007
2181.00,0.0007
2180.00,0.0008
2179.00,0.0009
2178.00,0.0007
2177.00,0.0004
2176.00,0.0002
2175.00,0.0000
2174.00,0.0001
2173.00,0.0004
2172.00,0.0007
2171.00,0.0009
2170.00,0.0009
2169.00,0.0009
2168.00,0.0008
2167.00,0.0009
2166.00,0.0009
2165.00,0.0011
2164.00,0.0013
2163.00,0.0015
2162.00,0.0017
2161.00,0.0014
2160.00,0.0004
2159.00,-0.0010
2158.00,-0.0023
2157.00,-0.0030
2156.00,-0.0029
2155.00,-0.0025
2154.00,-0.0020
2153.00,-0.0015
2152.00,-0.0012
2151.00,-0.0010
2150.00,-0.0011
2149.00,-0.0012
2148.00,-0.0012
2147.00,-0.0012
2146.00,-0.0010
2145.00,-0.0008
2144.00,-0.0007
2143.00,-0.0009
2142.00,-0.0012
2141.00,-0.0014
2140.00,-0.0014
2139.00,-0.0012
2138.00,-0.0009
2137.00,-0.0007
2136.00,-0.0007
2135.00,-0.0009
2134.00,-0.0013
2133.00,-0.0016
2132.00,-0.0016
2131.00,-0.0015
2130.00,-0.0013
2129.00,-0.0011
2128.00,-0.0009
2127.00,-0.0008
2126.00,-0.0008
2125.00,-0.0007
2124.00,-0.0007
2123.00,-0.0007
2122.00,-0.0007
2121.00,-0.0006
2120.00,-0.0004
2119.00,-0.0003
2118.00,-0.0002
2117.00,-0.0001
2116.00,-0.0001
2115.00,-0.0000
2114.00,0.0000
2113.00,0.0001
2112.00,0.0002
2111.00,0.0003
2110.00,0.0003
2109.00,0.0003
2108.00,0.0002
2107.00,0.0001
2106.00,-0.0000
2105.00,-0.0001
2104.00,-0.0002
2103.00,-0.0003
2102.00,-0.0003
2101.00,-0.0002
2100.00,-0.0001
2099.00,0.0001
2098.00,0.0001
2097.00,0.0001
2096.00,-0.0000
2095.00,-0.0002
2094.00,-0.0004
2093.00,-0.0004
2092.00,-0.0003
2091.00,-0.0002
2090.00,-0.0001
2089.00,-0.0000
2088.00,0.0001
2087.00,0.0002
2086.00,0.0003
2085.00,0.0003
2084.00,0.0002
2083.00,0.0001
2082.00,-0.0000
2081.00,-0.0000
2080.00,0.0000
2079.00,0.0001
2078.00,0.0001
2077.00,0.0000
2076.00,-0.0001
2075.00,-0.0001
2074.00,-0.0001
2073.00,-0.0001
2072.00,-0.0000
2071.00,-0.0000
2070.00,-0.0001
2069.00,-0.0001
2068.00,-0.0001
2067.00,-0.0001
2066.00,-0.0001
2065.00,-0.0001
2064.00,-0.0001
2063.00,-0.0002
2062.00,-0.0002
2061.00,-0.0001
2060.00,-0.0000
2059.00,-0.0000
2058.00,-0.0001
2057.00,-0.0002
2056.00,-0.0003
2055.00,-0.0004
2054.00,-0.0004
2053.00,-0.0002
2052.00,0.0003
2051.00,0.0007
2050.00,0.0009
2049.00,0.0008
2048.00,0.0006
2047.00,0.0004
2046.00,0.0003
2045.00,0.0002
2044.00,0.0001
2043.00,-0.0000
2042.00,-0.0000
2041.00,0.0002
2040.00,0.0004
2039.00,0.0006
2038.00,0.0005
2037.00,0.0003
2036.00,-0.0000
2035.00,-0.0004
2034.00,-0.0005
2033.00,-0.0004
2032.00,-0.0003
2031.00,-0.0004
2030.00,-0.0006
2029.00,-0.0007
2028.00,-0.0008
2027.00,-0.0009
2026.00,-0.0010
2025.00,-0.0010
2024.00,-0.0011
2023.00,-0.0011
2022.00,-0.0012
2021.00,-0.0013
2020.00,-0.0014
2019.00,-0.0014
2018.00,-0.0013
2017.00,-0.0012
2016.00,-0.0010
2015.00,-0.0010
2014.00,-0.0010
2013.00,-0.0008
2012.00,-0.0007
2011.00,-0.0007
2010.00,-0.0009
2009.00,-0.0011
2008.00,-0.0015
2007.00,-0.0019
2006.00,-0.0021
2005.00,-0.0019
2004.00,-0.0014
2003.00,-0.0009
2002.00,-0.0007
2001.00,-0.0007
2000.00,-0.0008
1999.00,-0.0010
1998.00,-0.0010
1997.00,-0.0009
1996.00,-0.0008
1995.00,-0.0007
1994.00,-0.0007
1993.00,-0.0007
1992.00,-0.0008
1991.00,-0.0009
1990.00,-0.0008
1989.00,-0.0005
1988.00,-0.0001
1987.00,0.0002
1986.00,0.0003
1985.00,0.0004
1984.00,0.0006
1983.00,0.0007
1982.00,0.0009
1981.00,0.0010
1980.00,0.0010
1979.00,0.0007
1978.00,0.0003
1977.00,-0.0002
1976.00,-0.0007
1975.00,-0.0011
1974.00,-0.0014
1973.00,-0.0015
1972.00,-0.0015
1971.00,-0.0017
1970.00,-0.0018
1969.00,-0.0019
1968.00,-0.0018
1967.00,-0.0018
1966.00,-0.0018
1965.00,-0.0018
1964.00,-0.0017
1963.00,-0.0014
1962.00,-0.0011
1961.00,-0.0011
1960.00,-0.0012
1959.00,-0.0016
1958.00,-0.0018
1957.00,-0.0019
1956.00,-0.0018
1955.00,-0.0016
1954.00,-0.0015
1953.00,-0.0015
1952.00,-0.0014
1951.00,-0.0014
1950.00,-0.0014
1949.00,-0.0015
1948.00,-0.0015
1947.00,-0.0016
1946.00,-0.0016
1945.00,-0.0015
1944.00,-0.0014
1943.00,-0.0013
1942.00,-0.0012
1941.00,-0.0012
1940.00,-0.0011
1939.00,-0.0010
1938.00,-0.0010
1937.00,-0.0010
1936.00,-0.0010
1935.00,-0.0009
1934.00,-0.0008
1933.00,-0.0006
1932.00,-0.0005
1931.00,-0.0005
1930.00,-0.0006
1929.00,-0.0007
1928.00,-0.0009
1927.00,-0.0009
1926.00,-0.0010
1925.00,-0.0009
1924.00,-0.0008
1923.00,-0.0006
1922.00,-0.0005
1921.00,-0.0003
1920.00,-0.0002
1919.00,-0.0001
1918.00,-0.0001
1917.00,-0.0002
1916.00,-0.0002
1915.00,-0.0002
1914.00,-0.0003
1913.00,-0.0004
1912.00,-0.0005
1911.00,-0.0006
1910.00,-0.0006
1909.00,-0.0005
1908.00,-0.0004
1907.00,-0.0004
1906.00,-0.0004
1905.00,-0.0004
1904.00,-0.0003
1903.00,-0.0001
1902.00,0.0001
1901.00,0.0002
1900.00,0.0002
1899.00,0.0000
1898.00,-0.0001
1897.00,-0.0003
1896.00,-0.0003
1895.00,-0.0002
1894.00,-0.0001
1893.00,0.0000
1892.00,0.0001
1891.00,0.0001
1890.00,0.0000
1889.00,-0.0001
1888.00,-0.0002
1887.00,-0.0002
1886.00,-0.0003
1885.00,-0.0002
1884.00,-0.0003
1883.00,-0.0003
1882.00,-0.0004
1881.00,-0.0004
1880.00,-0.0003
1879.00,-0.0003
1878.00,-0.0002
1877.00,-0.0002
1876.00,-0.0003
1875.00,-0.0003
1874.00,-0.0003
1873.00,-0.0004
1872.00,-0.0003
1871.00,-0.0003
1870.00,-0.0003
1869.00,-0.0002
1868.00,-0.0002
1867.00,-0.0002
1866.00,-0.0001
1865.00,-0.0001
1864.00,-0.0001
1863.00,0.0000
1862.00,0.0001
1861.00,0.0001
1860.00,-0.0000
1859.00,-0.0001
1858.00,-0.0001
1857.00,-0.0001
1856.00,-0.0001
1855.00,-0.0001
1854.00,-0.0001
1853.00,-0.0001
1852.00,-0.0001
1851.00,-0.0001
1850.00,-0.0001
1849.00,-0.0001
1848.00,-0.0001
1847.00,0.0000
1846.00,0.0001
1845.00,0.0002
1844.00,0.0002
1843.00,0.0002
1842.00,0.0001
1841.00,0.0001
1840.00,0.0001
1839.00,0.0001
1838.00,0.0002
1837.00,0.0002
1836.00,0.0003
1835.00,0.0003
1834.00,0.0003
1833.00,0.0003
1832.00,0.0003
1831.00,0.0003
1830.00,0.0003
1829.00,0.0004
1828.00,0.0004
1827.00,0.0004
1826.00,0.0004
1825.00,0.0004
1824.00,0.0003
1823.00,0.0002
1822.00,0.0002
1821.00,0.0002
1820.00,0.0001
1819.00,0.0000
1818.00,-0.0001
1817.00,-0.0001
1816.00,-0.0001
1815.00,-0.0000
1814.00,0.0001
1813.00,0.0001
1812.00,0.0002
1811.00,0.0001
1810.00,0.0001
1809.00,0.0001
1808.00,0.0002
1807.00,0.0003
1806.00,0.0003
1805.00,0.0004
1804.00,0.0004
1803.00,0.0004
1802.00,0.0005
1801.00,0.0005
1800.00,0.0005
1799.00,0.0005
1798.00,0.0005
1797.00,0.0005
1796.00,0.0005
1795.00,0.0005
1794.00,0.0004
1793.00,0.0004
1792.00,0.0005
1791.00,0.0005
1790.00,0.0006
1789.00,0.0006
1788.00,0.0006
1787.00,0.0006
1786.00,0.0006
1785.00,0.0006
1784.00,0.0007
1783.00,0.0007
1782.00,0.0007
1781.00,0.0007
1780.00,0.0007
1779.00,0.0008
1778.00,0.0008
1777.00,0.0008
1776.00,0.0008
1775.00,0.0007
1774.00,0.0007
1773.00,0.0006
1772.00,0.0007
1771.00,0.0008
1770.00,0.0009
1769.00,0.0009
1768.00,0.0009
1767.00,0.0010
1766.00,0.0010
1765.00,0.0011
1764.00,0.0011
1763.00,0.0011
1762.00,0.0011
1761.00,0.0011
1760.00,0.0011
1759.00,0.0012
1758.00,0.0013
1757.00,0.0014
1756.00,0.0014
1755.00,0.0014
1754.00,0.0014
1753.00,0.0014
1752.00,0.0015
1751.00,0.0016
1750.00,0.0017
1749.00,0.0018
1748.00,0.0019
1747.00,0.0020
1746.00,0.0020
1745.00,0.0021
1744.00,0.0022
1743.00,0.0022
1742.00,0.0022
1741.00,0.0023
1740.00,0.0023
1739.00,0.0023
1738.00,0.0024
1737.00,0.0024
1736.00,0.0025
1735.00,0.0024
1734.00,0.0023
1733.00,0.0022
1732.00,0.0022
1731.00,0.0023
1730.00,0.0023
1729.00,0.0023
1728.00,0.0023
1727.00,0.0023
1726.00,0.0023
1725.00,0.0023
1724.00,0.0024
1723.00,0.0024
1722.00,0.0024
1721.00,0.0025
1720.00,0.0025
1719.00,0.0025
1718.00,0.0024
1717.00,0.0023
1716.00,0.0023
1715.00,0.0022
1714.00,0.0022
1713.00,0.0022
1712.00,0.0023
1711.00,0.0023
1710.00,0.0023
1709.00,0.0023
1708.00,0.0023
1707.00,0.0023
1706.00,0.0024
1705.00,0.0024
1704.00,0.0024
1703.00,0.0025
1702.00,0.0025
1701.00,0.0026
1700.00,0.0026
1699.00,0.0027
1698.00,0.0027
1697.00,0.0028
1696.00,0.0028
1695.00,0.0029
1694.00,0.0029
1693.00,0.0029
1692.00,0.0029
1691.00,0.0029
1690.00,0.0030
1689.00,0.0030
1688.00,0.0031
1687.00,0.0031
1686.00,0.0031
1685.00,0.0031
1684.00,0.0032
1683.00,0.0034
1682.00,0.0035
1681.00,0.0035
1680.00,0.0036
1679.00,0.0037
1678.00,0.0038
1677.00,0.0039
1676.00,0.0040
1675.00,0.0041
1674.00,0.0042
1673.00,0.0043
1672.00,0.0044
1671.00,0.0045
1670.00,0.0045
1669.00,0.0045
1668.00,0.0046
1667.00,0.0046
1666.00,0.0046
1665.00,0.0046
1664.00,0.0046
1663.00,0.0047
1662.00,0.0047
1661.00,0.0048
1660.00,0.0048
1659.00,0.0049
1658.00,0.0049
1657.00,0.0049
1656.00,0.0050
1655.00,0.0050
1654.00,0.0050
1653.00,0.0052
1652.00,0.0054
1651.00,0.0054
1650.00,0.0055
1649.00,0.0056
1648.00,0.0058
1647.00,0.0060
1646.00,0.0061
1645.00,0.0062
1644.00,0.0062
1643.00,0.0063
1642.00,0.0064
1641.00,0.0065
1640.00,0.0067
1639.00,0.0069
1638.00,0.0071
1637.00,0.0072
1636.00,0.0072
1635.00,0.0072
1634.00,0.0071
1633.00,0.0070
1632.00,0.0069
1631.00,0.0068
1630.00,0.0067
1629.00,0.0066
1628.00,0.0066
1627.00,0.0065
1626.00,0.0065
1625.00,0.0064
1624.00,0.0064
1623.00,0.0063
1622.00,0.0062
1621.00,0.0062
1620.00,0.0062
1619.00,0.0061
1618.00,0.0061
1617.00,0.0060
1616.00,0.0060
1615.00,0.0061
1614.00,0.0061
1613.00,0.0062
1612.00,0.0062
1611.00,0.0062
1610.00,0.0062
1609.00,0.0062
1608.00,0.0062
1607.00,0.0062
1606.00,0.0063
1605.00,0.0063
1604.00,0.0063
1603.00,0.0062
1602.00,0.0062
1601.00,0.0062
1600.00,0.0061
1599.00,0.0061
1598.00,0.0061
1597.00,0.0060
1596.00,0.0059
1595.00,0.0059
1594.00,0.0058
1593.00,0.0058
1592.00,0.0058
1591.00,0.0058
1590.00,0.0058
1589.00,0.0058
1588.00,0.0058
1587.00,0.0057
1586.00,0.0057
1585.00,0.0057
1584.00,0.0057
1583.00,0.0057
1582.00,0.0057
1581.00,0.0057
1580.00,0.0057
1579.00,0.0057
1578.00,0.0058
1577.00,0.0059
1576.00,0.0060
1575.00,0.0060
1574.00,0.0059
1573.00,0.0059
1572.00,0.0060
1571.00,0.0061
1570.00,0.0061
1569.00,0.0062
1568.00,0.0063
1567.00,0.0064
1566.00,0.0064
1565.00,0.0065
1564.00,0.0065
1563.00,0.0065
1562.00,0.0065
1561.00,0.0066
1560.00,0.0066
1559.00,0.0066
1558.00,0.0066
1557.00,0.0066
1556.00,0.0066
1555.00,0.0066
1554.00,0.0067
1553.00,0.0067
1552.00,0.0067
1551.00,0.0067
1550.00,0.0067
1549.00,0.0067
1548.00,0.0067
1547.00,0.0067
1546.00,0.0067
1545.00,0.0066
1544.00,0.0067
1543.00,0.0067
1542.00,0.0067
1541.00,0.0066
1540.00,0.0064
1539.00,0.0062
1538.00,0.0060
1537.00,0.0060
1536.00,0.0061
1535.00,0.0061
1534.00,0.0060
1533.00,0.0058
1532.00,0.0056
1531.00,0.0055
1530.00,0.0054
1529.00,0.0054
1528.00,0.0054
1527.00,0.0053
1526.00,0.0053
1525.00,0.0052
1524.00,0.0052
1523.00,0.0052
1522.00,0.0052
1521.00,0.0052
1520.00,0.0052
1519.00,0.0051
1518.00,0.0051
1517.00,0.0051
1516.00,0.0051
1515.00,0.0052
1514.00,0.0052
1513.00,0.0052
1512.00,0.0053
1511.00,0.0053
1510.00,0.0054
1509.00,0.0055
1508.00,0.0056
1507.00,0.0057
1506.00,0.0059
1505.00,0.0060
1504.00,0.0061
1503.00,0.0062
1502.00,0.0064
1501.00,0.0067
1500.00,0.0070
1499.00,0.0073
1498.00,0.0075
1497.00,0.0078
1496.00,0.0082
1495.00,0.0085
1494.00,0.0087
1493.00,0.0090
1492.00,0.0094
1491.00,0.0097
1490.00,0.0101
1489.00,0.0106
1488.00,0.0111
1487.00,0.0115
1486.00,0.0119
1485.00,0.0124
1484.00,0.0130
1483.00,0.0137
1482.00,0.0144
1481.00,0.0154
1480.00,0.0165
1479.00,0.0177
1478.00,0.0191
1477.00,0.0211
1476.00,0.0235
1475.00,0.0264
1474.00,0.0303
1473.00,0.0359
1472.00,0.0424
1471.00,0.0487
1470.00,0.0548
1469.00,0.0611
1468.00,0.0679
1467.00,0.0753
1466.00,0.0837
1465.00,0.0926
1464.00,0.1004
1463.00,0.1060
1462.00,0.1096
1461.00,0.1122
1460.00,0.1141
1459.00,0.1155
1458.00,0.1167
1457.00,0.1178
1456.00,0.1183
1455.00,0.1180
1454.00,0.1175
1453.00,0.1164
1452.00,0.1145
1451.00,0.1115
1450.00,0.1070
1449.00,0.1004
1448.00,0.0917
1447.00,0.0821
1446.00,0.0731
1445.00,0.0653
1444.00,0.0584
1443.00,0.0527
1442.00,0.0484
1441.00,0.0453
1440.00,0.0432
1439.00,0.0421
1438.00,0.0417
1437.00,0.0413
1436.00,0.0401
1435.00,0.0376
1434.00,0.0343
1433.00,0.0302
1432.00,0.0260
1431.00,0.0223
1430.00,0.0195
1429.00,0.0173
1428.00,0.0158
1427.00,0.0148
1426.00,0.0141
1425.00,0.0135
1424.00,0.0129
1423.00,0.0125
1422.00,0.0123
1421.00,0.0121
1420.00,0.0118
1419.00,0.0116
1418.00,0.0115
1417.00,0.0113
1416.00,0.0111
1415.00,0.0111
1414.00,0.0110
1413.00,0.0109
1412.00,0.0107
1411.00,0.0106
1410.00,0.0107
1409.00,0.0106
1408.00,0.0105
1407.00,0.0105
1406.00,0.0106
1405.00,0.0106
1404.00,0.0106
1403.00,0.0107
1402.00,0.0109
1401.00,0.0109
1400.00,0.0110
1399.00,0.0112
1398.00,0.0114
1397.00,0.0116
1396.00,0.0118
1395.00,0.0122
1394.00,0.0127
1393.00,0.0131
1392.00,0.0136
1391.00,0.0143
1390.00,0.0154
1389.00,0.0167
1388.00,0.0186
1387.00,0.0216
1386.00,0.0257
1385.00,0.0311
1384.00,0.0385
1383.00,0.0487
1382.00,0.0622
1381.00,0.0794
1380.00,0.1004
1379.00,0.1244
1378.00,0.1478
1377.00,0.1650
1376.00,0.1709
1375.00,0.1625
1374.00,0.1425
1373.00,0.1182
1372.00,0.0959
1371.00,0.0775
1370.00,0.0628
1369.00,0.0516
1368.00,0.0438
1367.00,0.0390
1366.00,0.0364
1365.00,0.0353
1364.00,0.0355
1363.00,0.0366
1362.00,0.0384
1361.00,0.0404
1360.00,0.0420
1359.00,0.0424
1358.00,0.0415
1357.00,0.0392
1356.00,0.0360
1355.00,0.0323
1354.00,0.0287
1353.00,0.0257
1352.00,0.0232
1351.00,0.0212
1350.00,0.0196
1349.00,0.0182
1348.00,0.0170
1347.00,0.0161
1346.00,0.0153
1345.00,0.0146
1344.00,0.0140
1343.00,0.0134
1342.00,0.0129
1341.00,0.0125
1340.00,0.0122
1339.00,0.0120
1338.00,0.0119
1337.00,0.0119
1336.00,0.0119
1335.00,0.0120
1334.00,0.0122
1333.00,0.0125
1332.00,0.0128
1331.00,0.0132
1330.00,0.0133
1329.00,0.0133
1328.00,0.0131
1327.00,0.0127
1326.00,0.0123
1325.00,0.0118
1324.00,0.0112
1323.00,0.0107
1322.00,0.0103
1321.00,0.0099
1320.00,0.0097
1319.00,0.0095
1318.00,0.0094
1317.00,0.0093
1316.00,0.0092
1315.00,0.0091
1314.00,0.0091
1313.00,0.0093
1312.00,0.0095
1311.00,0.0098
1310.00,0.0103
1309.00,0.0110
1308.00,0.0121
1307.00,0.0134
1306.00,0.0147
1305.00,0.0156
1304.00,0.0158
1303.00,0.0153
1302.00,0.0145
1301.00,0.0137
1300.00,0.0131
1299.00,0.0129
1298.00,0.0127
1297.00,0.0126
1296.00,0.0124
1295.00,0.0120
1294.00,0.0116
1293.00,0.0111
1292.00,0.0106
1291.00,0.0102
1290.00,0.0098
1289.00,0.0095
1288.00,0.0092
1287.00,0.0090
1286.00,0.0088
1285.00,0.0086
1284.00,0.0085
1283.00,0.0083
1282.00,0.0081
1281.00,0.0080
1280.00,0.0079
1279.00,0.0079
1278.00,0.0078
1277.00,0.0078
1276.00,0.0078
1275.00,0.0078
1274.00,0.0078
1273.00,0.0079
1272.00,0.0079
1271.00,0.0080
1270.00,0.0082
1269.00,0.0085
1268.00,0.0088
1267.00,0.0091
1266.00,0.0095
1265.00,0.0099
1264.00,0.0103
1263.00,0.0107
1262.00,0.0111
1261.00,0.0117
1260.00,0.0123
1259.00,0.0131
1258.00,0.0139
1257.00,0.0146
1256.00,0.0149
1255.00,0.0147
1254.00,0.0139
1253.00,0.0128
1252.00,0.0118
1251.00,0.0109
1250.00,0.0103
1249.00,0.0098
1248.00,0.0094
1247.00,0.0091
1246.00,0.0088
1245.00,0.0085
1244.00,0.0083
1243.00,0.0082
1242.00,0.0081
1241.00,0.0080
1240.00,0.0079
1239.00,0.0078
1238.00,0.0077
1237.00,0.0077
1236.00,0.0077
1235.00,0.0077
1234.00,0.0077
1233.00,0.0078
1232.00,0.0078
1231.00,0.0078
1230.00,0.0079
1229.00,0.0080
1228.00,0.0081
1227.00,0.0082
1226.00,0.0085
1225.00,0.0088
1224.00,0.0091
1223.00,0.0094
1222.00,0.0097
1221.00,0.0099
1220.00,0.0100
1219.00,0.0100
1218.00,0.0100
1217.00,0.0098
1216.00,0.0096
1215.00,0.0093
1214.00,0.0091
1213.00,0.0088
1212.00,0.0086
1211.00,0.0083
1210.00,0.0082
1209.00,0.0081
1208.00,0.0080
1207.00,0.0080
1206.00,0.0081
1205.00,0.0081
1204.00,0.0081
1203.00,0.0080
1202.00,0.0080
1201.00,0.0080
1200.00,0.0080
1199.00,0.0081
1198.00,0.0081
1197.00,0.0081
1196.00,0.0081
1195.00,0.0080
1194.00,0.0081
1193.00,0.0081
1192.00,0.0081
1191.00,0.0082
1190.00,0.0083
1189.00,0.0084
1188.00,0.0085
1187.00,0.0086
1186.00,0.0087
1185.00,0.0087
1184.00,0.0088
1183.00,0.0090
1182.00,0.0093
1181.00,0.0096
1180.00,0.0100
1179.00,0.0106
1178.00,0.0113
1177.00,0.0123
1176.00,0.0136
1175.00,0.0154
1174.00,0.0177
1173.00,0.0207
1172.00,0.0243
1171.00,0.0283
1170.00,0.0324
1169.00,0.0359
1168.00,0.0380
1167.00,0.0384
1166.00,0.0373
1165.00,0.0351
1164.00,0.0325
1163.00,0.0300
1162.00,0.0278
1161.00,0.0260
1160.00,0.0246
1159.00,0.0236
1158.00,0.0227
1157.00,0.0221
1156.00,0.0216
1155.00,0.0213
1154.00,0.0210
1153.00,0.0206
1152.00,0.0201
1151.00,0.0194
1150.00,0.0185
1149.00,0.0176
1148.00,0.0167
1147.00,0.0158
1146.00,0.0150
1145.00,0.0142
1144.00,0.0133
1143.00,0.0126
1142.00,0.0119
1141.00,0.0113
1140.00,0.0109
1139.00,0.0106
1138.00,0.0102
1137.00,0.0099
1136.00,0.0096
1135.00,0.0093
1134.00,0.0092
1133.00,0.0091
1132.00,0.0091
1131.00,0.0091
1130.00,0.0092
1129.00,0.0092
1128.00,0.0093
1127.00,0.0094
1126.00,0.0093
1125.00,0.0093
1124.00,0.0093
1123.00,0.0094
1122.00,0.0096
1121.00,0.0098
1120.00,0.0099
1119.00,0.0101
1118.00,0.0102
1117.00,0.0103
1116.00,0.0104
1115.00,0.0106
1114.00,0.0107
1113.00,0.0109
1112.00,0.0110
1111.00,0.0112
1110.00,0.0115
1109.00,0.0118
1108.00,0.0121
1107.00,0.0126
1106.00,0.0131
1105.00,0.0136
1104.00,0.0140
1103.00,0.0143
1102.00,0.0143
1101.00,0.0140
1100.00,0.0136
1099.00,0.0130
1098.00,0.0125
1097.00,0.0121
1096.00,0.0117
1095.00,0.0113
1094.00,0.0109
1093.00,0.0106
1092.00,0.0104
1091.00,0.0103
1090.00,0.0102
1089.00,0.0101
1088.00,0.0100
1087.00,0.0099
1086.00,0.0099
1085.00,0.0099
1084.00,0.0098
1083.00,0.0098
1082.00,0.0098
1081.00,0.0096
1080.00,0.0095
1079.00,0.0093
1078.00,0.0092
1077.00,0.0091
1076.00,0.0090
1075.00,0.0090
1074.00,0.0089
1073.00,0.0089
1072.00,0.0089
1071.00,0.0090
1070.00,0.0090
1069.00,0.0090
1068.00,0.0089
1067.00,0.0090
1066.00,0.0091
1065.00,0.0092
1064.00,0.0093
1063.00,0.0093
1062.00,0.0093
1061.00,0.0094
1060.00,0.0095
1059.00,0.0096
1058.00,0.0097
1057.00,0.0099
1056.00,0.0100
1055.00,0.0103
1054.00,0.0106
1053.00,0.0109
1052.00,0.0112
1051.00,0.0116
1050.00,0.0120
1049.00,0.0125
1048.00,0.0131
1047.00,0.0137
1046.00,0.0142
1045.00,0.0146
1044.00,0.0148
1043.00,0.0146
1042.00,0.0143
1041.00,0.0139
1040.00,0.0135
1039.00,0.0132
1038.00,0.0131
1037.00,0.0130
1036.00,0.0130
1035.00,0.0129
1034.00,0.0128
1033.00,0.0126
1032.00,0.0124
1031.00,0.0123
1030.00,0.0124
1029.00,0.0125
1028.00,0.0126
1027.00,0.0128
1026.00,0.0130
1025.00,0.0132
1024.00,0.0134
1023.00,0.0137
1022.00,0.0139
1021.00,0.0142
1020.00,0.0143
1019.00,0.0145
1018.00,0.0146
1017.00,0.0147
1016.00,0.0147
1015.00,0.0147
1014.00,0.0146
1013.00,0.0146
1012.00,0.0145
1011.00,0.0144
1010.00,0.0145
1009.00,0.0147
1008.00,0.0151
1007.00,0.0158
1006.00,0.0167
1005.00,0.0179
1004.00,0.0198
1003.00,0.0226
1002.00,0.0265
1001.00,0.0314
1000.00,0.0367
999.00,0.0413
998.00,0.0437
997.00,0.0432
996.00,0.0398
995.00,0.0346
994.00,0.0292
993.00,0.0245
992.00,0.0209
991.00,0.0182
990.00,0.0164
989.00,0.0151
988.00,0.0142
987.00,0.0136
986.00,0.0134
985.00,0.0135
984.00,0.0139
983.00,0.0146
982.00,0.0157
981.00,0.0173
980.00,0.0195
979.00,0.0226
978.00,0.0266
977.00,0.0315
976.00,0.0369
975.00,0.0425
974.00,0.0470
973.00,0.0492
972.00,0.0481
971.00,0.0438
970.00,0.0375
969.00,0.0309
968.00,0.0251
967.00,0.0208
966.00,0.0177
965.00,0.0155
964.00,0.0140
963.00,0.0128
962.00,0.0118
961.00,0.0110
960.00,0.0104
959.00,0.0100
958.00,0.0096
957.00,0.0093
956.00,0.0090
955.00,0.0088
954.00,0.0085
953.00,0.0084
952.00,0.0082
951.00,0.0080
950.00,0.0079
949.00,0.0079
948.00,0.0079
947.00,0.0080
946.00,0.0082
945.00,0.0085
944.00,0.0089
943.00,0.0093
942.00,0.0096
941.00,0.0098
940.00,0.0098
939.00,0.0096
938.00,0.0092
937.00,0.0086
936.00,0.0080
935.00,0.0075
934.00,0.0071
933.00,0.0068
932.00,0.0066
931.00,0.0066
930.00,0.0067
929.00,0.0067
928.00,0.0067
927.00,0.0067
926.00,0.0067
925.00,0.0067
924.00,0.0067
923.00,0.0067
922.00,0.0066
921.00,0.0066
920.00,0.0065
919.00,0.0065
918.00,0.0066
917.00,0.0066
916.00,0.0067
915.00,0.0068
914.00,0.0070
913.00,0.0071
912.00,0.0072
911.00,0.0073
910.00,0.0074
909.00,0.0076
908.00,0.0079
907.00,0.0083
906.00,0.0089
905.00,0.0098
904.00,0.0109
903.00,0.0125
902.00,0.0142
901.00,0.0158
900.00,0.0168
899.00,0.0170
898.00,0.0163
897.00,0.0149
896.00,0.0133
895.00,0.0117
894.00,0.0104
893.00,0.0095
892.00,0.0089
891.00,0.0084
890.00,0.0081
889.00,0.0079
888.00,0.0078
887.00,0.0077
886.00,0.0076
885.00,0.0076
884.00,0.0076
883.00,0.0076
882.00,0.0076
881.00,0.0074
880.00,0.0074
879.00,0.0073
878.00,0.0074
877.00,0.0076
876.00,0.0077
875.00,0.0079
874.00,0.0080
873.00,0.0080
872.00,0.0080
871.00,0.0079
870.00,0.0079
869.00,0.0079
868.00,0.0079
867.00,0.0080
866.00,0.0081
865.00,0.0083
864.00,0.0085
863.00,0.0087
862.00,0.0088
861.00,0.0089
860.00,0.0089
859.00,0.0090
858.00,0.0092
857.00,0.0093
856.00,0.0095
855.00,0.0097
854.00,0.0100
853.00,0.0103
852.00,0.0107
851.00,0.0111
850.00,0.0116
849.00,0.0123
848.00,0.0133
847.00,0.0148
846.00,0.0172
845.00,0.0211
844.00,0.0268
843.00,0.0340
842.00,0.0404
841.00,0.0434
840.00,0.0414
839.00,0.0353
838.00,0.0280
837.00,0.0218
836.00,0.0177
835.00,0.0152
834.00,0.0137
833.00,0.0128
832.00,0.0122
831.00,0.0118
830.00,0.0115
829.00,0.0113
828.00,0.0111
827.00,0.0110
826.00,0.0109
825.00,0.0108
824.00,0.0108
823.00,0.0108
822.00,0.0110
821.00,0.0112
820.00,0.0114
819.00,0.0116
818.00,0.0117
817.00,0.0122
816.00,0.0130
815.00,0.0141
814.00,0.0154
813.00,0.0171
812.00,0.0188
811.00,0.0203
810.00,0.0214
809.00,0.0217
808.00,0.0212
807.00,0.0200
806.00,0.0185
805.00,0.0169
804.00,0.0156
803.00,0.0145
802.00,0.0137
801.00,0.0131
800.00,0.0125
799.00,0.0119
798.00,0.0114
797.00,0.0109
796.00,0.0105
795.00,0.0102
794.00,0.0100
793.00,0.0099
792.00,0.0097
791.00,0.0094
790.00,0.0091
789.00,0.0088
788.00,0.0086
787.00,0.0083
786.00,0.0079
785.00,0.0077
784.00,0.0074
783.00,0.0073
782.00,0.0071
781.00,0.0070
780.00,0.0070
779.00,0.0070
778.00,0.0069
777.00,0.0068
776.00,0.0066
775.00,0.0065
774.00,0.0064
773.00,0.0064
772.00,0.0066
771.00,0.0068
770.00,0.0069
769.00,0.0070
768.00,0.0069
767.00,0.0068
766.00,0.0067
765.00,0.0067
764.00,0.0067
763.00,0.0067
762.00,0.0067
761.00,0.0067
760.00,0.0068
759.00,0.0070
758.00,0.0070
757.00,0.0071
756.00,0.0073
755.00,0.0076
754.00,0.0078
753.00,0.0080
752.00,0.0080
751.00,0.0080
750.00,0.0081
749.00,0.0083
748.00,0.0085
747.00,0.0086
746.00,0.0087
745.00,0.0088
744.00,0.0090
743.00,0.0092
742.00,0.0095
741.00,0.0098
740.00,0.0100
739.00,0.0103
738.00,0.0106
737.00,0.0110
736.00,0.0115
735.00,0.0120
734.00,0.0126
733.00,0.0132
732.00,0.0138
731.00,0.0144
730.00,0.0149
729.00,0.0153
728.00,0.0155
727.00,0.0156
726.00,0.0158
725.00,0.0161
724.00,0.0165
723.00,0.0170
722.00,0.0176
721.00,0.0179
720.00,0.0179
719.00,0.0173
718.00,0.0162
717.00,0.0149
716.00,0.0137
715.00,0.0128
714.00,0.0123
713.00,0.0118
712.00,0.0114
711.00,0.0111
710.00,0.0109
709.00,0.0107
708.00,0.0107
707.00,0.0106
706.00,0.0106
705.00,0.0105
704.00,0.0104
703.00,0.0103
702.00,0.0102
701.00,0.0100
700.00,0.0099
699.00,0.0098
698.00,0.0098
697.00,0.0098
696.00,0.0098
695.00,0.0099
694.00,0.0099
693.00,0.0098
692.00,0.0097
691.00,0.0095
690.00,0.0094
689.00,0.0093
688.00,0.0094
687.00,0.0096
686.00,0.0097
685.00,0.0097
684.00,0.0097
683.00,0.0097
682.00,0.0097
681.00,0.0097
680.00,0.0097
679.00,0.0095
678.00,0.0094
677.00,0.0094
676.00,0.0096
675.00,0.0098
674.00,0.0100
673.00,0.0102
672.00,0.0105
671.00,0.0108
670.00,0.0112
669.00,0.0114
668.00,0.0112
667.00,0.0108
666.00,0.0102
665.00,0.0097
664.00,0.0094
663.00,0.0092
662.00,0.0091
661.00,0.0089
660.00,0.0088
659.00,0.0088
658.00,0.0089
657.00,0.0089
656.00,0.0089
655.00,0.0088
654.00,0.0088
653.00,0.0087
652.00,0.0087
651.00,0.0087
650.00,0.0087
649.00,0.0087
648.00,0.0085
647.00,0.0085
646.00,0.0085
645.00,0.0086
644.00,0.0085
643.00,0.0083
642.00,0.0081
641.00,0.0081
640.00,0.0082
639.00,0.0084
638.00,0.0085
637.00,0.0086
636.00,0.0087
635.00,0.0088
634.00,0.0088
633.00,0.0087
632.00,0.0086
631.00,0.0085
630.00,0.0087
629.00,0.0089
628.00,0.0089
627.00,0.0088
626.00,0.0086
625.00,0.0086
624.00,0.0086
623.00,0.0087
622.00,0.0088
621.00,0.0089
620.00,0.0090
619.00,0.0092
618.00,0.0093
617.00,0.0093
616.00,0.0092
615.00,0.0090
614.00,0.0088
613.00,0.0085
612.00,0.0084
611.00,0.0084
610.00,0.0085
609.00,0.0087
608.00,0.0089
607.00,0.0091
606.00,0.0091
605.00,0.0091
604.00,0.0089
603.00,0.0087
602.00,0.0086
601.00,0.0086
600.00,0.0086
599.00,0.0087
598.00,0.0088
597.00,0.0090
596.00,0.0091
595.00,0.0091
594.00,0.0090
593.00,0.0089
592.00,0.0090
591.00,0.0092
590.00,0.0094
589.00,0.0096
588.00,0.0096
587.00,0.0094
586.00,0.0092
585.00,0.0090
584.00,0.0090
583.00,0.0092
582.00,0.0092
581.00,0.0091
580.00,0.0090
579.00,0.0090
578.00,0.0091
577.00,0.0094
576.00,0.0096
575.00,0.0096
574.00,0.0094
573.00,0.0091
572.00,0.0089
571.00,0.0089
570.00,0.0091
569.00,0.0092
568.00,0.0093
567.00,0.0094
566.00,0.0094
565.00,0.0094
564.00,0.0093
563.00,0.0093
562.00,0.0095
561.00,0.0096
560.00,0.0095
559.00,0.0092
558.00,0.0087
557.00,0.0083
556.00,0.0082
555.00,0.0085
554.00,0.0090
553.00,0.0095
552.00,0.0099
551.00,0.0103
550.00,0.0104
549.00,0.0103
548.00,0.0100
547.00,0.0096
546.00,0.0096
545.00,0.0098
544.00,0.0101
543.00,0.0105
542.00,0.0110
541.00,0.0117
540.00,0.0122
539.00,0.0123
538.00,0.0122
537.00,0.0121
536.00,0.0120
535.00,0.0120
534.00,0.0119
533.00,0.0119
532.00,0.0119
531.00,0.0120
530.00,0.0122
529.00,0.0121
528.00,0.0119
527.00,0.0117
526.00,0.0115
525.00,0.0113
524.00,0.0110
523.00,0.0108
522.00,0.0107
521.00,0.0105
520.00,0.0099
519.00,0.0089
518.00,0.0080
517.00,0.0077
516.00,0.0079
515.00,0.0084
514.00,0.0090
513.00,0.0095
512.00,0.0098
511.00,0.0097
510.00,0.0092
509.00,0.0086
508.00,0.0083
507.00,0.0085
506.00,0.0092
505.00,0.0100
504.00,0.0104
503.00,0.0105
502.00,0.0105
501.00,0.0105
500.00,0.0103
499.00,0.0097
498.00,0.0090
497.00,0.0085
496.00,0.0084
495.00,0.0084
494.00,0.0087
493.00,0.0090
492.00,0.0093
491.00,0.0092
490.00,0.0090
489.00,0.0088
488.00,0.0088
487.00,0.0088
486.00,0.0085
485.00,0.0080
484.00,0.0080
483.00,0.0086
482.00,0.0096
481.00,0.0103
480.00,0.0106
479.00,0.0109
478.00,0.0114
477.00,0.0121
476.00,0.0128
475.00,0.0135
474.00,0.0143
473.00,0.0152
472.00,0.0158
471.00,0.0158
470.00,0.0154
469.00,0.0149
468.00,0.0147
467.00,0.0151
466.00,0.0160
465.00,0.0170
464.00,0.0176
463.00,0.0177
462.00,0.0175
461.00,0.0177
460.00,0.0184
459.00,0.0192
458.00,0.0196
457.00,0.0195
456.00,0.0193
455.00,0.0194
454.00,0.0197
453.00,0.0200
452.00,0.0200
451.00,0.0197
450.00,0.0192
