Created as New Dataset,Sample 007 By Administrator Date Friday, September 05 2025
cm-1,A
4000.00,0.0008
3999.00,0.0009
3998.00,0.0009
3997.00,0.0009
3996.00,0.0008
3995.00,0.0008
3994.00,0.0008
3993.00,0.0008
3992.00,0.0008
3991.00,0.0009
3990.00,0.0008
3989.00,0.0008
3988.00,0.0008
3987.00,0.0008
3986.00,0.0008
3985.00,0.0008
3984.00,0.0008
3983.00,0.0008
3982.00,0.0008
3981.00,0.0008
3980.00,0.0008
3979.00,0.0008
3978.00,0.0007
3977.00,0.0007
3976.00,0.0007
3975.00,0.0007
3974.00,0.0007
3973.00,0.0007
3972.00,0.0006
3971.00,0.0006
3970.00,0.0007
3969.00,0.0007
3968.00,0.0007
3967.00,0.0007
3966.00,0.0007
3965.00,0.0007
3964.00,0.0007
3963.00,0.0007
3962.00,0.0007
3961.00,0.0007
3960.00,0.0007
3959.00,0.0007
3958.00,0.0007
3957.00,0.0007
3956.00,0.0007
3955.00,0.0007
3954.00,0.0007
3953.00,0.0006
3952.00,0.0006
3951.00,0.0006
3950.00,0.0006
3949.00,0.0006
3948.00,0.0006
3947.00,0.0006
3946.00,0.0006
3945.00,0.0006
3944.00,0.0006
3943.00,0.0006
3942.00,0.0006
3941.00,0.0006
3940.00,0.0006
3939.00,0.0006
3938.00,0.0006
3937.00,0.0006
3936.00,0.0007
3935.00,0.0007
3934.00,0.0007
3933.00,0.0007
3932.00,0.0007
3931.00,0.0007
3930.00,0.0006
3929.00,0.0006
3928.00,0.0006
3927.00,0.0007
3926.00,0.0007
3925.00,0.0007
3924.00,0.0007
3923.00,0.0007
3922.00,0.0007
3921.00,0.0006
3920.00,0.0006
3919.00,0.0006
3918.00,0.0006
3917.00,0.0006
3916.00,0.0006
3915.00,0.0007
3914.00,0.0007
3913.00,0.0007
3912.00,0.0007
3911.00,0.0007
3910.00,0.0007
3909.00,0.0007
3908.00,0.0007
3907.00,0.0006
3906.00,0.0006
3905.00,0.0006
3904.00,0.0005
3903.00,0.0005
3902.00,0.0005
3901.00,0.0005
3900.00,0.0005
3899.00,0.0006
3898.00,0.0006
3897.00,0.0006
3896.00,0.0006
3895.00,0.0006
3894.00,0.0006
3893.00,0.0007
3892.00,0.0007
3891.00,0.0007
3890.00,0.0007
3889.00,0.0006
3888.00,0.0006
3887.00,0.0006
3886.00,0.0006
3885.00,0.0007
3884.00,0.0007
3883.00,0.0007
3882.00,0.0007
3881.00,0.0007
3880.00,0.0007
3879.00,0.0007
3878.00,0.0007
3877.00,0.0007
3876.00,0.0007
3875.00,0.0007
3874.00,0.0007
3873.00,0.0006
3872.00,0.0006
3871.00,0.0006
3870.00,0.0006
3869.00,0.0006
3868.00,0.0006
3867.00,0.0006
3866.00,0.0005
3865.00,0.0005
3864.00,0.0005
3863.00,0.0006
3862.00,0.0006
3861.00,0.0006
3860.00,0.0007
3859.00,0.0007
3858.00,0.0006
3857.00,0.0006
3856.00,0.0006
3855.00,0.0006
3854.00,0.0006
3853.00,0.0005
3852.00,0.0005
3851.00,0.0005
3850.00,0.0005
3849.00,0.0005
3848.00,0.0006
3847.00,0.0006
3846.00,0.0006
3845.00,0.0006
3844.00,0.0007
3843.00,0.0007
3842.00,0.0007
3841.00,0.0007
3840.00,0.0006
3839.00,0.0006
3838.00,0.0006
3837.00,0.0006
3836.00,0.0006
3835.00,0.0005
3834.00,0.0006
3833.00,0.0006
3832.00,0.0006
3831.00,0.0007
3830.00,0.0007
3829.00,0.0007
3828.00,0.0007
3827.00,0.0007
3826.00,0.0007
3825.00,0.0007
3824.00,0.0007
3823.00,0.0007
3822.00,0.0007
3821.00,0.0006
3820.00,0.0005
3819.00,0.0005
3818.00,0.0005
3817.00,0.0005
3816.00,0.0005
3815.00,0.0006
3814.00,0.0006
3813.00,0.0006
3812.00,0.0007
3811.00,0.0007
3810.00,0.0007
3809.00,0.0007
3808.00,0.0007
3807.00,0.0007
3806.00,0.0007
3805.00,0.0006
3804.00,0.0006
3803.00,0.0006
3802.00,0.0006
3801.00,0.0006
3800.00,0.0006
3799.00,0.0006
3798.00,0.0007
3797.00,0.0007
3796.00,0.0007
3795.00,0.0007
3794.00,0.0007
3793.00,0.0007
3792.00,0.0007
3791.00,0.0007
3790.00,0.0007
3789.00,0.0007
3788.00,0.0007
3787.00,0.0007
3786.00,0.0007
3785.00,0.0007
3784.00,0.0007
3783.00,0.0007
3782.00,0.0007
3781.00,0.0007
3780.00,0.0007
3779.00,0.0007
3778.00,0.0007
3777.00,0.0007
3776.00,0.0007
3775.00,0.0007
3774.00,0.0007
3773.00,0.0007
3772.00,0.0007
3771.00,0.0007
3770.00,0.0006
3769.00,0.0006
3768.00,0.0006
3767.00,0.0006
3766.00,0.0007
3765.00,0.0007
3764.00,0.0007
3763.00,0.0007
3762.00,0.0007
3761.00,0.0007
3760.00,0.0007
3759.00,0.0008
3758.00,0.0008
3757.00,0.0008
3756.00,0.0008
3755.00,0.0007
3754.00,0.0007
3753.00,0.0007
3752.00,0.0006
3751.00,0.0005
3750.00,0.0004
3749.00,0.0004
3748.00,0.0003
3747.00,0.0003
3746.00,0.0003
3745.00,0.0004
3744.00,0.0004
3743.00,0.0004
3742.00,0.0005
3741.00,0.0005
3740.00,0.0005
3739.00,0.0005
3738.00,0.0005
3737.00,0.0005
3736.00,0.0004
3735.00,0.0004
3734.00,0.0003
3733.00,0.0003
3732.00,0.0004
3731.00,0.0004
3730.00,0.0004
3729.00,0.0004
3728.00,0.0005
3727.00,0.0005
3726.00,0.0005
3725.00,0.0006
3724.00,0.0005
3723.00,0.0005
3722.00,0.0005
3721.00,0.0005
3720.00,0.0005
3719.00,0.0005
3718.00,0.0005
3717.00,0.0005
3716.00,0.0005
3715.00,0.0005
3714.00,0.0005
3713.00,0.0005
3712.00,0.0005
3711.00,0.0004
3710.00,0.0003
3709.00,0.0003
3708.00,0.0003
3707.00,0.0003
3706.00,0.0003
3705.00,0.0004
3704.00,0.0004
3703.00,0.0003
3702.00,0.0003
3701.00,0.0004
3700.00,0.0004
3699.00,0.0005
3698.00,0.0005
3697.00,0.0005
3696.00,0.0005
3695.00,0.0005
3694.00,0.0005
3693.00,0.0005
3692.00,0.0005
3691.00,0.0005
3690.00,0.0005
3689.00,0.0005
3688.00,0.0004
3687.00,0.0004
3686.00,0.0004
3685.00,0.0004
3684.00,0.0004
3683.00,0.0004
3682.00,0.0005
3681.00,0.0005
3680.00,0.0005
3679.00,0.0006
3678.00,0.0006
3677.00,0.0006
3676.00,0.0006
3675.00,0.0005
3674.00,0.0004
3673.00,0.0004
3672.00,0.0003
3671.00,0.0003
3670.00,0.0003
3669.00,0.0004
3668.00,0.0004
3667.00,0.0004
3666.00,0.0004
3665.00,0.0004
3664.00,0.0004
3663.00,0.0004
3662.00,0.0005
3661.00,0.0005
3660.00,0.0004
3659.00,0.0004
3658.00,0.0003
3657.00,0.0003
3656.00,0.0003
3655.00,0.0003
3654.00,0.0003
3653.00,0.0003
3652.00,0.0003
3651.00,0.0004
3650.00,0.0004
3649.00,0.0003
3648.00,0.0003
3647.00,0.0003
3646.00,0.0003
3645.00,0.0003
3644.00,0.0004
3643.00,0.0004
3642.00,0.0004
3641.00,0.0005
3640.00,0.0005
3639.00,0.0005
3638.00,0.0005
3637.00,0.0005
3636.00,0.0005
3635.00,0.0005
3634.00,0.0004
3633.00,0.0004
3632.00,0.0003
3631.00,0.0002
3630.00,0.0002
3629.00,0.0003
3628.00,0.0003
3627.00,0.0003
3626.00,0.0003
3625.00,0.0003
3624.00,0.0003
3623.00,0.0003
3622.00,0.0004
3621.00,0.0004
3620.00,0.0004
3619.00,0.0004
3618.00,0.0004
3617.00,0.0004
3616.00,0.0004
3615.00,0.0004
3614.00,0.0005
3613.00,0.0005
3612.00,0.0005
3611.00,0.0005
3610.00,0.0005
3609.00,0.0005
3608.00,0.0005
3607.00,0.0006
3606.00,0.0005
3605.00,0.0005
3604.00,0.0006
3603.00,0.0006
3602.00,0.0006
3601.00,0.0005
3600.00,0.0005
3599.00,0.0005
3598.00,0.0005
3597.00,0.0005
3596.00,0.0005
3595.00,0.0005
3594.00,0.0005
3593.00,0.0006
3592.00,0.0006
3591.00,0.0006
3590.00,0.0006
3589.00,0.0006
3588.00,0.0005
3587.00,0.0005
3586.00,0.0005
3585.00,0.0005
3584.00,0.0006
3583.00,0.0006
3582.00,0.0006
3581.00,0.0006
3580.00,0.0006
3579.00,0.0005
3578.00,0.0005
3577.00,0.0005
3576.00,0.0006
3575.00,0.0006
3574.00,0.0007
3573.00,0.0007
3572.00,0.0007
3571.00,0.0007
3570.00,0.0007
3569.00,0.0007
3568.00,0.0008
3567.00,0.0008
3566.00,0.0008
3565.00,0.0008
3564.00,0.0008
3563.00,0.0009
3562.00,0.0009
3561.00,0.0009
3560.00,0.0009
3559.00,0.0009
3558.00,0.0009
3557.00,0.0010
3556.00,0.0010
3555.00,0.0010
3554.00,0.0010
3553.00,0.0011
3552.00,0.0011
3551.00,0.0011
3550.00,0.0011
3549.00,0.0011
3548.00,0.0010
3547.00,0.0010
3546.00,0.0010
3545.00,0.0010
3544.00,0.0011
3543.00,0.0011
3542.00,0.0011
3541.00,0.0012
3540.00,0.0011
3539.00,0.0011
3538.00,0.0011
3537.00,0.0011
3536.00,0.0012
3535.00,0.0012
3534.00,0.0013
3533.00,0.0013
3532.00,0.0013
3531.00,0.0013
3530.00,0.0013
3529.00,0.0013
3528.00,0.0013
3527.00,0.0013
3526.00,0.0013
3525.00,0.0013
3524.00,0.0013
3523.00,0.0013
3522.00,0.0013
3521.00,0.0014
3520.00,0.0014
3519.00,0.0014
3518.00,0.0014
3517.00,0.0014
3516.00,0.0015
3515.00,0.0015
3514.00,0.0014
3513.00,0.0014
3512.00,0.0014
3511.00,0.0014
3510.00,0.0014
3509.00,0.0014
3508.00,0.0015
3507.00,0.0015
3506.00,0.0016
3505.00,0.0015
3504.00,0.0015
3503.00,0.0015
3502.00,0.0015
3501.00,0.0016
3500.00,0.0016
3499.00,0.0017
3498.00,0.0017
3497.00,0.0018
3496.00,0.0018
3495.00,0.0018
3494.00,0.0017
3493.00,0.0017
3492.00,0.0017
3491.00,0.0017
3490.00,0.0017
3489.00,0.0017
3488.00,0.0017
3487.00,0.0017
3486.00,0.0017
3485.00,0.0018
3484.00,0.0018
3483.00,0.0018
3482.00,0.0019
3481.00,0.0019
3480.00,0.0019
3479.00,0.0019
3478.00,0.0019
3477.00,0.0020
3476.00,0.0020
3475.00,0.0020
3474.00,0.0020
3473.00,0.0020
3472.00,0.0020
3471.00,0.0020
3470.00,0.0020
3469.00,0.0020
3468.00,0.0020
3467.00,0.0020
3466.00,0.0021
3465.00,0.0021
3464.00,0.0021
3463.00,0.0021
3462.00,0.0020
3461.00,0.0020
3460.00,0.0020
3459.00,0.0021
3458.00,0.0021
3457.00,0.0021
3456.00,0.0021
3455.00,0.0021
3454.00,0.0021
3453.00,0.0021
3452.00,0.0021
3451.00,0.0021
3450.00,0.0022
3449.00,0.0022
3448.00,0.0022
3447.00,0.0022
3446.00,0.0023
3445.00,0.0023
3444.00,0.0023
3443.00,0.0023
3442.00,0.0023
3441.00,0.0023
3440.00,0.0023
3439.00,0.0023
3438.00,0.0024
3437.00,0.0024
3436.00,0.0024
3435.00,0.0024
3434.00,0.0024
3433.00,0.0024
3432.00,0.0024
3431.00,0.0024
3430.00,0.0024
3429.00,0.0025
3428.00,0.0025
3427.00,0.0026
3426.00,0.0026
3425.00,0.0026
3424.00,0.0026
3423.00,0.0026
3422.00,0.0026
3421.00,0.0027
3420.00,0.0027
3419.00,0.0026
3418.00,0.0026
3417.00,0.0025
3416.00,0.0025
3415.00,0.0025
3414.00,0.0026
3413.00,0.0026
3412.00,0.0026
3411.00,0.0027
3410.00,0.0027
3409.00,0.0027
3408.00,0.0027
3407.00,0.0027
3406.00,0.0028
3405.00,0.0028
3404.00,0.0027
3403.00,0.0027
3402.00,0.0027
3401.00,0.0027
3400.00,0.0027
3399.00,0.0028
3398.00,0.0028
3397.00,0.0028
3396.00,0.0028
3395.00,0.0027
3394.00,0.0027
3393.00,0.0027
3392.00,0.0027
3391.00,0.0027
3390.00,0.0027
3389.00,0.0027
3388.00,0.0027
3387.00,0.0027
3386.00,0.0027
3385.00,0.0027
3384.00,0.0027
3383.00,0.0027
3382.00,0.0027
3381.00,0.0028
3380.00,0.0028
3379.00,0.0028
3378.00,0.0028
3377.00,0.0028
3376.00,0.0028
3375.00,0.0029
3374.00,0.0029
3373.00,0.0029
3372.00,0.0029
3371.00,0.0028
3370.00,0.0028
3369.00,0.0028
3368.00,0.0028
3367.00,0.0028
3366.00,0.0028
3365.00,0.0028
3364.00,0.0028
3363.00,0.0029
3362.00,0.0029
3361.00,0.0029
3360.00,0.0030
3359.00,0.0030
3358.00,0.0029
3357.00,0.0029
3356.00,0.0029
3355.00,0.0028
3354.00,0.0029
3353.00,0.0029
3352.00,0.0029
3351.00,0.0029
3350.00,0.0030
3349.00,0.0030
3348.00,0.0029
3347.00,0.0029
3346.00,0.0029
3345.00,0.0029
3344.00,0.0029
3343.00,0.0029
3342.00,0.0028
3341.00,0.0028
3340.00,0.0028
3339.00,0.0028
3338.00,0.0028
3337.00,0.0028
3336.00,0.0029
3335.00,0.0029
3334.00,0.0029
3333.00,0.0029
3332.00,0.0028
3331.00,0.0028
3330.00,0.0028
3329.00,0.0027
3328.00,0.0027
3327.00,0.0027
3326.00,0.0027
3325.00,0.0027
3324.00,0.0027
3323.00,0.0027
3322.00,0.0027
3321.00,0.0027
3320.00,0.0027
3319.00,0.0027
3318.00,0.0027
3317.00,0.0027
3316.00,0.0027
3315.00,0.0027
3314.00,0.0027
3313.00,0.0027
3312.00,0.0027
3311.00,0.0027
3310.00,0.0028
3309.00,0.0028
3308.00,0.0028
3307.00,0.0028
3306.00,0.0029
3305.00,0.0029
3304.00,0.0030
3303.00,0.0030
3302.00,0.0031
3301.00,0.0031
3300.00,0.0031
3299.00,0.0030
3298.00,0.0030
3297.00,0.0029
3296.00,0.0028
3295.00,0.0028
3294.00,0.0027
3293.00,0.0027
3292.00,0.0027
3291.00,0.0026
3290.00,0.0026
3289.00,0.0026
3288.00,0.0026
3287.00,0.0026
3286.00,0.0026
3285.00,0.0026
3284.00,0.0026
3283.00,0.0026
3282.00,0.0026
3281.00,0.0025
3280.00,0.0026
3279.00,0.0026
3278.00,0.0026
3277.00,0.0025
3276.00,0.0025
3275.00,0.0025
3274.00,0.0024
3273.00,0.0024
3272.00,0.0024
3271.00,0.0024
3270.00,0.0024
3269.00,0.0024
3268.00,0.0024
3267.00,0.0024
3266.00,0.0024
3265.00,0.0024
3264.00,0.0024
3263.00,0.0023
3262.00,0.0023
3261.00,0.0023
3260.00,0.0023
3259.00,0.0023
3258.00,0.0023
3257.00,0.0023
3256.00,0.0022
3255.00,0.0022
3254.00,0.0022
3253.00,0.0022
3252.00,0.0022
3251.00,0.0022
3250.00,0.0022
3249.00,0.0022
3248.00,0.0022
3247.00,0.0022
3246.00,0.0023
3245.00,0.0023
3244.00,0.0023
3243.00,0.0023
3242.00,0.0023
3241.00,0.0023
3240.00,0.0023
3239.00,0.0023
3238.00,0.0023
3237.00,0.0023
3236.00,0.0023
3235.00,0.0023
3234.00,0.0023
3233.00,0.0023
3232.00,0.0023
3231.00,0.0023
3230.00,0.0023
3229.00,0.0024
3228.00,0.0024
3227.00,0.0024
3226.00,0.0024
3225.00,0.0024
3224.00,0.0025
3223.00,0.0025
3222.00,0.0025
3221.00,0.0025
3220.00,0.0025
3219.00,0.0025
3218.00,0.0025
3217.00,0.0026
3216.00,0.0026
3215.00,0.0027
3214.00,0.0027
3213.00,0.0027
3212.00,0.0027
3211.00,0.0027
3210.00,0.0027
3209.00,0.0027
3208.00,0.0027
3207.00,0.0028
3206.00,0.0028
3205.00,0.0028
3204.00,0.0028
3203.00,0.0028
3202.00,0.0028
3201.00,0.0028
3200.00,0.0028
3199.00,0.0028
3198.00,0.0028
3197.00,0.0028
3196.00,0.0028
3195.00,0.0028
3194.00,0.0028
3193.00,0.0028
3192.00,0.0028
3191.00,0.0028
3190.00,0.0029
3189.00,0.0029
3188.00,0.0029
3187.00,0.0028
3186.00,0.0028
3185.00,0.0027
3184.00,0.0027
3183.00,0.0027
3182.00,0.0027
3181.00,0.0027
3180.00,0.0026
3179.00,0.0026
3178.00,0.0026
3177.00,0.0026
3176.00,0.0025
3175.00,0.0025
3174.00,0.0026
3173.00,0.0026
3172.00,0.0026
3171.00,0.0026
3170.00,0.0025
3169.00,0.0025
3168.00,0.0025
3167.00,0.0025
3166.00,0.0025
3165.00,0.0025
3164.00,0.0025
3163.00,0.0025
3162.00,0.0024
3161.00,0.0024
3160.00,0.0024
3159.00,0.0024
3158.00,0.0024
3157.00,0.0024
3156.00,0.0024
3155.00,0.0025
3154.00,0.0025
3153.00,0.0025
3152.00,0.0025
3151.00,0.0025
3150.00,0.0025
3149.00,0.0025
3148.00,0.0025
3147.00,0.0025
3146.00,0.0025
3145.00,0.0025
3144.00,0.0025
3143.00,0.0025
3142.00,0.0025
3141.00,0.0025
3140.00,0.0025
3139.00,0.0024
3138.00,0.0024
3137.00,0.0024
3136.00,0.0024
3135.00,0.0023
3134.00,0.0023
3133.00,0.0023
3132.00,0.0023
3131.00,0.0023
3130.00,0.0023
3129.00,0.0022
3128.00,0.0022
3127.00,0.0022
3126.00,0.0022
3125.00,0.0022
3124.00,0.0022
3123.00,0.0022
3122.00,0.0022
3121.00,0.0021
3120.00,0.0021
3119.00,0.0021
3118.00,0.0021
3117.00,0.0021
3116.00,0.0021
3115.00,0.0021
3114.00,0.0021
3113.00,0.0020
3112.00,0.0020
3111.00,0.0020
3110.00,0.0020
3109.00,0.0020
3108.00,0.0020
3107.00,0.0020
3106.00,0.0020
3105.00,0.0020
3104.00,0.0020
3103.00,0.0020
3102.00,0.0020
3101.00,0.0020
3100.00,0.0020
3099.00,0.0020
3098.00,0.0021
3097.00,0.0021
3096.00,0.0021
3095.00,0.0021
3094.00,0.0021
3093.00,0.0020
3092.00,0.0020
3091.00,0.0020
3090.00,0.0019
3089.00,0.0019
3088.00,0.0019
3087.00,0.0020
3086.00,0.0020
3085.00,0.0020
3084.00,0.0020
3083.00,0.0020
3082.00,0.0020
3081.00,0.0020
3080.00,0.0020
3079.00,0.0020
3078.00,0.0021
3077.00,0.0021
3076.00,0.0021
3075.00,0.0021
3074.00,0.0021
3073.00,0.0021
3072.00,0.0021
3071.00,0.0021
3070.00,0.0021
3069.00,0.0021
3068.00,0.0022
3067.00,0.0022
3066.00,0.0023
3065.00,0.0023
3064.00,0.0023
3063.00,0.0023
3062.00,0.0023
3061.00,0.0023
3060.00,0.0024
3059.00,0.0024
3058.00,0.0024
3057.00,0.0024
3056.00,0.0024
3055.00,0.0024
3054.00,0.0024
3053.00,0.0024
3052.00,0.0025
3051.00,0.0025
3050.00,0.0025
3049.00,0.0026
3048.00,0.0026
3047.00,0.0026
3046.00,0.0026
3045.00,0.0026
3044.00,0.0026
3043.00,0.0027
3042.00,0.0027
3041.00,0.0028
3040.00,0.0028
3039.00,0.0029
3038.00,0.0029
3037.00,0.0029
3036.00,0.0029
3035.00,0.0029
3034.00,0.0029
3033.00,0.0030
3032.00,0.0030
3031.00,0.0030
3030.00,0.0031
3029.00,0.0031
3028.00,0.0032
3027.00,0.0032
3026.00,0.0033
3025.00,0.0033
3024.00,0.0034
3023.00,0.0034
3022.00,0.0035
3021.00,0.0036
3020.00,0.0037
3019.00,0.0038
3018.00,0.0039
3017.00,0.0040
3016.00,0.0041
3015.00,0.0042
3014.00,0.0043
3013.00,0.0044
3012.00,0.0045
3011.00,0.0047
3010.00,0.0048
3009.00,0.0049
3008.00,0.0051
3007.00,0.0052
3006.00,0.0053
3005.00,0.0055
3004.00,0.0057
3003.00,0.0059
3002.00,0.0062
3001.00,0.0065
3000.00,0.0067
2999.00,0.0070
2998.00,0.0072
2997.00,0.0076
2996.00,0.0079
2995.00,0.0083
2994.00,0.0088
2993.00,0.0093
2992.00,0.0098
2991.00,0.0104
2990.00,0.0110
2989.00,0.0117
2988.00,0.0125
2987.00,0.0134
2986.00,0.0144
2985.00,0.0154
2984.00,0.0166
2983.00,0.0180
2982.00,0.0196
2981.00,0.0215
2980.00,0.0235
2979.00,0.0259
2978.00,0.0286
2977.00,0.0316
2976.00,0.0352
2975.00,0.0392
2974.00,0.0437
2973.00,0.0489
2972.00,0.0549
2971.00,0.0616
2970.00,0.0692
2969.00,0.0776
2968.00,0.0869
2967.00,0.0968
2966.00,0.1073
2965.00,0.1182
2964.00,0.1290
2963.00,0.1393
2962.00,0.1483
2961.00,0.1556
2960.00,0.1611
2959.00,0.1649
2958.00,0.1676
2957.00,0.1700
2956.00,0.1729
2955.00,0.1770
2954.00,0.1821
2953.00,0.1876
2952.00,0.1926
2951.00,0.1956
2950.00,0.1954
2949.00,0.1913
2948.00,0.1833
2947.00,0.1723
2946.00,0.1594
2945.00,0.1461
2944.00,0.1337
2943.00,0.1232
2942.00,0.1151
2941.00,0.1095
2940.00,0.1063
2939.00,0.1053
2938.00,0.1062
2937.00,0.1089
2936.00,0.1132
2935.00,0.1189
2934.00,0.1261
2933.00,0.1344
2932.00,0.1438
2931.00,0.1541
2930.00,0.1650
2929.00,0.1762
2928.00,0.1874
2927.00,0.1983
2926.00,0.2088
2925.00,0.2189
2924.00,0.2287
2923.00,0.2383
2922.00,0.2478
2921.00,0.2567
2920.00,0.2644
2919.00,0.2699
2918.00,0.2724
2917.00,0.2711
2916.00,0.2661
2915.00,0.2583
2914.00,0.2486
2913.00,0.2385
2912.00,0.2288
2911.00,0.2201
2910.00,0.2125
2909.00,0.2059
2908.00,0.1998
2907.00,0.1940
2906.00,0.1880
2905.00,0.1818
2904.00,0.1752
2903.00,0.1684
2902.00,0.1616
2901.00,0.1549
2900.00,0.1483
2899.00,0.1421
2898.00,0.1361
2897.00,0.1306
2896.00,0.1257
2895.00,0.1213
2894.00,0.1176
2893.00,0.1146
2892.00,0.1122
2891.00,0.1104
2890.00,0.1090
2889.00,0.1081
2888.00,0.1076
2887.00,0.1073
2886.00,0.1075
2885.00,0.1079
2884.00,0.1088
2883.00,0.1099
2882.00,0.1114
2881.00,0.1131
2880.00,0.1146
2879.00,0.1157
2878.00,0.1162
2877.00,0.1159
2876.00,0.1152
2875.00,0.1144
2874.00,0.1139
2873.00,0.1141
2872.00,0.1151
2871.00,0.1167
2870.00,0.1187
2869.00,0.1206
2868.00,0.1217
2867.00,0.1213
2866.00,0.1188
2865.00,0.1141
2864.00,0.1076
2863.00,0.1003
2862.00,0.0931
2861.00,0.0868
2860.00,0.0819
2859.00,0.0786
2858.00,0.0767
2857.00,0.0761
2856.00,0.0764
2855.00,0.0775
2854.00,0.0790
2853.00,0.0809
2852.00,0.0829
2851.00,0.0847
2850.00,0.0864
2849.00,0.0879
2848.00,0.0895
2847.00,0.0916
2846.00,0.0946
2845.00,0.0987
2844.00,0.1039
2843.00,0.1098
2842.00,0.1157
2841.00,0.1211
2840.00,0.1249
2839.00,0.1265
2838.00,0.1252
2837.00,0.1208
2836.00,0.1134
2835.00,0.1038
2834.00,0.0930
2833.00,0.0821
2832.00,0.0718
2831.00,0.0628
2830.00,0.0553
2829.00,0.0490
2828.00,0.0440
2827.00,0.0399
2826.00,0.0365
2825.00,0.0337
2824.00,0.0313
2823.00,0.0293
2822.00,0.0276
2821.00,0.0262
2820.00,0.0249
2819.00,0.0237
2818.00,0.0227
2817.00,0.0218
2816.00,0.0210
2815.00,0.0203
2814.00,0.0196
2813.00,0.0191
2812.00,0.0186
2811.00,0.0181
2810.00,0.0175
2809.00,0.0169
2808.00,0.0163
2807.00,0.0157
2806.00,0.0151
2805.00,0.0144
2804.00,0.0138
2803.00,0.0132
2802.00,0.0127
2801.00,0.0122
2800.00,0.0119
2799.00,0.0116
2798.00,0.0113
2797.00,0.0111
2796.00,0.0108
2795.00,0.0106
2794.00,0.0103
2793.00,0.0100
2792.00,0.0097
2791.00,0.0094
2790.00,0.0090
2789.00,0.0087
2788.00,0.0084
2787.00,0.0081
2786.00,0.0078
2785.00,0.0075
2784.00,0.0072
2783.00,0.0070
2782.00,0.0067
2781.00,0.0066
2780.00,0.0064
2779.00,0.0063
2778.00,0.0061
2777.00,0.0059
2776.00,0.0058
2775.00,0.0057
2774.00,0.0056
2773.00,0.0055
2772.00,0.0055
2771.00,0.0054
2770.00,0.0054
2769.00,0.0053
2768.00,0.0053
2767.00,0.0052
2766.00,0.0052
2765.00,0.0052
2764.00,0.0052
2763.00,0.0052
2762.00,0.0051
2761.00,0.0051
2760.00,0.0050
2759.00,0.0050
2758.00,0.0049
2757.00,0.0049
2756.00,0.0049
2755.00,0.0049
2754.00,0.0049
2753.00,0.0049
2752.00,0.0048
2751.00,0.0048
2750.00,0.0048
2749.00,0.0048
2748.00,0.0048
2747.00,0.0049
2746.00,0.0049
2745.00,0.0050
2744.00,0.0050
2743.00,0.0051
2742.00,0.0051
2741.00,0.0052
2740.00,0.0054
2739.00,0.0055
2738.00,0.0056
2737.00,0.0057
2736.00,0.0059
2735.00,0.0060
2734.00,0.0062
2733.00,0.0064
2732.00,0.0065
2731.00,0.0067
2730.00,0.0069
2729.00,0.0071
2728.00,0.0074
2727.00,0.0077
2726.00,0.0080
2725.00,0.0082
2724.00,0.0084
2723.00,0.0085
2722.00,0.0084
2721.00,0.0082
2720.00,0.0080
2719.00,0.0077
2718.00,0.0073
2717.00,0.0070
2716.00,0.0067
2715.00,0.0065
2714.00,0.0062
2713.00,0.0060
2712.00,0.0058
2711.00,0.0057
2710.00,0.0055
2709.00,0.0053
2708.00,0.0052
2707.00,0.0050
2706.00,0.0049
2705.00,0.0048
2704.00,0.0048
2703.00,0.0047
2702.00,0.0046
2701.00,0.0045
2700.00,0.0044
2699.00,0.0044
2698.00,0.0044
2697.00,0.0044
2696.00,0.0044
2695.00,0.0044
2694.00,0.0044
2693.00,0.0044
2692.00,0.0044
2691.00,0.0044
2690.00,0.0044
2689.00,0.0044
2688.00,0.0044
2687.00,0.0044
2686.00,0.0044
2685.00,0.0044
2684.00,0.0043
2683.00,0.0043
2682.00,0.0043
2681.00,0.0044
2680.00,0.0044
2679.00,0.0044
2678.00,0.0044
2677.00,0.0044
2676.00,0.0044
2675.00,0.0044
2674.00,0.0043
2673.00,0.0043
2672.00,0.0043
2671.00,0.0043
2670.00,0.0043
2669.00,0.0042
2668.00,0.0042
2667.00,0.0042
2666.00,0.0043
2665.00,0.0043
2664.00,0.0044
2663.00,0.0044
2662.00,0.0045
2661.00,0.0046
2660.00,0.0046
2659.00,0.0046
2658.00,0.0046
2657.00,0.0046
2656.00,0.0046
2655.00,0.0046
2654.00,0.0045
2653.00,0.0045
2652.00,0.0044
2651.00,0.0043
2650.00,0.0042
2649.00,0.0041
2648.00,0.0041
2647.00,0.0041
2646.00,0.0041
2645.00,0.0041
2644.00,0.0041
2643.00,0.0040
2642.00,0.0039
2641.00,0.0038
2640.00,0.0038
2639.00,0.0037
2638.00,0.0037
2637.00,0.0037
2636.00,0.0037
2635.00,0.0037
2634.00,0.0037
2633.00,0.0037
2632.00,0.0037
2631.00,0.0038
2630.00,0.0038
2629.00,0.0038
2628.00,0.0038
2627.00,0.0039
2626.00,0.0039
2625.00,0.0039
2624.00,0.0039
2623.00,0.0039
2622.00,0.0039
2621.00,0.0039
2620.00,0.0039
2619.00,0.0039
2618.00,0.0039
2617.00,0.0040
2616.00,0.0040
2615.00,0.0040
2614.00,0.0040
2613.00,0.0039
2612.00,0.0038
2611.00,0.0037
2610.00,0.0035
2609.00,0.0034
2608.00,0.0034
2607.00,0.0033
2606.00,0.0033
2605.00,0.0033
2604.00,0.0032
2603.00,0.0032
2602.00,0.0031
2601.00,0.0030
2600.00,0.0029
2599.00,0.0029
2598.00,0.0028
2597.00,0.0028
2596.00,0.0028
2595.00,0.0028
2594.00,0.0029
2593.00,0.0030
2592.00,0.0031
2591.00,0.0033
2590.00,0.0034
2589.00,0.0034
2588.00,0.0034
2587.00,0.0034
2586.00,0.0035
2585.00,0.0035
2584.00,0.0035
2583.00,0.0036
2582.00,0.0037
2581.00,0.0037
2580.00,0.0037
2579.00,0.0036
2578.00,0.0035
2577.00,0.0034
2576.00,0.0032
2575.00,0.0031
2574.00,0.0030
2573.00,0.0029
2572.00,0.0028
2571.00,0.0027
2570.00,0.0026
2569.00,0.0025
2568.00,0.0025
2567.00,0.0024
2566.00,0.0024
2565.00,0.0023
2564.00,0.0023
2563.00,0.0023
2562.00,0.0023
2561.00,0.0023
2560.00,0.0022
2559.00,0.0021
2558.00,0.0021
2557.00,0.0021
2556.00,0.0021
2555.00,0.0021
2554.00,0.0020
2553.00,0.0020
2552.00,0.0020
2551.00,0.0020
2550.00,0.0020
2549.00,0.0020
2548.00,0.0020
2547.00,0.0018
2546.00,0.0017
2545.00,0.0017
2544.00,0.0017
2543.00,0.0017
2542.00,0.0017
2541.00,0.0017
2540.00,0.0017
2539.00,0.0017
2538.00,0.0017
2537.00,0.0016
2536.00,0.0016
2535.00,0.0015
2534.00,0.0015
2533.00,0.0014
2532.00,0.0014
2531.00,0.0014
2530.00,0.0014
2529.00,0.0014
2528.00,0.0013
2527.00,0.0013
2526.00,0.0013
2525.00,0.0014
2524.00,0.0013
2523.00,0.0013
2522.00,0.0012
2521.00,0.0011
2520.00,0.0011
2519.00,0.0011
2518.00,0.0011
2517.00,0.0011
2516.00,0.0010
2515.00,0.0009
2514.00,0.0008
2513.00,0.0008
2512.00,0.0008
2511.00,0.0009
2510.00,0.0010
2509.00,0.0010
2508.00,0.0011
2507.00,0.0010
2506.00,0.0010
2505.00,0.0009
2504.00,0.0009
2503.00,0.0008
2502.00,0.0008
2501.00,0.0008
2500.00,0.0008
2499.00,0.0009
2498.00,0.0009
2497.00,0.0010
2496.00,0.0010
2495.00,0.0010
2494.00,0.0010
2493.00,0.0010
2492.00,0.0010
2491.00,0.0010
2490.00,0.0010
2489.00,0.0009
2488.00,0.0008
2487.00,0.0008
2486.00,0.0008
2485.00,0.0008
2484.00,0.0008
2483.00,0.0008
2482.00,0.0008
2481.00,0.0008
2480.00,0.0008
2479.00,0.0008
2478.00,0.0008
2477.00,0.0008
2476.00,0.0008
2475.00,0.0008
2474.00,0.0008
2473.00,0.0009
2472.00,0.0009
2471.00,0.0009
2470.00,0.0008
2469.00,0.0007
2468.00,0.0006
2467.00,0.0006
2466.00,0.0007
2465.00,0.0007
2464.00,0.0008
2463.00,0.0009
2462.00,0.0009
2461.00,0.0008
2460.00,0.0008
2459.00,0.0008
2458.00,0.0008
2457.00,0.0009
2456.00,0.0009
2455.00,0.0009
2454.00,0.0010
2453.00,0.0010
2452.00,0.0011
2451.00,0.0011
2450.00,0.0011
2449.00,0.0010
2448.00,0.0009
2447.00,0.0009
2446.00,0.0009
2445.00,0.0009
2444.00,0.0010
2443.00,0.0010
2442.00,0.0010
2441.00,0.0010
2440.00,0.0010
2439.00,0.0011
2438.00,0.0011
2437.00,0.0011
2436.00,0.0011
2435.00,0.0011
2434.00,0.0011
2433.00,0.0012
2432.00,0.0012
2431.00,0.0012
2430.00,0.0012
2429.00,0.0012
2428.00,0.0011
2427.00,0.0010
2426.00,0.0010
2425.00,0.0009
2424.00,0.0009
2423.00,0.0008
2422.00,0.0008
2421.00,0.0008
2420.00,0.0008
2419.00,0.0008
2418.00,0.0008
2417.00,0.0008
2416.00,0.0008
2415.00,0.0008
2414.00,0.0009
2413.00,0.0009
2412.00,0.0009
2411.00,0.0008
2410.00,0.0008
2409.00,0.0008
2408.00,0.0008
2407.00,0.0008
2406.00,0.0008
2405.00,0.0008
2404.00,0.0008
2403.00,0.0008
2402.00,0.0008
2401.00,0.0008
2400.00,0.0008
2399.00,0.0009
2398.00,0.0009
2397.00,0.0009
2396.00,0.0008
2395.00,0.0008
2394.00,0.0007
2393.00,0.0006
2392.00,0.0006
2391.00,0.0007
2390.00,0.0007
2389.00,0.0007
2388.00,0.0006
2387.00,0.0006
2386.00,0.0005
2385.00,0.0005
2384.00,0.0004
2383.00,0.0004
2382.00,0.0002
2381.00,0.0001
2380.00,0.0000
2379.00,0.0000
2378.00,0.0001
2377.00,0.0002
2376.00,0.0002
2375.00,0.0002
2374.00,0.0002
2373.00,0.0001
2372.00,0.0001
2371.00,-0.0000
2370.00,-0.0001
2369.00,-0.0001
2368.00,-0.0001
2367.00,-0.0000
2366.00,-0.0000
2365.00,-0.0000
2364.00,0.0000
2363.00,0.0001
2362.00,0.0002
2361.00,0.0003
2360.00,0.0003
2359.00,0.0002
2358.00,0.0002
2357.00,0.0001
2356.00,0.0001
2355.00,0.0002
2354.00,0.0002
2353.00,0.0003
2352.00,0.0003
2351.00,0.0002
2350.00,0.0002
2349.00,0.0002
2348.00,0.0003
2347.00,0.0003
2346.00,0.0003
2345.00,0.0003
2344.00,0.0003
2343.00,0.0004
2342.00,0.0005
2341.00,0.0005
2340.00,0.0006
2339.00,0.0006
2338.00,0.0006
2337.00,0.0005
2336.00,0.0005
2335.00,0.0005
2334.00,0.0004
2333.00,0.0004
2332.00,0.0005
2331.00,0.0005
2330.00,0.0006
2329.00,0.0007
2328.00,0.0009
2327.00,0.0012
2326.00,0.0015
2325.00,0.0018
2324.00,0.0020
2323.00,0.0019
2322.00,0.0017
2321.00,0.0015
2320.00,0.0014
2319.00,0.0012
2318.00,0.0011
2317.00,0.0011
2316.00,0.0010
2315.00,0.0010
2314.00,0.0009
2313.00,0.0009
2312.00,0.0009
2311.00,0.0009
2310.00,0.0009
2309.00,0.0009
2308.00,0.0008
2307.00,0.0008
2306.00,0.0008
2305.00,0.0008
2304.00,0.0009
2303.00,0.0009
2302.00,0.0009
2301.00,0.0009
2300.00,0.0009
2299.00,0.0010
2298.00,0.0010
2297.00,0.0012
2296.00,0.0013
2295.00,0.0013
2294.00,0.0014
2293.00,0.0014
2292.00,0.0014
2291.00,0.0014
2290.00,0.0015
2289.00,0.0016
2288.00,0.0017
2287.00,0.0018
2286.00,0.0018
2285.00,0.0017
2284.00,0.0016
2283.00,0.0016
2282.00,0.0015
2281.00,0.0014
2280.00,0.0014
2279.00,0.0014
2278.00,0.0013
2277.00,0.0013
2276.00,0.0012
2275.00,0.0012
2274.00,0.0012
2273.00,0.0012
2272.00,0.0012
2271.00,0.0012
2270.00,0.0012
2269.00,0.0012
2268.00,0.0013
2267.00,0.0013
2266.00,0.0012
2265.00,0.0011
2264.00,0.0011
2263.00,0.0012
2262.00,0.0012
2261.00,0.0012
2260.00,0.0012
2259.00,0.0014
2258.00,0.0014
2257.00,0.0014
2256.00,0.0012
2255.00,0.0010
2254.00,0.0009
2253.00,0.0009
2252.00,0.0010
2251.00,0.0010
2250.00,0.0010
2249.00,0.0010
2248.00,0.0009
2247.00,0.0008
2246.00,0.0007
2245.00,0.0006
2244.00,0.0005
2243.00,0.0005
2242.00,0.0005
2241.00,0.0006
2240.00,0.0006
2239.00,0.0006
2238.00,0.0005
2237.00,0.0006
2236.00,0.0007
2235.00,0.0009
2234.00,0.0010
2233.00,0.0010
2232.00,0.0009
2231.00,0.0008
2230.00,0.0006
2229.00,0.0006
2228.00,0.0007
2227.00,0.0008
2226.00,0.0008
2225.00,0.0008
2224.00,0.0008
2223.00,0.0007
2222.00,0.0006
2221.00,0.0004
2220.00,0.0002
2219.00,0.0001
2218.00,0.0001
2217.00,0.0003
2216.00,0.0004
2215.00,0.0004
2214.00,0.0003
2213.00,0.0003
2212.00,0.0003
2211.00,0.0004
2210.00,0.0004
2209.00,0.0003
2208.00,0.0003
2207.00,0.0003
2206.00,0.0004
2205.00,0.0005
2204.00,0.0006
2203.00,0.0007
2202.00,0.0007
2201.00,0.0006
2200.00,0.0005
2199.00,0.0004
2198.00,0.0004
2197.00,0.0006
2196.00,0.0009
2195.00,0.0012
2194.00,0.0014
2193.00,0.0015
2192.00,0.0013
2191.00,0.0009
2190.00,0.0007
2189.00,0.0006
2188.00,0.0007
2187.00,0.0008
2186.00,0.0008
2185.00,0.0009
2184.00,0.0009
2183.00,0.0010
2182.00,0.0008
2181.00,0.0006
2180.00,0.0004
2179.00,0.0003
2178.00,0.0003
2177.00,0.0003
2176.00,0.0003
2175.00,0.0002
2174.00,0.0002
2173.00,0.0004
2172.00,0.0004
2171.00,0.0005
2170.00,0.0006
2169.00,0.0008
2168.00,0.0012
2167.00,0.0015
2166.00,0.0017
2165.00,0.0018
2164.00,0.0019
2163.00,0.0020
2162.00,0.0018
2161.00,0.0011
2160.00,-0.0003
2159.00,-0.0019
2158.00,-0.0031
2157.00,-0.0036
2156.00,-0.0035
2155.00,-0.0032
2154.00,-0.0026
2153.00,-0.0020
2152.00,-0.0014
2151.00,-0.0011
2150.00,-0.0011
2149.00,-0.0011
2148.00,-0.0012
2147.00,-0.0012
2146.00,-0.0013
2145.00,-0.0013
2144.00,-0.0013
2143.00,-0.0013
2142.00,-0.0014
2141.00,-0.0013
2140.00,-0.0012
2139.00,-0.0012
2138.00,-0.0013
2137.00,-0.0014
2136.00,-0.0017
2135.00,-0.0019
2134.00,-0.0021
2133.00,-0.0021
2132.00,-0.0020
2131.00,-0.0018
2130.00,-0.0016
2129.00,-0.0013
2128.00,-0.0010
2127.00,-0.0008
2126.00,-0.0007
2125.00,-0.0005
2124.00,-0.0004
2123.00,-0.0003
2122.00,-0.0003
2121.00,-0.0004
2120.00,-0.0004
2119.00,-0.0003
2118.00,-0.0003
2117.00,-0.0002
2116.00,-0.0001
2115.00,0.0000
2114.00,0.0001
2113.00,0.0002
2112.00,0.0002
2111.00,0.0001
2110.00,-0.0000
2109.00,-0.0001
2108.00,-0.0001
2107.00,-0.0002
2106.00,-0.0002
2105.00,-0.0002
2104.00,-0.0002
2103.00,-0.0001
2102.00,0.0000
2101.00,0.0001
2100.00,-0.0000
2099.00,-0.0002
2098.00,-0.0003
2097.00,-0.0003
2096.00,-0.0003
2095.00,-0.0004
2094.00,-0.0005
2093.00,-0.0005
2092.00,-0.0004
2091.00,-0.0003
2090.00,-0.0002
2089.00,-0.0001
2088.00,0.0000
2087.00,0.0001
2086.00,0.0001
2085.00,0.0001
2084.00,0.0001
2083.00,0.0001
2082.00,0.0000
2081.00,0.0000
2080.00,0.0001
2079.00,0.0001
2078.00,0.0002
2077.00,0.0002
2076.00,0.0001
2075.00,-0.0000
2074.00,-0.0002
2073.00,-0.0002
2072.00,-0.0001
2071.00,-0.0001
2070.00,-0.0001
2069.00,-0.0001
2068.00,-0.0001
2067.00,-0.0001
2066.00,-0.0001
2065.00,-0.0002
2064.00,-0.0002
2063.00,-0.0002
2062.00,-0.0001
2061.00,-0.0001
2060.00,-0.0002
2059.00,-0.0003
2058.00,-0.0005
2057.00,-0.0006
2056.00,-0.0006
2055.00,-0.0004
2054.00,-0.0001
2053.00,0.0004
2052.00,0.0010
2051.00,0.0013
2050.00,0.0012
2049.00,0.0008
2048.00,0.0003
2047.00,0.0001
2046.00,-0.0001
2045.00,-0.0002
2044.00,-0.0002
2043.00,-0.0001
2042.00,-0.0000
2041.00,0.0000
2040.00,0.0000
2039.00,0.0001
2038.00,0.0001
2037.00,0.0001
2036.00,-0.0001
2035.00,-0.0004
2034.00,-0.0007
2033.00,-0.0010
2032.00,-0.0011
2031.00,-0.0013
2030.00,-0.0014
2029.00,-0.0013
2028.00,-0.0010
2027.00,-0.0008
2026.00,-0.0007
2025.00,-0.0009
2024.00,-0.0012
2023.00,-0.0015
2022.00,-0.0016
2021.00,-0.0015
2020.00,-0.0013
2019.00,-0.0011
2018.00,-0.0010
2017.00,-0.0010
2016.00,-0.0008
2015.00,-0.0005
2014.00,-0.0001
2013.00,0.0000
2012.00,-0.0000
2011.00,-0.0003
2010.00,-0.0006
2009.00,-0.0009
2008.00,-0.0012
2007.00,-0.0014
2006.00,-0.0015
2005.00,-0.0013
2004.00,-0.0013
2003.00,-0.0014
2002.00,-0.0016
2001.00,-0.0017
2000.00,-0.0016
1999.00,-0.0016
1998.00,-0.0015
1997.00,-0.0016
1996.00,-0.0015
1995.00,-0.0014
1994.00,-0.0013
1993.00,-0.0013
1992.00,-0.0013
1991.00,-0.0014
1990.00,-0.0014
1989.00,-0.0012
1988.00,-0.0010
1987.00,-0.0007
1986.00,-0.0003
1985.00,-0.0000
1984.00,0.0002
1983.00,0.0003
1982.00,0.0003
1981.00,0.0003
1980.00,0.0001
1979.00,-0.0002
1978.00,-0.0006
1977.00,-0.0011
1976.00,-0.0016
1975.00,-0.0020
1974.00,-0.0022
1973.00,-0.0021
1972.00,-0.0019
1971.00,-0.0018
1970.00,-0.0018
1969.00,-0.0019
1968.00,-0.0019
1967.00,-0.0020
1966.00,-0.0021
1965.00,-0.0022
1964.00,-0.0022
1963.00,-0.0023
1962.00,-0.0023
1961.00,-0.0023
1960.00,-0.0023
1959.00,-0.0022
1958.00,-0.0021
1957.00,-0.0018
1956.00,-0.0015
1955.00,-0.0014
1954.00,-0.0014
1953.00,-0.0015
1952.00,-0.0015
1951.00,-0.0016
1950.00,-0.0016
1949.00,-0.0015
1948.00,-0.0015
1947.00,-0.0015
1946.00,-0.0015
1945.00,-0.0014
1944.00,-0.0013
1943.00,-0.0013
1942.00,-0.0013
1941.00,-0.0013
1940.00,-0.0012
1939.00,-0.0011
1938.00,-0.0011
1937.00,-0.0012
1936.00,-0.0013
1935.00,-0.0013
1934.00,-0.0012
1933.00,-0.0011
1932.00,-0.0009
1931.00,-0.0008
1930.00,-0.0008
1929.00,-0.0009
1928.00,-0.0009
1927.00,-0.0009
1926.00,-0.0009
1925.00,-0.0008
1924.00,-0.0006
1923.00,-0.0005
1922.00,-0.0004
1921.00,-0.0004
1920.00,-0.0003
1919.00,-0.0002
1918.00,-0.0001
1917.00,-0.0003
1916.00,-0.0005
1915.00,-0.0007
1914.00,-0.0008
1913.00,-0.0008
1912.00,-0.0008
1911.00,-0.0007
1910.00,-0.0006
1909.00,-0.0005
1908.00,-0.0005
1907.00,-0.0005
1906.00,-0.0005
1905.00,-0.0004
1904.00,-0.0004
1903.00,-0.0003
1902.00,-0.0003
1901.00,-0.0003
1900.00,-0.0002
1899.00,-0.0002
1898.00,-0.0002
1897.00,-0.0002
1896.00,-0.0002
1895.00,-0.0002
1894.00,-0.0002
1893.00,-0.0002
1892.00,-0.0002
1891.00,-0.0002
1890.00,-0.0003
1889.00,-0.0003
1888.00,-0.0003
1887.00,-0.0003
1886.00,-0.0002
1885.00,-0.0002
1884.00,-0.0001
1883.00,-0.0000
1882.00,-0.0000
1881.00,-0.0001
1880.00,-0.0002
1879.00,-0.0004
1878.00,-0.0005
1877.00,-0.0005
1876.00,-0.0004
1875.00,-0.0003
1874.00,-0.0002
1873.00,-0.0002
1872.00,-0.0003
1871.00,-0.0003
1870.00,-0.0003
1869.00,-0.0002
1868.00,-0.0001
1867.00,-0.0001
1866.00,-0.0001
1865.00,-0.0001
1864.00,-0.0001
1863.00,-0.0002
1862.00,-0.0002
1861.00,-0.0002
1860.00,-0.0002
1859.00,-0.0001
1858.00,-0.0000
1857.00,0.0000
1856.00,0.0001
1855.00,0.0001
1854.00,0.0002
1853.00,0.0002
1852.00,0.0002
1851.00,0.0002
1850.00,0.0001
1849.00,0.0000
1848.00,-0.0001
1847.00,-0.0002
1846.00,-0.0003
1845.00,-0.0003
1844.00,-0.0003
1843.00,-0.0002
1842.00,-0.0001
1841.00,-0.0000
1840.00,-0.0000
1839.00,-0.0000
1838.00,0.0000
1837.00,0.0001
1836.00,0.0001
1835.00,0.0002
1834.00,0.0002
1833.00,0.0002
1832.00,0.0002
1831.00,0.0003
1830.00,0.0004
1829.00,0.0004
1828.00,0.0003
1827.00,0.0002
1826.00,0.0002
1825.00,0.0002
1824.00,0.0003
1823.00,0.0002
1822.00,0.0002
1821.00,0.0001
1820.00,0.0001
1819.00,0.0001
1818.00,0.0000
1817.00,0.0000
1816.00,0.0000
1815.00,0.0000
1814.00,-0.0000
1813.00,0.0000
1812.00,0.0000
1811.00,0.0001
1810.00,0.0002
1809.00,0.0002
1808.00,0.0002
1807.00,0.0003
1806.00,0.0003
1805.00,0.0004
1804.00,0.0004
1803.00,0.0004
1802.00,0.0003
1801.00,0.0003
1800.00,0.0003
1799.00,0.0004
1798.00,0.0004
1797.00,0.0005
1796.00,0.0004
1795.00,0.0004
1794.00,0.0004
1793.00,0.0004
1792.00,0.0005
1791.00,0.0005
1790.00,0.0005
1789.00,0.0005
1788.00,0.0006
1787.00,0.0006
1786.00,0.0006
1785.00,0.0006
1784.00,0.0006
1783.00,0.0006
1782.00,0.0005
1781.00,0.0005
1780.00,0.0005
1779.00,0.0006
1778.00,0.0006
1777.00,0.0006
1776.00,0.0006
1775.00,0.0006
1774.00,0.0006
1773.00,0.0006
1772.00,0.0006
1771.00,0.0006
1770.00,0.0007
1769.00,0.0008
1768.00,0.0009
1767.00,0.0009
1766.00,0.0009
1765.00,0.0008
1764.00,0.0009
1763.00,0.0009
1762.00,0.0010
1761.00,0.0011
1760.00,0.0011
1759.00,0.0011
1758.00,0.0011
1757.00,0.0011
1756.00,0.0011
1755.00,0.0011
1754.00,0.0012
1753.00,0.0012
1752.00,0.0013
1751.00,0.0014
1750.00,0.0015
1749.00,0.0015
1748.00,0.0016
1747.00,0.0016
1746.00,0.0017
1745.00,0.0018
1744.00,0.0019
1743.00,0.0019
1742.00,0.0019
1741.00,0.0019
1740.00,0.0020
1739.00,0.0020
1738.00,0.0021
1737.00,0.0021
1736.00,0.0022
1735.00,0.0022
1734.00,0.0021
1733.00,0.0021
1732.00,0.0022
1731.00,0.0022
1730.00,0.0023
1729.00,0.0023
1728.00,0.0023
1727.00,0.0023
1726.00,0.0022
1725.00,0.0021
1724.00,0.0021
1723.00,0.0021
1722.00,0.0020
1721.00,0.0020
1720.00,0.0020
1719.00,0.0021
1718.00,0.0021
1717.00,0.0022
1716.00,0.0021
1715.00,0.0020
1714.00,0.0020
1713.00,0.0020
1712.00,0.0020
1711.00,0.0019
1710.00,0.0019
1709.00,0.0019
1708.00,0.0019
1707.00,0.0019
1706.00,0.0019
1705.00,0.0019
1704.00,0.0019
1703.00,0.0019
1702.00,0.0020
1701.00,0.0020
1700.00,0.0021
1699.00,0.0021
1698.00,0.0021
1697.00,0.0021
1696.00,0.0022
1695.00,0.0022
1694.00,0.0022
1693.00,0.0022
1692.00,0.0022
1691.00,0.0022
1690.00,0.0022
1689.00,0.0022
1688.00,0.0022
1687.00,0.0023
1686.00,0.0023
1685.00,0.0023
1684.00,0.0023
1683.00,0.0023
1682.00,0.0024
1681.00,0.0025
1680.00,0.0025
1679.00,0.0026
1678.00,0.0026
1677.00,0.0026
1676.00,0.0026
1675.00,0.0026
1674.00,0.0026
1673.00,0.0026
1672.00,0.0027
1671.00,0.0027
1670.00,0.0027
1669.00,0.0028
1668.00,0.0028
1667.00,0.0028
1666.00,0.0029
1665.00,0.0029
1664.00,0.0029
1663.00,0.0029
1662.00,0.0029
1661.00,0.0029
1660.00,0.0029
1659.00,0.0029
1658.00,0.0030
1657.00,0.0030
1656.00,0.0031
1655.00,0.0031
1654.00,0.0031
1653.00,0.0031
1652.00,0.0031
1651.00,0.0032
1650.00,0.0032
1649.00,0.0033
1648.00,0.0034
1647.00,0.0034
1646.00,0.0035
1645.00,0.0035
1644.00,0.0035
1643.00,0.0036
1642.00,0.0036
1641.00,0.0037
1640.00,0.0038
1639.00,0.0038
1638.00,0.0039
1637.00,0.0040
1636.00,0.0040
1635.00,0.0040
1634.00,0.0039
1633.00,0.0038
1632.00,0.0038
1631.00,0.0037
1630.00,0.0036
1629.00,0.0035
1628.00,0.0035
1627.00,0.0034
1626.00,0.0033
1625.00,0.0032
1624.00,0.0032
1623.00,0.0032
1622.00,0.0031
1621.00,0.0031
1620.00,0.0031
1619.00,0.0031
1618.00,0.0031
1617.00,0.0031
1616.00,0.0031
1615.00,0.0030
1614.00,0.0030
1613.00,0.0030
1612.00,0.0031
1611.00,0.0031
1610.00,0.0031
1609.00,0.0031
1608.00,0.0031
1607.00,0.0030
1606.00,0.0030
1605.00,0.0031
1604.00,0.0031
1603.00,0.0031
1602.00,0.0031
1601.00,0.0031
1600.00,0.0030
1599.00,0.0029
1598.00,0.0029
1597.00,0.0028
1596.00,0.0028
1595.00,0.0028
1594.00,0.0028
1593.00,0.0029
1592.00,0.0029
1591.00,0.0029
1590.00,0.0029
1589.00,0.0030
1588.00,0.0030
1587.00,0.0030
1586.00,0.0030
1585.00,0.0031
1584.00,0.0031
1583.00,0.0031
1582.00,0.0032
1581.00,0.0032
1580.00,0.0033
1579.00,0.0034
1578.00,0.0034
1577.00,0.0035
1576.00,0.0036
1575.00,0.0035
1574.00,0.0035
1573.00,0.0035
1572.00,0.0036
1571.00,0.0036
1570.00,0.0037
1569.00,0.0038
1568.00,0.0038
1567.00,0.0038
1566.00,0.0038
1565.00,0.0038
1564.00,0.0037
1563.00,0.0037
1562.00,0.0037
1561.00,0.0037
1560.00,0.0036
1559.00,0.0035
1558.00,0.0034
1557.00,0.0035
1556.00,0.0037
1555.00,0.0038
1554.00,0.0039
1553.00,0.0039
1552.00,0.0039
1551.00,0.0039
1550.00,0.0038
1549.00,0.0038
1548.00,0.0039
1547.00,0.0039
1546.00,0.0039
1545.00,0.0040
1544.00,0.0041
1543.00,0.0041
1542.00,0.0041
1541.00,0.0041
1540.00,0.0041
1539.00,0.0040
1538.00,0.0040
1537.00,0.0040
1536.00,0.0040
1535.00,0.0039
1534.00,0.0039
1533.00,0.0039
1532.00,0.0038
1531.00,0.0038
1530.00,0.0038
1529.00,0.0039
1528.00,0.0039
1527.00,0.0039
1526.00,0.0039
1525.00,0.0040
1524.00,0.0041
1523.00,0.0041
1522.00,0.0042
1521.00,0.0042
1520.00,0.0043
1519.00,0.0044
1518.00,0.0044
1517.00,0.0045
1516.00,0.0046
1515.00,0.0046
1514.00,0.0046
1513.00,0.0047
1512.00,0.0049
1511.00,0.0049
1510.00,0.0049
1509.00,0.0050
1508.00,0.0052
1507.00,0.0052
1506.00,0.0053
1505.00,0.0054
1504.00,0.0056
1503.00,0.0058
1502.00,0.0059
1501.00,0.0061
1500.00,0.0063
1499.00,0.0065
1498.00,0.0067
1497.00,0.0070
1496.00,0.0073
1495.00,0.0075
1494.00,0.0077
1493.00,0.0080
1492.00,0.0083
1491.00,0.0087
1490.00,0.0091
1489.00,0.0095
1488.00,0.0100
1487.00,0.0104
1486.00,0.0109
1485.00,0.0114
1484.00,0.0121
1483.00,0.0128
1482.00,0.0136
1481.00,0.0146
1480.00,0.0158
1479.00,0.0170
1478.00,0.0184
1477.00,0.0205
1476.00,0.0230
1475.00,0.0260
1474.00,0.0300
1473.00,0.0358
1472.00,0.0426
1471.00,0.0491
1470.00,0.0553
1469.00,0.0618
1468.00,0.0688
1467.00,0.0764
1466.00,0.0852
1465.00,0.0946
1464.00,0.1030
1463.00,0.1087
1462.00,0.1124
1461.00,0.1149
1460.00,0.1166
1459.00,0.1179
1458.00,0.1189
1457.00,0.1198
1456.00,0.1200
1455.00,0.1194
1454.00,0.1186
1453.00,0.1172
1452.00,0.1149
1451.00,0.1116
1450.00,0.1068
1449.00,0.0999
1448.00,0.0909
1447.00,0.0812
1446.00,0.0724
1445.00,0.0647
1444.00,0.0580
1443.00,0.0525
1442.00,0.0483
1441.00,0.0453
1440.00,0.0433
1439.00,0.0423
1438.00,0.0421
1437.00,0.0420
1436.00,0.0409
1435.00,0.0385
1434.00,0.0350
1433.00,0.0309
1432.00,0.0265
1431.00,0.0226
1430.00,0.0196
1429.00,0.0174
1428.00,0.0158
1427.00,0.0148
1426.00,0.0142
1425.00,0.0135
1424.00,0.0129
1423.00,0.0125
1422.00,0.0123
1421.00,0.0121
1420.00,0.0117
1419.00,0.0114
1418.00,0.0112
1417.00,0.0109
1416.00,0.0106
1415.00,0.0105
1414.00,0.0104
1413.00,0.0103
1412.00,0.0102
1411.00,0.0101
1410.00,0.0101
1409.00,0.0100
1408.00,0.0099
1407.00,0.0099
1406.00,0.0099
1405.00,0.0099
1404.00,0.0099
1403.00,0.0100
1402.00,0.0102
1401.00,0.0103
1400.00,0.0104
1399.00,0.0105
1398.00,0.0108
1397.00,0.0110
1396.00,0.0112
1395.00,0.0116
1394.00,0.0120
1393.00,0.0124
1392.00,0.0129
1391.00,0.0136
1390.00,0.0147
1389.00,0.0162
1388.00,0.0183
1387.00,0.0214
1386.00,0.0256
1385.00,0.0311
1384.00,0.0386
1383.00,0.0493
1382.00,0.0636
1381.00,0.0820
1380.00,0.1045
1379.00,0.1303
1378.00,0.1552
1377.00,0.1735
1376.00,0.1797
1375.00,0.1706
1374.00,0.1489
1373.00,0.1229
1372.00,0.0992
1371.00,0.0797
1370.00,0.0641
1369.00,0.0522
1368.00,0.0440
1367.00,0.0389
1366.00,0.0362
1365.00,0.0351
1364.00,0.0353
1363.00,0.0366
1362.00,0.0386
1361.00,0.0407
1360.00,0.0423
1359.00,0.0428
1358.00,0.0417
1357.00,0.0393
1356.00,0.0358
1355.00,0.0319
1354.00,0.0282
1353.00,0.0251
1352.00,0.0225
1351.00,0.0204
1350.00,0.0187
1349.00,0.0173
1348.00,0.0161
1347.00,0.0151
1346.00,0.0143
1345.00,0.0135
1344.00,0.0129
1343.00,0.0124
1342.00,0.0120
1341.00,0.0116
1340.00,0.0114
1339.00,0.0112
1338.00,0.0110
1337.00,0.0110
1336.00,0.0111
1335.00,0.0112
1334.00,0.0115
1333.00,0.0118
1332.00,0.0122
1331.00,0.0125
1330.00,0.0126
1329.00,0.0126
1328.00,0.0123
1327.00,0.0119
1326.00,0.0115
1325.00,0.0109
1324.00,0.0104
1323.00,0.0099
1322.00,0.0095
1321.00,0.0092
1320.00,0.0090
1319.00,0.0088
1318.00,0.0087
1317.00,0.0085
1316.00,0.0084
1315.00,0.0084
1314.00,0.0084
1313.00,0.0084
1312.00,0.0086
1311.00,0.0088
1310.00,0.0093
1309.00,0.0100
1308.00,0.0111
1307.00,0.0124
1306.00,0.0136
1305.00,0.0145
1304.00,0.0147
1303.00,0.0143
1302.00,0.0136
1301.00,0.0129
1300.00,0.0125
1299.00,0.0123
1298.00,0.0122
1297.00,0.0122
1296.00,0.0121
1295.00,0.0119
1294.00,0.0115
1293.00,0.0110
1292.00,0.0106
1291.00,0.0101
1290.00,0.0097
1289.00,0.0093
1288.00,0.0090
1287.00,0.0087
1286.00,0.0084
1285.00,0.0083
1284.00,0.0082
1283.00,0.0081
1282.00,0.0080
1281.00,0.0079
1280.00,0.0078
1279.00,0.0077
1278.00,0.0076
1277.00,0.0076
1276.00,0.0075
1275.00,0.0075
1274.00,0.0076
1273.00,0.0077
1272.00,0.0077
1271.00,0.0078
1270.00,0.0080
1269.00,0.0082
1268.00,0.0085
1267.00,0.0089
1266.00,0.0092
1265.00,0.0095
1264.00,0.0099
1263.00,0.0102
1262.00,0.0107
1261.00,0.0111
1260.00,0.0117
1259.00,0.0123
1258.00,0.0130
1257.00,0.0136
1256.00,0.0139
1255.00,0.0136
1254.00,0.0128
1253.00,0.0118
1252.00,0.0108
1251.00,0.0099
1250.00,0.0092
1249.00,0.0086
1248.00,0.0082
1247.00,0.0079
1246.00,0.0078
1245.00,0.0076
1244.00,0.0075
1243.00,0.0074
1242.00,0.0072
1241.00,0.0071
1240.00,0.0070
1239.00,0.0070
1238.00,0.0069
1237.00,0.0069
1236.00,0.0069
1235.00,0.0069
1234.00,0.0069
1233.00,0.0069
1232.00,0.0069
1231.00,0.0069
1230.00,0.0070
1229.00,0.0070
1228.00,0.0071
1227.00,0.0073
1226.00,0.0076
1225.00,0.0078
1224.00,0.0081
1223.00,0.0084
1222.00,0.0087
1221.00,0.0090
1220.00,0.0092
1219.00,0.0093
1218.00,0.0092
1217.00,0.0091
1216.00,0.0089
1215.00,0.0086
1214.00,0.0083
1213.00,0.0080
1212.00,0.0078
1211.00,0.0077
1210.00,0.0075
1209.00,0.0075
1208.00,0.0074
1207.00,0.0073
1206.00,0.0072
1205.00,0.0071
1204.00,0.0070
1203.00,0.0070
1202.00,0.0070
1201.00,0.0070
1200.00,0.0070
1199.00,0.0070
1198.00,0.0070
1197.00,0.0070
1196.00,0.0070
1195.00,0.0071
1194.00,0.0071
1193.00,0.0072
1192.00,0.0072
1191.00,0.0073
1190.00,0.0073
1189.00,0.0073
1188.00,0.0073
1187.00,0.0074
1186.00,0.0075
1185.00,0.0076
1184.00,0.0077
1183.00,0.0078
1182.00,0.0081
1181.00,0.0084
1180.00,0.0088
1179.00,0.0093
1178.00,0.0100
1177.00,0.0109
1176.00,0.0122
1175.00,0.0138
1174.00,0.0160
1173.00,0.0187
1172.00,0.0220
1171.00,0.0258
1170.00,0.0296
1169.00,0.0327
1168.00,0.0346
1167.00,0.0350
1166.00,0.0340
1165.00,0.0320
1164.00,0.0296
1163.00,0.0274
1162.00,0.0254
1161.00,0.0239
1160.00,0.0226
1159.00,0.0216
1158.00,0.0209
1157.00,0.0204
1156.00,0.0201
1155.00,0.0199
1154.00,0.0197
1153.00,0.0193
1152.00,0.0187
1151.00,0.0179
1150.00,0.0169
1149.00,0.0159
1148.00,0.0149
1147.00,0.0140
1146.00,0.0132
1145.00,0.0125
1144.00,0.0118
1143.00,0.0111
1142.00,0.0104
1141.00,0.0098
1140.00,0.0092
1139.00,0.0088
1138.00,0.0084
1137.00,0.0080
1136.00,0.0077
1135.00,0.0075
1134.00,0.0073
1133.00,0.0073
1132.00,0.0072
1131.00,0.0072
1130.00,0.0072
1129.00,0.0071
1128.00,0.0071
1127.00,0.0071
1126.00,0.0072
1125.00,0.0072
1124.00,0.0073
1123.00,0.0074
1122.00,0.0075
1121.00,0.0076
1120.00,0.0077
1119.00,0.0078
1118.00,0.0079
1117.00,0.0079
1116.00,0.0080
1115.00,0.0081
1114.00,0.0083
1113.00,0.0085
1112.00,0.0087
1111.00,0.0090
1110.00,0.0093
1109.00,0.0097
1108.00,0.0102
1107.00,0.0108
1106.00,0.0113
1105.00,0.0119
1104.00,0.0123
1103.00,0.0125
1102.00,0.0125
1101.00,0.0122
1100.00,0.0117
1099.00,0.0112
1098.00,0.0107
1097.00,0.0102
1096.00,0.0098
1095.00,0.0095
1094.00,0.0092
1093.00,0.0090
1092.00,0.0089
1091.00,0.0087
1090.00,0.0086
1089.00,0.0084
1088.00,0.0082
1087.00,0.0081
1086.00,0.0081
1085.00,0.0082
1084.00,0.0082
1083.00,0.0083
1082.00,0.0082
1081.00,0.0081
1080.00,0.0080
1079.00,0.0079
1078.00,0.0078
1077.00,0.0077
1076.00,0.0077
1075.00,0.0077
1074.00,0.0077
1073.00,0.0076
1072.00,0.0075
1071.00,0.0074
1070.00,0.0073
1069.00,0.0074
1068.00,0.0076
1067.00,0.0077
1066.00,0.0079
1065.00,0.0080
1064.00,0.0081
1063.00,0.0082
1062.00,0.0083
1061.00,0.0084
1060.00,0.0084
1059.00,0.0085
1058.00,0.0087
1057.00,0.0088
1056.00,0.0090
1055.00,0.0092
1054.00,0.0095
1053.00,0.0097
1052.00,0.0100
1051.00,0.0103
1050.00,0.0108
1049.00,0.0113
1048.00,0.0119
1047.00,0.0125
1046.00,0.0130
1045.00,0.0133
1044.00,0.0133
1043.00,0.0132
1042.00,0.0129
1041.00,0.0126
1040.00,0.0123
1039.00,0.0120
1038.00,0.0119
1037.00,0.0118
1036.00,0.0118
1035.00,0.0118
1034.00,0.0117
1033.00,0.0116
1032.00,0.0115
1031.00,0.0114
1030.00,0.0115
1029.00,0.0116
1028.00,0.0118
1027.00,0.0120
1026.00,0.0122
1025.00,0.0124
1024.00,0.0126
1023.00,0.0128
1022.00,0.0130
1021.00,0.0132
1020.00,0.0134
1019.00,0.0135
1018.00,0.0136
1017.00,0.0136
1016.00,0.0137
1015.00,0.0137
1014.00,0.0137
1013.00,0.0137
1012.00,0.0137
1011.00,0.0137
1010.00,0.0137
1009.00,0.0139
1008.00,0.0141
1007.00,0.0146
1006.00,0.0155
1005.00,0.0167
1004.00,0.0186
1003.00,0.0212
1002.00,0.0247
1001.00,0.0291
1000.00,0.0339
999.00,0.0380
998.00,0.0402
997.00,0.0395
996.00,0.0363
995.00,0.0316
994.00,0.0266
993.00,0.0223
992.00,0.0190
991.00,0.0166
990.00,0.0150
989.00,0.0138
988.00,0.0130
987.00,0.0125
986.00,0.0124
985.00,0.0125
984.00,0.0129
983.00,0.0136
982.00,0.0147
981.00,0.0162
980.00,0.0184
979.00,0.0214
978.00,0.0252
977.00,0.0298
976.00,0.0350
975.00,0.0401
974.00,0.0441
973.00,0.0459
972.00,0.0447
971.00,0.0405
970.00,0.0346
969.00,0.0284
968.00,0.0232
967.00,0.0192
966.00,0.0164
965.00,0.0144
964.00,0.0129
963.00,0.0119
962.00,0.0110
961.00,0.0104
960.00,0.0098
959.00,0.0094
958.00,0.0090
957.00,0.0087
956.00,0.0084
955.00,0.0083
954.00,0.0082
953.00,0.0081
952.00,0.0079
951.00,0.0078
950.00,0.0077
949.00,0.0077
948.00,0.0076
947.00,0.0076
946.00,0.0077
945.00,0.0079
944.00,0.0082
943.00,0.0085
942.00,0.0088
941.00,0.0090
940.00,0.0090
939.00,0.0088
938.00,0.0084
937.00,0.0079
936.00,0.0074
935.00,0.0069
934.00,0.0065
933.00,0.0063
932.00,0.0061
931.00,0.0061
930.00,0.0060
929.00,0.0060
928.00,0.0059
927.00,0.0059
926.00,0.0059
925.00,0.0059
924.00,0.0059
923.00,0.0059
922.00,0.0059
921.00,0.0060
920.00,0.0060
919.00,0.0061
918.00,0.0061
917.00,0.0060
916.00,0.0061
915.00,0.0061
914.00,0.0063
913.00,0.0065
912.00,0.0066
911.00,0.0067
910.00,0.0068
909.00,0.0069
908.00,0.0071
907.00,0.0075
906.00,0.0082
905.00,0.0092
904.00,0.0105
903.00,0.0121
902.00,0.0139
901.00,0.0156
900.00,0.0168
899.00,0.0171
898.00,0.0163
897.00,0.0148
896.00,0.0130
895.00,0.0113
894.00,0.0100
893.00,0.0090
892.00,0.0084
891.00,0.0079
890.00,0.0077
889.00,0.0075
888.00,0.0075
887.00,0.0074
886.00,0.0073
885.00,0.0072
884.00,0.0070
883.00,0.0069
882.00,0.0068
881.00,0.0068
880.00,0.0069
879.00,0.0071
878.00,0.0072
877.00,0.0073
876.00,0.0073
875.00,0.0074
874.00,0.0074
873.00,0.0075
872.00,0.0075
871.00,0.0075
870.00,0.0076
869.00,0.0076
868.00,0.0076
867.00,0.0077
866.00,0.0077
865.00,0.0077
864.00,0.0078
863.00,0.0079
862.00,0.0080
861.00,0.0081
860.00,0.0082
859.00,0.0082
858.00,0.0083
857.00,0.0085
856.00,0.0088
855.00,0.0091
854.00,0.0095
853.00,0.0098
852.00,0.0101
851.00,0.0104
850.00,0.0109
849.00,0.0117
848.00,0.0127
847.00,0.0143
846.00,0.0166
845.00,0.0202
844.00,0.0253
843.00,0.0315
842.00,0.0371
841.00,0.0393
840.00,0.0371
839.00,0.0315
838.00,0.0250
837.00,0.0197
836.00,0.0163
835.00,0.0143
834.00,0.0132
833.00,0.0124
832.00,0.0118
831.00,0.0113
830.00,0.0110
829.00,0.0108
828.00,0.0106
827.00,0.0105
826.00,0.0103
825.00,0.0102
824.00,0.0102
823.00,0.0103
822.00,0.0105
821.00,0.0107
820.00,0.0109
819.00,0.0111
818.00,0.0115
817.00,0.0121
816.00,0.0129
815.00,0.0140
814.00,0.0153
813.00,0.0168
812.00,0.0185
811.00,0.0202
810.00,0.0215
809.00,0.0221
808.00,0.0218
807.00,0.0207
806.00,0.0190
805.00,0.0172
804.00,0.0156
803.00,0.0143
802.00,0.0134
801.00,0.0127
800.00,0.0121
799.00,0.0117
798.00,0.0113
797.00,0.0109
796.00,0.0105
795.00,0.0100
794.00,0.0095
793.00,0.0091
792.00,0.0088
791.00,0.0086
790.00,0.0084
789.00,0.0081
788.00,0.0077
787.00,0.0072
786.00,0.0069
785.00,0.0068
784.00,0.0066
783.00,0.0065
782.00,0.0063
781.00,0.0061
780.00,0.0060
779.00,0.0059
778.00,0.0059
777.00,0.0058
776.00,0.0057
775.00,0.0058
774.00,0.0059
773.00,0.0060
772.00,0.0060
771.00,0.0060
770.00,0.0059
769.00,0.0059
768.00,0.0059
767.00,0.0059
766.00,0.0059
765.00,0.0059
764.00,0.0060
763.00,0.0060
762.00,0.0061
761.00,0.0061
760.00,0.0062
759.00,0.0063
758.00,0.0064
757.00,0.0065
756.00,0.0067
755.00,0.0068
754.00,0.0069
753.00,0.0070
752.00,0.0070
751.00,0.0070
750.00,0.0070
749.00,0.0070
748.00,0.0071
747.00,0.0073
746.00,0.0076
745.00,0.0079
744.00,0.0081
743.00,0.0084
742.00,0.0086
741.00,0.0088
740.00,0.0091
739.00,0.0094
738.00,0.0099
737.00,0.0103
736.00,0.0107
735.00,0.0111
734.00,0.0114
733.00,0.0118
732.00,0.0124
731.00,0.0131
730.00,0.0137
729.00,0.0141
728.00,0.0144
727.00,0.0145
726.00,0.0147
725.00,0.0150
724.00,0.0154
723.00,0.0160
722.00,0.0165
721.00,0.0168
720.00,0.0167
719.00,0.0161
718.00,0.0150
717.00,0.0139
716.00,0.0128
715.00,0.0120
714.00,0.0115
713.00,0.0112
712.00,0.0110
711.00,0.0107
710.00,0.0103
709.00,0.0100
708.00,0.0097
707.00,0.0095
706.00,0.0095
705.00,0.0095
704.00,0.0095
703.00,0.0096
702.00,0.0095
701.00,0.0093
700.00,0.0090
699.00,0.0087
698.00,0.0086
697.00,0.0085
696.00,0.0085
695.00,0.0084
694.00,0.0084
693.00,0.0085
692.00,0.0086
691.00,0.0087
690.00,0.0088
689.00,0.0088
688.00,0.0087
687.00,0.0086
686.00,0.0084
685.00,0.0083
684.00,0.0083
683.00,0.0084
682.00,0.0085
681.00,0.0086
680.00,0.0086
679.00,0.0086
678.00,0.0086
677.00,0.0087
676.00,0.0087
675.00,0.0088
674.00,0.0088
673.00,0.0089
672.00,0.0091
671.00,0.0093
670.00,0.0096
669.00,0.0097
668.00,0.0096
667.00,0.0093
666.00,0.0089
665.00,0.0086
664.00,0.0085
663.00,0.0084
662.00,0.0084
661.00,0.0083
660.00,0.0082
659.00,0.0080
658.00,0.0077
657.00,0.0074
656.00,0.0073
655.00,0.0073
654.00,0.0075
653.00,0.0076
652.00,0.0075
651.00,0.0074
650.00,0.0073
649.00,0.0073
648.00,0.0074
647.00,0.0075
646.00,0.0077
645.00,0.0079
644.00,0.0080
643.00,0.0080
642.00,0.0080
641.00,0.0079
640.00,0.0078
639.00,0.0077
638.00,0.0077
637.00,0.0078
636.00,0.0079
635.00,0.0079
634.00,0.0079
633.00,0.0079
632.00,0.0079
631.00,0.0079
630.00,0.0078
629.00,0.0076
628.00,0.0075
627.00,0.0076
626.00,0.0079
625.00,0.0082
624.00,0.0083
623.00,0.0082
622.00,0.0080
621.00,0.0078
620.00,0.0077
619.00,0.0078
618.00,0.0079
617.00,0.0078
616.00,0.0077
615.00,0.0077
614.00,0.0078
613.00,0.0080
612.00,0.0080
611.00,0.0080
610.00,0.0080
609.00,0.0080
608.00,0.0082
607.00,0.0083
606.00,0.0084
605.00,0.0083
604.00,0.0081
603.00,0.0077
602.00,0.0074
601.00,0.0073
600.00,0.0073
599.00,0.0074
598.00,0.0076
597.00,0.0078
596.00,0.0077
595.00,0.0073
594.00,0.0070
593.00,0.0068
592.00,0.0069
591.00,0.0072
590.00,0.0073
589.00,0.0073
588.00,0.0072
587.00,0.0072
586.00,0.0074
585.00,0.0077
584.00,0.0081
583.00,0.0083
582.00,0.0084
581.00,0.0083
580.00,0.0081
579.00,0.0079
578.00,0.0079
577.00,0.0081
576.00,0.0083
575.00,0.0085
574.00,0.0084
573.00,0.0080
572.00,0.0077
571.00,0.0074
570.00,0.0073
569.00,0.0073
568.00,0.0073
567.00,0.0073
566.00,0.0073
565.00,0.0074
564.00,0.0076
563.00,0.0079
562.00,0.0082
561.00,0.0083
560.00,0.0084
559.00,0.0084
558.00,0.0084
557.00,0.0083
556.00,0.0082
555.00,0.0082
554.00,0.0082
553.00,0.0082
552.00,0.0082
551.00,0.0084
550.00,0.0086
549.00,0.0088
548.00,0.0087
547.00,0.0084
546.00,0.0082
545.00,0.0085
544.00,0.0090
543.00,0.0095
542.00,0.0098
541.00,0.0097
540.00,0.0097
539.00,0.0098
538.00,0.0101
537.00,0.0105
536.00,0.0109
535.00,0.0111
534.00,0.0112
533.00,0.0112
532.00,0.0112
531.00,0.0111
530.00,0.0108
529.00,0.0104
528.00,0.0100
527.00,0.0098
526.00,0.0096
525.00,0.0096
524.00,0.0095
523.00,0.0093
522.00,0.0090
521.00,0.0088
520.00,0.0086
519.00,0.0085
518.00,0.0085
517.00,0.0085
516.00,0.0085
515.00,0.0084
514.00,0.0084
513.00,0.0084
512.00,0.0085
511.00,0.0086
510.00,0.0084
509.00,0.0078
508.00,0.0070
507.00,0.0066
506.00,0.0069
505.00,0.0078
504.00,0.0087
503.00,0.0093
502.00,0.0095
501.00,0.0094
500.00,0.0092
499.00,0.0089
498.00,0.0086
497.00,0.0083
496.00,0.0082
495.00,0.0082
494.00,0.0083
493.00,0.0083
492.00,0.0084
491.00,0.0086
490.00,0.0087
489.00,0.0084
488.00,0.0079
487.00,0.0075
486.00,0.0075
485.00,0.0080
484.00,0.0088
483.00,0.0096
482.00,0.0102
481.00,0.0102
480.00,0.0098
479.00,0.0095
478.00,0.0097
477.00,0.0103
476.00,0.0108
475.00,0.0109
474.00,0.0105
473.00,0.0101
472.00,0.0099
471.00,0.0100
470.00,0.0105
469.00,0.0117
468.00,0.0138
467.00,0.0162
466.00,0.0179
465.00,0.0184
464.00,0.0182
463.00,0.0184
462.00,0.0195
461.00,0.0211
460.00,0.0224
459.00,0.0227
458.00,0.0221
457.00,0.0212
456.00,0.0207
455.00,0.0204
454.00,0.0196
453.00,0.0177
452.00,0.0155
451.00,0.0140
450.00,0.0136
