Created as New Dataset,Sample 004 By Administrator Date Friday, September 05 2025
cm-1,A
4000.00,0.0016
3999.00,0.0015
3998.00,0.0015
3997.00,0.0015
3996.00,0.0014
3995.00,0.0014
3994.00,0.0014
3993.00,0.0014
3992.00,0.0014
3991.00,0.0014
3990.00,0.0014
3989.00,0.0014
3988.00,0.0014
3987.00,0.0013
3986.00,0.0013
3985.00,0.0013
3984.00,0.0014
3983.00,0.0014
3982.00,0.0014
3981.00,0.0014
3980.00,0.0014
3979.00,0.0013
3978.00,0.0013
3977.00,0.0013
3976.00,0.0013
3975.00,0.0013
3974.00,0.0013
3973.00,0.0013
3972.00,0.0013
3971.00,0.0013
3970.00,0.0013
3969.00,0.0013
3968.00,0.0013
3967.00,0.0013
3966.00,0.0013
3965.00,0.0013
3964.00,0.0013
3963.00,0.0012
3962.00,0.0012
3961.00,0.0012
3960.00,0.0012
3959.00,0.0012
3958.00,0.0013
3957.00,0.0013
3956.00,0.0013
3955.00,0.0013
3954.00,0.0012
3953.00,0.0012
3952.00,0.0013
3951.00,0.0013
3950.00,0.0013
3949.00,0.0013
3948.00,0.0013
3947.00,0.0013
3946.00,0.0013
3945.00,0.0013
3944.00,0.0013
3943.00,0.0013
3942.00,0.0013
3941.00,0.0013
3940.00,0.0013
3939.00,0.0013
3938.00,0.0013
3937.00,0.0013
3936.00,0.0014
3935.00,0.0014
3934.00,0.0014
3933.00,0.0014
3932.00,0.0014
3931.00,0.0013
3930.00,0.0013
3929.00,0.0014
3928.00,0.0014
3927.00,0.0014
3926.00,0.0014
3925.00,0.0014
3924.00,0.0014
3923.00,0.0014
3922.00,0.0014
3921.00,0.0014
3920.00,0.0013
3919.00,0.0013
3918.00,0.0013
3917.00,0.0013
3916.00,0.0013
3915.00,0.0013
3914.00,0.0014
3913.00,0.0014
3912.00,0.0013
3911.00,0.0013
3910.00,0.0013
3909.00,0.0013
3908.00,0.0013
3907.00,0.0013
3906.00,0.0014
3905.00,0.0014
3904.00,0.0015
3903.00,0.0015
3902.00,0.0015
3901.00,0.0015
3900.00,0.0015
3899.00,0.0015
3898.00,0.0015
3897.00,0.0015
3896.00,0.0015
3895.00,0.0015
3894.00,0.0015
3893.00,0.0015
3892.00,0.0014
3891.00,0.0014
3890.00,0.0014
3889.00,0.0014
3888.00,0.0014
3887.00,0.0014
3886.00,0.0014
3885.00,0.0014
3884.00,0.0014
3883.00,0.0015
3882.00,0.0015
3881.00,0.0015
3880.00,0.0015
3879.00,0.0015
3878.00,0.0015
3877.00,0.0015
3876.00,0.0015
3875.00,0.0015
3874.00,0.0015
3873.00,0.0014
3872.00,0.0014
3871.00,0.0014
3870.00,0.0014
3869.00,0.0014
3868.00,0.0014
3867.00,0.0014
3866.00,0.0013
3865.00,0.0013
3864.00,0.0013
3863.00,0.0013
3862.00,0.0013
3861.00,0.0013
3860.00,0.0013
3859.00,0.0014
3858.00,0.0014
3857.00,0.0015
3856.00,0.0016
3855.00,0.0016
3854.00,0.0016
3853.00,0.0015
3852.00,0.0015
3851.00,0.0014
3850.00,0.0014
3849.00,0.0014
3848.00,0.0013
3847.00,0.0013
3846.00,0.0013
3845.00,0.0014
3844.00,0.0014
3843.00,0.0014
3842.00,0.0014
3841.00,0.0014
3840.00,0.0014
3839.00,0.0014
3838.00,0.0014
3837.00,0.0014
3836.00,0.0013
3835.00,0.0013
3834.00,0.0013
3833.00,0.0013
3832.00,0.0013
3831.00,0.0013
3830.00,0.0013
3829.00,0.0013
3828.00,0.0013
3827.00,0.0013
3826.00,0.0013
3825.00,0.0013
3824.00,0.0013
3823.00,0.0013
3822.00,0.0013
3821.00,0.0013
3820.00,0.0013
3819.00,0.0014
3818.00,0.0014
3817.00,0.0014
3816.00,0.0015
3815.00,0.0015
3814.00,0.0014
3813.00,0.0014
3812.00,0.0014
3811.00,0.0014
3810.00,0.0014
3809.00,0.0013
3808.00,0.0013
3807.00,0.0013
3806.00,0.0013
3805.00,0.0013
3804.00,0.0013
3803.00,0.0013
3802.00,0.0013
3801.00,0.0013
3800.00,0.0013
3799.00,0.0013
3798.00,0.0013
3797.00,0.0013
3796.00,0.0014
3795.00,0.0014
3794.00,0.0013
3793.00,0.0013
3792.00,0.0012
3791.00,0.0012
3790.00,0.0012
3789.00,0.0012
3788.00,0.0013
3787.00,0.0013
3786.00,0.0013
3785.00,0.0013
3784.00,0.0013
3783.00,0.0012
3782.00,0.0012
3781.00,0.0013
3780.00,0.0013
3779.00,0.0013
3778.00,0.0013
3777.00,0.0013
3776.00,0.0012
3775.00,0.0012
3774.00,0.0013
3773.00,0.0013
3772.00,0.0013
3771.00,0.0013
3770.00,0.0013
3769.00,0.0013
3768.00,0.0013
3767.00,0.0014
3766.00,0.0014
3765.00,0.0013
3764.00,0.0013
3763.00,0.0013
3762.00,0.0013
3761.00,0.0013
3760.00,0.0014
3759.00,0.0014
3758.00,0.0014
3757.00,0.0014
3756.00,0.0015
3755.00,0.0015
3754.00,0.0015
3753.00,0.0016
3752.00,0.0015
3751.00,0.0015
3750.00,0.0015
3749.00,0.0015
3748.00,0.0015
3747.00,0.0015
3746.00,0.0014
3745.00,0.0014
3744.00,0.0014
3743.00,0.0014
3742.00,0.0014
3741.00,0.0014
3740.00,0.0014
3739.00,0.0014
3738.00,0.0014
3737.00,0.0015
3736.00,0.0015
3735.00,0.0014
3734.00,0.0014
3733.00,0.0014
3732.00,0.0014
3731.00,0.0013
3730.00,0.0013
3729.00,0.0013
3728.00,0.0013
3727.00,0.0013
3726.00,0.0013
3725.00,0.0012
3724.00,0.0012
3723.00,0.0011
3722.00,0.0011
3721.00,0.0011
3720.00,0.0012
3719.00,0.0012
3718.00,0.0012
3717.00,0.0011
3716.00,0.0011
3715.00,0.0011
3714.00,0.0011
3713.00,0.0011
3712.00,0.0012
3711.00,0.0012
3710.00,0.0012
3709.00,0.0011
3708.00,0.0011
3707.00,0.0011
3706.00,0.0010
3705.00,0.0010
3704.00,0.0009
3703.00,0.0009
3702.00,0.0009
3701.00,0.0010
3700.00,0.0010
3699.00,0.0011
3698.00,0.0011
3697.00,0.0011
3696.00,0.0011
3695.00,0.0011
3694.00,0.0011
3693.00,0.0012
3692.00,0.0013
3691.00,0.0013
3690.00,0.0013
3689.00,0.0013
3688.00,0.0012
3687.00,0.0011
3686.00,0.0011
3685.00,0.0011
3684.00,0.0010
3683.00,0.0010
3682.00,0.0010
3681.00,0.0010
3680.00,0.0011
3679.00,0.0011
3678.00,0.0012
3677.00,0.0013
3676.00,0.0013
3675.00,0.0013
3674.00,0.0013
3673.00,0.0012
3672.00,0.0012
3671.00,0.0012
3670.00,0.0011
3669.00,0.0011
3668.00,0.0010
3667.00,0.0010
3666.00,0.0009
3665.00,0.0009
3664.00,0.0009
3663.00,0.0009
3662.00,0.0009
3661.00,0.0009
3660.00,0.0009
3659.00,0.0009
3658.00,0.0009
3657.00,0.0009
3656.00,0.0009
3655.00,0.0009
3654.00,0.0009
3653.00,0.0010
3652.00,0.0010
3651.00,0.0011
3650.00,0.0011
3649.00,0.0011
3648.00,0.0010
3647.00,0.0010
3646.00,0.0010
3645.00,0.0010
3644.00,0.0010
3643.00,0.0009
3642.00,0.0009
3641.00,0.0009
3640.00,0.0009
3639.00,0.0009
3638.00,0.0009
3637.00,0.0010
3636.00,0.0010
3635.00,0.0010
3634.00,0.0009
3633.00,0.0009
3632.00,0.0009
3631.00,0.0009
3630.00,0.0010
3629.00,0.0010
3628.00,0.0010
3627.00,0.0010
3626.00,0.0010
3625.00,0.0009
3624.00,0.0008
3623.00,0.0008
3622.00,0.0008
3621.00,0.0008
3620.00,0.0008
3619.00,0.0009
3618.00,0.0010
3617.00,0.0010
3616.00,0.0010
3615.00,0.0010
3614.00,0.0010
3613.00,0.0010
3612.00,0.0010
3611.00,0.0010
3610.00,0.0011
3609.00,0.0011
3608.00,0.0010
3607.00,0.0010
3606.00,0.0009
3605.00,0.0009
3604.00,0.0008
3603.00,0.0008
3602.00,0.0008
3601.00,0.0008
3600.00,0.0008
3599.00,0.0008
3598.00,0.0008
3597.00,0.0008
3596.00,0.0008
3595.00,0.0008
3594.00,0.0009
3593.00,0.0009
3592.00,0.0009
3591.00,0.0009
3590.00,0.0009
3589.00,0.0009
3588.00,0.0009
3587.00,0.0009
3586.00,0.0010
3585.00,0.0010
3584.00,0.0009
3583.00,0.0009
3582.00,0.0008
3581.00,0.0007
3580.00,0.0007
3579.00,0.0006
3578.00,0.0006
3577.00,0.0006
3576.00,0.0007
3575.00,0.0007
3574.00,0.0008
3573.00,0.0008
3572.00,0.0009
3571.00,0.0009
3570.00,0.0010
3569.00,0.0010
3568.00,0.0010
3567.00,0.0010
3566.00,0.0010
3565.00,0.0010
3564.00,0.0010
3563.00,0.0010
3562.00,0.0009
3561.00,0.0009
3560.00,0.0009
3559.00,0.0009
3558.00,0.0009
3557.00,0.0010
3556.00,0.0010
3555.00,0.0010
3554.00,0.0010
3553.00,0.0010
3552.00,0.0011
3551.00,0.0011
3550.00,0.0011
3549.00,0.0010
3548.00,0.0010
3547.00,0.0010
3546.00,0.0010
3545.00,0.0010
3544.00,0.0011
3543.00,0.0011
3542.00,0.0011
3541.00,0.0011
3540.00,0.0011
3539.00,0.0011
3538.00,0.0011
3537.00,0.0011
3536.00,0.0011
3535.00,0.0011
3534.00,0.0011
3533.00,0.0011
3532.00,0.0012
3531.00,0.0012
3530.00,0.0012
3529.00,0.0011
3528.00,0.0011
3527.00,0.0011
3526.00,0.0011
3525.00,0.0011
3524.00,0.0010
3523.00,0.0010
3522.00,0.0011
3521.00,0.0011
3520.00,0.0011
3519.00,0.0012
3518.00,0.0012
3517.00,0.0012
3516.00,0.0011
3515.00,0.0011
3514.00,0.0011
3513.00,0.0011
3512.00,0.0010
3511.00,0.0011
3510.00,0.0011
3509.00,0.0011
3508.00,0.0012
3507.00,0.0012
3506.00,0.0012
3505.00,0.0012
3504.00,0.0012
3503.00,0.0012
3502.00,0.0012
3501.00,0.0013
3500.00,0.0013
3499.00,0.0013
3498.00,0.0014
3497.00,0.0014
3496.00,0.0013
3495.00,0.0013
3494.00,0.0012
3493.00,0.0012
3492.00,0.0012
3491.00,0.0012
3490.00,0.0012
3489.00,0.0012
3488.00,0.0012
3487.00,0.0013
3486.00,0.0013
3485.00,0.0013
3484.00,0.0013
3483.00,0.0013
3482.00,0.0013
3481.00,0.0013
3480.00,0.0013
3479.00,0.0013
3478.00,0.0013
3477.00,0.0013
3476.00,0.0014
3475.00,0.0014
3474.00,0.0014
3473.00,0.0013
3472.00,0.0013
3471.00,0.0013
3470.00,0.0013
3469.00,0.0014
3468.00,0.0014
3467.00,0.0015
3466.00,0.0015
3465.00,0.0015
3464.00,0.0015
3463.00,0.0015
3462.00,0.0015
3461.00,0.0015
3460.00,0.0015
3459.00,0.0015
3458.00,0.0015
3457.00,0.0015
3456.00,0.0014
3455.00,0.0014
3454.00,0.0014
3453.00,0.0014
3452.00,0.0014
3451.00,0.0014
3450.00,0.0015
3449.00,0.0015
3448.00,0.0015
3447.00,0.0015
3446.00,0.0015
3445.00,0.0016
3444.00,0.0016
3443.00,0.0016
3442.00,0.0016
3441.00,0.0016
3440.00,0.0016
3439.00,0.0016
3438.00,0.0016
3437.00,0.0016
3436.00,0.0016
3435.00,0.0016
3434.00,0.0016
3433.00,0.0016
3432.00,0.0016
3431.00,0.0015
3430.00,0.0015
3429.00,0.0016
3428.00,0.0016
3427.00,0.0016
3426.00,0.0017
3425.00,0.0017
3424.00,0.0017
3423.00,0.0017
3422.00,0.0017
3421.00,0.0017
3420.00,0.0017
3419.00,0.0017
3418.00,0.0017
3417.00,0.0016
3416.00,0.0017
3415.00,0.0017
3414.00,0.0017
3413.00,0.0017
3412.00,0.0018
3411.00,0.0018
3410.00,0.0018
3409.00,0.0018
3408.00,0.0018
3407.00,0.0018
3406.00,0.0018
3405.00,0.0017
3404.00,0.0017
3403.00,0.0017
3402.00,0.0017
3401.00,0.0017
3400.00,0.0017
3399.00,0.0018
3398.00,0.0018
3397.00,0.0017
3396.00,0.0017
3395.00,0.0017
3394.00,0.0017
3393.00,0.0016
3392.00,0.0016
3391.00,0.0016
3390.00,0.0016
3389.00,0.0016
3388.00,0.0016
3387.00,0.0016
3386.00,0.0016
3385.00,0.0016
3384.00,0.0016
3383.00,0.0016
3382.00,0.0017
3381.00,0.0017
3380.00,0.0017
3379.00,0.0017
3378.00,0.0017
3377.00,0.0017
3376.00,0.0017
3375.00,0.0017
3374.00,0.0017
3373.00,0.0017
3372.00,0.0017
3371.00,0.0017
3370.00,0.0017
3369.00,0.0017
3368.00,0.0017
3367.00,0.0017
3366.00,0.0017
3365.00,0.0018
3364.00,0.0018
3363.00,0.0018
3362.00,0.0018
3361.00,0.0018
3360.00,0.0018
3359.00,0.0018
3358.00,0.0018
3357.00,0.0018
3356.00,0.0018
3355.00,0.0018
3354.00,0.0018
3353.00,0.0018
3352.00,0.0018
3351.00,0.0018
3350.00,0.0018
3349.00,0.0018
3348.00,0.0018
3347.00,0.0018
3346.00,0.0018
3345.00,0.0017
3344.00,0.0017
3343.00,0.0017
3342.00,0.0018
3341.00,0.0018
3340.00,0.0018
3339.00,0.0018
3338.00,0.0018
3337.00,0.0018
3336.00,0.0018
3335.00,0.0018
3334.00,0.0018
3333.00,0.0018
3332.00,0.0018
3331.00,0.0017
3330.00,0.0017
3329.00,0.0017
3328.00,0.0017
3327.00,0.0016
3326.00,0.0016
3325.00,0.0016
3324.00,0.0016
3323.00,0.0017
3322.00,0.0017
3321.00,0.0017
3320.00,0.0017
3319.00,0.0017
3318.00,0.0017
3317.00,0.0017
3316.00,0.0017
3315.00,0.0016
3314.00,0.0016
3313.00,0.0017
3312.00,0.0017
3311.00,0.0017
3310.00,0.0017
3309.00,0.0017
3308.00,0.0018
3307.00,0.0018
3306.00,0.0019
3305.00,0.0019
3304.00,0.0020
3303.00,0.0020
3302.00,0.0020
3301.00,0.0019
3300.00,0.0019
3299.00,0.0019
3298.00,0.0019
3297.00,0.0019
3296.00,0.0018
3295.00,0.0018
3294.00,0.0018
3293.00,0.0018
3292.00,0.0018
3291.00,0.0018
3290.00,0.0017
3289.00,0.0017
3288.00,0.0017
3287.00,0.0017
3286.00,0.0017
3285.00,0.0017
3284.00,0.0017
3283.00,0.0017
3282.00,0.0017
3281.00,0.0017
3280.00,0.0017
3279.00,0.0017
3278.00,0.0017
3277.00,0.0017
3276.00,0.0016
3275.00,0.0016
3274.00,0.0016
3273.00,0.0016
3272.00,0.0016
3271.00,0.0017
3270.00,0.0017
3269.00,0.0017
3268.00,0.0017
3267.00,0.0016
3266.00,0.0016
3265.00,0.0016
3264.00,0.0016
3263.00,0.0016
3262.00,0.0016
3261.00,0.0016
3260.00,0.0016
3259.00,0.0016
3258.00,0.0016
3257.00,0.0016
3256.00,0.0015
3255.00,0.0015
3254.00,0.0015
3253.00,0.0015
3252.00,0.0015
3251.00,0.0015
3250.00,0.0015
3249.00,0.0016
3248.00,0.0016
3247.00,0.0016
3246.00,0.0016
3245.00,0.0016
3244.00,0.0016
3243.00,0.0016
3242.00,0.0016
3241.00,0.0016
3240.00,0.0017
3239.00,0.0017
3238.00,0.0017
3237.00,0.0017
3236.00,0.0017
3235.00,0.0017
3234.00,0.0017
3233.00,0.0017
3232.00,0.0017
3231.00,0.0017
3230.00,0.0017
3229.00,0.0017
3228.00,0.0018
3227.00,0.0018
3226.00,0.0018
3225.00,0.0018
3224.00,0.0018
3223.00,0.0019
3222.00,0.0019
3221.00,0.0019
3220.00,0.0019
3219.00,0.0019
3218.00,0.0020
3217.00,0.0020
3216.00,0.0021
3215.00,0.0021
3214.00,0.0021
3213.00,0.0021
3212.00,0.0021
3211.00,0.0021
3210.00,0.0021
3209.00,0.0022
3208.00,0.0022
3207.00,0.0023
3206.00,0.0023
3205.00,0.0023
3204.00,0.0023
3203.00,0.0023
3202.00,0.0023
3201.00,0.0023
3200.00,0.0023
3199.00,0.0024
3198.00,0.0023
3197.00,0.0023
3196.00,0.0023
3195.00,0.0023
3194.00,0.0022
3193.00,0.0022
3192.00,0.0022
3191.00,0.0022
3190.00,0.0022
3189.00,0.0022
3188.00,0.0022
3187.00,0.0022
3186.00,0.0022
3185.00,0.0022
3184.00,0.0022
3183.00,0.0022
3182.00,0.0022
3181.00,0.0022
3180.00,0.0022
3179.00,0.0021
3178.00,0.0021
3177.00,0.0021
3176.00,0.0021
3175.00,0.0021
3174.00,0.0021
3173.00,0.0021
3172.00,0.0021
3171.00,0.0021
3170.00,0.0021
3169.00,0.0020
3168.00,0.0020
3167.00,0.0021
3166.00,0.0021
3165.00,0.0021
3164.00,0.0021
3163.00,0.0021
3162.00,0.0021
3161.00,0.0021
3160.00,0.0021
3159.00,0.0021
3158.00,0.0021
3157.00,0.0021
3156.00,0.0021
3155.00,0.0021
3154.00,0.0021
3153.00,0.0021
3152.00,0.0022
3151.00,0.0022
3150.00,0.0023
3149.00,0.0023
3148.00,0.0023
3147.00,0.0022
3146.00,0.0022
3145.00,0.0022
3144.00,0.0022
3143.00,0.0022
3142.00,0.0022
3141.00,0.0022
3140.00,0.0022
3139.00,0.0022
3138.00,0.0021
3137.00,0.0021
3136.00,0.0021
3135.00,0.0021
3134.00,0.0021
3133.00,0.0021
3132.00,0.0021
3131.00,0.0021
3130.00,0.0021
3129.00,0.0020
3128.00,0.0020
3127.00,0.0020
3126.00,0.0020
3125.00,0.0020
3124.00,0.0020
3123.00,0.0020
3122.00,0.0020
3121.00,0.0020
3120.00,0.0019
3119.00,0.0019
3118.00,0.0019
3117.00,0.0019
3116.00,0.0019
3115.00,0.0019
3114.00,0.0019
3113.00,0.0019
3112.00,0.0018
3111.00,0.0018
3110.00,0.0018
3109.00,0.0018
3108.00,0.0018
3107.00,0.0018
3106.00,0.0018
3105.00,0.0019
3104.00,0.0019
3103.00,0.0019
3102.00,0.0019
3101.00,0.0019
3100.00,0.0019
3099.00,0.0019
3098.00,0.0019
3097.00,0.0019
3096.00,0.0019
3095.00,0.0019
3094.00,0.0019
3093.00,0.0019
3092.00,0.0019
3091.00,0.0019
3090.00,0.0019
3089.00,0.0019
3088.00,0.0019
3087.00,0.0019
3086.00,0.0019
3085.00,0.0019
3084.00,0.0019
3083.00,0.0019
3082.00,0.0019
3081.00,0.0019
3080.00,0.0019
3079.00,0.0019
3078.00,0.0019
3077.00,0.0019
3076.00,0.0020
3075.00,0.0020
3074.00,0.0020
3073.00,0.0021
3072.00,0.0021
3071.00,0.0021
3070.00,0.0021
3069.00,0.0021
3068.00,0.0022
3067.00,0.0022
3066.00,0.0022
3065.00,0.0022
3064.00,0.0022
3063.00,0.0022
3062.00,0.0023
3061.00,0.0023
3060.00,0.0023
3059.00,0.0023
3058.00,0.0023
3057.00,0.0023
3056.00,0.0023
3055.00,0.0023
3054.00,0.0023
3053.00,0.0023
3052.00,0.0023
3051.00,0.0024
3050.00,0.0024
3049.00,0.0024
3048.00,0.0025
3047.00,0.0025
3046.00,0.0025
3045.00,0.0025
3044.00,0.0025
3043.00,0.0025
3042.00,0.0026
3041.00,0.0026
3040.00,0.0027
3039.00,0.0027
3038.00,0.0027
3037.00,0.0027
3036.00,0.0028
3035.00,0.0028
3034.00,0.0028
3033.00,0.0028
3032.00,0.0028
3031.00,0.0029
3030.00,0.0029
3029.00,0.0030
3028.00,0.0030
3027.00,0.0031
3026.00,0.0032
3025.00,0.0032
3024.00,0.0033
3023.00,0.0033
3022.00,0.0034
3021.00,0.0035
3020.00,0.0036
3019.00,0.0036
3018.00,0.0038
3017.00,0.0039
3016.00,0.0040
3015.00,0.0040
3014.00,0.0041
3013.00,0.0042
3012.00,0.0043
3011.00,0.0045
3010.00,0.0046
3009.00,0.0047
3008.00,0.0049
3007.00,0.0050
3006.00,0.0052
3005.00,0.0054
3004.00,0.0056
3003.00,0.0059
3002.00,0.0061
3001.00,0.0063
3000.00,0.0066
2999.00,0.0068
2998.00,0.0071
2997.00,0.0074
2996.00,0.0077
2995.00,0.0082
2994.00,0.0086
2993.00,0.0091
2992.00,0.0096
2991.00,0.0102
2990.00,0.0107
2989.00,0.0114
2988.00,0.0121
2987.00,0.0129
2986.00,0.0138
2985.00,0.0148
2984.00,0.0159
2983.00,0.0172
2982.00,0.0187
2981.00,0.0204
2980.00,0.0223
2979.00,0.0244
2978.00,0.0268
2977.00,0.0296
2976.00,0.0327
2975.00,0.0364
2974.00,0.0404
2973.00,0.0451
2972.00,0.0503
2971.00,0.0561
2970.00,0.0626
2969.00,0.0696
2968.00,0.0771
2967.00,0.0850
2966.00,0.0931
2965.00,0.1010
2964.00,0.1085
2963.00,0.1152
2962.00,0.1208
2961.00,0.1252
2960.00,0.1288
2959.00,0.1322
2958.00,0.1361
2957.00,0.1412
2956.00,0.1482
2955.00,0.1571
2954.00,0.1677
2953.00,0.1790
2952.00,0.1896
2951.00,0.1978
2950.00,0.2017
2949.00,0.2004
2948.00,0.1936
2947.00,0.1823
2946.00,0.1683
2945.00,0.1533
2944.00,0.1392
2943.00,0.1270
2942.00,0.1175
2941.00,0.1109
2940.00,0.1069
2939.00,0.1053
2938.00,0.1059
2937.00,0.1083
2936.00,0.1126
2935.00,0.1184
2934.00,0.1259
2933.00,0.1347
2932.00,0.1449
2931.00,0.1563
2930.00,0.1685
2929.00,0.1814
2928.00,0.1946
2927.00,0.2078
2926.00,0.2207
2925.00,0.2336
2924.00,0.2465
2923.00,0.2596
2922.00,0.2730
2921.00,0.2863
2920.00,0.2986
2919.00,0.3082
2918.00,0.3136
2917.00,0.3135
2916.00,0.3076
2915.00,0.2969
2914.00,0.2833
2913.00,0.2685
2912.00,0.2542
2911.00,0.2411
2910.00,0.2296
2909.00,0.2195
2908.00,0.2103
2907.00,0.2017
2906.00,0.1935
2905.00,0.1855
2904.00,0.1776
2903.00,0.1698
2902.00,0.1624
2901.00,0.1552
2900.00,0.1484
2899.00,0.1420
2898.00,0.1361
2897.00,0.1307
2896.00,0.1258
2895.00,0.1216
2894.00,0.1182
2893.00,0.1154
2892.00,0.1133
2891.00,0.1119
2890.00,0.1110
2889.00,0.1106
2888.00,0.1105
2887.00,0.1108
2886.00,0.1113
2885.00,0.1123
2884.00,0.1136
2883.00,0.1155
2882.00,0.1177
2881.00,0.1202
2880.00,0.1225
2879.00,0.1243
2878.00,0.1253
2877.00,0.1253
2876.00,0.1246
2875.00,0.1237
2874.00,0.1231
2873.00,0.1233
2872.00,0.1244
2871.00,0.1264
2870.00,0.1289
2869.00,0.1314
2868.00,0.1332
2867.00,0.1332
2866.00,0.1308
2865.00,0.1255
2864.00,0.1179
2863.00,0.1089
2862.00,0.0998
2861.00,0.0917
2860.00,0.0851
2859.00,0.0803
2858.00,0.0773
2857.00,0.0758
2856.00,0.0754
2855.00,0.0759
2854.00,0.0772
2853.00,0.0789
2852.00,0.0809
2851.00,0.0829
2850.00,0.0848
2849.00,0.0865
2848.00,0.0883
2847.00,0.0906
2846.00,0.0938
2845.00,0.0980
2844.00,0.1031
2843.00,0.1089
2842.00,0.1147
2841.00,0.1198
2840.00,0.1235
2839.00,0.1249
2838.00,0.1235
2837.00,0.1190
2836.00,0.1117
2835.00,0.1022
2834.00,0.0916
2833.00,0.0808
2832.00,0.0708
2831.00,0.0619
2830.00,0.0544
2829.00,0.0483
2828.00,0.0434
2827.00,0.0394
2826.00,0.0361
2825.00,0.0334
2824.00,0.0311
2823.00,0.0291
2822.00,0.0275
2821.00,0.0260
2820.00,0.0247
2819.00,0.0236
2818.00,0.0227
2817.00,0.0218
2816.00,0.0211
2815.00,0.0204
2814.00,0.0198
2813.00,0.0193
2812.00,0.0187
2811.00,0.0182
2810.00,0.0176
2809.00,0.0170
2808.00,0.0163
2807.00,0.0156
2806.00,0.0149
2805.00,0.0143
2804.00,0.0136
2803.00,0.0130
2802.00,0.0125
2801.00,0.0120
2800.00,0.0116
2799.00,0.0113
2798.00,0.0110
2797.00,0.0108
2796.00,0.0105
2795.00,0.0103
2794.00,0.0100
2793.00,0.0097
2792.00,0.0095
2791.00,0.0092
2790.00,0.0089
2789.00,0.0086
2788.00,0.0083
2787.00,0.0080
2786.00,0.0078
2785.00,0.0075
2784.00,0.0073
2783.00,0.0072
2782.00,0.0070
2781.00,0.0068
2780.00,0.0067
2779.00,0.0065
2778.00,0.0063
2777.00,0.0062
2776.00,0.0060
2775.00,0.0058
2774.00,0.0057
2773.00,0.0056
2772.00,0.0056
2771.00,0.0056
2770.00,0.0055
2769.00,0.0055
2768.00,0.0055
2767.00,0.0055
2766.00,0.0054
2765.00,0.0054
2764.00,0.0054
2763.00,0.0053
2762.00,0.0053
2761.00,0.0053
2760.00,0.0052
2759.00,0.0052
2758.00,0.0051
2757.00,0.0051
2756.00,0.0051
2755.00,0.0052
2754.00,0.0052
2753.00,0.0052
2752.00,0.0052
2751.00,0.0051
2750.00,0.0051
2749.00,0.0051
2748.00,0.0051
2747.00,0.0051
2746.00,0.0051
2745.00,0.0052
2744.00,0.0052
2743.00,0.0053
2742.00,0.0054
2741.00,0.0055
2740.00,0.0056
2739.00,0.0057
2738.00,0.0059
2737.00,0.0060
2736.00,0.0062
2735.00,0.0064
2734.00,0.0066
2733.00,0.0068
2732.00,0.0070
2731.00,0.0072
2730.00,0.0074
2729.00,0.0076
2728.00,0.0079
2727.00,0.0082
2726.00,0.0085
2725.00,0.0088
2724.00,0.0090
2723.00,0.0091
2722.00,0.0090
2721.00,0.0088
2720.00,0.0085
2719.00,0.0082
2718.00,0.0079
2717.00,0.0075
2716.00,0.0072
2715.00,0.0069
2714.00,0.0066
2713.00,0.0064
2712.00,0.0062
2711.00,0.0060
2710.00,0.0058
2709.00,0.0056
2708.00,0.0055
2707.00,0.0053
2706.00,0.0052
2705.00,0.0050
2704.00,0.0049
2703.00,0.0048
2702.00,0.0047
2701.00,0.0046
2700.00,0.0046
2699.00,0.0045
2698.00,0.0045
2697.00,0.0045
2696.00,0.0045
2695.00,0.0045
2694.00,0.0045
2693.00,0.0045
2692.00,0.0045
2691.00,0.0045
2690.00,0.0045
2689.00,0.0045
2688.00,0.0045
2687.00,0.0045
2686.00,0.0045
2685.00,0.0045
2684.00,0.0044
2683.00,0.0044
2682.00,0.0044
2681.00,0.0045
2680.00,0.0045
2679.00,0.0045
2678.00,0.0045
2677.00,0.0045
2676.00,0.0046
2675.00,0.0046
2674.00,0.0046
2673.00,0.0045
2672.00,0.0045
2671.00,0.0045
2670.00,0.0045
2669.00,0.0044
2668.00,0.0044
2667.00,0.0045
2666.00,0.0045
2665.00,0.0046
2664.00,0.0047
2663.00,0.0048
2662.00,0.0048
2661.00,0.0049
2660.00,0.0049
2659.00,0.0049
2658.00,0.0049
2657.00,0.0049
2656.00,0.0049
2655.00,0.0048
2654.00,0.0047
2653.00,0.0047
2652.00,0.0046
2651.00,0.0046
2650.00,0.0045
2649.00,0.0044
2648.00,0.0043
2647.00,0.0043
2646.00,0.0042
2645.00,0.0042
2644.00,0.0042
2643.00,0.0041
2642.00,0.0041
2641.00,0.0040
2640.00,0.0040
2639.00,0.0039
2638.00,0.0039
2637.00,0.0039
2636.00,0.0039
2635.00,0.0039
2634.00,0.0039
2633.00,0.0040
2632.00,0.0040
2631.00,0.0040
2630.00,0.0040
2629.00,0.0040
2628.00,0.0040
2627.00,0.0040
2626.00,0.0040
2625.00,0.0040
2624.00,0.0040
2623.00,0.0041
2622.00,0.0042
2621.00,0.0042
2620.00,0.0042
2619.00,0.0042
2618.00,0.0042
2617.00,0.0042
2616.00,0.0042
2615.00,0.0042
2614.00,0.0042
2613.00,0.0042
2612.00,0.0041
2611.00,0.0040
2610.00,0.0039
2609.00,0.0038
2608.00,0.0037
2607.00,0.0037
2606.00,0.0036
2605.00,0.0035
2604.00,0.0034
2603.00,0.0034
2602.00,0.0033
2601.00,0.0033
2600.00,0.0033
2599.00,0.0033
2598.00,0.0033
2597.00,0.0033
2596.00,0.0032
2595.00,0.0032
2594.00,0.0032
2593.00,0.0033
2592.00,0.0033
2591.00,0.0035
2590.00,0.0036
2589.00,0.0037
2588.00,0.0038
2587.00,0.0038
2586.00,0.0039
2585.00,0.0040
2584.00,0.0040
2583.00,0.0041
2582.00,0.0042
2581.00,0.0042
2580.00,0.0041
2579.00,0.0040
2578.00,0.0039
2577.00,0.0038
2576.00,0.0036
2575.00,0.0034
2574.00,0.0033
2573.00,0.0032
2572.00,0.0031
2571.00,0.0030
2570.00,0.0029
2569.00,0.0028
2568.00,0.0027
2567.00,0.0027
2566.00,0.0026
2565.00,0.0026
2564.00,0.0026
2563.00,0.0026
2562.00,0.0026
2561.00,0.0025
2560.00,0.0024
2559.00,0.0023
2558.00,0.0023
2557.00,0.0024
2556.00,0.0024
2555.00,0.0023
2554.00,0.0023
2553.00,0.0022
2552.00,0.0022
2551.00,0.0022
2550.00,0.0022
2549.00,0.0023
2548.00,0.0022
2547.00,0.0022
2546.00,0.0021
2545.00,0.0020
2544.00,0.0019
2543.00,0.0018
2542.00,0.0017
2541.00,0.0017
2540.00,0.0018
2539.00,0.0018
2538.00,0.0018
2537.00,0.0018
2536.00,0.0018
2535.00,0.0018
2534.00,0.0017
2533.00,0.0017
2532.00,0.0017
2531.00,0.0016
2530.00,0.0016
2529.00,0.0015
2528.00,0.0015
2527.00,0.0015
2526.00,0.0015
2525.00,0.0015
2524.00,0.0015
2523.00,0.0015
2522.00,0.0014
2521.00,0.0014
2520.00,0.0014
2519.00,0.0014
2518.00,0.0013
2517.00,0.0013
2516.00,0.0012
2515.00,0.0012
2514.00,0.0012
2513.00,0.0012
2512.00,0.0012
2511.00,0.0012
2510.00,0.0012
2509.00,0.0012
2508.00,0.0012
2507.00,0.0012
2506.00,0.0012
2505.00,0.0011
2504.00,0.0011
2503.00,0.0011
2502.00,0.0011
2501.00,0.0010
2500.00,0.0010
2499.00,0.0011
2498.00,0.0011
2497.00,0.0012
2496.00,0.0012
2495.00,0.0012
2494.00,0.0011
2493.00,0.0011
2492.00,0.0011
2491.00,0.0011
2490.00,0.0011
2489.00,0.0011
2488.00,0.0011
2487.00,0.0010
2486.00,0.0010
2485.00,0.0010
2484.00,0.0010
2483.00,0.0010
2482.00,0.0011
2481.00,0.0011
2480.00,0.0011
2479.00,0.0011
2478.00,0.0010
2477.00,0.0010
2476.00,0.0010
2475.00,0.0010
2474.00,0.0010
2473.00,0.0010
2472.00,0.0010
2471.00,0.0010
2470.00,0.0009
2469.00,0.0009
2468.00,0.0009
2467.00,0.0009
2466.00,0.0009
2465.00,0.0010
2464.00,0.0011
2463.00,0.0011
2462.00,0.0011
2461.00,0.0011
2460.00,0.0011
2459.00,0.0011
2458.00,0.0011
2457.00,0.0011
2456.00,0.0012
2455.00,0.0012
2454.00,0.0012
2453.00,0.0012
2452.00,0.0012
2451.00,0.0011
2450.00,0.0011
2449.00,0.0010
2448.00,0.0010
2447.00,0.0010
2446.00,0.0010
2445.00,0.0011
2444.00,0.0012
2443.00,0.0012
2442.00,0.0012
2441.00,0.0011
2440.00,0.0011
2439.00,0.0011
2438.00,0.0012
2437.00,0.0012
2436.00,0.0012
2435.00,0.0013
2434.00,0.0013
2433.00,0.0014
2432.00,0.0014
2431.00,0.0014
2430.00,0.0013
2429.00,0.0013
2428.00,0.0013
2427.00,0.0012
2426.00,0.0012
2425.00,0.0012
2424.00,0.0012
2423.00,0.0011
2422.00,0.0010
2421.00,0.0010
2420.00,0.0009
2419.00,0.0009
2418.00,0.0009
2417.00,0.0009
2416.00,0.0009
2415.00,0.0009
2414.00,0.0009
2413.00,0.0010
2412.00,0.0011
2411.00,0.0011
2410.00,0.0011
2409.00,0.0011
2408.00,0.0010
2407.00,0.0009
2406.00,0.0009
2405.00,0.0009
2404.00,0.0009
2403.00,0.0009
2402.00,0.0009
2401.00,0.0009
2400.00,0.0009
2399.00,0.0009
2398.00,0.0009
2397.00,0.0010
2396.00,0.0010
2395.00,0.0009
2394.00,0.0009
2393.00,0.0008
2392.00,0.0008
2391.00,0.0008
2390.00,0.0009
2389.00,0.0009
2388.00,0.0009
2387.00,0.0009
2386.00,0.0008
2385.00,0.0007
2384.00,0.0006
2383.00,0.0005
2382.00,0.0005
2381.00,0.0004
2380.00,0.0003
2379.00,0.0002
2378.00,0.0002
2377.00,0.0002
2376.00,0.0002
2375.00,0.0002
2374.00,0.0001
2373.00,0.0001
2372.00,0.0001
2371.00,0.0000
2370.00,-0.0000
2369.00,-0.0000
2368.00,-0.0000
2367.00,0.0000
2366.00,0.0000
2365.00,0.0001
2364.00,0.0001
2363.00,0.0002
2362.00,0.0002
2361.00,0.0002
2360.00,0.0001
2359.00,0.0001
2358.00,0.0001
2357.00,0.0001
2356.00,0.0001
2355.00,0.0002
2354.00,0.0002
2353.00,0.0003
2352.00,0.0003
2351.00,0.0002
2350.00,0.0002
2349.00,0.0002
2348.00,0.0002
2347.00,0.0003
2346.00,0.0003
2345.00,0.0003
2344.00,0.0003
2343.00,0.0003
2342.00,0.0003
2341.00,0.0003
2340.00,0.0003
2339.00,0.0004
2338.00,0.0005
2337.00,0.0005
2336.00,0.0005
2335.00,0.0006
2334.00,0.0006
2333.00,0.0006
2332.00,0.0006
2331.00,0.0006
2330.00,0.0006
2329.00,0.0006
2328.00,0.0007
2327.00,0.0010
2326.00,0.0013
2325.00,0.0017
2324.00,0.0018
2323.00,0.0017
2322.00,0.0015
2321.00,0.0013
2320.00,0.0011
2319.00,0.0009
2318.00,0.0009
2317.00,0.0008
2316.00,0.0008
2315.00,0.0008
2314.00,0.0008
2313.00,0.0007
2312.00,0.0007
2311.00,0.0006
2310.00,0.0005
2309.00,0.0004
2308.00,0.0004
2307.00,0.0005
2306.00,0.0006
2305.00,0.0007
2304.00,0.0007
2303.00,0.0007
2302.00,0.0007
2301.00,0.0007
2300.00,0.0008
2299.00,0.0008
2298.00,0.0008
2297.00,0.0009
2296.00,0.0011
2295.00,0.0011
2294.00,0.0012
2293.00,0.0013
2292.00,0.0013
2291.00,0.0014
2290.00,0.0015
2289.00,0.0016
2288.00,0.0017
2287.00,0.0018
2286.00,0.0019
2285.00,0.0019
2284.00,0.0018
2283.00,0.0018
2282.00,0.0017
2281.00,0.0016
2280.00,0.0016
2279.00,0.0015
2278.00,0.0015
2277.00,0.0015
2276.00,0.0015
2275.00,0.0014
2274.00,0.0014
2273.00,0.0014
2272.00,0.0013
2271.00,0.0013
2270.00,0.0013
2269.00,0.0014
2268.00,0.0014
2267.00,0.0014
2266.00,0.0013
2265.00,0.0012
2264.00,0.0011
2263.00,0.0010
2262.00,0.0010
2261.00,0.0009
2260.00,0.0010
2259.00,0.0012
2258.00,0.0013
2257.00,0.0014
2256.00,0.0012
2255.00,0.0010
2254.00,0.0008
2253.00,0.0008
2252.00,0.0009
2251.00,0.0010
2250.00,0.0011
2249.00,0.0011
2248.00,0.0010
2247.00,0.0009
2246.00,0.0008
2245.00,0.0007
2244.00,0.0005
2243.00,0.0004
2242.00,0.0005
2241.00,0.0006
2240.00,0.0008
2239.00,0.0008
2238.00,0.0008
2237.00,0.0009
2236.00,0.0010
2235.00,0.0010
2234.00,0.0011
2233.00,0.0010
2232.00,0.0010
2231.00,0.0008
2230.00,0.0008
2229.00,0.0009
2228.00,0.0011
2227.00,0.0011
2226.00,0.0010
2225.00,0.0009
2224.00,0.0009
2223.00,0.0009
2222.00,0.0008
2221.00,0.0007
2220.00,0.0006
2219.00,0.0005
2218.00,0.0005
2217.00,0.0005
2216.00,0.0005
2215.00,0.0005
2214.00,0.0005
2213.00,0.0005
2212.00,0.0005
2211.00,0.0005
2210.00,0.0005
2209.00,0.0004
2208.00,0.0003
2207.00,0.0002
2206.00,0.0003
2205.00,0.0004
2204.00,0.0006
2203.00,0.0008
2202.00,0.0009
2201.00,0.0008
2200.00,0.0007
2199.00,0.0005
2198.00,0.0004
2197.00,0.0004
2196.00,0.0005
2195.00,0.0007
2194.00,0.0009
2193.00,0.0011
2192.00,0.0010
2191.00,0.0008
2190.00,0.0007
2189.00,0.0008
2188.00,0.0011
2187.00,0.0014
2186.00,0.0015
2185.00,0.0014
2184.00,0.0010
2183.00,0.0007
2182.00,0.0005
2181.00,0.0004
2180.00,0.0005
2179.00,0.0007
2178.00,0.0008
2177.00,0.0008
2176.00,0.0005
2175.00,0.0002
2174.00,0.0001
2173.00,0.0002
2172.00,0.0003
2171.00,0.0004
2170.00,0.0005
2169.00,0.0007
2168.00,0.0012
2167.00,0.0017
2166.00,0.0022
2165.00,0.0024
2164.00,0.0025
2163.00,0.0023
2162.00,0.0020
2161.00,0.0012
2160.00,-0.0002
2159.00,-0.0017
2158.00,-0.0028
2157.00,-0.0033
2156.00,-0.0034
2155.00,-0.0031
2154.00,-0.0028
2153.00,-0.0023
2152.00,-0.0018
2151.00,-0.0015
2150.00,-0.0014
2149.00,-0.0012
2148.00,-0.0012
2147.00,-0.0012
2146.00,-0.0013
2145.00,-0.0014
2144.00,-0.0015
2143.00,-0.0015
2142.00,-0.0013
2141.00,-0.0010
2140.00,-0.0008
2139.00,-0.0007
2138.00,-0.0009
2137.00,-0.0012
2136.00,-0.0016
2135.00,-0.0019
2134.00,-0.0020
2133.00,-0.0020
2132.00,-0.0019
2131.00,-0.0017
2130.00,-0.0015
2129.00,-0.0012
2128.00,-0.0010
2127.00,-0.0009
2126.00,-0.0008
2125.00,-0.0007
2124.00,-0.0006
2123.00,-0.0005
2122.00,-0.0004
2121.00,-0.0003
2120.00,-0.0002
2119.00,-0.0001
2118.00,-0.0000
2117.00,0.0001
2116.00,0.0001
2115.00,0.0002
2114.00,0.0002
2113.00,0.0002
2112.00,0.0002
2111.00,0.0001
2110.00,-0.0000
2109.00,-0.0001
2108.00,-0.0002
2107.00,-0.0002
2106.00,-0.0002
2105.00,-0.0002
2104.00,-0.0001
2103.00,-0.0001
2102.00,-0.0001
2101.00,-0.0001
2100.00,-0.0000
2099.00,0.0000
2098.00,0.0000
2097.00,-0.0001
2096.00,-0.0003
2095.00,-0.0004
2094.00,-0.0003
2093.00,-0.0002
2092.00,-0.0000
2091.00,0.0001
2090.00,0.0001
2089.00,0.0001
2088.00,0.0000
2087.00,-0.0000
2086.00,-0.0000
2085.00,-0.0000
2084.00,0.0000
2083.00,0.0001
2082.00,0.0000
2081.00,0.0000
2080.00,0.0001
2079.00,0.0002
2078.00,0.0002
2077.00,0.0003
2076.00,0.0002
2075.00,0.0002
2074.00,0.0001
2073.00,0.0002
2072.00,0.0002
2071.00,0.0002
2070.00,0.0002
2069.00,0.0001
2068.00,0.0001
2067.00,0.0001
2066.00,0.0000
2065.00,-0.0000
2064.00,-0.0001
2063.00,-0.0001
2062.00,-0.0001
2061.00,-0.0001
2060.00,-0.0001
2059.00,-0.0001
2058.00,-0.0000
2057.00,0.0001
2056.00,0.0001
2055.00,0.0002
2054.00,0.0004
2053.00,0.0008
2052.00,0.0013
2051.00,0.0015
2050.00,0.0013
2049.00,0.0009
2048.00,0.0005
2047.00,0.0002
2046.00,-0.0001
2045.00,-0.0002
2044.00,-0.0003
2043.00,-0.0003
2042.00,-0.0003
2041.00,-0.0002
2040.00,-0.0002
2039.00,-0.0001
2038.00,0.0001
2037.00,0.0002
2036.00,0.0002
2035.00,-0.0001
2034.00,-0.0005
2033.00,-0.0009
2032.00,-0.0012
2031.00,-0.0014
2030.00,-0.0013
2029.00,-0.0010
2028.00,-0.0006
2027.00,-0.0005
2026.00,-0.0007
2025.00,-0.0010
2024.00,-0.0013
2023.00,-0.0015
2022.00,-0.0015
2021.00,-0.0013
2020.00,-0.0011
2019.00,-0.0009
2018.00,-0.0010
2017.00,-0.0010
2016.00,-0.0011
2015.00,-0.0011
2014.00,-0.0008
2013.00,-0.0005
2012.00,-0.0002
2011.00,-0.0002
2010.00,-0.0004
2009.00,-0.0007
2008.00,-0.0010
2007.00,-0.0012
2006.00,-0.0011
2005.00,-0.0011
2004.00,-0.0011
2003.00,-0.0014
2002.00,-0.0018
2001.00,-0.0019
2000.00,-0.0017
1999.00,-0.0013
1998.00,-0.0011
1997.00,-0.0011
1996.00,-0.0011
1995.00,-0.0011
1994.00,-0.0010
1993.00,-0.0008
1992.00,-0.0008
1991.00,-0.0008
1990.00,-0.0008
1989.00,-0.0009
1988.00,-0.0009
1987.00,-0.0007
1986.00,-0.0005
1985.00,-0.0003
1984.00,-0.0001
1983.00,0.0001
1982.00,0.0004
1981.00,0.0007
1980.00,0.0008
1979.00,0.0005
1978.00,-0.0001
1977.00,-0.0009
1976.00,-0.0015
1975.00,-0.0018
1974.00,-0.0019
1973.00,-0.0018
1972.00,-0.0017
1971.00,-0.0015
1970.00,-0.0013
1969.00,-0.0012
1968.00,-0.0012
1967.00,-0.0013
1966.00,-0.0014
1965.00,-0.0015
1964.00,-0.0016
1963.00,-0.0017
1962.00,-0.0018
1961.00,-0.0018
1960.00,-0.0018
1959.00,-0.0018
1958.00,-0.0018
1957.00,-0.0016
1956.00,-0.0013
1955.00,-0.0011
1954.00,-0.0010
1953.00,-0.0010
1952.00,-0.0011
1951.00,-0.0012
1950.00,-0.0012
1949.00,-0.0013
1948.00,-0.0013
1947.00,-0.0015
1946.00,-0.0016
1945.00,-0.0016
1944.00,-0.0016
1943.00,-0.0014
1942.00,-0.0013
1941.00,-0.0011
1940.00,-0.0010
1939.00,-0.0010
1938.00,-0.0011
1937.00,-0.0011
1936.00,-0.0011
1935.00,-0.0011
1934.00,-0.0010
1933.00,-0.0009
1932.00,-0.0008
1931.00,-0.0007
1930.00,-0.0007
1929.00,-0.0007
1928.00,-0.0007
1927.00,-0.0008
1926.00,-0.0007
1925.00,-0.0007
1924.00,-0.0006
1923.00,-0.0006
1922.00,-0.0007
1921.00,-0.0007
1920.00,-0.0006
1919.00,-0.0005
1918.00,-0.0005
1917.00,-0.0005
1916.00,-0.0006
1915.00,-0.0008
1914.00,-0.0008
1913.00,-0.0007
1912.00,-0.0005
1911.00,-0.0004
1910.00,-0.0003
1909.00,-0.0002
1908.00,-0.0002
1907.00,-0.0003
1906.00,-0.0003
1905.00,-0.0003
1904.00,-0.0003
1903.00,-0.0002
1902.00,-0.0002
1901.00,-0.0002
1900.00,-0.0002
1899.00,-0.0002
1898.00,-0.0002
1897.00,-0.0002
1896.00,-0.0002
1895.00,-0.0003
1894.00,-0.0003
1893.00,-0.0003
1892.00,-0.0003
1891.00,-0.0003
1890.00,-0.0002
1889.00,-0.0002
1888.00,-0.0002
1887.00,-0.0001
1886.00,-0.0001
1885.00,-0.0001
1884.00,-0.0000
1883.00,-0.0000
1882.00,-0.0001
1881.00,-0.0002
1880.00,-0.0003
1879.00,-0.0004
1878.00,-0.0004
1877.00,-0.0004
1876.00,-0.0003
1875.00,-0.0001
1874.00,-0.0000
1873.00,-0.0000
1872.00,-0.0001
1871.00,-0.0001
1870.00,-0.0002
1869.00,-0.0002
1868.00,-0.0001
1867.00,-0.0001
1866.00,-0.0001
1865.00,-0.0001
1864.00,-0.0001
1863.00,-0.0000
1862.00,0.0000
1861.00,-0.0000
1860.00,-0.0000
1859.00,-0.0000
1858.00,-0.0000
1857.00,-0.0000
1856.00,0.0000
1855.00,0.0001
1854.00,0.0001
1853.00,0.0001
1852.00,0.0001
1851.00,0.0001
1850.00,0.0001
1849.00,0.0000
1848.00,-0.0000
1847.00,-0.0001
1846.00,-0.0002
1845.00,-0.0002
1844.00,-0.0002
1843.00,-0.0001
1842.00,-0.0000
1841.00,-0.0000
1840.00,-0.0000
1839.00,-0.0000
1838.00,0.0001
1837.00,0.0001
1836.00,0.0002
1835.00,0.0002
1834.00,0.0002
1833.00,0.0002
1832.00,0.0003
1831.00,0.0003
1830.00,0.0003
1829.00,0.0003
1828.00,0.0003
1827.00,0.0002
1826.00,0.0003
1825.00,0.0003
1824.00,0.0004
1823.00,0.0003
1822.00,0.0003
1821.00,0.0002
1820.00,0.0002
1819.00,0.0001
1818.00,0.0000
1817.00,-0.0000
1816.00,-0.0000
1815.00,0.0000
1814.00,0.0000
1813.00,0.0001
1812.00,0.0001
1811.00,0.0001
1810.00,0.0001
1809.00,0.0002
1808.00,0.0002
1807.00,0.0002
1806.00,0.0002
1805.00,0.0003
1804.00,0.0004
1803.00,0.0004
1802.00,0.0004
1801.00,0.0004
1800.00,0.0004
1799.00,0.0004
1798.00,0.0004
1797.00,0.0004
1796.00,0.0004
1795.00,0.0004
1794.00,0.0004
1793.00,0.0005
1792.00,0.0005
1791.00,0.0005
1790.00,0.0006
1789.00,0.0006
1788.00,0.0006
1787.00,0.0006
1786.00,0.0006
1785.00,0.0007
1784.00,0.0007
1783.00,0.0007
1782.00,0.0006
1781.00,0.0006
1780.00,0.0007
1779.00,0.0007
1778.00,0.0007
1777.00,0.0007
1776.00,0.0007
1775.00,0.0007
1774.00,0.0007
1773.00,0.0007
1772.00,0.0007
1771.00,0.0007
1770.00,0.0007
1769.00,0.0007
1768.00,0.0007
1767.00,0.0007
1766.00,0.0007
1765.00,0.0007
1764.00,0.0007
1763.00,0.0008
1762.00,0.0009
1761.00,0.0010
1760.00,0.0010
1759.00,0.0010
1758.00,0.0010
1757.00,0.0011
1756.00,0.0011
1755.00,0.0011
1754.00,0.0011
1753.00,0.0011
1752.00,0.0012
1751.00,0.0012
1750.00,0.0012
1749.00,0.0012
1748.00,0.0012
1747.00,0.0013
1746.00,0.0013
1745.00,0.0014
1744.00,0.0015
1743.00,0.0015
1742.00,0.0015
1741.00,0.0015
1740.00,0.0014
1739.00,0.0014
1738.00,0.0015
1737.00,0.0015
1736.00,0.0015
1735.00,0.0015
1734.00,0.0015
1733.00,0.0016
1732.00,0.0017
1731.00,0.0017
1730.00,0.0017
1729.00,0.0017
1728.00,0.0017
1727.00,0.0018
1726.00,0.0018
1725.00,0.0019
1724.00,0.0019
1723.00,0.0020
1722.00,0.0019
1721.00,0.0019
1720.00,0.0019
1719.00,0.0020
1718.00,0.0020
1717.00,0.0020
1716.00,0.0019
1715.00,0.0018
1714.00,0.0018
1713.00,0.0017
1712.00,0.0017
1711.00,0.0017
1710.00,0.0018
1709.00,0.0018
1708.00,0.0019
1707.00,0.0019
1706.00,0.0019
1705.00,0.0019
1704.00,0.0019
1703.00,0.0019
1702.00,0.0018
1701.00,0.0018
1700.00,0.0019
1699.00,0.0019
1698.00,0.0019
1697.00,0.0019
1696.00,0.0019
1695.00,0.0019
1694.00,0.0020
1693.00,0.0020
1692.00,0.0020
1691.00,0.0020
1690.00,0.0020
1689.00,0.0020
1688.00,0.0020
1687.00,0.0021
1686.00,0.0021
1685.00,0.0021
1684.00,0.0021
1683.00,0.0021
1682.00,0.0021
1681.00,0.0021
1680.00,0.0022
1679.00,0.0022
1678.00,0.0022
1677.00,0.0021
1676.00,0.0021
1675.00,0.0020
1674.00,0.0020
1673.00,0.0020
1672.00,0.0021
1671.00,0.0021
1670.00,0.0021
1669.00,0.0022
1668.00,0.0022
1667.00,0.0022
1666.00,0.0023
1665.00,0.0023
1664.00,0.0023
1663.00,0.0023
1662.00,0.0022
1661.00,0.0022
1660.00,0.0023
1659.00,0.0023
1658.00,0.0023
1657.00,0.0024
1656.00,0.0024
1655.00,0.0025
1654.00,0.0024
1653.00,0.0024
1652.00,0.0025
1651.00,0.0026
1650.00,0.0026
1649.00,0.0026
1648.00,0.0026
1647.00,0.0026
1646.00,0.0026
1645.00,0.0027
1644.00,0.0027
1643.00,0.0028
1642.00,0.0029
1641.00,0.0029
1640.00,0.0030
1639.00,0.0031
1638.00,0.0031
1637.00,0.0031
1636.00,0.0031
1635.00,0.0031
1634.00,0.0031
1633.00,0.0031
1632.00,0.0030
1631.00,0.0030
1630.00,0.0029
1629.00,0.0029
1628.00,0.0029
1627.00,0.0028
1626.00,0.0028
1625.00,0.0027
1624.00,0.0027
1623.00,0.0027
1622.00,0.0026
1621.00,0.0026
1620.00,0.0026
1619.00,0.0026
1618.00,0.0026
1617.00,0.0026
1616.00,0.0026
1615.00,0.0026
1614.00,0.0025
1613.00,0.0025
1612.00,0.0026
1611.00,0.0026
1610.00,0.0026
1609.00,0.0026
1608.00,0.0026
1607.00,0.0026
1606.00,0.0025
1605.00,0.0026
1604.00,0.0026
1603.00,0.0027
1602.00,0.0027
1601.00,0.0027
1600.00,0.0026
1599.00,0.0026
1598.00,0.0025
1597.00,0.0024
1596.00,0.0024
1595.00,0.0025
1594.00,0.0025
1593.00,0.0025
1592.00,0.0025
1591.00,0.0026
1590.00,0.0026
1589.00,0.0026
1588.00,0.0027
1587.00,0.0027
1586.00,0.0027
1585.00,0.0027
1584.00,0.0027
1583.00,0.0027
1582.00,0.0027
1581.00,0.0028
1580.00,0.0028
1579.00,0.0029
1578.00,0.0030
1577.00,0.0030
1576.00,0.0030
1575.00,0.0030
1574.00,0.0030
1573.00,0.0030
1572.00,0.0031
1571.00,0.0031
1570.00,0.0032
1569.00,0.0032
1568.00,0.0033
1567.00,0.0033
1566.00,0.0033
1565.00,0.0033
1564.00,0.0033
1563.00,0.0033
1562.00,0.0033
1561.00,0.0033
1560.00,0.0033
1559.00,0.0031
1558.00,0.0030
1557.00,0.0031
1556.00,0.0032
1555.00,0.0033
1554.00,0.0034
1553.00,0.0034
1552.00,0.0034
1551.00,0.0033
1550.00,0.0032
1549.00,0.0032
1548.00,0.0033
1547.00,0.0033
1546.00,0.0034
1545.00,0.0035
1544.00,0.0035
1543.00,0.0036
1542.00,0.0036
1541.00,0.0036
1540.00,0.0036
1539.00,0.0036
1538.00,0.0036
1537.00,0.0036
1536.00,0.0036
1535.00,0.0036
1534.00,0.0035
1533.00,0.0035
1532.00,0.0036
1531.00,0.0036
1530.00,0.0036
1529.00,0.0037
1528.00,0.0037
1527.00,0.0038
1526.00,0.0038
1525.00,0.0038
1524.00,0.0039
1523.00,0.0039
1522.00,0.0040
1521.00,0.0041
1520.00,0.0043
1519.00,0.0043
1518.00,0.0043
1517.00,0.0044
1516.00,0.0044
1515.00,0.0044
1514.00,0.0045
1513.00,0.0046
1512.00,0.0048
1511.00,0.0048
1510.00,0.0049
1509.00,0.0050
1508.00,0.0051
1507.00,0.0051
1506.00,0.0052
1505.00,0.0054
1504.00,0.0056
1503.00,0.0058
1502.00,0.0060
1501.00,0.0062
1500.00,0.0064
1499.00,0.0066
1498.00,0.0068
1497.00,0.0070
1496.00,0.0072
1495.00,0.0074
1494.00,0.0075
1493.00,0.0078
1492.00,0.0081
1491.00,0.0085
1490.00,0.0089
1489.00,0.0093
1488.00,0.0098
1487.00,0.0103
1486.00,0.0108
1485.00,0.0113
1484.00,0.0120
1483.00,0.0126
1482.00,0.0134
1481.00,0.0145
1480.00,0.0157
1479.00,0.0170
1478.00,0.0185
1477.00,0.0205
1476.00,0.0231
1475.00,0.0261
1474.00,0.0303
1473.00,0.0362
1472.00,0.0433
1471.00,0.0500
1470.00,0.0566
1469.00,0.0634
1468.00,0.0709
1467.00,0.0792
1466.00,0.0887
1465.00,0.0990
1464.00,0.1079
1463.00,0.1139
1462.00,0.1176
1461.00,0.1200
1460.00,0.1215
1459.00,0.1222
1458.00,0.1224
1457.00,0.1221
1456.00,0.1211
1455.00,0.1197
1454.00,0.1181
1453.00,0.1160
1452.00,0.1131
1451.00,0.1091
1450.00,0.1038
1449.00,0.0966
1448.00,0.0875
1447.00,0.0779
1446.00,0.0693
1445.00,0.0620
1444.00,0.0559
1443.00,0.0509
1442.00,0.0471
1441.00,0.0446
1440.00,0.0431
1439.00,0.0426
1438.00,0.0430
1437.00,0.0436
1436.00,0.0430
1435.00,0.0408
1434.00,0.0372
1433.00,0.0327
1432.00,0.0281
1431.00,0.0239
1430.00,0.0206
1429.00,0.0182
1428.00,0.0166
1427.00,0.0155
1426.00,0.0148
1425.00,0.0141
1424.00,0.0134
1423.00,0.0130
1422.00,0.0127
1421.00,0.0124
1420.00,0.0121
1419.00,0.0118
1418.00,0.0116
1417.00,0.0113
1416.00,0.0110
1415.00,0.0109
1414.00,0.0108
1413.00,0.0107
1412.00,0.0105
1411.00,0.0104
1410.00,0.0104
1409.00,0.0103
1408.00,0.0102
1407.00,0.0101
1406.00,0.0102
1405.00,0.0101
1404.00,0.0101
1403.00,0.0102
1402.00,0.0103
1401.00,0.0104
1400.00,0.0105
1399.00,0.0106
1398.00,0.0108
1397.00,0.0110
1396.00,0.0112
1395.00,0.0115
1394.00,0.0120
1393.00,0.0125
1392.00,0.0130
1391.00,0.0137
1390.00,0.0148
1389.00,0.0162
1388.00,0.0182
1387.00,0.0213
1386.00,0.0255
1385.00,0.0309
1384.00,0.0384
1383.00,0.0492
1382.00,0.0638
1381.00,0.0832
1380.00,0.1080
1379.00,0.1376
1378.00,0.1680
1377.00,0.1925
1376.00,0.2037
1375.00,0.1964
1374.00,0.1728
1373.00,0.1424
1372.00,0.1139
1371.00,0.0903
1370.00,0.0714
1369.00,0.0571
1368.00,0.0474
1367.00,0.0415
1366.00,0.0383
1365.00,0.0370
1364.00,0.0374
1363.00,0.0390
1362.00,0.0415
1361.00,0.0441
1360.00,0.0461
1359.00,0.0467
1358.00,0.0455
1357.00,0.0426
1356.00,0.0386
1355.00,0.0341
1354.00,0.0298
1353.00,0.0262
1352.00,0.0232
1351.00,0.0208
1350.00,0.0189
1349.00,0.0173
1348.00,0.0161
1347.00,0.0150
1346.00,0.0141
1345.00,0.0133
1344.00,0.0126
1343.00,0.0121
1342.00,0.0117
1341.00,0.0113
1340.00,0.0110
1339.00,0.0108
1338.00,0.0107
1337.00,0.0107
1336.00,0.0107
1335.00,0.0109
1334.00,0.0113
1333.00,0.0117
1332.00,0.0122
1331.00,0.0126
1330.00,0.0128
1329.00,0.0127
1328.00,0.0123
1327.00,0.0117
1326.00,0.0111
1325.00,0.0105
1324.00,0.0099
1323.00,0.0094
1322.00,0.0090
1321.00,0.0087
1320.00,0.0086
1319.00,0.0084
1318.00,0.0082
1317.00,0.0081
1316.00,0.0079
1315.00,0.0078
1314.00,0.0078
1313.00,0.0077
1312.00,0.0078
1311.00,0.0079
1310.00,0.0083
1309.00,0.0088
1308.00,0.0095
1307.00,0.0104
1306.00,0.0112
1305.00,0.0117
1304.00,0.0119
1303.00,0.0118
1302.00,0.0115
1301.00,0.0113
1300.00,0.0112
1299.00,0.0113
1298.00,0.0115
1297.00,0.0116
1296.00,0.0116
1295.00,0.0114
1294.00,0.0111
1293.00,0.0106
1292.00,0.0101
1291.00,0.0097
1290.00,0.0092
1289.00,0.0088
1288.00,0.0085
1287.00,0.0082
1286.00,0.0079
1285.00,0.0078
1284.00,0.0076
1283.00,0.0075
1282.00,0.0074
1281.00,0.0072
1280.00,0.0071
1279.00,0.0070
1278.00,0.0069
1277.00,0.0069
1276.00,0.0068
1275.00,0.0068
1274.00,0.0069
1273.00,0.0069
1272.00,0.0070
1271.00,0.0070
1270.00,0.0071
1269.00,0.0072
1268.00,0.0073
1267.00,0.0074
1266.00,0.0075
1265.00,0.0077
1264.00,0.0079
1263.00,0.0082
1262.00,0.0085
1261.00,0.0088
1260.00,0.0092
1259.00,0.0097
1258.00,0.0101
1257.00,0.0105
1256.00,0.0106
1255.00,0.0105
1254.00,0.0100
1253.00,0.0094
1252.00,0.0088
1251.00,0.0083
1250.00,0.0079
1249.00,0.0075
1248.00,0.0073
1247.00,0.0071
1246.00,0.0069
1245.00,0.0068
1244.00,0.0068
1243.00,0.0067
1242.00,0.0066
1241.00,0.0065
1240.00,0.0064
1239.00,0.0064
1238.00,0.0064
1237.00,0.0064
1236.00,0.0063
1235.00,0.0063
1234.00,0.0064
1233.00,0.0064
1232.00,0.0065
1231.00,0.0065
1230.00,0.0065
1229.00,0.0066
1228.00,0.0067
1227.00,0.0069
1226.00,0.0072
1225.00,0.0075
1224.00,0.0078
1223.00,0.0081
1222.00,0.0085
1221.00,0.0089
1220.00,0.0091
1219.00,0.0092
1218.00,0.0091
1217.00,0.0089
1216.00,0.0085
1215.00,0.0082
1214.00,0.0078
1213.00,0.0075
1212.00,0.0073
1211.00,0.0071
1210.00,0.0070
1209.00,0.0069
1208.00,0.0068
1207.00,0.0068
1206.00,0.0067
1205.00,0.0066
1204.00,0.0065
1203.00,0.0065
1202.00,0.0065
1201.00,0.0065
1200.00,0.0064
1199.00,0.0064
1198.00,0.0064
1197.00,0.0064
1196.00,0.0064
1195.00,0.0064
1194.00,0.0064
1193.00,0.0063
1192.00,0.0063
1191.00,0.0063
1190.00,0.0063
1189.00,0.0063
1188.00,0.0063
1187.00,0.0062
1186.00,0.0063
1185.00,0.0063
1184.00,0.0064
1183.00,0.0066
1182.00,0.0068
1181.00,0.0071
1180.00,0.0074
1179.00,0.0078
1178.00,0.0083
1177.00,0.0089
1176.00,0.0097
1175.00,0.0108
1174.00,0.0123
1173.00,0.0141
1172.00,0.0164
1171.00,0.0189
1170.00,0.0214
1169.00,0.0234
1168.00,0.0247
1167.00,0.0250
1166.00,0.0245
1165.00,0.0234
1164.00,0.0222
1163.00,0.0210
1162.00,0.0201
1161.00,0.0194
1160.00,0.0188
1159.00,0.0183
1158.00,0.0180
1157.00,0.0178
1156.00,0.0177
1155.00,0.0177
1154.00,0.0177
1153.00,0.0175
1152.00,0.0171
1151.00,0.0165
1150.00,0.0157
1149.00,0.0147
1148.00,0.0138
1147.00,0.0129
1146.00,0.0121
1145.00,0.0114
1144.00,0.0106
1143.00,0.0099
1142.00,0.0093
1141.00,0.0086
1140.00,0.0081
1139.00,0.0076
1138.00,0.0073
1137.00,0.0069
1136.00,0.0066
1135.00,0.0064
1134.00,0.0063
1133.00,0.0062
1132.00,0.0061
1131.00,0.0060
1130.00,0.0060
1129.00,0.0059
1128.00,0.0059
1127.00,0.0059
1126.00,0.0059
1125.00,0.0059
1124.00,0.0059
1123.00,0.0059
1122.00,0.0060
1121.00,0.0061
1120.00,0.0062
1119.00,0.0063
1118.00,0.0064
1117.00,0.0065
1116.00,0.0065
1115.00,0.0065
1114.00,0.0066
1113.00,0.0067
1112.00,0.0069
1111.00,0.0072
1110.00,0.0076
1109.00,0.0081
1108.00,0.0086
1107.00,0.0093
1106.00,0.0100
1105.00,0.0107
1104.00,0.0112
1103.00,0.0115
1102.00,0.0115
1101.00,0.0111
1100.00,0.0105
1099.00,0.0099
1098.00,0.0093
1097.00,0.0087
1096.00,0.0082
1095.00,0.0079
1094.00,0.0076
1093.00,0.0074
1092.00,0.0073
1091.00,0.0071
1090.00,0.0069
1089.00,0.0067
1088.00,0.0066
1087.00,0.0065
1086.00,0.0066
1085.00,0.0066
1084.00,0.0066
1083.00,0.0066
1082.00,0.0065
1081.00,0.0064
1080.00,0.0063
1079.00,0.0062
1078.00,0.0062
1077.00,0.0062
1076.00,0.0062
1075.00,0.0062
1074.00,0.0063
1073.00,0.0063
1072.00,0.0062
1071.00,0.0061
1070.00,0.0061
1069.00,0.0061
1068.00,0.0061
1067.00,0.0062
1066.00,0.0063
1065.00,0.0064
1064.00,0.0065
1063.00,0.0066
1062.00,0.0067
1061.00,0.0067
1060.00,0.0068
1059.00,0.0069
1058.00,0.0070
1057.00,0.0072
1056.00,0.0073
1055.00,0.0074
1054.00,0.0075
1053.00,0.0078
1052.00,0.0081
1051.00,0.0084
1050.00,0.0088
1049.00,0.0092
1048.00,0.0096
1047.00,0.0100
1046.00,0.0104
1045.00,0.0106
1044.00,0.0107
1043.00,0.0106
1042.00,0.0105
1041.00,0.0103
1040.00,0.0102
1039.00,0.0101
1038.00,0.0101
1037.00,0.0102
1036.00,0.0102
1035.00,0.0101
1034.00,0.0100
1033.00,0.0099
1032.00,0.0098
1031.00,0.0098
1030.00,0.0098
1029.00,0.0099
1028.00,0.0100
1027.00,0.0102
1026.00,0.0104
1025.00,0.0106
1024.00,0.0108
1023.00,0.0110
1022.00,0.0112
1021.00,0.0114
1020.00,0.0115
1019.00,0.0117
1018.00,0.0118
1017.00,0.0118
1016.00,0.0118
1015.00,0.0117
1014.00,0.0116
1013.00,0.0115
1012.00,0.0114
1011.00,0.0114
1010.00,0.0115
1009.00,0.0116
1008.00,0.0118
1007.00,0.0121
1006.00,0.0127
1005.00,0.0135
1004.00,0.0146
1003.00,0.0163
1002.00,0.0185
1001.00,0.0212
1000.00,0.0240
999.00,0.0262
998.00,0.0272
997.00,0.0265
996.00,0.0244
995.00,0.0215
994.00,0.0185
993.00,0.0160
992.00,0.0140
991.00,0.0126
990.00,0.0116
989.00,0.0109
988.00,0.0104
987.00,0.0102
986.00,0.0101
985.00,0.0103
984.00,0.0106
983.00,0.0112
982.00,0.0120
981.00,0.0133
980.00,0.0152
979.00,0.0177
978.00,0.0209
977.00,0.0244
976.00,0.0280
975.00,0.0312
974.00,0.0334
973.00,0.0339
972.00,0.0325
971.00,0.0294
970.00,0.0254
969.00,0.0214
968.00,0.0181
967.00,0.0155
966.00,0.0136
965.00,0.0122
964.00,0.0112
963.00,0.0104
962.00,0.0097
961.00,0.0092
960.00,0.0087
959.00,0.0084
958.00,0.0081
957.00,0.0079
956.00,0.0077
955.00,0.0076
954.00,0.0074
953.00,0.0074
952.00,0.0073
951.00,0.0072
950.00,0.0072
949.00,0.0071
948.00,0.0071
947.00,0.0071
946.00,0.0073
945.00,0.0075
944.00,0.0079
943.00,0.0084
942.00,0.0089
941.00,0.0092
940.00,0.0092
939.00,0.0089
938.00,0.0084
937.00,0.0079
936.00,0.0073
935.00,0.0067
934.00,0.0064
933.00,0.0061
932.00,0.0060
931.00,0.0058
930.00,0.0057
929.00,0.0055
928.00,0.0055
927.00,0.0055
926.00,0.0055
925.00,0.0055
924.00,0.0055
923.00,0.0056
922.00,0.0056
921.00,0.0057
920.00,0.0057
919.00,0.0057
918.00,0.0057
917.00,0.0057
916.00,0.0058
915.00,0.0058
914.00,0.0059
913.00,0.0060
912.00,0.0061
911.00,0.0062
910.00,0.0065
909.00,0.0067
908.00,0.0070
907.00,0.0074
906.00,0.0081
905.00,0.0092
904.00,0.0108
903.00,0.0128
902.00,0.0150
901.00,0.0171
900.00,0.0184
899.00,0.0187
898.00,0.0178
897.00,0.0160
896.00,0.0139
895.00,0.0118
894.00,0.0102
893.00,0.0090
892.00,0.0083
891.00,0.0077
890.00,0.0074
889.00,0.0071
888.00,0.0069
887.00,0.0068
886.00,0.0067
885.00,0.0065
884.00,0.0064
883.00,0.0062
882.00,0.0062
881.00,0.0063
880.00,0.0065
879.00,0.0067
878.00,0.0069
877.00,0.0070
876.00,0.0070
875.00,0.0071
874.00,0.0071
873.00,0.0071
872.00,0.0070
871.00,0.0070
870.00,0.0069
869.00,0.0068
868.00,0.0067
867.00,0.0067
866.00,0.0068
865.00,0.0069
864.00,0.0070
863.00,0.0070
862.00,0.0071
861.00,0.0072
860.00,0.0073
859.00,0.0075
858.00,0.0077
857.00,0.0078
856.00,0.0079
855.00,0.0081
854.00,0.0084
853.00,0.0086
852.00,0.0088
851.00,0.0090
850.00,0.0092
849.00,0.0097
848.00,0.0104
847.00,0.0114
846.00,0.0129
845.00,0.0149
844.00,0.0178
843.00,0.0213
842.00,0.0242
841.00,0.0251
840.00,0.0235
839.00,0.0202
838.00,0.0165
837.00,0.0137
836.00,0.0120
835.00,0.0109
834.00,0.0103
833.00,0.0098
832.00,0.0094
831.00,0.0091
830.00,0.0089
829.00,0.0088
828.00,0.0088
827.00,0.0088
826.00,0.0088
825.00,0.0088
824.00,0.0088
823.00,0.0089
822.00,0.0091
821.00,0.0094
820.00,0.0097
819.00,0.0100
818.00,0.0104
817.00,0.0111
816.00,0.0120
815.00,0.0132
814.00,0.0147
813.00,0.0166
812.00,0.0187
811.00,0.0207
810.00,0.0223
809.00,0.0228
808.00,0.0224
807.00,0.0210
806.00,0.0191
805.00,0.0170
804.00,0.0151
803.00,0.0136
802.00,0.0124
801.00,0.0115
800.00,0.0108
799.00,0.0102
798.00,0.0098
797.00,0.0095
796.00,0.0092
795.00,0.0088
794.00,0.0085
793.00,0.0082
792.00,0.0079
791.00,0.0078
790.00,0.0076
789.00,0.0074
788.00,0.0071
787.00,0.0066
786.00,0.0063
785.00,0.0060
784.00,0.0059
783.00,0.0058
782.00,0.0057
781.00,0.0056
780.00,0.0054
779.00,0.0052
778.00,0.0051
777.00,0.0050
776.00,0.0050
775.00,0.0052
774.00,0.0053
773.00,0.0056
772.00,0.0058
771.00,0.0060
770.00,0.0059
769.00,0.0058
768.00,0.0056
767.00,0.0055
766.00,0.0055
765.00,0.0054
764.00,0.0054
763.00,0.0055
762.00,0.0056
761.00,0.0058
760.00,0.0059
759.00,0.0060
758.00,0.0061
757.00,0.0063
756.00,0.0065
755.00,0.0066
754.00,0.0067
753.00,0.0067
752.00,0.0066
751.00,0.0065
750.00,0.0064
749.00,0.0065
748.00,0.0068
747.00,0.0071
746.00,0.0074
745.00,0.0075
744.00,0.0076
743.00,0.0076
742.00,0.0078
741.00,0.0080
740.00,0.0083
739.00,0.0088
738.00,0.0092
737.00,0.0097
736.00,0.0101
735.00,0.0104
734.00,0.0108
733.00,0.0112
732.00,0.0118
731.00,0.0125
730.00,0.0131
729.00,0.0134
728.00,0.0135
727.00,0.0135
726.00,0.0137
725.00,0.0141
724.00,0.0148
723.00,0.0155
722.00,0.0161
721.00,0.0163
720.00,0.0161
719.00,0.0154
718.00,0.0143
717.00,0.0132
716.00,0.0121
715.00,0.0113
714.00,0.0108
713.00,0.0105
712.00,0.0102
711.00,0.0099
710.00,0.0097
709.00,0.0094
708.00,0.0091
707.00,0.0088
706.00,0.0086
705.00,0.0087
704.00,0.0089
703.00,0.0091
702.00,0.0091
701.00,0.0089
700.00,0.0086
699.00,0.0083
698.00,0.0082
697.00,0.0082
696.00,0.0083
695.00,0.0083
694.00,0.0083
693.00,0.0084
692.00,0.0086
691.00,0.0088
690.00,0.0089
689.00,0.0089
688.00,0.0089
687.00,0.0088
686.00,0.0088
685.00,0.0087
684.00,0.0087
683.00,0.0085
682.00,0.0084
681.00,0.0082
680.00,0.0080
679.00,0.0080
678.00,0.0081
677.00,0.0084
676.00,0.0086
675.00,0.0088
674.00,0.0089
673.00,0.0089
672.00,0.0090
671.00,0.0092
670.00,0.0094
669.00,0.0094
668.00,0.0091
667.00,0.0088
666.00,0.0084
665.00,0.0081
664.00,0.0079
663.00,0.0078
662.00,0.0077
661.00,0.0075
660.00,0.0074
659.00,0.0073
658.00,0.0072
657.00,0.0071
656.00,0.0070
655.00,0.0070
654.00,0.0070
653.00,0.0071
652.00,0.0072
651.00,0.0071
650.00,0.0071
649.00,0.0070
648.00,0.0070
647.00,0.0070
646.00,0.0071
645.00,0.0073
644.00,0.0074
643.00,0.0074
642.00,0.0072
641.00,0.0070
640.00,0.0068
639.00,0.0068
638.00,0.0069
637.00,0.0070
636.00,0.0071
635.00,0.0070
634.00,0.0069
633.00,0.0070
632.00,0.0071
631.00,0.0074
630.00,0.0075
629.00,0.0073
628.00,0.0069
627.00,0.0067
626.00,0.0067
625.00,0.0070
624.00,0.0072
623.00,0.0072
622.00,0.0070
621.00,0.0066
620.00,0.0063
619.00,0.0061
618.00,0.0061
617.00,0.0063
616.00,0.0066
615.00,0.0068
614.00,0.0071
613.00,0.0072
612.00,0.0072
611.00,0.0071
610.00,0.0070
609.00,0.0071
608.00,0.0072
607.00,0.0073
606.00,0.0073
605.00,0.0073
604.00,0.0072
603.00,0.0070
602.00,0.0069
601.00,0.0068
600.00,0.0066
599.00,0.0064
598.00,0.0063
597.00,0.0063
596.00,0.0062
595.00,0.0061
594.00,0.0061
593.00,0.0061
592.00,0.0061
591.00,0.0060
590.00,0.0058
589.00,0.0056
588.00,0.0054
587.00,0.0055
586.00,0.0057
585.00,0.0062
584.00,0.0066
583.00,0.0068
582.00,0.0067
581.00,0.0064
580.00,0.0061
579.00,0.0060
578.00,0.0061
577.00,0.0063
576.00,0.0066
575.00,0.0069
574.00,0.0069
573.00,0.0066
572.00,0.0063
571.00,0.0061
570.00,0.0060
569.00,0.0061
568.00,0.0063
567.00,0.0065
566.00,0.0066
565.00,0.0067
564.00,0.0068
563.00,0.0068
562.00,0.0069
561.00,0.0069
560.00,0.0070
559.00,0.0071
558.00,0.0070
557.00,0.0068
556.00,0.0067
555.00,0.0069
554.00,0.0072
553.00,0.0074
552.00,0.0075
551.00,0.0074
550.00,0.0075
549.00,0.0075
548.00,0.0075
547.00,0.0076
546.00,0.0077
545.00,0.0079
544.00,0.0083
543.00,0.0087
542.00,0.0091
541.00,0.0093
540.00,0.0094
539.00,0.0096
538.00,0.0099
537.00,0.0100
536.00,0.0097
535.00,0.0092
534.00,0.0089
533.00,0.0090
532.00,0.0092
531.00,0.0095
530.00,0.0097
529.00,0.0100
528.00,0.0100
527.00,0.0097
526.00,0.0091
525.00,0.0085
524.00,0.0082
523.00,0.0082
522.00,0.0083
521.00,0.0082
520.00,0.0080
519.00,0.0077
518.00,0.0073
517.00,0.0070
516.00,0.0068
515.00,0.0067
514.00,0.0067
513.00,0.0067
512.00,0.0068
511.00,0.0069
510.00,0.0070
509.00,0.0069
508.00,0.0068
507.00,0.0069
506.00,0.0071
505.00,0.0074
504.00,0.0074
503.00,0.0072
502.00,0.0071
501.00,0.0073
500.00,0.0077
499.00,0.0082
498.00,0.0083
497.00,0.0079
496.00,0.0073
495.00,0.0071
494.00,0.0072
493.00,0.0074
492.00,0.0074
491.00,0.0073
490.00,0.0071
489.00,0.0067
488.00,0.0064
487.00,0.0062
486.00,0.0063
485.00,0.0065
484.00,0.0068
483.00,0.0069
482.00,0.0071
481.00,0.0073
480.00,0.0078
479.00,0.0086
478.00,0.0096
477.00,0.0105
476.00,0.0109
475.00,0.0108
474.00,0.0108
473.00,0.0110
472.00,0.0115
471.00,0.0120
470.00,0.0124
469.00,0.0130
468.00,0.0140
467.00,0.0152
466.00,0.0159
465.00,0.0161
464.00,0.0160
463.00,0.0165
462.00,0.0182
461.00,0.0205
460.00,0.0221
459.00,0.0223
458.00,0.0212
457.00,0.0202
456.00,0.0203
455.00,0.0209
454.00,0.0207
453.00,0.0193
452.00,0.0170
451.00,0.0149
450.00,0.0133
