Created as New Dataset,Sample 027 By Administrator Date Thursday, September 04 2025
cm-1,A
4000.00,0.0014
3999.00,0.0014
3998.00,0.0014
3997.00,0.0015
3996.00,0.0015
3995.00,0.0015
3994.00,0.0015
3993.00,0.0015
3992.00,0.0015
3991.00,0.0015
3990.00,0.0015
3989.00,0.0015
3988.00,0.0014
3987.00,0.0014
3986.00,0.0014
3985.00,0.0014
3984.00,0.0014
3983.00,0.0014
3982.00,0.0014
3981.00,0.0014
3980.00,0.0014
3979.00,0.0014
3978.00,0.0014
3977.00,0.0014
3976.00,0.0014
3975.00,0.0014
3974.00,0.0013
3973.00,0.0013
3972.00,0.0013
3971.00,0.0012
3970.00,0.0012
3969.00,0.0013
3968.00,0.0013
3967.00,0.0013
3966.00,0.0013
3965.00,0.0014
3964.00,0.0014
3963.00,0.0014
3962.00,0.0014
3961.00,0.0014
3960.00,0.0014
3959.00,0.0014
3958.00,0.0014
3957.00,0.0014
3956.00,0.0014
3955.00,0.0014
3954.00,0.0014
3953.00,0.0013
3952.00,0.0013
3951.00,0.0013
3950.00,0.0013
3949.00,0.0013
3948.00,0.0013
3947.00,0.0013
3946.00,0.0013
3945.00,0.0013
3944.00,0.0013
3943.00,0.0013
3942.00,0.0013
3941.00,0.0013
3940.00,0.0013
3939.00,0.0014
3938.00,0.0014
3937.00,0.0014
3936.00,0.0014
3935.00,0.0014
3934.00,0.0013
3933.00,0.0013
3932.00,0.0013
3931.00,0.0013
3930.00,0.0013
3929.00,0.0013
3928.00,0.0013
3927.00,0.0013
3926.00,0.0013
3925.00,0.0013
3924.00,0.0013
3923.00,0.0013
3922.00,0.0013
3921.00,0.0013
3920.00,0.0013
3919.00,0.0013
3918.00,0.0013
3917.00,0.0013
3916.00,0.0013
3915.00,0.0013
3914.00,0.0013
3913.00,0.0013
3912.00,0.0013
3911.00,0.0013
3910.00,0.0013
3909.00,0.0013
3908.00,0.0013
3907.00,0.0013
3906.00,0.0012
3905.00,0.0012
3904.00,0.0012
3903.00,0.0011
3902.00,0.0011
3901.00,0.0012
3900.00,0.0012
3899.00,0.0013
3898.00,0.0013
3897.00,0.0013
3896.00,0.0013
3895.00,0.0013
3894.00,0.0013
3893.00,0.0013
3892.00,0.0013
3891.00,0.0012
3890.00,0.0012
3889.00,0.0011
3888.00,0.0011
3887.00,0.0011
3886.00,0.0012
3885.00,0.0012
3884.00,0.0012
3883.00,0.0012
3882.00,0.0012
3881.00,0.0012
3880.00,0.0012
3879.00,0.0012
3878.00,0.0012
3877.00,0.0012
3876.00,0.0012
3875.00,0.0012
3874.00,0.0012
3873.00,0.0012
3872.00,0.0012
3871.00,0.0012
3870.00,0.0012
3869.00,0.0012
3868.00,0.0011
3867.00,0.0011
3866.00,0.0011
3865.00,0.0011
3864.00,0.0011
3863.00,0.0012
3862.00,0.0012
3861.00,0.0012
3860.00,0.0012
3859.00,0.0011
3858.00,0.0011
3857.00,0.0010
3856.00,0.0009
3855.00,0.0009
3854.00,0.0009
3853.00,0.0009
3852.00,0.0009
3851.00,0.0010
3850.00,0.0010
3849.00,0.0011
3848.00,0.0011
3847.00,0.0011
3846.00,0.0012
3845.00,0.0012
3844.00,0.0012
3843.00,0.0012
3842.00,0.0012
3841.00,0.0011
3840.00,0.0011
3839.00,0.0011
3838.00,0.0011
3837.00,0.0011
3836.00,0.0011
3835.00,0.0011
3834.00,0.0011
3833.00,0.0012
3832.00,0.0012
3831.00,0.0012
3830.00,0.0012
3829.00,0.0012
3828.00,0.0012
3827.00,0.0013
3826.00,0.0013
3825.00,0.0012
3824.00,0.0012
3823.00,0.0012
3822.00,0.0012
3821.00,0.0012
3820.00,0.0012
3819.00,0.0012
3818.00,0.0011
3817.00,0.0012
3816.00,0.0012
3815.00,0.0012
3814.00,0.0011
3813.00,0.0011
3812.00,0.0012
3811.00,0.0012
3810.00,0.0012
3809.00,0.0012
3808.00,0.0012
3807.00,0.0013
3806.00,0.0013
3805.00,0.0012
3804.00,0.0012
3803.00,0.0011
3802.00,0.0011
3801.00,0.0011
3800.00,0.0011
3799.00,0.0011
3798.00,0.0012
3797.00,0.0012
3796.00,0.0013
3795.00,0.0012
3794.00,0.0012
3793.00,0.0012
3792.00,0.0013
3791.00,0.0013
3790.00,0.0013
3789.00,0.0013
3788.00,0.0013
3787.00,0.0013
3786.00,0.0013
3785.00,0.0013
3784.00,0.0014
3783.00,0.0014
3782.00,0.0014
3781.00,0.0014
3780.00,0.0014
3779.00,0.0013
3778.00,0.0013
3777.00,0.0013
3776.00,0.0013
3775.00,0.0013
3774.00,0.0013
3773.00,0.0013
3772.00,0.0013
3771.00,0.0012
3770.00,0.0013
3769.00,0.0012
3768.00,0.0012
3767.00,0.0013
3766.00,0.0013
3765.00,0.0013
3764.00,0.0013
3763.00,0.0013
3762.00,0.0013
3761.00,0.0013
3760.00,0.0013
3759.00,0.0013
3758.00,0.0013
3757.00,0.0012
3756.00,0.0012
3755.00,0.0011
3754.00,0.0011
3753.00,0.0011
3752.00,0.0010
3751.00,0.0010
3750.00,0.0009
3749.00,0.0009
3748.00,0.0009
3747.00,0.0009
3746.00,0.0009
3745.00,0.0009
3744.00,0.0009
3743.00,0.0009
3742.00,0.0009
3741.00,0.0010
3740.00,0.0010
3739.00,0.0010
3738.00,0.0010
3737.00,0.0010
3736.00,0.0010
3735.00,0.0011
3734.00,0.0011
3733.00,0.0011
3732.00,0.0011
3731.00,0.0010
3730.00,0.0010
3729.00,0.0010
3728.00,0.0010
3727.00,0.0010
3726.00,0.0010
3725.00,0.0010
3724.00,0.0010
3723.00,0.0010
3722.00,0.0010
3721.00,0.0011
3720.00,0.0011
3719.00,0.0011
3718.00,0.0011
3717.00,0.0011
3716.00,0.0011
3715.00,0.0011
3714.00,0.0011
3713.00,0.0011
3712.00,0.0011
3711.00,0.0011
3710.00,0.0011
3709.00,0.0011
3708.00,0.0011
3707.00,0.0011
3706.00,0.0010
3705.00,0.0010
3704.00,0.0010
3703.00,0.0010
3702.00,0.0010
3701.00,0.0010
3700.00,0.0010
3699.00,0.0010
3698.00,0.0010
3697.00,0.0011
3696.00,0.0011
3695.00,0.0011
3694.00,0.0011
3693.00,0.0010
3692.00,0.0010
3691.00,0.0010
3690.00,0.0010
3689.00,0.0010
3688.00,0.0010
3687.00,0.0010
3686.00,0.0009
3685.00,0.0010
3684.00,0.0010
3683.00,0.0010
3682.00,0.0010
3681.00,0.0010
3680.00,0.0011
3679.00,0.0010
3678.00,0.0010
3677.00,0.0010
3676.00,0.0010
3675.00,0.0010
3674.00,0.0009
3673.00,0.0008
3672.00,0.0008
3671.00,0.0009
3670.00,0.0010
3669.00,0.0010
3668.00,0.0010
3667.00,0.0010
3666.00,0.0010
3665.00,0.0010
3664.00,0.0010
3663.00,0.0010
3662.00,0.0010
3661.00,0.0010
3660.00,0.0010
3659.00,0.0010
3658.00,0.0009
3657.00,0.0009
3656.00,0.0009
3655.00,0.0008
3654.00,0.0008
3653.00,0.0009
3652.00,0.0009
3651.00,0.0010
3650.00,0.0009
3649.00,0.0009
3648.00,0.0008
3647.00,0.0008
3646.00,0.0008
3645.00,0.0009
3644.00,0.0009
3643.00,0.0009
3642.00,0.0009
3641.00,0.0009
3640.00,0.0009
3639.00,0.0009
3638.00,0.0009
3637.00,0.0009
3636.00,0.0009
3635.00,0.0009
3634.00,0.0009
3633.00,0.0009
3632.00,0.0008
3631.00,0.0007
3630.00,0.0007
3629.00,0.0007
3628.00,0.0007
3627.00,0.0007
3626.00,0.0007
3625.00,0.0008
3624.00,0.0009
3623.00,0.0009
3622.00,0.0009
3621.00,0.0009
3620.00,0.0009
3619.00,0.0009
3618.00,0.0008
3617.00,0.0008
3616.00,0.0008
3615.00,0.0008
3614.00,0.0009
3613.00,0.0009
3612.00,0.0009
3611.00,0.0009
3610.00,0.0009
3609.00,0.0009
3608.00,0.0009
3607.00,0.0009
3606.00,0.0009
3605.00,0.0010
3604.00,0.0010
3603.00,0.0010
3602.00,0.0010
3601.00,0.0010
3600.00,0.0010
3599.00,0.0010
3598.00,0.0010
3597.00,0.0010
3596.00,0.0009
3595.00,0.0009
3594.00,0.0008
3593.00,0.0009
3592.00,0.0009
3591.00,0.0009
3590.00,0.0009
3589.00,0.0009
3588.00,0.0009
3587.00,0.0009
3586.00,0.0009
3585.00,0.0009
3584.00,0.0010
3583.00,0.0010
3582.00,0.0011
3581.00,0.0011
3580.00,0.0011
3579.00,0.0011
3578.00,0.0010
3577.00,0.0010
3576.00,0.0010
3575.00,0.0011
3574.00,0.0011
3573.00,0.0011
3572.00,0.0011
3571.00,0.0011
3570.00,0.0011
3569.00,0.0010
3568.00,0.0010
3567.00,0.0010
3566.00,0.0010
3565.00,0.0010
3564.00,0.0011
3563.00,0.0011
3562.00,0.0011
3561.00,0.0012
3560.00,0.0012
3559.00,0.0012
3558.00,0.0012
3557.00,0.0011
3556.00,0.0011
3555.00,0.0011
3554.00,0.0011
3553.00,0.0012
3552.00,0.0012
3551.00,0.0012
3550.00,0.0012
3549.00,0.0012
3548.00,0.0012
3547.00,0.0012
3546.00,0.0012
3545.00,0.0013
3544.00,0.0013
3543.00,0.0012
3542.00,0.0012
3541.00,0.0012
3540.00,0.0012
3539.00,0.0012
3538.00,0.0013
3537.00,0.0013
3536.00,0.0013
3535.00,0.0013
3534.00,0.0013
3533.00,0.0013
3532.00,0.0013
3531.00,0.0013
3530.00,0.0013
3529.00,0.0014
3528.00,0.0014
3527.00,0.0014
3526.00,0.0014
3525.00,0.0014
3524.00,0.0013
3523.00,0.0014
3522.00,0.0014
3521.00,0.0014
3520.00,0.0014
3519.00,0.0015
3518.00,0.0015
3517.00,0.0015
3516.00,0.0015
3515.00,0.0016
3514.00,0.0016
3513.00,0.0016
3512.00,0.0016
3511.00,0.0016
3510.00,0.0016
3509.00,0.0015
3508.00,0.0015
3507.00,0.0015
3506.00,0.0014
3505.00,0.0014
3504.00,0.0014
3503.00,0.0015
3502.00,0.0015
3501.00,0.0015
3500.00,0.0016
3499.00,0.0015
3498.00,0.0015
3497.00,0.0015
3496.00,0.0015
3495.00,0.0015
3494.00,0.0015
3493.00,0.0015
3492.00,0.0015
3491.00,0.0016
3490.00,0.0016
3489.00,0.0016
3488.00,0.0017
3487.00,0.0017
3486.00,0.0016
3485.00,0.0016
3484.00,0.0016
3483.00,0.0016
3482.00,0.0017
3481.00,0.0017
3480.00,0.0017
3479.00,0.0017
3478.00,0.0017
3477.00,0.0017
3476.00,0.0017
3475.00,0.0017
3474.00,0.0017
3473.00,0.0018
3472.00,0.0018
3471.00,0.0018
3470.00,0.0017
3469.00,0.0017
3468.00,0.0017
3467.00,0.0017
3466.00,0.0018
3465.00,0.0018
3464.00,0.0018
3463.00,0.0018
3462.00,0.0018
3461.00,0.0018
3460.00,0.0018
3459.00,0.0018
3458.00,0.0018
3457.00,0.0018
3456.00,0.0018
3455.00,0.0018
3454.00,0.0018
3453.00,0.0019
3452.00,0.0019
3451.00,0.0019
3450.00,0.0019
3449.00,0.0019
3448.00,0.0018
3447.00,0.0018
3446.00,0.0018
3445.00,0.0019
3444.00,0.0019
3443.00,0.0020
3442.00,0.0020
3441.00,0.0020
3440.00,0.0020
3439.00,0.0020
3438.00,0.0020
3437.00,0.0020
3436.00,0.0020
3435.00,0.0020
3434.00,0.0020
3433.00,0.0020
3432.00,0.0021
3431.00,0.0022
3430.00,0.0022
3429.00,0.0022
3428.00,0.0022
3427.00,0.0021
3426.00,0.0021
3425.00,0.0020
3424.00,0.0020
3423.00,0.0021
3422.00,0.0021
3421.00,0.0021
3420.00,0.0022
3419.00,0.0022
3418.00,0.0022
3417.00,0.0021
3416.00,0.0021
3415.00,0.0021
3414.00,0.0021
3413.00,0.0021
3412.00,0.0021
3411.00,0.0021
3410.00,0.0022
3409.00,0.0022
3408.00,0.0022
3407.00,0.0022
3406.00,0.0022
3405.00,0.0022
3404.00,0.0023
3403.00,0.0023
3402.00,0.0023
3401.00,0.0023
3400.00,0.0023
3399.00,0.0022
3398.00,0.0022
3397.00,0.0022
3396.00,0.0022
3395.00,0.0023
3394.00,0.0023
3393.00,0.0023
3392.00,0.0023
3391.00,0.0023
3390.00,0.0023
3389.00,0.0023
3388.00,0.0023
3387.00,0.0024
3386.00,0.0024
3385.00,0.0024
3384.00,0.0023
3383.00,0.0023
3382.00,0.0023
3381.00,0.0023
3380.00,0.0023
3379.00,0.0023
3378.00,0.0023
3377.00,0.0023
3376.00,0.0023
3375.00,0.0023
3374.00,0.0023
3373.00,0.0023
3372.00,0.0023
3371.00,0.0023
3370.00,0.0023
3369.00,0.0023
3368.00,0.0023
3367.00,0.0023
3366.00,0.0023
3365.00,0.0023
3364.00,0.0023
3363.00,0.0023
3362.00,0.0023
3361.00,0.0023
3360.00,0.0023
3359.00,0.0024
3358.00,0.0024
3357.00,0.0024
3356.00,0.0024
3355.00,0.0024
3354.00,0.0024
3353.00,0.0023
3352.00,0.0023
3351.00,0.0023
3350.00,0.0023
3349.00,0.0023
3348.00,0.0024
3347.00,0.0024
3346.00,0.0024
3345.00,0.0024
3344.00,0.0024
3343.00,0.0024
3342.00,0.0024
3341.00,0.0024
3340.00,0.0024
3339.00,0.0024
3338.00,0.0024
3337.00,0.0023
3336.00,0.0023
3335.00,0.0023
3334.00,0.0023
3333.00,0.0023
3332.00,0.0023
3331.00,0.0024
3330.00,0.0024
3329.00,0.0024
3328.00,0.0024
3327.00,0.0024
3326.00,0.0024
3325.00,0.0023
3324.00,0.0023
3323.00,0.0023
3322.00,0.0023
3321.00,0.0023
3320.00,0.0023
3319.00,0.0023
3318.00,0.0023
3317.00,0.0022
3316.00,0.0022
3315.00,0.0022
3314.00,0.0023
3313.00,0.0023
3312.00,0.0023
3311.00,0.0023
3310.00,0.0023
3309.00,0.0023
3308.00,0.0024
3307.00,0.0024
3306.00,0.0024
3305.00,0.0024
3304.00,0.0025
3303.00,0.0025
3302.00,0.0025
3301.00,0.0024
3300.00,0.0024
3299.00,0.0024
3298.00,0.0023
3297.00,0.0023
3296.00,0.0023
3295.00,0.0023
3294.00,0.0023
3293.00,0.0023
3292.00,0.0023
3291.00,0.0023
3290.00,0.0023
3289.00,0.0023
3288.00,0.0023
3287.00,0.0023
3286.00,0.0023
3285.00,0.0022
3284.00,0.0022
3283.00,0.0022
3282.00,0.0021
3281.00,0.0021
3280.00,0.0022
3279.00,0.0022
3278.00,0.0022
3277.00,0.0022
3276.00,0.0022
3275.00,0.0022
3274.00,0.0021
3273.00,0.0021
3272.00,0.0021
3271.00,0.0021
3270.00,0.0021
3269.00,0.0021
3268.00,0.0021
3267.00,0.0021
3266.00,0.0021
3265.00,0.0021
3264.00,0.0022
3263.00,0.0021
3262.00,0.0021
3261.00,0.0021
3260.00,0.0021
3259.00,0.0021
3258.00,0.0021
3257.00,0.0021
3256.00,0.0020
3255.00,0.0020
3254.00,0.0020
3253.00,0.0020
3252.00,0.0020
3251.00,0.0020
3250.00,0.0020
3249.00,0.0020
3248.00,0.0020
3247.00,0.0021
3246.00,0.0021
3245.00,0.0021
3244.00,0.0020
3243.00,0.0020
3242.00,0.0020
3241.00,0.0021
3240.00,0.0021
3239.00,0.0020
3238.00,0.0020
3237.00,0.0020
3236.00,0.0020
3235.00,0.0020
3234.00,0.0020
3233.00,0.0021
3232.00,0.0021
3231.00,0.0021
3230.00,0.0021
3229.00,0.0021
3228.00,0.0021
3227.00,0.0021
3226.00,0.0021
3225.00,0.0021
3224.00,0.0021
3223.00,0.0021
3222.00,0.0022
3221.00,0.0022
3220.00,0.0022
3219.00,0.0022
3218.00,0.0022
3217.00,0.0022
3216.00,0.0022
3215.00,0.0022
3214.00,0.0022
3213.00,0.0022
3212.00,0.0022
3211.00,0.0022
3210.00,0.0023
3209.00,0.0023
3208.00,0.0023
3207.00,0.0024
3206.00,0.0024
3205.00,0.0024
3204.00,0.0024
3203.00,0.0025
3202.00,0.0025
3201.00,0.0025
3200.00,0.0025
3199.00,0.0025
3198.00,0.0025
3197.00,0.0025
3196.00,0.0025
3195.00,0.0025
3194.00,0.0025
3193.00,0.0025
3192.00,0.0025
3191.00,0.0025
3190.00,0.0024
3189.00,0.0024
3188.00,0.0024
3187.00,0.0024
3186.00,0.0024
3185.00,0.0024
3184.00,0.0023
3183.00,0.0023
3182.00,0.0023
3181.00,0.0023
3180.00,0.0023
3179.00,0.0023
3178.00,0.0023
3177.00,0.0023
3176.00,0.0023
3175.00,0.0023
3174.00,0.0023
3173.00,0.0023
3172.00,0.0023
3171.00,0.0023
3170.00,0.0023
3169.00,0.0023
3168.00,0.0023
3167.00,0.0023
3166.00,0.0023
3165.00,0.0023
3164.00,0.0023
3163.00,0.0023
3162.00,0.0023
3161.00,0.0023
3160.00,0.0023
3159.00,0.0023
3158.00,0.0023
3157.00,0.0023
3156.00,0.0022
3155.00,0.0022
3154.00,0.0022
3153.00,0.0023
3152.00,0.0023
3151.00,0.0023
3150.00,0.0023
3149.00,0.0023
3148.00,0.0022
3147.00,0.0022
3146.00,0.0022
3145.00,0.0022
3144.00,0.0022
3143.00,0.0022
3142.00,0.0023
3141.00,0.0023
3140.00,0.0023
3139.00,0.0023
3138.00,0.0023
3137.00,0.0023
3136.00,0.0022
3135.00,0.0022
3134.00,0.0022
3133.00,0.0022
3132.00,0.0021
3131.00,0.0021
3130.00,0.0021
3129.00,0.0021
3128.00,0.0021
3127.00,0.0021
3126.00,0.0021
3125.00,0.0021
3124.00,0.0020
3123.00,0.0020
3122.00,0.0020
3121.00,0.0020
3120.00,0.0020
3119.00,0.0020
3118.00,0.0020
3117.00,0.0020
3116.00,0.0020
3115.00,0.0020
3114.00,0.0020
3113.00,0.0020
3112.00,0.0019
3111.00,0.0019
3110.00,0.0019
3109.00,0.0019
3108.00,0.0019
3107.00,0.0019
3106.00,0.0019
3105.00,0.0019
3104.00,0.0019
3103.00,0.0019
3102.00,0.0019
3101.00,0.0019
3100.00,0.0019
3099.00,0.0019
3098.00,0.0019
3097.00,0.0019
3096.00,0.0019
3095.00,0.0019
3094.00,0.0020
3093.00,0.0020
3092.00,0.0020
3091.00,0.0020
3090.00,0.0020
3089.00,0.0019
3088.00,0.0019
3087.00,0.0019
3086.00,0.0019
3085.00,0.0019
3084.00,0.0019
3083.00,0.0019
3082.00,0.0019
3081.00,0.0019
3080.00,0.0020
3079.00,0.0019
3078.00,0.0019
3077.00,0.0019
3076.00,0.0019
3075.00,0.0019
3074.00,0.0019
3073.00,0.0019
3072.00,0.0020
3071.00,0.0020
3070.00,0.0020
3069.00,0.0020
3068.00,0.0020
3067.00,0.0020
3066.00,0.0020
3065.00,0.0020
3064.00,0.0020
3063.00,0.0020
3062.00,0.0021
3061.00,0.0021
3060.00,0.0021
3059.00,0.0022
3058.00,0.0022
3057.00,0.0021
3056.00,0.0021
3055.00,0.0021
3054.00,0.0022
3053.00,0.0022
3052.00,0.0022
3051.00,0.0022
3050.00,0.0022
3049.00,0.0022
3048.00,0.0022
3047.00,0.0022
3046.00,0.0022
3045.00,0.0022
3044.00,0.0022
3043.00,0.0023
3042.00,0.0023
3041.00,0.0024
3040.00,0.0024
3039.00,0.0024
3038.00,0.0024
3037.00,0.0024
3036.00,0.0024
3035.00,0.0024
3034.00,0.0025
3033.00,0.0025
3032.00,0.0025
3031.00,0.0025
3030.00,0.0025
3029.00,0.0025
3028.00,0.0026
3027.00,0.0026
3026.00,0.0027
3025.00,0.0028
3024.00,0.0028
3023.00,0.0029
3022.00,0.0029
3021.00,0.0030
3020.00,0.0030
3019.00,0.0031
3018.00,0.0032
3017.00,0.0032
3016.00,0.0033
3015.00,0.0033
3014.00,0.0034
3013.00,0.0035
3012.00,0.0036
3011.00,0.0037
3010.00,0.0038
3009.00,0.0038
3008.00,0.0039
3007.00,0.0040
3006.00,0.0041
3005.00,0.0043
3004.00,0.0044
3003.00,0.0046
3002.00,0.0047
3001.00,0.0049
3000.00,0.0050
2999.00,0.0052
2998.00,0.0054
2997.00,0.0056
2996.00,0.0059
2995.00,0.0062
2994.00,0.0065
2993.00,0.0068
2992.00,0.0072
2991.00,0.0076
2990.00,0.0080
2989.00,0.0085
2988.00,0.0091
2987.00,0.0097
2986.00,0.0103
2985.00,0.0111
2984.00,0.0119
2983.00,0.0128
2982.00,0.0139
2981.00,0.0151
2980.00,0.0165
2979.00,0.0181
2978.00,0.0198
2977.00,0.0219
2976.00,0.0242
2975.00,0.0269
2974.00,0.0300
2973.00,0.0335
2972.00,0.0375
2971.00,0.0420
2970.00,0.0470
2969.00,0.0524
2968.00,0.0584
2967.00,0.0647
2966.00,0.0713
2965.00,0.0780
2964.00,0.0846
2963.00,0.0907
2962.00,0.0960
2961.00,0.1003
2960.00,0.1036
2959.00,0.1061
2958.00,0.1081
2957.00,0.1102
2956.00,0.1127
2955.00,0.1160
2954.00,0.1199
2953.00,0.1241
2952.00,0.1277
2951.00,0.1300
2950.00,0.1302
2949.00,0.1280
2948.00,0.1232
2947.00,0.1163
2946.00,0.1081
2945.00,0.0995
2944.00,0.0913
2943.00,0.0843
2942.00,0.0789
2941.00,0.0752
2940.00,0.0731
2939.00,0.0725
2938.00,0.0732
2937.00,0.0751
2936.00,0.0781
2935.00,0.0820
2934.00,0.0869
2933.00,0.0925
2932.00,0.0989
2931.00,0.1058
2930.00,0.1131
2929.00,0.1206
2928.00,0.1280
2927.00,0.1352
2926.00,0.1420
2925.00,0.1486
2924.00,0.1549
2923.00,0.1610
2922.00,0.1669
2921.00,0.1723
2920.00,0.1770
2919.00,0.1802
2918.00,0.1815
2917.00,0.1805
2916.00,0.1772
2915.00,0.1720
2914.00,0.1658
2913.00,0.1591
2912.00,0.1527
2911.00,0.1469
2910.00,0.1419
2909.00,0.1374
2908.00,0.1332
2907.00,0.1292
2906.00,0.1252
2905.00,0.1210
2904.00,0.1167
2903.00,0.1123
2902.00,0.1079
2901.00,0.1035
2900.00,0.0993
2899.00,0.0952
2898.00,0.0915
2897.00,0.0880
2896.00,0.0849
2895.00,0.0821
2894.00,0.0798
2893.00,0.0779
2892.00,0.0763
2891.00,0.0752
2890.00,0.0744
2889.00,0.0738
2888.00,0.0735
2887.00,0.0734
2886.00,0.0736
2885.00,0.0740
2884.00,0.0746
2883.00,0.0756
2882.00,0.0769
2881.00,0.0782
2880.00,0.0796
2879.00,0.0806
2878.00,0.0812
2877.00,0.0812
2876.00,0.0808
2875.00,0.0802
2874.00,0.0798
2873.00,0.0798
2872.00,0.0804
2871.00,0.0814
2870.00,0.0827
2869.00,0.0838
2868.00,0.0845
2867.00,0.0842
2866.00,0.0824
2865.00,0.0792
2864.00,0.0748
2863.00,0.0697
2862.00,0.0646
2861.00,0.0601
2860.00,0.0566
2859.00,0.0542
2858.00,0.0528
2857.00,0.0523
2856.00,0.0524
2855.00,0.0530
2854.00,0.0540
2853.00,0.0553
2852.00,0.0566
2851.00,0.0579
2850.00,0.0589
2849.00,0.0599
2848.00,0.0609
2847.00,0.0622
2846.00,0.0641
2845.00,0.0667
2844.00,0.0699
2843.00,0.0737
2842.00,0.0776
2841.00,0.0812
2840.00,0.0840
2839.00,0.0853
2838.00,0.0849
2837.00,0.0824
2836.00,0.0779
2835.00,0.0717
2834.00,0.0646
2833.00,0.0573
2832.00,0.0503
2831.00,0.0440
2830.00,0.0387
2829.00,0.0344
2828.00,0.0308
2827.00,0.0279
2826.00,0.0256
2825.00,0.0237
2824.00,0.0221
2823.00,0.0207
2822.00,0.0195
2821.00,0.0185
2820.00,0.0176
2819.00,0.0168
2818.00,0.0161
2817.00,0.0155
2816.00,0.0150
2815.00,0.0145
2814.00,0.0141
2813.00,0.0137
2812.00,0.0133
2811.00,0.0129
2810.00,0.0126
2809.00,0.0122
2808.00,0.0118
2807.00,0.0114
2806.00,0.0110
2805.00,0.0105
2804.00,0.0101
2803.00,0.0097
2802.00,0.0093
2801.00,0.0090
2800.00,0.0087
2799.00,0.0085
2798.00,0.0083
2797.00,0.0082
2796.00,0.0080
2795.00,0.0078
2794.00,0.0076
2793.00,0.0074
2792.00,0.0072
2791.00,0.0070
2790.00,0.0068
2789.00,0.0066
2788.00,0.0064
2787.00,0.0062
2786.00,0.0060
2785.00,0.0058
2784.00,0.0056
2783.00,0.0055
2782.00,0.0053
2781.00,0.0052
2780.00,0.0050
2779.00,0.0049
2778.00,0.0048
2777.00,0.0047
2776.00,0.0046
2775.00,0.0046
2774.00,0.0045
2773.00,0.0045
2772.00,0.0044
2771.00,0.0044
2770.00,0.0044
2769.00,0.0043
2768.00,0.0043
2767.00,0.0043
2766.00,0.0043
2765.00,0.0042
2764.00,0.0042
2763.00,0.0042
2762.00,0.0042
2761.00,0.0042
2760.00,0.0042
2759.00,0.0042
2758.00,0.0041
2757.00,0.0041
2756.00,0.0041
2755.00,0.0041
2754.00,0.0041
2753.00,0.0041
2752.00,0.0040
2751.00,0.0040
2750.00,0.0040
2749.00,0.0040
2748.00,0.0041
2747.00,0.0041
2746.00,0.0041
2745.00,0.0041
2744.00,0.0042
2743.00,0.0043
2742.00,0.0043
2741.00,0.0044
2740.00,0.0045
2739.00,0.0046
2738.00,0.0046
2737.00,0.0047
2736.00,0.0048
2735.00,0.0049
2734.00,0.0050
2733.00,0.0051
2732.00,0.0052
2731.00,0.0053
2730.00,0.0055
2729.00,0.0056
2728.00,0.0058
2727.00,0.0060
2726.00,0.0062
2725.00,0.0064
2724.00,0.0065
2723.00,0.0065
2722.00,0.0064
2721.00,0.0063
2720.00,0.0061
2719.00,0.0059
2718.00,0.0057
2717.00,0.0055
2716.00,0.0053
2715.00,0.0051
2714.00,0.0049
2713.00,0.0047
2712.00,0.0046
2711.00,0.0045
2710.00,0.0044
2709.00,0.0043
2708.00,0.0042
2707.00,0.0041
2706.00,0.0040
2705.00,0.0039
2704.00,0.0039
2703.00,0.0038
2702.00,0.0037
2701.00,0.0037
2700.00,0.0036
2699.00,0.0036
2698.00,0.0036
2697.00,0.0036
2696.00,0.0036
2695.00,0.0036
2694.00,0.0036
2693.00,0.0036
2692.00,0.0036
2691.00,0.0036
2690.00,0.0036
2689.00,0.0035
2688.00,0.0035
2687.00,0.0035
2686.00,0.0035
2685.00,0.0035
2684.00,0.0036
2683.00,0.0036
2682.00,0.0036
2681.00,0.0036
2680.00,0.0036
2679.00,0.0036
2678.00,0.0036
2677.00,0.0036
2676.00,0.0036
2675.00,0.0036
2674.00,0.0036
2673.00,0.0036
2672.00,0.0036
2671.00,0.0036
2670.00,0.0036
2669.00,0.0036
2668.00,0.0035
2667.00,0.0035
2666.00,0.0035
2665.00,0.0036
2664.00,0.0036
2663.00,0.0037
2662.00,0.0038
2661.00,0.0038
2660.00,0.0038
2659.00,0.0038
2658.00,0.0038
2657.00,0.0038
2656.00,0.0038
2655.00,0.0037
2654.00,0.0037
2653.00,0.0037
2652.00,0.0036
2651.00,0.0036
2650.00,0.0036
2649.00,0.0036
2648.00,0.0036
2647.00,0.0036
2646.00,0.0035
2645.00,0.0035
2644.00,0.0034
2643.00,0.0033
2642.00,0.0033
2641.00,0.0033
2640.00,0.0033
2639.00,0.0033
2638.00,0.0033
2637.00,0.0032
2636.00,0.0032
2635.00,0.0032
2634.00,0.0032
2633.00,0.0032
2632.00,0.0032
2631.00,0.0032
2630.00,0.0032
2629.00,0.0032
2628.00,0.0032
2627.00,0.0032
2626.00,0.0032
2625.00,0.0032
2624.00,0.0032
2623.00,0.0033
2622.00,0.0033
2621.00,0.0033
2620.00,0.0033
2619.00,0.0033
2618.00,0.0033
2617.00,0.0032
2616.00,0.0032
2615.00,0.0031
2614.00,0.0031
2613.00,0.0031
2612.00,0.0031
2611.00,0.0031
2610.00,0.0030
2609.00,0.0030
2608.00,0.0029
2607.00,0.0029
2606.00,0.0029
2605.00,0.0028
2604.00,0.0028
2603.00,0.0027
2602.00,0.0026
2601.00,0.0025
2600.00,0.0024
2599.00,0.0024
2598.00,0.0025
2597.00,0.0025
2596.00,0.0025
2595.00,0.0026
2594.00,0.0026
2593.00,0.0027
2592.00,0.0027
2591.00,0.0027
2590.00,0.0027
2589.00,0.0027
2588.00,0.0027
2587.00,0.0028
2586.00,0.0029
2585.00,0.0030
2584.00,0.0030
2583.00,0.0030
2582.00,0.0030
2581.00,0.0030
2580.00,0.0030
2579.00,0.0029
2578.00,0.0028
2577.00,0.0028
2576.00,0.0027
2575.00,0.0026
2574.00,0.0026
2573.00,0.0025
2572.00,0.0024
2571.00,0.0023
2570.00,0.0022
2569.00,0.0021
2568.00,0.0022
2567.00,0.0022
2566.00,0.0022
2565.00,0.0022
2564.00,0.0021
2563.00,0.0021
2562.00,0.0021
2561.00,0.0020
2560.00,0.0020
2559.00,0.0019
2558.00,0.0018
2557.00,0.0018
2556.00,0.0018
2555.00,0.0019
2554.00,0.0019
2553.00,0.0019
2552.00,0.0019
2551.00,0.0019
2550.00,0.0018
2549.00,0.0018
2548.00,0.0017
2547.00,0.0017
2546.00,0.0017
2545.00,0.0017
2544.00,0.0016
2543.00,0.0016
2542.00,0.0016
2541.00,0.0016
2540.00,0.0016
2539.00,0.0016
2538.00,0.0016
2537.00,0.0016
2536.00,0.0015
2535.00,0.0015
2534.00,0.0014
2533.00,0.0013
2532.00,0.0013
2531.00,0.0013
2530.00,0.0012
2529.00,0.0013
2528.00,0.0013
2527.00,0.0012
2526.00,0.0012
2525.00,0.0011
2524.00,0.0011
2523.00,0.0011
2522.00,0.0011
2521.00,0.0011
2520.00,0.0011
2519.00,0.0012
2518.00,0.0012
2517.00,0.0011
2516.00,0.0011
2515.00,0.0011
2514.00,0.0010
2513.00,0.0010
2512.00,0.0010
2511.00,0.0011
2510.00,0.0011
2509.00,0.0012
2508.00,0.0012
2507.00,0.0011
2506.00,0.0010
2505.00,0.0010
2504.00,0.0010
2503.00,0.0010
2502.00,0.0010
2501.00,0.0010
2500.00,0.0011
2499.00,0.0011
2498.00,0.0011
2497.00,0.0012
2496.00,0.0012
2495.00,0.0011
2494.00,0.0010
2493.00,0.0010
2492.00,0.0009
2491.00,0.0009
2490.00,0.0009
2489.00,0.0009
2488.00,0.0010
2487.00,0.0010
2486.00,0.0010
2485.00,0.0010
2484.00,0.0010
2483.00,0.0010
2482.00,0.0010
2481.00,0.0010
2480.00,0.0009
2479.00,0.0009
2478.00,0.0009
2477.00,0.0008
2476.00,0.0008
2475.00,0.0008
2474.00,0.0008
2473.00,0.0008
2472.00,0.0009
2471.00,0.0010
2470.00,0.0010
2469.00,0.0010
2468.00,0.0010
2467.00,0.0009
2466.00,0.0008
2465.00,0.0008
2464.00,0.0008
2463.00,0.0008
2462.00,0.0008
2461.00,0.0009
2460.00,0.0009
2459.00,0.0009
2458.00,0.0009
2457.00,0.0009
2456.00,0.0010
2455.00,0.0010
2454.00,0.0010
2453.00,0.0011
2452.00,0.0011
2451.00,0.0011
2450.00,0.0011
2449.00,0.0011
2448.00,0.0010
2447.00,0.0010
2446.00,0.0010
2445.00,0.0010
2444.00,0.0010
2443.00,0.0010
2442.00,0.0010
2441.00,0.0011
2440.00,0.0011
2439.00,0.0011
2438.00,0.0011
2437.00,0.0010
2436.00,0.0010
2435.00,0.0010
2434.00,0.0010
2433.00,0.0010
2432.00,0.0011
2431.00,0.0011
2430.00,0.0012
2429.00,0.0012
2428.00,0.0012
2427.00,0.0012
2426.00,0.0011
2425.00,0.0011
2424.00,0.0010
2423.00,0.0010
2422.00,0.0009
2421.00,0.0009
2420.00,0.0009
2419.00,0.0009
2418.00,0.0009
2417.00,0.0009
2416.00,0.0009
2415.00,0.0009
2414.00,0.0008
2413.00,0.0008
2412.00,0.0008
2411.00,0.0008
2410.00,0.0008
2409.00,0.0008
2408.00,0.0008
2407.00,0.0008
2406.00,0.0008
2405.00,0.0009
2404.00,0.0009
2403.00,0.0009
2402.00,0.0008
2401.00,0.0008
2400.00,0.0008
2399.00,0.0008
2398.00,0.0008
2397.00,0.0008
2396.00,0.0008
2395.00,0.0008
2394.00,0.0007
2393.00,0.0007
2392.00,0.0006
2391.00,0.0006
2390.00,0.0007
2389.00,0.0007
2388.00,0.0007
2387.00,0.0007
2386.00,0.0007
2385.00,0.0006
2384.00,0.0006
2383.00,0.0006
2382.00,0.0006
2381.00,0.0006
2380.00,0.0006
2379.00,0.0006
2378.00,0.0006
2377.00,0.0006
2376.00,0.0007
2375.00,0.0007
2374.00,0.0006
2373.00,0.0006
2372.00,0.0006
2371.00,0.0007
2370.00,0.0007
2369.00,0.0007
2368.00,0.0007
2367.00,0.0006
2366.00,0.0006
2365.00,0.0006
2364.00,0.0006
2363.00,0.0007
2362.00,0.0007
2361.00,0.0008
2360.00,0.0009
2359.00,0.0010
2358.00,0.0010
2357.00,0.0011
2356.00,0.0011
2355.00,0.0011
2354.00,0.0011
2353.00,0.0010
2352.00,0.0009
2351.00,0.0009
2350.00,0.0009
2349.00,0.0009
2348.00,0.0009
2347.00,0.0010
2346.00,0.0010
2345.00,0.0010
2344.00,0.0010
2343.00,0.0009
2342.00,0.0010
2341.00,0.0010
2340.00,0.0011
2339.00,0.0011
2338.00,0.0012
2337.00,0.0012
2336.00,0.0012
2335.00,0.0011
2334.00,0.0011
2333.00,0.0010
2332.00,0.0009
2331.00,0.0009
2330.00,0.0009
2329.00,0.0010
2328.00,0.0012
2327.00,0.0015
2326.00,0.0019
2325.00,0.0022
2324.00,0.0023
2323.00,0.0023
2322.00,0.0021
2321.00,0.0019
2320.00,0.0017
2319.00,0.0017
2318.00,0.0016
2317.00,0.0016
2316.00,0.0015
2315.00,0.0014
2314.00,0.0013
2313.00,0.0013
2312.00,0.0012
2311.00,0.0011
2310.00,0.0011
2309.00,0.0011
2308.00,0.0011
2307.00,0.0012
2306.00,0.0012
2305.00,0.0012
2304.00,0.0012
2303.00,0.0012
2302.00,0.0012
2301.00,0.0012
2300.00,0.0012
2299.00,0.0012
2298.00,0.0012
2297.00,0.0012
2296.00,0.0013
2295.00,0.0013
2294.00,0.0014
2293.00,0.0015
2292.00,0.0016
2291.00,0.0016
2290.00,0.0016
2289.00,0.0016
2288.00,0.0016
2287.00,0.0016
2286.00,0.0016
2285.00,0.0017
2284.00,0.0017
2283.00,0.0017
2282.00,0.0017
2281.00,0.0017
2280.00,0.0017
2279.00,0.0016
2278.00,0.0015
2277.00,0.0014
2276.00,0.0012
2275.00,0.0011
2274.00,0.0012
2273.00,0.0013
2272.00,0.0014
2271.00,0.0014
2270.00,0.0013
2269.00,0.0013
2268.00,0.0013
2267.00,0.0013
2266.00,0.0013
2265.00,0.0013
2264.00,0.0012
2263.00,0.0012
2262.00,0.0012
2261.00,0.0013
2260.00,0.0013
2259.00,0.0013
2258.00,0.0014
2257.00,0.0014
2256.00,0.0012
2255.00,0.0011
2254.00,0.0010
2253.00,0.0010
2252.00,0.0011
2251.00,0.0010
2250.00,0.0009
2249.00,0.0008
2248.00,0.0008
2247.00,0.0007
2246.00,0.0007
2245.00,0.0007
2244.00,0.0007
2243.00,0.0008
2242.00,0.0009
2241.00,0.0009
2240.00,0.0010
2239.00,0.0009
2238.00,0.0008
2237.00,0.0008
2236.00,0.0007
2235.00,0.0008
2234.00,0.0010
2233.00,0.0011
2232.00,0.0010
2231.00,0.0009
2230.00,0.0008
2229.00,0.0007
2228.00,0.0007
2227.00,0.0008
2226.00,0.0008
2225.00,0.0007
2224.00,0.0006
2223.00,0.0005
2222.00,0.0005
2221.00,0.0005
2220.00,0.0006
2219.00,0.0007
2218.00,0.0007
2217.00,0.0007
2216.00,0.0006
2215.00,0.0005
2214.00,0.0006
2213.00,0.0007
2212.00,0.0007
2211.00,0.0008
2210.00,0.0008
2209.00,0.0008
2208.00,0.0007
2207.00,0.0006
2206.00,0.0005
2205.00,0.0005
2204.00,0.0005
2203.00,0.0006
2202.00,0.0007
2201.00,0.0008
2200.00,0.0009
2199.00,0.0009
2198.00,0.0009
2197.00,0.0009
2196.00,0.0009
2195.00,0.0008
2194.00,0.0006
2193.00,0.0005
2192.00,0.0005
2191.00,0.0004
2190.00,0.0005
2189.00,0.0005
2188.00,0.0006
2187.00,0.0008
2186.00,0.0010
2185.00,0.0011
2184.00,0.0010
2183.00,0.0007
2182.00,0.0003
2181.00,0.0000
2180.00,-0.0001
2179.00,0.0001
2178.00,0.0003
2177.00,0.0006
2176.00,0.0006
2175.00,0.0005
2174.00,0.0003
2173.00,0.0003
2172.00,0.0003
2171.00,0.0005
2170.00,0.0007
2169.00,0.0007
2168.00,0.0007
2167.00,0.0007
2166.00,0.0008
2165.00,0.0011
2164.00,0.0015
2163.00,0.0018
2162.00,0.0019
2161.00,0.0016
2160.00,0.0007
2159.00,-0.0006
2158.00,-0.0017
2157.00,-0.0022
2156.00,-0.0023
2155.00,-0.0022
2154.00,-0.0022
2153.00,-0.0022
2152.00,-0.0021
2151.00,-0.0020
2150.00,-0.0018
2149.00,-0.0017
2148.00,-0.0017
2147.00,-0.0016
2146.00,-0.0016
2145.00,-0.0016
2144.00,-0.0015
2143.00,-0.0013
2142.00,-0.0011
2141.00,-0.0009
2140.00,-0.0007
2139.00,-0.0006
2138.00,-0.0007
2137.00,-0.0009
2136.00,-0.0012
2135.00,-0.0014
2134.00,-0.0016
2133.00,-0.0016
2132.00,-0.0016
2131.00,-0.0016
2130.00,-0.0016
2129.00,-0.0015
2128.00,-0.0014
2127.00,-0.0012
2126.00,-0.0010
2125.00,-0.0008
2124.00,-0.0006
2123.00,-0.0004
2122.00,-0.0004
2121.00,-0.0004
2120.00,-0.0005
2119.00,-0.0004
2118.00,-0.0003
2117.00,-0.0001
2116.00,0.0000
2115.00,0.0000
2114.00,0.0000
2113.00,0.0001
2112.00,0.0001
2111.00,0.0002
2110.00,0.0002
2109.00,0.0001
2108.00,0.0001
2107.00,0.0001
2106.00,0.0001
2105.00,0.0001
2104.00,0.0002
2103.00,0.0002
2102.00,0.0003
2101.00,0.0004
2100.00,0.0004
2099.00,0.0003
2098.00,0.0002
2097.00,-0.0001
2096.00,-0.0003
2095.00,-0.0004
2094.00,-0.0004
2093.00,-0.0003
2092.00,-0.0002
2091.00,-0.0002
2090.00,-0.0001
2089.00,-0.0000
2088.00,0.0001
2087.00,0.0001
2086.00,0.0002
2085.00,0.0003
2084.00,0.0004
2083.00,0.0005
2082.00,0.0005
2081.00,0.0004
2080.00,0.0004
2079.00,0.0004
2078.00,0.0003
2077.00,0.0004
2076.00,0.0004
2075.00,0.0004
2074.00,0.0003
2073.00,0.0003
2072.00,0.0002
2071.00,0.0001
2070.00,-0.0000
2069.00,-0.0001
2068.00,-0.0001
2067.00,0.0000
2066.00,0.0001
2065.00,0.0002
2064.00,0.0002
2063.00,0.0001
2062.00,-0.0000
2061.00,-0.0001
2060.00,-0.0000
2059.00,0.0000
2058.00,0.0001
2057.00,0.0002
2056.00,0.0003
2055.00,0.0003
2054.00,0.0004
2053.00,0.0006
2052.00,0.0011
2051.00,0.0014
2050.00,0.0014
2049.00,0.0010
2048.00,0.0005
2047.00,0.0001
2046.00,-0.0001
2045.00,-0.0003
2044.00,-0.0004
2043.00,-0.0005
2042.00,-0.0004
2041.00,-0.0002
2040.00,0.0001
2039.00,0.0002
2038.00,0.0002
2037.00,0.0000
2036.00,-0.0001
2035.00,-0.0001
2034.00,-0.0003
2033.00,-0.0006
2032.00,-0.0010
2031.00,-0.0012
2030.00,-0.0014
2029.00,-0.0014
2028.00,-0.0013
2027.00,-0.0011
2026.00,-0.0010
2025.00,-0.0008
2024.00,-0.0007
2023.00,-0.0007
2022.00,-0.0007
2021.00,-0.0008
2020.00,-0.0007
2019.00,-0.0006
2018.00,-0.0003
2017.00,-0.0001
2016.00,-0.0000
2015.00,-0.0001
2014.00,-0.0003
2013.00,-0.0005
2012.00,-0.0007
2011.00,-0.0009
2010.00,-0.0011
2009.00,-0.0012
2008.00,-0.0011
2007.00,-0.0010
2006.00,-0.0010
2005.00,-0.0010
2004.00,-0.0010
2003.00,-0.0009
2002.00,-0.0007
2001.00,-0.0005
2000.00,-0.0004
1999.00,-0.0002
1998.00,-0.0002
1997.00,-0.0003
1996.00,-0.0004
1995.00,-0.0006
1994.00,-0.0006
1993.00,-0.0004
1992.00,-0.0003
1991.00,-0.0003
1990.00,-0.0002
1989.00,-0.0000
1988.00,0.0003
1987.00,0.0005
1986.00,0.0006
1985.00,0.0006
1984.00,0.0006
1983.00,0.0006
1982.00,0.0007
1981.00,0.0010
1980.00,0.0011
1979.00,0.0008
1978.00,0.0003
1977.00,-0.0003
1976.00,-0.0006
1975.00,-0.0007
1974.00,-0.0005
1973.00,-0.0004
1972.00,-0.0003
1971.00,-0.0005
1970.00,-0.0007
1969.00,-0.0009
1968.00,-0.0010
1967.00,-0.0012
1966.00,-0.0013
1965.00,-0.0014
1964.00,-0.0013
1963.00,-0.0011
1962.00,-0.0010
1961.00,-0.0011
1960.00,-0.0013
1959.00,-0.0015
1958.00,-0.0015
1957.00,-0.0015
1956.00,-0.0014
1955.00,-0.0013
1954.00,-0.0012
1953.00,-0.0011
1952.00,-0.0010
1951.00,-0.0011
1950.00,-0.0012
1949.00,-0.0012
1948.00,-0.0012
1947.00,-0.0012
1946.00,-0.0012
1945.00,-0.0011
1944.00,-0.0011
1943.00,-0.0011
1942.00,-0.0011
1941.00,-0.0012
1940.00,-0.0011
1939.00,-0.0011
1938.00,-0.0010
1937.00,-0.0010
1936.00,-0.0009
1935.00,-0.0009
1934.00,-0.0009
1933.00,-0.0010
1932.00,-0.0011
1931.00,-0.0011
1930.00,-0.0010
1929.00,-0.0008
1928.00,-0.0007
1927.00,-0.0007
1926.00,-0.0008
1925.00,-0.0009
1924.00,-0.0008
1923.00,-0.0007
1922.00,-0.0005
1921.00,-0.0003
1920.00,-0.0002
1919.00,-0.0002
1918.00,-0.0003
1917.00,-0.0004
1916.00,-0.0004
1915.00,-0.0004
1914.00,-0.0004
1913.00,-0.0004
1912.00,-0.0003
1911.00,-0.0004
1910.00,-0.0005
1909.00,-0.0006
1908.00,-0.0007
1907.00,-0.0007
1906.00,-0.0006
1905.00,-0.0004
1904.00,-0.0002
1903.00,-0.0001
1902.00,-0.0001
1901.00,-0.0002
1900.00,-0.0002
1899.00,-0.0003
1898.00,-0.0002
1897.00,-0.0001
1896.00,-0.0000
1895.00,-0.0001
1894.00,-0.0002
1893.00,-0.0002
1892.00,-0.0002
1891.00,-0.0001
1890.00,0.0000
1889.00,0.0001
1888.00,0.0000
1887.00,-0.0001
1886.00,-0.0002
1885.00,-0.0002
1884.00,-0.0001
1883.00,0.0000
1882.00,0.0001
1881.00,0.0001
1880.00,-0.0000
1879.00,-0.0002
1878.00,-0.0003
1877.00,-0.0003
1876.00,-0.0002
1875.00,-0.0002
1874.00,-0.0002
1873.00,-0.0002
1872.00,-0.0002
1871.00,-0.0002
1870.00,-0.0002
1869.00,-0.0001
1868.00,-0.0001
1867.00,-0.0001
1866.00,-0.0001
1865.00,-0.0001
1864.00,-0.0000
1863.00,0.0001
1862.00,0.0001
1861.00,0.0001
1860.00,0.0000
1859.00,-0.0000
1858.00,-0.0000
1857.00,-0.0000
1856.00,0.0000
1855.00,0.0001
1854.00,0.0001
1853.00,0.0001
1852.00,0.0001
1851.00,0.0001
1850.00,0.0000
1849.00,-0.0000
1848.00,-0.0001
1847.00,-0.0001
1846.00,-0.0001
1845.00,-0.0001
1844.00,0.0000
1843.00,0.0001
1842.00,0.0001
1841.00,0.0002
1840.00,0.0002
1839.00,0.0002
1838.00,0.0002
1837.00,0.0002
1836.00,0.0002
1835.00,0.0002
1834.00,0.0001
1833.00,0.0001
1832.00,0.0001
1831.00,0.0001
1830.00,0.0001
1829.00,0.0002
1828.00,0.0003
1827.00,0.0003
1826.00,0.0002
1825.00,0.0002
1824.00,0.0001
1823.00,0.0001
1822.00,0.0001
1821.00,0.0001
1820.00,0.0001
1819.00,0.0000
1818.00,-0.0000
1817.00,-0.0001
1816.00,-0.0000
1815.00,0.0000
1814.00,0.0001
1813.00,0.0001
1812.00,0.0002
1811.00,0.0002
1810.00,0.0002
1809.00,0.0002
1808.00,0.0003
1807.00,0.0004
1806.00,0.0004
1805.00,0.0004
1804.00,0.0004
1803.00,0.0003
1802.00,0.0003
1801.00,0.0003
1800.00,0.0004
1799.00,0.0004
1798.00,0.0005
1797.00,0.0005
1796.00,0.0005
1795.00,0.0005
1794.00,0.0005
1793.00,0.0005
1792.00,0.0005
1791.00,0.0005
1790.00,0.0005
1789.00,0.0005
1788.00,0.0006
1787.00,0.0006
1786.00,0.0006
1785.00,0.0005
1784.00,0.0005
1783.00,0.0005
1782.00,0.0005
1781.00,0.0005
1780.00,0.0006
1779.00,0.0006
1778.00,0.0006
1777.00,0.0006
1776.00,0.0006
1775.00,0.0006
1774.00,0.0006
1773.00,0.0005
1772.00,0.0005
1771.00,0.0006
1770.00,0.0007
1769.00,0.0008
1768.00,0.0008
1767.00,0.0007
1766.00,0.0007
1765.00,0.0007
1764.00,0.0007
1763.00,0.0008
1762.00,0.0009
1761.00,0.0009
1760.00,0.0010
1759.00,0.0010
1758.00,0.0009
1757.00,0.0009
1756.00,0.0009
1755.00,0.0010
1754.00,0.0010
1753.00,0.0011
1752.00,0.0011
1751.00,0.0012
1750.00,0.0012
1749.00,0.0012
1748.00,0.0012
1747.00,0.0013
1746.00,0.0014
1745.00,0.0015
1744.00,0.0017
1743.00,0.0017
1742.00,0.0018
1741.00,0.0018
1740.00,0.0018
1739.00,0.0018
1738.00,0.0019
1737.00,0.0019
1736.00,0.0019
1735.00,0.0020
1734.00,0.0020
1733.00,0.0021
1732.00,0.0021
1731.00,0.0021
1730.00,0.0020
1729.00,0.0020
1728.00,0.0019
1727.00,0.0019
1726.00,0.0020
1725.00,0.0020
1724.00,0.0021
1723.00,0.0021
1722.00,0.0020
1721.00,0.0020
1720.00,0.0019
1719.00,0.0019
1718.00,0.0018
1717.00,0.0018
1716.00,0.0017
1715.00,0.0017
1714.00,0.0016
1713.00,0.0016
1712.00,0.0016
1711.00,0.0016
1710.00,0.0016
1709.00,0.0016
1708.00,0.0016
1707.00,0.0016
1706.00,0.0015
1705.00,0.0015
1704.00,0.0015
1703.00,0.0015
1702.00,0.0016
1701.00,0.0016
1700.00,0.0016
1699.00,0.0016
1698.00,0.0017
1697.00,0.0017
1696.00,0.0017
1695.00,0.0017
1694.00,0.0017
1693.00,0.0017
1692.00,0.0017
1691.00,0.0017
1690.00,0.0018
1689.00,0.0018
1688.00,0.0019
1687.00,0.0019
1686.00,0.0019
1685.00,0.0019
1684.00,0.0019
1683.00,0.0019
1682.00,0.0019
1681.00,0.0019
1680.00,0.0019
1679.00,0.0019
1678.00,0.0019
1677.00,0.0020
1676.00,0.0020
1675.00,0.0020
1674.00,0.0020
1673.00,0.0020
1672.00,0.0020
1671.00,0.0020
1670.00,0.0020
1669.00,0.0021
1668.00,0.0021
1667.00,0.0022
1666.00,0.0022
1665.00,0.0023
1664.00,0.0023
1663.00,0.0023
1662.00,0.0023
1661.00,0.0023
1660.00,0.0023
1659.00,0.0023
1658.00,0.0023
1657.00,0.0023
1656.00,0.0023
1655.00,0.0022
1654.00,0.0022
1653.00,0.0022
1652.00,0.0024
1651.00,0.0025
1650.00,0.0025
1649.00,0.0026
1648.00,0.0026
1647.00,0.0027
1646.00,0.0028
1645.00,0.0028
1644.00,0.0028
1643.00,0.0029
1642.00,0.0029
1641.00,0.0030
1640.00,0.0030
1639.00,0.0030
1638.00,0.0031
1637.00,0.0031
1636.00,0.0031
1635.00,0.0031
1634.00,0.0031
1633.00,0.0031
1632.00,0.0031
1631.00,0.0030
1630.00,0.0030
1629.00,0.0030
1628.00,0.0030
1627.00,0.0029
1626.00,0.0029
1625.00,0.0028
1624.00,0.0028
1623.00,0.0028
1622.00,0.0027
1621.00,0.0027
1620.00,0.0027
1619.00,0.0027
1618.00,0.0027
1617.00,0.0027
1616.00,0.0027
1615.00,0.0027
1614.00,0.0027
1613.00,0.0028
1612.00,0.0028
1611.00,0.0028
1610.00,0.0028
1609.00,0.0028
1608.00,0.0027
1607.00,0.0027
1606.00,0.0027
1605.00,0.0027
1604.00,0.0028
1603.00,0.0027
1602.00,0.0027
1601.00,0.0027
1600.00,0.0027
1599.00,0.0027
1598.00,0.0027
1597.00,0.0027
1596.00,0.0027
1595.00,0.0028
1594.00,0.0027
1593.00,0.0028
1592.00,0.0028
1591.00,0.0028
1590.00,0.0028
1589.00,0.0028
1588.00,0.0028
1587.00,0.0028
1586.00,0.0028
1585.00,0.0029
1584.00,0.0030
1583.00,0.0030
1582.00,0.0030
1581.00,0.0031
1580.00,0.0031
1579.00,0.0031
1578.00,0.0032
1577.00,0.0032
1576.00,0.0032
1575.00,0.0032
1574.00,0.0032
1573.00,0.0032
1572.00,0.0032
1571.00,0.0032
1570.00,0.0032
1569.00,0.0033
1568.00,0.0033
1567.00,0.0032
1566.00,0.0032
1565.00,0.0032
1564.00,0.0032
1563.00,0.0032
1562.00,0.0032
1561.00,0.0032
1560.00,0.0032
1559.00,0.0032
1558.00,0.0032
1557.00,0.0033
1556.00,0.0033
1555.00,0.0033
1554.00,0.0033
1553.00,0.0033
1552.00,0.0033
1551.00,0.0034
1550.00,0.0034
1549.00,0.0034
1548.00,0.0034
1547.00,0.0035
1546.00,0.0035
1545.00,0.0035
1544.00,0.0035
1543.00,0.0035
1542.00,0.0035
1541.00,0.0035
1540.00,0.0035
1539.00,0.0035
1538.00,0.0035
1537.00,0.0035
1536.00,0.0035
1535.00,0.0034
1534.00,0.0033
1533.00,0.0032
1532.00,0.0033
1531.00,0.0032
1530.00,0.0032
1529.00,0.0032
1528.00,0.0033
1527.00,0.0033
1526.00,0.0033
1525.00,0.0033
1524.00,0.0033
1523.00,0.0033
1522.00,0.0032
1521.00,0.0033
1520.00,0.0034
1519.00,0.0034
1518.00,0.0035
1517.00,0.0035
1516.00,0.0035
1515.00,0.0036
1514.00,0.0036
1513.00,0.0037
1512.00,0.0037
1511.00,0.0037
1510.00,0.0037
1509.00,0.0037
1508.00,0.0037
1507.00,0.0037
1506.00,0.0038
1505.00,0.0040
1504.00,0.0042
1503.00,0.0044
1502.00,0.0045
1501.00,0.0047
1500.00,0.0049
1499.00,0.0051
1498.00,0.0051
1497.00,0.0053
1496.00,0.0055
1495.00,0.0056
1494.00,0.0058
1493.00,0.0060
1492.00,0.0062
1491.00,0.0064
1490.00,0.0067
1489.00,0.0071
1488.00,0.0076
1487.00,0.0079
1486.00,0.0082
1485.00,0.0086
1484.00,0.0090
1483.00,0.0095
1482.00,0.0102
1481.00,0.0109
1480.00,0.0118
1479.00,0.0127
1478.00,0.0138
1477.00,0.0153
1476.00,0.0172
1475.00,0.0194
1474.00,0.0223
1473.00,0.0265
1472.00,0.0316
1471.00,0.0364
1470.00,0.0411
1469.00,0.0460
1468.00,0.0513
1467.00,0.0570
1466.00,0.0636
1465.00,0.0705
1464.00,0.0765
1463.00,0.0806
1462.00,0.0831
1461.00,0.0847
1460.00,0.0858
1459.00,0.0866
1458.00,0.0873
1457.00,0.0881
1456.00,0.0883
1455.00,0.0877
1454.00,0.0867
1453.00,0.0852
1452.00,0.0831
1451.00,0.0803
1450.00,0.0765
1449.00,0.0714
1448.00,0.0649
1447.00,0.0580
1446.00,0.0518
1445.00,0.0464
1444.00,0.0418
1443.00,0.0379
1442.00,0.0350
1441.00,0.0329
1440.00,0.0316
1439.00,0.0310
1438.00,0.0310
1437.00,0.0310
1436.00,0.0302
1435.00,0.0284
1434.00,0.0258
1433.00,0.0227
1432.00,0.0195
1431.00,0.0167
1430.00,0.0145
1429.00,0.0128
1428.00,0.0117
1427.00,0.0109
1426.00,0.0104
1425.00,0.0099
1424.00,0.0095
1423.00,0.0093
1422.00,0.0091
1421.00,0.0089
1420.00,0.0087
1419.00,0.0085
1418.00,0.0084
1417.00,0.0082
1416.00,0.0081
1415.00,0.0081
1414.00,0.0080
1413.00,0.0080
1412.00,0.0078
1411.00,0.0078
1410.00,0.0078
1409.00,0.0077
1408.00,0.0077
1407.00,0.0077
1406.00,0.0078
1405.00,0.0078
1404.00,0.0077
1403.00,0.0077
1402.00,0.0079
1401.00,0.0079
1400.00,0.0080
1399.00,0.0081
1398.00,0.0083
1397.00,0.0085
1396.00,0.0087
1395.00,0.0089
1394.00,0.0093
1393.00,0.0097
1392.00,0.0101
1391.00,0.0107
1390.00,0.0115
1389.00,0.0126
1388.00,0.0142
1387.00,0.0166
1386.00,0.0199
1385.00,0.0242
1384.00,0.0300
1383.00,0.0382
1382.00,0.0493
1381.00,0.0635
1380.00,0.0809
1379.00,0.1004
1378.00,0.1188
1377.00,0.1318
1376.00,0.1356
1375.00,0.1283
1374.00,0.1120
1373.00,0.0925
1372.00,0.0746
1371.00,0.0599
1370.00,0.0482
1369.00,0.0394
1368.00,0.0333
1367.00,0.0296
1366.00,0.0275
1365.00,0.0267
1364.00,0.0268
1363.00,0.0278
1362.00,0.0292
1361.00,0.0308
1360.00,0.0320
1359.00,0.0323
1358.00,0.0315
1357.00,0.0297
1356.00,0.0272
1355.00,0.0243
1354.00,0.0216
1353.00,0.0192
1352.00,0.0173
1351.00,0.0158
1350.00,0.0145
1349.00,0.0134
1348.00,0.0125
1347.00,0.0118
1346.00,0.0111
1345.00,0.0106
1344.00,0.0102
1343.00,0.0099
1342.00,0.0096
1341.00,0.0093
1340.00,0.0090
1339.00,0.0088
1338.00,0.0087
1337.00,0.0087
1336.00,0.0088
1335.00,0.0090
1334.00,0.0092
1333.00,0.0095
1332.00,0.0099
1331.00,0.0101
1330.00,0.0101
1329.00,0.0099
1328.00,0.0097
1327.00,0.0093
1326.00,0.0090
1325.00,0.0086
1324.00,0.0082
1323.00,0.0078
1322.00,0.0075
1321.00,0.0073
1320.00,0.0071
1319.00,0.0070
1318.00,0.0069
1317.00,0.0068
1316.00,0.0068
1315.00,0.0067
1314.00,0.0067
1313.00,0.0067
1312.00,0.0068
1311.00,0.0070
1310.00,0.0073
1309.00,0.0078
1308.00,0.0085
1307.00,0.0094
1306.00,0.0102
1305.00,0.0108
1304.00,0.0110
1303.00,0.0108
1302.00,0.0104
1301.00,0.0099
1300.00,0.0097
1299.00,0.0095
1298.00,0.0095
1297.00,0.0095
1296.00,0.0095
1295.00,0.0093
1294.00,0.0090
1293.00,0.0087
1292.00,0.0083
1291.00,0.0080
1290.00,0.0076
1289.00,0.0073
1288.00,0.0070
1287.00,0.0068
1286.00,0.0067
1285.00,0.0066
1284.00,0.0065
1283.00,0.0064
1282.00,0.0063
1281.00,0.0063
1280.00,0.0062
1279.00,0.0062
1278.00,0.0061
1277.00,0.0061
1276.00,0.0061
1275.00,0.0061
1274.00,0.0061
1273.00,0.0061
1272.00,0.0062
1271.00,0.0062
1270.00,0.0063
1269.00,0.0064
1268.00,0.0066
1267.00,0.0068
1266.00,0.0070
1265.00,0.0072
1264.00,0.0074
1263.00,0.0076
1262.00,0.0078
1261.00,0.0081
1260.00,0.0085
1259.00,0.0091
1258.00,0.0096
1257.00,0.0101
1256.00,0.0103
1255.00,0.0101
1254.00,0.0097
1253.00,0.0091
1252.00,0.0085
1251.00,0.0080
1250.00,0.0076
1249.00,0.0072
1248.00,0.0070
1247.00,0.0068
1246.00,0.0066
1245.00,0.0065
1244.00,0.0064
1243.00,0.0064
1242.00,0.0064
1241.00,0.0063
1240.00,0.0063
1239.00,0.0062
1238.00,0.0061
1237.00,0.0061
1236.00,0.0061
1235.00,0.0061
1234.00,0.0061
1233.00,0.0062
1232.00,0.0062
1231.00,0.0063
1230.00,0.0063
1229.00,0.0064
1228.00,0.0065
1227.00,0.0066
1226.00,0.0067
1225.00,0.0069
1224.00,0.0071
1223.00,0.0074
1222.00,0.0076
1221.00,0.0078
1220.00,0.0079
1219.00,0.0078
1218.00,0.0077
1217.00,0.0076
1216.00,0.0074
1215.00,0.0073
1214.00,0.0071
1213.00,0.0069
1212.00,0.0067
1211.00,0.0066
1210.00,0.0065
1209.00,0.0065
1208.00,0.0064
1207.00,0.0063
1206.00,0.0063
1205.00,0.0062
1204.00,0.0061
1203.00,0.0061
1202.00,0.0061
1201.00,0.0061
1200.00,0.0061
1199.00,0.0061
1198.00,0.0061
1197.00,0.0060
1196.00,0.0060
1195.00,0.0059
1194.00,0.0059
1193.00,0.0058
1192.00,0.0058
1191.00,0.0058
1190.00,0.0058
1189.00,0.0058
1188.00,0.0059
1187.00,0.0059
1186.00,0.0060
1185.00,0.0061
1184.00,0.0062
1183.00,0.0063
1182.00,0.0065
1181.00,0.0066
1180.00,0.0069
1179.00,0.0073
1178.00,0.0078
1177.00,0.0085
1176.00,0.0093
1175.00,0.0105
1174.00,0.0120
1173.00,0.0140
1172.00,0.0163
1171.00,0.0189
1170.00,0.0214
1169.00,0.0234
1168.00,0.0245
1167.00,0.0247
1166.00,0.0239
1165.00,0.0227
1164.00,0.0213
1163.00,0.0199
1162.00,0.0187
1161.00,0.0177
1160.00,0.0170
1159.00,0.0164
1158.00,0.0161
1157.00,0.0158
1156.00,0.0156
1155.00,0.0154
1154.00,0.0152
1153.00,0.0149
1152.00,0.0145
1151.00,0.0139
1150.00,0.0133
1149.00,0.0125
1148.00,0.0118
1147.00,0.0111
1146.00,0.0105
1145.00,0.0098
1144.00,0.0092
1143.00,0.0087
1142.00,0.0082
1141.00,0.0078
1140.00,0.0074
1139.00,0.0071
1138.00,0.0068
1137.00,0.0066
1136.00,0.0063
1135.00,0.0061
1134.00,0.0060
1133.00,0.0059
1132.00,0.0058
1131.00,0.0058
1130.00,0.0058
1129.00,0.0059
1128.00,0.0059
1127.00,0.0060
1126.00,0.0061
1125.00,0.0061
1124.00,0.0060
1123.00,0.0059
1122.00,0.0059
1121.00,0.0059
1120.00,0.0060
1119.00,0.0060
1118.00,0.0061
1117.00,0.0062
1116.00,0.0062
1115.00,0.0063
1114.00,0.0063
1113.00,0.0065
1112.00,0.0066
1111.00,0.0068
1110.00,0.0070
1109.00,0.0073
1108.00,0.0077
1107.00,0.0081
1106.00,0.0085
1105.00,0.0089
1104.00,0.0093
1103.00,0.0095
1102.00,0.0095
1101.00,0.0092
1100.00,0.0089
1099.00,0.0085
1098.00,0.0082
1097.00,0.0079
1096.00,0.0075
1095.00,0.0072
1094.00,0.0069
1093.00,0.0067
1092.00,0.0064
1091.00,0.0063
1090.00,0.0062
1089.00,0.0062
1088.00,0.0062
1087.00,0.0063
1086.00,0.0064
1085.00,0.0063
1084.00,0.0062
1083.00,0.0061
1082.00,0.0061
1081.00,0.0060
1080.00,0.0060
1079.00,0.0060
1078.00,0.0059
1077.00,0.0059
1076.00,0.0058
1075.00,0.0057
1074.00,0.0056
1073.00,0.0056
1072.00,0.0056
1071.00,0.0056
1070.00,0.0056
1069.00,0.0056
1068.00,0.0056
1067.00,0.0056
1066.00,0.0057
1065.00,0.0059
1064.00,0.0060
1063.00,0.0061
1062.00,0.0063
1061.00,0.0064
1060.00,0.0065
1059.00,0.0067
1058.00,0.0067
1057.00,0.0068
1056.00,0.0069
1055.00,0.0070
1054.00,0.0072
1053.00,0.0075
1052.00,0.0078
1051.00,0.0082
1050.00,0.0085
1049.00,0.0089
1048.00,0.0092
1047.00,0.0095
1046.00,0.0099
1045.00,0.0101
1044.00,0.0102
1043.00,0.0101
1042.00,0.0100
1041.00,0.0098
1040.00,0.0097
1039.00,0.0097
1038.00,0.0097
1037.00,0.0097
1036.00,0.0097
1035.00,0.0097
1034.00,0.0096
1033.00,0.0095
1032.00,0.0094
1031.00,0.0092
1030.00,0.0091
1029.00,0.0091
1028.00,0.0091
1027.00,0.0092
1026.00,0.0094
1025.00,0.0096
1024.00,0.0098
1023.00,0.0100
1022.00,0.0102
1021.00,0.0104
1020.00,0.0105
1019.00,0.0106
1018.00,0.0107
1017.00,0.0107
1016.00,0.0107
1015.00,0.0107
1014.00,0.0106
1013.00,0.0106
1012.00,0.0106
1011.00,0.0107
1010.00,0.0107
1009.00,0.0108
1008.00,0.0110
1007.00,0.0115
1006.00,0.0122
1005.00,0.0131
1004.00,0.0145
1003.00,0.0163
1002.00,0.0186
1001.00,0.0214
1000.00,0.0245
999.00,0.0272
998.00,0.0285
997.00,0.0279
996.00,0.0257
995.00,0.0225
994.00,0.0193
993.00,0.0165
992.00,0.0143
991.00,0.0126
990.00,0.0114
989.00,0.0106
988.00,0.0101
987.00,0.0098
986.00,0.0098
985.00,0.0099
984.00,0.0103
983.00,0.0108
982.00,0.0116
981.00,0.0128
980.00,0.0144
979.00,0.0167
978.00,0.0195
977.00,0.0230
976.00,0.0267
975.00,0.0303
974.00,0.0329
973.00,0.0338
972.00,0.0326
971.00,0.0294
970.00,0.0251
969.00,0.0208
968.00,0.0172
967.00,0.0145
966.00,0.0126
965.00,0.0113
964.00,0.0103
963.00,0.0095
962.00,0.0089
961.00,0.0085
960.00,0.0082
959.00,0.0080
958.00,0.0077
957.00,0.0075
956.00,0.0073
955.00,0.0071
954.00,0.0069
953.00,0.0067
952.00,0.0066
951.00,0.0066
950.00,0.0066
949.00,0.0065
948.00,0.0065
947.00,0.0065
946.00,0.0065
945.00,0.0067
944.00,0.0070
943.00,0.0073
942.00,0.0075
941.00,0.0076
940.00,0.0076
939.00,0.0074
938.00,0.0071
937.00,0.0066
936.00,0.0062
935.00,0.0059
934.00,0.0057
933.00,0.0056
932.00,0.0054
931.00,0.0053
930.00,0.0053
929.00,0.0052
928.00,0.0051
927.00,0.0051
926.00,0.0050
925.00,0.0051
924.00,0.0051
923.00,0.0052
922.00,0.0053
921.00,0.0053
920.00,0.0053
919.00,0.0052
918.00,0.0052
917.00,0.0052
916.00,0.0052
915.00,0.0053
914.00,0.0054
913.00,0.0054
912.00,0.0055
911.00,0.0057
910.00,0.0058
909.00,0.0060
908.00,0.0062
907.00,0.0065
906.00,0.0070
905.00,0.0077
904.00,0.0088
903.00,0.0102
902.00,0.0116
901.00,0.0129
900.00,0.0138
899.00,0.0139
898.00,0.0134
897.00,0.0124
896.00,0.0111
895.00,0.0098
894.00,0.0087
893.00,0.0078
892.00,0.0072
891.00,0.0067
890.00,0.0064
889.00,0.0061
888.00,0.0059
887.00,0.0057
886.00,0.0057
885.00,0.0057
884.00,0.0057
883.00,0.0058
882.00,0.0059
881.00,0.0059
880.00,0.0059
879.00,0.0058
878.00,0.0057
877.00,0.0057
876.00,0.0057
875.00,0.0058
874.00,0.0060
873.00,0.0061
872.00,0.0061
871.00,0.0061
870.00,0.0060
869.00,0.0059
868.00,0.0059
867.00,0.0060
866.00,0.0062
865.00,0.0062
864.00,0.0063
863.00,0.0064
862.00,0.0065
861.00,0.0066
860.00,0.0068
859.00,0.0070
858.00,0.0071
857.00,0.0073
856.00,0.0074
855.00,0.0075
854.00,0.0077
853.00,0.0079
852.00,0.0081
851.00,0.0085
850.00,0.0090
849.00,0.0096
848.00,0.0104
847.00,0.0114
846.00,0.0130
845.00,0.0155
844.00,0.0192
843.00,0.0235
842.00,0.0271
841.00,0.0282
840.00,0.0264
839.00,0.0224
838.00,0.0180
837.00,0.0145
836.00,0.0123
835.00,0.0111
834.00,0.0104
833.00,0.0098
832.00,0.0093
831.00,0.0090
830.00,0.0089
829.00,0.0088
828.00,0.0085
827.00,0.0082
826.00,0.0080
825.00,0.0079
824.00,0.0080
823.00,0.0081
822.00,0.0082
821.00,0.0082
820.00,0.0083
819.00,0.0085
818.00,0.0088
817.00,0.0092
816.00,0.0099
815.00,0.0107
814.00,0.0119
813.00,0.0133
812.00,0.0149
811.00,0.0163
810.00,0.0174
809.00,0.0179
808.00,0.0176
807.00,0.0167
806.00,0.0153
805.00,0.0138
804.00,0.0125
803.00,0.0115
802.00,0.0108
801.00,0.0103
800.00,0.0098
799.00,0.0094
798.00,0.0090
797.00,0.0087
796.00,0.0084
795.00,0.0080
794.00,0.0075
793.00,0.0072
792.00,0.0069
791.00,0.0068
790.00,0.0067
789.00,0.0065
788.00,0.0064
787.00,0.0062
786.00,0.0059
785.00,0.0057
784.00,0.0054
783.00,0.0053
782.00,0.0054
781.00,0.0055
780.00,0.0055
779.00,0.0054
778.00,0.0053
777.00,0.0053
776.00,0.0053
775.00,0.0054
774.00,0.0055
773.00,0.0054
772.00,0.0054
771.00,0.0055
770.00,0.0055
769.00,0.0055
768.00,0.0053
767.00,0.0052
766.00,0.0052
765.00,0.0051
764.00,0.0051
763.00,0.0052
762.00,0.0052
761.00,0.0053
760.00,0.0053
759.00,0.0054
758.00,0.0055
757.00,0.0057
756.00,0.0059
755.00,0.0060
754.00,0.0061
753.00,0.0062
752.00,0.0063
751.00,0.0063
750.00,0.0062
749.00,0.0062
748.00,0.0063
747.00,0.0063
746.00,0.0065
745.00,0.0066
744.00,0.0069
743.00,0.0071
742.00,0.0073
741.00,0.0076
740.00,0.0080
739.00,0.0084
738.00,0.0088
737.00,0.0091
736.00,0.0092
735.00,0.0092
734.00,0.0094
733.00,0.0097
732.00,0.0102
731.00,0.0108
730.00,0.0113
729.00,0.0117
728.00,0.0119
727.00,0.0119
726.00,0.0120
725.00,0.0121
724.00,0.0123
723.00,0.0127
722.00,0.0132
721.00,0.0136
720.00,0.0137
719.00,0.0133
718.00,0.0124
717.00,0.0115
716.00,0.0107
715.00,0.0101
714.00,0.0097
713.00,0.0094
712.00,0.0091
711.00,0.0088
710.00,0.0084
709.00,0.0081
708.00,0.0079
707.00,0.0079
706.00,0.0078
705.00,0.0078
704.00,0.0078
703.00,0.0079
702.00,0.0079
701.00,0.0078
700.00,0.0077
699.00,0.0076
698.00,0.0075
697.00,0.0074
696.00,0.0072
695.00,0.0071
694.00,0.0072
693.00,0.0074
692.00,0.0076
691.00,0.0077
690.00,0.0077
689.00,0.0077
688.00,0.0078
687.00,0.0079
686.00,0.0078
685.00,0.0077
684.00,0.0076
683.00,0.0074
682.00,0.0073
681.00,0.0071
680.00,0.0069
679.00,0.0068
678.00,0.0068
677.00,0.0069
676.00,0.0072
675.00,0.0075
674.00,0.0077
673.00,0.0079
672.00,0.0081
671.00,0.0084
670.00,0.0086
669.00,0.0088
668.00,0.0089
667.00,0.0088
666.00,0.0084
665.00,0.0080
664.00,0.0078
663.00,0.0077
662.00,0.0077
661.00,0.0076
660.00,0.0076
659.00,0.0075
658.00,0.0073
657.00,0.0069
656.00,0.0067
655.00,0.0066
654.00,0.0067
653.00,0.0068
652.00,0.0069
651.00,0.0070
650.00,0.0070
649.00,0.0070
648.00,0.0071
647.00,0.0071
646.00,0.0072
645.00,0.0072
644.00,0.0071
643.00,0.0070
642.00,0.0069
641.00,0.0068
640.00,0.0068
639.00,0.0068
638.00,0.0068
637.00,0.0066
636.00,0.0065
635.00,0.0063
634.00,0.0063
633.00,0.0062
632.00,0.0062
631.00,0.0063
630.00,0.0065
629.00,0.0067
628.00,0.0068
627.00,0.0068
626.00,0.0067
625.00,0.0066
624.00,0.0066
623.00,0.0066
622.00,0.0067
621.00,0.0067
620.00,0.0066
619.00,0.0064
618.00,0.0063
617.00,0.0063
616.00,0.0065
615.00,0.0068
614.00,0.0070
613.00,0.0070
612.00,0.0069
611.00,0.0070
610.00,0.0071
609.00,0.0072
608.00,0.0071
607.00,0.0069
606.00,0.0067
605.00,0.0066
604.00,0.0066
603.00,0.0067
602.00,0.0068
601.00,0.0068
600.00,0.0067
599.00,0.0066
598.00,0.0065
597.00,0.0066
596.00,0.0066
595.00,0.0066
594.00,0.0067
593.00,0.0069
592.00,0.0072
591.00,0.0073
590.00,0.0071
589.00,0.0067
588.00,0.0063
587.00,0.0062
586.00,0.0063
585.00,0.0065
584.00,0.0068
583.00,0.0070
582.00,0.0071
581.00,0.0072
580.00,0.0072
579.00,0.0072
578.00,0.0070
577.00,0.0068
576.00,0.0067
575.00,0.0066
574.00,0.0065
573.00,0.0064
572.00,0.0066
571.00,0.0069
570.00,0.0073
569.00,0.0075
568.00,0.0077
567.00,0.0079
566.00,0.0079
565.00,0.0078
564.00,0.0075
563.00,0.0072
562.00,0.0071
561.00,0.0070
560.00,0.0070
559.00,0.0072
558.00,0.0073
557.00,0.0074
556.00,0.0073
555.00,0.0071
554.00,0.0070
553.00,0.0069
552.00,0.0069
551.00,0.0068
550.00,0.0067
549.00,0.0066
548.00,0.0067
547.00,0.0070
546.00,0.0074
545.00,0.0076
544.00,0.0077
543.00,0.0078
542.00,0.0082
541.00,0.0090
540.00,0.0098
539.00,0.0103
538.00,0.0102
537.00,0.0097
536.00,0.0093
535.00,0.0092
534.00,0.0094
533.00,0.0096
532.00,0.0098
531.00,0.0098
530.00,0.0096
529.00,0.0095
528.00,0.0093
527.00,0.0091
526.00,0.0087
525.00,0.0083
524.00,0.0081
523.00,0.0081
522.00,0.0082
521.00,0.0084
520.00,0.0086
519.00,0.0088
518.00,0.0090
517.00,0.0088
516.00,0.0083
515.00,0.0077
514.00,0.0073
513.00,0.0070
512.00,0.0068
511.00,0.0068
510.00,0.0069
509.00,0.0069
508.00,0.0068
507.00,0.0066
506.00,0.0062
505.00,0.0060
504.00,0.0060
503.00,0.0061
502.00,0.0063
501.00,0.0064
500.00,0.0066
499.00,0.0072
498.00,0.0079
497.00,0.0083
496.00,0.0081
495.00,0.0074
494.00,0.0064
493.00,0.0058
492.00,0.0058
491.00,0.0064
490.00,0.0070
489.00,0.0073
488.00,0.0078
487.00,0.0087
486.00,0.0095
485.00,0.0093
484.00,0.0078
483.00,0.0063
482.00,0.0058
481.00,0.0063
480.00,0.0073
479.00,0.0079
478.00,0.0083
477.00,0.0087
476.00,0.0095
475.00,0.0105
474.00,0.0112
473.00,0.0112
472.00,0.0104
471.00,0.0097
470.00,0.0099
469.00,0.0108
468.00,0.0120
467.00,0.0128
466.00,0.0133
465.00,0.0135
464.00,0.0135
463.00,0.0136
462.00,0.0143
461.00,0.0156
460.00,0.0171
459.00,0.0180
458.00,0.0180
457.00,0.0175
456.00,0.0173
455.00,0.0176
454.00,0.0179
453.00,0.0179
452.00,0.0174
451.00,0.0165
450.00,0.0153
