Created as New Dataset,Sample 083 By Administrator Date Thursday, September 04 2025
cm-1,A
4000.00,0.0010
3999.00,0.0010
3998.00,0.0010
3997.00,0.0010
3996.00,0.0010
3995.00,0.0010
3994.00,0.0010
3993.00,0.0010
3992.00,0.0010
3991.00,0.0010
3990.00,0.0010
3989.00,0.0010
3988.00,0.0010
3987.00,0.0009
3986.00,0.0009
3985.00,0.0009
3984.00,0.0009
3983.00,0.0009
3982.00,0.0009
3981.00,0.0009
3980.00,0.0009
3979.00,0.0009
3978.00,0.0009
3977.00,0.0009
3976.00,0.0009
3975.00,0.0009
3974.00,0.0009
3973.00,0.0009
3972.00,0.0009
3971.00,0.0009
3970.00,0.0009
3969.00,0.0009
3968.00,0.0009
3967.00,0.0009
3966.00,0.0009
3965.00,0.0009
3964.00,0.0009
3963.00,0.0009
3962.00,0.0009
3961.00,0.0009
3960.00,0.0009
3959.00,0.0009
3958.00,0.0009
3957.00,0.0009
3956.00,0.0008
3955.00,0.0008
3954.00,0.0008
3953.00,0.0007
3952.00,0.0007
3951.00,0.0007
3950.00,0.0007
3949.00,0.0007
3948.00,0.0008
3947.00,0.0008
3946.00,0.0009
3945.00,0.0009
3944.00,0.0009
3943.00,0.0008
3942.00,0.0008
3941.00,0.0008
3940.00,0.0008
3939.00,0.0008
3938.00,0.0008
3937.00,0.0008
3936.00,0.0008
3935.00,0.0008
3934.00,0.0008
3933.00,0.0008
3932.00,0.0008
3931.00,0.0008
3930.00,0.0008
3929.00,0.0008
3928.00,0.0008
3927.00,0.0008
3926.00,0.0008
3925.00,0.0008
3924.00,0.0008
3923.00,0.0008
3922.00,0.0008
3921.00,0.0008
3920.00,0.0007
3919.00,0.0007
3918.00,0.0007
3917.00,0.0008
3916.00,0.0008
3915.00,0.0008
3914.00,0.0008
3913.00,0.0008
3912.00,0.0008
3911.00,0.0009
3910.00,0.0009
3909.00,0.0008
3908.00,0.0008
3907.00,0.0008
3906.00,0.0008
3905.00,0.0008
3904.00,0.0008
3903.00,0.0008
3902.00,0.0008
3901.00,0.0008
3900.00,0.0008
3899.00,0.0008
3898.00,0.0008
3897.00,0.0008
3896.00,0.0008
3895.00,0.0008
3894.00,0.0008
3893.00,0.0007
3892.00,0.0007
3891.00,0.0007
3890.00,0.0007
3889.00,0.0006
3888.00,0.0007
3887.00,0.0007
3886.00,0.0007
3885.00,0.0007
3884.00,0.0008
3883.00,0.0008
3882.00,0.0008
3881.00,0.0008
3880.00,0.0008
3879.00,0.0008
3878.00,0.0008
3877.00,0.0008
3876.00,0.0008
3875.00,0.0007
3874.00,0.0007
3873.00,0.0007
3872.00,0.0006
3871.00,0.0006
3870.00,0.0006
3869.00,0.0006
3868.00,0.0007
3867.00,0.0007
3866.00,0.0007
3865.00,0.0008
3864.00,0.0008
3863.00,0.0008
3862.00,0.0008
3861.00,0.0008
3860.00,0.0008
3859.00,0.0008
3858.00,0.0008
3857.00,0.0008
3856.00,0.0007
3855.00,0.0007
3854.00,0.0007
3853.00,0.0007
3852.00,0.0007
3851.00,0.0007
3850.00,0.0007
3849.00,0.0007
3848.00,0.0008
3847.00,0.0008
3846.00,0.0008
3845.00,0.0008
3844.00,0.0008
3843.00,0.0008
3842.00,0.0007
3841.00,0.0007
3840.00,0.0007
3839.00,0.0007
3838.00,0.0007
3837.00,0.0007
3836.00,0.0007
3835.00,0.0007
3834.00,0.0007
3833.00,0.0008
3832.00,0.0008
3831.00,0.0008
3830.00,0.0008
3829.00,0.0007
3828.00,0.0007
3827.00,0.0007
3826.00,0.0007
3825.00,0.0007
3824.00,0.0007
3823.00,0.0007
3822.00,0.0007
3821.00,0.0007
3820.00,0.0007
3819.00,0.0007
3818.00,0.0007
3817.00,0.0008
3816.00,0.0008
3815.00,0.0008
3814.00,0.0008
3813.00,0.0008
3812.00,0.0008
3811.00,0.0008
3810.00,0.0008
3809.00,0.0008
3808.00,0.0008
3807.00,0.0007
3806.00,0.0007
3805.00,0.0007
3804.00,0.0007
3803.00,0.0007
3802.00,0.0007
3801.00,0.0007
3800.00,0.0007
3799.00,0.0007
3798.00,0.0007
3797.00,0.0007
3796.00,0.0007
3795.00,0.0007
3794.00,0.0007
3793.00,0.0007
3792.00,0.0007
3791.00,0.0007
3790.00,0.0007
3789.00,0.0007
3788.00,0.0007
3787.00,0.0007
3786.00,0.0007
3785.00,0.0007
3784.00,0.0007
3783.00,0.0007
3782.00,0.0007
3781.00,0.0008
3780.00,0.0008
3779.00,0.0008
3778.00,0.0008
3777.00,0.0008
3776.00,0.0008
3775.00,0.0008
3774.00,0.0008
3773.00,0.0008
3772.00,0.0008
3771.00,0.0008
3770.00,0.0008
3769.00,0.0008
3768.00,0.0008
3767.00,0.0008
3766.00,0.0008
3765.00,0.0007
3764.00,0.0007
3763.00,0.0008
3762.00,0.0008
3761.00,0.0008
3760.00,0.0008
3759.00,0.0008
3758.00,0.0008
3757.00,0.0008
3756.00,0.0008
3755.00,0.0008
3754.00,0.0008
3753.00,0.0007
3752.00,0.0007
3751.00,0.0006
3750.00,0.0006
3749.00,0.0005
3748.00,0.0005
3747.00,0.0006
3746.00,0.0006
3745.00,0.0007
3744.00,0.0007
3743.00,0.0007
3742.00,0.0007
3741.00,0.0006
3740.00,0.0006
3739.00,0.0005
3738.00,0.0005
3737.00,0.0004
3736.00,0.0004
3735.00,0.0004
3734.00,0.0005
3733.00,0.0005
3732.00,0.0005
3731.00,0.0005
3730.00,0.0005
3729.00,0.0005
3728.00,0.0006
3727.00,0.0006
3726.00,0.0006
3725.00,0.0006
3724.00,0.0006
3723.00,0.0006
3722.00,0.0006
3721.00,0.0006
3720.00,0.0006
3719.00,0.0006
3718.00,0.0006
3717.00,0.0006
3716.00,0.0006
3715.00,0.0006
3714.00,0.0006
3713.00,0.0006
3712.00,0.0006
3711.00,0.0006
3710.00,0.0006
3709.00,0.0006
3708.00,0.0006
3707.00,0.0006
3706.00,0.0006
3705.00,0.0006
3704.00,0.0006
3703.00,0.0006
3702.00,0.0006
3701.00,0.0006
3700.00,0.0006
3699.00,0.0006
3698.00,0.0006
3697.00,0.0006
3696.00,0.0006
3695.00,0.0006
3694.00,0.0006
3693.00,0.0006
3692.00,0.0006
3691.00,0.0006
3690.00,0.0005
3689.00,0.0006
3688.00,0.0006
3687.00,0.0006
3686.00,0.0006
3685.00,0.0006
3684.00,0.0006
3683.00,0.0007
3682.00,0.0007
3681.00,0.0007
3680.00,0.0008
3679.00,0.0008
3678.00,0.0009
3677.00,0.0009
3676.00,0.0009
3675.00,0.0008
3674.00,0.0008
3673.00,0.0007
3672.00,0.0007
3671.00,0.0008
3670.00,0.0008
3669.00,0.0008
3668.00,0.0008
3667.00,0.0008
3666.00,0.0007
3665.00,0.0007
3664.00,0.0006
3663.00,0.0006
3662.00,0.0007
3661.00,0.0007
3660.00,0.0007
3659.00,0.0008
3658.00,0.0008
3657.00,0.0009
3656.00,0.0008
3655.00,0.0008
3654.00,0.0008
3653.00,0.0008
3652.00,0.0008
3651.00,0.0009
3650.00,0.0009
3649.00,0.0010
3648.00,0.0010
3647.00,0.0009
3646.00,0.0009
3645.00,0.0008
3644.00,0.0007
3643.00,0.0007
3642.00,0.0007
3641.00,0.0007
3640.00,0.0007
3639.00,0.0008
3638.00,0.0008
3637.00,0.0008
3636.00,0.0007
3635.00,0.0007
3634.00,0.0006
3633.00,0.0006
3632.00,0.0006
3631.00,0.0005
3630.00,0.0004
3629.00,0.0004
3628.00,0.0005
3627.00,0.0005
3626.00,0.0005
3625.00,0.0005
3624.00,0.0005
3623.00,0.0006
3622.00,0.0006
3621.00,0.0007
3620.00,0.0007
3619.00,0.0007
3618.00,0.0007
3617.00,0.0007
3616.00,0.0007
3615.00,0.0007
3614.00,0.0007
3613.00,0.0007
3612.00,0.0007
3611.00,0.0007
3610.00,0.0007
3609.00,0.0007
3608.00,0.0007
3607.00,0.0007
3606.00,0.0006
3605.00,0.0006
3604.00,0.0006
3603.00,0.0006
3602.00,0.0006
3601.00,0.0007
3600.00,0.0007
3599.00,0.0007
3598.00,0.0007
3597.00,0.0006
3596.00,0.0006
3595.00,0.0007
3594.00,0.0007
3593.00,0.0007
3592.00,0.0007
3591.00,0.0007
3590.00,0.0007
3589.00,0.0008
3588.00,0.0008
3587.00,0.0009
3586.00,0.0009
3585.00,0.0009
3584.00,0.0009
3583.00,0.0008
3582.00,0.0008
3581.00,0.0008
3580.00,0.0008
3579.00,0.0009
3578.00,0.0009
3577.00,0.0009
3576.00,0.0010
3575.00,0.0010
3574.00,0.0010
3573.00,0.0009
3572.00,0.0009
3571.00,0.0009
3570.00,0.0010
3569.00,0.0010
3568.00,0.0010
3567.00,0.0010
3566.00,0.0011
3565.00,0.0011
3564.00,0.0011
3563.00,0.0011
3562.00,0.0011
3561.00,0.0011
3560.00,0.0011
3559.00,0.0012
3558.00,0.0012
3557.00,0.0013
3556.00,0.0013
3555.00,0.0012
3554.00,0.0012
3553.00,0.0012
3552.00,0.0012
3551.00,0.0012
3550.00,0.0012
3549.00,0.0012
3548.00,0.0012
3547.00,0.0012
3546.00,0.0012
3545.00,0.0012
3544.00,0.0012
3543.00,0.0013
3542.00,0.0013
3541.00,0.0013
3540.00,0.0013
3539.00,0.0013
3538.00,0.0013
3537.00,0.0013
3536.00,0.0013
3535.00,0.0013
3534.00,0.0014
3533.00,0.0014
3532.00,0.0014
3531.00,0.0014
3530.00,0.0014
3529.00,0.0014
3528.00,0.0015
3527.00,0.0015
3526.00,0.0015
3525.00,0.0015
3524.00,0.0015
3523.00,0.0015
3522.00,0.0015
3521.00,0.0016
3520.00,0.0016
3519.00,0.0016
3518.00,0.0016
3517.00,0.0016
3516.00,0.0016
3515.00,0.0016
3514.00,0.0017
3513.00,0.0017
3512.00,0.0017
3511.00,0.0017
3510.00,0.0017
3509.00,0.0017
3508.00,0.0017
3507.00,0.0017
3506.00,0.0017
3505.00,0.0017
3504.00,0.0018
3503.00,0.0018
3502.00,0.0018
3501.00,0.0018
3500.00,0.0018
3499.00,0.0018
3498.00,0.0019
3497.00,0.0019
3496.00,0.0019
3495.00,0.0019
3494.00,0.0019
3493.00,0.0018
3492.00,0.0018
3491.00,0.0018
3490.00,0.0018
3489.00,0.0019
3488.00,0.0019
3487.00,0.0019
3486.00,0.0019
3485.00,0.0019
3484.00,0.0019
3483.00,0.0020
3482.00,0.0020
3481.00,0.0021
3480.00,0.0021
3479.00,0.0021
3478.00,0.0021
3477.00,0.0020
3476.00,0.0020
3475.00,0.0020
3474.00,0.0021
3473.00,0.0021
3472.00,0.0021
3471.00,0.0021
3470.00,0.0021
3469.00,0.0022
3468.00,0.0022
3467.00,0.0022
3466.00,0.0022
3465.00,0.0022
3464.00,0.0022
3463.00,0.0022
3462.00,0.0023
3461.00,0.0023
3460.00,0.0023
3459.00,0.0023
3458.00,0.0023
3457.00,0.0023
3456.00,0.0023
3455.00,0.0023
3454.00,0.0023
3453.00,0.0023
3452.00,0.0024
3451.00,0.0024
3450.00,0.0024
3449.00,0.0024
3448.00,0.0024
3447.00,0.0024
3446.00,0.0025
3445.00,0.0025
3444.00,0.0025
3443.00,0.0025
3442.00,0.0026
3441.00,0.0026
3440.00,0.0026
3439.00,0.0027
3438.00,0.0026
3437.00,0.0026
3436.00,0.0026
3435.00,0.0026
3434.00,0.0026
3433.00,0.0026
3432.00,0.0026
3431.00,0.0026
3430.00,0.0026
3429.00,0.0027
3428.00,0.0027
3427.00,0.0027
3426.00,0.0027
3425.00,0.0027
3424.00,0.0027
3423.00,0.0028
3422.00,0.0028
3421.00,0.0029
3420.00,0.0029
3419.00,0.0029
3418.00,0.0029
3417.00,0.0029
3416.00,0.0028
3415.00,0.0028
3414.00,0.0028
3413.00,0.0029
3412.00,0.0029
3411.00,0.0029
3410.00,0.0029
3409.00,0.0029
3408.00,0.0029
3407.00,0.0029
3406.00,0.0029
3405.00,0.0030
3404.00,0.0030
3403.00,0.0031
3402.00,0.0031
3401.00,0.0031
3400.00,0.0031
3399.00,0.0031
3398.00,0.0031
3397.00,0.0031
3396.00,0.0031
3395.00,0.0031
3394.00,0.0031
3393.00,0.0031
3392.00,0.0031
3391.00,0.0030
3390.00,0.0030
3389.00,0.0030
3388.00,0.0030
3387.00,0.0030
3386.00,0.0031
3385.00,0.0031
3384.00,0.0031
3383.00,0.0031
3382.00,0.0031
3381.00,0.0031
3380.00,0.0031
3379.00,0.0031
3378.00,0.0031
3377.00,0.0031
3376.00,0.0031
3375.00,0.0031
3374.00,0.0032
3373.00,0.0032
3372.00,0.0032
3371.00,0.0032
3370.00,0.0032
3369.00,0.0032
3368.00,0.0032
3367.00,0.0031
3366.00,0.0031
3365.00,0.0032
3364.00,0.0032
3363.00,0.0032
3362.00,0.0031
3361.00,0.0031
3360.00,0.0032
3359.00,0.0032
3358.00,0.0033
3357.00,0.0033
3356.00,0.0034
3355.00,0.0033
3354.00,0.0033
3353.00,0.0033
3352.00,0.0033
3351.00,0.0033
3350.00,0.0033
3349.00,0.0033
3348.00,0.0033
3347.00,0.0033
3346.00,0.0033
3345.00,0.0033
3344.00,0.0034
3343.00,0.0034
3342.00,0.0034
3341.00,0.0034
3340.00,0.0033
3339.00,0.0033
3338.00,0.0033
3337.00,0.0033
3336.00,0.0033
3335.00,0.0033
3334.00,0.0033
3333.00,0.0033
3332.00,0.0033
3331.00,0.0033
3330.00,0.0033
3329.00,0.0033
3328.00,0.0032
3327.00,0.0032
3326.00,0.0032
3325.00,0.0032
3324.00,0.0033
3323.00,0.0033
3322.00,0.0033
3321.00,0.0033
3320.00,0.0033
3319.00,0.0033
3318.00,0.0033
3317.00,0.0033
3316.00,0.0033
3315.00,0.0033
3314.00,0.0033
3313.00,0.0033
3312.00,0.0033
3311.00,0.0033
3310.00,0.0034
3309.00,0.0034
3308.00,0.0034
3307.00,0.0035
3306.00,0.0035
3305.00,0.0035
3304.00,0.0035
3303.00,0.0036
3302.00,0.0036
3301.00,0.0036
3300.00,0.0036
3299.00,0.0035
3298.00,0.0035
3297.00,0.0034
3296.00,0.0034
3295.00,0.0033
3294.00,0.0033
3293.00,0.0033
3292.00,0.0033
3291.00,0.0033
3290.00,0.0033
3289.00,0.0033
3288.00,0.0032
3287.00,0.0032
3286.00,0.0032
3285.00,0.0032
3284.00,0.0031
3283.00,0.0031
3282.00,0.0031
3281.00,0.0031
3280.00,0.0031
3279.00,0.0031
3278.00,0.0031
3277.00,0.0030
3276.00,0.0030
3275.00,0.0031
3274.00,0.0031
3273.00,0.0031
3272.00,0.0030
3271.00,0.0030
3270.00,0.0030
3269.00,0.0030
3268.00,0.0030
3267.00,0.0030
3266.00,0.0030
3265.00,0.0030
3264.00,0.0030
3263.00,0.0030
3262.00,0.0030
3261.00,0.0030
3260.00,0.0030
3259.00,0.0029
3258.00,0.0029
3257.00,0.0029
3256.00,0.0028
3255.00,0.0028
3254.00,0.0028
3253.00,0.0028
3252.00,0.0028
3251.00,0.0029
3250.00,0.0029
3249.00,0.0029
3248.00,0.0029
3247.00,0.0029
3246.00,0.0029
3245.00,0.0029
3244.00,0.0028
3243.00,0.0028
3242.00,0.0028
3241.00,0.0028
3240.00,0.0028
3239.00,0.0028
3238.00,0.0028
3237.00,0.0028
3236.00,0.0029
3235.00,0.0029
3234.00,0.0029
3233.00,0.0029
3232.00,0.0028
3231.00,0.0028
3230.00,0.0028
3229.00,0.0028
3228.00,0.0028
3227.00,0.0029
3226.00,0.0029
3225.00,0.0030
3224.00,0.0030
3223.00,0.0030
3222.00,0.0031
3221.00,0.0032
3220.00,0.0032
3219.00,0.0032
3218.00,0.0032
3217.00,0.0032
3216.00,0.0032
3215.00,0.0032
3214.00,0.0032
3213.00,0.0033
3212.00,0.0033
3211.00,0.0033
3210.00,0.0033
3209.00,0.0033
3208.00,0.0033
3207.00,0.0034
3206.00,0.0034
3205.00,0.0034
3204.00,0.0034
3203.00,0.0035
3202.00,0.0035
3201.00,0.0035
3200.00,0.0035
3199.00,0.0034
3198.00,0.0034
3197.00,0.0034
3196.00,0.0034
3195.00,0.0034
3194.00,0.0035
3193.00,0.0035
3192.00,0.0035
3191.00,0.0036
3190.00,0.0035
3189.00,0.0035
3188.00,0.0035
3187.00,0.0035
3186.00,0.0035
3185.00,0.0034
3184.00,0.0034
3183.00,0.0034
3182.00,0.0034
3181.00,0.0034
3180.00,0.0034
3179.00,0.0034
3178.00,0.0034
3177.00,0.0034
3176.00,0.0033
3175.00,0.0033
3174.00,0.0033
3173.00,0.0033
3172.00,0.0032
3171.00,0.0032
3170.00,0.0032
3169.00,0.0032
3168.00,0.0032
3167.00,0.0032
3166.00,0.0032
3165.00,0.0032
3164.00,0.0032
3163.00,0.0032
3162.00,0.0032
3161.00,0.0031
3160.00,0.0031
3159.00,0.0031
3158.00,0.0031
3157.00,0.0031
3156.00,0.0032
3155.00,0.0032
3154.00,0.0032
3153.00,0.0032
3152.00,0.0032
3151.00,0.0032
3150.00,0.0031
3149.00,0.0031
3148.00,0.0031
3147.00,0.0031
3146.00,0.0031
3145.00,0.0031
3144.00,0.0031
3143.00,0.0031
3142.00,0.0031
3141.00,0.0032
3140.00,0.0032
3139.00,0.0032
3138.00,0.0031
3137.00,0.0031
3136.00,0.0030
3135.00,0.0030
3134.00,0.0030
3133.00,0.0030
3132.00,0.0030
3131.00,0.0030
3130.00,0.0029
3129.00,0.0029
3128.00,0.0029
3127.00,0.0029
3126.00,0.0028
3125.00,0.0028
3124.00,0.0028
3123.00,0.0028
3122.00,0.0027
3121.00,0.0027
3120.00,0.0027
3119.00,0.0027
3118.00,0.0027
3117.00,0.0027
3116.00,0.0027
3115.00,0.0027
3114.00,0.0027
3113.00,0.0027
3112.00,0.0027
3111.00,0.0027
3110.00,0.0027
3109.00,0.0027
3108.00,0.0027
3107.00,0.0027
3106.00,0.0027
3105.00,0.0026
3104.00,0.0026
3103.00,0.0026
3102.00,0.0026
3101.00,0.0026
3100.00,0.0026
3099.00,0.0025
3098.00,0.0025
3097.00,0.0025
3096.00,0.0025
3095.00,0.0025
3094.00,0.0025
3093.00,0.0025
3092.00,0.0024
3091.00,0.0025
3090.00,0.0025
3089.00,0.0025
3088.00,0.0025
3087.00,0.0025
3086.00,0.0025
3085.00,0.0025
3084.00,0.0025
3083.00,0.0025
3082.00,0.0025
3081.00,0.0025
3080.00,0.0025
3079.00,0.0025
3078.00,0.0025
3077.00,0.0026
3076.00,0.0026
3075.00,0.0026
3074.00,0.0026
3073.00,0.0026
3072.00,0.0026
3071.00,0.0025
3070.00,0.0025
3069.00,0.0025
3068.00,0.0026
3067.00,0.0026
3066.00,0.0026
3065.00,0.0027
3064.00,0.0027
3063.00,0.0028
3062.00,0.0028
3061.00,0.0028
3060.00,0.0028
3059.00,0.0028
3058.00,0.0028
3057.00,0.0027
3056.00,0.0027
3055.00,0.0027
3054.00,0.0028
3053.00,0.0028
3052.00,0.0029
3051.00,0.0029
3050.00,0.0030
3049.00,0.0030
3048.00,0.0030
3047.00,0.0030
3046.00,0.0030
3045.00,0.0030
3044.00,0.0030
3043.00,0.0030
3042.00,0.0031
3041.00,0.0031
3040.00,0.0031
3039.00,0.0032
3038.00,0.0032
3037.00,0.0032
3036.00,0.0033
3035.00,0.0033
3034.00,0.0033
3033.00,0.0033
3032.00,0.0034
3031.00,0.0035
3030.00,0.0035
3029.00,0.0036
3028.00,0.0036
3027.00,0.0037
3026.00,0.0037
3025.00,0.0038
3024.00,0.0039
3023.00,0.0040
3022.00,0.0041
3021.00,0.0041
3020.00,0.0042
3019.00,0.0043
3018.00,0.0044
3017.00,0.0045
3016.00,0.0046
3015.00,0.0048
3014.00,0.0049
3013.00,0.0051
3012.00,0.0052
3011.00,0.0054
3010.00,0.0056
3009.00,0.0058
3008.00,0.0061
3007.00,0.0063
3006.00,0.0066
3005.00,0.0069
3004.00,0.0072
3003.00,0.0075
3002.00,0.0078
3001.00,0.0082
3000.00,0.0085
2999.00,0.0088
2998.00,0.0092
2997.00,0.0096
2996.00,0.0100
2995.00,0.0104
2994.00,0.0109
2993.00,0.0115
2992.00,0.0121
2991.00,0.0127
2990.00,0.0134
2989.00,0.0141
2988.00,0.0150
2987.00,0.0160
2986.00,0.0171
2985.00,0.0184
2984.00,0.0200
2983.00,0.0217
2982.00,0.0234
2981.00,0.0253
2980.00,0.0272
2979.00,0.0294
2978.00,0.0319
2977.00,0.0348
2976.00,0.0382
2975.00,0.0422
2974.00,0.0468
2973.00,0.0521
2972.00,0.0581
2971.00,0.0648
2970.00,0.0724
2969.00,0.0807
2968.00,0.0900
2967.00,0.1002
2966.00,0.1111
2965.00,0.1226
2964.00,0.1344
2963.00,0.1458
2962.00,0.1562
2961.00,0.1650
2960.00,0.1718
2959.00,0.1766
2958.00,0.1799
2957.00,0.1822
2956.00,0.1843
2955.00,0.1869
2954.00,0.1901
2953.00,0.1937
2952.00,0.1966
2951.00,0.1978
2950.00,0.1964
2949.00,0.1916
2948.00,0.1834
2947.00,0.1724
2946.00,0.1597
2945.00,0.1467
2944.00,0.1344
2943.00,0.1239
2942.00,0.1156
2941.00,0.1098
2940.00,0.1064
2939.00,0.1051
2938.00,0.1058
2937.00,0.1082
2936.00,0.1122
2935.00,0.1177
2934.00,0.1244
2933.00,0.1324
2932.00,0.1414
2931.00,0.1512
2930.00,0.1615
2929.00,0.1720
2928.00,0.1824
2927.00,0.1926
2926.00,0.2023
2925.00,0.2116
2924.00,0.2206
2923.00,0.2293
2922.00,0.2377
2921.00,0.2455
2920.00,0.2523
2919.00,0.2572
2918.00,0.2593
2917.00,0.2582
2916.00,0.2538
2915.00,0.2468
2914.00,0.2381
2913.00,0.2290
2912.00,0.2203
2911.00,0.2126
2910.00,0.2059
2909.00,0.2002
2908.00,0.1948
2907.00,0.1896
2906.00,0.1842
2905.00,0.1784
2904.00,0.1722
2903.00,0.1656
2902.00,0.1589
2901.00,0.1522
2900.00,0.1456
2899.00,0.1392
2898.00,0.1333
2897.00,0.1278
2896.00,0.1229
2895.00,0.1186
2894.00,0.1150
2893.00,0.1121
2892.00,0.1098
2891.00,0.1081
2890.00,0.1069
2889.00,0.1061
2888.00,0.1057
2887.00,0.1056
2886.00,0.1057
2885.00,0.1062
2884.00,0.1071
2883.00,0.1083
2882.00,0.1098
2881.00,0.1115
2880.00,0.1130
2879.00,0.1141
2878.00,0.1146
2877.00,0.1144
2876.00,0.1137
2875.00,0.1128
2874.00,0.1123
2873.00,0.1124
2872.00,0.1133
2871.00,0.1148
2870.00,0.1167
2869.00,0.1185
2868.00,0.1195
2867.00,0.1190
2866.00,0.1165
2865.00,0.1119
2864.00,0.1055
2863.00,0.0982
2862.00,0.0909
2861.00,0.0844
2860.00,0.0792
2859.00,0.0755
2858.00,0.0732
2857.00,0.0722
2856.00,0.0723
2855.00,0.0731
2854.00,0.0744
2853.00,0.0762
2852.00,0.0782
2851.00,0.0802
2850.00,0.0820
2849.00,0.0838
2848.00,0.0856
2847.00,0.0880
2846.00,0.0912
2845.00,0.0956
2844.00,0.1010
2843.00,0.1071
2842.00,0.1135
2841.00,0.1194
2840.00,0.1240
2839.00,0.1263
2838.00,0.1258
2837.00,0.1219
2836.00,0.1149
2835.00,0.1056
2834.00,0.0948
2833.00,0.0837
2832.00,0.0733
2831.00,0.0641
2830.00,0.0563
2829.00,0.0499
2828.00,0.0447
2827.00,0.0405
2826.00,0.0371
2825.00,0.0342
2824.00,0.0318
2823.00,0.0298
2822.00,0.0280
2821.00,0.0265
2820.00,0.0251
2819.00,0.0240
2818.00,0.0229
2817.00,0.0220
2816.00,0.0212
2815.00,0.0205
2814.00,0.0198
2813.00,0.0192
2812.00,0.0187
2811.00,0.0182
2810.00,0.0177
2809.00,0.0172
2808.00,0.0167
2807.00,0.0161
2806.00,0.0155
2805.00,0.0148
2804.00,0.0142
2803.00,0.0135
2802.00,0.0130
2801.00,0.0125
2800.00,0.0121
2799.00,0.0118
2798.00,0.0116
2797.00,0.0114
2796.00,0.0112
2795.00,0.0109
2794.00,0.0107
2793.00,0.0104
2792.00,0.0100
2791.00,0.0097
2790.00,0.0093
2789.00,0.0090
2788.00,0.0086
2787.00,0.0083
2786.00,0.0080
2785.00,0.0077
2784.00,0.0074
2783.00,0.0072
2782.00,0.0070
2781.00,0.0068
2780.00,0.0066
2779.00,0.0065
2778.00,0.0063
2777.00,0.0062
2776.00,0.0060
2775.00,0.0059
2774.00,0.0058
2773.00,0.0057
2772.00,0.0056
2771.00,0.0056
2770.00,0.0055
2769.00,0.0055
2768.00,0.0054
2767.00,0.0054
2766.00,0.0053
2765.00,0.0053
2764.00,0.0053
2763.00,0.0054
2762.00,0.0054
2761.00,0.0053
2760.00,0.0053
2759.00,0.0052
2758.00,0.0052
2757.00,0.0052
2756.00,0.0051
2755.00,0.0051
2754.00,0.0051
2753.00,0.0051
2752.00,0.0051
2751.00,0.0050
2750.00,0.0050
2749.00,0.0050
2748.00,0.0050
2747.00,0.0051
2746.00,0.0051
2745.00,0.0052
2744.00,0.0053
2743.00,0.0053
2742.00,0.0054
2741.00,0.0055
2740.00,0.0056
2739.00,0.0057
2738.00,0.0058
2737.00,0.0060
2736.00,0.0062
2735.00,0.0063
2734.00,0.0065
2733.00,0.0066
2732.00,0.0068
2731.00,0.0069
2730.00,0.0071
2729.00,0.0073
2728.00,0.0076
2727.00,0.0079
2726.00,0.0082
2725.00,0.0084
2724.00,0.0086
2723.00,0.0086
2722.00,0.0086
2721.00,0.0084
2720.00,0.0081
2719.00,0.0078
2718.00,0.0074
2717.00,0.0071
2716.00,0.0068
2715.00,0.0065
2714.00,0.0063
2713.00,0.0061
2712.00,0.0059
2711.00,0.0057
2710.00,0.0056
2709.00,0.0054
2708.00,0.0053
2707.00,0.0052
2706.00,0.0051
2705.00,0.0051
2704.00,0.0050
2703.00,0.0049
2702.00,0.0048
2701.00,0.0047
2700.00,0.0046
2699.00,0.0045
2698.00,0.0045
2697.00,0.0045
2696.00,0.0045
2695.00,0.0045
2694.00,0.0045
2693.00,0.0045
2692.00,0.0045
2691.00,0.0045
2690.00,0.0045
2689.00,0.0045
2688.00,0.0045
2687.00,0.0045
2686.00,0.0045
2685.00,0.0045
2684.00,0.0045
2683.00,0.0045
2682.00,0.0045
2681.00,0.0045
2680.00,0.0045
2679.00,0.0045
2678.00,0.0045
2677.00,0.0045
2676.00,0.0045
2675.00,0.0045
2674.00,0.0044
2673.00,0.0044
2672.00,0.0044
2671.00,0.0043
2670.00,0.0044
2669.00,0.0044
2668.00,0.0044
2667.00,0.0045
2666.00,0.0045
2665.00,0.0045
2664.00,0.0046
2663.00,0.0047
2662.00,0.0047
2661.00,0.0047
2660.00,0.0047
2659.00,0.0047
2658.00,0.0047
2657.00,0.0047
2656.00,0.0046
2655.00,0.0046
2654.00,0.0046
2653.00,0.0045
2652.00,0.0045
2651.00,0.0044
2650.00,0.0043
2649.00,0.0043
2648.00,0.0043
2647.00,0.0043
2646.00,0.0042
2645.00,0.0042
2644.00,0.0041
2643.00,0.0041
2642.00,0.0040
2641.00,0.0040
2640.00,0.0039
2639.00,0.0039
2638.00,0.0038
2637.00,0.0038
2636.00,0.0038
2635.00,0.0038
2634.00,0.0038
2633.00,0.0038
2632.00,0.0038
2631.00,0.0038
2630.00,0.0038
2629.00,0.0038
2628.00,0.0038
2627.00,0.0038
2626.00,0.0039
2625.00,0.0039
2624.00,0.0039
2623.00,0.0039
2622.00,0.0039
2621.00,0.0039
2620.00,0.0039
2619.00,0.0039
2618.00,0.0039
2617.00,0.0039
2616.00,0.0039
2615.00,0.0039
2614.00,0.0039
2613.00,0.0038
2612.00,0.0038
2611.00,0.0037
2610.00,0.0036
2609.00,0.0035
2608.00,0.0034
2607.00,0.0033
2606.00,0.0033
2605.00,0.0032
2604.00,0.0031
2603.00,0.0030
2602.00,0.0029
2601.00,0.0029
2600.00,0.0029
2599.00,0.0030
2598.00,0.0030
2597.00,0.0030
2596.00,0.0030
2595.00,0.0030
2594.00,0.0030
2593.00,0.0030
2592.00,0.0031
2591.00,0.0031
2590.00,0.0032
2589.00,0.0034
2588.00,0.0035
2587.00,0.0036
2586.00,0.0036
2585.00,0.0037
2584.00,0.0037
2583.00,0.0037
2582.00,0.0037
2581.00,0.0037
2580.00,0.0036
2579.00,0.0035
2578.00,0.0034
2577.00,0.0034
2576.00,0.0033
2575.00,0.0032
2574.00,0.0031
2573.00,0.0030
2572.00,0.0028
2571.00,0.0027
2570.00,0.0027
2569.00,0.0026
2568.00,0.0026
2567.00,0.0025
2566.00,0.0025
2565.00,0.0024
2564.00,0.0023
2563.00,0.0023
2562.00,0.0023
2561.00,0.0022
2560.00,0.0022
2559.00,0.0022
2558.00,0.0022
2557.00,0.0022
2556.00,0.0023
2555.00,0.0023
2554.00,0.0023
2553.00,0.0023
2552.00,0.0022
2551.00,0.0021
2550.00,0.0020
2549.00,0.0019
2548.00,0.0019
2547.00,0.0018
2546.00,0.0017
2545.00,0.0017
2544.00,0.0016
2543.00,0.0017
2542.00,0.0017
2541.00,0.0017
2540.00,0.0017
2539.00,0.0017
2538.00,0.0017
2537.00,0.0016
2536.00,0.0016
2535.00,0.0016
2534.00,0.0016
2533.00,0.0016
2532.00,0.0016
2531.00,0.0016
2530.00,0.0016
2529.00,0.0015
2528.00,0.0015
2527.00,0.0015
2526.00,0.0014
2525.00,0.0014
2524.00,0.0013
2523.00,0.0012
2522.00,0.0011
2521.00,0.0011
2520.00,0.0011
2519.00,0.0011
2518.00,0.0011
2517.00,0.0011
2516.00,0.0010
2515.00,0.0010
2514.00,0.0010
2513.00,0.0011
2512.00,0.0011
2511.00,0.0012
2510.00,0.0012
2509.00,0.0011
2508.00,0.0011
2507.00,0.0010
2506.00,0.0010
2505.00,0.0010
2504.00,0.0011
2503.00,0.0011
2502.00,0.0010
2501.00,0.0010
2500.00,0.0010
2499.00,0.0010
2498.00,0.0009
2497.00,0.0009
2496.00,0.0010
2495.00,0.0010
2494.00,0.0011
2493.00,0.0011
2492.00,0.0011
2491.00,0.0011
2490.00,0.0011
2489.00,0.0011
2488.00,0.0011
2487.00,0.0011
2486.00,0.0011
2485.00,0.0011
2484.00,0.0010
2483.00,0.0010
2482.00,0.0010
2481.00,0.0010
2480.00,0.0010
2479.00,0.0009
2478.00,0.0008
2477.00,0.0008
2476.00,0.0008
2475.00,0.0008
2474.00,0.0008
2473.00,0.0008
2472.00,0.0009
2471.00,0.0009
2470.00,0.0009
2469.00,0.0009
2468.00,0.0008
2467.00,0.0008
2466.00,0.0007
2465.00,0.0007
2464.00,0.0007
2463.00,0.0008
2462.00,0.0009
2461.00,0.0009
2460.00,0.0009
2459.00,0.0009
2458.00,0.0009
2457.00,0.0008
2456.00,0.0009
2455.00,0.0009
2454.00,0.0010
2453.00,0.0010
2452.00,0.0010
2451.00,0.0011
2450.00,0.0011
2449.00,0.0011
2448.00,0.0011
2447.00,0.0010
2446.00,0.0010
2445.00,0.0009
2444.00,0.0009
2443.00,0.0009
2442.00,0.0009
2441.00,0.0009
2440.00,0.0010
2439.00,0.0010
2438.00,0.0010
2437.00,0.0011
2436.00,0.0012
2435.00,0.0012
2434.00,0.0012
2433.00,0.0013
2432.00,0.0013
2431.00,0.0013
2430.00,0.0012
2429.00,0.0011
2428.00,0.0011
2427.00,0.0011
2426.00,0.0011
2425.00,0.0011
2424.00,0.0011
2423.00,0.0012
2422.00,0.0012
2421.00,0.0012
2420.00,0.0012
2419.00,0.0011
2418.00,0.0010
2417.00,0.0010
2416.00,0.0010
2415.00,0.0010
2414.00,0.0010
2413.00,0.0010
2412.00,0.0010
2411.00,0.0010
2410.00,0.0010
2409.00,0.0010
2408.00,0.0009
2407.00,0.0009
2406.00,0.0008
2405.00,0.0008
2404.00,0.0008
2403.00,0.0008
2402.00,0.0008
2401.00,0.0009
2400.00,0.0009
2399.00,0.0009
2398.00,0.0009
2397.00,0.0009
2396.00,0.0009
2395.00,0.0008
2394.00,0.0008
2393.00,0.0007
2392.00,0.0007
2391.00,0.0007
2390.00,0.0007
2389.00,0.0007
2388.00,0.0007
2387.00,0.0007
2386.00,0.0007
2385.00,0.0007
2384.00,0.0006
2383.00,0.0006
2382.00,0.0005
2381.00,0.0005
2380.00,0.0005
2379.00,0.0005
2378.00,0.0005
2377.00,0.0005
2376.00,0.0006
2375.00,0.0006
2374.00,0.0006
2373.00,0.0006
2372.00,0.0006
2371.00,0.0006
2370.00,0.0005
2369.00,0.0004
2368.00,0.0004
2367.00,0.0004
2366.00,0.0004
2365.00,0.0005
2364.00,0.0005
2363.00,0.0005
2362.00,0.0006
2361.00,0.0006
2360.00,0.0006
2359.00,0.0006
2358.00,0.0006
2357.00,0.0007
2356.00,0.0007
2355.00,0.0008
2354.00,0.0008
2353.00,0.0007
2352.00,0.0006
2351.00,0.0006
2350.00,0.0006
2349.00,0.0007
2348.00,0.0008
2347.00,0.0008
2346.00,0.0008
2345.00,0.0008
2344.00,0.0008
2343.00,0.0009
2342.00,0.0009
2341.00,0.0009
2340.00,0.0009
2339.00,0.0009
2338.00,0.0009
2337.00,0.0009
2336.00,0.0009
2335.00,0.0009
2334.00,0.0010
2333.00,0.0010
2332.00,0.0010
2331.00,0.0010
2330.00,0.0009
2329.00,0.0009
2328.00,0.0010
2327.00,0.0012
2326.00,0.0016
2325.00,0.0018
2324.00,0.0020
2323.00,0.0019
2322.00,0.0017
2321.00,0.0016
2320.00,0.0015
2319.00,0.0014
2318.00,0.0013
2317.00,0.0012
2316.00,0.0011
2315.00,0.0011
2314.00,0.0010
2313.00,0.0009
2312.00,0.0008
2311.00,0.0007
2310.00,0.0006
2309.00,0.0007
2308.00,0.0007
2307.00,0.0008
2306.00,0.0008
2305.00,0.0008
2304.00,0.0008
2303.00,0.0007
2302.00,0.0007
2301.00,0.0008
2300.00,0.0008
2299.00,0.0009
2298.00,0.0010
2297.00,0.0011
2296.00,0.0011
2295.00,0.0011
2294.00,0.0012
2293.00,0.0013
2292.00,0.0015
2291.00,0.0015
2290.00,0.0016
2289.00,0.0015
2288.00,0.0015
2287.00,0.0016
2286.00,0.0015
2285.00,0.0015
2284.00,0.0014
2283.00,0.0013
2282.00,0.0012
2281.00,0.0012
2280.00,0.0012
2279.00,0.0012
2278.00,0.0012
2277.00,0.0013
2276.00,0.0014
2275.00,0.0014
2274.00,0.0013
2273.00,0.0013
2272.00,0.0013
2271.00,0.0013
2270.00,0.0012
2269.00,0.0011
2268.00,0.0010
2267.00,0.0009
2266.00,0.0009
2265.00,0.0010
2264.00,0.0012
2263.00,0.0013
2262.00,0.0013
2261.00,0.0013
2260.00,0.0014
2259.00,0.0014
2258.00,0.0014
2257.00,0.0014
2256.00,0.0013
2255.00,0.0013
2254.00,0.0013
2253.00,0.0012
2252.00,0.0012
2251.00,0.0011
2250.00,0.0010
2249.00,0.0009
2248.00,0.0008
2247.00,0.0008
2246.00,0.0008
2245.00,0.0009
2244.00,0.0009
2243.00,0.0008
2242.00,0.0007
2241.00,0.0007
2240.00,0.0006
2239.00,0.0007
2238.00,0.0008
2237.00,0.0009
2236.00,0.0009
2235.00,0.0008
2234.00,0.0006
2233.00,0.0004
2232.00,0.0002
2231.00,0.0002
2230.00,0.0004
2229.00,0.0007
2228.00,0.0009
2227.00,0.0010
2226.00,0.0010
2225.00,0.0008
2224.00,0.0006
2223.00,0.0006
2222.00,0.0005
2221.00,0.0005
2220.00,0.0005
2219.00,0.0004
2218.00,0.0005
2217.00,0.0006
2216.00,0.0007
2215.00,0.0007
2214.00,0.0007
2213.00,0.0007
2212.00,0.0007
2211.00,0.0007
2210.00,0.0007
2209.00,0.0008
2208.00,0.0008
2207.00,0.0007
2206.00,0.0006
2205.00,0.0005
2204.00,0.0003
2203.00,0.0002
2202.00,0.0002
2201.00,0.0004
2200.00,0.0007
2199.00,0.0008
2198.00,0.0008
2197.00,0.0006
2196.00,0.0004
2195.00,0.0003
2194.00,0.0004
2193.00,0.0006
2192.00,0.0009
2191.00,0.0012
2190.00,0.0013
2189.00,0.0014
2188.00,0.0014
2187.00,0.0014
2186.00,0.0013
2185.00,0.0011
2184.00,0.0007
2183.00,0.0003
2182.00,-0.0001
2181.00,-0.0003
2180.00,-0.0003
2179.00,-0.0001
2178.00,0.0001
2177.00,0.0001
2176.00,-0.0000
2175.00,-0.0002
2174.00,-0.0003
2173.00,-0.0001
2172.00,0.0002
2171.00,0.0005
2170.00,0.0007
2169.00,0.0010
2168.00,0.0012
2167.00,0.0013
2166.00,0.0014
2165.00,0.0014
2164.00,0.0015
2163.00,0.0017
2162.00,0.0017
2161.00,0.0014
2160.00,0.0005
2159.00,-0.0008
2158.00,-0.0019
2157.00,-0.0024
2156.00,-0.0025
2155.00,-0.0022
2154.00,-0.0019
2153.00,-0.0016
2152.00,-0.0014
2151.00,-0.0014
2150.00,-0.0016
2149.00,-0.0017
2148.00,-0.0018
2147.00,-0.0017
2146.00,-0.0016
2145.00,-0.0013
2144.00,-0.0011
2143.00,-0.0010
2142.00,-0.0011
2141.00,-0.0013
2140.00,-0.0014
2139.00,-0.0015
2138.00,-0.0015
2137.00,-0.0015
2136.00,-0.0016
2135.00,-0.0018
2134.00,-0.0018
2133.00,-0.0017
2132.00,-0.0015
2131.00,-0.0013
2130.00,-0.0011
2129.00,-0.0010
2128.00,-0.0009
2127.00,-0.0008
2126.00,-0.0007
2125.00,-0.0006
2124.00,-0.0006
2123.00,-0.0007
2122.00,-0.0007
2121.00,-0.0007
2120.00,-0.0005
2119.00,-0.0003
2118.00,-0.0001
2117.00,0.0000
2116.00,0.0002
2115.00,0.0003
2114.00,0.0004
2113.00,0.0003
2112.00,0.0003
2111.00,0.0001
2110.00,0.0001
2109.00,0.0001
2108.00,0.0001
2107.00,0.0001
2106.00,0.0002
2105.00,0.0002
2104.00,0.0003
2103.00,0.0004
2102.00,0.0004
2101.00,0.0004
2100.00,0.0004
2099.00,0.0003
2098.00,0.0002
2097.00,0.0000
2096.00,-0.0002
2095.00,-0.0005
2094.00,-0.0007
2093.00,-0.0007
2092.00,-0.0007
2091.00,-0.0006
2090.00,-0.0005
2089.00,-0.0004
2088.00,-0.0003
2087.00,-0.0002
2086.00,-0.0001
2085.00,-0.0001
2084.00,-0.0000
2083.00,-0.0001
2082.00,-0.0001
2081.00,-0.0002
2080.00,-0.0001
2079.00,-0.0001
2078.00,0.0000
2077.00,0.0001
2076.00,0.0001
2075.00,0.0001
2074.00,-0.0000
2073.00,-0.0001
2072.00,-0.0001
2071.00,-0.0002
2070.00,-0.0002
2069.00,-0.0001
2068.00,0.0000
2067.00,0.0000
2066.00,-0.0000
2065.00,-0.0000
2064.00,-0.0000
2063.00,-0.0000
2062.00,-0.0001
2061.00,-0.0002
2060.00,-0.0003
2059.00,-0.0002
2058.00,-0.0001
2057.00,-0.0001
2056.00,-0.0001
2055.00,-0.0002
2054.00,-0.0002
2053.00,0.0002
2052.00,0.0007
2051.00,0.0011
2050.00,0.0011
2049.00,0.0008
2048.00,0.0003
2047.00,-0.0001
2046.00,-0.0003
2045.00,-0.0005
2044.00,-0.0006
2043.00,-0.0007
2042.00,-0.0008
2041.00,-0.0009
2040.00,-0.0008
2039.00,-0.0006
2038.00,-0.0003
2037.00,-0.0001
2036.00,0.0001
2035.00,-0.0001
2034.00,-0.0003
2033.00,-0.0005
2032.00,-0.0007
2031.00,-0.0009
2030.00,-0.0010
2029.00,-0.0011
2028.00,-0.0011
2027.00,-0.0012
2026.00,-0.0013
2025.00,-0.0014
2024.00,-0.0014
2023.00,-0.0014
2022.00,-0.0012
2021.00,-0.0011
2020.00,-0.0010
2019.00,-0.0011
2018.00,-0.0011
2017.00,-0.0011
2016.00,-0.0010
2015.00,-0.0011
2014.00,-0.0010
2013.00,-0.0009
2012.00,-0.0007
2011.00,-0.0007
2010.00,-0.0008
2009.00,-0.0012
2008.00,-0.0016
2007.00,-0.0019
2006.00,-0.0021
2005.00,-0.0021
2004.00,-0.0020
2003.00,-0.0020
2002.00,-0.0019
2001.00,-0.0016
2000.00,-0.0014
1999.00,-0.0014
1998.00,-0.0015
1997.00,-0.0015
1996.00,-0.0015
1995.00,-0.0013
1994.00,-0.0012
1993.00,-0.0010
1992.00,-0.0009
1991.00,-0.0008
1990.00,-0.0007
1989.00,-0.0007
1988.00,-0.0008
1987.00,-0.0010
1986.00,-0.0011
1985.00,-0.0010
1984.00,-0.0005
1983.00,0.0002
1982.00,0.0008
1981.00,0.0013
1980.00,0.0012
1979.00,0.0007
1978.00,-0.0000
1977.00,-0.0006
1976.00,-0.0009
1975.00,-0.0009
1974.00,-0.0010
1973.00,-0.0011
1972.00,-0.0014
1971.00,-0.0018
1970.00,-0.0021
1969.00,-0.0022
1968.00,-0.0023
1967.00,-0.0024
1966.00,-0.0024
1965.00,-0.0022
1964.00,-0.0020
1963.00,-0.0018
1962.00,-0.0017
1961.00,-0.0016
1960.00,-0.0016
1959.00,-0.0017
1958.00,-0.0019
1957.00,-0.0020
1956.00,-0.0020
1955.00,-0.0019
1954.00,-0.0019
1953.00,-0.0018
1952.00,-0.0016
1951.00,-0.0014
1950.00,-0.0012
1949.00,-0.0012
1948.00,-0.0013
1947.00,-0.0015
1946.00,-0.0017
1945.00,-0.0018
1944.00,-0.0017
1943.00,-0.0017
1942.00,-0.0017
1941.00,-0.0017
1940.00,-0.0016
1939.00,-0.0014
1938.00,-0.0013
1937.00,-0.0012
1936.00,-0.0012
1935.00,-0.0013
1934.00,-0.0013
1933.00,-0.0011
1932.00,-0.0009
1931.00,-0.0007
1930.00,-0.0006
1929.00,-0.0006
1928.00,-0.0006
1927.00,-0.0006
1926.00,-0.0007
1925.00,-0.0009
1924.00,-0.0010
1923.00,-0.0010
1922.00,-0.0009
1921.00,-0.0007
1920.00,-0.0006
1919.00,-0.0005
1918.00,-0.0004
1917.00,-0.0003
1916.00,-0.0003
1915.00,-0.0004
1914.00,-0.0005
1913.00,-0.0005
1912.00,-0.0004
1911.00,-0.0004
1910.00,-0.0005
1909.00,-0.0005
1908.00,-0.0004
1907.00,-0.0003
1906.00,-0.0003
1905.00,-0.0002
1904.00,-0.0003
1903.00,-0.0003
1902.00,-0.0003
1901.00,-0.0003
1900.00,-0.0002
1899.00,-0.0002
1898.00,-0.0002
1897.00,-0.0002
1896.00,-0.0002
1895.00,-0.0002
1894.00,-0.0002
1893.00,-0.0002
1892.00,-0.0003
1891.00,-0.0003
1890.00,-0.0002
1889.00,-0.0002
1888.00,-0.0001
1887.00,-0.0001
1886.00,-0.0001
1885.00,-0.0000
1884.00,-0.0000
1883.00,0.0000
1882.00,-0.0000
1881.00,-0.0001
1880.00,-0.0002
1879.00,-0.0002
1878.00,-0.0002
1877.00,-0.0001
1876.00,-0.0000
1875.00,-0.0000
1874.00,0.0000
1873.00,0.0000
1872.00,-0.0000
1871.00,-0.0001
1870.00,-0.0001
1869.00,-0.0001
1868.00,-0.0001
1867.00,-0.0001
1866.00,-0.0001
1865.00,-0.0001
1864.00,-0.0001
1863.00,-0.0001
1862.00,-0.0001
1861.00,-0.0001
1860.00,-0.0001
1859.00,-0.0001
1858.00,-0.0001
1857.00,-0.0000
1856.00,0.0000
1855.00,0.0000
1854.00,-0.0000
1853.00,-0.0001
1852.00,-0.0001
1851.00,-0.0001
1850.00,-0.0001
1849.00,-0.0001
1848.00,-0.0000
1847.00,0.0001
1846.00,0.0002
1845.00,0.0002
1844.00,0.0002
1843.00,0.0001
1842.00,0.0001
1841.00,0.0001
1840.00,0.0001
1839.00,0.0002
1838.00,0.0002
1837.00,0.0003
1836.00,0.0003
1835.00,0.0003
1834.00,0.0003
1833.00,0.0002
1832.00,0.0002
1831.00,0.0002
1830.00,0.0003
1829.00,0.0004
1828.00,0.0004
1827.00,0.0004
1826.00,0.0004
1825.00,0.0004
1824.00,0.0003
1823.00,0.0003
1822.00,0.0003
1821.00,0.0002
1820.00,0.0001
1819.00,0.0000
1818.00,-0.0001
1817.00,-0.0002
1816.00,-0.0001
1815.00,-0.0000
1814.00,0.0000
1813.00,0.0001
1812.00,0.0001
1811.00,0.0002
1810.00,0.0002
1809.00,0.0002
1808.00,0.0002
1807.00,0.0002
1806.00,0.0002
1805.00,0.0003
1804.00,0.0004
1803.00,0.0005
1802.00,0.0005
1801.00,0.0005
1800.00,0.0005
1799.00,0.0004
1798.00,0.0004
1797.00,0.0004
1796.00,0.0004
1795.00,0.0004
1794.00,0.0004
1793.00,0.0004
1792.00,0.0004
1791.00,0.0005
1790.00,0.0005
1789.00,0.0005
1788.00,0.0006
1787.00,0.0006
1786.00,0.0006
1785.00,0.0007
1784.00,0.0007
1783.00,0.0007
1782.00,0.0007
1781.00,0.0007
1780.00,0.0008
1779.00,0.0008
1778.00,0.0007
1777.00,0.0007
1776.00,0.0006
1775.00,0.0006
1774.00,0.0006
1773.00,0.0006
1772.00,0.0007
1771.00,0.0008
1770.00,0.0009
1769.00,0.0009
1768.00,0.0009
1767.00,0.0009
1766.00,0.0009
1765.00,0.0009
1764.00,0.0009
1763.00,0.0009
1762.00,0.0009
1761.00,0.0010
1760.00,0.0011
1759.00,0.0011
1758.00,0.0012
1757.00,0.0012
1756.00,0.0013
1755.00,0.0013
1754.00,0.0014
1753.00,0.0014
1752.00,0.0014
1751.00,0.0014
1750.00,0.0015
1749.00,0.0015
1748.00,0.0016
1747.00,0.0017
1746.00,0.0017
1745.00,0.0017
1744.00,0.0018
1743.00,0.0018
1742.00,0.0018
1741.00,0.0019
1740.00,0.0019
1739.00,0.0020
1738.00,0.0020
1737.00,0.0021
1736.00,0.0021
1735.00,0.0021
1734.00,0.0020
1733.00,0.0020
1732.00,0.0020
1731.00,0.0020
1730.00,0.0021
1729.00,0.0021
1728.00,0.0021
1727.00,0.0021
1726.00,0.0021
1725.00,0.0021
1724.00,0.0022
1723.00,0.0022
1722.00,0.0022
1721.00,0.0023
1720.00,0.0023
1719.00,0.0023
1718.00,0.0023
1717.00,0.0023
1716.00,0.0023
1715.00,0.0023
1714.00,0.0022
1713.00,0.0022
1712.00,0.0021
1711.00,0.0021
1710.00,0.0021
1709.00,0.0021
1708.00,0.0021
1707.00,0.0021
1706.00,0.0021
1705.00,0.0022
1704.00,0.0022
1703.00,0.0023
1702.00,0.0022
1701.00,0.0022
1700.00,0.0023
1699.00,0.0024
1698.00,0.0024
1697.00,0.0024
1696.00,0.0025
1695.00,0.0025
1694.00,0.0026
1693.00,0.0026
1692.00,0.0027
1691.00,0.0027
1690.00,0.0027
1689.00,0.0028
1688.00,0.0028
1687.00,0.0027
1686.00,0.0027
1685.00,0.0026
1684.00,0.0027
1683.00,0.0029
1682.00,0.0030
1681.00,0.0030
1680.00,0.0031
1679.00,0.0032
1678.00,0.0032
1677.00,0.0033
1676.00,0.0033
1675.00,0.0033
1674.00,0.0033
1673.00,0.0034
1672.00,0.0035
1671.00,0.0036
1670.00,0.0037
1669.00,0.0037
1668.00,0.0037
1667.00,0.0037
1666.00,0.0036
1665.00,0.0036
1664.00,0.0037
1663.00,0.0037
1662.00,0.0038
1661.00,0.0039
1660.00,0.0040
1659.00,0.0040
1658.00,0.0041
1657.00,0.0041
1656.00,0.0042
1655.00,0.0043
1654.00,0.0044
1653.00,0.0046
1652.00,0.0047
1651.00,0.0047
1650.00,0.0047
1649.00,0.0048
1648.00,0.0049
1647.00,0.0050
1646.00,0.0051
1645.00,0.0052
1644.00,0.0052
1643.00,0.0053
1642.00,0.0053
1641.00,0.0054
1640.00,0.0054
1639.00,0.0055
1638.00,0.0056
1637.00,0.0056
1636.00,0.0056
1635.00,0.0055
1634.00,0.0054
1633.00,0.0053
1632.00,0.0052
1631.00,0.0052
1630.00,0.0052
1629.00,0.0051
1628.00,0.0051
1627.00,0.0051
1626.00,0.0051
1625.00,0.0051
1624.00,0.0050
1623.00,0.0049
1622.00,0.0048
1621.00,0.0047
1620.00,0.0047
1619.00,0.0047
1618.00,0.0047
1617.00,0.0047
1616.00,0.0047
1615.00,0.0046
1614.00,0.0046
1613.00,0.0046
1612.00,0.0046
1611.00,0.0046
1610.00,0.0046
1609.00,0.0047
1608.00,0.0047
1607.00,0.0047
1606.00,0.0046
1605.00,0.0046
1604.00,0.0047
1603.00,0.0046
1602.00,0.0046
1601.00,0.0046
1600.00,0.0046
1599.00,0.0045
1598.00,0.0045
1597.00,0.0045
1596.00,0.0046
1595.00,0.0046
1594.00,0.0046
1593.00,0.0047
1592.00,0.0047
1591.00,0.0048
1590.00,0.0048
1589.00,0.0049
1588.00,0.0050
1587.00,0.0052
1586.00,0.0053
1585.00,0.0055
1584.00,0.0058
1583.00,0.0061
1582.00,0.0064
1581.00,0.0067
1580.00,0.0069
1579.00,0.0071
1578.00,0.0073
1577.00,0.0073
1576.00,0.0073
1575.00,0.0073
1574.00,0.0072
1573.00,0.0071
1572.00,0.0070
1571.00,0.0068
1570.00,0.0066
1569.00,0.0063
1568.00,0.0062
1567.00,0.0061
1566.00,0.0060
1565.00,0.0060
1564.00,0.0060
1563.00,0.0060
1562.00,0.0060
1561.00,0.0061
1560.00,0.0061
1559.00,0.0061
1558.00,0.0061
1557.00,0.0061
1556.00,0.0061
1555.00,0.0062
1554.00,0.0062
1553.00,0.0063
1552.00,0.0064
1551.00,0.0065
1550.00,0.0067
1549.00,0.0069
1548.00,0.0071
1547.00,0.0073
1546.00,0.0075
1545.00,0.0078
1544.00,0.0082
1543.00,0.0085
1542.00,0.0088
1541.00,0.0089
1540.00,0.0087
1539.00,0.0084
1538.00,0.0080
1537.00,0.0077
1536.00,0.0075
1535.00,0.0071
1534.00,0.0067
1533.00,0.0064
1532.00,0.0061
1531.00,0.0059
1530.00,0.0058
1529.00,0.0057
1528.00,0.0056
1527.00,0.0055
1526.00,0.0055
1525.00,0.0055
1524.00,0.0056
1523.00,0.0056
1522.00,0.0056
1521.00,0.0057
1520.00,0.0058
1519.00,0.0057
1518.00,0.0056
1517.00,0.0056
1516.00,0.0056
1515.00,0.0056
1514.00,0.0056
1513.00,0.0057
1512.00,0.0057
1511.00,0.0058
1510.00,0.0058
1509.00,0.0059
1508.00,0.0061
1507.00,0.0062
1506.00,0.0062
1505.00,0.0063
1504.00,0.0064
1503.00,0.0065
1502.00,0.0066
1501.00,0.0069
1500.00,0.0071
1499.00,0.0073
1498.00,0.0076
1497.00,0.0079
1496.00,0.0082
1495.00,0.0084
1494.00,0.0086
1493.00,0.0089
1492.00,0.0093
1491.00,0.0097
1490.00,0.0101
1489.00,0.0106
1488.00,0.0112
1487.00,0.0117
1486.00,0.0122
1485.00,0.0129
1484.00,0.0136
1483.00,0.0144
1482.00,0.0153
1481.00,0.0165
1480.00,0.0178
1479.00,0.0191
1478.00,0.0207
1477.00,0.0228
1476.00,0.0253
1475.00,0.0283
1474.00,0.0322
1473.00,0.0375
1472.00,0.0438
1471.00,0.0498
1470.00,0.0557
1469.00,0.0620
1468.00,0.0688
1467.00,0.0763
1466.00,0.0847
1465.00,0.0938
1464.00,0.1018
1463.00,0.1075
1462.00,0.1113
1461.00,0.1140
1460.00,0.1161
1459.00,0.1176
1458.00,0.1191
1457.00,0.1205
1456.00,0.1212
1455.00,0.1209
1454.00,0.1203
1453.00,0.1193
1452.00,0.1173
1451.00,0.1142
1450.00,0.1096
1449.00,0.1028
1448.00,0.0938
1447.00,0.0839
1446.00,0.0747
1445.00,0.0666
1444.00,0.0596
1443.00,0.0538
1442.00,0.0494
1441.00,0.0464
1440.00,0.0444
1439.00,0.0434
1438.00,0.0431
1437.00,0.0429
1436.00,0.0418
1435.00,0.0393
1434.00,0.0359
1433.00,0.0317
1432.00,0.0274
1431.00,0.0236
1430.00,0.0206
1429.00,0.0184
1428.00,0.0167
1427.00,0.0157
1426.00,0.0151
1425.00,0.0145
1424.00,0.0141
1423.00,0.0138
1422.00,0.0137
1421.00,0.0135
1420.00,0.0132
1419.00,0.0129
1418.00,0.0127
1417.00,0.0124
1416.00,0.0121
1415.00,0.0120
1414.00,0.0119
1413.00,0.0117
1412.00,0.0116
1411.00,0.0115
1410.00,0.0115
1409.00,0.0114
1408.00,0.0113
1407.00,0.0114
1406.00,0.0115
1405.00,0.0115
1404.00,0.0115
1403.00,0.0116
1402.00,0.0117
1401.00,0.0118
1400.00,0.0119
1399.00,0.0121
1398.00,0.0124
1397.00,0.0126
1396.00,0.0129
1395.00,0.0134
1394.00,0.0140
1393.00,0.0146
1392.00,0.0151
1391.00,0.0158
1390.00,0.0168
1389.00,0.0181
1388.00,0.0203
1387.00,0.0235
1386.00,0.0278
1385.00,0.0335
1384.00,0.0412
1383.00,0.0519
1382.00,0.0662
1381.00,0.0843
1380.00,0.1063
1379.00,0.1308
1378.00,0.1541
1377.00,0.1707
1376.00,0.1757
1375.00,0.1664
1374.00,0.1457
1373.00,0.1209
1372.00,0.0982
1371.00,0.0795
1370.00,0.0644
1369.00,0.0528
1368.00,0.0447
1367.00,0.0397
1366.00,0.0369
1365.00,0.0357
1364.00,0.0359
1363.00,0.0371
1362.00,0.0391
1361.00,0.0412
1360.00,0.0428
1359.00,0.0433
1358.00,0.0423
1357.00,0.0399
1356.00,0.0365
1355.00,0.0327
1354.00,0.0291
1353.00,0.0259
1352.00,0.0233
1351.00,0.0212
1350.00,0.0195
1349.00,0.0180
1348.00,0.0168
1347.00,0.0158
1346.00,0.0150
1345.00,0.0142
1344.00,0.0136
1343.00,0.0131
1342.00,0.0127
1341.00,0.0123
1340.00,0.0120
1339.00,0.0119
1338.00,0.0118
1337.00,0.0118
1336.00,0.0119
1335.00,0.0120
1334.00,0.0123
1333.00,0.0126
1332.00,0.0129
1331.00,0.0132
1330.00,0.0134
1329.00,0.0132
1328.00,0.0130
1327.00,0.0125
1326.00,0.0121
1325.00,0.0115
1324.00,0.0110
1323.00,0.0105
1322.00,0.0101
1321.00,0.0098
1320.00,0.0095
1319.00,0.0094
1318.00,0.0092
1317.00,0.0091
1316.00,0.0090
1315.00,0.0089
1314.00,0.0089
1313.00,0.0090
1312.00,0.0091
1311.00,0.0093
1310.00,0.0099
1309.00,0.0107
1308.00,0.0118
1307.00,0.0133
1306.00,0.0148
1305.00,0.0158
1304.00,0.0160
1303.00,0.0155
1302.00,0.0147
1301.00,0.0138
1300.00,0.0132
1299.00,0.0129
1298.00,0.0128
1297.00,0.0128
1296.00,0.0126
1295.00,0.0123
1294.00,0.0119
1293.00,0.0114
1292.00,0.0109
1291.00,0.0104
1290.00,0.0100
1289.00,0.0097
1288.00,0.0094
1287.00,0.0092
1286.00,0.0090
1285.00,0.0088
1284.00,0.0087
1283.00,0.0086
1282.00,0.0085
1281.00,0.0084
1280.00,0.0083
1279.00,0.0082
1278.00,0.0081
1277.00,0.0081
1276.00,0.0080
1275.00,0.0081
1274.00,0.0082
1273.00,0.0083
1272.00,0.0085
1271.00,0.0087
1270.00,0.0089
1269.00,0.0092
1268.00,0.0095
1267.00,0.0099
1266.00,0.0103
1265.00,0.0108
1264.00,0.0112
1263.00,0.0116
1262.00,0.0121
1261.00,0.0126
1260.00,0.0133
1259.00,0.0141
1258.00,0.0150
1257.00,0.0157
1256.00,0.0159
1255.00,0.0156
1254.00,0.0148
1253.00,0.0136
1252.00,0.0124
1251.00,0.0114
1250.00,0.0107
1249.00,0.0101
1248.00,0.0097
1247.00,0.0094
1246.00,0.0091
1245.00,0.0089
1244.00,0.0088
1243.00,0.0086
1242.00,0.0085
1241.00,0.0083
1240.00,0.0082
1239.00,0.0082
1238.00,0.0082
1237.00,0.0082
1236.00,0.0081
1235.00,0.0081
1234.00,0.0081
1233.00,0.0081
1232.00,0.0082
1231.00,0.0083
1230.00,0.0084
1229.00,0.0084
1228.00,0.0085
1227.00,0.0086
1226.00,0.0088
1225.00,0.0091
1224.00,0.0094
1223.00,0.0098
1222.00,0.0101
1221.00,0.0103
1220.00,0.0104
1219.00,0.0105
1218.00,0.0104
1217.00,0.0102
1216.00,0.0100
1215.00,0.0098
1214.00,0.0095
1213.00,0.0092
1212.00,0.0089
1211.00,0.0087
1210.00,0.0085
1209.00,0.0084
1208.00,0.0082
1207.00,0.0081
1206.00,0.0080
1205.00,0.0080
1204.00,0.0080
1203.00,0.0080
1202.00,0.0080
1201.00,0.0079
1200.00,0.0079
1199.00,0.0080
1198.00,0.0080
1197.00,0.0080
1196.00,0.0081
1195.00,0.0081
1194.00,0.0082
1193.00,0.0082
1192.00,0.0082
1191.00,0.0082
1190.00,0.0082
1189.00,0.0082
1188.00,0.0083
1187.00,0.0084
1186.00,0.0085
1185.00,0.0086
1184.00,0.0088
1183.00,0.0090
1182.00,0.0094
1181.00,0.0098
1180.00,0.0103
1179.00,0.0109
1178.00,0.0118
1177.00,0.0128
1176.00,0.0143
1175.00,0.0161
1174.00,0.0186
1173.00,0.0218
1172.00,0.0256
1171.00,0.0299
1170.00,0.0341
1169.00,0.0375
1168.00,0.0396
1167.00,0.0400
1166.00,0.0388
1165.00,0.0365
1164.00,0.0339
1163.00,0.0313
1162.00,0.0290
1161.00,0.0271
1160.00,0.0256
1159.00,0.0245
1158.00,0.0236
1157.00,0.0230
1156.00,0.0225
1155.00,0.0221
1154.00,0.0219
1153.00,0.0215
1152.00,0.0210
1151.00,0.0202
1150.00,0.0192
1149.00,0.0182
1148.00,0.0171
1147.00,0.0161
1146.00,0.0152
1145.00,0.0143
1144.00,0.0135
1143.00,0.0127
1142.00,0.0119
1141.00,0.0113
1140.00,0.0108
1139.00,0.0104
1138.00,0.0101
1137.00,0.0098
1136.00,0.0095
1135.00,0.0093
1134.00,0.0091
1133.00,0.0090
1132.00,0.0090
1131.00,0.0089
1130.00,0.0089
1129.00,0.0090
1128.00,0.0091
1127.00,0.0091
1126.00,0.0092
1125.00,0.0091
1124.00,0.0091
1123.00,0.0090
1122.00,0.0090
1121.00,0.0091
1120.00,0.0091
1119.00,0.0093
1118.00,0.0095
1117.00,0.0096
1116.00,0.0098
1115.00,0.0099
1114.00,0.0101
1113.00,0.0102
1112.00,0.0104
1111.00,0.0107
1110.00,0.0110
1109.00,0.0114
1108.00,0.0119
1107.00,0.0124
1106.00,0.0130
1105.00,0.0136
1104.00,0.0140
1103.00,0.0142
1102.00,0.0142
1101.00,0.0139
1100.00,0.0133
1099.00,0.0127
1098.00,0.0121
1097.00,0.0116
1096.00,0.0112
1095.00,0.0109
1094.00,0.0108
1093.00,0.0106
1092.00,0.0106
1091.00,0.0105
1090.00,0.0104
1089.00,0.0103
1088.00,0.0101
1087.00,0.0100
1086.00,0.0099
1085.00,0.0098
1084.00,0.0098
1083.00,0.0098
1082.00,0.0098
1081.00,0.0098
1080.00,0.0098
1079.00,0.0097
1078.00,0.0096
1077.00,0.0096
1076.00,0.0095
1075.00,0.0095
1074.00,0.0095
1073.00,0.0094
1072.00,0.0094
1071.00,0.0093
1070.00,0.0092
1069.00,0.0092
1068.00,0.0092
1067.00,0.0092
1066.00,0.0092
1065.00,0.0093
1064.00,0.0093
1063.00,0.0094
1062.00,0.0094
1061.00,0.0095
1060.00,0.0096
1059.00,0.0098
1058.00,0.0100
1057.00,0.0101
1056.00,0.0103
1055.00,0.0105
1054.00,0.0107
1053.00,0.0109
1052.00,0.0113
1051.00,0.0117
1050.00,0.0123
1049.00,0.0129
1048.00,0.0134
1047.00,0.0140
1046.00,0.0145
1045.00,0.0147
1044.00,0.0147
1043.00,0.0145
1042.00,0.0143
1041.00,0.0140
1040.00,0.0138
1039.00,0.0137
1038.00,0.0137
1037.00,0.0137
1036.00,0.0136
1035.00,0.0134
1034.00,0.0131
1033.00,0.0129
1032.00,0.0127
1031.00,0.0127
1030.00,0.0126
1029.00,0.0126
1028.00,0.0126
1027.00,0.0127
1026.00,0.0129
1025.00,0.0131
1024.00,0.0134
1023.00,0.0137
1022.00,0.0140
1021.00,0.0143
1020.00,0.0145
1019.00,0.0148
1018.00,0.0150
1017.00,0.0151
1016.00,0.0151
1015.00,0.0151
1014.00,0.0150
1013.00,0.0150
1012.00,0.0151
1011.00,0.0152
1010.00,0.0154
1009.00,0.0156
1008.00,0.0160
1007.00,0.0165
1006.00,0.0174
1005.00,0.0187
1004.00,0.0207
1003.00,0.0235
1002.00,0.0274
1001.00,0.0324
1000.00,0.0378
999.00,0.0426
998.00,0.0452
997.00,0.0448
996.00,0.0414
995.00,0.0362
994.00,0.0306
993.00,0.0257
992.00,0.0217
991.00,0.0188
990.00,0.0168
989.00,0.0153
988.00,0.0144
987.00,0.0139
986.00,0.0137
985.00,0.0139
984.00,0.0142
983.00,0.0150
982.00,0.0161
981.00,0.0178
980.00,0.0203
979.00,0.0236
978.00,0.0279
977.00,0.0332
976.00,0.0391
975.00,0.0450
974.00,0.0496
973.00,0.0518
972.00,0.0506
971.00,0.0461
970.00,0.0397
969.00,0.0328
968.00,0.0269
967.00,0.0223
966.00,0.0190
965.00,0.0167
964.00,0.0150
963.00,0.0137
962.00,0.0127
961.00,0.0120
960.00,0.0114
959.00,0.0110
958.00,0.0106
957.00,0.0103
956.00,0.0099
955.00,0.0096
954.00,0.0093
953.00,0.0091
952.00,0.0091
951.00,0.0090
950.00,0.0089
949.00,0.0088
948.00,0.0087
947.00,0.0088
946.00,0.0089
945.00,0.0091
944.00,0.0093
943.00,0.0096
942.00,0.0099
941.00,0.0100
940.00,0.0100
939.00,0.0098
938.00,0.0093
937.00,0.0087
936.00,0.0081
935.00,0.0076
934.00,0.0073
933.00,0.0070
932.00,0.0068
931.00,0.0066
930.00,0.0066
929.00,0.0065
928.00,0.0064
927.00,0.0063
926.00,0.0062
925.00,0.0062
924.00,0.0062
923.00,0.0062
922.00,0.0063
921.00,0.0063
920.00,0.0062
919.00,0.0062
918.00,0.0062
917.00,0.0062
916.00,0.0063
915.00,0.0064
914.00,0.0065
913.00,0.0066
912.00,0.0066
911.00,0.0067
910.00,0.0069
909.00,0.0072
908.00,0.0076
907.00,0.0081
906.00,0.0087
905.00,0.0096
904.00,0.0109
903.00,0.0124
902.00,0.0142
901.00,0.0158
900.00,0.0170
899.00,0.0172
898.00,0.0165
897.00,0.0150
896.00,0.0132
895.00,0.0116
894.00,0.0102
893.00,0.0093
892.00,0.0086
891.00,0.0082
890.00,0.0078
889.00,0.0074
888.00,0.0072
887.00,0.0071
886.00,0.0071
885.00,0.0072
884.00,0.0071
883.00,0.0071
882.00,0.0071
881.00,0.0071
880.00,0.0071
879.00,0.0072
878.00,0.0072
877.00,0.0073
876.00,0.0073
875.00,0.0074
874.00,0.0075
873.00,0.0075
872.00,0.0076
871.00,0.0077
870.00,0.0077
869.00,0.0076
868.00,0.0076
867.00,0.0077
866.00,0.0079
865.00,0.0080
864.00,0.0081
863.00,0.0081
862.00,0.0082
861.00,0.0084
860.00,0.0085
859.00,0.0087
858.00,0.0089
857.00,0.0092
856.00,0.0096
855.00,0.0101
854.00,0.0104
853.00,0.0106
852.00,0.0107
851.00,0.0110
850.00,0.0116
849.00,0.0123
848.00,0.0135
847.00,0.0151
846.00,0.0178
845.00,0.0220
844.00,0.0281
843.00,0.0356
842.00,0.0422
841.00,0.0450
840.00,0.0427
839.00,0.0364
838.00,0.0290
837.00,0.0228
836.00,0.0185
835.00,0.0158
834.00,0.0141
833.00,0.0131
832.00,0.0126
831.00,0.0123
830.00,0.0120
829.00,0.0116
828.00,0.0113
827.00,0.0110
826.00,0.0108
825.00,0.0108
824.00,0.0110
823.00,0.0111
822.00,0.0113
821.00,0.0114
820.00,0.0115
819.00,0.0117
818.00,0.0120
817.00,0.0125
816.00,0.0131
815.00,0.0141
814.00,0.0155
813.00,0.0172
812.00,0.0191
811.00,0.0209
810.00,0.0221
809.00,0.0227
808.00,0.0224
807.00,0.0214
806.00,0.0199
805.00,0.0181
804.00,0.0164
803.00,0.0150
802.00,0.0139
801.00,0.0132
800.00,0.0127
799.00,0.0123
798.00,0.0118
797.00,0.0113
796.00,0.0109
795.00,0.0106
794.00,0.0104
793.00,0.0101
792.00,0.0097
791.00,0.0093
790.00,0.0089
789.00,0.0085
788.00,0.0081
787.00,0.0077
786.00,0.0073
785.00,0.0071
784.00,0.0069
783.00,0.0069
782.00,0.0068
781.00,0.0068
780.00,0.0067
779.00,0.0067
778.00,0.0067
777.00,0.0066
776.00,0.0064
775.00,0.0063
774.00,0.0063
773.00,0.0065
772.00,0.0068
771.00,0.0069
770.00,0.0070
769.00,0.0070
768.00,0.0070
767.00,0.0069
766.00,0.0068
765.00,0.0067
764.00,0.0066
763.00,0.0066
762.00,0.0066
761.00,0.0066
760.00,0.0066
759.00,0.0066
758.00,0.0067
757.00,0.0068
756.00,0.0069
755.00,0.0069
754.00,0.0070
753.00,0.0072
752.00,0.0074
751.00,0.0076
750.00,0.0076
749.00,0.0077
748.00,0.0078
747.00,0.0080
746.00,0.0083
745.00,0.0084
744.00,0.0085
743.00,0.0086
742.00,0.0087
741.00,0.0090
740.00,0.0093
739.00,0.0095
738.00,0.0098
737.00,0.0101
736.00,0.0105
735.00,0.0110
734.00,0.0114
733.00,0.0119
732.00,0.0122
731.00,0.0126
730.00,0.0130
729.00,0.0134
728.00,0.0136
727.00,0.0137
726.00,0.0139
725.00,0.0141
724.00,0.0144
723.00,0.0148
722.00,0.0151
721.00,0.0153
720.00,0.0151
719.00,0.0145
718.00,0.0138
717.00,0.0130
716.00,0.0123
715.00,0.0118
714.00,0.0113
713.00,0.0110
712.00,0.0107
711.00,0.0104
710.00,0.0102
709.00,0.0101
708.00,0.0100
707.00,0.0100
706.00,0.0100
705.00,0.0101
704.00,0.0102
703.00,0.0101
702.00,0.0100
701.00,0.0098
700.00,0.0097
699.00,0.0096
698.00,0.0096
697.00,0.0096
696.00,0.0097
695.00,0.0097
694.00,0.0097
693.00,0.0096
692.00,0.0096
691.00,0.0098
690.00,0.0100
689.00,0.0102
688.00,0.0103
687.00,0.0102
686.00,0.0101
685.00,0.0099
684.00,0.0099
683.00,0.0099
682.00,0.0099
681.00,0.0099
680.00,0.0098
679.00,0.0098
678.00,0.0100
677.00,0.0102
676.00,0.0103
675.00,0.0105
674.00,0.0106
673.00,0.0107
672.00,0.0107
671.00,0.0108
670.00,0.0110
669.00,0.0113
668.00,0.0115
667.00,0.0114
666.00,0.0108
665.00,0.0102
664.00,0.0098
663.00,0.0097
662.00,0.0098
661.00,0.0098
660.00,0.0098
659.00,0.0096
658.00,0.0093
657.00,0.0091
656.00,0.0089
655.00,0.0089
654.00,0.0090
653.00,0.0091
652.00,0.0092
651.00,0.0093
650.00,0.0092
649.00,0.0091
648.00,0.0089
647.00,0.0086
646.00,0.0084
645.00,0.0083
644.00,0.0084
643.00,0.0084
642.00,0.0084
641.00,0.0084
640.00,0.0085
639.00,0.0085
638.00,0.0086
637.00,0.0085
636.00,0.0085
635.00,0.0085
634.00,0.0085
633.00,0.0086
632.00,0.0088
631.00,0.0091
630.00,0.0093
629.00,0.0094
628.00,0.0094
627.00,0.0093
626.00,0.0092
625.00,0.0092
624.00,0.0093
623.00,0.0092
622.00,0.0090
621.00,0.0087
620.00,0.0084
619.00,0.0083
618.00,0.0084
617.00,0.0086
616.00,0.0087
615.00,0.0089
614.00,0.0089
613.00,0.0089
612.00,0.0090
611.00,0.0090
610.00,0.0090
609.00,0.0089
608.00,0.0089
607.00,0.0088
606.00,0.0086
605.00,0.0084
604.00,0.0085
603.00,0.0086
602.00,0.0088
601.00,0.0087
600.00,0.0084
599.00,0.0082
598.00,0.0083
597.00,0.0087
596.00,0.0091
595.00,0.0093
594.00,0.0094
593.00,0.0094
592.00,0.0094
591.00,0.0092
590.00,0.0089
589.00,0.0085
588.00,0.0084
587.00,0.0086
586.00,0.0089
585.00,0.0091
584.00,0.0092
583.00,0.0091
582.00,0.0090
581.00,0.0090
580.00,0.0089
579.00,0.0089
578.00,0.0090
577.00,0.0091
576.00,0.0092
575.00,0.0092
574.00,0.0092
573.00,0.0091
572.00,0.0092
571.00,0.0093
570.00,0.0094
569.00,0.0094
568.00,0.0093
567.00,0.0093
566.00,0.0094
565.00,0.0097
564.00,0.0098
563.00,0.0099
562.00,0.0097
561.00,0.0095
560.00,0.0093
559.00,0.0092
558.00,0.0093
557.00,0.0094
556.00,0.0096
555.00,0.0095
554.00,0.0093
553.00,0.0091
552.00,0.0092
551.00,0.0094
550.00,0.0095
549.00,0.0096
548.00,0.0094
547.00,0.0092
546.00,0.0092
545.00,0.0094
544.00,0.0098
543.00,0.0103
542.00,0.0108
541.00,0.0111
540.00,0.0113
539.00,0.0115
538.00,0.0117
537.00,0.0118
536.00,0.0119
535.00,0.0121
534.00,0.0124
533.00,0.0128
532.00,0.0131
531.00,0.0128
530.00,0.0119
529.00,0.0109
528.00,0.0105
527.00,0.0106
526.00,0.0109
525.00,0.0112
524.00,0.0114
523.00,0.0115
522.00,0.0112
521.00,0.0104
520.00,0.0095
519.00,0.0088
518.00,0.0086
517.00,0.0086
516.00,0.0086
515.00,0.0088
514.00,0.0089
513.00,0.0091
512.00,0.0094
511.00,0.0099
510.00,0.0102
509.00,0.0100
508.00,0.0094
507.00,0.0090
506.00,0.0092
505.00,0.0097
504.00,0.0101
503.00,0.0100
502.00,0.0099
501.00,0.0099
500.00,0.0102
499.00,0.0105
498.00,0.0108
497.00,0.0107
496.00,0.0102
495.00,0.0092
494.00,0.0084
493.00,0.0082
492.00,0.0087
491.00,0.0095
490.00,0.0100
489.00,0.0102
488.00,0.0104
487.00,0.0106
486.00,0.0106
485.00,0.0100
484.00,0.0090
483.00,0.0082
482.00,0.0079
481.00,0.0081
480.00,0.0088
479.00,0.0098
478.00,0.0111
477.00,0.0125
476.00,0.0139
475.00,0.0151
474.00,0.0158
473.00,0.0156
472.00,0.0148
471.00,0.0140
470.00,0.0138
469.00,0.0145
468.00,0.0156
467.00,0.0167
466.00,0.0176
465.00,0.0183
464.00,0.0190
463.00,0.0196
462.00,0.0199
461.00,0.0201
460.00,0.0201
459.00,0.0201
458.00,0.0199
457.00,0.0194
456.00,0.0190
455.00,0.0189
454.00,0.0188
453.00,0.0185
452.00,0.0180
451.00,0.0178
450.00,0.0183
