Created as New Dataset,Sample 031 By Administrator Date Thursday, September 04 2025
cm-1,A
4000.00,0.0012
3999.00,0.0012
3998.00,0.0012
3997.00,0.0012
3996.00,0.0012
3995.00,0.0012
3994.00,0.0012
3993.00,0.0012
3992.00,0.0011
3991.00,0.0011
3990.00,0.0011
3989.00,0.0011
3988.00,0.0011
3987.00,0.0011
3986.00,0.0011
3985.00,0.0011
3984.00,0.0011
3983.00,0.0011
3982.00,0.0010
3981.00,0.0010
3980.00,0.0010
3979.00,0.0010
3978.00,0.0010
3977.00,0.0009
3976.00,0.0009
3975.00,0.0009
3974.00,0.0009
3973.00,0.0009
3972.00,0.0009
3971.00,0.0010
3970.00,0.0010
3969.00,0.0010
3968.00,0.0010
3967.00,0.0010
3966.00,0.0010
3965.00,0.0010
3964.00,0.0010
3963.00,0.0009
3962.00,0.0009
3961.00,0.0009
3960.00,0.0009
3959.00,0.0009
3958.00,0.0009
3957.00,0.0010
3956.00,0.0009
3955.00,0.0009
3954.00,0.0009
3953.00,0.0009
3952.00,0.0008
3951.00,0.0008
3950.00,0.0009
3949.00,0.0009
3948.00,0.0009
3947.00,0.0010
3946.00,0.0009
3945.00,0.0009
3944.00,0.0009
3943.00,0.0009
3942.00,0.0010
3941.00,0.0010
3940.00,0.0010
3939.00,0.0010
3938.00,0.0010
3937.00,0.0010
3936.00,0.0010
3935.00,0.0009
3934.00,0.0009
3933.00,0.0009
3932.00,0.0009
3931.00,0.0009
3930.00,0.0010
3929.00,0.0010
3928.00,0.0010
3927.00,0.0010
3926.00,0.0010
3925.00,0.0010
3924.00,0.0010
3923.00,0.0010
3922.00,0.0010
3921.00,0.0010
3920.00,0.0010
3919.00,0.0010
3918.00,0.0010
3917.00,0.0009
3916.00,0.0009
3915.00,0.0009
3914.00,0.0009
3913.00,0.0009
3912.00,0.0009
3911.00,0.0009
3910.00,0.0009
3909.00,0.0009
3908.00,0.0010
3907.00,0.0010
3906.00,0.0010
3905.00,0.0010
3904.00,0.0009
3903.00,0.0009
3902.00,0.0009
3901.00,0.0009
3900.00,0.0009
3899.00,0.0009
3898.00,0.0009
3897.00,0.0010
3896.00,0.0010
3895.00,0.0010
3894.00,0.0010
3893.00,0.0010
3892.00,0.0010
3891.00,0.0010
3890.00,0.0009
3889.00,0.0009
3888.00,0.0009
3887.00,0.0009
3886.00,0.0009
3885.00,0.0009
3884.00,0.0009
3883.00,0.0009
3882.00,0.0009
3881.00,0.0009
3880.00,0.0009
3879.00,0.0009
3878.00,0.0009
3877.00,0.0009
3876.00,0.0009
3875.00,0.0009
3874.00,0.0009
3873.00,0.0009
3872.00,0.0009
3871.00,0.0008
3870.00,0.0008
3869.00,0.0008
3868.00,0.0008
3867.00,0.0008
3866.00,0.0008
3865.00,0.0008
3864.00,0.0008
3863.00,0.0009
3862.00,0.0009
3861.00,0.0009
3860.00,0.0010
3859.00,0.0010
3858.00,0.0010
3857.00,0.0009
3856.00,0.0009
3855.00,0.0008
3854.00,0.0008
3853.00,0.0008
3852.00,0.0008
3851.00,0.0007
3850.00,0.0007
3849.00,0.0007
3848.00,0.0007
3847.00,0.0007
3846.00,0.0007
3845.00,0.0007
3844.00,0.0007
3843.00,0.0007
3842.00,0.0007
3841.00,0.0007
3840.00,0.0007
3839.00,0.0008
3838.00,0.0009
3837.00,0.0009
3836.00,0.0009
3835.00,0.0009
3834.00,0.0008
3833.00,0.0008
3832.00,0.0008
3831.00,0.0008
3830.00,0.0008
3829.00,0.0008
3828.00,0.0008
3827.00,0.0008
3826.00,0.0008
3825.00,0.0008
3824.00,0.0008
3823.00,0.0008
3822.00,0.0008
3821.00,0.0008
3820.00,0.0009
3819.00,0.0008
3818.00,0.0008
3817.00,0.0008
3816.00,0.0009
3815.00,0.0009
3814.00,0.0009
3813.00,0.0009
3812.00,0.0009
3811.00,0.0009
3810.00,0.0009
3809.00,0.0009
3808.00,0.0009
3807.00,0.0008
3806.00,0.0008
3805.00,0.0008
3804.00,0.0008
3803.00,0.0008
3802.00,0.0008
3801.00,0.0008
3800.00,0.0008
3799.00,0.0007
3798.00,0.0007
3797.00,0.0008
3796.00,0.0008
3795.00,0.0008
3794.00,0.0009
3793.00,0.0009
3792.00,0.0009
3791.00,0.0008
3790.00,0.0008
3789.00,0.0008
3788.00,0.0008
3787.00,0.0009
3786.00,0.0009
3785.00,0.0009
3784.00,0.0009
3783.00,0.0009
3782.00,0.0009
3781.00,0.0009
3780.00,0.0009
3779.00,0.0008
3778.00,0.0008
3777.00,0.0008
3776.00,0.0008
3775.00,0.0008
3774.00,0.0009
3773.00,0.0009
3772.00,0.0010
3771.00,0.0010
3770.00,0.0010
3769.00,0.0009
3768.00,0.0009
3767.00,0.0008
3766.00,0.0008
3765.00,0.0009
3764.00,0.0009
3763.00,0.0009
3762.00,0.0009
3761.00,0.0009
3760.00,0.0009
3759.00,0.0009
3758.00,0.0009
3757.00,0.0009
3756.00,0.0009
3755.00,0.0009
3754.00,0.0008
3753.00,0.0008
3752.00,0.0008
3751.00,0.0008
3750.00,0.0008
3749.00,0.0008
3748.00,0.0008
3747.00,0.0008
3746.00,0.0008
3745.00,0.0009
3744.00,0.0009
3743.00,0.0009
3742.00,0.0008
3741.00,0.0008
3740.00,0.0009
3739.00,0.0008
3738.00,0.0008
3737.00,0.0007
3736.00,0.0006
3735.00,0.0006
3734.00,0.0006
3733.00,0.0007
3732.00,0.0007
3731.00,0.0006
3730.00,0.0006
3729.00,0.0006
3728.00,0.0005
3727.00,0.0005
3726.00,0.0005
3725.00,0.0005
3724.00,0.0005
3723.00,0.0006
3722.00,0.0006
3721.00,0.0006
3720.00,0.0006
3719.00,0.0007
3718.00,0.0007
3717.00,0.0007
3716.00,0.0007
3715.00,0.0006
3714.00,0.0006
3713.00,0.0006
3712.00,0.0006
3711.00,0.0005
3710.00,0.0005
3709.00,0.0005
3708.00,0.0005
3707.00,0.0005
3706.00,0.0005
3705.00,0.0006
3704.00,0.0006
3703.00,0.0005
3702.00,0.0005
3701.00,0.0005
3700.00,0.0005
3699.00,0.0005
3698.00,0.0006
3697.00,0.0006
3696.00,0.0006
3695.00,0.0006
3694.00,0.0006
3693.00,0.0006
3692.00,0.0006
3691.00,0.0006
3690.00,0.0006
3689.00,0.0006
3688.00,0.0006
3687.00,0.0006
3686.00,0.0007
3685.00,0.0007
3684.00,0.0007
3683.00,0.0007
3682.00,0.0007
3681.00,0.0008
3680.00,0.0008
3679.00,0.0009
3678.00,0.0009
3677.00,0.0009
3676.00,0.0009
3675.00,0.0008
3674.00,0.0008
3673.00,0.0007
3672.00,0.0007
3671.00,0.0007
3670.00,0.0007
3669.00,0.0007
3668.00,0.0007
3667.00,0.0007
3666.00,0.0008
3665.00,0.0008
3664.00,0.0008
3663.00,0.0008
3662.00,0.0008
3661.00,0.0009
3660.00,0.0009
3659.00,0.0009
3658.00,0.0009
3657.00,0.0008
3656.00,0.0008
3655.00,0.0007
3654.00,0.0006
3653.00,0.0006
3652.00,0.0007
3651.00,0.0007
3650.00,0.0007
3649.00,0.0007
3648.00,0.0007
3647.00,0.0006
3646.00,0.0007
3645.00,0.0007
3644.00,0.0007
3643.00,0.0007
3642.00,0.0007
3641.00,0.0007
3640.00,0.0007
3639.00,0.0007
3638.00,0.0007
3637.00,0.0007
3636.00,0.0007
3635.00,0.0007
3634.00,0.0007
3633.00,0.0007
3632.00,0.0006
3631.00,0.0006
3630.00,0.0006
3629.00,0.0005
3628.00,0.0005
3627.00,0.0004
3626.00,0.0004
3625.00,0.0005
3624.00,0.0005
3623.00,0.0006
3622.00,0.0006
3621.00,0.0006
3620.00,0.0006
3619.00,0.0005
3618.00,0.0005
3617.00,0.0005
3616.00,0.0005
3615.00,0.0005
3614.00,0.0005
3613.00,0.0005
3612.00,0.0005
3611.00,0.0005
3610.00,0.0005
3609.00,0.0006
3608.00,0.0006
3607.00,0.0006
3606.00,0.0006
3605.00,0.0005
3604.00,0.0005
3603.00,0.0005
3602.00,0.0005
3601.00,0.0005
3600.00,0.0005
3599.00,0.0004
3598.00,0.0004
3597.00,0.0003
3596.00,0.0003
3595.00,0.0004
3594.00,0.0005
3593.00,0.0006
3592.00,0.0006
3591.00,0.0006
3590.00,0.0006
3589.00,0.0005
3588.00,0.0005
3587.00,0.0005
3586.00,0.0005
3585.00,0.0005
3584.00,0.0005
3583.00,0.0006
3582.00,0.0006
3581.00,0.0006
3580.00,0.0007
3579.00,0.0007
3578.00,0.0007
3577.00,0.0007
3576.00,0.0007
3575.00,0.0007
3574.00,0.0007
3573.00,0.0007
3572.00,0.0007
3571.00,0.0007
3570.00,0.0007
3569.00,0.0006
3568.00,0.0006
3567.00,0.0006
3566.00,0.0006
3565.00,0.0006
3564.00,0.0006
3563.00,0.0006
3562.00,0.0007
3561.00,0.0007
3560.00,0.0008
3559.00,0.0008
3558.00,0.0008
3557.00,0.0009
3556.00,0.0009
3555.00,0.0008
3554.00,0.0008
3553.00,0.0008
3552.00,0.0007
3551.00,0.0008
3550.00,0.0008
3549.00,0.0008
3548.00,0.0008
3547.00,0.0008
3546.00,0.0008
3545.00,0.0008
3544.00,0.0008
3543.00,0.0008
3542.00,0.0009
3541.00,0.0009
3540.00,0.0009
3539.00,0.0009
3538.00,0.0009
3537.00,0.0009
3536.00,0.0009
3535.00,0.0009
3534.00,0.0009
3533.00,0.0009
3532.00,0.0009
3531.00,0.0009
3530.00,0.0009
3529.00,0.0009
3528.00,0.0010
3527.00,0.0010
3526.00,0.0010
3525.00,0.0009
3524.00,0.0009
3523.00,0.0009
3522.00,0.0009
3521.00,0.0009
3520.00,0.0009
3519.00,0.0010
3518.00,0.0010
3517.00,0.0010
3516.00,0.0010
3515.00,0.0011
3514.00,0.0011
3513.00,0.0011
3512.00,0.0011
3511.00,0.0010
3510.00,0.0011
3509.00,0.0011
3508.00,0.0011
3507.00,0.0012
3506.00,0.0012
3505.00,0.0012
3504.00,0.0012
3503.00,0.0012
3502.00,0.0011
3501.00,0.0011
3500.00,0.0011
3499.00,0.0011
3498.00,0.0011
3497.00,0.0011
3496.00,0.0011
3495.00,0.0012
3494.00,0.0011
3493.00,0.0011
3492.00,0.0011
3491.00,0.0012
3490.00,0.0012
3489.00,0.0012
3488.00,0.0013
3487.00,0.0013
3486.00,0.0013
3485.00,0.0013
3484.00,0.0013
3483.00,0.0013
3482.00,0.0013
3481.00,0.0013
3480.00,0.0012
3479.00,0.0012
3478.00,0.0013
3477.00,0.0013
3476.00,0.0013
3475.00,0.0013
3474.00,0.0013
3473.00,0.0014
3472.00,0.0014
3471.00,0.0014
3470.00,0.0014
3469.00,0.0014
3468.00,0.0014
3467.00,0.0014
3466.00,0.0014
3465.00,0.0014
3464.00,0.0014
3463.00,0.0014
3462.00,0.0014
3461.00,0.0014
3460.00,0.0014
3459.00,0.0014
3458.00,0.0014
3457.00,0.0014
3456.00,0.0014
3455.00,0.0013
3454.00,0.0013
3453.00,0.0013
3452.00,0.0013
3451.00,0.0013
3450.00,0.0014
3449.00,0.0014
3448.00,0.0015
3447.00,0.0015
3446.00,0.0015
3445.00,0.0014
3444.00,0.0014
3443.00,0.0015
3442.00,0.0015
3441.00,0.0015
3440.00,0.0015
3439.00,0.0015
3438.00,0.0015
3437.00,0.0015
3436.00,0.0015
3435.00,0.0015
3434.00,0.0016
3433.00,0.0016
3432.00,0.0016
3431.00,0.0016
3430.00,0.0016
3429.00,0.0016
3428.00,0.0016
3427.00,0.0016
3426.00,0.0016
3425.00,0.0016
3424.00,0.0016
3423.00,0.0016
3422.00,0.0016
3421.00,0.0016
3420.00,0.0017
3419.00,0.0017
3418.00,0.0017
3417.00,0.0017
3416.00,0.0016
3415.00,0.0016
3414.00,0.0016
3413.00,0.0016
3412.00,0.0016
3411.00,0.0017
3410.00,0.0017
3409.00,0.0017
3408.00,0.0017
3407.00,0.0017
3406.00,0.0017
3405.00,0.0017
3404.00,0.0017
3403.00,0.0017
3402.00,0.0017
3401.00,0.0017
3400.00,0.0017
3399.00,0.0017
3398.00,0.0017
3397.00,0.0017
3396.00,0.0016
3395.00,0.0016
3394.00,0.0016
3393.00,0.0017
3392.00,0.0017
3391.00,0.0017
3390.00,0.0017
3389.00,0.0017
3388.00,0.0016
3387.00,0.0016
3386.00,0.0016
3385.00,0.0016
3384.00,0.0016
3383.00,0.0017
3382.00,0.0017
3381.00,0.0017
3380.00,0.0017
3379.00,0.0017
3378.00,0.0017
3377.00,0.0017
3376.00,0.0017
3375.00,0.0017
3374.00,0.0018
3373.00,0.0018
3372.00,0.0018
3371.00,0.0017
3370.00,0.0017
3369.00,0.0017
3368.00,0.0017
3367.00,0.0018
3366.00,0.0018
3365.00,0.0018
3364.00,0.0018
3363.00,0.0018
3362.00,0.0018
3361.00,0.0018
3360.00,0.0018
3359.00,0.0018
3358.00,0.0018
3357.00,0.0018
3356.00,0.0018
3355.00,0.0018
3354.00,0.0018
3353.00,0.0018
3352.00,0.0018
3351.00,0.0018
3350.00,0.0018
3349.00,0.0018
3348.00,0.0018
3347.00,0.0018
3346.00,0.0018
3345.00,0.0018
3344.00,0.0018
3343.00,0.0018
3342.00,0.0018
3341.00,0.0018
3340.00,0.0018
3339.00,0.0018
3338.00,0.0018
3337.00,0.0018
3336.00,0.0018
3335.00,0.0017
3334.00,0.0017
3333.00,0.0017
3332.00,0.0017
3331.00,0.0017
3330.00,0.0017
3329.00,0.0017
3328.00,0.0017
3327.00,0.0017
3326.00,0.0016
3325.00,0.0016
3324.00,0.0016
3323.00,0.0016
3322.00,0.0016
3321.00,0.0016
3320.00,0.0016
3319.00,0.0016
3318.00,0.0016
3317.00,0.0016
3316.00,0.0016
3315.00,0.0016
3314.00,0.0016
3313.00,0.0016
3312.00,0.0016
3311.00,0.0017
3310.00,0.0017
3309.00,0.0017
3308.00,0.0017
3307.00,0.0017
3306.00,0.0018
3305.00,0.0018
3304.00,0.0018
3303.00,0.0018
3302.00,0.0018
3301.00,0.0018
3300.00,0.0018
3299.00,0.0018
3298.00,0.0018
3297.00,0.0018
3296.00,0.0018
3295.00,0.0018
3294.00,0.0017
3293.00,0.0017
3292.00,0.0017
3291.00,0.0018
3290.00,0.0018
3289.00,0.0018
3288.00,0.0017
3287.00,0.0017
3286.00,0.0017
3285.00,0.0017
3284.00,0.0017
3283.00,0.0017
3282.00,0.0016
3281.00,0.0016
3280.00,0.0016
3279.00,0.0016
3278.00,0.0017
3277.00,0.0017
3276.00,0.0017
3275.00,0.0016
3274.00,0.0016
3273.00,0.0016
3272.00,0.0016
3271.00,0.0016
3270.00,0.0016
3269.00,0.0016
3268.00,0.0016
3267.00,0.0016
3266.00,0.0016
3265.00,0.0016
3264.00,0.0016
3263.00,0.0016
3262.00,0.0016
3261.00,0.0016
3260.00,0.0016
3259.00,0.0016
3258.00,0.0016
3257.00,0.0016
3256.00,0.0016
3255.00,0.0015
3254.00,0.0015
3253.00,0.0015
3252.00,0.0015
3251.00,0.0014
3250.00,0.0014
3249.00,0.0014
3248.00,0.0014
3247.00,0.0014
3246.00,0.0014
3245.00,0.0015
3244.00,0.0015
3243.00,0.0015
3242.00,0.0015
3241.00,0.0015
3240.00,0.0015
3239.00,0.0016
3238.00,0.0016
3237.00,0.0016
3236.00,0.0016
3235.00,0.0016
3234.00,0.0016
3233.00,0.0016
3232.00,0.0016
3231.00,0.0016
3230.00,0.0016
3229.00,0.0017
3228.00,0.0017
3227.00,0.0017
3226.00,0.0018
3225.00,0.0018
3224.00,0.0019
3223.00,0.0019
3222.00,0.0019
3221.00,0.0019
3220.00,0.0019
3219.00,0.0019
3218.00,0.0019
3217.00,0.0019
3216.00,0.0019
3215.00,0.0019
3214.00,0.0019
3213.00,0.0020
3212.00,0.0020
3211.00,0.0020
3210.00,0.0020
3209.00,0.0020
3208.00,0.0021
3207.00,0.0021
3206.00,0.0022
3205.00,0.0022
3204.00,0.0022
3203.00,0.0023
3202.00,0.0023
3201.00,0.0023
3200.00,0.0023
3199.00,0.0023
3198.00,0.0022
3197.00,0.0022
3196.00,0.0022
3195.00,0.0022
3194.00,0.0022
3193.00,0.0021
3192.00,0.0021
3191.00,0.0021
3190.00,0.0021
3189.00,0.0021
3188.00,0.0021
3187.00,0.0021
3186.00,0.0022
3185.00,0.0022
3184.00,0.0022
3183.00,0.0022
3182.00,0.0022
3181.00,0.0021
3180.00,0.0021
3179.00,0.0021
3178.00,0.0021
3177.00,0.0021
3176.00,0.0021
3175.00,0.0021
3174.00,0.0021
3173.00,0.0021
3172.00,0.0021
3171.00,0.0021
3170.00,0.0021
3169.00,0.0021
3168.00,0.0021
3167.00,0.0021
3166.00,0.0021
3165.00,0.0021
3164.00,0.0021
3163.00,0.0021
3162.00,0.0020
3161.00,0.0020
3160.00,0.0020
3159.00,0.0020
3158.00,0.0020
3157.00,0.0020
3156.00,0.0021
3155.00,0.0021
3154.00,0.0021
3153.00,0.0021
3152.00,0.0021
3151.00,0.0021
3150.00,0.0021
3149.00,0.0021
3148.00,0.0021
3147.00,0.0021
3146.00,0.0022
3145.00,0.0022
3144.00,0.0022
3143.00,0.0022
3142.00,0.0022
3141.00,0.0022
3140.00,0.0022
3139.00,0.0021
3138.00,0.0021
3137.00,0.0021
3136.00,0.0021
3135.00,0.0021
3134.00,0.0021
3133.00,0.0021
3132.00,0.0021
3131.00,0.0021
3130.00,0.0021
3129.00,0.0021
3128.00,0.0020
3127.00,0.0020
3126.00,0.0019
3125.00,0.0018
3124.00,0.0018
3123.00,0.0018
3122.00,0.0019
3121.00,0.0019
3120.00,0.0019
3119.00,0.0019
3118.00,0.0019
3117.00,0.0019
3116.00,0.0019
3115.00,0.0019
3114.00,0.0018
3113.00,0.0018
3112.00,0.0018
3111.00,0.0018
3110.00,0.0019
3109.00,0.0019
3108.00,0.0019
3107.00,0.0019
3106.00,0.0018
3105.00,0.0018
3104.00,0.0017
3103.00,0.0017
3102.00,0.0017
3101.00,0.0017
3100.00,0.0018
3099.00,0.0018
3098.00,0.0019
3097.00,0.0019
3096.00,0.0019
3095.00,0.0018
3094.00,0.0018
3093.00,0.0018
3092.00,0.0018
3091.00,0.0018
3090.00,0.0018
3089.00,0.0018
3088.00,0.0018
3087.00,0.0018
3086.00,0.0018
3085.00,0.0018
3084.00,0.0018
3083.00,0.0018
3082.00,0.0018
3081.00,0.0018
3080.00,0.0018
3079.00,0.0018
3078.00,0.0018
3077.00,0.0018
3076.00,0.0019
3075.00,0.0019
3074.00,0.0019
3073.00,0.0019
3072.00,0.0019
3071.00,0.0019
3070.00,0.0019
3069.00,0.0020
3068.00,0.0020
3067.00,0.0020
3066.00,0.0020
3065.00,0.0020
3064.00,0.0021
3063.00,0.0021
3062.00,0.0022
3061.00,0.0022
3060.00,0.0022
3059.00,0.0021
3058.00,0.0021
3057.00,0.0021
3056.00,0.0022
3055.00,0.0022
3054.00,0.0023
3053.00,0.0023
3052.00,0.0023
3051.00,0.0024
3050.00,0.0024
3049.00,0.0024
3048.00,0.0024
3047.00,0.0024
3046.00,0.0024
3045.00,0.0024
3044.00,0.0025
3043.00,0.0025
3042.00,0.0025
3041.00,0.0025
3040.00,0.0025
3039.00,0.0026
3038.00,0.0026
3037.00,0.0026
3036.00,0.0026
3035.00,0.0026
3034.00,0.0027
3033.00,0.0027
3032.00,0.0028
3031.00,0.0028
3030.00,0.0029
3029.00,0.0029
3028.00,0.0030
3027.00,0.0031
3026.00,0.0031
3025.00,0.0032
3024.00,0.0033
3023.00,0.0034
3022.00,0.0035
3021.00,0.0035
3020.00,0.0036
3019.00,0.0037
3018.00,0.0038
3017.00,0.0039
3016.00,0.0040
3015.00,0.0041
3014.00,0.0043
3013.00,0.0044
3012.00,0.0046
3011.00,0.0048
3010.00,0.0050
3009.00,0.0052
3008.00,0.0054
3007.00,0.0056
3006.00,0.0059
3005.00,0.0061
3004.00,0.0064
3003.00,0.0067
3002.00,0.0070
3001.00,0.0074
3000.00,0.0077
2999.00,0.0080
2998.00,0.0084
2997.00,0.0088
2996.00,0.0092
2995.00,0.0096
2994.00,0.0100
2993.00,0.0105
2992.00,0.0110
2991.00,0.0116
2990.00,0.0123
2989.00,0.0130
2988.00,0.0138
2987.00,0.0147
2986.00,0.0158
2985.00,0.0170
2984.00,0.0184
2983.00,0.0199
2982.00,0.0216
2981.00,0.0233
2980.00,0.0251
2979.00,0.0271
2978.00,0.0294
2977.00,0.0321
2976.00,0.0353
2975.00,0.0389
2974.00,0.0430
2973.00,0.0477
2972.00,0.0530
2971.00,0.0588
2970.00,0.0652
2969.00,0.0721
2968.00,0.0795
2967.00,0.0873
2966.00,0.0953
2965.00,0.1032
2964.00,0.1107
2963.00,0.1174
2962.00,0.1230
2961.00,0.1274
2960.00,0.1311
2959.00,0.1344
2958.00,0.1383
2957.00,0.1434
2956.00,0.1503
2955.00,0.1591
2954.00,0.1694
2953.00,0.1805
2952.00,0.1907
2951.00,0.1985
2950.00,0.2021
2949.00,0.2006
2948.00,0.1938
2947.00,0.1827
2946.00,0.1688
2945.00,0.1540
2944.00,0.1400
2943.00,0.1280
2942.00,0.1186
2941.00,0.1120
2940.00,0.1082
2939.00,0.1067
2938.00,0.1074
2937.00,0.1100
2936.00,0.1143
2935.00,0.1202
2934.00,0.1277
2933.00,0.1367
2932.00,0.1470
2931.00,0.1585
2930.00,0.1708
2929.00,0.1838
2928.00,0.1970
2927.00,0.2102
2926.00,0.2232
2925.00,0.2361
2924.00,0.2489
2923.00,0.2620
2922.00,0.2754
2921.00,0.2886
2920.00,0.3008
2919.00,0.3103
2918.00,0.3156
2917.00,0.3155
2916.00,0.3096
2915.00,0.2991
2914.00,0.2855
2913.00,0.2707
2912.00,0.2564
2911.00,0.2433
2910.00,0.2317
2909.00,0.2215
2908.00,0.2123
2907.00,0.2037
2906.00,0.1955
2905.00,0.1874
2904.00,0.1795
2903.00,0.1718
2902.00,0.1644
2901.00,0.1572
2900.00,0.1504
2899.00,0.1439
2898.00,0.1379
2897.00,0.1325
2896.00,0.1276
2895.00,0.1234
2894.00,0.1198
2893.00,0.1170
2892.00,0.1148
2891.00,0.1133
2890.00,0.1123
2889.00,0.1119
2888.00,0.1118
2887.00,0.1121
2886.00,0.1126
2885.00,0.1136
2884.00,0.1149
2883.00,0.1167
2882.00,0.1188
2881.00,0.1212
2880.00,0.1235
2879.00,0.1253
2878.00,0.1262
2877.00,0.1263
2876.00,0.1256
2875.00,0.1246
2874.00,0.1241
2873.00,0.1243
2872.00,0.1254
2871.00,0.1273
2870.00,0.1298
2869.00,0.1322
2868.00,0.1339
2867.00,0.1338
2866.00,0.1313
2865.00,0.1261
2864.00,0.1186
2863.00,0.1097
2862.00,0.1007
2861.00,0.0927
2860.00,0.0862
2859.00,0.0816
2858.00,0.0787
2857.00,0.0773
2856.00,0.0771
2855.00,0.0779
2854.00,0.0794
2853.00,0.0813
2852.00,0.0835
2851.00,0.0856
2850.00,0.0875
2849.00,0.0891
2848.00,0.0907
2847.00,0.0927
2846.00,0.0955
2845.00,0.0994
2844.00,0.1042
2843.00,0.1097
2842.00,0.1153
2841.00,0.1202
2840.00,0.1238
2839.00,0.1251
2838.00,0.1238
2837.00,0.1193
2836.00,0.1121
2835.00,0.1026
2834.00,0.0919
2833.00,0.0811
2832.00,0.0710
2831.00,0.0621
2830.00,0.0546
2829.00,0.0485
2828.00,0.0435
2827.00,0.0395
2826.00,0.0361
2825.00,0.0334
2824.00,0.0311
2823.00,0.0291
2822.00,0.0275
2821.00,0.0261
2820.00,0.0248
2819.00,0.0237
2818.00,0.0227
2817.00,0.0219
2816.00,0.0211
2815.00,0.0204
2814.00,0.0198
2813.00,0.0192
2812.00,0.0187
2811.00,0.0181
2810.00,0.0175
2809.00,0.0169
2808.00,0.0162
2807.00,0.0155
2806.00,0.0148
2805.00,0.0141
2804.00,0.0135
2803.00,0.0129
2802.00,0.0124
2801.00,0.0120
2800.00,0.0116
2799.00,0.0113
2798.00,0.0110
2797.00,0.0107
2796.00,0.0104
2795.00,0.0102
2794.00,0.0099
2793.00,0.0097
2792.00,0.0094
2791.00,0.0091
2790.00,0.0088
2789.00,0.0085
2788.00,0.0082
2787.00,0.0080
2786.00,0.0077
2785.00,0.0075
2784.00,0.0072
2783.00,0.0070
2782.00,0.0068
2781.00,0.0066
2780.00,0.0065
2779.00,0.0063
2778.00,0.0062
2777.00,0.0061
2776.00,0.0060
2775.00,0.0059
2774.00,0.0058
2773.00,0.0057
2772.00,0.0056
2771.00,0.0056
2770.00,0.0055
2769.00,0.0054
2768.00,0.0054
2767.00,0.0054
2766.00,0.0054
2765.00,0.0054
2764.00,0.0053
2763.00,0.0053
2762.00,0.0052
2761.00,0.0052
2760.00,0.0051
2759.00,0.0051
2758.00,0.0050
2757.00,0.0050
2756.00,0.0051
2755.00,0.0051
2754.00,0.0051
2753.00,0.0050
2752.00,0.0050
2751.00,0.0050
2750.00,0.0049
2749.00,0.0050
2748.00,0.0050
2747.00,0.0050
2746.00,0.0051
2745.00,0.0052
2744.00,0.0052
2743.00,0.0053
2742.00,0.0054
2741.00,0.0055
2740.00,0.0056
2739.00,0.0057
2738.00,0.0059
2737.00,0.0060
2736.00,0.0062
2735.00,0.0063
2734.00,0.0064
2733.00,0.0066
2732.00,0.0068
2731.00,0.0070
2730.00,0.0072
2729.00,0.0075
2728.00,0.0078
2727.00,0.0081
2726.00,0.0084
2725.00,0.0087
2724.00,0.0089
2723.00,0.0090
2722.00,0.0089
2721.00,0.0087
2720.00,0.0084
2719.00,0.0081
2718.00,0.0077
2717.00,0.0074
2716.00,0.0071
2715.00,0.0068
2714.00,0.0065
2713.00,0.0062
2712.00,0.0060
2711.00,0.0058
2710.00,0.0056
2709.00,0.0054
2708.00,0.0053
2707.00,0.0051
2706.00,0.0050
2705.00,0.0049
2704.00,0.0048
2703.00,0.0047
2702.00,0.0046
2701.00,0.0045
2700.00,0.0044
2699.00,0.0044
2698.00,0.0043
2697.00,0.0043
2696.00,0.0043
2695.00,0.0043
2694.00,0.0043
2693.00,0.0043
2692.00,0.0043
2691.00,0.0044
2690.00,0.0044
2689.00,0.0044
2688.00,0.0044
2687.00,0.0044
2686.00,0.0044
2685.00,0.0044
2684.00,0.0044
2683.00,0.0044
2682.00,0.0044
2681.00,0.0044
2680.00,0.0044
2679.00,0.0045
2678.00,0.0045
2677.00,0.0045
2676.00,0.0045
2675.00,0.0045
2674.00,0.0045
2673.00,0.0044
2672.00,0.0044
2671.00,0.0044
2670.00,0.0044
2669.00,0.0044
2668.00,0.0044
2667.00,0.0045
2666.00,0.0045
2665.00,0.0046
2664.00,0.0046
2663.00,0.0046
2662.00,0.0047
2661.00,0.0047
2660.00,0.0047
2659.00,0.0048
2658.00,0.0048
2657.00,0.0047
2656.00,0.0047
2655.00,0.0047
2654.00,0.0046
2653.00,0.0046
2652.00,0.0045
2651.00,0.0045
2650.00,0.0044
2649.00,0.0043
2648.00,0.0043
2647.00,0.0042
2646.00,0.0041
2645.00,0.0041
2644.00,0.0041
2643.00,0.0041
2642.00,0.0041
2641.00,0.0040
2640.00,0.0039
2639.00,0.0039
2638.00,0.0038
2637.00,0.0038
2636.00,0.0038
2635.00,0.0038
2634.00,0.0038
2633.00,0.0039
2632.00,0.0039
2631.00,0.0039
2630.00,0.0039
2629.00,0.0039
2628.00,0.0039
2627.00,0.0039
2626.00,0.0039
2625.00,0.0039
2624.00,0.0040
2623.00,0.0040
2622.00,0.0040
2621.00,0.0040
2620.00,0.0040
2619.00,0.0040
2618.00,0.0040
2617.00,0.0040
2616.00,0.0039
2615.00,0.0039
2614.00,0.0038
2613.00,0.0038
2612.00,0.0038
2611.00,0.0038
2610.00,0.0038
2609.00,0.0037
2608.00,0.0037
2607.00,0.0036
2606.00,0.0035
2605.00,0.0034
2604.00,0.0034
2603.00,0.0033
2602.00,0.0033
2601.00,0.0032
2600.00,0.0032
2599.00,0.0032
2598.00,0.0032
2597.00,0.0032
2596.00,0.0032
2595.00,0.0032
2594.00,0.0032
2593.00,0.0033
2592.00,0.0033
2591.00,0.0034
2590.00,0.0035
2589.00,0.0036
2588.00,0.0037
2587.00,0.0038
2586.00,0.0039
2585.00,0.0040
2584.00,0.0041
2583.00,0.0042
2582.00,0.0042
2581.00,0.0042
2580.00,0.0041
2579.00,0.0039
2578.00,0.0037
2577.00,0.0036
2576.00,0.0034
2575.00,0.0033
2574.00,0.0032
2573.00,0.0031
2572.00,0.0030
2571.00,0.0029
2570.00,0.0028
2569.00,0.0027
2568.00,0.0026
2567.00,0.0025
2566.00,0.0025
2565.00,0.0025
2564.00,0.0024
2563.00,0.0024
2562.00,0.0024
2561.00,0.0024
2560.00,0.0023
2559.00,0.0023
2558.00,0.0023
2557.00,0.0023
2556.00,0.0023
2555.00,0.0023
2554.00,0.0022
2553.00,0.0021
2552.00,0.0021
2551.00,0.0020
2550.00,0.0020
2549.00,0.0020
2548.00,0.0019
2547.00,0.0019
2546.00,0.0018
2545.00,0.0018
2544.00,0.0018
2543.00,0.0017
2542.00,0.0017
2541.00,0.0017
2540.00,0.0017
2539.00,0.0017
2538.00,0.0017
2537.00,0.0016
2536.00,0.0016
2535.00,0.0015
2534.00,0.0015
2533.00,0.0015
2532.00,0.0015
2531.00,0.0015
2530.00,0.0014
2529.00,0.0014
2528.00,0.0014
2527.00,0.0013
2526.00,0.0013
2525.00,0.0013
2524.00,0.0013
2523.00,0.0014
2522.00,0.0014
2521.00,0.0013
2520.00,0.0013
2519.00,0.0012
2518.00,0.0012
2517.00,0.0012
2516.00,0.0012
2515.00,0.0012
2514.00,0.0012
2513.00,0.0011
2512.00,0.0010
2511.00,0.0010
2510.00,0.0010
2509.00,0.0010
2508.00,0.0010
2507.00,0.0010
2506.00,0.0010
2505.00,0.0009
2504.00,0.0009
2503.00,0.0009
2502.00,0.0010
2501.00,0.0010
2500.00,0.0011
2499.00,0.0011
2498.00,0.0011
2497.00,0.0011
2496.00,0.0011
2495.00,0.0010
2494.00,0.0010
2493.00,0.0010
2492.00,0.0011
2491.00,0.0011
2490.00,0.0010
2489.00,0.0010
2488.00,0.0010
2487.00,0.0009
2486.00,0.0009
2485.00,0.0009
2484.00,0.0009
2483.00,0.0009
2482.00,0.0009
2481.00,0.0009
2480.00,0.0009
2479.00,0.0009
2478.00,0.0009
2477.00,0.0009
2476.00,0.0009
2475.00,0.0009
2474.00,0.0009
2473.00,0.0009
2472.00,0.0008
2471.00,0.0008
2470.00,0.0008
2469.00,0.0008
2468.00,0.0007
2467.00,0.0007
2466.00,0.0007
2465.00,0.0007
2464.00,0.0007
2463.00,0.0007
2462.00,0.0008
2461.00,0.0009
2460.00,0.0010
2459.00,0.0010
2458.00,0.0010
2457.00,0.0010
2456.00,0.0010
2455.00,0.0011
2454.00,0.0011
2453.00,0.0011
2452.00,0.0011
2451.00,0.0011
2450.00,0.0011
2449.00,0.0011
2448.00,0.0011
2447.00,0.0011
2446.00,0.0012
2445.00,0.0012
2444.00,0.0011
2443.00,0.0011
2442.00,0.0010
2441.00,0.0010
2440.00,0.0010
2439.00,0.0010
2438.00,0.0011
2437.00,0.0011
2436.00,0.0011
2435.00,0.0011
2434.00,0.0011
2433.00,0.0011
2432.00,0.0011
2431.00,0.0010
2430.00,0.0010
2429.00,0.0010
2428.00,0.0011
2427.00,0.0011
2426.00,0.0011
2425.00,0.0010
2424.00,0.0010
2423.00,0.0010
2422.00,0.0010
2421.00,0.0010
2420.00,0.0010
2419.00,0.0009
2418.00,0.0009
2417.00,0.0009
2416.00,0.0009
2415.00,0.0010
2414.00,0.0010
2413.00,0.0010
2412.00,0.0010
2411.00,0.0010
2410.00,0.0010
2409.00,0.0010
2408.00,0.0009
2407.00,0.0008
2406.00,0.0008
2405.00,0.0007
2404.00,0.0007
2403.00,0.0007
2402.00,0.0007
2401.00,0.0008
2400.00,0.0008
2399.00,0.0008
2398.00,0.0008
2397.00,0.0007
2396.00,0.0007
2395.00,0.0008
2394.00,0.0008
2393.00,0.0008
2392.00,0.0008
2391.00,0.0008
2390.00,0.0007
2389.00,0.0007
2388.00,0.0007
2387.00,0.0007
2386.00,0.0006
2385.00,0.0006
2384.00,0.0005
2383.00,0.0003
2382.00,0.0002
2381.00,0.0002
2380.00,0.0001
2379.00,0.0001
2378.00,0.0001
2377.00,0.0002
2376.00,0.0002
2375.00,0.0002
2374.00,0.0002
2373.00,0.0002
2372.00,0.0002
2371.00,0.0002
2370.00,0.0001
2369.00,0.0001
2368.00,0.0001
2367.00,0.0001
2366.00,0.0000
2365.00,0.0001
2364.00,0.0001
2363.00,0.0001
2362.00,0.0001
2361.00,0.0001
2360.00,0.0001
2359.00,0.0001
2358.00,0.0001
2357.00,0.0002
2356.00,0.0001
2355.00,0.0001
2354.00,-0.0000
2353.00,-0.0001
2352.00,-0.0001
2351.00,-0.0000
2350.00,0.0001
2349.00,0.0002
2348.00,0.0003
2347.00,0.0004
2346.00,0.0004
2345.00,0.0003
2344.00,0.0003
2343.00,0.0003
2342.00,0.0004
2341.00,0.0005
2340.00,0.0005
2339.00,0.0006
2338.00,0.0006
2337.00,0.0006
2336.00,0.0006
2335.00,0.0006
2334.00,0.0006
2333.00,0.0006
2332.00,0.0006
2331.00,0.0006
2330.00,0.0006
2329.00,0.0007
2328.00,0.0008
2327.00,0.0011
2326.00,0.0016
2325.00,0.0020
2324.00,0.0022
2323.00,0.0021
2322.00,0.0018
2321.00,0.0016
2320.00,0.0015
2319.00,0.0014
2318.00,0.0013
2317.00,0.0012
2316.00,0.0011
2315.00,0.0010
2314.00,0.0008
2313.00,0.0008
2312.00,0.0007
2311.00,0.0007
2310.00,0.0008
2309.00,0.0008
2308.00,0.0008
2307.00,0.0008
2306.00,0.0008
2305.00,0.0008
2304.00,0.0008
2303.00,0.0008
2302.00,0.0009
2301.00,0.0009
2300.00,0.0010
2299.00,0.0011
2298.00,0.0012
2297.00,0.0012
2296.00,0.0012
2295.00,0.0012
2294.00,0.0013
2293.00,0.0013
2292.00,0.0015
2291.00,0.0016
2290.00,0.0017
2289.00,0.0018
2288.00,0.0018
2287.00,0.0019
2286.00,0.0019
2285.00,0.0019
2284.00,0.0018
2283.00,0.0016
2282.00,0.0015
2281.00,0.0015
2280.00,0.0015
2279.00,0.0015
2278.00,0.0014
2277.00,0.0013
2276.00,0.0012
2275.00,0.0013
2274.00,0.0014
2273.00,0.0015
2272.00,0.0015
2271.00,0.0015
2270.00,0.0014
2269.00,0.0012
2268.00,0.0010
2267.00,0.0008
2266.00,0.0007
2265.00,0.0008
2264.00,0.0009
2263.00,0.0010
2262.00,0.0010
2261.00,0.0009
2260.00,0.0010
2259.00,0.0011
2258.00,0.0013
2257.00,0.0014
2256.00,0.0013
2255.00,0.0012
2254.00,0.0009
2253.00,0.0007
2252.00,0.0006
2251.00,0.0006
2250.00,0.0006
2249.00,0.0007
2248.00,0.0007
2247.00,0.0008
2246.00,0.0008
2245.00,0.0008
2244.00,0.0009
2243.00,0.0009
2242.00,0.0009
2241.00,0.0009
2240.00,0.0008
2239.00,0.0007
2238.00,0.0007
2237.00,0.0007
2236.00,0.0006
2235.00,0.0006
2234.00,0.0006
2233.00,0.0007
2232.00,0.0008
2231.00,0.0008
2230.00,0.0008
2229.00,0.0008
2228.00,0.0009
2227.00,0.0009
2226.00,0.0010
2225.00,0.0010
2224.00,0.0009
2223.00,0.0007
2222.00,0.0006
2221.00,0.0007
2220.00,0.0008
2219.00,0.0008
2218.00,0.0008
2217.00,0.0006
2216.00,0.0006
2215.00,0.0006
2214.00,0.0007
2213.00,0.0009
2212.00,0.0009
2211.00,0.0009
2210.00,0.0009
2209.00,0.0009
2208.00,0.0010
2207.00,0.0010
2206.00,0.0008
2205.00,0.0006
2204.00,0.0004
2203.00,0.0003
2202.00,0.0002
2201.00,0.0003
2200.00,0.0003
2199.00,0.0003
2198.00,0.0003
2197.00,0.0003
2196.00,0.0004
2195.00,0.0006
2194.00,0.0008
2193.00,0.0010
2192.00,0.0010
2191.00,0.0010
2190.00,0.0008
2189.00,0.0007
2188.00,0.0007
2187.00,0.0008
2186.00,0.0010
2185.00,0.0011
2184.00,0.0010
2183.00,0.0008
2182.00,0.0006
2181.00,0.0003
2180.00,0.0003
2179.00,0.0005
2178.00,0.0009
2177.00,0.0011
2176.00,0.0010
2175.00,0.0007
2174.00,0.0004
2173.00,0.0004
2172.00,0.0004
2171.00,0.0005
2170.00,0.0008
2169.00,0.0011
2168.00,0.0014
2167.00,0.0015
2166.00,0.0015
2165.00,0.0014
2164.00,0.0015
2163.00,0.0017
2162.00,0.0018
2161.00,0.0015
2160.00,0.0004
2159.00,-0.0011
2158.00,-0.0023
2157.00,-0.0028
2156.00,-0.0027
2155.00,-0.0023
2154.00,-0.0021
2153.00,-0.0018
2152.00,-0.0016
2151.00,-0.0013
2150.00,-0.0011
2149.00,-0.0011
2148.00,-0.0012
2147.00,-0.0015
2146.00,-0.0017
2145.00,-0.0016
2144.00,-0.0015
2143.00,-0.0015
2142.00,-0.0016
2141.00,-0.0017
2140.00,-0.0019
2139.00,-0.0019
2138.00,-0.0018
2137.00,-0.0017
2136.00,-0.0017
2135.00,-0.0018
2134.00,-0.0019
2133.00,-0.0020
2132.00,-0.0019
2131.00,-0.0017
2130.00,-0.0015
2129.00,-0.0013
2128.00,-0.0011
2127.00,-0.0009
2126.00,-0.0007
2125.00,-0.0006
2124.00,-0.0006
2123.00,-0.0006
2122.00,-0.0005
2121.00,-0.0004
2120.00,-0.0003
2119.00,-0.0002
2118.00,-0.0001
2117.00,-0.0000
2116.00,0.0001
2115.00,0.0002
2114.00,0.0003
2113.00,0.0003
2112.00,0.0003
2111.00,0.0002
2110.00,0.0001
2109.00,-0.0000
2108.00,-0.0001
2107.00,-0.0002
2106.00,-0.0002
2105.00,-0.0003
2104.00,-0.0003
2103.00,-0.0002
2102.00,-0.0001
2101.00,0.0001
2100.00,0.0001
2099.00,0.0001
2098.00,-0.0000
2097.00,-0.0002
2096.00,-0.0004
2095.00,-0.0006
2094.00,-0.0007
2093.00,-0.0007
2092.00,-0.0006
2091.00,-0.0005
2090.00,-0.0004
2089.00,-0.0003
2088.00,-0.0002
2087.00,-0.0001
2086.00,-0.0001
2085.00,-0.0001
2084.00,-0.0001
2083.00,-0.0001
2082.00,-0.0000
2081.00,0.0000
2080.00,0.0001
2079.00,0.0001
2078.00,0.0001
2077.00,0.0000
2076.00,0.0001
2075.00,0.0002
2074.00,0.0003
2073.00,0.0005
2072.00,0.0004
2071.00,0.0003
2070.00,0.0001
2069.00,0.0001
2068.00,0.0001
2067.00,0.0001
2066.00,0.0001
2065.00,-0.0001
2064.00,-0.0004
2063.00,-0.0006
2062.00,-0.0008
2061.00,-0.0007
2060.00,-0.0006
2059.00,-0.0005
2058.00,-0.0003
2057.00,-0.0002
2056.00,-0.0001
2055.00,-0.0000
2054.00,0.0001
2053.00,0.0004
2052.00,0.0008
2051.00,0.0011
2050.00,0.0011
2049.00,0.0007
2048.00,0.0004
2047.00,0.0002
2046.00,0.0003
2045.00,0.0005
2044.00,0.0006
2043.00,0.0006
2042.00,0.0005
2041.00,0.0003
2040.00,0.0003
2039.00,0.0005
2038.00,0.0007
2037.00,0.0009
2036.00,0.0007
2035.00,0.0004
2034.00,-0.0000
2033.00,-0.0003
2032.00,-0.0003
2031.00,-0.0002
2030.00,-0.0000
2029.00,0.0001
2028.00,0.0000
2027.00,-0.0002
2026.00,-0.0006
2025.00,-0.0008
2024.00,-0.0008
2023.00,-0.0007
2022.00,-0.0007
2021.00,-0.0007
2020.00,-0.0007
2019.00,-0.0008
2018.00,-0.0008
2017.00,-0.0009
2016.00,-0.0008
2015.00,-0.0008
2014.00,-0.0008
2013.00,-0.0010
2012.00,-0.0012
2011.00,-0.0015
2010.00,-0.0017
2009.00,-0.0018
2008.00,-0.0018
2007.00,-0.0019
2006.00,-0.0019
2005.00,-0.0020
2004.00,-0.0019
2003.00,-0.0018
2002.00,-0.0016
2001.00,-0.0014
2000.00,-0.0013
1999.00,-0.0013
1998.00,-0.0013
1997.00,-0.0013
1996.00,-0.0012
1995.00,-0.0011
1994.00,-0.0010
1993.00,-0.0009
1992.00,-0.0008
1991.00,-0.0008
1990.00,-0.0009
1989.00,-0.0009
1988.00,-0.0008
1987.00,-0.0007
1986.00,-0.0004
1985.00,0.0000
1984.00,0.0004
1983.00,0.0006
1982.00,0.0007
1981.00,0.0008
1980.00,0.0007
1979.00,0.0004
1978.00,-0.0001
1977.00,-0.0006
1976.00,-0.0010
1975.00,-0.0014
1974.00,-0.0017
1973.00,-0.0020
1972.00,-0.0021
1971.00,-0.0020
1970.00,-0.0018
1969.00,-0.0014
1968.00,-0.0011
1967.00,-0.0009
1966.00,-0.0008
1965.00,-0.0007
1964.00,-0.0007
1963.00,-0.0008
1962.00,-0.0010
1961.00,-0.0013
1960.00,-0.0016
1959.00,-0.0019
1958.00,-0.0020
1957.00,-0.0019
1956.00,-0.0017
1955.00,-0.0014
1954.00,-0.0013
1953.00,-0.0012
1952.00,-0.0013
1951.00,-0.0014
1950.00,-0.0016
1949.00,-0.0018
1948.00,-0.0020
1947.00,-0.0021
1946.00,-0.0022
1945.00,-0.0021
1944.00,-0.0020
1943.00,-0.0018
1942.00,-0.0015
1941.00,-0.0013
1940.00,-0.0011
1939.00,-0.0009
1938.00,-0.0009
1937.00,-0.0011
1936.00,-0.0012
1935.00,-0.0013
1934.00,-0.0014
1933.00,-0.0013
1932.00,-0.0012
1931.00,-0.0010
1930.00,-0.0008
1929.00,-0.0007
1928.00,-0.0007
1927.00,-0.0007
1926.00,-0.0008
1925.00,-0.0008
1924.00,-0.0009
1923.00,-0.0009
1922.00,-0.0010
1921.00,-0.0010
1920.00,-0.0010
1919.00,-0.0010
1918.00,-0.0009
1917.00,-0.0007
1916.00,-0.0006
1915.00,-0.0005
1914.00,-0.0004
1913.00,-0.0004
1912.00,-0.0004
1911.00,-0.0005
1910.00,-0.0006
1909.00,-0.0006
1908.00,-0.0005
1907.00,-0.0004
1906.00,-0.0003
1905.00,-0.0002
1904.00,-0.0002
1903.00,-0.0002
1902.00,-0.0003
1901.00,-0.0004
1900.00,-0.0004
1899.00,-0.0004
1898.00,-0.0003
1897.00,-0.0003
1896.00,-0.0002
1895.00,-0.0002
1894.00,-0.0003
1893.00,-0.0003
1892.00,-0.0003
1891.00,-0.0003
1890.00,-0.0002
1889.00,-0.0002
1888.00,-0.0002
1887.00,-0.0002
1886.00,-0.0003
1885.00,-0.0003
1884.00,-0.0002
1883.00,-0.0002
1882.00,-0.0002
1881.00,-0.0002
1880.00,-0.0003
1879.00,-0.0003
1878.00,-0.0003
1877.00,-0.0003
1876.00,-0.0003
1875.00,-0.0002
1874.00,-0.0002
1873.00,-0.0002
1872.00,-0.0002
1871.00,-0.0003
1870.00,-0.0003
1869.00,-0.0002
1868.00,-0.0002
1867.00,-0.0002
1866.00,-0.0002
1865.00,-0.0002
1864.00,-0.0002
1863.00,-0.0002
1862.00,-0.0002
1861.00,-0.0002
1860.00,-0.0003
1859.00,-0.0003
1858.00,-0.0002
1857.00,-0.0002
1856.00,-0.0001
1855.00,-0.0000
1854.00,-0.0000
1853.00,-0.0000
1852.00,0.0000
1851.00,0.0000
1850.00,0.0001
1849.00,0.0002
1848.00,0.0002
1847.00,0.0002
1846.00,0.0001
1845.00,0.0001
1844.00,0.0001
1843.00,0.0001
1842.00,0.0001
1841.00,0.0000
1840.00,0.0000
1839.00,0.0000
1838.00,0.0000
1837.00,-0.0000
1836.00,-0.0000
1835.00,0.0000
1834.00,0.0000
1833.00,0.0000
1832.00,0.0000
1831.00,-0.0000
1830.00,-0.0000
1829.00,-0.0001
1828.00,-0.0001
1827.00,-0.0001
1826.00,-0.0000
1825.00,0.0001
1824.00,0.0002
1823.00,0.0003
1822.00,0.0002
1821.00,0.0001
1820.00,0.0000
1819.00,-0.0001
1818.00,-0.0002
1817.00,-0.0002
1816.00,-0.0001
1815.00,-0.0000
1814.00,0.0001
1813.00,0.0001
1812.00,0.0002
1811.00,0.0002
1810.00,0.0003
1809.00,0.0003
1808.00,0.0003
1807.00,0.0003
1806.00,0.0003
1805.00,0.0003
1804.00,0.0003
1803.00,0.0003
1802.00,0.0003
1801.00,0.0003
1800.00,0.0003
1799.00,0.0003
1798.00,0.0003
1797.00,0.0003
1796.00,0.0003
1795.00,0.0003
1794.00,0.0004
1793.00,0.0004
1792.00,0.0005
1791.00,0.0005
1790.00,0.0005
1789.00,0.0006
1788.00,0.0006
1787.00,0.0006
1786.00,0.0006
1785.00,0.0006
1784.00,0.0006
1783.00,0.0006
1782.00,0.0006
1781.00,0.0006
1780.00,0.0006
1779.00,0.0005
1778.00,0.0005
1777.00,0.0005
1776.00,0.0005
1775.00,0.0005
1774.00,0.0005
1773.00,0.0005
1772.00,0.0005
1771.00,0.0006
1770.00,0.0007
1769.00,0.0007
1768.00,0.0008
1767.00,0.0008
1766.00,0.0008
1765.00,0.0007
1764.00,0.0007
1763.00,0.0008
1762.00,0.0008
1761.00,0.0008
1760.00,0.0008
1759.00,0.0008
1758.00,0.0009
1757.00,0.0010
1756.00,0.0011
1755.00,0.0012
1754.00,0.0012
1753.00,0.0013
1752.00,0.0013
1751.00,0.0013
1750.00,0.0013
1749.00,0.0013
1748.00,0.0013
1747.00,0.0013
1746.00,0.0013
1745.00,0.0013
1744.00,0.0014
1743.00,0.0014
1742.00,0.0014
1741.00,0.0014
1740.00,0.0014
1739.00,0.0014
1738.00,0.0014
1737.00,0.0014
1736.00,0.0014
1735.00,0.0014
1734.00,0.0014
1733.00,0.0014
1732.00,0.0014
1731.00,0.0014
1730.00,0.0014
1729.00,0.0014
1728.00,0.0015
1727.00,0.0016
1726.00,0.0016
1725.00,0.0017
1724.00,0.0017
1723.00,0.0017
1722.00,0.0017
1721.00,0.0017
1720.00,0.0017
1719.00,0.0016
1718.00,0.0016
1717.00,0.0016
1716.00,0.0016
1715.00,0.0016
1714.00,0.0016
1713.00,0.0017
1712.00,0.0017
1711.00,0.0017
1710.00,0.0017
1709.00,0.0017
1708.00,0.0017
1707.00,0.0017
1706.00,0.0018
1705.00,0.0018
1704.00,0.0019
1703.00,0.0019
1702.00,0.0019
1701.00,0.0019
1700.00,0.0019
1699.00,0.0019
1698.00,0.0019
1697.00,0.0019
1696.00,0.0019
1695.00,0.0019
1694.00,0.0020
1693.00,0.0020
1692.00,0.0020
1691.00,0.0020
1690.00,0.0020
1689.00,0.0020
1688.00,0.0020
1687.00,0.0020
1686.00,0.0019
1685.00,0.0019
1684.00,0.0019
1683.00,0.0019
1682.00,0.0020
1681.00,0.0020
1680.00,0.0020
1679.00,0.0020
1678.00,0.0019
1677.00,0.0019
1676.00,0.0020
1675.00,0.0020
1674.00,0.0021
1673.00,0.0021
1672.00,0.0022
1671.00,0.0022
1670.00,0.0022
1669.00,0.0022
1668.00,0.0022
1667.00,0.0022
1666.00,0.0022
1665.00,0.0022
1664.00,0.0022
1663.00,0.0022
1662.00,0.0022
1661.00,0.0022
1660.00,0.0022
1659.00,0.0023
1658.00,0.0023
1657.00,0.0024
1656.00,0.0024
1655.00,0.0024
1654.00,0.0024
1653.00,0.0025
1652.00,0.0025
1651.00,0.0025
1650.00,0.0025
1649.00,0.0026
1648.00,0.0026
1647.00,0.0026
1646.00,0.0027
1645.00,0.0028
1644.00,0.0028
1643.00,0.0029
1642.00,0.0029
1641.00,0.0030
1640.00,0.0030
1639.00,0.0031
1638.00,0.0031
1637.00,0.0031
1636.00,0.0032
1635.00,0.0032
1634.00,0.0031
1633.00,0.0031
1632.00,0.0031
1631.00,0.0031
1630.00,0.0031
1629.00,0.0031
1628.00,0.0030
1627.00,0.0029
1626.00,0.0029
1625.00,0.0029
1624.00,0.0029
1623.00,0.0029
1622.00,0.0028
1621.00,0.0028
1620.00,0.0029
1619.00,0.0029
1618.00,0.0029
1617.00,0.0029
1616.00,0.0029
1615.00,0.0029
1614.00,0.0028
1613.00,0.0028
1612.00,0.0028
1611.00,0.0028
1610.00,0.0028
1609.00,0.0028
1608.00,0.0028
1607.00,0.0028
1606.00,0.0028
1605.00,0.0028
1604.00,0.0028
1603.00,0.0028
1602.00,0.0028
1601.00,0.0028
1600.00,0.0028
1599.00,0.0029
1598.00,0.0028
1597.00,0.0028
1596.00,0.0028
1595.00,0.0028
1594.00,0.0028
1593.00,0.0028
1592.00,0.0029
1591.00,0.0029
1590.00,0.0029
1589.00,0.0030
1588.00,0.0031
1587.00,0.0031
1586.00,0.0032
1585.00,0.0033
1584.00,0.0035
1583.00,0.0036
1582.00,0.0038
1581.00,0.0039
1580.00,0.0041
1579.00,0.0042
1578.00,0.0043
1577.00,0.0044
1576.00,0.0044
1575.00,0.0043
1574.00,0.0042
1573.00,0.0041
1572.00,0.0041
1571.00,0.0040
1570.00,0.0039
1569.00,0.0039
1568.00,0.0039
1567.00,0.0039
1566.00,0.0038
1565.00,0.0038
1564.00,0.0038
1563.00,0.0038
1562.00,0.0038
1561.00,0.0038
1560.00,0.0038
1559.00,0.0037
1558.00,0.0036
1557.00,0.0036
1556.00,0.0037
1555.00,0.0037
1554.00,0.0037
1553.00,0.0038
1552.00,0.0039
1551.00,0.0040
1550.00,0.0040
1549.00,0.0041
1548.00,0.0042
1547.00,0.0044
1546.00,0.0045
1545.00,0.0047
1544.00,0.0049
1543.00,0.0050
1542.00,0.0051
1541.00,0.0052
1540.00,0.0052
1539.00,0.0050
1538.00,0.0048
1537.00,0.0047
1536.00,0.0046
1535.00,0.0045
1534.00,0.0044
1533.00,0.0043
1532.00,0.0042
1531.00,0.0042
1530.00,0.0042
1529.00,0.0042
1528.00,0.0042
1527.00,0.0042
1526.00,0.0042
1525.00,0.0042
1524.00,0.0042
1523.00,0.0042
1522.00,0.0041
1521.00,0.0042
1520.00,0.0043
1519.00,0.0044
1518.00,0.0045
1517.00,0.0046
1516.00,0.0047
1515.00,0.0047
1514.00,0.0047
1513.00,0.0048
1512.00,0.0049
1511.00,0.0049
1510.00,0.0050
1509.00,0.0051
1508.00,0.0053
1507.00,0.0055
1506.00,0.0057
1505.00,0.0058
1504.00,0.0060
1503.00,0.0061
1502.00,0.0063
1501.00,0.0065
1500.00,0.0067
1499.00,0.0069
1498.00,0.0071
1497.00,0.0074
1496.00,0.0077
1495.00,0.0079
1494.00,0.0081
1493.00,0.0083
1492.00,0.0086
1491.00,0.0089
1490.00,0.0092
1489.00,0.0098
1488.00,0.0103
1487.00,0.0109
1486.00,0.0114
1485.00,0.0121
1484.00,0.0129
1483.00,0.0137
1482.00,0.0147
1481.00,0.0158
1480.00,0.0170
1479.00,0.0183
1478.00,0.0199
1477.00,0.0221
1476.00,0.0247
1475.00,0.0279
1474.00,0.0321
1473.00,0.0380
1472.00,0.0449
1471.00,0.0515
1470.00,0.0581
1469.00,0.0650
1468.00,0.0725
1467.00,0.0808
1466.00,0.0903
1465.00,0.1004
1464.00,0.1092
1463.00,0.1152
1462.00,0.1188
1461.00,0.1212
1460.00,0.1227
1459.00,0.1234
1458.00,0.1236
1457.00,0.1234
1456.00,0.1224
1455.00,0.1209
1454.00,0.1192
1453.00,0.1170
1452.00,0.1140
1451.00,0.1099
1450.00,0.1046
1449.00,0.0973
1448.00,0.0883
1447.00,0.0788
1446.00,0.0702
1445.00,0.0630
1444.00,0.0568
1443.00,0.0517
1442.00,0.0480
1441.00,0.0454
1440.00,0.0439
1439.00,0.0434
1438.00,0.0438
1437.00,0.0444
1436.00,0.0438
1435.00,0.0416
1434.00,0.0380
1433.00,0.0335
1432.00,0.0288
1431.00,0.0246
1430.00,0.0213
1429.00,0.0190
1428.00,0.0173
1427.00,0.0162
1426.00,0.0155
1425.00,0.0148
1424.00,0.0142
1423.00,0.0138
1422.00,0.0136
1421.00,0.0133
1420.00,0.0129
1419.00,0.0126
1418.00,0.0124
1417.00,0.0121
1416.00,0.0119
1415.00,0.0117
1414.00,0.0116
1413.00,0.0114
1412.00,0.0112
1411.00,0.0112
1410.00,0.0111
1409.00,0.0110
1408.00,0.0109
1407.00,0.0109
1406.00,0.0109
1405.00,0.0109
1404.00,0.0109
1403.00,0.0110
1402.00,0.0112
1401.00,0.0113
1400.00,0.0114
1399.00,0.0116
1398.00,0.0119
1397.00,0.0121
1396.00,0.0124
1395.00,0.0127
1394.00,0.0132
1393.00,0.0137
1392.00,0.0142
1391.00,0.0149
1390.00,0.0159
1389.00,0.0172
1388.00,0.0192
1387.00,0.0223
1386.00,0.0266
1385.00,0.0322
1384.00,0.0400
1383.00,0.0509
1382.00,0.0658
1381.00,0.0852
1380.00,0.1099
1379.00,0.1392
1378.00,0.1693
1377.00,0.1934
1376.00,0.2040
1375.00,0.1965
1374.00,0.1730
1373.00,0.1428
1372.00,0.1143
1371.00,0.0906
1370.00,0.0717
1369.00,0.0575
1368.00,0.0479
1367.00,0.0420
1366.00,0.0388
1365.00,0.0375
1364.00,0.0378
1363.00,0.0393
1362.00,0.0417
1361.00,0.0443
1360.00,0.0463
1359.00,0.0470
1358.00,0.0458
1357.00,0.0430
1356.00,0.0390
1355.00,0.0345
1354.00,0.0303
1353.00,0.0266
1352.00,0.0237
1351.00,0.0213
1350.00,0.0194
1349.00,0.0178
1348.00,0.0165
1347.00,0.0154
1346.00,0.0144
1345.00,0.0136
1344.00,0.0130
1343.00,0.0125
1342.00,0.0121
1341.00,0.0118
1340.00,0.0115
1339.00,0.0113
1338.00,0.0112
1337.00,0.0112
1336.00,0.0112
1335.00,0.0114
1334.00,0.0117
1333.00,0.0121
1332.00,0.0126
1331.00,0.0130
1330.00,0.0131
1329.00,0.0130
1328.00,0.0126
1327.00,0.0120
1326.00,0.0114
1325.00,0.0108
1324.00,0.0102
1323.00,0.0097
1322.00,0.0093
1321.00,0.0089
1320.00,0.0087
1319.00,0.0084
1318.00,0.0082
1317.00,0.0081
1316.00,0.0079
1315.00,0.0079
1314.00,0.0079
1313.00,0.0079
1312.00,0.0080
1311.00,0.0082
1310.00,0.0085
1309.00,0.0089
1308.00,0.0096
1307.00,0.0104
1306.00,0.0112
1305.00,0.0118
1304.00,0.0121
1303.00,0.0120
1302.00,0.0118
1301.00,0.0115
1300.00,0.0114
1299.00,0.0115
1298.00,0.0117
1297.00,0.0118
1296.00,0.0118
1295.00,0.0115
1294.00,0.0112
1293.00,0.0107
1292.00,0.0103
1291.00,0.0098
1290.00,0.0094
1289.00,0.0090
1288.00,0.0087
1287.00,0.0084
1286.00,0.0082
1285.00,0.0080
1284.00,0.0078
1283.00,0.0077
1282.00,0.0076
1281.00,0.0075
1280.00,0.0074
1279.00,0.0074
1278.00,0.0073
1277.00,0.0071
1276.00,0.0071
1275.00,0.0070
1274.00,0.0070
1273.00,0.0071
1272.00,0.0072
1271.00,0.0073
1270.00,0.0074
1269.00,0.0076
1268.00,0.0077
1267.00,0.0079
1266.00,0.0082
1265.00,0.0084
1264.00,0.0086
1263.00,0.0088
1262.00,0.0091
1261.00,0.0094
1260.00,0.0099
1259.00,0.0104
1258.00,0.0109
1257.00,0.0113
1256.00,0.0114
1255.00,0.0112
1254.00,0.0107
1253.00,0.0101
1252.00,0.0095
1251.00,0.0090
1250.00,0.0086
1249.00,0.0083
1248.00,0.0081
1247.00,0.0079
1246.00,0.0077
1245.00,0.0076
1244.00,0.0075
1243.00,0.0074
1242.00,0.0072
1241.00,0.0071
1240.00,0.0071
1239.00,0.0070
1238.00,0.0070
1237.00,0.0070
1236.00,0.0069
1235.00,0.0069
1234.00,0.0070
1233.00,0.0071
1232.00,0.0072
1231.00,0.0072
1230.00,0.0073
1229.00,0.0073
1228.00,0.0074
1227.00,0.0075
1226.00,0.0077
1225.00,0.0080
1224.00,0.0084
1223.00,0.0087
1222.00,0.0090
1221.00,0.0092
1220.00,0.0093
1219.00,0.0094
1218.00,0.0094
1217.00,0.0092
1216.00,0.0090
1215.00,0.0087
1214.00,0.0084
1213.00,0.0081
1212.00,0.0078
1211.00,0.0077
1210.00,0.0076
1209.00,0.0074
1208.00,0.0073
1207.00,0.0072
1206.00,0.0071
1205.00,0.0071
1204.00,0.0070
1203.00,0.0070
1202.00,0.0070
1201.00,0.0069
1200.00,0.0069
1199.00,0.0068
1198.00,0.0069
1197.00,0.0069
1196.00,0.0069
1195.00,0.0069
1194.00,0.0069
1193.00,0.0069
1192.00,0.0070
1191.00,0.0069
1190.00,0.0069
1189.00,0.0069
1188.00,0.0070
1187.00,0.0070
1186.00,0.0071
1185.00,0.0072
1184.00,0.0073
1183.00,0.0075
1182.00,0.0076
1181.00,0.0078
1180.00,0.0081
1179.00,0.0085
1178.00,0.0090
1177.00,0.0096
1176.00,0.0104
1175.00,0.0115
1174.00,0.0130
1173.00,0.0149
1172.00,0.0173
1171.00,0.0199
1170.00,0.0224
1169.00,0.0244
1168.00,0.0256
1167.00,0.0259
1166.00,0.0254
1165.00,0.0244
1164.00,0.0232
1163.00,0.0221
1162.00,0.0211
1161.00,0.0204
1160.00,0.0199
1159.00,0.0195
1158.00,0.0193
1157.00,0.0191
1156.00,0.0190
1155.00,0.0190
1154.00,0.0189
1153.00,0.0187
1152.00,0.0183
1151.00,0.0178
1150.00,0.0170
1149.00,0.0161
1148.00,0.0150
1147.00,0.0140
1146.00,0.0131
1145.00,0.0123
1144.00,0.0116
1143.00,0.0110
1142.00,0.0103
1141.00,0.0097
1140.00,0.0092
1139.00,0.0088
1138.00,0.0084
1137.00,0.0081
1136.00,0.0078
1135.00,0.0076
1134.00,0.0074
1133.00,0.0072
1132.00,0.0072
1131.00,0.0071
1130.00,0.0071
1129.00,0.0070
1128.00,0.0070
1127.00,0.0071
1126.00,0.0071
1125.00,0.0071
1124.00,0.0071
1123.00,0.0070
1122.00,0.0070
1121.00,0.0069
1120.00,0.0069
1119.00,0.0069
1118.00,0.0070
1117.00,0.0072
1116.00,0.0073
1115.00,0.0075
1114.00,0.0076
1113.00,0.0078
1112.00,0.0080
1111.00,0.0082
1110.00,0.0084
1109.00,0.0088
1108.00,0.0092
1107.00,0.0099
1106.00,0.0107
1105.00,0.0114
1104.00,0.0120
1103.00,0.0123
1102.00,0.0123
1101.00,0.0119
1100.00,0.0114
1099.00,0.0107
1098.00,0.0100
1097.00,0.0094
1096.00,0.0089
1095.00,0.0085
1094.00,0.0083
1093.00,0.0082
1092.00,0.0081
1091.00,0.0080
1090.00,0.0078
1089.00,0.0076
1088.00,0.0075
1087.00,0.0074
1086.00,0.0074
1085.00,0.0074
1084.00,0.0075
1083.00,0.0075
1082.00,0.0075
1081.00,0.0074
1080.00,0.0072
1079.00,0.0071
1078.00,0.0071
1077.00,0.0070
1076.00,0.0070
1075.00,0.0071
1074.00,0.0071
1073.00,0.0071
1072.00,0.0071
1071.00,0.0070
1070.00,0.0070
1069.00,0.0070
1068.00,0.0071
1067.00,0.0071
1066.00,0.0071
1065.00,0.0071
1064.00,0.0072
1063.00,0.0072
1062.00,0.0073
1061.00,0.0074
1060.00,0.0075
1059.00,0.0077
1058.00,0.0078
1057.00,0.0079
1056.00,0.0080
1055.00,0.0080
1054.00,0.0081
1053.00,0.0083
1052.00,0.0086
1051.00,0.0090
1050.00,0.0093
1049.00,0.0097
1048.00,0.0101
1047.00,0.0104
1046.00,0.0107
1045.00,0.0108
1044.00,0.0108
1043.00,0.0106
1042.00,0.0105
1041.00,0.0104
1040.00,0.0103
1039.00,0.0103
1038.00,0.0103
1037.00,0.0103
1036.00,0.0103
1035.00,0.0102
1034.00,0.0101
1033.00,0.0099
1032.00,0.0097
1031.00,0.0095
1030.00,0.0095
1029.00,0.0096
1028.00,0.0098
1027.00,0.0100
1026.00,0.0102
1025.00,0.0104
1024.00,0.0107
1023.00,0.0110
1022.00,0.0113
1021.00,0.0115
1020.00,0.0117
1019.00,0.0117
1018.00,0.0118
1017.00,0.0118
1016.00,0.0119
1015.00,0.0119
1014.00,0.0118
1013.00,0.0117
1012.00,0.0115
1011.00,0.0114
1010.00,0.0115
1009.00,0.0116
1008.00,0.0119
1007.00,0.0122
1006.00,0.0127
1005.00,0.0134
1004.00,0.0145
1003.00,0.0160
1002.00,0.0182
1001.00,0.0209
1000.00,0.0238
999.00,0.0261
998.00,0.0270
997.00,0.0263
996.00,0.0242
995.00,0.0212
994.00,0.0182
993.00,0.0156
992.00,0.0136
991.00,0.0121
990.00,0.0112
989.00,0.0106
988.00,0.0102
987.00,0.0101
986.00,0.0102
985.00,0.0104
984.00,0.0108
983.00,0.0114
982.00,0.0124
981.00,0.0137
980.00,0.0157
979.00,0.0182
978.00,0.0213
977.00,0.0248
976.00,0.0284
975.00,0.0317
974.00,0.0339
973.00,0.0345
972.00,0.0331
971.00,0.0300
970.00,0.0261
969.00,0.0222
968.00,0.0188
967.00,0.0163
966.00,0.0144
965.00,0.0131
964.00,0.0121
963.00,0.0113
962.00,0.0108
961.00,0.0104
960.00,0.0100
959.00,0.0096
958.00,0.0093
957.00,0.0091
956.00,0.0089
955.00,0.0087
954.00,0.0086
953.00,0.0086
952.00,0.0086
951.00,0.0085
950.00,0.0083
949.00,0.0083
948.00,0.0083
947.00,0.0085
946.00,0.0087
945.00,0.0089
944.00,0.0091
943.00,0.0093
942.00,0.0096
941.00,0.0098
940.00,0.0098
939.00,0.0096
938.00,0.0091
937.00,0.0084
936.00,0.0077
935.00,0.0071
934.00,0.0068
933.00,0.0065
932.00,0.0064
931.00,0.0063
930.00,0.0061
929.00,0.0060
928.00,0.0060
927.00,0.0060
926.00,0.0060
925.00,0.0059
924.00,0.0058
923.00,0.0058
922.00,0.0058
921.00,0.0058
920.00,0.0058
919.00,0.0058
918.00,0.0058
917.00,0.0058
916.00,0.0058
915.00,0.0059
914.00,0.0060
913.00,0.0062
912.00,0.0063
911.00,0.0064
910.00,0.0065
909.00,0.0067
908.00,0.0070
907.00,0.0076
906.00,0.0085
905.00,0.0096
904.00,0.0111
903.00,0.0130
902.00,0.0151
901.00,0.0171
900.00,0.0184
899.00,0.0187
898.00,0.0178
897.00,0.0161
896.00,0.0140
895.00,0.0120
894.00,0.0103
893.00,0.0091
892.00,0.0083
891.00,0.0078
890.00,0.0075
889.00,0.0073
888.00,0.0071
887.00,0.0070
886.00,0.0068
885.00,0.0066
884.00,0.0065
883.00,0.0065
882.00,0.0066
881.00,0.0066
880.00,0.0067
879.00,0.0068
878.00,0.0070
877.00,0.0071
876.00,0.0072
875.00,0.0074
874.00,0.0074
873.00,0.0074
872.00,0.0073
871.00,0.0071
870.00,0.0069
869.00,0.0068
868.00,0.0068
867.00,0.0069
866.00,0.0070
865.00,0.0071
864.00,0.0072
863.00,0.0073
862.00,0.0074
861.00,0.0074
860.00,0.0075
859.00,0.0076
858.00,0.0078
857.00,0.0079
856.00,0.0081
855.00,0.0084
854.00,0.0086
853.00,0.0088
852.00,0.0089
851.00,0.0091
850.00,0.0094
849.00,0.0098
848.00,0.0103
847.00,0.0112
846.00,0.0126
845.00,0.0148
844.00,0.0180
843.00,0.0216
842.00,0.0246
841.00,0.0254
840.00,0.0237
839.00,0.0204
838.00,0.0169
837.00,0.0141
836.00,0.0124
835.00,0.0114
834.00,0.0108
833.00,0.0104
832.00,0.0101
831.00,0.0098
830.00,0.0095
829.00,0.0094
828.00,0.0093
827.00,0.0092
826.00,0.0091
825.00,0.0091
824.00,0.0092
823.00,0.0092
822.00,0.0094
821.00,0.0097
820.00,0.0100
819.00,0.0103
818.00,0.0107
817.00,0.0113
816.00,0.0122
815.00,0.0134
814.00,0.0151
813.00,0.0171
812.00,0.0193
811.00,0.0214
810.00,0.0228
809.00,0.0233
808.00,0.0228
807.00,0.0213
806.00,0.0194
805.00,0.0174
804.00,0.0157
803.00,0.0143
802.00,0.0133
801.00,0.0125
800.00,0.0118
799.00,0.0111
798.00,0.0104
797.00,0.0099
796.00,0.0095
795.00,0.0091
794.00,0.0087
793.00,0.0084
792.00,0.0081
791.00,0.0078
790.00,0.0076
789.00,0.0073
788.00,0.0071
787.00,0.0068
786.00,0.0066
785.00,0.0063
784.00,0.0061
783.00,0.0059
782.00,0.0057
781.00,0.0055
780.00,0.0054
779.00,0.0054
778.00,0.0054
777.00,0.0056
776.00,0.0058
775.00,0.0059
774.00,0.0059
773.00,0.0058
772.00,0.0058
771.00,0.0057
770.00,0.0057
769.00,0.0057
768.00,0.0058
767.00,0.0058
766.00,0.0058
765.00,0.0057
764.00,0.0056
763.00,0.0055
762.00,0.0055
761.00,0.0056
760.00,0.0058
759.00,0.0061
758.00,0.0063
757.00,0.0064
756.00,0.0065
755.00,0.0067
754.00,0.0069
753.00,0.0070
752.00,0.0070
751.00,0.0069
750.00,0.0068
749.00,0.0070
748.00,0.0073
747.00,0.0076
746.00,0.0078
745.00,0.0079
744.00,0.0079
743.00,0.0079
742.00,0.0081
741.00,0.0083
740.00,0.0087
739.00,0.0091
738.00,0.0095
737.00,0.0098
736.00,0.0101
735.00,0.0105
734.00,0.0109
733.00,0.0115
732.00,0.0122
731.00,0.0129
730.00,0.0135
729.00,0.0139
728.00,0.0139
727.00,0.0138
726.00,0.0138
725.00,0.0141
724.00,0.0147
723.00,0.0154
722.00,0.0161
721.00,0.0165
720.00,0.0166
719.00,0.0160
718.00,0.0151
717.00,0.0139
716.00,0.0128
715.00,0.0118
714.00,0.0112
713.00,0.0107
712.00,0.0103
711.00,0.0100
710.00,0.0097
709.00,0.0095
708.00,0.0093
707.00,0.0092
706.00,0.0091
705.00,0.0089
704.00,0.0086
703.00,0.0085
702.00,0.0084
701.00,0.0084
700.00,0.0083
699.00,0.0083
698.00,0.0083
697.00,0.0084
696.00,0.0085
695.00,0.0086
694.00,0.0085
693.00,0.0083
692.00,0.0082
691.00,0.0082
690.00,0.0083
689.00,0.0084
688.00,0.0085
687.00,0.0086
686.00,0.0085
685.00,0.0084
684.00,0.0083
683.00,0.0083
682.00,0.0084
681.00,0.0083
680.00,0.0082
679.00,0.0081
678.00,0.0082
677.00,0.0084
676.00,0.0086
675.00,0.0087
674.00,0.0088
673.00,0.0089
672.00,0.0090
671.00,0.0093
670.00,0.0097
669.00,0.0100
668.00,0.0101
667.00,0.0097
666.00,0.0091
665.00,0.0086
664.00,0.0085
663.00,0.0084
662.00,0.0082
661.00,0.0080
660.00,0.0078
659.00,0.0078
658.00,0.0078
657.00,0.0077
656.00,0.0075
655.00,0.0075
654.00,0.0077
653.00,0.0079
652.00,0.0080
651.00,0.0079
650.00,0.0077
649.00,0.0075
648.00,0.0074
647.00,0.0074
646.00,0.0074
645.00,0.0073
644.00,0.0072
643.00,0.0070
642.00,0.0068
641.00,0.0066
640.00,0.0065
639.00,0.0065
638.00,0.0067
637.00,0.0070
636.00,0.0072
635.00,0.0073
634.00,0.0074
633.00,0.0075
632.00,0.0076
631.00,0.0077
630.00,0.0077
629.00,0.0078
628.00,0.0080
627.00,0.0081
626.00,0.0079
625.00,0.0075
624.00,0.0073
623.00,0.0073
622.00,0.0077
621.00,0.0080
620.00,0.0079
619.00,0.0075
618.00,0.0070
617.00,0.0066
616.00,0.0065
615.00,0.0066
614.00,0.0068
613.00,0.0069
612.00,0.0070
611.00,0.0072
610.00,0.0072
609.00,0.0071
608.00,0.0071
607.00,0.0072
606.00,0.0072
605.00,0.0071
604.00,0.0070
603.00,0.0068
602.00,0.0068
601.00,0.0068
600.00,0.0069
599.00,0.0070
598.00,0.0071
597.00,0.0071
596.00,0.0072
595.00,0.0072
594.00,0.0071
593.00,0.0068
592.00,0.0064
591.00,0.0063
590.00,0.0063
589.00,0.0064
588.00,0.0066
587.00,0.0068
586.00,0.0071
585.00,0.0072
584.00,0.0071
583.00,0.0071
582.00,0.0071
581.00,0.0071
580.00,0.0070
579.00,0.0069
578.00,0.0070
577.00,0.0070
576.00,0.0071
575.00,0.0072
574.00,0.0073
573.00,0.0073
572.00,0.0071
571.00,0.0069
570.00,0.0067
569.00,0.0066
568.00,0.0063
567.00,0.0058
566.00,0.0057
565.00,0.0060
564.00,0.0068
563.00,0.0075
562.00,0.0076
561.00,0.0073
560.00,0.0068
559.00,0.0066
558.00,0.0067
557.00,0.0071
556.00,0.0076
555.00,0.0080
554.00,0.0082
553.00,0.0081
552.00,0.0076
551.00,0.0072
550.00,0.0072
549.00,0.0073
548.00,0.0073
547.00,0.0071
546.00,0.0070
545.00,0.0072
544.00,0.0076
543.00,0.0079
542.00,0.0081
541.00,0.0082
540.00,0.0084
539.00,0.0087
538.00,0.0090
537.00,0.0093
536.00,0.0094
535.00,0.0095
534.00,0.0095
533.00,0.0093
532.00,0.0089
531.00,0.0087
530.00,0.0089
529.00,0.0093
528.00,0.0095
527.00,0.0095
526.00,0.0095
525.00,0.0094
524.00,0.0091
523.00,0.0087
522.00,0.0083
521.00,0.0081
520.00,0.0079
519.00,0.0074
518.00,0.0070
517.00,0.0067
516.00,0.0066
515.00,0.0067
514.00,0.0070
513.00,0.0073
512.00,0.0076
511.00,0.0074
510.00,0.0071
509.00,0.0068
508.00,0.0066
507.00,0.0066
506.00,0.0066
505.00,0.0067
504.00,0.0068
503.00,0.0070
502.00,0.0074
501.00,0.0080
500.00,0.0083
499.00,0.0079
498.00,0.0072
497.00,0.0067
496.00,0.0067
495.00,0.0071
494.00,0.0072
493.00,0.0070
492.00,0.0069
491.00,0.0070
490.00,0.0072
489.00,0.0074
488.00,0.0076
487.00,0.0080
486.00,0.0087
485.00,0.0093
484.00,0.0096
483.00,0.0098
482.00,0.0100
481.00,0.0103
480.00,0.0108
479.00,0.0115
478.00,0.0122
477.00,0.0124
476.00,0.0120
475.00,0.0111
474.00,0.0104
473.00,0.0103
472.00,0.0109
471.00,0.0117
470.00,0.0128
469.00,0.0138
468.00,0.0148
467.00,0.0157
466.00,0.0166
465.00,0.0174
464.00,0.0178
463.00,0.0177
462.00,0.0175
461.00,0.0175
460.00,0.0179
459.00,0.0181
458.00,0.0179
457.00,0.0174
456.00,0.0173
455.00,0.0178
454.00,0.0184
453.00,0.0186
452.00,0.0180
451.00,0.0166
450.00,0.0151
