Created as New Dataset,Sample 053 By Administrator Date Thursday, September 04 2025
cm-1,A
4000.00,0.0009
3999.00,0.0009
3998.00,0.0009
3997.00,0.0009
3996.00,0.0009
3995.00,0.0009
3994.00,0.0009
3993.00,0.0009
3992.00,0.0009
3991.00,0.0009
3990.00,0.0009
3989.00,0.0008
3988.00,0.0008
3987.00,0.0008
3986.00,0.0008
3985.00,0.0008
3984.00,0.0008
3983.00,0.0008
3982.00,0.0008
3981.00,0.0008
3980.00,0.0008
3979.00,0.0007
3978.00,0.0007
3977.00,0.0007
3976.00,0.0007
3975.00,0.0007
3974.00,0.0007
3973.00,0.0008
3972.00,0.0008
3971.00,0.0008
3970.00,0.0008
3969.00,0.0007
3968.00,0.0007
3967.00,0.0007
3966.00,0.0008
3965.00,0.0008
3964.00,0.0007
3963.00,0.0007
3962.00,0.0007
3961.00,0.0007
3960.00,0.0007
3959.00,0.0007
3958.00,0.0007
3957.00,0.0006
3956.00,0.0006
3955.00,0.0006
3954.00,0.0006
3953.00,0.0007
3952.00,0.0007
3951.00,0.0007
3950.00,0.0007
3949.00,0.0007
3948.00,0.0007
3947.00,0.0007
3946.00,0.0007
3945.00,0.0007
3944.00,0.0007
3943.00,0.0007
3942.00,0.0007
3941.00,0.0008
3940.00,0.0008
3939.00,0.0008
3938.00,0.0007
3937.00,0.0007
3936.00,0.0007
3935.00,0.0007
3934.00,0.0007
3933.00,0.0007
3932.00,0.0007
3931.00,0.0008
3930.00,0.0008
3929.00,0.0008
3928.00,0.0008
3927.00,0.0008
3926.00,0.0008
3925.00,0.0008
3924.00,0.0008
3923.00,0.0008
3922.00,0.0008
3921.00,0.0008
3920.00,0.0008
3919.00,0.0008
3918.00,0.0008
3917.00,0.0008
3916.00,0.0007
3915.00,0.0007
3914.00,0.0007
3913.00,0.0007
3912.00,0.0007
3911.00,0.0007
3910.00,0.0007
3909.00,0.0007
3908.00,0.0007
3907.00,0.0007
3906.00,0.0007
3905.00,0.0007
3904.00,0.0007
3903.00,0.0007
3902.00,0.0008
3901.00,0.0008
3900.00,0.0007
3899.00,0.0007
3898.00,0.0007
3897.00,0.0007
3896.00,0.0007
3895.00,0.0007
3894.00,0.0008
3893.00,0.0008
3892.00,0.0008
3891.00,0.0008
3890.00,0.0008
3889.00,0.0008
3888.00,0.0008
3887.00,0.0008
3886.00,0.0007
3885.00,0.0007
3884.00,0.0007
3883.00,0.0007
3882.00,0.0007
3881.00,0.0007
3880.00,0.0008
3879.00,0.0008
3878.00,0.0008
3877.00,0.0008
3876.00,0.0008
3875.00,0.0007
3874.00,0.0007
3873.00,0.0007
3872.00,0.0007
3871.00,0.0007
3870.00,0.0007
3869.00,0.0007
3868.00,0.0007
3867.00,0.0007
3866.00,0.0007
3865.00,0.0007
3864.00,0.0007
3863.00,0.0006
3862.00,0.0006
3861.00,0.0006
3860.00,0.0006
3859.00,0.0006
3858.00,0.0006
3857.00,0.0007
3856.00,0.0007
3855.00,0.0007
3854.00,0.0007
3853.00,0.0007
3852.00,0.0007
3851.00,0.0006
3850.00,0.0006
3849.00,0.0006
3848.00,0.0006
3847.00,0.0007
3846.00,0.0007
3845.00,0.0007
3844.00,0.0007
3843.00,0.0007
3842.00,0.0008
3841.00,0.0008
3840.00,0.0008
3839.00,0.0008
3838.00,0.0008
3837.00,0.0009
3836.00,0.0009
3835.00,0.0009
3834.00,0.0008
3833.00,0.0008
3832.00,0.0008
3831.00,0.0007
3830.00,0.0007
3829.00,0.0007
3828.00,0.0007
3827.00,0.0007
3826.00,0.0007
3825.00,0.0007
3824.00,0.0008
3823.00,0.0008
3822.00,0.0008
3821.00,0.0008
3820.00,0.0008
3819.00,0.0008
3818.00,0.0008
3817.00,0.0007
3816.00,0.0007
3815.00,0.0007
3814.00,0.0007
3813.00,0.0007
3812.00,0.0007
3811.00,0.0007
3810.00,0.0008
3809.00,0.0008
3808.00,0.0008
3807.00,0.0007
3806.00,0.0007
3805.00,0.0006
3804.00,0.0007
3803.00,0.0007
3802.00,0.0007
3801.00,0.0007
3800.00,0.0007
3799.00,0.0007
3798.00,0.0007
3797.00,0.0007
3796.00,0.0007
3795.00,0.0007
3794.00,0.0006
3793.00,0.0006
3792.00,0.0006
3791.00,0.0006
3790.00,0.0006
3789.00,0.0006
3788.00,0.0007
3787.00,0.0007
3786.00,0.0007
3785.00,0.0007
3784.00,0.0007
3783.00,0.0007
3782.00,0.0007
3781.00,0.0007
3780.00,0.0007
3779.00,0.0007
3778.00,0.0007
3777.00,0.0007
3776.00,0.0007
3775.00,0.0006
3774.00,0.0006
3773.00,0.0006
3772.00,0.0007
3771.00,0.0007
3770.00,0.0007
3769.00,0.0008
3768.00,0.0008
3767.00,0.0009
3766.00,0.0009
3765.00,0.0009
3764.00,0.0009
3763.00,0.0008
3762.00,0.0008
3761.00,0.0008
3760.00,0.0009
3759.00,0.0009
3758.00,0.0009
3757.00,0.0009
3756.00,0.0009
3755.00,0.0008
3754.00,0.0008
3753.00,0.0009
3752.00,0.0009
3751.00,0.0009
3750.00,0.0009
3749.00,0.0009
3748.00,0.0009
3747.00,0.0009
3746.00,0.0009
3745.00,0.0009
3744.00,0.0008
3743.00,0.0007
3742.00,0.0007
3741.00,0.0007
3740.00,0.0007
3739.00,0.0008
3738.00,0.0008
3737.00,0.0008
3736.00,0.0008
3735.00,0.0007
3734.00,0.0007
3733.00,0.0008
3732.00,0.0008
3731.00,0.0007
3730.00,0.0007
3729.00,0.0007
3728.00,0.0007
3727.00,0.0006
3726.00,0.0006
3725.00,0.0006
3724.00,0.0005
3723.00,0.0005
3722.00,0.0006
3721.00,0.0006
3720.00,0.0006
3719.00,0.0007
3718.00,0.0007
3717.00,0.0007
3716.00,0.0006
3715.00,0.0006
3714.00,0.0006
3713.00,0.0006
3712.00,0.0005
3711.00,0.0006
3710.00,0.0006
3709.00,0.0006
3708.00,0.0006
3707.00,0.0006
3706.00,0.0006
3705.00,0.0006
3704.00,0.0006
3703.00,0.0005
3702.00,0.0005
3701.00,0.0005
3700.00,0.0005
3699.00,0.0005
3698.00,0.0005
3697.00,0.0005
3696.00,0.0005
3695.00,0.0005
3694.00,0.0005
3693.00,0.0005
3692.00,0.0005
3691.00,0.0005
3690.00,0.0005
3689.00,0.0005
3688.00,0.0005
3687.00,0.0005
3686.00,0.0005
3685.00,0.0005
3684.00,0.0005
3683.00,0.0005
3682.00,0.0005
3681.00,0.0005
3680.00,0.0005
3679.00,0.0006
3678.00,0.0007
3677.00,0.0007
3676.00,0.0007
3675.00,0.0007
3674.00,0.0007
3673.00,0.0007
3672.00,0.0006
3671.00,0.0006
3670.00,0.0006
3669.00,0.0006
3668.00,0.0006
3667.00,0.0006
3666.00,0.0005
3665.00,0.0004
3664.00,0.0004
3663.00,0.0003
3662.00,0.0004
3661.00,0.0004
3660.00,0.0004
3659.00,0.0004
3658.00,0.0004
3657.00,0.0004
3656.00,0.0004
3655.00,0.0004
3654.00,0.0005
3653.00,0.0005
3652.00,0.0005
3651.00,0.0005
3650.00,0.0004
3649.00,0.0005
3648.00,0.0005
3647.00,0.0005
3646.00,0.0005
3645.00,0.0005
3644.00,0.0005
3643.00,0.0005
3642.00,0.0005
3641.00,0.0005
3640.00,0.0005
3639.00,0.0005
3638.00,0.0005
3637.00,0.0005
3636.00,0.0005
3635.00,0.0006
3634.00,0.0006
3633.00,0.0006
3632.00,0.0006
3631.00,0.0006
3630.00,0.0005
3629.00,0.0005
3628.00,0.0005
3627.00,0.0006
3626.00,0.0006
3625.00,0.0006
3624.00,0.0006
3623.00,0.0006
3622.00,0.0006
3621.00,0.0006
3620.00,0.0007
3619.00,0.0007
3618.00,0.0007
3617.00,0.0007
3616.00,0.0007
3615.00,0.0007
3614.00,0.0007
3613.00,0.0008
3612.00,0.0008
3611.00,0.0007
3610.00,0.0007
3609.00,0.0007
3608.00,0.0007
3607.00,0.0007
3606.00,0.0007
3605.00,0.0006
3604.00,0.0006
3603.00,0.0006
3602.00,0.0006
3601.00,0.0007
3600.00,0.0008
3599.00,0.0008
3598.00,0.0008
3597.00,0.0008
3596.00,0.0008
3595.00,0.0008
3594.00,0.0008
3593.00,0.0008
3592.00,0.0008
3591.00,0.0008
3590.00,0.0008
3589.00,0.0008
3588.00,0.0008
3587.00,0.0008
3586.00,0.0008
3585.00,0.0009
3584.00,0.0009
3583.00,0.0009
3582.00,0.0009
3581.00,0.0009
3580.00,0.0009
3579.00,0.0009
3578.00,0.0009
3577.00,0.0010
3576.00,0.0010
3575.00,0.0010
3574.00,0.0010
3573.00,0.0010
3572.00,0.0010
3571.00,0.0010
3570.00,0.0011
3569.00,0.0011
3568.00,0.0011
3567.00,0.0011
3566.00,0.0012
3565.00,0.0012
3564.00,0.0012
3563.00,0.0012
3562.00,0.0011
3561.00,0.0011
3560.00,0.0011
3559.00,0.0012
3558.00,0.0012
3557.00,0.0013
3556.00,0.0013
3555.00,0.0013
3554.00,0.0014
3553.00,0.0014
3552.00,0.0014
3551.00,0.0014
3550.00,0.0014
3549.00,0.0014
3548.00,0.0014
3547.00,0.0014
3546.00,0.0014
3545.00,0.0014
3544.00,0.0014
3543.00,0.0015
3542.00,0.0015
3541.00,0.0015
3540.00,0.0015
3539.00,0.0016
3538.00,0.0016
3537.00,0.0016
3536.00,0.0016
3535.00,0.0016
3534.00,0.0016
3533.00,0.0016
3532.00,0.0016
3531.00,0.0017
3530.00,0.0017
3529.00,0.0017
3528.00,0.0018
3527.00,0.0018
3526.00,0.0018
3525.00,0.0018
3524.00,0.0018
3523.00,0.0018
3522.00,0.0019
3521.00,0.0019
3520.00,0.0019
3519.00,0.0019
3518.00,0.0019
3517.00,0.0019
3516.00,0.0019
3515.00,0.0020
3514.00,0.0020
3513.00,0.0021
3512.00,0.0021
3511.00,0.0021
3510.00,0.0022
3509.00,0.0022
3508.00,0.0021
3507.00,0.0021
3506.00,0.0021
3505.00,0.0022
3504.00,0.0022
3503.00,0.0022
3502.00,0.0022
3501.00,0.0022
3500.00,0.0022
3499.00,0.0022
3498.00,0.0022
3497.00,0.0023
3496.00,0.0023
3495.00,0.0024
3494.00,0.0024
3493.00,0.0024
3492.00,0.0024
3491.00,0.0024
3490.00,0.0024
3489.00,0.0024
3488.00,0.0024
3487.00,0.0025
3486.00,0.0025
3485.00,0.0025
3484.00,0.0026
3483.00,0.0026
3482.00,0.0026
3481.00,0.0026
3480.00,0.0027
3479.00,0.0027
3478.00,0.0027
3477.00,0.0027
3476.00,0.0027
3475.00,0.0027
3474.00,0.0027
3473.00,0.0027
3472.00,0.0027
3471.00,0.0027
3470.00,0.0027
3469.00,0.0027
3468.00,0.0028
3467.00,0.0028
3466.00,0.0028
3465.00,0.0029
3464.00,0.0030
3463.00,0.0030
3462.00,0.0030
3461.00,0.0031
3460.00,0.0031
3459.00,0.0031
3458.00,0.0031
3457.00,0.0030
3456.00,0.0030
3455.00,0.0030
3454.00,0.0030
3453.00,0.0031
3452.00,0.0031
3451.00,0.0032
3450.00,0.0032
3449.00,0.0032
3448.00,0.0032
3447.00,0.0033
3446.00,0.0033
3445.00,0.0033
3444.00,0.0033
3443.00,0.0033
3442.00,0.0033
3441.00,0.0034
3440.00,0.0034
3439.00,0.0034
3438.00,0.0034
3437.00,0.0035
3436.00,0.0035
3435.00,0.0035
3434.00,0.0035
3433.00,0.0035
3432.00,0.0036
3431.00,0.0036
3430.00,0.0036
3429.00,0.0036
3428.00,0.0036
3427.00,0.0036
3426.00,0.0036
3425.00,0.0036
3424.00,0.0036
3423.00,0.0037
3422.00,0.0037
3421.00,0.0038
3420.00,0.0038
3419.00,0.0038
3418.00,0.0039
3417.00,0.0039
3416.00,0.0039
3415.00,0.0039
3414.00,0.0038
3413.00,0.0038
3412.00,0.0038
3411.00,0.0038
3410.00,0.0038
3409.00,0.0038
3408.00,0.0038
3407.00,0.0038
3406.00,0.0038
3405.00,0.0039
3404.00,0.0039
3403.00,0.0040
3402.00,0.0040
3401.00,0.0040
3400.00,0.0041
3399.00,0.0041
3398.00,0.0041
3397.00,0.0040
3396.00,0.0040
3395.00,0.0040
3394.00,0.0040
3393.00,0.0040
3392.00,0.0040
3391.00,0.0040
3390.00,0.0041
3389.00,0.0041
3388.00,0.0040
3387.00,0.0040
3386.00,0.0041
3385.00,0.0041
3384.00,0.0041
3383.00,0.0041
3382.00,0.0041
3381.00,0.0041
3380.00,0.0041
3379.00,0.0041
3378.00,0.0041
3377.00,0.0042
3376.00,0.0042
3375.00,0.0042
3374.00,0.0042
3373.00,0.0043
3372.00,0.0043
3371.00,0.0043
3370.00,0.0043
3369.00,0.0042
3368.00,0.0042
3367.00,0.0042
3366.00,0.0042
3365.00,0.0042
3364.00,0.0042
3363.00,0.0042
3362.00,0.0042
3361.00,0.0043
3360.00,0.0043
3359.00,0.0043
3358.00,0.0043
3357.00,0.0043
3356.00,0.0043
3355.00,0.0043
3354.00,0.0043
3353.00,0.0043
3352.00,0.0043
3351.00,0.0043
3350.00,0.0043
3349.00,0.0043
3348.00,0.0043
3347.00,0.0043
3346.00,0.0043
3345.00,0.0043
3344.00,0.0043
3343.00,0.0043
3342.00,0.0043
3341.00,0.0043
3340.00,0.0043
3339.00,0.0043
3338.00,0.0043
3337.00,0.0043
3336.00,0.0043
3335.00,0.0043
3334.00,0.0043
3333.00,0.0042
3332.00,0.0042
3331.00,0.0042
3330.00,0.0042
3329.00,0.0042
3328.00,0.0042
3327.00,0.0042
3326.00,0.0042
3325.00,0.0041
3324.00,0.0041
3323.00,0.0041
3322.00,0.0041
3321.00,0.0041
3320.00,0.0042
3319.00,0.0042
3318.00,0.0042
3317.00,0.0042
3316.00,0.0042
3315.00,0.0041
3314.00,0.0041
3313.00,0.0041
3312.00,0.0041
3311.00,0.0042
3310.00,0.0043
3309.00,0.0043
3308.00,0.0043
3307.00,0.0044
3306.00,0.0044
3305.00,0.0045
3304.00,0.0045
3303.00,0.0046
3302.00,0.0046
3301.00,0.0045
3300.00,0.0044
3299.00,0.0044
3298.00,0.0043
3297.00,0.0043
3296.00,0.0042
3295.00,0.0042
3294.00,0.0042
3293.00,0.0041
3292.00,0.0041
3291.00,0.0040
3290.00,0.0040
3289.00,0.0040
3288.00,0.0040
3287.00,0.0040
3286.00,0.0040
3285.00,0.0040
3284.00,0.0039
3283.00,0.0039
3282.00,0.0039
3281.00,0.0039
3280.00,0.0039
3279.00,0.0039
3278.00,0.0039
3277.00,0.0039
3276.00,0.0039
3275.00,0.0039
3274.00,0.0038
3273.00,0.0038
3272.00,0.0037
3271.00,0.0037
3270.00,0.0037
3269.00,0.0036
3268.00,0.0036
3267.00,0.0036
3266.00,0.0036
3265.00,0.0036
3264.00,0.0036
3263.00,0.0036
3262.00,0.0035
3261.00,0.0035
3260.00,0.0035
3259.00,0.0035
3258.00,0.0035
3257.00,0.0035
3256.00,0.0035
3255.00,0.0035
3254.00,0.0035
3253.00,0.0035
3252.00,0.0034
3251.00,0.0034
3250.00,0.0034
3249.00,0.0033
3248.00,0.0033
3247.00,0.0033
3246.00,0.0033
3245.00,0.0033
3244.00,0.0033
3243.00,0.0033
3242.00,0.0034
3241.00,0.0034
3240.00,0.0034
3239.00,0.0034
3238.00,0.0034
3237.00,0.0034
3236.00,0.0034
3235.00,0.0034
3234.00,0.0034
3233.00,0.0034
3232.00,0.0033
3231.00,0.0033
3230.00,0.0033
3229.00,0.0034
3228.00,0.0034
3227.00,0.0034
3226.00,0.0034
3225.00,0.0034
3224.00,0.0035
3223.00,0.0035
3222.00,0.0036
3221.00,0.0036
3220.00,0.0036
3219.00,0.0036
3218.00,0.0036
3217.00,0.0036
3216.00,0.0036
3215.00,0.0036
3214.00,0.0036
3213.00,0.0036
3212.00,0.0036
3211.00,0.0036
3210.00,0.0037
3209.00,0.0037
3208.00,0.0037
3207.00,0.0038
3206.00,0.0038
3205.00,0.0038
3204.00,0.0038
3203.00,0.0038
3202.00,0.0038
3201.00,0.0038
3200.00,0.0038
3199.00,0.0038
3198.00,0.0038
3197.00,0.0038
3196.00,0.0038
3195.00,0.0038
3194.00,0.0038
3193.00,0.0038
3192.00,0.0038
3191.00,0.0037
3190.00,0.0037
3189.00,0.0037
3188.00,0.0036
3187.00,0.0036
3186.00,0.0036
3185.00,0.0036
3184.00,0.0036
3183.00,0.0036
3182.00,0.0036
3181.00,0.0035
3180.00,0.0035
3179.00,0.0035
3178.00,0.0035
3177.00,0.0035
3176.00,0.0035
3175.00,0.0034
3174.00,0.0034
3173.00,0.0034
3172.00,0.0034
3171.00,0.0034
3170.00,0.0033
3169.00,0.0033
3168.00,0.0033
3167.00,0.0033
3166.00,0.0033
3165.00,0.0033
3164.00,0.0033
3163.00,0.0033
3162.00,0.0033
3161.00,0.0033
3160.00,0.0033
3159.00,0.0033
3158.00,0.0033
3157.00,0.0033
3156.00,0.0033
3155.00,0.0033
3154.00,0.0033
3153.00,0.0033
3152.00,0.0033
3151.00,0.0033
3150.00,0.0033
3149.00,0.0033
3148.00,0.0033
3147.00,0.0033
3146.00,0.0033
3145.00,0.0033
3144.00,0.0033
3143.00,0.0032
3142.00,0.0032
3141.00,0.0032
3140.00,0.0032
3139.00,0.0032
3138.00,0.0032
3137.00,0.0032
3136.00,0.0031
3135.00,0.0031
3134.00,0.0031
3133.00,0.0031
3132.00,0.0031
3131.00,0.0031
3130.00,0.0031
3129.00,0.0030
3128.00,0.0030
3127.00,0.0030
3126.00,0.0030
3125.00,0.0029
3124.00,0.0029
3123.00,0.0029
3122.00,0.0028
3121.00,0.0028
3120.00,0.0028
3119.00,0.0027
3118.00,0.0027
3117.00,0.0027
3116.00,0.0026
3115.00,0.0027
3114.00,0.0027
3113.00,0.0027
3112.00,0.0027
3111.00,0.0027
3110.00,0.0027
3109.00,0.0027
3108.00,0.0027
3107.00,0.0027
3106.00,0.0027
3105.00,0.0027
3104.00,0.0027
3103.00,0.0027
3102.00,0.0026
3101.00,0.0026
3100.00,0.0026
3099.00,0.0026
3098.00,0.0026
3097.00,0.0026
3096.00,0.0026
3095.00,0.0026
3094.00,0.0025
3093.00,0.0025
3092.00,0.0025
3091.00,0.0026
3090.00,0.0026
3089.00,0.0026
3088.00,0.0026
3087.00,0.0026
3086.00,0.0026
3085.00,0.0026
3084.00,0.0025
3083.00,0.0025
3082.00,0.0025
3081.00,0.0025
3080.00,0.0026
3079.00,0.0026
3078.00,0.0026
3077.00,0.0026
3076.00,0.0026
3075.00,0.0026
3074.00,0.0026
3073.00,0.0026
3072.00,0.0027
3071.00,0.0027
3070.00,0.0027
3069.00,0.0027
3068.00,0.0027
3067.00,0.0027
3066.00,0.0027
3065.00,0.0028
3064.00,0.0028
3063.00,0.0028
3062.00,0.0027
3061.00,0.0027
3060.00,0.0028
3059.00,0.0028
3058.00,0.0028
3057.00,0.0028
3056.00,0.0028
3055.00,0.0029
3054.00,0.0029
3053.00,0.0029
3052.00,0.0030
3051.00,0.0030
3050.00,0.0031
3049.00,0.0031
3048.00,0.0031
3047.00,0.0031
3046.00,0.0031
3045.00,0.0031
3044.00,0.0031
3043.00,0.0031
3042.00,0.0031
3041.00,0.0031
3040.00,0.0031
3039.00,0.0032
3038.00,0.0032
3037.00,0.0032
3036.00,0.0033
3035.00,0.0033
3034.00,0.0033
3033.00,0.0034
3032.00,0.0035
3031.00,0.0035
3030.00,0.0036
3029.00,0.0036
3028.00,0.0037
3027.00,0.0037
3026.00,0.0038
3025.00,0.0039
3024.00,0.0040
3023.00,0.0040
3022.00,0.0041
3021.00,0.0041
3020.00,0.0042
3019.00,0.0043
3018.00,0.0044
3017.00,0.0045
3016.00,0.0046
3015.00,0.0047
3014.00,0.0048
3013.00,0.0049
3012.00,0.0050
3011.00,0.0051
3010.00,0.0052
3009.00,0.0053
3008.00,0.0055
3007.00,0.0056
3006.00,0.0058
3005.00,0.0061
3004.00,0.0063
3003.00,0.0065
3002.00,0.0067
3001.00,0.0069
3000.00,0.0072
2999.00,0.0074
2998.00,0.0077
2997.00,0.0081
2996.00,0.0084
2995.00,0.0089
2994.00,0.0093
2993.00,0.0098
2992.00,0.0103
2991.00,0.0109
2990.00,0.0116
2989.00,0.0123
2988.00,0.0131
2987.00,0.0140
2986.00,0.0149
2985.00,0.0160
2984.00,0.0172
2983.00,0.0186
2982.00,0.0201
2981.00,0.0219
2980.00,0.0239
2979.00,0.0263
2978.00,0.0289
2977.00,0.0319
2976.00,0.0354
2975.00,0.0393
2974.00,0.0440
2973.00,0.0493
2972.00,0.0554
2971.00,0.0623
2970.00,0.0700
2969.00,0.0786
2968.00,0.0880
2967.00,0.0982
2966.00,0.1091
2965.00,0.1204
2964.00,0.1318
2963.00,0.1426
2962.00,0.1520
2961.00,0.1595
2960.00,0.1648
2959.00,0.1682
2958.00,0.1704
2957.00,0.1722
2956.00,0.1746
2955.00,0.1782
2954.00,0.1830
2953.00,0.1884
2952.00,0.1932
2951.00,0.1960
2950.00,0.1956
2949.00,0.1911
2948.00,0.1828
2947.00,0.1715
2946.00,0.1585
2945.00,0.1453
2944.00,0.1330
2943.00,0.1226
2942.00,0.1145
2941.00,0.1089
2940.00,0.1056
2939.00,0.1044
2938.00,0.1052
2937.00,0.1077
2936.00,0.1117
2935.00,0.1172
2934.00,0.1240
2933.00,0.1320
2932.00,0.1411
2931.00,0.1512
2930.00,0.1620
2929.00,0.1731
2928.00,0.1842
2927.00,0.1951
2926.00,0.2055
2925.00,0.2155
2924.00,0.2251
2923.00,0.2345
2922.00,0.2438
2921.00,0.2524
2920.00,0.2599
2919.00,0.2650
2918.00,0.2670
2917.00,0.2653
2916.00,0.2600
2915.00,0.2519
2914.00,0.2423
2913.00,0.2323
2912.00,0.2230
2911.00,0.2149
2910.00,0.2080
2909.00,0.2020
2908.00,0.1966
2907.00,0.1912
2906.00,0.1856
2905.00,0.1796
2904.00,0.1731
2903.00,0.1664
2902.00,0.1597
2901.00,0.1529
2900.00,0.1464
2899.00,0.1401
2898.00,0.1342
2897.00,0.1287
2896.00,0.1238
2895.00,0.1196
2894.00,0.1160
2893.00,0.1131
2892.00,0.1108
2891.00,0.1090
2890.00,0.1077
2889.00,0.1069
2888.00,0.1064
2887.00,0.1062
2886.00,0.1063
2885.00,0.1067
2884.00,0.1074
2883.00,0.1085
2882.00,0.1098
2881.00,0.1112
2880.00,0.1124
2879.00,0.1133
2878.00,0.1135
2877.00,0.1130
2876.00,0.1122
2875.00,0.1114
2874.00,0.1110
2873.00,0.1114
2872.00,0.1125
2871.00,0.1142
2870.00,0.1164
2869.00,0.1185
2868.00,0.1197
2867.00,0.1195
2866.00,0.1173
2865.00,0.1128
2864.00,0.1066
2863.00,0.0995
2862.00,0.0925
2861.00,0.0863
2860.00,0.0816
2859.00,0.0783
2858.00,0.0764
2857.00,0.0757
2856.00,0.0759
2855.00,0.0768
2854.00,0.0781
2853.00,0.0798
2852.00,0.0816
2851.00,0.0834
2850.00,0.0850
2849.00,0.0866
2848.00,0.0884
2847.00,0.0908
2846.00,0.0941
2845.00,0.0985
2844.00,0.1039
2843.00,0.1099
2842.00,0.1159
2841.00,0.1211
2840.00,0.1247
2839.00,0.1259
2838.00,0.1241
2837.00,0.1193
2836.00,0.1116
2835.00,0.1019
2834.00,0.0912
2833.00,0.0805
2832.00,0.0706
2831.00,0.0619
2830.00,0.0547
2829.00,0.0487
2828.00,0.0438
2827.00,0.0398
2826.00,0.0365
2825.00,0.0338
2824.00,0.0315
2823.00,0.0295
2822.00,0.0278
2821.00,0.0263
2820.00,0.0250
2819.00,0.0238
2818.00,0.0228
2817.00,0.0219
2816.00,0.0211
2815.00,0.0204
2814.00,0.0198
2813.00,0.0192
2812.00,0.0187
2811.00,0.0181
2810.00,0.0176
2809.00,0.0171
2808.00,0.0165
2807.00,0.0159
2806.00,0.0152
2805.00,0.0146
2804.00,0.0140
2803.00,0.0134
2802.00,0.0129
2801.00,0.0125
2800.00,0.0121
2799.00,0.0118
2798.00,0.0116
2797.00,0.0114
2796.00,0.0112
2795.00,0.0109
2794.00,0.0107
2793.00,0.0104
2792.00,0.0101
2791.00,0.0097
2790.00,0.0093
2789.00,0.0090
2788.00,0.0087
2787.00,0.0084
2786.00,0.0081
2785.00,0.0078
2784.00,0.0075
2783.00,0.0072
2782.00,0.0070
2781.00,0.0068
2780.00,0.0066
2779.00,0.0064
2778.00,0.0062
2777.00,0.0061
2776.00,0.0060
2775.00,0.0059
2774.00,0.0058
2773.00,0.0057
2772.00,0.0057
2771.00,0.0057
2770.00,0.0056
2769.00,0.0056
2768.00,0.0055
2767.00,0.0055
2766.00,0.0054
2765.00,0.0054
2764.00,0.0053
2763.00,0.0053
2762.00,0.0052
2761.00,0.0052
2760.00,0.0052
2759.00,0.0051
2758.00,0.0051
2757.00,0.0051
2756.00,0.0051
2755.00,0.0050
2754.00,0.0050
2753.00,0.0050
2752.00,0.0050
2751.00,0.0050
2750.00,0.0050
2749.00,0.0050
2748.00,0.0050
2747.00,0.0050
2746.00,0.0051
2745.00,0.0052
2744.00,0.0053
2743.00,0.0054
2742.00,0.0054
2741.00,0.0055
2740.00,0.0057
2739.00,0.0058
2738.00,0.0059
2737.00,0.0060
2736.00,0.0061
2735.00,0.0062
2734.00,0.0063
2733.00,0.0065
2732.00,0.0067
2731.00,0.0068
2730.00,0.0070
2729.00,0.0073
2728.00,0.0075
2727.00,0.0077
2726.00,0.0080
2725.00,0.0082
2724.00,0.0084
2723.00,0.0085
2722.00,0.0084
2721.00,0.0083
2720.00,0.0080
2719.00,0.0077
2718.00,0.0074
2717.00,0.0071
2716.00,0.0068
2715.00,0.0065
2714.00,0.0063
2713.00,0.0060
2712.00,0.0059
2711.00,0.0057
2710.00,0.0055
2709.00,0.0054
2708.00,0.0053
2707.00,0.0051
2706.00,0.0050
2705.00,0.0049
2704.00,0.0048
2703.00,0.0047
2702.00,0.0046
2701.00,0.0046
2700.00,0.0045
2699.00,0.0045
2698.00,0.0045
2697.00,0.0045
2696.00,0.0045
2695.00,0.0045
2694.00,0.0044
2693.00,0.0044
2692.00,0.0044
2691.00,0.0044
2690.00,0.0045
2689.00,0.0045
2688.00,0.0045
2687.00,0.0044
2686.00,0.0044
2685.00,0.0044
2684.00,0.0044
2683.00,0.0044
2682.00,0.0045
2681.00,0.0045
2680.00,0.0045
2679.00,0.0045
2678.00,0.0045
2677.00,0.0045
2676.00,0.0045
2675.00,0.0045
2674.00,0.0044
2673.00,0.0044
2672.00,0.0043
2671.00,0.0043
2670.00,0.0044
2669.00,0.0044
2668.00,0.0044
2667.00,0.0044
2666.00,0.0044
2665.00,0.0044
2664.00,0.0045
2663.00,0.0046
2662.00,0.0046
2661.00,0.0047
2660.00,0.0048
2659.00,0.0048
2658.00,0.0048
2657.00,0.0047
2656.00,0.0047
2655.00,0.0046
2654.00,0.0046
2653.00,0.0045
2652.00,0.0044
2651.00,0.0044
2650.00,0.0043
2649.00,0.0042
2648.00,0.0041
2647.00,0.0041
2646.00,0.0041
2645.00,0.0042
2644.00,0.0041
2643.00,0.0041
2642.00,0.0040
2641.00,0.0040
2640.00,0.0040
2639.00,0.0040
2638.00,0.0039
2637.00,0.0039
2636.00,0.0039
2635.00,0.0039
2634.00,0.0039
2633.00,0.0038
2632.00,0.0038
2631.00,0.0038
2630.00,0.0038
2629.00,0.0038
2628.00,0.0039
2627.00,0.0039
2626.00,0.0039
2625.00,0.0039
2624.00,0.0039
2623.00,0.0039
2622.00,0.0039
2621.00,0.0039
2620.00,0.0039
2619.00,0.0040
2618.00,0.0040
2617.00,0.0040
2616.00,0.0040
2615.00,0.0040
2614.00,0.0039
2613.00,0.0038
2612.00,0.0038
2611.00,0.0037
2610.00,0.0037
2609.00,0.0036
2608.00,0.0035
2607.00,0.0034
2606.00,0.0033
2605.00,0.0033
2604.00,0.0032
2603.00,0.0032
2602.00,0.0031
2601.00,0.0031
2600.00,0.0031
2599.00,0.0031
2598.00,0.0031
2597.00,0.0032
2596.00,0.0032
2595.00,0.0032
2594.00,0.0032
2593.00,0.0032
2592.00,0.0032
2591.00,0.0033
2590.00,0.0033
2589.00,0.0033
2588.00,0.0033
2587.00,0.0034
2586.00,0.0035
2585.00,0.0036
2584.00,0.0037
2583.00,0.0038
2582.00,0.0038
2581.00,0.0038
2580.00,0.0037
2579.00,0.0036
2578.00,0.0035
2577.00,0.0034
2576.00,0.0033
2575.00,0.0031
2574.00,0.0030
2573.00,0.0029
2572.00,0.0028
2571.00,0.0027
2570.00,0.0026
2569.00,0.0025
2568.00,0.0025
2567.00,0.0024
2566.00,0.0024
2565.00,0.0024
2564.00,0.0024
2563.00,0.0023
2562.00,0.0023
2561.00,0.0022
2560.00,0.0022
2559.00,0.0022
2558.00,0.0022
2557.00,0.0022
2556.00,0.0022
2555.00,0.0022
2554.00,0.0022
2553.00,0.0022
2552.00,0.0022
2551.00,0.0021
2550.00,0.0021
2549.00,0.0020
2548.00,0.0019
2547.00,0.0019
2546.00,0.0019
2545.00,0.0019
2544.00,0.0019
2543.00,0.0018
2542.00,0.0017
2541.00,0.0017
2540.00,0.0016
2539.00,0.0016
2538.00,0.0016
2537.00,0.0017
2536.00,0.0017
2535.00,0.0017
2534.00,0.0017
2533.00,0.0016
2532.00,0.0015
2531.00,0.0015
2530.00,0.0014
2529.00,0.0014
2528.00,0.0014
2527.00,0.0014
2526.00,0.0014
2525.00,0.0013
2524.00,0.0013
2523.00,0.0012
2522.00,0.0012
2521.00,0.0012
2520.00,0.0013
2519.00,0.0013
2518.00,0.0012
2517.00,0.0011
2516.00,0.0011
2515.00,0.0011
2514.00,0.0011
2513.00,0.0011
2512.00,0.0012
2511.00,0.0012
2510.00,0.0011
2509.00,0.0011
2508.00,0.0011
2507.00,0.0011
2506.00,0.0011
2505.00,0.0011
2504.00,0.0010
2503.00,0.0010
2502.00,0.0009
2501.00,0.0009
2500.00,0.0008
2499.00,0.0008
2498.00,0.0008
2497.00,0.0008
2496.00,0.0008
2495.00,0.0008
2494.00,0.0008
2493.00,0.0008
2492.00,0.0009
2491.00,0.0010
2490.00,0.0011
2489.00,0.0011
2488.00,0.0011
2487.00,0.0010
2486.00,0.0010
2485.00,0.0010
2484.00,0.0010
2483.00,0.0010
2482.00,0.0010
2481.00,0.0010
2480.00,0.0009
2479.00,0.0008
2478.00,0.0008
2477.00,0.0008
2476.00,0.0008
2475.00,0.0008
2474.00,0.0008
2473.00,0.0008
2472.00,0.0007
2471.00,0.0007
2470.00,0.0007
2469.00,0.0007
2468.00,0.0008
2467.00,0.0008
2466.00,0.0009
2465.00,0.0009
2464.00,0.0009
2463.00,0.0009
2462.00,0.0009
2461.00,0.0009
2460.00,0.0009
2459.00,0.0009
2458.00,0.0010
2457.00,0.0010
2456.00,0.0011
2455.00,0.0011
2454.00,0.0010
2453.00,0.0010
2452.00,0.0010
2451.00,0.0010
2450.00,0.0011
2449.00,0.0011
2448.00,0.0011
2447.00,0.0011
2446.00,0.0010
2445.00,0.0010
2444.00,0.0010
2443.00,0.0010
2442.00,0.0010
2441.00,0.0010
2440.00,0.0010
2439.00,0.0011
2438.00,0.0011
2437.00,0.0011
2436.00,0.0011
2435.00,0.0011
2434.00,0.0011
2433.00,0.0011
2432.00,0.0011
2431.00,0.0011
2430.00,0.0011
2429.00,0.0012
2428.00,0.0012
2427.00,0.0011
2426.00,0.0011
2425.00,0.0011
2424.00,0.0011
2423.00,0.0011
2422.00,0.0011
2421.00,0.0010
2420.00,0.0009
2419.00,0.0009
2418.00,0.0008
2417.00,0.0008
2416.00,0.0008
2415.00,0.0008
2414.00,0.0008
2413.00,0.0008
2412.00,0.0009
2411.00,0.0009
2410.00,0.0010
2409.00,0.0010
2408.00,0.0010
2407.00,0.0009
2406.00,0.0008
2405.00,0.0008
2404.00,0.0007
2403.00,0.0007
2402.00,0.0008
2401.00,0.0008
2400.00,0.0009
2399.00,0.0009
2398.00,0.0009
2397.00,0.0009
2396.00,0.0009
2395.00,0.0009
2394.00,0.0009
2393.00,0.0008
2392.00,0.0007
2391.00,0.0007
2390.00,0.0007
2389.00,0.0007
2388.00,0.0006
2387.00,0.0006
2386.00,0.0006
2385.00,0.0006
2384.00,0.0006
2383.00,0.0006
2382.00,0.0006
2381.00,0.0006
2380.00,0.0006
2379.00,0.0006
2378.00,0.0006
2377.00,0.0006
2376.00,0.0006
2375.00,0.0006
2374.00,0.0006
2373.00,0.0006
2372.00,0.0006
2371.00,0.0006
2370.00,0.0005
2369.00,0.0005
2368.00,0.0005
2367.00,0.0005
2366.00,0.0005
2365.00,0.0006
2364.00,0.0006
2363.00,0.0006
2362.00,0.0006
2361.00,0.0006
2360.00,0.0006
2359.00,0.0007
2358.00,0.0007
2357.00,0.0008
2356.00,0.0008
2355.00,0.0008
2354.00,0.0008
2353.00,0.0008
2352.00,0.0007
2351.00,0.0007
2350.00,0.0007
2349.00,0.0008
2348.00,0.0008
2347.00,0.0008
2346.00,0.0008
2345.00,0.0008
2344.00,0.0009
2343.00,0.0010
2342.00,0.0010
2341.00,0.0011
2340.00,0.0011
2339.00,0.0011
2338.00,0.0011
2337.00,0.0011
2336.00,0.0011
2335.00,0.0011
2334.00,0.0010
2333.00,0.0010
2332.00,0.0009
2331.00,0.0009
2330.00,0.0009
2329.00,0.0010
2328.00,0.0012
2327.00,0.0015
2326.00,0.0019
2325.00,0.0023
2324.00,0.0025
2323.00,0.0024
2322.00,0.0022
2321.00,0.0020
2320.00,0.0019
2319.00,0.0018
2318.00,0.0017
2317.00,0.0016
2316.00,0.0015
2315.00,0.0014
2314.00,0.0013
2313.00,0.0012
2312.00,0.0012
2311.00,0.0012
2310.00,0.0012
2309.00,0.0012
2308.00,0.0012
2307.00,0.0012
2306.00,0.0011
2305.00,0.0011
2304.00,0.0011
2303.00,0.0011
2302.00,0.0012
2301.00,0.0012
2300.00,0.0011
2299.00,0.0011
2298.00,0.0011
2297.00,0.0012
2296.00,0.0012
2295.00,0.0013
2294.00,0.0014
2293.00,0.0015
2292.00,0.0016
2291.00,0.0017
2290.00,0.0018
2289.00,0.0018
2288.00,0.0019
2287.00,0.0019
2286.00,0.0019
2285.00,0.0020
2284.00,0.0020
2283.00,0.0019
2282.00,0.0018
2281.00,0.0016
2280.00,0.0015
2279.00,0.0013
2278.00,0.0012
2277.00,0.0011
2276.00,0.0012
2275.00,0.0013
2274.00,0.0014
2273.00,0.0014
2272.00,0.0013
2271.00,0.0013
2270.00,0.0013
2269.00,0.0013
2268.00,0.0013
2267.00,0.0012
2266.00,0.0011
2265.00,0.0010
2264.00,0.0010
2263.00,0.0010
2262.00,0.0010
2261.00,0.0011
2260.00,0.0011
2259.00,0.0011
2258.00,0.0011
2257.00,0.0011
2256.00,0.0011
2255.00,0.0010
2254.00,0.0010
2253.00,0.0010
2252.00,0.0010
2251.00,0.0010
2250.00,0.0010
2249.00,0.0011
2248.00,0.0011
2247.00,0.0011
2246.00,0.0010
2245.00,0.0009
2244.00,0.0008
2243.00,0.0008
2242.00,0.0009
2241.00,0.0011
2240.00,0.0011
2239.00,0.0011
2238.00,0.0010
2237.00,0.0009
2236.00,0.0008
2235.00,0.0008
2234.00,0.0007
2233.00,0.0006
2232.00,0.0005
2231.00,0.0005
2230.00,0.0005
2229.00,0.0005
2228.00,0.0005
2227.00,0.0005
2226.00,0.0006
2225.00,0.0007
2224.00,0.0008
2223.00,0.0008
2222.00,0.0007
2221.00,0.0007
2220.00,0.0008
2219.00,0.0010
2218.00,0.0011
2217.00,0.0012
2216.00,0.0012
2215.00,0.0012
2214.00,0.0012
2213.00,0.0012
2212.00,0.0011
2211.00,0.0010
2210.00,0.0008
2209.00,0.0005
2208.00,0.0004
2207.00,0.0003
2206.00,0.0003
2205.00,0.0003
2204.00,0.0003
2203.00,0.0003
2202.00,0.0004
2201.00,0.0005
2200.00,0.0007
2199.00,0.0007
2198.00,0.0006
2197.00,0.0006
2196.00,0.0006
2195.00,0.0004
2194.00,0.0003
2193.00,0.0004
2192.00,0.0005
2191.00,0.0007
2190.00,0.0008
2189.00,0.0009
2188.00,0.0009
2187.00,0.0010
2186.00,0.0011
2185.00,0.0010
2184.00,0.0007
2183.00,0.0004
2182.00,0.0001
2181.00,0.0002
2180.00,0.0005
2179.00,0.0007
2178.00,0.0007
2177.00,0.0005
2176.00,0.0004
2175.00,0.0002
2174.00,0.0002
2173.00,0.0003
2172.00,0.0005
2171.00,0.0006
2170.00,0.0007
2169.00,0.0007
2168.00,0.0009
2167.00,0.0011
2166.00,0.0014
2165.00,0.0017
2164.00,0.0019
2163.00,0.0020
2162.00,0.0019
2161.00,0.0013
2160.00,0.0002
2159.00,-0.0013
2158.00,-0.0027
2157.00,-0.0033
2156.00,-0.0034
2155.00,-0.0031
2154.00,-0.0026
2153.00,-0.0022
2152.00,-0.0017
2151.00,-0.0015
2150.00,-0.0014
2149.00,-0.0015
2148.00,-0.0016
2147.00,-0.0016
2146.00,-0.0015
2145.00,-0.0014
2144.00,-0.0013
2143.00,-0.0013
2142.00,-0.0012
2141.00,-0.0013
2140.00,-0.0014
2139.00,-0.0014
2138.00,-0.0013
2137.00,-0.0012
2136.00,-0.0012
2135.00,-0.0014
2134.00,-0.0016
2133.00,-0.0018
2132.00,-0.0018
2131.00,-0.0017
2130.00,-0.0015
2129.00,-0.0013
2128.00,-0.0010
2127.00,-0.0008
2126.00,-0.0007
2125.00,-0.0006
2124.00,-0.0006
2123.00,-0.0006
2122.00,-0.0006
2121.00,-0.0005
2120.00,-0.0004
2119.00,-0.0003
2118.00,-0.0003
2117.00,-0.0001
2116.00,0.0001
2115.00,0.0002
2114.00,0.0002
2113.00,0.0002
2112.00,0.0002
2111.00,0.0003
2110.00,0.0003
2109.00,0.0004
2108.00,0.0003
2107.00,0.0002
2106.00,0.0001
2105.00,0.0001
2104.00,0.0000
2103.00,0.0000
2102.00,-0.0000
2101.00,0.0000
2100.00,0.0001
2099.00,0.0002
2098.00,0.0002
2097.00,0.0002
2096.00,0.0000
2095.00,-0.0002
2094.00,-0.0003
2093.00,-0.0003
2092.00,-0.0003
2091.00,-0.0002
2090.00,-0.0002
2089.00,-0.0001
2088.00,-0.0001
2087.00,-0.0001
2086.00,-0.0000
2085.00,0.0000
2084.00,0.0001
2083.00,0.0001
2082.00,0.0001
2081.00,0.0002
2080.00,0.0004
2079.00,0.0005
2078.00,0.0006
2077.00,0.0006
2076.00,0.0004
2075.00,0.0002
2074.00,-0.0000
2073.00,0.0000
2072.00,0.0002
2071.00,0.0002
2070.00,0.0002
2069.00,0.0001
2068.00,0.0001
2067.00,-0.0000
2066.00,-0.0001
2065.00,-0.0002
2064.00,-0.0002
2063.00,-0.0002
2062.00,-0.0002
2061.00,-0.0001
2060.00,-0.0001
2059.00,-0.0002
2058.00,-0.0002
2057.00,-0.0003
2056.00,-0.0003
2055.00,-0.0004
2054.00,-0.0003
2053.00,0.0001
2052.00,0.0006
2051.00,0.0010
2050.00,0.0011
2049.00,0.0009
2048.00,0.0007
2047.00,0.0006
2046.00,0.0006
2045.00,0.0006
2044.00,0.0005
2043.00,0.0003
2042.00,0.0001
2041.00,-0.0000
2040.00,-0.0001
2039.00,-0.0002
2038.00,-0.0001
2037.00,-0.0001
2036.00,-0.0001
2035.00,-0.0001
2034.00,-0.0003
2033.00,-0.0004
2032.00,-0.0005
2031.00,-0.0006
2030.00,-0.0007
2029.00,-0.0008
2028.00,-0.0009
2027.00,-0.0009
2026.00,-0.0011
2025.00,-0.0012
2024.00,-0.0012
2023.00,-0.0012
2022.00,-0.0011
2021.00,-0.0011
2020.00,-0.0011
2019.00,-0.0013
2018.00,-0.0013
2017.00,-0.0012
2016.00,-0.0010
2015.00,-0.0008
2014.00,-0.0007
2013.00,-0.0006
2012.00,-0.0006
2011.00,-0.0007
2010.00,-0.0009
2009.00,-0.0012
2008.00,-0.0016
2007.00,-0.0019
2006.00,-0.0020
2005.00,-0.0019
2004.00,-0.0017
2003.00,-0.0015
2002.00,-0.0015
2001.00,-0.0015
2000.00,-0.0015
1999.00,-0.0015
1998.00,-0.0014
1997.00,-0.0014
1996.00,-0.0014
1995.00,-0.0013
1994.00,-0.0013
1993.00,-0.0012
1992.00,-0.0012
1991.00,-0.0012
1990.00,-0.0011
1989.00,-0.0007
1988.00,-0.0002
1987.00,0.0002
1986.00,0.0003
1985.00,0.0003
1984.00,0.0004
1983.00,0.0005
1982.00,0.0006
1981.00,0.0006
1980.00,0.0005
1979.00,0.0003
1978.00,-0.0001
1977.00,-0.0005
1976.00,-0.0010
1975.00,-0.0013
1974.00,-0.0014
1973.00,-0.0014
1972.00,-0.0013
1971.00,-0.0014
1970.00,-0.0016
1969.00,-0.0016
1968.00,-0.0016
1967.00,-0.0015
1966.00,-0.0015
1965.00,-0.0014
1964.00,-0.0013
1963.00,-0.0013
1962.00,-0.0014
1961.00,-0.0016
1960.00,-0.0018
1959.00,-0.0021
1958.00,-0.0022
1957.00,-0.0021
1956.00,-0.0019
1955.00,-0.0017
1954.00,-0.0016
1953.00,-0.0016
1952.00,-0.0016
1951.00,-0.0016
1950.00,-0.0017
1949.00,-0.0017
1948.00,-0.0017
1947.00,-0.0017
1946.00,-0.0017
1945.00,-0.0017
1944.00,-0.0018
1943.00,-0.0018
1942.00,-0.0016
1941.00,-0.0014
1940.00,-0.0012
1939.00,-0.0012
1938.00,-0.0012
1937.00,-0.0014
1936.00,-0.0014
1935.00,-0.0015
1934.00,-0.0014
1933.00,-0.0012
1932.00,-0.0010
1931.00,-0.0008
1930.00,-0.0006
1929.00,-0.0006
1928.00,-0.0006
1927.00,-0.0007
1926.00,-0.0008
1925.00,-0.0009
1924.00,-0.0009
1923.00,-0.0008
1922.00,-0.0007
1921.00,-0.0006
1920.00,-0.0004
1919.00,-0.0003
1918.00,-0.0003
1917.00,-0.0003
1916.00,-0.0003
1915.00,-0.0003
1914.00,-0.0003
1913.00,-0.0003
1912.00,-0.0004
1911.00,-0.0004
1910.00,-0.0004
1909.00,-0.0004
1908.00,-0.0003
1907.00,-0.0003
1906.00,-0.0004
1905.00,-0.0004
1904.00,-0.0003
1903.00,-0.0001
1902.00,-0.0000
1901.00,0.0000
1900.00,-0.0000
1899.00,-0.0001
1898.00,-0.0003
1897.00,-0.0003
1896.00,-0.0004
1895.00,-0.0003
1894.00,-0.0001
1893.00,-0.0000
1892.00,0.0000
1891.00,-0.0000
1890.00,-0.0002
1889.00,-0.0003
1888.00,-0.0003
1887.00,-0.0003
1886.00,-0.0002
1885.00,-0.0002
1884.00,-0.0001
1883.00,-0.0001
1882.00,-0.0001
1881.00,-0.0000
1880.00,-0.0000
1879.00,-0.0000
1878.00,-0.0001
1877.00,-0.0001
1876.00,-0.0003
1875.00,-0.0004
1874.00,-0.0005
1873.00,-0.0005
1872.00,-0.0005
1871.00,-0.0005
1870.00,-0.0004
1869.00,-0.0003
1868.00,-0.0003
1867.00,-0.0002
1866.00,-0.0002
1865.00,-0.0002
1864.00,-0.0002
1863.00,-0.0001
1862.00,-0.0000
1861.00,0.0000
1860.00,0.0000
1859.00,-0.0001
1858.00,-0.0001
1857.00,-0.0002
1856.00,-0.0002
1855.00,-0.0003
1854.00,-0.0003
1853.00,-0.0003
1852.00,-0.0002
1851.00,-0.0002
1850.00,-0.0002
1849.00,-0.0002
1848.00,-0.0002
1847.00,-0.0002
1846.00,-0.0001
1845.00,-0.0000
1844.00,0.0001
1843.00,0.0001
1842.00,0.0000
1841.00,-0.0000
1840.00,0.0000
1839.00,0.0000
1838.00,0.0001
1837.00,0.0001
1836.00,0.0001
1835.00,0.0002
1834.00,0.0002
1833.00,0.0002
1832.00,0.0002
1831.00,0.0002
1830.00,0.0002
1829.00,0.0003
1828.00,0.0003
1827.00,0.0004
1826.00,0.0003
1825.00,0.0003
1824.00,0.0003
1823.00,0.0003
1822.00,0.0003
1821.00,0.0003
1820.00,0.0002
1819.00,0.0001
1818.00,-0.0001
1817.00,-0.0001
1816.00,-0.0001
1815.00,-0.0000
1814.00,0.0000
1813.00,0.0001
1812.00,0.0001
1811.00,0.0000
1810.00,0.0001
1809.00,0.0001
1808.00,0.0002
1807.00,0.0002
1806.00,0.0003
1805.00,0.0003
1804.00,0.0003
1803.00,0.0003
1802.00,0.0003
1801.00,0.0003
1800.00,0.0003
1799.00,0.0003
1798.00,0.0003
1797.00,0.0004
1796.00,0.0004
1795.00,0.0004
1794.00,0.0004
1793.00,0.0004
1792.00,0.0004
1791.00,0.0005
1790.00,0.0005
1789.00,0.0005
1788.00,0.0005
1787.00,0.0005
1786.00,0.0005
1785.00,0.0006
1784.00,0.0006
1783.00,0.0006
1782.00,0.0006
1781.00,0.0006
1780.00,0.0006
1779.00,0.0006
1778.00,0.0006
1777.00,0.0006
1776.00,0.0006
1775.00,0.0005
1774.00,0.0004
1773.00,0.0004
1772.00,0.0005
1771.00,0.0006
1770.00,0.0007
1769.00,0.0008
1768.00,0.0009
1767.00,0.0009
1766.00,0.0009
1765.00,0.0009
1764.00,0.0009
1763.00,0.0009
1762.00,0.0009
1761.00,0.0010
1760.00,0.0010
1759.00,0.0010
1758.00,0.0011
1757.00,0.0011
1756.00,0.0012
1755.00,0.0012
1754.00,0.0012
1753.00,0.0012
1752.00,0.0012
1751.00,0.0013
1750.00,0.0014
1749.00,0.0015
1748.00,0.0016
1747.00,0.0017
1746.00,0.0018
1745.00,0.0019
1744.00,0.0019
1743.00,0.0020
1742.00,0.0020
1741.00,0.0020
1740.00,0.0021
1739.00,0.0021
1738.00,0.0021
1737.00,0.0021
1736.00,0.0021
1735.00,0.0021
1734.00,0.0021
1733.00,0.0021
1732.00,0.0021
1731.00,0.0020
1730.00,0.0020
1729.00,0.0020
1728.00,0.0020
1727.00,0.0020
1726.00,0.0020
1725.00,0.0020
1724.00,0.0020
1723.00,0.0021
1722.00,0.0021
1721.00,0.0021
1720.00,0.0022
1719.00,0.0022
1718.00,0.0021
1717.00,0.0021
1716.00,0.0020
1715.00,0.0020
1714.00,0.0020
1713.00,0.0020
1712.00,0.0021
1711.00,0.0021
1710.00,0.0021
1709.00,0.0021
1708.00,0.0021
1707.00,0.0021
1706.00,0.0021
1705.00,0.0021
1704.00,0.0021
1703.00,0.0021
1702.00,0.0022
1701.00,0.0022
1700.00,0.0023
1699.00,0.0023
1698.00,0.0023
1697.00,0.0024
1696.00,0.0024
1695.00,0.0024
1694.00,0.0024
1693.00,0.0024
1692.00,0.0024
1691.00,0.0024
1690.00,0.0025
1689.00,0.0025
1688.00,0.0025
1687.00,0.0025
1686.00,0.0025
1685.00,0.0024
1684.00,0.0025
1683.00,0.0025
1682.00,0.0026
1681.00,0.0026
1680.00,0.0027
1679.00,0.0027
1678.00,0.0027
1677.00,0.0028
1676.00,0.0028
1675.00,0.0029
1674.00,0.0030
1673.00,0.0031
1672.00,0.0031
1671.00,0.0031
1670.00,0.0032
1669.00,0.0032
1668.00,0.0033
1667.00,0.0033
1666.00,0.0033
1665.00,0.0034
1664.00,0.0034
1663.00,0.0034
1662.00,0.0034
1661.00,0.0035
1660.00,0.0035
1659.00,0.0036
1658.00,0.0036
1657.00,0.0036
1656.00,0.0037
1655.00,0.0037
1654.00,0.0037
1653.00,0.0038
1652.00,0.0039
1651.00,0.0040
1650.00,0.0040
1649.00,0.0042
1648.00,0.0043
1647.00,0.0045
1646.00,0.0046
1645.00,0.0046
1644.00,0.0047
1643.00,0.0047
1642.00,0.0047
1641.00,0.0049
1640.00,0.0050
1639.00,0.0051
1638.00,0.0052
1637.00,0.0053
1636.00,0.0052
1635.00,0.0051
1634.00,0.0051
1633.00,0.0050
1632.00,0.0050
1631.00,0.0049
1630.00,0.0048
1629.00,0.0047
1628.00,0.0047
1627.00,0.0046
1626.00,0.0046
1625.00,0.0046
1624.00,0.0045
1623.00,0.0044
1622.00,0.0044
1621.00,0.0044
1620.00,0.0044
1619.00,0.0043
1618.00,0.0042
1617.00,0.0042
1616.00,0.0042
1615.00,0.0042
1614.00,0.0042
1613.00,0.0042
1612.00,0.0042
1611.00,0.0042
1610.00,0.0042
1609.00,0.0042
1608.00,0.0042
1607.00,0.0042
1606.00,0.0042
1605.00,0.0042
1604.00,0.0042
1603.00,0.0042
1602.00,0.0042
1601.00,0.0042
1600.00,0.0042
1599.00,0.0041
1598.00,0.0041
1597.00,0.0041
1596.00,0.0040
1595.00,0.0040
1594.00,0.0040
1593.00,0.0040
1592.00,0.0040
1591.00,0.0040
1590.00,0.0040
1589.00,0.0040
1588.00,0.0041
1587.00,0.0040
1586.00,0.0040
1585.00,0.0040
1584.00,0.0041
1583.00,0.0041
1582.00,0.0041
1581.00,0.0041
1580.00,0.0041
1579.00,0.0042
1578.00,0.0042
1577.00,0.0043
1576.00,0.0044
1575.00,0.0044
1574.00,0.0044
1573.00,0.0044
1572.00,0.0044
1571.00,0.0045
1570.00,0.0045
1569.00,0.0046
1568.00,0.0047
1567.00,0.0048
1566.00,0.0048
1565.00,0.0049
1564.00,0.0049
1563.00,0.0049
1562.00,0.0049
1561.00,0.0050
1560.00,0.0050
1559.00,0.0049
1558.00,0.0049
1557.00,0.0049
1556.00,0.0049
1555.00,0.0049
1554.00,0.0049
1553.00,0.0050
1552.00,0.0051
1551.00,0.0051
1550.00,0.0051
1549.00,0.0052
1548.00,0.0052
1547.00,0.0052
1546.00,0.0052
1545.00,0.0052
1544.00,0.0053
1543.00,0.0052
1542.00,0.0052
1541.00,0.0051
1540.00,0.0050
1539.00,0.0049
1538.00,0.0049
1537.00,0.0049
1536.00,0.0049
1535.00,0.0049
1534.00,0.0048
1533.00,0.0046
1532.00,0.0045
1531.00,0.0045
1530.00,0.0045
1529.00,0.0045
1528.00,0.0045
1527.00,0.0045
1526.00,0.0044
1525.00,0.0045
1524.00,0.0045
1523.00,0.0046
1522.00,0.0045
1521.00,0.0045
1520.00,0.0045
1519.00,0.0045
1518.00,0.0045
1517.00,0.0046
1516.00,0.0047
1515.00,0.0047
1514.00,0.0047
1513.00,0.0048
1512.00,0.0049
1511.00,0.0050
1510.00,0.0050
1509.00,0.0051
1508.00,0.0053
1507.00,0.0054
1506.00,0.0055
1505.00,0.0056
1504.00,0.0057
1503.00,0.0058
1502.00,0.0060
1501.00,0.0062
1500.00,0.0065
1499.00,0.0067
1498.00,0.0069
1497.00,0.0072
1496.00,0.0076
1495.00,0.0079
1494.00,0.0081
1493.00,0.0084
1492.00,0.0088
1491.00,0.0091
1490.00,0.0096
1489.00,0.0101
1488.00,0.0106
1487.00,0.0109
1486.00,0.0114
1485.00,0.0119
1484.00,0.0125
1483.00,0.0131
1482.00,0.0138
1481.00,0.0148
1480.00,0.0159
1479.00,0.0171
1478.00,0.0185
1477.00,0.0205
1476.00,0.0231
1475.00,0.0260
1474.00,0.0300
1473.00,0.0356
1472.00,0.0422
1471.00,0.0485
1470.00,0.0547
1469.00,0.0612
1468.00,0.0681
1467.00,0.0757
1466.00,0.0842
1465.00,0.0932
1464.00,0.1012
1463.00,0.1069
1462.00,0.1106
1461.00,0.1132
1460.00,0.1150
1459.00,0.1163
1458.00,0.1175
1457.00,0.1186
1456.00,0.1190
1455.00,0.1187
1454.00,0.1180
1453.00,0.1169
1452.00,0.1149
1451.00,0.1118
1450.00,0.1072
1449.00,0.1005
1448.00,0.0916
1447.00,0.0820
1446.00,0.0730
1445.00,0.0651
1444.00,0.0582
1443.00,0.0524
1442.00,0.0480
1441.00,0.0449
1440.00,0.0429
1439.00,0.0418
1438.00,0.0414
1437.00,0.0411
1436.00,0.0400
1435.00,0.0376
1434.00,0.0342
1433.00,0.0301
1432.00,0.0259
1431.00,0.0221
1430.00,0.0191
1429.00,0.0169
1428.00,0.0153
1427.00,0.0143
1426.00,0.0136
1425.00,0.0130
1424.00,0.0124
1423.00,0.0121
1422.00,0.0119
1421.00,0.0117
1420.00,0.0114
1419.00,0.0112
1418.00,0.0111
1417.00,0.0108
1416.00,0.0106
1415.00,0.0105
1414.00,0.0104
1413.00,0.0103
1412.00,0.0102
1411.00,0.0101
1410.00,0.0101
1409.00,0.0100
1408.00,0.0099
1407.00,0.0099
1406.00,0.0100
1405.00,0.0100
1404.00,0.0100
1403.00,0.0101
1402.00,0.0102
1401.00,0.0103
1400.00,0.0104
1399.00,0.0106
1398.00,0.0109
1397.00,0.0111
1396.00,0.0113
1395.00,0.0117
1394.00,0.0121
1393.00,0.0126
1392.00,0.0131
1391.00,0.0139
1390.00,0.0149
1389.00,0.0163
1388.00,0.0183
1387.00,0.0214
1386.00,0.0255
1385.00,0.0310
1384.00,0.0384
1383.00,0.0488
1382.00,0.0625
1381.00,0.0801
1380.00,0.1017
1379.00,0.1266
1378.00,0.1509
1377.00,0.1691
1376.00,0.1756
1375.00,0.1671
1374.00,0.1464
1373.00,0.1212
1372.00,0.0981
1371.00,0.0789
1370.00,0.0636
1369.00,0.0520
1368.00,0.0440
1367.00,0.0390
1366.00,0.0363
1365.00,0.0352
1364.00,0.0354
1363.00,0.0366
1362.00,0.0386
1361.00,0.0407
1360.00,0.0423
1359.00,0.0427
1358.00,0.0417
1357.00,0.0393
1356.00,0.0359
1355.00,0.0321
1354.00,0.0284
1353.00,0.0253
1352.00,0.0228
1351.00,0.0208
1350.00,0.0190
1349.00,0.0176
1348.00,0.0164
1347.00,0.0154
1346.00,0.0146
1345.00,0.0139
1344.00,0.0133
1343.00,0.0128
1342.00,0.0124
1341.00,0.0120
1340.00,0.0117
1339.00,0.0115
1338.00,0.0113
1337.00,0.0113
1336.00,0.0114
1335.00,0.0116
1334.00,0.0119
1333.00,0.0122
1332.00,0.0125
1331.00,0.0128
1330.00,0.0129
1329.00,0.0129
1328.00,0.0126
1327.00,0.0122
1326.00,0.0117
1325.00,0.0112
1324.00,0.0106
1323.00,0.0102
1322.00,0.0098
1321.00,0.0095
1320.00,0.0092
1319.00,0.0091
1318.00,0.0089
1317.00,0.0087
1316.00,0.0086
1315.00,0.0085
1314.00,0.0085
1313.00,0.0086
1312.00,0.0088
1311.00,0.0091
1310.00,0.0096
1309.00,0.0103
1308.00,0.0114
1307.00,0.0128
1306.00,0.0141
1305.00,0.0150
1304.00,0.0151
1303.00,0.0146
1302.00,0.0138
1301.00,0.0131
1300.00,0.0126
1299.00,0.0124
1298.00,0.0123
1297.00,0.0122
1296.00,0.0120
1295.00,0.0116
1294.00,0.0112
1293.00,0.0107
1292.00,0.0102
1291.00,0.0097
1290.00,0.0093
1289.00,0.0090
1288.00,0.0087
1287.00,0.0085
1286.00,0.0083
1285.00,0.0082
1284.00,0.0080
1283.00,0.0079
1282.00,0.0077
1281.00,0.0076
1280.00,0.0075
1279.00,0.0075
1278.00,0.0074
1277.00,0.0074
1276.00,0.0074
1275.00,0.0074
1274.00,0.0074
1273.00,0.0075
1272.00,0.0075
1271.00,0.0076
1270.00,0.0078
1269.00,0.0080
1268.00,0.0083
1267.00,0.0086
1266.00,0.0090
1265.00,0.0094
1264.00,0.0098
1263.00,0.0103
1262.00,0.0107
1261.00,0.0112
1260.00,0.0118
1259.00,0.0125
1258.00,0.0133
1257.00,0.0140
1256.00,0.0143
1255.00,0.0141
1254.00,0.0133
1253.00,0.0122
1252.00,0.0112
1251.00,0.0103
1250.00,0.0096
1249.00,0.0091
1248.00,0.0088
1247.00,0.0085
1246.00,0.0083
1245.00,0.0081
1244.00,0.0079
1243.00,0.0077
1242.00,0.0076
1241.00,0.0076
1240.00,0.0075
1239.00,0.0074
1238.00,0.0074
1237.00,0.0074
1236.00,0.0074
1235.00,0.0074
1234.00,0.0074
1233.00,0.0074
1232.00,0.0075
1231.00,0.0075
1230.00,0.0076
1229.00,0.0076
1228.00,0.0077
1227.00,0.0077
1226.00,0.0079
1225.00,0.0082
1224.00,0.0086
1223.00,0.0090
1222.00,0.0093
1221.00,0.0096
1220.00,0.0097
1219.00,0.0097
1218.00,0.0096
1217.00,0.0094
1216.00,0.0091
1215.00,0.0088
1214.00,0.0086
1213.00,0.0084
1212.00,0.0082
1211.00,0.0081
1210.00,0.0079
1209.00,0.0077
1208.00,0.0076
1207.00,0.0075
1206.00,0.0075
1205.00,0.0075
1204.00,0.0075
1203.00,0.0075
1202.00,0.0075
1201.00,0.0075
1200.00,0.0075
1199.00,0.0075
1198.00,0.0075
1197.00,0.0075
1196.00,0.0075
1195.00,0.0075
1194.00,0.0076
1193.00,0.0076
1192.00,0.0077
1191.00,0.0077
1190.00,0.0078
1189.00,0.0078
1188.00,0.0079
1187.00,0.0080
1186.00,0.0081
1185.00,0.0082
1184.00,0.0084
1183.00,0.0085
1182.00,0.0088
1181.00,0.0090
1180.00,0.0094
1179.00,0.0099
1178.00,0.0106
1177.00,0.0116
1176.00,0.0130
1175.00,0.0147
1174.00,0.0170
1173.00,0.0199
1172.00,0.0235
1171.00,0.0275
1170.00,0.0315
1169.00,0.0348
1168.00,0.0368
1167.00,0.0371
1166.00,0.0360
1165.00,0.0338
1164.00,0.0314
1163.00,0.0290
1162.00,0.0269
1161.00,0.0251
1160.00,0.0238
1159.00,0.0228
1158.00,0.0220
1157.00,0.0213
1156.00,0.0208
1155.00,0.0204
1154.00,0.0201
1153.00,0.0198
1152.00,0.0193
1151.00,0.0187
1150.00,0.0179
1149.00,0.0170
1148.00,0.0160
1147.00,0.0151
1146.00,0.0142
1145.00,0.0133
1144.00,0.0125
1143.00,0.0118
1142.00,0.0111
1141.00,0.0105
1140.00,0.0100
1139.00,0.0096
1138.00,0.0092
1137.00,0.0088
1136.00,0.0085
1135.00,0.0083
1134.00,0.0081
1133.00,0.0081
1132.00,0.0081
1131.00,0.0081
1130.00,0.0081
1129.00,0.0080
1128.00,0.0079
1127.00,0.0079
1126.00,0.0079
1125.00,0.0080
1124.00,0.0081
1123.00,0.0083
1122.00,0.0085
1121.00,0.0086
1120.00,0.0087
1119.00,0.0088
1118.00,0.0089
1117.00,0.0090
1116.00,0.0091
1115.00,0.0092
1114.00,0.0094
1113.00,0.0096
1112.00,0.0098
1111.00,0.0100
1110.00,0.0103
1109.00,0.0106
1108.00,0.0110
1107.00,0.0115
1106.00,0.0121
1105.00,0.0127
1104.00,0.0132
1103.00,0.0135
1102.00,0.0135
1101.00,0.0131
1100.00,0.0126
1099.00,0.0120
1098.00,0.0114
1097.00,0.0109
1096.00,0.0104
1095.00,0.0101
1094.00,0.0099
1093.00,0.0097
1092.00,0.0095
1091.00,0.0094
1090.00,0.0093
1089.00,0.0091
1088.00,0.0090
1087.00,0.0089
1086.00,0.0089
1085.00,0.0088
1084.00,0.0089
1083.00,0.0089
1082.00,0.0089
1081.00,0.0088
1080.00,0.0087
1079.00,0.0086
1078.00,0.0085
1077.00,0.0083
1076.00,0.0082
1075.00,0.0081
1074.00,0.0081
1073.00,0.0082
1072.00,0.0083
1071.00,0.0083
1070.00,0.0083
1069.00,0.0083
1068.00,0.0083
1067.00,0.0084
1066.00,0.0085
1065.00,0.0085
1064.00,0.0086
1063.00,0.0086
1062.00,0.0087
1061.00,0.0088
1060.00,0.0089
1059.00,0.0091
1058.00,0.0092
1057.00,0.0094
1056.00,0.0095
1055.00,0.0097
1054.00,0.0099
1053.00,0.0102
1052.00,0.0105
1051.00,0.0109
1050.00,0.0114
1049.00,0.0119
1048.00,0.0125
1047.00,0.0130
1046.00,0.0135
1045.00,0.0138
1044.00,0.0139
1043.00,0.0139
1042.00,0.0136
1041.00,0.0132
1040.00,0.0129
1039.00,0.0126
1038.00,0.0124
1037.00,0.0123
1036.00,0.0122
1035.00,0.0121
1034.00,0.0120
1033.00,0.0119
1032.00,0.0119
1031.00,0.0118
1030.00,0.0118
1029.00,0.0118
1028.00,0.0119
1027.00,0.0122
1026.00,0.0124
1025.00,0.0127
1024.00,0.0130
1023.00,0.0133
1022.00,0.0136
1021.00,0.0138
1020.00,0.0140
1019.00,0.0142
1018.00,0.0143
1017.00,0.0144
1016.00,0.0144
1015.00,0.0144
1014.00,0.0145
1013.00,0.0144
1012.00,0.0143
1011.00,0.0142
1010.00,0.0142
1009.00,0.0145
1008.00,0.0149
1007.00,0.0155
1006.00,0.0164
1005.00,0.0176
1004.00,0.0195
1003.00,0.0222
1002.00,0.0259
1001.00,0.0307
1000.00,0.0359
999.00,0.0403
998.00,0.0426
997.00,0.0420
996.00,0.0385
995.00,0.0335
994.00,0.0282
993.00,0.0236
992.00,0.0201
991.00,0.0176
990.00,0.0159
989.00,0.0146
988.00,0.0138
987.00,0.0133
986.00,0.0130
985.00,0.0131
984.00,0.0135
983.00,0.0142
982.00,0.0153
981.00,0.0169
980.00,0.0191
979.00,0.0222
978.00,0.0261
977.00,0.0309
976.00,0.0363
975.00,0.0417
974.00,0.0460
973.00,0.0481
972.00,0.0469
971.00,0.0426
970.00,0.0364
969.00,0.0299
968.00,0.0244
967.00,0.0202
966.00,0.0172
965.00,0.0151
964.00,0.0136
963.00,0.0124
962.00,0.0115
961.00,0.0109
960.00,0.0104
959.00,0.0100
958.00,0.0096
957.00,0.0093
956.00,0.0090
955.00,0.0088
954.00,0.0086
953.00,0.0084
952.00,0.0082
951.00,0.0080
950.00,0.0079
949.00,0.0077
948.00,0.0077
947.00,0.0078
946.00,0.0079
945.00,0.0082
944.00,0.0086
943.00,0.0089
942.00,0.0092
941.00,0.0095
940.00,0.0095
939.00,0.0093
938.00,0.0090
937.00,0.0084
936.00,0.0079
935.00,0.0074
934.00,0.0070
933.00,0.0067
932.00,0.0065
931.00,0.0064
930.00,0.0064
929.00,0.0065
928.00,0.0064
927.00,0.0064
926.00,0.0064
925.00,0.0064
924.00,0.0065
923.00,0.0065
922.00,0.0065
921.00,0.0064
920.00,0.0064
919.00,0.0064
918.00,0.0064
917.00,0.0064
916.00,0.0064
915.00,0.0065
914.00,0.0066
913.00,0.0068
912.00,0.0070
911.00,0.0070
910.00,0.0071
909.00,0.0074
908.00,0.0078
907.00,0.0083
906.00,0.0089
905.00,0.0097
904.00,0.0107
903.00,0.0122
902.00,0.0139
901.00,0.0156
900.00,0.0167
899.00,0.0170
898.00,0.0163
897.00,0.0149
896.00,0.0133
895.00,0.0117
894.00,0.0103
893.00,0.0093
892.00,0.0087
891.00,0.0082
890.00,0.0079
889.00,0.0076
888.00,0.0073
887.00,0.0072
886.00,0.0072
885.00,0.0072
884.00,0.0073
883.00,0.0074
882.00,0.0075
881.00,0.0074
880.00,0.0074
879.00,0.0073
878.00,0.0074
877.00,0.0074
876.00,0.0076
875.00,0.0078
874.00,0.0079
873.00,0.0080
872.00,0.0080
871.00,0.0079
870.00,0.0078
869.00,0.0077
868.00,0.0076
867.00,0.0076
866.00,0.0077
865.00,0.0079
864.00,0.0081
863.00,0.0083
862.00,0.0083
861.00,0.0083
860.00,0.0084
859.00,0.0087
858.00,0.0089
857.00,0.0090
856.00,0.0091
855.00,0.0093
854.00,0.0095
853.00,0.0098
852.00,0.0101
851.00,0.0106
850.00,0.0112
849.00,0.0120
848.00,0.0130
847.00,0.0145
846.00,0.0169
845.00,0.0206
844.00,0.0261
843.00,0.0330
842.00,0.0391
841.00,0.0418
840.00,0.0397
839.00,0.0338
838.00,0.0268
837.00,0.0210
836.00,0.0171
835.00,0.0148
834.00,0.0134
833.00,0.0126
832.00,0.0120
831.00,0.0116
830.00,0.0114
829.00,0.0112
828.00,0.0110
827.00,0.0108
826.00,0.0107
825.00,0.0107
824.00,0.0107
823.00,0.0107
822.00,0.0107
821.00,0.0108
820.00,0.0109
819.00,0.0111
818.00,0.0113
817.00,0.0117
816.00,0.0125
815.00,0.0136
814.00,0.0151
813.00,0.0168
812.00,0.0185
811.00,0.0201
810.00,0.0212
809.00,0.0216
808.00,0.0212
807.00,0.0201
806.00,0.0186
805.00,0.0170
804.00,0.0155
803.00,0.0144
802.00,0.0135
801.00,0.0128
800.00,0.0122
799.00,0.0116
798.00,0.0111
797.00,0.0106
796.00,0.0102
795.00,0.0100
794.00,0.0098
793.00,0.0097
792.00,0.0094
791.00,0.0091
790.00,0.0087
789.00,0.0083
788.00,0.0080
787.00,0.0077
786.00,0.0074
785.00,0.0071
784.00,0.0069
783.00,0.0068
782.00,0.0067
781.00,0.0068
780.00,0.0069
779.00,0.0070
778.00,0.0069
777.00,0.0067
776.00,0.0064
775.00,0.0062
774.00,0.0062
773.00,0.0064
772.00,0.0066
771.00,0.0066
770.00,0.0065
769.00,0.0064
768.00,0.0064
767.00,0.0064
766.00,0.0065
765.00,0.0066
764.00,0.0067
763.00,0.0067
762.00,0.0067
761.00,0.0067
760.00,0.0068
759.00,0.0067
758.00,0.0066
757.00,0.0066
756.00,0.0067
755.00,0.0071
754.00,0.0074
753.00,0.0077
752.00,0.0078
751.00,0.0078
750.00,0.0079
749.00,0.0080
748.00,0.0081
747.00,0.0082
746.00,0.0082
745.00,0.0082
744.00,0.0084
743.00,0.0086
742.00,0.0089
741.00,0.0090
740.00,0.0092
739.00,0.0093
738.00,0.0096
737.00,0.0101
736.00,0.0107
735.00,0.0114
734.00,0.0121
733.00,0.0128
732.00,0.0134
731.00,0.0140
730.00,0.0145
729.00,0.0149
728.00,0.0150
727.00,0.0151
726.00,0.0152
725.00,0.0155
724.00,0.0161
723.00,0.0167
722.00,0.0174
721.00,0.0178
720.00,0.0176
719.00,0.0169
718.00,0.0157
717.00,0.0144
716.00,0.0132
715.00,0.0123
714.00,0.0117
713.00,0.0113
712.00,0.0109
711.00,0.0107
710.00,0.0105
709.00,0.0104
708.00,0.0103
707.00,0.0102
706.00,0.0101
705.00,0.0100
704.00,0.0099
703.00,0.0098
702.00,0.0097
701.00,0.0097
700.00,0.0096
699.00,0.0095
698.00,0.0095
697.00,0.0094
696.00,0.0094
695.00,0.0094
694.00,0.0094
693.00,0.0093
692.00,0.0093
691.00,0.0094
690.00,0.0093
689.00,0.0093
688.00,0.0093
687.00,0.0092
686.00,0.0091
685.00,0.0089
684.00,0.0087
683.00,0.0085
682.00,0.0085
681.00,0.0085
680.00,0.0086
679.00,0.0086
678.00,0.0088
677.00,0.0089
676.00,0.0091
675.00,0.0092
674.00,0.0096
673.00,0.0100
672.00,0.0104
671.00,0.0106
670.00,0.0107
669.00,0.0107
668.00,0.0107
667.00,0.0106
666.00,0.0103
665.00,0.0098
664.00,0.0094
663.00,0.0090
662.00,0.0087
661.00,0.0084
660.00,0.0081
659.00,0.0080
658.00,0.0080
657.00,0.0081
656.00,0.0083
655.00,0.0084
654.00,0.0084
653.00,0.0084
652.00,0.0083
651.00,0.0083
650.00,0.0084
649.00,0.0084
648.00,0.0082
647.00,0.0080
646.00,0.0080
645.00,0.0081
644.00,0.0083
643.00,0.0083
642.00,0.0082
641.00,0.0080
640.00,0.0078
639.00,0.0077
638.00,0.0077
637.00,0.0078
636.00,0.0079
635.00,0.0079
634.00,0.0080
633.00,0.0081
632.00,0.0083
631.00,0.0085
630.00,0.0085
629.00,0.0085
628.00,0.0083
627.00,0.0083
626.00,0.0083
625.00,0.0083
624.00,0.0083
623.00,0.0082
622.00,0.0081
621.00,0.0080
620.00,0.0080
619.00,0.0081
618.00,0.0083
617.00,0.0085
616.00,0.0086
615.00,0.0086
614.00,0.0085
613.00,0.0083
612.00,0.0081
611.00,0.0079
610.00,0.0079
609.00,0.0080
608.00,0.0081
607.00,0.0084
606.00,0.0086
605.00,0.0087
604.00,0.0086
603.00,0.0084
602.00,0.0082
601.00,0.0080
600.00,0.0080
599.00,0.0080
598.00,0.0080
597.00,0.0082
596.00,0.0083
595.00,0.0084
594.00,0.0083
593.00,0.0082
592.00,0.0081
591.00,0.0081
590.00,0.0083
589.00,0.0085
588.00,0.0088
587.00,0.0088
586.00,0.0088
585.00,0.0087
584.00,0.0087
583.00,0.0085
582.00,0.0083
581.00,0.0081
580.00,0.0081
579.00,0.0084
578.00,0.0086
577.00,0.0087
576.00,0.0087
575.00,0.0086
574.00,0.0084
573.00,0.0082
572.00,0.0080
571.00,0.0080
570.00,0.0082
569.00,0.0084
568.00,0.0084
567.00,0.0084
566.00,0.0084
565.00,0.0083
564.00,0.0082
563.00,0.0080
562.00,0.0080
561.00,0.0082
560.00,0.0086
559.00,0.0088
558.00,0.0087
557.00,0.0083
556.00,0.0079
555.00,0.0080
554.00,0.0084
553.00,0.0088
552.00,0.0092
551.00,0.0095
550.00,0.0097
549.00,0.0098
548.00,0.0096
547.00,0.0094
546.00,0.0094
545.00,0.0097
544.00,0.0099
543.00,0.0101
542.00,0.0103
541.00,0.0106
540.00,0.0108
539.00,0.0108
538.00,0.0106
537.00,0.0104
536.00,0.0104
535.00,0.0107
534.00,0.0110
533.00,0.0111
532.00,0.0110
531.00,0.0110
530.00,0.0111
529.00,0.0113
528.00,0.0115
527.00,0.0116
526.00,0.0114
525.00,0.0109
524.00,0.0102
523.00,0.0094
522.00,0.0091
521.00,0.0091
520.00,0.0091
519.00,0.0090
518.00,0.0086
517.00,0.0081
516.00,0.0080
515.00,0.0081
514.00,0.0081
513.00,0.0081
512.00,0.0081
511.00,0.0083
510.00,0.0087
509.00,0.0090
508.00,0.0089
507.00,0.0087
506.00,0.0087
505.00,0.0091
504.00,0.0095
503.00,0.0098
502.00,0.0096
501.00,0.0089
500.00,0.0080
499.00,0.0076
498.00,0.0078
497.00,0.0085
496.00,0.0091
495.00,0.0094
494.00,0.0093
493.00,0.0090
492.00,0.0087
491.00,0.0084
490.00,0.0081
489.00,0.0079
488.00,0.0078
487.00,0.0077
486.00,0.0075
485.00,0.0074
484.00,0.0078
483.00,0.0086
482.00,0.0094
481.00,0.0097
480.00,0.0095
479.00,0.0093
478.00,0.0094
477.00,0.0099
476.00,0.0105
475.00,0.0110
474.00,0.0115
473.00,0.0123
472.00,0.0135
471.00,0.0147
470.00,0.0155
469.00,0.0155
468.00,0.0152
467.00,0.0148
466.00,0.0148
465.00,0.0151
464.00,0.0155
463.00,0.0157
462.00,0.0159
461.00,0.0164
460.00,0.0178
459.00,0.0200
458.00,0.0222
457.00,0.0233
456.00,0.0235
455.00,0.0233
454.00,0.0228
453.00,0.0217
452.00,0.0198
451.00,0.0180
450.00,0.0170
