Created as New Dataset,Sample 036 By Administrator Date Friday, September 05 2025
cm-1,A
4000.00,0.0009
3999.00,0.0009
3998.00,0.0009
3997.00,0.0009
3996.00,0.0009
3995.00,0.0009
3994.00,0.0009
3993.00,0.0009
3992.00,0.0009
3991.00,0.0009
3990.00,0.0009
3989.00,0.0009
3988.00,0.0009
3987.00,0.0009
3986.00,0.0009
3985.00,0.0009
3984.00,0.0008
3983.00,0.0008
3982.00,0.0008
3981.00,0.0008
3980.00,0.0008
3979.00,0.0008
3978.00,0.0008
3977.00,0.0008
3976.00,0.0008
3975.00,0.0007
3974.00,0.0007
3973.00,0.0007
3972.00,0.0007
3971.00,0.0007
3970.00,0.0007
3969.00,0.0007
3968.00,0.0007
3967.00,0.0007
3966.00,0.0007
3965.00,0.0007
3964.00,0.0007
3963.00,0.0007
3962.00,0.0007
3961.00,0.0007
3960.00,0.0007
3959.00,0.0007
3958.00,0.0007
3957.00,0.0006
3956.00,0.0006
3955.00,0.0006
3954.00,0.0006
3953.00,0.0007
3952.00,0.0007
3951.00,0.0007
3950.00,0.0007
3949.00,0.0007
3948.00,0.0007
3947.00,0.0007
3946.00,0.0007
3945.00,0.0007
3944.00,0.0007
3943.00,0.0007
3942.00,0.0007
3941.00,0.0007
3940.00,0.0007
3939.00,0.0007
3938.00,0.0007
3937.00,0.0007
3936.00,0.0008
3935.00,0.0008
3934.00,0.0008
3933.00,0.0008
3932.00,0.0008
3931.00,0.0008
3930.00,0.0008
3929.00,0.0007
3928.00,0.0007
3927.00,0.0007
3926.00,0.0007
3925.00,0.0007
3924.00,0.0007
3923.00,0.0008
3922.00,0.0008
3921.00,0.0009
3920.00,0.0009
3919.00,0.0008
3918.00,0.0008
3917.00,0.0008
3916.00,0.0008
3915.00,0.0008
3914.00,0.0008
3913.00,0.0008
3912.00,0.0008
3911.00,0.0008
3910.00,0.0008
3909.00,0.0008
3908.00,0.0008
3907.00,0.0008
3906.00,0.0008
3905.00,0.0008
3904.00,0.0007
3903.00,0.0007
3902.00,0.0007
3901.00,0.0007
3900.00,0.0007
3899.00,0.0007
3898.00,0.0007
3897.00,0.0007
3896.00,0.0007
3895.00,0.0007
3894.00,0.0007
3893.00,0.0007
3892.00,0.0007
3891.00,0.0007
3890.00,0.0007
3889.00,0.0007
3888.00,0.0007
3887.00,0.0007
3886.00,0.0007
3885.00,0.0007
3884.00,0.0007
3883.00,0.0006
3882.00,0.0006
3881.00,0.0007
3880.00,0.0007
3879.00,0.0007
3878.00,0.0007
3877.00,0.0007
3876.00,0.0007
3875.00,0.0007
3874.00,0.0007
3873.00,0.0006
3872.00,0.0006
3871.00,0.0007
3870.00,0.0007
3869.00,0.0007
3868.00,0.0007
3867.00,0.0007
3866.00,0.0007
3865.00,0.0007
3864.00,0.0007
3863.00,0.0007
3862.00,0.0007
3861.00,0.0006
3860.00,0.0006
3859.00,0.0006
3858.00,0.0005
3857.00,0.0005
3856.00,0.0005
3855.00,0.0005
3854.00,0.0005
3853.00,0.0005
3852.00,0.0006
3851.00,0.0006
3850.00,0.0006
3849.00,0.0007
3848.00,0.0007
3847.00,0.0007
3846.00,0.0007
3845.00,0.0007
3844.00,0.0007
3843.00,0.0007
3842.00,0.0006
3841.00,0.0006
3840.00,0.0006
3839.00,0.0005
3838.00,0.0005
3837.00,0.0005
3836.00,0.0005
3835.00,0.0005
3834.00,0.0006
3833.00,0.0006
3832.00,0.0006
3831.00,0.0006
3830.00,0.0007
3829.00,0.0007
3828.00,0.0007
3827.00,0.0007
3826.00,0.0007
3825.00,0.0007
3824.00,0.0006
3823.00,0.0006
3822.00,0.0006
3821.00,0.0006
3820.00,0.0006
3819.00,0.0006
3818.00,0.0006
3817.00,0.0006
3816.00,0.0006
3815.00,0.0006
3814.00,0.0007
3813.00,0.0007
3812.00,0.0007
3811.00,0.0007
3810.00,0.0007
3809.00,0.0007
3808.00,0.0007
3807.00,0.0007
3806.00,0.0007
3805.00,0.0006
3804.00,0.0006
3803.00,0.0006
3802.00,0.0006
3801.00,0.0005
3800.00,0.0005
3799.00,0.0006
3798.00,0.0006
3797.00,0.0006
3796.00,0.0007
3795.00,0.0007
3794.00,0.0007
3793.00,0.0007
3792.00,0.0008
3791.00,0.0008
3790.00,0.0007
3789.00,0.0007
3788.00,0.0007
3787.00,0.0007
3786.00,0.0007
3785.00,0.0007
3784.00,0.0007
3783.00,0.0007
3782.00,0.0007
3781.00,0.0007
3780.00,0.0007
3779.00,0.0007
3778.00,0.0007
3777.00,0.0007
3776.00,0.0007
3775.00,0.0007
3774.00,0.0007
3773.00,0.0007
3772.00,0.0007
3771.00,0.0006
3770.00,0.0006
3769.00,0.0006
3768.00,0.0006
3767.00,0.0006
3766.00,0.0007
3765.00,0.0007
3764.00,0.0007
3763.00,0.0007
3762.00,0.0007
3761.00,0.0007
3760.00,0.0006
3759.00,0.0006
3758.00,0.0006
3757.00,0.0006
3756.00,0.0006
3755.00,0.0006
3754.00,0.0006
3753.00,0.0005
3752.00,0.0005
3751.00,0.0005
3750.00,0.0005
3749.00,0.0005
3748.00,0.0005
3747.00,0.0004
3746.00,0.0005
3745.00,0.0005
3744.00,0.0005
3743.00,0.0006
3742.00,0.0006
3741.00,0.0006
3740.00,0.0007
3739.00,0.0007
3738.00,0.0006
3737.00,0.0005
3736.00,0.0005
3735.00,0.0005
3734.00,0.0005
3733.00,0.0005
3732.00,0.0005
3731.00,0.0005
3730.00,0.0005
3729.00,0.0005
3728.00,0.0006
3727.00,0.0006
3726.00,0.0006
3725.00,0.0006
3724.00,0.0006
3723.00,0.0006
3722.00,0.0006
3721.00,0.0005
3720.00,0.0005
3719.00,0.0005
3718.00,0.0005
3717.00,0.0005
3716.00,0.0005
3715.00,0.0005
3714.00,0.0005
3713.00,0.0005
3712.00,0.0005
3711.00,0.0005
3710.00,0.0005
3709.00,0.0005
3708.00,0.0005
3707.00,0.0005
3706.00,0.0006
3705.00,0.0006
3704.00,0.0007
3703.00,0.0007
3702.00,0.0008
3701.00,0.0008
3700.00,0.0007
3699.00,0.0007
3698.00,0.0007
3697.00,0.0007
3696.00,0.0007
3695.00,0.0007
3694.00,0.0007
3693.00,0.0006
3692.00,0.0006
3691.00,0.0005
3690.00,0.0005
3689.00,0.0006
3688.00,0.0006
3687.00,0.0007
3686.00,0.0007
3685.00,0.0007
3684.00,0.0007
3683.00,0.0007
3682.00,0.0007
3681.00,0.0006
3680.00,0.0006
3679.00,0.0007
3678.00,0.0007
3677.00,0.0007
3676.00,0.0007
3675.00,0.0006
3674.00,0.0005
3673.00,0.0004
3672.00,0.0004
3671.00,0.0005
3670.00,0.0006
3669.00,0.0006
3668.00,0.0006
3667.00,0.0006
3666.00,0.0006
3665.00,0.0006
3664.00,0.0006
3663.00,0.0006
3662.00,0.0006
3661.00,0.0005
3660.00,0.0005
3659.00,0.0005
3658.00,0.0005
3657.00,0.0005
3656.00,0.0005
3655.00,0.0005
3654.00,0.0005
3653.00,0.0006
3652.00,0.0006
3651.00,0.0006
3650.00,0.0006
3649.00,0.0006
3648.00,0.0006
3647.00,0.0007
3646.00,0.0007
3645.00,0.0007
3644.00,0.0007
3643.00,0.0008
3642.00,0.0008
3641.00,0.0008
3640.00,0.0008
3639.00,0.0008
3638.00,0.0008
3637.00,0.0009
3636.00,0.0009
3635.00,0.0008
3634.00,0.0008
3633.00,0.0008
3632.00,0.0008
3631.00,0.0008
3630.00,0.0009
3629.00,0.0009
3628.00,0.0010
3627.00,0.0010
3626.00,0.0010
3625.00,0.0010
3624.00,0.0010
3623.00,0.0010
3622.00,0.0011
3621.00,0.0011
3620.00,0.0011
3619.00,0.0011
3618.00,0.0011
3617.00,0.0011
3616.00,0.0012
3615.00,0.0012
3614.00,0.0013
3613.00,0.0013
3612.00,0.0014
3611.00,0.0014
3610.00,0.0014
3609.00,0.0014
3608.00,0.0014
3607.00,0.0014
3606.00,0.0014
3605.00,0.0014
3604.00,0.0014
3603.00,0.0015
3602.00,0.0015
3601.00,0.0016
3600.00,0.0016
3599.00,0.0016
3598.00,0.0016
3597.00,0.0016
3596.00,0.0017
3595.00,0.0017
3594.00,0.0018
3593.00,0.0018
3592.00,0.0019
3591.00,0.0018
3590.00,0.0018
3589.00,0.0018
3588.00,0.0018
3587.00,0.0018
3586.00,0.0019
3585.00,0.0019
3584.00,0.0020
3583.00,0.0020
3582.00,0.0020
3581.00,0.0019
3580.00,0.0019
3579.00,0.0019
3578.00,0.0019
3577.00,0.0019
3576.00,0.0020
3575.00,0.0020
3574.00,0.0021
3573.00,0.0021
3572.00,0.0022
3571.00,0.0022
3570.00,0.0023
3569.00,0.0023
3568.00,0.0024
3567.00,0.0024
3566.00,0.0024
3565.00,0.0025
3564.00,0.0025
3563.00,0.0025
3562.00,0.0025
3561.00,0.0026
3560.00,0.0026
3559.00,0.0026
3558.00,0.0027
3557.00,0.0027
3556.00,0.0027
3555.00,0.0027
3554.00,0.0027
3553.00,0.0027
3552.00,0.0027
3551.00,0.0028
3550.00,0.0029
3549.00,0.0030
3548.00,0.0030
3547.00,0.0031
3546.00,0.0031
3545.00,0.0031
3544.00,0.0031
3543.00,0.0031
3542.00,0.0032
3541.00,0.0032
3540.00,0.0033
3539.00,0.0033
3538.00,0.0034
3537.00,0.0034
3536.00,0.0034
3535.00,0.0034
3534.00,0.0034
3533.00,0.0035
3532.00,0.0035
3531.00,0.0036
3530.00,0.0036
3529.00,0.0036
3528.00,0.0036
3527.00,0.0037
3526.00,0.0037
3525.00,0.0037
3524.00,0.0037
3523.00,0.0038
3522.00,0.0038
3521.00,0.0038
3520.00,0.0039
3519.00,0.0039
3518.00,0.0039
3517.00,0.0040
3516.00,0.0040
3515.00,0.0040
3514.00,0.0041
3513.00,0.0041
3512.00,0.0041
3511.00,0.0042
3510.00,0.0042
3509.00,0.0043
3508.00,0.0043
3507.00,0.0043
3506.00,0.0043
3505.00,0.0044
3504.00,0.0044
3503.00,0.0044
3502.00,0.0044
3501.00,0.0044
3500.00,0.0044
3499.00,0.0045
3498.00,0.0046
3497.00,0.0047
3496.00,0.0047
3495.00,0.0047
3494.00,0.0047
3493.00,0.0048
3492.00,0.0048
3491.00,0.0048
3490.00,0.0048
3489.00,0.0049
3488.00,0.0049
3487.00,0.0050
3486.00,0.0050
3485.00,0.0050
3484.00,0.0050
3483.00,0.0050
3482.00,0.0051
3481.00,0.0051
3480.00,0.0052
3479.00,0.0052
3478.00,0.0052
3477.00,0.0053
3476.00,0.0053
3475.00,0.0053
3474.00,0.0054
3473.00,0.0054
3472.00,0.0055
3471.00,0.0055
3470.00,0.0056
3469.00,0.0055
3468.00,0.0055
3467.00,0.0055
3466.00,0.0055
3465.00,0.0055
3464.00,0.0055
3463.00,0.0055
3462.00,0.0055
3461.00,0.0056
3460.00,0.0056
3459.00,0.0057
3458.00,0.0057
3457.00,0.0058
3456.00,0.0058
3455.00,0.0058
3454.00,0.0059
3453.00,0.0059
3452.00,0.0058
3451.00,0.0059
3450.00,0.0059
3449.00,0.0059
3448.00,0.0060
3447.00,0.0060
3446.00,0.0061
3445.00,0.0061
3444.00,0.0061
3443.00,0.0061
3442.00,0.0062
3441.00,0.0062
3440.00,0.0062
3439.00,0.0062
3438.00,0.0062
3437.00,0.0062
3436.00,0.0063
3435.00,0.0063
3434.00,0.0063
3433.00,0.0064
3432.00,0.0064
3431.00,0.0065
3430.00,0.0065
3429.00,0.0065
3428.00,0.0066
3427.00,0.0066
3426.00,0.0066
3425.00,0.0066
3424.00,0.0066
3423.00,0.0066
3422.00,0.0067
3421.00,0.0067
3420.00,0.0067
3419.00,0.0067
3418.00,0.0067
3417.00,0.0067
3416.00,0.0067
3415.00,0.0067
3414.00,0.0067
3413.00,0.0068
3412.00,0.0068
3411.00,0.0068
3410.00,0.0068
3409.00,0.0069
3408.00,0.0069
3407.00,0.0069
3406.00,0.0069
3405.00,0.0069
3404.00,0.0069
3403.00,0.0069
3402.00,0.0069
3401.00,0.0069
3400.00,0.0070
3399.00,0.0070
3398.00,0.0070
3397.00,0.0070
3396.00,0.0070
3395.00,0.0070
3394.00,0.0070
3393.00,0.0070
3392.00,0.0070
3391.00,0.0070
3390.00,0.0069
3389.00,0.0069
3388.00,0.0069
3387.00,0.0069
3386.00,0.0070
3385.00,0.0070
3384.00,0.0071
3383.00,0.0071
3382.00,0.0071
3381.00,0.0072
3380.00,0.0072
3379.00,0.0072
3378.00,0.0072
3377.00,0.0072
3376.00,0.0071
3375.00,0.0071
3374.00,0.0071
3373.00,0.0071
3372.00,0.0071
3371.00,0.0071
3370.00,0.0071
3369.00,0.0071
3368.00,0.0071
3367.00,0.0071
3366.00,0.0071
3365.00,0.0071
3364.00,0.0071
3363.00,0.0072
3362.00,0.0071
3361.00,0.0071
3360.00,0.0071
3359.00,0.0071
3358.00,0.0071
3357.00,0.0071
3356.00,0.0071
3355.00,0.0071
3354.00,0.0071
3353.00,0.0071
3352.00,0.0071
3351.00,0.0071
3350.00,0.0071
3349.00,0.0071
3348.00,0.0071
3347.00,0.0071
3346.00,0.0071
3345.00,0.0070
3344.00,0.0070
3343.00,0.0070
3342.00,0.0070
3341.00,0.0070
3340.00,0.0070
3339.00,0.0070
3338.00,0.0071
3337.00,0.0071
3336.00,0.0071
3335.00,0.0070
3334.00,0.0070
3333.00,0.0070
3332.00,0.0069
3331.00,0.0069
3330.00,0.0068
3329.00,0.0068
3328.00,0.0067
3327.00,0.0067
3326.00,0.0067
3325.00,0.0067
3324.00,0.0068
3323.00,0.0068
3322.00,0.0067
3321.00,0.0067
3320.00,0.0067
3319.00,0.0067
3318.00,0.0067
3317.00,0.0067
3316.00,0.0067
3315.00,0.0067
3314.00,0.0067
3313.00,0.0067
3312.00,0.0067
3311.00,0.0067
3310.00,0.0068
3309.00,0.0068
3308.00,0.0067
3307.00,0.0067
3306.00,0.0067
3305.00,0.0067
3304.00,0.0068
3303.00,0.0068
3302.00,0.0068
3301.00,0.0068
3300.00,0.0068
3299.00,0.0067
3298.00,0.0067
3297.00,0.0066
3296.00,0.0066
3295.00,0.0065
3294.00,0.0065
3293.00,0.0065
3292.00,0.0064
3291.00,0.0064
3290.00,0.0064
3289.00,0.0064
3288.00,0.0064
3287.00,0.0063
3286.00,0.0063
3285.00,0.0063
3284.00,0.0063
3283.00,0.0062
3282.00,0.0062
3281.00,0.0062
3280.00,0.0062
3279.00,0.0061
3278.00,0.0061
3277.00,0.0061
3276.00,0.0060
3275.00,0.0060
3274.00,0.0060
3273.00,0.0060
3272.00,0.0060
3271.00,0.0060
3270.00,0.0060
3269.00,0.0060
3268.00,0.0059
3267.00,0.0059
3266.00,0.0059
3265.00,0.0058
3264.00,0.0058
3263.00,0.0057
3262.00,0.0057
3261.00,0.0057
3260.00,0.0056
3259.00,0.0056
3258.00,0.0056
3257.00,0.0056
3256.00,0.0056
3255.00,0.0056
3254.00,0.0055
3253.00,0.0054
3252.00,0.0054
3251.00,0.0054
3250.00,0.0053
3249.00,0.0053
3248.00,0.0053
3247.00,0.0053
3246.00,0.0053
3245.00,0.0052
3244.00,0.0052
3243.00,0.0052
3242.00,0.0052
3241.00,0.0052
3240.00,0.0052
3239.00,0.0052
3238.00,0.0052
3237.00,0.0052
3236.00,0.0052
3235.00,0.0052
3234.00,0.0052
3233.00,0.0052
3232.00,0.0052
3231.00,0.0051
3230.00,0.0051
3229.00,0.0052
3228.00,0.0052
3227.00,0.0052
3226.00,0.0052
3225.00,0.0052
3224.00,0.0051
3223.00,0.0051
3222.00,0.0051
3221.00,0.0051
3220.00,0.0051
3219.00,0.0052
3218.00,0.0052
3217.00,0.0052
3216.00,0.0053
3215.00,0.0053
3214.00,0.0054
3213.00,0.0054
3212.00,0.0054
3211.00,0.0053
3210.00,0.0053
3209.00,0.0053
3208.00,0.0052
3207.00,0.0052
3206.00,0.0052
3205.00,0.0052
3204.00,0.0052
3203.00,0.0052
3202.00,0.0052
3201.00,0.0052
3200.00,0.0052
3199.00,0.0052
3198.00,0.0052
3197.00,0.0052
3196.00,0.0051
3195.00,0.0051
3194.00,0.0051
3193.00,0.0051
3192.00,0.0051
3191.00,0.0051
3190.00,0.0050
3189.00,0.0050
3188.00,0.0050
3187.00,0.0050
3186.00,0.0050
3185.00,0.0050
3184.00,0.0050
3183.00,0.0050
3182.00,0.0050
3181.00,0.0050
3180.00,0.0049
3179.00,0.0049
3178.00,0.0048
3177.00,0.0048
3176.00,0.0047
3175.00,0.0047
3174.00,0.0047
3173.00,0.0047
3172.00,0.0047
3171.00,0.0047
3170.00,0.0047
3169.00,0.0047
3168.00,0.0046
3167.00,0.0045
3166.00,0.0045
3165.00,0.0044
3164.00,0.0044
3163.00,0.0044
3162.00,0.0044
3161.00,0.0044
3160.00,0.0044
3159.00,0.0044
3158.00,0.0044
3157.00,0.0044
3156.00,0.0044
3155.00,0.0043
3154.00,0.0043
3153.00,0.0043
3152.00,0.0043
3151.00,0.0044
3150.00,0.0044
3149.00,0.0044
3148.00,0.0044
3147.00,0.0044
3146.00,0.0043
3145.00,0.0043
3144.00,0.0042
3143.00,0.0042
3142.00,0.0042
3141.00,0.0042
3140.00,0.0043
3139.00,0.0043
3138.00,0.0043
3137.00,0.0042
3136.00,0.0042
3135.00,0.0041
3134.00,0.0041
3133.00,0.0040
3132.00,0.0040
3131.00,0.0040
3130.00,0.0039
3129.00,0.0039
3128.00,0.0040
3127.00,0.0040
3126.00,0.0040
3125.00,0.0039
3124.00,0.0039
3123.00,0.0038
3122.00,0.0037
3121.00,0.0037
3120.00,0.0036
3119.00,0.0036
3118.00,0.0036
3117.00,0.0036
3116.00,0.0036
3115.00,0.0036
3114.00,0.0036
3113.00,0.0036
3112.00,0.0036
3111.00,0.0036
3110.00,0.0035
3109.00,0.0035
3108.00,0.0035
3107.00,0.0035
3106.00,0.0035
3105.00,0.0035
3104.00,0.0035
3103.00,0.0034
3102.00,0.0034
3101.00,0.0034
3100.00,0.0034
3099.00,0.0034
3098.00,0.0034
3097.00,0.0034
3096.00,0.0034
3095.00,0.0033
3094.00,0.0033
3093.00,0.0033
3092.00,0.0033
3091.00,0.0033
3090.00,0.0033
3089.00,0.0033
3088.00,0.0033
3087.00,0.0033
3086.00,0.0033
3085.00,0.0032
3084.00,0.0032
3083.00,0.0032
3082.00,0.0032
3081.00,0.0032
3080.00,0.0032
3079.00,0.0032
3078.00,0.0033
3077.00,0.0033
3076.00,0.0033
3075.00,0.0033
3074.00,0.0033
3073.00,0.0034
3072.00,0.0034
3071.00,0.0034
3070.00,0.0035
3069.00,0.0035
3068.00,0.0035
3067.00,0.0034
3066.00,0.0035
3065.00,0.0035
3064.00,0.0035
3063.00,0.0035
3062.00,0.0035
3061.00,0.0035
3060.00,0.0035
3059.00,0.0035
3058.00,0.0035
3057.00,0.0035
3056.00,0.0035
3055.00,0.0036
3054.00,0.0036
3053.00,0.0036
3052.00,0.0036
3051.00,0.0037
3050.00,0.0037
3049.00,0.0037
3048.00,0.0038
3047.00,0.0038
3046.00,0.0038
3045.00,0.0038
3044.00,0.0038
3043.00,0.0038
3042.00,0.0038
3041.00,0.0038
3040.00,0.0039
3039.00,0.0040
3038.00,0.0040
3037.00,0.0041
3036.00,0.0041
3035.00,0.0042
3034.00,0.0042
3033.00,0.0043
3032.00,0.0043
3031.00,0.0043
3030.00,0.0044
3029.00,0.0044
3028.00,0.0044
3027.00,0.0044
3026.00,0.0045
3025.00,0.0045
3024.00,0.0046
3023.00,0.0046
3022.00,0.0047
3021.00,0.0047
3020.00,0.0048
3019.00,0.0048
3018.00,0.0049
3017.00,0.0050
3016.00,0.0050
3015.00,0.0051
3014.00,0.0051
3013.00,0.0052
3012.00,0.0053
3011.00,0.0054
3010.00,0.0055
3009.00,0.0056
3008.00,0.0057
3007.00,0.0059
3006.00,0.0060
3005.00,0.0061
3004.00,0.0062
3003.00,0.0064
3002.00,0.0066
3001.00,0.0068
3000.00,0.0070
2999.00,0.0072
2998.00,0.0075
2997.00,0.0078
2996.00,0.0081
2995.00,0.0085
2994.00,0.0088
2993.00,0.0093
2992.00,0.0097
2991.00,0.0102
2990.00,0.0108
2989.00,0.0114
2988.00,0.0121
2987.00,0.0129
2986.00,0.0138
2985.00,0.0147
2984.00,0.0157
2983.00,0.0168
2982.00,0.0181
2981.00,0.0197
2980.00,0.0215
2979.00,0.0236
2978.00,0.0260
2977.00,0.0287
2976.00,0.0318
2975.00,0.0353
2974.00,0.0393
2973.00,0.0439
2972.00,0.0490
2971.00,0.0548
2970.00,0.0612
2969.00,0.0682
2968.00,0.0757
2967.00,0.0837
2966.00,0.0921
2965.00,0.1005
2964.00,0.1086
2963.00,0.1161
2962.00,0.1226
2961.00,0.1279
2960.00,0.1321
2959.00,0.1358
2958.00,0.1394
2957.00,0.1435
2956.00,0.1486
2955.00,0.1549
2954.00,0.1622
2953.00,0.1697
2952.00,0.1765
2951.00,0.1813
2950.00,0.1831
2949.00,0.1810
2948.00,0.1750
2947.00,0.1657
2946.00,0.1543
2945.00,0.1423
2944.00,0.1309
2943.00,0.1211
2942.00,0.1135
2941.00,0.1083
2940.00,0.1055
2939.00,0.1048
2938.00,0.1061
2937.00,0.1091
2936.00,0.1137
2935.00,0.1197
2934.00,0.1271
2933.00,0.1356
2932.00,0.1453
2931.00,0.1558
2930.00,0.1671
2929.00,0.1787
2928.00,0.1904
2927.00,0.2018
2926.00,0.2130
2925.00,0.2238
2924.00,0.2344
2923.00,0.2448
2922.00,0.2551
2921.00,0.2649
2920.00,0.2736
2919.00,0.2801
2918.00,0.2832
2917.00,0.2822
2916.00,0.2769
2915.00,0.2681
2914.00,0.2569
2913.00,0.2449
2912.00,0.2331
2911.00,0.2222
2910.00,0.2125
2909.00,0.2040
2908.00,0.1963
2907.00,0.1892
2906.00,0.1822
2905.00,0.1753
2904.00,0.1685
2903.00,0.1616
2902.00,0.1550
2901.00,0.1485
2900.00,0.1422
2899.00,0.1362
2898.00,0.1306
2897.00,0.1255
2896.00,0.1209
2895.00,0.1169
2894.00,0.1135
2893.00,0.1107
2892.00,0.1085
2891.00,0.1068
2890.00,0.1055
2889.00,0.1048
2888.00,0.1043
2887.00,0.1043
2886.00,0.1045
2885.00,0.1051
2884.00,0.1061
2883.00,0.1077
2882.00,0.1096
2881.00,0.1119
2880.00,0.1141
2879.00,0.1161
2878.00,0.1173
2877.00,0.1178
2876.00,0.1175
2875.00,0.1169
2874.00,0.1165
2873.00,0.1166
2872.00,0.1173
2871.00,0.1188
2870.00,0.1207
2869.00,0.1226
2868.00,0.1237
2867.00,0.1235
2866.00,0.1212
2865.00,0.1168
2864.00,0.1106
2863.00,0.1035
2862.00,0.0965
2861.00,0.0904
2860.00,0.0856
2859.00,0.0824
2858.00,0.0806
2857.00,0.0800
2856.00,0.0804
2855.00,0.0815
2854.00,0.0832
2853.00,0.0851
2852.00,0.0871
2851.00,0.0887
2850.00,0.0899
2849.00,0.0906
2848.00,0.0911
2847.00,0.0918
2846.00,0.0933
2845.00,0.0958
2844.00,0.0993
2843.00,0.1037
2842.00,0.1084
2841.00,0.1129
2840.00,0.1163
2839.00,0.1179
2838.00,0.1171
2837.00,0.1135
2836.00,0.1071
2835.00,0.0986
2834.00,0.0887
2833.00,0.0785
2832.00,0.0688
2831.00,0.0602
2830.00,0.0530
2829.00,0.0470
2828.00,0.0422
2827.00,0.0382
2826.00,0.0350
2825.00,0.0323
2824.00,0.0301
2823.00,0.0282
2822.00,0.0266
2821.00,0.0252
2820.00,0.0239
2819.00,0.0229
2818.00,0.0219
2817.00,0.0211
2816.00,0.0204
2815.00,0.0198
2814.00,0.0192
2813.00,0.0187
2812.00,0.0181
2811.00,0.0176
2810.00,0.0170
2809.00,0.0165
2808.00,0.0159
2807.00,0.0152
2806.00,0.0146
2805.00,0.0140
2804.00,0.0133
2803.00,0.0128
2802.00,0.0123
2801.00,0.0119
2800.00,0.0115
2799.00,0.0112
2798.00,0.0109
2797.00,0.0107
2796.00,0.0105
2795.00,0.0102
2794.00,0.0100
2793.00,0.0097
2792.00,0.0094
2791.00,0.0091
2790.00,0.0088
2789.00,0.0085
2788.00,0.0083
2787.00,0.0080
2786.00,0.0078
2785.00,0.0075
2784.00,0.0073
2783.00,0.0071
2782.00,0.0069
2781.00,0.0067
2780.00,0.0065
2779.00,0.0064
2778.00,0.0062
2777.00,0.0061
2776.00,0.0059
2775.00,0.0058
2774.00,0.0058
2773.00,0.0057
2772.00,0.0057
2771.00,0.0056
2770.00,0.0056
2769.00,0.0055
2768.00,0.0055
2767.00,0.0055
2766.00,0.0055
2765.00,0.0054
2764.00,0.0054
2763.00,0.0053
2762.00,0.0053
2761.00,0.0052
2760.00,0.0052
2759.00,0.0051
2758.00,0.0051
2757.00,0.0051
2756.00,0.0051
2755.00,0.0051
2754.00,0.0051
2753.00,0.0051
2752.00,0.0050
2751.00,0.0050
2750.00,0.0050
2749.00,0.0050
2748.00,0.0050
2747.00,0.0050
2746.00,0.0051
2745.00,0.0052
2744.00,0.0052
2743.00,0.0053
2742.00,0.0054
2741.00,0.0055
2740.00,0.0056
2739.00,0.0057
2738.00,0.0058
2737.00,0.0059
2736.00,0.0060
2735.00,0.0061
2734.00,0.0063
2733.00,0.0065
2732.00,0.0067
2731.00,0.0068
2730.00,0.0070
2729.00,0.0072
2728.00,0.0075
2727.00,0.0078
2726.00,0.0081
2725.00,0.0083
2724.00,0.0085
2723.00,0.0085
2722.00,0.0085
2721.00,0.0083
2720.00,0.0080
2719.00,0.0077
2718.00,0.0074
2717.00,0.0071
2716.00,0.0068
2715.00,0.0065
2714.00,0.0062
2713.00,0.0060
2712.00,0.0058
2711.00,0.0056
2710.00,0.0055
2709.00,0.0054
2708.00,0.0052
2707.00,0.0051
2706.00,0.0050
2705.00,0.0049
2704.00,0.0048
2703.00,0.0048
2702.00,0.0047
2701.00,0.0046
2700.00,0.0045
2699.00,0.0044
2698.00,0.0044
2697.00,0.0043
2696.00,0.0043
2695.00,0.0043
2694.00,0.0043
2693.00,0.0043
2692.00,0.0043
2691.00,0.0043
2690.00,0.0044
2689.00,0.0044
2688.00,0.0044
2687.00,0.0044
2686.00,0.0044
2685.00,0.0044
2684.00,0.0044
2683.00,0.0044
2682.00,0.0044
2681.00,0.0044
2680.00,0.0044
2679.00,0.0044
2678.00,0.0044
2677.00,0.0044
2676.00,0.0044
2675.00,0.0044
2674.00,0.0044
2673.00,0.0044
2672.00,0.0044
2671.00,0.0044
2670.00,0.0043
2669.00,0.0043
2668.00,0.0044
2667.00,0.0044
2666.00,0.0044
2665.00,0.0045
2664.00,0.0045
2663.00,0.0045
2662.00,0.0046
2661.00,0.0046
2660.00,0.0046
2659.00,0.0047
2658.00,0.0047
2657.00,0.0047
2656.00,0.0046
2655.00,0.0046
2654.00,0.0045
2653.00,0.0044
2652.00,0.0044
2651.00,0.0043
2650.00,0.0043
2649.00,0.0043
2648.00,0.0042
2647.00,0.0042
2646.00,0.0041
2645.00,0.0041
2644.00,0.0040
2643.00,0.0040
2642.00,0.0039
2641.00,0.0039
2640.00,0.0038
2639.00,0.0038
2638.00,0.0037
2637.00,0.0037
2636.00,0.0037
2635.00,0.0037
2634.00,0.0037
2633.00,0.0037
2632.00,0.0037
2631.00,0.0037
2630.00,0.0038
2629.00,0.0038
2628.00,0.0038
2627.00,0.0038
2626.00,0.0038
2625.00,0.0038
2624.00,0.0038
2623.00,0.0039
2622.00,0.0039
2621.00,0.0039
2620.00,0.0039
2619.00,0.0039
2618.00,0.0039
2617.00,0.0039
2616.00,0.0039
2615.00,0.0039
2614.00,0.0038
2613.00,0.0038
2612.00,0.0037
2611.00,0.0036
2610.00,0.0036
2609.00,0.0035
2608.00,0.0035
2607.00,0.0034
2606.00,0.0034
2605.00,0.0033
2604.00,0.0032
2603.00,0.0032
2602.00,0.0032
2601.00,0.0031
2600.00,0.0031
2599.00,0.0030
2598.00,0.0030
2597.00,0.0030
2596.00,0.0030
2595.00,0.0031
2594.00,0.0031
2593.00,0.0032
2592.00,0.0032
2591.00,0.0032
2590.00,0.0033
2589.00,0.0033
2588.00,0.0034
2587.00,0.0035
2586.00,0.0036
2585.00,0.0037
2584.00,0.0038
2583.00,0.0038
2582.00,0.0038
2581.00,0.0037
2580.00,0.0036
2579.00,0.0035
2578.00,0.0035
2577.00,0.0034
2576.00,0.0033
2575.00,0.0032
2574.00,0.0032
2573.00,0.0031
2572.00,0.0030
2571.00,0.0029
2570.00,0.0028
2569.00,0.0027
2568.00,0.0026
2567.00,0.0025
2566.00,0.0025
2565.00,0.0024
2564.00,0.0024
2563.00,0.0023
2562.00,0.0022
2561.00,0.0022
2560.00,0.0022
2559.00,0.0022
2558.00,0.0022
2557.00,0.0022
2556.00,0.0021
2555.00,0.0021
2554.00,0.0020
2553.00,0.0020
2552.00,0.0019
2551.00,0.0019
2550.00,0.0018
2549.00,0.0018
2548.00,0.0018
2547.00,0.0017
2546.00,0.0017
2545.00,0.0017
2544.00,0.0017
2543.00,0.0017
2542.00,0.0017
2541.00,0.0017
2540.00,0.0017
2539.00,0.0017
2538.00,0.0017
2537.00,0.0017
2536.00,0.0016
2535.00,0.0016
2534.00,0.0015
2533.00,0.0015
2532.00,0.0015
2531.00,0.0015
2530.00,0.0015
2529.00,0.0015
2528.00,0.0015
2527.00,0.0015
2526.00,0.0015
2525.00,0.0014
2524.00,0.0014
2523.00,0.0014
2522.00,0.0013
2521.00,0.0013
2520.00,0.0013
2519.00,0.0013
2518.00,0.0012
2517.00,0.0012
2516.00,0.0011
2515.00,0.0010
2514.00,0.0010
2513.00,0.0010
2512.00,0.0011
2511.00,0.0012
2510.00,0.0012
2509.00,0.0012
2508.00,0.0012
2507.00,0.0012
2506.00,0.0012
2505.00,0.0012
2504.00,0.0012
2503.00,0.0011
2502.00,0.0011
2501.00,0.0011
2500.00,0.0011
2499.00,0.0011
2498.00,0.0010
2497.00,0.0010
2496.00,0.0009
2495.00,0.0009
2494.00,0.0010
2493.00,0.0010
2492.00,0.0010
2491.00,0.0010
2490.00,0.0010
2489.00,0.0010
2488.00,0.0011
2487.00,0.0011
2486.00,0.0011
2485.00,0.0011
2484.00,0.0011
2483.00,0.0010
2482.00,0.0009
2481.00,0.0009
2480.00,0.0009
2479.00,0.0009
2478.00,0.0009
2477.00,0.0008
2476.00,0.0008
2475.00,0.0008
2474.00,0.0008
2473.00,0.0008
2472.00,0.0008
2471.00,0.0008
2470.00,0.0008
2469.00,0.0008
2468.00,0.0009
2467.00,0.0009
2466.00,0.0009
2465.00,0.0009
2464.00,0.0009
2463.00,0.0009
2462.00,0.0009
2461.00,0.0010
2460.00,0.0010
2459.00,0.0011
2458.00,0.0011
2457.00,0.0011
2456.00,0.0010
2455.00,0.0010
2454.00,0.0011
2453.00,0.0011
2452.00,0.0011
2451.00,0.0011
2450.00,0.0011
2449.00,0.0011
2448.00,0.0011
2447.00,0.0010
2446.00,0.0011
2445.00,0.0011
2444.00,0.0011
2443.00,0.0011
2442.00,0.0010
2441.00,0.0010
2440.00,0.0010
2439.00,0.0010
2438.00,0.0011
2437.00,0.0011
2436.00,0.0011
2435.00,0.0011
2434.00,0.0011
2433.00,0.0011
2432.00,0.0011
2431.00,0.0010
2430.00,0.0010
2429.00,0.0009
2428.00,0.0009
2427.00,0.0010
2426.00,0.0010
2425.00,0.0011
2424.00,0.0011
2423.00,0.0011
2422.00,0.0011
2421.00,0.0010
2420.00,0.0010
2419.00,0.0010
2418.00,0.0009
2417.00,0.0009
2416.00,0.0009
2415.00,0.0008
2414.00,0.0008
2413.00,0.0007
2412.00,0.0007
2411.00,0.0007
2410.00,0.0007
2409.00,0.0007
2408.00,0.0007
2407.00,0.0007
2406.00,0.0007
2405.00,0.0007
2404.00,0.0007
2403.00,0.0008
2402.00,0.0008
2401.00,0.0009
2400.00,0.0009
2399.00,0.0009
2398.00,0.0008
2397.00,0.0008
2396.00,0.0007
2395.00,0.0007
2394.00,0.0007
2393.00,0.0008
2392.00,0.0008
2391.00,0.0008
2390.00,0.0007
2389.00,0.0007
2388.00,0.0007
2387.00,0.0006
2386.00,0.0006
2385.00,0.0005
2384.00,0.0005
2383.00,0.0005
2382.00,0.0005
2381.00,0.0004
2380.00,0.0004
2379.00,0.0003
2378.00,0.0002
2377.00,0.0002
2376.00,0.0002
2375.00,0.0003
2374.00,0.0003
2373.00,0.0003
2372.00,0.0003
2371.00,0.0004
2370.00,0.0004
2369.00,0.0004
2368.00,0.0004
2367.00,0.0003
2366.00,0.0003
2365.00,0.0002
2364.00,0.0002
2363.00,0.0002
2362.00,0.0004
2361.00,0.0005
2360.00,0.0006
2359.00,0.0007
2358.00,0.0007
2357.00,0.0007
2356.00,0.0006
2355.00,0.0006
2354.00,0.0005
2353.00,0.0005
2352.00,0.0005
2351.00,0.0005
2350.00,0.0006
2349.00,0.0006
2348.00,0.0006
2347.00,0.0007
2346.00,0.0007
2345.00,0.0007
2344.00,0.0006
2343.00,0.0006
2342.00,0.0007
2341.00,0.0008
2340.00,0.0009
2339.00,0.0009
2338.00,0.0009
2337.00,0.0009
2336.00,0.0008
2335.00,0.0007
2334.00,0.0007
2333.00,0.0006
2332.00,0.0006
2331.00,0.0006
2330.00,0.0006
2329.00,0.0007
2328.00,0.0010
2327.00,0.0013
2326.00,0.0017
2325.00,0.0021
2324.00,0.0022
2323.00,0.0022
2322.00,0.0020
2321.00,0.0018
2320.00,0.0016
2319.00,0.0015
2318.00,0.0014
2317.00,0.0013
2316.00,0.0013
2315.00,0.0013
2314.00,0.0012
2313.00,0.0011
2312.00,0.0009
2311.00,0.0008
2310.00,0.0008
2309.00,0.0008
2308.00,0.0008
2307.00,0.0009
2306.00,0.0010
2305.00,0.0010
2304.00,0.0011
2303.00,0.0011
2302.00,0.0011
2301.00,0.0011
2300.00,0.0011
2299.00,0.0012
2298.00,0.0012
2297.00,0.0012
2296.00,0.0013
2295.00,0.0014
2294.00,0.0015
2293.00,0.0015
2292.00,0.0016
2291.00,0.0015
2290.00,0.0015
2289.00,0.0016
2288.00,0.0018
2287.00,0.0019
2286.00,0.0020
2285.00,0.0019
2284.00,0.0018
2283.00,0.0017
2282.00,0.0016
2281.00,0.0015
2280.00,0.0014
2279.00,0.0014
2278.00,0.0013
2277.00,0.0012
2276.00,0.0012
2275.00,0.0012
2274.00,0.0013
2273.00,0.0013
2272.00,0.0013
2271.00,0.0013
2270.00,0.0013
2269.00,0.0012
2268.00,0.0011
2267.00,0.0010
2266.00,0.0010
2265.00,0.0010
2264.00,0.0010
2263.00,0.0010
2262.00,0.0010
2261.00,0.0012
2260.00,0.0013
2259.00,0.0013
2258.00,0.0013
2257.00,0.0013
2256.00,0.0012
2255.00,0.0011
2254.00,0.0010
2253.00,0.0009
2252.00,0.0009
2251.00,0.0009
2250.00,0.0009
2249.00,0.0009
2248.00,0.0010
2247.00,0.0010
2246.00,0.0010
2245.00,0.0010
2244.00,0.0009
2243.00,0.0009
2242.00,0.0009
2241.00,0.0009
2240.00,0.0009
2239.00,0.0008
2238.00,0.0008
2237.00,0.0009
2236.00,0.0009
2235.00,0.0009
2234.00,0.0008
2233.00,0.0007
2232.00,0.0007
2231.00,0.0009
2230.00,0.0010
2229.00,0.0011
2228.00,0.0011
2227.00,0.0011
2226.00,0.0010
2225.00,0.0010
2224.00,0.0011
2223.00,0.0011
2222.00,0.0012
2221.00,0.0011
2220.00,0.0010
2219.00,0.0009
2218.00,0.0008
2217.00,0.0008
2216.00,0.0008
2215.00,0.0008
2214.00,0.0008
2213.00,0.0009
2212.00,0.0009
2211.00,0.0007
2210.00,0.0006
2209.00,0.0005
2208.00,0.0005
2207.00,0.0004
2206.00,0.0003
2205.00,0.0003
2204.00,0.0003
2203.00,0.0003
2202.00,0.0003
2201.00,0.0003
2200.00,0.0004
2199.00,0.0005
2198.00,0.0007
2197.00,0.0009
2196.00,0.0009
2195.00,0.0009
2194.00,0.0010
2193.00,0.0010
2192.00,0.0010
2191.00,0.0010
2190.00,0.0010
2189.00,0.0011
2188.00,0.0011
2187.00,0.0010
2186.00,0.0009
2185.00,0.0009
2184.00,0.0009
2183.00,0.0009
2182.00,0.0009
2181.00,0.0008
2180.00,0.0008
2179.00,0.0007
2178.00,0.0006
2177.00,0.0003
2176.00,0.0002
2175.00,0.0002
2174.00,0.0003
2173.00,0.0006
2172.00,0.0009
2171.00,0.0012
2170.00,0.0015
2169.00,0.0018
2168.00,0.0020
2167.00,0.0021
2166.00,0.0020
2165.00,0.0019
2164.00,0.0018
2163.00,0.0016
2162.00,0.0013
2161.00,0.0008
2160.00,-0.0002
2159.00,-0.0014
2158.00,-0.0024
2157.00,-0.0029
2156.00,-0.0027
2155.00,-0.0024
2154.00,-0.0021
2153.00,-0.0019
2152.00,-0.0017
2151.00,-0.0014
2150.00,-0.0011
2149.00,-0.0008
2148.00,-0.0007
2147.00,-0.0007
2146.00,-0.0009
2145.00,-0.0011
2144.00,-0.0013
2143.00,-0.0012
2142.00,-0.0012
2141.00,-0.0011
2140.00,-0.0011
2139.00,-0.0011
2138.00,-0.0010
2137.00,-0.0010
2136.00,-0.0010
2135.00,-0.0011
2134.00,-0.0012
2133.00,-0.0011
2132.00,-0.0011
2131.00,-0.0010
2130.00,-0.0009
2129.00,-0.0008
2128.00,-0.0008
2127.00,-0.0007
2126.00,-0.0007
2125.00,-0.0006
2124.00,-0.0005
2123.00,-0.0004
2122.00,-0.0003
2121.00,-0.0003
2120.00,-0.0004
2119.00,-0.0004
2118.00,-0.0003
2117.00,-0.0001
2116.00,0.0002
2115.00,0.0003
2114.00,0.0004
2113.00,0.0004
2112.00,0.0003
2111.00,0.0002
2110.00,0.0002
2109.00,0.0002
2108.00,0.0002
2107.00,0.0003
2106.00,0.0003
2105.00,0.0004
2104.00,0.0005
2103.00,0.0004
2102.00,0.0004
2101.00,0.0003
2100.00,0.0002
2099.00,0.0001
2098.00,0.0000
2097.00,-0.0001
2096.00,-0.0002
2095.00,-0.0003
2094.00,-0.0004
2093.00,-0.0004
2092.00,-0.0003
2091.00,-0.0001
2090.00,0.0000
2089.00,0.0001
2088.00,0.0002
2087.00,0.0002
2086.00,0.0004
2085.00,0.0006
2084.00,0.0007
2083.00,0.0007
2082.00,0.0005
2081.00,0.0003
2080.00,0.0002
2079.00,0.0002
2078.00,0.0002
2077.00,0.0001
2076.00,-0.0000
2075.00,-0.0001
2074.00,-0.0000
2073.00,0.0001
2072.00,0.0002
2071.00,0.0002
2070.00,0.0001
2069.00,0.0001
2068.00,0.0001
2067.00,0.0000
2066.00,-0.0001
2065.00,-0.0001
2064.00,-0.0001
2063.00,-0.0001
2062.00,-0.0000
2061.00,0.0001
2060.00,0.0003
2059.00,0.0004
2058.00,0.0004
2057.00,0.0003
2056.00,0.0001
2055.00,-0.0002
2054.00,-0.0003
2053.00,-0.0002
2052.00,0.0003
2051.00,0.0007
2050.00,0.0008
2049.00,0.0006
2048.00,0.0002
2047.00,-0.0001
2046.00,-0.0002
2045.00,-0.0002
2044.00,-0.0002
2043.00,-0.0003
2042.00,-0.0004
2041.00,-0.0003
2040.00,-0.0000
2039.00,0.0002
2038.00,0.0003
2037.00,0.0003
2036.00,0.0002
2035.00,0.0001
2034.00,-0.0001
2033.00,-0.0004
2032.00,-0.0007
2031.00,-0.0010
2030.00,-0.0011
2029.00,-0.0011
2028.00,-0.0012
2027.00,-0.0015
2026.00,-0.0018
2025.00,-0.0019
2024.00,-0.0018
2023.00,-0.0017
2022.00,-0.0016
2021.00,-0.0014
2020.00,-0.0010
2019.00,-0.0007
2018.00,-0.0007
2017.00,-0.0009
2016.00,-0.0011
2015.00,-0.0013
2014.00,-0.0015
2013.00,-0.0015
2012.00,-0.0014
2011.00,-0.0012
2010.00,-0.0011
2009.00,-0.0010
2008.00,-0.0011
2007.00,-0.0012
2006.00,-0.0013
2005.00,-0.0013
2004.00,-0.0013
2003.00,-0.0014
2002.00,-0.0015
2001.00,-0.0015
2000.00,-0.0014
1999.00,-0.0013
1998.00,-0.0012
1997.00,-0.0012
1996.00,-0.0013
1995.00,-0.0012
1994.00,-0.0010
1993.00,-0.0006
1992.00,-0.0003
1991.00,-0.0000
1990.00,0.0001
1989.00,0.0001
1988.00,0.0001
1987.00,0.0002
1986.00,0.0002
1985.00,0.0003
1984.00,0.0004
1983.00,0.0005
1982.00,0.0006
1981.00,0.0006
1980.00,0.0004
1979.00,-0.0001
1978.00,-0.0008
1977.00,-0.0013
1976.00,-0.0016
1975.00,-0.0017
1974.00,-0.0017
1973.00,-0.0015
1972.00,-0.0013
1971.00,-0.0014
1970.00,-0.0015
1969.00,-0.0017
1968.00,-0.0017
1967.00,-0.0016
1966.00,-0.0014
1965.00,-0.0012
1964.00,-0.0011
1963.00,-0.0010
1962.00,-0.0011
1961.00,-0.0013
1960.00,-0.0014
1959.00,-0.0015
1958.00,-0.0016
1957.00,-0.0015
1956.00,-0.0014
1955.00,-0.0012
1954.00,-0.0010
1953.00,-0.0009
1952.00,-0.0010
1951.00,-0.0011
1950.00,-0.0012
1949.00,-0.0013
1948.00,-0.0014
1947.00,-0.0015
1946.00,-0.0016
1945.00,-0.0016
1944.00,-0.0016
1943.00,-0.0015
1942.00,-0.0012
1941.00,-0.0010
1940.00,-0.0008
1939.00,-0.0007
1938.00,-0.0007
1937.00,-0.0006
1936.00,-0.0005
1935.00,-0.0005
1934.00,-0.0006
1933.00,-0.0008
1932.00,-0.0009
1931.00,-0.0010
1930.00,-0.0009
1929.00,-0.0008
1928.00,-0.0007
1927.00,-0.0006
1926.00,-0.0006
1925.00,-0.0006
1924.00,-0.0006
1923.00,-0.0005
1922.00,-0.0004
1921.00,-0.0003
1920.00,-0.0003
1919.00,-0.0003
1918.00,-0.0003
1917.00,-0.0003
1916.00,-0.0003
1915.00,-0.0003
1914.00,-0.0003
1913.00,-0.0003
1912.00,-0.0004
1911.00,-0.0004
1910.00,-0.0004
1909.00,-0.0004
1908.00,-0.0003
1907.00,-0.0003
1906.00,-0.0002
1905.00,-0.0001
1904.00,-0.0000
1903.00,-0.0001
1902.00,-0.0001
1901.00,-0.0002
1900.00,-0.0002
1899.00,-0.0002
1898.00,-0.0002
1897.00,-0.0002
1896.00,-0.0002
1895.00,-0.0002
1894.00,-0.0003
1893.00,-0.0002
1892.00,-0.0001
1891.00,-0.0001
1890.00,-0.0001
1889.00,-0.0000
1888.00,-0.0000
1887.00,-0.0001
1886.00,-0.0001
1885.00,-0.0002
1884.00,-0.0002
1883.00,-0.0002
1882.00,-0.0002
1881.00,-0.0002
1880.00,-0.0001
1879.00,-0.0001
1878.00,-0.0001
1877.00,-0.0001
1876.00,-0.0001
1875.00,-0.0001
1874.00,0.0000
1873.00,0.0001
1872.00,0.0002
1871.00,0.0003
1870.00,0.0002
1869.00,0.0000
1868.00,-0.0001
1867.00,-0.0003
1866.00,-0.0003
1865.00,-0.0003
1864.00,-0.0002
1863.00,-0.0002
1862.00,-0.0002
1861.00,-0.0001
1860.00,-0.0000
1859.00,0.0001
1858.00,0.0001
1857.00,0.0001
1856.00,0.0001
1855.00,0.0000
1854.00,-0.0000
1853.00,-0.0000
1852.00,-0.0000
1851.00,-0.0000
1850.00,-0.0000
1849.00,-0.0000
1848.00,-0.0000
1847.00,-0.0000
1846.00,0.0000
1845.00,0.0001
1844.00,0.0001
1843.00,0.0002
1842.00,0.0002
1841.00,0.0002
1840.00,0.0002
1839.00,0.0002
1838.00,0.0002
1837.00,0.0002
1836.00,0.0002
1835.00,0.0003
1834.00,0.0003
1833.00,0.0004
1832.00,0.0004
1831.00,0.0003
1830.00,0.0003
1829.00,0.0003
1828.00,0.0004
1827.00,0.0004
1826.00,0.0003
1825.00,0.0003
1824.00,0.0003
1823.00,0.0004
1822.00,0.0004
1821.00,0.0004
1820.00,0.0003
1819.00,0.0001
1818.00,-0.0000
1817.00,-0.0001
1816.00,-0.0001
1815.00,-0.0001
1814.00,0.0000
1813.00,0.0001
1812.00,0.0002
1811.00,0.0002
1810.00,0.0002
1809.00,0.0002
1808.00,0.0003
1807.00,0.0004
1806.00,0.0004
1805.00,0.0004
1804.00,0.0004
1803.00,0.0005
1802.00,0.0005
1801.00,0.0005
1800.00,0.0005
1799.00,0.0005
1798.00,0.0005
1797.00,0.0005
1796.00,0.0005
1795.00,0.0006
1794.00,0.0006
1793.00,0.0006
1792.00,0.0007
1791.00,0.0007
1790.00,0.0007
1789.00,0.0007
1788.00,0.0007
1787.00,0.0007
1786.00,0.0007
1785.00,0.0007
1784.00,0.0007
1783.00,0.0007
1782.00,0.0008
1781.00,0.0008
1780.00,0.0009
1779.00,0.0008
1778.00,0.0008
1777.00,0.0008
1776.00,0.0008
1775.00,0.0008
1774.00,0.0009
1773.00,0.0009
1772.00,0.0010
1771.00,0.0010
1770.00,0.0010
1769.00,0.0010
1768.00,0.0010
1767.00,0.0010
1766.00,0.0010
1765.00,0.0010
1764.00,0.0011
1763.00,0.0011
1762.00,0.0011
1761.00,0.0012
1760.00,0.0012
1759.00,0.0012
1758.00,0.0012
1757.00,0.0012
1756.00,0.0013
1755.00,0.0014
1754.00,0.0014
1753.00,0.0015
1752.00,0.0016
1751.00,0.0017
1750.00,0.0018
1749.00,0.0019
1748.00,0.0020
1747.00,0.0020
1746.00,0.0021
1745.00,0.0022
1744.00,0.0023
1743.00,0.0024
1742.00,0.0025
1741.00,0.0025
1740.00,0.0026
1739.00,0.0026
1738.00,0.0027
1737.00,0.0027
1736.00,0.0028
1735.00,0.0028
1734.00,0.0028
1733.00,0.0027
1732.00,0.0027
1731.00,0.0027
1730.00,0.0027
1729.00,0.0027
1728.00,0.0027
1727.00,0.0027
1726.00,0.0027
1725.00,0.0028
1724.00,0.0028
1723.00,0.0028
1722.00,0.0029
1721.00,0.0029
1720.00,0.0029
1719.00,0.0029
1718.00,0.0028
1717.00,0.0027
1716.00,0.0026
1715.00,0.0025
1714.00,0.0025
1713.00,0.0025
1712.00,0.0025
1711.00,0.0026
1710.00,0.0026
1709.00,0.0026
1708.00,0.0026
1707.00,0.0026
1706.00,0.0026
1705.00,0.0027
1704.00,0.0027
1703.00,0.0028
1702.00,0.0028
1701.00,0.0029
1700.00,0.0030
1699.00,0.0031
1698.00,0.0031
1697.00,0.0032
1696.00,0.0033
1695.00,0.0034
1694.00,0.0035
1693.00,0.0036
1692.00,0.0036
1691.00,0.0037
1690.00,0.0038
1689.00,0.0039
1688.00,0.0040
1687.00,0.0040
1686.00,0.0041
1685.00,0.0042
1684.00,0.0044
1683.00,0.0047
1682.00,0.0048
1681.00,0.0050
1680.00,0.0051
1679.00,0.0053
1678.00,0.0054
1677.00,0.0055
1676.00,0.0056
1675.00,0.0057
1674.00,0.0059
1673.00,0.0060
1672.00,0.0061
1671.00,0.0062
1670.00,0.0063
1669.00,0.0064
1668.00,0.0065
1667.00,0.0065
1666.00,0.0066
1665.00,0.0066
1664.00,0.0066
1663.00,0.0067
1662.00,0.0068
1661.00,0.0068
1660.00,0.0069
1659.00,0.0069
1658.00,0.0069
1657.00,0.0070
1656.00,0.0070
1655.00,0.0070
1654.00,0.0070
1653.00,0.0071
1652.00,0.0072
1651.00,0.0073
1650.00,0.0073
1649.00,0.0073
1648.00,0.0074
1647.00,0.0075
1646.00,0.0075
1645.00,0.0075
1644.00,0.0076
1643.00,0.0076
1642.00,0.0077
1641.00,0.0077
1640.00,0.0078
1639.00,0.0078
1638.00,0.0078
1637.00,0.0078
1636.00,0.0078
1635.00,0.0079
1634.00,0.0078
1633.00,0.0078
1632.00,0.0077
1631.00,0.0076
1630.00,0.0076
1629.00,0.0075
1628.00,0.0075
1627.00,0.0074
1626.00,0.0073
1625.00,0.0072
1624.00,0.0071
1623.00,0.0070
1622.00,0.0069
1621.00,0.0069
1620.00,0.0068
1619.00,0.0067
1618.00,0.0066
1617.00,0.0065
1616.00,0.0065
1615.00,0.0065
1614.00,0.0065
1613.00,0.0066
1612.00,0.0066
1611.00,0.0066
1610.00,0.0065
1609.00,0.0065
1608.00,0.0064
1607.00,0.0064
1606.00,0.0063
1605.00,0.0063
1604.00,0.0062
1603.00,0.0062
1602.00,0.0062
1601.00,0.0062
1600.00,0.0063
1599.00,0.0062
1598.00,0.0062
1597.00,0.0061
1596.00,0.0061
1595.00,0.0060
1594.00,0.0061
1593.00,0.0061
1592.00,0.0062
1591.00,0.0062
1590.00,0.0063
1589.00,0.0064
1588.00,0.0065
1587.00,0.0067
1586.00,0.0069
1585.00,0.0071
1584.00,0.0073
1583.00,0.0076
1582.00,0.0078
1581.00,0.0082
1580.00,0.0085
1579.00,0.0087
1578.00,0.0089
1577.00,0.0089
1576.00,0.0089
1575.00,0.0089
1574.00,0.0088
1573.00,0.0087
1572.00,0.0086
1571.00,0.0085
1570.00,0.0083
1569.00,0.0082
1568.00,0.0080
1567.00,0.0079
1566.00,0.0078
1565.00,0.0077
1564.00,0.0076
1563.00,0.0076
1562.00,0.0077
1561.00,0.0077
1560.00,0.0078
1559.00,0.0078
1558.00,0.0078
1557.00,0.0079
1556.00,0.0080
1555.00,0.0081
1554.00,0.0082
1553.00,0.0083
1552.00,0.0084
1551.00,0.0085
1550.00,0.0086
1549.00,0.0088
1548.00,0.0090
1547.00,0.0092
1546.00,0.0094
1545.00,0.0097
1544.00,0.0101
1543.00,0.0103
1542.00,0.0104
1541.00,0.0104
1540.00,0.0101
1539.00,0.0098
1538.00,0.0095
1537.00,0.0093
1536.00,0.0091
1535.00,0.0087
1534.00,0.0081
1533.00,0.0077
1532.00,0.0073
1531.00,0.0071
1530.00,0.0069
1529.00,0.0068
1528.00,0.0067
1527.00,0.0066
1526.00,0.0065
1525.00,0.0065
1524.00,0.0065
1523.00,0.0064
1522.00,0.0063
1521.00,0.0063
1520.00,0.0064
1519.00,0.0064
1518.00,0.0064
1517.00,0.0064
1516.00,0.0064
1515.00,0.0064
1514.00,0.0064
1513.00,0.0065
1512.00,0.0066
1511.00,0.0067
1510.00,0.0067
1509.00,0.0067
1508.00,0.0068
1507.00,0.0068
1506.00,0.0069
1505.00,0.0070
1504.00,0.0072
1503.00,0.0073
1502.00,0.0075
1501.00,0.0077
1500.00,0.0081
1499.00,0.0084
1498.00,0.0087
1497.00,0.0090
1496.00,0.0094
1495.00,0.0097
1494.00,0.0099
1493.00,0.0103
1492.00,0.0107
1491.00,0.0112
1490.00,0.0117
1489.00,0.0123
1488.00,0.0128
1487.00,0.0133
1486.00,0.0138
1485.00,0.0145
1484.00,0.0152
1483.00,0.0161
1482.00,0.0170
1481.00,0.0182
1480.00,0.0195
1479.00,0.0208
1478.00,0.0224
1477.00,0.0246
1476.00,0.0271
1475.00,0.0300
1474.00,0.0339
1473.00,0.0396
1472.00,0.0464
1471.00,0.0528
1470.00,0.0589
1469.00,0.0653
1468.00,0.0723
1467.00,0.0798
1466.00,0.0885
1465.00,0.0978
1464.00,0.1059
1463.00,0.1114
1462.00,0.1148
1461.00,0.1169
1460.00,0.1183
1459.00,0.1191
1458.00,0.1196
1457.00,0.1197
1456.00,0.1190
1455.00,0.1177
1454.00,0.1160
1453.00,0.1139
1452.00,0.1109
1451.00,0.1068
1450.00,0.1016
1449.00,0.0945
1448.00,0.0857
1447.00,0.0766
1446.00,0.0685
1445.00,0.0617
1444.00,0.0558
1443.00,0.0510
1442.00,0.0475
1441.00,0.0450
1440.00,0.0436
1439.00,0.0430
1438.00,0.0432
1437.00,0.0434
1436.00,0.0425
1435.00,0.0401
1434.00,0.0367
1433.00,0.0325
1432.00,0.0282
1431.00,0.0243
1430.00,0.0213
1429.00,0.0190
1428.00,0.0175
1427.00,0.0166
1426.00,0.0159
1425.00,0.0154
1424.00,0.0148
1423.00,0.0145
1422.00,0.0143
1421.00,0.0141
1420.00,0.0138
1419.00,0.0135
1418.00,0.0133
1417.00,0.0130
1416.00,0.0127
1415.00,0.0124
1414.00,0.0122
1413.00,0.0120
1412.00,0.0118
1411.00,0.0117
1410.00,0.0117
1409.00,0.0116
1408.00,0.0115
1407.00,0.0115
1406.00,0.0115
1405.00,0.0115
1404.00,0.0114
1403.00,0.0114
1402.00,0.0116
1401.00,0.0117
1400.00,0.0118
1399.00,0.0119
1398.00,0.0121
1397.00,0.0123
1396.00,0.0124
1395.00,0.0127
1394.00,0.0131
1393.00,0.0135
1392.00,0.0140
1391.00,0.0147
1390.00,0.0156
1389.00,0.0169
1388.00,0.0189
1387.00,0.0220
1386.00,0.0262
1385.00,0.0316
1384.00,0.0391
1383.00,0.0498
1382.00,0.0643
1381.00,0.0832
1380.00,0.1068
1379.00,0.1340
1378.00,0.1606
1377.00,0.1803
1376.00,0.1872
1375.00,0.1780
1374.00,0.1554
1373.00,0.1279
1372.00,0.1030
1371.00,0.0825
1370.00,0.0663
1369.00,0.0540
1368.00,0.0456
1367.00,0.0405
1366.00,0.0377
1365.00,0.0366
1364.00,0.0368
1363.00,0.0381
1362.00,0.0402
1361.00,0.0424
1360.00,0.0441
1359.00,0.0445
1358.00,0.0435
1357.00,0.0411
1356.00,0.0377
1355.00,0.0338
1354.00,0.0300
1353.00,0.0268
1352.00,0.0242
1351.00,0.0220
1350.00,0.0203
1349.00,0.0188
1348.00,0.0176
1347.00,0.0166
1346.00,0.0158
1345.00,0.0151
1344.00,0.0145
1343.00,0.0140
1342.00,0.0135
1341.00,0.0132
1340.00,0.0129
1339.00,0.0126
1338.00,0.0125
1337.00,0.0125
1336.00,0.0125
1335.00,0.0127
1334.00,0.0130
1333.00,0.0133
1332.00,0.0137
1331.00,0.0140
1330.00,0.0141
1329.00,0.0140
1328.00,0.0137
1327.00,0.0132
1326.00,0.0126
1325.00,0.0121
1324.00,0.0116
1323.00,0.0112
1322.00,0.0108
1321.00,0.0106
1320.00,0.0104
1319.00,0.0102
1318.00,0.0100
1317.00,0.0099
1316.00,0.0098
1315.00,0.0098
1314.00,0.0097
1313.00,0.0097
1312.00,0.0098
1311.00,0.0099
1310.00,0.0102
1309.00,0.0107
1308.00,0.0114
1307.00,0.0123
1306.00,0.0132
1305.00,0.0138
1304.00,0.0140
1303.00,0.0139
1302.00,0.0136
1301.00,0.0134
1300.00,0.0133
1299.00,0.0134
1298.00,0.0135
1297.00,0.0136
1296.00,0.0135
1295.00,0.0133
1294.00,0.0130
1293.00,0.0126
1292.00,0.0121
1291.00,0.0116
1290.00,0.0111
1289.00,0.0106
1288.00,0.0103
1287.00,0.0100
1286.00,0.0098
1285.00,0.0096
1284.00,0.0094
1283.00,0.0092
1282.00,0.0091
1281.00,0.0090
1280.00,0.0089
1279.00,0.0089
1278.00,0.0088
1277.00,0.0088
1276.00,0.0088
1275.00,0.0088
1274.00,0.0088
1273.00,0.0087
1272.00,0.0087
1271.00,0.0088
1270.00,0.0089
1269.00,0.0092
1268.00,0.0094
1267.00,0.0097
1266.00,0.0100
1265.00,0.0104
1264.00,0.0107
1263.00,0.0110
1262.00,0.0113
1261.00,0.0116
1260.00,0.0120
1259.00,0.0124
1258.00,0.0129
1257.00,0.0133
1256.00,0.0134
1255.00,0.0132
1254.00,0.0126
1253.00,0.0119
1252.00,0.0112
1251.00,0.0106
1250.00,0.0101
1249.00,0.0098
1248.00,0.0095
1247.00,0.0092
1246.00,0.0090
1245.00,0.0088
1244.00,0.0087
1243.00,0.0087
1242.00,0.0086
1241.00,0.0086
1240.00,0.0085
1239.00,0.0085
1238.00,0.0084
1237.00,0.0084
1236.00,0.0084
1235.00,0.0084
1234.00,0.0084
1233.00,0.0085
1232.00,0.0086
1231.00,0.0087
1230.00,0.0087
1229.00,0.0088
1228.00,0.0089
1227.00,0.0091
1226.00,0.0093
1225.00,0.0097
1224.00,0.0100
1223.00,0.0104
1222.00,0.0108
1221.00,0.0111
1220.00,0.0114
1219.00,0.0115
1218.00,0.0114
1217.00,0.0112
1216.00,0.0109
1215.00,0.0106
1214.00,0.0102
1213.00,0.0099
1212.00,0.0097
1211.00,0.0095
1210.00,0.0093
1209.00,0.0092
1208.00,0.0090
1207.00,0.0089
1206.00,0.0088
1205.00,0.0087
1204.00,0.0087
1203.00,0.0087
1202.00,0.0087
1201.00,0.0087
1200.00,0.0087
1199.00,0.0087
1198.00,0.0087
1197.00,0.0086
1196.00,0.0087
1195.00,0.0087
1194.00,0.0088
1193.00,0.0088
1192.00,0.0088
1191.00,0.0088
1190.00,0.0088
1189.00,0.0087
1188.00,0.0087
1187.00,0.0087
1186.00,0.0088
1185.00,0.0088
1184.00,0.0088
1183.00,0.0088
1182.00,0.0089
1181.00,0.0091
1180.00,0.0095
1179.00,0.0099
1178.00,0.0104
1177.00,0.0110
1176.00,0.0119
1175.00,0.0131
1174.00,0.0147
1173.00,0.0168
1172.00,0.0193
1171.00,0.0220
1170.00,0.0246
1169.00,0.0266
1168.00,0.0279
1167.00,0.0281
1166.00,0.0274
1165.00,0.0263
1164.00,0.0249
1163.00,0.0236
1162.00,0.0224
1161.00,0.0215
1160.00,0.0208
1159.00,0.0203
1158.00,0.0200
1157.00,0.0198
1156.00,0.0197
1155.00,0.0196
1154.00,0.0195
1153.00,0.0194
1152.00,0.0190
1151.00,0.0185
1150.00,0.0178
1149.00,0.0169
1148.00,0.0159
1147.00,0.0149
1146.00,0.0141
1145.00,0.0133
1144.00,0.0127
1143.00,0.0121
1142.00,0.0117
1141.00,0.0112
1140.00,0.0108
1139.00,0.0104
1138.00,0.0101
1137.00,0.0099
1136.00,0.0097
1135.00,0.0095
1134.00,0.0093
1133.00,0.0092
1132.00,0.0092
1131.00,0.0092
1130.00,0.0092
1129.00,0.0093
1128.00,0.0094
1127.00,0.0096
1126.00,0.0098
1125.00,0.0099
1124.00,0.0099
1123.00,0.0100
1122.00,0.0101
1121.00,0.0102
1120.00,0.0103
1119.00,0.0104
1118.00,0.0106
1117.00,0.0107
1116.00,0.0108
1115.00,0.0109
1114.00,0.0111
1113.00,0.0113
1112.00,0.0116
1111.00,0.0119
1110.00,0.0123
1109.00,0.0128
1108.00,0.0133
1107.00,0.0138
1106.00,0.0143
1105.00,0.0148
1104.00,0.0152
1103.00,0.0154
1102.00,0.0154
1101.00,0.0151
1100.00,0.0146
1099.00,0.0140
1098.00,0.0135
1097.00,0.0129
1096.00,0.0124
1095.00,0.0120
1094.00,0.0116
1093.00,0.0113
1092.00,0.0111
1091.00,0.0109
1090.00,0.0107
1089.00,0.0106
1088.00,0.0105
1087.00,0.0104
1086.00,0.0104
1085.00,0.0104
1084.00,0.0104
1083.00,0.0103
1082.00,0.0102
1081.00,0.0100
1080.00,0.0098
1079.00,0.0096
1078.00,0.0095
1077.00,0.0093
1076.00,0.0092
1075.00,0.0092
1074.00,0.0091
1073.00,0.0091
1072.00,0.0090
1071.00,0.0090
1070.00,0.0090
1069.00,0.0090
1068.00,0.0090
1067.00,0.0091
1066.00,0.0092
1065.00,0.0093
1064.00,0.0094
1063.00,0.0094
1062.00,0.0094
1061.00,0.0094
1060.00,0.0094
1059.00,0.0095
1058.00,0.0097
1057.00,0.0099
1056.00,0.0102
1055.00,0.0103
1054.00,0.0105
1053.00,0.0107
1052.00,0.0109
1051.00,0.0113
1050.00,0.0117
1049.00,0.0122
1048.00,0.0126
1047.00,0.0131
1046.00,0.0136
1045.00,0.0139
1044.00,0.0141
1043.00,0.0140
1042.00,0.0138
1041.00,0.0136
1040.00,0.0135
1039.00,0.0135
1038.00,0.0136
1037.00,0.0137
1036.00,0.0137
1035.00,0.0136
1034.00,0.0135
1033.00,0.0133
1032.00,0.0131
1031.00,0.0129
1030.00,0.0128
1029.00,0.0128
1028.00,0.0128
1027.00,0.0128
1026.00,0.0129
1025.00,0.0132
1024.00,0.0134
1023.00,0.0137
1022.00,0.0138
1021.00,0.0139
1020.00,0.0140
1019.00,0.0142
1018.00,0.0143
1017.00,0.0145
1016.00,0.0146
1015.00,0.0147
1014.00,0.0147
1013.00,0.0146
1012.00,0.0145
1011.00,0.0144
1010.00,0.0143
1009.00,0.0144
1008.00,0.0145
1007.00,0.0147
1006.00,0.0152
1005.00,0.0160
1004.00,0.0172
1003.00,0.0189
1002.00,0.0213
1001.00,0.0244
1000.00,0.0275
999.00,0.0301
998.00,0.0312
997.00,0.0304
996.00,0.0280
995.00,0.0247
994.00,0.0213
993.00,0.0184
992.00,0.0161
991.00,0.0145
990.00,0.0134
989.00,0.0126
988.00,0.0122
987.00,0.0120
986.00,0.0119
985.00,0.0121
984.00,0.0124
983.00,0.0131
982.00,0.0141
981.00,0.0154
980.00,0.0173
979.00,0.0199
978.00,0.0231
977.00,0.0268
976.00,0.0307
975.00,0.0343
974.00,0.0368
973.00,0.0374
972.00,0.0358
971.00,0.0324
970.00,0.0280
969.00,0.0236
968.00,0.0199
967.00,0.0170
966.00,0.0149
965.00,0.0133
964.00,0.0121
963.00,0.0112
962.00,0.0106
961.00,0.0101
960.00,0.0099
959.00,0.0096
958.00,0.0094
957.00,0.0091
956.00,0.0089
955.00,0.0086
954.00,0.0084
953.00,0.0082
952.00,0.0081
951.00,0.0080
950.00,0.0080
949.00,0.0079
948.00,0.0079
947.00,0.0079
946.00,0.0080
945.00,0.0082
944.00,0.0086
943.00,0.0090
942.00,0.0094
941.00,0.0097
940.00,0.0098
939.00,0.0097
938.00,0.0093
937.00,0.0087
936.00,0.0081
935.00,0.0076
934.00,0.0072
933.00,0.0070
932.00,0.0069
931.00,0.0068
930.00,0.0068
929.00,0.0068
928.00,0.0069
927.00,0.0069
926.00,0.0069
925.00,0.0070
924.00,0.0069
923.00,0.0068
922.00,0.0068
921.00,0.0067
920.00,0.0067
919.00,0.0068
918.00,0.0069
917.00,0.0071
916.00,0.0073
915.00,0.0075
914.00,0.0076
913.00,0.0077
912.00,0.0078
911.00,0.0079
910.00,0.0080
909.00,0.0081
908.00,0.0083
907.00,0.0087
906.00,0.0094
905.00,0.0104
904.00,0.0118
903.00,0.0135
902.00,0.0154
901.00,0.0171
900.00,0.0181
899.00,0.0183
898.00,0.0176
897.00,0.0162
896.00,0.0144
895.00,0.0127
894.00,0.0113
893.00,0.0102
892.00,0.0095
891.00,0.0089
890.00,0.0085
889.00,0.0083
888.00,0.0081
887.00,0.0080
886.00,0.0079
885.00,0.0077
884.00,0.0076
883.00,0.0075
882.00,0.0076
881.00,0.0077
880.00,0.0077
879.00,0.0078
878.00,0.0078
877.00,0.0079
876.00,0.0080
875.00,0.0081
874.00,0.0082
873.00,0.0083
872.00,0.0083
871.00,0.0083
870.00,0.0082
869.00,0.0082
868.00,0.0081
867.00,0.0082
866.00,0.0083
865.00,0.0083
864.00,0.0084
863.00,0.0085
862.00,0.0086
861.00,0.0087
860.00,0.0087
859.00,0.0087
858.00,0.0088
857.00,0.0088
856.00,0.0089
855.00,0.0091
854.00,0.0093
853.00,0.0096
852.00,0.0099
851.00,0.0103
850.00,0.0108
849.00,0.0114
848.00,0.0121
847.00,0.0131
846.00,0.0147
845.00,0.0171
844.00,0.0207
843.00,0.0249
842.00,0.0283
841.00,0.0293
840.00,0.0275
839.00,0.0236
838.00,0.0194
837.00,0.0161
836.00,0.0139
835.00,0.0126
834.00,0.0118
833.00,0.0112
832.00,0.0108
831.00,0.0106
830.00,0.0105
829.00,0.0105
828.00,0.0105
827.00,0.0104
826.00,0.0103
825.00,0.0102
824.00,0.0101
823.00,0.0102
822.00,0.0104
821.00,0.0108
820.00,0.0112
819.00,0.0116
818.00,0.0122
817.00,0.0128
816.00,0.0137
815.00,0.0148
814.00,0.0162
813.00,0.0180
812.00,0.0200
811.00,0.0217
810.00,0.0231
809.00,0.0236
808.00,0.0233
807.00,0.0222
806.00,0.0206
805.00,0.0188
804.00,0.0170
803.00,0.0155
802.00,0.0143
801.00,0.0135
800.00,0.0128
799.00,0.0124
798.00,0.0120
797.00,0.0115
796.00,0.0110
795.00,0.0107
794.00,0.0105
793.00,0.0103
792.00,0.0101
791.00,0.0098
790.00,0.0095
789.00,0.0091
788.00,0.0088
787.00,0.0085
786.00,0.0083
785.00,0.0080
784.00,0.0078
783.00,0.0076
782.00,0.0075
781.00,0.0074
780.00,0.0073
779.00,0.0072
778.00,0.0071
777.00,0.0071
776.00,0.0071
775.00,0.0072
774.00,0.0073
773.00,0.0073
772.00,0.0072
771.00,0.0072
770.00,0.0071
769.00,0.0071
768.00,0.0071
767.00,0.0071
766.00,0.0071
765.00,0.0072
764.00,0.0072
763.00,0.0073
762.00,0.0074
761.00,0.0076
760.00,0.0077
759.00,0.0078
758.00,0.0079
757.00,0.0079
756.00,0.0080
755.00,0.0080
754.00,0.0081
753.00,0.0082
752.00,0.0084
751.00,0.0086
750.00,0.0088
749.00,0.0089
748.00,0.0089
747.00,0.0090
746.00,0.0091
745.00,0.0094
744.00,0.0096
743.00,0.0099
742.00,0.0102
741.00,0.0106
740.00,0.0110
739.00,0.0115
738.00,0.0119
737.00,0.0124
736.00,0.0129
735.00,0.0134
734.00,0.0140
733.00,0.0147
732.00,0.0154
731.00,0.0161
730.00,0.0168
729.00,0.0172
728.00,0.0172
727.00,0.0171
726.00,0.0170
725.00,0.0173
724.00,0.0179
723.00,0.0187
722.00,0.0193
721.00,0.0196
720.00,0.0193
719.00,0.0184
718.00,0.0169
717.00,0.0155
716.00,0.0144
715.00,0.0136
714.00,0.0131
713.00,0.0127
712.00,0.0123
711.00,0.0120
710.00,0.0118
709.00,0.0117
708.00,0.0117
707.00,0.0117
706.00,0.0117
705.00,0.0117
704.00,0.0118
703.00,0.0118
702.00,0.0117
701.00,0.0115
700.00,0.0111
699.00,0.0108
698.00,0.0107
697.00,0.0106
696.00,0.0106
695.00,0.0106
694.00,0.0106
693.00,0.0105
692.00,0.0104
691.00,0.0103
690.00,0.0103
689.00,0.0104
688.00,0.0107
687.00,0.0108
686.00,0.0108
685.00,0.0108
684.00,0.0108
683.00,0.0108
682.00,0.0109
681.00,0.0110
680.00,0.0110
679.00,0.0110
678.00,0.0110
677.00,0.0109
676.00,0.0109
675.00,0.0111
674.00,0.0113
673.00,0.0116
672.00,0.0117
671.00,0.0118
670.00,0.0118
669.00,0.0116
668.00,0.0113
667.00,0.0111
666.00,0.0109
665.00,0.0108
664.00,0.0108
663.00,0.0108
662.00,0.0108
661.00,0.0107
660.00,0.0106
659.00,0.0103
658.00,0.0100
657.00,0.0098
656.00,0.0097
655.00,0.0098
654.00,0.0099
653.00,0.0099
652.00,0.0099
651.00,0.0100
650.00,0.0102
649.00,0.0104
648.00,0.0104
647.00,0.0103
646.00,0.0102
645.00,0.0101
644.00,0.0100
643.00,0.0099
642.00,0.0099
641.00,0.0100
640.00,0.0100
639.00,0.0099
638.00,0.0097
637.00,0.0097
636.00,0.0097
635.00,0.0098
634.00,0.0100
633.00,0.0101
632.00,0.0100
631.00,0.0099
630.00,0.0098
629.00,0.0097
628.00,0.0097
627.00,0.0097
626.00,0.0097
625.00,0.0098
624.00,0.0100
623.00,0.0102
622.00,0.0105
621.00,0.0107
620.00,0.0107
619.00,0.0105
618.00,0.0101
617.00,0.0096
616.00,0.0092
615.00,0.0090
614.00,0.0090
613.00,0.0091
612.00,0.0093
611.00,0.0095
610.00,0.0097
609.00,0.0098
608.00,0.0097
607.00,0.0096
606.00,0.0094
605.00,0.0093
604.00,0.0093
603.00,0.0094
602.00,0.0094
601.00,0.0094
600.00,0.0095
599.00,0.0095
598.00,0.0095
597.00,0.0094
596.00,0.0093
595.00,0.0093
594.00,0.0093
593.00,0.0094
592.00,0.0093
591.00,0.0091
590.00,0.0089
589.00,0.0088
588.00,0.0088
587.00,0.0089
586.00,0.0092
585.00,0.0096
584.00,0.0099
583.00,0.0103
582.00,0.0105
581.00,0.0106
580.00,0.0104
579.00,0.0101
578.00,0.0098
577.00,0.0094
576.00,0.0090
575.00,0.0087
574.00,0.0087
573.00,0.0089
572.00,0.0093
571.00,0.0096
570.00,0.0098
569.00,0.0099
568.00,0.0099
567.00,0.0100
566.00,0.0099
565.00,0.0097
564.00,0.0095
563.00,0.0093
562.00,0.0091
561.00,0.0089
560.00,0.0086
559.00,0.0086
558.00,0.0088
557.00,0.0091
556.00,0.0093
555.00,0.0094
554.00,0.0095
553.00,0.0095
552.00,0.0094
551.00,0.0094
550.00,0.0096
549.00,0.0099
548.00,0.0102
547.00,0.0105
546.00,0.0106
545.00,0.0107
544.00,0.0108
543.00,0.0111
542.00,0.0113
541.00,0.0115
540.00,0.0116
539.00,0.0119
538.00,0.0122
537.00,0.0123
536.00,0.0121
535.00,0.0116
534.00,0.0114
533.00,0.0115
532.00,0.0116
531.00,0.0116
530.00,0.0117
529.00,0.0118
528.00,0.0119
527.00,0.0120
526.00,0.0119
525.00,0.0117
524.00,0.0115
523.00,0.0116
522.00,0.0118
521.00,0.0120
520.00,0.0120
519.00,0.0117
518.00,0.0113
517.00,0.0108
516.00,0.0101
515.00,0.0095
514.00,0.0090
513.00,0.0087
512.00,0.0086
511.00,0.0087
510.00,0.0089
509.00,0.0090
508.00,0.0091
507.00,0.0095
506.00,0.0103
505.00,0.0110
504.00,0.0109
503.00,0.0101
502.00,0.0093
501.00,0.0088
500.00,0.0088
499.00,0.0089
498.00,0.0092
497.00,0.0096
496.00,0.0098
495.00,0.0095
494.00,0.0089
493.00,0.0084
492.00,0.0080
491.00,0.0077
490.00,0.0076
489.00,0.0078
488.00,0.0085
487.00,0.0095
486.00,0.0103
485.00,0.0105
484.00,0.0103
483.00,0.0102
482.00,0.0104
481.00,0.0107
480.00,0.0108
479.00,0.0107
478.00,0.0106
477.00,0.0107
476.00,0.0111
475.00,0.0114
474.00,0.0119
473.00,0.0125
472.00,0.0133
471.00,0.0141
470.00,0.0148
469.00,0.0154
468.00,0.0160
467.00,0.0164
466.00,0.0166
465.00,0.0165
464.00,0.0163
463.00,0.0167
462.00,0.0179
461.00,0.0196
460.00,0.0209
459.00,0.0213
458.00,0.0209
457.00,0.0205
456.00,0.0203
455.00,0.0201
454.00,0.0194
453.00,0.0179
452.00,0.0159
451.00,0.0138
450.00,0.0121
