Created as New Dataset,Sample 033 By Administrator Date Thursday, September 04 2025
cm-1,A
4000.00,0.0009
3999.00,0.0009
3998.00,0.0009
3997.00,0.0009
3996.00,0.0009
3995.00,0.0010
3994.00,0.0010
3993.00,0.0010
3992.00,0.0010
3991.00,0.0010
3990.00,0.0010
3989.00,0.0010
3988.00,0.0010
3987.00,0.0010
3986.00,0.0010
3985.00,0.0010
3984.00,0.0010
3983.00,0.0010
3982.00,0.0009
3981.00,0.0009
3980.00,0.0009
3979.00,0.0009
3978.00,0.0009
3977.00,0.0009
3976.00,0.0009
3975.00,0.0009
3974.00,0.0008
3973.00,0.0008
3972.00,0.0008
3971.00,0.0008
3970.00,0.0008
3969.00,0.0008
3968.00,0.0007
3967.00,0.0007
3966.00,0.0008
3965.00,0.0008
3964.00,0.0008
3963.00,0.0008
3962.00,0.0008
3961.00,0.0008
3960.00,0.0008
3959.00,0.0008
3958.00,0.0008
3957.00,0.0008
3956.00,0.0008
3955.00,0.0008
3954.00,0.0008
3953.00,0.0008
3952.00,0.0008
3951.00,0.0008
3950.00,0.0008
3949.00,0.0008
3948.00,0.0007
3947.00,0.0007
3946.00,0.0007
3945.00,0.0007
3944.00,0.0007
3943.00,0.0007
3942.00,0.0007
3941.00,0.0007
3940.00,0.0008
3939.00,0.0008
3938.00,0.0008
3937.00,0.0008
3936.00,0.0008
3935.00,0.0008
3934.00,0.0008
3933.00,0.0008
3932.00,0.0008
3931.00,0.0008
3930.00,0.0008
3929.00,0.0008
3928.00,0.0008
3927.00,0.0008
3926.00,0.0008
3925.00,0.0008
3924.00,0.0007
3923.00,0.0007
3922.00,0.0007
3921.00,0.0007
3920.00,0.0007
3919.00,0.0007
3918.00,0.0007
3917.00,0.0007
3916.00,0.0008
3915.00,0.0008
3914.00,0.0008
3913.00,0.0008
3912.00,0.0008
3911.00,0.0008
3910.00,0.0007
3909.00,0.0007
3908.00,0.0007
3907.00,0.0007
3906.00,0.0006
3905.00,0.0006
3904.00,0.0005
3903.00,0.0005
3902.00,0.0005
3901.00,0.0005
3900.00,0.0006
3899.00,0.0007
3898.00,0.0007
3897.00,0.0007
3896.00,0.0007
3895.00,0.0007
3894.00,0.0007
3893.00,0.0007
3892.00,0.0006
3891.00,0.0006
3890.00,0.0006
3889.00,0.0006
3888.00,0.0006
3887.00,0.0007
3886.00,0.0007
3885.00,0.0007
3884.00,0.0007
3883.00,0.0007
3882.00,0.0007
3881.00,0.0007
3880.00,0.0007
3879.00,0.0007
3878.00,0.0007
3877.00,0.0007
3876.00,0.0007
3875.00,0.0007
3874.00,0.0007
3873.00,0.0007
3872.00,0.0006
3871.00,0.0006
3870.00,0.0006
3869.00,0.0006
3868.00,0.0006
3867.00,0.0006
3866.00,0.0006
3865.00,0.0006
3864.00,0.0006
3863.00,0.0006
3862.00,0.0006
3861.00,0.0006
3860.00,0.0006
3859.00,0.0006
3858.00,0.0006
3857.00,0.0005
3856.00,0.0005
3855.00,0.0005
3854.00,0.0005
3853.00,0.0005
3852.00,0.0005
3851.00,0.0006
3850.00,0.0006
3849.00,0.0006
3848.00,0.0006
3847.00,0.0007
3846.00,0.0007
3845.00,0.0007
3844.00,0.0007
3843.00,0.0007
3842.00,0.0007
3841.00,0.0006
3840.00,0.0006
3839.00,0.0005
3838.00,0.0005
3837.00,0.0005
3836.00,0.0006
3835.00,0.0006
3834.00,0.0006
3833.00,0.0006
3832.00,0.0006
3831.00,0.0006
3830.00,0.0007
3829.00,0.0007
3828.00,0.0007
3827.00,0.0007
3826.00,0.0006
3825.00,0.0006
3824.00,0.0006
3823.00,0.0007
3822.00,0.0007
3821.00,0.0007
3820.00,0.0007
3819.00,0.0007
3818.00,0.0007
3817.00,0.0007
3816.00,0.0007
3815.00,0.0007
3814.00,0.0007
3813.00,0.0007
3812.00,0.0007
3811.00,0.0007
3810.00,0.0007
3809.00,0.0007
3808.00,0.0007
3807.00,0.0007
3806.00,0.0007
3805.00,0.0007
3804.00,0.0007
3803.00,0.0007
3802.00,0.0006
3801.00,0.0006
3800.00,0.0006
3799.00,0.0006
3798.00,0.0006
3797.00,0.0006
3796.00,0.0006
3795.00,0.0007
3794.00,0.0007
3793.00,0.0007
3792.00,0.0007
3791.00,0.0007
3790.00,0.0007
3789.00,0.0007
3788.00,0.0007
3787.00,0.0007
3786.00,0.0008
3785.00,0.0008
3784.00,0.0008
3783.00,0.0008
3782.00,0.0008
3781.00,0.0008
3780.00,0.0008
3779.00,0.0008
3778.00,0.0008
3777.00,0.0008
3776.00,0.0008
3775.00,0.0008
3774.00,0.0008
3773.00,0.0008
3772.00,0.0008
3771.00,0.0007
3770.00,0.0007
3769.00,0.0007
3768.00,0.0007
3767.00,0.0007
3766.00,0.0007
3765.00,0.0008
3764.00,0.0008
3763.00,0.0008
3762.00,0.0008
3761.00,0.0008
3760.00,0.0008
3759.00,0.0008
3758.00,0.0008
3757.00,0.0007
3756.00,0.0007
3755.00,0.0007
3754.00,0.0007
3753.00,0.0006
3752.00,0.0006
3751.00,0.0005
3750.00,0.0005
3749.00,0.0005
3748.00,0.0005
3747.00,0.0005
3746.00,0.0005
3745.00,0.0005
3744.00,0.0005
3743.00,0.0005
3742.00,0.0005
3741.00,0.0006
3740.00,0.0006
3739.00,0.0006
3738.00,0.0005
3737.00,0.0005
3736.00,0.0005
3735.00,0.0006
3734.00,0.0006
3733.00,0.0006
3732.00,0.0005
3731.00,0.0005
3730.00,0.0005
3729.00,0.0005
3728.00,0.0005
3727.00,0.0005
3726.00,0.0004
3725.00,0.0004
3724.00,0.0004
3723.00,0.0004
3722.00,0.0004
3721.00,0.0005
3720.00,0.0005
3719.00,0.0006
3718.00,0.0006
3717.00,0.0006
3716.00,0.0006
3715.00,0.0006
3714.00,0.0006
3713.00,0.0006
3712.00,0.0006
3711.00,0.0006
3710.00,0.0006
3709.00,0.0006
3708.00,0.0006
3707.00,0.0005
3706.00,0.0005
3705.00,0.0005
3704.00,0.0005
3703.00,0.0005
3702.00,0.0005
3701.00,0.0005
3700.00,0.0005
3699.00,0.0005
3698.00,0.0006
3697.00,0.0006
3696.00,0.0006
3695.00,0.0006
3694.00,0.0006
3693.00,0.0006
3692.00,0.0006
3691.00,0.0006
3690.00,0.0006
3689.00,0.0006
3688.00,0.0005
3687.00,0.0005
3686.00,0.0005
3685.00,0.0005
3684.00,0.0006
3683.00,0.0006
3682.00,0.0007
3681.00,0.0007
3680.00,0.0007
3679.00,0.0006
3678.00,0.0006
3677.00,0.0006
3676.00,0.0006
3675.00,0.0006
3674.00,0.0006
3673.00,0.0006
3672.00,0.0005
3671.00,0.0005
3670.00,0.0005
3669.00,0.0005
3668.00,0.0005
3667.00,0.0005
3666.00,0.0005
3665.00,0.0005
3664.00,0.0005
3663.00,0.0005
3662.00,0.0005
3661.00,0.0005
3660.00,0.0005
3659.00,0.0005
3658.00,0.0005
3657.00,0.0004
3656.00,0.0004
3655.00,0.0003
3654.00,0.0003
3653.00,0.0003
3652.00,0.0003
3651.00,0.0004
3650.00,0.0004
3649.00,0.0004
3648.00,0.0004
3647.00,0.0004
3646.00,0.0004
3645.00,0.0005
3644.00,0.0005
3643.00,0.0005
3642.00,0.0005
3641.00,0.0005
3640.00,0.0005
3639.00,0.0006
3638.00,0.0005
3637.00,0.0005
3636.00,0.0005
3635.00,0.0004
3634.00,0.0004
3633.00,0.0003
3632.00,0.0003
3631.00,0.0003
3630.00,0.0004
3629.00,0.0004
3628.00,0.0004
3627.00,0.0004
3626.00,0.0004
3625.00,0.0005
3624.00,0.0005
3623.00,0.0005
3622.00,0.0006
3621.00,0.0006
3620.00,0.0005
3619.00,0.0005
3618.00,0.0005
3617.00,0.0004
3616.00,0.0004
3615.00,0.0005
3614.00,0.0005
3613.00,0.0006
3612.00,0.0006
3611.00,0.0007
3610.00,0.0008
3609.00,0.0008
3608.00,0.0008
3607.00,0.0008
3606.00,0.0007
3605.00,0.0007
3604.00,0.0007
3603.00,0.0007
3602.00,0.0007
3601.00,0.0007
3600.00,0.0007
3599.00,0.0007
3598.00,0.0007
3597.00,0.0006
3596.00,0.0006
3595.00,0.0006
3594.00,0.0006
3593.00,0.0007
3592.00,0.0007
3591.00,0.0006
3590.00,0.0006
3589.00,0.0006
3588.00,0.0005
3587.00,0.0006
3586.00,0.0006
3585.00,0.0007
3584.00,0.0007
3583.00,0.0008
3582.00,0.0008
3581.00,0.0008
3580.00,0.0008
3579.00,0.0008
3578.00,0.0008
3577.00,0.0008
3576.00,0.0008
3575.00,0.0008
3574.00,0.0008
3573.00,0.0008
3572.00,0.0008
3571.00,0.0007
3570.00,0.0007
3569.00,0.0007
3568.00,0.0007
3567.00,0.0008
3566.00,0.0008
3565.00,0.0009
3564.00,0.0010
3563.00,0.0010
3562.00,0.0010
3561.00,0.0010
3560.00,0.0010
3559.00,0.0010
3558.00,0.0010
3557.00,0.0010
3556.00,0.0010
3555.00,0.0010
3554.00,0.0010
3553.00,0.0010
3552.00,0.0011
3551.00,0.0011
3550.00,0.0011
3549.00,0.0011
3548.00,0.0011
3547.00,0.0011
3546.00,0.0011
3545.00,0.0012
3544.00,0.0012
3543.00,0.0013
3542.00,0.0013
3541.00,0.0012
3540.00,0.0012
3539.00,0.0012
3538.00,0.0012
3537.00,0.0012
3536.00,0.0013
3535.00,0.0013
3534.00,0.0013
3533.00,0.0013
3532.00,0.0013
3531.00,0.0013
3530.00,0.0013
3529.00,0.0014
3528.00,0.0014
3527.00,0.0014
3526.00,0.0014
3525.00,0.0014
3524.00,0.0014
3523.00,0.0014
3522.00,0.0014
3521.00,0.0015
3520.00,0.0015
3519.00,0.0015
3518.00,0.0015
3517.00,0.0015
3516.00,0.0015
3515.00,0.0015
3514.00,0.0015
3513.00,0.0015
3512.00,0.0015
3511.00,0.0016
3510.00,0.0016
3509.00,0.0016
3508.00,0.0016
3507.00,0.0016
3506.00,0.0015
3505.00,0.0015
3504.00,0.0015
3503.00,0.0015
3502.00,0.0015
3501.00,0.0016
3500.00,0.0016
3499.00,0.0016
3498.00,0.0017
3497.00,0.0018
3496.00,0.0018
3495.00,0.0018
3494.00,0.0018
3493.00,0.0017
3492.00,0.0017
3491.00,0.0017
3490.00,0.0017
3489.00,0.0018
3488.00,0.0018
3487.00,0.0018
3486.00,0.0018
3485.00,0.0018
3484.00,0.0018
3483.00,0.0018
3482.00,0.0019
3481.00,0.0019
3480.00,0.0019
3479.00,0.0018
3478.00,0.0018
3477.00,0.0018
3476.00,0.0019
3475.00,0.0019
3474.00,0.0020
3473.00,0.0020
3472.00,0.0020
3471.00,0.0020
3470.00,0.0020
3469.00,0.0019
3468.00,0.0020
3467.00,0.0020
3466.00,0.0020
3465.00,0.0021
3464.00,0.0021
3463.00,0.0021
3462.00,0.0021
3461.00,0.0021
3460.00,0.0021
3459.00,0.0021
3458.00,0.0021
3457.00,0.0021
3456.00,0.0021
3455.00,0.0021
3454.00,0.0021
3453.00,0.0022
3452.00,0.0022
3451.00,0.0023
3450.00,0.0023
3449.00,0.0023
3448.00,0.0023
3447.00,0.0023
3446.00,0.0023
3445.00,0.0023
3444.00,0.0023
3443.00,0.0023
3442.00,0.0023
3441.00,0.0024
3440.00,0.0023
3439.00,0.0023
3438.00,0.0023
3437.00,0.0023
3436.00,0.0023
3435.00,0.0024
3434.00,0.0024
3433.00,0.0025
3432.00,0.0026
3431.00,0.0026
3430.00,0.0027
3429.00,0.0027
3428.00,0.0027
3427.00,0.0027
3426.00,0.0027
3425.00,0.0026
3424.00,0.0026
3423.00,0.0026
3422.00,0.0026
3421.00,0.0026
3420.00,0.0026
3419.00,0.0026
3418.00,0.0026
3417.00,0.0026
3416.00,0.0026
3415.00,0.0026
3414.00,0.0027
3413.00,0.0027
3412.00,0.0027
3411.00,0.0028
3410.00,0.0028
3409.00,0.0028
3408.00,0.0028
3407.00,0.0028
3406.00,0.0028
3405.00,0.0028
3404.00,0.0028
3403.00,0.0028
3402.00,0.0028
3401.00,0.0028
3400.00,0.0028
3399.00,0.0028
3398.00,0.0028
3397.00,0.0028
3396.00,0.0028
3395.00,0.0028
3394.00,0.0028
3393.00,0.0029
3392.00,0.0029
3391.00,0.0029
3390.00,0.0029
3389.00,0.0030
3388.00,0.0030
3387.00,0.0030
3386.00,0.0030
3385.00,0.0030
3384.00,0.0030
3383.00,0.0030
3382.00,0.0030
3381.00,0.0029
3380.00,0.0029
3379.00,0.0029
3378.00,0.0029
3377.00,0.0029
3376.00,0.0029
3375.00,0.0029
3374.00,0.0028
3373.00,0.0029
3372.00,0.0029
3371.00,0.0029
3370.00,0.0030
3369.00,0.0030
3368.00,0.0030
3367.00,0.0030
3366.00,0.0030
3365.00,0.0030
3364.00,0.0030
3363.00,0.0030
3362.00,0.0030
3361.00,0.0030
3360.00,0.0030
3359.00,0.0031
3358.00,0.0031
3357.00,0.0030
3356.00,0.0030
3355.00,0.0030
3354.00,0.0030
3353.00,0.0030
3352.00,0.0030
3351.00,0.0030
3350.00,0.0030
3349.00,0.0030
3348.00,0.0031
3347.00,0.0030
3346.00,0.0030
3345.00,0.0030
3344.00,0.0030
3343.00,0.0031
3342.00,0.0031
3341.00,0.0031
3340.00,0.0031
3339.00,0.0031
3338.00,0.0031
3337.00,0.0031
3336.00,0.0030
3335.00,0.0030
3334.00,0.0029
3333.00,0.0029
3332.00,0.0029
3331.00,0.0030
3330.00,0.0030
3329.00,0.0030
3328.00,0.0030
3327.00,0.0030
3326.00,0.0030
3325.00,0.0030
3324.00,0.0030
3323.00,0.0030
3322.00,0.0030
3321.00,0.0030
3320.00,0.0030
3319.00,0.0030
3318.00,0.0030
3317.00,0.0029
3316.00,0.0029
3315.00,0.0029
3314.00,0.0030
3313.00,0.0030
3312.00,0.0030
3311.00,0.0030
3310.00,0.0030
3309.00,0.0030
3308.00,0.0030
3307.00,0.0031
3306.00,0.0032
3305.00,0.0032
3304.00,0.0033
3303.00,0.0033
3302.00,0.0033
3301.00,0.0032
3300.00,0.0032
3299.00,0.0031
3298.00,0.0031
3297.00,0.0030
3296.00,0.0030
3295.00,0.0030
3294.00,0.0030
3293.00,0.0030
3292.00,0.0030
3291.00,0.0029
3290.00,0.0029
3289.00,0.0029
3288.00,0.0028
3287.00,0.0028
3286.00,0.0028
3285.00,0.0029
3284.00,0.0029
3283.00,0.0029
3282.00,0.0028
3281.00,0.0028
3280.00,0.0028
3279.00,0.0029
3278.00,0.0028
3277.00,0.0028
3276.00,0.0028
3275.00,0.0028
3274.00,0.0027
3273.00,0.0027
3272.00,0.0026
3271.00,0.0026
3270.00,0.0026
3269.00,0.0026
3268.00,0.0026
3267.00,0.0027
3266.00,0.0027
3265.00,0.0027
3264.00,0.0027
3263.00,0.0027
3262.00,0.0028
3261.00,0.0027
3260.00,0.0027
3259.00,0.0027
3258.00,0.0026
3257.00,0.0026
3256.00,0.0026
3255.00,0.0026
3254.00,0.0025
3253.00,0.0025
3252.00,0.0025
3251.00,0.0025
3250.00,0.0025
3249.00,0.0025
3248.00,0.0025
3247.00,0.0026
3246.00,0.0026
3245.00,0.0025
3244.00,0.0025
3243.00,0.0025
3242.00,0.0025
3241.00,0.0025
3240.00,0.0025
3239.00,0.0025
3238.00,0.0025
3237.00,0.0025
3236.00,0.0026
3235.00,0.0026
3234.00,0.0026
3233.00,0.0026
3232.00,0.0026
3231.00,0.0026
3230.00,0.0026
3229.00,0.0026
3228.00,0.0026
3227.00,0.0026
3226.00,0.0027
3225.00,0.0027
3224.00,0.0028
3223.00,0.0028
3222.00,0.0028
3221.00,0.0029
3220.00,0.0029
3219.00,0.0029
3218.00,0.0029
3217.00,0.0029
3216.00,0.0029
3215.00,0.0029
3214.00,0.0028
3213.00,0.0029
3212.00,0.0029
3211.00,0.0030
3210.00,0.0030
3209.00,0.0030
3208.00,0.0031
3207.00,0.0031
3206.00,0.0031
3205.00,0.0031
3204.00,0.0032
3203.00,0.0032
3202.00,0.0032
3201.00,0.0032
3200.00,0.0032
3199.00,0.0032
3198.00,0.0032
3197.00,0.0033
3196.00,0.0033
3195.00,0.0033
3194.00,0.0033
3193.00,0.0033
3192.00,0.0032
3191.00,0.0032
3190.00,0.0032
3189.00,0.0032
3188.00,0.0031
3187.00,0.0031
3186.00,0.0031
3185.00,0.0031
3184.00,0.0031
3183.00,0.0031
3182.00,0.0030
3181.00,0.0030
3180.00,0.0031
3179.00,0.0031
3178.00,0.0031
3177.00,0.0031
3176.00,0.0031
3175.00,0.0032
3174.00,0.0032
3173.00,0.0031
3172.00,0.0031
3171.00,0.0031
3170.00,0.0031
3169.00,0.0030
3168.00,0.0030
3167.00,0.0030
3166.00,0.0030
3165.00,0.0029
3164.00,0.0029
3163.00,0.0029
3162.00,0.0029
3161.00,0.0029
3160.00,0.0029
3159.00,0.0029
3158.00,0.0028
3157.00,0.0028
3156.00,0.0028
3155.00,0.0028
3154.00,0.0029
3153.00,0.0029
3152.00,0.0029
3151.00,0.0029
3150.00,0.0029
3149.00,0.0029
3148.00,0.0029
3147.00,0.0029
3146.00,0.0029
3145.00,0.0029
3144.00,0.0030
3143.00,0.0030
3142.00,0.0030
3141.00,0.0030
3140.00,0.0029
3139.00,0.0029
3138.00,0.0029
3137.00,0.0029
3136.00,0.0028
3135.00,0.0028
3134.00,0.0028
3133.00,0.0027
3132.00,0.0027
3131.00,0.0027
3130.00,0.0027
3129.00,0.0027
3128.00,0.0027
3127.00,0.0027
3126.00,0.0027
3125.00,0.0026
3124.00,0.0026
3123.00,0.0026
3122.00,0.0026
3121.00,0.0025
3120.00,0.0025
3119.00,0.0025
3118.00,0.0024
3117.00,0.0025
3116.00,0.0025
3115.00,0.0025
3114.00,0.0025
3113.00,0.0025
3112.00,0.0025
3111.00,0.0025
3110.00,0.0024
3109.00,0.0024
3108.00,0.0024
3107.00,0.0024
3106.00,0.0024
3105.00,0.0024
3104.00,0.0025
3103.00,0.0024
3102.00,0.0024
3101.00,0.0024
3100.00,0.0024
3099.00,0.0023
3098.00,0.0023
3097.00,0.0023
3096.00,0.0023
3095.00,0.0024
3094.00,0.0024
3093.00,0.0024
3092.00,0.0024
3091.00,0.0024
3090.00,0.0024
3089.00,0.0024
3088.00,0.0024
3087.00,0.0024
3086.00,0.0024
3085.00,0.0024
3084.00,0.0024
3083.00,0.0024
3082.00,0.0024
3081.00,0.0024
3080.00,0.0024
3079.00,0.0025
3078.00,0.0025
3077.00,0.0025
3076.00,0.0024
3075.00,0.0024
3074.00,0.0024
3073.00,0.0024
3072.00,0.0024
3071.00,0.0024
3070.00,0.0024
3069.00,0.0024
3068.00,0.0024
3067.00,0.0025
3066.00,0.0025
3065.00,0.0025
3064.00,0.0026
3063.00,0.0026
3062.00,0.0026
3061.00,0.0026
3060.00,0.0027
3059.00,0.0027
3058.00,0.0027
3057.00,0.0027
3056.00,0.0027
3055.00,0.0027
3054.00,0.0028
3053.00,0.0028
3052.00,0.0028
3051.00,0.0028
3050.00,0.0028
3049.00,0.0029
3048.00,0.0029
3047.00,0.0029
3046.00,0.0029
3045.00,0.0029
3044.00,0.0029
3043.00,0.0029
3042.00,0.0030
3041.00,0.0030
3040.00,0.0031
3039.00,0.0031
3038.00,0.0031
3037.00,0.0031
3036.00,0.0032
3035.00,0.0032
3034.00,0.0032
3033.00,0.0033
3032.00,0.0033
3031.00,0.0033
3030.00,0.0034
3029.00,0.0034
3028.00,0.0034
3027.00,0.0035
3026.00,0.0036
3025.00,0.0036
3024.00,0.0037
3023.00,0.0038
3022.00,0.0039
3021.00,0.0040
3020.00,0.0041
3019.00,0.0042
3018.00,0.0042
3017.00,0.0043
3016.00,0.0044
3015.00,0.0045
3014.00,0.0046
3013.00,0.0048
3012.00,0.0049
3011.00,0.0050
3010.00,0.0052
3009.00,0.0053
3008.00,0.0055
3007.00,0.0056
3006.00,0.0057
3005.00,0.0059
3004.00,0.0061
3003.00,0.0063
3002.00,0.0066
3001.00,0.0068
3000.00,0.0071
2999.00,0.0074
2998.00,0.0077
2997.00,0.0080
2996.00,0.0084
2995.00,0.0088
2994.00,0.0092
2993.00,0.0097
2992.00,0.0103
2991.00,0.0108
2990.00,0.0115
2989.00,0.0122
2988.00,0.0130
2987.00,0.0139
2986.00,0.0149
2985.00,0.0160
2984.00,0.0172
2983.00,0.0186
2982.00,0.0202
2981.00,0.0220
2980.00,0.0241
2979.00,0.0265
2978.00,0.0292
2977.00,0.0322
2976.00,0.0357
2975.00,0.0398
2974.00,0.0445
2973.00,0.0498
2972.00,0.0559
2971.00,0.0628
2970.00,0.0705
2969.00,0.0791
2968.00,0.0885
2967.00,0.0988
2966.00,0.1097
2965.00,0.1213
2964.00,0.1330
2963.00,0.1444
2962.00,0.1548
2961.00,0.1637
2960.00,0.1707
2959.00,0.1756
2958.00,0.1789
2957.00,0.1812
2956.00,0.1832
2955.00,0.1855
2954.00,0.1882
2953.00,0.1911
2952.00,0.1933
2951.00,0.1939
2950.00,0.1920
2949.00,0.1870
2948.00,0.1789
2947.00,0.1682
2946.00,0.1560
2945.00,0.1435
2944.00,0.1318
2943.00,0.1218
2942.00,0.1141
2941.00,0.1088
2940.00,0.1058
2939.00,0.1049
2938.00,0.1059
2937.00,0.1086
2936.00,0.1128
2935.00,0.1185
2934.00,0.1254
2933.00,0.1334
2932.00,0.1424
2931.00,0.1522
2930.00,0.1625
2929.00,0.1729
2928.00,0.1833
2927.00,0.1933
2926.00,0.2028
2925.00,0.2117
2924.00,0.2203
2923.00,0.2285
2922.00,0.2363
2921.00,0.2436
2920.00,0.2497
2919.00,0.2540
2918.00,0.2558
2917.00,0.2545
2916.00,0.2503
2915.00,0.2437
2914.00,0.2357
2913.00,0.2271
2912.00,0.2190
2911.00,0.2117
2910.00,0.2053
2909.00,0.1997
2908.00,0.1946
2907.00,0.1896
2906.00,0.1843
2905.00,0.1787
2904.00,0.1726
2903.00,0.1662
2902.00,0.1597
2901.00,0.1531
2900.00,0.1466
2899.00,0.1404
2898.00,0.1346
2897.00,0.1292
2896.00,0.1244
2895.00,0.1201
2894.00,0.1164
2893.00,0.1134
2892.00,0.1109
2891.00,0.1090
2890.00,0.1075
2889.00,0.1065
2888.00,0.1059
2887.00,0.1055
2886.00,0.1055
2885.00,0.1058
2884.00,0.1065
2883.00,0.1076
2882.00,0.1090
2881.00,0.1106
2880.00,0.1121
2879.00,0.1132
2878.00,0.1138
2877.00,0.1137
2876.00,0.1130
2875.00,0.1122
2874.00,0.1117
2873.00,0.1117
2872.00,0.1125
2871.00,0.1138
2870.00,0.1155
2869.00,0.1171
2868.00,0.1179
2867.00,0.1172
2866.00,0.1147
2865.00,0.1102
2864.00,0.1041
2863.00,0.0972
2862.00,0.0904
2861.00,0.0845
2860.00,0.0800
2859.00,0.0770
2858.00,0.0754
2857.00,0.0749
2856.00,0.0754
2855.00,0.0765
2854.00,0.0781
2853.00,0.0801
2852.00,0.0822
2851.00,0.0841
2850.00,0.0858
2849.00,0.0872
2848.00,0.0887
2847.00,0.0907
2846.00,0.0935
2845.00,0.0974
2844.00,0.1024
2843.00,0.1082
2842.00,0.1142
2841.00,0.1198
2840.00,0.1240
2839.00,0.1262
2838.00,0.1255
2837.00,0.1216
2836.00,0.1147
2835.00,0.1054
2834.00,0.0946
2833.00,0.0836
2832.00,0.0731
2831.00,0.0638
2830.00,0.0560
2829.00,0.0496
2828.00,0.0444
2827.00,0.0402
2826.00,0.0368
2825.00,0.0339
2824.00,0.0315
2823.00,0.0295
2822.00,0.0277
2821.00,0.0262
2820.00,0.0248
2819.00,0.0237
2818.00,0.0227
2817.00,0.0218
2816.00,0.0210
2815.00,0.0203
2814.00,0.0197
2813.00,0.0191
2812.00,0.0185
2811.00,0.0180
2810.00,0.0175
2809.00,0.0170
2808.00,0.0164
2807.00,0.0158
2806.00,0.0151
2805.00,0.0145
2804.00,0.0138
2803.00,0.0133
2802.00,0.0128
2801.00,0.0124
2800.00,0.0120
2799.00,0.0117
2798.00,0.0115
2797.00,0.0113
2796.00,0.0110
2795.00,0.0108
2794.00,0.0105
2793.00,0.0102
2792.00,0.0099
2791.00,0.0095
2790.00,0.0092
2789.00,0.0088
2788.00,0.0085
2787.00,0.0082
2786.00,0.0079
2785.00,0.0076
2784.00,0.0074
2783.00,0.0071
2782.00,0.0069
2781.00,0.0067
2780.00,0.0065
2779.00,0.0063
2778.00,0.0062
2777.00,0.0061
2776.00,0.0059
2775.00,0.0058
2774.00,0.0057
2773.00,0.0056
2772.00,0.0056
2771.00,0.0055
2770.00,0.0055
2769.00,0.0055
2768.00,0.0054
2767.00,0.0054
2766.00,0.0054
2765.00,0.0053
2764.00,0.0053
2763.00,0.0053
2762.00,0.0053
2761.00,0.0052
2760.00,0.0052
2759.00,0.0051
2758.00,0.0051
2757.00,0.0050
2756.00,0.0050
2755.00,0.0050
2754.00,0.0050
2753.00,0.0050
2752.00,0.0050
2751.00,0.0049
2750.00,0.0049
2749.00,0.0050
2748.00,0.0050
2747.00,0.0050
2746.00,0.0051
2745.00,0.0051
2744.00,0.0052
2743.00,0.0053
2742.00,0.0054
2741.00,0.0055
2740.00,0.0057
2739.00,0.0057
2738.00,0.0058
2737.00,0.0060
2736.00,0.0061
2735.00,0.0062
2734.00,0.0063
2733.00,0.0065
2732.00,0.0066
2731.00,0.0068
2730.00,0.0070
2729.00,0.0072
2728.00,0.0075
2727.00,0.0078
2726.00,0.0080
2725.00,0.0083
2724.00,0.0084
2723.00,0.0085
2722.00,0.0084
2721.00,0.0082
2720.00,0.0080
2719.00,0.0076
2718.00,0.0073
2717.00,0.0070
2716.00,0.0067
2715.00,0.0065
2714.00,0.0063
2713.00,0.0061
2712.00,0.0059
2711.00,0.0057
2710.00,0.0056
2709.00,0.0055
2708.00,0.0053
2707.00,0.0052
2706.00,0.0051
2705.00,0.0050
2704.00,0.0049
2703.00,0.0048
2702.00,0.0047
2701.00,0.0047
2700.00,0.0046
2699.00,0.0046
2698.00,0.0045
2697.00,0.0045
2696.00,0.0045
2695.00,0.0045
2694.00,0.0045
2693.00,0.0045
2692.00,0.0045
2691.00,0.0045
2690.00,0.0045
2689.00,0.0045
2688.00,0.0045
2687.00,0.0045
2686.00,0.0045
2685.00,0.0045
2684.00,0.0045
2683.00,0.0045
2682.00,0.0045
2681.00,0.0045
2680.00,0.0045
2679.00,0.0045
2678.00,0.0045
2677.00,0.0045
2676.00,0.0045
2675.00,0.0045
2674.00,0.0044
2673.00,0.0044
2672.00,0.0044
2671.00,0.0044
2670.00,0.0044
2669.00,0.0043
2668.00,0.0043
2667.00,0.0044
2666.00,0.0044
2665.00,0.0045
2664.00,0.0045
2663.00,0.0046
2662.00,0.0046
2661.00,0.0046
2660.00,0.0046
2659.00,0.0046
2658.00,0.0046
2657.00,0.0046
2656.00,0.0045
2655.00,0.0044
2654.00,0.0044
2653.00,0.0043
2652.00,0.0043
2651.00,0.0042
2650.00,0.0042
2649.00,0.0042
2648.00,0.0042
2647.00,0.0042
2646.00,0.0042
2645.00,0.0041
2644.00,0.0041
2643.00,0.0040
2642.00,0.0039
2641.00,0.0039
2640.00,0.0038
2639.00,0.0038
2638.00,0.0038
2637.00,0.0037
2636.00,0.0037
2635.00,0.0037
2634.00,0.0036
2633.00,0.0036
2632.00,0.0037
2631.00,0.0037
2630.00,0.0037
2629.00,0.0038
2628.00,0.0038
2627.00,0.0038
2626.00,0.0039
2625.00,0.0039
2624.00,0.0039
2623.00,0.0039
2622.00,0.0040
2621.00,0.0040
2620.00,0.0041
2619.00,0.0040
2618.00,0.0040
2617.00,0.0039
2616.00,0.0039
2615.00,0.0038
2614.00,0.0038
2613.00,0.0038
2612.00,0.0037
2611.00,0.0037
2610.00,0.0036
2609.00,0.0035
2608.00,0.0035
2607.00,0.0034
2606.00,0.0034
2605.00,0.0033
2604.00,0.0032
2603.00,0.0031
2602.00,0.0031
2601.00,0.0031
2600.00,0.0031
2599.00,0.0031
2598.00,0.0031
2597.00,0.0030
2596.00,0.0030
2595.00,0.0031
2594.00,0.0031
2593.00,0.0031
2592.00,0.0032
2591.00,0.0032
2590.00,0.0032
2589.00,0.0033
2588.00,0.0034
2587.00,0.0035
2586.00,0.0036
2585.00,0.0037
2584.00,0.0037
2583.00,0.0037
2582.00,0.0037
2581.00,0.0037
2580.00,0.0036
2579.00,0.0035
2578.00,0.0034
2577.00,0.0033
2576.00,0.0032
2575.00,0.0031
2574.00,0.0030
2573.00,0.0029
2572.00,0.0028
2571.00,0.0027
2570.00,0.0026
2569.00,0.0025
2568.00,0.0025
2567.00,0.0025
2566.00,0.0025
2565.00,0.0024
2564.00,0.0023
2563.00,0.0022
2562.00,0.0021
2561.00,0.0021
2560.00,0.0021
2559.00,0.0022
2558.00,0.0022
2557.00,0.0022
2556.00,0.0021
2555.00,0.0021
2554.00,0.0021
2553.00,0.0021
2552.00,0.0021
2551.00,0.0021
2550.00,0.0021
2549.00,0.0021
2548.00,0.0021
2547.00,0.0020
2546.00,0.0019
2545.00,0.0019
2544.00,0.0018
2543.00,0.0018
2542.00,0.0017
2541.00,0.0017
2540.00,0.0017
2539.00,0.0017
2538.00,0.0017
2537.00,0.0017
2536.00,0.0017
2535.00,0.0016
2534.00,0.0016
2533.00,0.0015
2532.00,0.0014
2531.00,0.0014
2530.00,0.0014
2529.00,0.0014
2528.00,0.0014
2527.00,0.0014
2526.00,0.0013
2525.00,0.0012
2524.00,0.0012
2523.00,0.0011
2522.00,0.0011
2521.00,0.0012
2520.00,0.0012
2519.00,0.0012
2518.00,0.0011
2517.00,0.0011
2516.00,0.0010
2515.00,0.0010
2514.00,0.0010
2513.00,0.0010
2512.00,0.0010
2511.00,0.0010
2510.00,0.0010
2509.00,0.0010
2508.00,0.0010
2507.00,0.0010
2506.00,0.0010
2505.00,0.0010
2504.00,0.0010
2503.00,0.0010
2502.00,0.0010
2501.00,0.0010
2500.00,0.0010
2499.00,0.0010
2498.00,0.0011
2497.00,0.0011
2496.00,0.0011
2495.00,0.0011
2494.00,0.0010
2493.00,0.0010
2492.00,0.0010
2491.00,0.0010
2490.00,0.0010
2489.00,0.0011
2488.00,0.0011
2487.00,0.0011
2486.00,0.0011
2485.00,0.0011
2484.00,0.0010
2483.00,0.0010
2482.00,0.0009
2481.00,0.0009
2480.00,0.0009
2479.00,0.0008
2478.00,0.0009
2477.00,0.0009
2476.00,0.0009
2475.00,0.0009
2474.00,0.0009
2473.00,0.0008
2472.00,0.0008
2471.00,0.0008
2470.00,0.0008
2469.00,0.0008
2468.00,0.0008
2467.00,0.0008
2466.00,0.0008
2465.00,0.0008
2464.00,0.0009
2463.00,0.0009
2462.00,0.0010
2461.00,0.0010
2460.00,0.0010
2459.00,0.0010
2458.00,0.0010
2457.00,0.0010
2456.00,0.0010
2455.00,0.0010
2454.00,0.0010
2453.00,0.0011
2452.00,0.0011
2451.00,0.0012
2450.00,0.0012
2449.00,0.0011
2448.00,0.0011
2447.00,0.0010
2446.00,0.0010
2445.00,0.0010
2444.00,0.0010
2443.00,0.0010
2442.00,0.0011
2441.00,0.0012
2440.00,0.0012
2439.00,0.0011
2438.00,0.0011
2437.00,0.0010
2436.00,0.0010
2435.00,0.0010
2434.00,0.0011
2433.00,0.0011
2432.00,0.0012
2431.00,0.0012
2430.00,0.0012
2429.00,0.0012
2428.00,0.0011
2427.00,0.0011
2426.00,0.0010
2425.00,0.0010
2424.00,0.0010
2423.00,0.0009
2422.00,0.0009
2421.00,0.0008
2420.00,0.0008
2419.00,0.0008
2418.00,0.0008
2417.00,0.0009
2416.00,0.0009
2415.00,0.0009
2414.00,0.0009
2413.00,0.0009
2412.00,0.0009
2411.00,0.0009
2410.00,0.0009
2409.00,0.0009
2408.00,0.0009
2407.00,0.0010
2406.00,0.0010
2405.00,0.0010
2404.00,0.0010
2403.00,0.0009
2402.00,0.0009
2401.00,0.0009
2400.00,0.0008
2399.00,0.0008
2398.00,0.0008
2397.00,0.0008
2396.00,0.0008
2395.00,0.0008
2394.00,0.0007
2393.00,0.0007
2392.00,0.0007
2391.00,0.0007
2390.00,0.0007
2389.00,0.0007
2388.00,0.0007
2387.00,0.0007
2386.00,0.0007
2385.00,0.0007
2384.00,0.0007
2383.00,0.0006
2382.00,0.0006
2381.00,0.0005
2380.00,0.0004
2379.00,0.0004
2378.00,0.0004
2377.00,0.0004
2376.00,0.0004
2375.00,0.0003
2374.00,0.0003
2373.00,0.0004
2372.00,0.0005
2371.00,0.0006
2370.00,0.0006
2369.00,0.0006
2368.00,0.0005
2367.00,0.0004
2366.00,0.0005
2365.00,0.0005
2364.00,0.0006
2363.00,0.0006
2362.00,0.0007
2361.00,0.0007
2360.00,0.0008
2359.00,0.0009
2358.00,0.0009
2357.00,0.0009
2356.00,0.0008
2355.00,0.0007
2354.00,0.0007
2353.00,0.0007
2352.00,0.0007
2351.00,0.0007
2350.00,0.0007
2349.00,0.0007
2348.00,0.0007
2347.00,0.0007
2346.00,0.0007
2345.00,0.0007
2344.00,0.0008
2343.00,0.0009
2342.00,0.0009
2341.00,0.0009
2340.00,0.0009
2339.00,0.0009
2338.00,0.0010
2337.00,0.0010
2336.00,0.0010
2335.00,0.0010
2334.00,0.0010
2333.00,0.0009
2332.00,0.0007
2331.00,0.0006
2330.00,0.0006
2329.00,0.0008
2328.00,0.0010
2327.00,0.0013
2326.00,0.0017
2325.00,0.0020
2324.00,0.0021
2323.00,0.0021
2322.00,0.0019
2321.00,0.0017
2320.00,0.0016
2319.00,0.0016
2318.00,0.0015
2317.00,0.0015
2316.00,0.0014
2315.00,0.0013
2314.00,0.0012
2313.00,0.0011
2312.00,0.0010
2311.00,0.0009
2310.00,0.0009
2309.00,0.0009
2308.00,0.0010
2307.00,0.0011
2306.00,0.0011
2305.00,0.0011
2304.00,0.0011
2303.00,0.0011
2302.00,0.0011
2301.00,0.0011
2300.00,0.0011
2299.00,0.0011
2298.00,0.0011
2297.00,0.0011
2296.00,0.0012
2295.00,0.0012
2294.00,0.0013
2293.00,0.0014
2292.00,0.0015
2291.00,0.0016
2290.00,0.0016
2289.00,0.0016
2288.00,0.0016
2287.00,0.0017
2286.00,0.0017
2285.00,0.0016
2284.00,0.0016
2283.00,0.0015
2282.00,0.0015
2281.00,0.0014
2280.00,0.0014
2279.00,0.0014
2278.00,0.0014
2277.00,0.0013
2276.00,0.0012
2275.00,0.0012
2274.00,0.0013
2273.00,0.0014
2272.00,0.0014
2271.00,0.0014
2270.00,0.0013
2269.00,0.0013
2268.00,0.0014
2267.00,0.0014
2266.00,0.0014
2265.00,0.0013
2264.00,0.0012
2263.00,0.0011
2262.00,0.0011
2261.00,0.0011
2260.00,0.0012
2259.00,0.0014
2258.00,0.0015
2257.00,0.0015
2256.00,0.0014
2255.00,0.0012
2254.00,0.0011
2253.00,0.0010
2252.00,0.0009
2251.00,0.0008
2250.00,0.0006
2249.00,0.0004
2248.00,0.0003
2247.00,0.0003
2246.00,0.0004
2245.00,0.0005
2244.00,0.0007
2243.00,0.0008
2242.00,0.0008
2241.00,0.0007
2240.00,0.0006
2239.00,0.0006
2238.00,0.0005
2237.00,0.0005
2236.00,0.0005
2235.00,0.0006
2234.00,0.0007
2233.00,0.0008
2232.00,0.0009
2231.00,0.0009
2230.00,0.0008
2229.00,0.0008
2228.00,0.0008
2227.00,0.0007
2226.00,0.0006
2225.00,0.0004
2224.00,0.0003
2223.00,0.0003
2222.00,0.0003
2221.00,0.0004
2220.00,0.0004
2219.00,0.0005
2218.00,0.0005
2217.00,0.0004
2216.00,0.0004
2215.00,0.0005
2214.00,0.0006
2213.00,0.0007
2212.00,0.0008
2211.00,0.0008
2210.00,0.0008
2209.00,0.0008
2208.00,0.0006
2207.00,0.0005
2206.00,0.0003
2205.00,0.0003
2204.00,0.0003
2203.00,0.0004
2202.00,0.0005
2201.00,0.0006
2200.00,0.0006
2199.00,0.0005
2198.00,0.0005
2197.00,0.0005
2196.00,0.0005
2195.00,0.0004
2194.00,0.0002
2193.00,0.0001
2192.00,0.0001
2191.00,0.0003
2190.00,0.0005
2189.00,0.0007
2188.00,0.0009
2187.00,0.0009
2186.00,0.0010
2185.00,0.0011
2184.00,0.0010
2183.00,0.0008
2182.00,0.0004
2181.00,0.0002
2180.00,0.0002
2179.00,0.0005
2178.00,0.0008
2177.00,0.0009
2176.00,0.0009
2175.00,0.0008
2174.00,0.0005
2173.00,0.0003
2172.00,0.0002
2171.00,0.0003
2170.00,0.0004
2169.00,0.0006
2168.00,0.0009
2167.00,0.0011
2166.00,0.0013
2165.00,0.0014
2164.00,0.0016
2163.00,0.0018
2162.00,0.0017
2161.00,0.0012
2160.00,0.0000
2159.00,-0.0015
2158.00,-0.0025
2157.00,-0.0028
2156.00,-0.0026
2155.00,-0.0022
2154.00,-0.0019
2153.00,-0.0017
2152.00,-0.0015
2151.00,-0.0013
2150.00,-0.0012
2149.00,-0.0012
2148.00,-0.0013
2147.00,-0.0013
2146.00,-0.0014
2145.00,-0.0014
2144.00,-0.0014
2143.00,-0.0013
2142.00,-0.0013
2141.00,-0.0011
2140.00,-0.0009
2139.00,-0.0008
2138.00,-0.0008
2137.00,-0.0011
2136.00,-0.0014
2135.00,-0.0017
2134.00,-0.0018
2133.00,-0.0019
2132.00,-0.0018
2131.00,-0.0017
2130.00,-0.0015
2129.00,-0.0012
2128.00,-0.0009
2127.00,-0.0008
2126.00,-0.0008
2125.00,-0.0008
2124.00,-0.0008
2123.00,-0.0007
2122.00,-0.0005
2121.00,-0.0004
2120.00,-0.0004
2119.00,-0.0003
2118.00,-0.0002
2117.00,-0.0002
2116.00,-0.0002
2115.00,-0.0002
2114.00,-0.0002
2113.00,-0.0001
2112.00,-0.0000
2111.00,0.0000
2110.00,0.0000
2109.00,-0.0000
2108.00,-0.0001
2107.00,0.0000
2106.00,0.0002
2105.00,0.0003
2104.00,0.0004
2103.00,0.0004
2102.00,0.0004
2101.00,0.0004
2100.00,0.0004
2099.00,0.0003
2098.00,0.0001
2097.00,-0.0001
2096.00,-0.0003
2095.00,-0.0004
2094.00,-0.0004
2093.00,-0.0003
2092.00,-0.0002
2091.00,-0.0002
2090.00,-0.0001
2089.00,-0.0001
2088.00,-0.0000
2087.00,-0.0000
2086.00,-0.0000
2085.00,0.0000
2084.00,0.0001
2083.00,0.0002
2082.00,0.0002
2081.00,0.0002
2080.00,0.0002
2079.00,0.0002
2078.00,0.0002
2077.00,0.0003
2076.00,0.0003
2075.00,0.0001
2074.00,-0.0001
2073.00,-0.0002
2072.00,-0.0002
2071.00,-0.0001
2070.00,-0.0001
2069.00,-0.0001
2068.00,-0.0001
2067.00,-0.0001
2066.00,-0.0001
2065.00,-0.0001
2064.00,-0.0001
2063.00,-0.0003
2062.00,-0.0004
2061.00,-0.0004
2060.00,-0.0004
2059.00,-0.0004
2058.00,-0.0003
2057.00,-0.0001
2056.00,0.0001
2055.00,0.0002
2054.00,0.0003
2053.00,0.0006
2052.00,0.0009
2051.00,0.0012
2050.00,0.0011
2049.00,0.0008
2048.00,0.0004
2047.00,0.0001
2046.00,-0.0001
2045.00,-0.0003
2044.00,-0.0003
2043.00,-0.0004
2042.00,-0.0003
2041.00,-0.0002
2040.00,-0.0002
2039.00,-0.0003
2038.00,-0.0005
2037.00,-0.0007
2036.00,-0.0007
2035.00,-0.0007
2034.00,-0.0007
2033.00,-0.0008
2032.00,-0.0009
2031.00,-0.0009
2030.00,-0.0009
2029.00,-0.0008
2028.00,-0.0006
2027.00,-0.0004
2026.00,-0.0004
2025.00,-0.0005
2024.00,-0.0008
2023.00,-0.0009
2022.00,-0.0009
2021.00,-0.0007
2020.00,-0.0005
2019.00,-0.0004
2018.00,-0.0004
2017.00,-0.0003
2016.00,-0.0002
2015.00,-0.0001
2014.00,-0.0002
2013.00,-0.0004
2012.00,-0.0007
2011.00,-0.0009
2010.00,-0.0011
2009.00,-0.0013
2008.00,-0.0014
2007.00,-0.0017
2006.00,-0.0018
2005.00,-0.0017
2004.00,-0.0014
2003.00,-0.0011
2002.00,-0.0009
2001.00,-0.0008
2000.00,-0.0008
1999.00,-0.0007
1998.00,-0.0006
1997.00,-0.0006
1996.00,-0.0008
1995.00,-0.0009
1994.00,-0.0009
1993.00,-0.0007
1992.00,-0.0005
1991.00,-0.0004
1990.00,-0.0004
1989.00,-0.0003
1988.00,-0.0002
1987.00,-0.0002
1986.00,-0.0001
1985.00,-0.0001
1984.00,-0.0000
1983.00,0.0001
1982.00,0.0005
1981.00,0.0009
1980.00,0.0012
1979.00,0.0012
1978.00,0.0008
1977.00,0.0002
1976.00,-0.0004
1975.00,-0.0009
1974.00,-0.0012
1973.00,-0.0013
1972.00,-0.0012
1971.00,-0.0012
1970.00,-0.0012
1969.00,-0.0013
1968.00,-0.0014
1967.00,-0.0016
1966.00,-0.0016
1965.00,-0.0016
1964.00,-0.0015
1963.00,-0.0015
1962.00,-0.0016
1961.00,-0.0017
1960.00,-0.0017
1959.00,-0.0018
1958.00,-0.0018
1957.00,-0.0017
1956.00,-0.0017
1955.00,-0.0018
1954.00,-0.0018
1953.00,-0.0018
1952.00,-0.0017
1951.00,-0.0017
1950.00,-0.0017
1949.00,-0.0017
1948.00,-0.0016
1947.00,-0.0016
1946.00,-0.0016
1945.00,-0.0016
1944.00,-0.0015
1943.00,-0.0015
1942.00,-0.0014
1941.00,-0.0012
1940.00,-0.0011
1939.00,-0.0011
1938.00,-0.0011
1937.00,-0.0011
1936.00,-0.0011
1935.00,-0.0011
1934.00,-0.0012
1933.00,-0.0012
1932.00,-0.0013
1931.00,-0.0013
1930.00,-0.0012
1929.00,-0.0010
1928.00,-0.0008
1927.00,-0.0007
1926.00,-0.0007
1925.00,-0.0007
1924.00,-0.0007
1923.00,-0.0007
1922.00,-0.0006
1921.00,-0.0005
1920.00,-0.0004
1919.00,-0.0004
1918.00,-0.0004
1917.00,-0.0004
1916.00,-0.0004
1915.00,-0.0005
1914.00,-0.0005
1913.00,-0.0004
1912.00,-0.0002
1911.00,-0.0002
1910.00,-0.0002
1909.00,-0.0003
1908.00,-0.0005
1907.00,-0.0005
1906.00,-0.0004
1905.00,-0.0003
1904.00,-0.0002
1903.00,-0.0001
1902.00,-0.0001
1901.00,-0.0002
1900.00,-0.0002
1899.00,-0.0002
1898.00,-0.0001
1897.00,0.0000
1896.00,0.0001
1895.00,-0.0000
1894.00,-0.0001
1893.00,-0.0002
1892.00,-0.0001
1891.00,-0.0001
1890.00,-0.0000
1889.00,-0.0000
1888.00,-0.0001
1887.00,-0.0001
1886.00,-0.0002
1885.00,-0.0002
1884.00,-0.0002
1883.00,-0.0001
1882.00,-0.0001
1881.00,-0.0001
1880.00,-0.0001
1879.00,-0.0002
1878.00,-0.0002
1877.00,-0.0002
1876.00,-0.0002
1875.00,-0.0002
1874.00,-0.0002
1873.00,-0.0002
1872.00,-0.0002
1871.00,-0.0002
1870.00,-0.0002
1869.00,-0.0002
1868.00,-0.0002
1867.00,-0.0002
1866.00,-0.0002
1865.00,-0.0001
1864.00,0.0000
1863.00,0.0001
1862.00,0.0001
1861.00,0.0002
1860.00,0.0002
1859.00,0.0002
1858.00,0.0001
1857.00,0.0000
1856.00,0.0000
1855.00,0.0001
1854.00,0.0001
1853.00,0.0001
1852.00,0.0001
1851.00,0.0001
1850.00,0.0000
1849.00,0.0000
1848.00,0.0001
1847.00,0.0001
1846.00,0.0001
1845.00,0.0002
1844.00,0.0003
1843.00,0.0003
1842.00,0.0002
1841.00,0.0001
1840.00,0.0001
1839.00,0.0001
1838.00,0.0001
1837.00,0.0001
1836.00,0.0001
1835.00,0.0002
1834.00,0.0002
1833.00,0.0002
1832.00,0.0002
1831.00,0.0002
1830.00,0.0003
1829.00,0.0003
1828.00,0.0003
1827.00,0.0003
1826.00,0.0003
1825.00,0.0003
1824.00,0.0003
1823.00,0.0003
1822.00,0.0003
1821.00,0.0003
1820.00,0.0003
1819.00,0.0002
1818.00,0.0001
1817.00,-0.0000
1816.00,-0.0000
1815.00,0.0001
1814.00,0.0001
1813.00,0.0002
1812.00,0.0002
1811.00,0.0002
1810.00,0.0002
1809.00,0.0002
1808.00,0.0003
1807.00,0.0003
1806.00,0.0004
1805.00,0.0004
1804.00,0.0004
1803.00,0.0004
1802.00,0.0004
1801.00,0.0004
1800.00,0.0004
1799.00,0.0005
1798.00,0.0005
1797.00,0.0006
1796.00,0.0006
1795.00,0.0006
1794.00,0.0005
1793.00,0.0005
1792.00,0.0005
1791.00,0.0005
1790.00,0.0005
1789.00,0.0005
1788.00,0.0006
1787.00,0.0007
1786.00,0.0007
1785.00,0.0007
1784.00,0.0006
1783.00,0.0005
1782.00,0.0005
1781.00,0.0005
1780.00,0.0006
1779.00,0.0006
1778.00,0.0006
1777.00,0.0006
1776.00,0.0006
1775.00,0.0006
1774.00,0.0007
1773.00,0.0007
1772.00,0.0008
1771.00,0.0009
1770.00,0.0009
1769.00,0.0009
1768.00,0.0009
1767.00,0.0009
1766.00,0.0008
1765.00,0.0008
1764.00,0.0009
1763.00,0.0009
1762.00,0.0010
1761.00,0.0010
1760.00,0.0011
1759.00,0.0011
1758.00,0.0012
1757.00,0.0012
1756.00,0.0012
1755.00,0.0012
1754.00,0.0013
1753.00,0.0013
1752.00,0.0014
1751.00,0.0014
1750.00,0.0015
1749.00,0.0015
1748.00,0.0017
1747.00,0.0018
1746.00,0.0019
1745.00,0.0021
1744.00,0.0022
1743.00,0.0023
1742.00,0.0023
1741.00,0.0023
1740.00,0.0023
1739.00,0.0023
1738.00,0.0023
1737.00,0.0023
1736.00,0.0024
1735.00,0.0024
1734.00,0.0025
1733.00,0.0026
1732.00,0.0027
1731.00,0.0027
1730.00,0.0027
1729.00,0.0026
1728.00,0.0026
1727.00,0.0026
1726.00,0.0025
1725.00,0.0025
1724.00,0.0026
1723.00,0.0025
1722.00,0.0025
1721.00,0.0025
1720.00,0.0024
1719.00,0.0024
1718.00,0.0023
1717.00,0.0022
1716.00,0.0022
1715.00,0.0021
1714.00,0.0021
1713.00,0.0021
1712.00,0.0021
1711.00,0.0021
1710.00,0.0021
1709.00,0.0020
1708.00,0.0020
1707.00,0.0020
1706.00,0.0019
1705.00,0.0019
1704.00,0.0020
1703.00,0.0020
1702.00,0.0021
1701.00,0.0022
1700.00,0.0023
1699.00,0.0023
1698.00,0.0023
1697.00,0.0023
1696.00,0.0024
1695.00,0.0023
1694.00,0.0022
1693.00,0.0022
1692.00,0.0022
1691.00,0.0023
1690.00,0.0024
1689.00,0.0024
1688.00,0.0025
1687.00,0.0025
1686.00,0.0025
1685.00,0.0025
1684.00,0.0025
1683.00,0.0025
1682.00,0.0026
1681.00,0.0026
1680.00,0.0027
1679.00,0.0027
1678.00,0.0028
1677.00,0.0028
1676.00,0.0029
1675.00,0.0029
1674.00,0.0029
1673.00,0.0030
1672.00,0.0030
1671.00,0.0030
1670.00,0.0030
1669.00,0.0031
1668.00,0.0032
1667.00,0.0032
1666.00,0.0032
1665.00,0.0032
1664.00,0.0033
1663.00,0.0033
1662.00,0.0033
1661.00,0.0033
1660.00,0.0034
1659.00,0.0034
1658.00,0.0035
1657.00,0.0035
1656.00,0.0035
1655.00,0.0035
1654.00,0.0035
1653.00,0.0036
1652.00,0.0038
1651.00,0.0039
1650.00,0.0039
1649.00,0.0039
1648.00,0.0040
1647.00,0.0042
1646.00,0.0043
1645.00,0.0044
1644.00,0.0045
1643.00,0.0045
1642.00,0.0045
1641.00,0.0046
1640.00,0.0046
1639.00,0.0047
1638.00,0.0048
1637.00,0.0048
1636.00,0.0048
1635.00,0.0048
1634.00,0.0047
1633.00,0.0046
1632.00,0.0045
1631.00,0.0045
1630.00,0.0044
1629.00,0.0044
1628.00,0.0043
1627.00,0.0043
1626.00,0.0043
1625.00,0.0043
1624.00,0.0043
1623.00,0.0042
1622.00,0.0042
1621.00,0.0041
1620.00,0.0041
1619.00,0.0041
1618.00,0.0041
1617.00,0.0041
1616.00,0.0041
1615.00,0.0041
1614.00,0.0040
1613.00,0.0041
1612.00,0.0041
1611.00,0.0041
1610.00,0.0041
1609.00,0.0041
1608.00,0.0041
1607.00,0.0040
1606.00,0.0040
1605.00,0.0040
1604.00,0.0040
1603.00,0.0040
1602.00,0.0040
1601.00,0.0040
1600.00,0.0040
1599.00,0.0040
1598.00,0.0040
1597.00,0.0040
1596.00,0.0040
1595.00,0.0040
1594.00,0.0040
1593.00,0.0040
1592.00,0.0040
1591.00,0.0041
1590.00,0.0041
1589.00,0.0042
1588.00,0.0042
1587.00,0.0043
1586.00,0.0044
1585.00,0.0045
1584.00,0.0046
1583.00,0.0047
1582.00,0.0048
1581.00,0.0049
1580.00,0.0051
1579.00,0.0052
1578.00,0.0053
1577.00,0.0054
1576.00,0.0053
1575.00,0.0052
1574.00,0.0051
1573.00,0.0051
1572.00,0.0051
1571.00,0.0051
1570.00,0.0050
1569.00,0.0050
1568.00,0.0051
1567.00,0.0050
1566.00,0.0050
1565.00,0.0049
1564.00,0.0049
1563.00,0.0049
1562.00,0.0049
1561.00,0.0049
1560.00,0.0049
1559.00,0.0048
1558.00,0.0048
1557.00,0.0048
1556.00,0.0048
1555.00,0.0048
1554.00,0.0048
1553.00,0.0049
1552.00,0.0049
1551.00,0.0050
1550.00,0.0051
1549.00,0.0052
1548.00,0.0053
1547.00,0.0054
1546.00,0.0055
1545.00,0.0056
1544.00,0.0057
1543.00,0.0058
1542.00,0.0058
1541.00,0.0058
1540.00,0.0057
1539.00,0.0056
1538.00,0.0055
1537.00,0.0054
1536.00,0.0053
1535.00,0.0051
1534.00,0.0049
1533.00,0.0048
1532.00,0.0047
1531.00,0.0046
1530.00,0.0045
1529.00,0.0045
1528.00,0.0045
1527.00,0.0045
1526.00,0.0044
1525.00,0.0044
1524.00,0.0045
1523.00,0.0044
1522.00,0.0044
1521.00,0.0044
1520.00,0.0045
1519.00,0.0046
1518.00,0.0046
1517.00,0.0047
1516.00,0.0047
1515.00,0.0047
1514.00,0.0048
1513.00,0.0049
1512.00,0.0050
1511.00,0.0050
1510.00,0.0050
1509.00,0.0051
1508.00,0.0051
1507.00,0.0051
1506.00,0.0053
1505.00,0.0055
1504.00,0.0056
1503.00,0.0058
1502.00,0.0059
1501.00,0.0062
1500.00,0.0064
1499.00,0.0066
1498.00,0.0067
1497.00,0.0070
1496.00,0.0073
1495.00,0.0075
1494.00,0.0078
1493.00,0.0080
1492.00,0.0084
1491.00,0.0087
1490.00,0.0090
1489.00,0.0095
1488.00,0.0100
1487.00,0.0105
1486.00,0.0110
1485.00,0.0116
1484.00,0.0122
1483.00,0.0129
1482.00,0.0138
1481.00,0.0148
1480.00,0.0160
1479.00,0.0173
1478.00,0.0188
1477.00,0.0209
1476.00,0.0235
1475.00,0.0264
1474.00,0.0303
1473.00,0.0358
1472.00,0.0423
1471.00,0.0486
1470.00,0.0548
1469.00,0.0612
1468.00,0.0681
1467.00,0.0757
1466.00,0.0842
1465.00,0.0932
1464.00,0.1011
1463.00,0.1067
1462.00,0.1103
1461.00,0.1129
1460.00,0.1148
1459.00,0.1162
1458.00,0.1174
1457.00,0.1186
1456.00,0.1191
1455.00,0.1188
1454.00,0.1180
1453.00,0.1167
1452.00,0.1144
1451.00,0.1110
1450.00,0.1061
1449.00,0.0992
1448.00,0.0903
1447.00,0.0807
1446.00,0.0719
1445.00,0.0642
1444.00,0.0576
1443.00,0.0521
1442.00,0.0479
1441.00,0.0449
1440.00,0.0430
1439.00,0.0420
1438.00,0.0417
1437.00,0.0413
1436.00,0.0399
1435.00,0.0374
1434.00,0.0340
1433.00,0.0299
1432.00,0.0258
1431.00,0.0221
1430.00,0.0192
1429.00,0.0170
1428.00,0.0154
1427.00,0.0145
1426.00,0.0138
1425.00,0.0132
1424.00,0.0126
1423.00,0.0123
1422.00,0.0121
1421.00,0.0118
1420.00,0.0115
1419.00,0.0113
1418.00,0.0111
1417.00,0.0108
1416.00,0.0106
1415.00,0.0105
1414.00,0.0105
1413.00,0.0104
1412.00,0.0102
1411.00,0.0102
1410.00,0.0101
1409.00,0.0100
1408.00,0.0099
1407.00,0.0100
1406.00,0.0101
1405.00,0.0100
1404.00,0.0100
1403.00,0.0100
1402.00,0.0102
1401.00,0.0103
1400.00,0.0104
1399.00,0.0106
1398.00,0.0108
1397.00,0.0110
1396.00,0.0112
1395.00,0.0116
1394.00,0.0121
1393.00,0.0126
1392.00,0.0132
1391.00,0.0139
1390.00,0.0150
1389.00,0.0164
1388.00,0.0186
1387.00,0.0217
1386.00,0.0261
1385.00,0.0317
1384.00,0.0395
1383.00,0.0504
1382.00,0.0647
1381.00,0.0828
1380.00,0.1046
1379.00,0.1285
1378.00,0.1508
1377.00,0.1662
1376.00,0.1701
1375.00,0.1603
1374.00,0.1397
1373.00,0.1155
1372.00,0.0936
1371.00,0.0757
1370.00,0.0613
1369.00,0.0504
1368.00,0.0428
1367.00,0.0381
1366.00,0.0354
1365.00,0.0343
1364.00,0.0344
1363.00,0.0355
1362.00,0.0372
1361.00,0.0391
1360.00,0.0406
1359.00,0.0410
1358.00,0.0400
1357.00,0.0378
1356.00,0.0346
1355.00,0.0310
1354.00,0.0276
1353.00,0.0247
1352.00,0.0223
1351.00,0.0203
1350.00,0.0187
1349.00,0.0173
1348.00,0.0162
1347.00,0.0152
1346.00,0.0144
1345.00,0.0137
1344.00,0.0131
1343.00,0.0126
1342.00,0.0122
1341.00,0.0119
1340.00,0.0116
1339.00,0.0114
1338.00,0.0113
1337.00,0.0112
1336.00,0.0113
1335.00,0.0115
1334.00,0.0118
1333.00,0.0121
1332.00,0.0125
1331.00,0.0128
1330.00,0.0130
1329.00,0.0129
1328.00,0.0125
1327.00,0.0121
1326.00,0.0116
1325.00,0.0110
1324.00,0.0105
1323.00,0.0100
1322.00,0.0097
1321.00,0.0094
1320.00,0.0092
1319.00,0.0090
1318.00,0.0089
1317.00,0.0088
1316.00,0.0087
1315.00,0.0086
1314.00,0.0086
1313.00,0.0087
1312.00,0.0088
1311.00,0.0091
1310.00,0.0096
1309.00,0.0104
1308.00,0.0115
1307.00,0.0129
1306.00,0.0142
1305.00,0.0151
1304.00,0.0154
1303.00,0.0150
1302.00,0.0142
1301.00,0.0135
1300.00,0.0129
1299.00,0.0126
1298.00,0.0124
1297.00,0.0123
1296.00,0.0121
1295.00,0.0119
1294.00,0.0115
1293.00,0.0111
1292.00,0.0106
1291.00,0.0102
1290.00,0.0098
1289.00,0.0094
1288.00,0.0091
1287.00,0.0088
1286.00,0.0086
1285.00,0.0085
1284.00,0.0084
1283.00,0.0083
1282.00,0.0082
1281.00,0.0081
1280.00,0.0080
1279.00,0.0080
1278.00,0.0079
1277.00,0.0079
1276.00,0.0079
1275.00,0.0078
1274.00,0.0078
1273.00,0.0079
1272.00,0.0079
1271.00,0.0080
1270.00,0.0081
1269.00,0.0083
1268.00,0.0086
1267.00,0.0088
1266.00,0.0091
1265.00,0.0094
1264.00,0.0098
1263.00,0.0101
1262.00,0.0105
1261.00,0.0111
1260.00,0.0118
1259.00,0.0126
1258.00,0.0135
1257.00,0.0143
1256.00,0.0146
1255.00,0.0144
1254.00,0.0136
1253.00,0.0126
1252.00,0.0116
1251.00,0.0107
1250.00,0.0100
1249.00,0.0096
1248.00,0.0092
1247.00,0.0089
1246.00,0.0086
1245.00,0.0085
1244.00,0.0083
1243.00,0.0082
1242.00,0.0082
1241.00,0.0081
1240.00,0.0080
1239.00,0.0080
1238.00,0.0079
1237.00,0.0079
1236.00,0.0079
1235.00,0.0079
1234.00,0.0079
1233.00,0.0079
1232.00,0.0079
1231.00,0.0080
1230.00,0.0081
1229.00,0.0081
1228.00,0.0082
1227.00,0.0084
1226.00,0.0086
1225.00,0.0088
1224.00,0.0090
1223.00,0.0093
1222.00,0.0095
1221.00,0.0097
1220.00,0.0099
1219.00,0.0099
1218.00,0.0098
1217.00,0.0097
1216.00,0.0095
1215.00,0.0093
1214.00,0.0090
1213.00,0.0088
1212.00,0.0086
1211.00,0.0084
1210.00,0.0083
1209.00,0.0082
1208.00,0.0081
1207.00,0.0080
1206.00,0.0079
1205.00,0.0078
1204.00,0.0078
1203.00,0.0078
1202.00,0.0078
1201.00,0.0078
1200.00,0.0078
1199.00,0.0078
1198.00,0.0078
1197.00,0.0078
1196.00,0.0077
1195.00,0.0077
1194.00,0.0076
1193.00,0.0076
1192.00,0.0076
1191.00,0.0076
1190.00,0.0077
1189.00,0.0077
1188.00,0.0077
1187.00,0.0078
1186.00,0.0079
1185.00,0.0081
1184.00,0.0082
1183.00,0.0084
1182.00,0.0087
1181.00,0.0091
1180.00,0.0095
1179.00,0.0100
1178.00,0.0107
1177.00,0.0117
1176.00,0.0130
1175.00,0.0149
1174.00,0.0174
1173.00,0.0204
1172.00,0.0241
1171.00,0.0281
1170.00,0.0320
1169.00,0.0352
1168.00,0.0370
1167.00,0.0372
1166.00,0.0360
1165.00,0.0339
1164.00,0.0315
1163.00,0.0291
1162.00,0.0270
1161.00,0.0252
1160.00,0.0239
1159.00,0.0230
1158.00,0.0223
1157.00,0.0217
1156.00,0.0213
1155.00,0.0209
1154.00,0.0205
1153.00,0.0200
1152.00,0.0194
1151.00,0.0187
1150.00,0.0178
1149.00,0.0169
1148.00,0.0158
1147.00,0.0149
1146.00,0.0140
1145.00,0.0131
1144.00,0.0124
1143.00,0.0117
1142.00,0.0110
1141.00,0.0104
1140.00,0.0098
1139.00,0.0093
1138.00,0.0089
1137.00,0.0084
1136.00,0.0081
1135.00,0.0079
1134.00,0.0078
1133.00,0.0077
1132.00,0.0076
1131.00,0.0075
1130.00,0.0074
1129.00,0.0074
1128.00,0.0075
1127.00,0.0075
1126.00,0.0075
1125.00,0.0075
1124.00,0.0075
1123.00,0.0075
1122.00,0.0076
1121.00,0.0077
1120.00,0.0077
1119.00,0.0078
1118.00,0.0079
1117.00,0.0080
1116.00,0.0082
1115.00,0.0083
1114.00,0.0084
1113.00,0.0085
1112.00,0.0087
1111.00,0.0089
1110.00,0.0092
1109.00,0.0095
1108.00,0.0100
1107.00,0.0106
1106.00,0.0112
1105.00,0.0117
1104.00,0.0121
1103.00,0.0123
1102.00,0.0122
1101.00,0.0118
1100.00,0.0113
1099.00,0.0109
1098.00,0.0105
1097.00,0.0101
1096.00,0.0097
1095.00,0.0094
1094.00,0.0091
1093.00,0.0088
1092.00,0.0086
1091.00,0.0084
1090.00,0.0083
1089.00,0.0082
1088.00,0.0081
1087.00,0.0081
1086.00,0.0081
1085.00,0.0081
1084.00,0.0080
1083.00,0.0080
1082.00,0.0080
1081.00,0.0079
1080.00,0.0078
1079.00,0.0077
1078.00,0.0076
1077.00,0.0076
1076.00,0.0075
1075.00,0.0075
1074.00,0.0074
1073.00,0.0075
1072.00,0.0075
1071.00,0.0075
1070.00,0.0076
1069.00,0.0076
1068.00,0.0076
1067.00,0.0076
1066.00,0.0077
1065.00,0.0078
1064.00,0.0079
1063.00,0.0080
1062.00,0.0082
1061.00,0.0083
1060.00,0.0084
1059.00,0.0085
1058.00,0.0087
1057.00,0.0088
1056.00,0.0090
1055.00,0.0092
1054.00,0.0094
1053.00,0.0097
1052.00,0.0101
1051.00,0.0105
1050.00,0.0110
1049.00,0.0116
1048.00,0.0121
1047.00,0.0127
1046.00,0.0133
1045.00,0.0137
1044.00,0.0138
1043.00,0.0138
1042.00,0.0136
1041.00,0.0133
1040.00,0.0131
1039.00,0.0129
1038.00,0.0127
1037.00,0.0127
1036.00,0.0126
1035.00,0.0126
1034.00,0.0124
1033.00,0.0122
1032.00,0.0119
1031.00,0.0118
1030.00,0.0117
1029.00,0.0117
1028.00,0.0118
1027.00,0.0119
1026.00,0.0120
1025.00,0.0122
1024.00,0.0124
1023.00,0.0127
1022.00,0.0129
1021.00,0.0132
1020.00,0.0135
1019.00,0.0137
1018.00,0.0139
1017.00,0.0139
1016.00,0.0139
1015.00,0.0139
1014.00,0.0139
1013.00,0.0140
1012.00,0.0141
1011.00,0.0141
1010.00,0.0142
1009.00,0.0144
1008.00,0.0147
1007.00,0.0153
1006.00,0.0163
1005.00,0.0177
1004.00,0.0196
1003.00,0.0223
1002.00,0.0260
1001.00,0.0307
1000.00,0.0359
999.00,0.0403
998.00,0.0428
997.00,0.0422
996.00,0.0390
995.00,0.0340
994.00,0.0287
993.00,0.0240
992.00,0.0203
991.00,0.0177
990.00,0.0158
989.00,0.0146
988.00,0.0138
987.00,0.0134
986.00,0.0132
985.00,0.0133
984.00,0.0137
983.00,0.0145
982.00,0.0156
981.00,0.0173
980.00,0.0197
979.00,0.0229
978.00,0.0270
977.00,0.0319
976.00,0.0375
975.00,0.0429
974.00,0.0471
973.00,0.0490
972.00,0.0476
971.00,0.0431
970.00,0.0367
969.00,0.0301
968.00,0.0244
967.00,0.0202
966.00,0.0172
965.00,0.0151
964.00,0.0136
963.00,0.0124
962.00,0.0115
961.00,0.0108
960.00,0.0104
959.00,0.0100
958.00,0.0097
957.00,0.0094
956.00,0.0090
955.00,0.0087
954.00,0.0084
953.00,0.0082
952.00,0.0080
951.00,0.0080
950.00,0.0079
949.00,0.0078
948.00,0.0078
947.00,0.0077
946.00,0.0078
945.00,0.0081
944.00,0.0084
943.00,0.0087
942.00,0.0089
941.00,0.0090
940.00,0.0090
939.00,0.0087
938.00,0.0084
937.00,0.0079
936.00,0.0075
935.00,0.0072
934.00,0.0069
933.00,0.0067
932.00,0.0065
931.00,0.0064
930.00,0.0062
929.00,0.0061
928.00,0.0060
927.00,0.0059
926.00,0.0059
925.00,0.0059
924.00,0.0059
923.00,0.0059
922.00,0.0059
921.00,0.0059
920.00,0.0058
919.00,0.0059
918.00,0.0059
917.00,0.0060
916.00,0.0060
915.00,0.0061
914.00,0.0062
913.00,0.0063
912.00,0.0064
911.00,0.0066
910.00,0.0068
909.00,0.0071
908.00,0.0073
907.00,0.0077
906.00,0.0082
905.00,0.0091
904.00,0.0104
903.00,0.0120
902.00,0.0137
901.00,0.0153
900.00,0.0163
899.00,0.0164
898.00,0.0156
897.00,0.0143
896.00,0.0128
895.00,0.0113
894.00,0.0100
893.00,0.0090
892.00,0.0082
891.00,0.0077
890.00,0.0074
889.00,0.0073
888.00,0.0072
887.00,0.0071
886.00,0.0070
885.00,0.0069
884.00,0.0068
883.00,0.0068
882.00,0.0068
881.00,0.0068
880.00,0.0068
879.00,0.0069
878.00,0.0070
877.00,0.0070
876.00,0.0070
875.00,0.0071
874.00,0.0072
873.00,0.0074
872.00,0.0074
871.00,0.0074
870.00,0.0073
869.00,0.0073
868.00,0.0073
867.00,0.0074
866.00,0.0075
865.00,0.0076
864.00,0.0077
863.00,0.0080
862.00,0.0083
861.00,0.0085
860.00,0.0087
859.00,0.0088
858.00,0.0089
857.00,0.0090
856.00,0.0092
855.00,0.0094
854.00,0.0097
853.00,0.0100
852.00,0.0102
851.00,0.0106
850.00,0.0111
849.00,0.0119
848.00,0.0131
847.00,0.0149
846.00,0.0176
845.00,0.0217
844.00,0.0275
843.00,0.0343
842.00,0.0400
841.00,0.0421
840.00,0.0395
839.00,0.0335
838.00,0.0266
837.00,0.0209
836.00,0.0171
835.00,0.0148
834.00,0.0134
833.00,0.0125
832.00,0.0118
831.00,0.0114
830.00,0.0111
829.00,0.0109
828.00,0.0105
827.00,0.0101
826.00,0.0098
825.00,0.0096
824.00,0.0098
823.00,0.0100
822.00,0.0102
821.00,0.0103
820.00,0.0103
819.00,0.0105
818.00,0.0107
817.00,0.0112
816.00,0.0120
815.00,0.0131
814.00,0.0145
813.00,0.0161
812.00,0.0178
811.00,0.0192
810.00,0.0203
809.00,0.0209
808.00,0.0206
807.00,0.0195
806.00,0.0179
805.00,0.0162
804.00,0.0146
803.00,0.0134
802.00,0.0125
801.00,0.0119
800.00,0.0114
799.00,0.0109
798.00,0.0106
797.00,0.0103
796.00,0.0099
795.00,0.0094
794.00,0.0090
793.00,0.0086
792.00,0.0083
791.00,0.0082
790.00,0.0080
789.00,0.0077
788.00,0.0073
787.00,0.0070
786.00,0.0068
785.00,0.0066
784.00,0.0064
783.00,0.0063
782.00,0.0063
781.00,0.0063
780.00,0.0062
779.00,0.0061
778.00,0.0060
777.00,0.0060
776.00,0.0061
775.00,0.0062
774.00,0.0063
773.00,0.0063
772.00,0.0063
771.00,0.0062
770.00,0.0062
769.00,0.0063
768.00,0.0063
767.00,0.0063
766.00,0.0064
765.00,0.0063
764.00,0.0063
763.00,0.0062
762.00,0.0062
761.00,0.0062
760.00,0.0063
759.00,0.0064
758.00,0.0065
757.00,0.0066
756.00,0.0067
755.00,0.0067
754.00,0.0069
753.00,0.0070
752.00,0.0072
751.00,0.0073
750.00,0.0073
749.00,0.0073
748.00,0.0074
747.00,0.0076
746.00,0.0078
745.00,0.0082
744.00,0.0084
743.00,0.0087
742.00,0.0088
741.00,0.0090
740.00,0.0093
739.00,0.0097
738.00,0.0100
737.00,0.0102
736.00,0.0104
735.00,0.0107
734.00,0.0112
733.00,0.0118
732.00,0.0127
731.00,0.0135
730.00,0.0141
729.00,0.0143
728.00,0.0143
727.00,0.0143
726.00,0.0144
725.00,0.0147
724.00,0.0150
723.00,0.0155
722.00,0.0161
721.00,0.0166
720.00,0.0165
719.00,0.0159
718.00,0.0149
717.00,0.0138
716.00,0.0129
715.00,0.0121
714.00,0.0116
713.00,0.0112
712.00,0.0109
711.00,0.0106
710.00,0.0103
709.00,0.0101
708.00,0.0099
707.00,0.0097
706.00,0.0095
705.00,0.0094
704.00,0.0093
703.00,0.0093
702.00,0.0093
701.00,0.0091
700.00,0.0089
699.00,0.0087
698.00,0.0086
697.00,0.0086
696.00,0.0086
695.00,0.0086
694.00,0.0087
693.00,0.0088
692.00,0.0089
691.00,0.0089
690.00,0.0088
689.00,0.0088
688.00,0.0087
687.00,0.0088
686.00,0.0088
685.00,0.0087
684.00,0.0086
683.00,0.0086
682.00,0.0086
681.00,0.0086
680.00,0.0086
679.00,0.0087
678.00,0.0087
677.00,0.0088
676.00,0.0088
675.00,0.0088
674.00,0.0088
673.00,0.0090
672.00,0.0093
671.00,0.0095
670.00,0.0096
669.00,0.0095
668.00,0.0094
667.00,0.0094
666.00,0.0093
665.00,0.0091
664.00,0.0090
663.00,0.0089
662.00,0.0088
661.00,0.0088
660.00,0.0088
659.00,0.0088
658.00,0.0088
657.00,0.0086
656.00,0.0084
655.00,0.0082
654.00,0.0080
653.00,0.0078
652.00,0.0076
651.00,0.0075
650.00,0.0076
649.00,0.0077
648.00,0.0078
647.00,0.0080
646.00,0.0082
645.00,0.0083
644.00,0.0082
643.00,0.0081
642.00,0.0080
641.00,0.0078
640.00,0.0078
639.00,0.0078
638.00,0.0080
637.00,0.0080
636.00,0.0080
635.00,0.0081
634.00,0.0082
633.00,0.0080
632.00,0.0078
631.00,0.0075
630.00,0.0076
629.00,0.0079
628.00,0.0081
627.00,0.0080
626.00,0.0078
625.00,0.0078
624.00,0.0078
623.00,0.0078
622.00,0.0079
621.00,0.0080
620.00,0.0080
619.00,0.0079
618.00,0.0079
617.00,0.0079
616.00,0.0080
615.00,0.0080
614.00,0.0079
613.00,0.0079
612.00,0.0080
611.00,0.0081
610.00,0.0081
609.00,0.0080
608.00,0.0080
607.00,0.0081
606.00,0.0083
605.00,0.0085
604.00,0.0085
603.00,0.0084
602.00,0.0082
601.00,0.0079
600.00,0.0077
599.00,0.0077
598.00,0.0079
597.00,0.0082
596.00,0.0084
595.00,0.0083
594.00,0.0083
593.00,0.0083
592.00,0.0085
591.00,0.0085
590.00,0.0083
589.00,0.0079
588.00,0.0077
587.00,0.0077
586.00,0.0079
585.00,0.0080
584.00,0.0080
583.00,0.0078
582.00,0.0078
581.00,0.0079
580.00,0.0081
579.00,0.0081
578.00,0.0080
577.00,0.0080
576.00,0.0082
575.00,0.0085
574.00,0.0085
573.00,0.0084
572.00,0.0081
571.00,0.0080
570.00,0.0079
569.00,0.0079
568.00,0.0079
567.00,0.0080
566.00,0.0083
565.00,0.0084
564.00,0.0082
563.00,0.0079
562.00,0.0077
561.00,0.0077
560.00,0.0078
559.00,0.0081
558.00,0.0084
557.00,0.0089
556.00,0.0093
555.00,0.0095
554.00,0.0094
553.00,0.0091
552.00,0.0088
551.00,0.0085
550.00,0.0082
549.00,0.0080
548.00,0.0080
547.00,0.0084
546.00,0.0087
545.00,0.0089
544.00,0.0087
543.00,0.0086
542.00,0.0087
541.00,0.0090
540.00,0.0095
539.00,0.0100
538.00,0.0103
537.00,0.0105
536.00,0.0106
535.00,0.0109
534.00,0.0113
533.00,0.0116
532.00,0.0115
531.00,0.0111
530.00,0.0108
529.00,0.0109
528.00,0.0110
527.00,0.0109
526.00,0.0106
525.00,0.0101
524.00,0.0097
523.00,0.0094
522.00,0.0090
521.00,0.0090
520.00,0.0094
519.00,0.0100
518.00,0.0104
517.00,0.0106
516.00,0.0105
515.00,0.0102
514.00,0.0096
513.00,0.0089
512.00,0.0082
511.00,0.0079
510.00,0.0082
509.00,0.0086
508.00,0.0085
507.00,0.0078
506.00,0.0072
505.00,0.0070
504.00,0.0073
503.00,0.0075
502.00,0.0073
501.00,0.0068
500.00,0.0067
499.00,0.0072
498.00,0.0082
497.00,0.0091
496.00,0.0094
495.00,0.0090
494.00,0.0083
493.00,0.0078
492.00,0.0080
491.00,0.0087
490.00,0.0092
489.00,0.0093
488.00,0.0092
487.00,0.0094
486.00,0.0097
485.00,0.0093
484.00,0.0084
483.00,0.0075
482.00,0.0076
481.00,0.0085
480.00,0.0099
479.00,0.0109
478.00,0.0111
477.00,0.0108
476.00,0.0109
475.00,0.0119
474.00,0.0134
473.00,0.0142
472.00,0.0141
471.00,0.0137
470.00,0.0141
469.00,0.0151
468.00,0.0162
467.00,0.0168
466.00,0.0170
465.00,0.0170
464.00,0.0170
463.00,0.0171
462.00,0.0178
461.00,0.0189
460.00,0.0202
459.00,0.0210
458.00,0.0213
457.00,0.0213
456.00,0.0215
455.00,0.0215
454.00,0.0212
453.00,0.0208
452.00,0.0204
451.00,0.0194
450.00,0.0176
