Created as New Dataset,Sample 023 By Administrator Date Friday, September 05 2025
cm-1,A
4000.00,0.0011
3999.00,0.0011
3998.00,0.0011
3997.00,0.0011
3996.00,0.0011
3995.00,0.0011
3994.00,0.0010
3993.00,0.0010
3992.00,0.0010
3991.00,0.0010
3990.00,0.0010
3989.00,0.0010
3988.00,0.0010
3987.00,0.0010
3986.00,0.0010
3985.00,0.0011
3984.00,0.0011
3983.00,0.0011
3982.00,0.0010
3981.00,0.0010
3980.00,0.0010
3979.00,0.0010
3978.00,0.0010
3977.00,0.0009
3976.00,0.0009
3975.00,0.0009
3974.00,0.0009
3973.00,0.0009
3972.00,0.0009
3971.00,0.0009
3970.00,0.0009
3969.00,0.0009
3968.00,0.0009
3967.00,0.0010
3966.00,0.0010
3965.00,0.0010
3964.00,0.0010
3963.00,0.0010
3962.00,0.0009
3961.00,0.0009
3960.00,0.0009
3959.00,0.0009
3958.00,0.0009
3957.00,0.0009
3956.00,0.0009
3955.00,0.0009
3954.00,0.0009
3953.00,0.0008
3952.00,0.0008
3951.00,0.0008
3950.00,0.0008
3949.00,0.0008
3948.00,0.0008
3947.00,0.0008
3946.00,0.0008
3945.00,0.0008
3944.00,0.0008
3943.00,0.0008
3942.00,0.0009
3941.00,0.0009
3940.00,0.0009
3939.00,0.0009
3938.00,0.0009
3937.00,0.0009
3936.00,0.0009
3935.00,0.0009
3934.00,0.0010
3933.00,0.0010
3932.00,0.0009
3931.00,0.0009
3930.00,0.0009
3929.00,0.0009
3928.00,0.0009
3927.00,0.0009
3926.00,0.0010
3925.00,0.0010
3924.00,0.0010
3923.00,0.0010
3922.00,0.0010
3921.00,0.0009
3920.00,0.0009
3919.00,0.0008
3918.00,0.0008
3917.00,0.0008
3916.00,0.0009
3915.00,0.0009
3914.00,0.0009
3913.00,0.0009
3912.00,0.0009
3911.00,0.0009
3910.00,0.0010
3909.00,0.0010
3908.00,0.0010
3907.00,0.0010
3906.00,0.0010
3905.00,0.0009
3904.00,0.0009
3903.00,0.0008
3902.00,0.0008
3901.00,0.0008
3900.00,0.0008
3899.00,0.0009
3898.00,0.0009
3897.00,0.0009
3896.00,0.0009
3895.00,0.0009
3894.00,0.0009
3893.00,0.0009
3892.00,0.0009
3891.00,0.0009
3890.00,0.0009
3889.00,0.0009
3888.00,0.0008
3887.00,0.0008
3886.00,0.0008
3885.00,0.0008
3884.00,0.0008
3883.00,0.0009
3882.00,0.0009
3881.00,0.0009
3880.00,0.0009
3879.00,0.0009
3878.00,0.0009
3877.00,0.0008
3876.00,0.0008
3875.00,0.0008
3874.00,0.0008
3873.00,0.0008
3872.00,0.0008
3871.00,0.0008
3870.00,0.0008
3869.00,0.0008
3868.00,0.0008
3867.00,0.0007
3866.00,0.0007
3865.00,0.0007
3864.00,0.0007
3863.00,0.0008
3862.00,0.0008
3861.00,0.0009
3860.00,0.0009
3859.00,0.0009
3858.00,0.0009
3857.00,0.0008
3856.00,0.0008
3855.00,0.0008
3854.00,0.0008
3853.00,0.0008
3852.00,0.0007
3851.00,0.0007
3850.00,0.0008
3849.00,0.0008
3848.00,0.0008
3847.00,0.0009
3846.00,0.0009
3845.00,0.0009
3844.00,0.0008
3843.00,0.0008
3842.00,0.0008
3841.00,0.0008
3840.00,0.0008
3839.00,0.0008
3838.00,0.0008
3837.00,0.0008
3836.00,0.0008
3835.00,0.0008
3834.00,0.0008
3833.00,0.0008
3832.00,0.0008
3831.00,0.0008
3830.00,0.0008
3829.00,0.0008
3828.00,0.0008
3827.00,0.0008
3826.00,0.0008
3825.00,0.0008
3824.00,0.0008
3823.00,0.0008
3822.00,0.0008
3821.00,0.0008
3820.00,0.0008
3819.00,0.0008
3818.00,0.0007
3817.00,0.0007
3816.00,0.0008
3815.00,0.0008
3814.00,0.0008
3813.00,0.0009
3812.00,0.0009
3811.00,0.0009
3810.00,0.0009
3809.00,0.0009
3808.00,0.0009
3807.00,0.0009
3806.00,0.0009
3805.00,0.0008
3804.00,0.0008
3803.00,0.0008
3802.00,0.0008
3801.00,0.0008
3800.00,0.0007
3799.00,0.0007
3798.00,0.0008
3797.00,0.0008
3796.00,0.0008
3795.00,0.0009
3794.00,0.0009
3793.00,0.0009
3792.00,0.0009
3791.00,0.0009
3790.00,0.0009
3789.00,0.0009
3788.00,0.0009
3787.00,0.0009
3786.00,0.0009
3785.00,0.0008
3784.00,0.0008
3783.00,0.0008
3782.00,0.0008
3781.00,0.0009
3780.00,0.0009
3779.00,0.0009
3778.00,0.0009
3777.00,0.0008
3776.00,0.0008
3775.00,0.0009
3774.00,0.0009
3773.00,0.0009
3772.00,0.0009
3771.00,0.0009
3770.00,0.0009
3769.00,0.0009
3768.00,0.0009
3767.00,0.0009
3766.00,0.0008
3765.00,0.0008
3764.00,0.0008
3763.00,0.0009
3762.00,0.0009
3761.00,0.0009
3760.00,0.0010
3759.00,0.0010
3758.00,0.0010
3757.00,0.0009
3756.00,0.0009
3755.00,0.0009
3754.00,0.0009
3753.00,0.0009
3752.00,0.0008
3751.00,0.0008
3750.00,0.0008
3749.00,0.0008
3748.00,0.0008
3747.00,0.0008
3746.00,0.0008
3745.00,0.0008
3744.00,0.0008
3743.00,0.0009
3742.00,0.0009
3741.00,0.0009
3740.00,0.0009
3739.00,0.0008
3738.00,0.0008
3737.00,0.0008
3736.00,0.0008
3735.00,0.0008
3734.00,0.0007
3733.00,0.0007
3732.00,0.0007
3731.00,0.0007
3730.00,0.0007
3729.00,0.0007
3728.00,0.0007
3727.00,0.0008
3726.00,0.0008
3725.00,0.0007
3724.00,0.0007
3723.00,0.0007
3722.00,0.0007
3721.00,0.0007
3720.00,0.0007
3719.00,0.0007
3718.00,0.0007
3717.00,0.0007
3716.00,0.0007
3715.00,0.0007
3714.00,0.0007
3713.00,0.0007
3712.00,0.0007
3711.00,0.0007
3710.00,0.0007
3709.00,0.0007
3708.00,0.0007
3707.00,0.0007
3706.00,0.0007
3705.00,0.0007
3704.00,0.0006
3703.00,0.0006
3702.00,0.0007
3701.00,0.0007
3700.00,0.0008
3699.00,0.0008
3698.00,0.0008
3697.00,0.0008
3696.00,0.0008
3695.00,0.0008
3694.00,0.0008
3693.00,0.0008
3692.00,0.0008
3691.00,0.0007
3690.00,0.0007
3689.00,0.0006
3688.00,0.0007
3687.00,0.0007
3686.00,0.0007
3685.00,0.0008
3684.00,0.0007
3683.00,0.0007
3682.00,0.0006
3681.00,0.0006
3680.00,0.0006
3679.00,0.0007
3678.00,0.0007
3677.00,0.0007
3676.00,0.0007
3675.00,0.0007
3674.00,0.0006
3673.00,0.0006
3672.00,0.0005
3671.00,0.0005
3670.00,0.0004
3669.00,0.0005
3668.00,0.0005
3667.00,0.0005
3666.00,0.0005
3665.00,0.0005
3664.00,0.0004
3663.00,0.0004
3662.00,0.0004
3661.00,0.0005
3660.00,0.0005
3659.00,0.0005
3658.00,0.0005
3657.00,0.0005
3656.00,0.0005
3655.00,0.0005
3654.00,0.0005
3653.00,0.0005
3652.00,0.0005
3651.00,0.0005
3650.00,0.0006
3649.00,0.0006
3648.00,0.0006
3647.00,0.0006
3646.00,0.0006
3645.00,0.0006
3644.00,0.0007
3643.00,0.0007
3642.00,0.0008
3641.00,0.0008
3640.00,0.0009
3639.00,0.0009
3638.00,0.0009
3637.00,0.0009
3636.00,0.0009
3635.00,0.0010
3634.00,0.0010
3633.00,0.0010
3632.00,0.0009
3631.00,0.0009
3630.00,0.0008
3629.00,0.0008
3628.00,0.0009
3627.00,0.0010
3626.00,0.0011
3625.00,0.0011
3624.00,0.0011
3623.00,0.0012
3622.00,0.0012
3621.00,0.0012
3620.00,0.0012
3619.00,0.0012
3618.00,0.0012
3617.00,0.0013
3616.00,0.0013
3615.00,0.0013
3614.00,0.0013
3613.00,0.0014
3612.00,0.0014
3611.00,0.0014
3610.00,0.0014
3609.00,0.0015
3608.00,0.0015
3607.00,0.0015
3606.00,0.0015
3605.00,0.0016
3604.00,0.0016
3603.00,0.0016
3602.00,0.0016
3601.00,0.0016
3600.00,0.0016
3599.00,0.0016
3598.00,0.0016
3597.00,0.0015
3596.00,0.0016
3595.00,0.0016
3594.00,0.0016
3593.00,0.0017
3592.00,0.0017
3591.00,0.0018
3590.00,0.0018
3589.00,0.0018
3588.00,0.0018
3587.00,0.0018
3586.00,0.0018
3585.00,0.0018
3584.00,0.0019
3583.00,0.0019
3582.00,0.0019
3581.00,0.0019
3580.00,0.0019
3579.00,0.0019
3578.00,0.0019
3577.00,0.0020
3576.00,0.0020
3575.00,0.0021
3574.00,0.0022
3573.00,0.0022
3572.00,0.0022
3571.00,0.0022
3570.00,0.0023
3569.00,0.0023
3568.00,0.0023
3567.00,0.0023
3566.00,0.0023
3565.00,0.0024
3564.00,0.0024
3563.00,0.0024
3562.00,0.0024
3561.00,0.0024
3560.00,0.0024
3559.00,0.0025
3558.00,0.0026
3557.00,0.0026
3556.00,0.0027
3555.00,0.0027
3554.00,0.0028
3553.00,0.0028
3552.00,0.0029
3551.00,0.0029
3550.00,0.0029
3549.00,0.0029
3548.00,0.0029
3547.00,0.0029
3546.00,0.0030
3545.00,0.0030
3544.00,0.0030
3543.00,0.0030
3542.00,0.0030
3541.00,0.0031
3540.00,0.0031
3539.00,0.0031
3538.00,0.0032
3537.00,0.0032
3536.00,0.0032
3535.00,0.0032
3534.00,0.0033
3533.00,0.0033
3532.00,0.0033
3531.00,0.0034
3530.00,0.0034
3529.00,0.0034
3528.00,0.0035
3527.00,0.0035
3526.00,0.0035
3525.00,0.0035
3524.00,0.0035
3523.00,0.0035
3522.00,0.0036
3521.00,0.0036
3520.00,0.0036
3519.00,0.0037
3518.00,0.0037
3517.00,0.0038
3516.00,0.0038
3515.00,0.0038
3514.00,0.0038
3513.00,0.0038
3512.00,0.0038
3511.00,0.0038
3510.00,0.0039
3509.00,0.0039
3508.00,0.0040
3507.00,0.0040
3506.00,0.0040
3505.00,0.0040
3504.00,0.0040
3503.00,0.0040
3502.00,0.0041
3501.00,0.0041
3500.00,0.0042
3499.00,0.0042
3498.00,0.0043
3497.00,0.0043
3496.00,0.0043
3495.00,0.0044
3494.00,0.0043
3493.00,0.0043
3492.00,0.0043
3491.00,0.0044
3490.00,0.0044
3489.00,0.0044
3488.00,0.0044
3487.00,0.0045
3486.00,0.0045
3485.00,0.0045
3484.00,0.0045
3483.00,0.0045
3482.00,0.0046
3481.00,0.0046
3480.00,0.0047
3479.00,0.0047
3478.00,0.0048
3477.00,0.0049
3476.00,0.0049
3475.00,0.0049
3474.00,0.0049
3473.00,0.0049
3472.00,0.0049
3471.00,0.0049
3470.00,0.0049
3469.00,0.0050
3468.00,0.0051
3467.00,0.0051
3466.00,0.0051
3465.00,0.0051
3464.00,0.0051
3463.00,0.0051
3462.00,0.0052
3461.00,0.0052
3460.00,0.0052
3459.00,0.0053
3458.00,0.0053
3457.00,0.0053
3456.00,0.0053
3455.00,0.0053
3454.00,0.0053
3453.00,0.0053
3452.00,0.0053
3451.00,0.0053
3450.00,0.0054
3449.00,0.0054
3448.00,0.0055
3447.00,0.0055
3446.00,0.0056
3445.00,0.0056
3444.00,0.0057
3443.00,0.0057
3442.00,0.0058
3441.00,0.0058
3440.00,0.0058
3439.00,0.0057
3438.00,0.0057
3437.00,0.0057
3436.00,0.0057
3435.00,0.0058
3434.00,0.0058
3433.00,0.0058
3432.00,0.0059
3431.00,0.0059
3430.00,0.0059
3429.00,0.0060
3428.00,0.0060
3427.00,0.0061
3426.00,0.0061
3425.00,0.0061
3424.00,0.0061
3423.00,0.0061
3422.00,0.0061
3421.00,0.0061
3420.00,0.0061
3419.00,0.0062
3418.00,0.0062
3417.00,0.0062
3416.00,0.0062
3415.00,0.0062
3414.00,0.0062
3413.00,0.0062
3412.00,0.0063
3411.00,0.0063
3410.00,0.0064
3409.00,0.0064
3408.00,0.0064
3407.00,0.0064
3406.00,0.0064
3405.00,0.0065
3404.00,0.0065
3403.00,0.0065
3402.00,0.0065
3401.00,0.0066
3400.00,0.0066
3399.00,0.0066
3398.00,0.0066
3397.00,0.0067
3396.00,0.0067
3395.00,0.0066
3394.00,0.0066
3393.00,0.0066
3392.00,0.0066
3391.00,0.0065
3390.00,0.0065
3389.00,0.0065
3388.00,0.0065
3387.00,0.0066
3386.00,0.0066
3385.00,0.0066
3384.00,0.0067
3383.00,0.0067
3382.00,0.0067
3381.00,0.0067
3380.00,0.0067
3379.00,0.0067
3378.00,0.0068
3377.00,0.0068
3376.00,0.0068
3375.00,0.0068
3374.00,0.0068
3373.00,0.0068
3372.00,0.0068
3371.00,0.0067
3370.00,0.0067
3369.00,0.0067
3368.00,0.0068
3367.00,0.0068
3366.00,0.0068
3365.00,0.0068
3364.00,0.0068
3363.00,0.0069
3362.00,0.0069
3361.00,0.0069
3360.00,0.0069
3359.00,0.0070
3358.00,0.0070
3357.00,0.0070
3356.00,0.0070
3355.00,0.0070
3354.00,0.0070
3353.00,0.0070
3352.00,0.0070
3351.00,0.0070
3350.00,0.0070
3349.00,0.0071
3348.00,0.0071
3347.00,0.0070
3346.00,0.0070
3345.00,0.0070
3344.00,0.0070
3343.00,0.0070
3342.00,0.0070
3341.00,0.0070
3340.00,0.0070
3339.00,0.0070
3338.00,0.0070
3337.00,0.0070
3336.00,0.0070
3335.00,0.0070
3334.00,0.0070
3333.00,0.0070
3332.00,0.0070
3331.00,0.0070
3330.00,0.0070
3329.00,0.0070
3328.00,0.0070
3327.00,0.0070
3326.00,0.0070
3325.00,0.0070
3324.00,0.0070
3323.00,0.0070
3322.00,0.0070
3321.00,0.0070
3320.00,0.0070
3319.00,0.0070
3318.00,0.0070
3317.00,0.0070
3316.00,0.0070
3315.00,0.0070
3314.00,0.0070
3313.00,0.0070
3312.00,0.0069
3311.00,0.0069
3310.00,0.0070
3309.00,0.0070
3308.00,0.0071
3307.00,0.0071
3306.00,0.0072
3305.00,0.0073
3304.00,0.0073
3303.00,0.0074
3302.00,0.0074
3301.00,0.0074
3300.00,0.0073
3299.00,0.0073
3298.00,0.0072
3297.00,0.0072
3296.00,0.0071
3295.00,0.0070
3294.00,0.0070
3293.00,0.0069
3292.00,0.0068
3291.00,0.0068
3290.00,0.0067
3289.00,0.0067
3288.00,0.0066
3287.00,0.0066
3286.00,0.0066
3285.00,0.0066
3284.00,0.0066
3283.00,0.0066
3282.00,0.0066
3281.00,0.0065
3280.00,0.0065
3279.00,0.0064
3278.00,0.0064
3277.00,0.0064
3276.00,0.0064
3275.00,0.0063
3274.00,0.0063
3273.00,0.0063
3272.00,0.0062
3271.00,0.0062
3270.00,0.0062
3269.00,0.0062
3268.00,0.0062
3267.00,0.0062
3266.00,0.0061
3265.00,0.0061
3264.00,0.0061
3263.00,0.0060
3262.00,0.0060
3261.00,0.0060
3260.00,0.0059
3259.00,0.0059
3258.00,0.0059
3257.00,0.0059
3256.00,0.0059
3255.00,0.0058
3254.00,0.0058
3253.00,0.0057
3252.00,0.0057
3251.00,0.0057
3250.00,0.0057
3249.00,0.0057
3248.00,0.0057
3247.00,0.0057
3246.00,0.0057
3245.00,0.0056
3244.00,0.0056
3243.00,0.0056
3242.00,0.0056
3241.00,0.0056
3240.00,0.0056
3239.00,0.0056
3238.00,0.0056
3237.00,0.0056
3236.00,0.0056
3235.00,0.0055
3234.00,0.0054
3233.00,0.0054
3232.00,0.0054
3231.00,0.0054
3230.00,0.0055
3229.00,0.0055
3228.00,0.0055
3227.00,0.0055
3226.00,0.0055
3225.00,0.0055
3224.00,0.0055
3223.00,0.0055
3222.00,0.0055
3221.00,0.0055
3220.00,0.0056
3219.00,0.0056
3218.00,0.0056
3217.00,0.0057
3216.00,0.0057
3215.00,0.0058
3214.00,0.0058
3213.00,0.0058
3212.00,0.0058
3211.00,0.0057
3210.00,0.0057
3209.00,0.0057
3208.00,0.0057
3207.00,0.0057
3206.00,0.0057
3205.00,0.0057
3204.00,0.0057
3203.00,0.0057
3202.00,0.0057
3201.00,0.0057
3200.00,0.0057
3199.00,0.0058
3198.00,0.0058
3197.00,0.0058
3196.00,0.0057
3195.00,0.0057
3194.00,0.0056
3193.00,0.0055
3192.00,0.0055
3191.00,0.0055
3190.00,0.0056
3189.00,0.0056
3188.00,0.0056
3187.00,0.0055
3186.00,0.0055
3185.00,0.0054
3184.00,0.0053
3183.00,0.0053
3182.00,0.0053
3181.00,0.0053
3180.00,0.0053
3179.00,0.0053
3178.00,0.0052
3177.00,0.0052
3176.00,0.0052
3175.00,0.0052
3174.00,0.0052
3173.00,0.0052
3172.00,0.0052
3171.00,0.0052
3170.00,0.0051
3169.00,0.0050
3168.00,0.0050
3167.00,0.0049
3166.00,0.0050
3165.00,0.0050
3164.00,0.0050
3163.00,0.0050
3162.00,0.0050
3161.00,0.0050
3160.00,0.0050
3159.00,0.0049
3158.00,0.0049
3157.00,0.0049
3156.00,0.0049
3155.00,0.0049
3154.00,0.0049
3153.00,0.0049
3152.00,0.0049
3151.00,0.0049
3150.00,0.0049
3149.00,0.0049
3148.00,0.0049
3147.00,0.0048
3146.00,0.0048
3145.00,0.0047
3144.00,0.0047
3143.00,0.0047
3142.00,0.0047
3141.00,0.0046
3140.00,0.0046
3139.00,0.0046
3138.00,0.0046
3137.00,0.0046
3136.00,0.0046
3135.00,0.0045
3134.00,0.0045
3133.00,0.0045
3132.00,0.0045
3131.00,0.0044
3130.00,0.0044
3129.00,0.0044
3128.00,0.0044
3127.00,0.0044
3126.00,0.0043
3125.00,0.0043
3124.00,0.0043
3123.00,0.0043
3122.00,0.0042
3121.00,0.0042
3120.00,0.0042
3119.00,0.0041
3118.00,0.0041
3117.00,0.0040
3116.00,0.0040
3115.00,0.0040
3114.00,0.0040
3113.00,0.0040
3112.00,0.0040
3111.00,0.0040
3110.00,0.0039
3109.00,0.0039
3108.00,0.0039
3107.00,0.0039
3106.00,0.0039
3105.00,0.0039
3104.00,0.0039
3103.00,0.0039
3102.00,0.0039
3101.00,0.0039
3100.00,0.0039
3099.00,0.0038
3098.00,0.0038
3097.00,0.0039
3096.00,0.0039
3095.00,0.0039
3094.00,0.0039
3093.00,0.0038
3092.00,0.0038
3091.00,0.0038
3090.00,0.0038
3089.00,0.0038
3088.00,0.0038
3087.00,0.0037
3086.00,0.0037
3085.00,0.0037
3084.00,0.0037
3083.00,0.0037
3082.00,0.0037
3081.00,0.0037
3080.00,0.0037
3079.00,0.0037
3078.00,0.0037
3077.00,0.0037
3076.00,0.0037
3075.00,0.0038
3074.00,0.0038
3073.00,0.0038
3072.00,0.0037
3071.00,0.0037
3070.00,0.0037
3069.00,0.0038
3068.00,0.0038
3067.00,0.0039
3066.00,0.0039
3065.00,0.0039
3064.00,0.0039
3063.00,0.0039
3062.00,0.0039
3061.00,0.0040
3060.00,0.0040
3059.00,0.0040
3058.00,0.0040
3057.00,0.0040
3056.00,0.0040
3055.00,0.0040
3054.00,0.0040
3053.00,0.0040
3052.00,0.0040
3051.00,0.0040
3050.00,0.0041
3049.00,0.0041
3048.00,0.0041
3047.00,0.0041
3046.00,0.0041
3045.00,0.0041
3044.00,0.0041
3043.00,0.0042
3042.00,0.0042
3041.00,0.0043
3040.00,0.0044
3039.00,0.0044
3038.00,0.0044
3037.00,0.0044
3036.00,0.0044
3035.00,0.0044
3034.00,0.0044
3033.00,0.0044
3032.00,0.0044
3031.00,0.0044
3030.00,0.0045
3029.00,0.0045
3028.00,0.0045
3027.00,0.0046
3026.00,0.0046
3025.00,0.0047
3024.00,0.0048
3023.00,0.0048
3022.00,0.0049
3021.00,0.0049
3020.00,0.0050
3019.00,0.0050
3018.00,0.0051
3017.00,0.0051
3016.00,0.0052
3015.00,0.0052
3014.00,0.0052
3013.00,0.0052
3012.00,0.0053
3011.00,0.0054
3010.00,0.0055
3009.00,0.0056
3008.00,0.0056
3007.00,0.0056
3006.00,0.0057
3005.00,0.0057
3004.00,0.0058
3003.00,0.0059
3002.00,0.0060
3001.00,0.0061
3000.00,0.0062
2999.00,0.0063
2998.00,0.0065
2997.00,0.0067
2996.00,0.0070
2995.00,0.0074
2994.00,0.0078
2993.00,0.0082
2992.00,0.0087
2991.00,0.0092
2990.00,0.0097
2989.00,0.0103
2988.00,0.0109
2987.00,0.0116
2986.00,0.0123
2985.00,0.0130
2984.00,0.0137
2983.00,0.0147
2982.00,0.0160
2981.00,0.0176
2980.00,0.0197
2979.00,0.0220
2978.00,0.0247
2977.00,0.0276
2976.00,0.0309
2975.00,0.0346
2974.00,0.0388
2973.00,0.0436
2972.00,0.0490
2971.00,0.0552
2970.00,0.0622
2969.00,0.0700
2968.00,0.0783
2967.00,0.0872
2966.00,0.0964
2965.00,0.1058
2964.00,0.1149
2963.00,0.1231
2962.00,0.1300
2961.00,0.1353
2960.00,0.1392
2959.00,0.1420
2958.00,0.1447
2957.00,0.1480
2956.00,0.1528
2955.00,0.1592
2954.00,0.1671
2953.00,0.1757
2952.00,0.1837
2951.00,0.1894
2950.00,0.1913
2949.00,0.1888
2948.00,0.1818
2947.00,0.1712
2946.00,0.1586
2945.00,0.1454
2944.00,0.1331
2943.00,0.1226
2942.00,0.1145
2941.00,0.1089
2940.00,0.1057
2939.00,0.1047
2938.00,0.1057
2937.00,0.1084
2936.00,0.1127
2935.00,0.1185
2934.00,0.1256
2933.00,0.1341
2932.00,0.1437
2931.00,0.1543
2930.00,0.1657
2929.00,0.1776
2928.00,0.1898
2927.00,0.2018
2926.00,0.2136
2925.00,0.2251
2924.00,0.2364
2923.00,0.2476
2922.00,0.2588
2921.00,0.2695
2920.00,0.2790
2919.00,0.2859
2918.00,0.2891
2917.00,0.2876
2916.00,0.2816
2915.00,0.2720
2914.00,0.2601
2913.00,0.2476
2912.00,0.2356
2911.00,0.2249
2910.00,0.2156
2909.00,0.2075
2908.00,0.2003
2907.00,0.1934
2906.00,0.1866
2905.00,0.1796
2904.00,0.1726
2903.00,0.1656
2902.00,0.1586
2901.00,0.1519
2900.00,0.1454
2899.00,0.1392
2898.00,0.1334
2897.00,0.1281
2896.00,0.1232
2895.00,0.1191
2894.00,0.1155
2893.00,0.1126
2892.00,0.1103
2891.00,0.1086
2890.00,0.1075
2889.00,0.1068
2888.00,0.1064
2887.00,0.1063
2886.00,0.1066
2885.00,0.1071
2884.00,0.1080
2883.00,0.1094
2882.00,0.1111
2881.00,0.1131
2880.00,0.1149
2879.00,0.1164
2878.00,0.1171
2877.00,0.1170
2876.00,0.1164
2875.00,0.1157
2874.00,0.1154
2873.00,0.1157
2872.00,0.1168
2871.00,0.1186
2870.00,0.1209
2869.00,0.1232
2868.00,0.1247
2867.00,0.1248
2866.00,0.1227
2865.00,0.1183
2864.00,0.1120
2863.00,0.1046
2862.00,0.0973
2861.00,0.0908
2860.00,0.0858
2859.00,0.0823
2858.00,0.0804
2857.00,0.0796
2856.00,0.0799
2855.00,0.0809
2854.00,0.0824
2853.00,0.0842
2852.00,0.0861
2851.00,0.0878
2850.00,0.0892
2849.00,0.0903
2848.00,0.0913
2847.00,0.0928
2846.00,0.0951
2845.00,0.0985
2844.00,0.1029
2843.00,0.1080
2842.00,0.1132
2841.00,0.1178
2840.00,0.1210
2839.00,0.1221
2838.00,0.1205
2837.00,0.1160
2836.00,0.1089
2835.00,0.0997
2834.00,0.0894
2833.00,0.0790
2832.00,0.0694
2831.00,0.0609
2830.00,0.0537
2829.00,0.0479
2828.00,0.0431
2827.00,0.0392
2826.00,0.0361
2825.00,0.0334
2824.00,0.0312
2823.00,0.0292
2822.00,0.0275
2821.00,0.0261
2820.00,0.0248
2819.00,0.0237
2818.00,0.0228
2817.00,0.0219
2816.00,0.0212
2815.00,0.0205
2814.00,0.0199
2813.00,0.0194
2812.00,0.0189
2811.00,0.0184
2810.00,0.0178
2809.00,0.0172
2808.00,0.0166
2807.00,0.0160
2806.00,0.0153
2805.00,0.0146
2804.00,0.0140
2803.00,0.0134
2802.00,0.0129
2801.00,0.0125
2800.00,0.0121
2799.00,0.0119
2798.00,0.0116
2797.00,0.0114
2796.00,0.0111
2795.00,0.0109
2794.00,0.0106
2793.00,0.0103
2792.00,0.0100
2791.00,0.0096
2790.00,0.0093
2789.00,0.0090
2788.00,0.0088
2787.00,0.0085
2786.00,0.0082
2785.00,0.0080
2784.00,0.0077
2783.00,0.0075
2782.00,0.0073
2781.00,0.0071
2780.00,0.0070
2779.00,0.0068
2778.00,0.0066
2777.00,0.0065
2776.00,0.0063
2775.00,0.0062
2774.00,0.0061
2773.00,0.0060
2772.00,0.0060
2771.00,0.0059
2770.00,0.0059
2769.00,0.0059
2768.00,0.0058
2767.00,0.0058
2766.00,0.0057
2765.00,0.0057
2764.00,0.0056
2763.00,0.0056
2762.00,0.0056
2761.00,0.0056
2760.00,0.0055
2759.00,0.0055
2758.00,0.0055
2757.00,0.0055
2756.00,0.0055
2755.00,0.0055
2754.00,0.0055
2753.00,0.0055
2752.00,0.0055
2751.00,0.0054
2750.00,0.0054
2749.00,0.0053
2748.00,0.0053
2747.00,0.0054
2746.00,0.0054
2745.00,0.0055
2744.00,0.0055
2743.00,0.0056
2742.00,0.0057
2741.00,0.0058
2740.00,0.0059
2739.00,0.0060
2738.00,0.0061
2737.00,0.0063
2736.00,0.0064
2735.00,0.0066
2734.00,0.0067
2733.00,0.0069
2732.00,0.0071
2731.00,0.0072
2730.00,0.0074
2729.00,0.0076
2728.00,0.0079
2727.00,0.0082
2726.00,0.0085
2725.00,0.0087
2724.00,0.0088
2723.00,0.0089
2722.00,0.0088
2721.00,0.0087
2720.00,0.0084
2719.00,0.0081
2718.00,0.0078
2717.00,0.0075
2716.00,0.0072
2715.00,0.0069
2714.00,0.0067
2713.00,0.0064
2712.00,0.0063
2711.00,0.0061
2710.00,0.0060
2709.00,0.0058
2708.00,0.0057
2707.00,0.0055
2706.00,0.0054
2705.00,0.0053
2704.00,0.0052
2703.00,0.0051
2702.00,0.0050
2701.00,0.0049
2700.00,0.0048
2699.00,0.0048
2698.00,0.0048
2697.00,0.0047
2696.00,0.0047
2695.00,0.0047
2694.00,0.0047
2693.00,0.0047
2692.00,0.0047
2691.00,0.0047
2690.00,0.0047
2689.00,0.0047
2688.00,0.0047
2687.00,0.0048
2686.00,0.0048
2685.00,0.0047
2684.00,0.0047
2683.00,0.0047
2682.00,0.0047
2681.00,0.0047
2680.00,0.0047
2679.00,0.0047
2678.00,0.0047
2677.00,0.0047
2676.00,0.0047
2675.00,0.0047
2674.00,0.0047
2673.00,0.0047
2672.00,0.0047
2671.00,0.0046
2670.00,0.0046
2669.00,0.0046
2668.00,0.0046
2667.00,0.0046
2666.00,0.0046
2665.00,0.0047
2664.00,0.0047
2663.00,0.0048
2662.00,0.0049
2661.00,0.0049
2660.00,0.0050
2659.00,0.0050
2658.00,0.0050
2657.00,0.0050
2656.00,0.0049
2655.00,0.0048
2654.00,0.0047
2653.00,0.0047
2652.00,0.0046
2651.00,0.0046
2650.00,0.0045
2649.00,0.0045
2648.00,0.0044
2647.00,0.0044
2646.00,0.0043
2645.00,0.0043
2644.00,0.0042
2643.00,0.0042
2642.00,0.0041
2641.00,0.0041
2640.00,0.0040
2639.00,0.0040
2638.00,0.0040
2637.00,0.0040
2636.00,0.0040
2635.00,0.0040
2634.00,0.0040
2633.00,0.0040
2632.00,0.0041
2631.00,0.0041
2630.00,0.0041
2629.00,0.0041
2628.00,0.0041
2627.00,0.0041
2626.00,0.0041
2625.00,0.0041
2624.00,0.0042
2623.00,0.0042
2622.00,0.0042
2621.00,0.0042
2620.00,0.0042
2619.00,0.0042
2618.00,0.0042
2617.00,0.0042
2616.00,0.0043
2615.00,0.0043
2614.00,0.0043
2613.00,0.0043
2612.00,0.0041
2611.00,0.0040
2610.00,0.0039
2609.00,0.0038
2608.00,0.0037
2607.00,0.0036
2606.00,0.0035
2605.00,0.0035
2604.00,0.0035
2603.00,0.0034
2602.00,0.0034
2601.00,0.0033
2600.00,0.0033
2599.00,0.0033
2598.00,0.0033
2597.00,0.0033
2596.00,0.0033
2595.00,0.0033
2594.00,0.0033
2593.00,0.0033
2592.00,0.0034
2591.00,0.0034
2590.00,0.0035
2589.00,0.0036
2588.00,0.0037
2587.00,0.0038
2586.00,0.0039
2585.00,0.0039
2584.00,0.0040
2583.00,0.0040
2582.00,0.0040
2581.00,0.0040
2580.00,0.0040
2579.00,0.0040
2578.00,0.0039
2577.00,0.0037
2576.00,0.0035
2575.00,0.0033
2574.00,0.0032
2573.00,0.0031
2572.00,0.0031
2571.00,0.0031
2570.00,0.0030
2569.00,0.0029
2568.00,0.0029
2567.00,0.0028
2566.00,0.0028
2565.00,0.0028
2564.00,0.0027
2563.00,0.0027
2562.00,0.0027
2561.00,0.0027
2560.00,0.0026
2559.00,0.0025
2558.00,0.0025
2557.00,0.0024
2556.00,0.0024
2555.00,0.0023
2554.00,0.0023
2553.00,0.0023
2552.00,0.0023
2551.00,0.0023
2550.00,0.0024
2549.00,0.0024
2548.00,0.0023
2547.00,0.0023
2546.00,0.0022
2545.00,0.0021
2544.00,0.0020
2543.00,0.0019
2542.00,0.0019
2541.00,0.0019
2540.00,0.0019
2539.00,0.0019
2538.00,0.0019
2537.00,0.0019
2536.00,0.0018
2535.00,0.0018
2534.00,0.0018
2533.00,0.0018
2532.00,0.0018
2531.00,0.0017
2530.00,0.0017
2529.00,0.0016
2528.00,0.0016
2527.00,0.0016
2526.00,0.0016
2525.00,0.0016
2524.00,0.0016
2523.00,0.0016
2522.00,0.0016
2521.00,0.0015
2520.00,0.0015
2519.00,0.0015
2518.00,0.0014
2517.00,0.0014
2516.00,0.0013
2515.00,0.0013
2514.00,0.0012
2513.00,0.0012
2512.00,0.0012
2511.00,0.0013
2510.00,0.0013
2509.00,0.0014
2508.00,0.0014
2507.00,0.0013
2506.00,0.0013
2505.00,0.0012
2504.00,0.0012
2503.00,0.0012
2502.00,0.0012
2501.00,0.0012
2500.00,0.0012
2499.00,0.0012
2498.00,0.0013
2497.00,0.0013
2496.00,0.0013
2495.00,0.0013
2494.00,0.0013
2493.00,0.0012
2492.00,0.0012
2491.00,0.0012
2490.00,0.0012
2489.00,0.0012
2488.00,0.0012
2487.00,0.0012
2486.00,0.0012
2485.00,0.0012
2484.00,0.0011
2483.00,0.0011
2482.00,0.0011
2481.00,0.0011
2480.00,0.0012
2479.00,0.0012
2478.00,0.0012
2477.00,0.0012
2476.00,0.0012
2475.00,0.0012
2474.00,0.0012
2473.00,0.0012
2472.00,0.0012
2471.00,0.0011
2470.00,0.0010
2469.00,0.0010
2468.00,0.0009
2467.00,0.0010
2466.00,0.0010
2465.00,0.0011
2464.00,0.0012
2463.00,0.0012
2462.00,0.0012
2461.00,0.0012
2460.00,0.0012
2459.00,0.0012
2458.00,0.0011
2457.00,0.0011
2456.00,0.0011
2455.00,0.0012
2454.00,0.0013
2453.00,0.0014
2452.00,0.0014
2451.00,0.0014
2450.00,0.0013
2449.00,0.0012
2448.00,0.0011
2447.00,0.0011
2446.00,0.0012
2445.00,0.0013
2444.00,0.0013
2443.00,0.0013
2442.00,0.0013
2441.00,0.0012
2440.00,0.0012
2439.00,0.0013
2438.00,0.0013
2437.00,0.0014
2436.00,0.0014
2435.00,0.0014
2434.00,0.0015
2433.00,0.0015
2432.00,0.0015
2431.00,0.0015
2430.00,0.0014
2429.00,0.0014
2428.00,0.0014
2427.00,0.0014
2426.00,0.0014
2425.00,0.0013
2424.00,0.0013
2423.00,0.0013
2422.00,0.0013
2421.00,0.0013
2420.00,0.0012
2419.00,0.0012
2418.00,0.0012
2417.00,0.0012
2416.00,0.0012
2415.00,0.0012
2414.00,0.0012
2413.00,0.0012
2412.00,0.0012
2411.00,0.0012
2410.00,0.0012
2409.00,0.0012
2408.00,0.0012
2407.00,0.0012
2406.00,0.0011
2405.00,0.0011
2404.00,0.0011
2403.00,0.0010
2402.00,0.0010
2401.00,0.0010
2400.00,0.0010
2399.00,0.0011
2398.00,0.0011
2397.00,0.0011
2396.00,0.0010
2395.00,0.0010
2394.00,0.0009
2393.00,0.0009
2392.00,0.0010
2391.00,0.0010
2390.00,0.0010
2389.00,0.0010
2388.00,0.0010
2387.00,0.0009
2386.00,0.0009
2385.00,0.0008
2384.00,0.0008
2383.00,0.0007
2382.00,0.0007
2381.00,0.0006
2380.00,0.0006
2379.00,0.0006
2378.00,0.0005
2377.00,0.0005
2376.00,0.0005
2375.00,0.0005
2374.00,0.0005
2373.00,0.0006
2372.00,0.0007
2371.00,0.0007
2370.00,0.0007
2369.00,0.0006
2368.00,0.0006
2367.00,0.0006
2366.00,0.0006
2365.00,0.0006
2364.00,0.0006
2363.00,0.0007
2362.00,0.0007
2361.00,0.0007
2360.00,0.0008
2359.00,0.0008
2358.00,0.0008
2357.00,0.0008
2356.00,0.0007
2355.00,0.0007
2354.00,0.0007
2353.00,0.0007
2352.00,0.0007
2351.00,0.0007
2350.00,0.0007
2349.00,0.0008
2348.00,0.0008
2347.00,0.0008
2346.00,0.0008
2345.00,0.0008
2344.00,0.0007
2343.00,0.0008
2342.00,0.0008
2341.00,0.0008
2340.00,0.0009
2339.00,0.0009
2338.00,0.0010
2337.00,0.0011
2336.00,0.0011
2335.00,0.0010
2334.00,0.0010
2333.00,0.0009
2332.00,0.0008
2331.00,0.0008
2330.00,0.0009
2329.00,0.0010
2328.00,0.0012
2327.00,0.0015
2326.00,0.0018
2325.00,0.0020
2324.00,0.0021
2323.00,0.0020
2322.00,0.0018
2321.00,0.0017
2320.00,0.0015
2319.00,0.0015
2318.00,0.0014
2317.00,0.0014
2316.00,0.0014
2315.00,0.0014
2314.00,0.0013
2313.00,0.0012
2312.00,0.0011
2311.00,0.0010
2310.00,0.0010
2309.00,0.0011
2308.00,0.0012
2307.00,0.0012
2306.00,0.0012
2305.00,0.0012
2304.00,0.0011
2303.00,0.0012
2302.00,0.0012
2301.00,0.0012
2300.00,0.0012
2299.00,0.0012
2298.00,0.0012
2297.00,0.0013
2296.00,0.0014
2295.00,0.0015
2294.00,0.0015
2293.00,0.0015
2292.00,0.0016
2291.00,0.0017
2290.00,0.0018
2289.00,0.0020
2288.00,0.0021
2287.00,0.0022
2286.00,0.0022
2285.00,0.0022
2284.00,0.0021
2283.00,0.0019
2282.00,0.0018
2281.00,0.0017
2280.00,0.0016
2279.00,0.0015
2278.00,0.0015
2277.00,0.0015
2276.00,0.0014
2275.00,0.0015
2274.00,0.0015
2273.00,0.0015
2272.00,0.0015
2271.00,0.0015
2270.00,0.0016
2269.00,0.0016
2268.00,0.0017
2267.00,0.0016
2266.00,0.0015
2265.00,0.0014
2264.00,0.0013
2263.00,0.0013
2262.00,0.0014
2261.00,0.0015
2260.00,0.0016
2259.00,0.0017
2258.00,0.0018
2257.00,0.0017
2256.00,0.0015
2255.00,0.0012
2254.00,0.0010
2253.00,0.0009
2252.00,0.0010
2251.00,0.0012
2250.00,0.0013
2249.00,0.0013
2248.00,0.0012
2247.00,0.0010
2246.00,0.0008
2245.00,0.0007
2244.00,0.0007
2243.00,0.0008
2242.00,0.0008
2241.00,0.0008
2240.00,0.0008
2239.00,0.0008
2238.00,0.0008
2237.00,0.0009
2236.00,0.0010
2235.00,0.0012
2234.00,0.0013
2233.00,0.0014
2232.00,0.0014
2231.00,0.0012
2230.00,0.0010
2229.00,0.0008
2228.00,0.0008
2227.00,0.0008
2226.00,0.0008
2225.00,0.0008
2224.00,0.0009
2223.00,0.0011
2222.00,0.0011
2221.00,0.0011
2220.00,0.0009
2219.00,0.0008
2218.00,0.0007
2217.00,0.0007
2216.00,0.0007
2215.00,0.0006
2214.00,0.0006
2213.00,0.0007
2212.00,0.0009
2211.00,0.0010
2210.00,0.0010
2209.00,0.0009
2208.00,0.0008
2207.00,0.0007
2206.00,0.0007
2205.00,0.0008
2204.00,0.0009
2203.00,0.0009
2202.00,0.0010
2201.00,0.0010
2200.00,0.0010
2199.00,0.0010
2198.00,0.0009
2197.00,0.0009
2196.00,0.0009
2195.00,0.0010
2194.00,0.0011
2193.00,0.0012
2192.00,0.0012
2191.00,0.0012
2190.00,0.0012
2189.00,0.0013
2188.00,0.0015
2187.00,0.0015
2186.00,0.0014
2185.00,0.0012
2184.00,0.0009
2183.00,0.0008
2182.00,0.0006
2181.00,0.0006
2180.00,0.0006
2179.00,0.0007
2178.00,0.0008
2177.00,0.0008
2176.00,0.0007
2175.00,0.0006
2174.00,0.0005
2173.00,0.0005
2172.00,0.0007
2171.00,0.0008
2170.00,0.0009
2169.00,0.0010
2168.00,0.0012
2167.00,0.0015
2166.00,0.0018
2165.00,0.0022
2164.00,0.0024
2163.00,0.0025
2162.00,0.0023
2161.00,0.0017
2160.00,0.0005
2159.00,-0.0009
2158.00,-0.0020
2157.00,-0.0025
2156.00,-0.0025
2155.00,-0.0024
2154.00,-0.0021
2153.00,-0.0016
2152.00,-0.0012
2151.00,-0.0009
2150.00,-0.0009
2149.00,-0.0009
2148.00,-0.0010
2147.00,-0.0010
2146.00,-0.0010
2145.00,-0.0010
2144.00,-0.0009
2143.00,-0.0008
2142.00,-0.0008
2141.00,-0.0007
2140.00,-0.0007
2139.00,-0.0008
2138.00,-0.0009
2137.00,-0.0011
2136.00,-0.0014
2135.00,-0.0017
2134.00,-0.0018
2133.00,-0.0018
2132.00,-0.0015
2131.00,-0.0011
2130.00,-0.0008
2129.00,-0.0005
2128.00,-0.0003
2127.00,-0.0002
2126.00,-0.0002
2125.00,-0.0002
2124.00,-0.0002
2123.00,-0.0001
2122.00,0.0000
2121.00,0.0002
2120.00,0.0002
2119.00,0.0003
2118.00,0.0003
2117.00,0.0003
2116.00,0.0004
2115.00,0.0004
2114.00,0.0004
2113.00,0.0004
2112.00,0.0005
2111.00,0.0004
2110.00,0.0004
2109.00,0.0003
2108.00,0.0003
2107.00,0.0002
2106.00,0.0001
2105.00,0.0002
2104.00,0.0002
2103.00,0.0003
2102.00,0.0004
2101.00,0.0004
2100.00,0.0004
2099.00,0.0003
2098.00,0.0003
2097.00,0.0002
2096.00,0.0001
2095.00,-0.0000
2094.00,-0.0001
2093.00,-0.0002
2092.00,-0.0002
2091.00,-0.0001
2090.00,0.0001
2089.00,0.0002
2088.00,0.0004
2087.00,0.0005
2086.00,0.0005
2085.00,0.0005
2084.00,0.0005
2083.00,0.0004
2082.00,0.0003
2081.00,0.0003
2080.00,0.0003
2079.00,0.0003
2078.00,0.0003
2077.00,0.0003
2076.00,0.0003
2075.00,0.0003
2074.00,0.0002
2073.00,0.0002
2072.00,0.0001
2071.00,0.0001
2070.00,0.0001
2069.00,0.0002
2068.00,0.0003
2067.00,0.0004
2066.00,0.0005
2065.00,0.0005
2064.00,0.0005
2063.00,0.0005
2062.00,0.0005
2061.00,0.0005
2060.00,0.0005
2059.00,0.0004
2058.00,0.0004
2057.00,0.0003
2056.00,0.0003
2055.00,0.0003
2054.00,0.0005
2053.00,0.0008
2052.00,0.0013
2051.00,0.0015
2050.00,0.0014
2049.00,0.0010
2048.00,0.0006
2047.00,0.0004
2046.00,0.0003
2045.00,0.0002
2044.00,0.0001
2043.00,-0.0001
2042.00,-0.0002
2041.00,-0.0002
2040.00,-0.0001
2039.00,0.0002
2038.00,0.0005
2037.00,0.0006
2036.00,0.0005
2035.00,0.0001
2034.00,-0.0004
2033.00,-0.0008
2032.00,-0.0011
2031.00,-0.0013
2030.00,-0.0013
2029.00,-0.0011
2028.00,-0.0007
2027.00,-0.0004
2026.00,-0.0005
2025.00,-0.0007
2024.00,-0.0009
2023.00,-0.0008
2022.00,-0.0007
2021.00,-0.0005
2020.00,-0.0003
2019.00,-0.0002
2018.00,-0.0002
2017.00,-0.0002
2016.00,-0.0002
2015.00,-0.0002
2014.00,-0.0000
2013.00,0.0002
2012.00,0.0003
2011.00,0.0003
2010.00,0.0000
2009.00,-0.0004
2008.00,-0.0009
2007.00,-0.0011
2006.00,-0.0011
2005.00,-0.0009
2004.00,-0.0009
2003.00,-0.0010
2002.00,-0.0010
2001.00,-0.0009
2000.00,-0.0007
1999.00,-0.0006
1998.00,-0.0007
1997.00,-0.0009
1996.00,-0.0009
1995.00,-0.0008
1994.00,-0.0007
1993.00,-0.0007
1992.00,-0.0008
1991.00,-0.0008
1990.00,-0.0009
1989.00,-0.0009
1988.00,-0.0006
1987.00,-0.0003
1986.00,0.0001
1985.00,0.0005
1984.00,0.0006
1983.00,0.0007
1982.00,0.0007
1981.00,0.0008
1980.00,0.0009
1979.00,0.0007
1978.00,0.0003
1977.00,-0.0002
1976.00,-0.0007
1975.00,-0.0010
1974.00,-0.0011
1973.00,-0.0011
1972.00,-0.0011
1971.00,-0.0010
1970.00,-0.0010
1969.00,-0.0010
1968.00,-0.0010
1967.00,-0.0010
1966.00,-0.0010
1965.00,-0.0010
1964.00,-0.0011
1963.00,-0.0012
1962.00,-0.0013
1961.00,-0.0015
1960.00,-0.0015
1959.00,-0.0015
1958.00,-0.0013
1957.00,-0.0011
1956.00,-0.0010
1955.00,-0.0010
1954.00,-0.0010
1953.00,-0.0010
1952.00,-0.0009
1951.00,-0.0009
1950.00,-0.0008
1949.00,-0.0008
1948.00,-0.0008
1947.00,-0.0010
1946.00,-0.0011
1945.00,-0.0012
1944.00,-0.0011
1943.00,-0.0010
1942.00,-0.0009
1941.00,-0.0008
1940.00,-0.0008
1939.00,-0.0008
1938.00,-0.0008
1937.00,-0.0008
1936.00,-0.0008
1935.00,-0.0008
1934.00,-0.0007
1933.00,-0.0006
1932.00,-0.0005
1931.00,-0.0005
1930.00,-0.0005
1929.00,-0.0006
1928.00,-0.0006
1927.00,-0.0005
1926.00,-0.0005
1925.00,-0.0004
1924.00,-0.0003
1923.00,-0.0002
1922.00,-0.0002
1921.00,-0.0002
1920.00,-0.0002
1919.00,-0.0000
1918.00,0.0001
1917.00,0.0000
1916.00,-0.0001
1915.00,-0.0002
1914.00,-0.0002
1913.00,-0.0002
1912.00,-0.0001
1911.00,-0.0000
1910.00,0.0001
1909.00,0.0001
1908.00,0.0001
1907.00,0.0001
1906.00,0.0001
1905.00,0.0001
1904.00,0.0002
1903.00,0.0003
1902.00,0.0003
1901.00,0.0003
1900.00,0.0003
1899.00,0.0003
1898.00,0.0002
1897.00,0.0002
1896.00,0.0003
1895.00,0.0003
1894.00,0.0002
1893.00,0.0002
1892.00,0.0002
1891.00,0.0002
1890.00,0.0002
1889.00,0.0003
1888.00,0.0003
1887.00,0.0003
1886.00,0.0003
1885.00,0.0003
1884.00,0.0002
1883.00,0.0001
1882.00,0.0000
1881.00,0.0000
1880.00,0.0000
1879.00,0.0001
1878.00,0.0001
1877.00,0.0002
1876.00,0.0002
1875.00,0.0002
1874.00,0.0002
1873.00,0.0002
1872.00,0.0002
1871.00,0.0002
1870.00,0.0003
1869.00,0.0003
1868.00,0.0003
1867.00,0.0003
1866.00,0.0002
1865.00,0.0002
1864.00,0.0002
1863.00,0.0002
1862.00,0.0003
1861.00,0.0003
1860.00,0.0003
1859.00,0.0003
1858.00,0.0003
1857.00,0.0003
1856.00,0.0004
1855.00,0.0005
1854.00,0.0005
1853.00,0.0005
1852.00,0.0005
1851.00,0.0005
1850.00,0.0004
1849.00,0.0004
1848.00,0.0003
1847.00,0.0002
1846.00,0.0001
1845.00,0.0001
1844.00,0.0002
1843.00,0.0003
1842.00,0.0004
1841.00,0.0004
1840.00,0.0004
1839.00,0.0003
1838.00,0.0003
1837.00,0.0004
1836.00,0.0004
1835.00,0.0005
1834.00,0.0005
1833.00,0.0006
1832.00,0.0006
1831.00,0.0006
1830.00,0.0006
1829.00,0.0006
1828.00,0.0006
1827.00,0.0006
1826.00,0.0007
1825.00,0.0008
1824.00,0.0008
1823.00,0.0008
1822.00,0.0007
1821.00,0.0006
1820.00,0.0005
1819.00,0.0004
1818.00,0.0004
1817.00,0.0003
1816.00,0.0003
1815.00,0.0003
1814.00,0.0003
1813.00,0.0004
1812.00,0.0004
1811.00,0.0005
1810.00,0.0005
1809.00,0.0006
1808.00,0.0006
1807.00,0.0006
1806.00,0.0006
1805.00,0.0006
1804.00,0.0007
1803.00,0.0007
1802.00,0.0007
1801.00,0.0007
1800.00,0.0007
1799.00,0.0007
1798.00,0.0007
1797.00,0.0007
1796.00,0.0007
1795.00,0.0007
1794.00,0.0007
1793.00,0.0008
1792.00,0.0009
1791.00,0.0009
1790.00,0.0009
1789.00,0.0009
1788.00,0.0009
1787.00,0.0010
1786.00,0.0010
1785.00,0.0010
1784.00,0.0010
1783.00,0.0010
1782.00,0.0010
1781.00,0.0010
1780.00,0.0010
1779.00,0.0010
1778.00,0.0010
1777.00,0.0010
1776.00,0.0010
1775.00,0.0011
1774.00,0.0011
1773.00,0.0011
1772.00,0.0011
1771.00,0.0012
1770.00,0.0012
1769.00,0.0013
1768.00,0.0013
1767.00,0.0013
1766.00,0.0013
1765.00,0.0013
1764.00,0.0013
1763.00,0.0014
1762.00,0.0015
1761.00,0.0016
1760.00,0.0017
1759.00,0.0017
1758.00,0.0017
1757.00,0.0017
1756.00,0.0018
1755.00,0.0018
1754.00,0.0018
1753.00,0.0018
1752.00,0.0020
1751.00,0.0021
1750.00,0.0022
1749.00,0.0024
1748.00,0.0025
1747.00,0.0026
1746.00,0.0027
1745.00,0.0029
1744.00,0.0031
1743.00,0.0032
1742.00,0.0034
1741.00,0.0035
1740.00,0.0036
1739.00,0.0037
1738.00,0.0037
1737.00,0.0037
1736.00,0.0037
1735.00,0.0037
1734.00,0.0037
1733.00,0.0036
1732.00,0.0037
1731.00,0.0038
1730.00,0.0038
1729.00,0.0038
1728.00,0.0038
1727.00,0.0037
1726.00,0.0036
1725.00,0.0036
1724.00,0.0035
1723.00,0.0035
1722.00,0.0035
1721.00,0.0034
1720.00,0.0034
1719.00,0.0033
1718.00,0.0033
1717.00,0.0033
1716.00,0.0033
1715.00,0.0033
1714.00,0.0032
1713.00,0.0031
1712.00,0.0031
1711.00,0.0031
1710.00,0.0031
1709.00,0.0031
1708.00,0.0031
1707.00,0.0031
1706.00,0.0031
1705.00,0.0032
1704.00,0.0033
1703.00,0.0034
1702.00,0.0035
1701.00,0.0036
1700.00,0.0037
1699.00,0.0037
1698.00,0.0037
1697.00,0.0038
1696.00,0.0040
1695.00,0.0042
1694.00,0.0043
1693.00,0.0043
1692.00,0.0044
1691.00,0.0045
1690.00,0.0046
1689.00,0.0046
1688.00,0.0047
1687.00,0.0047
1686.00,0.0048
1685.00,0.0050
1684.00,0.0054
1683.00,0.0056
1682.00,0.0057
1681.00,0.0059
1680.00,0.0061
1679.00,0.0062
1678.00,0.0064
1677.00,0.0065
1676.00,0.0067
1675.00,0.0068
1674.00,0.0068
1673.00,0.0069
1672.00,0.0070
1671.00,0.0071
1670.00,0.0073
1669.00,0.0075
1668.00,0.0076
1667.00,0.0077
1666.00,0.0078
1665.00,0.0079
1664.00,0.0080
1663.00,0.0080
1662.00,0.0080
1661.00,0.0080
1660.00,0.0081
1659.00,0.0081
1658.00,0.0081
1657.00,0.0082
1656.00,0.0083
1655.00,0.0083
1654.00,0.0084
1653.00,0.0085
1652.00,0.0085
1651.00,0.0085
1650.00,0.0085
1649.00,0.0085
1648.00,0.0085
1647.00,0.0085
1646.00,0.0086
1645.00,0.0086
1644.00,0.0087
1643.00,0.0087
1642.00,0.0088
1641.00,0.0089
1640.00,0.0090
1639.00,0.0091
1638.00,0.0091
1637.00,0.0092
1636.00,0.0092
1635.00,0.0092
1634.00,0.0090
1633.00,0.0089
1632.00,0.0087
1631.00,0.0086
1630.00,0.0084
1629.00,0.0083
1628.00,0.0082
1627.00,0.0080
1626.00,0.0079
1625.00,0.0078
1624.00,0.0078
1623.00,0.0077
1622.00,0.0076
1621.00,0.0075
1620.00,0.0074
1619.00,0.0073
1618.00,0.0072
1617.00,0.0072
1616.00,0.0072
1615.00,0.0072
1614.00,0.0072
1613.00,0.0072
1612.00,0.0072
1611.00,0.0071
1610.00,0.0071
1609.00,0.0071
1608.00,0.0070
1607.00,0.0070
1606.00,0.0069
1605.00,0.0069
1604.00,0.0069
1603.00,0.0070
1602.00,0.0070
1601.00,0.0070
1600.00,0.0070
1599.00,0.0069
1598.00,0.0068
1597.00,0.0068
1596.00,0.0068
1595.00,0.0067
1594.00,0.0067
1593.00,0.0067
1592.00,0.0067
1591.00,0.0067
1590.00,0.0067
1589.00,0.0068
1588.00,0.0069
1587.00,0.0069
1586.00,0.0070
1585.00,0.0070
1584.00,0.0071
1583.00,0.0072
1582.00,0.0072
1581.00,0.0073
1580.00,0.0074
1579.00,0.0075
1578.00,0.0076
1577.00,0.0077
1576.00,0.0078
1575.00,0.0078
1574.00,0.0078
1573.00,0.0078
1572.00,0.0079
1571.00,0.0079
1570.00,0.0079
1569.00,0.0080
1568.00,0.0080
1567.00,0.0081
1566.00,0.0081
1565.00,0.0081
1564.00,0.0080
1563.00,0.0080
1562.00,0.0079
1561.00,0.0079
1560.00,0.0079
1559.00,0.0079
1558.00,0.0079
1557.00,0.0080
1556.00,0.0081
1555.00,0.0083
1554.00,0.0084
1553.00,0.0084
1552.00,0.0084
1551.00,0.0085
1550.00,0.0085
1549.00,0.0085
1548.00,0.0086
1547.00,0.0086
1546.00,0.0087
1545.00,0.0088
1544.00,0.0090
1543.00,0.0090
1542.00,0.0090
1541.00,0.0090
1540.00,0.0088
1539.00,0.0086
1538.00,0.0083
1537.00,0.0082
1536.00,0.0081
1535.00,0.0079
1534.00,0.0076
1533.00,0.0074
1532.00,0.0072
1531.00,0.0070
1530.00,0.0069
1529.00,0.0069
1528.00,0.0068
1527.00,0.0068
1526.00,0.0067
1525.00,0.0067
1524.00,0.0066
1523.00,0.0065
1522.00,0.0065
1521.00,0.0066
1520.00,0.0067
1519.00,0.0068
1518.00,0.0068
1517.00,0.0068
1516.00,0.0068
1515.00,0.0067
1514.00,0.0067
1513.00,0.0067
1512.00,0.0068
1511.00,0.0068
1510.00,0.0068
1509.00,0.0069
1508.00,0.0070
1507.00,0.0071
1506.00,0.0071
1505.00,0.0072
1504.00,0.0073
1503.00,0.0074
1502.00,0.0075
1501.00,0.0077
1500.00,0.0080
1499.00,0.0081
1498.00,0.0083
1497.00,0.0086
1496.00,0.0089
1495.00,0.0091
1494.00,0.0093
1493.00,0.0096
1492.00,0.0100
1491.00,0.0103
1490.00,0.0107
1489.00,0.0112
1488.00,0.0117
1487.00,0.0122
1486.00,0.0127
1485.00,0.0132
1484.00,0.0139
1483.00,0.0145
1482.00,0.0153
1481.00,0.0164
1480.00,0.0176
1479.00,0.0189
1478.00,0.0203
1477.00,0.0224
1476.00,0.0249
1475.00,0.0278
1474.00,0.0319
1473.00,0.0377
1472.00,0.0446
1471.00,0.0511
1470.00,0.0574
1469.00,0.0639
1468.00,0.0710
1467.00,0.0787
1466.00,0.0875
1465.00,0.0970
1464.00,0.1052
1463.00,0.1107
1462.00,0.1142
1461.00,0.1165
1460.00,0.1181
1459.00,0.1191
1458.00,0.1198
1457.00,0.1201
1456.00,0.1197
1455.00,0.1187
1454.00,0.1175
1453.00,0.1158
1452.00,0.1133
1451.00,0.1098
1450.00,0.1049
1449.00,0.0980
1448.00,0.0892
1447.00,0.0797
1446.00,0.0712
1445.00,0.0639
1444.00,0.0576
1443.00,0.0524
1442.00,0.0485
1441.00,0.0457
1440.00,0.0439
1439.00,0.0432
1438.00,0.0433
1437.00,0.0435
1436.00,0.0426
1435.00,0.0403
1434.00,0.0368
1433.00,0.0325
1432.00,0.0281
1431.00,0.0242
1430.00,0.0211
1429.00,0.0188
1428.00,0.0172
1427.00,0.0162
1426.00,0.0155
1425.00,0.0149
1424.00,0.0144
1423.00,0.0140
1422.00,0.0139
1421.00,0.0137
1420.00,0.0133
1419.00,0.0131
1418.00,0.0128
1417.00,0.0125
1416.00,0.0123
1415.00,0.0122
1414.00,0.0121
1413.00,0.0119
1412.00,0.0117
1411.00,0.0116
1410.00,0.0115
1409.00,0.0114
1408.00,0.0113
1407.00,0.0113
1406.00,0.0113
1405.00,0.0112
1404.00,0.0111
1403.00,0.0112
1402.00,0.0113
1401.00,0.0113
1400.00,0.0113
1399.00,0.0114
1398.00,0.0116
1397.00,0.0118
1396.00,0.0119
1395.00,0.0123
1394.00,0.0127
1393.00,0.0131
1392.00,0.0135
1391.00,0.0141
1390.00,0.0151
1389.00,0.0165
1388.00,0.0185
1387.00,0.0215
1386.00,0.0255
1385.00,0.0308
1384.00,0.0380
1383.00,0.0482
1382.00,0.0621
1381.00,0.0803
1380.00,0.1033
1379.00,0.1302
1378.00,0.1574
1377.00,0.1785
1376.00,0.1872
1375.00,0.1795
1374.00,0.1576
1373.00,0.1303
1372.00,0.1050
1371.00,0.0841
1370.00,0.0675
1369.00,0.0548
1368.00,0.0462
1367.00,0.0408
1366.00,0.0379
1365.00,0.0368
1364.00,0.0371
1363.00,0.0386
1362.00,0.0408
1361.00,0.0431
1360.00,0.0449
1359.00,0.0454
1358.00,0.0443
1357.00,0.0418
1356.00,0.0382
1355.00,0.0342
1354.00,0.0303
1353.00,0.0270
1352.00,0.0244
1351.00,0.0223
1350.00,0.0205
1349.00,0.0190
1348.00,0.0178
1347.00,0.0168
1346.00,0.0159
1345.00,0.0151
1344.00,0.0145
1343.00,0.0140
1342.00,0.0135
1341.00,0.0131
1340.00,0.0128
1339.00,0.0126
1338.00,0.0125
1337.00,0.0125
1336.00,0.0126
1335.00,0.0128
1334.00,0.0130
1333.00,0.0134
1332.00,0.0138
1331.00,0.0142
1330.00,0.0143
1329.00,0.0142
1328.00,0.0139
1327.00,0.0135
1326.00,0.0130
1325.00,0.0124
1324.00,0.0119
1323.00,0.0114
1322.00,0.0111
1321.00,0.0108
1320.00,0.0107
1319.00,0.0105
1318.00,0.0103
1317.00,0.0101
1316.00,0.0100
1315.00,0.0100
1314.00,0.0100
1313.00,0.0100
1312.00,0.0101
1311.00,0.0103
1310.00,0.0107
1309.00,0.0113
1308.00,0.0122
1307.00,0.0133
1306.00,0.0143
1305.00,0.0150
1304.00,0.0152
1303.00,0.0149
1302.00,0.0145
1301.00,0.0140
1300.00,0.0138
1299.00,0.0138
1298.00,0.0139
1297.00,0.0139
1296.00,0.0138
1295.00,0.0136
1294.00,0.0133
1293.00,0.0129
1292.00,0.0125
1291.00,0.0120
1290.00,0.0116
1289.00,0.0112
1288.00,0.0108
1287.00,0.0105
1286.00,0.0102
1285.00,0.0100
1284.00,0.0098
1283.00,0.0097
1282.00,0.0095
1281.00,0.0094
1280.00,0.0093
1279.00,0.0092
1278.00,0.0091
1277.00,0.0090
1276.00,0.0090
1275.00,0.0089
1274.00,0.0090
1273.00,0.0090
1272.00,0.0090
1271.00,0.0091
1270.00,0.0092
1269.00,0.0094
1268.00,0.0096
1267.00,0.0099
1266.00,0.0103
1265.00,0.0106
1264.00,0.0109
1263.00,0.0112
1262.00,0.0115
1261.00,0.0119
1260.00,0.0123
1259.00,0.0128
1258.00,0.0133
1257.00,0.0137
1256.00,0.0139
1255.00,0.0136
1254.00,0.0130
1253.00,0.0121
1252.00,0.0113
1251.00,0.0105
1250.00,0.0100
1249.00,0.0096
1248.00,0.0093
1247.00,0.0091
1246.00,0.0089
1245.00,0.0088
1244.00,0.0086
1243.00,0.0086
1242.00,0.0085
1241.00,0.0084
1240.00,0.0083
1239.00,0.0082
1238.00,0.0082
1237.00,0.0082
1236.00,0.0082
1235.00,0.0082
1234.00,0.0083
1233.00,0.0083
1232.00,0.0084
1231.00,0.0084
1230.00,0.0085
1229.00,0.0086
1228.00,0.0088
1227.00,0.0090
1226.00,0.0093
1225.00,0.0096
1224.00,0.0098
1223.00,0.0101
1222.00,0.0105
1221.00,0.0108
1220.00,0.0110
1219.00,0.0111
1218.00,0.0111
1217.00,0.0109
1216.00,0.0106
1215.00,0.0103
1214.00,0.0100
1213.00,0.0097
1212.00,0.0095
1211.00,0.0094
1210.00,0.0093
1209.00,0.0092
1208.00,0.0090
1207.00,0.0089
1206.00,0.0088
1205.00,0.0088
1204.00,0.0088
1203.00,0.0087
1202.00,0.0087
1201.00,0.0087
1200.00,0.0086
1199.00,0.0086
1198.00,0.0086
1197.00,0.0087
1196.00,0.0088
1195.00,0.0088
1194.00,0.0089
1193.00,0.0088
1192.00,0.0088
1191.00,0.0088
1190.00,0.0088
1189.00,0.0087
1188.00,0.0087
1187.00,0.0087
1186.00,0.0088
1185.00,0.0089
1184.00,0.0089
1183.00,0.0091
1182.00,0.0092
1181.00,0.0095
1180.00,0.0099
1179.00,0.0103
1178.00,0.0109
1177.00,0.0116
1176.00,0.0125
1175.00,0.0139
1174.00,0.0156
1173.00,0.0179
1172.00,0.0207
1171.00,0.0238
1170.00,0.0268
1169.00,0.0293
1168.00,0.0308
1167.00,0.0311
1166.00,0.0303
1165.00,0.0288
1164.00,0.0271
1163.00,0.0254
1162.00,0.0240
1161.00,0.0228
1160.00,0.0219
1159.00,0.0211
1158.00,0.0205
1157.00,0.0201
1156.00,0.0199
1155.00,0.0198
1154.00,0.0197
1153.00,0.0195
1152.00,0.0191
1151.00,0.0185
1150.00,0.0177
1149.00,0.0168
1148.00,0.0158
1147.00,0.0150
1146.00,0.0142
1145.00,0.0136
1144.00,0.0131
1143.00,0.0126
1142.00,0.0120
1141.00,0.0114
1140.00,0.0109
1139.00,0.0104
1138.00,0.0099
1137.00,0.0096
1136.00,0.0094
1135.00,0.0093
1134.00,0.0094
1133.00,0.0094
1132.00,0.0095
1131.00,0.0095
1130.00,0.0095
1129.00,0.0095
1128.00,0.0095
1127.00,0.0096
1126.00,0.0098
1125.00,0.0099
1124.00,0.0100
1123.00,0.0101
1122.00,0.0103
1121.00,0.0104
1120.00,0.0105
1119.00,0.0106
1118.00,0.0108
1117.00,0.0109
1116.00,0.0110
1115.00,0.0112
1114.00,0.0114
1113.00,0.0116
1112.00,0.0119
1111.00,0.0122
1110.00,0.0125
1109.00,0.0129
1108.00,0.0134
1107.00,0.0139
1106.00,0.0145
1105.00,0.0151
1104.00,0.0156
1103.00,0.0158
1102.00,0.0157
1101.00,0.0154
1100.00,0.0148
1099.00,0.0142
1098.00,0.0136
1097.00,0.0130
1096.00,0.0125
1095.00,0.0121
1094.00,0.0117
1093.00,0.0115
1092.00,0.0114
1091.00,0.0112
1090.00,0.0110
1089.00,0.0108
1088.00,0.0106
1087.00,0.0105
1086.00,0.0105
1085.00,0.0105
1084.00,0.0105
1083.00,0.0105
1082.00,0.0104
1081.00,0.0103
1080.00,0.0102
1079.00,0.0101
1078.00,0.0100
1077.00,0.0100
1076.00,0.0100
1075.00,0.0099
1074.00,0.0098
1073.00,0.0097
1072.00,0.0096
1071.00,0.0096
1070.00,0.0095
1069.00,0.0095
1068.00,0.0096
1067.00,0.0096
1066.00,0.0096
1065.00,0.0097
1064.00,0.0099
1063.00,0.0100
1062.00,0.0101
1061.00,0.0102
1060.00,0.0103
1059.00,0.0103
1058.00,0.0105
1057.00,0.0106
1056.00,0.0108
1055.00,0.0111
1054.00,0.0114
1053.00,0.0117
1052.00,0.0121
1051.00,0.0125
1050.00,0.0129
1049.00,0.0134
1048.00,0.0140
1047.00,0.0145
1046.00,0.0150
1045.00,0.0152
1044.00,0.0153
1043.00,0.0153
1042.00,0.0151
1041.00,0.0148
1040.00,0.0146
1039.00,0.0144
1038.00,0.0145
1037.00,0.0146
1036.00,0.0146
1035.00,0.0145
1034.00,0.0143
1033.00,0.0141
1032.00,0.0140
1031.00,0.0139
1030.00,0.0139
1029.00,0.0140
1028.00,0.0141
1027.00,0.0142
1026.00,0.0144
1025.00,0.0146
1024.00,0.0148
1023.00,0.0151
1022.00,0.0154
1021.00,0.0157
1020.00,0.0160
1019.00,0.0162
1018.00,0.0163
1017.00,0.0162
1016.00,0.0161
1015.00,0.0160
1014.00,0.0159
1013.00,0.0157
1012.00,0.0157
1011.00,0.0156
1010.00,0.0155
1009.00,0.0155
1008.00,0.0156
1007.00,0.0159
1006.00,0.0165
1005.00,0.0175
1004.00,0.0190
1003.00,0.0210
1002.00,0.0238
1001.00,0.0273
1000.00,0.0311
999.00,0.0342
998.00,0.0356
997.00,0.0348
996.00,0.0320
995.00,0.0282
994.00,0.0243
993.00,0.0209
992.00,0.0183
991.00,0.0164
990.00,0.0150
989.00,0.0141
988.00,0.0134
987.00,0.0129
986.00,0.0128
985.00,0.0129
984.00,0.0132
983.00,0.0138
982.00,0.0147
981.00,0.0160
980.00,0.0180
979.00,0.0205
978.00,0.0238
977.00,0.0277
976.00,0.0319
975.00,0.0359
974.00,0.0390
973.00,0.0402
972.00,0.0388
971.00,0.0352
970.00,0.0302
969.00,0.0251
968.00,0.0208
967.00,0.0176
966.00,0.0152
965.00,0.0135
964.00,0.0122
963.00,0.0113
962.00,0.0106
961.00,0.0101
960.00,0.0096
959.00,0.0091
958.00,0.0088
957.00,0.0086
956.00,0.0083
955.00,0.0082
954.00,0.0081
953.00,0.0080
952.00,0.0079
951.00,0.0078
950.00,0.0077
949.00,0.0077
948.00,0.0076
947.00,0.0077
946.00,0.0078
945.00,0.0081
944.00,0.0085
943.00,0.0089
942.00,0.0093
941.00,0.0095
940.00,0.0096
939.00,0.0094
938.00,0.0091
937.00,0.0086
936.00,0.0081
935.00,0.0077
934.00,0.0074
933.00,0.0072
932.00,0.0071
931.00,0.0070
930.00,0.0069
929.00,0.0069
928.00,0.0069
927.00,0.0068
926.00,0.0068
925.00,0.0069
924.00,0.0069
923.00,0.0070
922.00,0.0070
921.00,0.0070
920.00,0.0070
919.00,0.0070
918.00,0.0070
917.00,0.0071
916.00,0.0072
915.00,0.0074
914.00,0.0074
913.00,0.0075
912.00,0.0075
911.00,0.0077
910.00,0.0079
909.00,0.0081
908.00,0.0083
907.00,0.0088
906.00,0.0095
905.00,0.0106
904.00,0.0120
903.00,0.0137
902.00,0.0156
901.00,0.0174
900.00,0.0186
899.00,0.0189
898.00,0.0182
897.00,0.0166
896.00,0.0148
895.00,0.0130
894.00,0.0115
893.00,0.0104
892.00,0.0096
891.00,0.0090
890.00,0.0086
889.00,0.0085
888.00,0.0084
887.00,0.0084
886.00,0.0084
885.00,0.0083
884.00,0.0081
883.00,0.0079
882.00,0.0078
881.00,0.0077
880.00,0.0078
879.00,0.0079
878.00,0.0081
877.00,0.0082
876.00,0.0082
875.00,0.0083
874.00,0.0083
873.00,0.0084
872.00,0.0084
871.00,0.0084
870.00,0.0086
869.00,0.0087
868.00,0.0089
867.00,0.0089
866.00,0.0090
865.00,0.0090
864.00,0.0089
863.00,0.0089
862.00,0.0089
861.00,0.0090
860.00,0.0090
859.00,0.0092
858.00,0.0093
857.00,0.0094
856.00,0.0095
855.00,0.0098
854.00,0.0101
853.00,0.0103
852.00,0.0106
851.00,0.0108
850.00,0.0112
849.00,0.0117
848.00,0.0126
847.00,0.0138
846.00,0.0157
845.00,0.0186
844.00,0.0228
843.00,0.0278
842.00,0.0322
841.00,0.0338
840.00,0.0318
839.00,0.0272
838.00,0.0220
837.00,0.0179
836.00,0.0153
835.00,0.0137
834.00,0.0127
833.00,0.0120
832.00,0.0115
831.00,0.0113
830.00,0.0111
829.00,0.0110
828.00,0.0108
827.00,0.0107
826.00,0.0107
825.00,0.0108
824.00,0.0109
823.00,0.0111
822.00,0.0113
821.00,0.0115
820.00,0.0117
819.00,0.0119
818.00,0.0123
817.00,0.0128
816.00,0.0136
815.00,0.0147
814.00,0.0162
813.00,0.0179
812.00,0.0199
811.00,0.0217
810.00,0.0231
809.00,0.0237
808.00,0.0234
807.00,0.0222
806.00,0.0205
805.00,0.0186
804.00,0.0168
803.00,0.0155
802.00,0.0145
801.00,0.0138
800.00,0.0132
799.00,0.0126
798.00,0.0121
797.00,0.0118
796.00,0.0115
795.00,0.0112
794.00,0.0109
793.00,0.0104
792.00,0.0100
791.00,0.0096
790.00,0.0093
789.00,0.0090
788.00,0.0087
787.00,0.0084
786.00,0.0081
785.00,0.0079
784.00,0.0079
783.00,0.0079
782.00,0.0079
781.00,0.0078
780.00,0.0078
779.00,0.0077
778.00,0.0075
777.00,0.0073
776.00,0.0072
775.00,0.0072
774.00,0.0072
773.00,0.0073
772.00,0.0075
771.00,0.0076
770.00,0.0077
769.00,0.0076
768.00,0.0075
767.00,0.0074
766.00,0.0075
765.00,0.0076
764.00,0.0077
763.00,0.0078
762.00,0.0079
761.00,0.0080
760.00,0.0080
759.00,0.0080
758.00,0.0080
757.00,0.0082
756.00,0.0083
755.00,0.0085
754.00,0.0087
753.00,0.0088
752.00,0.0089
751.00,0.0088
750.00,0.0088
749.00,0.0088
748.00,0.0089
747.00,0.0091
746.00,0.0094
745.00,0.0097
744.00,0.0099
743.00,0.0102
742.00,0.0104
741.00,0.0106
740.00,0.0109
739.00,0.0113
738.00,0.0119
737.00,0.0124
736.00,0.0128
735.00,0.0132
734.00,0.0136
733.00,0.0142
732.00,0.0149
731.00,0.0156
730.00,0.0161
729.00,0.0164
728.00,0.0165
727.00,0.0167
726.00,0.0170
725.00,0.0173
724.00,0.0178
723.00,0.0183
722.00,0.0188
721.00,0.0191
720.00,0.0190
719.00,0.0182
718.00,0.0171
717.00,0.0159
716.00,0.0147
715.00,0.0138
714.00,0.0133
713.00,0.0131
712.00,0.0130
711.00,0.0128
710.00,0.0126
709.00,0.0125
708.00,0.0124
707.00,0.0123
706.00,0.0122
705.00,0.0121
704.00,0.0121
703.00,0.0121
702.00,0.0119
701.00,0.0116
700.00,0.0111
699.00,0.0108
698.00,0.0107
697.00,0.0107
696.00,0.0107
695.00,0.0106
694.00,0.0106
693.00,0.0107
692.00,0.0109
691.00,0.0110
690.00,0.0111
689.00,0.0112
688.00,0.0113
687.00,0.0113
686.00,0.0112
685.00,0.0112
684.00,0.0112
683.00,0.0112
682.00,0.0111
681.00,0.0110
680.00,0.0108
679.00,0.0107
678.00,0.0108
677.00,0.0111
676.00,0.0113
675.00,0.0114
674.00,0.0114
673.00,0.0114
672.00,0.0115
671.00,0.0118
670.00,0.0119
669.00,0.0119
668.00,0.0116
667.00,0.0113
666.00,0.0110
665.00,0.0110
664.00,0.0110
663.00,0.0111
662.00,0.0111
661.00,0.0110
660.00,0.0108
659.00,0.0106
658.00,0.0104
657.00,0.0102
656.00,0.0100
655.00,0.0099
654.00,0.0098
653.00,0.0098
652.00,0.0099
651.00,0.0100
650.00,0.0101
649.00,0.0100
648.00,0.0098
647.00,0.0098
646.00,0.0098
645.00,0.0099
644.00,0.0099
643.00,0.0099
642.00,0.0099
641.00,0.0098
640.00,0.0099
639.00,0.0099
638.00,0.0099
637.00,0.0099
636.00,0.0099
635.00,0.0099
634.00,0.0100
633.00,0.0102
632.00,0.0104
631.00,0.0105
630.00,0.0104
629.00,0.0101
628.00,0.0099
627.00,0.0100
626.00,0.0102
625.00,0.0105
624.00,0.0106
623.00,0.0106
622.00,0.0103
621.00,0.0100
620.00,0.0096
619.00,0.0093
618.00,0.0091
617.00,0.0092
616.00,0.0094
615.00,0.0096
614.00,0.0099
613.00,0.0100
612.00,0.0099
611.00,0.0099
610.00,0.0099
609.00,0.0100
608.00,0.0102
607.00,0.0103
606.00,0.0102
605.00,0.0100
604.00,0.0097
603.00,0.0095
602.00,0.0095
601.00,0.0097
600.00,0.0098
599.00,0.0099
598.00,0.0098
597.00,0.0097
596.00,0.0095
595.00,0.0094
594.00,0.0094
593.00,0.0094
592.00,0.0095
591.00,0.0096
590.00,0.0097
589.00,0.0096
588.00,0.0096
587.00,0.0097
586.00,0.0101
585.00,0.0105
584.00,0.0107
583.00,0.0108
582.00,0.0106
581.00,0.0102
580.00,0.0099
579.00,0.0098
578.00,0.0099
577.00,0.0101
576.00,0.0103
575.00,0.0104
574.00,0.0104
573.00,0.0101
572.00,0.0098
571.00,0.0097
570.00,0.0098
569.00,0.0099
568.00,0.0098
567.00,0.0095
566.00,0.0094
565.00,0.0096
564.00,0.0099
563.00,0.0103
562.00,0.0107
561.00,0.0110
560.00,0.0110
559.00,0.0109
558.00,0.0107
557.00,0.0104
556.00,0.0102
555.00,0.0102
554.00,0.0103
553.00,0.0104
552.00,0.0105
551.00,0.0104
550.00,0.0103
549.00,0.0103
548.00,0.0102
547.00,0.0100
546.00,0.0099
545.00,0.0100
544.00,0.0103
543.00,0.0108
542.00,0.0112
541.00,0.0114
540.00,0.0113
539.00,0.0114
538.00,0.0118
537.00,0.0122
536.00,0.0123
535.00,0.0122
534.00,0.0122
533.00,0.0125
532.00,0.0130
531.00,0.0134
530.00,0.0137
529.00,0.0138
528.00,0.0137
527.00,0.0133
526.00,0.0126
525.00,0.0119
524.00,0.0115
523.00,0.0114
522.00,0.0114
521.00,0.0113
520.00,0.0110
519.00,0.0105
518.00,0.0101
517.00,0.0101
516.00,0.0104
515.00,0.0107
514.00,0.0107
513.00,0.0104
512.00,0.0100
511.00,0.0095
510.00,0.0091
509.00,0.0088
508.00,0.0087
507.00,0.0088
506.00,0.0091
505.00,0.0094
504.00,0.0095
503.00,0.0095
502.00,0.0094
501.00,0.0095
500.00,0.0096
499.00,0.0094
498.00,0.0090
497.00,0.0087
496.00,0.0087
495.00,0.0094
494.00,0.0101
493.00,0.0104
492.00,0.0099
491.00,0.0092
490.00,0.0086
489.00,0.0083
488.00,0.0081
487.00,0.0081
486.00,0.0082
485.00,0.0083
484.00,0.0083
483.00,0.0084
482.00,0.0087
481.00,0.0092
480.00,0.0098
479.00,0.0105
478.00,0.0115
477.00,0.0125
476.00,0.0129
475.00,0.0127
474.00,0.0125
473.00,0.0125
472.00,0.0128
471.00,0.0129
470.00,0.0132
469.00,0.0143
468.00,0.0162
467.00,0.0180
466.00,0.0191
465.00,0.0194
464.00,0.0193
463.00,0.0193
462.00,0.0195
461.00,0.0203
460.00,0.0213
459.00,0.0222
458.00,0.0227
457.00,0.0227
456.00,0.0226
455.00,0.0221
454.00,0.0211
453.00,0.0197
452.00,0.0183
451.00,0.0177
450.00,0.0176
