Created as New Dataset,Sample 018 By Administrator Date Thursday, September 04 2025
cm-1,A
4000.00,0.0020
3999.00,0.0020
3998.00,0.0019
3997.00,0.0019
3996.00,0.0020
3995.00,0.0020
3994.00,0.0020
3993.00,0.0020
3992.00,0.0020
3991.00,0.0020
3990.00,0.0020
3989.00,0.0020
3988.00,0.0020
3987.00,0.0020
3986.00,0.0020
3985.00,0.0019
3984.00,0.0019
3983.00,0.0019
3982.00,0.0019
3981.00,0.0018
3980.00,0.0018
3979.00,0.0018
3978.00,0.0018
3977.00,0.0017
3976.00,0.0017
3975.00,0.0017
3974.00,0.0017
3973.00,0.0017
3972.00,0.0017
3971.00,0.0017
3970.00,0.0018
3969.00,0.0018
3968.00,0.0018
3967.00,0.0018
3966.00,0.0018
3965.00,0.0018
3964.00,0.0018
3963.00,0.0018
3962.00,0.0018
3961.00,0.0017
3960.00,0.0017
3959.00,0.0017
3958.00,0.0017
3957.00,0.0017
3956.00,0.0017
3955.00,0.0016
3954.00,0.0016
3953.00,0.0016
3952.00,0.0016
3951.00,0.0016
3950.00,0.0017
3949.00,0.0017
3948.00,0.0017
3947.00,0.0017
3946.00,0.0017
3945.00,0.0017
3944.00,0.0017
3943.00,0.0018
3942.00,0.0018
3941.00,0.0018
3940.00,0.0018
3939.00,0.0018
3938.00,0.0018
3937.00,0.0018
3936.00,0.0018
3935.00,0.0018
3934.00,0.0018
3933.00,0.0018
3932.00,0.0018
3931.00,0.0017
3930.00,0.0017
3929.00,0.0017
3928.00,0.0016
3927.00,0.0016
3926.00,0.0017
3925.00,0.0017
3924.00,0.0018
3923.00,0.0018
3922.00,0.0018
3921.00,0.0018
3920.00,0.0019
3919.00,0.0019
3918.00,0.0019
3917.00,0.0018
3916.00,0.0018
3915.00,0.0018
3914.00,0.0018
3913.00,0.0018
3912.00,0.0018
3911.00,0.0018
3910.00,0.0018
3909.00,0.0018
3908.00,0.0018
3907.00,0.0018
3906.00,0.0017
3905.00,0.0017
3904.00,0.0017
3903.00,0.0017
3902.00,0.0016
3901.00,0.0016
3900.00,0.0016
3899.00,0.0016
3898.00,0.0016
3897.00,0.0016
3896.00,0.0016
3895.00,0.0016
3894.00,0.0016
3893.00,0.0017
3892.00,0.0017
3891.00,0.0017
3890.00,0.0017
3889.00,0.0017
3888.00,0.0016
3887.00,0.0016
3886.00,0.0017
3885.00,0.0017
3884.00,0.0016
3883.00,0.0016
3882.00,0.0016
3881.00,0.0017
3880.00,0.0017
3879.00,0.0017
3878.00,0.0017
3877.00,0.0017
3876.00,0.0016
3875.00,0.0016
3874.00,0.0016
3873.00,0.0016
3872.00,0.0015
3871.00,0.0016
3870.00,0.0016
3869.00,0.0016
3868.00,0.0016
3867.00,0.0015
3866.00,0.0014
3865.00,0.0015
3864.00,0.0015
3863.00,0.0015
3862.00,0.0016
3861.00,0.0016
3860.00,0.0017
3859.00,0.0017
3858.00,0.0018
3857.00,0.0018
3856.00,0.0017
3855.00,0.0016
3854.00,0.0016
3853.00,0.0015
3852.00,0.0014
3851.00,0.0014
3850.00,0.0015
3849.00,0.0015
3848.00,0.0016
3847.00,0.0016
3846.00,0.0016
3845.00,0.0016
3844.00,0.0017
3843.00,0.0017
3842.00,0.0017
3841.00,0.0016
3840.00,0.0016
3839.00,0.0015
3838.00,0.0015
3837.00,0.0015
3836.00,0.0015
3835.00,0.0014
3834.00,0.0014
3833.00,0.0015
3832.00,0.0015
3831.00,0.0016
3830.00,0.0016
3829.00,0.0016
3828.00,0.0017
3827.00,0.0017
3826.00,0.0017
3825.00,0.0017
3824.00,0.0017
3823.00,0.0017
3822.00,0.0017
3821.00,0.0017
3820.00,0.0017
3819.00,0.0016
3818.00,0.0016
3817.00,0.0016
3816.00,0.0017
3815.00,0.0017
3814.00,0.0017
3813.00,0.0017
3812.00,0.0017
3811.00,0.0018
3810.00,0.0018
3809.00,0.0017
3808.00,0.0017
3807.00,0.0017
3806.00,0.0017
3805.00,0.0016
3804.00,0.0016
3803.00,0.0016
3802.00,0.0016
3801.00,0.0016
3800.00,0.0016
3799.00,0.0015
3798.00,0.0016
3797.00,0.0016
3796.00,0.0016
3795.00,0.0016
3794.00,0.0016
3793.00,0.0016
3792.00,0.0016
3791.00,0.0017
3790.00,0.0017
3789.00,0.0017
3788.00,0.0017
3787.00,0.0017
3786.00,0.0017
3785.00,0.0017
3784.00,0.0017
3783.00,0.0016
3782.00,0.0016
3781.00,0.0016
3780.00,0.0016
3779.00,0.0017
3778.00,0.0017
3777.00,0.0017
3776.00,0.0017
3775.00,0.0018
3774.00,0.0018
3773.00,0.0018
3772.00,0.0018
3771.00,0.0018
3770.00,0.0018
3769.00,0.0018
3768.00,0.0017
3767.00,0.0017
3766.00,0.0017
3765.00,0.0017
3764.00,0.0017
3763.00,0.0018
3762.00,0.0018
3761.00,0.0018
3760.00,0.0018
3759.00,0.0018
3758.00,0.0017
3757.00,0.0017
3756.00,0.0017
3755.00,0.0017
3754.00,0.0017
3753.00,0.0017
3752.00,0.0017
3751.00,0.0018
3750.00,0.0017
3749.00,0.0017
3748.00,0.0017
3747.00,0.0017
3746.00,0.0017
3745.00,0.0017
3744.00,0.0017
3743.00,0.0016
3742.00,0.0016
3741.00,0.0016
3740.00,0.0017
3739.00,0.0017
3738.00,0.0017
3737.00,0.0016
3736.00,0.0016
3735.00,0.0015
3734.00,0.0015
3733.00,0.0015
3732.00,0.0015
3731.00,0.0015
3730.00,0.0015
3729.00,0.0015
3728.00,0.0015
3727.00,0.0015
3726.00,0.0015
3725.00,0.0014
3724.00,0.0014
3723.00,0.0014
3722.00,0.0014
3721.00,0.0014
3720.00,0.0014
3719.00,0.0015
3718.00,0.0015
3717.00,0.0015
3716.00,0.0016
3715.00,0.0016
3714.00,0.0016
3713.00,0.0016
3712.00,0.0016
3711.00,0.0016
3710.00,0.0015
3709.00,0.0015
3708.00,0.0014
3707.00,0.0014
3706.00,0.0015
3705.00,0.0015
3704.00,0.0015
3703.00,0.0016
3702.00,0.0016
3701.00,0.0016
3700.00,0.0015
3699.00,0.0015
3698.00,0.0015
3697.00,0.0015
3696.00,0.0015
3695.00,0.0015
3694.00,0.0015
3693.00,0.0016
3692.00,0.0016
3691.00,0.0016
3690.00,0.0016
3689.00,0.0016
3688.00,0.0015
3687.00,0.0015
3686.00,0.0014
3685.00,0.0014
3684.00,0.0015
3683.00,0.0015
3682.00,0.0015
3681.00,0.0016
3680.00,0.0017
3679.00,0.0018
3678.00,0.0018
3677.00,0.0018
3676.00,0.0017
3675.00,0.0016
3674.00,0.0015
3673.00,0.0014
3672.00,0.0014
3671.00,0.0014
3670.00,0.0014
3669.00,0.0014
3668.00,0.0014
3667.00,0.0014
3666.00,0.0015
3665.00,0.0015
3664.00,0.0015
3663.00,0.0015
3662.00,0.0015
3661.00,0.0015
3660.00,0.0015
3659.00,0.0015
3658.00,0.0015
3657.00,0.0015
3656.00,0.0016
3655.00,0.0016
3654.00,0.0016
3653.00,0.0015
3652.00,0.0015
3651.00,0.0015
3650.00,0.0015
3649.00,0.0015
3648.00,0.0014
3647.00,0.0015
3646.00,0.0015
3645.00,0.0016
3644.00,0.0016
3643.00,0.0017
3642.00,0.0017
3641.00,0.0016
3640.00,0.0016
3639.00,0.0016
3638.00,0.0016
3637.00,0.0016
3636.00,0.0017
3635.00,0.0017
3634.00,0.0018
3633.00,0.0018
3632.00,0.0018
3631.00,0.0017
3630.00,0.0016
3629.00,0.0016
3628.00,0.0016
3627.00,0.0017
3626.00,0.0017
3625.00,0.0017
3624.00,0.0018
3623.00,0.0018
3622.00,0.0018
3621.00,0.0018
3620.00,0.0018
3619.00,0.0018
3618.00,0.0018
3617.00,0.0018
3616.00,0.0018
3615.00,0.0018
3614.00,0.0018
3613.00,0.0019
3612.00,0.0019
3611.00,0.0019
3610.00,0.0018
3609.00,0.0018
3608.00,0.0019
3607.00,0.0019
3606.00,0.0019
3605.00,0.0019
3604.00,0.0019
3603.00,0.0019
3602.00,0.0019
3601.00,0.0019
3600.00,0.0019
3599.00,0.0019
3598.00,0.0020
3597.00,0.0020
3596.00,0.0020
3595.00,0.0021
3594.00,0.0021
3593.00,0.0021
3592.00,0.0021
3591.00,0.0020
3590.00,0.0020
3589.00,0.0020
3588.00,0.0020
3587.00,0.0021
3586.00,0.0021
3585.00,0.0021
3584.00,0.0021
3583.00,0.0022
3582.00,0.0022
3581.00,0.0023
3580.00,0.0023
3579.00,0.0023
3578.00,0.0023
3577.00,0.0023
3576.00,0.0023
3575.00,0.0024
3574.00,0.0024
3573.00,0.0024
3572.00,0.0024
3571.00,0.0024
3570.00,0.0023
3569.00,0.0023
3568.00,0.0022
3567.00,0.0023
3566.00,0.0023
3565.00,0.0024
3564.00,0.0024
3563.00,0.0025
3562.00,0.0025
3561.00,0.0026
3560.00,0.0026
3559.00,0.0026
3558.00,0.0026
3557.00,0.0026
3556.00,0.0026
3555.00,0.0026
3554.00,0.0026
3553.00,0.0026
3552.00,0.0026
3551.00,0.0026
3550.00,0.0026
3549.00,0.0026
3548.00,0.0026
3547.00,0.0027
3546.00,0.0027
3545.00,0.0028
3544.00,0.0029
3543.00,0.0029
3542.00,0.0030
3541.00,0.0030
3540.00,0.0029
3539.00,0.0029
3538.00,0.0029
3537.00,0.0029
3536.00,0.0030
3535.00,0.0030
3534.00,0.0031
3533.00,0.0031
3532.00,0.0031
3531.00,0.0031
3530.00,0.0031
3529.00,0.0031
3528.00,0.0031
3527.00,0.0032
3526.00,0.0032
3525.00,0.0032
3524.00,0.0032
3523.00,0.0033
3522.00,0.0033
3521.00,0.0033
3520.00,0.0033
3519.00,0.0033
3518.00,0.0033
3517.00,0.0033
3516.00,0.0033
3515.00,0.0034
3514.00,0.0034
3513.00,0.0034
3512.00,0.0034
3511.00,0.0035
3510.00,0.0035
3509.00,0.0036
3508.00,0.0036
3507.00,0.0036
3506.00,0.0036
3505.00,0.0036
3504.00,0.0035
3503.00,0.0035
3502.00,0.0035
3501.00,0.0036
3500.00,0.0036
3499.00,0.0036
3498.00,0.0037
3497.00,0.0037
3496.00,0.0037
3495.00,0.0037
3494.00,0.0037
3493.00,0.0037
3492.00,0.0038
3491.00,0.0038
3490.00,0.0038
3489.00,0.0038
3488.00,0.0038
3487.00,0.0038
3486.00,0.0038
3485.00,0.0038
3484.00,0.0039
3483.00,0.0039
3482.00,0.0040
3481.00,0.0040
3480.00,0.0041
3479.00,0.0041
3478.00,0.0041
3477.00,0.0040
3476.00,0.0041
3475.00,0.0041
3474.00,0.0041
3473.00,0.0042
3472.00,0.0042
3471.00,0.0042
3470.00,0.0042
3469.00,0.0043
3468.00,0.0043
3467.00,0.0042
3466.00,0.0042
3465.00,0.0043
3464.00,0.0043
3463.00,0.0043
3462.00,0.0043
3461.00,0.0043
3460.00,0.0043
3459.00,0.0043
3458.00,0.0044
3457.00,0.0044
3456.00,0.0044
3455.00,0.0044
3454.00,0.0044
3453.00,0.0044
3452.00,0.0045
3451.00,0.0045
3450.00,0.0045
3449.00,0.0046
3448.00,0.0047
3447.00,0.0047
3446.00,0.0047
3445.00,0.0047
3444.00,0.0046
3443.00,0.0046
3442.00,0.0047
3441.00,0.0047
3440.00,0.0048
3439.00,0.0048
3438.00,0.0048
3437.00,0.0048
3436.00,0.0048
3435.00,0.0048
3434.00,0.0048
3433.00,0.0049
3432.00,0.0049
3431.00,0.0049
3430.00,0.0050
3429.00,0.0050
3428.00,0.0050
3427.00,0.0050
3426.00,0.0050
3425.00,0.0049
3424.00,0.0049
3423.00,0.0050
3422.00,0.0050
3421.00,0.0051
3420.00,0.0052
3419.00,0.0052
3418.00,0.0052
3417.00,0.0052
3416.00,0.0052
3415.00,0.0052
3414.00,0.0052
3413.00,0.0052
3412.00,0.0052
3411.00,0.0052
3410.00,0.0052
3409.00,0.0052
3408.00,0.0052
3407.00,0.0053
3406.00,0.0053
3405.00,0.0053
3404.00,0.0054
3403.00,0.0054
3402.00,0.0055
3401.00,0.0055
3400.00,0.0055
3399.00,0.0054
3398.00,0.0054
3397.00,0.0054
3396.00,0.0054
3395.00,0.0054
3394.00,0.0054
3393.00,0.0054
3392.00,0.0054
3391.00,0.0054
3390.00,0.0054
3389.00,0.0054
3388.00,0.0054
3387.00,0.0054
3386.00,0.0054
3385.00,0.0054
3384.00,0.0054
3383.00,0.0054
3382.00,0.0054
3381.00,0.0054
3380.00,0.0054
3379.00,0.0054
3378.00,0.0054
3377.00,0.0054
3376.00,0.0054
3375.00,0.0054
3374.00,0.0055
3373.00,0.0055
3372.00,0.0055
3371.00,0.0054
3370.00,0.0054
3369.00,0.0054
3368.00,0.0054
3367.00,0.0054
3366.00,0.0055
3365.00,0.0055
3364.00,0.0055
3363.00,0.0055
3362.00,0.0055
3361.00,0.0055
3360.00,0.0055
3359.00,0.0055
3358.00,0.0055
3357.00,0.0055
3356.00,0.0056
3355.00,0.0056
3354.00,0.0056
3353.00,0.0056
3352.00,0.0056
3351.00,0.0055
3350.00,0.0056
3349.00,0.0056
3348.00,0.0056
3347.00,0.0056
3346.00,0.0056
3345.00,0.0056
3344.00,0.0056
3343.00,0.0056
3342.00,0.0055
3341.00,0.0055
3340.00,0.0055
3339.00,0.0055
3338.00,0.0055
3337.00,0.0055
3336.00,0.0055
3335.00,0.0054
3334.00,0.0054
3333.00,0.0054
3332.00,0.0054
3331.00,0.0055
3330.00,0.0055
3329.00,0.0054
3328.00,0.0054
3327.00,0.0054
3326.00,0.0054
3325.00,0.0054
3324.00,0.0053
3323.00,0.0053
3322.00,0.0053
3321.00,0.0053
3320.00,0.0053
3319.00,0.0054
3318.00,0.0054
3317.00,0.0054
3316.00,0.0054
3315.00,0.0054
3314.00,0.0054
3313.00,0.0054
3312.00,0.0055
3311.00,0.0055
3310.00,0.0055
3309.00,0.0055
3308.00,0.0055
3307.00,0.0055
3306.00,0.0055
3305.00,0.0055
3304.00,0.0055
3303.00,0.0056
3302.00,0.0056
3301.00,0.0055
3300.00,0.0055
3299.00,0.0055
3298.00,0.0054
3297.00,0.0054
3296.00,0.0053
3295.00,0.0053
3294.00,0.0053
3293.00,0.0053
3292.00,0.0053
3291.00,0.0052
3290.00,0.0052
3289.00,0.0052
3288.00,0.0052
3287.00,0.0052
3286.00,0.0052
3285.00,0.0052
3284.00,0.0052
3283.00,0.0051
3282.00,0.0051
3281.00,0.0051
3280.00,0.0051
3279.00,0.0051
3278.00,0.0052
3277.00,0.0051
3276.00,0.0051
3275.00,0.0050
3274.00,0.0050
3273.00,0.0050
3272.00,0.0050
3271.00,0.0050
3270.00,0.0050
3269.00,0.0050
3268.00,0.0050
3267.00,0.0050
3266.00,0.0050
3265.00,0.0050
3264.00,0.0049
3263.00,0.0049
3262.00,0.0049
3261.00,0.0049
3260.00,0.0049
3259.00,0.0049
3258.00,0.0049
3257.00,0.0049
3256.00,0.0049
3255.00,0.0048
3254.00,0.0048
3253.00,0.0048
3252.00,0.0048
3251.00,0.0048
3250.00,0.0048
3249.00,0.0047
3248.00,0.0047
3247.00,0.0047
3246.00,0.0047
3245.00,0.0047
3244.00,0.0048
3243.00,0.0048
3242.00,0.0048
3241.00,0.0048
3240.00,0.0048
3239.00,0.0048
3238.00,0.0048
3237.00,0.0047
3236.00,0.0047
3235.00,0.0047
3234.00,0.0047
3233.00,0.0047
3232.00,0.0047
3231.00,0.0047
3230.00,0.0048
3229.00,0.0048
3228.00,0.0048
3227.00,0.0048
3226.00,0.0048
3225.00,0.0049
3224.00,0.0049
3223.00,0.0049
3222.00,0.0049
3221.00,0.0049
3220.00,0.0049
3219.00,0.0049
3218.00,0.0049
3217.00,0.0049
3216.00,0.0049
3215.00,0.0049
3214.00,0.0050
3213.00,0.0050
3212.00,0.0050
3211.00,0.0051
3210.00,0.0051
3209.00,0.0052
3208.00,0.0052
3207.00,0.0052
3206.00,0.0052
3205.00,0.0052
3204.00,0.0052
3203.00,0.0052
3202.00,0.0052
3201.00,0.0052
3200.00,0.0053
3199.00,0.0053
3198.00,0.0053
3197.00,0.0053
3196.00,0.0053
3195.00,0.0053
3194.00,0.0053
3193.00,0.0053
3192.00,0.0053
3191.00,0.0052
3190.00,0.0051
3189.00,0.0050
3188.00,0.0050
3187.00,0.0050
3186.00,0.0050
3185.00,0.0050
3184.00,0.0050
3183.00,0.0050
3182.00,0.0050
3181.00,0.0050
3180.00,0.0050
3179.00,0.0050
3178.00,0.0050
3177.00,0.0050
3176.00,0.0050
3175.00,0.0050
3174.00,0.0049
3173.00,0.0049
3172.00,0.0049
3171.00,0.0049
3170.00,0.0048
3169.00,0.0048
3168.00,0.0048
3167.00,0.0048
3166.00,0.0048
3165.00,0.0048
3164.00,0.0048
3163.00,0.0047
3162.00,0.0047
3161.00,0.0047
3160.00,0.0047
3159.00,0.0047
3158.00,0.0047
3157.00,0.0047
3156.00,0.0047
3155.00,0.0047
3154.00,0.0047
3153.00,0.0047
3152.00,0.0047
3151.00,0.0047
3150.00,0.0047
3149.00,0.0047
3148.00,0.0046
3147.00,0.0046
3146.00,0.0046
3145.00,0.0046
3144.00,0.0046
3143.00,0.0046
3142.00,0.0045
3141.00,0.0045
3140.00,0.0046
3139.00,0.0046
3138.00,0.0046
3137.00,0.0045
3136.00,0.0045
3135.00,0.0045
3134.00,0.0045
3133.00,0.0044
3132.00,0.0044
3131.00,0.0043
3130.00,0.0043
3129.00,0.0043
3128.00,0.0043
3127.00,0.0043
3126.00,0.0043
3125.00,0.0043
3124.00,0.0042
3123.00,0.0042
3122.00,0.0042
3121.00,0.0041
3120.00,0.0041
3119.00,0.0041
3118.00,0.0041
3117.00,0.0041
3116.00,0.0041
3115.00,0.0041
3114.00,0.0041
3113.00,0.0040
3112.00,0.0040
3111.00,0.0039
3110.00,0.0039
3109.00,0.0039
3108.00,0.0039
3107.00,0.0039
3106.00,0.0039
3105.00,0.0039
3104.00,0.0039
3103.00,0.0039
3102.00,0.0039
3101.00,0.0039
3100.00,0.0039
3099.00,0.0039
3098.00,0.0039
3097.00,0.0039
3096.00,0.0039
3095.00,0.0039
3094.00,0.0038
3093.00,0.0038
3092.00,0.0038
3091.00,0.0038
3090.00,0.0038
3089.00,0.0039
3088.00,0.0039
3087.00,0.0039
3086.00,0.0038
3085.00,0.0038
3084.00,0.0038
3083.00,0.0038
3082.00,0.0038
3081.00,0.0038
3080.00,0.0039
3079.00,0.0039
3078.00,0.0039
3077.00,0.0039
3076.00,0.0039
3075.00,0.0040
3074.00,0.0040
3073.00,0.0040
3072.00,0.0039
3071.00,0.0039
3070.00,0.0039
3069.00,0.0039
3068.00,0.0039
3067.00,0.0039
3066.00,0.0039
3065.00,0.0040
3064.00,0.0040
3063.00,0.0040
3062.00,0.0040
3061.00,0.0040
3060.00,0.0039
3059.00,0.0039
3058.00,0.0039
3057.00,0.0039
3056.00,0.0040
3055.00,0.0040
3054.00,0.0041
3053.00,0.0041
3052.00,0.0041
3051.00,0.0041
3050.00,0.0041
3049.00,0.0041
3048.00,0.0041
3047.00,0.0041
3046.00,0.0042
3045.00,0.0042
3044.00,0.0042
3043.00,0.0042
3042.00,0.0042
3041.00,0.0042
3040.00,0.0043
3039.00,0.0043
3038.00,0.0043
3037.00,0.0044
3036.00,0.0044
3035.00,0.0044
3034.00,0.0044
3033.00,0.0045
3032.00,0.0046
3031.00,0.0046
3030.00,0.0047
3029.00,0.0047
3028.00,0.0047
3027.00,0.0048
3026.00,0.0049
3025.00,0.0049
3024.00,0.0050
3023.00,0.0051
3022.00,0.0051
3021.00,0.0052
3020.00,0.0053
3019.00,0.0054
3018.00,0.0054
3017.00,0.0055
3016.00,0.0056
3015.00,0.0057
3014.00,0.0058
3013.00,0.0059
3012.00,0.0060
3011.00,0.0062
3010.00,0.0063
3009.00,0.0065
3008.00,0.0066
3007.00,0.0068
3006.00,0.0070
3005.00,0.0072
3004.00,0.0073
3003.00,0.0076
3002.00,0.0078
3001.00,0.0080
3000.00,0.0083
2999.00,0.0086
2998.00,0.0089
2997.00,0.0093
2996.00,0.0096
2995.00,0.0100
2994.00,0.0104
2993.00,0.0109
2992.00,0.0114
2991.00,0.0120
2990.00,0.0127
2989.00,0.0134
2988.00,0.0142
2987.00,0.0151
2986.00,0.0161
2985.00,0.0172
2984.00,0.0185
2983.00,0.0199
2982.00,0.0215
2981.00,0.0233
2980.00,0.0253
2979.00,0.0277
2978.00,0.0304
2977.00,0.0335
2976.00,0.0370
2975.00,0.0411
2974.00,0.0457
2973.00,0.0510
2972.00,0.0570
2971.00,0.0637
2970.00,0.0712
2969.00,0.0794
2968.00,0.0883
2967.00,0.0978
2966.00,0.1079
2965.00,0.1183
2964.00,0.1287
2963.00,0.1384
2962.00,0.1467
2961.00,0.1532
2960.00,0.1578
2959.00,0.1610
2958.00,0.1636
2957.00,0.1667
2956.00,0.1709
2955.00,0.1767
2954.00,0.1840
2953.00,0.1919
2952.00,0.1991
2951.00,0.2040
2950.00,0.2051
2949.00,0.2016
2948.00,0.1935
2947.00,0.1817
2946.00,0.1677
2945.00,0.1532
2944.00,0.1395
2943.00,0.1277
2942.00,0.1184
2941.00,0.1117
2940.00,0.1076
2939.00,0.1058
2938.00,0.1062
2937.00,0.1084
2936.00,0.1123
2935.00,0.1177
2934.00,0.1247
2933.00,0.1330
2932.00,0.1424
2931.00,0.1529
2930.00,0.1641
2929.00,0.1758
2928.00,0.1875
2927.00,0.1990
2926.00,0.2101
2925.00,0.2208
2924.00,0.2313
2923.00,0.2416
2922.00,0.2519
2921.00,0.2618
2920.00,0.2706
2919.00,0.2770
2918.00,0.2800
2917.00,0.2789
2916.00,0.2736
2915.00,0.2649
2914.00,0.2542
2913.00,0.2428
2912.00,0.2320
2911.00,0.2223
2910.00,0.2139
2909.00,0.2067
2908.00,0.2001
2907.00,0.1937
2906.00,0.1873
2905.00,0.1806
2904.00,0.1736
2903.00,0.1665
2902.00,0.1594
2901.00,0.1524
2900.00,0.1456
2899.00,0.1391
2898.00,0.1331
2897.00,0.1277
2896.00,0.1229
2895.00,0.1188
2894.00,0.1155
2893.00,0.1129
2892.00,0.1109
2891.00,0.1096
2890.00,0.1088
2889.00,0.1085
2888.00,0.1085
2887.00,0.1088
2886.00,0.1095
2885.00,0.1104
2884.00,0.1117
2883.00,0.1134
2882.00,0.1154
2881.00,0.1175
2880.00,0.1194
2879.00,0.1208
2878.00,0.1215
2877.00,0.1213
2876.00,0.1205
2875.00,0.1196
2874.00,0.1191
2873.00,0.1193
2872.00,0.1203
2871.00,0.1221
2870.00,0.1243
2869.00,0.1265
2868.00,0.1279
2867.00,0.1278
2866.00,0.1253
2865.00,0.1203
2864.00,0.1131
2863.00,0.1046
2862.00,0.0958
2861.00,0.0877
2860.00,0.0809
2859.00,0.0757
2858.00,0.0721
2857.00,0.0699
2856.00,0.0687
2855.00,0.0685
2854.00,0.0691
2853.00,0.0702
2852.00,0.0717
2851.00,0.0736
2850.00,0.0757
2849.00,0.0782
2848.00,0.0811
2847.00,0.0846
2846.00,0.0891
2845.00,0.0946
2844.00,0.1011
2843.00,0.1081
2842.00,0.1151
2841.00,0.1214
2840.00,0.1260
2839.00,0.1282
2838.00,0.1274
2837.00,0.1233
2836.00,0.1162
2835.00,0.1067
2834.00,0.0959
2833.00,0.0850
2832.00,0.0747
2831.00,0.0656
2830.00,0.0580
2829.00,0.0517
2828.00,0.0466
2827.00,0.0425
2826.00,0.0391
2825.00,0.0362
2824.00,0.0338
2823.00,0.0318
2822.00,0.0300
2821.00,0.0285
2820.00,0.0271
2819.00,0.0259
2818.00,0.0249
2817.00,0.0240
2816.00,0.0232
2815.00,0.0224
2814.00,0.0218
2813.00,0.0212
2812.00,0.0206
2811.00,0.0200
2810.00,0.0194
2809.00,0.0188
2808.00,0.0181
2807.00,0.0175
2806.00,0.0169
2805.00,0.0162
2804.00,0.0155
2803.00,0.0149
2802.00,0.0144
2801.00,0.0139
2800.00,0.0135
2799.00,0.0132
2798.00,0.0130
2797.00,0.0127
2796.00,0.0125
2795.00,0.0122
2794.00,0.0120
2793.00,0.0116
2792.00,0.0113
2791.00,0.0109
2790.00,0.0106
2789.00,0.0102
2788.00,0.0099
2787.00,0.0095
2786.00,0.0092
2785.00,0.0090
2784.00,0.0087
2783.00,0.0085
2782.00,0.0083
2781.00,0.0080
2780.00,0.0079
2779.00,0.0077
2778.00,0.0075
2777.00,0.0074
2776.00,0.0073
2775.00,0.0072
2774.00,0.0071
2773.00,0.0069
2772.00,0.0069
2771.00,0.0068
2770.00,0.0068
2769.00,0.0067
2768.00,0.0067
2767.00,0.0067
2766.00,0.0067
2765.00,0.0066
2764.00,0.0066
2763.00,0.0065
2762.00,0.0065
2761.00,0.0065
2760.00,0.0065
2759.00,0.0064
2758.00,0.0064
2757.00,0.0064
2756.00,0.0063
2755.00,0.0063
2754.00,0.0063
2753.00,0.0063
2752.00,0.0063
2751.00,0.0063
2750.00,0.0063
2749.00,0.0063
2748.00,0.0063
2747.00,0.0063
2746.00,0.0063
2745.00,0.0064
2744.00,0.0064
2743.00,0.0065
2742.00,0.0066
2741.00,0.0067
2740.00,0.0068
2739.00,0.0070
2738.00,0.0071
2737.00,0.0072
2736.00,0.0074
2735.00,0.0075
2734.00,0.0076
2733.00,0.0078
2732.00,0.0079
2731.00,0.0081
2730.00,0.0084
2729.00,0.0086
2728.00,0.0089
2727.00,0.0092
2726.00,0.0095
2725.00,0.0097
2724.00,0.0099
2723.00,0.0100
2722.00,0.0100
2721.00,0.0098
2720.00,0.0095
2719.00,0.0092
2718.00,0.0088
2717.00,0.0085
2716.00,0.0082
2715.00,0.0079
2714.00,0.0077
2713.00,0.0075
2712.00,0.0072
2711.00,0.0070
2710.00,0.0068
2709.00,0.0066
2708.00,0.0065
2707.00,0.0064
2706.00,0.0063
2705.00,0.0062
2704.00,0.0060
2703.00,0.0059
2702.00,0.0058
2701.00,0.0057
2700.00,0.0056
2699.00,0.0056
2698.00,0.0055
2697.00,0.0055
2696.00,0.0055
2695.00,0.0056
2694.00,0.0056
2693.00,0.0055
2692.00,0.0055
2691.00,0.0055
2690.00,0.0056
2689.00,0.0056
2688.00,0.0056
2687.00,0.0056
2686.00,0.0055
2685.00,0.0055
2684.00,0.0055
2683.00,0.0055
2682.00,0.0056
2681.00,0.0056
2680.00,0.0056
2679.00,0.0056
2678.00,0.0056
2677.00,0.0056
2676.00,0.0056
2675.00,0.0056
2674.00,0.0056
2673.00,0.0055
2672.00,0.0055
2671.00,0.0055
2670.00,0.0055
2669.00,0.0055
2668.00,0.0055
2667.00,0.0056
2666.00,0.0056
2665.00,0.0056
2664.00,0.0057
2663.00,0.0058
2662.00,0.0058
2661.00,0.0058
2660.00,0.0059
2659.00,0.0059
2658.00,0.0059
2657.00,0.0058
2656.00,0.0058
2655.00,0.0057
2654.00,0.0056
2653.00,0.0056
2652.00,0.0055
2651.00,0.0055
2650.00,0.0055
2649.00,0.0054
2648.00,0.0054
2647.00,0.0053
2646.00,0.0053
2645.00,0.0052
2644.00,0.0052
2643.00,0.0052
2642.00,0.0051
2641.00,0.0051
2640.00,0.0050
2639.00,0.0049
2638.00,0.0049
2637.00,0.0048
2636.00,0.0048
2635.00,0.0048
2634.00,0.0049
2633.00,0.0049
2632.00,0.0049
2631.00,0.0050
2630.00,0.0050
2629.00,0.0050
2628.00,0.0050
2627.00,0.0050
2626.00,0.0050
2625.00,0.0050
2624.00,0.0050
2623.00,0.0051
2622.00,0.0051
2621.00,0.0051
2620.00,0.0051
2619.00,0.0051
2618.00,0.0051
2617.00,0.0051
2616.00,0.0051
2615.00,0.0051
2614.00,0.0051
2613.00,0.0050
2612.00,0.0049
2611.00,0.0049
2610.00,0.0048
2609.00,0.0047
2608.00,0.0046
2607.00,0.0046
2606.00,0.0045
2605.00,0.0045
2604.00,0.0044
2603.00,0.0043
2602.00,0.0042
2601.00,0.0041
2600.00,0.0041
2599.00,0.0041
2598.00,0.0042
2597.00,0.0042
2596.00,0.0043
2595.00,0.0043
2594.00,0.0043
2593.00,0.0043
2592.00,0.0043
2591.00,0.0043
2590.00,0.0044
2589.00,0.0044
2588.00,0.0046
2587.00,0.0047
2586.00,0.0049
2585.00,0.0050
2584.00,0.0050
2583.00,0.0051
2582.00,0.0051
2581.00,0.0050
2580.00,0.0050
2579.00,0.0049
2578.00,0.0048
2577.00,0.0047
2576.00,0.0046
2575.00,0.0045
2574.00,0.0043
2573.00,0.0042
2572.00,0.0041
2571.00,0.0040
2570.00,0.0039
2569.00,0.0038
2568.00,0.0036
2567.00,0.0036
2566.00,0.0035
2565.00,0.0035
2564.00,0.0035
2563.00,0.0035
2562.00,0.0035
2561.00,0.0034
2560.00,0.0034
2559.00,0.0033
2558.00,0.0033
2557.00,0.0033
2556.00,0.0033
2555.00,0.0033
2554.00,0.0033
2553.00,0.0033
2552.00,0.0032
2551.00,0.0032
2550.00,0.0031
2549.00,0.0030
2548.00,0.0029
2547.00,0.0029
2546.00,0.0029
2545.00,0.0029
2544.00,0.0029
2543.00,0.0029
2542.00,0.0029
2541.00,0.0028
2540.00,0.0028
2539.00,0.0027
2538.00,0.0027
2537.00,0.0027
2536.00,0.0027
2535.00,0.0027
2534.00,0.0027
2533.00,0.0027
2532.00,0.0027
2531.00,0.0027
2530.00,0.0026
2529.00,0.0026
2528.00,0.0025
2527.00,0.0025
2526.00,0.0025
2525.00,0.0025
2524.00,0.0025
2523.00,0.0025
2522.00,0.0024
2521.00,0.0024
2520.00,0.0023
2519.00,0.0022
2518.00,0.0022
2517.00,0.0022
2516.00,0.0022
2515.00,0.0021
2514.00,0.0021
2513.00,0.0021
2512.00,0.0021
2511.00,0.0021
2510.00,0.0020
2509.00,0.0020
2508.00,0.0019
2507.00,0.0019
2506.00,0.0019
2505.00,0.0019
2504.00,0.0020
2503.00,0.0021
2502.00,0.0021
2501.00,0.0022
2500.00,0.0022
2499.00,0.0022
2498.00,0.0022
2497.00,0.0022
2496.00,0.0021
2495.00,0.0021
2494.00,0.0021
2493.00,0.0021
2492.00,0.0020
2491.00,0.0019
2490.00,0.0019
2489.00,0.0019
2488.00,0.0019
2487.00,0.0020
2486.00,0.0020
2485.00,0.0020
2484.00,0.0020
2483.00,0.0020
2482.00,0.0020
2481.00,0.0019
2480.00,0.0019
2479.00,0.0018
2478.00,0.0018
2477.00,0.0018
2476.00,0.0019
2475.00,0.0019
2474.00,0.0019
2473.00,0.0019
2472.00,0.0018
2471.00,0.0017
2470.00,0.0016
2469.00,0.0016
2468.00,0.0017
2467.00,0.0017
2466.00,0.0017
2465.00,0.0018
2464.00,0.0018
2463.00,0.0019
2462.00,0.0020
2461.00,0.0020
2460.00,0.0021
2459.00,0.0020
2458.00,0.0020
2457.00,0.0020
2456.00,0.0020
2455.00,0.0019
2454.00,0.0019
2453.00,0.0020
2452.00,0.0021
2451.00,0.0021
2450.00,0.0021
2449.00,0.0021
2448.00,0.0020
2447.00,0.0020
2446.00,0.0019
2445.00,0.0019
2444.00,0.0019
2443.00,0.0020
2442.00,0.0020
2441.00,0.0021
2440.00,0.0021
2439.00,0.0022
2438.00,0.0021
2437.00,0.0021
2436.00,0.0020
2435.00,0.0020
2434.00,0.0020
2433.00,0.0020
2432.00,0.0020
2431.00,0.0020
2430.00,0.0021
2429.00,0.0021
2428.00,0.0021
2427.00,0.0021
2426.00,0.0021
2425.00,0.0021
2424.00,0.0020
2423.00,0.0020
2422.00,0.0020
2421.00,0.0020
2420.00,0.0020
2419.00,0.0019
2418.00,0.0019
2417.00,0.0019
2416.00,0.0020
2415.00,0.0020
2414.00,0.0020
2413.00,0.0020
2412.00,0.0020
2411.00,0.0020
2410.00,0.0019
2409.00,0.0019
2408.00,0.0019
2407.00,0.0018
2406.00,0.0018
2405.00,0.0018
2404.00,0.0018
2403.00,0.0018
2402.00,0.0017
2401.00,0.0017
2400.00,0.0017
2399.00,0.0016
2398.00,0.0016
2397.00,0.0016
2396.00,0.0016
2395.00,0.0016
2394.00,0.0016
2393.00,0.0016
2392.00,0.0016
2391.00,0.0016
2390.00,0.0016
2389.00,0.0016
2388.00,0.0015
2387.00,0.0015
2386.00,0.0014
2385.00,0.0014
2384.00,0.0014
2383.00,0.0014
2382.00,0.0014
2381.00,0.0014
2380.00,0.0014
2379.00,0.0013
2378.00,0.0013
2377.00,0.0013
2376.00,0.0013
2375.00,0.0013
2374.00,0.0013
2373.00,0.0013
2372.00,0.0013
2371.00,0.0013
2370.00,0.0013
2369.00,0.0013
2368.00,0.0012
2367.00,0.0012
2366.00,0.0012
2365.00,0.0013
2364.00,0.0013
2363.00,0.0013
2362.00,0.0013
2361.00,0.0013
2360.00,0.0013
2359.00,0.0013
2358.00,0.0013
2357.00,0.0013
2356.00,0.0013
2355.00,0.0013
2354.00,0.0013
2353.00,0.0013
2352.00,0.0013
2351.00,0.0013
2350.00,0.0013
2349.00,0.0013
2348.00,0.0014
2347.00,0.0014
2346.00,0.0014
2345.00,0.0015
2344.00,0.0015
2343.00,0.0015
2342.00,0.0015
2341.00,0.0015
2340.00,0.0016
2339.00,0.0016
2338.00,0.0016
2337.00,0.0016
2336.00,0.0016
2335.00,0.0016
2334.00,0.0015
2333.00,0.0014
2332.00,0.0013
2331.00,0.0013
2330.00,0.0014
2329.00,0.0016
2328.00,0.0018
2327.00,0.0021
2326.00,0.0026
2325.00,0.0029
2324.00,0.0031
2323.00,0.0030
2322.00,0.0028
2321.00,0.0026
2320.00,0.0024
2319.00,0.0022
2318.00,0.0021
2317.00,0.0020
2316.00,0.0020
2315.00,0.0019
2314.00,0.0019
2313.00,0.0020
2312.00,0.0019
2311.00,0.0019
2310.00,0.0019
2309.00,0.0019
2308.00,0.0019
2307.00,0.0019
2306.00,0.0019
2305.00,0.0019
2304.00,0.0020
2303.00,0.0020
2302.00,0.0020
2301.00,0.0020
2300.00,0.0020
2299.00,0.0020
2298.00,0.0021
2297.00,0.0022
2296.00,0.0023
2295.00,0.0024
2294.00,0.0025
2293.00,0.0026
2292.00,0.0026
2291.00,0.0026
2290.00,0.0027
2289.00,0.0028
2288.00,0.0028
2287.00,0.0028
2286.00,0.0028
2285.00,0.0027
2284.00,0.0027
2283.00,0.0026
2282.00,0.0025
2281.00,0.0024
2280.00,0.0023
2279.00,0.0023
2278.00,0.0024
2277.00,0.0024
2276.00,0.0024
2275.00,0.0024
2274.00,0.0024
2273.00,0.0024
2272.00,0.0023
2271.00,0.0023
2270.00,0.0021
2269.00,0.0020
2268.00,0.0020
2267.00,0.0020
2266.00,0.0019
2265.00,0.0019
2264.00,0.0018
2263.00,0.0018
2262.00,0.0018
2261.00,0.0018
2260.00,0.0018
2259.00,0.0017
2258.00,0.0018
2257.00,0.0018
2256.00,0.0018
2255.00,0.0017
2254.00,0.0016
2253.00,0.0016
2252.00,0.0017
2251.00,0.0017
2250.00,0.0016
2249.00,0.0016
2248.00,0.0016
2247.00,0.0016
2246.00,0.0017
2245.00,0.0017
2244.00,0.0018
2243.00,0.0019
2242.00,0.0019
2241.00,0.0019
2240.00,0.0019
2239.00,0.0019
2238.00,0.0019
2237.00,0.0018
2236.00,0.0018
2235.00,0.0018
2234.00,0.0017
2233.00,0.0016
2232.00,0.0015
2231.00,0.0015
2230.00,0.0015
2229.00,0.0016
2228.00,0.0015
2227.00,0.0014
2226.00,0.0013
2225.00,0.0013
2224.00,0.0013
2223.00,0.0014
2222.00,0.0014
2221.00,0.0013
2220.00,0.0012
2219.00,0.0011
2218.00,0.0011
2217.00,0.0012
2216.00,0.0013
2215.00,0.0014
2214.00,0.0015
2213.00,0.0015
2212.00,0.0015
2211.00,0.0015
2210.00,0.0015
2209.00,0.0015
2208.00,0.0014
2207.00,0.0014
2206.00,0.0012
2205.00,0.0011
2204.00,0.0011
2203.00,0.0012
2202.00,0.0013
2201.00,0.0014
2200.00,0.0013
2199.00,0.0012
2198.00,0.0012
2197.00,0.0013
2196.00,0.0015
2195.00,0.0016
2194.00,0.0017
2193.00,0.0016
2192.00,0.0015
2191.00,0.0015
2190.00,0.0016
2189.00,0.0018
2188.00,0.0021
2187.00,0.0023
2186.00,0.0023
2185.00,0.0023
2184.00,0.0021
2183.00,0.0017
2182.00,0.0014
2181.00,0.0012
2180.00,0.0012
2179.00,0.0014
2178.00,0.0014
2177.00,0.0013
2176.00,0.0010
2175.00,0.0010
2174.00,0.0013
2173.00,0.0018
2172.00,0.0023
2171.00,0.0026
2170.00,0.0026
2169.00,0.0026
2168.00,0.0025
2167.00,0.0024
2166.00,0.0021
2165.00,0.0019
2164.00,0.0020
2163.00,0.0022
2162.00,0.0023
2161.00,0.0021
2160.00,0.0013
2159.00,0.0001
2158.00,-0.0010
2157.00,-0.0016
2156.00,-0.0018
2155.00,-0.0018
2154.00,-0.0016
2153.00,-0.0014
2152.00,-0.0013
2151.00,-0.0011
2150.00,-0.0010
2149.00,-0.0007
2148.00,-0.0005
2147.00,-0.0005
2146.00,-0.0006
2145.00,-0.0008
2144.00,-0.0009
2143.00,-0.0008
2142.00,-0.0007
2141.00,-0.0006
2140.00,-0.0004
2139.00,-0.0003
2138.00,-0.0002
2137.00,-0.0003
2136.00,-0.0005
2135.00,-0.0009
2134.00,-0.0012
2133.00,-0.0013
2132.00,-0.0012
2131.00,-0.0009
2130.00,-0.0006
2129.00,-0.0004
2128.00,-0.0003
2127.00,-0.0002
2126.00,-0.0003
2125.00,-0.0003
2124.00,-0.0003
2123.00,-0.0003
2122.00,-0.0002
2121.00,0.0000
2120.00,0.0003
2119.00,0.0005
2118.00,0.0006
2117.00,0.0008
2116.00,0.0009
2115.00,0.0010
2114.00,0.0011
2113.00,0.0011
2112.00,0.0011
2111.00,0.0011
2110.00,0.0010
2109.00,0.0010
2108.00,0.0010
2107.00,0.0011
2106.00,0.0010
2105.00,0.0009
2104.00,0.0009
2103.00,0.0010
2102.00,0.0011
2101.00,0.0012
2100.00,0.0012
2099.00,0.0011
2098.00,0.0010
2097.00,0.0009
2096.00,0.0006
2095.00,0.0003
2094.00,0.0000
2093.00,-0.0001
2092.00,0.0000
2091.00,0.0002
2090.00,0.0005
2089.00,0.0008
2088.00,0.0009
2087.00,0.0011
2086.00,0.0011
2085.00,0.0011
2084.00,0.0010
2083.00,0.0009
2082.00,0.0008
2081.00,0.0008
2080.00,0.0008
2079.00,0.0008
2078.00,0.0008
2077.00,0.0008
2076.00,0.0008
2075.00,0.0007
2074.00,0.0006
2073.00,0.0005
2072.00,0.0005
2071.00,0.0005
2070.00,0.0006
2069.00,0.0007
2068.00,0.0008
2067.00,0.0010
2066.00,0.0011
2065.00,0.0011
2064.00,0.0011
2063.00,0.0011
2062.00,0.0011
2061.00,0.0011
2060.00,0.0011
2059.00,0.0011
2058.00,0.0011
2057.00,0.0010
2056.00,0.0009
2055.00,0.0007
2054.00,0.0006
2053.00,0.0009
2052.00,0.0015
2051.00,0.0020
2050.00,0.0022
2049.00,0.0018
2048.00,0.0012
2047.00,0.0008
2046.00,0.0006
2045.00,0.0005
2044.00,0.0005
2043.00,0.0003
2042.00,0.0001
2041.00,0.0001
2040.00,0.0003
2039.00,0.0007
2038.00,0.0011
2037.00,0.0013
2036.00,0.0013
2035.00,0.0009
2034.00,0.0003
2033.00,-0.0000
2032.00,-0.0002
2031.00,-0.0003
2030.00,-0.0004
2029.00,-0.0005
2028.00,-0.0006
2027.00,-0.0008
2026.00,-0.0009
2025.00,-0.0009
2024.00,-0.0007
2023.00,-0.0005
2022.00,-0.0005
2021.00,-0.0005
2020.00,-0.0005
2019.00,-0.0005
2018.00,-0.0003
2017.00,-0.0000
2016.00,0.0002
2015.00,0.0003
2014.00,0.0001
2013.00,-0.0001
2012.00,-0.0002
2011.00,-0.0003
2010.00,-0.0003
2009.00,-0.0003
2008.00,-0.0003
2007.00,-0.0006
2006.00,-0.0009
2005.00,-0.0012
2004.00,-0.0011
2003.00,-0.0009
2002.00,-0.0007
2001.00,-0.0006
2000.00,-0.0005
1999.00,-0.0005
1998.00,-0.0005
1997.00,-0.0006
1996.00,-0.0007
1995.00,-0.0008
1994.00,-0.0009
1993.00,-0.0007
1992.00,-0.0004
1991.00,-0.0002
1990.00,-0.0001
1989.00,-0.0001
1988.00,-0.0001
1987.00,-0.0001
1986.00,0.0000
1985.00,0.0003
1984.00,0.0006
1983.00,0.0011
1982.00,0.0015
1981.00,0.0018
1980.00,0.0017
1979.00,0.0012
1978.00,0.0005
1977.00,-0.0002
1976.00,-0.0006
1975.00,-0.0007
1974.00,-0.0009
1973.00,-0.0010
1972.00,-0.0010
1971.00,-0.0010
1970.00,-0.0011
1969.00,-0.0012
1968.00,-0.0015
1967.00,-0.0017
1966.00,-0.0018
1965.00,-0.0017
1964.00,-0.0015
1963.00,-0.0013
1962.00,-0.0011
1961.00,-0.0010
1960.00,-0.0010
1959.00,-0.0012
1958.00,-0.0014
1957.00,-0.0014
1956.00,-0.0014
1955.00,-0.0014
1954.00,-0.0012
1953.00,-0.0011
1952.00,-0.0011
1951.00,-0.0012
1950.00,-0.0013
1949.00,-0.0012
1948.00,-0.0010
1947.00,-0.0009
1946.00,-0.0008
1945.00,-0.0008
1944.00,-0.0008
1943.00,-0.0008
1942.00,-0.0008
1941.00,-0.0008
1940.00,-0.0007
1939.00,-0.0006
1938.00,-0.0005
1937.00,-0.0004
1936.00,-0.0003
1935.00,-0.0002
1934.00,-0.0001
1933.00,-0.0001
1932.00,-0.0000
1931.00,-0.0000
1930.00,-0.0001
1929.00,-0.0002
1928.00,-0.0002
1927.00,-0.0002
1926.00,-0.0000
1925.00,0.0002
1924.00,0.0003
1923.00,0.0005
1922.00,0.0005
1921.00,0.0006
1920.00,0.0005
1919.00,0.0004
1918.00,0.0003
1917.00,0.0002
1916.00,0.0002
1915.00,0.0002
1914.00,0.0002
1913.00,0.0002
1912.00,0.0002
1911.00,0.0003
1910.00,0.0003
1909.00,0.0003
1908.00,0.0002
1907.00,0.0001
1906.00,0.0000
1905.00,0.0000
1904.00,0.0002
1903.00,0.0003
1902.00,0.0004
1901.00,0.0005
1900.00,0.0006
1899.00,0.0006
1898.00,0.0006
1897.00,0.0006
1896.00,0.0006
1895.00,0.0006
1894.00,0.0005
1893.00,0.0006
1892.00,0.0006
1891.00,0.0007
1890.00,0.0006
1889.00,0.0006
1888.00,0.0005
1887.00,0.0005
1886.00,0.0005
1885.00,0.0005
1884.00,0.0005
1883.00,0.0005
1882.00,0.0005
1881.00,0.0006
1880.00,0.0006
1879.00,0.0007
1878.00,0.0006
1877.00,0.0006
1876.00,0.0005
1875.00,0.0005
1874.00,0.0005
1873.00,0.0006
1872.00,0.0007
1871.00,0.0007
1870.00,0.0007
1869.00,0.0007
1868.00,0.0006
1867.00,0.0005
1866.00,0.0005
1865.00,0.0005
1864.00,0.0005
1863.00,0.0006
1862.00,0.0007
1861.00,0.0008
1860.00,0.0008
1859.00,0.0008
1858.00,0.0008
1857.00,0.0008
1856.00,0.0008
1855.00,0.0008
1854.00,0.0007
1853.00,0.0007
1852.00,0.0007
1851.00,0.0007
1850.00,0.0007
1849.00,0.0008
1848.00,0.0007
1847.00,0.0006
1846.00,0.0005
1845.00,0.0006
1844.00,0.0007
1843.00,0.0007
1842.00,0.0008
1841.00,0.0008
1840.00,0.0009
1839.00,0.0009
1838.00,0.0010
1837.00,0.0010
1836.00,0.0010
1835.00,0.0011
1834.00,0.0011
1833.00,0.0011
1832.00,0.0011
1831.00,0.0010
1830.00,0.0010
1829.00,0.0010
1828.00,0.0010
1827.00,0.0010
1826.00,0.0010
1825.00,0.0010
1824.00,0.0010
1823.00,0.0010
1822.00,0.0010
1821.00,0.0010
1820.00,0.0010
1819.00,0.0009
1818.00,0.0008
1817.00,0.0008
1816.00,0.0008
1815.00,0.0009
1814.00,0.0009
1813.00,0.0010
1812.00,0.0010
1811.00,0.0010
1810.00,0.0011
1809.00,0.0011
1808.00,0.0011
1807.00,0.0011
1806.00,0.0011
1805.00,0.0011
1804.00,0.0012
1803.00,0.0013
1802.00,0.0014
1801.00,0.0014
1800.00,0.0013
1799.00,0.0013
1798.00,0.0013
1797.00,0.0014
1796.00,0.0014
1795.00,0.0015
1794.00,0.0015
1793.00,0.0016
1792.00,0.0016
1791.00,0.0015
1790.00,0.0015
1789.00,0.0015
1788.00,0.0015
1787.00,0.0016
1786.00,0.0016
1785.00,0.0016
1784.00,0.0015
1783.00,0.0015
1782.00,0.0015
1781.00,0.0014
1780.00,0.0015
1779.00,0.0015
1778.00,0.0016
1777.00,0.0016
1776.00,0.0017
1775.00,0.0017
1774.00,0.0017
1773.00,0.0017
1772.00,0.0017
1771.00,0.0017
1770.00,0.0017
1769.00,0.0017
1768.00,0.0017
1767.00,0.0018
1766.00,0.0018
1765.00,0.0018
1764.00,0.0018
1763.00,0.0018
1762.00,0.0018
1761.00,0.0019
1760.00,0.0020
1759.00,0.0020
1758.00,0.0020
1757.00,0.0021
1756.00,0.0021
1755.00,0.0020
1754.00,0.0021
1753.00,0.0021
1752.00,0.0023
1751.00,0.0024
1750.00,0.0024
1749.00,0.0024
1748.00,0.0025
1747.00,0.0025
1746.00,0.0026
1745.00,0.0027
1744.00,0.0028
1743.00,0.0029
1742.00,0.0030
1741.00,0.0031
1740.00,0.0031
1739.00,0.0032
1738.00,0.0032
1737.00,0.0033
1736.00,0.0033
1735.00,0.0033
1734.00,0.0033
1733.00,0.0032
1732.00,0.0032
1731.00,0.0032
1730.00,0.0032
1729.00,0.0032
1728.00,0.0032
1727.00,0.0032
1726.00,0.0033
1725.00,0.0033
1724.00,0.0034
1723.00,0.0034
1722.00,0.0034
1721.00,0.0034
1720.00,0.0035
1719.00,0.0034
1718.00,0.0033
1717.00,0.0032
1716.00,0.0031
1715.00,0.0030
1714.00,0.0030
1713.00,0.0030
1712.00,0.0030
1711.00,0.0031
1710.00,0.0031
1709.00,0.0031
1708.00,0.0032
1707.00,0.0032
1706.00,0.0033
1705.00,0.0034
1704.00,0.0035
1703.00,0.0035
1702.00,0.0035
1701.00,0.0034
1700.00,0.0033
1699.00,0.0033
1698.00,0.0034
1697.00,0.0035
1696.00,0.0036
1695.00,0.0036
1694.00,0.0036
1693.00,0.0036
1692.00,0.0037
1691.00,0.0037
1690.00,0.0038
1689.00,0.0039
1688.00,0.0040
1687.00,0.0040
1686.00,0.0040
1685.00,0.0040
1684.00,0.0040
1683.00,0.0041
1682.00,0.0042
1681.00,0.0042
1680.00,0.0043
1679.00,0.0044
1678.00,0.0044
1677.00,0.0045
1676.00,0.0046
1675.00,0.0046
1674.00,0.0046
1673.00,0.0046
1672.00,0.0046
1671.00,0.0047
1670.00,0.0048
1669.00,0.0048
1668.00,0.0049
1667.00,0.0049
1666.00,0.0050
1665.00,0.0051
1664.00,0.0052
1663.00,0.0052
1662.00,0.0053
1661.00,0.0053
1660.00,0.0054
1659.00,0.0054
1658.00,0.0055
1657.00,0.0055
1656.00,0.0055
1655.00,0.0055
1654.00,0.0056
1653.00,0.0057
1652.00,0.0058
1651.00,0.0059
1650.00,0.0060
1649.00,0.0062
1648.00,0.0064
1647.00,0.0065
1646.00,0.0065
1645.00,0.0066
1644.00,0.0066
1643.00,0.0067
1642.00,0.0067
1641.00,0.0069
1640.00,0.0070
1639.00,0.0070
1638.00,0.0070
1637.00,0.0070
1636.00,0.0069
1635.00,0.0068
1634.00,0.0068
1633.00,0.0068
1632.00,0.0068
1631.00,0.0068
1630.00,0.0067
1629.00,0.0067
1628.00,0.0066
1627.00,0.0066
1626.00,0.0066
1625.00,0.0066
1624.00,0.0066
1623.00,0.0065
1622.00,0.0065
1621.00,0.0065
1620.00,0.0065
1619.00,0.0065
1618.00,0.0064
1617.00,0.0064
1616.00,0.0064
1615.00,0.0064
1614.00,0.0065
1613.00,0.0065
1612.00,0.0066
1611.00,0.0066
1610.00,0.0066
1609.00,0.0066
1608.00,0.0066
1607.00,0.0066
1606.00,0.0065
1605.00,0.0066
1604.00,0.0066
1603.00,0.0066
1602.00,0.0066
1601.00,0.0066
1600.00,0.0066
1599.00,0.0065
1598.00,0.0065
1597.00,0.0066
1596.00,0.0066
1595.00,0.0066
1594.00,0.0066
1593.00,0.0066
1592.00,0.0067
1591.00,0.0067
1590.00,0.0068
1589.00,0.0068
1588.00,0.0069
1587.00,0.0070
1586.00,0.0071
1585.00,0.0073
1584.00,0.0075
1583.00,0.0077
1582.00,0.0078
1581.00,0.0080
1580.00,0.0082
1579.00,0.0083
1578.00,0.0085
1577.00,0.0086
1576.00,0.0086
1575.00,0.0086
1574.00,0.0084
1573.00,0.0083
1572.00,0.0082
1571.00,0.0081
1570.00,0.0080
1569.00,0.0079
1568.00,0.0078
1567.00,0.0077
1566.00,0.0077
1565.00,0.0077
1564.00,0.0077
1563.00,0.0077
1562.00,0.0077
1561.00,0.0077
1560.00,0.0078
1559.00,0.0078
1558.00,0.0078
1557.00,0.0077
1556.00,0.0078
1555.00,0.0078
1554.00,0.0079
1553.00,0.0080
1552.00,0.0081
1551.00,0.0083
1550.00,0.0084
1549.00,0.0086
1548.00,0.0088
1547.00,0.0090
1546.00,0.0092
1545.00,0.0095
1544.00,0.0097
1543.00,0.0099
1542.00,0.0100
1541.00,0.0100
1540.00,0.0099
1539.00,0.0096
1538.00,0.0094
1537.00,0.0092
1536.00,0.0091
1535.00,0.0089
1534.00,0.0086
1533.00,0.0084
1532.00,0.0083
1531.00,0.0081
1530.00,0.0080
1529.00,0.0080
1528.00,0.0080
1527.00,0.0080
1526.00,0.0080
1525.00,0.0081
1524.00,0.0081
1523.00,0.0081
1522.00,0.0082
1521.00,0.0083
1520.00,0.0084
1519.00,0.0084
1518.00,0.0085
1517.00,0.0086
1516.00,0.0087
1515.00,0.0088
1514.00,0.0089
1513.00,0.0091
1512.00,0.0093
1511.00,0.0094
1510.00,0.0095
1509.00,0.0097
1508.00,0.0098
1507.00,0.0100
1506.00,0.0101
1505.00,0.0104
1504.00,0.0106
1503.00,0.0107
1502.00,0.0110
1501.00,0.0113
1500.00,0.0117
1499.00,0.0120
1498.00,0.0123
1497.00,0.0127
1496.00,0.0131
1495.00,0.0135
1494.00,0.0138
1493.00,0.0141
1492.00,0.0146
1491.00,0.0150
1490.00,0.0156
1489.00,0.0163
1488.00,0.0170
1487.00,0.0175
1486.00,0.0181
1485.00,0.0188
1484.00,0.0196
1483.00,0.0205
1482.00,0.0215
1481.00,0.0227
1480.00,0.0241
1479.00,0.0255
1478.00,0.0272
1477.00,0.0293
1476.00,0.0319
1475.00,0.0348
1474.00,0.0386
1473.00,0.0442
1472.00,0.0509
1471.00,0.0573
1470.00,0.0636
1469.00,0.0701
1468.00,0.0772
1467.00,0.0850
1466.00,0.0940
1465.00,0.1037
1464.00,0.1123
1463.00,0.1184
1462.00,0.1225
1461.00,0.1254
1460.00,0.1276
1459.00,0.1293
1458.00,0.1310
1457.00,0.1326
1456.00,0.1332
1455.00,0.1329
1454.00,0.1322
1453.00,0.1312
1452.00,0.1294
1451.00,0.1265
1450.00,0.1223
1449.00,0.1159
1448.00,0.1073
1447.00,0.0976
1446.00,0.0884
1445.00,0.0802
1444.00,0.0731
1443.00,0.0672
1442.00,0.0627
1441.00,0.0596
1440.00,0.0577
1439.00,0.0568
1438.00,0.0570
1437.00,0.0575
1436.00,0.0570
1435.00,0.0547
1434.00,0.0511
1433.00,0.0465
1432.00,0.0417
1431.00,0.0375
1430.00,0.0342
1429.00,0.0317
1428.00,0.0301
1427.00,0.0290
1426.00,0.0282
1425.00,0.0275
1424.00,0.0268
1423.00,0.0263
1422.00,0.0260
1421.00,0.0256
1420.00,0.0250
1419.00,0.0246
1418.00,0.0241
1417.00,0.0236
1416.00,0.0230
1415.00,0.0226
1414.00,0.0222
1413.00,0.0217
1412.00,0.0212
1411.00,0.0207
1410.00,0.0203
1409.00,0.0199
1408.00,0.0195
1407.00,0.0192
1406.00,0.0190
1405.00,0.0187
1404.00,0.0184
1403.00,0.0182
1402.00,0.0181
1401.00,0.0180
1400.00,0.0179
1399.00,0.0179
1398.00,0.0180
1397.00,0.0180
1396.00,0.0180
1395.00,0.0182
1394.00,0.0185
1393.00,0.0188
1392.00,0.0191
1391.00,0.0197
1390.00,0.0205
1389.00,0.0218
1388.00,0.0237
1387.00,0.0266
1386.00,0.0308
1385.00,0.0364
1384.00,0.0441
1383.00,0.0549
1382.00,0.0695
1381.00,0.0884
1380.00,0.1120
1379.00,0.1396
1378.00,0.1675
1377.00,0.1895
1376.00,0.1989
1375.00,0.1914
1374.00,0.1691
1373.00,0.1407
1372.00,0.1139
1371.00,0.0916
1370.00,0.0735
1369.00,0.0598
1368.00,0.0503
1367.00,0.0444
1366.00,0.0412
1365.00,0.0400
1364.00,0.0403
1363.00,0.0418
1362.00,0.0442
1361.00,0.0467
1360.00,0.0487
1359.00,0.0493
1358.00,0.0481
1357.00,0.0453
1356.00,0.0412
1355.00,0.0367
1354.00,0.0324
1353.00,0.0287
1352.00,0.0258
1351.00,0.0234
1350.00,0.0215
1349.00,0.0199
1348.00,0.0185
1347.00,0.0174
1346.00,0.0164
1345.00,0.0156
1344.00,0.0149
1343.00,0.0144
1342.00,0.0140
1341.00,0.0137
1340.00,0.0135
1339.00,0.0133
1338.00,0.0132
1337.00,0.0131
1336.00,0.0132
1335.00,0.0134
1334.00,0.0137
1333.00,0.0141
1332.00,0.0146
1331.00,0.0149
1330.00,0.0150
1329.00,0.0149
1328.00,0.0146
1327.00,0.0141
1326.00,0.0136
1325.00,0.0130
1324.00,0.0124
1323.00,0.0119
1322.00,0.0114
1321.00,0.0111
1320.00,0.0108
1319.00,0.0106
1318.00,0.0104
1317.00,0.0102
1316.00,0.0100
1315.00,0.0099
1314.00,0.0099
1313.00,0.0100
1312.00,0.0101
1311.00,0.0104
1310.00,0.0108
1309.00,0.0115
1308.00,0.0126
1307.00,0.0140
1306.00,0.0153
1305.00,0.0162
1304.00,0.0164
1303.00,0.0159
1302.00,0.0152
1301.00,0.0146
1300.00,0.0142
1299.00,0.0140
1298.00,0.0140
1297.00,0.0140
1296.00,0.0139
1295.00,0.0137
1294.00,0.0133
1293.00,0.0129
1292.00,0.0123
1291.00,0.0118
1290.00,0.0112
1289.00,0.0108
1288.00,0.0104
1287.00,0.0101
1286.00,0.0099
1285.00,0.0097
1284.00,0.0095
1283.00,0.0094
1282.00,0.0093
1281.00,0.0092
1280.00,0.0092
1279.00,0.0091
1278.00,0.0091
1277.00,0.0090
1276.00,0.0089
1275.00,0.0089
1274.00,0.0088
1273.00,0.0088
1272.00,0.0088
1271.00,0.0089
1270.00,0.0091
1269.00,0.0093
1268.00,0.0095
1267.00,0.0098
1266.00,0.0101
1265.00,0.0104
1264.00,0.0107
1263.00,0.0110
1262.00,0.0113
1261.00,0.0118
1260.00,0.0124
1259.00,0.0132
1258.00,0.0141
1257.00,0.0148
1256.00,0.0151
1255.00,0.0149
1254.00,0.0141
1253.00,0.0131
1252.00,0.0121
1251.00,0.0112
1250.00,0.0106
1249.00,0.0102
1248.00,0.0099
1247.00,0.0096
1246.00,0.0095
1245.00,0.0093
1244.00,0.0091
1243.00,0.0090
1242.00,0.0089
1241.00,0.0088
1240.00,0.0087
1239.00,0.0086
1238.00,0.0086
1237.00,0.0086
1236.00,0.0087
1235.00,0.0087
1234.00,0.0087
1233.00,0.0087
1232.00,0.0087
1231.00,0.0088
1230.00,0.0088
1229.00,0.0089
1228.00,0.0091
1227.00,0.0093
1226.00,0.0095
1225.00,0.0097
1224.00,0.0101
1223.00,0.0104
1222.00,0.0108
1221.00,0.0111
1220.00,0.0113
1219.00,0.0114
1218.00,0.0113
1217.00,0.0111
1216.00,0.0107
1215.00,0.0104
1214.00,0.0101
1213.00,0.0099
1212.00,0.0097
1211.00,0.0095
1210.00,0.0093
1209.00,0.0092
1208.00,0.0091
1207.00,0.0090
1206.00,0.0089
1205.00,0.0088
1204.00,0.0087
1203.00,0.0087
1202.00,0.0088
1201.00,0.0088
1200.00,0.0087
1199.00,0.0087
1198.00,0.0087
1197.00,0.0087
1196.00,0.0088
1195.00,0.0089
1194.00,0.0090
1193.00,0.0090
1192.00,0.0090
1191.00,0.0090
1190.00,0.0090
1189.00,0.0090
1188.00,0.0090
1187.00,0.0090
1186.00,0.0091
1185.00,0.0092
1184.00,0.0093
1183.00,0.0096
1182.00,0.0098
1181.00,0.0102
1180.00,0.0106
1179.00,0.0112
1178.00,0.0119
1177.00,0.0128
1176.00,0.0141
1175.00,0.0158
1174.00,0.0181
1173.00,0.0211
1172.00,0.0246
1171.00,0.0286
1170.00,0.0325
1169.00,0.0355
1168.00,0.0372
1167.00,0.0374
1166.00,0.0363
1165.00,0.0344
1164.00,0.0321
1163.00,0.0298
1162.00,0.0278
1161.00,0.0262
1160.00,0.0249
1159.00,0.0240
1158.00,0.0233
1157.00,0.0228
1156.00,0.0225
1155.00,0.0222
1154.00,0.0220
1153.00,0.0216
1152.00,0.0211
1151.00,0.0204
1150.00,0.0194
1149.00,0.0183
1148.00,0.0173
1147.00,0.0164
1146.00,0.0155
1145.00,0.0148
1144.00,0.0140
1143.00,0.0133
1142.00,0.0126
1141.00,0.0120
1140.00,0.0114
1139.00,0.0111
1138.00,0.0108
1137.00,0.0105
1136.00,0.0103
1135.00,0.0101
1134.00,0.0099
1133.00,0.0097
1132.00,0.0096
1131.00,0.0096
1130.00,0.0096
1129.00,0.0096
1128.00,0.0096
1127.00,0.0097
1126.00,0.0097
1125.00,0.0097
1124.00,0.0098
1123.00,0.0098
1122.00,0.0099
1121.00,0.0099
1120.00,0.0099
1119.00,0.0100
1118.00,0.0101
1117.00,0.0101
1116.00,0.0102
1115.00,0.0103
1114.00,0.0105
1113.00,0.0108
1112.00,0.0111
1111.00,0.0114
1110.00,0.0117
1109.00,0.0121
1108.00,0.0126
1107.00,0.0132
1106.00,0.0139
1105.00,0.0146
1104.00,0.0151
1103.00,0.0153
1102.00,0.0153
1101.00,0.0149
1100.00,0.0143
1099.00,0.0136
1098.00,0.0129
1097.00,0.0123
1096.00,0.0119
1095.00,0.0115
1094.00,0.0113
1093.00,0.0111
1092.00,0.0109
1091.00,0.0107
1090.00,0.0105
1089.00,0.0104
1088.00,0.0102
1087.00,0.0101
1086.00,0.0101
1085.00,0.0101
1084.00,0.0101
1083.00,0.0101
1082.00,0.0100
1081.00,0.0100
1080.00,0.0099
1079.00,0.0099
1078.00,0.0099
1077.00,0.0098
1076.00,0.0098
1075.00,0.0098
1074.00,0.0098
1073.00,0.0097
1072.00,0.0097
1071.00,0.0096
1070.00,0.0096
1069.00,0.0096
1068.00,0.0097
1067.00,0.0098
1066.00,0.0099
1065.00,0.0100
1064.00,0.0101
1063.00,0.0102
1062.00,0.0103
1061.00,0.0104
1060.00,0.0104
1059.00,0.0105
1058.00,0.0107
1057.00,0.0109
1056.00,0.0112
1055.00,0.0114
1054.00,0.0117
1053.00,0.0121
1052.00,0.0125
1051.00,0.0129
1050.00,0.0134
1049.00,0.0140
1048.00,0.0145
1047.00,0.0151
1046.00,0.0155
1045.00,0.0158
1044.00,0.0159
1043.00,0.0158
1042.00,0.0156
1041.00,0.0153
1040.00,0.0151
1039.00,0.0150
1038.00,0.0149
1037.00,0.0148
1036.00,0.0146
1035.00,0.0144
1034.00,0.0142
1033.00,0.0141
1032.00,0.0141
1031.00,0.0141
1030.00,0.0141
1029.00,0.0142
1028.00,0.0143
1027.00,0.0145
1026.00,0.0148
1025.00,0.0151
1024.00,0.0154
1023.00,0.0156
1022.00,0.0158
1021.00,0.0160
1020.00,0.0162
1019.00,0.0163
1018.00,0.0165
1017.00,0.0165
1016.00,0.0165
1015.00,0.0165
1014.00,0.0164
1013.00,0.0163
1012.00,0.0163
1011.00,0.0162
1010.00,0.0163
1009.00,0.0164
1008.00,0.0167
1007.00,0.0172
1006.00,0.0180
1005.00,0.0193
1004.00,0.0213
1003.00,0.0241
1002.00,0.0278
1001.00,0.0325
1000.00,0.0375
999.00,0.0416
998.00,0.0436
997.00,0.0427
996.00,0.0393
995.00,0.0345
994.00,0.0294
993.00,0.0250
992.00,0.0216
991.00,0.0191
990.00,0.0174
989.00,0.0162
988.00,0.0153
987.00,0.0148
986.00,0.0147
985.00,0.0148
984.00,0.0152
983.00,0.0158
982.00,0.0169
981.00,0.0186
980.00,0.0209
979.00,0.0241
978.00,0.0281
977.00,0.0328
976.00,0.0381
975.00,0.0432
974.00,0.0471
973.00,0.0486
972.00,0.0470
971.00,0.0426
970.00,0.0365
969.00,0.0304
968.00,0.0252
967.00,0.0212
966.00,0.0182
965.00,0.0160
964.00,0.0145
963.00,0.0134
962.00,0.0126
961.00,0.0120
960.00,0.0115
959.00,0.0111
958.00,0.0107
957.00,0.0104
956.00,0.0102
955.00,0.0100
954.00,0.0098
953.00,0.0097
952.00,0.0095
951.00,0.0094
950.00,0.0093
949.00,0.0092
948.00,0.0093
947.00,0.0094
946.00,0.0095
945.00,0.0098
944.00,0.0101
943.00,0.0105
942.00,0.0110
941.00,0.0113
940.00,0.0113
939.00,0.0110
938.00,0.0105
937.00,0.0099
936.00,0.0093
935.00,0.0087
934.00,0.0082
933.00,0.0079
932.00,0.0078
931.00,0.0078
930.00,0.0077
929.00,0.0076
928.00,0.0075
927.00,0.0074
926.00,0.0075
925.00,0.0076
924.00,0.0076
923.00,0.0075
922.00,0.0074
921.00,0.0072
920.00,0.0071
919.00,0.0071
918.00,0.0072
917.00,0.0072
916.00,0.0073
915.00,0.0075
914.00,0.0077
913.00,0.0079
912.00,0.0081
911.00,0.0083
910.00,0.0085
909.00,0.0087
908.00,0.0091
907.00,0.0097
906.00,0.0105
905.00,0.0116
904.00,0.0131
903.00,0.0150
902.00,0.0171
901.00,0.0189
900.00,0.0202
899.00,0.0204
898.00,0.0195
897.00,0.0177
896.00,0.0156
895.00,0.0135
894.00,0.0119
893.00,0.0107
892.00,0.0099
891.00,0.0095
890.00,0.0092
889.00,0.0091
888.00,0.0090
887.00,0.0089
886.00,0.0090
885.00,0.0091
884.00,0.0092
883.00,0.0095
882.00,0.0100
881.00,0.0107
880.00,0.0115
879.00,0.0123
878.00,0.0129
877.00,0.0132
876.00,0.0132
875.00,0.0130
874.00,0.0127
873.00,0.0121
872.00,0.0115
871.00,0.0107
870.00,0.0101
869.00,0.0096
868.00,0.0093
867.00,0.0091
866.00,0.0091
865.00,0.0091
864.00,0.0092
863.00,0.0093
862.00,0.0095
861.00,0.0097
860.00,0.0098
859.00,0.0100
858.00,0.0102
857.00,0.0103
856.00,0.0104
855.00,0.0105
854.00,0.0106
853.00,0.0108
852.00,0.0112
851.00,0.0116
850.00,0.0121
849.00,0.0128
848.00,0.0138
847.00,0.0153
846.00,0.0178
845.00,0.0215
844.00,0.0270
843.00,0.0335
842.00,0.0392
841.00,0.0415
840.00,0.0392
839.00,0.0335
838.00,0.0268
837.00,0.0213
836.00,0.0177
835.00,0.0155
834.00,0.0142
833.00,0.0134
832.00,0.0129
831.00,0.0125
830.00,0.0122
829.00,0.0120
828.00,0.0117
827.00,0.0115
826.00,0.0114
825.00,0.0113
824.00,0.0113
823.00,0.0114
822.00,0.0115
821.00,0.0116
820.00,0.0118
819.00,0.0121
818.00,0.0126
817.00,0.0133
816.00,0.0143
815.00,0.0155
814.00,0.0170
813.00,0.0189
812.00,0.0212
811.00,0.0234
810.00,0.0250
809.00,0.0256
808.00,0.0249
807.00,0.0233
806.00,0.0213
805.00,0.0193
804.00,0.0176
803.00,0.0161
802.00,0.0150
801.00,0.0141
800.00,0.0135
799.00,0.0130
798.00,0.0125
797.00,0.0120
796.00,0.0114
795.00,0.0110
794.00,0.0105
793.00,0.0102
792.00,0.0099
791.00,0.0097
790.00,0.0095
789.00,0.0094
788.00,0.0092
787.00,0.0089
786.00,0.0086
785.00,0.0084
784.00,0.0082
783.00,0.0081
782.00,0.0080
781.00,0.0080
780.00,0.0079
779.00,0.0078
778.00,0.0078
777.00,0.0079
776.00,0.0079
775.00,0.0080
774.00,0.0080
773.00,0.0080
772.00,0.0080
771.00,0.0080
770.00,0.0079
769.00,0.0078
768.00,0.0078
767.00,0.0078
766.00,0.0078
765.00,0.0077
764.00,0.0077
763.00,0.0078
762.00,0.0078
761.00,0.0078
760.00,0.0077
759.00,0.0076
758.00,0.0076
757.00,0.0077
756.00,0.0079
755.00,0.0081
754.00,0.0083
753.00,0.0085
752.00,0.0087
751.00,0.0088
750.00,0.0090
749.00,0.0091
748.00,0.0092
747.00,0.0092
746.00,0.0092
745.00,0.0094
744.00,0.0096
743.00,0.0098
742.00,0.0100
741.00,0.0102
740.00,0.0105
739.00,0.0108
738.00,0.0111
737.00,0.0115
736.00,0.0118
735.00,0.0121
734.00,0.0124
733.00,0.0127
732.00,0.0130
731.00,0.0134
730.00,0.0136
729.00,0.0138
728.00,0.0141
727.00,0.0144
726.00,0.0148
725.00,0.0152
724.00,0.0155
723.00,0.0157
722.00,0.0158
721.00,0.0159
720.00,0.0158
719.00,0.0155
718.00,0.0150
717.00,0.0144
716.00,0.0140
715.00,0.0137
714.00,0.0135
713.00,0.0134
712.00,0.0132
711.00,0.0130
710.00,0.0129
709.00,0.0127
708.00,0.0125
707.00,0.0124
706.00,0.0122
705.00,0.0120
704.00,0.0117
703.00,0.0114
702.00,0.0110
701.00,0.0108
700.00,0.0108
699.00,0.0110
698.00,0.0112
697.00,0.0113
696.00,0.0115
695.00,0.0116
694.00,0.0118
693.00,0.0119
692.00,0.0121
691.00,0.0122
690.00,0.0123
689.00,0.0123
688.00,0.0123
687.00,0.0123
686.00,0.0123
685.00,0.0121
684.00,0.0120
683.00,0.0118
682.00,0.0118
681.00,0.0118
680.00,0.0116
679.00,0.0115
678.00,0.0114
677.00,0.0116
676.00,0.0120
675.00,0.0125
674.00,0.0129
673.00,0.0132
672.00,0.0134
671.00,0.0136
670.00,0.0137
669.00,0.0134
668.00,0.0131
667.00,0.0129
666.00,0.0126
665.00,0.0123
664.00,0.0121
663.00,0.0121
662.00,0.0122
661.00,0.0121
660.00,0.0120
659.00,0.0117
658.00,0.0114
657.00,0.0111
656.00,0.0109
655.00,0.0107
654.00,0.0105
653.00,0.0105
652.00,0.0106
651.00,0.0108
650.00,0.0110
649.00,0.0112
648.00,0.0112
647.00,0.0111
646.00,0.0109
645.00,0.0107
644.00,0.0106
643.00,0.0104
642.00,0.0104
641.00,0.0104
640.00,0.0106
639.00,0.0108
638.00,0.0110
637.00,0.0111
636.00,0.0110
635.00,0.0109
634.00,0.0108
633.00,0.0107
632.00,0.0108
631.00,0.0108
630.00,0.0108
629.00,0.0108
628.00,0.0107
627.00,0.0108
626.00,0.0108
625.00,0.0107
624.00,0.0107
623.00,0.0106
622.00,0.0105
621.00,0.0103
620.00,0.0101
619.00,0.0101
618.00,0.0105
617.00,0.0109
616.00,0.0111
615.00,0.0112
614.00,0.0112
613.00,0.0112
612.00,0.0113
611.00,0.0113
610.00,0.0112
609.00,0.0110
608.00,0.0107
607.00,0.0104
606.00,0.0102
605.00,0.0101
604.00,0.0100
603.00,0.0099
602.00,0.0099
601.00,0.0100
600.00,0.0100
599.00,0.0101
598.00,0.0102
597.00,0.0105
596.00,0.0109
595.00,0.0112
594.00,0.0113
593.00,0.0112
592.00,0.0109
591.00,0.0108
590.00,0.0106
589.00,0.0104
588.00,0.0103
587.00,0.0103
586.00,0.0106
585.00,0.0109
584.00,0.0111
583.00,0.0112
582.00,0.0113
581.00,0.0112
580.00,0.0110
579.00,0.0109
578.00,0.0111
577.00,0.0115
576.00,0.0117
575.00,0.0117
574.00,0.0114
573.00,0.0111
572.00,0.0109
571.00,0.0107
570.00,0.0106
569.00,0.0106
568.00,0.0105
567.00,0.0104
566.00,0.0104
565.00,0.0105
564.00,0.0106
563.00,0.0109
562.00,0.0111
561.00,0.0111
560.00,0.0111
559.00,0.0109
558.00,0.0106
557.00,0.0105
556.00,0.0105
555.00,0.0106
554.00,0.0108
553.00,0.0108
552.00,0.0106
551.00,0.0104
550.00,0.0103
549.00,0.0104
548.00,0.0107
547.00,0.0112
546.00,0.0118
545.00,0.0123
544.00,0.0127
543.00,0.0130
542.00,0.0134
541.00,0.0138
540.00,0.0140
539.00,0.0139
538.00,0.0137
537.00,0.0138
536.00,0.0142
535.00,0.0147
534.00,0.0149
533.00,0.0147
532.00,0.0143
531.00,0.0140
530.00,0.0139
529.00,0.0139
528.00,0.0138
527.00,0.0135
526.00,0.0131
525.00,0.0127
524.00,0.0125
523.00,0.0122
522.00,0.0118
521.00,0.0115
520.00,0.0113
519.00,0.0111
518.00,0.0108
517.00,0.0108
516.00,0.0110
515.00,0.0114
514.00,0.0116
513.00,0.0115
512.00,0.0110
511.00,0.0107
510.00,0.0106
509.00,0.0108
508.00,0.0114
507.00,0.0120
506.00,0.0123
505.00,0.0121
504.00,0.0118
503.00,0.0115
502.00,0.0113
501.00,0.0112
500.00,0.0111
499.00,0.0111
498.00,0.0111
497.00,0.0112
496.00,0.0111
495.00,0.0108
494.00,0.0105
493.00,0.0104
492.00,0.0103
491.00,0.0103
490.00,0.0101
489.00,0.0097
488.00,0.0091
487.00,0.0085
486.00,0.0084
485.00,0.0088
484.00,0.0099
483.00,0.0112
482.00,0.0122
481.00,0.0126
480.00,0.0126
479.00,0.0128
478.00,0.0133
477.00,0.0139
476.00,0.0143
475.00,0.0142
474.00,0.0140
473.00,0.0144
472.00,0.0152
471.00,0.0160
470.00,0.0165
469.00,0.0166
468.00,0.0167
467.00,0.0168
466.00,0.0170
465.00,0.0177
464.00,0.0191
463.00,0.0214
462.00,0.0242
461.00,0.0266
460.00,0.0278
459.00,0.0272
458.00,0.0252
457.00,0.0235
456.00,0.0228
455.00,0.0230
454.00,0.0231
453.00,0.0228
452.00,0.0221
451.00,0.0210
450.00,0.0199
