Created as New Dataset,Sample 040 By Administrator Date Thursday, September 04 2025
cm-1,A
4000.00,0.0010
3999.00,0.0010
3998.00,0.0010
3997.00,0.0010
3996.00,0.0010
3995.00,0.0010
3994.00,0.0010
3993.00,0.0010
3992.00,0.0011
3991.00,0.0011
3990.00,0.0011
3989.00,0.0010
3988.00,0.0010
3987.00,0.0010
3986.00,0.0010
3985.00,0.0010
3984.00,0.0010
3983.00,0.0010
3982.00,0.0010
3981.00,0.0010
3980.00,0.0010
3979.00,0.0009
3978.00,0.0009
3977.00,0.0009
3976.00,0.0009
3975.00,0.0009
3974.00,0.0010
3973.00,0.0010
3972.00,0.0010
3971.00,0.0009
3970.00,0.0009
3969.00,0.0009
3968.00,0.0009
3967.00,0.0008
3966.00,0.0009
3965.00,0.0009
3964.00,0.0009
3963.00,0.0009
3962.00,0.0009
3961.00,0.0009
3960.00,0.0009
3959.00,0.0009
3958.00,0.0009
3957.00,0.0009
3956.00,0.0009
3955.00,0.0009
3954.00,0.0009
3953.00,0.0009
3952.00,0.0009
3951.00,0.0009
3950.00,0.0009
3949.00,0.0009
3948.00,0.0009
3947.00,0.0008
3946.00,0.0008
3945.00,0.0008
3944.00,0.0009
3943.00,0.0008
3942.00,0.0008
3941.00,0.0008
3940.00,0.0008
3939.00,0.0008
3938.00,0.0009
3937.00,0.0009
3936.00,0.0009
3935.00,0.0009
3934.00,0.0009
3933.00,0.0009
3932.00,0.0009
3931.00,0.0009
3930.00,0.0009
3929.00,0.0009
3928.00,0.0009
3927.00,0.0008
3926.00,0.0008
3925.00,0.0009
3924.00,0.0009
3923.00,0.0009
3922.00,0.0009
3921.00,0.0009
3920.00,0.0009
3919.00,0.0009
3918.00,0.0009
3917.00,0.0009
3916.00,0.0009
3915.00,0.0009
3914.00,0.0009
3913.00,0.0009
3912.00,0.0009
3911.00,0.0008
3910.00,0.0008
3909.00,0.0008
3908.00,0.0008
3907.00,0.0009
3906.00,0.0009
3905.00,0.0009
3904.00,0.0009
3903.00,0.0008
3902.00,0.0008
3901.00,0.0009
3900.00,0.0009
3899.00,0.0009
3898.00,0.0009
3897.00,0.0009
3896.00,0.0008
3895.00,0.0008
3894.00,0.0008
3893.00,0.0008
3892.00,0.0008
3891.00,0.0008
3890.00,0.0008
3889.00,0.0008
3888.00,0.0008
3887.00,0.0008
3886.00,0.0008
3885.00,0.0008
3884.00,0.0009
3883.00,0.0009
3882.00,0.0009
3881.00,0.0010
3880.00,0.0010
3879.00,0.0010
3878.00,0.0009
3877.00,0.0009
3876.00,0.0009
3875.00,0.0009
3874.00,0.0009
3873.00,0.0009
3872.00,0.0009
3871.00,0.0008
3870.00,0.0008
3869.00,0.0008
3868.00,0.0008
3867.00,0.0008
3866.00,0.0008
3865.00,0.0008
3864.00,0.0008
3863.00,0.0008
3862.00,0.0008
3861.00,0.0008
3860.00,0.0008
3859.00,0.0008
3858.00,0.0008
3857.00,0.0008
3856.00,0.0008
3855.00,0.0008
3854.00,0.0008
3853.00,0.0008
3852.00,0.0008
3851.00,0.0008
3850.00,0.0008
3849.00,0.0008
3848.00,0.0008
3847.00,0.0008
3846.00,0.0008
3845.00,0.0008
3844.00,0.0008
3843.00,0.0008
3842.00,0.0008
3841.00,0.0008
3840.00,0.0008
3839.00,0.0008
3838.00,0.0007
3837.00,0.0007
3836.00,0.0007
3835.00,0.0007
3834.00,0.0007
3833.00,0.0007
3832.00,0.0007
3831.00,0.0007
3830.00,0.0008
3829.00,0.0008
3828.00,0.0008
3827.00,0.0009
3826.00,0.0009
3825.00,0.0009
3824.00,0.0009
3823.00,0.0009
3822.00,0.0009
3821.00,0.0009
3820.00,0.0008
3819.00,0.0008
3818.00,0.0008
3817.00,0.0008
3816.00,0.0008
3815.00,0.0008
3814.00,0.0008
3813.00,0.0008
3812.00,0.0008
3811.00,0.0008
3810.00,0.0008
3809.00,0.0008
3808.00,0.0008
3807.00,0.0008
3806.00,0.0009
3805.00,0.0008
3804.00,0.0008
3803.00,0.0007
3802.00,0.0007
3801.00,0.0007
3800.00,0.0008
3799.00,0.0008
3798.00,0.0008
3797.00,0.0008
3796.00,0.0008
3795.00,0.0008
3794.00,0.0008
3793.00,0.0008
3792.00,0.0008
3791.00,0.0009
3790.00,0.0009
3789.00,0.0008
3788.00,0.0008
3787.00,0.0008
3786.00,0.0008
3785.00,0.0009
3784.00,0.0009
3783.00,0.0009
3782.00,0.0009
3781.00,0.0009
3780.00,0.0009
3779.00,0.0009
3778.00,0.0009
3777.00,0.0008
3776.00,0.0008
3775.00,0.0008
3774.00,0.0008
3773.00,0.0008
3772.00,0.0008
3771.00,0.0009
3770.00,0.0009
3769.00,0.0010
3768.00,0.0010
3767.00,0.0010
3766.00,0.0009
3765.00,0.0009
3764.00,0.0009
3763.00,0.0009
3762.00,0.0009
3761.00,0.0009
3760.00,0.0010
3759.00,0.0010
3758.00,0.0009
3757.00,0.0009
3756.00,0.0009
3755.00,0.0008
3754.00,0.0008
3753.00,0.0007
3752.00,0.0007
3751.00,0.0007
3750.00,0.0006
3749.00,0.0007
3748.00,0.0007
3747.00,0.0007
3746.00,0.0007
3745.00,0.0007
3744.00,0.0007
3743.00,0.0007
3742.00,0.0007
3741.00,0.0007
3740.00,0.0007
3739.00,0.0006
3738.00,0.0006
3737.00,0.0006
3736.00,0.0007
3735.00,0.0007
3734.00,0.0007
3733.00,0.0007
3732.00,0.0007
3731.00,0.0007
3730.00,0.0007
3729.00,0.0006
3728.00,0.0006
3727.00,0.0006
3726.00,0.0005
3725.00,0.0006
3724.00,0.0006
3723.00,0.0006
3722.00,0.0006
3721.00,0.0007
3720.00,0.0007
3719.00,0.0007
3718.00,0.0007
3717.00,0.0007
3716.00,0.0007
3715.00,0.0007
3714.00,0.0007
3713.00,0.0007
3712.00,0.0007
3711.00,0.0007
3710.00,0.0007
3709.00,0.0007
3708.00,0.0007
3707.00,0.0006
3706.00,0.0006
3705.00,0.0006
3704.00,0.0006
3703.00,0.0006
3702.00,0.0006
3701.00,0.0006
3700.00,0.0007
3699.00,0.0007
3698.00,0.0007
3697.00,0.0007
3696.00,0.0007
3695.00,0.0007
3694.00,0.0006
3693.00,0.0006
3692.00,0.0006
3691.00,0.0005
3690.00,0.0005
3689.00,0.0005
3688.00,0.0005
3687.00,0.0005
3686.00,0.0005
3685.00,0.0005
3684.00,0.0005
3683.00,0.0005
3682.00,0.0006
3681.00,0.0006
3680.00,0.0007
3679.00,0.0008
3678.00,0.0008
3677.00,0.0008
3676.00,0.0008
3675.00,0.0008
3674.00,0.0007
3673.00,0.0007
3672.00,0.0006
3671.00,0.0005
3670.00,0.0006
3669.00,0.0006
3668.00,0.0006
3667.00,0.0006
3666.00,0.0006
3665.00,0.0005
3664.00,0.0005
3663.00,0.0005
3662.00,0.0004
3661.00,0.0005
3660.00,0.0005
3659.00,0.0005
3658.00,0.0004
3657.00,0.0004
3656.00,0.0004
3655.00,0.0004
3654.00,0.0004
3653.00,0.0004
3652.00,0.0005
3651.00,0.0005
3650.00,0.0006
3649.00,0.0005
3648.00,0.0005
3647.00,0.0005
3646.00,0.0005
3645.00,0.0006
3644.00,0.0006
3643.00,0.0005
3642.00,0.0005
3641.00,0.0005
3640.00,0.0005
3639.00,0.0005
3638.00,0.0005
3637.00,0.0005
3636.00,0.0005
3635.00,0.0005
3634.00,0.0005
3633.00,0.0005
3632.00,0.0005
3631.00,0.0005
3630.00,0.0005
3629.00,0.0005
3628.00,0.0005
3627.00,0.0005
3626.00,0.0005
3625.00,0.0005
3624.00,0.0006
3623.00,0.0006
3622.00,0.0007
3621.00,0.0006
3620.00,0.0006
3619.00,0.0006
3618.00,0.0005
3617.00,0.0006
3616.00,0.0006
3615.00,0.0007
3614.00,0.0007
3613.00,0.0007
3612.00,0.0007
3611.00,0.0007
3610.00,0.0008
3609.00,0.0008
3608.00,0.0008
3607.00,0.0008
3606.00,0.0007
3605.00,0.0007
3604.00,0.0006
3603.00,0.0006
3602.00,0.0007
3601.00,0.0007
3600.00,0.0007
3599.00,0.0007
3598.00,0.0007
3597.00,0.0007
3596.00,0.0007
3595.00,0.0006
3594.00,0.0006
3593.00,0.0007
3592.00,0.0007
3591.00,0.0007
3590.00,0.0007
3589.00,0.0007
3588.00,0.0008
3587.00,0.0008
3586.00,0.0008
3585.00,0.0008
3584.00,0.0008
3583.00,0.0008
3582.00,0.0008
3581.00,0.0008
3580.00,0.0008
3579.00,0.0008
3578.00,0.0008
3577.00,0.0009
3576.00,0.0009
3575.00,0.0009
3574.00,0.0010
3573.00,0.0010
3572.00,0.0010
3571.00,0.0010
3570.00,0.0010
3569.00,0.0010
3568.00,0.0010
3567.00,0.0010
3566.00,0.0010
3565.00,0.0011
3564.00,0.0011
3563.00,0.0011
3562.00,0.0011
3561.00,0.0011
3560.00,0.0011
3559.00,0.0010
3558.00,0.0010
3557.00,0.0010
3556.00,0.0010
3555.00,0.0010
3554.00,0.0011
3553.00,0.0011
3552.00,0.0012
3551.00,0.0012
3550.00,0.0012
3549.00,0.0012
3548.00,0.0012
3547.00,0.0012
3546.00,0.0013
3545.00,0.0013
3544.00,0.0013
3543.00,0.0013
3542.00,0.0013
3541.00,0.0013
3540.00,0.0013
3539.00,0.0013
3538.00,0.0013
3537.00,0.0014
3536.00,0.0014
3535.00,0.0014
3534.00,0.0014
3533.00,0.0014
3532.00,0.0014
3531.00,0.0014
3530.00,0.0014
3529.00,0.0014
3528.00,0.0015
3527.00,0.0015
3526.00,0.0015
3525.00,0.0015
3524.00,0.0015
3523.00,0.0015
3522.00,0.0016
3521.00,0.0016
3520.00,0.0016
3519.00,0.0016
3518.00,0.0016
3517.00,0.0016
3516.00,0.0016
3515.00,0.0016
3514.00,0.0017
3513.00,0.0017
3512.00,0.0017
3511.00,0.0017
3510.00,0.0017
3509.00,0.0017
3508.00,0.0017
3507.00,0.0017
3506.00,0.0017
3505.00,0.0016
3504.00,0.0016
3503.00,0.0017
3502.00,0.0017
3501.00,0.0018
3500.00,0.0018
3499.00,0.0018
3498.00,0.0018
3497.00,0.0018
3496.00,0.0019
3495.00,0.0019
3494.00,0.0019
3493.00,0.0019
3492.00,0.0019
3491.00,0.0019
3490.00,0.0019
3489.00,0.0019
3488.00,0.0019
3487.00,0.0019
3486.00,0.0019
3485.00,0.0019
3484.00,0.0019
3483.00,0.0019
3482.00,0.0020
3481.00,0.0020
3480.00,0.0020
3479.00,0.0020
3478.00,0.0020
3477.00,0.0020
3476.00,0.0020
3475.00,0.0021
3474.00,0.0021
3473.00,0.0021
3472.00,0.0022
3471.00,0.0021
3470.00,0.0021
3469.00,0.0021
3468.00,0.0021
3467.00,0.0021
3466.00,0.0021
3465.00,0.0022
3464.00,0.0022
3463.00,0.0022
3462.00,0.0023
3461.00,0.0023
3460.00,0.0023
3459.00,0.0023
3458.00,0.0023
3457.00,0.0023
3456.00,0.0023
3455.00,0.0023
3454.00,0.0024
3453.00,0.0024
3452.00,0.0024
3451.00,0.0025
3450.00,0.0025
3449.00,0.0025
3448.00,0.0025
3447.00,0.0025
3446.00,0.0025
3445.00,0.0025
3444.00,0.0025
3443.00,0.0025
3442.00,0.0026
3441.00,0.0026
3440.00,0.0026
3439.00,0.0026
3438.00,0.0026
3437.00,0.0026
3436.00,0.0026
3435.00,0.0026
3434.00,0.0027
3433.00,0.0027
3432.00,0.0028
3431.00,0.0028
3430.00,0.0028
3429.00,0.0028
3428.00,0.0028
3427.00,0.0028
3426.00,0.0028
3425.00,0.0028
3424.00,0.0028
3423.00,0.0028
3422.00,0.0028
3421.00,0.0028
3420.00,0.0029
3419.00,0.0029
3418.00,0.0029
3417.00,0.0029
3416.00,0.0029
3415.00,0.0030
3414.00,0.0030
3413.00,0.0030
3412.00,0.0030
3411.00,0.0030
3410.00,0.0030
3409.00,0.0030
3408.00,0.0030
3407.00,0.0030
3406.00,0.0030
3405.00,0.0030
3404.00,0.0031
3403.00,0.0031
3402.00,0.0031
3401.00,0.0031
3400.00,0.0031
3399.00,0.0030
3398.00,0.0030
3397.00,0.0030
3396.00,0.0031
3395.00,0.0031
3394.00,0.0031
3393.00,0.0031
3392.00,0.0031
3391.00,0.0032
3390.00,0.0032
3389.00,0.0032
3388.00,0.0033
3387.00,0.0033
3386.00,0.0032
3385.00,0.0032
3384.00,0.0032
3383.00,0.0032
3382.00,0.0032
3381.00,0.0032
3380.00,0.0031
3379.00,0.0031
3378.00,0.0031
3377.00,0.0032
3376.00,0.0032
3375.00,0.0032
3374.00,0.0032
3373.00,0.0032
3372.00,0.0032
3371.00,0.0033
3370.00,0.0033
3369.00,0.0033
3368.00,0.0033
3367.00,0.0033
3366.00,0.0033
3365.00,0.0033
3364.00,0.0033
3363.00,0.0033
3362.00,0.0033
3361.00,0.0033
3360.00,0.0033
3359.00,0.0033
3358.00,0.0033
3357.00,0.0033
3356.00,0.0033
3355.00,0.0033
3354.00,0.0034
3353.00,0.0034
3352.00,0.0034
3351.00,0.0034
3350.00,0.0034
3349.00,0.0034
3348.00,0.0034
3347.00,0.0034
3346.00,0.0034
3345.00,0.0034
3344.00,0.0034
3343.00,0.0034
3342.00,0.0034
3341.00,0.0034
3340.00,0.0034
3339.00,0.0034
3338.00,0.0034
3337.00,0.0034
3336.00,0.0034
3335.00,0.0033
3334.00,0.0033
3333.00,0.0033
3332.00,0.0033
3331.00,0.0033
3330.00,0.0034
3329.00,0.0034
3328.00,0.0034
3327.00,0.0033
3326.00,0.0033
3325.00,0.0033
3324.00,0.0033
3323.00,0.0034
3322.00,0.0034
3321.00,0.0033
3320.00,0.0033
3319.00,0.0033
3318.00,0.0032
3317.00,0.0032
3316.00,0.0032
3315.00,0.0033
3314.00,0.0033
3313.00,0.0034
3312.00,0.0034
3311.00,0.0034
3310.00,0.0034
3309.00,0.0034
3308.00,0.0034
3307.00,0.0035
3306.00,0.0035
3305.00,0.0035
3304.00,0.0035
3303.00,0.0035
3302.00,0.0036
3301.00,0.0035
3300.00,0.0035
3299.00,0.0035
3298.00,0.0034
3297.00,0.0034
3296.00,0.0034
3295.00,0.0034
3294.00,0.0034
3293.00,0.0034
3292.00,0.0034
3291.00,0.0034
3290.00,0.0033
3289.00,0.0033
3288.00,0.0033
3287.00,0.0033
3286.00,0.0033
3285.00,0.0033
3284.00,0.0032
3283.00,0.0032
3282.00,0.0031
3281.00,0.0031
3280.00,0.0031
3279.00,0.0031
3278.00,0.0031
3277.00,0.0031
3276.00,0.0031
3275.00,0.0031
3274.00,0.0031
3273.00,0.0031
3272.00,0.0030
3271.00,0.0030
3270.00,0.0030
3269.00,0.0030
3268.00,0.0030
3267.00,0.0030
3266.00,0.0031
3265.00,0.0031
3264.00,0.0031
3263.00,0.0031
3262.00,0.0031
3261.00,0.0031
3260.00,0.0030
3259.00,0.0030
3258.00,0.0030
3257.00,0.0029
3256.00,0.0029
3255.00,0.0029
3254.00,0.0029
3253.00,0.0029
3252.00,0.0029
3251.00,0.0029
3250.00,0.0029
3249.00,0.0029
3248.00,0.0029
3247.00,0.0028
3246.00,0.0028
3245.00,0.0028
3244.00,0.0028
3243.00,0.0028
3242.00,0.0028
3241.00,0.0028
3240.00,0.0029
3239.00,0.0029
3238.00,0.0029
3237.00,0.0029
3236.00,0.0028
3235.00,0.0028
3234.00,0.0028
3233.00,0.0028
3232.00,0.0029
3231.00,0.0029
3230.00,0.0029
3229.00,0.0029
3228.00,0.0029
3227.00,0.0029
3226.00,0.0030
3225.00,0.0030
3224.00,0.0031
3223.00,0.0031
3222.00,0.0031
3221.00,0.0032
3220.00,0.0032
3219.00,0.0032
3218.00,0.0032
3217.00,0.0032
3216.00,0.0032
3215.00,0.0032
3214.00,0.0032
3213.00,0.0032
3212.00,0.0032
3211.00,0.0032
3210.00,0.0033
3209.00,0.0033
3208.00,0.0033
3207.00,0.0033
3206.00,0.0033
3205.00,0.0034
3204.00,0.0034
3203.00,0.0034
3202.00,0.0035
3201.00,0.0035
3200.00,0.0035
3199.00,0.0035
3198.00,0.0035
3197.00,0.0035
3196.00,0.0036
3195.00,0.0035
3194.00,0.0035
3193.00,0.0035
3192.00,0.0035
3191.00,0.0035
3190.00,0.0035
3189.00,0.0035
3188.00,0.0034
3187.00,0.0034
3186.00,0.0034
3185.00,0.0034
3184.00,0.0034
3183.00,0.0033
3182.00,0.0033
3181.00,0.0033
3180.00,0.0033
3179.00,0.0033
3178.00,0.0033
3177.00,0.0033
3176.00,0.0033
3175.00,0.0033
3174.00,0.0033
3173.00,0.0033
3172.00,0.0033
3171.00,0.0032
3170.00,0.0032
3169.00,0.0031
3168.00,0.0031
3167.00,0.0031
3166.00,0.0031
3165.00,0.0032
3164.00,0.0032
3163.00,0.0032
3162.00,0.0032
3161.00,0.0032
3160.00,0.0032
3159.00,0.0031
3158.00,0.0031
3157.00,0.0031
3156.00,0.0031
3155.00,0.0031
3154.00,0.0031
3153.00,0.0031
3152.00,0.0031
3151.00,0.0031
3150.00,0.0031
3149.00,0.0031
3148.00,0.0032
3147.00,0.0032
3146.00,0.0032
3145.00,0.0032
3144.00,0.0032
3143.00,0.0032
3142.00,0.0032
3141.00,0.0032
3140.00,0.0031
3139.00,0.0031
3138.00,0.0031
3137.00,0.0031
3136.00,0.0031
3135.00,0.0031
3134.00,0.0030
3133.00,0.0030
3132.00,0.0029
3131.00,0.0029
3130.00,0.0029
3129.00,0.0029
3128.00,0.0029
3127.00,0.0029
3126.00,0.0029
3125.00,0.0029
3124.00,0.0028
3123.00,0.0028
3122.00,0.0028
3121.00,0.0027
3120.00,0.0027
3119.00,0.0026
3118.00,0.0026
3117.00,0.0026
3116.00,0.0027
3115.00,0.0027
3114.00,0.0027
3113.00,0.0027
3112.00,0.0027
3111.00,0.0026
3110.00,0.0026
3109.00,0.0026
3108.00,0.0026
3107.00,0.0026
3106.00,0.0026
3105.00,0.0026
3104.00,0.0026
3103.00,0.0026
3102.00,0.0026
3101.00,0.0026
3100.00,0.0026
3099.00,0.0026
3098.00,0.0026
3097.00,0.0026
3096.00,0.0026
3095.00,0.0026
3094.00,0.0025
3093.00,0.0025
3092.00,0.0025
3091.00,0.0026
3090.00,0.0026
3089.00,0.0026
3088.00,0.0026
3087.00,0.0025
3086.00,0.0025
3085.00,0.0025
3084.00,0.0025
3083.00,0.0025
3082.00,0.0025
3081.00,0.0025
3080.00,0.0025
3079.00,0.0025
3078.00,0.0025
3077.00,0.0025
3076.00,0.0025
3075.00,0.0025
3074.00,0.0025
3073.00,0.0026
3072.00,0.0026
3071.00,0.0027
3070.00,0.0027
3069.00,0.0027
3068.00,0.0027
3067.00,0.0027
3066.00,0.0026
3065.00,0.0026
3064.00,0.0026
3063.00,0.0027
3062.00,0.0027
3061.00,0.0028
3060.00,0.0028
3059.00,0.0029
3058.00,0.0029
3057.00,0.0028
3056.00,0.0028
3055.00,0.0028
3054.00,0.0029
3053.00,0.0029
3052.00,0.0029
3051.00,0.0029
3050.00,0.0029
3049.00,0.0030
3048.00,0.0030
3047.00,0.0030
3046.00,0.0030
3045.00,0.0030
3044.00,0.0031
3043.00,0.0031
3042.00,0.0031
3041.00,0.0032
3040.00,0.0033
3039.00,0.0033
3038.00,0.0033
3037.00,0.0033
3036.00,0.0033
3035.00,0.0034
3034.00,0.0034
3033.00,0.0035
3032.00,0.0035
3031.00,0.0035
3030.00,0.0036
3029.00,0.0036
3028.00,0.0036
3027.00,0.0037
3026.00,0.0038
3025.00,0.0038
3024.00,0.0039
3023.00,0.0039
3022.00,0.0040
3021.00,0.0041
3020.00,0.0041
3019.00,0.0042
3018.00,0.0043
3017.00,0.0044
3016.00,0.0045
3015.00,0.0046
3014.00,0.0047
3013.00,0.0048
3012.00,0.0049
3011.00,0.0050
3010.00,0.0051
3009.00,0.0053
3008.00,0.0054
3007.00,0.0056
3006.00,0.0057
3005.00,0.0059
3004.00,0.0061
3003.00,0.0063
3002.00,0.0065
3001.00,0.0068
3000.00,0.0071
2999.00,0.0073
2998.00,0.0076
2997.00,0.0079
2996.00,0.0082
2995.00,0.0086
2994.00,0.0091
2993.00,0.0095
2992.00,0.0101
2991.00,0.0107
2990.00,0.0113
2989.00,0.0120
2988.00,0.0128
2987.00,0.0137
2986.00,0.0147
2985.00,0.0157
2984.00,0.0169
2983.00,0.0182
2982.00,0.0198
2981.00,0.0216
2980.00,0.0236
2979.00,0.0259
2978.00,0.0285
2977.00,0.0315
2976.00,0.0350
2975.00,0.0389
2974.00,0.0434
2973.00,0.0486
2972.00,0.0544
2971.00,0.0609
2970.00,0.0682
2969.00,0.0763
2968.00,0.0852
2967.00,0.0947
2966.00,0.1048
2965.00,0.1151
2964.00,0.1253
2963.00,0.1350
2962.00,0.1435
2961.00,0.1504
2960.00,0.1557
2959.00,0.1597
2958.00,0.1628
2957.00,0.1659
2956.00,0.1694
2955.00,0.1739
2954.00,0.1793
2953.00,0.1850
2952.00,0.1899
2951.00,0.1929
2950.00,0.1930
2949.00,0.1893
2948.00,0.1819
2947.00,0.1713
2946.00,0.1589
2945.00,0.1460
2944.00,0.1339
2943.00,0.1235
2942.00,0.1155
2941.00,0.1100
2940.00,0.1069
2939.00,0.1060
2938.00,0.1071
2937.00,0.1099
2936.00,0.1143
2935.00,0.1202
2934.00,0.1275
2933.00,0.1360
2932.00,0.1455
2931.00,0.1559
2930.00,0.1669
2929.00,0.1781
2928.00,0.1893
2927.00,0.2002
2926.00,0.2107
2925.00,0.2207
2924.00,0.2304
2923.00,0.2399
2922.00,0.2491
2921.00,0.2578
2920.00,0.2652
2919.00,0.2704
2918.00,0.2727
2917.00,0.2713
2916.00,0.2664
2915.00,0.2587
2914.00,0.2492
2913.00,0.2390
2912.00,0.2292
2911.00,0.2204
2910.00,0.2125
2909.00,0.2056
2908.00,0.1993
2907.00,0.1933
2906.00,0.1872
2905.00,0.1809
2904.00,0.1744
2903.00,0.1677
2902.00,0.1609
2901.00,0.1542
2900.00,0.1477
2899.00,0.1415
2898.00,0.1357
2897.00,0.1304
2896.00,0.1256
2895.00,0.1213
2894.00,0.1176
2893.00,0.1146
2892.00,0.1122
2891.00,0.1104
2890.00,0.1090
2889.00,0.1081
2888.00,0.1076
2887.00,0.1074
2886.00,0.1076
2885.00,0.1081
2884.00,0.1090
2883.00,0.1103
2882.00,0.1119
2881.00,0.1139
2880.00,0.1157
2879.00,0.1172
2878.00,0.1181
2877.00,0.1181
2876.00,0.1175
2875.00,0.1168
2874.00,0.1162
2873.00,0.1162
2872.00,0.1170
2871.00,0.1185
2870.00,0.1203
2869.00,0.1220
2868.00,0.1230
2867.00,0.1225
2866.00,0.1199
2865.00,0.1152
2864.00,0.1087
2863.00,0.1013
2862.00,0.0940
2861.00,0.0876
2860.00,0.0826
2859.00,0.0792
2858.00,0.0773
2857.00,0.0766
2856.00,0.0769
2855.00,0.0779
2854.00,0.0794
2853.00,0.0813
2852.00,0.0832
2851.00,0.0850
2850.00,0.0866
2849.00,0.0879
2848.00,0.0893
2847.00,0.0912
2846.00,0.0939
2845.00,0.0977
2844.00,0.1025
2843.00,0.1081
2842.00,0.1138
2841.00,0.1191
2840.00,0.1232
2839.00,0.1252
2838.00,0.1245
2837.00,0.1207
2836.00,0.1138
2835.00,0.1046
2834.00,0.0939
2833.00,0.0830
2832.00,0.0726
2831.00,0.0635
2830.00,0.0558
2829.00,0.0494
2828.00,0.0442
2827.00,0.0400
2826.00,0.0366
2825.00,0.0338
2824.00,0.0315
2823.00,0.0294
2822.00,0.0277
2821.00,0.0262
2820.00,0.0249
2819.00,0.0237
2818.00,0.0228
2817.00,0.0219
2816.00,0.0211
2815.00,0.0204
2814.00,0.0198
2813.00,0.0192
2812.00,0.0186
2811.00,0.0181
2810.00,0.0176
2809.00,0.0170
2808.00,0.0164
2807.00,0.0158
2806.00,0.0151
2805.00,0.0145
2804.00,0.0139
2803.00,0.0133
2802.00,0.0128
2801.00,0.0123
2800.00,0.0120
2799.00,0.0117
2798.00,0.0114
2797.00,0.0112
2796.00,0.0110
2795.00,0.0107
2794.00,0.0104
2793.00,0.0101
2792.00,0.0098
2791.00,0.0095
2790.00,0.0091
2789.00,0.0088
2788.00,0.0085
2787.00,0.0083
2786.00,0.0080
2785.00,0.0078
2784.00,0.0075
2783.00,0.0073
2782.00,0.0070
2781.00,0.0068
2780.00,0.0066
2779.00,0.0064
2778.00,0.0063
2777.00,0.0062
2776.00,0.0060
2775.00,0.0059
2774.00,0.0058
2773.00,0.0057
2772.00,0.0056
2771.00,0.0056
2770.00,0.0056
2769.00,0.0056
2768.00,0.0056
2767.00,0.0056
2766.00,0.0056
2765.00,0.0055
2764.00,0.0054
2763.00,0.0054
2762.00,0.0053
2761.00,0.0053
2760.00,0.0053
2759.00,0.0052
2758.00,0.0052
2757.00,0.0051
2756.00,0.0051
2755.00,0.0051
2754.00,0.0051
2753.00,0.0051
2752.00,0.0051
2751.00,0.0050
2750.00,0.0050
2749.00,0.0051
2748.00,0.0051
2747.00,0.0051
2746.00,0.0051
2745.00,0.0052
2744.00,0.0053
2743.00,0.0054
2742.00,0.0055
2741.00,0.0057
2740.00,0.0058
2739.00,0.0059
2738.00,0.0060
2737.00,0.0061
2736.00,0.0062
2735.00,0.0063
2734.00,0.0064
2733.00,0.0066
2732.00,0.0068
2731.00,0.0070
2730.00,0.0072
2729.00,0.0074
2728.00,0.0077
2727.00,0.0080
2726.00,0.0082
2725.00,0.0084
2724.00,0.0086
2723.00,0.0086
2722.00,0.0086
2721.00,0.0084
2720.00,0.0081
2719.00,0.0078
2718.00,0.0075
2717.00,0.0072
2716.00,0.0069
2715.00,0.0067
2714.00,0.0065
2713.00,0.0062
2712.00,0.0060
2711.00,0.0059
2710.00,0.0057
2709.00,0.0056
2708.00,0.0054
2707.00,0.0053
2706.00,0.0052
2705.00,0.0050
2704.00,0.0049
2703.00,0.0048
2702.00,0.0048
2701.00,0.0047
2700.00,0.0047
2699.00,0.0046
2698.00,0.0046
2697.00,0.0046
2696.00,0.0046
2695.00,0.0046
2694.00,0.0045
2693.00,0.0045
2692.00,0.0045
2691.00,0.0045
2690.00,0.0045
2689.00,0.0045
2688.00,0.0044
2687.00,0.0044
2686.00,0.0044
2685.00,0.0044
2684.00,0.0045
2683.00,0.0045
2682.00,0.0045
2681.00,0.0045
2680.00,0.0045
2679.00,0.0045
2678.00,0.0045
2677.00,0.0045
2676.00,0.0045
2675.00,0.0045
2674.00,0.0045
2673.00,0.0045
2672.00,0.0045
2671.00,0.0045
2670.00,0.0045
2669.00,0.0044
2668.00,0.0044
2667.00,0.0044
2666.00,0.0044
2665.00,0.0045
2664.00,0.0046
2663.00,0.0046
2662.00,0.0047
2661.00,0.0047
2660.00,0.0047
2659.00,0.0047
2658.00,0.0047
2657.00,0.0047
2656.00,0.0046
2655.00,0.0046
2654.00,0.0045
2653.00,0.0045
2652.00,0.0044
2651.00,0.0043
2650.00,0.0043
2649.00,0.0043
2648.00,0.0042
2647.00,0.0042
2646.00,0.0042
2645.00,0.0042
2644.00,0.0041
2643.00,0.0041
2642.00,0.0040
2641.00,0.0040
2640.00,0.0040
2639.00,0.0040
2638.00,0.0039
2637.00,0.0039
2636.00,0.0038
2635.00,0.0038
2634.00,0.0038
2633.00,0.0038
2632.00,0.0038
2631.00,0.0038
2630.00,0.0038
2629.00,0.0039
2628.00,0.0039
2627.00,0.0039
2626.00,0.0040
2625.00,0.0040
2624.00,0.0040
2623.00,0.0041
2622.00,0.0041
2621.00,0.0041
2620.00,0.0041
2619.00,0.0041
2618.00,0.0041
2617.00,0.0040
2616.00,0.0040
2615.00,0.0040
2614.00,0.0040
2613.00,0.0040
2612.00,0.0039
2611.00,0.0038
2610.00,0.0037
2609.00,0.0036
2608.00,0.0035
2607.00,0.0035
2606.00,0.0034
2605.00,0.0034
2604.00,0.0033
2603.00,0.0033
2602.00,0.0032
2601.00,0.0032
2600.00,0.0031
2599.00,0.0031
2598.00,0.0031
2597.00,0.0031
2596.00,0.0032
2595.00,0.0032
2594.00,0.0033
2593.00,0.0033
2592.00,0.0033
2591.00,0.0033
2590.00,0.0033
2589.00,0.0034
2588.00,0.0035
2587.00,0.0036
2586.00,0.0038
2585.00,0.0039
2584.00,0.0040
2583.00,0.0040
2582.00,0.0039
2581.00,0.0039
2580.00,0.0038
2579.00,0.0037
2578.00,0.0036
2577.00,0.0035
2576.00,0.0033
2575.00,0.0032
2574.00,0.0030
2573.00,0.0030
2572.00,0.0029
2571.00,0.0028
2570.00,0.0027
2569.00,0.0026
2568.00,0.0026
2567.00,0.0026
2566.00,0.0026
2565.00,0.0025
2564.00,0.0025
2563.00,0.0023
2562.00,0.0023
2561.00,0.0023
2560.00,0.0023
2559.00,0.0023
2558.00,0.0023
2557.00,0.0023
2556.00,0.0022
2555.00,0.0022
2554.00,0.0021
2553.00,0.0021
2552.00,0.0021
2551.00,0.0021
2550.00,0.0020
2549.00,0.0020
2548.00,0.0019
2547.00,0.0019
2546.00,0.0019
2545.00,0.0019
2544.00,0.0019
2543.00,0.0018
2542.00,0.0018
2541.00,0.0017
2540.00,0.0017
2539.00,0.0017
2538.00,0.0016
2537.00,0.0016
2536.00,0.0016
2535.00,0.0016
2534.00,0.0016
2533.00,0.0015
2532.00,0.0015
2531.00,0.0015
2530.00,0.0015
2529.00,0.0016
2528.00,0.0016
2527.00,0.0016
2526.00,0.0015
2525.00,0.0014
2524.00,0.0013
2523.00,0.0012
2522.00,0.0012
2521.00,0.0013
2520.00,0.0013
2519.00,0.0013
2518.00,0.0013
2517.00,0.0013
2516.00,0.0013
2515.00,0.0012
2514.00,0.0012
2513.00,0.0011
2512.00,0.0011
2511.00,0.0011
2510.00,0.0011
2509.00,0.0011
2508.00,0.0011
2507.00,0.0011
2506.00,0.0012
2505.00,0.0012
2504.00,0.0012
2503.00,0.0012
2502.00,0.0012
2501.00,0.0012
2500.00,0.0011
2499.00,0.0011
2498.00,0.0010
2497.00,0.0010
2496.00,0.0010
2495.00,0.0010
2494.00,0.0010
2493.00,0.0010
2492.00,0.0010
2491.00,0.0010
2490.00,0.0010
2489.00,0.0010
2488.00,0.0010
2487.00,0.0010
2486.00,0.0010
2485.00,0.0010
2484.00,0.0009
2483.00,0.0010
2482.00,0.0010
2481.00,0.0010
2480.00,0.0010
2479.00,0.0010
2478.00,0.0010
2477.00,0.0010
2476.00,0.0009
2475.00,0.0009
2474.00,0.0009
2473.00,0.0009
2472.00,0.0009
2471.00,0.0010
2470.00,0.0010
2469.00,0.0009
2468.00,0.0009
2467.00,0.0009
2466.00,0.0009
2465.00,0.0009
2464.00,0.0009
2463.00,0.0009
2462.00,0.0009
2461.00,0.0009
2460.00,0.0009
2459.00,0.0010
2458.00,0.0010
2457.00,0.0010
2456.00,0.0010
2455.00,0.0010
2454.00,0.0010
2453.00,0.0011
2452.00,0.0011
2451.00,0.0011
2450.00,0.0011
2449.00,0.0011
2448.00,0.0011
2447.00,0.0011
2446.00,0.0011
2445.00,0.0011
2444.00,0.0010
2443.00,0.0010
2442.00,0.0010
2441.00,0.0011
2440.00,0.0011
2439.00,0.0011
2438.00,0.0012
2437.00,0.0012
2436.00,0.0012
2435.00,0.0012
2434.00,0.0013
2433.00,0.0013
2432.00,0.0014
2431.00,0.0014
2430.00,0.0013
2429.00,0.0013
2428.00,0.0013
2427.00,0.0013
2426.00,0.0013
2425.00,0.0012
2424.00,0.0012
2423.00,0.0011
2422.00,0.0011
2421.00,0.0010
2420.00,0.0010
2419.00,0.0009
2418.00,0.0008
2417.00,0.0008
2416.00,0.0008
2415.00,0.0009
2414.00,0.0009
2413.00,0.0009
2412.00,0.0008
2411.00,0.0008
2410.00,0.0008
2409.00,0.0009
2408.00,0.0009
2407.00,0.0009
2406.00,0.0009
2405.00,0.0009
2404.00,0.0009
2403.00,0.0009
2402.00,0.0009
2401.00,0.0008
2400.00,0.0008
2399.00,0.0008
2398.00,0.0008
2397.00,0.0008
2396.00,0.0008
2395.00,0.0008
2394.00,0.0008
2393.00,0.0007
2392.00,0.0007
2391.00,0.0007
2390.00,0.0007
2389.00,0.0007
2388.00,0.0006
2387.00,0.0006
2386.00,0.0006
2385.00,0.0006
2384.00,0.0005
2383.00,0.0005
2382.00,0.0005
2381.00,0.0004
2380.00,0.0004
2379.00,0.0003
2378.00,0.0002
2377.00,0.0002
2376.00,0.0002
2375.00,0.0002
2374.00,0.0002
2373.00,0.0002
2372.00,0.0003
2371.00,0.0003
2370.00,0.0003
2369.00,0.0002
2368.00,0.0001
2367.00,-0.0001
2366.00,-0.0001
2365.00,-0.0001
2364.00,0.0000
2363.00,0.0001
2362.00,0.0001
2361.00,0.0002
2360.00,0.0002
2359.00,0.0001
2358.00,0.0001
2357.00,0.0002
2356.00,0.0003
2355.00,0.0003
2354.00,0.0003
2353.00,0.0003
2352.00,0.0002
2351.00,0.0002
2350.00,0.0002
2349.00,0.0002
2348.00,0.0003
2347.00,0.0003
2346.00,0.0003
2345.00,0.0003
2344.00,0.0004
2343.00,0.0004
2342.00,0.0004
2341.00,0.0004
2340.00,0.0005
2339.00,0.0005
2338.00,0.0005
2337.00,0.0005
2336.00,0.0005
2335.00,0.0005
2334.00,0.0005
2333.00,0.0005
2332.00,0.0004
2331.00,0.0004
2330.00,0.0003
2329.00,0.0004
2328.00,0.0006
2327.00,0.0010
2326.00,0.0014
2325.00,0.0017
2324.00,0.0019
2323.00,0.0018
2322.00,0.0016
2321.00,0.0014
2320.00,0.0013
2319.00,0.0012
2318.00,0.0012
2317.00,0.0011
2316.00,0.0011
2315.00,0.0010
2314.00,0.0009
2313.00,0.0009
2312.00,0.0008
2311.00,0.0008
2310.00,0.0008
2309.00,0.0008
2308.00,0.0008
2307.00,0.0008
2306.00,0.0008
2305.00,0.0009
2304.00,0.0009
2303.00,0.0009
2302.00,0.0010
2301.00,0.0010
2300.00,0.0010
2299.00,0.0010
2298.00,0.0010
2297.00,0.0010
2296.00,0.0010
2295.00,0.0011
2294.00,0.0012
2293.00,0.0013
2292.00,0.0014
2291.00,0.0015
2290.00,0.0016
2289.00,0.0016
2288.00,0.0017
2287.00,0.0018
2286.00,0.0018
2285.00,0.0018
2284.00,0.0019
2283.00,0.0018
2282.00,0.0018
2281.00,0.0017
2280.00,0.0017
2279.00,0.0016
2278.00,0.0015
2277.00,0.0014
2276.00,0.0013
2275.00,0.0013
2274.00,0.0013
2273.00,0.0014
2272.00,0.0014
2271.00,0.0014
2270.00,0.0014
2269.00,0.0013
2268.00,0.0013
2267.00,0.0013
2266.00,0.0013
2265.00,0.0012
2264.00,0.0011
2263.00,0.0011
2262.00,0.0011
2261.00,0.0011
2260.00,0.0012
2259.00,0.0013
2258.00,0.0014
2257.00,0.0013
2256.00,0.0011
2255.00,0.0009
2254.00,0.0008
2253.00,0.0009
2252.00,0.0010
2251.00,0.0010
2250.00,0.0009
2249.00,0.0008
2248.00,0.0007
2247.00,0.0007
2246.00,0.0007
2245.00,0.0007
2244.00,0.0007
2243.00,0.0007
2242.00,0.0006
2241.00,0.0006
2240.00,0.0006
2239.00,0.0006
2238.00,0.0006
2237.00,0.0006
2236.00,0.0006
2235.00,0.0007
2234.00,0.0008
2233.00,0.0009
2232.00,0.0009
2231.00,0.0009
2230.00,0.0008
2229.00,0.0008
2228.00,0.0008
2227.00,0.0008
2226.00,0.0008
2225.00,0.0007
2224.00,0.0006
2223.00,0.0005
2222.00,0.0005
2221.00,0.0005
2220.00,0.0006
2219.00,0.0007
2218.00,0.0007
2217.00,0.0007
2216.00,0.0007
2215.00,0.0007
2214.00,0.0008
2213.00,0.0008
2212.00,0.0008
2211.00,0.0007
2210.00,0.0006
2209.00,0.0006
2208.00,0.0007
2207.00,0.0008
2206.00,0.0008
2205.00,0.0007
2204.00,0.0007
2203.00,0.0008
2202.00,0.0008
2201.00,0.0009
2200.00,0.0008
2199.00,0.0007
2198.00,0.0006
2197.00,0.0005
2196.00,0.0005
2195.00,0.0004
2194.00,0.0004
2193.00,0.0004
2192.00,0.0006
2191.00,0.0007
2190.00,0.0009
2189.00,0.0010
2188.00,0.0010
2187.00,0.0010
2186.00,0.0010
2185.00,0.0010
2184.00,0.0010
2183.00,0.0009
2182.00,0.0007
2181.00,0.0005
2180.00,0.0004
2179.00,0.0004
2178.00,0.0004
2177.00,0.0004
2176.00,0.0004
2175.00,0.0003
2174.00,0.0004
2173.00,0.0006
2172.00,0.0009
2171.00,0.0011
2170.00,0.0014
2169.00,0.0016
2168.00,0.0017
2167.00,0.0017
2166.00,0.0017
2165.00,0.0017
2164.00,0.0018
2163.00,0.0021
2162.00,0.0022
2161.00,0.0018
2160.00,0.0007
2159.00,-0.0009
2158.00,-0.0024
2157.00,-0.0032
2156.00,-0.0033
2155.00,-0.0030
2154.00,-0.0026
2153.00,-0.0023
2152.00,-0.0021
2151.00,-0.0019
2150.00,-0.0018
2149.00,-0.0016
2148.00,-0.0015
2147.00,-0.0014
2146.00,-0.0014
2145.00,-0.0014
2144.00,-0.0015
2143.00,-0.0015
2142.00,-0.0015
2141.00,-0.0015
2140.00,-0.0013
2139.00,-0.0012
2138.00,-0.0012
2137.00,-0.0013
2136.00,-0.0015
2135.00,-0.0016
2134.00,-0.0017
2133.00,-0.0017
2132.00,-0.0017
2131.00,-0.0017
2130.00,-0.0016
2129.00,-0.0014
2128.00,-0.0012
2127.00,-0.0010
2126.00,-0.0008
2125.00,-0.0007
2124.00,-0.0005
2123.00,-0.0004
2122.00,-0.0003
2121.00,-0.0004
2120.00,-0.0004
2119.00,-0.0003
2118.00,-0.0002
2117.00,-0.0001
2116.00,0.0000
2115.00,0.0000
2114.00,0.0000
2113.00,0.0000
2112.00,0.0001
2111.00,0.0001
2110.00,0.0001
2109.00,0.0001
2108.00,0.0001
2107.00,0.0002
2106.00,0.0003
2105.00,0.0003
2104.00,0.0004
2103.00,0.0003
2102.00,0.0004
2101.00,0.0004
2100.00,0.0004
2099.00,0.0003
2098.00,0.0000
2097.00,-0.0002
2096.00,-0.0004
2095.00,-0.0004
2094.00,-0.0004
2093.00,-0.0002
2092.00,-0.0001
2091.00,0.0001
2090.00,0.0002
2089.00,0.0003
2088.00,0.0003
2087.00,0.0003
2086.00,0.0003
2085.00,0.0004
2084.00,0.0004
2083.00,0.0004
2082.00,0.0004
2081.00,0.0003
2080.00,0.0003
2079.00,0.0003
2078.00,0.0003
2077.00,0.0004
2076.00,0.0004
2075.00,0.0003
2074.00,0.0002
2073.00,0.0001
2072.00,0.0000
2071.00,-0.0000
2070.00,-0.0000
2069.00,0.0000
2068.00,0.0001
2067.00,0.0002
2066.00,0.0002
2065.00,0.0000
2064.00,-0.0002
2063.00,-0.0003
2062.00,-0.0004
2061.00,-0.0004
2060.00,-0.0003
2059.00,-0.0003
2058.00,-0.0002
2057.00,-0.0000
2056.00,0.0001
2055.00,0.0002
2054.00,0.0003
2053.00,0.0005
2052.00,0.0008
2051.00,0.0011
2050.00,0.0010
2049.00,0.0007
2048.00,0.0004
2047.00,0.0001
2046.00,-0.0001
2045.00,-0.0001
2044.00,-0.0000
2043.00,-0.0000
2042.00,0.0000
2041.00,0.0002
2040.00,0.0004
2039.00,0.0005
2038.00,0.0004
2037.00,0.0001
2036.00,-0.0002
2035.00,-0.0005
2034.00,-0.0008
2033.00,-0.0010
2032.00,-0.0013
2031.00,-0.0016
2030.00,-0.0017
2029.00,-0.0016
2028.00,-0.0013
2027.00,-0.0009
2026.00,-0.0007
2025.00,-0.0006
2024.00,-0.0006
2023.00,-0.0008
2022.00,-0.0008
2021.00,-0.0009
2020.00,-0.0008
2019.00,-0.0008
2018.00,-0.0006
2017.00,-0.0005
2016.00,-0.0004
2015.00,-0.0005
2014.00,-0.0006
2013.00,-0.0006
2012.00,-0.0006
2011.00,-0.0007
2010.00,-0.0008
2009.00,-0.0009
2008.00,-0.0011
2007.00,-0.0013
2006.00,-0.0014
2005.00,-0.0015
2004.00,-0.0014
2003.00,-0.0013
2002.00,-0.0011
2001.00,-0.0008
2000.00,-0.0007
1999.00,-0.0006
1998.00,-0.0006
1997.00,-0.0006
1996.00,-0.0007
1995.00,-0.0008
1994.00,-0.0008
1993.00,-0.0008
1992.00,-0.0008
1991.00,-0.0009
1990.00,-0.0009
1989.00,-0.0008
1988.00,-0.0005
1987.00,-0.0004
1986.00,-0.0004
1985.00,-0.0004
1984.00,-0.0004
1983.00,-0.0003
1982.00,0.0000
1981.00,0.0004
1980.00,0.0006
1979.00,0.0003
1978.00,-0.0001
1977.00,-0.0006
1976.00,-0.0009
1975.00,-0.0010
1974.00,-0.0011
1973.00,-0.0011
1972.00,-0.0011
1971.00,-0.0011
1970.00,-0.0012
1969.00,-0.0012
1968.00,-0.0010
1967.00,-0.0009
1966.00,-0.0009
1965.00,-0.0009
1964.00,-0.0011
1963.00,-0.0013
1962.00,-0.0015
1961.00,-0.0017
1960.00,-0.0019
1959.00,-0.0020
1958.00,-0.0020
1957.00,-0.0019
1956.00,-0.0018
1955.00,-0.0017
1954.00,-0.0015
1953.00,-0.0013
1952.00,-0.0011
1951.00,-0.0011
1950.00,-0.0013
1949.00,-0.0015
1948.00,-0.0015
1947.00,-0.0015
1946.00,-0.0015
1945.00,-0.0014
1944.00,-0.0013
1943.00,-0.0012
1942.00,-0.0012
1941.00,-0.0012
1940.00,-0.0012
1939.00,-0.0012
1938.00,-0.0012
1937.00,-0.0012
1936.00,-0.0012
1935.00,-0.0012
1934.00,-0.0012
1933.00,-0.0012
1932.00,-0.0013
1931.00,-0.0014
1930.00,-0.0013
1929.00,-0.0012
1928.00,-0.0010
1927.00,-0.0009
1926.00,-0.0008
1925.00,-0.0008
1924.00,-0.0008
1923.00,-0.0007
1922.00,-0.0005
1921.00,-0.0004
1920.00,-0.0003
1919.00,-0.0003
1918.00,-0.0003
1917.00,-0.0002
1916.00,-0.0002
1915.00,-0.0002
1914.00,-0.0003
1913.00,-0.0002
1912.00,-0.0002
1911.00,-0.0002
1910.00,-0.0004
1909.00,-0.0006
1908.00,-0.0007
1907.00,-0.0006
1906.00,-0.0005
1905.00,-0.0003
1904.00,-0.0001
1903.00,-0.0001
1902.00,-0.0001
1901.00,-0.0001
1900.00,-0.0001
1899.00,-0.0001
1898.00,-0.0002
1897.00,-0.0002
1896.00,-0.0001
1895.00,-0.0001
1894.00,-0.0001
1893.00,-0.0001
1892.00,-0.0000
1891.00,0.0000
1890.00,0.0000
1889.00,0.0000
1888.00,0.0000
1887.00,-0.0000
1886.00,-0.0001
1885.00,-0.0001
1884.00,-0.0001
1883.00,-0.0001
1882.00,-0.0000
1881.00,-0.0000
1880.00,-0.0001
1879.00,-0.0001
1878.00,-0.0002
1877.00,-0.0002
1876.00,-0.0001
1875.00,-0.0001
1874.00,-0.0001
1873.00,-0.0001
1872.00,-0.0001
1871.00,-0.0001
1870.00,-0.0000
1869.00,0.0000
1868.00,0.0000
1867.00,-0.0000
1866.00,-0.0001
1865.00,-0.0001
1864.00,-0.0000
1863.00,0.0001
1862.00,0.0001
1861.00,0.0001
1860.00,0.0000
1859.00,-0.0001
1858.00,-0.0001
1857.00,-0.0001
1856.00,-0.0001
1855.00,0.0000
1854.00,0.0001
1853.00,0.0001
1852.00,0.0001
1851.00,0.0001
1850.00,0.0001
1849.00,0.0001
1848.00,0.0002
1847.00,0.0001
1846.00,0.0001
1845.00,0.0002
1844.00,0.0002
1843.00,0.0002
1842.00,0.0001
1841.00,0.0001
1840.00,0.0000
1839.00,0.0000
1838.00,0.0001
1837.00,0.0002
1836.00,0.0002
1835.00,0.0003
1834.00,0.0002
1833.00,0.0002
1832.00,0.0002
1831.00,0.0003
1830.00,0.0003
1829.00,0.0003
1828.00,0.0003
1827.00,0.0003
1826.00,0.0003
1825.00,0.0004
1824.00,0.0004
1823.00,0.0004
1822.00,0.0004
1821.00,0.0004
1820.00,0.0003
1819.00,0.0002
1818.00,0.0000
1817.00,-0.0001
1816.00,-0.0001
1815.00,0.0000
1814.00,0.0001
1813.00,0.0002
1812.00,0.0002
1811.00,0.0003
1810.00,0.0003
1809.00,0.0003
1808.00,0.0003
1807.00,0.0004
1806.00,0.0004
1805.00,0.0004
1804.00,0.0004
1803.00,0.0004
1802.00,0.0005
1801.00,0.0005
1800.00,0.0005
1799.00,0.0005
1798.00,0.0005
1797.00,0.0005
1796.00,0.0005
1795.00,0.0005
1794.00,0.0005
1793.00,0.0005
1792.00,0.0005
1791.00,0.0005
1790.00,0.0006
1789.00,0.0006
1788.00,0.0007
1787.00,0.0008
1786.00,0.0007
1785.00,0.0007
1784.00,0.0006
1783.00,0.0006
1782.00,0.0006
1781.00,0.0006
1780.00,0.0007
1779.00,0.0006
1778.00,0.0006
1777.00,0.0007
1776.00,0.0007
1775.00,0.0007
1774.00,0.0007
1773.00,0.0008
1772.00,0.0008
1771.00,0.0008
1770.00,0.0009
1769.00,0.0009
1768.00,0.0009
1767.00,0.0009
1766.00,0.0008
1765.00,0.0009
1764.00,0.0009
1763.00,0.0010
1762.00,0.0011
1761.00,0.0011
1760.00,0.0011
1759.00,0.0011
1758.00,0.0011
1757.00,0.0012
1756.00,0.0012
1755.00,0.0013
1754.00,0.0013
1753.00,0.0014
1752.00,0.0015
1751.00,0.0015
1750.00,0.0016
1749.00,0.0017
1748.00,0.0018
1747.00,0.0019
1746.00,0.0020
1745.00,0.0022
1744.00,0.0024
1743.00,0.0025
1742.00,0.0026
1741.00,0.0026
1740.00,0.0026
1739.00,0.0026
1738.00,0.0026
1737.00,0.0026
1736.00,0.0027
1735.00,0.0027
1734.00,0.0027
1733.00,0.0027
1732.00,0.0028
1731.00,0.0028
1730.00,0.0028
1729.00,0.0028
1728.00,0.0027
1727.00,0.0027
1726.00,0.0027
1725.00,0.0028
1724.00,0.0028
1723.00,0.0028
1722.00,0.0028
1721.00,0.0028
1720.00,0.0028
1719.00,0.0027
1718.00,0.0026
1717.00,0.0025
1716.00,0.0024
1715.00,0.0023
1714.00,0.0023
1713.00,0.0023
1712.00,0.0023
1711.00,0.0023
1710.00,0.0023
1709.00,0.0023
1708.00,0.0023
1707.00,0.0023
1706.00,0.0022
1705.00,0.0022
1704.00,0.0022
1703.00,0.0022
1702.00,0.0023
1701.00,0.0023
1700.00,0.0024
1699.00,0.0024
1698.00,0.0024
1697.00,0.0025
1696.00,0.0025
1695.00,0.0025
1694.00,0.0025
1693.00,0.0025
1692.00,0.0025
1691.00,0.0026
1690.00,0.0026
1689.00,0.0026
1688.00,0.0027
1687.00,0.0027
1686.00,0.0027
1685.00,0.0028
1684.00,0.0029
1683.00,0.0029
1682.00,0.0029
1681.00,0.0030
1680.00,0.0030
1679.00,0.0030
1678.00,0.0031
1677.00,0.0031
1676.00,0.0031
1675.00,0.0031
1674.00,0.0032
1673.00,0.0032
1672.00,0.0033
1671.00,0.0034
1670.00,0.0034
1669.00,0.0035
1668.00,0.0036
1667.00,0.0036
1666.00,0.0036
1665.00,0.0037
1664.00,0.0037
1663.00,0.0037
1662.00,0.0037
1661.00,0.0037
1660.00,0.0038
1659.00,0.0038
1658.00,0.0038
1657.00,0.0039
1656.00,0.0039
1655.00,0.0039
1654.00,0.0039
1653.00,0.0041
1652.00,0.0042
1651.00,0.0042
1650.00,0.0043
1649.00,0.0044
1648.00,0.0045
1647.00,0.0047
1646.00,0.0047
1645.00,0.0047
1644.00,0.0048
1643.00,0.0048
1642.00,0.0049
1641.00,0.0049
1640.00,0.0050
1639.00,0.0050
1638.00,0.0051
1637.00,0.0052
1636.00,0.0052
1635.00,0.0052
1634.00,0.0050
1633.00,0.0050
1632.00,0.0049
1631.00,0.0049
1630.00,0.0048
1629.00,0.0048
1628.00,0.0048
1627.00,0.0047
1626.00,0.0047
1625.00,0.0046
1624.00,0.0046
1623.00,0.0045
1622.00,0.0045
1621.00,0.0045
1620.00,0.0045
1619.00,0.0045
1618.00,0.0045
1617.00,0.0044
1616.00,0.0044
1615.00,0.0044
1614.00,0.0045
1613.00,0.0045
1612.00,0.0046
1611.00,0.0046
1610.00,0.0046
1609.00,0.0046
1608.00,0.0046
1607.00,0.0045
1606.00,0.0045
1605.00,0.0045
1604.00,0.0045
1603.00,0.0045
1602.00,0.0045
1601.00,0.0045
1600.00,0.0045
1599.00,0.0044
1598.00,0.0044
1597.00,0.0044
1596.00,0.0044
1595.00,0.0045
1594.00,0.0044
1593.00,0.0045
1592.00,0.0045
1591.00,0.0045
1590.00,0.0045
1589.00,0.0045
1588.00,0.0045
1587.00,0.0045
1586.00,0.0045
1585.00,0.0045
1584.00,0.0046
1583.00,0.0046
1582.00,0.0047
1581.00,0.0047
1580.00,0.0047
1579.00,0.0047
1578.00,0.0048
1577.00,0.0048
1576.00,0.0048
1575.00,0.0047
1574.00,0.0047
1573.00,0.0047
1572.00,0.0047
1571.00,0.0048
1570.00,0.0049
1569.00,0.0050
1568.00,0.0050
1567.00,0.0050
1566.00,0.0050
1565.00,0.0050
1564.00,0.0050
1563.00,0.0050
1562.00,0.0050
1561.00,0.0050
1560.00,0.0051
1559.00,0.0050
1558.00,0.0051
1557.00,0.0051
1556.00,0.0052
1555.00,0.0052
1554.00,0.0052
1553.00,0.0052
1552.00,0.0052
1551.00,0.0052
1550.00,0.0053
1549.00,0.0053
1548.00,0.0053
1547.00,0.0054
1546.00,0.0054
1545.00,0.0054
1544.00,0.0054
1543.00,0.0054
1542.00,0.0052
1541.00,0.0051
1540.00,0.0051
1539.00,0.0051
1538.00,0.0050
1537.00,0.0049
1536.00,0.0049
1535.00,0.0049
1534.00,0.0049
1533.00,0.0048
1532.00,0.0048
1531.00,0.0047
1530.00,0.0047
1529.00,0.0047
1528.00,0.0047
1527.00,0.0047
1526.00,0.0046
1525.00,0.0046
1524.00,0.0047
1523.00,0.0047
1522.00,0.0047
1521.00,0.0047
1520.00,0.0048
1519.00,0.0048
1518.00,0.0049
1517.00,0.0050
1516.00,0.0050
1515.00,0.0051
1514.00,0.0051
1513.00,0.0052
1512.00,0.0052
1511.00,0.0053
1510.00,0.0053
1509.00,0.0053
1508.00,0.0054
1507.00,0.0055
1506.00,0.0056
1505.00,0.0057
1504.00,0.0058
1503.00,0.0060
1502.00,0.0062
1501.00,0.0064
1500.00,0.0066
1499.00,0.0068
1498.00,0.0070
1497.00,0.0072
1496.00,0.0075
1495.00,0.0077
1494.00,0.0079
1493.00,0.0082
1492.00,0.0085
1491.00,0.0089
1490.00,0.0092
1489.00,0.0097
1488.00,0.0102
1487.00,0.0106
1486.00,0.0110
1485.00,0.0116
1484.00,0.0122
1483.00,0.0129
1482.00,0.0137
1481.00,0.0147
1480.00,0.0158
1479.00,0.0170
1478.00,0.0186
1477.00,0.0207
1476.00,0.0232
1475.00,0.0262
1474.00,0.0301
1473.00,0.0358
1472.00,0.0426
1471.00,0.0491
1470.00,0.0555
1469.00,0.0621
1468.00,0.0693
1467.00,0.0771
1466.00,0.0859
1465.00,0.0954
1464.00,0.1036
1463.00,0.1093
1462.00,0.1130
1461.00,0.1155
1460.00,0.1172
1459.00,0.1184
1458.00,0.1193
1457.00,0.1201
1456.00,0.1200
1455.00,0.1193
1454.00,0.1181
1453.00,0.1165
1452.00,0.1139
1451.00,0.1102
1450.00,0.1051
1449.00,0.0980
1448.00,0.0891
1447.00,0.0796
1446.00,0.0710
1445.00,0.0635
1444.00,0.0571
1443.00,0.0518
1442.00,0.0477
1441.00,0.0449
1440.00,0.0431
1439.00,0.0423
1438.00,0.0422
1437.00,0.0421
1436.00,0.0410
1435.00,0.0386
1434.00,0.0351
1433.00,0.0309
1432.00,0.0266
1431.00,0.0227
1430.00,0.0197
1429.00,0.0174
1428.00,0.0158
1427.00,0.0148
1426.00,0.0141
1425.00,0.0135
1424.00,0.0129
1423.00,0.0126
1422.00,0.0124
1421.00,0.0122
1420.00,0.0119
1419.00,0.0117
1418.00,0.0115
1417.00,0.0113
1416.00,0.0111
1415.00,0.0110
1414.00,0.0109
1413.00,0.0108
1412.00,0.0106
1411.00,0.0106
1410.00,0.0105
1409.00,0.0105
1408.00,0.0104
1407.00,0.0104
1406.00,0.0105
1405.00,0.0105
1404.00,0.0104
1403.00,0.0105
1402.00,0.0107
1401.00,0.0108
1400.00,0.0108
1399.00,0.0110
1398.00,0.0113
1397.00,0.0115
1396.00,0.0117
1395.00,0.0120
1394.00,0.0125
1393.00,0.0130
1392.00,0.0136
1391.00,0.0143
1390.00,0.0154
1389.00,0.0167
1388.00,0.0188
1387.00,0.0220
1386.00,0.0263
1385.00,0.0320
1384.00,0.0398
1383.00,0.0508
1382.00,0.0655
1381.00,0.0844
1380.00,0.1075
1379.00,0.1336
1378.00,0.1585
1377.00,0.1763
1376.00,0.1818
1375.00,0.1721
1374.00,0.1500
1373.00,0.1238
1372.00,0.0999
1371.00,0.0802
1370.00,0.0647
1369.00,0.0529
1368.00,0.0447
1367.00,0.0396
1366.00,0.0368
1365.00,0.0357
1364.00,0.0359
1363.00,0.0371
1362.00,0.0390
1361.00,0.0411
1360.00,0.0426
1359.00,0.0431
1358.00,0.0421
1357.00,0.0397
1356.00,0.0364
1355.00,0.0326
1354.00,0.0289
1353.00,0.0258
1352.00,0.0232
1351.00,0.0211
1350.00,0.0194
1349.00,0.0180
1348.00,0.0168
1347.00,0.0158
1346.00,0.0149
1345.00,0.0141
1344.00,0.0135
1343.00,0.0130
1342.00,0.0126
1341.00,0.0123
1340.00,0.0120
1339.00,0.0118
1338.00,0.0116
1337.00,0.0116
1336.00,0.0116
1335.00,0.0118
1334.00,0.0121
1333.00,0.0125
1332.00,0.0130
1331.00,0.0133
1330.00,0.0134
1329.00,0.0132
1328.00,0.0129
1327.00,0.0124
1326.00,0.0118
1325.00,0.0113
1324.00,0.0108
1323.00,0.0103
1322.00,0.0099
1321.00,0.0096
1320.00,0.0094
1319.00,0.0092
1318.00,0.0091
1317.00,0.0090
1316.00,0.0089
1315.00,0.0088
1314.00,0.0088
1313.00,0.0089
1312.00,0.0090
1311.00,0.0093
1310.00,0.0098
1309.00,0.0104
1308.00,0.0114
1307.00,0.0125
1306.00,0.0136
1305.00,0.0144
1304.00,0.0146
1303.00,0.0143
1302.00,0.0137
1301.00,0.0131
1300.00,0.0128
1299.00,0.0126
1298.00,0.0126
1297.00,0.0125
1296.00,0.0124
1295.00,0.0122
1294.00,0.0119
1293.00,0.0114
1292.00,0.0109
1291.00,0.0105
1290.00,0.0100
1289.00,0.0096
1288.00,0.0093
1287.00,0.0091
1286.00,0.0088
1285.00,0.0086
1284.00,0.0085
1283.00,0.0084
1282.00,0.0083
1281.00,0.0081
1280.00,0.0080
1279.00,0.0079
1278.00,0.0079
1277.00,0.0079
1276.00,0.0079
1275.00,0.0079
1274.00,0.0079
1273.00,0.0079
1272.00,0.0080
1271.00,0.0081
1270.00,0.0082
1269.00,0.0084
1268.00,0.0086
1267.00,0.0088
1266.00,0.0091
1265.00,0.0094
1264.00,0.0097
1263.00,0.0100
1262.00,0.0104
1261.00,0.0108
1260.00,0.0114
1259.00,0.0121
1258.00,0.0129
1257.00,0.0135
1256.00,0.0138
1255.00,0.0137
1254.00,0.0130
1253.00,0.0122
1252.00,0.0113
1251.00,0.0105
1250.00,0.0100
1249.00,0.0095
1248.00,0.0092
1247.00,0.0090
1246.00,0.0088
1245.00,0.0086
1244.00,0.0085
1243.00,0.0085
1242.00,0.0084
1241.00,0.0083
1240.00,0.0083
1239.00,0.0082
1238.00,0.0081
1237.00,0.0081
1236.00,0.0081
1235.00,0.0081
1234.00,0.0081
1233.00,0.0081
1232.00,0.0081
1231.00,0.0081
1230.00,0.0082
1229.00,0.0083
1228.00,0.0085
1227.00,0.0086
1226.00,0.0089
1225.00,0.0092
1224.00,0.0095
1223.00,0.0098
1222.00,0.0100
1221.00,0.0102
1220.00,0.0103
1219.00,0.0103
1218.00,0.0102
1217.00,0.0100
1216.00,0.0098
1215.00,0.0096
1214.00,0.0093
1213.00,0.0091
1212.00,0.0088
1211.00,0.0086
1210.00,0.0085
1209.00,0.0084
1208.00,0.0083
1207.00,0.0082
1206.00,0.0081
1205.00,0.0081
1204.00,0.0080
1203.00,0.0080
1202.00,0.0079
1201.00,0.0079
1200.00,0.0079
1199.00,0.0079
1198.00,0.0079
1197.00,0.0078
1196.00,0.0078
1195.00,0.0078
1194.00,0.0077
1193.00,0.0076
1192.00,0.0076
1191.00,0.0076
1190.00,0.0076
1189.00,0.0076
1188.00,0.0076
1187.00,0.0076
1186.00,0.0077
1185.00,0.0078
1184.00,0.0080
1183.00,0.0082
1182.00,0.0085
1181.00,0.0088
1180.00,0.0091
1179.00,0.0096
1178.00,0.0102
1177.00,0.0111
1176.00,0.0123
1175.00,0.0139
1174.00,0.0160
1173.00,0.0187
1172.00,0.0219
1171.00,0.0254
1170.00,0.0288
1169.00,0.0315
1168.00,0.0331
1167.00,0.0333
1166.00,0.0323
1165.00,0.0306
1164.00,0.0286
1163.00,0.0267
1162.00,0.0251
1161.00,0.0237
1160.00,0.0227
1159.00,0.0219
1158.00,0.0213
1157.00,0.0209
1156.00,0.0206
1155.00,0.0204
1154.00,0.0202
1153.00,0.0198
1152.00,0.0193
1151.00,0.0186
1150.00,0.0177
1149.00,0.0168
1148.00,0.0157
1147.00,0.0148
1146.00,0.0139
1145.00,0.0131
1144.00,0.0124
1143.00,0.0117
1142.00,0.0110
1141.00,0.0104
1140.00,0.0099
1139.00,0.0095
1138.00,0.0091
1137.00,0.0087
1136.00,0.0083
1135.00,0.0081
1134.00,0.0079
1133.00,0.0078
1132.00,0.0077
1131.00,0.0076
1130.00,0.0075
1129.00,0.0075
1128.00,0.0075
1127.00,0.0076
1126.00,0.0077
1125.00,0.0078
1124.00,0.0079
1123.00,0.0079
1122.00,0.0080
1121.00,0.0080
1120.00,0.0080
1119.00,0.0081
1118.00,0.0082
1117.00,0.0083
1116.00,0.0084
1115.00,0.0085
1114.00,0.0086
1113.00,0.0087
1112.00,0.0089
1111.00,0.0092
1110.00,0.0095
1109.00,0.0099
1108.00,0.0103
1107.00,0.0109
1106.00,0.0115
1105.00,0.0121
1104.00,0.0125
1103.00,0.0128
1102.00,0.0128
1101.00,0.0124
1100.00,0.0119
1099.00,0.0113
1098.00,0.0108
1097.00,0.0103
1096.00,0.0099
1095.00,0.0096
1094.00,0.0093
1093.00,0.0091
1092.00,0.0089
1091.00,0.0087
1090.00,0.0086
1089.00,0.0084
1088.00,0.0084
1087.00,0.0084
1086.00,0.0085
1085.00,0.0085
1084.00,0.0084
1083.00,0.0083
1082.00,0.0082
1081.00,0.0082
1080.00,0.0082
1079.00,0.0082
1078.00,0.0081
1077.00,0.0080
1076.00,0.0078
1075.00,0.0077
1074.00,0.0077
1073.00,0.0077
1072.00,0.0077
1071.00,0.0077
1070.00,0.0078
1069.00,0.0078
1068.00,0.0078
1067.00,0.0078
1066.00,0.0078
1065.00,0.0080
1064.00,0.0081
1063.00,0.0082
1062.00,0.0084
1061.00,0.0085
1060.00,0.0086
1059.00,0.0088
1058.00,0.0089
1057.00,0.0090
1056.00,0.0092
1055.00,0.0094
1054.00,0.0097
1053.00,0.0101
1052.00,0.0105
1051.00,0.0110
1050.00,0.0115
1049.00,0.0119
1048.00,0.0124
1047.00,0.0128
1046.00,0.0132
1045.00,0.0134
1044.00,0.0135
1043.00,0.0135
1042.00,0.0133
1041.00,0.0131
1040.00,0.0129
1039.00,0.0127
1038.00,0.0127
1037.00,0.0126
1036.00,0.0126
1035.00,0.0125
1034.00,0.0124
1033.00,0.0123
1032.00,0.0122
1031.00,0.0121
1030.00,0.0120
1029.00,0.0119
1028.00,0.0119
1027.00,0.0119
1026.00,0.0120
1025.00,0.0122
1024.00,0.0124
1023.00,0.0127
1022.00,0.0130
1021.00,0.0133
1020.00,0.0135
1019.00,0.0137
1018.00,0.0138
1017.00,0.0138
1016.00,0.0137
1015.00,0.0136
1014.00,0.0135
1013.00,0.0134
1012.00,0.0134
1011.00,0.0135
1010.00,0.0136
1009.00,0.0137
1008.00,0.0140
1007.00,0.0145
1006.00,0.0153
1005.00,0.0166
1004.00,0.0183
1003.00,0.0208
1002.00,0.0240
1001.00,0.0279
1000.00,0.0321
999.00,0.0357
998.00,0.0375
997.00,0.0368
996.00,0.0339
995.00,0.0296
994.00,0.0252
993.00,0.0213
992.00,0.0183
991.00,0.0160
990.00,0.0144
989.00,0.0134
988.00,0.0128
987.00,0.0124
986.00,0.0123
985.00,0.0124
984.00,0.0127
983.00,0.0134
982.00,0.0145
981.00,0.0160
980.00,0.0182
979.00,0.0212
978.00,0.0250
977.00,0.0295
976.00,0.0344
975.00,0.0390
974.00,0.0424
973.00,0.0436
972.00,0.0420
971.00,0.0379
970.00,0.0324
969.00,0.0268
968.00,0.0221
967.00,0.0185
966.00,0.0160
965.00,0.0142
964.00,0.0128
963.00,0.0118
962.00,0.0110
961.00,0.0103
960.00,0.0099
959.00,0.0096
958.00,0.0093
957.00,0.0090
956.00,0.0086
955.00,0.0083
954.00,0.0080
953.00,0.0078
952.00,0.0078
951.00,0.0078
950.00,0.0078
949.00,0.0078
948.00,0.0077
947.00,0.0077
946.00,0.0078
945.00,0.0080
944.00,0.0082
943.00,0.0085
942.00,0.0088
941.00,0.0090
940.00,0.0090
939.00,0.0089
938.00,0.0085
937.00,0.0080
936.00,0.0075
935.00,0.0072
934.00,0.0070
933.00,0.0068
932.00,0.0066
931.00,0.0065
930.00,0.0064
929.00,0.0064
928.00,0.0063
927.00,0.0062
926.00,0.0061
925.00,0.0060
924.00,0.0060
923.00,0.0060
922.00,0.0060
921.00,0.0061
920.00,0.0060
919.00,0.0060
918.00,0.0060
917.00,0.0060
916.00,0.0060
915.00,0.0061
914.00,0.0062
913.00,0.0063
912.00,0.0065
911.00,0.0067
910.00,0.0069
909.00,0.0072
908.00,0.0075
907.00,0.0079
906.00,0.0086
905.00,0.0095
904.00,0.0108
903.00,0.0124
902.00,0.0142
901.00,0.0159
900.00,0.0170
899.00,0.0171
898.00,0.0164
897.00,0.0150
896.00,0.0133
895.00,0.0116
894.00,0.0102
893.00,0.0092
892.00,0.0085
891.00,0.0080
890.00,0.0076
889.00,0.0074
888.00,0.0072
887.00,0.0071
886.00,0.0070
885.00,0.0070
884.00,0.0071
883.00,0.0073
882.00,0.0073
881.00,0.0072
880.00,0.0070
879.00,0.0070
878.00,0.0070
877.00,0.0070
876.00,0.0070
875.00,0.0072
874.00,0.0074
873.00,0.0075
872.00,0.0076
871.00,0.0075
870.00,0.0073
869.00,0.0072
868.00,0.0073
867.00,0.0074
866.00,0.0075
865.00,0.0076
864.00,0.0077
863.00,0.0079
862.00,0.0081
861.00,0.0082
860.00,0.0084
859.00,0.0086
858.00,0.0088
857.00,0.0090
856.00,0.0092
855.00,0.0094
854.00,0.0095
853.00,0.0097
852.00,0.0099
851.00,0.0103
850.00,0.0109
849.00,0.0116
848.00,0.0126
847.00,0.0141
846.00,0.0162
845.00,0.0196
844.00,0.0243
843.00,0.0299
842.00,0.0345
841.00,0.0361
840.00,0.0339
839.00,0.0288
838.00,0.0232
837.00,0.0187
836.00,0.0156
835.00,0.0138
834.00,0.0125
833.00,0.0117
832.00,0.0111
831.00,0.0108
830.00,0.0106
829.00,0.0104
828.00,0.0102
827.00,0.0100
826.00,0.0098
825.00,0.0098
824.00,0.0098
823.00,0.0099
822.00,0.0100
821.00,0.0102
820.00,0.0104
819.00,0.0106
818.00,0.0110
817.00,0.0115
816.00,0.0123
815.00,0.0134
814.00,0.0147
813.00,0.0164
812.00,0.0182
811.00,0.0200
810.00,0.0214
809.00,0.0220
808.00,0.0216
807.00,0.0203
806.00,0.0185
805.00,0.0168
804.00,0.0152
803.00,0.0140
802.00,0.0131
801.00,0.0123
800.00,0.0117
799.00,0.0112
798.00,0.0108
797.00,0.0104
796.00,0.0101
795.00,0.0097
794.00,0.0092
793.00,0.0088
792.00,0.0084
791.00,0.0083
790.00,0.0081
789.00,0.0079
788.00,0.0075
787.00,0.0072
786.00,0.0070
785.00,0.0068
784.00,0.0067
783.00,0.0066
782.00,0.0065
781.00,0.0064
780.00,0.0064
779.00,0.0063
778.00,0.0062
777.00,0.0062
776.00,0.0062
775.00,0.0063
774.00,0.0064
773.00,0.0065
772.00,0.0065
771.00,0.0066
770.00,0.0067
769.00,0.0066
768.00,0.0065
767.00,0.0064
766.00,0.0063
765.00,0.0063
764.00,0.0063
763.00,0.0064
762.00,0.0065
761.00,0.0066
760.00,0.0066
759.00,0.0067
758.00,0.0068
757.00,0.0069
756.00,0.0069
755.00,0.0070
754.00,0.0070
753.00,0.0071
752.00,0.0071
751.00,0.0072
750.00,0.0072
749.00,0.0073
748.00,0.0073
747.00,0.0075
746.00,0.0079
745.00,0.0083
744.00,0.0085
743.00,0.0087
742.00,0.0089
741.00,0.0091
740.00,0.0094
739.00,0.0097
738.00,0.0100
737.00,0.0103
736.00,0.0107
735.00,0.0111
734.00,0.0116
733.00,0.0122
732.00,0.0128
731.00,0.0135
730.00,0.0141
729.00,0.0145
728.00,0.0145
727.00,0.0146
726.00,0.0147
725.00,0.0149
724.00,0.0153
723.00,0.0159
722.00,0.0165
721.00,0.0169
720.00,0.0168
719.00,0.0161
718.00,0.0151
717.00,0.0139
716.00,0.0130
715.00,0.0123
714.00,0.0117
713.00,0.0111
712.00,0.0105
711.00,0.0100
710.00,0.0097
709.00,0.0095
708.00,0.0094
707.00,0.0094
706.00,0.0094
705.00,0.0094
704.00,0.0095
703.00,0.0095
702.00,0.0094
701.00,0.0091
700.00,0.0089
699.00,0.0087
698.00,0.0087
697.00,0.0087
696.00,0.0087
695.00,0.0086
694.00,0.0086
693.00,0.0086
692.00,0.0087
691.00,0.0087
690.00,0.0087
689.00,0.0086
688.00,0.0086
687.00,0.0088
686.00,0.0089
685.00,0.0088
684.00,0.0085
683.00,0.0082
682.00,0.0081
681.00,0.0082
680.00,0.0084
679.00,0.0085
678.00,0.0086
677.00,0.0087
676.00,0.0088
675.00,0.0089
674.00,0.0089
673.00,0.0089
672.00,0.0090
671.00,0.0093
670.00,0.0096
669.00,0.0098
668.00,0.0099
667.00,0.0098
666.00,0.0094
665.00,0.0091
664.00,0.0089
663.00,0.0088
662.00,0.0088
661.00,0.0088
660.00,0.0088
659.00,0.0087
658.00,0.0086
657.00,0.0083
656.00,0.0080
655.00,0.0079
654.00,0.0079
653.00,0.0080
652.00,0.0080
651.00,0.0078
650.00,0.0077
649.00,0.0077
648.00,0.0078
647.00,0.0080
646.00,0.0083
645.00,0.0085
644.00,0.0086
643.00,0.0086
642.00,0.0085
641.00,0.0083
640.00,0.0082
639.00,0.0082
638.00,0.0082
637.00,0.0082
636.00,0.0081
635.00,0.0081
634.00,0.0081
633.00,0.0081
632.00,0.0080
631.00,0.0079
630.00,0.0078
629.00,0.0079
628.00,0.0080
627.00,0.0081
626.00,0.0082
625.00,0.0083
624.00,0.0085
623.00,0.0085
622.00,0.0085
621.00,0.0083
620.00,0.0080
619.00,0.0078
618.00,0.0079
617.00,0.0082
616.00,0.0087
615.00,0.0089
614.00,0.0088
613.00,0.0086
612.00,0.0085
611.00,0.0085
610.00,0.0085
609.00,0.0085
608.00,0.0085
607.00,0.0086
606.00,0.0087
605.00,0.0086
604.00,0.0084
603.00,0.0083
602.00,0.0081
601.00,0.0080
600.00,0.0080
599.00,0.0080
598.00,0.0081
597.00,0.0082
596.00,0.0083
595.00,0.0083
594.00,0.0084
593.00,0.0084
592.00,0.0083
591.00,0.0081
590.00,0.0080
589.00,0.0080
588.00,0.0079
587.00,0.0078
586.00,0.0078
585.00,0.0079
584.00,0.0080
583.00,0.0081
582.00,0.0082
581.00,0.0083
580.00,0.0083
579.00,0.0082
578.00,0.0081
577.00,0.0081
576.00,0.0082
575.00,0.0082
574.00,0.0082
573.00,0.0080
572.00,0.0078
571.00,0.0077
570.00,0.0078
569.00,0.0079
568.00,0.0081
567.00,0.0083
566.00,0.0085
565.00,0.0086
564.00,0.0086
563.00,0.0086
562.00,0.0085
561.00,0.0083
560.00,0.0081
559.00,0.0079
558.00,0.0078
557.00,0.0079
556.00,0.0082
555.00,0.0084
554.00,0.0085
553.00,0.0084
552.00,0.0082
551.00,0.0079
550.00,0.0079
549.00,0.0082
548.00,0.0085
547.00,0.0088
546.00,0.0091
545.00,0.0093
544.00,0.0095
543.00,0.0095
542.00,0.0095
541.00,0.0095
540.00,0.0096
539.00,0.0098
538.00,0.0100
537.00,0.0102
536.00,0.0104
535.00,0.0107
534.00,0.0111
533.00,0.0115
532.00,0.0117
531.00,0.0117
530.00,0.0113
529.00,0.0108
528.00,0.0102
527.00,0.0095
526.00,0.0090
525.00,0.0090
524.00,0.0096
523.00,0.0103
522.00,0.0107
521.00,0.0109
520.00,0.0111
519.00,0.0112
518.00,0.0108
517.00,0.0102
516.00,0.0097
515.00,0.0096
514.00,0.0098
513.00,0.0096
512.00,0.0089
511.00,0.0082
510.00,0.0081
509.00,0.0082
508.00,0.0082
507.00,0.0079
506.00,0.0075
505.00,0.0073
504.00,0.0072
503.00,0.0073
502.00,0.0075
501.00,0.0080
500.00,0.0084
499.00,0.0088
498.00,0.0091
497.00,0.0094
496.00,0.0095
495.00,0.0093
494.00,0.0086
493.00,0.0081
492.00,0.0080
491.00,0.0083
490.00,0.0084
489.00,0.0082
488.00,0.0079
487.00,0.0081
486.00,0.0085
485.00,0.0089
484.00,0.0089
483.00,0.0085
482.00,0.0084
481.00,0.0087
480.00,0.0094
479.00,0.0100
478.00,0.0102
477.00,0.0100
476.00,0.0098
475.00,0.0101
474.00,0.0111
473.00,0.0124
472.00,0.0133
471.00,0.0137
470.00,0.0139
469.00,0.0144
468.00,0.0149
467.00,0.0154
466.00,0.0156
465.00,0.0156
464.00,0.0160
463.00,0.0171
462.00,0.0188
461.00,0.0204
460.00,0.0213
459.00,0.0211
458.00,0.0202
457.00,0.0196
456.00,0.0196
455.00,0.0197
454.00,0.0194
453.00,0.0185
452.00,0.0176
451.00,0.0167
450.00,0.0157
