Created as New Dataset,Sample 042 By Administrator Date Thursday, September 04 2025
cm-1,A
4000.00,0.0009
3999.00,0.0009
3998.00,0.0009
3997.00,0.0009
3996.00,0.0009
3995.00,0.0010
3994.00,0.0010
3993.00,0.0010
3992.00,0.0010
3991.00,0.0010
3990.00,0.0010
3989.00,0.0011
3988.00,0.0010
3987.00,0.0010
3986.00,0.0010
3985.00,0.0010
3984.00,0.0010
3983.00,0.0010
3982.00,0.0009
3981.00,0.0009
3980.00,0.0009
3979.00,0.0009
3978.00,0.0009
3977.00,0.0009
3976.00,0.0009
3975.00,0.0009
3974.00,0.0009
3973.00,0.0008
3972.00,0.0008
3971.00,0.0008
3970.00,0.0008
3969.00,0.0008
3968.00,0.0008
3967.00,0.0008
3966.00,0.0008
3965.00,0.0008
3964.00,0.0008
3963.00,0.0008
3962.00,0.0008
3961.00,0.0008
3960.00,0.0008
3959.00,0.0008
3958.00,0.0008
3957.00,0.0008
3956.00,0.0008
3955.00,0.0008
3954.00,0.0008
3953.00,0.0009
3952.00,0.0009
3951.00,0.0009
3950.00,0.0008
3949.00,0.0008
3948.00,0.0008
3947.00,0.0008
3946.00,0.0008
3945.00,0.0007
3944.00,0.0007
3943.00,0.0007
3942.00,0.0007
3941.00,0.0008
3940.00,0.0008
3939.00,0.0008
3938.00,0.0008
3937.00,0.0008
3936.00,0.0008
3935.00,0.0008
3934.00,0.0008
3933.00,0.0008
3932.00,0.0008
3931.00,0.0008
3930.00,0.0008
3929.00,0.0008
3928.00,0.0008
3927.00,0.0008
3926.00,0.0008
3925.00,0.0009
3924.00,0.0008
3923.00,0.0008
3922.00,0.0008
3921.00,0.0008
3920.00,0.0008
3919.00,0.0008
3918.00,0.0008
3917.00,0.0008
3916.00,0.0008
3915.00,0.0008
3914.00,0.0008
3913.00,0.0008
3912.00,0.0008
3911.00,0.0007
3910.00,0.0007
3909.00,0.0007
3908.00,0.0007
3907.00,0.0007
3906.00,0.0007
3905.00,0.0007
3904.00,0.0006
3903.00,0.0006
3902.00,0.0007
3901.00,0.0007
3900.00,0.0007
3899.00,0.0008
3898.00,0.0008
3897.00,0.0008
3896.00,0.0007
3895.00,0.0007
3894.00,0.0007
3893.00,0.0007
3892.00,0.0007
3891.00,0.0007
3890.00,0.0007
3889.00,0.0007
3888.00,0.0007
3887.00,0.0007
3886.00,0.0007
3885.00,0.0007
3884.00,0.0007
3883.00,0.0007
3882.00,0.0007
3881.00,0.0007
3880.00,0.0007
3879.00,0.0008
3878.00,0.0008
3877.00,0.0008
3876.00,0.0008
3875.00,0.0007
3874.00,0.0007
3873.00,0.0007
3872.00,0.0007
3871.00,0.0007
3870.00,0.0007
3869.00,0.0007
3868.00,0.0007
3867.00,0.0007
3866.00,0.0007
3865.00,0.0008
3864.00,0.0008
3863.00,0.0007
3862.00,0.0007
3861.00,0.0006
3860.00,0.0006
3859.00,0.0006
3858.00,0.0006
3857.00,0.0006
3856.00,0.0006
3855.00,0.0005
3854.00,0.0006
3853.00,0.0006
3852.00,0.0006
3851.00,0.0006
3850.00,0.0006
3849.00,0.0006
3848.00,0.0006
3847.00,0.0007
3846.00,0.0007
3845.00,0.0007
3844.00,0.0007
3843.00,0.0008
3842.00,0.0008
3841.00,0.0007
3840.00,0.0007
3839.00,0.0006
3838.00,0.0006
3837.00,0.0006
3836.00,0.0006
3835.00,0.0006
3834.00,0.0006
3833.00,0.0006
3832.00,0.0006
3831.00,0.0007
3830.00,0.0007
3829.00,0.0007
3828.00,0.0007
3827.00,0.0007
3826.00,0.0007
3825.00,0.0007
3824.00,0.0006
3823.00,0.0007
3822.00,0.0007
3821.00,0.0007
3820.00,0.0007
3819.00,0.0007
3818.00,0.0007
3817.00,0.0007
3816.00,0.0007
3815.00,0.0007
3814.00,0.0007
3813.00,0.0007
3812.00,0.0007
3811.00,0.0008
3810.00,0.0008
3809.00,0.0008
3808.00,0.0008
3807.00,0.0007
3806.00,0.0007
3805.00,0.0007
3804.00,0.0006
3803.00,0.0006
3802.00,0.0005
3801.00,0.0005
3800.00,0.0006
3799.00,0.0006
3798.00,0.0006
3797.00,0.0007
3796.00,0.0007
3795.00,0.0007
3794.00,0.0007
3793.00,0.0007
3792.00,0.0008
3791.00,0.0008
3790.00,0.0008
3789.00,0.0009
3788.00,0.0008
3787.00,0.0008
3786.00,0.0008
3785.00,0.0008
3784.00,0.0008
3783.00,0.0008
3782.00,0.0008
3781.00,0.0008
3780.00,0.0008
3779.00,0.0008
3778.00,0.0008
3777.00,0.0008
3776.00,0.0009
3775.00,0.0009
3774.00,0.0009
3773.00,0.0009
3772.00,0.0008
3771.00,0.0008
3770.00,0.0008
3769.00,0.0008
3768.00,0.0008
3767.00,0.0008
3766.00,0.0008
3765.00,0.0008
3764.00,0.0008
3763.00,0.0008
3762.00,0.0008
3761.00,0.0008
3760.00,0.0008
3759.00,0.0008
3758.00,0.0008
3757.00,0.0008
3756.00,0.0007
3755.00,0.0008
3754.00,0.0008
3753.00,0.0008
3752.00,0.0007
3751.00,0.0006
3750.00,0.0005
3749.00,0.0004
3748.00,0.0004
3747.00,0.0005
3746.00,0.0005
3745.00,0.0006
3744.00,0.0006
3743.00,0.0006
3742.00,0.0005
3741.00,0.0005
3740.00,0.0005
3739.00,0.0005
3738.00,0.0005
3737.00,0.0005
3736.00,0.0005
3735.00,0.0005
3734.00,0.0005
3733.00,0.0005
3732.00,0.0005
3731.00,0.0005
3730.00,0.0005
3729.00,0.0006
3728.00,0.0006
3727.00,0.0005
3726.00,0.0005
3725.00,0.0005
3724.00,0.0005
3723.00,0.0005
3722.00,0.0005
3721.00,0.0006
3720.00,0.0006
3719.00,0.0006
3718.00,0.0007
3717.00,0.0007
3716.00,0.0007
3715.00,0.0006
3714.00,0.0006
3713.00,0.0006
3712.00,0.0006
3711.00,0.0006
3710.00,0.0006
3709.00,0.0006
3708.00,0.0006
3707.00,0.0006
3706.00,0.0006
3705.00,0.0006
3704.00,0.0005
3703.00,0.0005
3702.00,0.0006
3701.00,0.0006
3700.00,0.0006
3699.00,0.0006
3698.00,0.0006
3697.00,0.0006
3696.00,0.0006
3695.00,0.0006
3694.00,0.0006
3693.00,0.0006
3692.00,0.0006
3691.00,0.0006
3690.00,0.0006
3689.00,0.0006
3688.00,0.0006
3687.00,0.0005
3686.00,0.0005
3685.00,0.0005
3684.00,0.0005
3683.00,0.0005
3682.00,0.0006
3681.00,0.0006
3680.00,0.0006
3679.00,0.0006
3678.00,0.0006
3677.00,0.0006
3676.00,0.0006
3675.00,0.0006
3674.00,0.0005
3673.00,0.0004
3672.00,0.0004
3671.00,0.0004
3670.00,0.0004
3669.00,0.0005
3668.00,0.0005
3667.00,0.0005
3666.00,0.0005
3665.00,0.0005
3664.00,0.0005
3663.00,0.0005
3662.00,0.0005
3661.00,0.0006
3660.00,0.0006
3659.00,0.0006
3658.00,0.0005
3657.00,0.0005
3656.00,0.0004
3655.00,0.0004
3654.00,0.0003
3653.00,0.0004
3652.00,0.0004
3651.00,0.0004
3650.00,0.0004
3649.00,0.0004
3648.00,0.0004
3647.00,0.0004
3646.00,0.0005
3645.00,0.0005
3644.00,0.0005
3643.00,0.0005
3642.00,0.0005
3641.00,0.0005
3640.00,0.0005
3639.00,0.0005
3638.00,0.0005
3637.00,0.0005
3636.00,0.0004
3635.00,0.0005
3634.00,0.0005
3633.00,0.0005
3632.00,0.0004
3631.00,0.0004
3630.00,0.0004
3629.00,0.0004
3628.00,0.0004
3627.00,0.0004
3626.00,0.0005
3625.00,0.0005
3624.00,0.0005
3623.00,0.0006
3622.00,0.0006
3621.00,0.0006
3620.00,0.0006
3619.00,0.0006
3618.00,0.0005
3617.00,0.0005
3616.00,0.0005
3615.00,0.0005
3614.00,0.0005
3613.00,0.0005
3612.00,0.0005
3611.00,0.0006
3610.00,0.0006
3609.00,0.0006
3608.00,0.0006
3607.00,0.0006
3606.00,0.0006
3605.00,0.0006
3604.00,0.0006
3603.00,0.0007
3602.00,0.0007
3601.00,0.0007
3600.00,0.0007
3599.00,0.0007
3598.00,0.0007
3597.00,0.0006
3596.00,0.0006
3595.00,0.0006
3594.00,0.0006
3593.00,0.0006
3592.00,0.0007
3591.00,0.0007
3590.00,0.0006
3589.00,0.0006
3588.00,0.0006
3587.00,0.0006
3586.00,0.0007
3585.00,0.0007
3584.00,0.0008
3583.00,0.0008
3582.00,0.0008
3581.00,0.0008
3580.00,0.0009
3579.00,0.0009
3578.00,0.0009
3577.00,0.0009
3576.00,0.0009
3575.00,0.0009
3574.00,0.0009
3573.00,0.0009
3572.00,0.0009
3571.00,0.0009
3570.00,0.0008
3569.00,0.0008
3568.00,0.0008
3567.00,0.0009
3566.00,0.0009
3565.00,0.0010
3564.00,0.0010
3563.00,0.0010
3562.00,0.0010
3561.00,0.0010
3560.00,0.0011
3559.00,0.0011
3558.00,0.0011
3557.00,0.0011
3556.00,0.0011
3555.00,0.0011
3554.00,0.0011
3553.00,0.0011
3552.00,0.0012
3551.00,0.0012
3550.00,0.0012
3549.00,0.0012
3548.00,0.0012
3547.00,0.0012
3546.00,0.0012
3545.00,0.0013
3544.00,0.0013
3543.00,0.0013
3542.00,0.0013
3541.00,0.0014
3540.00,0.0014
3539.00,0.0014
3538.00,0.0014
3537.00,0.0014
3536.00,0.0014
3535.00,0.0014
3534.00,0.0014
3533.00,0.0014
3532.00,0.0014
3531.00,0.0014
3530.00,0.0014
3529.00,0.0014
3528.00,0.0015
3527.00,0.0015
3526.00,0.0016
3525.00,0.0016
3524.00,0.0016
3523.00,0.0016
3522.00,0.0016
3521.00,0.0016
3520.00,0.0016
3519.00,0.0017
3518.00,0.0017
3517.00,0.0018
3516.00,0.0018
3515.00,0.0017
3514.00,0.0017
3513.00,0.0017
3512.00,0.0017
3511.00,0.0018
3510.00,0.0018
3509.00,0.0018
3508.00,0.0018
3507.00,0.0018
3506.00,0.0018
3505.00,0.0018
3504.00,0.0018
3503.00,0.0018
3502.00,0.0018
3501.00,0.0019
3500.00,0.0019
3499.00,0.0019
3498.00,0.0019
3497.00,0.0019
3496.00,0.0019
3495.00,0.0020
3494.00,0.0020
3493.00,0.0020
3492.00,0.0020
3491.00,0.0020
3490.00,0.0021
3489.00,0.0021
3488.00,0.0021
3487.00,0.0021
3486.00,0.0021
3485.00,0.0021
3484.00,0.0021
3483.00,0.0022
3482.00,0.0022
3481.00,0.0022
3480.00,0.0022
3479.00,0.0022
3478.00,0.0022
3477.00,0.0022
3476.00,0.0022
3475.00,0.0022
3474.00,0.0023
3473.00,0.0023
3472.00,0.0023
3471.00,0.0023
3470.00,0.0023
3469.00,0.0023
3468.00,0.0023
3467.00,0.0023
3466.00,0.0024
3465.00,0.0024
3464.00,0.0024
3463.00,0.0025
3462.00,0.0025
3461.00,0.0025
3460.00,0.0025
3459.00,0.0024
3458.00,0.0024
3457.00,0.0024
3456.00,0.0024
3455.00,0.0024
3454.00,0.0025
3453.00,0.0025
3452.00,0.0025
3451.00,0.0026
3450.00,0.0026
3449.00,0.0027
3448.00,0.0027
3447.00,0.0027
3446.00,0.0027
3445.00,0.0027
3444.00,0.0027
3443.00,0.0027
3442.00,0.0027
3441.00,0.0027
3440.00,0.0027
3439.00,0.0027
3438.00,0.0027
3437.00,0.0027
3436.00,0.0028
3435.00,0.0028
3434.00,0.0028
3433.00,0.0029
3432.00,0.0030
3431.00,0.0030
3430.00,0.0031
3429.00,0.0031
3428.00,0.0030
3427.00,0.0030
3426.00,0.0030
3425.00,0.0030
3424.00,0.0030
3423.00,0.0031
3422.00,0.0031
3421.00,0.0032
3420.00,0.0032
3419.00,0.0032
3418.00,0.0032
3417.00,0.0032
3416.00,0.0032
3415.00,0.0031
3414.00,0.0031
3413.00,0.0031
3412.00,0.0031
3411.00,0.0031
3410.00,0.0032
3409.00,0.0032
3408.00,0.0032
3407.00,0.0032
3406.00,0.0032
3405.00,0.0033
3404.00,0.0034
3403.00,0.0034
3402.00,0.0034
3401.00,0.0034
3400.00,0.0033
3399.00,0.0033
3398.00,0.0033
3397.00,0.0033
3396.00,0.0033
3395.00,0.0033
3394.00,0.0033
3393.00,0.0033
3392.00,0.0033
3391.00,0.0034
3390.00,0.0034
3389.00,0.0034
3388.00,0.0035
3387.00,0.0035
3386.00,0.0035
3385.00,0.0035
3384.00,0.0035
3383.00,0.0034
3382.00,0.0034
3381.00,0.0034
3380.00,0.0034
3379.00,0.0034
3378.00,0.0034
3377.00,0.0034
3376.00,0.0034
3375.00,0.0034
3374.00,0.0034
3373.00,0.0034
3372.00,0.0034
3371.00,0.0035
3370.00,0.0036
3369.00,0.0036
3368.00,0.0036
3367.00,0.0036
3366.00,0.0036
3365.00,0.0036
3364.00,0.0036
3363.00,0.0036
3362.00,0.0037
3361.00,0.0037
3360.00,0.0037
3359.00,0.0036
3358.00,0.0036
3357.00,0.0036
3356.00,0.0036
3355.00,0.0036
3354.00,0.0036
3353.00,0.0036
3352.00,0.0036
3351.00,0.0037
3350.00,0.0037
3349.00,0.0037
3348.00,0.0038
3347.00,0.0038
3346.00,0.0038
3345.00,0.0038
3344.00,0.0037
3343.00,0.0037
3342.00,0.0038
3341.00,0.0038
3340.00,0.0038
3339.00,0.0038
3338.00,0.0038
3337.00,0.0037
3336.00,0.0037
3335.00,0.0037
3334.00,0.0037
3333.00,0.0037
3332.00,0.0037
3331.00,0.0037
3330.00,0.0037
3329.00,0.0037
3328.00,0.0037
3327.00,0.0036
3326.00,0.0036
3325.00,0.0036
3324.00,0.0036
3323.00,0.0036
3322.00,0.0037
3321.00,0.0037
3320.00,0.0037
3319.00,0.0037
3318.00,0.0037
3317.00,0.0037
3316.00,0.0036
3315.00,0.0037
3314.00,0.0037
3313.00,0.0038
3312.00,0.0038
3311.00,0.0038
3310.00,0.0038
3309.00,0.0038
3308.00,0.0039
3307.00,0.0039
3306.00,0.0040
3305.00,0.0040
3304.00,0.0040
3303.00,0.0040
3302.00,0.0040
3301.00,0.0040
3300.00,0.0040
3299.00,0.0039
3298.00,0.0039
3297.00,0.0038
3296.00,0.0038
3295.00,0.0038
3294.00,0.0037
3293.00,0.0037
3292.00,0.0037
3291.00,0.0037
3290.00,0.0036
3289.00,0.0036
3288.00,0.0036
3287.00,0.0036
3286.00,0.0036
3285.00,0.0036
3284.00,0.0035
3283.00,0.0035
3282.00,0.0035
3281.00,0.0035
3280.00,0.0035
3279.00,0.0035
3278.00,0.0035
3277.00,0.0035
3276.00,0.0034
3275.00,0.0034
3274.00,0.0034
3273.00,0.0033
3272.00,0.0033
3271.00,0.0033
3270.00,0.0033
3269.00,0.0033
3268.00,0.0033
3267.00,0.0033
3266.00,0.0033
3265.00,0.0033
3264.00,0.0033
3263.00,0.0033
3262.00,0.0033
3261.00,0.0033
3260.00,0.0033
3259.00,0.0033
3258.00,0.0032
3257.00,0.0032
3256.00,0.0032
3255.00,0.0032
3254.00,0.0032
3253.00,0.0031
3252.00,0.0031
3251.00,0.0031
3250.00,0.0031
3249.00,0.0031
3248.00,0.0031
3247.00,0.0031
3246.00,0.0031
3245.00,0.0031
3244.00,0.0031
3243.00,0.0031
3242.00,0.0031
3241.00,0.0031
3240.00,0.0031
3239.00,0.0031
3238.00,0.0031
3237.00,0.0031
3236.00,0.0031
3235.00,0.0031
3234.00,0.0031
3233.00,0.0031
3232.00,0.0031
3231.00,0.0031
3230.00,0.0031
3229.00,0.0031
3228.00,0.0031
3227.00,0.0032
3226.00,0.0032
3225.00,0.0032
3224.00,0.0032
3223.00,0.0033
3222.00,0.0033
3221.00,0.0033
3220.00,0.0033
3219.00,0.0034
3218.00,0.0034
3217.00,0.0034
3216.00,0.0034
3215.00,0.0034
3214.00,0.0034
3213.00,0.0034
3212.00,0.0035
3211.00,0.0035
3210.00,0.0035
3209.00,0.0036
3208.00,0.0035
3207.00,0.0035
3206.00,0.0035
3205.00,0.0035
3204.00,0.0036
3203.00,0.0036
3202.00,0.0037
3201.00,0.0037
3200.00,0.0037
3199.00,0.0037
3198.00,0.0037
3197.00,0.0037
3196.00,0.0037
3195.00,0.0037
3194.00,0.0037
3193.00,0.0037
3192.00,0.0037
3191.00,0.0036
3190.00,0.0036
3189.00,0.0036
3188.00,0.0036
3187.00,0.0036
3186.00,0.0036
3185.00,0.0036
3184.00,0.0036
3183.00,0.0035
3182.00,0.0035
3181.00,0.0034
3180.00,0.0034
3179.00,0.0034
3178.00,0.0034
3177.00,0.0035
3176.00,0.0035
3175.00,0.0035
3174.00,0.0035
3173.00,0.0035
3172.00,0.0034
3171.00,0.0034
3170.00,0.0034
3169.00,0.0033
3168.00,0.0033
3167.00,0.0033
3166.00,0.0033
3165.00,0.0033
3164.00,0.0034
3163.00,0.0034
3162.00,0.0034
3161.00,0.0033
3160.00,0.0033
3159.00,0.0033
3158.00,0.0033
3157.00,0.0033
3156.00,0.0033
3155.00,0.0033
3154.00,0.0033
3153.00,0.0033
3152.00,0.0033
3151.00,0.0033
3150.00,0.0033
3149.00,0.0032
3148.00,0.0032
3147.00,0.0033
3146.00,0.0033
3145.00,0.0033
3144.00,0.0033
3143.00,0.0033
3142.00,0.0033
3141.00,0.0033
3140.00,0.0033
3139.00,0.0033
3138.00,0.0033
3137.00,0.0033
3136.00,0.0033
3135.00,0.0032
3134.00,0.0032
3133.00,0.0031
3132.00,0.0031
3131.00,0.0030
3130.00,0.0030
3129.00,0.0031
3128.00,0.0031
3127.00,0.0031
3126.00,0.0031
3125.00,0.0031
3124.00,0.0030
3123.00,0.0030
3122.00,0.0029
3121.00,0.0029
3120.00,0.0029
3119.00,0.0028
3118.00,0.0028
3117.00,0.0028
3116.00,0.0028
3115.00,0.0029
3114.00,0.0029
3113.00,0.0029
3112.00,0.0028
3111.00,0.0028
3110.00,0.0027
3109.00,0.0027
3108.00,0.0027
3107.00,0.0027
3106.00,0.0027
3105.00,0.0027
3104.00,0.0027
3103.00,0.0027
3102.00,0.0027
3101.00,0.0027
3100.00,0.0027
3099.00,0.0027
3098.00,0.0027
3097.00,0.0027
3096.00,0.0027
3095.00,0.0027
3094.00,0.0027
3093.00,0.0027
3092.00,0.0027
3091.00,0.0027
3090.00,0.0027
3089.00,0.0027
3088.00,0.0027
3087.00,0.0026
3086.00,0.0026
3085.00,0.0026
3084.00,0.0026
3083.00,0.0026
3082.00,0.0026
3081.00,0.0026
3080.00,0.0027
3079.00,0.0027
3078.00,0.0027
3077.00,0.0027
3076.00,0.0027
3075.00,0.0027
3074.00,0.0027
3073.00,0.0027
3072.00,0.0027
3071.00,0.0027
3070.00,0.0027
3069.00,0.0028
3068.00,0.0028
3067.00,0.0028
3066.00,0.0028
3065.00,0.0028
3064.00,0.0029
3063.00,0.0029
3062.00,0.0029
3061.00,0.0030
3060.00,0.0030
3059.00,0.0030
3058.00,0.0030
3057.00,0.0029
3056.00,0.0029
3055.00,0.0030
3054.00,0.0030
3053.00,0.0030
3052.00,0.0030
3051.00,0.0030
3050.00,0.0031
3049.00,0.0031
3048.00,0.0031
3047.00,0.0031
3046.00,0.0032
3045.00,0.0032
3044.00,0.0032
3043.00,0.0032
3042.00,0.0032
3041.00,0.0032
3040.00,0.0033
3039.00,0.0034
3038.00,0.0034
3037.00,0.0034
3036.00,0.0034
3035.00,0.0034
3034.00,0.0035
3033.00,0.0035
3032.00,0.0035
3031.00,0.0035
3030.00,0.0036
3029.00,0.0036
3028.00,0.0037
3027.00,0.0038
3026.00,0.0038
3025.00,0.0039
3024.00,0.0040
3023.00,0.0041
3022.00,0.0042
3021.00,0.0042
3020.00,0.0043
3019.00,0.0044
3018.00,0.0045
3017.00,0.0045
3016.00,0.0046
3015.00,0.0047
3014.00,0.0049
3013.00,0.0050
3012.00,0.0051
3011.00,0.0052
3010.00,0.0053
3009.00,0.0054
3008.00,0.0056
3007.00,0.0057
3006.00,0.0059
3005.00,0.0060
3004.00,0.0062
3003.00,0.0064
3002.00,0.0066
3001.00,0.0068
3000.00,0.0071
2999.00,0.0074
2998.00,0.0076
2997.00,0.0080
2996.00,0.0083
2995.00,0.0087
2994.00,0.0091
2993.00,0.0096
2992.00,0.0101
2991.00,0.0107
2990.00,0.0114
2989.00,0.0121
2988.00,0.0129
2987.00,0.0137
2986.00,0.0146
2985.00,0.0157
2984.00,0.0168
2983.00,0.0182
2982.00,0.0197
2981.00,0.0215
2980.00,0.0235
2979.00,0.0258
2978.00,0.0285
2977.00,0.0315
2976.00,0.0349
2975.00,0.0388
2974.00,0.0433
2973.00,0.0484
2972.00,0.0542
2971.00,0.0607
2970.00,0.0680
2969.00,0.0761
2968.00,0.0849
2967.00,0.0944
2966.00,0.1044
2965.00,0.1147
2964.00,0.1249
2963.00,0.1346
2962.00,0.1431
2961.00,0.1501
2960.00,0.1556
2959.00,0.1597
2958.00,0.1630
2957.00,0.1662
2956.00,0.1699
2955.00,0.1745
2954.00,0.1799
2953.00,0.1855
2952.00,0.1904
2951.00,0.1933
2950.00,0.1932
2949.00,0.1894
2948.00,0.1818
2947.00,0.1713
2946.00,0.1589
2945.00,0.1460
2944.00,0.1339
2943.00,0.1236
2942.00,0.1157
2941.00,0.1102
2940.00,0.1071
2939.00,0.1062
2938.00,0.1073
2937.00,0.1102
2936.00,0.1146
2935.00,0.1206
2934.00,0.1278
2933.00,0.1362
2932.00,0.1458
2931.00,0.1561
2930.00,0.1671
2929.00,0.1784
2928.00,0.1896
2927.00,0.2005
2926.00,0.2109
2925.00,0.2209
2924.00,0.2306
2923.00,0.2400
2922.00,0.2492
2921.00,0.2579
2920.00,0.2653
2919.00,0.2706
2918.00,0.2728
2917.00,0.2715
2916.00,0.2666
2915.00,0.2587
2914.00,0.2491
2913.00,0.2389
2912.00,0.2291
2911.00,0.2201
2910.00,0.2123
2909.00,0.2055
2908.00,0.1992
2907.00,0.1932
2906.00,0.1872
2905.00,0.1809
2904.00,0.1743
2903.00,0.1676
2902.00,0.1608
2901.00,0.1541
2900.00,0.1475
2899.00,0.1413
2898.00,0.1355
2897.00,0.1301
2896.00,0.1253
2895.00,0.1211
2894.00,0.1174
2893.00,0.1145
2892.00,0.1121
2891.00,0.1103
2890.00,0.1090
2889.00,0.1081
2888.00,0.1076
2887.00,0.1074
2886.00,0.1075
2885.00,0.1080
2884.00,0.1089
2883.00,0.1103
2882.00,0.1120
2881.00,0.1139
2880.00,0.1158
2879.00,0.1173
2878.00,0.1182
2877.00,0.1182
2876.00,0.1177
2875.00,0.1170
2874.00,0.1164
2873.00,0.1164
2872.00,0.1172
2871.00,0.1186
2870.00,0.1204
2869.00,0.1222
2868.00,0.1231
2867.00,0.1226
2866.00,0.1200
2865.00,0.1153
2864.00,0.1087
2863.00,0.1013
2862.00,0.0940
2861.00,0.0876
2860.00,0.0826
2859.00,0.0793
2858.00,0.0774
2857.00,0.0766
2856.00,0.0769
2855.00,0.0779
2854.00,0.0795
2853.00,0.0814
2852.00,0.0834
2851.00,0.0853
2850.00,0.0869
2849.00,0.0882
2848.00,0.0895
2847.00,0.0913
2846.00,0.0940
2845.00,0.0977
2844.00,0.1025
2843.00,0.1080
2842.00,0.1138
2841.00,0.1191
2840.00,0.1232
2839.00,0.1253
2838.00,0.1246
2837.00,0.1208
2836.00,0.1140
2835.00,0.1048
2834.00,0.0942
2833.00,0.0832
2832.00,0.0729
2831.00,0.0637
2830.00,0.0560
2829.00,0.0496
2828.00,0.0444
2827.00,0.0402
2826.00,0.0368
2825.00,0.0340
2824.00,0.0316
2823.00,0.0296
2822.00,0.0279
2821.00,0.0263
2820.00,0.0250
2819.00,0.0239
2818.00,0.0229
2817.00,0.0220
2816.00,0.0212
2815.00,0.0205
2814.00,0.0199
2813.00,0.0193
2812.00,0.0187
2811.00,0.0182
2810.00,0.0176
2809.00,0.0170
2808.00,0.0164
2807.00,0.0158
2806.00,0.0151
2805.00,0.0145
2804.00,0.0139
2803.00,0.0133
2802.00,0.0128
2801.00,0.0124
2800.00,0.0120
2799.00,0.0117
2798.00,0.0114
2797.00,0.0112
2796.00,0.0109
2795.00,0.0107
2794.00,0.0104
2793.00,0.0102
2792.00,0.0098
2791.00,0.0095
2790.00,0.0092
2789.00,0.0089
2788.00,0.0086
2787.00,0.0083
2786.00,0.0080
2785.00,0.0077
2784.00,0.0075
2783.00,0.0072
2782.00,0.0070
2781.00,0.0068
2780.00,0.0066
2779.00,0.0064
2778.00,0.0063
2777.00,0.0061
2776.00,0.0060
2775.00,0.0059
2774.00,0.0058
2773.00,0.0057
2772.00,0.0057
2771.00,0.0056
2770.00,0.0056
2769.00,0.0056
2768.00,0.0056
2767.00,0.0055
2766.00,0.0055
2765.00,0.0055
2764.00,0.0054
2763.00,0.0054
2762.00,0.0053
2761.00,0.0053
2760.00,0.0053
2759.00,0.0053
2758.00,0.0052
2757.00,0.0052
2756.00,0.0052
2755.00,0.0052
2754.00,0.0051
2753.00,0.0051
2752.00,0.0051
2751.00,0.0051
2750.00,0.0051
2749.00,0.0051
2748.00,0.0051
2747.00,0.0051
2746.00,0.0052
2745.00,0.0052
2744.00,0.0053
2743.00,0.0054
2742.00,0.0055
2741.00,0.0056
2740.00,0.0057
2739.00,0.0059
2738.00,0.0060
2737.00,0.0061
2736.00,0.0062
2735.00,0.0063
2734.00,0.0065
2733.00,0.0066
2732.00,0.0068
2731.00,0.0070
2730.00,0.0072
2729.00,0.0075
2728.00,0.0077
2727.00,0.0080
2726.00,0.0083
2725.00,0.0085
2724.00,0.0087
2723.00,0.0087
2722.00,0.0086
2721.00,0.0084
2720.00,0.0082
2719.00,0.0079
2718.00,0.0075
2717.00,0.0072
2716.00,0.0069
2715.00,0.0066
2714.00,0.0064
2713.00,0.0061
2712.00,0.0059
2711.00,0.0058
2710.00,0.0057
2709.00,0.0056
2708.00,0.0055
2707.00,0.0053
2706.00,0.0052
2705.00,0.0051
2704.00,0.0049
2703.00,0.0048
2702.00,0.0047
2701.00,0.0046
2700.00,0.0046
2699.00,0.0046
2698.00,0.0046
2697.00,0.0046
2696.00,0.0046
2695.00,0.0046
2694.00,0.0046
2693.00,0.0046
2692.00,0.0045
2691.00,0.0045
2690.00,0.0045
2689.00,0.0045
2688.00,0.0045
2687.00,0.0045
2686.00,0.0045
2685.00,0.0045
2684.00,0.0045
2683.00,0.0045
2682.00,0.0045
2681.00,0.0045
2680.00,0.0045
2679.00,0.0045
2678.00,0.0045
2677.00,0.0045
2676.00,0.0046
2675.00,0.0046
2674.00,0.0046
2673.00,0.0046
2672.00,0.0046
2671.00,0.0045
2670.00,0.0045
2669.00,0.0045
2668.00,0.0044
2667.00,0.0044
2666.00,0.0045
2665.00,0.0045
2664.00,0.0046
2663.00,0.0047
2662.00,0.0047
2661.00,0.0048
2660.00,0.0048
2659.00,0.0048
2658.00,0.0047
2657.00,0.0047
2656.00,0.0046
2655.00,0.0046
2654.00,0.0045
2653.00,0.0045
2652.00,0.0045
2651.00,0.0044
2650.00,0.0043
2649.00,0.0043
2648.00,0.0043
2647.00,0.0043
2646.00,0.0043
2645.00,0.0043
2644.00,0.0042
2643.00,0.0042
2642.00,0.0042
2641.00,0.0041
2640.00,0.0041
2639.00,0.0040
2638.00,0.0040
2637.00,0.0039
2636.00,0.0039
2635.00,0.0038
2634.00,0.0038
2633.00,0.0039
2632.00,0.0039
2631.00,0.0039
2630.00,0.0039
2629.00,0.0039
2628.00,0.0039
2627.00,0.0039
2626.00,0.0040
2625.00,0.0040
2624.00,0.0041
2623.00,0.0041
2622.00,0.0041
2621.00,0.0041
2620.00,0.0041
2619.00,0.0040
2618.00,0.0040
2617.00,0.0040
2616.00,0.0039
2615.00,0.0039
2614.00,0.0039
2613.00,0.0039
2612.00,0.0039
2611.00,0.0039
2610.00,0.0038
2609.00,0.0038
2608.00,0.0037
2607.00,0.0036
2606.00,0.0035
2605.00,0.0034
2604.00,0.0033
2603.00,0.0032
2602.00,0.0031
2601.00,0.0031
2600.00,0.0030
2599.00,0.0031
2598.00,0.0031
2597.00,0.0031
2596.00,0.0031
2595.00,0.0031
2594.00,0.0032
2593.00,0.0033
2592.00,0.0033
2591.00,0.0034
2590.00,0.0034
2589.00,0.0034
2588.00,0.0035
2587.00,0.0037
2586.00,0.0038
2585.00,0.0039
2584.00,0.0040
2583.00,0.0040
2582.00,0.0040
2581.00,0.0039
2580.00,0.0038
2579.00,0.0038
2578.00,0.0037
2577.00,0.0035
2576.00,0.0034
2575.00,0.0033
2574.00,0.0032
2573.00,0.0031
2572.00,0.0030
2571.00,0.0029
2570.00,0.0028
2569.00,0.0027
2568.00,0.0027
2567.00,0.0027
2566.00,0.0026
2565.00,0.0026
2564.00,0.0025
2563.00,0.0025
2562.00,0.0024
2561.00,0.0024
2560.00,0.0024
2559.00,0.0024
2558.00,0.0023
2557.00,0.0023
2556.00,0.0023
2555.00,0.0023
2554.00,0.0023
2553.00,0.0023
2552.00,0.0022
2551.00,0.0022
2550.00,0.0022
2549.00,0.0022
2548.00,0.0021
2547.00,0.0021
2546.00,0.0020
2545.00,0.0020
2544.00,0.0019
2543.00,0.0018
2542.00,0.0018
2541.00,0.0018
2540.00,0.0019
2539.00,0.0019
2538.00,0.0019
2537.00,0.0018
2536.00,0.0018
2535.00,0.0017
2534.00,0.0017
2533.00,0.0016
2532.00,0.0016
2531.00,0.0016
2530.00,0.0015
2529.00,0.0015
2528.00,0.0014
2527.00,0.0014
2526.00,0.0014
2525.00,0.0013
2524.00,0.0013
2523.00,0.0013
2522.00,0.0013
2521.00,0.0013
2520.00,0.0013
2519.00,0.0013
2518.00,0.0013
2517.00,0.0013
2516.00,0.0012
2515.00,0.0012
2514.00,0.0012
2513.00,0.0011
2512.00,0.0012
2511.00,0.0012
2510.00,0.0012
2509.00,0.0011
2508.00,0.0011
2507.00,0.0011
2506.00,0.0011
2505.00,0.0011
2504.00,0.0011
2503.00,0.0011
2502.00,0.0011
2501.00,0.0011
2500.00,0.0011
2499.00,0.0011
2498.00,0.0011
2497.00,0.0012
2496.00,0.0012
2495.00,0.0011
2494.00,0.0011
2493.00,0.0010
2492.00,0.0010
2491.00,0.0010
2490.00,0.0010
2489.00,0.0011
2488.00,0.0011
2487.00,0.0011
2486.00,0.0011
2485.00,0.0011
2484.00,0.0011
2483.00,0.0011
2482.00,0.0011
2481.00,0.0011
2480.00,0.0010
2479.00,0.0009
2478.00,0.0009
2477.00,0.0009
2476.00,0.0010
2475.00,0.0010
2474.00,0.0010
2473.00,0.0010
2472.00,0.0010
2471.00,0.0010
2470.00,0.0010
2469.00,0.0010
2468.00,0.0011
2467.00,0.0011
2466.00,0.0011
2465.00,0.0011
2464.00,0.0010
2463.00,0.0010
2462.00,0.0009
2461.00,0.0009
2460.00,0.0010
2459.00,0.0011
2458.00,0.0012
2457.00,0.0012
2456.00,0.0012
2455.00,0.0012
2454.00,0.0012
2453.00,0.0012
2452.00,0.0012
2451.00,0.0012
2450.00,0.0012
2449.00,0.0011
2448.00,0.0011
2447.00,0.0011
2446.00,0.0011
2445.00,0.0011
2444.00,0.0012
2443.00,0.0012
2442.00,0.0013
2441.00,0.0013
2440.00,0.0012
2439.00,0.0012
2438.00,0.0011
2437.00,0.0011
2436.00,0.0011
2435.00,0.0012
2434.00,0.0012
2433.00,0.0013
2432.00,0.0013
2431.00,0.0014
2430.00,0.0014
2429.00,0.0014
2428.00,0.0013
2427.00,0.0013
2426.00,0.0012
2425.00,0.0012
2424.00,0.0012
2423.00,0.0012
2422.00,0.0011
2421.00,0.0011
2420.00,0.0011
2419.00,0.0011
2418.00,0.0010
2417.00,0.0009
2416.00,0.0009
2415.00,0.0009
2414.00,0.0009
2413.00,0.0010
2412.00,0.0010
2411.00,0.0010
2410.00,0.0010
2409.00,0.0010
2408.00,0.0010
2407.00,0.0010
2406.00,0.0010
2405.00,0.0010
2404.00,0.0010
2403.00,0.0009
2402.00,0.0009
2401.00,0.0009
2400.00,0.0008
2399.00,0.0008
2398.00,0.0008
2397.00,0.0009
2396.00,0.0009
2395.00,0.0008
2394.00,0.0008
2393.00,0.0008
2392.00,0.0008
2391.00,0.0007
2390.00,0.0007
2389.00,0.0007
2388.00,0.0007
2387.00,0.0007
2386.00,0.0007
2385.00,0.0007
2384.00,0.0006
2383.00,0.0005
2382.00,0.0004
2381.00,0.0003
2380.00,0.0002
2379.00,0.0002
2378.00,0.0001
2377.00,0.0002
2376.00,0.0002
2375.00,0.0002
2374.00,0.0002
2373.00,0.0002
2372.00,0.0003
2371.00,0.0004
2370.00,0.0005
2369.00,0.0005
2368.00,0.0004
2367.00,0.0003
2366.00,0.0003
2365.00,0.0003
2364.00,0.0003
2363.00,0.0004
2362.00,0.0005
2361.00,0.0006
2360.00,0.0007
2359.00,0.0007
2358.00,0.0008
2357.00,0.0008
2356.00,0.0007
2355.00,0.0007
2354.00,0.0006
2353.00,0.0005
2352.00,0.0005
2351.00,0.0005
2350.00,0.0006
2349.00,0.0006
2348.00,0.0005
2347.00,0.0005
2346.00,0.0005
2345.00,0.0005
2344.00,0.0007
2343.00,0.0008
2342.00,0.0008
2341.00,0.0008
2340.00,0.0008
2339.00,0.0008
2338.00,0.0008
2337.00,0.0008
2336.00,0.0009
2335.00,0.0009
2334.00,0.0008
2333.00,0.0006
2332.00,0.0005
2331.00,0.0005
2330.00,0.0005
2329.00,0.0006
2328.00,0.0009
2327.00,0.0012
2326.00,0.0016
2325.00,0.0019
2324.00,0.0020
2323.00,0.0019
2322.00,0.0017
2321.00,0.0016
2320.00,0.0015
2319.00,0.0015
2318.00,0.0015
2317.00,0.0014
2316.00,0.0013
2315.00,0.0011
2314.00,0.0010
2313.00,0.0009
2312.00,0.0008
2311.00,0.0008
2310.00,0.0008
2309.00,0.0009
2308.00,0.0010
2307.00,0.0011
2306.00,0.0011
2305.00,0.0011
2304.00,0.0011
2303.00,0.0011
2302.00,0.0010
2301.00,0.0011
2300.00,0.0011
2299.00,0.0012
2298.00,0.0012
2297.00,0.0012
2296.00,0.0012
2295.00,0.0013
2294.00,0.0013
2293.00,0.0015
2292.00,0.0016
2291.00,0.0017
2290.00,0.0018
2289.00,0.0018
2288.00,0.0018
2287.00,0.0018
2286.00,0.0018
2285.00,0.0017
2284.00,0.0017
2283.00,0.0017
2282.00,0.0017
2281.00,0.0018
2280.00,0.0018
2279.00,0.0018
2278.00,0.0017
2277.00,0.0015
2276.00,0.0014
2275.00,0.0013
2274.00,0.0013
2273.00,0.0014
2272.00,0.0015
2271.00,0.0015
2270.00,0.0015
2269.00,0.0015
2268.00,0.0014
2267.00,0.0014
2266.00,0.0013
2265.00,0.0013
2264.00,0.0013
2263.00,0.0013
2262.00,0.0014
2261.00,0.0015
2260.00,0.0016
2259.00,0.0017
2258.00,0.0017
2257.00,0.0017
2256.00,0.0016
2255.00,0.0014
2254.00,0.0012
2253.00,0.0011
2252.00,0.0010
2251.00,0.0010
2250.00,0.0009
2249.00,0.0009
2248.00,0.0008
2247.00,0.0007
2246.00,0.0007
2245.00,0.0007
2244.00,0.0008
2243.00,0.0008
2242.00,0.0008
2241.00,0.0008
2240.00,0.0008
2239.00,0.0008
2238.00,0.0009
2237.00,0.0009
2236.00,0.0010
2235.00,0.0010
2234.00,0.0011
2233.00,0.0012
2232.00,0.0012
2231.00,0.0011
2230.00,0.0010
2229.00,0.0009
2228.00,0.0008
2227.00,0.0008
2226.00,0.0008
2225.00,0.0007
2224.00,0.0006
2223.00,0.0005
2222.00,0.0004
2221.00,0.0004
2220.00,0.0004
2219.00,0.0004
2218.00,0.0005
2217.00,0.0005
2216.00,0.0006
2215.00,0.0007
2214.00,0.0008
2213.00,0.0007
2212.00,0.0006
2211.00,0.0004
2210.00,0.0002
2209.00,0.0002
2208.00,0.0003
2207.00,0.0003
2206.00,0.0004
2205.00,0.0004
2204.00,0.0004
2203.00,0.0004
2202.00,0.0005
2201.00,0.0006
2200.00,0.0007
2199.00,0.0008
2198.00,0.0009
2197.00,0.0010
2196.00,0.0011
2195.00,0.0010
2194.00,0.0007
2193.00,0.0006
2192.00,0.0005
2191.00,0.0006
2190.00,0.0007
2189.00,0.0008
2188.00,0.0009
2187.00,0.0010
2186.00,0.0011
2185.00,0.0012
2184.00,0.0012
2183.00,0.0012
2182.00,0.0010
2181.00,0.0008
2180.00,0.0008
2179.00,0.0008
2178.00,0.0009
2177.00,0.0009
2176.00,0.0008
2175.00,0.0008
2174.00,0.0008
2173.00,0.0010
2172.00,0.0011
2171.00,0.0012
2170.00,0.0012
2169.00,0.0014
2168.00,0.0016
2167.00,0.0018
2166.00,0.0020
2165.00,0.0020
2164.00,0.0020
2163.00,0.0021
2162.00,0.0021
2161.00,0.0018
2160.00,0.0009
2159.00,-0.0005
2158.00,-0.0017
2157.00,-0.0024
2156.00,-0.0025
2155.00,-0.0022
2154.00,-0.0018
2153.00,-0.0015
2152.00,-0.0015
2151.00,-0.0016
2150.00,-0.0018
2149.00,-0.0018
2148.00,-0.0018
2147.00,-0.0018
2146.00,-0.0018
2145.00,-0.0018
2144.00,-0.0017
2143.00,-0.0016
2142.00,-0.0015
2141.00,-0.0014
2140.00,-0.0012
2139.00,-0.0011
2138.00,-0.0011
2137.00,-0.0013
2136.00,-0.0015
2135.00,-0.0018
2134.00,-0.0019
2133.00,-0.0019
2132.00,-0.0018
2131.00,-0.0016
2130.00,-0.0015
2129.00,-0.0014
2128.00,-0.0013
2127.00,-0.0012
2126.00,-0.0011
2125.00,-0.0009
2124.00,-0.0008
2123.00,-0.0006
2122.00,-0.0005
2121.00,-0.0004
2120.00,-0.0003
2119.00,-0.0002
2118.00,-0.0001
2117.00,-0.0000
2116.00,0.0001
2115.00,0.0003
2114.00,0.0004
2113.00,0.0004
2112.00,0.0005
2111.00,0.0004
2110.00,0.0003
2109.00,0.0001
2108.00,0.0001
2107.00,0.0002
2106.00,0.0003
2105.00,0.0004
2104.00,0.0005
2103.00,0.0004
2102.00,0.0003
2101.00,0.0003
2100.00,0.0002
2099.00,0.0001
2098.00,-0.0001
2097.00,-0.0003
2096.00,-0.0005
2095.00,-0.0004
2094.00,-0.0002
2093.00,-0.0001
2092.00,0.0000
2091.00,0.0001
2090.00,0.0001
2089.00,0.0003
2088.00,0.0004
2087.00,0.0004
2086.00,0.0004
2085.00,0.0003
2084.00,0.0002
2083.00,0.0002
2082.00,0.0001
2081.00,0.0001
2080.00,0.0002
2079.00,0.0002
2078.00,0.0003
2077.00,0.0003
2076.00,0.0003
2075.00,0.0003
2074.00,0.0001
2073.00,0.0001
2072.00,0.0001
2071.00,0.0001
2070.00,0.0001
2069.00,0.0001
2068.00,-0.0001
2067.00,-0.0003
2066.00,-0.0004
2065.00,-0.0005
2064.00,-0.0005
2063.00,-0.0005
2062.00,-0.0005
2061.00,-0.0005
2060.00,-0.0004
2059.00,-0.0003
2058.00,-0.0000
2057.00,0.0002
2056.00,0.0003
2055.00,0.0002
2054.00,0.0002
2053.00,0.0004
2052.00,0.0007
2051.00,0.0009
2050.00,0.0008
2049.00,0.0006
2048.00,0.0004
2047.00,0.0002
2046.00,0.0001
2045.00,-0.0000
2044.00,-0.0002
2043.00,-0.0002
2042.00,-0.0002
2041.00,-0.0000
2040.00,0.0000
2039.00,-0.0001
2038.00,-0.0003
2037.00,-0.0004
2036.00,-0.0004
2035.00,-0.0003
2034.00,-0.0005
2033.00,-0.0007
2032.00,-0.0011
2031.00,-0.0013
2030.00,-0.0014
2029.00,-0.0012
2028.00,-0.0010
2027.00,-0.0008
2026.00,-0.0007
2025.00,-0.0006
2024.00,-0.0006
2023.00,-0.0007
2022.00,-0.0008
2021.00,-0.0007
2020.00,-0.0006
2019.00,-0.0004
2018.00,-0.0004
2017.00,-0.0004
2016.00,-0.0005
2015.00,-0.0007
2014.00,-0.0008
2013.00,-0.0010
2012.00,-0.0011
2011.00,-0.0012
2010.00,-0.0013
2009.00,-0.0014
2008.00,-0.0014
2007.00,-0.0015
2006.00,-0.0016
2005.00,-0.0015
2004.00,-0.0012
2003.00,-0.0009
2002.00,-0.0006
2001.00,-0.0006
2000.00,-0.0007
1999.00,-0.0009
1998.00,-0.0010
1997.00,-0.0011
1996.00,-0.0013
1995.00,-0.0015
1994.00,-0.0015
1993.00,-0.0013
1992.00,-0.0011
1991.00,-0.0009
1990.00,-0.0007
1989.00,-0.0005
1988.00,-0.0004
1987.00,-0.0004
1986.00,-0.0003
1985.00,-0.0002
1984.00,-0.0000
1983.00,0.0002
1982.00,0.0005
1981.00,0.0008
1980.00,0.0008
1979.00,0.0005
1978.00,-0.0001
1977.00,-0.0006
1976.00,-0.0009
1975.00,-0.0011
1974.00,-0.0012
1973.00,-0.0012
1972.00,-0.0013
1971.00,-0.0014
1970.00,-0.0016
1969.00,-0.0016
1968.00,-0.0015
1967.00,-0.0014
1966.00,-0.0014
1965.00,-0.0013
1964.00,-0.0013
1963.00,-0.0012
1962.00,-0.0013
1961.00,-0.0015
1960.00,-0.0018
1959.00,-0.0020
1958.00,-0.0020
1957.00,-0.0019
1956.00,-0.0018
1955.00,-0.0017
1954.00,-0.0015
1953.00,-0.0013
1952.00,-0.0011
1951.00,-0.0011
1950.00,-0.0013
1949.00,-0.0015
1948.00,-0.0016
1947.00,-0.0016
1946.00,-0.0016
1945.00,-0.0015
1944.00,-0.0014
1943.00,-0.0014
1942.00,-0.0014
1941.00,-0.0014
1940.00,-0.0015
1939.00,-0.0015
1938.00,-0.0015
1937.00,-0.0014
1936.00,-0.0012
1935.00,-0.0011
1934.00,-0.0010
1933.00,-0.0011
1932.00,-0.0012
1931.00,-0.0013
1930.00,-0.0012
1929.00,-0.0011
1928.00,-0.0009
1927.00,-0.0008
1926.00,-0.0009
1925.00,-0.0009
1924.00,-0.0009
1923.00,-0.0008
1922.00,-0.0006
1921.00,-0.0004
1920.00,-0.0003
1919.00,-0.0003
1918.00,-0.0004
1917.00,-0.0005
1916.00,-0.0005
1915.00,-0.0006
1914.00,-0.0006
1913.00,-0.0005
1912.00,-0.0004
1911.00,-0.0004
1910.00,-0.0004
1909.00,-0.0005
1908.00,-0.0005
1907.00,-0.0005
1906.00,-0.0005
1905.00,-0.0004
1904.00,-0.0003
1903.00,-0.0003
1902.00,-0.0004
1901.00,-0.0003
1900.00,-0.0003
1899.00,-0.0002
1898.00,-0.0001
1897.00,-0.0001
1896.00,-0.0000
1895.00,-0.0000
1894.00,-0.0001
1893.00,-0.0000
1892.00,0.0000
1891.00,0.0000
1890.00,0.0001
1889.00,0.0001
1888.00,0.0000
1887.00,-0.0000
1886.00,-0.0000
1885.00,-0.0000
1884.00,0.0001
1883.00,0.0001
1882.00,0.0001
1881.00,0.0001
1880.00,0.0000
1879.00,-0.0001
1878.00,-0.0001
1877.00,-0.0002
1876.00,-0.0002
1875.00,-0.0002
1874.00,-0.0002
1873.00,-0.0002
1872.00,-0.0002
1871.00,-0.0002
1870.00,-0.0001
1869.00,-0.0000
1868.00,0.0000
1867.00,-0.0000
1866.00,-0.0001
1865.00,-0.0001
1864.00,-0.0001
1863.00,-0.0000
1862.00,-0.0000
1861.00,-0.0001
1860.00,-0.0001
1859.00,-0.0001
1858.00,-0.0001
1857.00,-0.0001
1856.00,-0.0001
1855.00,0.0000
1854.00,0.0001
1853.00,0.0002
1852.00,0.0002
1851.00,0.0002
1850.00,0.0002
1849.00,0.0001
1848.00,0.0002
1847.00,0.0002
1846.00,0.0001
1845.00,0.0001
1844.00,0.0001
1843.00,0.0001
1842.00,0.0001
1841.00,0.0001
1840.00,0.0001
1839.00,0.0001
1838.00,0.0002
1837.00,0.0002
1836.00,0.0002
1835.00,0.0002
1834.00,0.0002
1833.00,0.0002
1832.00,0.0002
1831.00,0.0002
1830.00,0.0002
1829.00,0.0003
1828.00,0.0003
1827.00,0.0004
1826.00,0.0004
1825.00,0.0004
1824.00,0.0004
1823.00,0.0004
1822.00,0.0004
1821.00,0.0004
1820.00,0.0003
1819.00,0.0002
1818.00,0.0000
1817.00,-0.0000
1816.00,-0.0000
1815.00,0.0000
1814.00,0.0001
1813.00,0.0002
1812.00,0.0002
1811.00,0.0002
1810.00,0.0003
1809.00,0.0003
1808.00,0.0004
1807.00,0.0004
1806.00,0.0004
1805.00,0.0004
1804.00,0.0004
1803.00,0.0004
1802.00,0.0004
1801.00,0.0004
1800.00,0.0004
1799.00,0.0004
1798.00,0.0005
1797.00,0.0005
1796.00,0.0005
1795.00,0.0005
1794.00,0.0004
1793.00,0.0004
1792.00,0.0004
1791.00,0.0004
1790.00,0.0005
1789.00,0.0006
1788.00,0.0007
1787.00,0.0008
1786.00,0.0008
1785.00,0.0008
1784.00,0.0007
1783.00,0.0006
1782.00,0.0006
1781.00,0.0006
1780.00,0.0006
1779.00,0.0006
1778.00,0.0006
1777.00,0.0006
1776.00,0.0007
1775.00,0.0007
1774.00,0.0007
1773.00,0.0006
1772.00,0.0006
1771.00,0.0007
1770.00,0.0007
1769.00,0.0008
1768.00,0.0008
1767.00,0.0008
1766.00,0.0008
1765.00,0.0009
1764.00,0.0009
1763.00,0.0009
1762.00,0.0010
1761.00,0.0010
1760.00,0.0011
1759.00,0.0012
1758.00,0.0012
1757.00,0.0013
1756.00,0.0013
1755.00,0.0014
1754.00,0.0014
1753.00,0.0015
1752.00,0.0015
1751.00,0.0016
1750.00,0.0016
1749.00,0.0017
1748.00,0.0018
1747.00,0.0020
1746.00,0.0021
1745.00,0.0023
1744.00,0.0025
1743.00,0.0026
1742.00,0.0027
1741.00,0.0027
1740.00,0.0028
1739.00,0.0029
1738.00,0.0029
1737.00,0.0029
1736.00,0.0029
1735.00,0.0029
1734.00,0.0029
1733.00,0.0030
1732.00,0.0030
1731.00,0.0030
1730.00,0.0030
1729.00,0.0030
1728.00,0.0030
1727.00,0.0030
1726.00,0.0030
1725.00,0.0030
1724.00,0.0030
1723.00,0.0029
1722.00,0.0028
1721.00,0.0028
1720.00,0.0027
1719.00,0.0026
1718.00,0.0025
1717.00,0.0024
1716.00,0.0024
1715.00,0.0023
1714.00,0.0023
1713.00,0.0024
1712.00,0.0024
1711.00,0.0024
1710.00,0.0023
1709.00,0.0023
1708.00,0.0023
1707.00,0.0022
1706.00,0.0021
1705.00,0.0021
1704.00,0.0022
1703.00,0.0022
1702.00,0.0023
1701.00,0.0023
1700.00,0.0024
1699.00,0.0024
1698.00,0.0024
1697.00,0.0024
1696.00,0.0025
1695.00,0.0025
1694.00,0.0025
1693.00,0.0026
1692.00,0.0027
1691.00,0.0027
1690.00,0.0028
1689.00,0.0028
1688.00,0.0028
1687.00,0.0028
1686.00,0.0029
1685.00,0.0029
1684.00,0.0030
1683.00,0.0031
1682.00,0.0030
1681.00,0.0030
1680.00,0.0031
1679.00,0.0031
1678.00,0.0031
1677.00,0.0032
1676.00,0.0032
1675.00,0.0033
1674.00,0.0033
1673.00,0.0034
1672.00,0.0034
1671.00,0.0035
1670.00,0.0035
1669.00,0.0036
1668.00,0.0037
1667.00,0.0038
1666.00,0.0039
1665.00,0.0039
1664.00,0.0040
1663.00,0.0040
1662.00,0.0039
1661.00,0.0039
1660.00,0.0040
1659.00,0.0040
1658.00,0.0040
1657.00,0.0041
1656.00,0.0041
1655.00,0.0042
1654.00,0.0043
1653.00,0.0044
1652.00,0.0045
1651.00,0.0045
1650.00,0.0045
1649.00,0.0046
1648.00,0.0047
1647.00,0.0047
1646.00,0.0048
1645.00,0.0049
1644.00,0.0050
1643.00,0.0051
1642.00,0.0052
1641.00,0.0053
1640.00,0.0054
1639.00,0.0054
1638.00,0.0055
1637.00,0.0055
1636.00,0.0055
1635.00,0.0055
1634.00,0.0054
1633.00,0.0054
1632.00,0.0053
1631.00,0.0052
1630.00,0.0052
1629.00,0.0051
1628.00,0.0051
1627.00,0.0050
1626.00,0.0050
1625.00,0.0049
1624.00,0.0049
1623.00,0.0048
1622.00,0.0048
1621.00,0.0048
1620.00,0.0048
1619.00,0.0047
1618.00,0.0047
1617.00,0.0047
1616.00,0.0048
1615.00,0.0048
1614.00,0.0047
1613.00,0.0048
1612.00,0.0048
1611.00,0.0048
1610.00,0.0049
1609.00,0.0049
1608.00,0.0049
1607.00,0.0049
1606.00,0.0048
1605.00,0.0048
1604.00,0.0048
1603.00,0.0048
1602.00,0.0048
1601.00,0.0048
1600.00,0.0048
1599.00,0.0048
1598.00,0.0048
1597.00,0.0047
1596.00,0.0047
1595.00,0.0047
1594.00,0.0047
1593.00,0.0047
1592.00,0.0048
1591.00,0.0048
1590.00,0.0048
1589.00,0.0048
1588.00,0.0049
1587.00,0.0049
1586.00,0.0049
1585.00,0.0050
1584.00,0.0050
1583.00,0.0051
1582.00,0.0051
1581.00,0.0052
1580.00,0.0053
1579.00,0.0053
1578.00,0.0054
1577.00,0.0055
1576.00,0.0054
1575.00,0.0054
1574.00,0.0054
1573.00,0.0053
1572.00,0.0054
1571.00,0.0053
1570.00,0.0054
1569.00,0.0054
1568.00,0.0054
1567.00,0.0055
1566.00,0.0055
1565.00,0.0055
1564.00,0.0055
1563.00,0.0054
1562.00,0.0054
1561.00,0.0054
1560.00,0.0054
1559.00,0.0053
1558.00,0.0053
1557.00,0.0054
1556.00,0.0055
1555.00,0.0055
1554.00,0.0055
1553.00,0.0056
1552.00,0.0057
1551.00,0.0057
1550.00,0.0057
1549.00,0.0057
1548.00,0.0057
1547.00,0.0057
1546.00,0.0057
1545.00,0.0058
1544.00,0.0058
1543.00,0.0058
1542.00,0.0058
1541.00,0.0058
1540.00,0.0058
1539.00,0.0057
1538.00,0.0056
1537.00,0.0055
1536.00,0.0055
1535.00,0.0054
1534.00,0.0053
1533.00,0.0051
1532.00,0.0051
1531.00,0.0050
1530.00,0.0049
1529.00,0.0049
1528.00,0.0049
1527.00,0.0049
1526.00,0.0049
1525.00,0.0049
1524.00,0.0049
1523.00,0.0049
1522.00,0.0048
1521.00,0.0048
1520.00,0.0049
1519.00,0.0050
1518.00,0.0051
1517.00,0.0051
1516.00,0.0052
1515.00,0.0052
1514.00,0.0052
1513.00,0.0052
1512.00,0.0053
1511.00,0.0054
1510.00,0.0053
1509.00,0.0054
1508.00,0.0054
1507.00,0.0054
1506.00,0.0055
1505.00,0.0057
1504.00,0.0060
1503.00,0.0061
1502.00,0.0063
1501.00,0.0065
1500.00,0.0067
1499.00,0.0069
1498.00,0.0070
1497.00,0.0072
1496.00,0.0075
1495.00,0.0078
1494.00,0.0080
1493.00,0.0083
1492.00,0.0087
1491.00,0.0091
1490.00,0.0095
1489.00,0.0099
1488.00,0.0104
1487.00,0.0109
1486.00,0.0113
1485.00,0.0118
1484.00,0.0125
1483.00,0.0132
1482.00,0.0140
1481.00,0.0150
1480.00,0.0162
1479.00,0.0174
1478.00,0.0190
1477.00,0.0210
1476.00,0.0236
1475.00,0.0266
1474.00,0.0306
1473.00,0.0362
1472.00,0.0428
1471.00,0.0493
1470.00,0.0557
1469.00,0.0624
1468.00,0.0696
1467.00,0.0774
1466.00,0.0861
1465.00,0.0955
1464.00,0.1038
1463.00,0.1095
1462.00,0.1133
1461.00,0.1158
1460.00,0.1175
1459.00,0.1186
1458.00,0.1195
1457.00,0.1201
1456.00,0.1201
1455.00,0.1194
1454.00,0.1184
1453.00,0.1167
1452.00,0.1141
1451.00,0.1104
1450.00,0.1053
1449.00,0.0983
1448.00,0.0894
1447.00,0.0799
1446.00,0.0713
1445.00,0.0639
1444.00,0.0574
1443.00,0.0521
1442.00,0.0480
1441.00,0.0451
1440.00,0.0434
1439.00,0.0425
1438.00,0.0424
1437.00,0.0423
1436.00,0.0412
1435.00,0.0388
1434.00,0.0353
1433.00,0.0311
1432.00,0.0268
1431.00,0.0229
1430.00,0.0199
1429.00,0.0176
1428.00,0.0160
1427.00,0.0150
1426.00,0.0144
1425.00,0.0137
1424.00,0.0132
1423.00,0.0128
1422.00,0.0125
1421.00,0.0122
1420.00,0.0119
1419.00,0.0116
1418.00,0.0115
1417.00,0.0113
1416.00,0.0111
1415.00,0.0111
1414.00,0.0111
1413.00,0.0110
1412.00,0.0108
1411.00,0.0107
1410.00,0.0107
1409.00,0.0106
1408.00,0.0105
1407.00,0.0106
1406.00,0.0106
1405.00,0.0106
1404.00,0.0105
1403.00,0.0106
1402.00,0.0107
1401.00,0.0108
1400.00,0.0109
1399.00,0.0111
1398.00,0.0114
1397.00,0.0116
1396.00,0.0117
1395.00,0.0121
1394.00,0.0126
1393.00,0.0131
1392.00,0.0137
1391.00,0.0144
1390.00,0.0155
1389.00,0.0169
1388.00,0.0189
1387.00,0.0221
1386.00,0.0264
1385.00,0.0321
1384.00,0.0399
1383.00,0.0509
1382.00,0.0656
1381.00,0.0846
1380.00,0.1078
1379.00,0.1339
1378.00,0.1587
1377.00,0.1765
1376.00,0.1818
1375.00,0.1719
1374.00,0.1499
1373.00,0.1237
1372.00,0.0999
1371.00,0.0803
1370.00,0.0648
1369.00,0.0530
1368.00,0.0448
1367.00,0.0398
1366.00,0.0370
1365.00,0.0358
1364.00,0.0359
1363.00,0.0371
1362.00,0.0390
1361.00,0.0411
1360.00,0.0427
1359.00,0.0431
1358.00,0.0422
1357.00,0.0398
1356.00,0.0364
1355.00,0.0326
1354.00,0.0290
1353.00,0.0258
1352.00,0.0232
1351.00,0.0211
1350.00,0.0194
1349.00,0.0180
1348.00,0.0169
1347.00,0.0159
1346.00,0.0150
1345.00,0.0143
1344.00,0.0137
1343.00,0.0132
1342.00,0.0128
1341.00,0.0124
1340.00,0.0121
1339.00,0.0119
1338.00,0.0118
1337.00,0.0117
1336.00,0.0118
1335.00,0.0120
1334.00,0.0123
1333.00,0.0127
1332.00,0.0131
1331.00,0.0134
1330.00,0.0135
1329.00,0.0134
1328.00,0.0130
1327.00,0.0126
1326.00,0.0120
1325.00,0.0114
1324.00,0.0109
1323.00,0.0104
1322.00,0.0100
1321.00,0.0098
1320.00,0.0095
1319.00,0.0094
1318.00,0.0093
1317.00,0.0092
1316.00,0.0091
1315.00,0.0090
1314.00,0.0090
1313.00,0.0090
1312.00,0.0092
1311.00,0.0094
1310.00,0.0098
1309.00,0.0105
1308.00,0.0114
1307.00,0.0126
1306.00,0.0138
1305.00,0.0146
1304.00,0.0148
1303.00,0.0145
1302.00,0.0140
1301.00,0.0134
1300.00,0.0130
1299.00,0.0128
1298.00,0.0127
1297.00,0.0127
1296.00,0.0125
1295.00,0.0123
1294.00,0.0120
1293.00,0.0116
1292.00,0.0111
1291.00,0.0106
1290.00,0.0101
1289.00,0.0097
1288.00,0.0094
1287.00,0.0092
1286.00,0.0090
1285.00,0.0088
1284.00,0.0087
1283.00,0.0087
1282.00,0.0086
1281.00,0.0085
1280.00,0.0083
1279.00,0.0083
1278.00,0.0082
1277.00,0.0082
1276.00,0.0081
1275.00,0.0081
1274.00,0.0081
1273.00,0.0081
1272.00,0.0081
1271.00,0.0082
1270.00,0.0084
1269.00,0.0086
1268.00,0.0088
1267.00,0.0090
1266.00,0.0093
1265.00,0.0096
1264.00,0.0099
1263.00,0.0102
1262.00,0.0106
1261.00,0.0110
1260.00,0.0116
1259.00,0.0123
1258.00,0.0131
1257.00,0.0138
1256.00,0.0140
1255.00,0.0138
1254.00,0.0132
1253.00,0.0124
1252.00,0.0115
1251.00,0.0108
1250.00,0.0102
1249.00,0.0098
1248.00,0.0094
1247.00,0.0091
1246.00,0.0090
1245.00,0.0088
1244.00,0.0088
1243.00,0.0087
1242.00,0.0086
1241.00,0.0086
1240.00,0.0084
1239.00,0.0084
1238.00,0.0083
1237.00,0.0084
1236.00,0.0084
1235.00,0.0085
1234.00,0.0084
1233.00,0.0084
1232.00,0.0084
1231.00,0.0085
1230.00,0.0086
1229.00,0.0087
1228.00,0.0088
1227.00,0.0089
1226.00,0.0092
1225.00,0.0094
1224.00,0.0097
1223.00,0.0100
1222.00,0.0102
1221.00,0.0104
1220.00,0.0106
1219.00,0.0106
1218.00,0.0105
1217.00,0.0103
1216.00,0.0101
1215.00,0.0099
1214.00,0.0096
1213.00,0.0093
1212.00,0.0091
1211.00,0.0089
1210.00,0.0088
1209.00,0.0087
1208.00,0.0086
1207.00,0.0084
1206.00,0.0083
1205.00,0.0082
1204.00,0.0082
1203.00,0.0081
1202.00,0.0081
1201.00,0.0081
1200.00,0.0080
1199.00,0.0080
1198.00,0.0080
1197.00,0.0081
1196.00,0.0080
1195.00,0.0080
1194.00,0.0079
1193.00,0.0079
1192.00,0.0079
1191.00,0.0079
1190.00,0.0079
1189.00,0.0079
1188.00,0.0079
1187.00,0.0079
1186.00,0.0080
1185.00,0.0081
1184.00,0.0082
1183.00,0.0084
1182.00,0.0087
1181.00,0.0090
1180.00,0.0094
1179.00,0.0099
1178.00,0.0106
1177.00,0.0115
1176.00,0.0126
1175.00,0.0142
1174.00,0.0162
1173.00,0.0188
1172.00,0.0220
1171.00,0.0256
1170.00,0.0290
1169.00,0.0317
1168.00,0.0333
1167.00,0.0335
1166.00,0.0325
1165.00,0.0309
1164.00,0.0289
1163.00,0.0271
1162.00,0.0254
1161.00,0.0240
1160.00,0.0230
1159.00,0.0222
1158.00,0.0217
1157.00,0.0213
1156.00,0.0210
1155.00,0.0207
1154.00,0.0205
1153.00,0.0201
1152.00,0.0196
1151.00,0.0189
1150.00,0.0180
1149.00,0.0171
1148.00,0.0161
1147.00,0.0151
1146.00,0.0141
1145.00,0.0133
1144.00,0.0125
1143.00,0.0118
1142.00,0.0112
1141.00,0.0106
1140.00,0.0102
1139.00,0.0098
1138.00,0.0095
1137.00,0.0092
1136.00,0.0088
1135.00,0.0085
1134.00,0.0083
1133.00,0.0082
1132.00,0.0080
1131.00,0.0079
1130.00,0.0079
1129.00,0.0079
1128.00,0.0079
1127.00,0.0080
1126.00,0.0080
1125.00,0.0081
1124.00,0.0081
1123.00,0.0081
1122.00,0.0082
1121.00,0.0082
1120.00,0.0082
1119.00,0.0083
1118.00,0.0084
1117.00,0.0086
1116.00,0.0087
1115.00,0.0089
1114.00,0.0090
1113.00,0.0092
1112.00,0.0094
1111.00,0.0096
1110.00,0.0098
1109.00,0.0102
1108.00,0.0106
1107.00,0.0112
1106.00,0.0118
1105.00,0.0124
1104.00,0.0129
1103.00,0.0131
1102.00,0.0130
1101.00,0.0127
1100.00,0.0123
1099.00,0.0118
1098.00,0.0113
1097.00,0.0108
1096.00,0.0104
1095.00,0.0101
1094.00,0.0099
1093.00,0.0096
1092.00,0.0094
1091.00,0.0092
1090.00,0.0090
1089.00,0.0089
1088.00,0.0089
1087.00,0.0089
1086.00,0.0089
1085.00,0.0088
1084.00,0.0088
1083.00,0.0087
1082.00,0.0086
1081.00,0.0085
1080.00,0.0084
1079.00,0.0084
1078.00,0.0084
1077.00,0.0083
1076.00,0.0082
1075.00,0.0082
1074.00,0.0081
1073.00,0.0080
1072.00,0.0080
1071.00,0.0080
1070.00,0.0080
1069.00,0.0080
1068.00,0.0080
1067.00,0.0080
1066.00,0.0081
1065.00,0.0082
1064.00,0.0084
1063.00,0.0085
1062.00,0.0086
1061.00,0.0088
1060.00,0.0089
1059.00,0.0090
1058.00,0.0091
1057.00,0.0093
1056.00,0.0094
1055.00,0.0096
1054.00,0.0099
1053.00,0.0102
1052.00,0.0106
1051.00,0.0110
1050.00,0.0115
1049.00,0.0120
1048.00,0.0125
1047.00,0.0130
1046.00,0.0136
1045.00,0.0139
1044.00,0.0141
1043.00,0.0141
1042.00,0.0139
1041.00,0.0137
1040.00,0.0135
1039.00,0.0134
1038.00,0.0134
1037.00,0.0133
1036.00,0.0132
1035.00,0.0131
1034.00,0.0129
1033.00,0.0127
1032.00,0.0125
1031.00,0.0124
1030.00,0.0123
1029.00,0.0122
1028.00,0.0122
1027.00,0.0123
1026.00,0.0124
1025.00,0.0126
1024.00,0.0128
1023.00,0.0131
1022.00,0.0134
1021.00,0.0136
1020.00,0.0138
1019.00,0.0139
1018.00,0.0140
1017.00,0.0141
1016.00,0.0141
1015.00,0.0141
1014.00,0.0140
1013.00,0.0139
1012.00,0.0139
1011.00,0.0139
1010.00,0.0139
1009.00,0.0140
1008.00,0.0143
1007.00,0.0148
1006.00,0.0157
1005.00,0.0169
1004.00,0.0186
1003.00,0.0209
1002.00,0.0241
1001.00,0.0281
1000.00,0.0324
999.00,0.0361
998.00,0.0379
997.00,0.0373
996.00,0.0344
995.00,0.0302
994.00,0.0257
993.00,0.0218
992.00,0.0187
991.00,0.0163
990.00,0.0147
989.00,0.0137
988.00,0.0130
987.00,0.0127
986.00,0.0125
985.00,0.0126
984.00,0.0130
983.00,0.0137
982.00,0.0148
981.00,0.0164
980.00,0.0185
979.00,0.0214
978.00,0.0252
977.00,0.0297
976.00,0.0346
975.00,0.0392
974.00,0.0427
973.00,0.0439
972.00,0.0424
971.00,0.0382
970.00,0.0327
969.00,0.0270
968.00,0.0222
967.00,0.0186
966.00,0.0161
965.00,0.0143
964.00,0.0130
963.00,0.0120
962.00,0.0112
961.00,0.0106
960.00,0.0101
959.00,0.0098
958.00,0.0094
957.00,0.0091
956.00,0.0088
955.00,0.0086
954.00,0.0083
953.00,0.0081
952.00,0.0079
951.00,0.0078
950.00,0.0078
949.00,0.0078
948.00,0.0078
947.00,0.0079
946.00,0.0080
945.00,0.0083
944.00,0.0085
943.00,0.0088
942.00,0.0091
941.00,0.0093
940.00,0.0093
939.00,0.0090
938.00,0.0086
937.00,0.0082
936.00,0.0078
935.00,0.0074
934.00,0.0071
933.00,0.0068
932.00,0.0066
931.00,0.0065
930.00,0.0065
929.00,0.0064
928.00,0.0064
927.00,0.0063
926.00,0.0063
925.00,0.0063
924.00,0.0063
923.00,0.0063
922.00,0.0063
921.00,0.0063
920.00,0.0063
919.00,0.0063
918.00,0.0063
917.00,0.0063
916.00,0.0064
915.00,0.0064
914.00,0.0065
913.00,0.0065
912.00,0.0066
911.00,0.0068
910.00,0.0071
909.00,0.0074
908.00,0.0077
907.00,0.0081
906.00,0.0087
905.00,0.0097
904.00,0.0110
903.00,0.0126
902.00,0.0145
901.00,0.0162
900.00,0.0173
899.00,0.0176
898.00,0.0168
897.00,0.0154
896.00,0.0136
895.00,0.0119
894.00,0.0105
893.00,0.0094
892.00,0.0085
891.00,0.0080
890.00,0.0076
889.00,0.0074
888.00,0.0073
887.00,0.0073
886.00,0.0072
885.00,0.0072
884.00,0.0072
883.00,0.0071
882.00,0.0071
881.00,0.0071
880.00,0.0070
879.00,0.0070
878.00,0.0070
877.00,0.0071
876.00,0.0071
875.00,0.0073
874.00,0.0075
873.00,0.0076
872.00,0.0078
871.00,0.0077
870.00,0.0076
869.00,0.0076
868.00,0.0076
867.00,0.0076
866.00,0.0077
865.00,0.0079
864.00,0.0080
863.00,0.0082
862.00,0.0084
861.00,0.0085
860.00,0.0086
859.00,0.0086
858.00,0.0088
857.00,0.0089
856.00,0.0092
855.00,0.0095
854.00,0.0097
853.00,0.0099
852.00,0.0101
851.00,0.0104
850.00,0.0109
849.00,0.0116
848.00,0.0126
847.00,0.0141
846.00,0.0162
845.00,0.0196
844.00,0.0243
843.00,0.0300
842.00,0.0348
841.00,0.0366
840.00,0.0344
839.00,0.0294
838.00,0.0236
837.00,0.0188
836.00,0.0157
835.00,0.0139
834.00,0.0127
833.00,0.0120
832.00,0.0115
831.00,0.0111
830.00,0.0108
829.00,0.0105
828.00,0.0103
827.00,0.0100
826.00,0.0099
825.00,0.0098
824.00,0.0099
823.00,0.0099
822.00,0.0100
821.00,0.0101
820.00,0.0103
819.00,0.0105
818.00,0.0109
817.00,0.0115
816.00,0.0124
815.00,0.0137
814.00,0.0153
813.00,0.0170
812.00,0.0187
811.00,0.0204
810.00,0.0216
809.00,0.0222
808.00,0.0219
807.00,0.0207
806.00,0.0188
805.00,0.0168
804.00,0.0152
803.00,0.0140
802.00,0.0133
801.00,0.0126
800.00,0.0120
799.00,0.0114
798.00,0.0109
797.00,0.0106
796.00,0.0103
795.00,0.0099
794.00,0.0094
793.00,0.0090
792.00,0.0087
791.00,0.0084
790.00,0.0082
789.00,0.0079
788.00,0.0076
787.00,0.0074
786.00,0.0072
785.00,0.0071
784.00,0.0070
783.00,0.0069
782.00,0.0068
781.00,0.0068
780.00,0.0067
779.00,0.0065
778.00,0.0064
777.00,0.0064
776.00,0.0065
775.00,0.0066
774.00,0.0066
773.00,0.0065
772.00,0.0066
771.00,0.0066
770.00,0.0067
769.00,0.0067
768.00,0.0066
767.00,0.0065
766.00,0.0063
765.00,0.0062
764.00,0.0062
763.00,0.0062
762.00,0.0063
761.00,0.0065
760.00,0.0066
759.00,0.0066
758.00,0.0067
757.00,0.0069
756.00,0.0071
755.00,0.0072
754.00,0.0072
753.00,0.0073
752.00,0.0075
751.00,0.0077
750.00,0.0079
749.00,0.0079
748.00,0.0079
747.00,0.0078
746.00,0.0078
745.00,0.0081
744.00,0.0084
743.00,0.0088
742.00,0.0091
741.00,0.0095
740.00,0.0098
739.00,0.0102
738.00,0.0106
737.00,0.0109
736.00,0.0111
735.00,0.0114
734.00,0.0118
733.00,0.0125
732.00,0.0133
731.00,0.0141
730.00,0.0146
729.00,0.0148
728.00,0.0148
727.00,0.0148
726.00,0.0149
725.00,0.0151
724.00,0.0154
723.00,0.0159
722.00,0.0164
721.00,0.0168
720.00,0.0166
719.00,0.0160
718.00,0.0149
717.00,0.0138
716.00,0.0129
715.00,0.0123
714.00,0.0119
713.00,0.0115
712.00,0.0111
711.00,0.0107
710.00,0.0104
709.00,0.0101
708.00,0.0099
707.00,0.0097
706.00,0.0096
705.00,0.0095
704.00,0.0095
703.00,0.0095
702.00,0.0095
701.00,0.0094
700.00,0.0094
699.00,0.0094
698.00,0.0093
697.00,0.0092
696.00,0.0090
695.00,0.0089
694.00,0.0089
693.00,0.0089
692.00,0.0090
691.00,0.0089
690.00,0.0090
689.00,0.0091
688.00,0.0093
687.00,0.0095
686.00,0.0095
685.00,0.0093
684.00,0.0090
683.00,0.0089
682.00,0.0089
681.00,0.0090
680.00,0.0090
679.00,0.0091
678.00,0.0091
677.00,0.0093
676.00,0.0095
675.00,0.0097
674.00,0.0098
673.00,0.0098
672.00,0.0098
671.00,0.0099
670.00,0.0099
669.00,0.0098
668.00,0.0098
667.00,0.0098
666.00,0.0095
665.00,0.0092
664.00,0.0089
663.00,0.0088
662.00,0.0088
661.00,0.0088
660.00,0.0089
659.00,0.0089
658.00,0.0088
657.00,0.0087
656.00,0.0086
655.00,0.0086
654.00,0.0085
653.00,0.0083
652.00,0.0082
651.00,0.0081
650.00,0.0082
649.00,0.0082
648.00,0.0083
647.00,0.0083
646.00,0.0084
645.00,0.0084
644.00,0.0084
643.00,0.0083
642.00,0.0082
641.00,0.0082
640.00,0.0081
639.00,0.0081
638.00,0.0081
637.00,0.0082
636.00,0.0083
635.00,0.0084
634.00,0.0083
633.00,0.0082
632.00,0.0081
631.00,0.0080
630.00,0.0081
629.00,0.0080
628.00,0.0079
627.00,0.0078
626.00,0.0078
625.00,0.0079
624.00,0.0082
623.00,0.0086
622.00,0.0089
621.00,0.0090
620.00,0.0088
619.00,0.0085
618.00,0.0083
617.00,0.0083
616.00,0.0085
615.00,0.0086
614.00,0.0085
613.00,0.0083
612.00,0.0080
611.00,0.0079
610.00,0.0079
609.00,0.0081
608.00,0.0083
607.00,0.0084
606.00,0.0084
605.00,0.0083
604.00,0.0082
603.00,0.0081
602.00,0.0081
601.00,0.0081
600.00,0.0079
599.00,0.0077
598.00,0.0078
597.00,0.0080
596.00,0.0082
595.00,0.0084
594.00,0.0084
593.00,0.0086
592.00,0.0087
591.00,0.0089
590.00,0.0088
589.00,0.0086
588.00,0.0082
587.00,0.0080
586.00,0.0080
585.00,0.0081
584.00,0.0082
583.00,0.0084
582.00,0.0084
581.00,0.0084
580.00,0.0085
579.00,0.0086
578.00,0.0087
577.00,0.0088
576.00,0.0088
575.00,0.0087
574.00,0.0086
573.00,0.0084
572.00,0.0083
571.00,0.0084
570.00,0.0086
569.00,0.0087
568.00,0.0086
567.00,0.0084
566.00,0.0083
565.00,0.0082
564.00,0.0081
563.00,0.0081
562.00,0.0082
561.00,0.0084
560.00,0.0084
559.00,0.0082
558.00,0.0080
557.00,0.0080
556.00,0.0080
555.00,0.0082
554.00,0.0084
553.00,0.0084
552.00,0.0083
551.00,0.0083
550.00,0.0084
549.00,0.0088
548.00,0.0091
547.00,0.0095
546.00,0.0098
545.00,0.0099
544.00,0.0100
543.00,0.0102
542.00,0.0105
541.00,0.0108
540.00,0.0110
539.00,0.0112
538.00,0.0112
537.00,0.0111
536.00,0.0111
535.00,0.0112
534.00,0.0115
533.00,0.0117
532.00,0.0116
531.00,0.0113
530.00,0.0111
529.00,0.0110
528.00,0.0110
527.00,0.0109
526.00,0.0106
525.00,0.0106
524.00,0.0106
523.00,0.0107
522.00,0.0105
521.00,0.0103
520.00,0.0103
519.00,0.0104
518.00,0.0104
517.00,0.0103
516.00,0.0102
515.00,0.0101
514.00,0.0099
513.00,0.0096
512.00,0.0092
511.00,0.0089
510.00,0.0090
509.00,0.0090
508.00,0.0089
507.00,0.0085
506.00,0.0082
505.00,0.0082
504.00,0.0086
503.00,0.0090
502.00,0.0090
501.00,0.0086
500.00,0.0079
499.00,0.0075
498.00,0.0076
497.00,0.0082
496.00,0.0088
495.00,0.0090
494.00,0.0089
493.00,0.0089
492.00,0.0092
491.00,0.0097
490.00,0.0098
489.00,0.0095
488.00,0.0093
487.00,0.0094
486.00,0.0096
485.00,0.0093
484.00,0.0086
483.00,0.0082
482.00,0.0085
481.00,0.0091
480.00,0.0096
479.00,0.0100
478.00,0.0105
477.00,0.0111
476.00,0.0116
475.00,0.0123
474.00,0.0131
473.00,0.0139
472.00,0.0145
471.00,0.0147
470.00,0.0150
469.00,0.0154
468.00,0.0159
467.00,0.0164
466.00,0.0167
465.00,0.0168
464.00,0.0170
463.00,0.0175
462.00,0.0186
461.00,0.0200
460.00,0.0210
459.00,0.0214
458.00,0.0214
457.00,0.0215
456.00,0.0216
455.00,0.0216
454.00,0.0208
453.00,0.0197
452.00,0.0187
451.00,0.0184
450.00,0.0182
