Created as New Dataset,Sample 036 By Administrator Date Wednesday, September 03 2025
cm-1,A
4000.00,0.0009
3999.00,0.0009
3998.00,0.0009
3997.00,0.0009
3996.00,0.0009
3995.00,0.0009
3994.00,0.0009
3993.00,0.0009
3992.00,0.0009
3991.00,0.0009
3990.00,0.0009
3989.00,0.0009
3988.00,0.0009
3987.00,0.0009
3986.00,0.0009
3985.00,0.0009
3984.00,0.0009
3983.00,0.0009
3982.00,0.0009
3981.00,0.0008
3980.00,0.0008
3979.00,0.0008
3978.00,0.0008
3977.00,0.0008
3976.00,0.0008
3975.00,0.0008
3974.00,0.0009
3973.00,0.0009
3972.00,0.0008
3971.00,0.0008
3970.00,0.0007
3969.00,0.0007
3968.00,0.0007
3967.00,0.0007
3966.00,0.0007
3965.00,0.0007
3964.00,0.0008
3963.00,0.0008
3962.00,0.0008
3961.00,0.0008
3960.00,0.0008
3959.00,0.0008
3958.00,0.0008
3957.00,0.0008
3956.00,0.0008
3955.00,0.0008
3954.00,0.0008
3953.00,0.0008
3952.00,0.0008
3951.00,0.0008
3950.00,0.0008
3949.00,0.0008
3948.00,0.0008
3947.00,0.0008
3946.00,0.0008
3945.00,0.0008
3944.00,0.0008
3943.00,0.0007
3942.00,0.0007
3941.00,0.0007
3940.00,0.0007
3939.00,0.0007
3938.00,0.0008
3937.00,0.0008
3936.00,0.0008
3935.00,0.0008
3934.00,0.0008
3933.00,0.0008
3932.00,0.0008
3931.00,0.0008
3930.00,0.0008
3929.00,0.0009
3928.00,0.0009
3927.00,0.0009
3926.00,0.0009
3925.00,0.0009
3924.00,0.0009
3923.00,0.0009
3922.00,0.0010
3921.00,0.0010
3920.00,0.0010
3919.00,0.0010
3918.00,0.0009
3917.00,0.0009
3916.00,0.0009
3915.00,0.0009
3914.00,0.0008
3913.00,0.0008
3912.00,0.0008
3911.00,0.0007
3910.00,0.0007
3909.00,0.0007
3908.00,0.0008
3907.00,0.0008
3906.00,0.0009
3905.00,0.0010
3904.00,0.0010
3903.00,0.0010
3902.00,0.0010
3901.00,0.0010
3900.00,0.0009
3899.00,0.0009
3898.00,0.0009
3897.00,0.0009
3896.00,0.0009
3895.00,0.0008
3894.00,0.0008
3893.00,0.0008
3892.00,0.0008
3891.00,0.0009
3890.00,0.0009
3889.00,0.0009
3888.00,0.0010
3887.00,0.0010
3886.00,0.0010
3885.00,0.0010
3884.00,0.0009
3883.00,0.0009
3882.00,0.0009
3881.00,0.0008
3880.00,0.0008
3879.00,0.0008
3878.00,0.0009
3877.00,0.0009
3876.00,0.0009
3875.00,0.0009
3874.00,0.0010
3873.00,0.0010
3872.00,0.0011
3871.00,0.0010
3870.00,0.0010
3869.00,0.0010
3868.00,0.0009
3867.00,0.0009
3866.00,0.0009
3865.00,0.0008
3864.00,0.0008
3863.00,0.0009
3862.00,0.0009
3861.00,0.0009
3860.00,0.0008
3859.00,0.0008
3858.00,0.0008
3857.00,0.0009
3856.00,0.0010
3855.00,0.0010
3854.00,0.0009
3853.00,0.0009
3852.00,0.0008
3851.00,0.0008
3850.00,0.0007
3849.00,0.0007
3848.00,0.0007
3847.00,0.0008
3846.00,0.0008
3845.00,0.0008
3844.00,0.0009
3843.00,0.0009
3842.00,0.0009
3841.00,0.0009
3840.00,0.0009
3839.00,0.0009
3838.00,0.0009
3837.00,0.0009
3836.00,0.0009
3835.00,0.0008
3834.00,0.0008
3833.00,0.0008
3832.00,0.0008
3831.00,0.0008
3830.00,0.0008
3829.00,0.0008
3828.00,0.0008
3827.00,0.0007
3826.00,0.0007
3825.00,0.0008
3824.00,0.0008
3823.00,0.0008
3822.00,0.0008
3821.00,0.0008
3820.00,0.0009
3819.00,0.0009
3818.00,0.0009
3817.00,0.0009
3816.00,0.0008
3815.00,0.0008
3814.00,0.0008
3813.00,0.0008
3812.00,0.0007
3811.00,0.0007
3810.00,0.0007
3809.00,0.0007
3808.00,0.0007
3807.00,0.0008
3806.00,0.0008
3805.00,0.0009
3804.00,0.0009
3803.00,0.0009
3802.00,0.0009
3801.00,0.0009
3800.00,0.0010
3799.00,0.0010
3798.00,0.0009
3797.00,0.0009
3796.00,0.0009
3795.00,0.0008
3794.00,0.0008
3793.00,0.0008
3792.00,0.0008
3791.00,0.0008
3790.00,0.0008
3789.00,0.0008
3788.00,0.0008
3787.00,0.0008
3786.00,0.0008
3785.00,0.0008
3784.00,0.0008
3783.00,0.0008
3782.00,0.0008
3781.00,0.0008
3780.00,0.0008
3779.00,0.0008
3778.00,0.0009
3777.00,0.0009
3776.00,0.0009
3775.00,0.0009
3774.00,0.0009
3773.00,0.0009
3772.00,0.0009
3771.00,0.0009
3770.00,0.0009
3769.00,0.0009
3768.00,0.0009
3767.00,0.0009
3766.00,0.0009
3765.00,0.0009
3764.00,0.0009
3763.00,0.0009
3762.00,0.0009
3761.00,0.0009
3760.00,0.0009
3759.00,0.0010
3758.00,0.0010
3757.00,0.0010
3756.00,0.0010
3755.00,0.0011
3754.00,0.0011
3753.00,0.0011
3752.00,0.0010
3751.00,0.0009
3750.00,0.0009
3749.00,0.0009
3748.00,0.0009
3747.00,0.0009
3746.00,0.0008
3745.00,0.0007
3744.00,0.0007
3743.00,0.0007
3742.00,0.0007
3741.00,0.0007
3740.00,0.0007
3739.00,0.0007
3738.00,0.0007
3737.00,0.0008
3736.00,0.0008
3735.00,0.0009
3734.00,0.0009
3733.00,0.0009
3732.00,0.0008
3731.00,0.0007
3730.00,0.0007
3729.00,0.0007
3728.00,0.0007
3727.00,0.0007
3726.00,0.0007
3725.00,0.0007
3724.00,0.0008
3723.00,0.0008
3722.00,0.0008
3721.00,0.0008
3720.00,0.0008
3719.00,0.0008
3718.00,0.0007
3717.00,0.0007
3716.00,0.0007
3715.00,0.0007
3714.00,0.0007
3713.00,0.0007
3712.00,0.0006
3711.00,0.0006
3710.00,0.0007
3709.00,0.0007
3708.00,0.0007
3707.00,0.0007
3706.00,0.0007
3705.00,0.0007
3704.00,0.0007
3703.00,0.0007
3702.00,0.0007
3701.00,0.0007
3700.00,0.0006
3699.00,0.0006
3698.00,0.0006
3697.00,0.0006
3696.00,0.0006
3695.00,0.0007
3694.00,0.0007
3693.00,0.0006
3692.00,0.0006
3691.00,0.0006
3690.00,0.0006
3689.00,0.0006
3688.00,0.0006
3687.00,0.0006
3686.00,0.0006
3685.00,0.0006
3684.00,0.0006
3683.00,0.0006
3682.00,0.0006
3681.00,0.0006
3680.00,0.0007
3679.00,0.0008
3678.00,0.0008
3677.00,0.0007
3676.00,0.0006
3675.00,0.0006
3674.00,0.0007
3673.00,0.0007
3672.00,0.0006
3671.00,0.0006
3670.00,0.0005
3669.00,0.0004
3668.00,0.0004
3667.00,0.0004
3666.00,0.0004
3665.00,0.0003
3664.00,0.0003
3663.00,0.0003
3662.00,0.0003
3661.00,0.0003
3660.00,0.0003
3659.00,0.0004
3658.00,0.0004
3657.00,0.0004
3656.00,0.0005
3655.00,0.0005
3654.00,0.0006
3653.00,0.0006
3652.00,0.0007
3651.00,0.0007
3650.00,0.0007
3649.00,0.0007
3648.00,0.0007
3647.00,0.0008
3646.00,0.0008
3645.00,0.0008
3644.00,0.0008
3643.00,0.0007
3642.00,0.0007
3641.00,0.0007
3640.00,0.0007
3639.00,0.0007
3638.00,0.0008
3637.00,0.0008
3636.00,0.0009
3635.00,0.0010
3634.00,0.0010
3633.00,0.0011
3632.00,0.0012
3631.00,0.0013
3630.00,0.0013
3629.00,0.0014
3628.00,0.0014
3627.00,0.0015
3626.00,0.0015
3625.00,0.0014
3624.00,0.0014
3623.00,0.0014
3622.00,0.0015
3621.00,0.0015
3620.00,0.0015
3619.00,0.0015
3618.00,0.0015
3617.00,0.0016
3616.00,0.0016
3615.00,0.0016
3614.00,0.0016
3613.00,0.0017
3612.00,0.0017
3611.00,0.0016
3610.00,0.0016
3609.00,0.0015
3608.00,0.0015
3607.00,0.0016
3606.00,0.0016
3605.00,0.0017
3604.00,0.0017
3603.00,0.0018
3602.00,0.0018
3601.00,0.0018
3600.00,0.0019
3599.00,0.0019
3598.00,0.0020
3597.00,0.0020
3596.00,0.0021
3595.00,0.0021
3594.00,0.0021
3593.00,0.0022
3592.00,0.0022
3591.00,0.0023
3590.00,0.0023
3589.00,0.0023
3588.00,0.0023
3587.00,0.0024
3586.00,0.0024
3585.00,0.0024
3584.00,0.0025
3583.00,0.0024
3582.00,0.0024
3581.00,0.0024
3580.00,0.0024
3579.00,0.0024
3578.00,0.0024
3577.00,0.0025
3576.00,0.0025
3575.00,0.0025
3574.00,0.0026
3573.00,0.0027
3572.00,0.0027
3571.00,0.0028
3570.00,0.0029
3569.00,0.0030
3568.00,0.0030
3567.00,0.0031
3566.00,0.0031
3565.00,0.0031
3564.00,0.0031
3563.00,0.0032
3562.00,0.0032
3561.00,0.0032
3560.00,0.0032
3559.00,0.0032
3558.00,0.0032
3557.00,0.0032
3556.00,0.0033
3555.00,0.0033
3554.00,0.0033
3553.00,0.0034
3552.00,0.0034
3551.00,0.0035
3550.00,0.0036
3549.00,0.0036
3548.00,0.0037
3547.00,0.0037
3546.00,0.0037
3545.00,0.0037
3544.00,0.0037
3543.00,0.0037
3542.00,0.0037
3541.00,0.0037
3540.00,0.0038
3539.00,0.0038
3538.00,0.0039
3537.00,0.0040
3536.00,0.0040
3535.00,0.0041
3534.00,0.0041
3533.00,0.0041
3532.00,0.0042
3531.00,0.0042
3530.00,0.0043
3529.00,0.0043
3528.00,0.0044
3527.00,0.0044
3526.00,0.0045
3525.00,0.0045
3524.00,0.0046
3523.00,0.0046
3522.00,0.0046
3521.00,0.0046
3520.00,0.0046
3519.00,0.0047
3518.00,0.0047
3517.00,0.0047
3516.00,0.0048
3515.00,0.0048
3514.00,0.0048
3513.00,0.0048
3512.00,0.0049
3511.00,0.0049
3510.00,0.0049
3509.00,0.0050
3508.00,0.0050
3507.00,0.0050
3506.00,0.0050
3505.00,0.0051
3504.00,0.0052
3503.00,0.0052
3502.00,0.0053
3501.00,0.0053
3500.00,0.0053
3499.00,0.0053
3498.00,0.0054
3497.00,0.0054
3496.00,0.0055
3495.00,0.0056
3494.00,0.0056
3493.00,0.0057
3492.00,0.0057
3491.00,0.0057
3490.00,0.0058
3489.00,0.0058
3488.00,0.0059
3487.00,0.0059
3486.00,0.0059
3485.00,0.0060
3484.00,0.0060
3483.00,0.0061
3482.00,0.0061
3481.00,0.0061
3480.00,0.0061
3479.00,0.0061
3478.00,0.0062
3477.00,0.0062
3476.00,0.0062
3475.00,0.0063
3474.00,0.0063
3473.00,0.0063
3472.00,0.0064
3471.00,0.0065
3470.00,0.0065
3469.00,0.0065
3468.00,0.0066
3467.00,0.0066
3466.00,0.0066
3465.00,0.0066
3464.00,0.0067
3463.00,0.0067
3462.00,0.0068
3461.00,0.0068
3460.00,0.0069
3459.00,0.0069
3458.00,0.0068
3457.00,0.0068
3456.00,0.0069
3455.00,0.0069
3454.00,0.0069
3453.00,0.0069
3452.00,0.0070
3451.00,0.0070
3450.00,0.0071
3449.00,0.0072
3448.00,0.0072
3447.00,0.0072
3446.00,0.0073
3445.00,0.0073
3444.00,0.0073
3443.00,0.0073
3442.00,0.0073
3441.00,0.0074
3440.00,0.0074
3439.00,0.0075
3438.00,0.0075
3437.00,0.0075
3436.00,0.0076
3435.00,0.0076
3434.00,0.0076
3433.00,0.0076
3432.00,0.0076
3431.00,0.0077
3430.00,0.0077
3429.00,0.0077
3428.00,0.0077
3427.00,0.0078
3426.00,0.0078
3425.00,0.0079
3424.00,0.0079
3423.00,0.0079
3422.00,0.0080
3421.00,0.0080
3420.00,0.0080
3419.00,0.0080
3418.00,0.0081
3417.00,0.0081
3416.00,0.0081
3415.00,0.0081
3414.00,0.0082
3413.00,0.0082
3412.00,0.0082
3411.00,0.0083
3410.00,0.0082
3409.00,0.0082
3408.00,0.0083
3407.00,0.0083
3406.00,0.0083
3405.00,0.0083
3404.00,0.0083
3403.00,0.0083
3402.00,0.0083
3401.00,0.0084
3400.00,0.0084
3399.00,0.0084
3398.00,0.0084
3397.00,0.0084
3396.00,0.0084
3395.00,0.0084
3394.00,0.0085
3393.00,0.0085
3392.00,0.0085
3391.00,0.0085
3390.00,0.0085
3389.00,0.0085
3388.00,0.0085
3387.00,0.0085
3386.00,0.0086
3385.00,0.0086
3384.00,0.0086
3383.00,0.0086
3382.00,0.0087
3381.00,0.0087
3380.00,0.0087
3379.00,0.0087
3378.00,0.0087
3377.00,0.0087
3376.00,0.0087
3375.00,0.0087
3374.00,0.0087
3373.00,0.0087
3372.00,0.0087
3371.00,0.0087
3370.00,0.0087
3369.00,0.0088
3368.00,0.0088
3367.00,0.0088
3366.00,0.0089
3365.00,0.0089
3364.00,0.0089
3363.00,0.0088
3362.00,0.0088
3361.00,0.0088
3360.00,0.0088
3359.00,0.0089
3358.00,0.0089
3357.00,0.0090
3356.00,0.0090
3355.00,0.0090
3354.00,0.0090
3353.00,0.0090
3352.00,0.0090
3351.00,0.0090
3350.00,0.0090
3349.00,0.0090
3348.00,0.0090
3347.00,0.0090
3346.00,0.0090
3345.00,0.0090
3344.00,0.0090
3343.00,0.0090
3342.00,0.0089
3341.00,0.0089
3340.00,0.0089
3339.00,0.0089
3338.00,0.0089
3337.00,0.0089
3336.00,0.0088
3335.00,0.0088
3334.00,0.0088
3333.00,0.0088
3332.00,0.0088
3331.00,0.0088
3330.00,0.0088
3329.00,0.0088
3328.00,0.0088
3327.00,0.0088
3326.00,0.0088
3325.00,0.0088
3324.00,0.0088
3323.00,0.0087
3322.00,0.0087
3321.00,0.0087
3320.00,0.0087
3319.00,0.0086
3318.00,0.0086
3317.00,0.0086
3316.00,0.0086
3315.00,0.0086
3314.00,0.0086
3313.00,0.0086
3312.00,0.0087
3311.00,0.0087
3310.00,0.0087
3309.00,0.0087
3308.00,0.0087
3307.00,0.0087
3306.00,0.0086
3305.00,0.0086
3304.00,0.0086
3303.00,0.0086
3302.00,0.0086
3301.00,0.0086
3300.00,0.0086
3299.00,0.0086
3298.00,0.0086
3297.00,0.0086
3296.00,0.0086
3295.00,0.0085
3294.00,0.0085
3293.00,0.0084
3292.00,0.0083
3291.00,0.0083
3290.00,0.0082
3289.00,0.0081
3288.00,0.0081
3287.00,0.0081
3286.00,0.0081
3285.00,0.0081
3284.00,0.0081
3283.00,0.0081
3282.00,0.0081
3281.00,0.0080
3280.00,0.0080
3279.00,0.0080
3278.00,0.0079
3277.00,0.0079
3276.00,0.0079
3275.00,0.0079
3274.00,0.0079
3273.00,0.0079
3272.00,0.0078
3271.00,0.0078
3270.00,0.0077
3269.00,0.0077
3268.00,0.0077
3267.00,0.0077
3266.00,0.0076
3265.00,0.0076
3264.00,0.0076
3263.00,0.0075
3262.00,0.0075
3261.00,0.0074
3260.00,0.0074
3259.00,0.0073
3258.00,0.0073
3257.00,0.0073
3256.00,0.0073
3255.00,0.0072
3254.00,0.0072
3253.00,0.0072
3252.00,0.0072
3251.00,0.0071
3250.00,0.0071
3249.00,0.0071
3248.00,0.0071
3247.00,0.0071
3246.00,0.0071
3245.00,0.0071
3244.00,0.0070
3243.00,0.0070
3242.00,0.0070
3241.00,0.0069
3240.00,0.0069
3239.00,0.0069
3238.00,0.0069
3237.00,0.0069
3236.00,0.0068
3235.00,0.0068
3234.00,0.0068
3233.00,0.0067
3232.00,0.0067
3231.00,0.0067
3230.00,0.0068
3229.00,0.0068
3228.00,0.0068
3227.00,0.0068
3226.00,0.0068
3225.00,0.0068
3224.00,0.0068
3223.00,0.0068
3222.00,0.0068
3221.00,0.0068
3220.00,0.0068
3219.00,0.0068
3218.00,0.0068
3217.00,0.0068
3216.00,0.0068
3215.00,0.0068
3214.00,0.0068
3213.00,0.0068
3212.00,0.0068
3211.00,0.0068
3210.00,0.0068
3209.00,0.0068
3208.00,0.0068
3207.00,0.0068
3206.00,0.0068
3205.00,0.0067
3204.00,0.0067
3203.00,0.0067
3202.00,0.0067
3201.00,0.0067
3200.00,0.0067
3199.00,0.0067
3198.00,0.0067
3197.00,0.0067
3196.00,0.0067
3195.00,0.0066
3194.00,0.0066
3193.00,0.0065
3192.00,0.0065
3191.00,0.0065
3190.00,0.0065
3189.00,0.0065
3188.00,0.0065
3187.00,0.0065
3186.00,0.0065
3185.00,0.0065
3184.00,0.0065
3183.00,0.0065
3182.00,0.0065
3181.00,0.0064
3180.00,0.0063
3179.00,0.0063
3178.00,0.0062
3177.00,0.0062
3176.00,0.0062
3175.00,0.0061
3174.00,0.0061
3173.00,0.0061
3172.00,0.0061
3171.00,0.0061
3170.00,0.0061
3169.00,0.0061
3168.00,0.0061
3167.00,0.0061
3166.00,0.0060
3165.00,0.0060
3164.00,0.0060
3163.00,0.0059
3162.00,0.0059
3161.00,0.0059
3160.00,0.0059
3159.00,0.0059
3158.00,0.0059
3157.00,0.0059
3156.00,0.0058
3155.00,0.0057
3154.00,0.0057
3153.00,0.0057
3152.00,0.0057
3151.00,0.0058
3150.00,0.0058
3149.00,0.0058
3148.00,0.0057
3147.00,0.0057
3146.00,0.0057
3145.00,0.0056
3144.00,0.0055
3143.00,0.0055
3142.00,0.0055
3141.00,0.0056
3140.00,0.0056
3139.00,0.0056
3138.00,0.0056
3137.00,0.0056
3136.00,0.0056
3135.00,0.0055
3134.00,0.0055
3133.00,0.0054
3132.00,0.0054
3131.00,0.0053
3130.00,0.0053
3129.00,0.0052
3128.00,0.0052
3127.00,0.0052
3126.00,0.0051
3125.00,0.0050
3124.00,0.0050
3123.00,0.0050
3122.00,0.0050
3121.00,0.0050
3120.00,0.0050
3119.00,0.0050
3118.00,0.0049
3117.00,0.0049
3116.00,0.0048
3115.00,0.0048
3114.00,0.0048
3113.00,0.0048
3112.00,0.0047
3111.00,0.0047
3110.00,0.0047
3109.00,0.0047
3108.00,0.0047
3107.00,0.0047
3106.00,0.0047
3105.00,0.0047
3104.00,0.0046
3103.00,0.0046
3102.00,0.0045
3101.00,0.0045
3100.00,0.0045
3099.00,0.0045
3098.00,0.0045
3097.00,0.0045
3096.00,0.0045
3095.00,0.0045
3094.00,0.0045
3093.00,0.0045
3092.00,0.0045
3091.00,0.0045
3090.00,0.0045
3089.00,0.0044
3088.00,0.0044
3087.00,0.0044
3086.00,0.0044
3085.00,0.0044
3084.00,0.0044
3083.00,0.0044
3082.00,0.0044
3081.00,0.0044
3080.00,0.0043
3079.00,0.0043
3078.00,0.0043
3077.00,0.0043
3076.00,0.0043
3075.00,0.0043
3074.00,0.0044
3073.00,0.0044
3072.00,0.0044
3071.00,0.0044
3070.00,0.0044
3069.00,0.0045
3068.00,0.0045
3067.00,0.0045
3066.00,0.0046
3065.00,0.0046
3064.00,0.0046
3063.00,0.0046
3062.00,0.0047
3061.00,0.0047
3060.00,0.0046
3059.00,0.0046
3058.00,0.0046
3057.00,0.0046
3056.00,0.0046
3055.00,0.0046
3054.00,0.0046
3053.00,0.0046
3052.00,0.0046
3051.00,0.0046
3050.00,0.0046
3049.00,0.0046
3048.00,0.0047
3047.00,0.0047
3046.00,0.0047
3045.00,0.0047
3044.00,0.0048
3043.00,0.0048
3042.00,0.0048
3041.00,0.0049
3040.00,0.0049
3039.00,0.0050
3038.00,0.0050
3037.00,0.0050
3036.00,0.0051
3035.00,0.0051
3034.00,0.0051
3033.00,0.0052
3032.00,0.0052
3031.00,0.0052
3030.00,0.0053
3029.00,0.0053
3028.00,0.0053
3027.00,0.0054
3026.00,0.0054
3025.00,0.0055
3024.00,0.0055
3023.00,0.0054
3022.00,0.0055
3021.00,0.0055
3020.00,0.0056
3019.00,0.0056
3018.00,0.0057
3017.00,0.0057
3016.00,0.0057
3015.00,0.0058
3014.00,0.0058
3013.00,0.0059
3012.00,0.0059
3011.00,0.0059
3010.00,0.0059
3009.00,0.0059
3008.00,0.0059
3007.00,0.0059
3006.00,0.0059
3005.00,0.0059
3004.00,0.0059
3003.00,0.0060
3002.00,0.0061
3001.00,0.0062
3000.00,0.0063
2999.00,0.0065
2998.00,0.0066
2997.00,0.0068
2996.00,0.0070
2995.00,0.0073
2994.00,0.0076
2993.00,0.0079
2992.00,0.0083
2991.00,0.0088
2990.00,0.0093
2989.00,0.0098
2988.00,0.0105
2987.00,0.0111
2986.00,0.0118
2985.00,0.0124
2984.00,0.0130
2983.00,0.0138
2982.00,0.0149
2981.00,0.0164
2980.00,0.0183
2979.00,0.0206
2978.00,0.0231
2977.00,0.0259
2976.00,0.0290
2975.00,0.0324
2974.00,0.0362
2973.00,0.0406
2972.00,0.0456
2971.00,0.0513
2970.00,0.0578
2969.00,0.0649
2968.00,0.0726
2967.00,0.0809
2966.00,0.0895
2965.00,0.0984
2964.00,0.1072
2963.00,0.1154
2962.00,0.1229
2961.00,0.1293
2960.00,0.1346
2959.00,0.1390
2958.00,0.1427
2957.00,0.1463
2956.00,0.1502
2955.00,0.1546
2954.00,0.1596
2953.00,0.1647
2952.00,0.1692
2951.00,0.1721
2950.00,0.1727
2949.00,0.1702
2948.00,0.1645
2947.00,0.1561
2946.00,0.1459
2945.00,0.1351
2944.00,0.1249
2943.00,0.1162
2942.00,0.1095
2941.00,0.1051
2940.00,0.1029
2939.00,0.1026
2938.00,0.1042
2937.00,0.1073
2936.00,0.1119
2935.00,0.1179
2934.00,0.1250
2933.00,0.1333
2932.00,0.1424
2931.00,0.1524
2930.00,0.1628
2929.00,0.1735
2928.00,0.1840
2927.00,0.1943
2926.00,0.2041
2925.00,0.2133
2924.00,0.2222
2923.00,0.2308
2922.00,0.2391
2921.00,0.2470
2920.00,0.2539
2919.00,0.2590
2918.00,0.2614
2917.00,0.2606
2916.00,0.2564
2915.00,0.2493
2914.00,0.2402
2913.00,0.2302
2912.00,0.2202
2911.00,0.2108
2910.00,0.2023
2909.00,0.1948
2908.00,0.1879
2907.00,0.1814
2906.00,0.1751
2905.00,0.1688
2904.00,0.1625
2903.00,0.1561
2902.00,0.1498
2901.00,0.1437
2900.00,0.1377
2899.00,0.1320
2898.00,0.1266
2897.00,0.1216
2896.00,0.1171
2895.00,0.1132
2894.00,0.1097
2893.00,0.1069
2892.00,0.1045
2891.00,0.1027
2890.00,0.1015
2889.00,0.1006
2888.00,0.1001
2887.00,0.1000
2886.00,0.1001
2885.00,0.1007
2884.00,0.1016
2883.00,0.1031
2882.00,0.1050
2881.00,0.1073
2880.00,0.1097
2879.00,0.1117
2878.00,0.1131
2877.00,0.1138
2876.00,0.1137
2875.00,0.1131
2874.00,0.1126
2873.00,0.1125
2872.00,0.1131
2871.00,0.1142
2870.00,0.1157
2869.00,0.1172
2868.00,0.1181
2867.00,0.1179
2866.00,0.1159
2865.00,0.1120
2864.00,0.1066
2863.00,0.1004
2862.00,0.0944
2861.00,0.0892
2860.00,0.0852
2859.00,0.0827
2858.00,0.0815
2857.00,0.0814
2856.00,0.0822
2855.00,0.0835
2854.00,0.0852
2853.00,0.0870
2852.00,0.0886
2851.00,0.0898
2850.00,0.0903
2849.00,0.0903
2848.00,0.0900
2847.00,0.0901
2846.00,0.0910
2845.00,0.0931
2844.00,0.0963
2843.00,0.1005
2842.00,0.1052
2841.00,0.1099
2840.00,0.1138
2839.00,0.1161
2838.00,0.1161
2837.00,0.1133
2836.00,0.1077
2835.00,0.0997
2834.00,0.0901
2833.00,0.0799
2832.00,0.0701
2831.00,0.0614
2830.00,0.0540
2829.00,0.0479
2828.00,0.0429
2827.00,0.0389
2826.00,0.0356
2825.00,0.0329
2824.00,0.0306
2823.00,0.0287
2822.00,0.0270
2821.00,0.0256
2820.00,0.0243
2819.00,0.0232
2818.00,0.0223
2817.00,0.0214
2816.00,0.0207
2815.00,0.0201
2814.00,0.0195
2813.00,0.0190
2812.00,0.0185
2811.00,0.0179
2810.00,0.0174
2809.00,0.0169
2808.00,0.0163
2807.00,0.0157
2806.00,0.0151
2805.00,0.0145
2804.00,0.0139
2803.00,0.0133
2802.00,0.0128
2801.00,0.0124
2800.00,0.0120
2799.00,0.0117
2798.00,0.0114
2797.00,0.0111
2796.00,0.0109
2795.00,0.0107
2794.00,0.0104
2793.00,0.0102
2792.00,0.0099
2791.00,0.0096
2790.00,0.0093
2789.00,0.0090
2788.00,0.0087
2787.00,0.0084
2786.00,0.0081
2785.00,0.0079
2784.00,0.0077
2783.00,0.0075
2782.00,0.0073
2781.00,0.0071
2780.00,0.0069
2779.00,0.0068
2778.00,0.0066
2777.00,0.0065
2776.00,0.0063
2775.00,0.0062
2774.00,0.0061
2773.00,0.0061
2772.00,0.0060
2771.00,0.0060
2770.00,0.0059
2769.00,0.0059
2768.00,0.0059
2767.00,0.0058
2766.00,0.0058
2765.00,0.0057
2764.00,0.0057
2763.00,0.0057
2762.00,0.0056
2761.00,0.0056
2760.00,0.0056
2759.00,0.0055
2758.00,0.0055
2757.00,0.0055
2756.00,0.0055
2755.00,0.0055
2754.00,0.0055
2753.00,0.0054
2752.00,0.0054
2751.00,0.0053
2750.00,0.0053
2749.00,0.0053
2748.00,0.0053
2747.00,0.0054
2746.00,0.0054
2745.00,0.0055
2744.00,0.0055
2743.00,0.0056
2742.00,0.0056
2741.00,0.0057
2740.00,0.0059
2739.00,0.0060
2738.00,0.0061
2737.00,0.0062
2736.00,0.0063
2735.00,0.0065
2734.00,0.0066
2733.00,0.0067
2732.00,0.0068
2731.00,0.0070
2730.00,0.0072
2729.00,0.0075
2728.00,0.0077
2727.00,0.0080
2726.00,0.0082
2725.00,0.0084
2724.00,0.0085
2723.00,0.0086
2722.00,0.0085
2721.00,0.0084
2720.00,0.0081
2719.00,0.0079
2718.00,0.0076
2717.00,0.0073
2716.00,0.0070
2715.00,0.0068
2714.00,0.0065
2713.00,0.0063
2712.00,0.0061
2711.00,0.0059
2710.00,0.0058
2709.00,0.0057
2708.00,0.0055
2707.00,0.0054
2706.00,0.0053
2705.00,0.0052
2704.00,0.0051
2703.00,0.0050
2702.00,0.0049
2701.00,0.0049
2700.00,0.0048
2699.00,0.0048
2698.00,0.0047
2697.00,0.0047
2696.00,0.0047
2695.00,0.0047
2694.00,0.0046
2693.00,0.0047
2692.00,0.0047
2691.00,0.0047
2690.00,0.0047
2689.00,0.0047
2688.00,0.0046
2687.00,0.0046
2686.00,0.0046
2685.00,0.0046
2684.00,0.0046
2683.00,0.0046
2682.00,0.0046
2681.00,0.0047
2680.00,0.0047
2679.00,0.0047
2678.00,0.0047
2677.00,0.0046
2676.00,0.0046
2675.00,0.0046
2674.00,0.0046
2673.00,0.0046
2672.00,0.0045
2671.00,0.0045
2670.00,0.0045
2669.00,0.0045
2668.00,0.0045
2667.00,0.0046
2666.00,0.0046
2665.00,0.0047
2664.00,0.0048
2663.00,0.0048
2662.00,0.0048
2661.00,0.0049
2660.00,0.0049
2659.00,0.0049
2658.00,0.0049
2657.00,0.0049
2656.00,0.0048
2655.00,0.0048
2654.00,0.0047
2653.00,0.0047
2652.00,0.0046
2651.00,0.0046
2650.00,0.0045
2649.00,0.0044
2648.00,0.0044
2647.00,0.0043
2646.00,0.0043
2645.00,0.0042
2644.00,0.0042
2643.00,0.0042
2642.00,0.0042
2641.00,0.0042
2640.00,0.0041
2639.00,0.0040
2638.00,0.0040
2637.00,0.0040
2636.00,0.0040
2635.00,0.0040
2634.00,0.0041
2633.00,0.0041
2632.00,0.0041
2631.00,0.0040
2630.00,0.0040
2629.00,0.0040
2628.00,0.0040
2627.00,0.0040
2626.00,0.0040
2625.00,0.0040
2624.00,0.0041
2623.00,0.0041
2622.00,0.0041
2621.00,0.0041
2620.00,0.0042
2619.00,0.0042
2618.00,0.0042
2617.00,0.0042
2616.00,0.0042
2615.00,0.0041
2614.00,0.0041
2613.00,0.0040
2612.00,0.0040
2611.00,0.0040
2610.00,0.0039
2609.00,0.0038
2608.00,0.0037
2607.00,0.0037
2606.00,0.0036
2605.00,0.0035
2604.00,0.0035
2603.00,0.0034
2602.00,0.0033
2601.00,0.0033
2600.00,0.0032
2599.00,0.0032
2598.00,0.0032
2597.00,0.0032
2596.00,0.0032
2595.00,0.0032
2594.00,0.0032
2593.00,0.0033
2592.00,0.0033
2591.00,0.0034
2590.00,0.0035
2589.00,0.0036
2588.00,0.0037
2587.00,0.0037
2586.00,0.0038
2585.00,0.0039
2584.00,0.0039
2583.00,0.0040
2582.00,0.0040
2581.00,0.0039
2580.00,0.0039
2579.00,0.0037
2578.00,0.0037
2577.00,0.0036
2576.00,0.0035
2575.00,0.0033
2574.00,0.0032
2573.00,0.0031
2572.00,0.0030
2571.00,0.0029
2570.00,0.0029
2569.00,0.0028
2568.00,0.0028
2567.00,0.0027
2566.00,0.0027
2565.00,0.0026
2564.00,0.0025
2563.00,0.0024
2562.00,0.0024
2561.00,0.0024
2560.00,0.0024
2559.00,0.0024
2558.00,0.0025
2557.00,0.0025
2556.00,0.0024
2555.00,0.0024
2554.00,0.0024
2553.00,0.0023
2552.00,0.0023
2551.00,0.0022
2550.00,0.0022
2549.00,0.0021
2548.00,0.0021
2547.00,0.0020
2546.00,0.0020
2545.00,0.0020
2544.00,0.0020
2543.00,0.0020
2542.00,0.0020
2541.00,0.0020
2540.00,0.0019
2539.00,0.0019
2538.00,0.0018
2537.00,0.0018
2536.00,0.0018
2535.00,0.0018
2534.00,0.0018
2533.00,0.0017
2532.00,0.0017
2531.00,0.0017
2530.00,0.0017
2529.00,0.0017
2528.00,0.0016
2527.00,0.0016
2526.00,0.0015
2525.00,0.0015
2524.00,0.0015
2523.00,0.0016
2522.00,0.0016
2521.00,0.0016
2520.00,0.0016
2519.00,0.0015
2518.00,0.0014
2517.00,0.0014
2516.00,0.0013
2515.00,0.0013
2514.00,0.0012
2513.00,0.0012
2512.00,0.0012
2511.00,0.0012
2510.00,0.0012
2509.00,0.0012
2508.00,0.0013
2507.00,0.0012
2506.00,0.0012
2505.00,0.0011
2504.00,0.0011
2503.00,0.0011
2502.00,0.0012
2501.00,0.0012
2500.00,0.0012
2499.00,0.0013
2498.00,0.0013
2497.00,0.0013
2496.00,0.0013
2495.00,0.0013
2494.00,0.0012
2493.00,0.0012
2492.00,0.0011
2491.00,0.0011
2490.00,0.0012
2489.00,0.0013
2488.00,0.0014
2487.00,0.0014
2486.00,0.0013
2485.00,0.0013
2484.00,0.0013
2483.00,0.0013
2482.00,0.0012
2481.00,0.0012
2480.00,0.0012
2479.00,0.0012
2478.00,0.0012
2477.00,0.0012
2476.00,0.0012
2475.00,0.0012
2474.00,0.0012
2473.00,0.0012
2472.00,0.0011
2471.00,0.0011
2470.00,0.0011
2469.00,0.0011
2468.00,0.0011
2467.00,0.0011
2466.00,0.0012
2465.00,0.0013
2464.00,0.0013
2463.00,0.0013
2462.00,0.0013
2461.00,0.0013
2460.00,0.0013
2459.00,0.0013
2458.00,0.0013
2457.00,0.0013
2456.00,0.0013
2455.00,0.0013
2454.00,0.0012
2453.00,0.0012
2452.00,0.0011
2451.00,0.0011
2450.00,0.0012
2449.00,0.0012
2448.00,0.0013
2447.00,0.0013
2446.00,0.0013
2445.00,0.0013
2444.00,0.0013
2443.00,0.0012
2442.00,0.0012
2441.00,0.0012
2440.00,0.0012
2439.00,0.0012
2438.00,0.0012
2437.00,0.0012
2436.00,0.0012
2435.00,0.0012
2434.00,0.0012
2433.00,0.0012
2432.00,0.0013
2431.00,0.0013
2430.00,0.0013
2429.00,0.0013
2428.00,0.0013
2427.00,0.0013
2426.00,0.0012
2425.00,0.0011
2424.00,0.0011
2423.00,0.0011
2422.00,0.0011
2421.00,0.0011
2420.00,0.0010
2419.00,0.0010
2418.00,0.0010
2417.00,0.0011
2416.00,0.0012
2415.00,0.0012
2414.00,0.0012
2413.00,0.0012
2412.00,0.0012
2411.00,0.0013
2410.00,0.0013
2409.00,0.0013
2408.00,0.0013
2407.00,0.0012
2406.00,0.0012
2405.00,0.0011
2404.00,0.0010
2403.00,0.0010
2402.00,0.0010
2401.00,0.0010
2400.00,0.0010
2399.00,0.0010
2398.00,0.0010
2397.00,0.0010
2396.00,0.0010
2395.00,0.0010
2394.00,0.0010
2393.00,0.0010
2392.00,0.0010
2391.00,0.0010
2390.00,0.0009
2389.00,0.0009
2388.00,0.0009
2387.00,0.0008
2386.00,0.0008
2385.00,0.0007
2384.00,0.0006
2383.00,0.0005
2382.00,0.0004
2381.00,0.0003
2380.00,0.0003
2379.00,0.0003
2378.00,0.0003
2377.00,0.0004
2376.00,0.0005
2375.00,0.0005
2374.00,0.0005
2373.00,0.0005
2372.00,0.0005
2371.00,0.0005
2370.00,0.0005
2369.00,0.0005
2368.00,0.0005
2367.00,0.0004
2366.00,0.0003
2365.00,0.0003
2364.00,0.0003
2363.00,0.0004
2362.00,0.0004
2361.00,0.0005
2360.00,0.0006
2359.00,0.0006
2358.00,0.0007
2357.00,0.0007
2356.00,0.0007
2355.00,0.0007
2354.00,0.0007
2353.00,0.0007
2352.00,0.0007
2351.00,0.0007
2350.00,0.0007
2349.00,0.0007
2348.00,0.0007
2347.00,0.0008
2346.00,0.0008
2345.00,0.0008
2344.00,0.0007
2343.00,0.0007
2342.00,0.0007
2341.00,0.0008
2340.00,0.0009
2339.00,0.0010
2338.00,0.0010
2337.00,0.0010
2336.00,0.0010
2335.00,0.0010
2334.00,0.0011
2333.00,0.0011
2332.00,0.0011
2331.00,0.0010
2330.00,0.0010
2329.00,0.0009
2328.00,0.0010
2327.00,0.0013
2326.00,0.0017
2325.00,0.0020
2324.00,0.0022
2323.00,0.0021
2322.00,0.0019
2321.00,0.0017
2320.00,0.0015
2319.00,0.0014
2318.00,0.0013
2317.00,0.0013
2316.00,0.0013
2315.00,0.0013
2314.00,0.0012
2313.00,0.0011
2312.00,0.0010
2311.00,0.0010
2310.00,0.0009
2309.00,0.0009
2308.00,0.0009
2307.00,0.0009
2306.00,0.0009
2305.00,0.0009
2304.00,0.0010
2303.00,0.0010
2302.00,0.0010
2301.00,0.0010
2300.00,0.0009
2299.00,0.0009
2298.00,0.0010
2297.00,0.0011
2296.00,0.0012
2295.00,0.0013
2294.00,0.0014
2293.00,0.0014
2292.00,0.0015
2291.00,0.0015
2290.00,0.0016
2289.00,0.0016
2288.00,0.0017
2287.00,0.0018
2286.00,0.0019
2285.00,0.0019
2284.00,0.0019
2283.00,0.0019
2282.00,0.0019
2281.00,0.0018
2280.00,0.0017
2279.00,0.0016
2278.00,0.0015
2277.00,0.0015
2276.00,0.0016
2275.00,0.0016
2274.00,0.0016
2273.00,0.0014
2272.00,0.0013
2271.00,0.0013
2270.00,0.0013
2269.00,0.0014
2268.00,0.0015
2267.00,0.0014
2266.00,0.0013
2265.00,0.0012
2264.00,0.0012
2263.00,0.0013
2262.00,0.0015
2261.00,0.0015
2260.00,0.0015
2259.00,0.0015
2258.00,0.0014
2257.00,0.0014
2256.00,0.0013
2255.00,0.0013
2254.00,0.0013
2253.00,0.0012
2252.00,0.0012
2251.00,0.0012
2250.00,0.0012
2249.00,0.0012
2248.00,0.0011
2247.00,0.0011
2246.00,0.0012
2245.00,0.0013
2244.00,0.0013
2243.00,0.0013
2242.00,0.0012
2241.00,0.0012
2240.00,0.0012
2239.00,0.0013
2238.00,0.0013
2237.00,0.0014
2236.00,0.0014
2235.00,0.0013
2234.00,0.0012
2233.00,0.0012
2232.00,0.0012
2231.00,0.0013
2230.00,0.0013
2229.00,0.0012
2228.00,0.0011
2227.00,0.0010
2226.00,0.0009
2225.00,0.0009
2224.00,0.0009
2223.00,0.0009
2222.00,0.0008
2221.00,0.0007
2220.00,0.0007
2219.00,0.0008
2218.00,0.0009
2217.00,0.0009
2216.00,0.0009
2215.00,0.0008
2214.00,0.0006
2213.00,0.0004
2212.00,0.0004
2211.00,0.0006
2210.00,0.0009
2209.00,0.0010
2208.00,0.0011
2207.00,0.0009
2206.00,0.0007
2205.00,0.0006
2204.00,0.0006
2203.00,0.0006
2202.00,0.0008
2201.00,0.0011
2200.00,0.0014
2199.00,0.0016
2198.00,0.0017
2197.00,0.0016
2196.00,0.0015
2195.00,0.0013
2194.00,0.0011
2193.00,0.0009
2192.00,0.0008
2191.00,0.0006
2190.00,0.0006
2189.00,0.0007
2188.00,0.0009
2187.00,0.0012
2186.00,0.0015
2185.00,0.0016
2184.00,0.0016
2183.00,0.0014
2182.00,0.0009
2181.00,0.0006
2180.00,0.0004
2179.00,0.0005
2178.00,0.0006
2177.00,0.0007
2176.00,0.0006
2175.00,0.0005
2174.00,0.0006
2173.00,0.0008
2172.00,0.0012
2171.00,0.0016
2170.00,0.0018
2169.00,0.0019
2168.00,0.0018
2167.00,0.0017
2166.00,0.0018
2165.00,0.0021
2164.00,0.0025
2163.00,0.0029
2162.00,0.0028
2161.00,0.0021
2160.00,0.0006
2159.00,-0.0011
2158.00,-0.0025
2157.00,-0.0031
2156.00,-0.0029
2155.00,-0.0025
2154.00,-0.0022
2153.00,-0.0019
2152.00,-0.0017
2151.00,-0.0014
2150.00,-0.0011
2149.00,-0.0009
2148.00,-0.0007
2147.00,-0.0005
2146.00,-0.0005
2145.00,-0.0005
2144.00,-0.0006
2143.00,-0.0007
2142.00,-0.0008
2141.00,-0.0007
2140.00,-0.0005
2139.00,-0.0003
2138.00,-0.0002
2137.00,-0.0002
2136.00,-0.0003
2135.00,-0.0007
2134.00,-0.0011
2133.00,-0.0013
2132.00,-0.0013
2131.00,-0.0011
2130.00,-0.0008
2129.00,-0.0006
2128.00,-0.0004
2127.00,-0.0002
2126.00,-0.0001
2125.00,-0.0001
2124.00,-0.0001
2123.00,-0.0001
2122.00,-0.0001
2121.00,-0.0002
2120.00,-0.0001
2119.00,-0.0000
2118.00,0.0001
2117.00,0.0003
2116.00,0.0004
2115.00,0.0006
2114.00,0.0006
2113.00,0.0007
2112.00,0.0008
2111.00,0.0007
2110.00,0.0006
2109.00,0.0005
2108.00,0.0004
2107.00,0.0003
2106.00,0.0003
2105.00,0.0003
2104.00,0.0003
2103.00,0.0003
2102.00,0.0003
2101.00,0.0004
2100.00,0.0006
2099.00,0.0007
2098.00,0.0006
2097.00,0.0004
2096.00,0.0001
2095.00,-0.0001
2094.00,-0.0001
2093.00,0.0000
2092.00,0.0002
2091.00,0.0004
2090.00,0.0005
2089.00,0.0004
2088.00,0.0004
2087.00,0.0004
2086.00,0.0005
2085.00,0.0005
2084.00,0.0006
2083.00,0.0005
2082.00,0.0005
2081.00,0.0004
2080.00,0.0004
2079.00,0.0004
2078.00,0.0005
2077.00,0.0006
2076.00,0.0007
2075.00,0.0007
2074.00,0.0007
2073.00,0.0007
2072.00,0.0007
2071.00,0.0007
2070.00,0.0007
2069.00,0.0006
2068.00,0.0004
2067.00,0.0002
2066.00,-0.0000
2065.00,-0.0000
2064.00,0.0001
2063.00,0.0003
2062.00,0.0004
2061.00,0.0005
2060.00,0.0005
2059.00,0.0004
2058.00,0.0004
2057.00,0.0005
2056.00,0.0005
2055.00,0.0005
2054.00,0.0006
2053.00,0.0009
2052.00,0.0014
2051.00,0.0017
2050.00,0.0015
2049.00,0.0010
2048.00,0.0005
2047.00,0.0003
2046.00,0.0004
2045.00,0.0005
2044.00,0.0006
2043.00,0.0006
2042.00,0.0005
2041.00,0.0003
2040.00,0.0002
2039.00,0.0002
2038.00,0.0002
2037.00,0.0002
2036.00,0.0001
2035.00,-0.0002
2034.00,-0.0005
2033.00,-0.0008
2032.00,-0.0010
2031.00,-0.0011
2030.00,-0.0011
2029.00,-0.0010
2028.00,-0.0009
2027.00,-0.0009
2026.00,-0.0009
2025.00,-0.0007
2024.00,-0.0007
2023.00,-0.0008
2022.00,-0.0011
2021.00,-0.0014
2020.00,-0.0015
2019.00,-0.0012
2018.00,-0.0009
2017.00,-0.0006
2016.00,-0.0005
2015.00,-0.0004
2014.00,-0.0005
2013.00,-0.0004
2012.00,-0.0003
2011.00,-0.0000
2010.00,0.0001
2009.00,-0.0000
2008.00,-0.0004
2007.00,-0.0010
2006.00,-0.0014
2005.00,-0.0014
2004.00,-0.0013
2003.00,-0.0011
2002.00,-0.0009
2001.00,-0.0007
2000.00,-0.0004
1999.00,-0.0001
1998.00,-0.0000
1997.00,-0.0002
1996.00,-0.0004
1995.00,-0.0006
1994.00,-0.0007
1993.00,-0.0006
1992.00,-0.0004
1991.00,-0.0003
1990.00,-0.0004
1989.00,-0.0006
1988.00,-0.0007
1987.00,-0.0007
1986.00,-0.0004
1985.00,0.0000
1984.00,0.0005
1983.00,0.0008
1982.00,0.0010
1981.00,0.0009
1980.00,0.0006
1979.00,0.0002
1978.00,-0.0003
1977.00,-0.0006
1976.00,-0.0007
1975.00,-0.0008
1974.00,-0.0010
1973.00,-0.0012
1972.00,-0.0012
1971.00,-0.0011
1970.00,-0.0009
1969.00,-0.0007
1968.00,-0.0007
1967.00,-0.0009
1966.00,-0.0011
1965.00,-0.0012
1964.00,-0.0011
1963.00,-0.0010
1962.00,-0.0010
1961.00,-0.0010
1960.00,-0.0011
1959.00,-0.0012
1958.00,-0.0014
1957.00,-0.0014
1956.00,-0.0013
1955.00,-0.0011
1954.00,-0.0009
1953.00,-0.0009
1952.00,-0.0010
1951.00,-0.0011
1950.00,-0.0012
1949.00,-0.0012
1948.00,-0.0012
1947.00,-0.0012
1946.00,-0.0012
1945.00,-0.0012
1944.00,-0.0013
1943.00,-0.0013
1942.00,-0.0012
1941.00,-0.0011
1940.00,-0.0009
1939.00,-0.0008
1938.00,-0.0007
1937.00,-0.0006
1936.00,-0.0005
1935.00,-0.0004
1934.00,-0.0004
1933.00,-0.0004
1932.00,-0.0005
1931.00,-0.0006
1930.00,-0.0006
1929.00,-0.0005
1928.00,-0.0004
1927.00,-0.0003
1926.00,-0.0003
1925.00,-0.0004
1924.00,-0.0004
1923.00,-0.0004
1922.00,-0.0003
1921.00,-0.0003
1920.00,-0.0003
1919.00,-0.0003
1918.00,-0.0002
1917.00,-0.0000
1916.00,0.0001
1915.00,0.0000
1914.00,-0.0001
1913.00,-0.0002
1912.00,-0.0002
1911.00,-0.0001
1910.00,-0.0000
1909.00,0.0001
1908.00,0.0001
1907.00,0.0000
1906.00,-0.0001
1905.00,-0.0001
1904.00,-0.0000
1903.00,0.0000
1902.00,0.0001
1901.00,0.0002
1900.00,0.0002
1899.00,0.0002
1898.00,0.0002
1897.00,0.0002
1896.00,0.0003
1895.00,0.0003
1894.00,0.0003
1893.00,0.0002
1892.00,0.0001
1891.00,-0.0000
1890.00,-0.0000
1889.00,0.0000
1888.00,0.0001
1887.00,0.0002
1886.00,0.0001
1885.00,0.0000
1884.00,-0.0000
1883.00,-0.0001
1882.00,-0.0002
1881.00,-0.0002
1880.00,-0.0001
1879.00,-0.0001
1878.00,-0.0000
1877.00,0.0000
1876.00,0.0001
1875.00,0.0001
1874.00,0.0001
1873.00,0.0001
1872.00,0.0001
1871.00,0.0000
1870.00,0.0000
1869.00,0.0001
1868.00,0.0002
1867.00,0.0003
1866.00,0.0003
1865.00,0.0003
1864.00,0.0003
1863.00,0.0002
1862.00,0.0002
1861.00,0.0002
1860.00,0.0002
1859.00,0.0003
1858.00,0.0004
1857.00,0.0004
1856.00,0.0005
1855.00,0.0004
1854.00,0.0004
1853.00,0.0004
1852.00,0.0004
1851.00,0.0004
1850.00,0.0004
1849.00,0.0004
1848.00,0.0005
1847.00,0.0005
1846.00,0.0006
1845.00,0.0006
1844.00,0.0006
1843.00,0.0006
1842.00,0.0005
1841.00,0.0004
1840.00,0.0004
1839.00,0.0003
1838.00,0.0003
1837.00,0.0004
1836.00,0.0004
1835.00,0.0005
1834.00,0.0005
1833.00,0.0005
1832.00,0.0005
1831.00,0.0005
1830.00,0.0005
1829.00,0.0006
1828.00,0.0006
1827.00,0.0006
1826.00,0.0006
1825.00,0.0005
1824.00,0.0006
1823.00,0.0006
1822.00,0.0006
1821.00,0.0006
1820.00,0.0005
1819.00,0.0004
1818.00,0.0002
1817.00,0.0002
1816.00,0.0002
1815.00,0.0002
1814.00,0.0003
1813.00,0.0004
1812.00,0.0004
1811.00,0.0005
1810.00,0.0006
1809.00,0.0006
1808.00,0.0007
1807.00,0.0007
1806.00,0.0007
1805.00,0.0007
1804.00,0.0007
1803.00,0.0007
1802.00,0.0006
1801.00,0.0006
1800.00,0.0006
1799.00,0.0007
1798.00,0.0008
1797.00,0.0008
1796.00,0.0008
1795.00,0.0008
1794.00,0.0008
1793.00,0.0009
1792.00,0.0009
1791.00,0.0009
1790.00,0.0009
1789.00,0.0009
1788.00,0.0009
1787.00,0.0010
1786.00,0.0010
1785.00,0.0010
1784.00,0.0010
1783.00,0.0010
1782.00,0.0011
1781.00,0.0011
1780.00,0.0011
1779.00,0.0011
1778.00,0.0011
1777.00,0.0010
1776.00,0.0011
1775.00,0.0011
1774.00,0.0011
1773.00,0.0012
1772.00,0.0012
1771.00,0.0013
1770.00,0.0013
1769.00,0.0013
1768.00,0.0012
1767.00,0.0012
1766.00,0.0013
1765.00,0.0014
1764.00,0.0015
1763.00,0.0015
1762.00,0.0016
1761.00,0.0016
1760.00,0.0016
1759.00,0.0016
1758.00,0.0016
1757.00,0.0017
1756.00,0.0018
1755.00,0.0019
1754.00,0.0019
1753.00,0.0020
1752.00,0.0021
1751.00,0.0021
1750.00,0.0022
1749.00,0.0023
1748.00,0.0024
1747.00,0.0025
1746.00,0.0026
1745.00,0.0027
1744.00,0.0028
1743.00,0.0029
1742.00,0.0029
1741.00,0.0030
1740.00,0.0031
1739.00,0.0032
1738.00,0.0032
1737.00,0.0031
1736.00,0.0031
1735.00,0.0031
1734.00,0.0032
1733.00,0.0032
1732.00,0.0033
1731.00,0.0033
1730.00,0.0033
1729.00,0.0033
1728.00,0.0033
1727.00,0.0033
1726.00,0.0033
1725.00,0.0033
1724.00,0.0033
1723.00,0.0034
1722.00,0.0034
1721.00,0.0034
1720.00,0.0034
1719.00,0.0032
1718.00,0.0030
1717.00,0.0029
1716.00,0.0030
1715.00,0.0031
1714.00,0.0031
1713.00,0.0032
1712.00,0.0032
1711.00,0.0032
1710.00,0.0031
1709.00,0.0031
1708.00,0.0032
1707.00,0.0032
1706.00,0.0032
1705.00,0.0032
1704.00,0.0032
1703.00,0.0032
1702.00,0.0032
1701.00,0.0033
1700.00,0.0035
1699.00,0.0036
1698.00,0.0037
1697.00,0.0037
1696.00,0.0039
1695.00,0.0041
1694.00,0.0043
1693.00,0.0044
1692.00,0.0045
1691.00,0.0047
1690.00,0.0048
1689.00,0.0050
1688.00,0.0052
1687.00,0.0054
1686.00,0.0055
1685.00,0.0056
1684.00,0.0058
1683.00,0.0061
1682.00,0.0062
1681.00,0.0063
1680.00,0.0065
1679.00,0.0066
1678.00,0.0068
1677.00,0.0069
1676.00,0.0071
1675.00,0.0074
1674.00,0.0075
1673.00,0.0076
1672.00,0.0076
1671.00,0.0077
1670.00,0.0078
1669.00,0.0079
1668.00,0.0080
1667.00,0.0081
1666.00,0.0081
1665.00,0.0082
1664.00,0.0082
1663.00,0.0083
1662.00,0.0084
1661.00,0.0086
1660.00,0.0087
1659.00,0.0088
1658.00,0.0088
1657.00,0.0089
1656.00,0.0090
1655.00,0.0091
1654.00,0.0091
1653.00,0.0092
1652.00,0.0094
1651.00,0.0094
1650.00,0.0094
1649.00,0.0095
1648.00,0.0096
1647.00,0.0097
1646.00,0.0098
1645.00,0.0100
1644.00,0.0101
1643.00,0.0101
1642.00,0.0102
1641.00,0.0102
1640.00,0.0103
1639.00,0.0104
1638.00,0.0105
1637.00,0.0106
1636.00,0.0106
1635.00,0.0106
1634.00,0.0106
1633.00,0.0106
1632.00,0.0105
1631.00,0.0104
1630.00,0.0104
1629.00,0.0103
1628.00,0.0102
1627.00,0.0102
1626.00,0.0101
1625.00,0.0101
1624.00,0.0101
1623.00,0.0100
1622.00,0.0099
1621.00,0.0099
1620.00,0.0098
1619.00,0.0098
1618.00,0.0097
1617.00,0.0096
1616.00,0.0095
1615.00,0.0095
1614.00,0.0095
1613.00,0.0095
1612.00,0.0095
1611.00,0.0095
1610.00,0.0095
1609.00,0.0095
1608.00,0.0094
1607.00,0.0094
1606.00,0.0094
1605.00,0.0093
1604.00,0.0093
1603.00,0.0092
1602.00,0.0092
1601.00,0.0092
1600.00,0.0092
1599.00,0.0092
1598.00,0.0092
1597.00,0.0092
1596.00,0.0092
1595.00,0.0092
1594.00,0.0092
1593.00,0.0092
1592.00,0.0092
1591.00,0.0092
1590.00,0.0092
1589.00,0.0093
1588.00,0.0094
1587.00,0.0096
1586.00,0.0097
1585.00,0.0099
1584.00,0.0101
1583.00,0.0104
1582.00,0.0106
1581.00,0.0109
1580.00,0.0112
1579.00,0.0114
1578.00,0.0115
1577.00,0.0115
1576.00,0.0115
1575.00,0.0115
1574.00,0.0114
1573.00,0.0113
1572.00,0.0112
1571.00,0.0111
1570.00,0.0109
1569.00,0.0108
1568.00,0.0107
1567.00,0.0106
1566.00,0.0106
1565.00,0.0105
1564.00,0.0105
1563.00,0.0105
1562.00,0.0106
1561.00,0.0107
1560.00,0.0108
1559.00,0.0107
1558.00,0.0108
1557.00,0.0109
1556.00,0.0109
1555.00,0.0110
1554.00,0.0111
1553.00,0.0112
1552.00,0.0114
1551.00,0.0116
1550.00,0.0118
1549.00,0.0120
1548.00,0.0122
1547.00,0.0125
1546.00,0.0127
1545.00,0.0129
1544.00,0.0131
1543.00,0.0133
1542.00,0.0133
1541.00,0.0133
1540.00,0.0130
1539.00,0.0126
1538.00,0.0122
1537.00,0.0119
1536.00,0.0116
1535.00,0.0112
1534.00,0.0107
1533.00,0.0102
1532.00,0.0098
1531.00,0.0096
1530.00,0.0094
1529.00,0.0092
1528.00,0.0090
1527.00,0.0087
1526.00,0.0084
1525.00,0.0083
1524.00,0.0083
1523.00,0.0083
1522.00,0.0082
1521.00,0.0082
1520.00,0.0082
1519.00,0.0082
1518.00,0.0082
1517.00,0.0082
1516.00,0.0082
1515.00,0.0081
1514.00,0.0080
1513.00,0.0080
1512.00,0.0081
1511.00,0.0081
1510.00,0.0082
1509.00,0.0082
1508.00,0.0082
1507.00,0.0081
1506.00,0.0081
1505.00,0.0084
1504.00,0.0086
1503.00,0.0087
1502.00,0.0089
1501.00,0.0092
1500.00,0.0096
1499.00,0.0099
1498.00,0.0102
1497.00,0.0105
1496.00,0.0109
1495.00,0.0112
1494.00,0.0114
1493.00,0.0118
1492.00,0.0123
1491.00,0.0128
1490.00,0.0133
1489.00,0.0139
1488.00,0.0145
1487.00,0.0150
1486.00,0.0156
1485.00,0.0162
1484.00,0.0170
1483.00,0.0178
1482.00,0.0187
1481.00,0.0198
1480.00,0.0211
1479.00,0.0223
1478.00,0.0238
1477.00,0.0259
1476.00,0.0283
1475.00,0.0312
1474.00,0.0351
1473.00,0.0405
1472.00,0.0470
1471.00,0.0534
1470.00,0.0595
1469.00,0.0658
1468.00,0.0726
1467.00,0.0800
1466.00,0.0883
1465.00,0.0971
1464.00,0.1048
1463.00,0.1100
1462.00,0.1133
1461.00,0.1154
1460.00,0.1169
1459.00,0.1178
1458.00,0.1186
1457.00,0.1192
1456.00,0.1190
1455.00,0.1181
1454.00,0.1168
1453.00,0.1151
1452.00,0.1124
1451.00,0.1087
1450.00,0.1037
1449.00,0.0968
1448.00,0.0881
1447.00,0.0790
1446.00,0.0707
1445.00,0.0637
1444.00,0.0577
1443.00,0.0529
1442.00,0.0492
1441.00,0.0467
1440.00,0.0451
1439.00,0.0445
1438.00,0.0445
1437.00,0.0446
1436.00,0.0437
1435.00,0.0415
1434.00,0.0381
1433.00,0.0341
1432.00,0.0298
1431.00,0.0259
1430.00,0.0229
1429.00,0.0206
1428.00,0.0191
1427.00,0.0181
1426.00,0.0175
1425.00,0.0170
1424.00,0.0165
1423.00,0.0161
1422.00,0.0159
1421.00,0.0157
1420.00,0.0154
1419.00,0.0151
1418.00,0.0149
1417.00,0.0145
1416.00,0.0142
1415.00,0.0140
1414.00,0.0138
1413.00,0.0136
1412.00,0.0134
1411.00,0.0132
1410.00,0.0131
1409.00,0.0130
1408.00,0.0129
1407.00,0.0128
1406.00,0.0128
1405.00,0.0127
1404.00,0.0125
1403.00,0.0125
1402.00,0.0126
1401.00,0.0126
1400.00,0.0126
1399.00,0.0127
1398.00,0.0129
1397.00,0.0130
1396.00,0.0131
1395.00,0.0133
1394.00,0.0137
1393.00,0.0141
1392.00,0.0146
1391.00,0.0153
1390.00,0.0162
1389.00,0.0175
1388.00,0.0195
1387.00,0.0224
1386.00,0.0263
1385.00,0.0315
1384.00,0.0389
1383.00,0.0494
1382.00,0.0640
1381.00,0.0829
1380.00,0.1062
1379.00,0.1324
1378.00,0.1569
1377.00,0.1739
1376.00,0.1785
1375.00,0.1682
1374.00,0.1463
1373.00,0.1206
1372.00,0.0975
1371.00,0.0787
1370.00,0.0638
1369.00,0.0525
1368.00,0.0447
1367.00,0.0399
1366.00,0.0372
1365.00,0.0362
1364.00,0.0364
1363.00,0.0376
1362.00,0.0395
1361.00,0.0416
1360.00,0.0432
1359.00,0.0438
1358.00,0.0430
1357.00,0.0408
1356.00,0.0376
1355.00,0.0339
1354.00,0.0303
1353.00,0.0272
1352.00,0.0247
1351.00,0.0226
1350.00,0.0209
1349.00,0.0196
1348.00,0.0185
1347.00,0.0176
1346.00,0.0168
1345.00,0.0161
1344.00,0.0155
1343.00,0.0150
1342.00,0.0145
1341.00,0.0140
1340.00,0.0136
1339.00,0.0133
1338.00,0.0132
1337.00,0.0131
1336.00,0.0132
1335.00,0.0134
1334.00,0.0137
1333.00,0.0142
1332.00,0.0146
1331.00,0.0150
1330.00,0.0151
1329.00,0.0150
1328.00,0.0147
1327.00,0.0142
1326.00,0.0136
1325.00,0.0130
1324.00,0.0124
1323.00,0.0120
1322.00,0.0117
1321.00,0.0114
1320.00,0.0113
1319.00,0.0111
1318.00,0.0109
1317.00,0.0108
1316.00,0.0107
1315.00,0.0106
1314.00,0.0107
1313.00,0.0107
1312.00,0.0108
1311.00,0.0111
1310.00,0.0115
1309.00,0.0121
1308.00,0.0130
1307.00,0.0140
1306.00,0.0150
1305.00,0.0157
1304.00,0.0159
1303.00,0.0156
1302.00,0.0152
1301.00,0.0147
1300.00,0.0145
1299.00,0.0144
1298.00,0.0144
1297.00,0.0144
1296.00,0.0143
1295.00,0.0141
1294.00,0.0138
1293.00,0.0133
1292.00,0.0128
1291.00,0.0123
1290.00,0.0119
1289.00,0.0114
1288.00,0.0111
1287.00,0.0107
1286.00,0.0105
1285.00,0.0103
1284.00,0.0102
1283.00,0.0101
1282.00,0.0100
1281.00,0.0099
1280.00,0.0097
1279.00,0.0097
1278.00,0.0096
1277.00,0.0095
1276.00,0.0094
1275.00,0.0094
1274.00,0.0094
1273.00,0.0094
1272.00,0.0094
1271.00,0.0094
1270.00,0.0095
1269.00,0.0097
1268.00,0.0099
1267.00,0.0101
1266.00,0.0104
1265.00,0.0107
1264.00,0.0110
1263.00,0.0114
1262.00,0.0117
1261.00,0.0121
1260.00,0.0126
1259.00,0.0132
1258.00,0.0138
1257.00,0.0142
1256.00,0.0143
1255.00,0.0140
1254.00,0.0133
1253.00,0.0125
1252.00,0.0116
1251.00,0.0110
1250.00,0.0105
1249.00,0.0102
1248.00,0.0100
1247.00,0.0097
1246.00,0.0095
1245.00,0.0094
1244.00,0.0093
1243.00,0.0092
1242.00,0.0092
1241.00,0.0091
1240.00,0.0090
1239.00,0.0089
1238.00,0.0089
1237.00,0.0088
1236.00,0.0088
1235.00,0.0089
1234.00,0.0089
1233.00,0.0090
1232.00,0.0091
1231.00,0.0092
1230.00,0.0094
1229.00,0.0096
1228.00,0.0098
1227.00,0.0100
1226.00,0.0103
1225.00,0.0107
1224.00,0.0110
1223.00,0.0114
1222.00,0.0118
1221.00,0.0121
1220.00,0.0123
1219.00,0.0124
1218.00,0.0124
1217.00,0.0122
1216.00,0.0119
1215.00,0.0116
1214.00,0.0112
1213.00,0.0109
1212.00,0.0106
1211.00,0.0103
1210.00,0.0101
1209.00,0.0099
1208.00,0.0099
1207.00,0.0098
1206.00,0.0098
1205.00,0.0097
1204.00,0.0097
1203.00,0.0097
1202.00,0.0097
1201.00,0.0098
1200.00,0.0098
1199.00,0.0098
1198.00,0.0098
1197.00,0.0097
1196.00,0.0097
1195.00,0.0098
1194.00,0.0098
1193.00,0.0097
1192.00,0.0097
1191.00,0.0097
1190.00,0.0097
1189.00,0.0097
1188.00,0.0097
1187.00,0.0097
1186.00,0.0097
1185.00,0.0097
1184.00,0.0098
1183.00,0.0098
1182.00,0.0100
1181.00,0.0102
1180.00,0.0105
1179.00,0.0109
1178.00,0.0115
1177.00,0.0122
1176.00,0.0131
1175.00,0.0144
1174.00,0.0162
1173.00,0.0185
1172.00,0.0213
1171.00,0.0243
1170.00,0.0272
1169.00,0.0295
1168.00,0.0308
1167.00,0.0310
1166.00,0.0302
1165.00,0.0288
1164.00,0.0272
1163.00,0.0256
1162.00,0.0242
1161.00,0.0230
1160.00,0.0221
1159.00,0.0214
1158.00,0.0209
1157.00,0.0205
1156.00,0.0203
1155.00,0.0202
1154.00,0.0202
1153.00,0.0200
1152.00,0.0197
1151.00,0.0191
1150.00,0.0184
1149.00,0.0176
1148.00,0.0169
1147.00,0.0161
1146.00,0.0154
1145.00,0.0147
1144.00,0.0141
1143.00,0.0136
1142.00,0.0132
1141.00,0.0127
1140.00,0.0123
1139.00,0.0119
1138.00,0.0116
1137.00,0.0114
1136.00,0.0112
1135.00,0.0111
1134.00,0.0111
1133.00,0.0111
1132.00,0.0110
1131.00,0.0110
1130.00,0.0111
1129.00,0.0112
1128.00,0.0114
1127.00,0.0116
1126.00,0.0118
1125.00,0.0121
1124.00,0.0123
1123.00,0.0125
1122.00,0.0127
1121.00,0.0128
1120.00,0.0130
1119.00,0.0133
1118.00,0.0135
1117.00,0.0136
1116.00,0.0138
1115.00,0.0139
1114.00,0.0140
1113.00,0.0142
1112.00,0.0143
1111.00,0.0145
1110.00,0.0148
1109.00,0.0152
1108.00,0.0157
1107.00,0.0162
1106.00,0.0167
1105.00,0.0172
1104.00,0.0176
1103.00,0.0178
1102.00,0.0177
1101.00,0.0173
1100.00,0.0167
1099.00,0.0160
1098.00,0.0153
1097.00,0.0147
1096.00,0.0142
1095.00,0.0137
1094.00,0.0132
1093.00,0.0128
1092.00,0.0124
1091.00,0.0122
1090.00,0.0120
1089.00,0.0119
1088.00,0.0119
1087.00,0.0119
1086.00,0.0119
1085.00,0.0119
1084.00,0.0117
1083.00,0.0115
1082.00,0.0113
1081.00,0.0111
1080.00,0.0109
1079.00,0.0108
1078.00,0.0107
1077.00,0.0106
1076.00,0.0105
1075.00,0.0104
1074.00,0.0104
1073.00,0.0103
1072.00,0.0102
1071.00,0.0101
1070.00,0.0101
1069.00,0.0101
1068.00,0.0101
1067.00,0.0101
1066.00,0.0102
1065.00,0.0103
1064.00,0.0104
1063.00,0.0104
1062.00,0.0104
1061.00,0.0104
1060.00,0.0105
1059.00,0.0105
1058.00,0.0106
1057.00,0.0107
1056.00,0.0108
1055.00,0.0110
1054.00,0.0113
1053.00,0.0116
1052.00,0.0120
1051.00,0.0124
1050.00,0.0129
1049.00,0.0135
1048.00,0.0141
1047.00,0.0147
1046.00,0.0151
1045.00,0.0154
1044.00,0.0155
1043.00,0.0154
1042.00,0.0152
1041.00,0.0150
1040.00,0.0148
1039.00,0.0148
1038.00,0.0148
1037.00,0.0148
1036.00,0.0148
1035.00,0.0147
1034.00,0.0145
1033.00,0.0143
1032.00,0.0140
1031.00,0.0139
1030.00,0.0138
1029.00,0.0139
1028.00,0.0140
1027.00,0.0141
1026.00,0.0143
1025.00,0.0144
1024.00,0.0147
1023.00,0.0149
1022.00,0.0152
1021.00,0.0154
1020.00,0.0156
1019.00,0.0157
1018.00,0.0158
1017.00,0.0158
1016.00,0.0158
1015.00,0.0157
1014.00,0.0156
1013.00,0.0156
1012.00,0.0156
1011.00,0.0156
1010.00,0.0155
1009.00,0.0157
1008.00,0.0159
1007.00,0.0163
1006.00,0.0169
1005.00,0.0177
1004.00,0.0191
1003.00,0.0212
1002.00,0.0240
1001.00,0.0275
1000.00,0.0313
999.00,0.0344
998.00,0.0358
997.00,0.0351
996.00,0.0325
995.00,0.0287
994.00,0.0247
993.00,0.0212
992.00,0.0185
991.00,0.0166
990.00,0.0152
989.00,0.0144
988.00,0.0138
987.00,0.0135
986.00,0.0133
985.00,0.0134
984.00,0.0136
983.00,0.0142
982.00,0.0151
981.00,0.0165
980.00,0.0184
979.00,0.0210
978.00,0.0243
977.00,0.0282
976.00,0.0325
975.00,0.0365
974.00,0.0393
973.00,0.0402
972.00,0.0387
971.00,0.0351
970.00,0.0303
969.00,0.0253
968.00,0.0211
967.00,0.0178
966.00,0.0155
965.00,0.0138
964.00,0.0125
963.00,0.0116
962.00,0.0109
961.00,0.0104
960.00,0.0099
959.00,0.0096
958.00,0.0092
957.00,0.0088
956.00,0.0085
955.00,0.0083
954.00,0.0081
953.00,0.0079
952.00,0.0078
951.00,0.0078
950.00,0.0078
949.00,0.0077
948.00,0.0077
947.00,0.0078
946.00,0.0080
945.00,0.0084
944.00,0.0087
943.00,0.0091
942.00,0.0095
941.00,0.0097
940.00,0.0097
939.00,0.0095
938.00,0.0091
937.00,0.0086
936.00,0.0082
935.00,0.0079
934.00,0.0077
933.00,0.0076
932.00,0.0075
931.00,0.0074
930.00,0.0074
929.00,0.0074
928.00,0.0074
927.00,0.0073
926.00,0.0073
925.00,0.0073
924.00,0.0074
923.00,0.0075
922.00,0.0076
921.00,0.0076
920.00,0.0076
919.00,0.0076
918.00,0.0076
917.00,0.0076
916.00,0.0077
915.00,0.0078
914.00,0.0079
913.00,0.0079
912.00,0.0080
911.00,0.0082
910.00,0.0085
909.00,0.0088
908.00,0.0092
907.00,0.0097
906.00,0.0103
905.00,0.0113
904.00,0.0127
903.00,0.0145
902.00,0.0164
901.00,0.0180
900.00,0.0191
899.00,0.0191
898.00,0.0183
897.00,0.0167
896.00,0.0148
895.00,0.0131
894.00,0.0117
893.00,0.0107
892.00,0.0100
891.00,0.0095
890.00,0.0093
889.00,0.0091
888.00,0.0090
887.00,0.0089
886.00,0.0088
885.00,0.0087
884.00,0.0086
883.00,0.0086
882.00,0.0086
881.00,0.0087
880.00,0.0089
879.00,0.0090
878.00,0.0091
877.00,0.0092
876.00,0.0093
875.00,0.0093
874.00,0.0094
873.00,0.0094
872.00,0.0092
871.00,0.0091
870.00,0.0089
869.00,0.0088
868.00,0.0088
867.00,0.0087
866.00,0.0087
865.00,0.0089
864.00,0.0091
863.00,0.0093
862.00,0.0094
861.00,0.0094
860.00,0.0095
859.00,0.0096
858.00,0.0098
857.00,0.0099
856.00,0.0100
855.00,0.0101
854.00,0.0102
853.00,0.0104
852.00,0.0107
851.00,0.0111
850.00,0.0116
849.00,0.0122
848.00,0.0130
847.00,0.0142
846.00,0.0162
845.00,0.0193
844.00,0.0238
843.00,0.0290
842.00,0.0333
841.00,0.0349
840.00,0.0329
839.00,0.0283
838.00,0.0231
837.00,0.0187
836.00,0.0157
835.00,0.0139
834.00,0.0129
833.00,0.0122
832.00,0.0117
831.00,0.0114
830.00,0.0111
829.00,0.0110
828.00,0.0111
827.00,0.0111
826.00,0.0111
825.00,0.0110
824.00,0.0109
823.00,0.0109
822.00,0.0110
821.00,0.0111
820.00,0.0114
819.00,0.0118
818.00,0.0124
817.00,0.0131
816.00,0.0140
815.00,0.0150
814.00,0.0163
813.00,0.0180
812.00,0.0199
811.00,0.0218
810.00,0.0231
809.00,0.0237
808.00,0.0234
807.00,0.0223
806.00,0.0207
805.00,0.0188
804.00,0.0170
803.00,0.0157
802.00,0.0147
801.00,0.0139
800.00,0.0133
799.00,0.0127
798.00,0.0123
797.00,0.0119
796.00,0.0116
795.00,0.0113
794.00,0.0109
793.00,0.0106
792.00,0.0103
791.00,0.0100
790.00,0.0098
789.00,0.0095
788.00,0.0092
787.00,0.0091
786.00,0.0090
785.00,0.0089
784.00,0.0088
783.00,0.0086
782.00,0.0085
781.00,0.0084
780.00,0.0084
779.00,0.0084
778.00,0.0083
777.00,0.0082
776.00,0.0081
775.00,0.0080
774.00,0.0080
773.00,0.0082
772.00,0.0083
771.00,0.0084
770.00,0.0085
769.00,0.0085
768.00,0.0085
767.00,0.0086
766.00,0.0087
765.00,0.0087
764.00,0.0087
763.00,0.0085
762.00,0.0083
761.00,0.0081
760.00,0.0080
759.00,0.0080
758.00,0.0083
757.00,0.0086
756.00,0.0089
755.00,0.0090
754.00,0.0091
753.00,0.0091
752.00,0.0092
751.00,0.0093
750.00,0.0094
749.00,0.0096
748.00,0.0098
747.00,0.0100
746.00,0.0102
745.00,0.0106
744.00,0.0109
743.00,0.0113
742.00,0.0115
741.00,0.0118
740.00,0.0122
739.00,0.0127
738.00,0.0131
737.00,0.0136
736.00,0.0141
735.00,0.0146
734.00,0.0151
733.00,0.0156
732.00,0.0162
731.00,0.0168
730.00,0.0174
729.00,0.0178
728.00,0.0182
727.00,0.0184
726.00,0.0187
725.00,0.0190
724.00,0.0194
723.00,0.0199
722.00,0.0203
721.00,0.0206
720.00,0.0204
719.00,0.0197
718.00,0.0185
717.00,0.0171
716.00,0.0159
715.00,0.0149
714.00,0.0143
713.00,0.0139
712.00,0.0137
711.00,0.0136
710.00,0.0134
709.00,0.0132
708.00,0.0130
707.00,0.0129
706.00,0.0129
705.00,0.0128
704.00,0.0128
703.00,0.0128
702.00,0.0127
701.00,0.0125
700.00,0.0123
699.00,0.0121
698.00,0.0120
697.00,0.0119
696.00,0.0117
695.00,0.0115
694.00,0.0114
693.00,0.0114
692.00,0.0115
691.00,0.0116
690.00,0.0117
689.00,0.0116
688.00,0.0116
687.00,0.0114
686.00,0.0113
685.00,0.0112
684.00,0.0112
683.00,0.0114
682.00,0.0114
681.00,0.0115
680.00,0.0116
679.00,0.0117
678.00,0.0119
677.00,0.0119
676.00,0.0119
675.00,0.0120
674.00,0.0121
673.00,0.0124
672.00,0.0127
671.00,0.0128
670.00,0.0129
669.00,0.0128
668.00,0.0128
667.00,0.0126
666.00,0.0122
665.00,0.0117
664.00,0.0112
663.00,0.0110
662.00,0.0109
661.00,0.0109
660.00,0.0109
659.00,0.0107
658.00,0.0105
657.00,0.0104
656.00,0.0103
655.00,0.0103
654.00,0.0104
653.00,0.0104
652.00,0.0104
651.00,0.0104
650.00,0.0105
649.00,0.0105
648.00,0.0105
647.00,0.0106
646.00,0.0107
645.00,0.0108
644.00,0.0110
643.00,0.0110
642.00,0.0108
641.00,0.0105
640.00,0.0102
639.00,0.0101
638.00,0.0101
637.00,0.0102
636.00,0.0102
635.00,0.0101
634.00,0.0099
633.00,0.0098
632.00,0.0099
631.00,0.0101
630.00,0.0102
629.00,0.0103
628.00,0.0104
627.00,0.0105
626.00,0.0106
625.00,0.0107
624.00,0.0107
623.00,0.0106
622.00,0.0106
621.00,0.0106
620.00,0.0108
619.00,0.0110
618.00,0.0111
617.00,0.0112
616.00,0.0110
615.00,0.0108
614.00,0.0105
613.00,0.0103
612.00,0.0101
611.00,0.0101
610.00,0.0100
609.00,0.0101
608.00,0.0101
607.00,0.0101
606.00,0.0100
605.00,0.0099
604.00,0.0101
603.00,0.0104
602.00,0.0108
601.00,0.0111
600.00,0.0113
599.00,0.0112
598.00,0.0111
597.00,0.0108
596.00,0.0107
595.00,0.0107
594.00,0.0106
593.00,0.0104
592.00,0.0102
591.00,0.0101
590.00,0.0102
589.00,0.0103
588.00,0.0103
587.00,0.0103
586.00,0.0103
585.00,0.0104
584.00,0.0105
583.00,0.0107
582.00,0.0108
581.00,0.0107
580.00,0.0104
579.00,0.0102
578.00,0.0102
577.00,0.0105
576.00,0.0107
575.00,0.0110
574.00,0.0112
573.00,0.0113
572.00,0.0113
571.00,0.0112
570.00,0.0112
569.00,0.0113
568.00,0.0116
567.00,0.0119
566.00,0.0120
565.00,0.0118
564.00,0.0113
563.00,0.0107
562.00,0.0102
561.00,0.0100
560.00,0.0102
559.00,0.0105
558.00,0.0108
557.00,0.0109
556.00,0.0108
555.00,0.0106
554.00,0.0105
553.00,0.0105
552.00,0.0104
551.00,0.0104
550.00,0.0105
549.00,0.0108
548.00,0.0114
547.00,0.0119
546.00,0.0119
545.00,0.0115
544.00,0.0110
543.00,0.0109
542.00,0.0113
541.00,0.0121
540.00,0.0129
539.00,0.0134
538.00,0.0135
537.00,0.0132
536.00,0.0127
535.00,0.0124
534.00,0.0125
533.00,0.0128
532.00,0.0133
531.00,0.0137
530.00,0.0139
529.00,0.0137
528.00,0.0134
527.00,0.0130
526.00,0.0125
525.00,0.0120
524.00,0.0117
523.00,0.0117
522.00,0.0121
521.00,0.0126
520.00,0.0129
519.00,0.0127
518.00,0.0120
517.00,0.0111
516.00,0.0102
515.00,0.0096
514.00,0.0094
513.00,0.0096
512.00,0.0099
511.00,0.0102
510.00,0.0100
509.00,0.0093
508.00,0.0083
507.00,0.0077
506.00,0.0079
505.00,0.0090
504.00,0.0105
503.00,0.0115
502.00,0.0117
501.00,0.0110
500.00,0.0104
499.00,0.0102
498.00,0.0102
497.00,0.0103
496.00,0.0106
495.00,0.0111
494.00,0.0115
493.00,0.0116
492.00,0.0111
491.00,0.0105
490.00,0.0102
489.00,0.0103
488.00,0.0107
487.00,0.0112
486.00,0.0117
485.00,0.0122
484.00,0.0127
483.00,0.0126
482.00,0.0120
481.00,0.0111
480.00,0.0107
479.00,0.0110
478.00,0.0116
477.00,0.0122
476.00,0.0128
475.00,0.0135
474.00,0.0142
473.00,0.0146
472.00,0.0147
471.00,0.0149
470.00,0.0153
469.00,0.0163
468.00,0.0178
467.00,0.0194
466.00,0.0204
465.00,0.0204
464.00,0.0197
463.00,0.0192
462.00,0.0195
461.00,0.0210
460.00,0.0232
459.00,0.0252
458.00,0.0259
457.00,0.0249
456.00,0.0231
455.00,0.0214
454.00,0.0196
453.00,0.0178
452.00,0.0165
451.00,0.0166
450.00,0.0178
