Created as New Dataset,Sample 033 By Administrator Date Friday, September 05 2025
cm-1,A
4000.00,0.0008
3999.00,0.0008
3998.00,0.0009
3997.00,0.0009
3996.00,0.0009
3995.00,0.0009
3994.00,0.0010
3993.00,0.0010
3992.00,0.0010
3991.00,0.0010
3990.00,0.0010
3989.00,0.0010
3988.00,0.0009
3987.00,0.0009
3986.00,0.0009
3985.00,0.0009
3984.00,0.0009
3983.00,0.0009
3982.00,0.0009
3981.00,0.0009
3980.00,0.0009
3979.00,0.0009
3978.00,0.0008
3977.00,0.0008
3976.00,0.0007
3975.00,0.0007
3974.00,0.0007
3973.00,0.0007
3972.00,0.0007
3971.00,0.0008
3970.00,0.0008
3969.00,0.0007
3968.00,0.0007
3967.00,0.0007
3966.00,0.0007
3965.00,0.0007
3964.00,0.0007
3963.00,0.0008
3962.00,0.0008
3961.00,0.0008
3960.00,0.0009
3959.00,0.0008
3958.00,0.0008
3957.00,0.0007
3956.00,0.0007
3955.00,0.0007
3954.00,0.0007
3953.00,0.0007
3952.00,0.0008
3951.00,0.0008
3950.00,0.0008
3949.00,0.0007
3948.00,0.0007
3947.00,0.0007
3946.00,0.0008
3945.00,0.0008
3944.00,0.0008
3943.00,0.0008
3942.00,0.0008
3941.00,0.0008
3940.00,0.0008
3939.00,0.0008
3938.00,0.0008
3937.00,0.0008
3936.00,0.0008
3935.00,0.0008
3934.00,0.0008
3933.00,0.0008
3932.00,0.0008
3931.00,0.0008
3930.00,0.0008
3929.00,0.0008
3928.00,0.0008
3927.00,0.0007
3926.00,0.0007
3925.00,0.0007
3924.00,0.0008
3923.00,0.0008
3922.00,0.0008
3921.00,0.0009
3920.00,0.0009
3919.00,0.0009
3918.00,0.0009
3917.00,0.0008
3916.00,0.0008
3915.00,0.0008
3914.00,0.0008
3913.00,0.0008
3912.00,0.0008
3911.00,0.0008
3910.00,0.0008
3909.00,0.0008
3908.00,0.0008
3907.00,0.0008
3906.00,0.0008
3905.00,0.0008
3904.00,0.0008
3903.00,0.0007
3902.00,0.0007
3901.00,0.0007
3900.00,0.0007
3899.00,0.0007
3898.00,0.0008
3897.00,0.0008
3896.00,0.0008
3895.00,0.0008
3894.00,0.0008
3893.00,0.0008
3892.00,0.0008
3891.00,0.0008
3890.00,0.0007
3889.00,0.0007
3888.00,0.0007
3887.00,0.0007
3886.00,0.0007
3885.00,0.0007
3884.00,0.0007
3883.00,0.0007
3882.00,0.0008
3881.00,0.0008
3880.00,0.0007
3879.00,0.0007
3878.00,0.0007
3877.00,0.0007
3876.00,0.0007
3875.00,0.0007
3874.00,0.0007
3873.00,0.0007
3872.00,0.0007
3871.00,0.0007
3870.00,0.0007
3869.00,0.0007
3868.00,0.0007
3867.00,0.0007
3866.00,0.0007
3865.00,0.0007
3864.00,0.0007
3863.00,0.0007
3862.00,0.0006
3861.00,0.0006
3860.00,0.0006
3859.00,0.0006
3858.00,0.0006
3857.00,0.0006
3856.00,0.0005
3855.00,0.0006
3854.00,0.0006
3853.00,0.0006
3852.00,0.0006
3851.00,0.0006
3850.00,0.0006
3849.00,0.0007
3848.00,0.0007
3847.00,0.0007
3846.00,0.0007
3845.00,0.0007
3844.00,0.0007
3843.00,0.0007
3842.00,0.0007
3841.00,0.0007
3840.00,0.0007
3839.00,0.0006
3838.00,0.0006
3837.00,0.0006
3836.00,0.0006
3835.00,0.0006
3834.00,0.0006
3833.00,0.0006
3832.00,0.0006
3831.00,0.0006
3830.00,0.0006
3829.00,0.0006
3828.00,0.0007
3827.00,0.0007
3826.00,0.0007
3825.00,0.0007
3824.00,0.0006
3823.00,0.0006
3822.00,0.0006
3821.00,0.0006
3820.00,0.0006
3819.00,0.0006
3818.00,0.0006
3817.00,0.0006
3816.00,0.0006
3815.00,0.0006
3814.00,0.0006
3813.00,0.0006
3812.00,0.0007
3811.00,0.0007
3810.00,0.0007
3809.00,0.0008
3808.00,0.0008
3807.00,0.0008
3806.00,0.0007
3805.00,0.0007
3804.00,0.0007
3803.00,0.0007
3802.00,0.0006
3801.00,0.0006
3800.00,0.0006
3799.00,0.0006
3798.00,0.0006
3797.00,0.0006
3796.00,0.0006
3795.00,0.0006
3794.00,0.0006
3793.00,0.0007
3792.00,0.0007
3791.00,0.0007
3790.00,0.0007
3789.00,0.0008
3788.00,0.0008
3787.00,0.0008
3786.00,0.0008
3785.00,0.0008
3784.00,0.0008
3783.00,0.0008
3782.00,0.0007
3781.00,0.0007
3780.00,0.0007
3779.00,0.0007
3778.00,0.0007
3777.00,0.0007
3776.00,0.0007
3775.00,0.0007
3774.00,0.0008
3773.00,0.0008
3772.00,0.0008
3771.00,0.0007
3770.00,0.0007
3769.00,0.0007
3768.00,0.0007
3767.00,0.0007
3766.00,0.0007
3765.00,0.0007
3764.00,0.0007
3763.00,0.0007
3762.00,0.0007
3761.00,0.0008
3760.00,0.0008
3759.00,0.0008
3758.00,0.0008
3757.00,0.0007
3756.00,0.0007
3755.00,0.0007
3754.00,0.0007
3753.00,0.0007
3752.00,0.0007
3751.00,0.0007
3750.00,0.0006
3749.00,0.0006
3748.00,0.0006
3747.00,0.0006
3746.00,0.0006
3745.00,0.0006
3744.00,0.0006
3743.00,0.0006
3742.00,0.0006
3741.00,0.0007
3740.00,0.0007
3739.00,0.0007
3738.00,0.0007
3737.00,0.0007
3736.00,0.0007
3735.00,0.0006
3734.00,0.0006
3733.00,0.0005
3732.00,0.0005
3731.00,0.0005
3730.00,0.0005
3729.00,0.0004
3728.00,0.0005
3727.00,0.0005
3726.00,0.0006
3725.00,0.0006
3724.00,0.0006
3723.00,0.0006
3722.00,0.0006
3721.00,0.0006
3720.00,0.0006
3719.00,0.0005
3718.00,0.0005
3717.00,0.0005
3716.00,0.0005
3715.00,0.0006
3714.00,0.0006
3713.00,0.0007
3712.00,0.0007
3711.00,0.0006
3710.00,0.0006
3709.00,0.0005
3708.00,0.0004
3707.00,0.0004
3706.00,0.0004
3705.00,0.0004
3704.00,0.0005
3703.00,0.0005
3702.00,0.0005
3701.00,0.0005
3700.00,0.0005
3699.00,0.0005
3698.00,0.0006
3697.00,0.0006
3696.00,0.0006
3695.00,0.0006
3694.00,0.0006
3693.00,0.0005
3692.00,0.0005
3691.00,0.0005
3690.00,0.0005
3689.00,0.0005
3688.00,0.0004
3687.00,0.0004
3686.00,0.0004
3685.00,0.0005
3684.00,0.0005
3683.00,0.0005
3682.00,0.0005
3681.00,0.0005
3680.00,0.0005
3679.00,0.0006
3678.00,0.0006
3677.00,0.0007
3676.00,0.0007
3675.00,0.0005
3674.00,0.0004
3673.00,0.0003
3672.00,0.0003
3671.00,0.0003
3670.00,0.0003
3669.00,0.0003
3668.00,0.0003
3667.00,0.0003
3666.00,0.0004
3665.00,0.0004
3664.00,0.0004
3663.00,0.0005
3662.00,0.0005
3661.00,0.0004
3660.00,0.0004
3659.00,0.0004
3658.00,0.0005
3657.00,0.0005
3656.00,0.0005
3655.00,0.0004
3654.00,0.0004
3653.00,0.0004
3652.00,0.0004
3651.00,0.0004
3650.00,0.0004
3649.00,0.0004
3648.00,0.0004
3647.00,0.0004
3646.00,0.0004
3645.00,0.0004
3644.00,0.0004
3643.00,0.0004
3642.00,0.0004
3641.00,0.0004
3640.00,0.0004
3639.00,0.0005
3638.00,0.0005
3637.00,0.0005
3636.00,0.0006
3635.00,0.0006
3634.00,0.0005
3633.00,0.0005
3632.00,0.0005
3631.00,0.0005
3630.00,0.0006
3629.00,0.0007
3628.00,0.0006
3627.00,0.0006
3626.00,0.0005
3625.00,0.0005
3624.00,0.0006
3623.00,0.0006
3622.00,0.0006
3621.00,0.0007
3620.00,0.0007
3619.00,0.0006
3618.00,0.0006
3617.00,0.0005
3616.00,0.0005
3615.00,0.0006
3614.00,0.0006
3613.00,0.0007
3612.00,0.0008
3611.00,0.0008
3610.00,0.0008
3609.00,0.0008
3608.00,0.0008
3607.00,0.0008
3606.00,0.0007
3605.00,0.0008
3604.00,0.0008
3603.00,0.0008
3602.00,0.0009
3601.00,0.0009
3600.00,0.0009
3599.00,0.0009
3598.00,0.0008
3597.00,0.0009
3596.00,0.0009
3595.00,0.0009
3594.00,0.0009
3593.00,0.0009
3592.00,0.0009
3591.00,0.0009
3590.00,0.0010
3589.00,0.0010
3588.00,0.0010
3587.00,0.0010
3586.00,0.0010
3585.00,0.0010
3584.00,0.0010
3583.00,0.0010
3582.00,0.0010
3581.00,0.0010
3580.00,0.0009
3579.00,0.0009
3578.00,0.0009
3577.00,0.0009
3576.00,0.0010
3575.00,0.0010
3574.00,0.0010
3573.00,0.0011
3572.00,0.0011
3571.00,0.0012
3570.00,0.0012
3569.00,0.0013
3568.00,0.0014
3567.00,0.0014
3566.00,0.0014
3565.00,0.0014
3564.00,0.0013
3563.00,0.0013
3562.00,0.0013
3561.00,0.0013
3560.00,0.0013
3559.00,0.0013
3558.00,0.0014
3557.00,0.0014
3556.00,0.0014
3555.00,0.0014
3554.00,0.0014
3553.00,0.0014
3552.00,0.0014
3551.00,0.0014
3550.00,0.0014
3549.00,0.0014
3548.00,0.0015
3547.00,0.0015
3546.00,0.0016
3545.00,0.0016
3544.00,0.0016
3543.00,0.0016
3542.00,0.0016
3541.00,0.0016
3540.00,0.0017
3539.00,0.0017
3538.00,0.0017
3537.00,0.0017
3536.00,0.0017
3535.00,0.0017
3534.00,0.0017
3533.00,0.0018
3532.00,0.0018
3531.00,0.0018
3530.00,0.0018
3529.00,0.0019
3528.00,0.0019
3527.00,0.0019
3526.00,0.0019
3525.00,0.0019
3524.00,0.0019
3523.00,0.0019
3522.00,0.0019
3521.00,0.0019
3520.00,0.0019
3519.00,0.0019
3518.00,0.0019
3517.00,0.0019
3516.00,0.0020
3515.00,0.0020
3514.00,0.0021
3513.00,0.0021
3512.00,0.0021
3511.00,0.0021
3510.00,0.0021
3509.00,0.0020
3508.00,0.0020
3507.00,0.0021
3506.00,0.0021
3505.00,0.0021
3504.00,0.0022
3503.00,0.0022
3502.00,0.0022
3501.00,0.0022
3500.00,0.0022
3499.00,0.0023
3498.00,0.0023
3497.00,0.0023
3496.00,0.0023
3495.00,0.0023
3494.00,0.0023
3493.00,0.0023
3492.00,0.0023
3491.00,0.0023
3490.00,0.0023
3489.00,0.0024
3488.00,0.0024
3487.00,0.0024
3486.00,0.0024
3485.00,0.0024
3484.00,0.0024
3483.00,0.0024
3482.00,0.0024
3481.00,0.0024
3480.00,0.0024
3479.00,0.0024
3478.00,0.0024
3477.00,0.0025
3476.00,0.0025
3475.00,0.0025
3474.00,0.0026
3473.00,0.0026
3472.00,0.0026
3471.00,0.0027
3470.00,0.0027
3469.00,0.0026
3468.00,0.0026
3467.00,0.0026
3466.00,0.0026
3465.00,0.0026
3464.00,0.0026
3463.00,0.0026
3462.00,0.0026
3461.00,0.0027
3460.00,0.0027
3459.00,0.0027
3458.00,0.0027
3457.00,0.0028
3456.00,0.0028
3455.00,0.0028
3454.00,0.0028
3453.00,0.0027
3452.00,0.0027
3451.00,0.0027
3450.00,0.0027
3449.00,0.0027
3448.00,0.0027
3447.00,0.0028
3446.00,0.0028
3445.00,0.0029
3444.00,0.0029
3443.00,0.0029
3442.00,0.0029
3441.00,0.0030
3440.00,0.0030
3439.00,0.0030
3438.00,0.0030
3437.00,0.0030
3436.00,0.0031
3435.00,0.0031
3434.00,0.0031
3433.00,0.0032
3432.00,0.0032
3431.00,0.0032
3430.00,0.0031
3429.00,0.0031
3428.00,0.0031
3427.00,0.0032
3426.00,0.0032
3425.00,0.0032
3424.00,0.0033
3423.00,0.0033
3422.00,0.0033
3421.00,0.0033
3420.00,0.0033
3419.00,0.0033
3418.00,0.0033
3417.00,0.0033
3416.00,0.0034
3415.00,0.0033
3414.00,0.0033
3413.00,0.0033
3412.00,0.0033
3411.00,0.0033
3410.00,0.0033
3409.00,0.0033
3408.00,0.0033
3407.00,0.0034
3406.00,0.0034
3405.00,0.0034
3404.00,0.0034
3403.00,0.0035
3402.00,0.0035
3401.00,0.0036
3400.00,0.0036
3399.00,0.0036
3398.00,0.0036
3397.00,0.0036
3396.00,0.0036
3395.00,0.0036
3394.00,0.0036
3393.00,0.0036
3392.00,0.0036
3391.00,0.0035
3390.00,0.0035
3389.00,0.0035
3388.00,0.0034
3387.00,0.0034
3386.00,0.0034
3385.00,0.0034
3384.00,0.0034
3383.00,0.0035
3382.00,0.0035
3381.00,0.0035
3380.00,0.0035
3379.00,0.0035
3378.00,0.0035
3377.00,0.0035
3376.00,0.0035
3375.00,0.0035
3374.00,0.0035
3373.00,0.0035
3372.00,0.0035
3371.00,0.0035
3370.00,0.0035
3369.00,0.0035
3368.00,0.0035
3367.00,0.0035
3366.00,0.0035
3365.00,0.0035
3364.00,0.0035
3363.00,0.0035
3362.00,0.0036
3361.00,0.0036
3360.00,0.0035
3359.00,0.0035
3358.00,0.0035
3357.00,0.0035
3356.00,0.0036
3355.00,0.0036
3354.00,0.0036
3353.00,0.0036
3352.00,0.0035
3351.00,0.0035
3350.00,0.0035
3349.00,0.0035
3348.00,0.0035
3347.00,0.0035
3346.00,0.0035
3345.00,0.0035
3344.00,0.0035
3343.00,0.0035
3342.00,0.0034
3341.00,0.0035
3340.00,0.0035
3339.00,0.0035
3338.00,0.0035
3337.00,0.0035
3336.00,0.0035
3335.00,0.0034
3334.00,0.0034
3333.00,0.0033
3332.00,0.0033
3331.00,0.0033
3330.00,0.0033
3329.00,0.0033
3328.00,0.0033
3327.00,0.0033
3326.00,0.0033
3325.00,0.0033
3324.00,0.0033
3323.00,0.0033
3322.00,0.0033
3321.00,0.0033
3320.00,0.0033
3319.00,0.0033
3318.00,0.0033
3317.00,0.0033
3316.00,0.0033
3315.00,0.0033
3314.00,0.0033
3313.00,0.0033
3312.00,0.0033
3311.00,0.0034
3310.00,0.0034
3309.00,0.0034
3308.00,0.0034
3307.00,0.0033
3306.00,0.0033
3305.00,0.0033
3304.00,0.0033
3303.00,0.0033
3302.00,0.0033
3301.00,0.0034
3300.00,0.0034
3299.00,0.0034
3298.00,0.0034
3297.00,0.0033
3296.00,0.0033
3295.00,0.0033
3294.00,0.0033
3293.00,0.0033
3292.00,0.0033
3291.00,0.0033
3290.00,0.0032
3289.00,0.0032
3288.00,0.0032
3287.00,0.0031
3286.00,0.0031
3285.00,0.0031
3284.00,0.0032
3283.00,0.0032
3282.00,0.0032
3281.00,0.0031
3280.00,0.0031
3279.00,0.0030
3278.00,0.0030
3277.00,0.0030
3276.00,0.0030
3275.00,0.0030
3274.00,0.0030
3273.00,0.0030
3272.00,0.0030
3271.00,0.0030
3270.00,0.0030
3269.00,0.0030
3268.00,0.0030
3267.00,0.0030
3266.00,0.0030
3265.00,0.0029
3264.00,0.0029
3263.00,0.0029
3262.00,0.0029
3261.00,0.0029
3260.00,0.0029
3259.00,0.0030
3258.00,0.0029
3257.00,0.0029
3256.00,0.0029
3255.00,0.0028
3254.00,0.0028
3253.00,0.0027
3252.00,0.0027
3251.00,0.0027
3250.00,0.0027
3249.00,0.0027
3248.00,0.0027
3247.00,0.0027
3246.00,0.0027
3245.00,0.0027
3244.00,0.0027
3243.00,0.0027
3242.00,0.0027
3241.00,0.0027
3240.00,0.0027
3239.00,0.0027
3238.00,0.0027
3237.00,0.0027
3236.00,0.0027
3235.00,0.0027
3234.00,0.0027
3233.00,0.0027
3232.00,0.0028
3231.00,0.0028
3230.00,0.0028
3229.00,0.0029
3228.00,0.0029
3227.00,0.0029
3226.00,0.0029
3225.00,0.0029
3224.00,0.0029
3223.00,0.0029
3222.00,0.0030
3221.00,0.0030
3220.00,0.0030
3219.00,0.0030
3218.00,0.0031
3217.00,0.0031
3216.00,0.0031
3215.00,0.0032
3214.00,0.0033
3213.00,0.0033
3212.00,0.0033
3211.00,0.0033
3210.00,0.0033
3209.00,0.0032
3208.00,0.0032
3207.00,0.0032
3206.00,0.0033
3205.00,0.0033
3204.00,0.0033
3203.00,0.0033
3202.00,0.0033
3201.00,0.0033
3200.00,0.0034
3199.00,0.0034
3198.00,0.0035
3197.00,0.0035
3196.00,0.0035
3195.00,0.0035
3194.00,0.0035
3193.00,0.0034
3192.00,0.0034
3191.00,0.0034
3190.00,0.0034
3189.00,0.0034
3188.00,0.0034
3187.00,0.0034
3186.00,0.0034
3185.00,0.0034
3184.00,0.0033
3183.00,0.0033
3182.00,0.0033
3181.00,0.0033
3180.00,0.0032
3179.00,0.0032
3178.00,0.0032
3177.00,0.0031
3176.00,0.0031
3175.00,0.0031
3174.00,0.0031
3173.00,0.0030
3172.00,0.0030
3171.00,0.0031
3170.00,0.0031
3169.00,0.0031
3168.00,0.0031
3167.00,0.0030
3166.00,0.0030
3165.00,0.0030
3164.00,0.0030
3163.00,0.0030
3162.00,0.0030
3161.00,0.0030
3160.00,0.0029
3159.00,0.0029
3158.00,0.0029
3157.00,0.0029
3156.00,0.0029
3155.00,0.0029
3154.00,0.0030
3153.00,0.0030
3152.00,0.0030
3151.00,0.0030
3150.00,0.0030
3149.00,0.0030
3148.00,0.0030
3147.00,0.0030
3146.00,0.0030
3145.00,0.0030
3144.00,0.0029
3143.00,0.0030
3142.00,0.0030
3141.00,0.0030
3140.00,0.0030
3139.00,0.0030
3138.00,0.0029
3137.00,0.0029
3136.00,0.0029
3135.00,0.0028
3134.00,0.0028
3133.00,0.0028
3132.00,0.0027
3131.00,0.0027
3130.00,0.0027
3129.00,0.0028
3128.00,0.0028
3127.00,0.0028
3126.00,0.0028
3125.00,0.0028
3124.00,0.0027
3123.00,0.0026
3122.00,0.0025
3121.00,0.0025
3120.00,0.0024
3119.00,0.0024
3118.00,0.0024
3117.00,0.0023
3116.00,0.0023
3115.00,0.0024
3114.00,0.0024
3113.00,0.0025
3112.00,0.0025
3111.00,0.0025
3110.00,0.0025
3109.00,0.0024
3108.00,0.0024
3107.00,0.0024
3106.00,0.0024
3105.00,0.0024
3104.00,0.0024
3103.00,0.0024
3102.00,0.0024
3101.00,0.0024
3100.00,0.0024
3099.00,0.0024
3098.00,0.0024
3097.00,0.0023
3096.00,0.0023
3095.00,0.0023
3094.00,0.0023
3093.00,0.0023
3092.00,0.0023
3091.00,0.0023
3090.00,0.0024
3089.00,0.0024
3088.00,0.0024
3087.00,0.0024
3086.00,0.0024
3085.00,0.0024
3084.00,0.0023
3083.00,0.0024
3082.00,0.0024
3081.00,0.0024
3080.00,0.0024
3079.00,0.0024
3078.00,0.0024
3077.00,0.0024
3076.00,0.0024
3075.00,0.0024
3074.00,0.0024
3073.00,0.0024
3072.00,0.0024
3071.00,0.0024
3070.00,0.0025
3069.00,0.0025
3068.00,0.0024
3067.00,0.0024
3066.00,0.0024
3065.00,0.0025
3064.00,0.0025
3063.00,0.0025
3062.00,0.0025
3061.00,0.0026
3060.00,0.0026
3059.00,0.0026
3058.00,0.0026
3057.00,0.0027
3056.00,0.0027
3055.00,0.0028
3054.00,0.0028
3053.00,0.0028
3052.00,0.0028
3051.00,0.0028
3050.00,0.0029
3049.00,0.0029
3048.00,0.0029
3047.00,0.0029
3046.00,0.0029
3045.00,0.0029
3044.00,0.0029
3043.00,0.0029
3042.00,0.0029
3041.00,0.0029
3040.00,0.0030
3039.00,0.0030
3038.00,0.0031
3037.00,0.0031
3036.00,0.0031
3035.00,0.0031
3034.00,0.0032
3033.00,0.0032
3032.00,0.0033
3031.00,0.0033
3030.00,0.0034
3029.00,0.0034
3028.00,0.0035
3027.00,0.0035
3026.00,0.0036
3025.00,0.0037
3024.00,0.0037
3023.00,0.0038
3022.00,0.0039
3021.00,0.0040
3020.00,0.0040
3019.00,0.0041
3018.00,0.0041
3017.00,0.0042
3016.00,0.0043
3015.00,0.0044
3014.00,0.0045
3013.00,0.0046
3012.00,0.0047
3011.00,0.0048
3010.00,0.0049
3009.00,0.0050
3008.00,0.0052
3007.00,0.0053
3006.00,0.0055
3005.00,0.0057
3004.00,0.0058
3003.00,0.0060
3002.00,0.0062
3001.00,0.0064
3000.00,0.0067
2999.00,0.0069
2998.00,0.0072
2997.00,0.0076
2996.00,0.0079
2995.00,0.0083
2994.00,0.0087
2993.00,0.0091
2992.00,0.0096
2991.00,0.0102
2990.00,0.0109
2989.00,0.0116
2988.00,0.0124
2987.00,0.0133
2986.00,0.0143
2985.00,0.0153
2984.00,0.0165
2983.00,0.0179
2982.00,0.0194
2981.00,0.0212
2980.00,0.0233
2979.00,0.0257
2978.00,0.0284
2977.00,0.0315
2976.00,0.0351
2975.00,0.0391
2974.00,0.0438
2973.00,0.0491
2972.00,0.0552
2971.00,0.0621
2970.00,0.0698
2969.00,0.0784
2968.00,0.0878
2967.00,0.0981
2966.00,0.1090
2965.00,0.1205
2964.00,0.1322
2963.00,0.1435
2962.00,0.1539
2961.00,0.1626
2960.00,0.1694
2959.00,0.1743
2958.00,0.1776
2957.00,0.1799
2956.00,0.1820
2955.00,0.1843
2954.00,0.1871
2953.00,0.1899
2952.00,0.1921
2951.00,0.1928
2950.00,0.1908
2949.00,0.1858
2948.00,0.1776
2947.00,0.1669
2946.00,0.1548
2945.00,0.1424
2944.00,0.1309
2943.00,0.1212
2942.00,0.1136
2941.00,0.1084
2940.00,0.1055
2939.00,0.1046
2938.00,0.1057
2937.00,0.1085
2936.00,0.1129
2935.00,0.1186
2934.00,0.1255
2933.00,0.1336
2932.00,0.1426
2931.00,0.1524
2930.00,0.1627
2929.00,0.1732
2928.00,0.1836
2927.00,0.1936
2926.00,0.2032
2925.00,0.2123
2924.00,0.2210
2923.00,0.2294
2922.00,0.2375
2921.00,0.2450
2920.00,0.2513
2919.00,0.2558
2918.00,0.2576
2917.00,0.2563
2916.00,0.2519
2915.00,0.2451
2914.00,0.2369
2913.00,0.2281
2912.00,0.2198
2911.00,0.2123
2910.00,0.2057
2909.00,0.2000
2908.00,0.1948
2907.00,0.1897
2906.00,0.1843
2905.00,0.1787
2904.00,0.1726
2903.00,0.1663
2902.00,0.1597
2901.00,0.1531
2900.00,0.1467
2899.00,0.1405
2898.00,0.1346
2897.00,0.1292
2896.00,0.1243
2895.00,0.1200
2894.00,0.1163
2893.00,0.1133
2892.00,0.1108
2891.00,0.1088
2890.00,0.1074
2889.00,0.1064
2888.00,0.1057
2887.00,0.1053
2886.00,0.1053
2885.00,0.1056
2884.00,0.1062
2883.00,0.1073
2882.00,0.1086
2881.00,0.1102
2880.00,0.1116
2879.00,0.1127
2878.00,0.1132
2877.00,0.1130
2876.00,0.1123
2875.00,0.1115
2874.00,0.1111
2873.00,0.1112
2872.00,0.1120
2871.00,0.1134
2870.00,0.1152
2869.00,0.1168
2868.00,0.1176
2867.00,0.1170
2866.00,0.1145
2865.00,0.1100
2864.00,0.1039
2863.00,0.0972
2862.00,0.0905
2861.00,0.0848
2860.00,0.0804
2859.00,0.0775
2858.00,0.0760
2857.00,0.0756
2856.00,0.0762
2855.00,0.0776
2854.00,0.0794
2853.00,0.0815
2852.00,0.0837
2851.00,0.0857
2850.00,0.0874
2849.00,0.0888
2848.00,0.0902
2847.00,0.0920
2846.00,0.0946
2845.00,0.0983
2844.00,0.1031
2843.00,0.1087
2842.00,0.1145
2841.00,0.1199
2840.00,0.1240
2839.00,0.1259
2838.00,0.1249
2837.00,0.1209
2836.00,0.1139
2835.00,0.1045
2834.00,0.0938
2833.00,0.0828
2832.00,0.0725
2831.00,0.0634
2830.00,0.0557
2829.00,0.0494
2828.00,0.0443
2827.00,0.0401
2826.00,0.0367
2825.00,0.0338
2824.00,0.0315
2823.00,0.0295
2822.00,0.0277
2821.00,0.0262
2820.00,0.0249
2819.00,0.0237
2818.00,0.0227
2817.00,0.0218
2816.00,0.0210
2815.00,0.0203
2814.00,0.0196
2813.00,0.0191
2812.00,0.0185
2811.00,0.0180
2810.00,0.0175
2809.00,0.0170
2808.00,0.0164
2807.00,0.0158
2806.00,0.0152
2805.00,0.0145
2804.00,0.0139
2803.00,0.0133
2802.00,0.0128
2801.00,0.0124
2800.00,0.0120
2799.00,0.0117
2798.00,0.0115
2797.00,0.0112
2796.00,0.0110
2795.00,0.0108
2794.00,0.0105
2793.00,0.0102
2792.00,0.0099
2791.00,0.0095
2790.00,0.0092
2789.00,0.0089
2788.00,0.0085
2787.00,0.0082
2786.00,0.0078
2785.00,0.0075
2784.00,0.0073
2783.00,0.0070
2782.00,0.0068
2781.00,0.0066
2780.00,0.0064
2779.00,0.0063
2778.00,0.0061
2777.00,0.0060
2776.00,0.0059
2775.00,0.0058
2774.00,0.0057
2773.00,0.0056
2772.00,0.0055
2771.00,0.0055
2770.00,0.0054
2769.00,0.0054
2768.00,0.0054
2767.00,0.0054
2766.00,0.0053
2765.00,0.0053
2764.00,0.0052
2763.00,0.0052
2762.00,0.0051
2761.00,0.0051
2760.00,0.0051
2759.00,0.0050
2758.00,0.0050
2757.00,0.0050
2756.00,0.0050
2755.00,0.0050
2754.00,0.0050
2753.00,0.0049
2752.00,0.0049
2751.00,0.0049
2750.00,0.0049
2749.00,0.0049
2748.00,0.0049
2747.00,0.0050
2746.00,0.0050
2745.00,0.0051
2744.00,0.0051
2743.00,0.0052
2742.00,0.0053
2741.00,0.0054
2740.00,0.0056
2739.00,0.0057
2738.00,0.0058
2737.00,0.0059
2736.00,0.0060
2735.00,0.0060
2734.00,0.0062
2733.00,0.0063
2732.00,0.0065
2731.00,0.0067
2730.00,0.0069
2729.00,0.0071
2728.00,0.0074
2727.00,0.0076
2726.00,0.0079
2725.00,0.0082
2724.00,0.0083
2723.00,0.0084
2722.00,0.0083
2721.00,0.0082
2720.00,0.0079
2719.00,0.0076
2718.00,0.0073
2717.00,0.0070
2716.00,0.0067
2715.00,0.0064
2714.00,0.0062
2713.00,0.0060
2712.00,0.0058
2711.00,0.0056
2710.00,0.0055
2709.00,0.0054
2708.00,0.0053
2707.00,0.0051
2706.00,0.0050
2705.00,0.0049
2704.00,0.0048
2703.00,0.0048
2702.00,0.0047
2701.00,0.0046
2700.00,0.0046
2699.00,0.0045
2698.00,0.0044
2697.00,0.0044
2696.00,0.0043
2695.00,0.0043
2694.00,0.0043
2693.00,0.0044
2692.00,0.0044
2691.00,0.0044
2690.00,0.0044
2689.00,0.0044
2688.00,0.0044
2687.00,0.0044
2686.00,0.0044
2685.00,0.0044
2684.00,0.0044
2683.00,0.0044
2682.00,0.0044
2681.00,0.0045
2680.00,0.0045
2679.00,0.0045
2678.00,0.0044
2677.00,0.0044
2676.00,0.0044
2675.00,0.0043
2674.00,0.0043
2673.00,0.0043
2672.00,0.0043
2671.00,0.0043
2670.00,0.0042
2669.00,0.0043
2668.00,0.0043
2667.00,0.0043
2666.00,0.0044
2665.00,0.0045
2664.00,0.0045
2663.00,0.0046
2662.00,0.0046
2661.00,0.0047
2660.00,0.0047
2659.00,0.0047
2658.00,0.0047
2657.00,0.0047
2656.00,0.0046
2655.00,0.0046
2654.00,0.0046
2653.00,0.0045
2652.00,0.0044
2651.00,0.0044
2650.00,0.0043
2649.00,0.0043
2648.00,0.0043
2647.00,0.0042
2646.00,0.0042
2645.00,0.0041
2644.00,0.0041
2643.00,0.0040
2642.00,0.0040
2641.00,0.0039
2640.00,0.0038
2639.00,0.0037
2638.00,0.0037
2637.00,0.0037
2636.00,0.0036
2635.00,0.0037
2634.00,0.0037
2633.00,0.0037
2632.00,0.0037
2631.00,0.0037
2630.00,0.0038
2629.00,0.0038
2628.00,0.0038
2627.00,0.0038
2626.00,0.0038
2625.00,0.0038
2624.00,0.0038
2623.00,0.0039
2622.00,0.0039
2621.00,0.0039
2620.00,0.0039
2619.00,0.0039
2618.00,0.0039
2617.00,0.0039
2616.00,0.0039
2615.00,0.0039
2614.00,0.0038
2613.00,0.0038
2612.00,0.0037
2611.00,0.0037
2610.00,0.0036
2609.00,0.0036
2608.00,0.0035
2607.00,0.0034
2606.00,0.0033
2605.00,0.0033
2604.00,0.0032
2603.00,0.0032
2602.00,0.0032
2601.00,0.0031
2600.00,0.0031
2599.00,0.0030
2598.00,0.0030
2597.00,0.0030
2596.00,0.0029
2595.00,0.0029
2594.00,0.0029
2593.00,0.0030
2592.00,0.0030
2591.00,0.0031
2590.00,0.0032
2589.00,0.0032
2588.00,0.0033
2587.00,0.0033
2586.00,0.0034
2585.00,0.0035
2584.00,0.0035
2583.00,0.0036
2582.00,0.0035
2581.00,0.0035
2580.00,0.0034
2579.00,0.0033
2578.00,0.0032
2577.00,0.0032
2576.00,0.0031
2575.00,0.0030
2574.00,0.0030
2573.00,0.0029
2572.00,0.0028
2571.00,0.0027
2570.00,0.0026
2569.00,0.0025
2568.00,0.0024
2567.00,0.0024
2566.00,0.0023
2565.00,0.0023
2564.00,0.0023
2563.00,0.0023
2562.00,0.0023
2561.00,0.0022
2560.00,0.0022
2559.00,0.0021
2558.00,0.0021
2557.00,0.0021
2556.00,0.0021
2555.00,0.0021
2554.00,0.0020
2553.00,0.0019
2552.00,0.0018
2551.00,0.0018
2550.00,0.0017
2549.00,0.0017
2548.00,0.0017
2547.00,0.0017
2546.00,0.0017
2545.00,0.0017
2544.00,0.0017
2543.00,0.0016
2542.00,0.0016
2541.00,0.0016
2540.00,0.0016
2539.00,0.0016
2538.00,0.0016
2537.00,0.0016
2536.00,0.0016
2535.00,0.0015
2534.00,0.0015
2533.00,0.0015
2532.00,0.0016
2531.00,0.0016
2530.00,0.0015
2529.00,0.0014
2528.00,0.0014
2527.00,0.0013
2526.00,0.0013
2525.00,0.0013
2524.00,0.0013
2523.00,0.0013
2522.00,0.0013
2521.00,0.0013
2520.00,0.0012
2519.00,0.0012
2518.00,0.0012
2517.00,0.0011
2516.00,0.0011
2515.00,0.0011
2514.00,0.0011
2513.00,0.0011
2512.00,0.0011
2511.00,0.0011
2510.00,0.0011
2509.00,0.0010
2508.00,0.0010
2507.00,0.0011
2506.00,0.0010
2505.00,0.0010
2504.00,0.0010
2503.00,0.0009
2502.00,0.0010
2501.00,0.0010
2500.00,0.0010
2499.00,0.0010
2498.00,0.0010
2497.00,0.0010
2496.00,0.0010
2495.00,0.0011
2494.00,0.0011
2493.00,0.0011
2492.00,0.0010
2491.00,0.0009
2490.00,0.0009
2489.00,0.0008
2488.00,0.0009
2487.00,0.0009
2486.00,0.0009
2485.00,0.0009
2484.00,0.0009
2483.00,0.0009
2482.00,0.0008
2481.00,0.0008
2480.00,0.0008
2479.00,0.0008
2478.00,0.0008
2477.00,0.0008
2476.00,0.0008
2475.00,0.0008
2474.00,0.0008
2473.00,0.0008
2472.00,0.0008
2471.00,0.0008
2470.00,0.0008
2469.00,0.0007
2468.00,0.0007
2467.00,0.0007
2466.00,0.0007
2465.00,0.0007
2464.00,0.0008
2463.00,0.0008
2462.00,0.0009
2461.00,0.0009
2460.00,0.0009
2459.00,0.0010
2458.00,0.0010
2457.00,0.0010
2456.00,0.0010
2455.00,0.0010
2454.00,0.0010
2453.00,0.0011
2452.00,0.0011
2451.00,0.0011
2450.00,0.0011
2449.00,0.0011
2448.00,0.0011
2447.00,0.0011
2446.00,0.0011
2445.00,0.0011
2444.00,0.0011
2443.00,0.0011
2442.00,0.0011
2441.00,0.0011
2440.00,0.0011
2439.00,0.0010
2438.00,0.0010
2437.00,0.0010
2436.00,0.0010
2435.00,0.0011
2434.00,0.0011
2433.00,0.0011
2432.00,0.0011
2431.00,0.0011
2430.00,0.0011
2429.00,0.0011
2428.00,0.0011
2427.00,0.0011
2426.00,0.0011
2425.00,0.0011
2424.00,0.0011
2423.00,0.0011
2422.00,0.0011
2421.00,0.0010
2420.00,0.0010
2419.00,0.0010
2418.00,0.0010
2417.00,0.0009
2416.00,0.0009
2415.00,0.0008
2414.00,0.0008
2413.00,0.0008
2412.00,0.0008
2411.00,0.0008
2410.00,0.0007
2409.00,0.0007
2408.00,0.0007
2407.00,0.0007
2406.00,0.0007
2405.00,0.0007
2404.00,0.0007
2403.00,0.0007
2402.00,0.0007
2401.00,0.0008
2400.00,0.0008
2399.00,0.0008
2398.00,0.0008
2397.00,0.0008
2396.00,0.0007
2395.00,0.0007
2394.00,0.0007
2393.00,0.0007
2392.00,0.0007
2391.00,0.0007
2390.00,0.0007
2389.00,0.0007
2388.00,0.0007
2387.00,0.0007
2386.00,0.0007
2385.00,0.0007
2384.00,0.0006
2383.00,0.0005
2382.00,0.0004
2381.00,0.0003
2380.00,0.0002
2379.00,0.0001
2378.00,0.0000
2377.00,0.0000
2376.00,0.0000
2375.00,0.0001
2374.00,0.0001
2373.00,0.0002
2372.00,0.0002
2371.00,0.0002
2370.00,0.0002
2369.00,0.0002
2368.00,0.0002
2367.00,0.0001
2366.00,0.0001
2365.00,-0.0000
2364.00,-0.0001
2363.00,-0.0001
2362.00,0.0000
2361.00,0.0001
2360.00,0.0002
2359.00,0.0002
2358.00,0.0002
2357.00,0.0002
2356.00,0.0002
2355.00,0.0002
2354.00,0.0003
2353.00,0.0003
2352.00,0.0004
2351.00,0.0003
2350.00,0.0003
2349.00,0.0003
2348.00,0.0003
2347.00,0.0004
2346.00,0.0004
2345.00,0.0004
2344.00,0.0004
2343.00,0.0004
2342.00,0.0004
2341.00,0.0004
2340.00,0.0005
2339.00,0.0005
2338.00,0.0006
2337.00,0.0007
2336.00,0.0007
2335.00,0.0007
2334.00,0.0006
2333.00,0.0006
2332.00,0.0005
2331.00,0.0005
2330.00,0.0005
2329.00,0.0006
2328.00,0.0008
2327.00,0.0011
2326.00,0.0015
2325.00,0.0019
2324.00,0.0021
2323.00,0.0020
2322.00,0.0018
2321.00,0.0015
2320.00,0.0013
2319.00,0.0011
2318.00,0.0011
2317.00,0.0011
2316.00,0.0012
2315.00,0.0011
2314.00,0.0010
2313.00,0.0009
2312.00,0.0008
2311.00,0.0006
2310.00,0.0005
2309.00,0.0005
2308.00,0.0005
2307.00,0.0005
2306.00,0.0006
2305.00,0.0007
2304.00,0.0007
2303.00,0.0007
2302.00,0.0007
2301.00,0.0007
2300.00,0.0008
2299.00,0.0008
2298.00,0.0009
2297.00,0.0009
2296.00,0.0010
2295.00,0.0010
2294.00,0.0011
2293.00,0.0012
2292.00,0.0013
2291.00,0.0013
2290.00,0.0014
2289.00,0.0015
2288.00,0.0016
2287.00,0.0017
2286.00,0.0017
2285.00,0.0017
2284.00,0.0016
2283.00,0.0015
2282.00,0.0015
2281.00,0.0014
2280.00,0.0013
2279.00,0.0013
2278.00,0.0012
2277.00,0.0012
2276.00,0.0012
2275.00,0.0013
2274.00,0.0013
2273.00,0.0014
2272.00,0.0014
2271.00,0.0014
2270.00,0.0014
2269.00,0.0012
2268.00,0.0010
2267.00,0.0009
2266.00,0.0009
2265.00,0.0010
2264.00,0.0011
2263.00,0.0010
2262.00,0.0010
2261.00,0.0010
2260.00,0.0011
2259.00,0.0012
2258.00,0.0013
2257.00,0.0012
2256.00,0.0011
2255.00,0.0009
2254.00,0.0008
2253.00,0.0008
2252.00,0.0008
2251.00,0.0009
2250.00,0.0010
2249.00,0.0010
2248.00,0.0011
2247.00,0.0011
2246.00,0.0011
2245.00,0.0010
2244.00,0.0010
2243.00,0.0009
2242.00,0.0009
2241.00,0.0009
2240.00,0.0009
2239.00,0.0008
2238.00,0.0007
2237.00,0.0007
2236.00,0.0006
2235.00,0.0005
2234.00,0.0005
2233.00,0.0005
2232.00,0.0006
2231.00,0.0008
2230.00,0.0010
2229.00,0.0010
2228.00,0.0010
2227.00,0.0009
2226.00,0.0007
2225.00,0.0006
2224.00,0.0007
2223.00,0.0009
2222.00,0.0010
2221.00,0.0011
2220.00,0.0010
2219.00,0.0009
2218.00,0.0008
2217.00,0.0007
2216.00,0.0006
2215.00,0.0006
2214.00,0.0006
2213.00,0.0006
2212.00,0.0005
2211.00,0.0003
2210.00,0.0002
2209.00,0.0002
2208.00,0.0003
2207.00,0.0003
2206.00,0.0005
2205.00,0.0005
2204.00,0.0005
2203.00,0.0004
2202.00,0.0003
2201.00,0.0003
2200.00,0.0003
2199.00,0.0004
2198.00,0.0005
2197.00,0.0005
2196.00,0.0005
2195.00,0.0006
2194.00,0.0007
2193.00,0.0009
2192.00,0.0010
2191.00,0.0011
2190.00,0.0012
2189.00,0.0012
2188.00,0.0012
2187.00,0.0012
2186.00,0.0013
2185.00,0.0013
2184.00,0.0014
2183.00,0.0014
2182.00,0.0013
2181.00,0.0012
2180.00,0.0010
2179.00,0.0008
2178.00,0.0005
2177.00,0.0002
2176.00,0.0000
2175.00,-0.0000
2174.00,0.0002
2173.00,0.0006
2172.00,0.0009
2171.00,0.0012
2170.00,0.0014
2169.00,0.0017
2168.00,0.0020
2167.00,0.0021
2166.00,0.0021
2165.00,0.0020
2164.00,0.0018
2163.00,0.0014
2162.00,0.0010
2161.00,0.0003
2160.00,-0.0007
2159.00,-0.0019
2158.00,-0.0028
2157.00,-0.0030
2156.00,-0.0026
2155.00,-0.0022
2154.00,-0.0019
2153.00,-0.0018
2152.00,-0.0016
2151.00,-0.0015
2150.00,-0.0015
2149.00,-0.0015
2148.00,-0.0015
2147.00,-0.0016
2146.00,-0.0016
2145.00,-0.0015
2144.00,-0.0014
2143.00,-0.0012
2142.00,-0.0012
2141.00,-0.0013
2140.00,-0.0014
2139.00,-0.0014
2138.00,-0.0013
2137.00,-0.0010
2136.00,-0.0008
2135.00,-0.0008
2134.00,-0.0009
2133.00,-0.0011
2132.00,-0.0013
2131.00,-0.0014
2130.00,-0.0014
2129.00,-0.0012
2128.00,-0.0009
2127.00,-0.0008
2126.00,-0.0007
2125.00,-0.0007
2124.00,-0.0007
2123.00,-0.0006
2122.00,-0.0006
2121.00,-0.0005
2120.00,-0.0004
2119.00,-0.0004
2118.00,-0.0003
2117.00,-0.0002
2116.00,-0.0002
2115.00,-0.0001
2114.00,-0.0001
2113.00,-0.0000
2112.00,0.0001
2111.00,0.0001
2110.00,0.0001
2109.00,0.0001
2108.00,0.0001
2107.00,0.0001
2106.00,0.0001
2105.00,0.0002
2104.00,0.0002
2103.00,0.0002
2102.00,0.0001
2101.00,-0.0000
2100.00,-0.0002
2099.00,-0.0002
2098.00,-0.0003
2097.00,-0.0002
2096.00,-0.0003
2095.00,-0.0004
2094.00,-0.0005
2093.00,-0.0005
2092.00,-0.0004
2091.00,-0.0003
2090.00,-0.0001
2089.00,0.0001
2088.00,0.0002
2087.00,0.0003
2086.00,0.0004
2085.00,0.0005
2084.00,0.0007
2083.00,0.0007
2082.00,0.0007
2081.00,0.0007
2080.00,0.0006
2079.00,0.0005
2078.00,0.0003
2077.00,0.0001
2076.00,-0.0000
2075.00,-0.0001
2074.00,0.0000
2073.00,0.0002
2072.00,0.0003
2071.00,0.0002
2070.00,0.0001
2069.00,-0.0000
2068.00,-0.0001
2067.00,-0.0001
2066.00,-0.0001
2065.00,-0.0000
2064.00,0.0000
2063.00,0.0000
2062.00,0.0000
2061.00,0.0000
2060.00,0.0001
2059.00,0.0002
2058.00,0.0002
2057.00,0.0003
2056.00,0.0004
2055.00,0.0003
2054.00,0.0002
2053.00,0.0004
2052.00,0.0007
2051.00,0.0011
2050.00,0.0012
2049.00,0.0010
2048.00,0.0006
2047.00,0.0002
2046.00,0.0000
2045.00,0.0000
2044.00,0.0001
2043.00,0.0001
2042.00,-0.0001
2041.00,-0.0002
2040.00,-0.0002
2039.00,-0.0002
2038.00,-0.0002
2037.00,-0.0003
2036.00,-0.0003
2035.00,-0.0003
2034.00,-0.0004
2033.00,-0.0006
2032.00,-0.0008
2031.00,-0.0009
2030.00,-0.0009
2029.00,-0.0009
2028.00,-0.0012
2027.00,-0.0015
2026.00,-0.0017
2025.00,-0.0016
2024.00,-0.0013
2023.00,-0.0010
2022.00,-0.0010
2021.00,-0.0010
2020.00,-0.0011
2019.00,-0.0012
2018.00,-0.0013
2017.00,-0.0015
2016.00,-0.0015
2015.00,-0.0014
2014.00,-0.0013
2013.00,-0.0011
2012.00,-0.0010
2011.00,-0.0009
2010.00,-0.0009
2009.00,-0.0010
2008.00,-0.0012
2007.00,-0.0015
2006.00,-0.0017
2005.00,-0.0019
2004.00,-0.0020
2003.00,-0.0019
2002.00,-0.0018
2001.00,-0.0016
2000.00,-0.0013
1999.00,-0.0012
1998.00,-0.0012
1997.00,-0.0012
1996.00,-0.0012
1995.00,-0.0012
1994.00,-0.0011
1993.00,-0.0011
1992.00,-0.0009
1991.00,-0.0008
1990.00,-0.0006
1989.00,-0.0005
1988.00,-0.0005
1987.00,-0.0005
1986.00,-0.0006
1985.00,-0.0006
1984.00,-0.0005
1983.00,-0.0002
1982.00,0.0002
1981.00,0.0005
1980.00,0.0006
1979.00,0.0003
1978.00,-0.0005
1977.00,-0.0015
1976.00,-0.0022
1975.00,-0.0024
1974.00,-0.0023
1973.00,-0.0021
1972.00,-0.0019
1971.00,-0.0020
1970.00,-0.0020
1969.00,-0.0020
1968.00,-0.0018
1967.00,-0.0016
1966.00,-0.0014
1965.00,-0.0013
1964.00,-0.0011
1963.00,-0.0011
1962.00,-0.0012
1961.00,-0.0015
1960.00,-0.0017
1959.00,-0.0019
1958.00,-0.0019
1957.00,-0.0018
1956.00,-0.0016
1955.00,-0.0015
1954.00,-0.0014
1953.00,-0.0014
1952.00,-0.0015
1951.00,-0.0016
1950.00,-0.0017
1949.00,-0.0016
1948.00,-0.0015
1947.00,-0.0015
1946.00,-0.0015
1945.00,-0.0016
1944.00,-0.0016
1943.00,-0.0016
1942.00,-0.0015
1941.00,-0.0014
1940.00,-0.0013
1939.00,-0.0012
1938.00,-0.0011
1937.00,-0.0010
1936.00,-0.0010
1935.00,-0.0010
1934.00,-0.0010
1933.00,-0.0010
1932.00,-0.0010
1931.00,-0.0010
1930.00,-0.0009
1929.00,-0.0008
1928.00,-0.0007
1927.00,-0.0007
1926.00,-0.0007
1925.00,-0.0008
1924.00,-0.0007
1923.00,-0.0005
1922.00,-0.0003
1921.00,-0.0003
1920.00,-0.0003
1919.00,-0.0003
1918.00,-0.0003
1917.00,-0.0003
1916.00,-0.0003
1915.00,-0.0003
1914.00,-0.0003
1913.00,-0.0004
1912.00,-0.0004
1911.00,-0.0004
1910.00,-0.0004
1909.00,-0.0005
1908.00,-0.0004
1907.00,-0.0004
1906.00,-0.0004
1905.00,-0.0003
1904.00,-0.0002
1903.00,-0.0003
1902.00,-0.0003
1901.00,-0.0003
1900.00,-0.0003
1899.00,-0.0003
1898.00,-0.0003
1897.00,-0.0002
1896.00,-0.0002
1895.00,-0.0001
1894.00,-0.0001
1893.00,-0.0001
1892.00,-0.0001
1891.00,-0.0001
1890.00,-0.0001
1889.00,-0.0001
1888.00,-0.0001
1887.00,-0.0001
1886.00,-0.0001
1885.00,-0.0000
1884.00,-0.0000
1883.00,-0.0001
1882.00,-0.0002
1881.00,-0.0002
1880.00,-0.0002
1879.00,-0.0001
1878.00,-0.0001
1877.00,-0.0000
1876.00,-0.0000
1875.00,-0.0000
1874.00,-0.0000
1873.00,0.0000
1872.00,0.0000
1871.00,0.0000
1870.00,0.0001
1869.00,0.0001
1868.00,0.0001
1867.00,-0.0000
1866.00,-0.0001
1865.00,-0.0002
1864.00,-0.0003
1863.00,-0.0003
1862.00,-0.0002
1861.00,-0.0001
1860.00,-0.0001
1859.00,0.0000
1858.00,0.0001
1857.00,0.0001
1856.00,0.0001
1855.00,0.0000
1854.00,-0.0000
1853.00,-0.0000
1852.00,-0.0000
1851.00,-0.0000
1850.00,0.0000
1849.00,0.0000
1848.00,0.0001
1847.00,0.0001
1846.00,0.0001
1845.00,0.0001
1844.00,0.0000
1843.00,0.0000
1842.00,0.0000
1841.00,0.0001
1840.00,0.0001
1839.00,0.0001
1838.00,0.0001
1837.00,0.0001
1836.00,0.0001
1835.00,0.0002
1834.00,0.0002
1833.00,0.0003
1832.00,0.0002
1831.00,0.0002
1830.00,0.0001
1829.00,0.0001
1828.00,0.0001
1827.00,0.0002
1826.00,0.0002
1825.00,0.0002
1824.00,0.0002
1823.00,0.0002
1822.00,0.0002
1821.00,0.0002
1820.00,0.0001
1819.00,0.0000
1818.00,-0.0001
1817.00,-0.0002
1816.00,-0.0002
1815.00,-0.0001
1814.00,0.0000
1813.00,0.0001
1812.00,0.0002
1811.00,0.0003
1810.00,0.0002
1809.00,0.0002
1808.00,0.0003
1807.00,0.0003
1806.00,0.0003
1805.00,0.0003
1804.00,0.0003
1803.00,0.0003
1802.00,0.0003
1801.00,0.0003
1800.00,0.0003
1799.00,0.0003
1798.00,0.0003
1797.00,0.0003
1796.00,0.0003
1795.00,0.0004
1794.00,0.0003
1793.00,0.0003
1792.00,0.0003
1791.00,0.0004
1790.00,0.0004
1789.00,0.0005
1788.00,0.0006
1787.00,0.0006
1786.00,0.0006
1785.00,0.0006
1784.00,0.0006
1783.00,0.0006
1782.00,0.0007
1781.00,0.0007
1780.00,0.0007
1779.00,0.0007
1778.00,0.0006
1777.00,0.0006
1776.00,0.0007
1775.00,0.0007
1774.00,0.0007
1773.00,0.0008
1772.00,0.0008
1771.00,0.0009
1770.00,0.0009
1769.00,0.0009
1768.00,0.0009
1767.00,0.0009
1766.00,0.0009
1765.00,0.0009
1764.00,0.0009
1763.00,0.0009
1762.00,0.0009
1761.00,0.0009
1760.00,0.0009
1759.00,0.0009
1758.00,0.0010
1757.00,0.0010
1756.00,0.0011
1755.00,0.0012
1754.00,0.0013
1753.00,0.0013
1752.00,0.0013
1751.00,0.0014
1750.00,0.0014
1749.00,0.0015
1748.00,0.0015
1747.00,0.0015
1746.00,0.0015
1745.00,0.0015
1744.00,0.0016
1743.00,0.0017
1742.00,0.0018
1741.00,0.0018
1740.00,0.0018
1739.00,0.0018
1738.00,0.0018
1737.00,0.0018
1736.00,0.0019
1735.00,0.0019
1734.00,0.0020
1733.00,0.0020
1732.00,0.0020
1731.00,0.0020
1730.00,0.0020
1729.00,0.0020
1728.00,0.0020
1727.00,0.0020
1726.00,0.0021
1725.00,0.0022
1724.00,0.0022
1723.00,0.0022
1722.00,0.0022
1721.00,0.0022
1720.00,0.0022
1719.00,0.0022
1718.00,0.0021
1717.00,0.0021
1716.00,0.0021
1715.00,0.0020
1714.00,0.0019
1713.00,0.0019
1712.00,0.0019
1711.00,0.0019
1710.00,0.0020
1709.00,0.0020
1708.00,0.0021
1707.00,0.0021
1706.00,0.0022
1705.00,0.0021
1704.00,0.0021
1703.00,0.0022
1702.00,0.0022
1701.00,0.0022
1700.00,0.0023
1699.00,0.0024
1698.00,0.0025
1697.00,0.0025
1696.00,0.0025
1695.00,0.0025
1694.00,0.0025
1693.00,0.0025
1692.00,0.0026
1691.00,0.0026
1690.00,0.0027
1689.00,0.0027
1688.00,0.0028
1687.00,0.0028
1686.00,0.0027
1685.00,0.0027
1684.00,0.0027
1683.00,0.0028
1682.00,0.0030
1681.00,0.0031
1680.00,0.0032
1679.00,0.0033
1678.00,0.0034
1677.00,0.0034
1676.00,0.0034
1675.00,0.0034
1674.00,0.0035
1673.00,0.0036
1672.00,0.0036
1671.00,0.0037
1670.00,0.0037
1669.00,0.0038
1668.00,0.0038
1667.00,0.0038
1666.00,0.0038
1665.00,0.0039
1664.00,0.0039
1663.00,0.0039
1662.00,0.0040
1661.00,0.0040
1660.00,0.0040
1659.00,0.0041
1658.00,0.0041
1657.00,0.0041
1656.00,0.0041
1655.00,0.0041
1654.00,0.0042
1653.00,0.0043
1652.00,0.0045
1651.00,0.0046
1650.00,0.0046
1649.00,0.0047
1648.00,0.0049
1647.00,0.0050
1646.00,0.0050
1645.00,0.0050
1644.00,0.0050
1643.00,0.0050
1642.00,0.0050
1641.00,0.0050
1640.00,0.0050
1639.00,0.0050
1638.00,0.0051
1637.00,0.0051
1636.00,0.0051
1635.00,0.0051
1634.00,0.0050
1633.00,0.0050
1632.00,0.0049
1631.00,0.0049
1630.00,0.0049
1629.00,0.0049
1628.00,0.0049
1627.00,0.0048
1626.00,0.0047
1625.00,0.0047
1624.00,0.0046
1623.00,0.0045
1622.00,0.0044
1621.00,0.0043
1620.00,0.0043
1619.00,0.0043
1618.00,0.0043
1617.00,0.0043
1616.00,0.0043
1615.00,0.0043
1614.00,0.0044
1613.00,0.0044
1612.00,0.0044
1611.00,0.0044
1610.00,0.0043
1609.00,0.0043
1608.00,0.0042
1607.00,0.0042
1606.00,0.0042
1605.00,0.0042
1604.00,0.0042
1603.00,0.0042
1602.00,0.0042
1601.00,0.0042
1600.00,0.0042
1599.00,0.0042
1598.00,0.0041
1597.00,0.0041
1596.00,0.0041
1595.00,0.0041
1594.00,0.0041
1593.00,0.0041
1592.00,0.0042
1591.00,0.0042
1590.00,0.0043
1589.00,0.0044
1588.00,0.0045
1587.00,0.0046
1586.00,0.0047
1585.00,0.0049
1584.00,0.0050
1583.00,0.0052
1582.00,0.0055
1581.00,0.0058
1580.00,0.0060
1579.00,0.0062
1578.00,0.0063
1577.00,0.0064
1576.00,0.0065
1575.00,0.0064
1574.00,0.0063
1573.00,0.0062
1572.00,0.0061
1571.00,0.0059
1570.00,0.0058
1569.00,0.0057
1568.00,0.0055
1567.00,0.0055
1566.00,0.0054
1565.00,0.0053
1564.00,0.0053
1563.00,0.0053
1562.00,0.0053
1561.00,0.0054
1560.00,0.0054
1559.00,0.0053
1558.00,0.0052
1557.00,0.0052
1556.00,0.0053
1555.00,0.0053
1554.00,0.0054
1553.00,0.0055
1552.00,0.0055
1551.00,0.0056
1550.00,0.0057
1549.00,0.0058
1548.00,0.0059
1547.00,0.0061
1546.00,0.0063
1545.00,0.0065
1544.00,0.0068
1543.00,0.0071
1542.00,0.0072
1541.00,0.0074
1540.00,0.0074
1539.00,0.0072
1538.00,0.0070
1537.00,0.0067
1536.00,0.0065
1535.00,0.0062
1534.00,0.0058
1533.00,0.0055
1532.00,0.0053
1531.00,0.0052
1530.00,0.0051
1529.00,0.0051
1528.00,0.0051
1527.00,0.0050
1526.00,0.0049
1525.00,0.0049
1524.00,0.0049
1523.00,0.0049
1522.00,0.0049
1521.00,0.0050
1520.00,0.0051
1519.00,0.0051
1518.00,0.0051
1517.00,0.0052
1516.00,0.0052
1515.00,0.0052
1514.00,0.0052
1513.00,0.0053
1512.00,0.0055
1511.00,0.0055
1510.00,0.0056
1509.00,0.0057
1508.00,0.0059
1507.00,0.0060
1506.00,0.0060
1505.00,0.0061
1504.00,0.0063
1503.00,0.0064
1502.00,0.0065
1501.00,0.0068
1500.00,0.0071
1499.00,0.0073
1498.00,0.0075
1497.00,0.0078
1496.00,0.0082
1495.00,0.0084
1494.00,0.0085
1493.00,0.0088
1492.00,0.0092
1491.00,0.0096
1490.00,0.0100
1489.00,0.0105
1488.00,0.0111
1487.00,0.0115
1486.00,0.0120
1485.00,0.0126
1484.00,0.0134
1483.00,0.0141
1482.00,0.0151
1481.00,0.0162
1480.00,0.0175
1479.00,0.0187
1478.00,0.0203
1477.00,0.0224
1476.00,0.0249
1475.00,0.0278
1474.00,0.0316
1473.00,0.0373
1472.00,0.0440
1471.00,0.0504
1470.00,0.0564
1469.00,0.0628
1468.00,0.0697
1467.00,0.0771
1466.00,0.0855
1465.00,0.0946
1464.00,0.1025
1463.00,0.1079
1462.00,0.1114
1461.00,0.1139
1460.00,0.1158
1459.00,0.1172
1458.00,0.1186
1457.00,0.1199
1456.00,0.1203
1455.00,0.1199
1454.00,0.1191
1453.00,0.1179
1452.00,0.1156
1451.00,0.1123
1450.00,0.1075
1449.00,0.1006
1448.00,0.0916
1447.00,0.0820
1446.00,0.0732
1445.00,0.0656
1444.00,0.0590
1443.00,0.0535
1442.00,0.0493
1441.00,0.0463
1440.00,0.0443
1439.00,0.0433
1438.00,0.0430
1437.00,0.0426
1436.00,0.0412
1435.00,0.0386
1434.00,0.0353
1433.00,0.0313
1432.00,0.0271
1431.00,0.0234
1430.00,0.0205
1429.00,0.0183
1428.00,0.0168
1427.00,0.0159
1426.00,0.0152
1425.00,0.0146
1424.00,0.0141
1423.00,0.0137
1422.00,0.0135
1421.00,0.0132
1420.00,0.0128
1419.00,0.0125
1418.00,0.0122
1417.00,0.0119
1416.00,0.0116
1415.00,0.0114
1414.00,0.0113
1413.00,0.0111
1412.00,0.0109
1411.00,0.0109
1410.00,0.0108
1409.00,0.0107
1408.00,0.0106
1407.00,0.0106
1406.00,0.0106
1405.00,0.0106
1404.00,0.0105
1403.00,0.0105
1402.00,0.0106
1401.00,0.0107
1400.00,0.0108
1399.00,0.0110
1398.00,0.0112
1397.00,0.0113
1396.00,0.0114
1395.00,0.0117
1394.00,0.0122
1393.00,0.0126
1392.00,0.0131
1391.00,0.0139
1390.00,0.0149
1389.00,0.0163
1388.00,0.0184
1387.00,0.0216
1386.00,0.0259
1385.00,0.0315
1384.00,0.0392
1383.00,0.0499
1382.00,0.0642
1381.00,0.0822
1380.00,0.1039
1379.00,0.1280
1378.00,0.1504
1377.00,0.1661
1376.00,0.1702
1375.00,0.1605
1374.00,0.1398
1373.00,0.1155
1372.00,0.0937
1371.00,0.0758
1370.00,0.0615
1369.00,0.0505
1368.00,0.0429
1367.00,0.0381
1366.00,0.0355
1365.00,0.0345
1364.00,0.0347
1363.00,0.0358
1362.00,0.0376
1361.00,0.0394
1360.00,0.0408
1359.00,0.0411
1358.00,0.0402
1357.00,0.0380
1356.00,0.0348
1355.00,0.0313
1354.00,0.0279
1353.00,0.0249
1352.00,0.0225
1351.00,0.0205
1350.00,0.0188
1349.00,0.0174
1348.00,0.0163
1347.00,0.0153
1346.00,0.0144
1345.00,0.0137
1344.00,0.0132
1343.00,0.0127
1342.00,0.0123
1341.00,0.0120
1340.00,0.0117
1339.00,0.0115
1338.00,0.0113
1337.00,0.0113
1336.00,0.0113
1335.00,0.0115
1334.00,0.0118
1333.00,0.0121
1332.00,0.0125
1331.00,0.0127
1330.00,0.0129
1329.00,0.0128
1328.00,0.0125
1327.00,0.0122
1326.00,0.0117
1325.00,0.0112
1324.00,0.0107
1323.00,0.0103
1322.00,0.0100
1321.00,0.0097
1320.00,0.0095
1319.00,0.0092
1318.00,0.0090
1317.00,0.0089
1316.00,0.0088
1315.00,0.0088
1314.00,0.0088
1313.00,0.0089
1312.00,0.0090
1311.00,0.0092
1310.00,0.0097
1309.00,0.0105
1308.00,0.0116
1307.00,0.0130
1306.00,0.0144
1305.00,0.0153
1304.00,0.0155
1303.00,0.0151
1302.00,0.0143
1301.00,0.0136
1300.00,0.0132
1299.00,0.0129
1298.00,0.0127
1297.00,0.0126
1296.00,0.0124
1295.00,0.0122
1294.00,0.0118
1293.00,0.0114
1292.00,0.0109
1291.00,0.0105
1290.00,0.0101
1289.00,0.0097
1288.00,0.0094
1287.00,0.0091
1286.00,0.0088
1285.00,0.0086
1284.00,0.0084
1283.00,0.0083
1282.00,0.0082
1281.00,0.0082
1280.00,0.0081
1279.00,0.0080
1278.00,0.0079
1277.00,0.0079
1276.00,0.0078
1275.00,0.0079
1274.00,0.0079
1273.00,0.0079
1272.00,0.0079
1271.00,0.0080
1270.00,0.0081
1269.00,0.0083
1268.00,0.0086
1267.00,0.0089
1266.00,0.0093
1265.00,0.0096
1264.00,0.0099
1263.00,0.0103
1262.00,0.0107
1261.00,0.0112
1260.00,0.0119
1259.00,0.0126
1258.00,0.0135
1257.00,0.0142
1256.00,0.0145
1255.00,0.0143
1254.00,0.0135
1253.00,0.0123
1252.00,0.0112
1251.00,0.0103
1250.00,0.0096
1249.00,0.0091
1248.00,0.0088
1247.00,0.0085
1246.00,0.0082
1245.00,0.0080
1244.00,0.0079
1243.00,0.0078
1242.00,0.0077
1241.00,0.0076
1240.00,0.0076
1239.00,0.0075
1238.00,0.0074
1237.00,0.0074
1236.00,0.0074
1235.00,0.0074
1234.00,0.0074
1233.00,0.0074
1232.00,0.0074
1231.00,0.0074
1230.00,0.0075
1229.00,0.0076
1228.00,0.0077
1227.00,0.0079
1226.00,0.0082
1225.00,0.0085
1224.00,0.0087
1223.00,0.0090
1222.00,0.0092
1221.00,0.0095
1220.00,0.0096
1219.00,0.0097
1218.00,0.0097
1217.00,0.0096
1216.00,0.0095
1215.00,0.0092
1214.00,0.0089
1213.00,0.0086
1212.00,0.0084
1211.00,0.0082
1210.00,0.0081
1209.00,0.0081
1208.00,0.0080
1207.00,0.0079
1206.00,0.0078
1205.00,0.0077
1204.00,0.0077
1203.00,0.0076
1202.00,0.0076
1201.00,0.0076
1200.00,0.0076
1199.00,0.0076
1198.00,0.0076
1197.00,0.0076
1196.00,0.0077
1195.00,0.0077
1194.00,0.0078
1193.00,0.0079
1192.00,0.0079
1191.00,0.0079
1190.00,0.0079
1189.00,0.0079
1188.00,0.0079
1187.00,0.0080
1186.00,0.0080
1185.00,0.0081
1184.00,0.0082
1183.00,0.0083
1182.00,0.0086
1181.00,0.0089
1180.00,0.0093
1179.00,0.0099
1178.00,0.0107
1177.00,0.0117
1176.00,0.0130
1175.00,0.0148
1174.00,0.0172
1173.00,0.0202
1172.00,0.0238
1171.00,0.0278
1170.00,0.0317
1169.00,0.0349
1168.00,0.0367
1167.00,0.0370
1166.00,0.0358
1165.00,0.0336
1164.00,0.0311
1163.00,0.0287
1162.00,0.0267
1161.00,0.0249
1160.00,0.0236
1159.00,0.0225
1158.00,0.0217
1157.00,0.0211
1156.00,0.0207
1155.00,0.0203
1154.00,0.0200
1153.00,0.0196
1152.00,0.0190
1151.00,0.0184
1150.00,0.0175
1149.00,0.0165
1148.00,0.0154
1147.00,0.0143
1146.00,0.0134
1145.00,0.0126
1144.00,0.0118
1143.00,0.0112
1142.00,0.0106
1141.00,0.0100
1140.00,0.0095
1139.00,0.0091
1138.00,0.0087
1137.00,0.0085
1136.00,0.0083
1135.00,0.0081
1134.00,0.0079
1133.00,0.0078
1132.00,0.0077
1131.00,0.0076
1130.00,0.0076
1129.00,0.0076
1128.00,0.0076
1127.00,0.0078
1126.00,0.0079
1125.00,0.0079
1124.00,0.0079
1123.00,0.0080
1122.00,0.0081
1121.00,0.0081
1120.00,0.0082
1119.00,0.0082
1118.00,0.0083
1117.00,0.0084
1116.00,0.0084
1115.00,0.0086
1114.00,0.0087
1113.00,0.0089
1112.00,0.0092
1111.00,0.0095
1110.00,0.0099
1109.00,0.0103
1108.00,0.0107
1107.00,0.0112
1106.00,0.0117
1105.00,0.0122
1104.00,0.0126
1103.00,0.0128
1102.00,0.0128
1101.00,0.0125
1100.00,0.0121
1099.00,0.0116
1098.00,0.0110
1097.00,0.0104
1096.00,0.0099
1095.00,0.0094
1094.00,0.0091
1093.00,0.0089
1092.00,0.0088
1091.00,0.0087
1090.00,0.0086
1089.00,0.0085
1088.00,0.0084
1087.00,0.0083
1086.00,0.0083
1085.00,0.0083
1084.00,0.0084
1083.00,0.0084
1082.00,0.0083
1081.00,0.0082
1080.00,0.0081
1079.00,0.0079
1078.00,0.0078
1077.00,0.0077
1076.00,0.0076
1075.00,0.0076
1074.00,0.0076
1073.00,0.0075
1072.00,0.0075
1071.00,0.0075
1070.00,0.0076
1069.00,0.0077
1068.00,0.0077
1067.00,0.0078
1066.00,0.0079
1065.00,0.0080
1064.00,0.0081
1063.00,0.0081
1062.00,0.0081
1061.00,0.0082
1060.00,0.0082
1059.00,0.0083
1058.00,0.0085
1057.00,0.0087
1056.00,0.0089
1055.00,0.0090
1054.00,0.0092
1053.00,0.0095
1052.00,0.0100
1051.00,0.0105
1050.00,0.0111
1049.00,0.0116
1048.00,0.0121
1047.00,0.0127
1046.00,0.0132
1045.00,0.0136
1044.00,0.0138
1043.00,0.0136
1042.00,0.0133
1041.00,0.0128
1040.00,0.0125
1039.00,0.0124
1038.00,0.0124
1037.00,0.0125
1036.00,0.0124
1035.00,0.0123
1034.00,0.0122
1033.00,0.0120
1032.00,0.0118
1031.00,0.0117
1030.00,0.0116
1029.00,0.0117
1028.00,0.0118
1027.00,0.0120
1026.00,0.0122
1025.00,0.0125
1024.00,0.0127
1023.00,0.0130
1022.00,0.0133
1021.00,0.0135
1020.00,0.0137
1019.00,0.0139
1018.00,0.0141
1017.00,0.0143
1016.00,0.0144
1015.00,0.0145
1014.00,0.0145
1013.00,0.0145
1012.00,0.0145
1011.00,0.0145
1010.00,0.0146
1009.00,0.0148
1008.00,0.0152
1007.00,0.0157
1006.00,0.0165
1005.00,0.0178
1004.00,0.0198
1003.00,0.0225
1002.00,0.0263
1001.00,0.0310
1000.00,0.0361
999.00,0.0407
998.00,0.0431
997.00,0.0425
996.00,0.0392
995.00,0.0342
994.00,0.0289
993.00,0.0242
992.00,0.0206
991.00,0.0179
990.00,0.0160
989.00,0.0147
988.00,0.0138
987.00,0.0132
986.00,0.0131
985.00,0.0132
984.00,0.0136
983.00,0.0144
982.00,0.0156
981.00,0.0173
980.00,0.0196
979.00,0.0228
978.00,0.0269
977.00,0.0320
976.00,0.0375
975.00,0.0430
974.00,0.0472
973.00,0.0491
972.00,0.0477
971.00,0.0432
970.00,0.0369
969.00,0.0304
968.00,0.0247
967.00,0.0204
966.00,0.0173
965.00,0.0150
964.00,0.0133
963.00,0.0121
962.00,0.0112
961.00,0.0106
960.00,0.0101
959.00,0.0096
958.00,0.0092
957.00,0.0089
956.00,0.0086
955.00,0.0084
954.00,0.0081
953.00,0.0079
952.00,0.0077
951.00,0.0076
950.00,0.0075
949.00,0.0075
948.00,0.0075
947.00,0.0075
946.00,0.0076
945.00,0.0078
944.00,0.0080
943.00,0.0083
942.00,0.0087
941.00,0.0089
940.00,0.0090
939.00,0.0089
938.00,0.0085
937.00,0.0079
936.00,0.0074
935.00,0.0069
934.00,0.0066
933.00,0.0064
932.00,0.0063
931.00,0.0062
930.00,0.0062
929.00,0.0062
928.00,0.0062
927.00,0.0062
926.00,0.0063
925.00,0.0064
924.00,0.0065
923.00,0.0065
922.00,0.0064
921.00,0.0063
920.00,0.0062
919.00,0.0062
918.00,0.0063
917.00,0.0064
916.00,0.0066
915.00,0.0067
914.00,0.0068
913.00,0.0069
912.00,0.0070
911.00,0.0072
910.00,0.0073
909.00,0.0073
908.00,0.0074
907.00,0.0077
906.00,0.0083
905.00,0.0092
904.00,0.0104
903.00,0.0119
902.00,0.0135
901.00,0.0150
900.00,0.0160
899.00,0.0162
898.00,0.0156
897.00,0.0143
896.00,0.0127
895.00,0.0112
894.00,0.0098
893.00,0.0089
892.00,0.0082
891.00,0.0078
890.00,0.0076
889.00,0.0075
888.00,0.0074
887.00,0.0074
886.00,0.0073
885.00,0.0071
884.00,0.0070
883.00,0.0070
882.00,0.0071
881.00,0.0072
880.00,0.0073
879.00,0.0074
878.00,0.0074
877.00,0.0075
876.00,0.0076
875.00,0.0077
874.00,0.0078
873.00,0.0077
872.00,0.0077
871.00,0.0076
870.00,0.0076
869.00,0.0075
868.00,0.0074
867.00,0.0075
866.00,0.0077
865.00,0.0078
864.00,0.0079
863.00,0.0081
862.00,0.0083
861.00,0.0084
860.00,0.0085
859.00,0.0085
858.00,0.0086
857.00,0.0087
856.00,0.0089
855.00,0.0091
854.00,0.0094
853.00,0.0097
852.00,0.0101
851.00,0.0105
850.00,0.0112
849.00,0.0120
848.00,0.0130
847.00,0.0147
846.00,0.0173
845.00,0.0214
844.00,0.0273
843.00,0.0343
842.00,0.0403
841.00,0.0426
840.00,0.0401
839.00,0.0339
838.00,0.0268
837.00,0.0211
836.00,0.0174
835.00,0.0151
834.00,0.0136
833.00,0.0127
832.00,0.0122
831.00,0.0118
830.00,0.0115
829.00,0.0112
828.00,0.0109
827.00,0.0106
826.00,0.0104
825.00,0.0101
824.00,0.0098
823.00,0.0098
822.00,0.0101
821.00,0.0106
820.00,0.0110
819.00,0.0113
818.00,0.0117
817.00,0.0122
816.00,0.0128
815.00,0.0137
814.00,0.0149
813.00,0.0164
812.00,0.0180
811.00,0.0195
810.00,0.0205
809.00,0.0209
808.00,0.0206
807.00,0.0197
806.00,0.0184
805.00,0.0170
804.00,0.0156
803.00,0.0143
802.00,0.0132
801.00,0.0123
800.00,0.0118
799.00,0.0113
798.00,0.0110
797.00,0.0107
796.00,0.0104
795.00,0.0101
794.00,0.0098
793.00,0.0095
792.00,0.0091
791.00,0.0087
790.00,0.0083
789.00,0.0080
788.00,0.0077
787.00,0.0075
786.00,0.0072
785.00,0.0070
784.00,0.0067
783.00,0.0064
782.00,0.0062
781.00,0.0061
780.00,0.0061
779.00,0.0061
778.00,0.0061
777.00,0.0060
776.00,0.0060
775.00,0.0060
774.00,0.0062
773.00,0.0063
772.00,0.0063
771.00,0.0063
770.00,0.0063
769.00,0.0062
768.00,0.0063
767.00,0.0063
766.00,0.0063
765.00,0.0064
764.00,0.0065
763.00,0.0065
762.00,0.0065
761.00,0.0066
760.00,0.0066
759.00,0.0066
758.00,0.0066
757.00,0.0067
756.00,0.0068
755.00,0.0070
754.00,0.0071
753.00,0.0071
752.00,0.0072
751.00,0.0073
750.00,0.0074
749.00,0.0076
748.00,0.0077
747.00,0.0079
746.00,0.0081
745.00,0.0082
744.00,0.0082
743.00,0.0083
742.00,0.0085
741.00,0.0089
740.00,0.0094
739.00,0.0099
738.00,0.0102
737.00,0.0105
736.00,0.0109
735.00,0.0113
734.00,0.0119
733.00,0.0126
732.00,0.0133
731.00,0.0140
730.00,0.0145
729.00,0.0147
728.00,0.0148
727.00,0.0147
726.00,0.0148
725.00,0.0151
724.00,0.0156
723.00,0.0162
722.00,0.0167
721.00,0.0171
720.00,0.0170
719.00,0.0163
718.00,0.0151
717.00,0.0137
716.00,0.0126
715.00,0.0118
714.00,0.0114
713.00,0.0111
712.00,0.0107
711.00,0.0103
710.00,0.0101
709.00,0.0099
708.00,0.0097
707.00,0.0096
706.00,0.0095
705.00,0.0095
704.00,0.0095
703.00,0.0096
702.00,0.0095
701.00,0.0093
700.00,0.0090
699.00,0.0088
698.00,0.0087
697.00,0.0088
696.00,0.0089
695.00,0.0089
694.00,0.0089
693.00,0.0088
692.00,0.0088
691.00,0.0087
690.00,0.0086
689.00,0.0086
688.00,0.0088
687.00,0.0090
686.00,0.0092
685.00,0.0092
684.00,0.0091
683.00,0.0091
682.00,0.0091
681.00,0.0092
680.00,0.0093
679.00,0.0093
678.00,0.0093
677.00,0.0093
676.00,0.0094
675.00,0.0095
674.00,0.0096
673.00,0.0097
672.00,0.0098
671.00,0.0099
670.00,0.0102
669.00,0.0104
668.00,0.0105
667.00,0.0104
666.00,0.0100
665.00,0.0096
664.00,0.0093
663.00,0.0091
662.00,0.0088
661.00,0.0086
660.00,0.0084
659.00,0.0084
658.00,0.0084
657.00,0.0085
656.00,0.0084
655.00,0.0082
654.00,0.0080
653.00,0.0079
652.00,0.0078
651.00,0.0078
650.00,0.0079
649.00,0.0080
648.00,0.0082
647.00,0.0083
646.00,0.0084
645.00,0.0084
644.00,0.0084
643.00,0.0082
642.00,0.0081
641.00,0.0080
640.00,0.0081
639.00,0.0083
638.00,0.0085
637.00,0.0087
636.00,0.0087
635.00,0.0086
634.00,0.0085
633.00,0.0083
632.00,0.0081
631.00,0.0080
630.00,0.0080
629.00,0.0081
628.00,0.0082
627.00,0.0081
626.00,0.0080
625.00,0.0079
624.00,0.0079
623.00,0.0081
622.00,0.0083
621.00,0.0083
620.00,0.0082
619.00,0.0081
618.00,0.0080
617.00,0.0077
616.00,0.0076
615.00,0.0076
614.00,0.0077
613.00,0.0077
612.00,0.0078
611.00,0.0079
610.00,0.0081
609.00,0.0083
608.00,0.0084
607.00,0.0083
606.00,0.0082
605.00,0.0080
604.00,0.0080
603.00,0.0081
602.00,0.0083
601.00,0.0085
600.00,0.0085
599.00,0.0086
598.00,0.0087
597.00,0.0088
596.00,0.0085
595.00,0.0082
594.00,0.0079
593.00,0.0077
592.00,0.0075
591.00,0.0073
590.00,0.0070
589.00,0.0069
588.00,0.0070
587.00,0.0074
586.00,0.0077
585.00,0.0079
584.00,0.0080
583.00,0.0081
582.00,0.0082
581.00,0.0083
580.00,0.0083
579.00,0.0084
578.00,0.0086
577.00,0.0086
576.00,0.0084
575.00,0.0081
574.00,0.0080
573.00,0.0082
572.00,0.0086
571.00,0.0088
570.00,0.0088
569.00,0.0088
568.00,0.0087
567.00,0.0086
566.00,0.0084
565.00,0.0081
564.00,0.0079
563.00,0.0078
562.00,0.0079
561.00,0.0081
560.00,0.0084
559.00,0.0085
558.00,0.0085
557.00,0.0083
556.00,0.0081
555.00,0.0080
554.00,0.0082
553.00,0.0085
552.00,0.0088
551.00,0.0091
550.00,0.0094
549.00,0.0097
548.00,0.0099
547.00,0.0100
546.00,0.0099
545.00,0.0098
544.00,0.0098
543.00,0.0101
542.00,0.0105
541.00,0.0109
540.00,0.0110
539.00,0.0111
538.00,0.0111
537.00,0.0110
536.00,0.0108
535.00,0.0107
534.00,0.0108
533.00,0.0109
532.00,0.0107
531.00,0.0105
530.00,0.0105
529.00,0.0106
528.00,0.0108
527.00,0.0108
526.00,0.0107
525.00,0.0106
524.00,0.0105
523.00,0.0106
522.00,0.0107
521.00,0.0106
520.00,0.0102
519.00,0.0096
518.00,0.0089
517.00,0.0082
516.00,0.0074
515.00,0.0069
514.00,0.0068
513.00,0.0070
512.00,0.0075
511.00,0.0080
510.00,0.0083
509.00,0.0087
508.00,0.0090
507.00,0.0094
506.00,0.0099
505.00,0.0106
504.00,0.0113
503.00,0.0116
502.00,0.0111
501.00,0.0101
500.00,0.0090
499.00,0.0082
498.00,0.0080
497.00,0.0082
496.00,0.0085
495.00,0.0086
494.00,0.0084
493.00,0.0082
492.00,0.0080
491.00,0.0079
490.00,0.0079
489.00,0.0081
488.00,0.0085
487.00,0.0088
486.00,0.0090
485.00,0.0088
484.00,0.0086
483.00,0.0085
482.00,0.0089
481.00,0.0094
480.00,0.0099
479.00,0.0104
478.00,0.0108
477.00,0.0110
476.00,0.0107
475.00,0.0100
474.00,0.0093
473.00,0.0093
472.00,0.0103
471.00,0.0113
470.00,0.0120
469.00,0.0123
468.00,0.0130
467.00,0.0143
466.00,0.0160
465.00,0.0174
464.00,0.0181
463.00,0.0181
462.00,0.0178
461.00,0.0177
460.00,0.0180
459.00,0.0182
458.00,0.0179
457.00,0.0173
456.00,0.0169
455.00,0.0167
454.00,0.0164
453.00,0.0158
452.00,0.0151
451.00,0.0150
450.00,0.0153
