Created as New Dataset,Sample 031 By Administrator Date Friday, September 05 2025
cm-1,A
4000.00,0.0011
3999.00,0.0011
3998.00,0.0011
3997.00,0.0011
3996.00,0.0011
3995.00,0.0011
3994.00,0.0011
3993.00,0.0011
3992.00,0.0011
3991.00,0.0011
3990.00,0.0011
3989.00,0.0010
3988.00,0.0010
3987.00,0.0010
3986.00,0.0010
3985.00,0.0010
3984.00,0.0009
3983.00,0.0009
3982.00,0.0009
3981.00,0.0009
3980.00,0.0010
3979.00,0.0010
3978.00,0.0010
3977.00,0.0010
3976.00,0.0010
3975.00,0.0009
3974.00,0.0009
3973.00,0.0008
3972.00,0.0008
3971.00,0.0008
3970.00,0.0008
3969.00,0.0008
3968.00,0.0008
3967.00,0.0008
3966.00,0.0008
3965.00,0.0008
3964.00,0.0008
3963.00,0.0008
3962.00,0.0008
3961.00,0.0008
3960.00,0.0009
3959.00,0.0009
3958.00,0.0009
3957.00,0.0008
3956.00,0.0008
3955.00,0.0008
3954.00,0.0008
3953.00,0.0009
3952.00,0.0009
3951.00,0.0009
3950.00,0.0008
3949.00,0.0008
3948.00,0.0008
3947.00,0.0008
3946.00,0.0008
3945.00,0.0008
3944.00,0.0009
3943.00,0.0009
3942.00,0.0009
3941.00,0.0009
3940.00,0.0008
3939.00,0.0008
3938.00,0.0008
3937.00,0.0009
3936.00,0.0009
3935.00,0.0009
3934.00,0.0009
3933.00,0.0009
3932.00,0.0009
3931.00,0.0009
3930.00,0.0009
3929.00,0.0009
3928.00,0.0009
3927.00,0.0008
3926.00,0.0008
3925.00,0.0008
3924.00,0.0008
3923.00,0.0008
3922.00,0.0008
3921.00,0.0008
3920.00,0.0008
3919.00,0.0008
3918.00,0.0008
3917.00,0.0009
3916.00,0.0009
3915.00,0.0009
3914.00,0.0009
3913.00,0.0009
3912.00,0.0009
3911.00,0.0009
3910.00,0.0009
3909.00,0.0009
3908.00,0.0009
3907.00,0.0008
3906.00,0.0008
3905.00,0.0008
3904.00,0.0008
3903.00,0.0008
3902.00,0.0008
3901.00,0.0008
3900.00,0.0008
3899.00,0.0008
3898.00,0.0008
3897.00,0.0008
3896.00,0.0008
3895.00,0.0008
3894.00,0.0008
3893.00,0.0008
3892.00,0.0008
3891.00,0.0008
3890.00,0.0008
3889.00,0.0008
3888.00,0.0008
3887.00,0.0007
3886.00,0.0007
3885.00,0.0008
3884.00,0.0008
3883.00,0.0009
3882.00,0.0009
3881.00,0.0009
3880.00,0.0009
3879.00,0.0009
3878.00,0.0009
3877.00,0.0008
3876.00,0.0008
3875.00,0.0008
3874.00,0.0008
3873.00,0.0008
3872.00,0.0008
3871.00,0.0008
3870.00,0.0008
3869.00,0.0008
3868.00,0.0008
3867.00,0.0009
3866.00,0.0009
3865.00,0.0008
3864.00,0.0008
3863.00,0.0008
3862.00,0.0007
3861.00,0.0007
3860.00,0.0007
3859.00,0.0007
3858.00,0.0007
3857.00,0.0007
3856.00,0.0007
3855.00,0.0007
3854.00,0.0007
3853.00,0.0007
3852.00,0.0007
3851.00,0.0007
3850.00,0.0007
3849.00,0.0007
3848.00,0.0008
3847.00,0.0008
3846.00,0.0008
3845.00,0.0008
3844.00,0.0008
3843.00,0.0008
3842.00,0.0008
3841.00,0.0008
3840.00,0.0007
3839.00,0.0007
3838.00,0.0007
3837.00,0.0007
3836.00,0.0007
3835.00,0.0008
3834.00,0.0008
3833.00,0.0008
3832.00,0.0008
3831.00,0.0009
3830.00,0.0009
3829.00,0.0009
3828.00,0.0009
3827.00,0.0009
3826.00,0.0008
3825.00,0.0008
3824.00,0.0008
3823.00,0.0008
3822.00,0.0007
3821.00,0.0007
3820.00,0.0007
3819.00,0.0007
3818.00,0.0007
3817.00,0.0007
3816.00,0.0007
3815.00,0.0008
3814.00,0.0008
3813.00,0.0008
3812.00,0.0008
3811.00,0.0008
3810.00,0.0008
3809.00,0.0009
3808.00,0.0009
3807.00,0.0008
3806.00,0.0008
3805.00,0.0008
3804.00,0.0007
3803.00,0.0007
3802.00,0.0007
3801.00,0.0008
3800.00,0.0008
3799.00,0.0008
3798.00,0.0008
3797.00,0.0008
3796.00,0.0008
3795.00,0.0008
3794.00,0.0008
3793.00,0.0008
3792.00,0.0008
3791.00,0.0008
3790.00,0.0008
3789.00,0.0008
3788.00,0.0009
3787.00,0.0009
3786.00,0.0009
3785.00,0.0009
3784.00,0.0009
3783.00,0.0008
3782.00,0.0008
3781.00,0.0007
3780.00,0.0007
3779.00,0.0007
3778.00,0.0007
3777.00,0.0008
3776.00,0.0009
3775.00,0.0009
3774.00,0.0009
3773.00,0.0008
3772.00,0.0008
3771.00,0.0008
3770.00,0.0007
3769.00,0.0008
3768.00,0.0008
3767.00,0.0008
3766.00,0.0008
3765.00,0.0007
3764.00,0.0007
3763.00,0.0007
3762.00,0.0008
3761.00,0.0008
3760.00,0.0008
3759.00,0.0008
3758.00,0.0008
3757.00,0.0008
3756.00,0.0008
3755.00,0.0008
3754.00,0.0008
3753.00,0.0008
3752.00,0.0008
3751.00,0.0007
3750.00,0.0007
3749.00,0.0007
3748.00,0.0007
3747.00,0.0007
3746.00,0.0007
3745.00,0.0007
3744.00,0.0008
3743.00,0.0008
3742.00,0.0008
3741.00,0.0008
3740.00,0.0008
3739.00,0.0009
3738.00,0.0009
3737.00,0.0008
3736.00,0.0008
3735.00,0.0008
3734.00,0.0008
3733.00,0.0008
3732.00,0.0008
3731.00,0.0008
3730.00,0.0007
3729.00,0.0007
3728.00,0.0007
3727.00,0.0007
3726.00,0.0007
3725.00,0.0007
3724.00,0.0007
3723.00,0.0007
3722.00,0.0007
3721.00,0.0007
3720.00,0.0007
3719.00,0.0007
3718.00,0.0007
3717.00,0.0006
3716.00,0.0006
3715.00,0.0006
3714.00,0.0006
3713.00,0.0006
3712.00,0.0006
3711.00,0.0006
3710.00,0.0006
3709.00,0.0006
3708.00,0.0006
3707.00,0.0007
3706.00,0.0007
3705.00,0.0007
3704.00,0.0007
3703.00,0.0007
3702.00,0.0007
3701.00,0.0007
3700.00,0.0007
3699.00,0.0007
3698.00,0.0007
3697.00,0.0007
3696.00,0.0007
3695.00,0.0007
3694.00,0.0006
3693.00,0.0006
3692.00,0.0006
3691.00,0.0006
3690.00,0.0006
3689.00,0.0006
3688.00,0.0007
3687.00,0.0007
3686.00,0.0006
3685.00,0.0006
3684.00,0.0006
3683.00,0.0006
3682.00,0.0005
3681.00,0.0005
3680.00,0.0006
3679.00,0.0006
3678.00,0.0006
3677.00,0.0007
3676.00,0.0006
3675.00,0.0006
3674.00,0.0005
3673.00,0.0005
3672.00,0.0004
3671.00,0.0005
3670.00,0.0005
3669.00,0.0006
3668.00,0.0006
3667.00,0.0006
3666.00,0.0006
3665.00,0.0006
3664.00,0.0006
3663.00,0.0005
3662.00,0.0005
3661.00,0.0005
3660.00,0.0005
3659.00,0.0005
3658.00,0.0004
3657.00,0.0004
3656.00,0.0004
3655.00,0.0004
3654.00,0.0004
3653.00,0.0004
3652.00,0.0004
3651.00,0.0004
3650.00,0.0004
3649.00,0.0005
3648.00,0.0005
3647.00,0.0005
3646.00,0.0005
3645.00,0.0005
3644.00,0.0005
3643.00,0.0005
3642.00,0.0005
3641.00,0.0005
3640.00,0.0005
3639.00,0.0006
3638.00,0.0006
3637.00,0.0006
3636.00,0.0006
3635.00,0.0005
3634.00,0.0006
3633.00,0.0006
3632.00,0.0006
3631.00,0.0006
3630.00,0.0006
3629.00,0.0006
3628.00,0.0006
3627.00,0.0006
3626.00,0.0006
3625.00,0.0006
3624.00,0.0006
3623.00,0.0006
3622.00,0.0006
3621.00,0.0007
3620.00,0.0007
3619.00,0.0007
3618.00,0.0007
3617.00,0.0006
3616.00,0.0006
3615.00,0.0006
3614.00,0.0006
3613.00,0.0007
3612.00,0.0007
3611.00,0.0007
3610.00,0.0007
3609.00,0.0007
3608.00,0.0007
3607.00,0.0007
3606.00,0.0007
3605.00,0.0007
3604.00,0.0007
3603.00,0.0008
3602.00,0.0008
3601.00,0.0008
3600.00,0.0008
3599.00,0.0008
3598.00,0.0007
3597.00,0.0007
3596.00,0.0008
3595.00,0.0008
3594.00,0.0009
3593.00,0.0009
3592.00,0.0009
3591.00,0.0008
3590.00,0.0008
3589.00,0.0007
3588.00,0.0007
3587.00,0.0007
3586.00,0.0008
3585.00,0.0008
3584.00,0.0009
3583.00,0.0009
3582.00,0.0008
3581.00,0.0008
3580.00,0.0007
3579.00,0.0007
3578.00,0.0007
3577.00,0.0008
3576.00,0.0008
3575.00,0.0009
3574.00,0.0009
3573.00,0.0009
3572.00,0.0010
3571.00,0.0010
3570.00,0.0010
3569.00,0.0010
3568.00,0.0011
3567.00,0.0011
3566.00,0.0011
3565.00,0.0011
3564.00,0.0011
3563.00,0.0010
3562.00,0.0010
3561.00,0.0010
3560.00,0.0011
3559.00,0.0011
3558.00,0.0012
3557.00,0.0012
3556.00,0.0012
3555.00,0.0012
3554.00,0.0012
3553.00,0.0011
3552.00,0.0011
3551.00,0.0011
3550.00,0.0012
3549.00,0.0012
3548.00,0.0012
3547.00,0.0013
3546.00,0.0013
3545.00,0.0013
3544.00,0.0013
3543.00,0.0013
3542.00,0.0014
3541.00,0.0014
3540.00,0.0014
3539.00,0.0015
3538.00,0.0015
3537.00,0.0015
3536.00,0.0015
3535.00,0.0015
3534.00,0.0015
3533.00,0.0015
3532.00,0.0016
3531.00,0.0016
3530.00,0.0016
3529.00,0.0016
3528.00,0.0016
3527.00,0.0016
3526.00,0.0016
3525.00,0.0016
3524.00,0.0016
3523.00,0.0017
3522.00,0.0017
3521.00,0.0017
3520.00,0.0017
3519.00,0.0017
3518.00,0.0017
3517.00,0.0017
3516.00,0.0017
3515.00,0.0017
3514.00,0.0018
3513.00,0.0018
3512.00,0.0018
3511.00,0.0018
3510.00,0.0018
3509.00,0.0018
3508.00,0.0019
3507.00,0.0019
3506.00,0.0019
3505.00,0.0019
3504.00,0.0018
3503.00,0.0018
3502.00,0.0018
3501.00,0.0018
3500.00,0.0018
3499.00,0.0019
3498.00,0.0019
3497.00,0.0020
3496.00,0.0020
3495.00,0.0020
3494.00,0.0020
3493.00,0.0020
3492.00,0.0020
3491.00,0.0020
3490.00,0.0020
3489.00,0.0020
3488.00,0.0020
3487.00,0.0021
3486.00,0.0021
3485.00,0.0021
3484.00,0.0021
3483.00,0.0021
3482.00,0.0021
3481.00,0.0021
3480.00,0.0021
3479.00,0.0021
3478.00,0.0022
3477.00,0.0022
3476.00,0.0023
3475.00,0.0023
3474.00,0.0024
3473.00,0.0024
3472.00,0.0024
3471.00,0.0024
3470.00,0.0024
3469.00,0.0023
3468.00,0.0023
3467.00,0.0023
3466.00,0.0023
3465.00,0.0023
3464.00,0.0023
3463.00,0.0023
3462.00,0.0023
3461.00,0.0023
3460.00,0.0024
3459.00,0.0024
3458.00,0.0025
3457.00,0.0025
3456.00,0.0025
3455.00,0.0025
3454.00,0.0025
3453.00,0.0024
3452.00,0.0024
3451.00,0.0024
3450.00,0.0024
3449.00,0.0025
3448.00,0.0026
3447.00,0.0026
3446.00,0.0026
3445.00,0.0026
3444.00,0.0026
3443.00,0.0026
3442.00,0.0026
3441.00,0.0026
3440.00,0.0026
3439.00,0.0027
3438.00,0.0026
3437.00,0.0026
3436.00,0.0027
3435.00,0.0027
3434.00,0.0027
3433.00,0.0028
3432.00,0.0028
3431.00,0.0028
3430.00,0.0028
3429.00,0.0028
3428.00,0.0028
3427.00,0.0029
3426.00,0.0029
3425.00,0.0029
3424.00,0.0029
3423.00,0.0030
3422.00,0.0030
3421.00,0.0030
3420.00,0.0030
3419.00,0.0029
3418.00,0.0029
3417.00,0.0029
3416.00,0.0029
3415.00,0.0029
3414.00,0.0029
3413.00,0.0029
3412.00,0.0029
3411.00,0.0029
3410.00,0.0029
3409.00,0.0028
3408.00,0.0028
3407.00,0.0028
3406.00,0.0028
3405.00,0.0029
3404.00,0.0029
3403.00,0.0030
3402.00,0.0030
3401.00,0.0030
3400.00,0.0030
3399.00,0.0030
3398.00,0.0030
3397.00,0.0030
3396.00,0.0030
3395.00,0.0030
3394.00,0.0030
3393.00,0.0029
3392.00,0.0029
3391.00,0.0029
3390.00,0.0029
3389.00,0.0029
3388.00,0.0029
3387.00,0.0029
3386.00,0.0029
3385.00,0.0030
3384.00,0.0030
3383.00,0.0030
3382.00,0.0030
3381.00,0.0031
3380.00,0.0031
3379.00,0.0031
3378.00,0.0031
3377.00,0.0031
3376.00,0.0031
3375.00,0.0030
3374.00,0.0030
3373.00,0.0031
3372.00,0.0031
3371.00,0.0031
3370.00,0.0031
3369.00,0.0031
3368.00,0.0031
3367.00,0.0031
3366.00,0.0031
3365.00,0.0031
3364.00,0.0031
3363.00,0.0031
3362.00,0.0031
3361.00,0.0031
3360.00,0.0031
3359.00,0.0030
3358.00,0.0030
3357.00,0.0031
3356.00,0.0031
3355.00,0.0032
3354.00,0.0032
3353.00,0.0032
3352.00,0.0032
3351.00,0.0032
3350.00,0.0032
3349.00,0.0031
3348.00,0.0031
3347.00,0.0031
3346.00,0.0031
3345.00,0.0031
3344.00,0.0031
3343.00,0.0030
3342.00,0.0030
3341.00,0.0030
3340.00,0.0031
3339.00,0.0031
3338.00,0.0032
3337.00,0.0032
3336.00,0.0031
3335.00,0.0031
3334.00,0.0030
3333.00,0.0030
3332.00,0.0029
3331.00,0.0029
3330.00,0.0029
3329.00,0.0029
3328.00,0.0028
3327.00,0.0028
3326.00,0.0029
3325.00,0.0029
3324.00,0.0029
3323.00,0.0028
3322.00,0.0028
3321.00,0.0029
3320.00,0.0029
3319.00,0.0029
3318.00,0.0029
3317.00,0.0029
3316.00,0.0029
3315.00,0.0029
3314.00,0.0029
3313.00,0.0029
3312.00,0.0030
3311.00,0.0030
3310.00,0.0030
3309.00,0.0030
3308.00,0.0030
3307.00,0.0030
3306.00,0.0030
3305.00,0.0030
3304.00,0.0031
3303.00,0.0031
3302.00,0.0031
3301.00,0.0031
3300.00,0.0031
3299.00,0.0031
3298.00,0.0031
3297.00,0.0030
3296.00,0.0030
3295.00,0.0030
3294.00,0.0030
3293.00,0.0029
3292.00,0.0029
3291.00,0.0029
3290.00,0.0029
3289.00,0.0028
3288.00,0.0028
3287.00,0.0029
3286.00,0.0029
3285.00,0.0029
3284.00,0.0029
3283.00,0.0029
3282.00,0.0029
3281.00,0.0028
3280.00,0.0028
3279.00,0.0028
3278.00,0.0028
3277.00,0.0028
3276.00,0.0028
3275.00,0.0028
3274.00,0.0028
3273.00,0.0028
3272.00,0.0028
3271.00,0.0028
3270.00,0.0028
3269.00,0.0028
3268.00,0.0027
3267.00,0.0027
3266.00,0.0027
3265.00,0.0027
3264.00,0.0027
3263.00,0.0027
3262.00,0.0027
3261.00,0.0027
3260.00,0.0027
3259.00,0.0027
3258.00,0.0026
3257.00,0.0026
3256.00,0.0026
3255.00,0.0026
3254.00,0.0025
3253.00,0.0025
3252.00,0.0025
3251.00,0.0024
3250.00,0.0024
3249.00,0.0024
3248.00,0.0025
3247.00,0.0025
3246.00,0.0025
3245.00,0.0025
3244.00,0.0025
3243.00,0.0025
3242.00,0.0025
3241.00,0.0024
3240.00,0.0024
3239.00,0.0024
3238.00,0.0024
3237.00,0.0025
3236.00,0.0025
3235.00,0.0025
3234.00,0.0025
3233.00,0.0025
3232.00,0.0026
3231.00,0.0026
3230.00,0.0026
3229.00,0.0026
3228.00,0.0026
3227.00,0.0026
3226.00,0.0026
3225.00,0.0026
3224.00,0.0026
3223.00,0.0026
3222.00,0.0026
3221.00,0.0026
3220.00,0.0027
3219.00,0.0027
3218.00,0.0027
3217.00,0.0028
3216.00,0.0028
3215.00,0.0029
3214.00,0.0029
3213.00,0.0030
3212.00,0.0030
3211.00,0.0030
3210.00,0.0030
3209.00,0.0030
3208.00,0.0030
3207.00,0.0029
3206.00,0.0029
3205.00,0.0030
3204.00,0.0030
3203.00,0.0030
3202.00,0.0030
3201.00,0.0030
3200.00,0.0031
3199.00,0.0031
3198.00,0.0030
3197.00,0.0030
3196.00,0.0030
3195.00,0.0030
3194.00,0.0030
3193.00,0.0030
3192.00,0.0030
3191.00,0.0030
3190.00,0.0030
3189.00,0.0029
3188.00,0.0029
3187.00,0.0029
3186.00,0.0029
3185.00,0.0029
3184.00,0.0029
3183.00,0.0029
3182.00,0.0029
3181.00,0.0029
3180.00,0.0029
3179.00,0.0028
3178.00,0.0028
3177.00,0.0027
3176.00,0.0027
3175.00,0.0027
3174.00,0.0026
3173.00,0.0027
3172.00,0.0027
3171.00,0.0027
3170.00,0.0027
3169.00,0.0027
3168.00,0.0027
3167.00,0.0027
3166.00,0.0026
3165.00,0.0027
3164.00,0.0027
3163.00,0.0027
3162.00,0.0027
3161.00,0.0027
3160.00,0.0027
3159.00,0.0026
3158.00,0.0026
3157.00,0.0026
3156.00,0.0026
3155.00,0.0026
3154.00,0.0027
3153.00,0.0027
3152.00,0.0027
3151.00,0.0027
3150.00,0.0027
3149.00,0.0027
3148.00,0.0028
3147.00,0.0028
3146.00,0.0028
3145.00,0.0027
3144.00,0.0027
3143.00,0.0027
3142.00,0.0027
3141.00,0.0027
3140.00,0.0027
3139.00,0.0027
3138.00,0.0027
3137.00,0.0027
3136.00,0.0026
3135.00,0.0026
3134.00,0.0026
3133.00,0.0026
3132.00,0.0026
3131.00,0.0026
3130.00,0.0026
3129.00,0.0025
3128.00,0.0025
3127.00,0.0025
3126.00,0.0025
3125.00,0.0025
3124.00,0.0025
3123.00,0.0024
3122.00,0.0024
3121.00,0.0024
3120.00,0.0024
3119.00,0.0024
3118.00,0.0023
3117.00,0.0023
3116.00,0.0023
3115.00,0.0023
3114.00,0.0022
3113.00,0.0023
3112.00,0.0023
3111.00,0.0023
3110.00,0.0023
3109.00,0.0023
3108.00,0.0022
3107.00,0.0022
3106.00,0.0022
3105.00,0.0022
3104.00,0.0022
3103.00,0.0022
3102.00,0.0022
3101.00,0.0022
3100.00,0.0022
3099.00,0.0023
3098.00,0.0023
3097.00,0.0022
3096.00,0.0022
3095.00,0.0023
3094.00,0.0023
3093.00,0.0023
3092.00,0.0022
3091.00,0.0022
3090.00,0.0022
3089.00,0.0022
3088.00,0.0022
3087.00,0.0022
3086.00,0.0022
3085.00,0.0022
3084.00,0.0022
3083.00,0.0022
3082.00,0.0022
3081.00,0.0022
3080.00,0.0022
3079.00,0.0022
3078.00,0.0022
3077.00,0.0022
3076.00,0.0022
3075.00,0.0022
3074.00,0.0022
3073.00,0.0022
3072.00,0.0022
3071.00,0.0022
3070.00,0.0023
3069.00,0.0023
3068.00,0.0023
3067.00,0.0023
3066.00,0.0024
3065.00,0.0024
3064.00,0.0024
3063.00,0.0025
3062.00,0.0025
3061.00,0.0024
3060.00,0.0024
3059.00,0.0024
3058.00,0.0025
3057.00,0.0025
3056.00,0.0026
3055.00,0.0026
3054.00,0.0026
3053.00,0.0026
3052.00,0.0026
3051.00,0.0026
3050.00,0.0026
3049.00,0.0027
3048.00,0.0027
3047.00,0.0027
3046.00,0.0028
3045.00,0.0028
3044.00,0.0028
3043.00,0.0028
3042.00,0.0028
3041.00,0.0028
3040.00,0.0028
3039.00,0.0029
3038.00,0.0029
3037.00,0.0030
3036.00,0.0030
3035.00,0.0031
3034.00,0.0031
3033.00,0.0032
3032.00,0.0032
3031.00,0.0032
3030.00,0.0033
3029.00,0.0033
3028.00,0.0033
3027.00,0.0034
3026.00,0.0034
3025.00,0.0035
3024.00,0.0036
3023.00,0.0036
3022.00,0.0037
3021.00,0.0037
3020.00,0.0038
3019.00,0.0039
3018.00,0.0040
3017.00,0.0041
3016.00,0.0042
3015.00,0.0042
3014.00,0.0043
3013.00,0.0045
3012.00,0.0046
3011.00,0.0047
3010.00,0.0048
3009.00,0.0049
3008.00,0.0051
3007.00,0.0052
3006.00,0.0053
3005.00,0.0055
3004.00,0.0056
3003.00,0.0058
3002.00,0.0061
3001.00,0.0063
3000.00,0.0065
2999.00,0.0068
2998.00,0.0071
2997.00,0.0074
2996.00,0.0078
2995.00,0.0082
2994.00,0.0086
2993.00,0.0091
2992.00,0.0096
2991.00,0.0101
2990.00,0.0107
2989.00,0.0114
2988.00,0.0122
2987.00,0.0131
2986.00,0.0140
2985.00,0.0151
2984.00,0.0163
2983.00,0.0176
2982.00,0.0191
2981.00,0.0209
2980.00,0.0229
2979.00,0.0252
2978.00,0.0277
2977.00,0.0307
2976.00,0.0340
2975.00,0.0380
2974.00,0.0424
2973.00,0.0475
2972.00,0.0533
2971.00,0.0598
2970.00,0.0671
2969.00,0.0751
2968.00,0.0838
2967.00,0.0931
2966.00,0.1029
2965.00,0.1130
2964.00,0.1229
2963.00,0.1322
2962.00,0.1403
2961.00,0.1470
2960.00,0.1521
2959.00,0.1560
2958.00,0.1594
2957.00,0.1628
2956.00,0.1670
2955.00,0.1722
2954.00,0.1784
2953.00,0.1848
2952.00,0.1905
2951.00,0.1942
2950.00,0.1948
2949.00,0.1914
2948.00,0.1840
2947.00,0.1734
2946.00,0.1608
2945.00,0.1476
2944.00,0.1351
2943.00,0.1244
2942.00,0.1161
2941.00,0.1103
2940.00,0.1070
2939.00,0.1060
2938.00,0.1070
2937.00,0.1098
2936.00,0.1142
2935.00,0.1202
2934.00,0.1275
2933.00,0.1362
2932.00,0.1459
2931.00,0.1565
2930.00,0.1678
2929.00,0.1793
2928.00,0.1908
2927.00,0.2020
2926.00,0.2128
2925.00,0.2233
2924.00,0.2334
2923.00,0.2433
2922.00,0.2529
2921.00,0.2620
2920.00,0.2698
2919.00,0.2754
2918.00,0.2779
2917.00,0.2766
2916.00,0.2716
2915.00,0.2635
2914.00,0.2535
2913.00,0.2429
2912.00,0.2326
2911.00,0.2232
2910.00,0.2149
2909.00,0.2076
2908.00,0.2009
2907.00,0.1945
2906.00,0.1881
2905.00,0.1816
2904.00,0.1749
2903.00,0.1680
2902.00,0.1612
2901.00,0.1544
2900.00,0.1478
2899.00,0.1415
2898.00,0.1357
2897.00,0.1302
2896.00,0.1254
2895.00,0.1212
2894.00,0.1176
2893.00,0.1147
2892.00,0.1123
2891.00,0.1106
2890.00,0.1093
2889.00,0.1085
2888.00,0.1080
2887.00,0.1079
2886.00,0.1081
2885.00,0.1086
2884.00,0.1096
2883.00,0.1111
2882.00,0.1129
2881.00,0.1150
2880.00,0.1170
2879.00,0.1187
2878.00,0.1196
2877.00,0.1197
2876.00,0.1191
2875.00,0.1183
2874.00,0.1177
2873.00,0.1178
2872.00,0.1186
2871.00,0.1201
2870.00,0.1220
2869.00,0.1238
2868.00,0.1248
2867.00,0.1243
2866.00,0.1216
2865.00,0.1166
2864.00,0.1098
2863.00,0.1021
2862.00,0.0945
2861.00,0.0878
2860.00,0.0826
2859.00,0.0789
2858.00,0.0768
2857.00,0.0760
2856.00,0.0763
2855.00,0.0772
2854.00,0.0787
2853.00,0.0805
2852.00,0.0824
2851.00,0.0843
2850.00,0.0858
2849.00,0.0872
2848.00,0.0888
2847.00,0.0907
2846.00,0.0936
2845.00,0.0975
2844.00,0.1024
2843.00,0.1081
2842.00,0.1140
2841.00,0.1194
2840.00,0.1236
2839.00,0.1257
2838.00,0.1250
2837.00,0.1211
2836.00,0.1143
2835.00,0.1050
2834.00,0.0943
2833.00,0.0833
2832.00,0.0729
2831.00,0.0637
2830.00,0.0559
2829.00,0.0495
2828.00,0.0443
2827.00,0.0401
2826.00,0.0366
2825.00,0.0338
2824.00,0.0314
2823.00,0.0293
2822.00,0.0276
2821.00,0.0261
2820.00,0.0248
2819.00,0.0237
2818.00,0.0227
2817.00,0.0218
2816.00,0.0210
2815.00,0.0203
2814.00,0.0197
2813.00,0.0192
2812.00,0.0186
2811.00,0.0181
2810.00,0.0175
2809.00,0.0170
2808.00,0.0164
2807.00,0.0157
2806.00,0.0151
2805.00,0.0144
2804.00,0.0138
2803.00,0.0132
2802.00,0.0126
2801.00,0.0122
2800.00,0.0118
2799.00,0.0115
2798.00,0.0112
2797.00,0.0110
2796.00,0.0107
2795.00,0.0105
2794.00,0.0102
2793.00,0.0099
2792.00,0.0096
2791.00,0.0093
2790.00,0.0090
2789.00,0.0087
2788.00,0.0084
2787.00,0.0081
2786.00,0.0078
2785.00,0.0075
2784.00,0.0072
2783.00,0.0070
2782.00,0.0068
2781.00,0.0066
2780.00,0.0064
2779.00,0.0063
2778.00,0.0061
2777.00,0.0060
2776.00,0.0058
2775.00,0.0057
2774.00,0.0056
2773.00,0.0056
2772.00,0.0055
2771.00,0.0055
2770.00,0.0054
2769.00,0.0054
2768.00,0.0053
2767.00,0.0053
2766.00,0.0053
2765.00,0.0053
2764.00,0.0052
2763.00,0.0052
2762.00,0.0052
2761.00,0.0051
2760.00,0.0051
2759.00,0.0050
2758.00,0.0050
2757.00,0.0050
2756.00,0.0050
2755.00,0.0050
2754.00,0.0050
2753.00,0.0050
2752.00,0.0049
2751.00,0.0049
2750.00,0.0049
2749.00,0.0049
2748.00,0.0050
2747.00,0.0050
2746.00,0.0051
2745.00,0.0051
2744.00,0.0052
2743.00,0.0052
2742.00,0.0053
2741.00,0.0054
2740.00,0.0055
2739.00,0.0057
2738.00,0.0058
2737.00,0.0059
2736.00,0.0060
2735.00,0.0062
2734.00,0.0063
2733.00,0.0065
2732.00,0.0066
2731.00,0.0068
2730.00,0.0070
2729.00,0.0073
2728.00,0.0075
2727.00,0.0079
2726.00,0.0082
2725.00,0.0084
2724.00,0.0086
2723.00,0.0086
2722.00,0.0086
2721.00,0.0084
2720.00,0.0081
2719.00,0.0078
2718.00,0.0075
2717.00,0.0071
2716.00,0.0069
2715.00,0.0066
2714.00,0.0063
2713.00,0.0061
2712.00,0.0059
2711.00,0.0057
2710.00,0.0056
2709.00,0.0054
2708.00,0.0053
2707.00,0.0051
2706.00,0.0050
2705.00,0.0049
2704.00,0.0048
2703.00,0.0047
2702.00,0.0047
2701.00,0.0046
2700.00,0.0046
2699.00,0.0045
2698.00,0.0044
2697.00,0.0044
2696.00,0.0043
2695.00,0.0043
2694.00,0.0043
2693.00,0.0043
2692.00,0.0044
2691.00,0.0044
2690.00,0.0044
2689.00,0.0044
2688.00,0.0044
2687.00,0.0044
2686.00,0.0044
2685.00,0.0044
2684.00,0.0044
2683.00,0.0044
2682.00,0.0044
2681.00,0.0044
2680.00,0.0044
2679.00,0.0044
2678.00,0.0044
2677.00,0.0044
2676.00,0.0044
2675.00,0.0044
2674.00,0.0044
2673.00,0.0044
2672.00,0.0044
2671.00,0.0043
2670.00,0.0043
2669.00,0.0043
2668.00,0.0043
2667.00,0.0043
2666.00,0.0044
2665.00,0.0044
2664.00,0.0045
2663.00,0.0046
2662.00,0.0046
2661.00,0.0047
2660.00,0.0047
2659.00,0.0047
2658.00,0.0047
2657.00,0.0047
2656.00,0.0047
2655.00,0.0046
2654.00,0.0046
2653.00,0.0045
2652.00,0.0045
2651.00,0.0044
2650.00,0.0044
2649.00,0.0043
2648.00,0.0043
2647.00,0.0043
2646.00,0.0042
2645.00,0.0042
2644.00,0.0041
2643.00,0.0041
2642.00,0.0040
2641.00,0.0040
2640.00,0.0039
2639.00,0.0038
2638.00,0.0037
2637.00,0.0037
2636.00,0.0037
2635.00,0.0037
2634.00,0.0037
2633.00,0.0038
2632.00,0.0038
2631.00,0.0038
2630.00,0.0038
2629.00,0.0038
2628.00,0.0038
2627.00,0.0038
2626.00,0.0038
2625.00,0.0038
2624.00,0.0039
2623.00,0.0039
2622.00,0.0039
2621.00,0.0039
2620.00,0.0039
2619.00,0.0039
2618.00,0.0039
2617.00,0.0040
2616.00,0.0040
2615.00,0.0040
2614.00,0.0040
2613.00,0.0039
2612.00,0.0038
2611.00,0.0038
2610.00,0.0037
2609.00,0.0037
2608.00,0.0036
2607.00,0.0035
2606.00,0.0033
2605.00,0.0033
2604.00,0.0032
2603.00,0.0032
2602.00,0.0031
2601.00,0.0030
2600.00,0.0030
2599.00,0.0030
2598.00,0.0030
2597.00,0.0030
2596.00,0.0030
2595.00,0.0031
2594.00,0.0031
2593.00,0.0032
2592.00,0.0032
2591.00,0.0032
2590.00,0.0032
2589.00,0.0032
2588.00,0.0033
2587.00,0.0034
2586.00,0.0035
2585.00,0.0036
2584.00,0.0037
2583.00,0.0037
2582.00,0.0037
2581.00,0.0037
2580.00,0.0037
2579.00,0.0036
2578.00,0.0035
2577.00,0.0034
2576.00,0.0033
2575.00,0.0032
2574.00,0.0031
2573.00,0.0030
2572.00,0.0029
2571.00,0.0028
2570.00,0.0027
2569.00,0.0027
2568.00,0.0026
2567.00,0.0026
2566.00,0.0025
2565.00,0.0024
2564.00,0.0024
2563.00,0.0023
2562.00,0.0023
2561.00,0.0023
2560.00,0.0022
2559.00,0.0022
2558.00,0.0021
2557.00,0.0021
2556.00,0.0022
2555.00,0.0022
2554.00,0.0021
2553.00,0.0020
2552.00,0.0019
2551.00,0.0018
2550.00,0.0018
2549.00,0.0019
2548.00,0.0019
2547.00,0.0019
2546.00,0.0019
2545.00,0.0019
2544.00,0.0018
2543.00,0.0018
2542.00,0.0018
2541.00,0.0018
2540.00,0.0017
2539.00,0.0016
2538.00,0.0015
2537.00,0.0015
2536.00,0.0015
2535.00,0.0015
2534.00,0.0015
2533.00,0.0015
2532.00,0.0015
2531.00,0.0015
2530.00,0.0015
2529.00,0.0015
2528.00,0.0014
2527.00,0.0014
2526.00,0.0014
2525.00,0.0014
2524.00,0.0014
2523.00,0.0014
2522.00,0.0014
2521.00,0.0013
2520.00,0.0013
2519.00,0.0013
2518.00,0.0013
2517.00,0.0012
2516.00,0.0011
2515.00,0.0010
2514.00,0.0010
2513.00,0.0010
2512.00,0.0010
2511.00,0.0011
2510.00,0.0011
2509.00,0.0011
2508.00,0.0011
2507.00,0.0010
2506.00,0.0010
2505.00,0.0010
2504.00,0.0010
2503.00,0.0010
2502.00,0.0011
2501.00,0.0011
2500.00,0.0011
2499.00,0.0010
2498.00,0.0010
2497.00,0.0009
2496.00,0.0009
2495.00,0.0009
2494.00,0.0009
2493.00,0.0010
2492.00,0.0010
2491.00,0.0009
2490.00,0.0008
2489.00,0.0008
2488.00,0.0008
2487.00,0.0008
2486.00,0.0008
2485.00,0.0008
2484.00,0.0009
2483.00,0.0009
2482.00,0.0009
2481.00,0.0009
2480.00,0.0008
2479.00,0.0008
2478.00,0.0008
2477.00,0.0008
2476.00,0.0008
2475.00,0.0008
2474.00,0.0008
2473.00,0.0008
2472.00,0.0008
2471.00,0.0008
2470.00,0.0008
2469.00,0.0008
2468.00,0.0008
2467.00,0.0008
2466.00,0.0008
2465.00,0.0008
2464.00,0.0008
2463.00,0.0008
2462.00,0.0008
2461.00,0.0008
2460.00,0.0009
2459.00,0.0009
2458.00,0.0010
2457.00,0.0010
2456.00,0.0010
2455.00,0.0010
2454.00,0.0010
2453.00,0.0010
2452.00,0.0010
2451.00,0.0011
2450.00,0.0011
2449.00,0.0011
2448.00,0.0011
2447.00,0.0011
2446.00,0.0011
2445.00,0.0011
2444.00,0.0011
2443.00,0.0011
2442.00,0.0010
2441.00,0.0010
2440.00,0.0010
2439.00,0.0011
2438.00,0.0012
2437.00,0.0012
2436.00,0.0012
2435.00,0.0012
2434.00,0.0012
2433.00,0.0011
2432.00,0.0011
2431.00,0.0011
2430.00,0.0010
2429.00,0.0010
2428.00,0.0010
2427.00,0.0011
2426.00,0.0011
2425.00,0.0011
2424.00,0.0011
2423.00,0.0011
2422.00,0.0010
2421.00,0.0009
2420.00,0.0009
2419.00,0.0009
2418.00,0.0009
2417.00,0.0009
2416.00,0.0008
2415.00,0.0008
2414.00,0.0008
2413.00,0.0008
2412.00,0.0009
2411.00,0.0009
2410.00,0.0008
2409.00,0.0008
2408.00,0.0007
2407.00,0.0007
2406.00,0.0006
2405.00,0.0007
2404.00,0.0007
2403.00,0.0007
2402.00,0.0007
2401.00,0.0007
2400.00,0.0007
2399.00,0.0006
2398.00,0.0006
2397.00,0.0006
2396.00,0.0006
2395.00,0.0006
2394.00,0.0006
2393.00,0.0006
2392.00,0.0006
2391.00,0.0006
2390.00,0.0006
2389.00,0.0006
2388.00,0.0006
2387.00,0.0006
2386.00,0.0006
2385.00,0.0005
2384.00,0.0005
2383.00,0.0005
2382.00,0.0004
2381.00,0.0004
2380.00,0.0003
2379.00,0.0003
2378.00,0.0002
2377.00,0.0002
2376.00,0.0002
2375.00,0.0002
2374.00,0.0002
2373.00,0.0003
2372.00,0.0003
2371.00,0.0004
2370.00,0.0005
2369.00,0.0005
2368.00,0.0005
2367.00,0.0004
2366.00,0.0004
2365.00,0.0004
2364.00,0.0004
2363.00,0.0004
2362.00,0.0005
2361.00,0.0006
2360.00,0.0006
2359.00,0.0007
2358.00,0.0007
2357.00,0.0007
2356.00,0.0007
2355.00,0.0007
2354.00,0.0006
2353.00,0.0006
2352.00,0.0006
2351.00,0.0006
2350.00,0.0006
2349.00,0.0006
2348.00,0.0006
2347.00,0.0006
2346.00,0.0007
2345.00,0.0007
2344.00,0.0007
2343.00,0.0008
2342.00,0.0008
2341.00,0.0008
2340.00,0.0009
2339.00,0.0010
2338.00,0.0010
2337.00,0.0010
2336.00,0.0009
2335.00,0.0008
2334.00,0.0007
2333.00,0.0006
2332.00,0.0006
2331.00,0.0007
2330.00,0.0007
2329.00,0.0008
2328.00,0.0010
2327.00,0.0014
2326.00,0.0017
2325.00,0.0021
2324.00,0.0022
2323.00,0.0021
2322.00,0.0019
2321.00,0.0017
2320.00,0.0015
2319.00,0.0014
2318.00,0.0013
2317.00,0.0013
2316.00,0.0012
2315.00,0.0012
2314.00,0.0011
2313.00,0.0010
2312.00,0.0009
2311.00,0.0009
2310.00,0.0008
2309.00,0.0008
2308.00,0.0008
2307.00,0.0009
2306.00,0.0010
2305.00,0.0011
2304.00,0.0011
2303.00,0.0012
2302.00,0.0012
2301.00,0.0012
2300.00,0.0012
2299.00,0.0011
2298.00,0.0011
2297.00,0.0011
2296.00,0.0012
2295.00,0.0013
2294.00,0.0014
2293.00,0.0015
2292.00,0.0015
2291.00,0.0016
2290.00,0.0017
2289.00,0.0018
2288.00,0.0018
2287.00,0.0019
2286.00,0.0018
2285.00,0.0017
2284.00,0.0016
2283.00,0.0015
2282.00,0.0015
2281.00,0.0014
2280.00,0.0014
2279.00,0.0014
2278.00,0.0013
2277.00,0.0013
2276.00,0.0012
2275.00,0.0012
2274.00,0.0012
2273.00,0.0013
2272.00,0.0014
2271.00,0.0014
2270.00,0.0013
2269.00,0.0012
2268.00,0.0011
2267.00,0.0011
2266.00,0.0011
2265.00,0.0011
2264.00,0.0011
2263.00,0.0010
2262.00,0.0011
2261.00,0.0011
2260.00,0.0013
2259.00,0.0014
2258.00,0.0014
2257.00,0.0014
2256.00,0.0013
2255.00,0.0011
2254.00,0.0009
2253.00,0.0008
2252.00,0.0008
2251.00,0.0007
2250.00,0.0007
2249.00,0.0007
2248.00,0.0008
2247.00,0.0009
2246.00,0.0010
2245.00,0.0010
2244.00,0.0010
2243.00,0.0009
2242.00,0.0008
2241.00,0.0007
2240.00,0.0007
2239.00,0.0008
2238.00,0.0009
2237.00,0.0010
2236.00,0.0009
2235.00,0.0008
2234.00,0.0007
2233.00,0.0007
2232.00,0.0008
2231.00,0.0010
2230.00,0.0010
2229.00,0.0010
2228.00,0.0008
2227.00,0.0006
2226.00,0.0003
2225.00,0.0003
2224.00,0.0004
2223.00,0.0006
2222.00,0.0008
2221.00,0.0009
2220.00,0.0009
2219.00,0.0008
2218.00,0.0007
2217.00,0.0007
2216.00,0.0007
2215.00,0.0008
2214.00,0.0008
2213.00,0.0008
2212.00,0.0006
2211.00,0.0003
2210.00,-0.0000
2209.00,-0.0002
2208.00,-0.0003
2207.00,-0.0002
2206.00,-0.0001
2205.00,0.0001
2204.00,0.0003
2203.00,0.0004
2202.00,0.0004
2201.00,0.0004
2200.00,0.0004
2199.00,0.0005
2198.00,0.0005
2197.00,0.0004
2196.00,0.0004
2195.00,0.0004
2194.00,0.0005
2193.00,0.0007
2192.00,0.0008
2191.00,0.0008
2190.00,0.0007
2189.00,0.0006
2188.00,0.0006
2187.00,0.0006
2186.00,0.0007
2185.00,0.0007
2184.00,0.0007
2183.00,0.0005
2182.00,0.0004
2181.00,0.0004
2180.00,0.0004
2179.00,0.0004
2178.00,0.0003
2177.00,0.0003
2176.00,0.0002
2175.00,0.0002
2174.00,0.0002
2173.00,0.0002
2172.00,0.0004
2171.00,0.0006
2170.00,0.0010
2169.00,0.0014
2168.00,0.0018
2167.00,0.0020
2166.00,0.0020
2165.00,0.0018
2164.00,0.0016
2163.00,0.0014
2162.00,0.0012
2161.00,0.0008
2160.00,-0.0001
2159.00,-0.0014
2158.00,-0.0025
2157.00,-0.0031
2156.00,-0.0031
2155.00,-0.0030
2154.00,-0.0027
2153.00,-0.0023
2152.00,-0.0019
2151.00,-0.0016
2150.00,-0.0014
2149.00,-0.0013
2148.00,-0.0013
2147.00,-0.0014
2146.00,-0.0014
2145.00,-0.0015
2144.00,-0.0014
2143.00,-0.0014
2142.00,-0.0013
2141.00,-0.0014
2140.00,-0.0015
2139.00,-0.0015
2138.00,-0.0015
2137.00,-0.0014
2136.00,-0.0012
2135.00,-0.0012
2134.00,-0.0012
2133.00,-0.0013
2132.00,-0.0013
2131.00,-0.0013
2130.00,-0.0013
2129.00,-0.0012
2128.00,-0.0012
2127.00,-0.0011
2126.00,-0.0010
2125.00,-0.0009
2124.00,-0.0008
2123.00,-0.0007
2122.00,-0.0006
2121.00,-0.0004
2120.00,-0.0003
2119.00,-0.0001
2118.00,0.0000
2117.00,0.0001
2116.00,0.0002
2115.00,0.0002
2114.00,0.0002
2113.00,0.0002
2112.00,0.0002
2111.00,0.0001
2110.00,0.0001
2109.00,-0.0000
2108.00,-0.0001
2107.00,-0.0001
2106.00,0.0001
2105.00,0.0002
2104.00,0.0004
2103.00,0.0004
2102.00,0.0003
2101.00,0.0003
2100.00,0.0002
2099.00,0.0002
2098.00,0.0001
2097.00,0.0000
2096.00,-0.0001
2095.00,-0.0002
2094.00,-0.0004
2093.00,-0.0006
2092.00,-0.0005
2091.00,-0.0003
2090.00,-0.0000
2089.00,0.0001
2088.00,0.0002
2087.00,0.0002
2086.00,0.0003
2085.00,0.0004
2084.00,0.0005
2083.00,0.0005
2082.00,0.0005
2081.00,0.0004
2080.00,0.0004
2079.00,0.0003
2078.00,0.0002
2077.00,0.0001
2076.00,0.0000
2075.00,0.0000
2074.00,0.0000
2073.00,-0.0000
2072.00,-0.0002
2071.00,-0.0003
2070.00,-0.0004
2069.00,-0.0003
2068.00,-0.0002
2067.00,-0.0001
2066.00,-0.0000
2065.00,-0.0001
2064.00,-0.0001
2063.00,-0.0001
2062.00,0.0001
2061.00,0.0002
2060.00,0.0004
2059.00,0.0005
2058.00,0.0006
2057.00,0.0005
2056.00,0.0003
2055.00,0.0000
2054.00,-0.0002
2053.00,0.0000
2052.00,0.0005
2051.00,0.0010
2050.00,0.0011
2049.00,0.0010
2048.00,0.0007
2047.00,0.0003
2046.00,0.0001
2045.00,0.0000
2044.00,0.0001
2043.00,0.0002
2042.00,0.0000
2041.00,-0.0002
2040.00,-0.0004
2039.00,-0.0005
2038.00,-0.0003
2037.00,-0.0002
2036.00,-0.0002
2035.00,-0.0003
2034.00,-0.0008
2033.00,-0.0013
2032.00,-0.0018
2031.00,-0.0018
2030.00,-0.0016
2029.00,-0.0012
2028.00,-0.0011
2027.00,-0.0013
2026.00,-0.0016
2025.00,-0.0016
2024.00,-0.0014
2023.00,-0.0012
2022.00,-0.0011
2021.00,-0.0012
2020.00,-0.0012
2019.00,-0.0013
2018.00,-0.0014
2017.00,-0.0014
2016.00,-0.0014
2015.00,-0.0014
2014.00,-0.0013
2013.00,-0.0013
2012.00,-0.0013
2011.00,-0.0012
2010.00,-0.0011
2009.00,-0.0011
2008.00,-0.0012
2007.00,-0.0013
2006.00,-0.0013
2005.00,-0.0012
2004.00,-0.0012
2003.00,-0.0014
2002.00,-0.0016
2001.00,-0.0017
2000.00,-0.0017
1999.00,-0.0016
1998.00,-0.0015
1997.00,-0.0015
1996.00,-0.0014
1995.00,-0.0013
1994.00,-0.0011
1993.00,-0.0009
1992.00,-0.0006
1991.00,-0.0004
1990.00,-0.0002
1989.00,-0.0002
1988.00,-0.0003
1987.00,-0.0004
1986.00,-0.0004
1985.00,-0.0002
1984.00,0.0002
1983.00,0.0006
1982.00,0.0010
1981.00,0.0013
1980.00,0.0012
1979.00,0.0008
1978.00,-0.0000
1977.00,-0.0008
1976.00,-0.0013
1975.00,-0.0015
1974.00,-0.0014
1973.00,-0.0013
1972.00,-0.0014
1971.00,-0.0015
1970.00,-0.0017
1969.00,-0.0017
1968.00,-0.0017
1967.00,-0.0016
1966.00,-0.0016
1965.00,-0.0015
1964.00,-0.0015
1963.00,-0.0015
1962.00,-0.0016
1961.00,-0.0018
1960.00,-0.0019
1959.00,-0.0019
1958.00,-0.0017
1957.00,-0.0015
1956.00,-0.0013
1955.00,-0.0013
1954.00,-0.0014
1953.00,-0.0016
1952.00,-0.0016
1951.00,-0.0016
1950.00,-0.0015
1949.00,-0.0015
1948.00,-0.0015
1947.00,-0.0016
1946.00,-0.0017
1945.00,-0.0018
1944.00,-0.0016
1943.00,-0.0014
1942.00,-0.0011
1941.00,-0.0009
1940.00,-0.0009
1939.00,-0.0009
1938.00,-0.0009
1937.00,-0.0009
1936.00,-0.0009
1935.00,-0.0009
1934.00,-0.0008
1933.00,-0.0008
1932.00,-0.0008
1931.00,-0.0008
1930.00,-0.0009
1929.00,-0.0009
1928.00,-0.0010
1927.00,-0.0011
1926.00,-0.0012
1925.00,-0.0012
1924.00,-0.0011
1923.00,-0.0010
1922.00,-0.0008
1921.00,-0.0006
1920.00,-0.0005
1919.00,-0.0005
1918.00,-0.0005
1917.00,-0.0005
1916.00,-0.0004
1915.00,-0.0004
1914.00,-0.0004
1913.00,-0.0004
1912.00,-0.0005
1911.00,-0.0006
1910.00,-0.0006
1909.00,-0.0006
1908.00,-0.0005
1907.00,-0.0005
1906.00,-0.0005
1905.00,-0.0005
1904.00,-0.0004
1903.00,-0.0004
1902.00,-0.0004
1901.00,-0.0003
1900.00,-0.0001
1899.00,-0.0001
1898.00,-0.0001
1897.00,-0.0002
1896.00,-0.0002
1895.00,-0.0002
1894.00,-0.0002
1893.00,-0.0002
1892.00,-0.0002
1891.00,-0.0003
1890.00,-0.0003
1889.00,-0.0003
1888.00,-0.0002
1887.00,-0.0002
1886.00,-0.0002
1885.00,-0.0002
1884.00,-0.0003
1883.00,-0.0003
1882.00,-0.0003
1881.00,-0.0003
1880.00,-0.0003
1879.00,-0.0003
1878.00,-0.0003
1877.00,-0.0003
1876.00,-0.0002
1875.00,-0.0002
1874.00,-0.0002
1873.00,-0.0002
1872.00,-0.0001
1871.00,-0.0001
1870.00,-0.0001
1869.00,-0.0001
1868.00,-0.0002
1867.00,-0.0003
1866.00,-0.0003
1865.00,-0.0003
1864.00,-0.0002
1863.00,-0.0001
1862.00,-0.0001
1861.00,-0.0000
1860.00,0.0000
1859.00,0.0001
1858.00,0.0001
1857.00,0.0001
1856.00,0.0001
1855.00,0.0001
1854.00,0.0000
1853.00,0.0000
1852.00,0.0000
1851.00,0.0000
1850.00,-0.0000
1849.00,-0.0001
1848.00,-0.0002
1847.00,-0.0002
1846.00,-0.0003
1845.00,-0.0002
1844.00,-0.0002
1843.00,-0.0001
1842.00,-0.0000
1841.00,0.0000
1840.00,0.0000
1839.00,0.0000
1838.00,0.0000
1837.00,0.0000
1836.00,0.0001
1835.00,0.0001
1834.00,0.0001
1833.00,0.0001
1832.00,0.0000
1831.00,-0.0001
1830.00,-0.0001
1829.00,0.0000
1828.00,0.0001
1827.00,0.0001
1826.00,0.0001
1825.00,0.0001
1824.00,0.0001
1823.00,0.0001
1822.00,0.0001
1821.00,0.0001
1820.00,0.0001
1819.00,-0.0000
1818.00,-0.0001
1817.00,-0.0002
1816.00,-0.0001
1815.00,-0.0001
1814.00,0.0000
1813.00,0.0001
1812.00,0.0002
1811.00,0.0002
1810.00,0.0002
1809.00,0.0002
1808.00,0.0003
1807.00,0.0003
1806.00,0.0003
1805.00,0.0002
1804.00,0.0002
1803.00,0.0003
1802.00,0.0003
1801.00,0.0004
1800.00,0.0004
1799.00,0.0004
1798.00,0.0004
1797.00,0.0004
1796.00,0.0004
1795.00,0.0004
1794.00,0.0005
1793.00,0.0005
1792.00,0.0005
1791.00,0.0006
1790.00,0.0006
1789.00,0.0006
1788.00,0.0006
1787.00,0.0006
1786.00,0.0006
1785.00,0.0005
1784.00,0.0005
1783.00,0.0006
1782.00,0.0006
1781.00,0.0006
1780.00,0.0006
1779.00,0.0006
1778.00,0.0006
1777.00,0.0006
1776.00,0.0005
1775.00,0.0005
1774.00,0.0005
1773.00,0.0005
1772.00,0.0006
1771.00,0.0007
1770.00,0.0007
1769.00,0.0008
1768.00,0.0008
1767.00,0.0009
1766.00,0.0009
1765.00,0.0009
1764.00,0.0008
1763.00,0.0008
1762.00,0.0008
1761.00,0.0008
1760.00,0.0008
1759.00,0.0009
1758.00,0.0009
1757.00,0.0009
1756.00,0.0010
1755.00,0.0011
1754.00,0.0011
1753.00,0.0012
1752.00,0.0012
1751.00,0.0012
1750.00,0.0012
1749.00,0.0013
1748.00,0.0013
1747.00,0.0014
1746.00,0.0014
1745.00,0.0014
1744.00,0.0014
1743.00,0.0015
1742.00,0.0015
1741.00,0.0016
1740.00,0.0016
1739.00,0.0016
1738.00,0.0016
1737.00,0.0016
1736.00,0.0017
1735.00,0.0017
1734.00,0.0017
1733.00,0.0017
1732.00,0.0017
1731.00,0.0017
1730.00,0.0017
1729.00,0.0018
1728.00,0.0018
1727.00,0.0019
1726.00,0.0019
1725.00,0.0020
1724.00,0.0020
1723.00,0.0021
1722.00,0.0020
1721.00,0.0020
1720.00,0.0020
1719.00,0.0019
1718.00,0.0019
1717.00,0.0019
1716.00,0.0019
1715.00,0.0018
1714.00,0.0018
1713.00,0.0018
1712.00,0.0019
1711.00,0.0019
1710.00,0.0020
1709.00,0.0020
1708.00,0.0020
1707.00,0.0020
1706.00,0.0020
1705.00,0.0020
1704.00,0.0020
1703.00,0.0020
1702.00,0.0020
1701.00,0.0021
1700.00,0.0022
1699.00,0.0023
1698.00,0.0023
1697.00,0.0023
1696.00,0.0023
1695.00,0.0023
1694.00,0.0023
1693.00,0.0022
1692.00,0.0022
1691.00,0.0023
1690.00,0.0023
1689.00,0.0023
1688.00,0.0024
1687.00,0.0024
1686.00,0.0024
1685.00,0.0024
1684.00,0.0025
1683.00,0.0026
1682.00,0.0026
1681.00,0.0027
1680.00,0.0028
1679.00,0.0029
1678.00,0.0029
1677.00,0.0029
1676.00,0.0029
1675.00,0.0029
1674.00,0.0029
1673.00,0.0030
1672.00,0.0031
1671.00,0.0031
1670.00,0.0032
1669.00,0.0032
1668.00,0.0032
1667.00,0.0032
1666.00,0.0032
1665.00,0.0032
1664.00,0.0033
1663.00,0.0033
1662.00,0.0033
1661.00,0.0034
1660.00,0.0034
1659.00,0.0034
1658.00,0.0034
1657.00,0.0034
1656.00,0.0035
1655.00,0.0035
1654.00,0.0035
1653.00,0.0036
1652.00,0.0036
1651.00,0.0036
1650.00,0.0036
1649.00,0.0036
1648.00,0.0037
1647.00,0.0037
1646.00,0.0038
1645.00,0.0038
1644.00,0.0039
1643.00,0.0040
1642.00,0.0040
1641.00,0.0041
1640.00,0.0041
1639.00,0.0042
1638.00,0.0042
1637.00,0.0042
1636.00,0.0043
1635.00,0.0042
1634.00,0.0041
1633.00,0.0041
1632.00,0.0041
1631.00,0.0041
1630.00,0.0041
1629.00,0.0040
1628.00,0.0040
1627.00,0.0039
1626.00,0.0039
1625.00,0.0038
1624.00,0.0038
1623.00,0.0038
1622.00,0.0037
1621.00,0.0037
1620.00,0.0037
1619.00,0.0036
1618.00,0.0036
1617.00,0.0035
1616.00,0.0036
1615.00,0.0036
1614.00,0.0037
1613.00,0.0037
1612.00,0.0037
1611.00,0.0037
1610.00,0.0037
1609.00,0.0037
1608.00,0.0036
1607.00,0.0036
1606.00,0.0036
1605.00,0.0036
1604.00,0.0036
1603.00,0.0036
1602.00,0.0036
1601.00,0.0037
1600.00,0.0037
1599.00,0.0036
1598.00,0.0036
1597.00,0.0035
1596.00,0.0035
1595.00,0.0034
1594.00,0.0034
1593.00,0.0034
1592.00,0.0034
1591.00,0.0034
1590.00,0.0034
1589.00,0.0034
1588.00,0.0035
1587.00,0.0035
1586.00,0.0035
1585.00,0.0035
1584.00,0.0035
1583.00,0.0036
1582.00,0.0036
1581.00,0.0036
1580.00,0.0036
1579.00,0.0037
1578.00,0.0037
1577.00,0.0037
1576.00,0.0038
1575.00,0.0038
1574.00,0.0038
1573.00,0.0039
1572.00,0.0039
1571.00,0.0040
1570.00,0.0041
1569.00,0.0041
1568.00,0.0041
1567.00,0.0041
1566.00,0.0041
1565.00,0.0042
1564.00,0.0042
1563.00,0.0042
1562.00,0.0042
1561.00,0.0042
1560.00,0.0043
1559.00,0.0043
1558.00,0.0042
1557.00,0.0042
1556.00,0.0042
1555.00,0.0043
1554.00,0.0043
1553.00,0.0043
1552.00,0.0044
1551.00,0.0044
1550.00,0.0044
1549.00,0.0044
1548.00,0.0044
1547.00,0.0044
1546.00,0.0044
1545.00,0.0045
1544.00,0.0045
1543.00,0.0045
1542.00,0.0044
1541.00,0.0044
1540.00,0.0044
1539.00,0.0043
1538.00,0.0042
1537.00,0.0042
1536.00,0.0042
1535.00,0.0042
1534.00,0.0041
1533.00,0.0041
1532.00,0.0041
1531.00,0.0040
1530.00,0.0041
1529.00,0.0041
1528.00,0.0041
1527.00,0.0042
1526.00,0.0042
1525.00,0.0042
1524.00,0.0043
1523.00,0.0044
1522.00,0.0044
1521.00,0.0044
1520.00,0.0044
1519.00,0.0045
1518.00,0.0045
1517.00,0.0045
1516.00,0.0046
1515.00,0.0047
1514.00,0.0047
1513.00,0.0049
1512.00,0.0050
1511.00,0.0051
1510.00,0.0051
1509.00,0.0052
1508.00,0.0054
1507.00,0.0055
1506.00,0.0055
1505.00,0.0056
1504.00,0.0058
1503.00,0.0059
1502.00,0.0060
1501.00,0.0062
1500.00,0.0065
1499.00,0.0067
1498.00,0.0069
1497.00,0.0072
1496.00,0.0075
1495.00,0.0077
1494.00,0.0079
1493.00,0.0082
1492.00,0.0086
1491.00,0.0089
1490.00,0.0093
1489.00,0.0098
1488.00,0.0102
1487.00,0.0106
1486.00,0.0111
1485.00,0.0116
1484.00,0.0123
1483.00,0.0129
1482.00,0.0137
1481.00,0.0147
1480.00,0.0159
1479.00,0.0171
1478.00,0.0186
1477.00,0.0206
1476.00,0.0232
1475.00,0.0261
1474.00,0.0301
1473.00,0.0359
1472.00,0.0428
1471.00,0.0495
1470.00,0.0558
1469.00,0.0625
1468.00,0.0696
1467.00,0.0775
1466.00,0.0864
1465.00,0.0961
1464.00,0.1045
1463.00,0.1103
1462.00,0.1140
1461.00,0.1166
1460.00,0.1183
1459.00,0.1193
1458.00,0.1201
1457.00,0.1207
1456.00,0.1205
1455.00,0.1197
1454.00,0.1186
1453.00,0.1169
1452.00,0.1143
1451.00,0.1106
1450.00,0.1054
1449.00,0.0983
1448.00,0.0891
1447.00,0.0795
1446.00,0.0708
1445.00,0.0635
1444.00,0.0572
1443.00,0.0520
1442.00,0.0480
1441.00,0.0452
1440.00,0.0434
1439.00,0.0426
1438.00,0.0424
1437.00,0.0424
1436.00,0.0413
1435.00,0.0389
1434.00,0.0355
1433.00,0.0313
1432.00,0.0270
1431.00,0.0231
1430.00,0.0200
1429.00,0.0177
1428.00,0.0161
1427.00,0.0152
1426.00,0.0145
1425.00,0.0139
1424.00,0.0133
1423.00,0.0129
1422.00,0.0127
1421.00,0.0123
1420.00,0.0119
1419.00,0.0116
1418.00,0.0115
1417.00,0.0113
1416.00,0.0110
1415.00,0.0109
1414.00,0.0107
1413.00,0.0106
1412.00,0.0104
1411.00,0.0104
1410.00,0.0104
1409.00,0.0104
1408.00,0.0103
1407.00,0.0103
1406.00,0.0103
1405.00,0.0103
1404.00,0.0102
1403.00,0.0103
1402.00,0.0105
1401.00,0.0105
1400.00,0.0106
1399.00,0.0108
1398.00,0.0110
1397.00,0.0112
1396.00,0.0113
1395.00,0.0117
1394.00,0.0122
1393.00,0.0126
1392.00,0.0132
1391.00,0.0139
1390.00,0.0149
1389.00,0.0164
1388.00,0.0185
1387.00,0.0218
1386.00,0.0262
1385.00,0.0318
1384.00,0.0397
1383.00,0.0507
1382.00,0.0655
1381.00,0.0847
1380.00,0.1083
1379.00,0.1352
1378.00,0.1609
1377.00,0.1796
1376.00,0.1856
1375.00,0.1757
1374.00,0.1529
1373.00,0.1257
1372.00,0.1012
1371.00,0.0811
1370.00,0.0652
1369.00,0.0531
1368.00,0.0447
1367.00,0.0396
1366.00,0.0367
1365.00,0.0356
1364.00,0.0358
1363.00,0.0371
1362.00,0.0390
1361.00,0.0412
1360.00,0.0428
1359.00,0.0432
1358.00,0.0423
1357.00,0.0399
1356.00,0.0364
1355.00,0.0325
1354.00,0.0287
1353.00,0.0255
1352.00,0.0228
1351.00,0.0206
1350.00,0.0188
1349.00,0.0174
1348.00,0.0162
1347.00,0.0152
1346.00,0.0144
1345.00,0.0137
1344.00,0.0131
1343.00,0.0126
1342.00,0.0121
1341.00,0.0117
1340.00,0.0114
1339.00,0.0112
1338.00,0.0111
1337.00,0.0111
1336.00,0.0112
1335.00,0.0114
1334.00,0.0117
1333.00,0.0121
1332.00,0.0125
1331.00,0.0128
1330.00,0.0129
1329.00,0.0128
1328.00,0.0125
1327.00,0.0121
1326.00,0.0116
1325.00,0.0110
1324.00,0.0105
1323.00,0.0100
1322.00,0.0096
1321.00,0.0093
1320.00,0.0091
1319.00,0.0090
1318.00,0.0088
1317.00,0.0086
1316.00,0.0085
1315.00,0.0084
1314.00,0.0084
1313.00,0.0084
1312.00,0.0085
1311.00,0.0088
1310.00,0.0092
1309.00,0.0098
1308.00,0.0108
1307.00,0.0119
1306.00,0.0130
1305.00,0.0137
1304.00,0.0139
1303.00,0.0137
1302.00,0.0132
1301.00,0.0127
1300.00,0.0125
1299.00,0.0124
1298.00,0.0124
1297.00,0.0124
1296.00,0.0122
1295.00,0.0120
1294.00,0.0117
1293.00,0.0112
1292.00,0.0107
1291.00,0.0103
1290.00,0.0098
1289.00,0.0094
1288.00,0.0091
1287.00,0.0088
1286.00,0.0086
1285.00,0.0084
1284.00,0.0082
1283.00,0.0080
1282.00,0.0079
1281.00,0.0078
1280.00,0.0077
1279.00,0.0077
1278.00,0.0076
1277.00,0.0075
1276.00,0.0074
1275.00,0.0074
1274.00,0.0073
1273.00,0.0073
1272.00,0.0073
1271.00,0.0074
1270.00,0.0075
1269.00,0.0076
1268.00,0.0077
1267.00,0.0079
1266.00,0.0081
1265.00,0.0084
1264.00,0.0087
1263.00,0.0089
1262.00,0.0093
1261.00,0.0097
1260.00,0.0102
1259.00,0.0109
1258.00,0.0116
1257.00,0.0122
1256.00,0.0124
1255.00,0.0122
1254.00,0.0116
1253.00,0.0108
1252.00,0.0100
1251.00,0.0093
1250.00,0.0088
1249.00,0.0083
1248.00,0.0080
1247.00,0.0077
1246.00,0.0076
1245.00,0.0074
1244.00,0.0073
1243.00,0.0072
1242.00,0.0072
1241.00,0.0071
1240.00,0.0070
1239.00,0.0069
1238.00,0.0068
1237.00,0.0068
1236.00,0.0068
1235.00,0.0068
1234.00,0.0068
1233.00,0.0068
1232.00,0.0069
1231.00,0.0069
1230.00,0.0070
1229.00,0.0070
1228.00,0.0071
1227.00,0.0072
1226.00,0.0075
1225.00,0.0078
1224.00,0.0081
1223.00,0.0084
1222.00,0.0087
1221.00,0.0090
1220.00,0.0092
1219.00,0.0092
1218.00,0.0092
1217.00,0.0090
1216.00,0.0087
1215.00,0.0084
1214.00,0.0081
1213.00,0.0078
1212.00,0.0075
1211.00,0.0074
1210.00,0.0073
1209.00,0.0073
1208.00,0.0073
1207.00,0.0072
1206.00,0.0070
1205.00,0.0069
1204.00,0.0069
1203.00,0.0069
1202.00,0.0069
1201.00,0.0068
1200.00,0.0067
1199.00,0.0067
1198.00,0.0067
1197.00,0.0067
1196.00,0.0068
1195.00,0.0068
1194.00,0.0069
1193.00,0.0069
1192.00,0.0068
1191.00,0.0068
1190.00,0.0068
1189.00,0.0069
1188.00,0.0069
1187.00,0.0070
1186.00,0.0070
1185.00,0.0071
1184.00,0.0072
1183.00,0.0073
1182.00,0.0075
1181.00,0.0078
1180.00,0.0082
1179.00,0.0087
1178.00,0.0093
1177.00,0.0101
1176.00,0.0112
1175.00,0.0127
1174.00,0.0147
1173.00,0.0173
1172.00,0.0204
1171.00,0.0237
1170.00,0.0269
1169.00,0.0295
1168.00,0.0310
1167.00,0.0312
1166.00,0.0304
1165.00,0.0287
1164.00,0.0269
1163.00,0.0251
1162.00,0.0235
1161.00,0.0222
1160.00,0.0212
1159.00,0.0204
1158.00,0.0199
1157.00,0.0196
1156.00,0.0193
1155.00,0.0191
1154.00,0.0188
1153.00,0.0185
1152.00,0.0181
1151.00,0.0176
1150.00,0.0168
1149.00,0.0159
1148.00,0.0149
1147.00,0.0139
1146.00,0.0130
1145.00,0.0121
1144.00,0.0114
1143.00,0.0108
1142.00,0.0102
1141.00,0.0096
1140.00,0.0090
1139.00,0.0085
1138.00,0.0081
1137.00,0.0079
1136.00,0.0077
1135.00,0.0076
1134.00,0.0074
1133.00,0.0073
1132.00,0.0071
1131.00,0.0070
1130.00,0.0069
1129.00,0.0069
1128.00,0.0068
1127.00,0.0069
1126.00,0.0069
1125.00,0.0070
1124.00,0.0070
1123.00,0.0070
1122.00,0.0071
1121.00,0.0072
1120.00,0.0072
1119.00,0.0073
1118.00,0.0074
1117.00,0.0075
1116.00,0.0076
1115.00,0.0077
1114.00,0.0078
1113.00,0.0080
1112.00,0.0082
1111.00,0.0086
1110.00,0.0089
1109.00,0.0093
1108.00,0.0097
1107.00,0.0102
1106.00,0.0109
1105.00,0.0115
1104.00,0.0120
1103.00,0.0122
1102.00,0.0121
1101.00,0.0118
1100.00,0.0113
1099.00,0.0108
1098.00,0.0101
1097.00,0.0096
1096.00,0.0090
1095.00,0.0086
1094.00,0.0084
1093.00,0.0081
1092.00,0.0079
1091.00,0.0077
1090.00,0.0075
1089.00,0.0074
1088.00,0.0073
1087.00,0.0073
1086.00,0.0073
1085.00,0.0074
1084.00,0.0075
1083.00,0.0075
1082.00,0.0075
1081.00,0.0074
1080.00,0.0072
1079.00,0.0070
1078.00,0.0069
1077.00,0.0068
1076.00,0.0067
1075.00,0.0067
1074.00,0.0067
1073.00,0.0067
1072.00,0.0066
1071.00,0.0066
1070.00,0.0066
1069.00,0.0066
1068.00,0.0067
1067.00,0.0067
1066.00,0.0069
1065.00,0.0070
1064.00,0.0072
1063.00,0.0073
1062.00,0.0074
1061.00,0.0074
1060.00,0.0074
1059.00,0.0075
1058.00,0.0076
1057.00,0.0078
1056.00,0.0080
1055.00,0.0082
1054.00,0.0084
1053.00,0.0087
1052.00,0.0091
1051.00,0.0095
1050.00,0.0099
1049.00,0.0104
1048.00,0.0108
1047.00,0.0114
1046.00,0.0118
1045.00,0.0122
1044.00,0.0123
1043.00,0.0122
1042.00,0.0120
1041.00,0.0117
1040.00,0.0115
1039.00,0.0114
1038.00,0.0113
1037.00,0.0112
1036.00,0.0110
1035.00,0.0109
1034.00,0.0107
1033.00,0.0106
1032.00,0.0106
1031.00,0.0105
1030.00,0.0105
1029.00,0.0106
1028.00,0.0107
1027.00,0.0108
1026.00,0.0111
1025.00,0.0113
1024.00,0.0116
1023.00,0.0118
1022.00,0.0121
1021.00,0.0123
1020.00,0.0125
1019.00,0.0126
1018.00,0.0127
1017.00,0.0128
1016.00,0.0129
1015.00,0.0130
1014.00,0.0129
1013.00,0.0128
1012.00,0.0126
1011.00,0.0126
1010.00,0.0127
1009.00,0.0130
1008.00,0.0134
1007.00,0.0139
1006.00,0.0147
1005.00,0.0158
1004.00,0.0174
1003.00,0.0197
1002.00,0.0228
1001.00,0.0266
1000.00,0.0306
999.00,0.0340
998.00,0.0356
997.00,0.0348
996.00,0.0320
995.00,0.0279
994.00,0.0237
993.00,0.0201
992.00,0.0173
991.00,0.0152
990.00,0.0138
989.00,0.0128
988.00,0.0121
987.00,0.0118
986.00,0.0117
985.00,0.0119
984.00,0.0123
983.00,0.0131
982.00,0.0142
981.00,0.0157
980.00,0.0178
979.00,0.0207
978.00,0.0243
977.00,0.0287
976.00,0.0334
975.00,0.0378
974.00,0.0410
973.00,0.0420
972.00,0.0405
971.00,0.0366
970.00,0.0313
969.00,0.0260
968.00,0.0215
967.00,0.0180
966.00,0.0155
965.00,0.0137
964.00,0.0123
963.00,0.0112
962.00,0.0104
961.00,0.0098
960.00,0.0093
959.00,0.0089
958.00,0.0087
957.00,0.0084
956.00,0.0082
955.00,0.0080
954.00,0.0078
953.00,0.0076
952.00,0.0075
951.00,0.0074
950.00,0.0074
949.00,0.0073
948.00,0.0073
947.00,0.0074
946.00,0.0075
945.00,0.0077
944.00,0.0080
943.00,0.0083
942.00,0.0087
941.00,0.0089
940.00,0.0090
939.00,0.0089
938.00,0.0085
937.00,0.0079
936.00,0.0072
935.00,0.0067
934.00,0.0064
933.00,0.0063
932.00,0.0062
931.00,0.0061
930.00,0.0060
929.00,0.0060
928.00,0.0060
927.00,0.0061
926.00,0.0061
925.00,0.0061
924.00,0.0060
923.00,0.0059
922.00,0.0058
921.00,0.0059
920.00,0.0059
919.00,0.0060
918.00,0.0061
917.00,0.0062
916.00,0.0063
915.00,0.0064
914.00,0.0065
913.00,0.0066
912.00,0.0068
911.00,0.0070
910.00,0.0072
909.00,0.0073
908.00,0.0074
907.00,0.0077
906.00,0.0083
905.00,0.0094
904.00,0.0108
903.00,0.0126
902.00,0.0145
901.00,0.0161
900.00,0.0172
899.00,0.0174
898.00,0.0166
897.00,0.0151
896.00,0.0132
895.00,0.0114
894.00,0.0099
893.00,0.0088
892.00,0.0081
891.00,0.0077
890.00,0.0075
889.00,0.0074
888.00,0.0072
887.00,0.0071
886.00,0.0069
885.00,0.0067
884.00,0.0066
883.00,0.0066
882.00,0.0067
881.00,0.0068
880.00,0.0069
879.00,0.0070
878.00,0.0072
877.00,0.0073
876.00,0.0075
875.00,0.0077
874.00,0.0078
873.00,0.0077
872.00,0.0076
871.00,0.0075
870.00,0.0074
869.00,0.0073
868.00,0.0072
867.00,0.0073
866.00,0.0074
865.00,0.0075
864.00,0.0076
863.00,0.0076
862.00,0.0078
861.00,0.0079
860.00,0.0080
859.00,0.0081
858.00,0.0081
857.00,0.0081
856.00,0.0082
855.00,0.0084
854.00,0.0087
853.00,0.0091
852.00,0.0096
851.00,0.0101
850.00,0.0106
849.00,0.0112
848.00,0.0119
847.00,0.0131
846.00,0.0150
845.00,0.0183
844.00,0.0230
843.00,0.0285
842.00,0.0331
841.00,0.0346
840.00,0.0322
839.00,0.0272
838.00,0.0217
837.00,0.0174
836.00,0.0146
835.00,0.0130
834.00,0.0120
833.00,0.0113
832.00,0.0109
831.00,0.0105
830.00,0.0102
829.00,0.0099
828.00,0.0097
827.00,0.0096
826.00,0.0095
825.00,0.0094
824.00,0.0093
823.00,0.0093
822.00,0.0094
821.00,0.0096
820.00,0.0099
819.00,0.0102
818.00,0.0106
817.00,0.0112
816.00,0.0120
815.00,0.0131
814.00,0.0145
813.00,0.0162
812.00,0.0180
811.00,0.0196
810.00,0.0208
809.00,0.0213
808.00,0.0210
807.00,0.0199
806.00,0.0183
805.00,0.0165
804.00,0.0149
803.00,0.0135
802.00,0.0125
801.00,0.0118
800.00,0.0112
799.00,0.0107
798.00,0.0102
797.00,0.0098
796.00,0.0093
795.00,0.0090
794.00,0.0088
793.00,0.0087
792.00,0.0085
791.00,0.0082
790.00,0.0078
789.00,0.0074
788.00,0.0072
787.00,0.0070
786.00,0.0068
785.00,0.0066
784.00,0.0064
783.00,0.0062
782.00,0.0062
781.00,0.0062
780.00,0.0062
779.00,0.0060
778.00,0.0059
777.00,0.0059
776.00,0.0059
775.00,0.0059
774.00,0.0060
773.00,0.0060
772.00,0.0060
771.00,0.0060
770.00,0.0060
769.00,0.0059
768.00,0.0059
767.00,0.0059
766.00,0.0060
765.00,0.0061
764.00,0.0061
763.00,0.0061
762.00,0.0062
761.00,0.0063
760.00,0.0064
759.00,0.0065
758.00,0.0065
757.00,0.0066
756.00,0.0067
755.00,0.0067
754.00,0.0067
753.00,0.0067
752.00,0.0068
751.00,0.0069
750.00,0.0071
749.00,0.0072
748.00,0.0073
747.00,0.0074
746.00,0.0075
745.00,0.0078
744.00,0.0080
743.00,0.0083
742.00,0.0086
741.00,0.0089
740.00,0.0093
739.00,0.0097
738.00,0.0100
737.00,0.0104
736.00,0.0107
735.00,0.0110
734.00,0.0114
733.00,0.0119
732.00,0.0125
731.00,0.0132
730.00,0.0137
729.00,0.0140
728.00,0.0142
727.00,0.0143
726.00,0.0144
725.00,0.0146
724.00,0.0151
723.00,0.0157
722.00,0.0163
721.00,0.0167
720.00,0.0165
719.00,0.0159
718.00,0.0149
717.00,0.0137
716.00,0.0127
715.00,0.0120
714.00,0.0114
713.00,0.0110
712.00,0.0106
711.00,0.0104
710.00,0.0101
709.00,0.0099
708.00,0.0096
707.00,0.0093
706.00,0.0091
705.00,0.0091
704.00,0.0092
703.00,0.0094
702.00,0.0094
701.00,0.0093
700.00,0.0091
699.00,0.0088
698.00,0.0086
697.00,0.0085
696.00,0.0084
695.00,0.0083
694.00,0.0083
693.00,0.0084
692.00,0.0084
691.00,0.0084
690.00,0.0083
689.00,0.0085
688.00,0.0088
687.00,0.0090
686.00,0.0090
685.00,0.0089
684.00,0.0087
683.00,0.0087
682.00,0.0087
681.00,0.0087
680.00,0.0087
679.00,0.0087
678.00,0.0087
677.00,0.0087
676.00,0.0087
675.00,0.0086
674.00,0.0087
673.00,0.0089
672.00,0.0092
671.00,0.0095
670.00,0.0098
669.00,0.0098
668.00,0.0095
667.00,0.0091
666.00,0.0089
665.00,0.0088
664.00,0.0087
663.00,0.0087
662.00,0.0086
661.00,0.0085
660.00,0.0083
659.00,0.0081
658.00,0.0079
657.00,0.0078
656.00,0.0078
655.00,0.0078
654.00,0.0079
653.00,0.0081
652.00,0.0082
651.00,0.0083
650.00,0.0083
649.00,0.0081
648.00,0.0080
647.00,0.0079
646.00,0.0078
645.00,0.0078
644.00,0.0078
643.00,0.0076
642.00,0.0076
641.00,0.0076
640.00,0.0078
639.00,0.0080
638.00,0.0080
637.00,0.0080
636.00,0.0079
635.00,0.0079
634.00,0.0080
633.00,0.0081
632.00,0.0081
631.00,0.0079
630.00,0.0078
629.00,0.0078
628.00,0.0078
627.00,0.0078
626.00,0.0078
625.00,0.0077
624.00,0.0077
623.00,0.0078
622.00,0.0080
621.00,0.0081
620.00,0.0081
619.00,0.0079
618.00,0.0076
617.00,0.0073
616.00,0.0072
615.00,0.0072
614.00,0.0073
613.00,0.0074
612.00,0.0075
611.00,0.0076
610.00,0.0075
609.00,0.0074
608.00,0.0073
607.00,0.0072
606.00,0.0071
605.00,0.0071
604.00,0.0071
603.00,0.0071
602.00,0.0071
601.00,0.0072
600.00,0.0074
599.00,0.0077
598.00,0.0078
597.00,0.0078
596.00,0.0077
595.00,0.0076
594.00,0.0075
593.00,0.0075
592.00,0.0076
591.00,0.0075
590.00,0.0075
589.00,0.0073
588.00,0.0072
587.00,0.0072
586.00,0.0073
585.00,0.0074
584.00,0.0076
583.00,0.0079
582.00,0.0082
581.00,0.0083
580.00,0.0082
579.00,0.0080
578.00,0.0079
577.00,0.0078
576.00,0.0077
575.00,0.0075
574.00,0.0074
573.00,0.0073
572.00,0.0072
571.00,0.0072
570.00,0.0072
569.00,0.0074
568.00,0.0076
567.00,0.0079
566.00,0.0082
565.00,0.0082
564.00,0.0082
563.00,0.0080
562.00,0.0079
561.00,0.0078
560.00,0.0076
559.00,0.0074
558.00,0.0073
557.00,0.0074
556.00,0.0075
555.00,0.0077
554.00,0.0080
553.00,0.0083
552.00,0.0086
551.00,0.0087
550.00,0.0086
549.00,0.0085
548.00,0.0086
547.00,0.0088
546.00,0.0090
545.00,0.0090
544.00,0.0090
543.00,0.0089
542.00,0.0089
541.00,0.0090
540.00,0.0091
539.00,0.0092
538.00,0.0093
537.00,0.0095
536.00,0.0098
535.00,0.0102
534.00,0.0107
533.00,0.0110
532.00,0.0110
531.00,0.0109
530.00,0.0107
529.00,0.0105
528.00,0.0103
527.00,0.0102
526.00,0.0102
525.00,0.0102
524.00,0.0100
523.00,0.0098
522.00,0.0097
521.00,0.0096
520.00,0.0095
519.00,0.0092
518.00,0.0088
517.00,0.0081
516.00,0.0075
515.00,0.0070
514.00,0.0069
513.00,0.0069
512.00,0.0070
511.00,0.0071
510.00,0.0073
509.00,0.0075
508.00,0.0077
507.00,0.0078
506.00,0.0080
505.00,0.0082
504.00,0.0082
503.00,0.0081
502.00,0.0079
501.00,0.0078
500.00,0.0077
499.00,0.0076
498.00,0.0075
497.00,0.0075
496.00,0.0075
495.00,0.0072
494.00,0.0070
493.00,0.0070
492.00,0.0073
491.00,0.0076
490.00,0.0075
489.00,0.0070
488.00,0.0063
487.00,0.0057
486.00,0.0054
485.00,0.0054
484.00,0.0055
483.00,0.0059
482.00,0.0066
481.00,0.0073
480.00,0.0077
479.00,0.0079
478.00,0.0080
477.00,0.0082
476.00,0.0078
475.00,0.0070
474.00,0.0061
473.00,0.0062
472.00,0.0076
471.00,0.0099
470.00,0.0119
469.00,0.0132
468.00,0.0136
467.00,0.0139
466.00,0.0146
465.00,0.0160
464.00,0.0176
463.00,0.0189
462.00,0.0195
461.00,0.0196
460.00,0.0194
459.00,0.0192
458.00,0.0193
457.00,0.0195
456.00,0.0196
455.00,0.0191
454.00,0.0182
453.00,0.0171
452.00,0.0163
451.00,0.0162
450.00,0.0164
