Created as New Dataset,Sample 022 By Administrator Date Thursday, September 04 2025
cm-1,A
4000.00,0.0010
3999.00,0.0010
3998.00,0.0010
3997.00,0.0010
3996.00,0.0010
3995.00,0.0010
3994.00,0.0010
3993.00,0.0010
3992.00,0.0010
3991.00,0.0010
3990.00,0.0010
3989.00,0.0010
3988.00,0.0010
3987.00,0.0010
3986.00,0.0010
3985.00,0.0010
3984.00,0.0010
3983.00,0.0009
3982.00,0.0009
3981.00,0.0009
3980.00,0.0009
3979.00,0.0009
3978.00,0.0008
3977.00,0.0008
3976.00,0.0008
3975.00,0.0008
3974.00,0.0008
3973.00,0.0008
3972.00,0.0008
3971.00,0.0008
3970.00,0.0008
3969.00,0.0009
3968.00,0.0009
3967.00,0.0009
3966.00,0.0009
3965.00,0.0008
3964.00,0.0008
3963.00,0.0008
3962.00,0.0007
3961.00,0.0007
3960.00,0.0007
3959.00,0.0007
3958.00,0.0007
3957.00,0.0007
3956.00,0.0007
3955.00,0.0007
3954.00,0.0007
3953.00,0.0008
3952.00,0.0008
3951.00,0.0008
3950.00,0.0009
3949.00,0.0009
3948.00,0.0009
3947.00,0.0009
3946.00,0.0009
3945.00,0.0009
3944.00,0.0008
3943.00,0.0008
3942.00,0.0008
3941.00,0.0009
3940.00,0.0009
3939.00,0.0009
3938.00,0.0009
3937.00,0.0009
3936.00,0.0009
3935.00,0.0009
3934.00,0.0009
3933.00,0.0008
3932.00,0.0008
3931.00,0.0008
3930.00,0.0007
3929.00,0.0007
3928.00,0.0007
3927.00,0.0007
3926.00,0.0008
3925.00,0.0008
3924.00,0.0008
3923.00,0.0009
3922.00,0.0009
3921.00,0.0009
3920.00,0.0009
3919.00,0.0009
3918.00,0.0009
3917.00,0.0009
3916.00,0.0009
3915.00,0.0009
3914.00,0.0008
3913.00,0.0008
3912.00,0.0008
3911.00,0.0008
3910.00,0.0009
3909.00,0.0009
3908.00,0.0009
3907.00,0.0009
3906.00,0.0009
3905.00,0.0009
3904.00,0.0009
3903.00,0.0008
3902.00,0.0008
3901.00,0.0007
3900.00,0.0007
3899.00,0.0007
3898.00,0.0007
3897.00,0.0007
3896.00,0.0007
3895.00,0.0007
3894.00,0.0007
3893.00,0.0007
3892.00,0.0007
3891.00,0.0007
3890.00,0.0007
3889.00,0.0007
3888.00,0.0007
3887.00,0.0007
3886.00,0.0008
3885.00,0.0008
3884.00,0.0008
3883.00,0.0008
3882.00,0.0007
3881.00,0.0007
3880.00,0.0008
3879.00,0.0008
3878.00,0.0008
3877.00,0.0008
3876.00,0.0008
3875.00,0.0008
3874.00,0.0008
3873.00,0.0008
3872.00,0.0007
3871.00,0.0007
3870.00,0.0007
3869.00,0.0008
3868.00,0.0007
3867.00,0.0007
3866.00,0.0007
3865.00,0.0007
3864.00,0.0007
3863.00,0.0007
3862.00,0.0007
3861.00,0.0007
3860.00,0.0007
3859.00,0.0007
3858.00,0.0007
3857.00,0.0007
3856.00,0.0007
3855.00,0.0007
3854.00,0.0007
3853.00,0.0006
3852.00,0.0006
3851.00,0.0006
3850.00,0.0006
3849.00,0.0006
3848.00,0.0007
3847.00,0.0007
3846.00,0.0007
3845.00,0.0008
3844.00,0.0008
3843.00,0.0009
3842.00,0.0009
3841.00,0.0008
3840.00,0.0007
3839.00,0.0006
3838.00,0.0006
3837.00,0.0005
3836.00,0.0005
3835.00,0.0005
3834.00,0.0006
3833.00,0.0006
3832.00,0.0007
3831.00,0.0007
3830.00,0.0008
3829.00,0.0008
3828.00,0.0008
3827.00,0.0007
3826.00,0.0007
3825.00,0.0007
3824.00,0.0007
3823.00,0.0007
3822.00,0.0007
3821.00,0.0007
3820.00,0.0007
3819.00,0.0007
3818.00,0.0007
3817.00,0.0007
3816.00,0.0007
3815.00,0.0008
3814.00,0.0008
3813.00,0.0008
3812.00,0.0008
3811.00,0.0008
3810.00,0.0008
3809.00,0.0007
3808.00,0.0007
3807.00,0.0007
3806.00,0.0007
3805.00,0.0007
3804.00,0.0007
3803.00,0.0006
3802.00,0.0006
3801.00,0.0006
3800.00,0.0006
3799.00,0.0006
3798.00,0.0006
3797.00,0.0006
3796.00,0.0006
3795.00,0.0006
3794.00,0.0007
3793.00,0.0007
3792.00,0.0007
3791.00,0.0007
3790.00,0.0007
3789.00,0.0007
3788.00,0.0008
3787.00,0.0008
3786.00,0.0008
3785.00,0.0008
3784.00,0.0008
3783.00,0.0007
3782.00,0.0007
3781.00,0.0007
3780.00,0.0007
3779.00,0.0008
3778.00,0.0008
3777.00,0.0009
3776.00,0.0009
3775.00,0.0009
3774.00,0.0009
3773.00,0.0009
3772.00,0.0008
3771.00,0.0007
3770.00,0.0007
3769.00,0.0007
3768.00,0.0008
3767.00,0.0008
3766.00,0.0008
3765.00,0.0008
3764.00,0.0009
3763.00,0.0009
3762.00,0.0009
3761.00,0.0009
3760.00,0.0008
3759.00,0.0008
3758.00,0.0008
3757.00,0.0008
3756.00,0.0008
3755.00,0.0007
3754.00,0.0007
3753.00,0.0007
3752.00,0.0007
3751.00,0.0007
3750.00,0.0007
3749.00,0.0007
3748.00,0.0007
3747.00,0.0006
3746.00,0.0006
3745.00,0.0006
3744.00,0.0006
3743.00,0.0006
3742.00,0.0006
3741.00,0.0007
3740.00,0.0007
3739.00,0.0007
3738.00,0.0008
3737.00,0.0008
3736.00,0.0007
3735.00,0.0007
3734.00,0.0006
3733.00,0.0006
3732.00,0.0006
3731.00,0.0006
3730.00,0.0006
3729.00,0.0006
3728.00,0.0006
3727.00,0.0006
3726.00,0.0006
3725.00,0.0006
3724.00,0.0006
3723.00,0.0006
3722.00,0.0006
3721.00,0.0006
3720.00,0.0005
3719.00,0.0005
3718.00,0.0006
3717.00,0.0006
3716.00,0.0006
3715.00,0.0006
3714.00,0.0006
3713.00,0.0006
3712.00,0.0007
3711.00,0.0007
3710.00,0.0006
3709.00,0.0005
3708.00,0.0005
3707.00,0.0004
3706.00,0.0004
3705.00,0.0004
3704.00,0.0005
3703.00,0.0005
3702.00,0.0005
3701.00,0.0005
3700.00,0.0005
3699.00,0.0005
3698.00,0.0005
3697.00,0.0005
3696.00,0.0006
3695.00,0.0006
3694.00,0.0006
3693.00,0.0006
3692.00,0.0006
3691.00,0.0006
3690.00,0.0006
3689.00,0.0006
3688.00,0.0006
3687.00,0.0005
3686.00,0.0005
3685.00,0.0006
3684.00,0.0006
3683.00,0.0006
3682.00,0.0007
3681.00,0.0007
3680.00,0.0007
3679.00,0.0007
3678.00,0.0008
3677.00,0.0008
3676.00,0.0007
3675.00,0.0007
3674.00,0.0006
3673.00,0.0005
3672.00,0.0004
3671.00,0.0004
3670.00,0.0004
3669.00,0.0004
3668.00,0.0004
3667.00,0.0005
3666.00,0.0005
3665.00,0.0006
3664.00,0.0006
3663.00,0.0006
3662.00,0.0006
3661.00,0.0006
3660.00,0.0006
3659.00,0.0006
3658.00,0.0006
3657.00,0.0006
3656.00,0.0007
3655.00,0.0007
3654.00,0.0007
3653.00,0.0007
3652.00,0.0007
3651.00,0.0007
3650.00,0.0006
3649.00,0.0006
3648.00,0.0005
3647.00,0.0005
3646.00,0.0005
3645.00,0.0005
3644.00,0.0006
3643.00,0.0006
3642.00,0.0007
3641.00,0.0007
3640.00,0.0007
3639.00,0.0007
3638.00,0.0006
3637.00,0.0006
3636.00,0.0006
3635.00,0.0007
3634.00,0.0007
3633.00,0.0007
3632.00,0.0007
3631.00,0.0007
3630.00,0.0006
3629.00,0.0006
3628.00,0.0006
3627.00,0.0006
3626.00,0.0007
3625.00,0.0007
3624.00,0.0007
3623.00,0.0007
3622.00,0.0007
3621.00,0.0007
3620.00,0.0008
3619.00,0.0008
3618.00,0.0008
3617.00,0.0008
3616.00,0.0008
3615.00,0.0008
3614.00,0.0008
3613.00,0.0008
3612.00,0.0008
3611.00,0.0008
3610.00,0.0008
3609.00,0.0009
3608.00,0.0009
3607.00,0.0009
3606.00,0.0009
3605.00,0.0009
3604.00,0.0009
3603.00,0.0009
3602.00,0.0009
3601.00,0.0009
3600.00,0.0009
3599.00,0.0009
3598.00,0.0009
3597.00,0.0009
3596.00,0.0010
3595.00,0.0010
3594.00,0.0011
3593.00,0.0011
3592.00,0.0011
3591.00,0.0012
3590.00,0.0012
3589.00,0.0012
3588.00,0.0012
3587.00,0.0011
3586.00,0.0011
3585.00,0.0012
3584.00,0.0012
3583.00,0.0012
3582.00,0.0012
3581.00,0.0012
3580.00,0.0013
3579.00,0.0013
3578.00,0.0013
3577.00,0.0013
3576.00,0.0013
3575.00,0.0013
3574.00,0.0014
3573.00,0.0014
3572.00,0.0015
3571.00,0.0015
3570.00,0.0015
3569.00,0.0015
3568.00,0.0014
3567.00,0.0014
3566.00,0.0014
3565.00,0.0014
3564.00,0.0014
3563.00,0.0014
3562.00,0.0015
3561.00,0.0015
3560.00,0.0016
3559.00,0.0017
3558.00,0.0017
3557.00,0.0017
3556.00,0.0017
3555.00,0.0017
3554.00,0.0017
3553.00,0.0016
3552.00,0.0016
3551.00,0.0017
3550.00,0.0017
3549.00,0.0018
3548.00,0.0018
3547.00,0.0019
3546.00,0.0019
3545.00,0.0019
3544.00,0.0019
3543.00,0.0019
3542.00,0.0019
3541.00,0.0020
3540.00,0.0020
3539.00,0.0020
3538.00,0.0020
3537.00,0.0020
3536.00,0.0020
3535.00,0.0021
3534.00,0.0021
3533.00,0.0021
3532.00,0.0021
3531.00,0.0021
3530.00,0.0021
3529.00,0.0021
3528.00,0.0022
3527.00,0.0022
3526.00,0.0022
3525.00,0.0022
3524.00,0.0022
3523.00,0.0022
3522.00,0.0022
3521.00,0.0022
3520.00,0.0023
3519.00,0.0023
3518.00,0.0024
3517.00,0.0024
3516.00,0.0024
3515.00,0.0024
3514.00,0.0024
3513.00,0.0024
3512.00,0.0025
3511.00,0.0026
3510.00,0.0026
3509.00,0.0026
3508.00,0.0026
3507.00,0.0026
3506.00,0.0026
3505.00,0.0026
3504.00,0.0026
3503.00,0.0026
3502.00,0.0026
3501.00,0.0026
3500.00,0.0026
3499.00,0.0027
3498.00,0.0027
3497.00,0.0027
3496.00,0.0027
3495.00,0.0027
3494.00,0.0027
3493.00,0.0027
3492.00,0.0027
3491.00,0.0028
3490.00,0.0028
3489.00,0.0029
3488.00,0.0029
3487.00,0.0029
3486.00,0.0029
3485.00,0.0029
3484.00,0.0030
3483.00,0.0030
3482.00,0.0030
3481.00,0.0030
3480.00,0.0030
3479.00,0.0031
3478.00,0.0031
3477.00,0.0031
3476.00,0.0031
3475.00,0.0032
3474.00,0.0032
3473.00,0.0032
3472.00,0.0032
3471.00,0.0032
3470.00,0.0032
3469.00,0.0033
3468.00,0.0033
3467.00,0.0033
3466.00,0.0033
3465.00,0.0033
3464.00,0.0034
3463.00,0.0034
3462.00,0.0034
3461.00,0.0034
3460.00,0.0034
3459.00,0.0034
3458.00,0.0034
3457.00,0.0035
3456.00,0.0035
3455.00,0.0035
3454.00,0.0035
3453.00,0.0035
3452.00,0.0036
3451.00,0.0036
3450.00,0.0036
3449.00,0.0037
3448.00,0.0037
3447.00,0.0037
3446.00,0.0037
3445.00,0.0037
3444.00,0.0037
3443.00,0.0037
3442.00,0.0037
3441.00,0.0037
3440.00,0.0038
3439.00,0.0038
3438.00,0.0038
3437.00,0.0038
3436.00,0.0038
3435.00,0.0039
3434.00,0.0039
3433.00,0.0039
3432.00,0.0040
3431.00,0.0040
3430.00,0.0040
3429.00,0.0041
3428.00,0.0041
3427.00,0.0041
3426.00,0.0041
3425.00,0.0041
3424.00,0.0041
3423.00,0.0041
3422.00,0.0041
3421.00,0.0042
3420.00,0.0042
3419.00,0.0043
3418.00,0.0043
3417.00,0.0043
3416.00,0.0043
3415.00,0.0043
3414.00,0.0043
3413.00,0.0043
3412.00,0.0043
3411.00,0.0043
3410.00,0.0043
3409.00,0.0043
3408.00,0.0043
3407.00,0.0043
3406.00,0.0044
3405.00,0.0044
3404.00,0.0045
3403.00,0.0045
3402.00,0.0045
3401.00,0.0045
3400.00,0.0045
3399.00,0.0045
3398.00,0.0045
3397.00,0.0045
3396.00,0.0045
3395.00,0.0045
3394.00,0.0045
3393.00,0.0045
3392.00,0.0045
3391.00,0.0045
3390.00,0.0045
3389.00,0.0045
3388.00,0.0044
3387.00,0.0044
3386.00,0.0044
3385.00,0.0044
3384.00,0.0045
3383.00,0.0045
3382.00,0.0045
3381.00,0.0045
3380.00,0.0045
3379.00,0.0045
3378.00,0.0045
3377.00,0.0046
3376.00,0.0046
3375.00,0.0046
3374.00,0.0046
3373.00,0.0046
3372.00,0.0046
3371.00,0.0046
3370.00,0.0046
3369.00,0.0046
3368.00,0.0046
3367.00,0.0046
3366.00,0.0046
3365.00,0.0046
3364.00,0.0046
3363.00,0.0046
3362.00,0.0046
3361.00,0.0046
3360.00,0.0046
3359.00,0.0046
3358.00,0.0046
3357.00,0.0047
3356.00,0.0047
3355.00,0.0047
3354.00,0.0047
3353.00,0.0047
3352.00,0.0047
3351.00,0.0047
3350.00,0.0047
3349.00,0.0047
3348.00,0.0047
3347.00,0.0048
3346.00,0.0048
3345.00,0.0048
3344.00,0.0047
3343.00,0.0047
3342.00,0.0046
3341.00,0.0047
3340.00,0.0047
3339.00,0.0047
3338.00,0.0048
3337.00,0.0047
3336.00,0.0047
3335.00,0.0047
3334.00,0.0046
3333.00,0.0046
3332.00,0.0046
3331.00,0.0046
3330.00,0.0046
3329.00,0.0046
3328.00,0.0046
3327.00,0.0046
3326.00,0.0046
3325.00,0.0045
3324.00,0.0045
3323.00,0.0045
3322.00,0.0045
3321.00,0.0045
3320.00,0.0045
3319.00,0.0046
3318.00,0.0046
3317.00,0.0046
3316.00,0.0046
3315.00,0.0046
3314.00,0.0046
3313.00,0.0046
3312.00,0.0046
3311.00,0.0047
3310.00,0.0047
3309.00,0.0047
3308.00,0.0048
3307.00,0.0048
3306.00,0.0049
3305.00,0.0049
3304.00,0.0049
3303.00,0.0050
3302.00,0.0050
3301.00,0.0049
3300.00,0.0049
3299.00,0.0048
3298.00,0.0048
3297.00,0.0047
3296.00,0.0047
3295.00,0.0046
3294.00,0.0046
3293.00,0.0046
3292.00,0.0045
3291.00,0.0045
3290.00,0.0044
3289.00,0.0044
3288.00,0.0044
3287.00,0.0044
3286.00,0.0044
3285.00,0.0043
3284.00,0.0043
3283.00,0.0043
3282.00,0.0042
3281.00,0.0042
3280.00,0.0043
3279.00,0.0043
3278.00,0.0043
3277.00,0.0043
3276.00,0.0042
3275.00,0.0041
3274.00,0.0041
3273.00,0.0040
3272.00,0.0040
3271.00,0.0040
3270.00,0.0040
3269.00,0.0040
3268.00,0.0040
3267.00,0.0040
3266.00,0.0040
3265.00,0.0040
3264.00,0.0040
3263.00,0.0040
3262.00,0.0040
3261.00,0.0040
3260.00,0.0040
3259.00,0.0040
3258.00,0.0040
3257.00,0.0039
3256.00,0.0039
3255.00,0.0039
3254.00,0.0039
3253.00,0.0038
3252.00,0.0038
3251.00,0.0038
3250.00,0.0038
3249.00,0.0037
3248.00,0.0037
3247.00,0.0037
3246.00,0.0037
3245.00,0.0037
3244.00,0.0038
3243.00,0.0038
3242.00,0.0038
3241.00,0.0038
3240.00,0.0038
3239.00,0.0038
3238.00,0.0038
3237.00,0.0038
3236.00,0.0038
3235.00,0.0038
3234.00,0.0038
3233.00,0.0038
3232.00,0.0038
3231.00,0.0037
3230.00,0.0037
3229.00,0.0038
3228.00,0.0038
3227.00,0.0038
3226.00,0.0039
3225.00,0.0039
3224.00,0.0039
3223.00,0.0039
3222.00,0.0040
3221.00,0.0039
3220.00,0.0039
3219.00,0.0039
3218.00,0.0039
3217.00,0.0039
3216.00,0.0039
3215.00,0.0039
3214.00,0.0039
3213.00,0.0039
3212.00,0.0039
3211.00,0.0040
3210.00,0.0040
3209.00,0.0041
3208.00,0.0041
3207.00,0.0041
3206.00,0.0041
3205.00,0.0041
3204.00,0.0041
3203.00,0.0042
3202.00,0.0042
3201.00,0.0042
3200.00,0.0042
3199.00,0.0042
3198.00,0.0042
3197.00,0.0042
3196.00,0.0042
3195.00,0.0042
3194.00,0.0042
3193.00,0.0042
3192.00,0.0042
3191.00,0.0042
3190.00,0.0041
3189.00,0.0041
3188.00,0.0040
3187.00,0.0040
3186.00,0.0040
3185.00,0.0040
3184.00,0.0040
3183.00,0.0040
3182.00,0.0039
3181.00,0.0039
3180.00,0.0039
3179.00,0.0039
3178.00,0.0038
3177.00,0.0038
3176.00,0.0038
3175.00,0.0039
3174.00,0.0039
3173.00,0.0039
3172.00,0.0039
3171.00,0.0038
3170.00,0.0038
3169.00,0.0038
3168.00,0.0037
3167.00,0.0037
3166.00,0.0037
3165.00,0.0037
3164.00,0.0037
3163.00,0.0036
3162.00,0.0036
3161.00,0.0036
3160.00,0.0036
3159.00,0.0036
3158.00,0.0036
3157.00,0.0036
3156.00,0.0036
3155.00,0.0036
3154.00,0.0037
3153.00,0.0037
3152.00,0.0037
3151.00,0.0037
3150.00,0.0037
3149.00,0.0036
3148.00,0.0036
3147.00,0.0036
3146.00,0.0036
3145.00,0.0036
3144.00,0.0036
3143.00,0.0036
3142.00,0.0036
3141.00,0.0035
3140.00,0.0035
3139.00,0.0035
3138.00,0.0035
3137.00,0.0035
3136.00,0.0035
3135.00,0.0035
3134.00,0.0035
3133.00,0.0034
3132.00,0.0034
3131.00,0.0034
3130.00,0.0033
3129.00,0.0033
3128.00,0.0033
3127.00,0.0033
3126.00,0.0033
3125.00,0.0032
3124.00,0.0032
3123.00,0.0031
3122.00,0.0031
3121.00,0.0031
3120.00,0.0031
3119.00,0.0031
3118.00,0.0031
3117.00,0.0031
3116.00,0.0031
3115.00,0.0031
3114.00,0.0030
3113.00,0.0030
3112.00,0.0030
3111.00,0.0030
3110.00,0.0030
3109.00,0.0030
3108.00,0.0030
3107.00,0.0030
3106.00,0.0030
3105.00,0.0029
3104.00,0.0029
3103.00,0.0029
3102.00,0.0029
3101.00,0.0029
3100.00,0.0029
3099.00,0.0028
3098.00,0.0028
3097.00,0.0028
3096.00,0.0028
3095.00,0.0028
3094.00,0.0028
3093.00,0.0028
3092.00,0.0028
3091.00,0.0028
3090.00,0.0029
3089.00,0.0029
3088.00,0.0029
3087.00,0.0029
3086.00,0.0029
3085.00,0.0029
3084.00,0.0028
3083.00,0.0028
3082.00,0.0028
3081.00,0.0029
3080.00,0.0029
3079.00,0.0029
3078.00,0.0029
3077.00,0.0029
3076.00,0.0029
3075.00,0.0029
3074.00,0.0029
3073.00,0.0029
3072.00,0.0029
3071.00,0.0029
3070.00,0.0028
3069.00,0.0028
3068.00,0.0029
3067.00,0.0029
3066.00,0.0029
3065.00,0.0030
3064.00,0.0030
3063.00,0.0030
3062.00,0.0030
3061.00,0.0031
3060.00,0.0031
3059.00,0.0031
3058.00,0.0030
3057.00,0.0030
3056.00,0.0030
3055.00,0.0030
3054.00,0.0031
3053.00,0.0031
3052.00,0.0032
3051.00,0.0032
3050.00,0.0032
3049.00,0.0032
3048.00,0.0032
3047.00,0.0032
3046.00,0.0032
3045.00,0.0033
3044.00,0.0033
3043.00,0.0033
3042.00,0.0033
3041.00,0.0034
3040.00,0.0034
3039.00,0.0034
3038.00,0.0035
3037.00,0.0035
3036.00,0.0035
3035.00,0.0035
3034.00,0.0036
3033.00,0.0036
3032.00,0.0037
3031.00,0.0037
3030.00,0.0038
3029.00,0.0038
3028.00,0.0039
3027.00,0.0039
3026.00,0.0040
3025.00,0.0040
3024.00,0.0041
3023.00,0.0042
3022.00,0.0043
3021.00,0.0043
3020.00,0.0044
3019.00,0.0045
3018.00,0.0046
3017.00,0.0047
3016.00,0.0048
3015.00,0.0049
3014.00,0.0050
3013.00,0.0051
3012.00,0.0052
3011.00,0.0053
3010.00,0.0055
3009.00,0.0056
3008.00,0.0058
3007.00,0.0060
3006.00,0.0061
3005.00,0.0063
3004.00,0.0064
3003.00,0.0066
3002.00,0.0068
3001.00,0.0071
3000.00,0.0074
2999.00,0.0077
2998.00,0.0080
2997.00,0.0083
2996.00,0.0087
2995.00,0.0091
2994.00,0.0095
2993.00,0.0100
2992.00,0.0105
2991.00,0.0111
2990.00,0.0118
2989.00,0.0125
2988.00,0.0133
2987.00,0.0142
2986.00,0.0151
2985.00,0.0162
2984.00,0.0174
2983.00,0.0188
2982.00,0.0204
2981.00,0.0222
2980.00,0.0242
2979.00,0.0265
2978.00,0.0292
2977.00,0.0322
2976.00,0.0357
2975.00,0.0398
2974.00,0.0445
2973.00,0.0499
2972.00,0.0560
2971.00,0.0629
2970.00,0.0706
2969.00,0.0791
2968.00,0.0885
2967.00,0.0987
2966.00,0.1096
2965.00,0.1210
2964.00,0.1326
2963.00,0.1435
2962.00,0.1533
2961.00,0.1611
2960.00,0.1669
2959.00,0.1707
2958.00,0.1732
2957.00,0.1750
2956.00,0.1771
2955.00,0.1800
2954.00,0.1838
2953.00,0.1879
2952.00,0.1913
2951.00,0.1927
2950.00,0.1912
2949.00,0.1862
2948.00,0.1778
2947.00,0.1668
2946.00,0.1545
2945.00,0.1419
2944.00,0.1304
2943.00,0.1207
2942.00,0.1132
2941.00,0.1081
2940.00,0.1053
2939.00,0.1045
2938.00,0.1055
2937.00,0.1082
2936.00,0.1124
2935.00,0.1179
2934.00,0.1247
2933.00,0.1328
2932.00,0.1418
2931.00,0.1518
2930.00,0.1624
2929.00,0.1733
2928.00,0.1842
2927.00,0.1949
2926.00,0.2052
2925.00,0.2150
2924.00,0.2245
2923.00,0.2338
2922.00,0.2430
2921.00,0.2516
2920.00,0.2590
2919.00,0.2643
2918.00,0.2665
2917.00,0.2651
2916.00,0.2601
2915.00,0.2522
2914.00,0.2427
2913.00,0.2327
2912.00,0.2233
2911.00,0.2151
2910.00,0.2081
2909.00,0.2021
2908.00,0.1966
2907.00,0.1913
2906.00,0.1858
2905.00,0.1799
2904.00,0.1736
2903.00,0.1670
2902.00,0.1603
2901.00,0.1537
2900.00,0.1472
2899.00,0.1409
2898.00,0.1350
2897.00,0.1296
2896.00,0.1248
2895.00,0.1205
2894.00,0.1168
2893.00,0.1137
2892.00,0.1113
2891.00,0.1094
2890.00,0.1080
2889.00,0.1070
2888.00,0.1064
2887.00,0.1061
2886.00,0.1060
2885.00,0.1062
2884.00,0.1068
2883.00,0.1076
2882.00,0.1087
2881.00,0.1099
2880.00,0.1110
2879.00,0.1117
2878.00,0.1119
2877.00,0.1116
2876.00,0.1110
2875.00,0.1103
2874.00,0.1100
2873.00,0.1104
2872.00,0.1114
2871.00,0.1131
2870.00,0.1150
2869.00,0.1169
2868.00,0.1179
2867.00,0.1176
2866.00,0.1153
2865.00,0.1110
2864.00,0.1052
2863.00,0.0985
2862.00,0.0920
2861.00,0.0864
2860.00,0.0821
2859.00,0.0793
2858.00,0.0779
2857.00,0.0777
2856.00,0.0783
2855.00,0.0797
2854.00,0.0817
2853.00,0.0841
2852.00,0.0866
2851.00,0.0890
2850.00,0.0909
2849.00,0.0924
2848.00,0.0936
2847.00,0.0952
2846.00,0.0975
2845.00,0.1009
2844.00,0.1054
2843.00,0.1106
2842.00,0.1159
2841.00,0.1206
2840.00,0.1239
2839.00,0.1248
2838.00,0.1230
2837.00,0.1183
2836.00,0.1109
2835.00,0.1015
2834.00,0.0910
2833.00,0.0804
2832.00,0.0705
2831.00,0.0619
2830.00,0.0546
2829.00,0.0486
2828.00,0.0437
2827.00,0.0398
2826.00,0.0365
2825.00,0.0338
2824.00,0.0315
2823.00,0.0295
2822.00,0.0278
2821.00,0.0263
2820.00,0.0250
2819.00,0.0238
2818.00,0.0228
2817.00,0.0219
2816.00,0.0212
2815.00,0.0205
2814.00,0.0198
2813.00,0.0193
2812.00,0.0187
2811.00,0.0181
2810.00,0.0176
2809.00,0.0171
2808.00,0.0165
2807.00,0.0160
2806.00,0.0153
2805.00,0.0147
2804.00,0.0141
2803.00,0.0135
2802.00,0.0130
2801.00,0.0125
2800.00,0.0122
2799.00,0.0119
2798.00,0.0117
2797.00,0.0115
2796.00,0.0113
2795.00,0.0110
2794.00,0.0108
2793.00,0.0105
2792.00,0.0101
2791.00,0.0098
2790.00,0.0094
2789.00,0.0090
2788.00,0.0087
2787.00,0.0084
2786.00,0.0081
2785.00,0.0078
2784.00,0.0075
2783.00,0.0073
2782.00,0.0071
2781.00,0.0069
2780.00,0.0067
2779.00,0.0065
2778.00,0.0064
2777.00,0.0062
2776.00,0.0061
2775.00,0.0060
2774.00,0.0059
2773.00,0.0058
2772.00,0.0057
2771.00,0.0057
2770.00,0.0056
2769.00,0.0056
2768.00,0.0056
2767.00,0.0055
2766.00,0.0055
2765.00,0.0055
2764.00,0.0054
2763.00,0.0054
2762.00,0.0053
2761.00,0.0053
2760.00,0.0053
2759.00,0.0053
2758.00,0.0053
2757.00,0.0053
2756.00,0.0052
2755.00,0.0052
2754.00,0.0052
2753.00,0.0052
2752.00,0.0051
2751.00,0.0051
2750.00,0.0051
2749.00,0.0051
2748.00,0.0051
2747.00,0.0051
2746.00,0.0052
2745.00,0.0052
2744.00,0.0053
2743.00,0.0053
2742.00,0.0055
2741.00,0.0056
2740.00,0.0057
2739.00,0.0058
2738.00,0.0059
2737.00,0.0060
2736.00,0.0061
2735.00,0.0062
2734.00,0.0064
2733.00,0.0065
2732.00,0.0067
2731.00,0.0069
2730.00,0.0071
2729.00,0.0073
2728.00,0.0075
2727.00,0.0078
2726.00,0.0080
2725.00,0.0082
2724.00,0.0084
2723.00,0.0085
2722.00,0.0084
2721.00,0.0083
2720.00,0.0080
2719.00,0.0077
2718.00,0.0074
2717.00,0.0071
2716.00,0.0069
2715.00,0.0066
2714.00,0.0064
2713.00,0.0062
2712.00,0.0060
2711.00,0.0058
2710.00,0.0056
2709.00,0.0055
2708.00,0.0053
2707.00,0.0052
2706.00,0.0051
2705.00,0.0050
2704.00,0.0049
2703.00,0.0049
2702.00,0.0048
2701.00,0.0047
2700.00,0.0046
2699.00,0.0046
2698.00,0.0045
2697.00,0.0045
2696.00,0.0045
2695.00,0.0045
2694.00,0.0046
2693.00,0.0046
2692.00,0.0046
2691.00,0.0045
2690.00,0.0046
2689.00,0.0046
2688.00,0.0046
2687.00,0.0046
2686.00,0.0045
2685.00,0.0045
2684.00,0.0045
2683.00,0.0045
2682.00,0.0046
2681.00,0.0046
2680.00,0.0046
2679.00,0.0047
2678.00,0.0047
2677.00,0.0046
2676.00,0.0046
2675.00,0.0046
2674.00,0.0045
2673.00,0.0045
2672.00,0.0045
2671.00,0.0045
2670.00,0.0045
2669.00,0.0045
2668.00,0.0045
2667.00,0.0045
2666.00,0.0045
2665.00,0.0046
2664.00,0.0046
2663.00,0.0047
2662.00,0.0047
2661.00,0.0048
2660.00,0.0048
2659.00,0.0048
2658.00,0.0048
2657.00,0.0048
2656.00,0.0047
2655.00,0.0047
2654.00,0.0047
2653.00,0.0046
2652.00,0.0046
2651.00,0.0046
2650.00,0.0045
2649.00,0.0045
2648.00,0.0045
2647.00,0.0044
2646.00,0.0044
2645.00,0.0043
2644.00,0.0043
2643.00,0.0043
2642.00,0.0042
2641.00,0.0042
2640.00,0.0041
2639.00,0.0040
2638.00,0.0040
2637.00,0.0039
2636.00,0.0039
2635.00,0.0039
2634.00,0.0039
2633.00,0.0040
2632.00,0.0040
2631.00,0.0041
2630.00,0.0041
2629.00,0.0041
2628.00,0.0040
2627.00,0.0040
2626.00,0.0040
2625.00,0.0040
2624.00,0.0040
2623.00,0.0040
2622.00,0.0040
2621.00,0.0040
2620.00,0.0040
2619.00,0.0041
2618.00,0.0041
2617.00,0.0041
2616.00,0.0041
2615.00,0.0041
2614.00,0.0041
2613.00,0.0040
2612.00,0.0040
2611.00,0.0039
2610.00,0.0038
2609.00,0.0037
2608.00,0.0036
2607.00,0.0035
2606.00,0.0035
2605.00,0.0034
2604.00,0.0033
2603.00,0.0033
2602.00,0.0032
2601.00,0.0032
2600.00,0.0032
2599.00,0.0032
2598.00,0.0033
2597.00,0.0033
2596.00,0.0033
2595.00,0.0033
2594.00,0.0033
2593.00,0.0033
2592.00,0.0033
2591.00,0.0033
2590.00,0.0033
2589.00,0.0033
2588.00,0.0034
2587.00,0.0036
2586.00,0.0037
2585.00,0.0038
2584.00,0.0038
2583.00,0.0038
2582.00,0.0038
2581.00,0.0038
2580.00,0.0037
2579.00,0.0036
2578.00,0.0035
2577.00,0.0034
2576.00,0.0033
2575.00,0.0032
2574.00,0.0031
2573.00,0.0031
2572.00,0.0030
2571.00,0.0029
2570.00,0.0028
2569.00,0.0027
2568.00,0.0027
2567.00,0.0026
2566.00,0.0025
2565.00,0.0025
2564.00,0.0025
2563.00,0.0024
2562.00,0.0024
2561.00,0.0023
2560.00,0.0023
2559.00,0.0023
2558.00,0.0023
2557.00,0.0023
2556.00,0.0022
2555.00,0.0022
2554.00,0.0022
2553.00,0.0021
2552.00,0.0021
2551.00,0.0020
2550.00,0.0020
2549.00,0.0019
2548.00,0.0019
2547.00,0.0018
2546.00,0.0018
2545.00,0.0019
2544.00,0.0019
2543.00,0.0019
2542.00,0.0019
2541.00,0.0019
2540.00,0.0019
2539.00,0.0018
2538.00,0.0018
2537.00,0.0017
2536.00,0.0017
2535.00,0.0017
2534.00,0.0017
2533.00,0.0016
2532.00,0.0016
2531.00,0.0016
2530.00,0.0015
2529.00,0.0015
2528.00,0.0015
2527.00,0.0015
2526.00,0.0014
2525.00,0.0014
2524.00,0.0014
2523.00,0.0014
2522.00,0.0014
2521.00,0.0013
2520.00,0.0013
2519.00,0.0013
2518.00,0.0012
2517.00,0.0012
2516.00,0.0012
2515.00,0.0012
2514.00,0.0011
2513.00,0.0011
2512.00,0.0011
2511.00,0.0011
2510.00,0.0010
2509.00,0.0010
2508.00,0.0010
2507.00,0.0010
2506.00,0.0010
2505.00,0.0010
2504.00,0.0010
2503.00,0.0011
2502.00,0.0011
2501.00,0.0011
2500.00,0.0011
2499.00,0.0012
2498.00,0.0012
2497.00,0.0011
2496.00,0.0011
2495.00,0.0010
2494.00,0.0009
2493.00,0.0009
2492.00,0.0009
2491.00,0.0009
2490.00,0.0008
2489.00,0.0008
2488.00,0.0009
2487.00,0.0009
2486.00,0.0009
2485.00,0.0009
2484.00,0.0009
2483.00,0.0009
2482.00,0.0009
2481.00,0.0008
2480.00,0.0008
2479.00,0.0008
2478.00,0.0009
2477.00,0.0009
2476.00,0.0009
2475.00,0.0009
2474.00,0.0009
2473.00,0.0009
2472.00,0.0008
2471.00,0.0007
2470.00,0.0007
2469.00,0.0007
2468.00,0.0007
2467.00,0.0007
2466.00,0.0008
2465.00,0.0008
2464.00,0.0008
2463.00,0.0009
2462.00,0.0009
2461.00,0.0010
2460.00,0.0010
2459.00,0.0010
2458.00,0.0010
2457.00,0.0010
2456.00,0.0011
2455.00,0.0010
2454.00,0.0010
2453.00,0.0010
2452.00,0.0011
2451.00,0.0011
2450.00,0.0011
2449.00,0.0011
2448.00,0.0011
2447.00,0.0011
2446.00,0.0010
2445.00,0.0010
2444.00,0.0009
2443.00,0.0009
2442.00,0.0009
2441.00,0.0010
2440.00,0.0011
2439.00,0.0012
2438.00,0.0012
2437.00,0.0011
2436.00,0.0010
2435.00,0.0010
2434.00,0.0011
2433.00,0.0011
2432.00,0.0011
2431.00,0.0011
2430.00,0.0011
2429.00,0.0010
2428.00,0.0011
2427.00,0.0011
2426.00,0.0011
2425.00,0.0011
2424.00,0.0010
2423.00,0.0010
2422.00,0.0010
2421.00,0.0010
2420.00,0.0010
2419.00,0.0009
2418.00,0.0009
2417.00,0.0009
2416.00,0.0009
2415.00,0.0009
2414.00,0.0009
2413.00,0.0009
2412.00,0.0008
2411.00,0.0008
2410.00,0.0009
2409.00,0.0009
2408.00,0.0009
2407.00,0.0009
2406.00,0.0009
2405.00,0.0008
2404.00,0.0008
2403.00,0.0008
2402.00,0.0007
2401.00,0.0007
2400.00,0.0007
2399.00,0.0007
2398.00,0.0007
2397.00,0.0007
2396.00,0.0007
2395.00,0.0007
2394.00,0.0007
2393.00,0.0007
2392.00,0.0007
2391.00,0.0007
2390.00,0.0007
2389.00,0.0006
2388.00,0.0005
2387.00,0.0004
2386.00,0.0004
2385.00,0.0004
2384.00,0.0004
2383.00,0.0004
2382.00,0.0004
2381.00,0.0003
2380.00,0.0003
2379.00,0.0003
2378.00,0.0003
2377.00,0.0003
2376.00,0.0003
2375.00,0.0003
2374.00,0.0003
2373.00,0.0003
2372.00,0.0002
2371.00,0.0002
2370.00,0.0001
2369.00,0.0001
2368.00,0.0001
2367.00,0.0001
2366.00,0.0001
2365.00,0.0002
2364.00,0.0002
2363.00,0.0002
2362.00,0.0002
2361.00,0.0003
2360.00,0.0003
2359.00,0.0002
2358.00,0.0002
2357.00,0.0003
2356.00,0.0003
2355.00,0.0004
2354.00,0.0003
2353.00,0.0003
2352.00,0.0003
2351.00,0.0003
2350.00,0.0003
2349.00,0.0004
2348.00,0.0004
2347.00,0.0004
2346.00,0.0005
2345.00,0.0005
2344.00,0.0006
2343.00,0.0007
2342.00,0.0007
2341.00,0.0007
2340.00,0.0007
2339.00,0.0007
2338.00,0.0007
2337.00,0.0007
2336.00,0.0007
2335.00,0.0007
2334.00,0.0007
2333.00,0.0007
2332.00,0.0006
2331.00,0.0006
2330.00,0.0006
2329.00,0.0006
2328.00,0.0008
2327.00,0.0012
2326.00,0.0017
2325.00,0.0021
2324.00,0.0023
2323.00,0.0023
2322.00,0.0020
2321.00,0.0018
2320.00,0.0016
2319.00,0.0014
2318.00,0.0013
2317.00,0.0012
2316.00,0.0011
2315.00,0.0010
2314.00,0.0010
2313.00,0.0009
2312.00,0.0009
2311.00,0.0009
2310.00,0.0009
2309.00,0.0010
2308.00,0.0010
2307.00,0.0010
2306.00,0.0010
2305.00,0.0010
2304.00,0.0010
2303.00,0.0010
2302.00,0.0010
2301.00,0.0010
2300.00,0.0010
2299.00,0.0010
2298.00,0.0011
2297.00,0.0011
2296.00,0.0012
2295.00,0.0014
2294.00,0.0015
2293.00,0.0016
2292.00,0.0017
2291.00,0.0018
2290.00,0.0019
2289.00,0.0020
2288.00,0.0021
2287.00,0.0021
2286.00,0.0020
2285.00,0.0018
2284.00,0.0017
2283.00,0.0016
2282.00,0.0015
2281.00,0.0014
2280.00,0.0014
2279.00,0.0014
2278.00,0.0015
2277.00,0.0016
2276.00,0.0016
2275.00,0.0016
2274.00,0.0016
2273.00,0.0016
2272.00,0.0016
2271.00,0.0016
2270.00,0.0016
2269.00,0.0016
2268.00,0.0015
2267.00,0.0015
2266.00,0.0014
2265.00,0.0013
2264.00,0.0012
2263.00,0.0011
2262.00,0.0011
2261.00,0.0011
2260.00,0.0012
2259.00,0.0012
2258.00,0.0012
2257.00,0.0012
2256.00,0.0011
2255.00,0.0009
2254.00,0.0008
2253.00,0.0007
2252.00,0.0008
2251.00,0.0009
2250.00,0.0009
2249.00,0.0009
2248.00,0.0009
2247.00,0.0009
2246.00,0.0009
2245.00,0.0009
2244.00,0.0009
2243.00,0.0010
2242.00,0.0010
2241.00,0.0010
2240.00,0.0011
2239.00,0.0011
2238.00,0.0010
2237.00,0.0009
2236.00,0.0008
2235.00,0.0008
2234.00,0.0008
2233.00,0.0008
2232.00,0.0008
2231.00,0.0007
2230.00,0.0007
2229.00,0.0007
2228.00,0.0008
2227.00,0.0008
2226.00,0.0008
2225.00,0.0008
2224.00,0.0009
2223.00,0.0010
2222.00,0.0010
2221.00,0.0009
2220.00,0.0008
2219.00,0.0008
2218.00,0.0008
2217.00,0.0008
2216.00,0.0007
2215.00,0.0006
2214.00,0.0005
2213.00,0.0005
2212.00,0.0005
2211.00,0.0004
2210.00,0.0003
2209.00,0.0003
2208.00,0.0002
2207.00,0.0002
2206.00,0.0002
2205.00,0.0002
2204.00,0.0002
2203.00,0.0003
2202.00,0.0004
2201.00,0.0005
2200.00,0.0007
2199.00,0.0007
2198.00,0.0007
2197.00,0.0007
2196.00,0.0006
2195.00,0.0006
2194.00,0.0007
2193.00,0.0008
2192.00,0.0008
2191.00,0.0008
2190.00,0.0009
2189.00,0.0010
2188.00,0.0011
2187.00,0.0011
2186.00,0.0011
2185.00,0.0009
2184.00,0.0007
2183.00,0.0003
2182.00,0.0000
2181.00,-0.0000
2180.00,0.0000
2179.00,0.0001
2178.00,0.0002
2177.00,0.0003
2176.00,0.0004
2175.00,0.0005
2174.00,0.0008
2173.00,0.0010
2172.00,0.0012
2171.00,0.0013
2170.00,0.0014
2169.00,0.0017
2168.00,0.0019
2167.00,0.0020
2166.00,0.0019
2165.00,0.0017
2164.00,0.0016
2163.00,0.0016
2162.00,0.0015
2161.00,0.0011
2160.00,0.0002
2159.00,-0.0009
2158.00,-0.0019
2157.00,-0.0024
2156.00,-0.0024
2155.00,-0.0023
2154.00,-0.0023
2153.00,-0.0023
2152.00,-0.0022
2151.00,-0.0021
2150.00,-0.0019
2149.00,-0.0016
2148.00,-0.0015
2147.00,-0.0016
2146.00,-0.0017
2145.00,-0.0019
2144.00,-0.0019
2143.00,-0.0018
2142.00,-0.0015
2141.00,-0.0012
2140.00,-0.0010
2139.00,-0.0010
2138.00,-0.0011
2137.00,-0.0013
2136.00,-0.0017
2135.00,-0.0020
2134.00,-0.0022
2133.00,-0.0022
2132.00,-0.0019
2131.00,-0.0016
2130.00,-0.0014
2129.00,-0.0012
2128.00,-0.0011
2127.00,-0.0010
2126.00,-0.0010
2125.00,-0.0010
2124.00,-0.0009
2123.00,-0.0009
2122.00,-0.0008
2121.00,-0.0006
2120.00,-0.0005
2119.00,-0.0004
2118.00,-0.0002
2117.00,-0.0000
2116.00,0.0001
2115.00,0.0002
2114.00,0.0002
2113.00,0.0002
2112.00,0.0002
2111.00,0.0002
2110.00,0.0002
2109.00,0.0002
2108.00,0.0002
2107.00,0.0002
2106.00,0.0002
2105.00,0.0002
2104.00,0.0003
2103.00,0.0004
2102.00,0.0004
2101.00,0.0003
2100.00,0.0001
2099.00,-0.0001
2098.00,-0.0003
2097.00,-0.0004
2096.00,-0.0005
2095.00,-0.0006
2094.00,-0.0007
2093.00,-0.0006
2092.00,-0.0004
2091.00,-0.0002
2090.00,-0.0001
2089.00,-0.0001
2088.00,-0.0001
2087.00,0.0000
2086.00,0.0002
2085.00,0.0003
2084.00,0.0003
2083.00,0.0003
2082.00,0.0002
2081.00,0.0003
2080.00,0.0003
2079.00,0.0003
2078.00,0.0002
2077.00,0.0001
2076.00,0.0000
2075.00,0.0000
2074.00,-0.0000
2073.00,-0.0000
2072.00,0.0001
2071.00,0.0002
2070.00,0.0002
2069.00,0.0001
2068.00,0.0000
2067.00,-0.0001
2066.00,-0.0001
2065.00,-0.0001
2064.00,-0.0001
2063.00,0.0000
2062.00,0.0002
2061.00,0.0003
2060.00,0.0003
2059.00,0.0002
2058.00,0.0001
2057.00,0.0001
2056.00,0.0000
2055.00,-0.0001
2054.00,-0.0001
2053.00,0.0003
2052.00,0.0009
2051.00,0.0013
2050.00,0.0013
2049.00,0.0010
2048.00,0.0005
2047.00,0.0001
2046.00,-0.0002
2045.00,-0.0004
2044.00,-0.0005
2043.00,-0.0007
2042.00,-0.0007
2041.00,-0.0007
2040.00,-0.0005
2039.00,-0.0003
2038.00,-0.0002
2037.00,-0.0002
2036.00,-0.0003
2035.00,-0.0006
2034.00,-0.0009
2033.00,-0.0010
2032.00,-0.0010
2031.00,-0.0010
2030.00,-0.0012
2029.00,-0.0013
2028.00,-0.0013
2027.00,-0.0013
2026.00,-0.0012
2025.00,-0.0011
2024.00,-0.0011
2023.00,-0.0013
2022.00,-0.0015
2021.00,-0.0015
2020.00,-0.0014
2019.00,-0.0012
2018.00,-0.0010
2017.00,-0.0008
2016.00,-0.0006
2015.00,-0.0006
2014.00,-0.0006
2013.00,-0.0007
2012.00,-0.0008
2011.00,-0.0010
2010.00,-0.0011
2009.00,-0.0012
2008.00,-0.0012
2007.00,-0.0012
2006.00,-0.0013
2005.00,-0.0014
2004.00,-0.0014
2003.00,-0.0013
2002.00,-0.0011
2001.00,-0.0009
2000.00,-0.0008
1999.00,-0.0009
1998.00,-0.0012
1997.00,-0.0014
1996.00,-0.0017
1995.00,-0.0018
1994.00,-0.0020
1993.00,-0.0019
1992.00,-0.0017
1991.00,-0.0013
1990.00,-0.0009
1989.00,-0.0006
1988.00,-0.0004
1987.00,-0.0003
1986.00,-0.0001
1985.00,0.0001
1984.00,0.0004
1983.00,0.0008
1982.00,0.0011
1981.00,0.0014
1980.00,0.0015
1979.00,0.0010
1978.00,0.0003
1977.00,-0.0004
1976.00,-0.0009
1975.00,-0.0012
1974.00,-0.0015
1973.00,-0.0017
1972.00,-0.0019
1971.00,-0.0019
1970.00,-0.0020
1969.00,-0.0021
1968.00,-0.0023
1967.00,-0.0024
1966.00,-0.0024
1965.00,-0.0023
1964.00,-0.0022
1963.00,-0.0022
1962.00,-0.0023
1961.00,-0.0023
1960.00,-0.0023
1959.00,-0.0023
1958.00,-0.0022
1957.00,-0.0020
1956.00,-0.0018
1955.00,-0.0018
1954.00,-0.0018
1953.00,-0.0018
1952.00,-0.0018
1951.00,-0.0019
1950.00,-0.0019
1949.00,-0.0018
1948.00,-0.0017
1947.00,-0.0016
1946.00,-0.0017
1945.00,-0.0018
1944.00,-0.0019
1943.00,-0.0019
1942.00,-0.0018
1941.00,-0.0017
1940.00,-0.0015
1939.00,-0.0015
1938.00,-0.0015
1937.00,-0.0014
1936.00,-0.0013
1935.00,-0.0012
1934.00,-0.0011
1933.00,-0.0010
1932.00,-0.0010
1931.00,-0.0010
1930.00,-0.0011
1929.00,-0.0011
1928.00,-0.0011
1927.00,-0.0010
1926.00,-0.0009
1925.00,-0.0008
1924.00,-0.0007
1923.00,-0.0007
1922.00,-0.0006
1921.00,-0.0006
1920.00,-0.0006
1919.00,-0.0006
1918.00,-0.0006
1917.00,-0.0006
1916.00,-0.0006
1915.00,-0.0005
1914.00,-0.0004
1913.00,-0.0003
1912.00,-0.0003
1911.00,-0.0003
1910.00,-0.0004
1909.00,-0.0004
1908.00,-0.0005
1907.00,-0.0006
1906.00,-0.0006
1905.00,-0.0006
1904.00,-0.0006
1903.00,-0.0005
1902.00,-0.0004
1901.00,-0.0003
1900.00,-0.0003
1899.00,-0.0002
1898.00,-0.0002
1897.00,-0.0002
1896.00,-0.0002
1895.00,-0.0002
1894.00,-0.0001
1893.00,-0.0001
1892.00,-0.0000
1891.00,-0.0000
1890.00,-0.0000
1889.00,-0.0000
1888.00,-0.0000
1887.00,-0.0000
1886.00,-0.0001
1885.00,-0.0002
1884.00,-0.0003
1883.00,-0.0003
1882.00,-0.0003
1881.00,-0.0004
1880.00,-0.0003
1879.00,-0.0003
1878.00,-0.0003
1877.00,-0.0003
1876.00,-0.0003
1875.00,-0.0003
1874.00,-0.0003
1873.00,-0.0003
1872.00,-0.0002
1871.00,-0.0001
1870.00,-0.0001
1869.00,0.0000
1868.00,-0.0000
1867.00,-0.0001
1866.00,-0.0001
1865.00,-0.0001
1864.00,-0.0001
1863.00,-0.0001
1862.00,-0.0001
1861.00,-0.0001
1860.00,-0.0001
1859.00,-0.0001
1858.00,-0.0001
1857.00,-0.0001
1856.00,-0.0000
1855.00,-0.0000
1854.00,-0.0000
1853.00,-0.0000
1852.00,-0.0000
1851.00,-0.0000
1850.00,-0.0000
1849.00,-0.0000
1848.00,-0.0000
1847.00,-0.0001
1846.00,-0.0001
1845.00,-0.0001
1844.00,-0.0001
1843.00,0.0000
1842.00,0.0001
1841.00,0.0001
1840.00,0.0001
1839.00,0.0001
1838.00,0.0001
1837.00,0.0001
1836.00,0.0002
1835.00,0.0002
1834.00,0.0002
1833.00,0.0003
1832.00,0.0003
1831.00,0.0003
1830.00,0.0003
1829.00,0.0003
1828.00,0.0003
1827.00,0.0002
1826.00,0.0002
1825.00,0.0002
1824.00,0.0002
1823.00,0.0002
1822.00,0.0002
1821.00,0.0002
1820.00,0.0002
1819.00,0.0001
1818.00,0.0000
1817.00,-0.0001
1816.00,-0.0001
1815.00,0.0000
1814.00,0.0001
1813.00,0.0001
1812.00,0.0000
1811.00,0.0000
1810.00,0.0001
1809.00,0.0001
1808.00,0.0001
1807.00,0.0002
1806.00,0.0002
1805.00,0.0002
1804.00,0.0003
1803.00,0.0003
1802.00,0.0004
1801.00,0.0003
1800.00,0.0003
1799.00,0.0003
1798.00,0.0003
1797.00,0.0003
1796.00,0.0004
1795.00,0.0004
1794.00,0.0005
1793.00,0.0006
1792.00,0.0007
1791.00,0.0007
1790.00,0.0007
1789.00,0.0008
1788.00,0.0008
1787.00,0.0008
1786.00,0.0008
1785.00,0.0007
1784.00,0.0007
1783.00,0.0007
1782.00,0.0007
1781.00,0.0007
1780.00,0.0007
1779.00,0.0007
1778.00,0.0007
1777.00,0.0008
1776.00,0.0008
1775.00,0.0008
1774.00,0.0008
1773.00,0.0007
1772.00,0.0008
1771.00,0.0009
1770.00,0.0009
1769.00,0.0009
1768.00,0.0010
1767.00,0.0010
1766.00,0.0010
1765.00,0.0010
1764.00,0.0010
1763.00,0.0010
1762.00,0.0011
1761.00,0.0012
1760.00,0.0012
1759.00,0.0012
1758.00,0.0012
1757.00,0.0013
1756.00,0.0013
1755.00,0.0013
1754.00,0.0013
1753.00,0.0013
1752.00,0.0015
1751.00,0.0016
1750.00,0.0017
1749.00,0.0018
1748.00,0.0019
1747.00,0.0020
1746.00,0.0020
1745.00,0.0021
1744.00,0.0021
1743.00,0.0022
1742.00,0.0022
1741.00,0.0023
1740.00,0.0024
1739.00,0.0025
1738.00,0.0025
1737.00,0.0025
1736.00,0.0026
1735.00,0.0026
1734.00,0.0026
1733.00,0.0026
1732.00,0.0025
1731.00,0.0025
1730.00,0.0025
1729.00,0.0025
1728.00,0.0025
1727.00,0.0025
1726.00,0.0025
1725.00,0.0025
1724.00,0.0025
1723.00,0.0025
1722.00,0.0025
1721.00,0.0025
1720.00,0.0025
1719.00,0.0024
1718.00,0.0023
1717.00,0.0023
1716.00,0.0023
1715.00,0.0023
1714.00,0.0022
1713.00,0.0022
1712.00,0.0022
1711.00,0.0022
1710.00,0.0022
1709.00,0.0022
1708.00,0.0023
1707.00,0.0022
1706.00,0.0022
1705.00,0.0023
1704.00,0.0023
1703.00,0.0023
1702.00,0.0024
1701.00,0.0024
1700.00,0.0025
1699.00,0.0025
1698.00,0.0025
1697.00,0.0026
1696.00,0.0026
1695.00,0.0027
1694.00,0.0027
1693.00,0.0027
1692.00,0.0027
1691.00,0.0028
1690.00,0.0028
1689.00,0.0029
1688.00,0.0029
1687.00,0.0029
1686.00,0.0028
1685.00,0.0028
1684.00,0.0029
1683.00,0.0030
1682.00,0.0031
1681.00,0.0031
1680.00,0.0032
1679.00,0.0033
1678.00,0.0033
1677.00,0.0035
1676.00,0.0036
1675.00,0.0037
1674.00,0.0037
1673.00,0.0037
1672.00,0.0037
1671.00,0.0038
1670.00,0.0038
1669.00,0.0039
1668.00,0.0039
1667.00,0.0040
1666.00,0.0040
1665.00,0.0041
1664.00,0.0041
1663.00,0.0042
1662.00,0.0042
1661.00,0.0042
1660.00,0.0042
1659.00,0.0043
1658.00,0.0043
1657.00,0.0044
1656.00,0.0044
1655.00,0.0045
1654.00,0.0045
1653.00,0.0047
1652.00,0.0049
1651.00,0.0049
1650.00,0.0050
1649.00,0.0051
1648.00,0.0052
1647.00,0.0054
1646.00,0.0055
1645.00,0.0055
1644.00,0.0056
1643.00,0.0057
1642.00,0.0058
1641.00,0.0060
1640.00,0.0062
1639.00,0.0064
1638.00,0.0065
1637.00,0.0066
1636.00,0.0066
1635.00,0.0065
1634.00,0.0063
1633.00,0.0062
1632.00,0.0062
1631.00,0.0061
1630.00,0.0060
1629.00,0.0060
1628.00,0.0059
1627.00,0.0059
1626.00,0.0058
1625.00,0.0058
1624.00,0.0058
1623.00,0.0057
1622.00,0.0057
1621.00,0.0057
1620.00,0.0057
1619.00,0.0057
1618.00,0.0057
1617.00,0.0057
1616.00,0.0056
1615.00,0.0056
1614.00,0.0056
1613.00,0.0056
1612.00,0.0056
1611.00,0.0057
1610.00,0.0057
1609.00,0.0057
1608.00,0.0056
1607.00,0.0056
1606.00,0.0055
1605.00,0.0055
1604.00,0.0056
1603.00,0.0056
1602.00,0.0057
1601.00,0.0057
1600.00,0.0057
1599.00,0.0056
1598.00,0.0056
1597.00,0.0056
1596.00,0.0057
1595.00,0.0057
1594.00,0.0057
1593.00,0.0058
1592.00,0.0058
1591.00,0.0059
1590.00,0.0061
1589.00,0.0062
1588.00,0.0064
1587.00,0.0066
1586.00,0.0069
1585.00,0.0072
1584.00,0.0075
1583.00,0.0079
1582.00,0.0083
1581.00,0.0087
1580.00,0.0091
1579.00,0.0094
1578.00,0.0097
1577.00,0.0098
1576.00,0.0097
1575.00,0.0094
1574.00,0.0092
1573.00,0.0090
1572.00,0.0088
1571.00,0.0086
1570.00,0.0084
1569.00,0.0081
1568.00,0.0079
1567.00,0.0077
1566.00,0.0075
1565.00,0.0074
1564.00,0.0073
1563.00,0.0073
1562.00,0.0072
1561.00,0.0072
1560.00,0.0071
1559.00,0.0071
1558.00,0.0070
1557.00,0.0070
1556.00,0.0072
1555.00,0.0073
1554.00,0.0074
1553.00,0.0075
1552.00,0.0077
1551.00,0.0080
1550.00,0.0083
1549.00,0.0086
1548.00,0.0089
1547.00,0.0092
1546.00,0.0096
1545.00,0.0100
1544.00,0.0105
1543.00,0.0108
1542.00,0.0111
1541.00,0.0112
1540.00,0.0109
1539.00,0.0103
1538.00,0.0098
1537.00,0.0095
1536.00,0.0091
1535.00,0.0087
1534.00,0.0082
1533.00,0.0077
1532.00,0.0073
1531.00,0.0070
1530.00,0.0067
1529.00,0.0066
1528.00,0.0065
1527.00,0.0063
1526.00,0.0062
1525.00,0.0062
1524.00,0.0061
1523.00,0.0061
1522.00,0.0060
1521.00,0.0061
1520.00,0.0061
1519.00,0.0061
1518.00,0.0060
1517.00,0.0061
1516.00,0.0061
1515.00,0.0061
1514.00,0.0061
1513.00,0.0062
1512.00,0.0063
1511.00,0.0064
1510.00,0.0065
1509.00,0.0066
1508.00,0.0067
1507.00,0.0068
1506.00,0.0068
1505.00,0.0069
1504.00,0.0070
1503.00,0.0071
1502.00,0.0073
1501.00,0.0075
1500.00,0.0079
1499.00,0.0081
1498.00,0.0084
1497.00,0.0087
1496.00,0.0090
1495.00,0.0093
1494.00,0.0095
1493.00,0.0097
1492.00,0.0101
1491.00,0.0105
1490.00,0.0110
1489.00,0.0116
1488.00,0.0122
1487.00,0.0127
1486.00,0.0133
1485.00,0.0140
1484.00,0.0148
1483.00,0.0157
1482.00,0.0167
1481.00,0.0180
1480.00,0.0193
1479.00,0.0208
1478.00,0.0225
1477.00,0.0247
1476.00,0.0274
1475.00,0.0305
1474.00,0.0345
1473.00,0.0401
1472.00,0.0465
1471.00,0.0527
1470.00,0.0586
1469.00,0.0650
1468.00,0.0718
1467.00,0.0792
1466.00,0.0875
1465.00,0.0963
1464.00,0.1040
1463.00,0.1093
1462.00,0.1126
1461.00,0.1149
1460.00,0.1166
1459.00,0.1179
1458.00,0.1191
1457.00,0.1204
1456.00,0.1208
1455.00,0.1204
1454.00,0.1196
1453.00,0.1183
1452.00,0.1162
1451.00,0.1131
1450.00,0.1085
1449.00,0.1019
1448.00,0.0932
1447.00,0.0836
1446.00,0.0748
1445.00,0.0670
1444.00,0.0603
1443.00,0.0547
1442.00,0.0504
1441.00,0.0474
1440.00,0.0454
1439.00,0.0444
1438.00,0.0441
1437.00,0.0438
1436.00,0.0426
1435.00,0.0402
1434.00,0.0368
1433.00,0.0328
1432.00,0.0285
1431.00,0.0247
1430.00,0.0218
1429.00,0.0196
1428.00,0.0181
1427.00,0.0172
1426.00,0.0165
1425.00,0.0159
1424.00,0.0154
1423.00,0.0151
1422.00,0.0149
1421.00,0.0147
1420.00,0.0143
1419.00,0.0140
1418.00,0.0137
1417.00,0.0133
1416.00,0.0130
1415.00,0.0128
1414.00,0.0127
1413.00,0.0126
1412.00,0.0124
1411.00,0.0122
1410.00,0.0122
1409.00,0.0120
1408.00,0.0119
1407.00,0.0119
1406.00,0.0119
1405.00,0.0118
1404.00,0.0117
1403.00,0.0117
1402.00,0.0118
1401.00,0.0118
1400.00,0.0119
1399.00,0.0120
1398.00,0.0122
1397.00,0.0123
1396.00,0.0125
1395.00,0.0129
1394.00,0.0134
1393.00,0.0138
1392.00,0.0143
1391.00,0.0150
1390.00,0.0160
1389.00,0.0173
1388.00,0.0192
1387.00,0.0222
1386.00,0.0263
1385.00,0.0317
1384.00,0.0392
1383.00,0.0495
1382.00,0.0632
1381.00,0.0806
1380.00,0.1019
1379.00,0.1259
1378.00,0.1491
1377.00,0.1660
1376.00,0.1715
1375.00,0.1629
1374.00,0.1428
1373.00,0.1186
1372.00,0.0963
1371.00,0.0779
1370.00,0.0631
1369.00,0.0519
1368.00,0.0441
1367.00,0.0392
1366.00,0.0365
1365.00,0.0354
1364.00,0.0355
1363.00,0.0367
1362.00,0.0385
1361.00,0.0406
1360.00,0.0421
1359.00,0.0426
1358.00,0.0416
1357.00,0.0393
1356.00,0.0360
1355.00,0.0323
1354.00,0.0288
1353.00,0.0258
1352.00,0.0234
1351.00,0.0214
1350.00,0.0197
1349.00,0.0183
1348.00,0.0172
1347.00,0.0161
1346.00,0.0152
1345.00,0.0145
1344.00,0.0139
1343.00,0.0134
1342.00,0.0130
1341.00,0.0126
1340.00,0.0124
1339.00,0.0122
1338.00,0.0121
1337.00,0.0120
1336.00,0.0121
1335.00,0.0123
1334.00,0.0126
1333.00,0.0129
1332.00,0.0132
1331.00,0.0135
1330.00,0.0136
1329.00,0.0135
1328.00,0.0133
1327.00,0.0129
1326.00,0.0124
1325.00,0.0119
1324.00,0.0114
1323.00,0.0109
1322.00,0.0105
1321.00,0.0103
1320.00,0.0101
1319.00,0.0099
1318.00,0.0097
1317.00,0.0095
1316.00,0.0094
1315.00,0.0093
1314.00,0.0093
1313.00,0.0094
1312.00,0.0096
1311.00,0.0099
1310.00,0.0103
1309.00,0.0111
1308.00,0.0122
1307.00,0.0136
1306.00,0.0150
1305.00,0.0159
1304.00,0.0161
1303.00,0.0156
1302.00,0.0148
1301.00,0.0141
1300.00,0.0135
1299.00,0.0132
1298.00,0.0130
1297.00,0.0129
1296.00,0.0128
1295.00,0.0125
1294.00,0.0122
1293.00,0.0118
1292.00,0.0113
1291.00,0.0109
1290.00,0.0105
1289.00,0.0101
1288.00,0.0098
1287.00,0.0095
1286.00,0.0093
1285.00,0.0091
1284.00,0.0089
1283.00,0.0087
1282.00,0.0085
1281.00,0.0084
1280.00,0.0084
1279.00,0.0084
1278.00,0.0084
1277.00,0.0084
1276.00,0.0084
1275.00,0.0084
1274.00,0.0083
1273.00,0.0083
1272.00,0.0083
1271.00,0.0084
1270.00,0.0086
1269.00,0.0088
1268.00,0.0090
1267.00,0.0093
1266.00,0.0096
1265.00,0.0100
1264.00,0.0103
1263.00,0.0106
1262.00,0.0111
1261.00,0.0116
1260.00,0.0123
1259.00,0.0131
1258.00,0.0140
1257.00,0.0147
1256.00,0.0150
1255.00,0.0148
1254.00,0.0140
1253.00,0.0129
1252.00,0.0119
1251.00,0.0110
1250.00,0.0104
1249.00,0.0099
1248.00,0.0096
1247.00,0.0093
1246.00,0.0091
1245.00,0.0089
1244.00,0.0087
1243.00,0.0085
1242.00,0.0085
1241.00,0.0084
1240.00,0.0084
1239.00,0.0083
1238.00,0.0083
1237.00,0.0083
1236.00,0.0083
1235.00,0.0083
1234.00,0.0083
1233.00,0.0084
1232.00,0.0084
1231.00,0.0085
1230.00,0.0085
1229.00,0.0086
1228.00,0.0087
1227.00,0.0088
1226.00,0.0091
1225.00,0.0093
1224.00,0.0096
1223.00,0.0100
1222.00,0.0103
1221.00,0.0105
1220.00,0.0107
1219.00,0.0107
1218.00,0.0106
1217.00,0.0104
1216.00,0.0102
1215.00,0.0100
1214.00,0.0097
1213.00,0.0095
1212.00,0.0093
1211.00,0.0092
1210.00,0.0090
1209.00,0.0089
1208.00,0.0088
1207.00,0.0087
1206.00,0.0086
1205.00,0.0085
1204.00,0.0085
1203.00,0.0086
1202.00,0.0086
1201.00,0.0086
1200.00,0.0086
1199.00,0.0086
1198.00,0.0087
1197.00,0.0088
1196.00,0.0089
1195.00,0.0089
1194.00,0.0089
1193.00,0.0089
1192.00,0.0089
1191.00,0.0090
1190.00,0.0090
1189.00,0.0090
1188.00,0.0090
1187.00,0.0090
1186.00,0.0091
1185.00,0.0092
1184.00,0.0093
1183.00,0.0095
1182.00,0.0098
1181.00,0.0101
1180.00,0.0105
1179.00,0.0111
1178.00,0.0118
1177.00,0.0127
1176.00,0.0140
1175.00,0.0156
1174.00,0.0179
1173.00,0.0208
1172.00,0.0244
1171.00,0.0285
1170.00,0.0325
1169.00,0.0359
1168.00,0.0379
1167.00,0.0384
1166.00,0.0374
1165.00,0.0353
1164.00,0.0327
1163.00,0.0302
1162.00,0.0280
1161.00,0.0263
1160.00,0.0249
1159.00,0.0239
1158.00,0.0231
1157.00,0.0224
1156.00,0.0219
1155.00,0.0215
1154.00,0.0211
1153.00,0.0207
1152.00,0.0201
1151.00,0.0194
1150.00,0.0185
1149.00,0.0175
1148.00,0.0165
1147.00,0.0157
1146.00,0.0149
1145.00,0.0142
1144.00,0.0135
1143.00,0.0128
1142.00,0.0121
1141.00,0.0115
1140.00,0.0110
1139.00,0.0107
1138.00,0.0104
1137.00,0.0102
1136.00,0.0100
1135.00,0.0098
1134.00,0.0095
1133.00,0.0093
1132.00,0.0091
1131.00,0.0091
1130.00,0.0090
1129.00,0.0091
1128.00,0.0091
1127.00,0.0092
1126.00,0.0092
1125.00,0.0092
1124.00,0.0092
1123.00,0.0092
1122.00,0.0093
1121.00,0.0093
1120.00,0.0093
1119.00,0.0094
1118.00,0.0095
1117.00,0.0096
1116.00,0.0097
1115.00,0.0098
1114.00,0.0100
1113.00,0.0102
1112.00,0.0104
1111.00,0.0107
1110.00,0.0110
1109.00,0.0113
1108.00,0.0117
1107.00,0.0122
1106.00,0.0127
1105.00,0.0131
1104.00,0.0135
1103.00,0.0138
1102.00,0.0138
1101.00,0.0134
1100.00,0.0129
1099.00,0.0123
1098.00,0.0117
1097.00,0.0112
1096.00,0.0108
1095.00,0.0105
1094.00,0.0103
1093.00,0.0102
1092.00,0.0101
1091.00,0.0099
1090.00,0.0096
1089.00,0.0094
1088.00,0.0092
1087.00,0.0091
1086.00,0.0091
1085.00,0.0091
1084.00,0.0092
1083.00,0.0091
1082.00,0.0091
1081.00,0.0090
1080.00,0.0089
1079.00,0.0088
1078.00,0.0087
1077.00,0.0086
1076.00,0.0086
1075.00,0.0087
1074.00,0.0087
1073.00,0.0087
1072.00,0.0087
1071.00,0.0087
1070.00,0.0087
1069.00,0.0086
1068.00,0.0086
1067.00,0.0087
1066.00,0.0088
1065.00,0.0089
1064.00,0.0089
1063.00,0.0089
1062.00,0.0090
1061.00,0.0090
1060.00,0.0091
1059.00,0.0092
1058.00,0.0094
1057.00,0.0097
1056.00,0.0099
1055.00,0.0101
1054.00,0.0104
1053.00,0.0107
1052.00,0.0110
1051.00,0.0114
1050.00,0.0118
1049.00,0.0123
1048.00,0.0128
1047.00,0.0134
1046.00,0.0139
1045.00,0.0142
1044.00,0.0143
1043.00,0.0142
1042.00,0.0139
1041.00,0.0136
1040.00,0.0134
1039.00,0.0133
1038.00,0.0132
1037.00,0.0131
1036.00,0.0130
1035.00,0.0127
1034.00,0.0125
1033.00,0.0123
1032.00,0.0122
1031.00,0.0121
1030.00,0.0120
1029.00,0.0120
1028.00,0.0121
1027.00,0.0122
1026.00,0.0123
1025.00,0.0126
1024.00,0.0129
1023.00,0.0131
1022.00,0.0133
1021.00,0.0135
1020.00,0.0136
1019.00,0.0138
1018.00,0.0140
1017.00,0.0142
1016.00,0.0143
1015.00,0.0144
1014.00,0.0145
1013.00,0.0146
1012.00,0.0147
1011.00,0.0147
1010.00,0.0148
1009.00,0.0148
1008.00,0.0150
1007.00,0.0155
1006.00,0.0164
1005.00,0.0177
1004.00,0.0198
1003.00,0.0226
1002.00,0.0265
1001.00,0.0312
1000.00,0.0364
999.00,0.0409
998.00,0.0433
997.00,0.0427
996.00,0.0394
995.00,0.0344
994.00,0.0291
993.00,0.0244
992.00,0.0208
991.00,0.0181
990.00,0.0163
989.00,0.0150
988.00,0.0142
987.00,0.0137
986.00,0.0135
985.00,0.0136
984.00,0.0139
983.00,0.0146
982.00,0.0156
981.00,0.0172
980.00,0.0195
979.00,0.0226
978.00,0.0266
977.00,0.0314
976.00,0.0368
975.00,0.0423
974.00,0.0467
973.00,0.0489
972.00,0.0478
971.00,0.0436
970.00,0.0374
969.00,0.0308
968.00,0.0251
967.00,0.0207
966.00,0.0175
965.00,0.0153
964.00,0.0137
963.00,0.0126
962.00,0.0118
961.00,0.0112
960.00,0.0107
959.00,0.0103
958.00,0.0099
957.00,0.0095
956.00,0.0091
955.00,0.0089
954.00,0.0087
953.00,0.0085
952.00,0.0084
951.00,0.0082
950.00,0.0081
949.00,0.0080
948.00,0.0081
947.00,0.0082
946.00,0.0084
945.00,0.0086
944.00,0.0089
943.00,0.0091
942.00,0.0093
941.00,0.0095
940.00,0.0095
939.00,0.0094
938.00,0.0090
937.00,0.0085
936.00,0.0079
935.00,0.0074
934.00,0.0071
933.00,0.0069
932.00,0.0068
931.00,0.0068
930.00,0.0068
929.00,0.0067
928.00,0.0067
927.00,0.0066
926.00,0.0067
925.00,0.0067
924.00,0.0067
923.00,0.0066
922.00,0.0065
921.00,0.0064
920.00,0.0063
919.00,0.0062
918.00,0.0062
917.00,0.0063
916.00,0.0064
915.00,0.0065
914.00,0.0066
913.00,0.0068
912.00,0.0070
911.00,0.0071
910.00,0.0073
909.00,0.0074
908.00,0.0076
907.00,0.0080
906.00,0.0085
905.00,0.0094
904.00,0.0107
903.00,0.0123
902.00,0.0141
901.00,0.0156
900.00,0.0166
899.00,0.0167
898.00,0.0160
897.00,0.0146
896.00,0.0129
895.00,0.0114
894.00,0.0102
893.00,0.0094
892.00,0.0088
891.00,0.0084
890.00,0.0082
889.00,0.0079
888.00,0.0077
887.00,0.0075
886.00,0.0074
885.00,0.0073
884.00,0.0072
883.00,0.0073
882.00,0.0074
881.00,0.0076
880.00,0.0078
879.00,0.0080
878.00,0.0081
877.00,0.0081
876.00,0.0080
875.00,0.0080
874.00,0.0081
873.00,0.0081
872.00,0.0081
871.00,0.0081
870.00,0.0080
869.00,0.0080
868.00,0.0081
867.00,0.0082
866.00,0.0082
865.00,0.0083
864.00,0.0083
863.00,0.0083
862.00,0.0084
861.00,0.0085
860.00,0.0087
859.00,0.0089
858.00,0.0090
857.00,0.0092
856.00,0.0094
855.00,0.0095
854.00,0.0097
853.00,0.0100
852.00,0.0103
851.00,0.0108
850.00,0.0114
849.00,0.0122
848.00,0.0132
847.00,0.0148
846.00,0.0173
845.00,0.0211
844.00,0.0267
843.00,0.0337
842.00,0.0399
841.00,0.0429
840.00,0.0409
839.00,0.0350
838.00,0.0280
837.00,0.0220
836.00,0.0179
835.00,0.0155
834.00,0.0140
833.00,0.0131
832.00,0.0124
831.00,0.0119
830.00,0.0116
829.00,0.0114
828.00,0.0112
827.00,0.0111
826.00,0.0110
825.00,0.0109
824.00,0.0107
823.00,0.0106
822.00,0.0106
821.00,0.0108
820.00,0.0111
819.00,0.0113
818.00,0.0116
817.00,0.0120
816.00,0.0126
815.00,0.0135
814.00,0.0147
813.00,0.0163
812.00,0.0180
811.00,0.0197
810.00,0.0209
809.00,0.0214
808.00,0.0209
807.00,0.0198
806.00,0.0183
805.00,0.0168
804.00,0.0156
803.00,0.0145
802.00,0.0136
801.00,0.0129
800.00,0.0123
799.00,0.0117
798.00,0.0113
797.00,0.0109
796.00,0.0105
795.00,0.0101
794.00,0.0096
793.00,0.0093
792.00,0.0090
791.00,0.0088
790.00,0.0086
789.00,0.0083
788.00,0.0080
787.00,0.0077
786.00,0.0074
785.00,0.0072
784.00,0.0072
783.00,0.0072
782.00,0.0073
781.00,0.0072
780.00,0.0070
779.00,0.0067
778.00,0.0065
777.00,0.0064
776.00,0.0065
775.00,0.0066
774.00,0.0068
773.00,0.0068
772.00,0.0068
771.00,0.0067
770.00,0.0065
769.00,0.0065
768.00,0.0066
767.00,0.0067
766.00,0.0069
765.00,0.0070
764.00,0.0070
763.00,0.0071
762.00,0.0071
761.00,0.0072
760.00,0.0073
759.00,0.0071
758.00,0.0069
757.00,0.0069
756.00,0.0070
755.00,0.0073
754.00,0.0076
753.00,0.0079
752.00,0.0080
751.00,0.0081
750.00,0.0082
749.00,0.0084
748.00,0.0086
747.00,0.0087
746.00,0.0087
745.00,0.0088
744.00,0.0088
743.00,0.0089
742.00,0.0091
741.00,0.0095
740.00,0.0099
739.00,0.0105
738.00,0.0110
737.00,0.0114
736.00,0.0118
735.00,0.0121
734.00,0.0125
733.00,0.0130
732.00,0.0138
731.00,0.0146
730.00,0.0153
729.00,0.0157
728.00,0.0159
727.00,0.0160
726.00,0.0162
725.00,0.0166
724.00,0.0171
723.00,0.0177
722.00,0.0183
721.00,0.0185
720.00,0.0183
719.00,0.0175
718.00,0.0163
717.00,0.0151
716.00,0.0140
715.00,0.0133
714.00,0.0127
713.00,0.0122
712.00,0.0118
711.00,0.0114
710.00,0.0111
709.00,0.0109
708.00,0.0108
707.00,0.0108
706.00,0.0108
705.00,0.0108
704.00,0.0106
703.00,0.0103
702.00,0.0100
701.00,0.0098
700.00,0.0097
699.00,0.0099
698.00,0.0099
697.00,0.0099
696.00,0.0099
695.00,0.0098
694.00,0.0097
693.00,0.0098
692.00,0.0099
691.00,0.0100
690.00,0.0101
689.00,0.0101
688.00,0.0100
687.00,0.0101
686.00,0.0101
685.00,0.0101
684.00,0.0099
683.00,0.0097
682.00,0.0097
681.00,0.0097
680.00,0.0098
679.00,0.0099
678.00,0.0099
677.00,0.0101
676.00,0.0104
675.00,0.0106
674.00,0.0106
673.00,0.0107
672.00,0.0108
671.00,0.0110
670.00,0.0112
669.00,0.0112
668.00,0.0110
667.00,0.0105
666.00,0.0101
665.00,0.0098
664.00,0.0096
663.00,0.0096
662.00,0.0096
661.00,0.0096
660.00,0.0096
659.00,0.0095
658.00,0.0093
657.00,0.0091
656.00,0.0088
655.00,0.0086
654.00,0.0085
653.00,0.0085
652.00,0.0086
651.00,0.0086
650.00,0.0087
649.00,0.0088
648.00,0.0088
647.00,0.0088
646.00,0.0087
645.00,0.0084
644.00,0.0082
643.00,0.0080
642.00,0.0079
641.00,0.0080
640.00,0.0081
639.00,0.0083
638.00,0.0086
637.00,0.0088
636.00,0.0091
635.00,0.0091
634.00,0.0091
633.00,0.0090
632.00,0.0090
631.00,0.0091
630.00,0.0091
629.00,0.0092
628.00,0.0091
627.00,0.0091
626.00,0.0090
625.00,0.0089
624.00,0.0089
623.00,0.0088
622.00,0.0086
621.00,0.0085
620.00,0.0085
619.00,0.0086
618.00,0.0089
617.00,0.0092
616.00,0.0094
615.00,0.0095
614.00,0.0096
613.00,0.0095
612.00,0.0094
611.00,0.0091
610.00,0.0088
609.00,0.0086
608.00,0.0084
607.00,0.0083
606.00,0.0082
605.00,0.0082
604.00,0.0084
603.00,0.0086
602.00,0.0088
601.00,0.0088
600.00,0.0087
599.00,0.0086
598.00,0.0085
597.00,0.0085
596.00,0.0087
595.00,0.0091
594.00,0.0095
593.00,0.0097
592.00,0.0096
591.00,0.0093
590.00,0.0090
589.00,0.0089
588.00,0.0089
587.00,0.0091
586.00,0.0092
585.00,0.0092
584.00,0.0091
583.00,0.0092
582.00,0.0093
581.00,0.0095
580.00,0.0098
579.00,0.0100
578.00,0.0102
577.00,0.0102
576.00,0.0100
575.00,0.0098
574.00,0.0097
573.00,0.0097
572.00,0.0094
571.00,0.0091
570.00,0.0089
569.00,0.0091
568.00,0.0095
567.00,0.0099
566.00,0.0101
565.00,0.0102
564.00,0.0102
563.00,0.0101
562.00,0.0102
561.00,0.0103
560.00,0.0103
559.00,0.0101
558.00,0.0098
557.00,0.0097
556.00,0.0097
555.00,0.0098
554.00,0.0098
553.00,0.0096
552.00,0.0093
551.00,0.0094
550.00,0.0097
549.00,0.0102
548.00,0.0106
547.00,0.0107
546.00,0.0108
545.00,0.0108
544.00,0.0106
543.00,0.0105
542.00,0.0106
541.00,0.0108
540.00,0.0110
539.00,0.0110
538.00,0.0109
537.00,0.0110
536.00,0.0111
535.00,0.0113
534.00,0.0114
533.00,0.0114
532.00,0.0115
531.00,0.0118
530.00,0.0120
529.00,0.0121
528.00,0.0120
527.00,0.0115
526.00,0.0110
525.00,0.0105
524.00,0.0101
523.00,0.0095
522.00,0.0090
521.00,0.0089
520.00,0.0091
519.00,0.0094
518.00,0.0095
517.00,0.0095
516.00,0.0097
515.00,0.0100
514.00,0.0104
513.00,0.0104
512.00,0.0100
511.00,0.0093
510.00,0.0089
509.00,0.0088
508.00,0.0091
507.00,0.0094
506.00,0.0097
505.00,0.0099
504.00,0.0102
503.00,0.0104
502.00,0.0106
501.00,0.0106
500.00,0.0104
499.00,0.0101
498.00,0.0098
497.00,0.0097
496.00,0.0097
495.00,0.0095
494.00,0.0092
493.00,0.0088
492.00,0.0086
491.00,0.0085
490.00,0.0086
489.00,0.0088
488.00,0.0091
487.00,0.0094
486.00,0.0096
485.00,0.0099
484.00,0.0106
483.00,0.0115
482.00,0.0122
481.00,0.0122
480.00,0.0114
479.00,0.0105
478.00,0.0101
477.00,0.0104
476.00,0.0113
475.00,0.0121
474.00,0.0127
473.00,0.0131
472.00,0.0136
471.00,0.0139
470.00,0.0138
469.00,0.0137
468.00,0.0139
467.00,0.0147
466.00,0.0161
465.00,0.0177
464.00,0.0194
463.00,0.0210
462.00,0.0225
461.00,0.0238
460.00,0.0246
459.00,0.0244
458.00,0.0231
457.00,0.0209
456.00,0.0189
455.00,0.0181
454.00,0.0185
453.00,0.0196
452.00,0.0204
451.00,0.0199
450.00,0.0182
