Created as New Dataset,Sample 005 By Administrator Date Wednesday, September 03 2025
cm-1,A
4000.00,0.0010
3999.00,0.0010
3998.00,0.0010
3997.00,0.0010
3996.00,0.0010
3995.00,0.0010
3994.00,0.0010
3993.00,0.0010
3992.00,0.0010
3991.00,0.0010
3990.00,0.0010
3989.00,0.0010
3988.00,0.0010
3987.00,0.0010
3986.00,0.0010
3985.00,0.0009
3984.00,0.0009
3983.00,0.0009
3982.00,0.0009
3981.00,0.0009
3980.00,0.0009
3979.00,0.0009
3978.00,0.0009
3977.00,0.0009
3976.00,0.0009
3975.00,0.0010
3974.00,0.0010
3973.00,0.0010
3972.00,0.0009
3971.00,0.0009
3970.00,0.0009
3969.00,0.0009
3968.00,0.0009
3967.00,0.0009
3966.00,0.0009
3965.00,0.0009
3964.00,0.0009
3963.00,0.0009
3962.00,0.0009
3961.00,0.0009
3960.00,0.0009
3959.00,0.0009
3958.00,0.0009
3957.00,0.0009
3956.00,0.0009
3955.00,0.0009
3954.00,0.0009
3953.00,0.0010
3952.00,0.0010
3951.00,0.0010
3950.00,0.0010
3949.00,0.0009
3948.00,0.0009
3947.00,0.0009
3946.00,0.0009
3945.00,0.0009
3944.00,0.0009
3943.00,0.0009
3942.00,0.0009
3941.00,0.0008
3940.00,0.0008
3939.00,0.0009
3938.00,0.0009
3937.00,0.0009
3936.00,0.0010
3935.00,0.0009
3934.00,0.0009
3933.00,0.0009
3932.00,0.0009
3931.00,0.0009
3930.00,0.0009
3929.00,0.0010
3928.00,0.0010
3927.00,0.0010
3926.00,0.0010
3925.00,0.0010
3924.00,0.0010
3923.00,0.0009
3922.00,0.0009
3921.00,0.0009
3920.00,0.0008
3919.00,0.0008
3918.00,0.0008
3917.00,0.0008
3916.00,0.0009
3915.00,0.0009
3914.00,0.0009
3913.00,0.0008
3912.00,0.0008
3911.00,0.0008
3910.00,0.0008
3909.00,0.0008
3908.00,0.0008
3907.00,0.0009
3906.00,0.0009
3905.00,0.0009
3904.00,0.0008
3903.00,0.0007
3902.00,0.0007
3901.00,0.0007
3900.00,0.0007
3899.00,0.0007
3898.00,0.0007
3897.00,0.0008
3896.00,0.0008
3895.00,0.0008
3894.00,0.0008
3893.00,0.0008
3892.00,0.0008
3891.00,0.0008
3890.00,0.0008
3889.00,0.0008
3888.00,0.0008
3887.00,0.0009
3886.00,0.0009
3885.00,0.0009
3884.00,0.0009
3883.00,0.0009
3882.00,0.0009
3881.00,0.0008
3880.00,0.0008
3879.00,0.0007
3878.00,0.0007
3877.00,0.0007
3876.00,0.0008
3875.00,0.0008
3874.00,0.0009
3873.00,0.0009
3872.00,0.0009
3871.00,0.0009
3870.00,0.0009
3869.00,0.0008
3868.00,0.0008
3867.00,0.0008
3866.00,0.0008
3865.00,0.0008
3864.00,0.0008
3863.00,0.0008
3862.00,0.0008
3861.00,0.0007
3860.00,0.0007
3859.00,0.0007
3858.00,0.0007
3857.00,0.0007
3856.00,0.0007
3855.00,0.0007
3854.00,0.0007
3853.00,0.0007
3852.00,0.0007
3851.00,0.0007
3850.00,0.0007
3849.00,0.0007
3848.00,0.0007
3847.00,0.0007
3846.00,0.0007
3845.00,0.0007
3844.00,0.0007
3843.00,0.0007
3842.00,0.0007
3841.00,0.0007
3840.00,0.0007
3839.00,0.0007
3838.00,0.0007
3837.00,0.0007
3836.00,0.0007
3835.00,0.0007
3834.00,0.0007
3833.00,0.0007
3832.00,0.0007
3831.00,0.0007
3830.00,0.0007
3829.00,0.0007
3828.00,0.0007
3827.00,0.0007
3826.00,0.0008
3825.00,0.0008
3824.00,0.0008
3823.00,0.0008
3822.00,0.0008
3821.00,0.0008
3820.00,0.0008
3819.00,0.0008
3818.00,0.0008
3817.00,0.0008
3816.00,0.0008
3815.00,0.0007
3814.00,0.0007
3813.00,0.0007
3812.00,0.0007
3811.00,0.0007
3810.00,0.0008
3809.00,0.0008
3808.00,0.0008
3807.00,0.0008
3806.00,0.0008
3805.00,0.0008
3804.00,0.0008
3803.00,0.0008
3802.00,0.0008
3801.00,0.0008
3800.00,0.0008
3799.00,0.0008
3798.00,0.0008
3797.00,0.0008
3796.00,0.0008
3795.00,0.0007
3794.00,0.0007
3793.00,0.0007
3792.00,0.0008
3791.00,0.0008
3790.00,0.0008
3789.00,0.0008
3788.00,0.0008
3787.00,0.0008
3786.00,0.0008
3785.00,0.0008
3784.00,0.0008
3783.00,0.0007
3782.00,0.0007
3781.00,0.0007
3780.00,0.0007
3779.00,0.0008
3778.00,0.0008
3777.00,0.0008
3776.00,0.0008
3775.00,0.0008
3774.00,0.0008
3773.00,0.0008
3772.00,0.0009
3771.00,0.0009
3770.00,0.0009
3769.00,0.0009
3768.00,0.0009
3767.00,0.0009
3766.00,0.0009
3765.00,0.0009
3764.00,0.0010
3763.00,0.0010
3762.00,0.0010
3761.00,0.0009
3760.00,0.0009
3759.00,0.0008
3758.00,0.0008
3757.00,0.0008
3756.00,0.0008
3755.00,0.0008
3754.00,0.0008
3753.00,0.0007
3752.00,0.0007
3751.00,0.0007
3750.00,0.0007
3749.00,0.0007
3748.00,0.0007
3747.00,0.0007
3746.00,0.0007
3745.00,0.0007
3744.00,0.0006
3743.00,0.0006
3742.00,0.0007
3741.00,0.0007
3740.00,0.0007
3739.00,0.0007
3738.00,0.0007
3737.00,0.0007
3736.00,0.0007
3735.00,0.0008
3734.00,0.0008
3733.00,0.0007
3732.00,0.0007
3731.00,0.0006
3730.00,0.0006
3729.00,0.0007
3728.00,0.0007
3727.00,0.0007
3726.00,0.0006
3725.00,0.0006
3724.00,0.0006
3723.00,0.0007
3722.00,0.0007
3721.00,0.0007
3720.00,0.0007
3719.00,0.0007
3718.00,0.0007
3717.00,0.0006
3716.00,0.0006
3715.00,0.0006
3714.00,0.0006
3713.00,0.0006
3712.00,0.0006
3711.00,0.0007
3710.00,0.0007
3709.00,0.0008
3708.00,0.0008
3707.00,0.0008
3706.00,0.0008
3705.00,0.0008
3704.00,0.0008
3703.00,0.0008
3702.00,0.0008
3701.00,0.0008
3700.00,0.0008
3699.00,0.0007
3698.00,0.0007
3697.00,0.0007
3696.00,0.0007
3695.00,0.0007
3694.00,0.0007
3693.00,0.0007
3692.00,0.0006
3691.00,0.0006
3690.00,0.0006
3689.00,0.0006
3688.00,0.0005
3687.00,0.0005
3686.00,0.0005
3685.00,0.0006
3684.00,0.0006
3683.00,0.0006
3682.00,0.0005
3681.00,0.0005
3680.00,0.0005
3679.00,0.0004
3678.00,0.0004
3677.00,0.0003
3676.00,0.0002
3675.00,0.0001
3674.00,0.0000
3673.00,-0.0000
3672.00,-0.0001
3671.00,-0.0001
3670.00,-0.0001
3669.00,-0.0001
3668.00,-0.0002
3667.00,-0.0002
3666.00,-0.0002
3665.00,-0.0002
3664.00,-0.0002
3663.00,-0.0002
3662.00,-0.0003
3661.00,-0.0003
3660.00,-0.0003
3659.00,-0.0003
3658.00,-0.0003
3657.00,-0.0002
3656.00,-0.0002
3655.00,-0.0002
3654.00,-0.0001
3653.00,-0.0001
3652.00,-0.0001
3651.00,-0.0000
3650.00,-0.0000
3649.00,0.0000
3648.00,0.0001
3647.00,0.0001
3646.00,0.0001
3645.00,0.0002
3644.00,0.0002
3643.00,0.0003
3642.00,0.0003
3641.00,0.0004
3640.00,0.0004
3639.00,0.0004
3638.00,0.0004
3637.00,0.0004
3636.00,0.0005
3635.00,0.0007
3634.00,0.0008
3633.00,0.0009
3632.00,0.0010
3631.00,0.0010
3630.00,0.0010
3629.00,0.0011
3628.00,0.0012
3627.00,0.0013
3626.00,0.0013
3625.00,0.0014
3624.00,0.0014
3623.00,0.0014
3622.00,0.0014
3621.00,0.0015
3620.00,0.0016
3619.00,0.0016
3618.00,0.0016
3617.00,0.0016
3616.00,0.0016
3615.00,0.0017
3614.00,0.0017
3613.00,0.0017
3612.00,0.0017
3611.00,0.0017
3610.00,0.0017
3609.00,0.0017
3608.00,0.0018
3607.00,0.0018
3606.00,0.0019
3605.00,0.0019
3604.00,0.0020
3603.00,0.0020
3602.00,0.0020
3601.00,0.0021
3600.00,0.0021
3599.00,0.0022
3598.00,0.0022
3597.00,0.0023
3596.00,0.0023
3595.00,0.0023
3594.00,0.0023
3593.00,0.0024
3592.00,0.0024
3591.00,0.0024
3590.00,0.0024
3589.00,0.0024
3588.00,0.0025
3587.00,0.0026
3586.00,0.0026
3585.00,0.0027
3584.00,0.0028
3583.00,0.0028
3582.00,0.0028
3581.00,0.0029
3580.00,0.0029
3579.00,0.0029
3578.00,0.0030
3577.00,0.0030
3576.00,0.0030
3575.00,0.0030
3574.00,0.0030
3573.00,0.0031
3572.00,0.0031
3571.00,0.0032
3570.00,0.0033
3569.00,0.0034
3568.00,0.0035
3567.00,0.0035
3566.00,0.0035
3565.00,0.0035
3564.00,0.0035
3563.00,0.0036
3562.00,0.0036
3561.00,0.0036
3560.00,0.0036
3559.00,0.0036
3558.00,0.0036
3557.00,0.0037
3556.00,0.0038
3555.00,0.0038
3554.00,0.0039
3553.00,0.0039
3552.00,0.0040
3551.00,0.0040
3550.00,0.0040
3549.00,0.0040
3548.00,0.0041
3547.00,0.0041
3546.00,0.0042
3545.00,0.0042
3544.00,0.0042
3543.00,0.0042
3542.00,0.0043
3541.00,0.0044
3540.00,0.0044
3539.00,0.0045
3538.00,0.0045
3537.00,0.0046
3536.00,0.0046
3535.00,0.0046
3534.00,0.0047
3533.00,0.0047
3532.00,0.0048
3531.00,0.0048
3530.00,0.0049
3529.00,0.0049
3528.00,0.0049
3527.00,0.0049
3526.00,0.0050
3525.00,0.0050
3524.00,0.0051
3523.00,0.0051
3522.00,0.0051
3521.00,0.0052
3520.00,0.0052
3519.00,0.0052
3518.00,0.0053
3517.00,0.0053
3516.00,0.0054
3515.00,0.0054
3514.00,0.0055
3513.00,0.0055
3512.00,0.0055
3511.00,0.0056
3510.00,0.0057
3509.00,0.0057
3508.00,0.0057
3507.00,0.0057
3506.00,0.0058
3505.00,0.0058
3504.00,0.0059
3503.00,0.0059
3502.00,0.0059
3501.00,0.0060
3500.00,0.0060
3499.00,0.0060
3498.00,0.0061
3497.00,0.0061
3496.00,0.0062
3495.00,0.0062
3494.00,0.0063
3493.00,0.0063
3492.00,0.0064
3491.00,0.0065
3490.00,0.0065
3489.00,0.0066
3488.00,0.0066
3487.00,0.0067
3486.00,0.0067
3485.00,0.0068
3484.00,0.0068
3483.00,0.0068
3482.00,0.0068
3481.00,0.0068
3480.00,0.0068
3479.00,0.0069
3478.00,0.0069
3477.00,0.0069
3476.00,0.0069
3475.00,0.0070
3474.00,0.0070
3473.00,0.0070
3472.00,0.0071
3471.00,0.0072
3470.00,0.0072
3469.00,0.0073
3468.00,0.0073
3467.00,0.0073
3466.00,0.0074
3465.00,0.0074
3464.00,0.0075
3463.00,0.0076
3462.00,0.0076
3461.00,0.0076
3460.00,0.0076
3459.00,0.0076
3458.00,0.0076
3457.00,0.0076
3456.00,0.0076
3455.00,0.0077
3454.00,0.0077
3453.00,0.0077
3452.00,0.0078
3451.00,0.0079
3450.00,0.0080
3449.00,0.0080
3448.00,0.0081
3447.00,0.0081
3446.00,0.0081
3445.00,0.0081
3444.00,0.0082
3443.00,0.0082
3442.00,0.0082
3441.00,0.0082
3440.00,0.0083
3439.00,0.0083
3438.00,0.0084
3437.00,0.0084
3436.00,0.0085
3435.00,0.0085
3434.00,0.0085
3433.00,0.0085
3432.00,0.0086
3431.00,0.0086
3430.00,0.0086
3429.00,0.0086
3428.00,0.0086
3427.00,0.0087
3426.00,0.0087
3425.00,0.0088
3424.00,0.0089
3423.00,0.0089
3422.00,0.0089
3421.00,0.0090
3420.00,0.0090
3419.00,0.0090
3418.00,0.0091
3417.00,0.0091
3416.00,0.0091
3415.00,0.0092
3414.00,0.0092
3413.00,0.0093
3412.00,0.0093
3411.00,0.0094
3410.00,0.0094
3409.00,0.0094
3408.00,0.0094
3407.00,0.0094
3406.00,0.0094
3405.00,0.0094
3404.00,0.0094
3403.00,0.0094
3402.00,0.0094
3401.00,0.0095
3400.00,0.0096
3399.00,0.0096
3398.00,0.0096
3397.00,0.0097
3396.00,0.0097
3395.00,0.0097
3394.00,0.0098
3393.00,0.0098
3392.00,0.0098
3391.00,0.0098
3390.00,0.0098
3389.00,0.0098
3388.00,0.0098
3387.00,0.0098
3386.00,0.0099
3385.00,0.0099
3384.00,0.0100
3383.00,0.0100
3382.00,0.0100
3381.00,0.0100
3380.00,0.0100
3379.00,0.0100
3378.00,0.0101
3377.00,0.0100
3376.00,0.0100
3375.00,0.0100
3374.00,0.0100
3373.00,0.0100
3372.00,0.0100
3371.00,0.0100
3370.00,0.0100
3369.00,0.0101
3368.00,0.0101
3367.00,0.0101
3366.00,0.0102
3365.00,0.0101
3364.00,0.0101
3363.00,0.0101
3362.00,0.0101
3361.00,0.0102
3360.00,0.0102
3359.00,0.0103
3358.00,0.0103
3357.00,0.0104
3356.00,0.0104
3355.00,0.0104
3354.00,0.0105
3353.00,0.0105
3352.00,0.0105
3351.00,0.0104
3350.00,0.0104
3349.00,0.0104
3348.00,0.0105
3347.00,0.0105
3346.00,0.0105
3345.00,0.0106
3344.00,0.0105
3343.00,0.0105
3342.00,0.0105
3341.00,0.0105
3340.00,0.0105
3339.00,0.0104
3338.00,0.0105
3337.00,0.0105
3336.00,0.0105
3335.00,0.0104
3334.00,0.0104
3333.00,0.0104
3332.00,0.0104
3331.00,0.0104
3330.00,0.0104
3329.00,0.0104
3328.00,0.0105
3327.00,0.0105
3326.00,0.0105
3325.00,0.0105
3324.00,0.0105
3323.00,0.0105
3322.00,0.0105
3321.00,0.0105
3320.00,0.0104
3319.00,0.0104
3318.00,0.0103
3317.00,0.0103
3316.00,0.0103
3315.00,0.0103
3314.00,0.0103
3313.00,0.0103
3312.00,0.0103
3311.00,0.0104
3310.00,0.0104
3309.00,0.0105
3308.00,0.0105
3307.00,0.0105
3306.00,0.0105
3305.00,0.0105
3304.00,0.0106
3303.00,0.0105
3302.00,0.0105
3301.00,0.0105
3300.00,0.0104
3299.00,0.0104
3298.00,0.0104
3297.00,0.0103
3296.00,0.0103
3295.00,0.0102
3294.00,0.0102
3293.00,0.0101
3292.00,0.0101
3291.00,0.0101
3290.00,0.0100
3289.00,0.0100
3288.00,0.0099
3287.00,0.0099
3286.00,0.0099
3285.00,0.0099
3284.00,0.0099
3283.00,0.0099
3282.00,0.0099
3281.00,0.0098
3280.00,0.0098
3279.00,0.0097
3278.00,0.0097
3277.00,0.0096
3276.00,0.0096
3275.00,0.0096
3274.00,0.0095
3273.00,0.0095
3272.00,0.0095
3271.00,0.0094
3270.00,0.0094
3269.00,0.0094
3268.00,0.0093
3267.00,0.0093
3266.00,0.0093
3265.00,0.0093
3264.00,0.0092
3263.00,0.0092
3262.00,0.0091
3261.00,0.0091
3260.00,0.0090
3259.00,0.0090
3258.00,0.0089
3257.00,0.0089
3256.00,0.0088
3255.00,0.0087
3254.00,0.0087
3253.00,0.0087
3252.00,0.0086
3251.00,0.0086
3250.00,0.0085
3249.00,0.0085
3248.00,0.0084
3247.00,0.0084
3246.00,0.0084
3245.00,0.0085
3244.00,0.0084
3243.00,0.0084
3242.00,0.0084
3241.00,0.0083
3240.00,0.0083
3239.00,0.0083
3238.00,0.0083
3237.00,0.0083
3236.00,0.0083
3235.00,0.0082
3234.00,0.0082
3233.00,0.0082
3232.00,0.0081
3231.00,0.0081
3230.00,0.0082
3229.00,0.0082
3228.00,0.0082
3227.00,0.0082
3226.00,0.0082
3225.00,0.0082
3224.00,0.0082
3223.00,0.0082
3222.00,0.0082
3221.00,0.0082
3220.00,0.0082
3219.00,0.0082
3218.00,0.0082
3217.00,0.0082
3216.00,0.0082
3215.00,0.0082
3214.00,0.0082
3213.00,0.0082
3212.00,0.0082
3211.00,0.0082
3210.00,0.0082
3209.00,0.0082
3208.00,0.0082
3207.00,0.0082
3206.00,0.0081
3205.00,0.0081
3204.00,0.0081
3203.00,0.0081
3202.00,0.0081
3201.00,0.0081
3200.00,0.0082
3199.00,0.0082
3198.00,0.0082
3197.00,0.0082
3196.00,0.0081
3195.00,0.0081
3194.00,0.0080
3193.00,0.0080
3192.00,0.0079
3191.00,0.0079
3190.00,0.0079
3189.00,0.0079
3188.00,0.0079
3187.00,0.0079
3186.00,0.0079
3185.00,0.0079
3184.00,0.0079
3183.00,0.0078
3182.00,0.0078
3181.00,0.0078
3180.00,0.0077
3179.00,0.0077
3178.00,0.0076
3177.00,0.0076
3176.00,0.0075
3175.00,0.0075
3174.00,0.0075
3173.00,0.0074
3172.00,0.0074
3171.00,0.0074
3170.00,0.0074
3169.00,0.0074
3168.00,0.0074
3167.00,0.0073
3166.00,0.0073
3165.00,0.0072
3164.00,0.0072
3163.00,0.0072
3162.00,0.0071
3161.00,0.0071
3160.00,0.0071
3159.00,0.0071
3158.00,0.0072
3157.00,0.0072
3156.00,0.0071
3155.00,0.0071
3154.00,0.0070
3153.00,0.0070
3152.00,0.0070
3151.00,0.0070
3150.00,0.0070
3149.00,0.0070
3148.00,0.0070
3147.00,0.0070
3146.00,0.0069
3145.00,0.0069
3144.00,0.0068
3143.00,0.0068
3142.00,0.0068
3141.00,0.0068
3140.00,0.0067
3139.00,0.0067
3138.00,0.0067
3137.00,0.0067
3136.00,0.0066
3135.00,0.0066
3134.00,0.0066
3133.00,0.0065
3132.00,0.0065
3131.00,0.0065
3130.00,0.0064
3129.00,0.0064
3128.00,0.0063
3127.00,0.0063
3126.00,0.0062
3125.00,0.0061
3124.00,0.0061
3123.00,0.0061
3122.00,0.0061
3121.00,0.0060
3120.00,0.0060
3119.00,0.0060
3118.00,0.0059
3117.00,0.0059
3116.00,0.0059
3115.00,0.0059
3114.00,0.0059
3113.00,0.0059
3112.00,0.0058
3111.00,0.0058
3110.00,0.0058
3109.00,0.0058
3108.00,0.0057
3107.00,0.0057
3106.00,0.0057
3105.00,0.0056
3104.00,0.0056
3103.00,0.0056
3102.00,0.0055
3101.00,0.0055
3100.00,0.0055
3099.00,0.0055
3098.00,0.0055
3097.00,0.0055
3096.00,0.0055
3095.00,0.0055
3094.00,0.0055
3093.00,0.0054
3092.00,0.0054
3091.00,0.0054
3090.00,0.0054
3089.00,0.0054
3088.00,0.0054
3087.00,0.0054
3086.00,0.0054
3085.00,0.0054
3084.00,0.0054
3083.00,0.0053
3082.00,0.0053
3081.00,0.0053
3080.00,0.0053
3079.00,0.0053
3078.00,0.0053
3077.00,0.0053
3076.00,0.0054
3075.00,0.0054
3074.00,0.0054
3073.00,0.0053
3072.00,0.0053
3071.00,0.0054
3070.00,0.0054
3069.00,0.0054
3068.00,0.0054
3067.00,0.0054
3066.00,0.0054
3065.00,0.0054
3064.00,0.0055
3063.00,0.0055
3062.00,0.0055
3061.00,0.0055
3060.00,0.0055
3059.00,0.0055
3058.00,0.0055
3057.00,0.0055
3056.00,0.0055
3055.00,0.0055
3054.00,0.0055
3053.00,0.0055
3052.00,0.0055
3051.00,0.0056
3050.00,0.0056
3049.00,0.0056
3048.00,0.0056
3047.00,0.0056
3046.00,0.0056
3045.00,0.0056
3044.00,0.0056
3043.00,0.0057
3042.00,0.0057
3041.00,0.0057
3040.00,0.0057
3039.00,0.0058
3038.00,0.0058
3037.00,0.0059
3036.00,0.0059
3035.00,0.0059
3034.00,0.0059
3033.00,0.0060
3032.00,0.0060
3031.00,0.0060
3030.00,0.0061
3029.00,0.0061
3028.00,0.0061
3027.00,0.0061
3026.00,0.0061
3025.00,0.0061
3024.00,0.0061
3023.00,0.0061
3022.00,0.0062
3021.00,0.0062
3020.00,0.0061
3019.00,0.0061
3018.00,0.0061
3017.00,0.0061
3016.00,0.0061
3015.00,0.0061
3014.00,0.0060
3013.00,0.0060
3012.00,0.0059
3011.00,0.0057
3010.00,0.0056
3009.00,0.0055
3008.00,0.0053
3007.00,0.0052
3006.00,0.0050
3005.00,0.0048
3004.00,0.0046
3003.00,0.0044
3002.00,0.0043
3001.00,0.0042
3000.00,0.0041
2999.00,0.0041
2998.00,0.0042
2997.00,0.0043
2996.00,0.0044
2995.00,0.0045
2994.00,0.0047
2993.00,0.0049
2992.00,0.0053
2991.00,0.0057
2990.00,0.0061
2989.00,0.0065
2988.00,0.0070
2987.00,0.0075
2986.00,0.0078
2985.00,0.0080
2984.00,0.0081
2983.00,0.0084
2982.00,0.0092
2981.00,0.0106
2980.00,0.0128
2979.00,0.0154
2978.00,0.0184
2977.00,0.0215
2976.00,0.0249
2975.00,0.0285
2974.00,0.0324
2973.00,0.0368
2972.00,0.0420
2971.00,0.0480
2970.00,0.0549
2969.00,0.0625
2968.00,0.0709
2967.00,0.0798
2966.00,0.0893
2965.00,0.0991
2964.00,0.1091
2963.00,0.1189
2962.00,0.1280
2961.00,0.1361
2960.00,0.1428
2959.00,0.1481
2958.00,0.1521
2957.00,0.1552
2956.00,0.1577
2955.00,0.1601
2954.00,0.1626
2953.00,0.1650
2952.00,0.1668
2951.00,0.1673
2950.00,0.1660
2949.00,0.1623
2948.00,0.1562
2947.00,0.1479
2946.00,0.1382
2945.00,0.1283
2944.00,0.1190
2943.00,0.1112
2942.00,0.1053
2941.00,0.1015
2940.00,0.0997
2939.00,0.0997
2938.00,0.1014
2937.00,0.1045
2936.00,0.1090
2935.00,0.1146
2934.00,0.1214
2933.00,0.1292
2932.00,0.1377
2931.00,0.1469
2930.00,0.1566
2929.00,0.1663
2928.00,0.1759
2927.00,0.1851
2926.00,0.1937
2925.00,0.2018
2924.00,0.2094
2923.00,0.2166
2922.00,0.2234
2921.00,0.2296
2920.00,0.2350
2919.00,0.2388
2918.00,0.2405
2917.00,0.2396
2916.00,0.2361
2915.00,0.2302
2914.00,0.2226
2913.00,0.2144
2912.00,0.2061
2911.00,0.1984
2910.00,0.1915
2909.00,0.1853
2908.00,0.1796
2907.00,0.1742
2906.00,0.1689
2905.00,0.1635
2904.00,0.1578
2903.00,0.1520
2902.00,0.1462
2901.00,0.1402
2900.00,0.1344
2899.00,0.1288
2898.00,0.1234
2897.00,0.1185
2896.00,0.1139
2895.00,0.1099
2894.00,0.1064
2893.00,0.1034
2892.00,0.1009
2891.00,0.0989
2890.00,0.0975
2889.00,0.0964
2888.00,0.0958
2887.00,0.0954
2886.00,0.0954
2885.00,0.0957
2884.00,0.0965
2883.00,0.0977
2882.00,0.0994
2881.00,0.1013
2880.00,0.1033
2879.00,0.1050
2878.00,0.1062
2877.00,0.1068
2876.00,0.1067
2875.00,0.1063
2874.00,0.1059
2873.00,0.1059
2872.00,0.1064
2871.00,0.1074
2870.00,0.1088
2869.00,0.1101
2868.00,0.1109
2867.00,0.1105
2866.00,0.1087
2865.00,0.1052
2864.00,0.1005
2863.00,0.0951
2862.00,0.0899
2861.00,0.0856
2860.00,0.0824
2859.00,0.0806
2858.00,0.0799
2857.00,0.0802
2856.00,0.0812
2855.00,0.0826
2854.00,0.0844
2853.00,0.0863
2852.00,0.0879
2851.00,0.0890
2850.00,0.0896
2849.00,0.0896
2848.00,0.0894
2847.00,0.0894
2846.00,0.0902
2845.00,0.0921
2844.00,0.0952
2843.00,0.0992
2842.00,0.1038
2841.00,0.1083
2840.00,0.1122
2839.00,0.1146
2838.00,0.1148
2837.00,0.1122
2836.00,0.1067
2835.00,0.0988
2834.00,0.0894
2833.00,0.0794
2832.00,0.0698
2831.00,0.0612
2830.00,0.0539
2829.00,0.0478
2828.00,0.0428
2827.00,0.0388
2826.00,0.0356
2825.00,0.0329
2824.00,0.0306
2823.00,0.0287
2822.00,0.0270
2821.00,0.0256
2820.00,0.0243
2819.00,0.0233
2818.00,0.0223
2817.00,0.0215
2816.00,0.0208
2815.00,0.0201
2814.00,0.0195
2813.00,0.0190
2812.00,0.0184
2811.00,0.0179
2810.00,0.0174
2809.00,0.0169
2808.00,0.0164
2807.00,0.0158
2806.00,0.0152
2805.00,0.0146
2804.00,0.0141
2803.00,0.0135
2802.00,0.0130
2801.00,0.0126
2800.00,0.0122
2799.00,0.0119
2798.00,0.0117
2797.00,0.0114
2796.00,0.0112
2795.00,0.0110
2794.00,0.0108
2793.00,0.0105
2792.00,0.0102
2791.00,0.0099
2790.00,0.0096
2789.00,0.0093
2788.00,0.0090
2787.00,0.0087
2786.00,0.0084
2785.00,0.0081
2784.00,0.0079
2783.00,0.0077
2782.00,0.0075
2781.00,0.0073
2780.00,0.0071
2779.00,0.0070
2778.00,0.0068
2777.00,0.0066
2776.00,0.0065
2775.00,0.0064
2774.00,0.0063
2773.00,0.0063
2772.00,0.0062
2771.00,0.0062
2770.00,0.0062
2769.00,0.0061
2768.00,0.0061
2767.00,0.0060
2766.00,0.0060
2765.00,0.0060
2764.00,0.0059
2763.00,0.0059
2762.00,0.0059
2761.00,0.0059
2760.00,0.0059
2759.00,0.0058
2758.00,0.0057
2757.00,0.0057
2756.00,0.0057
2755.00,0.0057
2754.00,0.0056
2753.00,0.0056
2752.00,0.0056
2751.00,0.0056
2750.00,0.0056
2749.00,0.0056
2748.00,0.0055
2747.00,0.0056
2746.00,0.0056
2745.00,0.0057
2744.00,0.0057
2743.00,0.0058
2742.00,0.0059
2741.00,0.0060
2740.00,0.0061
2739.00,0.0062
2738.00,0.0063
2737.00,0.0064
2736.00,0.0065
2735.00,0.0066
2734.00,0.0067
2733.00,0.0068
2732.00,0.0069
2731.00,0.0071
2730.00,0.0073
2729.00,0.0075
2728.00,0.0078
2727.00,0.0080
2726.00,0.0083
2725.00,0.0084
2724.00,0.0085
2723.00,0.0086
2722.00,0.0085
2721.00,0.0083
2720.00,0.0081
2719.00,0.0078
2718.00,0.0075
2717.00,0.0072
2716.00,0.0070
2715.00,0.0068
2714.00,0.0066
2713.00,0.0064
2712.00,0.0062
2711.00,0.0061
2710.00,0.0059
2709.00,0.0058
2708.00,0.0057
2707.00,0.0056
2706.00,0.0055
2705.00,0.0054
2704.00,0.0053
2703.00,0.0052
2702.00,0.0051
2701.00,0.0050
2700.00,0.0050
2699.00,0.0050
2698.00,0.0049
2697.00,0.0049
2696.00,0.0049
2695.00,0.0048
2694.00,0.0048
2693.00,0.0049
2692.00,0.0049
2691.00,0.0049
2690.00,0.0049
2689.00,0.0049
2688.00,0.0048
2687.00,0.0048
2686.00,0.0048
2685.00,0.0048
2684.00,0.0048
2683.00,0.0048
2682.00,0.0048
2681.00,0.0048
2680.00,0.0048
2679.00,0.0048
2678.00,0.0048
2677.00,0.0048
2676.00,0.0048
2675.00,0.0048
2674.00,0.0047
2673.00,0.0047
2672.00,0.0047
2671.00,0.0046
2670.00,0.0046
2669.00,0.0046
2668.00,0.0046
2667.00,0.0046
2666.00,0.0047
2665.00,0.0047
2664.00,0.0048
2663.00,0.0048
2662.00,0.0049
2661.00,0.0049
2660.00,0.0049
2659.00,0.0050
2658.00,0.0050
2657.00,0.0049
2656.00,0.0049
2655.00,0.0048
2654.00,0.0048
2653.00,0.0047
2652.00,0.0047
2651.00,0.0047
2650.00,0.0046
2649.00,0.0046
2648.00,0.0045
2647.00,0.0044
2646.00,0.0044
2645.00,0.0044
2644.00,0.0044
2643.00,0.0043
2642.00,0.0043
2641.00,0.0042
2640.00,0.0041
2639.00,0.0041
2638.00,0.0040
2637.00,0.0040
2636.00,0.0041
2635.00,0.0041
2634.00,0.0041
2633.00,0.0041
2632.00,0.0041
2631.00,0.0041
2630.00,0.0041
2629.00,0.0041
2628.00,0.0041
2627.00,0.0041
2626.00,0.0041
2625.00,0.0041
2624.00,0.0041
2623.00,0.0042
2622.00,0.0042
2621.00,0.0042
2620.00,0.0042
2619.00,0.0042
2618.00,0.0042
2617.00,0.0042
2616.00,0.0042
2615.00,0.0042
2614.00,0.0041
2613.00,0.0041
2612.00,0.0040
2611.00,0.0040
2610.00,0.0039
2609.00,0.0039
2608.00,0.0038
2607.00,0.0037
2606.00,0.0037
2605.00,0.0036
2604.00,0.0035
2603.00,0.0034
2602.00,0.0034
2601.00,0.0033
2600.00,0.0033
2599.00,0.0033
2598.00,0.0033
2597.00,0.0033
2596.00,0.0033
2595.00,0.0033
2594.00,0.0033
2593.00,0.0034
2592.00,0.0036
2591.00,0.0037
2590.00,0.0037
2589.00,0.0037
2588.00,0.0037
2587.00,0.0037
2586.00,0.0038
2585.00,0.0038
2584.00,0.0039
2583.00,0.0040
2582.00,0.0040
2581.00,0.0039
2580.00,0.0038
2579.00,0.0037
2578.00,0.0036
2577.00,0.0035
2576.00,0.0034
2575.00,0.0033
2574.00,0.0032
2573.00,0.0031
2572.00,0.0031
2571.00,0.0030
2570.00,0.0030
2569.00,0.0029
2568.00,0.0029
2567.00,0.0028
2566.00,0.0027
2565.00,0.0026
2564.00,0.0025
2563.00,0.0025
2562.00,0.0025
2561.00,0.0025
2560.00,0.0025
2559.00,0.0025
2558.00,0.0025
2557.00,0.0024
2556.00,0.0024
2555.00,0.0024
2554.00,0.0024
2553.00,0.0024
2552.00,0.0023
2551.00,0.0023
2550.00,0.0023
2549.00,0.0022
2548.00,0.0022
2547.00,0.0022
2546.00,0.0021
2545.00,0.0021
2544.00,0.0020
2543.00,0.0020
2542.00,0.0019
2541.00,0.0019
2540.00,0.0019
2539.00,0.0019
2538.00,0.0019
2537.00,0.0019
2536.00,0.0019
2535.00,0.0020
2534.00,0.0020
2533.00,0.0020
2532.00,0.0019
2531.00,0.0018
2530.00,0.0018
2529.00,0.0018
2528.00,0.0017
2527.00,0.0017
2526.00,0.0017
2525.00,0.0017
2524.00,0.0017
2523.00,0.0017
2522.00,0.0017
2521.00,0.0016
2520.00,0.0016
2519.00,0.0016
2518.00,0.0015
2517.00,0.0015
2516.00,0.0014
2515.00,0.0014
2514.00,0.0015
2513.00,0.0015
2512.00,0.0015
2511.00,0.0015
2510.00,0.0015
2509.00,0.0015
2508.00,0.0015
2507.00,0.0014
2506.00,0.0013
2505.00,0.0012
2504.00,0.0012
2503.00,0.0012
2502.00,0.0013
2501.00,0.0013
2500.00,0.0013
2499.00,0.0014
2498.00,0.0014
2497.00,0.0015
2496.00,0.0015
2495.00,0.0015
2494.00,0.0014
2493.00,0.0014
2492.00,0.0014
2491.00,0.0015
2490.00,0.0015
2489.00,0.0016
2488.00,0.0016
2487.00,0.0015
2486.00,0.0015
2485.00,0.0014
2484.00,0.0014
2483.00,0.0014
2482.00,0.0014
2481.00,0.0014
2480.00,0.0013
2479.00,0.0013
2478.00,0.0013
2477.00,0.0013
2476.00,0.0013
2475.00,0.0013
2474.00,0.0013
2473.00,0.0013
2472.00,0.0013
2471.00,0.0014
2470.00,0.0013
2469.00,0.0013
2468.00,0.0012
2467.00,0.0012
2466.00,0.0012
2465.00,0.0012
2464.00,0.0013
2463.00,0.0013
2462.00,0.0013
2461.00,0.0012
2460.00,0.0012
2459.00,0.0012
2458.00,0.0012
2457.00,0.0013
2456.00,0.0013
2455.00,0.0013
2454.00,0.0013
2453.00,0.0013
2452.00,0.0013
2451.00,0.0013
2450.00,0.0014
2449.00,0.0014
2448.00,0.0014
2447.00,0.0014
2446.00,0.0014
2445.00,0.0013
2444.00,0.0012
2443.00,0.0012
2442.00,0.0012
2441.00,0.0013
2440.00,0.0013
2439.00,0.0013
2438.00,0.0013
2437.00,0.0013
2436.00,0.0013
2435.00,0.0013
2434.00,0.0014
2433.00,0.0014
2432.00,0.0015
2431.00,0.0015
2430.00,0.0014
2429.00,0.0014
2428.00,0.0014
2427.00,0.0014
2426.00,0.0014
2425.00,0.0014
2424.00,0.0015
2423.00,0.0014
2422.00,0.0014
2421.00,0.0013
2420.00,0.0012
2419.00,0.0012
2418.00,0.0012
2417.00,0.0012
2416.00,0.0013
2415.00,0.0013
2414.00,0.0013
2413.00,0.0013
2412.00,0.0013
2411.00,0.0013
2410.00,0.0013
2409.00,0.0014
2408.00,0.0014
2407.00,0.0013
2406.00,0.0012
2405.00,0.0012
2404.00,0.0011
2403.00,0.0011
2402.00,0.0011
2401.00,0.0011
2400.00,0.0011
2399.00,0.0011
2398.00,0.0011
2397.00,0.0010
2396.00,0.0010
2395.00,0.0010
2394.00,0.0010
2393.00,0.0011
2392.00,0.0011
2391.00,0.0011
2390.00,0.0011
2389.00,0.0011
2388.00,0.0010
2387.00,0.0010
2386.00,0.0009
2385.00,0.0008
2384.00,0.0007
2383.00,0.0006
2382.00,0.0005
2381.00,0.0004
2380.00,0.0003
2379.00,0.0003
2378.00,0.0003
2377.00,0.0003
2376.00,0.0004
2375.00,0.0004
2374.00,0.0004
2373.00,0.0005
2372.00,0.0005
2371.00,0.0005
2370.00,0.0004
2369.00,0.0004
2368.00,0.0004
2367.00,0.0004
2366.00,0.0004
2365.00,0.0004
2364.00,0.0004
2363.00,0.0004
2362.00,0.0005
2361.00,0.0005
2360.00,0.0005
2359.00,0.0004
2358.00,0.0005
2357.00,0.0005
2356.00,0.0005
2355.00,0.0005
2354.00,0.0004
2353.00,0.0004
2352.00,0.0004
2351.00,0.0005
2350.00,0.0005
2349.00,0.0006
2348.00,0.0006
2347.00,0.0006
2346.00,0.0007
2345.00,0.0007
2344.00,0.0007
2343.00,0.0007
2342.00,0.0008
2341.00,0.0008
2340.00,0.0008
2339.00,0.0009
2338.00,0.0009
2337.00,0.0008
2336.00,0.0008
2335.00,0.0008
2334.00,0.0008
2333.00,0.0008
2332.00,0.0008
2331.00,0.0008
2330.00,0.0009
2329.00,0.0010
2328.00,0.0011
2327.00,0.0014
2326.00,0.0018
2325.00,0.0021
2324.00,0.0022
2323.00,0.0020
2322.00,0.0018
2321.00,0.0016
2320.00,0.0015
2319.00,0.0014
2318.00,0.0014
2317.00,0.0013
2316.00,0.0013
2315.00,0.0013
2314.00,0.0012
2313.00,0.0011
2312.00,0.0011
2311.00,0.0010
2310.00,0.0010
2309.00,0.0010
2308.00,0.0010
2307.00,0.0011
2306.00,0.0012
2305.00,0.0012
2304.00,0.0012
2303.00,0.0012
2302.00,0.0012
2301.00,0.0012
2300.00,0.0012
2299.00,0.0012
2298.00,0.0012
2297.00,0.0013
2296.00,0.0014
2295.00,0.0015
2294.00,0.0016
2293.00,0.0017
2292.00,0.0017
2291.00,0.0018
2290.00,0.0018
2289.00,0.0019
2288.00,0.0020
2287.00,0.0021
2286.00,0.0021
2285.00,0.0021
2284.00,0.0021
2283.00,0.0021
2282.00,0.0020
2281.00,0.0019
2280.00,0.0017
2279.00,0.0016
2278.00,0.0015
2277.00,0.0015
2276.00,0.0015
2275.00,0.0016
2274.00,0.0016
2273.00,0.0016
2272.00,0.0015
2271.00,0.0014
2270.00,0.0014
2269.00,0.0014
2268.00,0.0014
2267.00,0.0014
2266.00,0.0013
2265.00,0.0012
2264.00,0.0012
2263.00,0.0014
2262.00,0.0016
2261.00,0.0017
2260.00,0.0016
2259.00,0.0015
2258.00,0.0013
2257.00,0.0013
2256.00,0.0013
2255.00,0.0013
2254.00,0.0012
2253.00,0.0012
2252.00,0.0012
2251.00,0.0012
2250.00,0.0012
2249.00,0.0012
2248.00,0.0012
2247.00,0.0012
2246.00,0.0012
2245.00,0.0012
2244.00,0.0012
2243.00,0.0012
2242.00,0.0012
2241.00,0.0012
2240.00,0.0012
2239.00,0.0013
2238.00,0.0013
2237.00,0.0014
2236.00,0.0014
2235.00,0.0014
2234.00,0.0013
2233.00,0.0012
2232.00,0.0011
2231.00,0.0012
2230.00,0.0013
2229.00,0.0015
2228.00,0.0016
2227.00,0.0016
2226.00,0.0015
2225.00,0.0014
2224.00,0.0012
2223.00,0.0009
2222.00,0.0007
2221.00,0.0006
2220.00,0.0006
2219.00,0.0006
2218.00,0.0007
2217.00,0.0008
2216.00,0.0007
2215.00,0.0006
2214.00,0.0003
2213.00,0.0002
2212.00,0.0002
2211.00,0.0002
2210.00,0.0004
2209.00,0.0006
2208.00,0.0008
2207.00,0.0010
2206.00,0.0010
2205.00,0.0009
2204.00,0.0008
2203.00,0.0008
2202.00,0.0010
2201.00,0.0012
2200.00,0.0014
2199.00,0.0014
2198.00,0.0013
2197.00,0.0012
2196.00,0.0012
2195.00,0.0011
2194.00,0.0010
2193.00,0.0010
2192.00,0.0009
2191.00,0.0009
2190.00,0.0008
2189.00,0.0008
2188.00,0.0009
2187.00,0.0011
2186.00,0.0013
2185.00,0.0015
2184.00,0.0015
2183.00,0.0013
2182.00,0.0009
2181.00,0.0007
2180.00,0.0007
2179.00,0.0010
2178.00,0.0011
2177.00,0.0010
2176.00,0.0006
2175.00,0.0003
2174.00,0.0002
2173.00,0.0003
2172.00,0.0006
2171.00,0.0010
2170.00,0.0013
2169.00,0.0017
2168.00,0.0020
2167.00,0.0022
2166.00,0.0024
2165.00,0.0025
2164.00,0.0027
2163.00,0.0028
2162.00,0.0028
2161.00,0.0023
2160.00,0.0012
2159.00,-0.0005
2158.00,-0.0019
2157.00,-0.0025
2156.00,-0.0024
2155.00,-0.0019
2154.00,-0.0014
2153.00,-0.0010
2152.00,-0.0008
2151.00,-0.0006
2150.00,-0.0005
2149.00,-0.0005
2148.00,-0.0005
2147.00,-0.0006
2146.00,-0.0007
2145.00,-0.0006
2144.00,-0.0006
2143.00,-0.0007
2142.00,-0.0009
2141.00,-0.0009
2140.00,-0.0008
2139.00,-0.0006
2138.00,-0.0005
2137.00,-0.0005
2136.00,-0.0006
2135.00,-0.0007
2134.00,-0.0009
2133.00,-0.0010
2132.00,-0.0010
2131.00,-0.0008
2130.00,-0.0007
2129.00,-0.0004
2128.00,-0.0003
2127.00,-0.0001
2126.00,-0.0000
2125.00,0.0001
2124.00,0.0003
2123.00,0.0003
2122.00,0.0004
2121.00,0.0004
2120.00,0.0003
2119.00,0.0003
2118.00,0.0003
2117.00,0.0004
2116.00,0.0005
2115.00,0.0006
2114.00,0.0006
2113.00,0.0007
2112.00,0.0007
2111.00,0.0007
2110.00,0.0007
2109.00,0.0006
2108.00,0.0005
2107.00,0.0004
2106.00,0.0003
2105.00,0.0003
2104.00,0.0004
2103.00,0.0004
2102.00,0.0004
2101.00,0.0005
2100.00,0.0006
2099.00,0.0007
2098.00,0.0006
2097.00,0.0005
2096.00,0.0003
2095.00,0.0001
2094.00,0.0001
2093.00,0.0002
2092.00,0.0003
2091.00,0.0004
2090.00,0.0003
2089.00,0.0003
2088.00,0.0003
2087.00,0.0003
2086.00,0.0002
2085.00,0.0002
2084.00,0.0001
2083.00,0.0002
2082.00,0.0003
2081.00,0.0005
2080.00,0.0007
2079.00,0.0007
2078.00,0.0008
2077.00,0.0008
2076.00,0.0008
2075.00,0.0007
2074.00,0.0005
2073.00,0.0003
2072.00,0.0003
2071.00,0.0003
2070.00,0.0002
2069.00,0.0002
2068.00,0.0000
2067.00,-0.0001
2066.00,-0.0002
2065.00,-0.0003
2064.00,-0.0003
2063.00,-0.0001
2062.00,0.0001
2061.00,0.0004
2060.00,0.0006
2059.00,0.0007
2058.00,0.0006
2057.00,0.0005
2056.00,0.0004
2055.00,0.0003
2054.00,0.0005
2053.00,0.0010
2052.00,0.0017
2051.00,0.0020
2050.00,0.0018
2049.00,0.0011
2048.00,0.0004
2047.00,0.0001
2046.00,0.0001
2045.00,0.0003
2044.00,0.0005
2043.00,0.0007
2042.00,0.0007
2041.00,0.0006
2040.00,0.0005
2039.00,0.0003
2038.00,0.0002
2037.00,0.0001
2036.00,-0.0002
2035.00,-0.0004
2034.00,-0.0006
2033.00,-0.0006
2032.00,-0.0006
2031.00,-0.0006
2030.00,-0.0005
2029.00,-0.0005
2028.00,-0.0004
2027.00,-0.0004
2026.00,-0.0005
2025.00,-0.0006
2024.00,-0.0007
2023.00,-0.0009
2022.00,-0.0012
2021.00,-0.0015
2020.00,-0.0015
2019.00,-0.0014
2018.00,-0.0010
2017.00,-0.0006
2016.00,-0.0003
2015.00,-0.0001
2014.00,-0.0001
2013.00,-0.0002
2012.00,-0.0002
2011.00,-0.0001
2010.00,-0.0001
2009.00,-0.0002
2008.00,-0.0006
2007.00,-0.0010
2006.00,-0.0012
2005.00,-0.0011
2004.00,-0.0009
2003.00,-0.0007
2002.00,-0.0007
2001.00,-0.0008
2000.00,-0.0008
1999.00,-0.0009
1998.00,-0.0009
1997.00,-0.0010
1996.00,-0.0011
1995.00,-0.0012
1994.00,-0.0011
1993.00,-0.0010
1992.00,-0.0008
1991.00,-0.0008
1990.00,-0.0008
1989.00,-0.0007
1988.00,-0.0005
1987.00,-0.0003
1986.00,-0.0001
1985.00,0.0001
1984.00,0.0004
1983.00,0.0006
1982.00,0.0008
1981.00,0.0009
1980.00,0.0008
1979.00,0.0004
1978.00,-0.0000
1977.00,-0.0003
1976.00,-0.0005
1975.00,-0.0007
1974.00,-0.0009
1973.00,-0.0010
1972.00,-0.0011
1971.00,-0.0012
1970.00,-0.0012
1969.00,-0.0011
1968.00,-0.0010
1967.00,-0.0011
1966.00,-0.0012
1965.00,-0.0012
1964.00,-0.0011
1963.00,-0.0010
1962.00,-0.0009
1961.00,-0.0008
1960.00,-0.0008
1959.00,-0.0010
1958.00,-0.0012
1957.00,-0.0013
1956.00,-0.0012
1955.00,-0.0011
1954.00,-0.0012
1953.00,-0.0014
1952.00,-0.0015
1951.00,-0.0016
1950.00,-0.0017
1949.00,-0.0016
1948.00,-0.0015
1947.00,-0.0014
1946.00,-0.0013
1945.00,-0.0013
1944.00,-0.0012
1943.00,-0.0010
1942.00,-0.0008
1941.00,-0.0007
1940.00,-0.0007
1939.00,-0.0006
1938.00,-0.0006
1937.00,-0.0005
1936.00,-0.0004
1935.00,-0.0004
1934.00,-0.0004
1933.00,-0.0006
1932.00,-0.0007
1931.00,-0.0008
1930.00,-0.0008
1929.00,-0.0006
1928.00,-0.0005
1927.00,-0.0004
1926.00,-0.0004
1925.00,-0.0003
1924.00,-0.0003
1923.00,-0.0002
1922.00,-0.0001
1921.00,-0.0000
1920.00,-0.0001
1919.00,-0.0001
1918.00,-0.0001
1917.00,-0.0000
1916.00,0.0000
1915.00,-0.0000
1914.00,-0.0002
1913.00,-0.0003
1912.00,-0.0002
1911.00,-0.0001
1910.00,-0.0000
1909.00,0.0001
1908.00,0.0001
1907.00,0.0001
1906.00,0.0000
1905.00,0.0000
1904.00,0.0001
1903.00,0.0002
1902.00,0.0003
1901.00,0.0004
1900.00,0.0004
1899.00,0.0004
1898.00,0.0004
1897.00,0.0004
1896.00,0.0004
1895.00,0.0003
1894.00,0.0003
1893.00,0.0002
1892.00,0.0001
1891.00,0.0001
1890.00,0.0001
1889.00,0.0002
1888.00,0.0003
1887.00,0.0003
1886.00,0.0002
1885.00,0.0002
1884.00,0.0002
1883.00,0.0001
1882.00,0.0001
1881.00,0.0002
1880.00,0.0002
1879.00,0.0002
1878.00,0.0002
1877.00,0.0002
1876.00,0.0002
1875.00,0.0002
1874.00,0.0002
1873.00,0.0002
1872.00,0.0002
1871.00,0.0002
1870.00,0.0002
1869.00,0.0003
1868.00,0.0004
1867.00,0.0005
1866.00,0.0005
1865.00,0.0005
1864.00,0.0004
1863.00,0.0004
1862.00,0.0004
1861.00,0.0004
1860.00,0.0004
1859.00,0.0005
1858.00,0.0006
1857.00,0.0006
1856.00,0.0007
1855.00,0.0007
1854.00,0.0006
1853.00,0.0006
1852.00,0.0005
1851.00,0.0005
1850.00,0.0005
1849.00,0.0005
1848.00,0.0005
1847.00,0.0005
1846.00,0.0005
1845.00,0.0006
1844.00,0.0007
1843.00,0.0008
1842.00,0.0007
1841.00,0.0006
1840.00,0.0005
1839.00,0.0004
1838.00,0.0004
1837.00,0.0005
1836.00,0.0005
1835.00,0.0006
1834.00,0.0006
1833.00,0.0007
1832.00,0.0007
1831.00,0.0008
1830.00,0.0008
1829.00,0.0008
1828.00,0.0008
1827.00,0.0008
1826.00,0.0007
1825.00,0.0007
1824.00,0.0007
1823.00,0.0007
1822.00,0.0007
1821.00,0.0006
1820.00,0.0006
1819.00,0.0005
1818.00,0.0003
1817.00,0.0003
1816.00,0.0003
1815.00,0.0003
1814.00,0.0004
1813.00,0.0005
1812.00,0.0006
1811.00,0.0006
1810.00,0.0007
1809.00,0.0008
1808.00,0.0009
1807.00,0.0009
1806.00,0.0009
1805.00,0.0009
1804.00,0.0009
1803.00,0.0009
1802.00,0.0009
1801.00,0.0009
1800.00,0.0009
1799.00,0.0009
1798.00,0.0009
1797.00,0.0008
1796.00,0.0008
1795.00,0.0008
1794.00,0.0009
1793.00,0.0010
1792.00,0.0010
1791.00,0.0011
1790.00,0.0011
1789.00,0.0011
1788.00,0.0011
1787.00,0.0011
1786.00,0.0011
1785.00,0.0012
1784.00,0.0012
1783.00,0.0012
1782.00,0.0012
1781.00,0.0013
1780.00,0.0013
1779.00,0.0013
1778.00,0.0012
1777.00,0.0012
1776.00,0.0012
1775.00,0.0012
1774.00,0.0012
1773.00,0.0012
1772.00,0.0013
1771.00,0.0014
1770.00,0.0014
1769.00,0.0014
1768.00,0.0013
1767.00,0.0013
1766.00,0.0014
1765.00,0.0015
1764.00,0.0016
1763.00,0.0017
1762.00,0.0018
1761.00,0.0018
1760.00,0.0018
1759.00,0.0018
1758.00,0.0019
1757.00,0.0019
1756.00,0.0020
1755.00,0.0020
1754.00,0.0021
1753.00,0.0021
1752.00,0.0022
1751.00,0.0022
1750.00,0.0023
1749.00,0.0024
1748.00,0.0026
1747.00,0.0027
1746.00,0.0028
1745.00,0.0029
1744.00,0.0030
1743.00,0.0030
1742.00,0.0031
1741.00,0.0032
1740.00,0.0033
1739.00,0.0034
1738.00,0.0034
1737.00,0.0034
1736.00,0.0034
1735.00,0.0035
1734.00,0.0036
1733.00,0.0037
1732.00,0.0037
1731.00,0.0037
1730.00,0.0037
1729.00,0.0037
1728.00,0.0037
1727.00,0.0036
1726.00,0.0036
1725.00,0.0036
1724.00,0.0036
1723.00,0.0036
1722.00,0.0036
1721.00,0.0036
1720.00,0.0036
1719.00,0.0035
1718.00,0.0034
1717.00,0.0034
1716.00,0.0035
1715.00,0.0036
1714.00,0.0036
1713.00,0.0037
1712.00,0.0037
1711.00,0.0036
1710.00,0.0036
1709.00,0.0037
1708.00,0.0037
1707.00,0.0038
1706.00,0.0038
1705.00,0.0038
1704.00,0.0038
1703.00,0.0038
1702.00,0.0039
1701.00,0.0041
1700.00,0.0043
1699.00,0.0045
1698.00,0.0046
1697.00,0.0047
1696.00,0.0050
1695.00,0.0053
1694.00,0.0056
1693.00,0.0057
1692.00,0.0059
1691.00,0.0061
1690.00,0.0063
1689.00,0.0066
1688.00,0.0068
1687.00,0.0071
1686.00,0.0073
1685.00,0.0076
1684.00,0.0080
1683.00,0.0084
1682.00,0.0085
1681.00,0.0087
1680.00,0.0089
1679.00,0.0091
1678.00,0.0093
1677.00,0.0096
1676.00,0.0099
1675.00,0.0101
1674.00,0.0103
1673.00,0.0104
1672.00,0.0106
1671.00,0.0108
1670.00,0.0110
1669.00,0.0112
1668.00,0.0113
1667.00,0.0114
1666.00,0.0114
1665.00,0.0114
1664.00,0.0115
1663.00,0.0117
1662.00,0.0119
1661.00,0.0121
1660.00,0.0123
1659.00,0.0123
1658.00,0.0124
1657.00,0.0124
1656.00,0.0125
1655.00,0.0126
1654.00,0.0126
1653.00,0.0128
1652.00,0.0129
1651.00,0.0130
1650.00,0.0130
1649.00,0.0131
1648.00,0.0132
1647.00,0.0133
1646.00,0.0134
1645.00,0.0134
1644.00,0.0135
1643.00,0.0135
1642.00,0.0136
1641.00,0.0136
1640.00,0.0136
1639.00,0.0137
1638.00,0.0138
1637.00,0.0138
1636.00,0.0138
1635.00,0.0137
1634.00,0.0136
1633.00,0.0135
1632.00,0.0135
1631.00,0.0134
1630.00,0.0133
1629.00,0.0132
1628.00,0.0131
1627.00,0.0131
1626.00,0.0130
1625.00,0.0130
1624.00,0.0129
1623.00,0.0128
1622.00,0.0127
1621.00,0.0126
1620.00,0.0126
1619.00,0.0125
1618.00,0.0124
1617.00,0.0124
1616.00,0.0124
1615.00,0.0123
1614.00,0.0123
1613.00,0.0123
1612.00,0.0123
1611.00,0.0123
1610.00,0.0123
1609.00,0.0123
1608.00,0.0122
1607.00,0.0122
1606.00,0.0122
1605.00,0.0121
1604.00,0.0121
1603.00,0.0121
1602.00,0.0121
1601.00,0.0121
1600.00,0.0121
1599.00,0.0121
1598.00,0.0121
1597.00,0.0121
1596.00,0.0121
1595.00,0.0121
1594.00,0.0121
1593.00,0.0121
1592.00,0.0121
1591.00,0.0122
1590.00,0.0122
1589.00,0.0123
1588.00,0.0124
1587.00,0.0126
1586.00,0.0127
1585.00,0.0130
1584.00,0.0133
1583.00,0.0136
1582.00,0.0139
1581.00,0.0142
1580.00,0.0146
1579.00,0.0148
1578.00,0.0150
1577.00,0.0151
1576.00,0.0150
1575.00,0.0149
1574.00,0.0147
1573.00,0.0146
1572.00,0.0145
1571.00,0.0143
1570.00,0.0140
1569.00,0.0138
1568.00,0.0136
1567.00,0.0135
1566.00,0.0134
1565.00,0.0133
1564.00,0.0133
1563.00,0.0133
1562.00,0.0134
1561.00,0.0135
1560.00,0.0136
1559.00,0.0136
1558.00,0.0137
1557.00,0.0138
1556.00,0.0139
1555.00,0.0140
1554.00,0.0142
1553.00,0.0143
1552.00,0.0145
1551.00,0.0147
1550.00,0.0149
1549.00,0.0152
1548.00,0.0155
1547.00,0.0158
1546.00,0.0161
1545.00,0.0164
1544.00,0.0167
1543.00,0.0170
1542.00,0.0171
1541.00,0.0171
1540.00,0.0167
1539.00,0.0161
1538.00,0.0156
1537.00,0.0151
1536.00,0.0147
1535.00,0.0142
1534.00,0.0134
1533.00,0.0127
1532.00,0.0122
1531.00,0.0119
1530.00,0.0116
1529.00,0.0114
1528.00,0.0112
1527.00,0.0109
1526.00,0.0106
1525.00,0.0104
1524.00,0.0103
1523.00,0.0102
1522.00,0.0101
1521.00,0.0101
1520.00,0.0100
1519.00,0.0100
1518.00,0.0100
1517.00,0.0100
1516.00,0.0099
1515.00,0.0099
1514.00,0.0098
1513.00,0.0098
1512.00,0.0098
1511.00,0.0098
1510.00,0.0098
1509.00,0.0098
1508.00,0.0099
1507.00,0.0098
1506.00,0.0097
1505.00,0.0098
1504.00,0.0100
1503.00,0.0101
1502.00,0.0103
1501.00,0.0105
1500.00,0.0108
1499.00,0.0111
1498.00,0.0114
1497.00,0.0118
1496.00,0.0122
1495.00,0.0124
1494.00,0.0127
1493.00,0.0131
1492.00,0.0135
1491.00,0.0140
1490.00,0.0144
1489.00,0.0150
1488.00,0.0157
1487.00,0.0162
1486.00,0.0168
1485.00,0.0174
1484.00,0.0182
1483.00,0.0191
1482.00,0.0201
1481.00,0.0212
1480.00,0.0225
1479.00,0.0238
1478.00,0.0253
1477.00,0.0272
1476.00,0.0296
1475.00,0.0324
1474.00,0.0361
1473.00,0.0415
1472.00,0.0480
1471.00,0.0542
1470.00,0.0601
1469.00,0.0663
1468.00,0.0728
1467.00,0.0798
1466.00,0.0875
1465.00,0.0957
1464.00,0.1029
1463.00,0.1078
1462.00,0.1110
1461.00,0.1132
1460.00,0.1148
1459.00,0.1160
1458.00,0.1171
1457.00,0.1182
1456.00,0.1186
1455.00,0.1182
1454.00,0.1173
1453.00,0.1159
1452.00,0.1136
1451.00,0.1102
1450.00,0.1055
1449.00,0.0990
1448.00,0.0905
1447.00,0.0814
1446.00,0.0732
1445.00,0.0662
1444.00,0.0601
1443.00,0.0551
1442.00,0.0513
1441.00,0.0487
1440.00,0.0470
1439.00,0.0462
1438.00,0.0460
1437.00,0.0458
1436.00,0.0447
1435.00,0.0423
1434.00,0.0391
1433.00,0.0352
1432.00,0.0312
1431.00,0.0275
1430.00,0.0245
1429.00,0.0224
1428.00,0.0208
1427.00,0.0199
1426.00,0.0194
1425.00,0.0188
1424.00,0.0184
1423.00,0.0180
1422.00,0.0179
1421.00,0.0176
1420.00,0.0173
1419.00,0.0170
1418.00,0.0166
1417.00,0.0162
1416.00,0.0158
1415.00,0.0155
1414.00,0.0153
1413.00,0.0150
1412.00,0.0147
1411.00,0.0144
1410.00,0.0142
1409.00,0.0140
1408.00,0.0137
1407.00,0.0136
1406.00,0.0134
1405.00,0.0132
1404.00,0.0129
1403.00,0.0128
1402.00,0.0127
1401.00,0.0126
1400.00,0.0125
1399.00,0.0124
1398.00,0.0124
1397.00,0.0123
1396.00,0.0123
1395.00,0.0124
1394.00,0.0127
1393.00,0.0130
1392.00,0.0134
1391.00,0.0141
1390.00,0.0151
1389.00,0.0164
1388.00,0.0183
1387.00,0.0212
1386.00,0.0251
1385.00,0.0302
1384.00,0.0375
1383.00,0.0477
1382.00,0.0617
1381.00,0.0796
1380.00,0.1012
1379.00,0.1247
1378.00,0.1460
1377.00,0.1601
1376.00,0.1630
1375.00,0.1530
1374.00,0.1332
1373.00,0.1103
1372.00,0.0899
1371.00,0.0732
1370.00,0.0599
1369.00,0.0498
1368.00,0.0428
1367.00,0.0384
1366.00,0.0360
1365.00,0.0350
1364.00,0.0352
1363.00,0.0362
1362.00,0.0380
1361.00,0.0398
1360.00,0.0412
1359.00,0.0417
1358.00,0.0409
1357.00,0.0389
1356.00,0.0360
1355.00,0.0327
1354.00,0.0296
1353.00,0.0268
1352.00,0.0246
1351.00,0.0227
1350.00,0.0211
1349.00,0.0198
1348.00,0.0188
1347.00,0.0179
1346.00,0.0172
1345.00,0.0166
1344.00,0.0160
1343.00,0.0154
1342.00,0.0149
1341.00,0.0145
1340.00,0.0142
1339.00,0.0139
1338.00,0.0138
1337.00,0.0137
1336.00,0.0138
1335.00,0.0140
1334.00,0.0143
1333.00,0.0147
1332.00,0.0151
1331.00,0.0154
1330.00,0.0156
1329.00,0.0156
1328.00,0.0153
1327.00,0.0148
1326.00,0.0143
1325.00,0.0138
1324.00,0.0133
1323.00,0.0128
1322.00,0.0125
1321.00,0.0122
1320.00,0.0121
1319.00,0.0119
1318.00,0.0118
1317.00,0.0117
1316.00,0.0116
1315.00,0.0115
1314.00,0.0115
1313.00,0.0116
1312.00,0.0117
1311.00,0.0120
1310.00,0.0125
1309.00,0.0133
1308.00,0.0144
1307.00,0.0157
1306.00,0.0169
1305.00,0.0176
1304.00,0.0177
1303.00,0.0173
1302.00,0.0167
1301.00,0.0160
1300.00,0.0156
1299.00,0.0154
1298.00,0.0153
1297.00,0.0152
1296.00,0.0150
1295.00,0.0148
1294.00,0.0145
1293.00,0.0140
1292.00,0.0135
1291.00,0.0130
1290.00,0.0126
1289.00,0.0121
1288.00,0.0118
1287.00,0.0115
1286.00,0.0112
1285.00,0.0110
1284.00,0.0108
1283.00,0.0107
1282.00,0.0105
1281.00,0.0103
1280.00,0.0102
1279.00,0.0101
1278.00,0.0100
1277.00,0.0099
1276.00,0.0098
1275.00,0.0097
1274.00,0.0097
1273.00,0.0096
1272.00,0.0096
1271.00,0.0095
1270.00,0.0096
1269.00,0.0097
1268.00,0.0099
1267.00,0.0101
1266.00,0.0105
1265.00,0.0108
1264.00,0.0112
1263.00,0.0116
1262.00,0.0120
1261.00,0.0125
1260.00,0.0131
1259.00,0.0138
1258.00,0.0145
1257.00,0.0150
1256.00,0.0151
1255.00,0.0147
1254.00,0.0139
1253.00,0.0128
1252.00,0.0118
1251.00,0.0110
1250.00,0.0105
1249.00,0.0102
1248.00,0.0099
1247.00,0.0097
1246.00,0.0096
1245.00,0.0094
1244.00,0.0093
1243.00,0.0092
1242.00,0.0091
1241.00,0.0090
1240.00,0.0089
1239.00,0.0089
1238.00,0.0089
1237.00,0.0090
1236.00,0.0091
1235.00,0.0092
1234.00,0.0093
1233.00,0.0095
1232.00,0.0096
1231.00,0.0098
1230.00,0.0099
1229.00,0.0101
1228.00,0.0103
1227.00,0.0107
1226.00,0.0110
1225.00,0.0115
1224.00,0.0119
1223.00,0.0123
1222.00,0.0126
1221.00,0.0129
1220.00,0.0132
1219.00,0.0133
1218.00,0.0134
1217.00,0.0133
1216.00,0.0131
1215.00,0.0128
1214.00,0.0124
1213.00,0.0121
1212.00,0.0118
1211.00,0.0116
1210.00,0.0114
1209.00,0.0113
1208.00,0.0112
1207.00,0.0111
1206.00,0.0111
1205.00,0.0110
1204.00,0.0110
1203.00,0.0110
1202.00,0.0111
1201.00,0.0111
1200.00,0.0112
1199.00,0.0112
1198.00,0.0111
1197.00,0.0111
1196.00,0.0111
1195.00,0.0112
1194.00,0.0112
1193.00,0.0112
1192.00,0.0112
1191.00,0.0111
1190.00,0.0111
1189.00,0.0110
1188.00,0.0109
1187.00,0.0108
1186.00,0.0107
1185.00,0.0107
1184.00,0.0106
1183.00,0.0106
1182.00,0.0108
1181.00,0.0110
1180.00,0.0112
1179.00,0.0116
1178.00,0.0121
1177.00,0.0129
1176.00,0.0139
1175.00,0.0155
1174.00,0.0175
1173.00,0.0202
1172.00,0.0233
1171.00,0.0267
1170.00,0.0300
1169.00,0.0327
1168.00,0.0343
1167.00,0.0345
1166.00,0.0336
1165.00,0.0318
1164.00,0.0298
1163.00,0.0278
1162.00,0.0260
1161.00,0.0245
1160.00,0.0232
1159.00,0.0223
1158.00,0.0215
1157.00,0.0209
1156.00,0.0205
1155.00,0.0203
1154.00,0.0201
1153.00,0.0199
1152.00,0.0195
1151.00,0.0190
1150.00,0.0183
1149.00,0.0176
1148.00,0.0169
1147.00,0.0161
1146.00,0.0154
1145.00,0.0148
1144.00,0.0142
1143.00,0.0137
1142.00,0.0132
1141.00,0.0128
1140.00,0.0125
1139.00,0.0123
1138.00,0.0121
1137.00,0.0119
1136.00,0.0117
1135.00,0.0117
1134.00,0.0116
1133.00,0.0116
1132.00,0.0117
1131.00,0.0118
1130.00,0.0120
1129.00,0.0122
1128.00,0.0125
1127.00,0.0128
1126.00,0.0131
1125.00,0.0133
1124.00,0.0135
1123.00,0.0137
1122.00,0.0139
1121.00,0.0141
1120.00,0.0144
1119.00,0.0147
1118.00,0.0149
1117.00,0.0152
1116.00,0.0154
1115.00,0.0155
1114.00,0.0157
1113.00,0.0158
1112.00,0.0160
1111.00,0.0162
1110.00,0.0164
1109.00,0.0168
1108.00,0.0172
1107.00,0.0177
1106.00,0.0182
1105.00,0.0186
1104.00,0.0189
1103.00,0.0191
1102.00,0.0190
1101.00,0.0187
1100.00,0.0181
1099.00,0.0174
1098.00,0.0166
1097.00,0.0160
1096.00,0.0154
1095.00,0.0149
1094.00,0.0145
1093.00,0.0141
1092.00,0.0136
1091.00,0.0132
1090.00,0.0129
1089.00,0.0127
1088.00,0.0125
1087.00,0.0124
1086.00,0.0123
1085.00,0.0123
1084.00,0.0122
1083.00,0.0121
1082.00,0.0120
1081.00,0.0118
1080.00,0.0116
1079.00,0.0114
1078.00,0.0112
1077.00,0.0110
1076.00,0.0108
1075.00,0.0106
1074.00,0.0104
1073.00,0.0103
1072.00,0.0102
1071.00,0.0101
1070.00,0.0102
1069.00,0.0103
1068.00,0.0104
1067.00,0.0105
1066.00,0.0106
1065.00,0.0106
1064.00,0.0107
1063.00,0.0107
1062.00,0.0108
1061.00,0.0109
1060.00,0.0110
1059.00,0.0112
1058.00,0.0113
1057.00,0.0115
1056.00,0.0116
1055.00,0.0118
1054.00,0.0121
1053.00,0.0125
1052.00,0.0129
1051.00,0.0135
1050.00,0.0141
1049.00,0.0149
1048.00,0.0156
1047.00,0.0162
1046.00,0.0167
1045.00,0.0170
1044.00,0.0171
1043.00,0.0171
1042.00,0.0169
1041.00,0.0166
1040.00,0.0165
1039.00,0.0164
1038.00,0.0165
1037.00,0.0165
1036.00,0.0166
1035.00,0.0165
1034.00,0.0163
1033.00,0.0161
1032.00,0.0158
1031.00,0.0156
1030.00,0.0155
1029.00,0.0154
1028.00,0.0154
1027.00,0.0154
1026.00,0.0155
1025.00,0.0157
1024.00,0.0158
1023.00,0.0161
1022.00,0.0163
1021.00,0.0166
1020.00,0.0168
1019.00,0.0169
1018.00,0.0169
1017.00,0.0169
1016.00,0.0170
1015.00,0.0170
1014.00,0.0170
1013.00,0.0171
1012.00,0.0171
1011.00,0.0171
1010.00,0.0171
1009.00,0.0171
1008.00,0.0173
1007.00,0.0176
1006.00,0.0183
1005.00,0.0193
1004.00,0.0209
1003.00,0.0233
1002.00,0.0267
1001.00,0.0309
1000.00,0.0354
999.00,0.0393
998.00,0.0413
997.00,0.0408
996.00,0.0378
995.00,0.0334
994.00,0.0286
993.00,0.0243
992.00,0.0210
991.00,0.0186
990.00,0.0169
989.00,0.0158
988.00,0.0150
987.00,0.0145
986.00,0.0143
985.00,0.0143
984.00,0.0145
983.00,0.0151
982.00,0.0161
981.00,0.0176
980.00,0.0196
979.00,0.0223
978.00,0.0259
977.00,0.0303
976.00,0.0351
975.00,0.0397
974.00,0.0431
973.00,0.0444
972.00,0.0428
971.00,0.0387
970.00,0.0330
969.00,0.0270
968.00,0.0219
967.00,0.0180
966.00,0.0152
965.00,0.0132
964.00,0.0117
963.00,0.0106
962.00,0.0099
961.00,0.0093
960.00,0.0087
959.00,0.0081
958.00,0.0076
957.00,0.0071
956.00,0.0068
955.00,0.0066
954.00,0.0064
953.00,0.0061
952.00,0.0060
951.00,0.0060
950.00,0.0060
949.00,0.0061
948.00,0.0061
947.00,0.0062
946.00,0.0064
945.00,0.0067
944.00,0.0070
943.00,0.0074
942.00,0.0077
941.00,0.0080
940.00,0.0082
939.00,0.0081
938.00,0.0078
937.00,0.0075
936.00,0.0072
935.00,0.0071
934.00,0.0070
933.00,0.0071
932.00,0.0072
931.00,0.0072
930.00,0.0073
929.00,0.0073
928.00,0.0072
927.00,0.0073
926.00,0.0073
925.00,0.0074
924.00,0.0076
923.00,0.0078
922.00,0.0079
921.00,0.0079
920.00,0.0079
919.00,0.0078
918.00,0.0078
917.00,0.0078
916.00,0.0080
915.00,0.0081
914.00,0.0083
913.00,0.0084
912.00,0.0084
911.00,0.0085
910.00,0.0086
909.00,0.0088
908.00,0.0091
907.00,0.0096
906.00,0.0102
905.00,0.0111
904.00,0.0123
903.00,0.0138
902.00,0.0156
901.00,0.0171
900.00,0.0181
899.00,0.0183
898.00,0.0176
897.00,0.0162
896.00,0.0145
895.00,0.0130
894.00,0.0118
893.00,0.0109
892.00,0.0102
891.00,0.0098
890.00,0.0096
889.00,0.0094
888.00,0.0093
887.00,0.0092
886.00,0.0092
885.00,0.0091
884.00,0.0091
883.00,0.0091
882.00,0.0092
881.00,0.0094
880.00,0.0096
879.00,0.0097
878.00,0.0099
877.00,0.0100
876.00,0.0100
875.00,0.0101
874.00,0.0101
873.00,0.0100
872.00,0.0099
871.00,0.0097
870.00,0.0096
869.00,0.0094
868.00,0.0094
867.00,0.0094
866.00,0.0095
865.00,0.0097
864.00,0.0099
863.00,0.0101
862.00,0.0102
861.00,0.0102
860.00,0.0102
859.00,0.0102
858.00,0.0104
857.00,0.0106
856.00,0.0108
855.00,0.0110
854.00,0.0113
853.00,0.0115
852.00,0.0118
851.00,0.0121
850.00,0.0126
849.00,0.0132
848.00,0.0141
847.00,0.0155
846.00,0.0180
845.00,0.0218
844.00,0.0272
843.00,0.0335
842.00,0.0388
841.00,0.0409
840.00,0.0387
839.00,0.0332
838.00,0.0268
837.00,0.0215
836.00,0.0179
835.00,0.0157
834.00,0.0144
833.00,0.0136
832.00,0.0130
831.00,0.0124
830.00,0.0120
829.00,0.0117
828.00,0.0115
827.00,0.0114
826.00,0.0113
825.00,0.0113
824.00,0.0113
823.00,0.0113
822.00,0.0114
821.00,0.0116
820.00,0.0118
819.00,0.0122
818.00,0.0127
817.00,0.0133
816.00,0.0140
815.00,0.0149
814.00,0.0161
813.00,0.0178
812.00,0.0196
811.00,0.0213
810.00,0.0225
809.00,0.0230
808.00,0.0227
807.00,0.0217
806.00,0.0201
805.00,0.0185
804.00,0.0171
803.00,0.0159
802.00,0.0150
801.00,0.0143
800.00,0.0136
799.00,0.0131
798.00,0.0125
797.00,0.0121
796.00,0.0118
795.00,0.0115
794.00,0.0112
793.00,0.0110
792.00,0.0108
791.00,0.0106
790.00,0.0104
789.00,0.0102
788.00,0.0099
787.00,0.0096
786.00,0.0095
785.00,0.0094
784.00,0.0094
783.00,0.0094
782.00,0.0093
781.00,0.0093
780.00,0.0092
779.00,0.0090
778.00,0.0089
777.00,0.0088
776.00,0.0087
775.00,0.0087
774.00,0.0087
773.00,0.0087
772.00,0.0088
771.00,0.0090
770.00,0.0091
769.00,0.0091
768.00,0.0091
767.00,0.0091
766.00,0.0092
765.00,0.0093
764.00,0.0092
763.00,0.0091
762.00,0.0090
761.00,0.0088
760.00,0.0087
759.00,0.0087
758.00,0.0090
757.00,0.0093
756.00,0.0095
755.00,0.0096
754.00,0.0096
753.00,0.0097
752.00,0.0098
751.00,0.0100
750.00,0.0101
749.00,0.0102
748.00,0.0103
747.00,0.0105
746.00,0.0108
745.00,0.0111
744.00,0.0115
743.00,0.0118
742.00,0.0122
741.00,0.0127
740.00,0.0131
739.00,0.0137
738.00,0.0142
737.00,0.0147
736.00,0.0152
735.00,0.0156
734.00,0.0161
733.00,0.0167
732.00,0.0173
731.00,0.0180
730.00,0.0185
729.00,0.0188
728.00,0.0190
727.00,0.0191
726.00,0.0193
725.00,0.0196
724.00,0.0201
723.00,0.0206
722.00,0.0211
721.00,0.0214
720.00,0.0213
719.00,0.0206
718.00,0.0195
717.00,0.0183
716.00,0.0171
715.00,0.0161
714.00,0.0154
713.00,0.0148
712.00,0.0144
711.00,0.0142
710.00,0.0140
709.00,0.0139
708.00,0.0137
707.00,0.0137
706.00,0.0137
705.00,0.0138
704.00,0.0137
703.00,0.0135
702.00,0.0133
701.00,0.0131
700.00,0.0130
699.00,0.0129
698.00,0.0128
697.00,0.0126
696.00,0.0124
695.00,0.0122
694.00,0.0121
693.00,0.0121
692.00,0.0122
691.00,0.0124
690.00,0.0125
689.00,0.0125
688.00,0.0123
687.00,0.0121
686.00,0.0120
685.00,0.0121
684.00,0.0122
683.00,0.0122
682.00,0.0123
681.00,0.0123
680.00,0.0124
679.00,0.0124
678.00,0.0125
677.00,0.0126
676.00,0.0128
675.00,0.0130
674.00,0.0133
673.00,0.0136
672.00,0.0137
671.00,0.0138
670.00,0.0138
669.00,0.0136
668.00,0.0132
667.00,0.0128
666.00,0.0126
665.00,0.0124
664.00,0.0123
663.00,0.0122
662.00,0.0121
661.00,0.0120
660.00,0.0121
659.00,0.0120
658.00,0.0118
657.00,0.0117
656.00,0.0116
655.00,0.0117
654.00,0.0118
653.00,0.0118
652.00,0.0116
651.00,0.0113
650.00,0.0111
649.00,0.0110
648.00,0.0111
647.00,0.0111
646.00,0.0112
645.00,0.0114
644.00,0.0116
643.00,0.0117
642.00,0.0116
641.00,0.0113
640.00,0.0110
639.00,0.0108
638.00,0.0107
637.00,0.0108
636.00,0.0108
635.00,0.0108
634.00,0.0108
633.00,0.0109
632.00,0.0111
631.00,0.0114
630.00,0.0114
629.00,0.0114
628.00,0.0113
627.00,0.0113
626.00,0.0113
625.00,0.0114
624.00,0.0115
623.00,0.0117
622.00,0.0117
621.00,0.0116
620.00,0.0114
619.00,0.0113
618.00,0.0114
617.00,0.0116
616.00,0.0117
615.00,0.0116
614.00,0.0114
613.00,0.0113
612.00,0.0113
611.00,0.0113
610.00,0.0113
609.00,0.0113
608.00,0.0114
607.00,0.0115
606.00,0.0116
605.00,0.0116
604.00,0.0115
603.00,0.0115
602.00,0.0117
601.00,0.0119
600.00,0.0119
599.00,0.0118
598.00,0.0114
597.00,0.0111
596.00,0.0112
595.00,0.0114
594.00,0.0117
593.00,0.0118
592.00,0.0116
591.00,0.0114
590.00,0.0113
589.00,0.0115
588.00,0.0117
587.00,0.0118
586.00,0.0117
585.00,0.0116
584.00,0.0117
583.00,0.0120
582.00,0.0122
581.00,0.0122
580.00,0.0120
579.00,0.0119
578.00,0.0119
577.00,0.0120
576.00,0.0121
575.00,0.0121
574.00,0.0119
573.00,0.0117
572.00,0.0116
571.00,0.0119
570.00,0.0122
569.00,0.0126
568.00,0.0129
567.00,0.0132
566.00,0.0132
565.00,0.0129
564.00,0.0124
563.00,0.0117
562.00,0.0113
561.00,0.0111
560.00,0.0113
559.00,0.0116
558.00,0.0117
557.00,0.0116
556.00,0.0113
555.00,0.0113
554.00,0.0115
553.00,0.0118
552.00,0.0121
551.00,0.0123
550.00,0.0122
549.00,0.0121
548.00,0.0122
547.00,0.0126
546.00,0.0131
545.00,0.0132
544.00,0.0128
543.00,0.0122
542.00,0.0118
541.00,0.0117
540.00,0.0120
539.00,0.0128
538.00,0.0136
537.00,0.0142
536.00,0.0144
535.00,0.0142
534.00,0.0141
533.00,0.0142
532.00,0.0143
531.00,0.0143
530.00,0.0140
529.00,0.0135
528.00,0.0130
527.00,0.0127
526.00,0.0126
525.00,0.0126
524.00,0.0125
523.00,0.0121
522.00,0.0117
521.00,0.0113
520.00,0.0109
519.00,0.0105
518.00,0.0102
517.00,0.0102
516.00,0.0103
515.00,0.0105
514.00,0.0105
513.00,0.0104
512.00,0.0104
511.00,0.0106
510.00,0.0109
509.00,0.0112
508.00,0.0115
507.00,0.0115
506.00,0.0115
505.00,0.0114
504.00,0.0115
503.00,0.0117
502.00,0.0115
501.00,0.0112
500.00,0.0110
499.00,0.0111
498.00,0.0113
497.00,0.0111
496.00,0.0105
495.00,0.0099
494.00,0.0098
493.00,0.0100
492.00,0.0105
491.00,0.0110
490.00,0.0115
489.00,0.0119
488.00,0.0119
487.00,0.0114
486.00,0.0108
485.00,0.0104
484.00,0.0102
483.00,0.0101
482.00,0.0100
481.00,0.0103
480.00,0.0111
479.00,0.0122
478.00,0.0131
477.00,0.0137
476.00,0.0139
475.00,0.0140
474.00,0.0140
473.00,0.0141
472.00,0.0146
471.00,0.0156
470.00,0.0169
469.00,0.0182
468.00,0.0193
467.00,0.0202
466.00,0.0208
465.00,0.0208
464.00,0.0202
463.00,0.0195
462.00,0.0193
461.00,0.0199
460.00,0.0210
459.00,0.0221
458.00,0.0227
457.00,0.0224
456.00,0.0215
455.00,0.0203
454.00,0.0193
453.00,0.0184
452.00,0.0178
451.00,0.0176
450.00,0.0178
