Created as New Dataset,Sample 048 By Administrator Date Friday, September 05 2025
cm-1,A
4000.00,0.0009
3999.00,0.0009
3998.00,0.0009
3997.00,0.0009
3996.00,0.0009
3995.00,0.0010
3994.00,0.0010
3993.00,0.0010
3992.00,0.0010
3991.00,0.0010
3990.00,0.0010
3989.00,0.0010
3988.00,0.0010
3987.00,0.0010
3986.00,0.0009
3985.00,0.0009
3984.00,0.0009
3983.00,0.0009
3982.00,0.0008
3981.00,0.0008
3980.00,0.0008
3979.00,0.0008
3978.00,0.0009
3977.00,0.0009
3976.00,0.0009
3975.00,0.0009
3974.00,0.0008
3973.00,0.0008
3972.00,0.0008
3971.00,0.0008
3970.00,0.0008
3969.00,0.0007
3968.00,0.0007
3967.00,0.0007
3966.00,0.0007
3965.00,0.0007
3964.00,0.0007
3963.00,0.0007
3962.00,0.0007
3961.00,0.0007
3960.00,0.0008
3959.00,0.0008
3958.00,0.0008
3957.00,0.0008
3956.00,0.0008
3955.00,0.0008
3954.00,0.0008
3953.00,0.0008
3952.00,0.0008
3951.00,0.0008
3950.00,0.0008
3949.00,0.0008
3948.00,0.0008
3947.00,0.0008
3946.00,0.0008
3945.00,0.0008
3944.00,0.0008
3943.00,0.0008
3942.00,0.0008
3941.00,0.0007
3940.00,0.0007
3939.00,0.0007
3938.00,0.0008
3937.00,0.0008
3936.00,0.0008
3935.00,0.0008
3934.00,0.0008
3933.00,0.0008
3932.00,0.0008
3931.00,0.0008
3930.00,0.0007
3929.00,0.0007
3928.00,0.0007
3927.00,0.0007
3926.00,0.0007
3925.00,0.0008
3924.00,0.0008
3923.00,0.0008
3922.00,0.0008
3921.00,0.0009
3920.00,0.0008
3919.00,0.0008
3918.00,0.0008
3917.00,0.0008
3916.00,0.0008
3915.00,0.0007
3914.00,0.0007
3913.00,0.0008
3912.00,0.0008
3911.00,0.0008
3910.00,0.0008
3909.00,0.0008
3908.00,0.0008
3907.00,0.0008
3906.00,0.0008
3905.00,0.0007
3904.00,0.0007
3903.00,0.0007
3902.00,0.0007
3901.00,0.0007
3900.00,0.0007
3899.00,0.0007
3898.00,0.0007
3897.00,0.0008
3896.00,0.0008
3895.00,0.0008
3894.00,0.0008
3893.00,0.0008
3892.00,0.0008
3891.00,0.0007
3890.00,0.0007
3889.00,0.0007
3888.00,0.0007
3887.00,0.0007
3886.00,0.0007
3885.00,0.0007
3884.00,0.0007
3883.00,0.0008
3882.00,0.0008
3881.00,0.0008
3880.00,0.0008
3879.00,0.0008
3878.00,0.0007
3877.00,0.0007
3876.00,0.0007
3875.00,0.0007
3874.00,0.0007
3873.00,0.0006
3872.00,0.0007
3871.00,0.0007
3870.00,0.0007
3869.00,0.0006
3868.00,0.0006
3867.00,0.0007
3866.00,0.0007
3865.00,0.0008
3864.00,0.0008
3863.00,0.0007
3862.00,0.0007
3861.00,0.0007
3860.00,0.0006
3859.00,0.0006
3858.00,0.0006
3857.00,0.0005
3856.00,0.0004
3855.00,0.0004
3854.00,0.0004
3853.00,0.0004
3852.00,0.0004
3851.00,0.0005
3850.00,0.0005
3849.00,0.0005
3848.00,0.0006
3847.00,0.0006
3846.00,0.0007
3845.00,0.0007
3844.00,0.0007
3843.00,0.0007
3842.00,0.0007
3841.00,0.0007
3840.00,0.0007
3839.00,0.0007
3838.00,0.0006
3837.00,0.0005
3836.00,0.0005
3835.00,0.0006
3834.00,0.0006
3833.00,0.0006
3832.00,0.0007
3831.00,0.0007
3830.00,0.0008
3829.00,0.0008
3828.00,0.0008
3827.00,0.0007
3826.00,0.0007
3825.00,0.0007
3824.00,0.0006
3823.00,0.0006
3822.00,0.0007
3821.00,0.0007
3820.00,0.0007
3819.00,0.0007
3818.00,0.0006
3817.00,0.0006
3816.00,0.0006
3815.00,0.0006
3814.00,0.0006
3813.00,0.0007
3812.00,0.0007
3811.00,0.0007
3810.00,0.0007
3809.00,0.0007
3808.00,0.0007
3807.00,0.0007
3806.00,0.0006
3805.00,0.0006
3804.00,0.0006
3803.00,0.0006
3802.00,0.0006
3801.00,0.0005
3800.00,0.0005
3799.00,0.0005
3798.00,0.0005
3797.00,0.0006
3796.00,0.0006
3795.00,0.0007
3794.00,0.0007
3793.00,0.0007
3792.00,0.0007
3791.00,0.0007
3790.00,0.0007
3789.00,0.0007
3788.00,0.0008
3787.00,0.0008
3786.00,0.0008
3785.00,0.0008
3784.00,0.0007
3783.00,0.0007
3782.00,0.0007
3781.00,0.0007
3780.00,0.0007
3779.00,0.0007
3778.00,0.0007
3777.00,0.0008
3776.00,0.0008
3775.00,0.0007
3774.00,0.0007
3773.00,0.0007
3772.00,0.0006
3771.00,0.0006
3770.00,0.0006
3769.00,0.0006
3768.00,0.0006
3767.00,0.0007
3766.00,0.0007
3765.00,0.0007
3764.00,0.0007
3763.00,0.0008
3762.00,0.0008
3761.00,0.0008
3760.00,0.0008
3759.00,0.0007
3758.00,0.0007
3757.00,0.0007
3756.00,0.0007
3755.00,0.0006
3754.00,0.0006
3753.00,0.0006
3752.00,0.0005
3751.00,0.0005
3750.00,0.0005
3749.00,0.0005
3748.00,0.0005
3747.00,0.0005
3746.00,0.0005
3745.00,0.0005
3744.00,0.0006
3743.00,0.0007
3742.00,0.0007
3741.00,0.0008
3740.00,0.0008
3739.00,0.0008
3738.00,0.0008
3737.00,0.0007
3736.00,0.0006
3735.00,0.0006
3734.00,0.0005
3733.00,0.0005
3732.00,0.0005
3731.00,0.0006
3730.00,0.0006
3729.00,0.0006
3728.00,0.0006
3727.00,0.0006
3726.00,0.0006
3725.00,0.0006
3724.00,0.0006
3723.00,0.0006
3722.00,0.0006
3721.00,0.0006
3720.00,0.0006
3719.00,0.0006
3718.00,0.0006
3717.00,0.0006
3716.00,0.0006
3715.00,0.0005
3714.00,0.0005
3713.00,0.0005
3712.00,0.0005
3711.00,0.0005
3710.00,0.0005
3709.00,0.0005
3708.00,0.0006
3707.00,0.0006
3706.00,0.0007
3705.00,0.0007
3704.00,0.0007
3703.00,0.0007
3702.00,0.0007
3701.00,0.0007
3700.00,0.0007
3699.00,0.0007
3698.00,0.0007
3697.00,0.0007
3696.00,0.0007
3695.00,0.0007
3694.00,0.0007
3693.00,0.0007
3692.00,0.0006
3691.00,0.0006
3690.00,0.0006
3689.00,0.0006
3688.00,0.0006
3687.00,0.0006
3686.00,0.0006
3685.00,0.0006
3684.00,0.0006
3683.00,0.0006
3682.00,0.0006
3681.00,0.0006
3680.00,0.0006
3679.00,0.0007
3678.00,0.0007
3677.00,0.0008
3676.00,0.0007
3675.00,0.0006
3674.00,0.0005
3673.00,0.0005
3672.00,0.0005
3671.00,0.0005
3670.00,0.0005
3669.00,0.0005
3668.00,0.0005
3667.00,0.0005
3666.00,0.0006
3665.00,0.0006
3664.00,0.0006
3663.00,0.0006
3662.00,0.0006
3661.00,0.0005
3660.00,0.0005
3659.00,0.0005
3658.00,0.0005
3657.00,0.0005
3656.00,0.0005
3655.00,0.0005
3654.00,0.0005
3653.00,0.0005
3652.00,0.0006
3651.00,0.0006
3650.00,0.0007
3649.00,0.0007
3648.00,0.0007
3647.00,0.0007
3646.00,0.0008
3645.00,0.0008
3644.00,0.0008
3643.00,0.0008
3642.00,0.0008
3641.00,0.0008
3640.00,0.0008
3639.00,0.0008
3638.00,0.0009
3637.00,0.0009
3636.00,0.0009
3635.00,0.0009
3634.00,0.0009
3633.00,0.0009
3632.00,0.0010
3631.00,0.0010
3630.00,0.0010
3629.00,0.0010
3628.00,0.0010
3627.00,0.0010
3626.00,0.0010
3625.00,0.0011
3624.00,0.0011
3623.00,0.0012
3622.00,0.0013
3621.00,0.0013
3620.00,0.0014
3619.00,0.0014
3618.00,0.0013
3617.00,0.0013
3616.00,0.0013
3615.00,0.0014
3614.00,0.0014
3613.00,0.0015
3612.00,0.0015
3611.00,0.0015
3610.00,0.0016
3609.00,0.0016
3608.00,0.0016
3607.00,0.0017
3606.00,0.0017
3605.00,0.0017
3604.00,0.0018
3603.00,0.0018
3602.00,0.0019
3601.00,0.0020
3600.00,0.0019
3599.00,0.0019
3598.00,0.0019
3597.00,0.0019
3596.00,0.0020
3595.00,0.0020
3594.00,0.0021
3593.00,0.0021
3592.00,0.0021
3591.00,0.0021
3590.00,0.0021
3589.00,0.0021
3588.00,0.0021
3587.00,0.0021
3586.00,0.0022
3585.00,0.0022
3584.00,0.0023
3583.00,0.0023
3582.00,0.0023
3581.00,0.0023
3580.00,0.0023
3579.00,0.0023
3578.00,0.0023
3577.00,0.0023
3576.00,0.0024
3575.00,0.0024
3574.00,0.0024
3573.00,0.0025
3572.00,0.0026
3571.00,0.0027
3570.00,0.0028
3569.00,0.0029
3568.00,0.0030
3567.00,0.0030
3566.00,0.0030
3565.00,0.0029
3564.00,0.0029
3563.00,0.0029
3562.00,0.0029
3561.00,0.0029
3560.00,0.0030
3559.00,0.0030
3558.00,0.0031
3557.00,0.0032
3556.00,0.0032
3555.00,0.0032
3554.00,0.0032
3553.00,0.0032
3552.00,0.0032
3551.00,0.0032
3550.00,0.0033
3549.00,0.0033
3548.00,0.0034
3547.00,0.0035
3546.00,0.0035
3545.00,0.0035
3544.00,0.0035
3543.00,0.0035
3542.00,0.0036
3541.00,0.0036
3540.00,0.0037
3539.00,0.0037
3538.00,0.0038
3537.00,0.0038
3536.00,0.0038
3535.00,0.0038
3534.00,0.0038
3533.00,0.0039
3532.00,0.0039
3531.00,0.0039
3530.00,0.0040
3529.00,0.0040
3528.00,0.0041
3527.00,0.0041
3526.00,0.0041
3525.00,0.0041
3524.00,0.0042
3523.00,0.0042
3522.00,0.0042
3521.00,0.0042
3520.00,0.0042
3519.00,0.0042
3518.00,0.0042
3517.00,0.0043
3516.00,0.0044
3515.00,0.0044
3514.00,0.0044
3513.00,0.0044
3512.00,0.0044
3511.00,0.0045
3510.00,0.0045
3509.00,0.0045
3508.00,0.0046
3507.00,0.0046
3506.00,0.0046
3505.00,0.0047
3504.00,0.0047
3503.00,0.0047
3502.00,0.0047
3501.00,0.0047
3500.00,0.0048
3499.00,0.0048
3498.00,0.0048
3497.00,0.0049
3496.00,0.0049
3495.00,0.0050
3494.00,0.0050
3493.00,0.0050
3492.00,0.0050
3491.00,0.0050
3490.00,0.0051
3489.00,0.0052
3488.00,0.0052
3487.00,0.0053
3486.00,0.0054
3485.00,0.0054
3484.00,0.0054
3483.00,0.0054
3482.00,0.0054
3481.00,0.0054
3480.00,0.0054
3479.00,0.0055
3478.00,0.0055
3477.00,0.0056
3476.00,0.0056
3475.00,0.0056
3474.00,0.0056
3473.00,0.0057
3472.00,0.0057
3471.00,0.0057
3470.00,0.0058
3469.00,0.0058
3468.00,0.0058
3467.00,0.0058
3466.00,0.0058
3465.00,0.0058
3464.00,0.0058
3463.00,0.0059
3462.00,0.0059
3461.00,0.0060
3460.00,0.0060
3459.00,0.0060
3458.00,0.0060
3457.00,0.0060
3456.00,0.0061
3455.00,0.0061
3454.00,0.0061
3453.00,0.0061
3452.00,0.0061
3451.00,0.0061
3450.00,0.0061
3449.00,0.0061
3448.00,0.0062
3447.00,0.0062
3446.00,0.0062
3445.00,0.0063
3444.00,0.0063
3443.00,0.0064
3442.00,0.0064
3441.00,0.0064
3440.00,0.0065
3439.00,0.0065
3438.00,0.0065
3437.00,0.0065
3436.00,0.0065
3435.00,0.0066
3434.00,0.0066
3433.00,0.0066
3432.00,0.0067
3431.00,0.0067
3430.00,0.0067
3429.00,0.0068
3428.00,0.0068
3427.00,0.0068
3426.00,0.0068
3425.00,0.0068
3424.00,0.0069
3423.00,0.0069
3422.00,0.0069
3421.00,0.0070
3420.00,0.0070
3419.00,0.0070
3418.00,0.0070
3417.00,0.0070
3416.00,0.0070
3415.00,0.0070
3414.00,0.0070
3413.00,0.0071
3412.00,0.0071
3411.00,0.0071
3410.00,0.0071
3409.00,0.0071
3408.00,0.0071
3407.00,0.0071
3406.00,0.0071
3405.00,0.0071
3404.00,0.0071
3403.00,0.0072
3402.00,0.0072
3401.00,0.0073
3400.00,0.0073
3399.00,0.0073
3398.00,0.0073
3397.00,0.0073
3396.00,0.0073
3395.00,0.0073
3394.00,0.0073
3393.00,0.0073
3392.00,0.0073
3391.00,0.0073
3390.00,0.0073
3389.00,0.0073
3388.00,0.0073
3387.00,0.0074
3386.00,0.0074
3385.00,0.0074
3384.00,0.0075
3383.00,0.0075
3382.00,0.0075
3381.00,0.0075
3380.00,0.0076
3379.00,0.0076
3378.00,0.0076
3377.00,0.0075
3376.00,0.0075
3375.00,0.0075
3374.00,0.0075
3373.00,0.0075
3372.00,0.0076
3371.00,0.0076
3370.00,0.0076
3369.00,0.0076
3368.00,0.0075
3367.00,0.0075
3366.00,0.0076
3365.00,0.0076
3364.00,0.0076
3363.00,0.0077
3362.00,0.0077
3361.00,0.0076
3360.00,0.0076
3359.00,0.0076
3358.00,0.0076
3357.00,0.0076
3356.00,0.0077
3355.00,0.0077
3354.00,0.0077
3353.00,0.0076
3352.00,0.0076
3351.00,0.0076
3350.00,0.0076
3349.00,0.0076
3348.00,0.0076
3347.00,0.0076
3346.00,0.0076
3345.00,0.0076
3344.00,0.0076
3343.00,0.0076
3342.00,0.0076
3341.00,0.0077
3340.00,0.0077
3339.00,0.0077
3338.00,0.0077
3337.00,0.0077
3336.00,0.0076
3335.00,0.0075
3334.00,0.0075
3333.00,0.0075
3332.00,0.0075
3331.00,0.0075
3330.00,0.0075
3329.00,0.0074
3328.00,0.0074
3327.00,0.0074
3326.00,0.0074
3325.00,0.0074
3324.00,0.0074
3323.00,0.0074
3322.00,0.0074
3321.00,0.0074
3320.00,0.0074
3319.00,0.0074
3318.00,0.0074
3317.00,0.0074
3316.00,0.0074
3315.00,0.0073
3314.00,0.0073
3313.00,0.0074
3312.00,0.0074
3311.00,0.0075
3310.00,0.0075
3309.00,0.0075
3308.00,0.0075
3307.00,0.0075
3306.00,0.0075
3305.00,0.0075
3304.00,0.0075
3303.00,0.0075
3302.00,0.0075
3301.00,0.0075
3300.00,0.0075
3299.00,0.0075
3298.00,0.0074
3297.00,0.0074
3296.00,0.0073
3295.00,0.0073
3294.00,0.0072
3293.00,0.0072
3292.00,0.0071
3291.00,0.0071
3290.00,0.0071
3289.00,0.0070
3288.00,0.0070
3287.00,0.0069
3286.00,0.0069
3285.00,0.0069
3284.00,0.0069
3283.00,0.0069
3282.00,0.0069
3281.00,0.0069
3280.00,0.0069
3279.00,0.0068
3278.00,0.0068
3277.00,0.0067
3276.00,0.0067
3275.00,0.0067
3274.00,0.0067
3273.00,0.0067
3272.00,0.0067
3271.00,0.0067
3270.00,0.0066
3269.00,0.0066
3268.00,0.0066
3267.00,0.0066
3266.00,0.0065
3265.00,0.0065
3264.00,0.0065
3263.00,0.0064
3262.00,0.0064
3261.00,0.0063
3260.00,0.0063
3259.00,0.0063
3258.00,0.0063
3257.00,0.0063
3256.00,0.0063
3255.00,0.0062
3254.00,0.0061
3253.00,0.0061
3252.00,0.0060
3251.00,0.0060
3250.00,0.0060
3249.00,0.0059
3248.00,0.0059
3247.00,0.0059
3246.00,0.0059
3245.00,0.0059
3244.00,0.0059
3243.00,0.0059
3242.00,0.0059
3241.00,0.0059
3240.00,0.0059
3239.00,0.0059
3238.00,0.0059
3237.00,0.0059
3236.00,0.0059
3235.00,0.0059
3234.00,0.0058
3233.00,0.0058
3232.00,0.0058
3231.00,0.0058
3230.00,0.0058
3229.00,0.0058
3228.00,0.0058
3227.00,0.0059
3226.00,0.0059
3225.00,0.0059
3224.00,0.0059
3223.00,0.0059
3222.00,0.0059
3221.00,0.0059
3220.00,0.0059
3219.00,0.0059
3218.00,0.0059
3217.00,0.0059
3216.00,0.0059
3215.00,0.0060
3214.00,0.0060
3213.00,0.0061
3212.00,0.0061
3211.00,0.0061
3210.00,0.0061
3209.00,0.0060
3208.00,0.0060
3207.00,0.0060
3206.00,0.0059
3205.00,0.0059
3204.00,0.0059
3203.00,0.0059
3202.00,0.0059
3201.00,0.0059
3200.00,0.0059
3199.00,0.0060
3198.00,0.0060
3197.00,0.0059
3196.00,0.0059
3195.00,0.0059
3194.00,0.0059
3193.00,0.0059
3192.00,0.0058
3191.00,0.0058
3190.00,0.0057
3189.00,0.0057
3188.00,0.0057
3187.00,0.0057
3186.00,0.0057
3185.00,0.0057
3184.00,0.0057
3183.00,0.0057
3182.00,0.0057
3181.00,0.0057
3180.00,0.0056
3179.00,0.0056
3178.00,0.0055
3177.00,0.0055
3176.00,0.0055
3175.00,0.0054
3174.00,0.0054
3173.00,0.0053
3172.00,0.0053
3171.00,0.0053
3170.00,0.0053
3169.00,0.0053
3168.00,0.0053
3167.00,0.0053
3166.00,0.0053
3165.00,0.0053
3164.00,0.0053
3163.00,0.0053
3162.00,0.0052
3161.00,0.0052
3160.00,0.0051
3159.00,0.0051
3158.00,0.0051
3157.00,0.0051
3156.00,0.0051
3155.00,0.0050
3154.00,0.0050
3153.00,0.0051
3152.00,0.0051
3151.00,0.0051
3150.00,0.0051
3149.00,0.0051
3148.00,0.0051
3147.00,0.0051
3146.00,0.0051
3145.00,0.0050
3144.00,0.0050
3143.00,0.0050
3142.00,0.0049
3141.00,0.0049
3140.00,0.0049
3139.00,0.0049
3138.00,0.0049
3137.00,0.0049
3136.00,0.0049
3135.00,0.0048
3134.00,0.0048
3133.00,0.0048
3132.00,0.0047
3131.00,0.0047
3130.00,0.0047
3129.00,0.0046
3128.00,0.0046
3127.00,0.0046
3126.00,0.0046
3125.00,0.0046
3124.00,0.0045
3123.00,0.0045
3122.00,0.0044
3121.00,0.0044
3120.00,0.0043
3119.00,0.0043
3118.00,0.0043
3117.00,0.0042
3116.00,0.0042
3115.00,0.0042
3114.00,0.0042
3113.00,0.0042
3112.00,0.0042
3111.00,0.0042
3110.00,0.0041
3109.00,0.0041
3108.00,0.0041
3107.00,0.0041
3106.00,0.0041
3105.00,0.0041
3104.00,0.0041
3103.00,0.0040
3102.00,0.0040
3101.00,0.0040
3100.00,0.0040
3099.00,0.0040
3098.00,0.0040
3097.00,0.0040
3096.00,0.0040
3095.00,0.0040
3094.00,0.0040
3093.00,0.0040
3092.00,0.0040
3091.00,0.0040
3090.00,0.0040
3089.00,0.0040
3088.00,0.0039
3087.00,0.0039
3086.00,0.0038
3085.00,0.0038
3084.00,0.0038
3083.00,0.0038
3082.00,0.0038
3081.00,0.0038
3080.00,0.0038
3079.00,0.0038
3078.00,0.0038
3077.00,0.0038
3076.00,0.0038
3075.00,0.0038
3074.00,0.0038
3073.00,0.0039
3072.00,0.0039
3071.00,0.0039
3070.00,0.0039
3069.00,0.0039
3068.00,0.0039
3067.00,0.0039
3066.00,0.0039
3065.00,0.0040
3064.00,0.0040
3063.00,0.0040
3062.00,0.0040
3061.00,0.0040
3060.00,0.0040
3059.00,0.0040
3058.00,0.0040
3057.00,0.0040
3056.00,0.0040
3055.00,0.0040
3054.00,0.0040
3053.00,0.0041
3052.00,0.0041
3051.00,0.0041
3050.00,0.0041
3049.00,0.0041
3048.00,0.0041
3047.00,0.0041
3046.00,0.0042
3045.00,0.0042
3044.00,0.0042
3043.00,0.0042
3042.00,0.0042
3041.00,0.0042
3040.00,0.0042
3039.00,0.0043
3038.00,0.0044
3037.00,0.0045
3036.00,0.0045
3035.00,0.0045
3034.00,0.0046
3033.00,0.0046
3032.00,0.0046
3031.00,0.0046
3030.00,0.0046
3029.00,0.0047
3028.00,0.0047
3027.00,0.0047
3026.00,0.0048
3025.00,0.0048
3024.00,0.0049
3023.00,0.0049
3022.00,0.0050
3021.00,0.0050
3020.00,0.0051
3019.00,0.0051
3018.00,0.0052
3017.00,0.0052
3016.00,0.0053
3015.00,0.0053
3014.00,0.0054
3013.00,0.0055
3012.00,0.0055
3011.00,0.0056
3010.00,0.0057
3009.00,0.0057
3008.00,0.0058
3007.00,0.0059
3006.00,0.0060
3005.00,0.0061
3004.00,0.0062
3003.00,0.0063
3002.00,0.0065
3001.00,0.0066
3000.00,0.0068
2999.00,0.0070
2998.00,0.0072
2997.00,0.0075
2996.00,0.0078
2995.00,0.0082
2994.00,0.0085
2993.00,0.0089
2992.00,0.0094
2991.00,0.0098
2990.00,0.0104
2989.00,0.0110
2988.00,0.0117
2987.00,0.0124
2986.00,0.0132
2985.00,0.0140
2984.00,0.0149
2983.00,0.0159
2982.00,0.0172
2981.00,0.0188
2980.00,0.0207
2979.00,0.0229
2978.00,0.0254
2977.00,0.0282
2976.00,0.0314
2975.00,0.0350
2974.00,0.0390
2973.00,0.0435
2972.00,0.0487
2971.00,0.0545
2970.00,0.0610
2969.00,0.0681
2968.00,0.0758
2967.00,0.0840
2966.00,0.0924
2965.00,0.1010
2964.00,0.1093
2963.00,0.1169
2962.00,0.1235
2961.00,0.1289
2960.00,0.1332
2959.00,0.1369
2958.00,0.1404
2957.00,0.1444
2956.00,0.1493
2955.00,0.1553
2954.00,0.1623
2953.00,0.1696
2952.00,0.1762
2951.00,0.1809
2950.00,0.1825
2949.00,0.1805
2948.00,0.1745
2947.00,0.1653
2946.00,0.1540
2945.00,0.1421
2944.00,0.1309
2943.00,0.1212
2942.00,0.1137
2941.00,0.1086
2940.00,0.1058
2939.00,0.1052
2938.00,0.1064
2937.00,0.1095
2936.00,0.1140
2935.00,0.1200
2934.00,0.1273
2933.00,0.1359
2932.00,0.1455
2931.00,0.1561
2930.00,0.1674
2929.00,0.1790
2928.00,0.1907
2927.00,0.2023
2926.00,0.2136
2925.00,0.2246
2924.00,0.2354
2923.00,0.2461
2922.00,0.2567
2921.00,0.2669
2920.00,0.2759
2919.00,0.2828
2918.00,0.2863
2917.00,0.2855
2916.00,0.2803
2915.00,0.2714
2914.00,0.2601
2913.00,0.2477
2912.00,0.2356
2911.00,0.2246
2910.00,0.2148
2909.00,0.2061
2908.00,0.1984
2907.00,0.1911
2906.00,0.1842
2905.00,0.1772
2904.00,0.1703
2903.00,0.1634
2902.00,0.1567
2901.00,0.1501
2900.00,0.1438
2899.00,0.1378
2898.00,0.1322
2897.00,0.1270
2896.00,0.1223
2895.00,0.1183
2894.00,0.1147
2893.00,0.1118
2892.00,0.1095
2891.00,0.1077
2890.00,0.1065
2889.00,0.1056
2888.00,0.1051
2887.00,0.1050
2886.00,0.1051
2885.00,0.1057
2884.00,0.1067
2883.00,0.1081
2882.00,0.1100
2881.00,0.1122
2880.00,0.1144
2879.00,0.1163
2878.00,0.1176
2877.00,0.1180
2876.00,0.1177
2875.00,0.1172
2874.00,0.1167
2873.00,0.1168
2872.00,0.1176
2871.00,0.1190
2870.00,0.1209
2869.00,0.1227
2868.00,0.1239
2867.00,0.1236
2866.00,0.1214
2865.00,0.1171
2864.00,0.1110
2863.00,0.1041
2862.00,0.0972
2861.00,0.0911
2860.00,0.0865
2859.00,0.0833
2858.00,0.0817
2857.00,0.0814
2856.00,0.0821
2855.00,0.0836
2854.00,0.0856
2853.00,0.0879
2852.00,0.0903
2851.00,0.0923
2850.00,0.0937
2849.00,0.0944
2848.00,0.0947
2847.00,0.0950
2846.00,0.0959
2845.00,0.0980
2844.00,0.1011
2843.00,0.1052
2842.00,0.1098
2841.00,0.1140
2840.00,0.1173
2839.00,0.1188
2838.00,0.1179
2837.00,0.1143
2836.00,0.1079
2835.00,0.0993
2834.00,0.0894
2833.00,0.0792
2832.00,0.0695
2831.00,0.0609
2830.00,0.0536
2829.00,0.0476
2828.00,0.0427
2827.00,0.0387
2826.00,0.0354
2825.00,0.0328
2824.00,0.0306
2823.00,0.0287
2822.00,0.0270
2821.00,0.0256
2820.00,0.0243
2819.00,0.0233
2818.00,0.0223
2817.00,0.0215
2816.00,0.0208
2815.00,0.0202
2814.00,0.0196
2813.00,0.0190
2812.00,0.0185
2811.00,0.0179
2810.00,0.0174
2809.00,0.0168
2808.00,0.0162
2807.00,0.0156
2806.00,0.0149
2805.00,0.0143
2804.00,0.0136
2803.00,0.0130
2802.00,0.0125
2801.00,0.0121
2800.00,0.0117
2799.00,0.0114
2798.00,0.0112
2797.00,0.0109
2796.00,0.0107
2795.00,0.0105
2794.00,0.0102
2793.00,0.0099
2792.00,0.0096
2791.00,0.0093
2790.00,0.0090
2789.00,0.0088
2788.00,0.0085
2787.00,0.0083
2786.00,0.0080
2785.00,0.0077
2784.00,0.0075
2783.00,0.0073
2782.00,0.0071
2781.00,0.0069
2780.00,0.0068
2779.00,0.0066
2778.00,0.0065
2777.00,0.0063
2776.00,0.0061
2775.00,0.0060
2774.00,0.0059
2773.00,0.0058
2772.00,0.0058
2771.00,0.0057
2770.00,0.0057
2769.00,0.0057
2768.00,0.0056
2767.00,0.0056
2766.00,0.0056
2765.00,0.0056
2764.00,0.0056
2763.00,0.0055
2762.00,0.0055
2761.00,0.0054
2760.00,0.0053
2759.00,0.0053
2758.00,0.0053
2757.00,0.0053
2756.00,0.0053
2755.00,0.0053
2754.00,0.0053
2753.00,0.0052
2752.00,0.0052
2751.00,0.0052
2750.00,0.0052
2749.00,0.0052
2748.00,0.0052
2747.00,0.0052
2746.00,0.0052
2745.00,0.0053
2744.00,0.0054
2743.00,0.0055
2742.00,0.0056
2741.00,0.0057
2740.00,0.0057
2739.00,0.0058
2738.00,0.0059
2737.00,0.0060
2736.00,0.0061
2735.00,0.0063
2734.00,0.0065
2733.00,0.0066
2732.00,0.0068
2731.00,0.0070
2730.00,0.0072
2729.00,0.0074
2728.00,0.0076
2727.00,0.0079
2726.00,0.0082
2725.00,0.0084
2724.00,0.0086
2723.00,0.0086
2722.00,0.0085
2721.00,0.0083
2720.00,0.0081
2719.00,0.0078
2718.00,0.0075
2717.00,0.0072
2716.00,0.0069
2715.00,0.0067
2714.00,0.0064
2713.00,0.0062
2712.00,0.0060
2711.00,0.0058
2710.00,0.0056
2709.00,0.0055
2708.00,0.0053
2707.00,0.0052
2706.00,0.0051
2705.00,0.0050
2704.00,0.0050
2703.00,0.0049
2702.00,0.0048
2701.00,0.0047
2700.00,0.0046
2699.00,0.0046
2698.00,0.0045
2697.00,0.0045
2696.00,0.0044
2695.00,0.0044
2694.00,0.0044
2693.00,0.0045
2692.00,0.0045
2691.00,0.0045
2690.00,0.0045
2689.00,0.0045
2688.00,0.0045
2687.00,0.0045
2686.00,0.0045
2685.00,0.0045
2684.00,0.0045
2683.00,0.0045
2682.00,0.0045
2681.00,0.0045
2680.00,0.0045
2679.00,0.0046
2678.00,0.0046
2677.00,0.0046
2676.00,0.0045
2675.00,0.0045
2674.00,0.0045
2673.00,0.0045
2672.00,0.0045
2671.00,0.0044
2670.00,0.0044
2669.00,0.0044
2668.00,0.0044
2667.00,0.0045
2666.00,0.0045
2665.00,0.0046
2664.00,0.0046
2663.00,0.0047
2662.00,0.0047
2661.00,0.0047
2660.00,0.0048
2659.00,0.0048
2658.00,0.0048
2657.00,0.0047
2656.00,0.0047
2655.00,0.0046
2654.00,0.0046
2653.00,0.0046
2652.00,0.0045
2651.00,0.0045
2650.00,0.0044
2649.00,0.0044
2648.00,0.0043
2647.00,0.0043
2646.00,0.0042
2645.00,0.0042
2644.00,0.0041
2643.00,0.0041
2642.00,0.0040
2641.00,0.0040
2640.00,0.0039
2639.00,0.0039
2638.00,0.0039
2637.00,0.0038
2636.00,0.0038
2635.00,0.0038
2634.00,0.0038
2633.00,0.0038
2632.00,0.0038
2631.00,0.0039
2630.00,0.0039
2629.00,0.0039
2628.00,0.0039
2627.00,0.0039
2626.00,0.0039
2625.00,0.0039
2624.00,0.0039
2623.00,0.0039
2622.00,0.0038
2621.00,0.0038
2620.00,0.0039
2619.00,0.0039
2618.00,0.0040
2617.00,0.0040
2616.00,0.0040
2615.00,0.0040
2614.00,0.0039
2613.00,0.0039
2612.00,0.0038
2611.00,0.0037
2610.00,0.0037
2609.00,0.0037
2608.00,0.0036
2607.00,0.0035
2606.00,0.0035
2605.00,0.0034
2604.00,0.0034
2603.00,0.0033
2602.00,0.0033
2601.00,0.0032
2600.00,0.0032
2599.00,0.0031
2598.00,0.0031
2597.00,0.0030
2596.00,0.0030
2595.00,0.0031
2594.00,0.0031
2593.00,0.0032
2592.00,0.0032
2591.00,0.0033
2590.00,0.0033
2589.00,0.0034
2588.00,0.0035
2587.00,0.0036
2586.00,0.0037
2585.00,0.0038
2584.00,0.0038
2583.00,0.0038
2582.00,0.0038
2581.00,0.0038
2580.00,0.0037
2579.00,0.0037
2578.00,0.0036
2577.00,0.0036
2576.00,0.0035
2575.00,0.0033
2574.00,0.0032
2573.00,0.0030
2572.00,0.0029
2571.00,0.0028
2570.00,0.0027
2569.00,0.0026
2568.00,0.0026
2567.00,0.0025
2566.00,0.0025
2565.00,0.0024
2564.00,0.0023
2563.00,0.0023
2562.00,0.0023
2561.00,0.0022
2560.00,0.0022
2559.00,0.0021
2558.00,0.0021
2557.00,0.0021
2556.00,0.0022
2555.00,0.0022
2554.00,0.0021
2553.00,0.0020
2552.00,0.0019
2551.00,0.0019
2550.00,0.0019
2549.00,0.0019
2548.00,0.0019
2547.00,0.0019
2546.00,0.0019
2545.00,0.0019
2544.00,0.0019
2543.00,0.0018
2542.00,0.0018
2541.00,0.0017
2540.00,0.0017
2539.00,0.0016
2538.00,0.0016
2537.00,0.0016
2536.00,0.0016
2535.00,0.0016
2534.00,0.0016
2533.00,0.0016
2532.00,0.0016
2531.00,0.0016
2530.00,0.0015
2529.00,0.0015
2528.00,0.0015
2527.00,0.0014
2526.00,0.0015
2525.00,0.0015
2524.00,0.0015
2523.00,0.0015
2522.00,0.0014
2521.00,0.0014
2520.00,0.0013
2519.00,0.0013
2518.00,0.0012
2517.00,0.0012
2516.00,0.0011
2515.00,0.0011
2514.00,0.0011
2513.00,0.0011
2512.00,0.0011
2511.00,0.0011
2510.00,0.0011
2509.00,0.0011
2508.00,0.0011
2507.00,0.0011
2506.00,0.0011
2505.00,0.0011
2504.00,0.0011
2503.00,0.0011
2502.00,0.0010
2501.00,0.0010
2500.00,0.0010
2499.00,0.0010
2498.00,0.0009
2497.00,0.0009
2496.00,0.0009
2495.00,0.0010
2494.00,0.0010
2493.00,0.0011
2492.00,0.0011
2491.00,0.0010
2490.00,0.0010
2489.00,0.0010
2488.00,0.0010
2487.00,0.0010
2486.00,0.0010
2485.00,0.0010
2484.00,0.0009
2483.00,0.0008
2482.00,0.0008
2481.00,0.0008
2480.00,0.0008
2479.00,0.0009
2478.00,0.0009
2477.00,0.0009
2476.00,0.0008
2475.00,0.0008
2474.00,0.0008
2473.00,0.0008
2472.00,0.0008
2471.00,0.0007
2470.00,0.0007
2469.00,0.0007
2468.00,0.0008
2467.00,0.0008
2466.00,0.0008
2465.00,0.0009
2464.00,0.0009
2463.00,0.0008
2462.00,0.0008
2461.00,0.0008
2460.00,0.0009
2459.00,0.0009
2458.00,0.0010
2457.00,0.0010
2456.00,0.0011
2455.00,0.0011
2454.00,0.0011
2453.00,0.0011
2452.00,0.0012
2451.00,0.0012
2450.00,0.0012
2449.00,0.0012
2448.00,0.0012
2447.00,0.0012
2446.00,0.0012
2445.00,0.0012
2444.00,0.0012
2443.00,0.0012
2442.00,0.0012
2441.00,0.0011
2440.00,0.0011
2439.00,0.0011
2438.00,0.0011
2437.00,0.0011
2436.00,0.0011
2435.00,0.0012
2434.00,0.0012
2433.00,0.0012
2432.00,0.0012
2431.00,0.0012
2430.00,0.0012
2429.00,0.0011
2428.00,0.0011
2427.00,0.0011
2426.00,0.0011
2425.00,0.0012
2424.00,0.0012
2423.00,0.0012
2422.00,0.0011
2421.00,0.0010
2420.00,0.0010
2419.00,0.0009
2418.00,0.0009
2417.00,0.0009
2416.00,0.0008
2415.00,0.0008
2414.00,0.0007
2413.00,0.0008
2412.00,0.0008
2411.00,0.0009
2410.00,0.0009
2409.00,0.0008
2408.00,0.0007
2407.00,0.0007
2406.00,0.0007
2405.00,0.0007
2404.00,0.0008
2403.00,0.0008
2402.00,0.0009
2401.00,0.0009
2400.00,0.0009
2399.00,0.0009
2398.00,0.0008
2397.00,0.0008
2396.00,0.0008
2395.00,0.0008
2394.00,0.0008
2393.00,0.0008
2392.00,0.0008
2391.00,0.0008
2390.00,0.0008
2389.00,0.0008
2388.00,0.0008
2387.00,0.0008
2386.00,0.0007
2385.00,0.0007
2384.00,0.0006
2383.00,0.0006
2382.00,0.0006
2381.00,0.0006
2380.00,0.0006
2379.00,0.0006
2378.00,0.0006
2377.00,0.0006
2376.00,0.0007
2375.00,0.0007
2374.00,0.0007
2373.00,0.0007
2372.00,0.0006
2371.00,0.0006
2370.00,0.0006
2369.00,0.0006
2368.00,0.0006
2367.00,0.0006
2366.00,0.0005
2365.00,0.0005
2364.00,0.0005
2363.00,0.0005
2362.00,0.0006
2361.00,0.0006
2360.00,0.0007
2359.00,0.0008
2358.00,0.0008
2357.00,0.0009
2356.00,0.0009
2355.00,0.0009
2354.00,0.0009
2353.00,0.0008
2352.00,0.0007
2351.00,0.0006
2350.00,0.0006
2349.00,0.0007
2348.00,0.0007
2347.00,0.0008
2346.00,0.0009
2345.00,0.0009
2344.00,0.0010
2343.00,0.0010
2342.00,0.0010
2341.00,0.0011
2340.00,0.0011
2339.00,0.0011
2338.00,0.0011
2337.00,0.0011
2336.00,0.0011
2335.00,0.0010
2334.00,0.0010
2333.00,0.0009
2332.00,0.0009
2331.00,0.0010
2330.00,0.0010
2329.00,0.0011
2328.00,0.0013
2327.00,0.0016
2326.00,0.0020
2325.00,0.0023
2324.00,0.0025
2323.00,0.0025
2322.00,0.0023
2321.00,0.0020
2320.00,0.0018
2319.00,0.0016
2318.00,0.0015
2317.00,0.0015
2316.00,0.0015
2315.00,0.0014
2314.00,0.0014
2313.00,0.0012
2312.00,0.0011
2311.00,0.0011
2310.00,0.0010
2309.00,0.0010
2308.00,0.0010
2307.00,0.0011
2306.00,0.0012
2305.00,0.0012
2304.00,0.0013
2303.00,0.0013
2302.00,0.0013
2301.00,0.0013
2300.00,0.0013
2299.00,0.0012
2298.00,0.0012
2297.00,0.0012
2296.00,0.0013
2295.00,0.0013
2294.00,0.0014
2293.00,0.0015
2292.00,0.0016
2291.00,0.0016
2290.00,0.0016
2289.00,0.0017
2288.00,0.0018
2287.00,0.0018
2286.00,0.0018
2285.00,0.0017
2284.00,0.0016
2283.00,0.0016
2282.00,0.0015
2281.00,0.0014
2280.00,0.0013
2279.00,0.0013
2278.00,0.0013
2277.00,0.0013
2276.00,0.0013
2275.00,0.0012
2274.00,0.0012
2273.00,0.0011
2272.00,0.0012
2271.00,0.0012
2270.00,0.0012
2269.00,0.0012
2268.00,0.0011
2267.00,0.0010
2266.00,0.0010
2265.00,0.0010
2264.00,0.0011
2263.00,0.0012
2262.00,0.0013
2261.00,0.0014
2260.00,0.0015
2259.00,0.0015
2258.00,0.0014
2257.00,0.0013
2256.00,0.0011
2255.00,0.0009
2254.00,0.0008
2253.00,0.0008
2252.00,0.0010
2251.00,0.0010
2250.00,0.0010
2249.00,0.0009
2248.00,0.0008
2247.00,0.0008
2246.00,0.0009
2245.00,0.0009
2244.00,0.0010
2243.00,0.0010
2242.00,0.0009
2241.00,0.0009
2240.00,0.0009
2239.00,0.0009
2238.00,0.0010
2237.00,0.0011
2236.00,0.0012
2235.00,0.0012
2234.00,0.0011
2233.00,0.0011
2232.00,0.0011
2231.00,0.0012
2230.00,0.0012
2229.00,0.0011
2228.00,0.0011
2227.00,0.0009
2226.00,0.0008
2225.00,0.0008
2224.00,0.0009
2223.00,0.0010
2222.00,0.0010
2221.00,0.0008
2220.00,0.0006
2219.00,0.0005
2218.00,0.0005
2217.00,0.0005
2216.00,0.0005
2215.00,0.0004
2214.00,0.0005
2213.00,0.0005
2212.00,0.0006
2211.00,0.0006
2210.00,0.0006
2209.00,0.0006
2208.00,0.0006
2207.00,0.0005
2206.00,0.0004
2205.00,0.0004
2204.00,0.0005
2203.00,0.0005
2202.00,0.0005
2201.00,0.0006
2200.00,0.0007
2199.00,0.0008
2198.00,0.0009
2197.00,0.0008
2196.00,0.0007
2195.00,0.0006
2194.00,0.0007
2193.00,0.0008
2192.00,0.0008
2191.00,0.0007
2190.00,0.0007
2189.00,0.0008
2188.00,0.0008
2187.00,0.0008
2186.00,0.0008
2185.00,0.0008
2184.00,0.0008
2183.00,0.0009
2182.00,0.0010
2181.00,0.0010
2180.00,0.0009
2179.00,0.0006
2178.00,0.0003
2177.00,-0.0000
2176.00,-0.0002
2175.00,-0.0002
2174.00,-0.0000
2173.00,0.0003
2172.00,0.0005
2171.00,0.0008
2170.00,0.0010
2169.00,0.0015
2168.00,0.0019
2167.00,0.0023
2166.00,0.0024
2165.00,0.0023
2164.00,0.0020
2163.00,0.0018
2162.00,0.0015
2161.00,0.0010
2160.00,-0.0000
2159.00,-0.0014
2158.00,-0.0027
2157.00,-0.0032
2156.00,-0.0032
2155.00,-0.0029
2154.00,-0.0026
2153.00,-0.0022
2152.00,-0.0017
2151.00,-0.0013
2150.00,-0.0011
2149.00,-0.0010
2148.00,-0.0010
2147.00,-0.0010
2146.00,-0.0010
2145.00,-0.0011
2144.00,-0.0011
2143.00,-0.0011
2142.00,-0.0011
2141.00,-0.0011
2140.00,-0.0011
2139.00,-0.0011
2138.00,-0.0011
2137.00,-0.0011
2136.00,-0.0010
2135.00,-0.0011
2134.00,-0.0012
2133.00,-0.0013
2132.00,-0.0012
2131.00,-0.0012
2130.00,-0.0011
2129.00,-0.0010
2128.00,-0.0009
2127.00,-0.0008
2126.00,-0.0007
2125.00,-0.0006
2124.00,-0.0005
2123.00,-0.0004
2122.00,-0.0004
2121.00,-0.0003
2120.00,-0.0003
2119.00,-0.0002
2118.00,-0.0001
2117.00,0.0000
2116.00,0.0002
2115.00,0.0003
2114.00,0.0003
2113.00,0.0002
2112.00,0.0002
2111.00,0.0001
2110.00,0.0001
2109.00,0.0001
2108.00,0.0002
2107.00,0.0003
2106.00,0.0003
2105.00,0.0005
2104.00,0.0005
2103.00,0.0005
2102.00,0.0004
2101.00,0.0003
2100.00,0.0002
2099.00,0.0002
2098.00,0.0002
2097.00,0.0001
2096.00,0.0000
2095.00,-0.0001
2094.00,-0.0002
2093.00,-0.0003
2092.00,-0.0003
2091.00,-0.0002
2090.00,0.0000
2089.00,0.0002
2088.00,0.0003
2087.00,0.0003
2086.00,0.0004
2085.00,0.0004
2084.00,0.0005
2083.00,0.0005
2082.00,0.0004
2081.00,0.0004
2080.00,0.0004
2079.00,0.0004
2078.00,0.0003
2077.00,0.0001
2076.00,-0.0001
2075.00,-0.0002
2074.00,-0.0002
2073.00,-0.0001
2072.00,-0.0000
2071.00,0.0000
2070.00,0.0000
2069.00,0.0001
2068.00,0.0003
2067.00,0.0003
2066.00,0.0003
2065.00,0.0002
2064.00,0.0002
2063.00,0.0001
2062.00,0.0000
2061.00,-0.0001
2060.00,-0.0000
2059.00,0.0001
2058.00,0.0003
2057.00,0.0004
2056.00,0.0004
2055.00,0.0002
2054.00,0.0001
2053.00,0.0003
2052.00,0.0007
2051.00,0.0011
2050.00,0.0012
2049.00,0.0009
2048.00,0.0005
2047.00,0.0000
2046.00,-0.0002
2045.00,-0.0002
2044.00,-0.0000
2043.00,0.0000
2042.00,-0.0000
2041.00,-0.0001
2040.00,-0.0002
2039.00,-0.0002
2038.00,-0.0002
2037.00,-0.0002
2036.00,-0.0001
2035.00,-0.0000
2034.00,-0.0001
2033.00,-0.0004
2032.00,-0.0008
2031.00,-0.0010
2030.00,-0.0011
2029.00,-0.0010
2028.00,-0.0011
2027.00,-0.0014
2026.00,-0.0018
2025.00,-0.0019
2024.00,-0.0017
2023.00,-0.0014
2022.00,-0.0012
2021.00,-0.0010
2020.00,-0.0009
2019.00,-0.0010
2018.00,-0.0012
2017.00,-0.0013
2016.00,-0.0012
2015.00,-0.0010
2014.00,-0.0009
2013.00,-0.0009
2012.00,-0.0011
2011.00,-0.0013
2010.00,-0.0014
2009.00,-0.0016
2008.00,-0.0016
2007.00,-0.0016
2006.00,-0.0016
2005.00,-0.0015
2004.00,-0.0014
2003.00,-0.0014
2002.00,-0.0013
2001.00,-0.0012
2000.00,-0.0011
1999.00,-0.0011
1998.00,-0.0011
1997.00,-0.0011
1996.00,-0.0011
1995.00,-0.0010
1994.00,-0.0009
1993.00,-0.0007
1992.00,-0.0006
1991.00,-0.0005
1990.00,-0.0004
1989.00,-0.0004
1988.00,-0.0005
1987.00,-0.0005
1986.00,-0.0004
1985.00,-0.0000
1984.00,0.0004
1983.00,0.0008
1982.00,0.0011
1981.00,0.0013
1980.00,0.0013
1979.00,0.0009
1978.00,0.0000
1977.00,-0.0009
1976.00,-0.0016
1975.00,-0.0020
1974.00,-0.0020
1973.00,-0.0018
1972.00,-0.0018
1971.00,-0.0019
1970.00,-0.0020
1969.00,-0.0019
1968.00,-0.0015
1967.00,-0.0012
1966.00,-0.0011
1965.00,-0.0010
1964.00,-0.0010
1963.00,-0.0010
1962.00,-0.0012
1961.00,-0.0015
1960.00,-0.0017
1959.00,-0.0018
1958.00,-0.0017
1957.00,-0.0014
1956.00,-0.0011
1955.00,-0.0010
1954.00,-0.0011
1953.00,-0.0012
1952.00,-0.0013
1951.00,-0.0013
1950.00,-0.0013
1949.00,-0.0012
1948.00,-0.0012
1947.00,-0.0013
1946.00,-0.0013
1945.00,-0.0013
1944.00,-0.0012
1943.00,-0.0011
1942.00,-0.0010
1941.00,-0.0009
1940.00,-0.0009
1939.00,-0.0009
1938.00,-0.0008
1937.00,-0.0007
1936.00,-0.0007
1935.00,-0.0006
1934.00,-0.0006
1933.00,-0.0007
1932.00,-0.0007
1931.00,-0.0008
1930.00,-0.0008
1929.00,-0.0008
1928.00,-0.0007
1927.00,-0.0007
1926.00,-0.0007
1925.00,-0.0007
1924.00,-0.0006
1923.00,-0.0005
1922.00,-0.0004
1921.00,-0.0002
1920.00,-0.0001
1919.00,-0.0001
1918.00,-0.0001
1917.00,-0.0001
1916.00,-0.0000
1915.00,-0.0000
1914.00,-0.0000
1913.00,-0.0001
1912.00,-0.0000
1911.00,-0.0000
1910.00,-0.0000
1909.00,-0.0001
1908.00,-0.0002
1907.00,-0.0002
1906.00,-0.0002
1905.00,-0.0001
1904.00,-0.0001
1903.00,-0.0001
1902.00,-0.0001
1901.00,-0.0001
1900.00,-0.0001
1899.00,-0.0001
1898.00,-0.0000
1897.00,-0.0000
1896.00,-0.0000
1895.00,-0.0001
1894.00,-0.0001
1893.00,-0.0000
1892.00,0.0000
1891.00,0.0001
1890.00,0.0000
1889.00,0.0000
1888.00,0.0000
1887.00,0.0001
1886.00,0.0001
1885.00,0.0002
1884.00,0.0002
1883.00,0.0002
1882.00,0.0001
1881.00,0.0001
1880.00,0.0000
1879.00,-0.0000
1878.00,-0.0000
1877.00,-0.0000
1876.00,0.0000
1875.00,0.0001
1874.00,0.0001
1873.00,0.0001
1872.00,0.0002
1871.00,0.0002
1870.00,0.0002
1869.00,0.0002
1868.00,0.0001
1867.00,-0.0000
1866.00,-0.0001
1865.00,-0.0002
1864.00,-0.0001
1863.00,-0.0001
1862.00,-0.0001
1861.00,0.0000
1860.00,0.0001
1859.00,0.0002
1858.00,0.0002
1857.00,0.0002
1856.00,0.0002
1855.00,0.0002
1854.00,0.0001
1853.00,0.0001
1852.00,0.0001
1851.00,0.0001
1850.00,0.0001
1849.00,0.0001
1848.00,0.0001
1847.00,0.0001
1846.00,0.0001
1845.00,0.0001
1844.00,0.0002
1843.00,0.0002
1842.00,0.0002
1841.00,0.0002
1840.00,0.0003
1839.00,0.0003
1838.00,0.0003
1837.00,0.0003
1836.00,0.0003
1835.00,0.0003
1834.00,0.0004
1833.00,0.0004
1832.00,0.0004
1831.00,0.0003
1830.00,0.0003
1829.00,0.0003
1828.00,0.0003
1827.00,0.0004
1826.00,0.0004
1825.00,0.0004
1824.00,0.0005
1823.00,0.0005
1822.00,0.0004
1821.00,0.0004
1820.00,0.0003
1819.00,0.0002
1818.00,0.0001
1817.00,0.0001
1816.00,0.0001
1815.00,0.0002
1814.00,0.0003
1813.00,0.0004
1812.00,0.0004
1811.00,0.0004
1810.00,0.0003
1809.00,0.0003
1808.00,0.0004
1807.00,0.0005
1806.00,0.0005
1805.00,0.0005
1804.00,0.0006
1803.00,0.0006
1802.00,0.0006
1801.00,0.0006
1800.00,0.0006
1799.00,0.0006
1798.00,0.0006
1797.00,0.0006
1796.00,0.0006
1795.00,0.0007
1794.00,0.0007
1793.00,0.0008
1792.00,0.0008
1791.00,0.0008
1790.00,0.0008
1789.00,0.0008
1788.00,0.0008
1787.00,0.0008
1786.00,0.0008
1785.00,0.0007
1784.00,0.0008
1783.00,0.0008
1782.00,0.0009
1781.00,0.0010
1780.00,0.0010
1779.00,0.0009
1778.00,0.0009
1777.00,0.0008
1776.00,0.0008
1775.00,0.0008
1774.00,0.0008
1773.00,0.0009
1772.00,0.0009
1771.00,0.0010
1770.00,0.0010
1769.00,0.0010
1768.00,0.0011
1767.00,0.0011
1766.00,0.0011
1765.00,0.0012
1764.00,0.0012
1763.00,0.0012
1762.00,0.0012
1761.00,0.0012
1760.00,0.0013
1759.00,0.0013
1758.00,0.0013
1757.00,0.0014
1756.00,0.0015
1755.00,0.0016
1754.00,0.0016
1753.00,0.0016
1752.00,0.0017
1751.00,0.0018
1750.00,0.0019
1749.00,0.0020
1748.00,0.0021
1747.00,0.0021
1746.00,0.0022
1745.00,0.0022
1744.00,0.0023
1743.00,0.0024
1742.00,0.0025
1741.00,0.0026
1740.00,0.0026
1739.00,0.0027
1738.00,0.0027
1737.00,0.0028
1736.00,0.0029
1735.00,0.0030
1734.00,0.0030
1733.00,0.0030
1732.00,0.0030
1731.00,0.0030
1730.00,0.0030
1729.00,0.0029
1728.00,0.0030
1727.00,0.0030
1726.00,0.0031
1725.00,0.0031
1724.00,0.0031
1723.00,0.0031
1722.00,0.0031
1721.00,0.0030
1720.00,0.0030
1719.00,0.0030
1718.00,0.0029
1717.00,0.0029
1716.00,0.0029
1715.00,0.0029
1714.00,0.0028
1713.00,0.0028
1712.00,0.0028
1711.00,0.0029
1710.00,0.0029
1709.00,0.0030
1708.00,0.0030
1707.00,0.0031
1706.00,0.0031
1705.00,0.0031
1704.00,0.0032
1703.00,0.0032
1702.00,0.0033
1701.00,0.0034
1700.00,0.0036
1699.00,0.0037
1698.00,0.0038
1697.00,0.0038
1696.00,0.0039
1695.00,0.0041
1694.00,0.0042
1693.00,0.0043
1692.00,0.0044
1691.00,0.0045
1690.00,0.0046
1689.00,0.0048
1688.00,0.0049
1687.00,0.0050
1686.00,0.0050
1685.00,0.0052
1684.00,0.0056
1683.00,0.0060
1682.00,0.0063
1681.00,0.0066
1680.00,0.0067
1679.00,0.0069
1678.00,0.0070
1677.00,0.0072
1676.00,0.0074
1675.00,0.0077
1674.00,0.0078
1673.00,0.0080
1672.00,0.0081
1671.00,0.0082
1670.00,0.0083
1669.00,0.0085
1668.00,0.0086
1667.00,0.0087
1666.00,0.0088
1665.00,0.0089
1664.00,0.0089
1663.00,0.0090
1662.00,0.0091
1661.00,0.0092
1660.00,0.0093
1659.00,0.0093
1658.00,0.0093
1657.00,0.0094
1656.00,0.0094
1655.00,0.0094
1654.00,0.0094
1653.00,0.0094
1652.00,0.0096
1651.00,0.0096
1650.00,0.0096
1649.00,0.0096
1648.00,0.0096
1647.00,0.0096
1646.00,0.0096
1645.00,0.0096
1644.00,0.0096
1643.00,0.0096
1642.00,0.0096
1641.00,0.0097
1640.00,0.0097
1639.00,0.0098
1638.00,0.0098
1637.00,0.0098
1636.00,0.0097
1635.00,0.0097
1634.00,0.0097
1633.00,0.0096
1632.00,0.0095
1631.00,0.0094
1630.00,0.0093
1629.00,0.0093
1628.00,0.0092
1627.00,0.0091
1626.00,0.0091
1625.00,0.0090
1624.00,0.0089
1623.00,0.0087
1622.00,0.0086
1621.00,0.0086
1620.00,0.0085
1619.00,0.0085
1618.00,0.0084
1617.00,0.0084
1616.00,0.0084
1615.00,0.0085
1614.00,0.0085
1613.00,0.0085
1612.00,0.0085
1611.00,0.0085
1610.00,0.0084
1609.00,0.0084
1608.00,0.0083
1607.00,0.0083
1606.00,0.0083
1605.00,0.0083
1604.00,0.0083
1603.00,0.0083
1602.00,0.0083
1601.00,0.0083
1600.00,0.0083
1599.00,0.0083
1598.00,0.0083
1597.00,0.0083
1596.00,0.0083
1595.00,0.0083
1594.00,0.0084
1593.00,0.0084
1592.00,0.0085
1591.00,0.0087
1590.00,0.0088
1589.00,0.0090
1588.00,0.0092
1587.00,0.0095
1586.00,0.0098
1585.00,0.0102
1584.00,0.0106
1583.00,0.0111
1582.00,0.0116
1581.00,0.0122
1580.00,0.0127
1579.00,0.0132
1578.00,0.0135
1577.00,0.0136
1576.00,0.0136
1575.00,0.0134
1574.00,0.0131
1573.00,0.0129
1572.00,0.0126
1571.00,0.0122
1570.00,0.0117
1569.00,0.0113
1568.00,0.0110
1567.00,0.0108
1566.00,0.0106
1565.00,0.0104
1564.00,0.0104
1563.00,0.0103
1562.00,0.0103
1561.00,0.0104
1560.00,0.0104
1559.00,0.0104
1558.00,0.0104
1557.00,0.0105
1556.00,0.0106
1555.00,0.0107
1554.00,0.0108
1553.00,0.0110
1552.00,0.0111
1551.00,0.0113
1550.00,0.0116
1549.00,0.0119
1548.00,0.0122
1547.00,0.0126
1546.00,0.0130
1545.00,0.0135
1544.00,0.0141
1543.00,0.0146
1542.00,0.0150
1541.00,0.0150
1540.00,0.0146
1539.00,0.0140
1538.00,0.0134
1537.00,0.0129
1536.00,0.0124
1535.00,0.0117
1534.00,0.0108
1533.00,0.0100
1532.00,0.0094
1531.00,0.0090
1530.00,0.0087
1529.00,0.0085
1528.00,0.0083
1527.00,0.0080
1526.00,0.0078
1525.00,0.0077
1524.00,0.0077
1523.00,0.0076
1522.00,0.0074
1521.00,0.0074
1520.00,0.0075
1519.00,0.0076
1518.00,0.0076
1517.00,0.0076
1516.00,0.0076
1515.00,0.0075
1514.00,0.0075
1513.00,0.0075
1512.00,0.0076
1511.00,0.0076
1510.00,0.0076
1509.00,0.0077
1508.00,0.0079
1507.00,0.0079
1506.00,0.0079
1505.00,0.0081
1504.00,0.0083
1503.00,0.0084
1502.00,0.0085
1501.00,0.0088
1500.00,0.0091
1499.00,0.0094
1498.00,0.0097
1497.00,0.0101
1496.00,0.0105
1495.00,0.0108
1494.00,0.0110
1493.00,0.0114
1492.00,0.0118
1491.00,0.0122
1490.00,0.0127
1489.00,0.0133
1488.00,0.0140
1487.00,0.0146
1486.00,0.0152
1485.00,0.0160
1484.00,0.0170
1483.00,0.0180
1482.00,0.0192
1481.00,0.0206
1480.00,0.0222
1479.00,0.0237
1478.00,0.0254
1477.00,0.0276
1476.00,0.0302
1475.00,0.0332
1474.00,0.0371
1473.00,0.0427
1472.00,0.0493
1471.00,0.0556
1470.00,0.0617
1469.00,0.0681
1468.00,0.0751
1467.00,0.0826
1466.00,0.0913
1465.00,0.1005
1464.00,0.1085
1463.00,0.1139
1462.00,0.1172
1461.00,0.1193
1460.00,0.1207
1459.00,0.1214
1458.00,0.1218
1457.00,0.1219
1456.00,0.1213
1455.00,0.1201
1454.00,0.1185
1453.00,0.1165
1452.00,0.1135
1451.00,0.1095
1450.00,0.1042
1449.00,0.0972
1448.00,0.0884
1447.00,0.0792
1446.00,0.0711
1445.00,0.0643
1444.00,0.0585
1443.00,0.0537
1442.00,0.0501
1441.00,0.0476
1440.00,0.0461
1439.00,0.0456
1438.00,0.0458
1437.00,0.0461
1436.00,0.0453
1435.00,0.0430
1434.00,0.0396
1433.00,0.0354
1432.00,0.0309
1431.00,0.0270
1430.00,0.0239
1429.00,0.0216
1428.00,0.0200
1427.00,0.0191
1426.00,0.0185
1425.00,0.0179
1424.00,0.0174
1423.00,0.0171
1422.00,0.0170
1421.00,0.0167
1420.00,0.0162
1419.00,0.0157
1418.00,0.0154
1417.00,0.0151
1416.00,0.0147
1415.00,0.0144
1414.00,0.0142
1413.00,0.0139
1412.00,0.0136
1411.00,0.0134
1410.00,0.0133
1409.00,0.0131
1408.00,0.0129
1407.00,0.0128
1406.00,0.0127
1405.00,0.0126
1404.00,0.0124
1403.00,0.0124
1402.00,0.0124
1401.00,0.0124
1400.00,0.0124
1399.00,0.0125
1398.00,0.0127
1397.00,0.0128
1396.00,0.0129
1395.00,0.0131
1394.00,0.0136
1393.00,0.0140
1392.00,0.0145
1391.00,0.0152
1390.00,0.0161
1389.00,0.0174
1388.00,0.0194
1387.00,0.0224
1386.00,0.0266
1385.00,0.0320
1384.00,0.0395
1383.00,0.0501
1382.00,0.0645
1381.00,0.0834
1380.00,0.1070
1379.00,0.1342
1378.00,0.1607
1377.00,0.1805
1376.00,0.1878
1375.00,0.1788
1374.00,0.1564
1373.00,0.1290
1372.00,0.1041
1371.00,0.0836
1370.00,0.0673
1369.00,0.0550
1368.00,0.0465
1367.00,0.0413
1366.00,0.0385
1365.00,0.0373
1364.00,0.0375
1363.00,0.0387
1362.00,0.0407
1361.00,0.0429
1360.00,0.0447
1359.00,0.0453
1358.00,0.0443
1357.00,0.0420
1356.00,0.0385
1355.00,0.0346
1354.00,0.0308
1353.00,0.0276
1352.00,0.0249
1351.00,0.0228
1350.00,0.0210
1349.00,0.0195
1348.00,0.0183
1347.00,0.0173
1346.00,0.0164
1345.00,0.0157
1344.00,0.0151
1343.00,0.0145
1342.00,0.0140
1341.00,0.0136
1340.00,0.0133
1339.00,0.0131
1338.00,0.0130
1337.00,0.0130
1336.00,0.0132
1335.00,0.0134
1334.00,0.0137
1333.00,0.0140
1332.00,0.0144
1331.00,0.0147
1330.00,0.0148
1329.00,0.0147
1328.00,0.0144
1327.00,0.0139
1326.00,0.0134
1325.00,0.0129
1324.00,0.0124
1323.00,0.0120
1322.00,0.0116
1321.00,0.0113
1320.00,0.0111
1319.00,0.0110
1318.00,0.0108
1317.00,0.0107
1316.00,0.0105
1315.00,0.0105
1314.00,0.0104
1313.00,0.0104
1312.00,0.0104
1311.00,0.0105
1310.00,0.0108
1309.00,0.0114
1308.00,0.0122
1307.00,0.0131
1306.00,0.0140
1305.00,0.0147
1304.00,0.0149
1303.00,0.0148
1302.00,0.0145
1301.00,0.0142
1300.00,0.0141
1299.00,0.0142
1298.00,0.0143
1297.00,0.0144
1296.00,0.0143
1295.00,0.0142
1294.00,0.0139
1293.00,0.0135
1292.00,0.0130
1291.00,0.0125
1290.00,0.0121
1289.00,0.0116
1288.00,0.0113
1287.00,0.0109
1286.00,0.0107
1285.00,0.0104
1284.00,0.0102
1283.00,0.0101
1282.00,0.0099
1281.00,0.0098
1280.00,0.0097
1279.00,0.0097
1278.00,0.0096
1277.00,0.0095
1276.00,0.0094
1275.00,0.0094
1274.00,0.0093
1273.00,0.0093
1272.00,0.0094
1271.00,0.0095
1270.00,0.0097
1269.00,0.0100
1268.00,0.0103
1267.00,0.0107
1266.00,0.0111
1265.00,0.0116
1264.00,0.0120
1263.00,0.0123
1262.00,0.0126
1261.00,0.0128
1260.00,0.0132
1259.00,0.0136
1258.00,0.0140
1257.00,0.0143
1256.00,0.0143
1255.00,0.0139
1254.00,0.0133
1253.00,0.0124
1252.00,0.0116
1251.00,0.0110
1250.00,0.0105
1249.00,0.0101
1248.00,0.0098
1247.00,0.0096
1246.00,0.0094
1245.00,0.0093
1244.00,0.0092
1243.00,0.0092
1242.00,0.0091
1241.00,0.0091
1240.00,0.0090
1239.00,0.0089
1238.00,0.0088
1237.00,0.0089
1236.00,0.0089
1235.00,0.0090
1234.00,0.0090
1233.00,0.0090
1232.00,0.0091
1231.00,0.0092
1230.00,0.0093
1229.00,0.0095
1228.00,0.0097
1227.00,0.0099
1226.00,0.0102
1225.00,0.0105
1224.00,0.0109
1223.00,0.0112
1222.00,0.0116
1221.00,0.0120
1220.00,0.0122
1219.00,0.0123
1218.00,0.0123
1217.00,0.0121
1216.00,0.0118
1215.00,0.0115
1214.00,0.0111
1213.00,0.0108
1212.00,0.0106
1211.00,0.0104
1210.00,0.0103
1209.00,0.0102
1208.00,0.0101
1207.00,0.0100
1206.00,0.0098
1205.00,0.0097
1204.00,0.0097
1203.00,0.0097
1202.00,0.0097
1201.00,0.0097
1200.00,0.0098
1199.00,0.0098
1198.00,0.0098
1197.00,0.0098
1196.00,0.0098
1195.00,0.0098
1194.00,0.0099
1193.00,0.0099
1192.00,0.0098
1191.00,0.0098
1190.00,0.0097
1189.00,0.0097
1188.00,0.0097
1187.00,0.0097
1186.00,0.0097
1185.00,0.0097
1184.00,0.0097
1183.00,0.0097
1182.00,0.0099
1181.00,0.0100
1180.00,0.0103
1179.00,0.0107
1178.00,0.0112
1177.00,0.0119
1176.00,0.0127
1175.00,0.0140
1174.00,0.0156
1173.00,0.0177
1172.00,0.0202
1171.00,0.0229
1170.00,0.0255
1169.00,0.0276
1168.00,0.0289
1167.00,0.0290
1166.00,0.0283
1165.00,0.0271
1164.00,0.0257
1163.00,0.0243
1162.00,0.0231
1161.00,0.0222
1160.00,0.0215
1159.00,0.0210
1158.00,0.0206
1157.00,0.0204
1156.00,0.0203
1155.00,0.0203
1154.00,0.0202
1153.00,0.0200
1152.00,0.0196
1151.00,0.0191
1150.00,0.0183
1149.00,0.0175
1148.00,0.0165
1147.00,0.0157
1146.00,0.0149
1145.00,0.0142
1144.00,0.0135
1143.00,0.0130
1142.00,0.0125
1141.00,0.0120
1140.00,0.0115
1139.00,0.0111
1138.00,0.0107
1137.00,0.0105
1136.00,0.0104
1135.00,0.0103
1134.00,0.0103
1133.00,0.0103
1132.00,0.0104
1131.00,0.0105
1130.00,0.0105
1129.00,0.0105
1128.00,0.0107
1127.00,0.0109
1126.00,0.0111
1125.00,0.0112
1124.00,0.0114
1123.00,0.0115
1122.00,0.0116
1121.00,0.0117
1120.00,0.0118
1119.00,0.0120
1118.00,0.0121
1117.00,0.0123
1116.00,0.0125
1115.00,0.0127
1114.00,0.0129
1113.00,0.0132
1112.00,0.0135
1111.00,0.0139
1110.00,0.0143
1109.00,0.0147
1108.00,0.0151
1107.00,0.0156
1106.00,0.0161
1105.00,0.0166
1104.00,0.0171
1103.00,0.0173
1102.00,0.0172
1101.00,0.0169
1100.00,0.0164
1099.00,0.0159
1098.00,0.0153
1097.00,0.0147
1096.00,0.0142
1095.00,0.0137
1094.00,0.0132
1093.00,0.0129
1092.00,0.0126
1091.00,0.0124
1090.00,0.0122
1089.00,0.0120
1088.00,0.0118
1087.00,0.0117
1086.00,0.0117
1085.00,0.0116
1084.00,0.0116
1083.00,0.0115
1082.00,0.0114
1081.00,0.0112
1080.00,0.0111
1079.00,0.0109
1078.00,0.0108
1077.00,0.0106
1076.00,0.0105
1075.00,0.0105
1074.00,0.0105
1073.00,0.0104
1072.00,0.0103
1071.00,0.0103
1070.00,0.0103
1069.00,0.0103
1068.00,0.0103
1067.00,0.0103
1066.00,0.0103
1065.00,0.0104
1064.00,0.0105
1063.00,0.0105
1062.00,0.0106
1061.00,0.0107
1060.00,0.0107
1059.00,0.0108
1058.00,0.0110
1057.00,0.0112
1056.00,0.0114
1055.00,0.0116
1054.00,0.0118
1053.00,0.0121
1052.00,0.0125
1051.00,0.0130
1050.00,0.0135
1049.00,0.0140
1048.00,0.0145
1047.00,0.0150
1046.00,0.0154
1045.00,0.0156
1044.00,0.0158
1043.00,0.0158
1042.00,0.0157
1041.00,0.0155
1040.00,0.0155
1039.00,0.0156
1038.00,0.0158
1037.00,0.0159
1036.00,0.0159
1035.00,0.0159
1034.00,0.0157
1033.00,0.0155
1032.00,0.0153
1031.00,0.0151
1030.00,0.0150
1029.00,0.0150
1028.00,0.0150
1027.00,0.0152
1026.00,0.0154
1025.00,0.0155
1024.00,0.0157
1023.00,0.0158
1022.00,0.0160
1021.00,0.0161
1020.00,0.0162
1019.00,0.0164
1018.00,0.0165
1017.00,0.0167
1016.00,0.0168
1015.00,0.0169
1014.00,0.0170
1013.00,0.0169
1012.00,0.0167
1011.00,0.0165
1010.00,0.0163
1009.00,0.0161
1008.00,0.0161
1007.00,0.0163
1006.00,0.0167
1005.00,0.0174
1004.00,0.0185
1003.00,0.0202
1002.00,0.0226
1001.00,0.0256
1000.00,0.0288
999.00,0.0314
998.00,0.0325
997.00,0.0317
996.00,0.0292
995.00,0.0258
994.00,0.0223
993.00,0.0192
992.00,0.0169
991.00,0.0152
990.00,0.0140
989.00,0.0132
988.00,0.0127
987.00,0.0124
986.00,0.0123
985.00,0.0124
984.00,0.0127
983.00,0.0133
982.00,0.0143
981.00,0.0156
980.00,0.0175
979.00,0.0200
978.00,0.0233
977.00,0.0271
976.00,0.0310
975.00,0.0346
974.00,0.0370
973.00,0.0376
972.00,0.0361
971.00,0.0326
970.00,0.0283
969.00,0.0239
968.00,0.0201
967.00,0.0171
966.00,0.0149
965.00,0.0133
964.00,0.0122
963.00,0.0113
962.00,0.0107
961.00,0.0102
960.00,0.0098
959.00,0.0095
958.00,0.0092
957.00,0.0090
956.00,0.0088
955.00,0.0086
954.00,0.0083
953.00,0.0081
952.00,0.0080
951.00,0.0079
950.00,0.0079
949.00,0.0079
948.00,0.0078
947.00,0.0079
946.00,0.0080
945.00,0.0083
944.00,0.0087
943.00,0.0090
942.00,0.0094
941.00,0.0096
940.00,0.0097
939.00,0.0095
938.00,0.0091
937.00,0.0086
936.00,0.0081
935.00,0.0078
934.00,0.0075
933.00,0.0073
932.00,0.0072
931.00,0.0070
930.00,0.0069
929.00,0.0069
928.00,0.0069
927.00,0.0070
926.00,0.0070
925.00,0.0070
924.00,0.0069
923.00,0.0069
922.00,0.0068
921.00,0.0067
920.00,0.0068
919.00,0.0069
918.00,0.0070
917.00,0.0071
916.00,0.0073
915.00,0.0074
914.00,0.0076
913.00,0.0077
912.00,0.0079
911.00,0.0080
910.00,0.0081
909.00,0.0082
908.00,0.0083
907.00,0.0087
906.00,0.0094
905.00,0.0105
904.00,0.0120
903.00,0.0137
902.00,0.0156
901.00,0.0174
900.00,0.0185
899.00,0.0188
898.00,0.0180
897.00,0.0165
896.00,0.0146
895.00,0.0128
894.00,0.0113
893.00,0.0102
892.00,0.0094
891.00,0.0090
890.00,0.0088
889.00,0.0086
888.00,0.0085
887.00,0.0084
886.00,0.0082
885.00,0.0081
884.00,0.0080
883.00,0.0080
882.00,0.0081
881.00,0.0082
880.00,0.0082
879.00,0.0083
878.00,0.0084
877.00,0.0085
876.00,0.0087
875.00,0.0088
874.00,0.0089
873.00,0.0090
872.00,0.0089
871.00,0.0089
870.00,0.0087
869.00,0.0086
868.00,0.0084
867.00,0.0084
866.00,0.0084
865.00,0.0085
864.00,0.0086
863.00,0.0087
862.00,0.0089
861.00,0.0091
860.00,0.0091
859.00,0.0091
858.00,0.0091
857.00,0.0092
856.00,0.0093
855.00,0.0095
854.00,0.0098
853.00,0.0100
852.00,0.0103
851.00,0.0106
850.00,0.0111
849.00,0.0117
848.00,0.0124
847.00,0.0135
846.00,0.0151
845.00,0.0177
844.00,0.0214
843.00,0.0259
842.00,0.0295
841.00,0.0306
840.00,0.0287
839.00,0.0246
838.00,0.0202
837.00,0.0168
836.00,0.0146
835.00,0.0134
834.00,0.0127
833.00,0.0122
832.00,0.0119
831.00,0.0117
830.00,0.0116
829.00,0.0115
828.00,0.0114
827.00,0.0113
826.00,0.0112
825.00,0.0110
824.00,0.0109
823.00,0.0110
822.00,0.0112
821.00,0.0116
820.00,0.0120
819.00,0.0125
818.00,0.0130
817.00,0.0137
816.00,0.0145
815.00,0.0156
814.00,0.0171
813.00,0.0189
812.00,0.0208
811.00,0.0226
810.00,0.0239
809.00,0.0244
808.00,0.0240
807.00,0.0229
806.00,0.0213
805.00,0.0195
804.00,0.0179
803.00,0.0165
802.00,0.0154
801.00,0.0146
800.00,0.0140
799.00,0.0135
798.00,0.0130
797.00,0.0125
796.00,0.0121
795.00,0.0117
794.00,0.0115
793.00,0.0112
792.00,0.0109
791.00,0.0106
790.00,0.0102
789.00,0.0097
788.00,0.0093
787.00,0.0088
786.00,0.0085
785.00,0.0083
784.00,0.0082
783.00,0.0080
782.00,0.0079
781.00,0.0078
780.00,0.0077
779.00,0.0075
778.00,0.0075
777.00,0.0074
776.00,0.0074
775.00,0.0075
774.00,0.0075
773.00,0.0075
772.00,0.0076
771.00,0.0077
770.00,0.0077
769.00,0.0077
768.00,0.0077
767.00,0.0077
766.00,0.0078
765.00,0.0079
764.00,0.0080
763.00,0.0080
762.00,0.0082
761.00,0.0083
760.00,0.0083
759.00,0.0082
758.00,0.0082
757.00,0.0082
756.00,0.0083
755.00,0.0085
754.00,0.0086
753.00,0.0087
752.00,0.0087
751.00,0.0088
750.00,0.0089
749.00,0.0091
748.00,0.0093
747.00,0.0095
746.00,0.0097
745.00,0.0099
744.00,0.0101
743.00,0.0103
742.00,0.0106
741.00,0.0110
740.00,0.0115
739.00,0.0119
738.00,0.0124
737.00,0.0128
736.00,0.0132
735.00,0.0136
734.00,0.0142
733.00,0.0149
732.00,0.0157
731.00,0.0165
730.00,0.0172
729.00,0.0176
728.00,0.0177
727.00,0.0178
726.00,0.0178
725.00,0.0181
724.00,0.0186
723.00,0.0193
722.00,0.0199
721.00,0.0203
720.00,0.0201
719.00,0.0192
718.00,0.0179
717.00,0.0165
716.00,0.0152
715.00,0.0143
714.00,0.0138
713.00,0.0134
712.00,0.0131
711.00,0.0129
710.00,0.0127
709.00,0.0126
708.00,0.0126
707.00,0.0125
706.00,0.0124
705.00,0.0124
704.00,0.0124
703.00,0.0124
702.00,0.0124
701.00,0.0121
700.00,0.0118
699.00,0.0115
698.00,0.0114
697.00,0.0114
696.00,0.0114
695.00,0.0114
694.00,0.0114
693.00,0.0113
692.00,0.0113
691.00,0.0113
690.00,0.0113
689.00,0.0114
688.00,0.0115
687.00,0.0116
686.00,0.0116
685.00,0.0115
684.00,0.0115
683.00,0.0115
682.00,0.0115
681.00,0.0116
680.00,0.0116
679.00,0.0118
678.00,0.0119
677.00,0.0118
676.00,0.0117
675.00,0.0117
674.00,0.0118
673.00,0.0120
672.00,0.0123
671.00,0.0126
670.00,0.0130
669.00,0.0131
668.00,0.0131
667.00,0.0129
666.00,0.0125
665.00,0.0121
664.00,0.0119
663.00,0.0117
662.00,0.0115
661.00,0.0113
660.00,0.0109
659.00,0.0106
658.00,0.0105
657.00,0.0104
656.00,0.0104
655.00,0.0104
654.00,0.0104
653.00,0.0104
652.00,0.0104
651.00,0.0105
650.00,0.0106
649.00,0.0106
648.00,0.0106
647.00,0.0106
646.00,0.0105
645.00,0.0104
644.00,0.0102
643.00,0.0101
642.00,0.0100
641.00,0.0101
640.00,0.0102
639.00,0.0103
638.00,0.0103
637.00,0.0102
636.00,0.0101
635.00,0.0101
634.00,0.0100
633.00,0.0100
632.00,0.0100
631.00,0.0101
630.00,0.0102
629.00,0.0103
628.00,0.0103
627.00,0.0102
626.00,0.0102
625.00,0.0102
624.00,0.0104
623.00,0.0107
622.00,0.0110
621.00,0.0111
620.00,0.0111
619.00,0.0109
618.00,0.0105
617.00,0.0102
616.00,0.0099
615.00,0.0098
614.00,0.0097
613.00,0.0097
612.00,0.0096
611.00,0.0097
610.00,0.0098
609.00,0.0100
608.00,0.0103
607.00,0.0106
606.00,0.0107
605.00,0.0106
604.00,0.0103
603.00,0.0101
602.00,0.0101
601.00,0.0101
600.00,0.0101
599.00,0.0102
598.00,0.0102
597.00,0.0101
596.00,0.0098
595.00,0.0096
594.00,0.0095
593.00,0.0094
592.00,0.0093
591.00,0.0090
590.00,0.0089
589.00,0.0088
588.00,0.0089
587.00,0.0091
586.00,0.0094
585.00,0.0097
584.00,0.0099
583.00,0.0102
582.00,0.0103
581.00,0.0104
580.00,0.0103
579.00,0.0103
578.00,0.0104
577.00,0.0105
576.00,0.0104
575.00,0.0102
574.00,0.0101
573.00,0.0101
572.00,0.0101
571.00,0.0101
570.00,0.0101
569.00,0.0101
568.00,0.0100
567.00,0.0098
566.00,0.0096
565.00,0.0094
564.00,0.0093
563.00,0.0093
562.00,0.0093
561.00,0.0096
560.00,0.0100
559.00,0.0104
558.00,0.0105
557.00,0.0104
556.00,0.0103
555.00,0.0103
554.00,0.0104
553.00,0.0106
552.00,0.0107
551.00,0.0108
550.00,0.0109
549.00,0.0110
548.00,0.0111
547.00,0.0111
546.00,0.0111
545.00,0.0112
544.00,0.0114
543.00,0.0117
542.00,0.0120
541.00,0.0121
540.00,0.0121
539.00,0.0121
538.00,0.0122
537.00,0.0122
536.00,0.0120
535.00,0.0119
534.00,0.0121
533.00,0.0126
532.00,0.0130
531.00,0.0132
530.00,0.0130
529.00,0.0126
528.00,0.0121
527.00,0.0118
526.00,0.0116
525.00,0.0116
524.00,0.0117
523.00,0.0119
522.00,0.0121
521.00,0.0122
520.00,0.0120
519.00,0.0118
518.00,0.0116
517.00,0.0114
516.00,0.0110
515.00,0.0103
514.00,0.0096
513.00,0.0091
512.00,0.0091
511.00,0.0092
510.00,0.0092
509.00,0.0093
508.00,0.0096
507.00,0.0101
506.00,0.0106
505.00,0.0108
504.00,0.0108
503.00,0.0108
502.00,0.0109
501.00,0.0108
500.00,0.0105
499.00,0.0099
498.00,0.0095
497.00,0.0093
496.00,0.0094
495.00,0.0096
494.00,0.0099
493.00,0.0101
492.00,0.0101
491.00,0.0099
490.00,0.0098
489.00,0.0097
488.00,0.0098
487.00,0.0101
486.00,0.0104
485.00,0.0104
484.00,0.0100
483.00,0.0094
482.00,0.0090
481.00,0.0089
480.00,0.0092
479.00,0.0095
478.00,0.0099
477.00,0.0104
476.00,0.0107
475.00,0.0108
474.00,0.0109
473.00,0.0113
472.00,0.0124
471.00,0.0137
470.00,0.0152
469.00,0.0165
468.00,0.0178
467.00,0.0187
466.00,0.0191
465.00,0.0192
464.00,0.0192
463.00,0.0194
462.00,0.0198
461.00,0.0204
460.00,0.0211
459.00,0.0212
458.00,0.0205
457.00,0.0195
456.00,0.0189
455.00,0.0188
454.00,0.0184
453.00,0.0174
452.00,0.0161
451.00,0.0154
450.00,0.0152
