Created as New Dataset,Sample 043 By Administrator Date Thursday, September 04 2025
cm-1,A
4000.00,0.0020
3999.00,0.0021
3998.00,0.0021
3997.00,0.0021
3996.00,0.0021
3995.00,0.0021
3994.00,0.0020
3993.00,0.0020
3992.00,0.0020
3991.00,0.0020
3990.00,0.0019
3989.00,0.0019
3988.00,0.0019
3987.00,0.0019
3986.00,0.0019
3985.00,0.0019
3984.00,0.0019
3983.00,0.0019
3982.00,0.0019
3981.00,0.0018
3980.00,0.0018
3979.00,0.0018
3978.00,0.0018
3977.00,0.0018
3976.00,0.0018
3975.00,0.0018
3974.00,0.0018
3973.00,0.0018
3972.00,0.0018
3971.00,0.0018
3970.00,0.0018
3969.00,0.0018
3968.00,0.0018
3967.00,0.0018
3966.00,0.0018
3965.00,0.0018
3964.00,0.0018
3963.00,0.0018
3962.00,0.0018
3961.00,0.0018
3960.00,0.0018
3959.00,0.0018
3958.00,0.0019
3957.00,0.0019
3956.00,0.0019
3955.00,0.0019
3954.00,0.0018
3953.00,0.0018
3952.00,0.0018
3951.00,0.0018
3950.00,0.0018
3949.00,0.0018
3948.00,0.0018
3947.00,0.0018
3946.00,0.0019
3945.00,0.0019
3944.00,0.0019
3943.00,0.0019
3942.00,0.0019
3941.00,0.0019
3940.00,0.0019
3939.00,0.0018
3938.00,0.0018
3937.00,0.0018
3936.00,0.0018
3935.00,0.0019
3934.00,0.0019
3933.00,0.0019
3932.00,0.0019
3931.00,0.0019
3930.00,0.0019
3929.00,0.0019
3928.00,0.0019
3927.00,0.0019
3926.00,0.0019
3925.00,0.0018
3924.00,0.0018
3923.00,0.0018
3922.00,0.0018
3921.00,0.0018
3920.00,0.0019
3919.00,0.0018
3918.00,0.0018
3917.00,0.0018
3916.00,0.0017
3915.00,0.0017
3914.00,0.0017
3913.00,0.0017
3912.00,0.0017
3911.00,0.0018
3910.00,0.0018
3909.00,0.0018
3908.00,0.0018
3907.00,0.0018
3906.00,0.0018
3905.00,0.0018
3904.00,0.0018
3903.00,0.0018
3902.00,0.0018
3901.00,0.0018
3900.00,0.0019
3899.00,0.0019
3898.00,0.0019
3897.00,0.0019
3896.00,0.0019
3895.00,0.0019
3894.00,0.0018
3893.00,0.0018
3892.00,0.0018
3891.00,0.0017
3890.00,0.0017
3889.00,0.0017
3888.00,0.0017
3887.00,0.0018
3886.00,0.0018
3885.00,0.0018
3884.00,0.0018
3883.00,0.0018
3882.00,0.0018
3881.00,0.0018
3880.00,0.0017
3879.00,0.0017
3878.00,0.0017
3877.00,0.0018
3876.00,0.0018
3875.00,0.0018
3874.00,0.0018
3873.00,0.0018
3872.00,0.0017
3871.00,0.0017
3870.00,0.0017
3869.00,0.0016
3868.00,0.0016
3867.00,0.0017
3866.00,0.0017
3865.00,0.0017
3864.00,0.0017
3863.00,0.0018
3862.00,0.0018
3861.00,0.0018
3860.00,0.0017
3859.00,0.0017
3858.00,0.0016
3857.00,0.0015
3856.00,0.0015
3855.00,0.0015
3854.00,0.0015
3853.00,0.0016
3852.00,0.0016
3851.00,0.0017
3850.00,0.0017
3849.00,0.0017
3848.00,0.0017
3847.00,0.0017
3846.00,0.0017
3845.00,0.0017
3844.00,0.0017
3843.00,0.0017
3842.00,0.0016
3841.00,0.0016
3840.00,0.0016
3839.00,0.0016
3838.00,0.0016
3837.00,0.0017
3836.00,0.0017
3835.00,0.0017
3834.00,0.0017
3833.00,0.0018
3832.00,0.0018
3831.00,0.0018
3830.00,0.0018
3829.00,0.0017
3828.00,0.0017
3827.00,0.0017
3826.00,0.0017
3825.00,0.0017
3824.00,0.0017
3823.00,0.0016
3822.00,0.0016
3821.00,0.0016
3820.00,0.0016
3819.00,0.0016
3818.00,0.0016
3817.00,0.0016
3816.00,0.0016
3815.00,0.0016
3814.00,0.0017
3813.00,0.0017
3812.00,0.0018
3811.00,0.0018
3810.00,0.0018
3809.00,0.0018
3808.00,0.0018
3807.00,0.0017
3806.00,0.0017
3805.00,0.0017
3804.00,0.0017
3803.00,0.0017
3802.00,0.0017
3801.00,0.0017
3800.00,0.0017
3799.00,0.0017
3798.00,0.0016
3797.00,0.0016
3796.00,0.0016
3795.00,0.0017
3794.00,0.0017
3793.00,0.0017
3792.00,0.0017
3791.00,0.0017
3790.00,0.0017
3789.00,0.0017
3788.00,0.0018
3787.00,0.0018
3786.00,0.0018
3785.00,0.0018
3784.00,0.0017
3783.00,0.0017
3782.00,0.0017
3781.00,0.0016
3780.00,0.0016
3779.00,0.0016
3778.00,0.0016
3777.00,0.0017
3776.00,0.0017
3775.00,0.0017
3774.00,0.0017
3773.00,0.0017
3772.00,0.0017
3771.00,0.0018
3770.00,0.0018
3769.00,0.0018
3768.00,0.0017
3767.00,0.0017
3766.00,0.0017
3765.00,0.0017
3764.00,0.0018
3763.00,0.0018
3762.00,0.0018
3761.00,0.0018
3760.00,0.0018
3759.00,0.0018
3758.00,0.0017
3757.00,0.0017
3756.00,0.0016
3755.00,0.0016
3754.00,0.0015
3753.00,0.0015
3752.00,0.0015
3751.00,0.0016
3750.00,0.0016
3749.00,0.0016
3748.00,0.0017
3747.00,0.0017
3746.00,0.0017
3745.00,0.0017
3744.00,0.0017
3743.00,0.0017
3742.00,0.0017
3741.00,0.0017
3740.00,0.0017
3739.00,0.0017
3738.00,0.0017
3737.00,0.0016
3736.00,0.0015
3735.00,0.0015
3734.00,0.0014
3733.00,0.0014
3732.00,0.0015
3731.00,0.0015
3730.00,0.0015
3729.00,0.0015
3728.00,0.0014
3727.00,0.0014
3726.00,0.0014
3725.00,0.0014
3724.00,0.0014
3723.00,0.0015
3722.00,0.0015
3721.00,0.0015
3720.00,0.0015
3719.00,0.0015
3718.00,0.0015
3717.00,0.0016
3716.00,0.0016
3715.00,0.0016
3714.00,0.0016
3713.00,0.0016
3712.00,0.0015
3711.00,0.0015
3710.00,0.0015
3709.00,0.0015
3708.00,0.0015
3707.00,0.0015
3706.00,0.0016
3705.00,0.0016
3704.00,0.0015
3703.00,0.0015
3702.00,0.0014
3701.00,0.0014
3700.00,0.0015
3699.00,0.0016
3698.00,0.0016
3697.00,0.0016
3696.00,0.0016
3695.00,0.0016
3694.00,0.0016
3693.00,0.0016
3692.00,0.0016
3691.00,0.0016
3690.00,0.0016
3689.00,0.0016
3688.00,0.0016
3687.00,0.0017
3686.00,0.0017
3685.00,0.0017
3684.00,0.0018
3683.00,0.0018
3682.00,0.0018
3681.00,0.0018
3680.00,0.0018
3679.00,0.0019
3678.00,0.0019
3677.00,0.0019
3676.00,0.0019
3675.00,0.0019
3674.00,0.0019
3673.00,0.0019
3672.00,0.0020
3671.00,0.0020
3670.00,0.0019
3669.00,0.0019
3668.00,0.0019
3667.00,0.0020
3666.00,0.0020
3665.00,0.0020
3664.00,0.0020
3663.00,0.0020
3662.00,0.0020
3661.00,0.0020
3660.00,0.0020
3659.00,0.0020
3658.00,0.0020
3657.00,0.0020
3656.00,0.0020
3655.00,0.0020
3654.00,0.0020
3653.00,0.0020
3652.00,0.0020
3651.00,0.0020
3650.00,0.0021
3649.00,0.0020
3648.00,0.0020
3647.00,0.0021
3646.00,0.0021
3645.00,0.0021
3644.00,0.0021
3643.00,0.0021
3642.00,0.0021
3641.00,0.0021
3640.00,0.0021
3639.00,0.0021
3638.00,0.0021
3637.00,0.0021
3636.00,0.0021
3635.00,0.0020
3634.00,0.0020
3633.00,0.0020
3632.00,0.0019
3631.00,0.0020
3630.00,0.0020
3629.00,0.0020
3628.00,0.0020
3627.00,0.0020
3626.00,0.0020
3625.00,0.0020
3624.00,0.0020
3623.00,0.0020
3622.00,0.0020
3621.00,0.0020
3620.00,0.0020
3619.00,0.0020
3618.00,0.0021
3617.00,0.0021
3616.00,0.0021
3615.00,0.0021
3614.00,0.0021
3613.00,0.0021
3612.00,0.0021
3611.00,0.0021
3610.00,0.0021
3609.00,0.0022
3608.00,0.0022
3607.00,0.0023
3606.00,0.0023
3605.00,0.0024
3604.00,0.0024
3603.00,0.0024
3602.00,0.0023
3601.00,0.0023
3600.00,0.0023
3599.00,0.0023
3598.00,0.0023
3597.00,0.0022
3596.00,0.0022
3595.00,0.0023
3594.00,0.0023
3593.00,0.0024
3592.00,0.0025
3591.00,0.0026
3590.00,0.0027
3589.00,0.0027
3588.00,0.0026
3587.00,0.0025
3586.00,0.0025
3585.00,0.0025
3584.00,0.0026
3583.00,0.0027
3582.00,0.0027
3581.00,0.0028
3580.00,0.0028
3579.00,0.0029
3578.00,0.0029
3577.00,0.0029
3576.00,0.0029
3575.00,0.0029
3574.00,0.0029
3573.00,0.0029
3572.00,0.0029
3571.00,0.0029
3570.00,0.0029
3569.00,0.0029
3568.00,0.0029
3567.00,0.0029
3566.00,0.0030
3565.00,0.0030
3564.00,0.0030
3563.00,0.0031
3562.00,0.0031
3561.00,0.0032
3560.00,0.0032
3559.00,0.0033
3558.00,0.0033
3557.00,0.0034
3556.00,0.0034
3555.00,0.0034
3554.00,0.0034
3553.00,0.0034
3552.00,0.0034
3551.00,0.0034
3550.00,0.0035
3549.00,0.0036
3548.00,0.0036
3547.00,0.0037
3546.00,0.0037
3545.00,0.0037
3544.00,0.0037
3543.00,0.0037
3542.00,0.0037
3541.00,0.0037
3540.00,0.0038
3539.00,0.0039
3538.00,0.0039
3537.00,0.0039
3536.00,0.0039
3535.00,0.0039
3534.00,0.0040
3533.00,0.0040
3532.00,0.0040
3531.00,0.0040
3530.00,0.0040
3529.00,0.0040
3528.00,0.0041
3527.00,0.0041
3526.00,0.0042
3525.00,0.0042
3524.00,0.0042
3523.00,0.0042
3522.00,0.0042
3521.00,0.0042
3520.00,0.0043
3519.00,0.0043
3518.00,0.0043
3517.00,0.0043
3516.00,0.0043
3515.00,0.0044
3514.00,0.0045
3513.00,0.0045
3512.00,0.0045
3511.00,0.0045
3510.00,0.0045
3509.00,0.0045
3508.00,0.0046
3507.00,0.0046
3506.00,0.0047
3505.00,0.0047
3504.00,0.0047
3503.00,0.0047
3502.00,0.0048
3501.00,0.0048
3500.00,0.0048
3499.00,0.0048
3498.00,0.0049
3497.00,0.0049
3496.00,0.0049
3495.00,0.0050
3494.00,0.0050
3493.00,0.0050
3492.00,0.0050
3491.00,0.0051
3490.00,0.0051
3489.00,0.0052
3488.00,0.0052
3487.00,0.0052
3486.00,0.0053
3485.00,0.0053
3484.00,0.0053
3483.00,0.0054
3482.00,0.0054
3481.00,0.0054
3480.00,0.0054
3479.00,0.0054
3478.00,0.0054
3477.00,0.0055
3476.00,0.0056
3475.00,0.0057
3474.00,0.0057
3473.00,0.0057
3472.00,0.0058
3471.00,0.0058
3470.00,0.0058
3469.00,0.0058
3468.00,0.0058
3467.00,0.0058
3466.00,0.0058
3465.00,0.0058
3464.00,0.0058
3463.00,0.0058
3462.00,0.0058
3461.00,0.0058
3460.00,0.0059
3459.00,0.0059
3458.00,0.0060
3457.00,0.0060
3456.00,0.0060
3455.00,0.0060
3454.00,0.0060
3453.00,0.0060
3452.00,0.0060
3451.00,0.0060
3450.00,0.0061
3449.00,0.0062
3448.00,0.0062
3447.00,0.0062
3446.00,0.0063
3445.00,0.0063
3444.00,0.0063
3443.00,0.0064
3442.00,0.0065
3441.00,0.0065
3440.00,0.0065
3439.00,0.0065
3438.00,0.0065
3437.00,0.0065
3436.00,0.0065
3435.00,0.0065
3434.00,0.0065
3433.00,0.0066
3432.00,0.0066
3431.00,0.0067
3430.00,0.0067
3429.00,0.0067
3428.00,0.0067
3427.00,0.0068
3426.00,0.0068
3425.00,0.0068
3424.00,0.0068
3423.00,0.0069
3422.00,0.0069
3421.00,0.0069
3420.00,0.0069
3419.00,0.0069
3418.00,0.0070
3417.00,0.0070
3416.00,0.0070
3415.00,0.0071
3414.00,0.0071
3413.00,0.0071
3412.00,0.0071
3411.00,0.0071
3410.00,0.0072
3409.00,0.0072
3408.00,0.0072
3407.00,0.0073
3406.00,0.0073
3405.00,0.0073
3404.00,0.0073
3403.00,0.0073
3402.00,0.0073
3401.00,0.0073
3400.00,0.0073
3399.00,0.0074
3398.00,0.0074
3397.00,0.0075
3396.00,0.0075
3395.00,0.0075
3394.00,0.0074
3393.00,0.0074
3392.00,0.0075
3391.00,0.0075
3390.00,0.0075
3389.00,0.0075
3388.00,0.0075
3387.00,0.0075
3386.00,0.0075
3385.00,0.0075
3384.00,0.0075
3383.00,0.0075
3382.00,0.0075
3381.00,0.0075
3380.00,0.0075
3379.00,0.0076
3378.00,0.0076
3377.00,0.0076
3376.00,0.0076
3375.00,0.0076
3374.00,0.0076
3373.00,0.0076
3372.00,0.0076
3371.00,0.0076
3370.00,0.0076
3369.00,0.0076
3368.00,0.0076
3367.00,0.0077
3366.00,0.0077
3365.00,0.0077
3364.00,0.0077
3363.00,0.0077
3362.00,0.0077
3361.00,0.0077
3360.00,0.0077
3359.00,0.0076
3358.00,0.0076
3357.00,0.0076
3356.00,0.0076
3355.00,0.0077
3354.00,0.0077
3353.00,0.0077
3352.00,0.0077
3351.00,0.0077
3350.00,0.0078
3349.00,0.0078
3348.00,0.0078
3347.00,0.0079
3346.00,0.0079
3345.00,0.0078
3344.00,0.0078
3343.00,0.0078
3342.00,0.0078
3341.00,0.0078
3340.00,0.0078
3339.00,0.0078
3338.00,0.0078
3337.00,0.0078
3336.00,0.0078
3335.00,0.0078
3334.00,0.0078
3333.00,0.0078
3332.00,0.0078
3331.00,0.0078
3330.00,0.0078
3329.00,0.0078
3328.00,0.0078
3327.00,0.0077
3326.00,0.0077
3325.00,0.0076
3324.00,0.0076
3323.00,0.0076
3322.00,0.0076
3321.00,0.0076
3320.00,0.0076
3319.00,0.0076
3318.00,0.0076
3317.00,0.0076
3316.00,0.0076
3315.00,0.0076
3314.00,0.0076
3313.00,0.0076
3312.00,0.0077
3311.00,0.0077
3310.00,0.0077
3309.00,0.0078
3308.00,0.0078
3307.00,0.0078
3306.00,0.0077
3305.00,0.0077
3304.00,0.0077
3303.00,0.0077
3302.00,0.0077
3301.00,0.0077
3300.00,0.0077
3299.00,0.0077
3298.00,0.0077
3297.00,0.0076
3296.00,0.0076
3295.00,0.0076
3294.00,0.0076
3293.00,0.0076
3292.00,0.0076
3291.00,0.0076
3290.00,0.0076
3289.00,0.0075
3288.00,0.0075
3287.00,0.0074
3286.00,0.0074
3285.00,0.0073
3284.00,0.0073
3283.00,0.0073
3282.00,0.0072
3281.00,0.0072
3280.00,0.0072
3279.00,0.0072
3278.00,0.0072
3277.00,0.0072
3276.00,0.0072
3275.00,0.0072
3274.00,0.0071
3273.00,0.0071
3272.00,0.0070
3271.00,0.0070
3270.00,0.0070
3269.00,0.0070
3268.00,0.0070
3267.00,0.0070
3266.00,0.0070
3265.00,0.0069
3264.00,0.0069
3263.00,0.0069
3262.00,0.0069
3261.00,0.0069
3260.00,0.0069
3259.00,0.0068
3258.00,0.0068
3257.00,0.0068
3256.00,0.0067
3255.00,0.0067
3254.00,0.0067
3253.00,0.0067
3252.00,0.0067
3251.00,0.0066
3250.00,0.0066
3249.00,0.0066
3248.00,0.0066
3247.00,0.0065
3246.00,0.0065
3245.00,0.0065
3244.00,0.0065
3243.00,0.0064
3242.00,0.0064
3241.00,0.0064
3240.00,0.0064
3239.00,0.0064
3238.00,0.0065
3237.00,0.0065
3236.00,0.0065
3235.00,0.0065
3234.00,0.0065
3233.00,0.0065
3232.00,0.0065
3231.00,0.0065
3230.00,0.0065
3229.00,0.0065
3228.00,0.0065
3227.00,0.0065
3226.00,0.0065
3225.00,0.0066
3224.00,0.0066
3223.00,0.0066
3222.00,0.0066
3221.00,0.0066
3220.00,0.0066
3219.00,0.0066
3218.00,0.0066
3217.00,0.0066
3216.00,0.0065
3215.00,0.0065
3214.00,0.0065
3213.00,0.0065
3212.00,0.0066
3211.00,0.0066
3210.00,0.0067
3209.00,0.0067
3208.00,0.0067
3207.00,0.0067
3206.00,0.0068
3205.00,0.0068
3204.00,0.0068
3203.00,0.0068
3202.00,0.0068
3201.00,0.0068
3200.00,0.0068
3199.00,0.0068
3198.00,0.0067
3197.00,0.0067
3196.00,0.0067
3195.00,0.0067
3194.00,0.0067
3193.00,0.0066
3192.00,0.0066
3191.00,0.0066
3190.00,0.0066
3189.00,0.0066
3188.00,0.0066
3187.00,0.0066
3186.00,0.0067
3185.00,0.0067
3184.00,0.0067
3183.00,0.0067
3182.00,0.0066
3181.00,0.0066
3180.00,0.0065
3179.00,0.0065
3178.00,0.0064
3177.00,0.0064
3176.00,0.0064
3175.00,0.0064
3174.00,0.0064
3173.00,0.0063
3172.00,0.0063
3171.00,0.0063
3170.00,0.0063
3169.00,0.0062
3168.00,0.0062
3167.00,0.0062
3166.00,0.0061
3165.00,0.0061
3164.00,0.0061
3163.00,0.0061
3162.00,0.0060
3161.00,0.0060
3160.00,0.0060
3159.00,0.0059
3158.00,0.0059
3157.00,0.0059
3156.00,0.0060
3155.00,0.0060
3154.00,0.0060
3153.00,0.0060
3152.00,0.0059
3151.00,0.0059
3150.00,0.0059
3149.00,0.0059
3148.00,0.0059
3147.00,0.0059
3146.00,0.0059
3145.00,0.0059
3144.00,0.0058
3143.00,0.0058
3142.00,0.0057
3141.00,0.0057
3140.00,0.0057
3139.00,0.0058
3138.00,0.0058
3137.00,0.0058
3136.00,0.0058
3135.00,0.0057
3134.00,0.0057
3133.00,0.0056
3132.00,0.0056
3131.00,0.0056
3130.00,0.0056
3129.00,0.0055
3128.00,0.0055
3127.00,0.0054
3126.00,0.0053
3125.00,0.0053
3124.00,0.0053
3123.00,0.0053
3122.00,0.0053
3121.00,0.0052
3120.00,0.0052
3119.00,0.0052
3118.00,0.0051
3117.00,0.0051
3116.00,0.0051
3115.00,0.0051
3114.00,0.0051
3113.00,0.0050
3112.00,0.0050
3111.00,0.0050
3110.00,0.0050
3109.00,0.0050
3108.00,0.0050
3107.00,0.0050
3106.00,0.0050
3105.00,0.0050
3104.00,0.0049
3103.00,0.0049
3102.00,0.0048
3101.00,0.0048
3100.00,0.0048
3099.00,0.0048
3098.00,0.0049
3097.00,0.0048
3096.00,0.0048
3095.00,0.0048
3094.00,0.0048
3093.00,0.0047
3092.00,0.0047
3091.00,0.0047
3090.00,0.0048
3089.00,0.0048
3088.00,0.0048
3087.00,0.0048
3086.00,0.0047
3085.00,0.0047
3084.00,0.0047
3083.00,0.0047
3082.00,0.0046
3081.00,0.0046
3080.00,0.0046
3079.00,0.0046
3078.00,0.0046
3077.00,0.0046
3076.00,0.0046
3075.00,0.0046
3074.00,0.0047
3073.00,0.0047
3072.00,0.0047
3071.00,0.0047
3070.00,0.0047
3069.00,0.0047
3068.00,0.0047
3067.00,0.0047
3066.00,0.0047
3065.00,0.0047
3064.00,0.0047
3063.00,0.0048
3062.00,0.0048
3061.00,0.0048
3060.00,0.0048
3059.00,0.0048
3058.00,0.0047
3057.00,0.0047
3056.00,0.0047
3055.00,0.0048
3054.00,0.0048
3053.00,0.0048
3052.00,0.0048
3051.00,0.0049
3050.00,0.0049
3049.00,0.0049
3048.00,0.0049
3047.00,0.0049
3046.00,0.0049
3045.00,0.0049
3044.00,0.0049
3043.00,0.0049
3042.00,0.0049
3041.00,0.0049
3040.00,0.0050
3039.00,0.0050
3038.00,0.0051
3037.00,0.0051
3036.00,0.0051
3035.00,0.0051
3034.00,0.0052
3033.00,0.0052
3032.00,0.0052
3031.00,0.0053
3030.00,0.0054
3029.00,0.0054
3028.00,0.0055
3027.00,0.0055
3026.00,0.0056
3025.00,0.0056
3024.00,0.0057
3023.00,0.0057
3022.00,0.0058
3021.00,0.0059
3020.00,0.0060
3019.00,0.0061
3018.00,0.0062
3017.00,0.0063
3016.00,0.0064
3015.00,0.0065
3014.00,0.0066
3013.00,0.0068
3012.00,0.0070
3011.00,0.0072
3010.00,0.0074
3009.00,0.0076
3008.00,0.0078
3007.00,0.0080
3006.00,0.0083
3005.00,0.0085
3004.00,0.0088
3003.00,0.0091
3002.00,0.0094
3001.00,0.0097
3000.00,0.0101
2999.00,0.0105
2998.00,0.0108
2997.00,0.0112
2996.00,0.0116
2995.00,0.0120
2994.00,0.0125
2993.00,0.0130
2992.00,0.0135
2991.00,0.0141
2990.00,0.0148
2989.00,0.0155
2988.00,0.0163
2987.00,0.0173
2986.00,0.0184
2985.00,0.0196
2984.00,0.0211
2983.00,0.0227
2982.00,0.0244
2981.00,0.0261
2980.00,0.0280
2979.00,0.0300
2978.00,0.0324
2977.00,0.0351
2976.00,0.0383
2975.00,0.0419
2974.00,0.0462
2973.00,0.0510
2972.00,0.0565
2971.00,0.0624
2970.00,0.0690
2969.00,0.0761
2968.00,0.0837
2967.00,0.0919
2966.00,0.1004
2965.00,0.1091
2964.00,0.1176
2963.00,0.1254
2962.00,0.1322
2961.00,0.1375
2960.00,0.1416
2959.00,0.1448
2958.00,0.1477
2957.00,0.1511
2956.00,0.1555
2955.00,0.1613
2954.00,0.1683
2953.00,0.1758
2952.00,0.1828
2951.00,0.1879
2950.00,0.1897
2949.00,0.1874
2948.00,0.1808
2947.00,0.1707
2946.00,0.1583
2945.00,0.1452
2944.00,0.1328
2943.00,0.1221
2942.00,0.1137
2941.00,0.1077
2940.00,0.1042
2939.00,0.1029
2938.00,0.1035
2937.00,0.1058
2936.00,0.1097
2935.00,0.1149
2934.00,0.1216
2933.00,0.1294
2932.00,0.1384
2931.00,0.1482
2930.00,0.1586
2929.00,0.1694
2928.00,0.1802
2927.00,0.1908
2926.00,0.2011
2925.00,0.2110
2924.00,0.2206
2923.00,0.2302
2922.00,0.2398
2921.00,0.2491
2920.00,0.2574
2919.00,0.2638
2918.00,0.2672
2917.00,0.2668
2916.00,0.2624
2915.00,0.2545
2914.00,0.2444
2913.00,0.2334
2912.00,0.2227
2911.00,0.2129
2910.00,0.2043
2909.00,0.1967
2908.00,0.1898
2907.00,0.1834
2906.00,0.1770
2905.00,0.1705
2904.00,0.1639
2903.00,0.1572
2902.00,0.1506
2901.00,0.1441
2900.00,0.1379
2899.00,0.1319
2898.00,0.1264
2897.00,0.1214
2896.00,0.1169
2895.00,0.1131
2894.00,0.1100
2893.00,0.1076
2892.00,0.1058
2891.00,0.1046
2890.00,0.1039
2889.00,0.1037
2888.00,0.1038
2887.00,0.1042
2886.00,0.1049
2885.00,0.1059
2884.00,0.1073
2883.00,0.1091
2882.00,0.1111
2881.00,0.1133
2880.00,0.1153
2879.00,0.1168
2878.00,0.1176
2877.00,0.1175
2876.00,0.1169
2875.00,0.1161
2874.00,0.1156
2873.00,0.1157
2872.00,0.1167
2871.00,0.1183
2870.00,0.1203
2869.00,0.1223
2868.00,0.1235
2867.00,0.1232
2866.00,0.1209
2865.00,0.1162
2864.00,0.1095
2863.00,0.1016
2862.00,0.0935
2861.00,0.0860
2860.00,0.0798
2859.00,0.0751
2858.00,0.0718
2857.00,0.0697
2856.00,0.0687
2855.00,0.0685
2854.00,0.0689
2853.00,0.0698
2852.00,0.0710
2851.00,0.0725
2850.00,0.0742
2849.00,0.0761
2848.00,0.0783
2847.00,0.0812
2846.00,0.0849
2845.00,0.0895
2844.00,0.0950
2843.00,0.1010
2842.00,0.1072
2841.00,0.1127
2840.00,0.1170
2839.00,0.1191
2838.00,0.1185
2837.00,0.1149
2836.00,0.1084
2835.00,0.0998
2834.00,0.0900
2833.00,0.0799
2832.00,0.0704
2831.00,0.0620
2830.00,0.0549
2829.00,0.0491
2828.00,0.0443
2827.00,0.0405
2826.00,0.0373
2825.00,0.0346
2824.00,0.0324
2823.00,0.0305
2822.00,0.0289
2821.00,0.0275
2820.00,0.0262
2819.00,0.0251
2818.00,0.0241
2817.00,0.0232
2816.00,0.0224
2815.00,0.0217
2814.00,0.0211
2813.00,0.0206
2812.00,0.0200
2811.00,0.0195
2810.00,0.0189
2809.00,0.0183
2808.00,0.0177
2807.00,0.0171
2806.00,0.0164
2805.00,0.0158
2804.00,0.0152
2803.00,0.0146
2802.00,0.0141
2801.00,0.0137
2800.00,0.0133
2799.00,0.0130
2798.00,0.0127
2797.00,0.0124
2796.00,0.0122
2795.00,0.0119
2794.00,0.0117
2793.00,0.0114
2792.00,0.0111
2791.00,0.0108
2790.00,0.0105
2789.00,0.0102
2788.00,0.0099
2787.00,0.0096
2786.00,0.0093
2785.00,0.0091
2784.00,0.0088
2783.00,0.0086
2782.00,0.0083
2781.00,0.0081
2780.00,0.0080
2779.00,0.0078
2778.00,0.0077
2777.00,0.0076
2776.00,0.0074
2775.00,0.0073
2774.00,0.0072
2773.00,0.0072
2772.00,0.0071
2771.00,0.0070
2770.00,0.0070
2769.00,0.0069
2768.00,0.0069
2767.00,0.0069
2766.00,0.0068
2765.00,0.0068
2764.00,0.0068
2763.00,0.0067
2762.00,0.0067
2761.00,0.0066
2760.00,0.0066
2759.00,0.0066
2758.00,0.0065
2757.00,0.0065
2756.00,0.0065
2755.00,0.0064
2754.00,0.0064
2753.00,0.0064
2752.00,0.0064
2751.00,0.0064
2750.00,0.0064
2749.00,0.0064
2748.00,0.0064
2747.00,0.0064
2746.00,0.0064
2745.00,0.0065
2744.00,0.0066
2743.00,0.0067
2742.00,0.0068
2741.00,0.0069
2740.00,0.0070
2739.00,0.0071
2738.00,0.0072
2737.00,0.0073
2736.00,0.0074
2735.00,0.0075
2734.00,0.0077
2733.00,0.0078
2732.00,0.0080
2731.00,0.0082
2730.00,0.0084
2729.00,0.0086
2728.00,0.0089
2727.00,0.0091
2726.00,0.0094
2725.00,0.0096
2724.00,0.0098
2723.00,0.0099
2722.00,0.0098
2721.00,0.0096
2720.00,0.0094
2719.00,0.0091
2718.00,0.0088
2717.00,0.0085
2716.00,0.0082
2715.00,0.0079
2714.00,0.0076
2713.00,0.0074
2712.00,0.0072
2711.00,0.0070
2710.00,0.0068
2709.00,0.0067
2708.00,0.0065
2707.00,0.0064
2706.00,0.0063
2705.00,0.0062
2704.00,0.0061
2703.00,0.0060
2702.00,0.0059
2701.00,0.0058
2700.00,0.0057
2699.00,0.0057
2698.00,0.0056
2697.00,0.0056
2696.00,0.0056
2695.00,0.0056
2694.00,0.0056
2693.00,0.0056
2692.00,0.0056
2691.00,0.0056
2690.00,0.0057
2689.00,0.0057
2688.00,0.0057
2687.00,0.0057
2686.00,0.0057
2685.00,0.0056
2684.00,0.0056
2683.00,0.0056
2682.00,0.0056
2681.00,0.0056
2680.00,0.0057
2679.00,0.0057
2678.00,0.0057
2677.00,0.0057
2676.00,0.0057
2675.00,0.0057
2674.00,0.0057
2673.00,0.0056
2672.00,0.0056
2671.00,0.0056
2670.00,0.0056
2669.00,0.0056
2668.00,0.0056
2667.00,0.0056
2666.00,0.0056
2665.00,0.0056
2664.00,0.0057
2663.00,0.0057
2662.00,0.0058
2661.00,0.0058
2660.00,0.0058
2659.00,0.0058
2658.00,0.0058
2657.00,0.0058
2656.00,0.0058
2655.00,0.0058
2654.00,0.0057
2653.00,0.0057
2652.00,0.0056
2651.00,0.0055
2650.00,0.0055
2649.00,0.0054
2648.00,0.0054
2647.00,0.0053
2646.00,0.0053
2645.00,0.0053
2644.00,0.0053
2643.00,0.0052
2642.00,0.0052
2641.00,0.0051
2640.00,0.0050
2639.00,0.0050
2638.00,0.0050
2637.00,0.0049
2636.00,0.0049
2635.00,0.0049
2634.00,0.0050
2633.00,0.0050
2632.00,0.0050
2631.00,0.0050
2630.00,0.0050
2629.00,0.0050
2628.00,0.0050
2627.00,0.0050
2626.00,0.0050
2625.00,0.0050
2624.00,0.0051
2623.00,0.0051
2622.00,0.0052
2621.00,0.0052
2620.00,0.0052
2619.00,0.0052
2618.00,0.0051
2617.00,0.0051
2616.00,0.0050
2615.00,0.0050
2614.00,0.0050
2613.00,0.0049
2612.00,0.0049
2611.00,0.0049
2610.00,0.0048
2609.00,0.0047
2608.00,0.0047
2607.00,0.0046
2606.00,0.0045
2605.00,0.0044
2604.00,0.0044
2603.00,0.0043
2602.00,0.0042
2601.00,0.0042
2600.00,0.0042
2599.00,0.0042
2598.00,0.0042
2597.00,0.0042
2596.00,0.0041
2595.00,0.0041
2594.00,0.0042
2593.00,0.0042
2592.00,0.0043
2591.00,0.0044
2590.00,0.0045
2589.00,0.0045
2588.00,0.0046
2587.00,0.0047
2586.00,0.0048
2585.00,0.0049
2584.00,0.0050
2583.00,0.0050
2582.00,0.0050
2581.00,0.0050
2580.00,0.0049
2579.00,0.0049
2578.00,0.0048
2577.00,0.0047
2576.00,0.0046
2575.00,0.0045
2574.00,0.0043
2573.00,0.0042
2572.00,0.0040
2571.00,0.0039
2570.00,0.0038
2569.00,0.0037
2568.00,0.0037
2567.00,0.0037
2566.00,0.0037
2565.00,0.0037
2564.00,0.0037
2563.00,0.0036
2562.00,0.0036
2561.00,0.0036
2560.00,0.0035
2559.00,0.0035
2558.00,0.0035
2557.00,0.0035
2556.00,0.0035
2555.00,0.0035
2554.00,0.0034
2553.00,0.0033
2552.00,0.0032
2551.00,0.0032
2550.00,0.0032
2549.00,0.0031
2548.00,0.0031
2547.00,0.0031
2546.00,0.0031
2545.00,0.0030
2544.00,0.0030
2543.00,0.0029
2542.00,0.0029
2541.00,0.0029
2540.00,0.0029
2539.00,0.0030
2538.00,0.0029
2537.00,0.0029
2536.00,0.0029
2535.00,0.0029
2534.00,0.0029
2533.00,0.0029
2532.00,0.0028
2531.00,0.0027
2530.00,0.0027
2529.00,0.0026
2528.00,0.0026
2527.00,0.0026
2526.00,0.0026
2525.00,0.0026
2524.00,0.0026
2523.00,0.0026
2522.00,0.0026
2521.00,0.0026
2520.00,0.0025
2519.00,0.0024
2518.00,0.0024
2517.00,0.0024
2516.00,0.0024
2515.00,0.0024
2514.00,0.0024
2513.00,0.0024
2512.00,0.0024
2511.00,0.0024
2510.00,0.0024
2509.00,0.0025
2508.00,0.0025
2507.00,0.0025
2506.00,0.0024
2505.00,0.0024
2504.00,0.0023
2503.00,0.0023
2502.00,0.0023
2501.00,0.0023
2500.00,0.0023
2499.00,0.0024
2498.00,0.0024
2497.00,0.0024
2496.00,0.0023
2495.00,0.0023
2494.00,0.0022
2493.00,0.0022
2492.00,0.0023
2491.00,0.0023
2490.00,0.0023
2489.00,0.0023
2488.00,0.0022
2487.00,0.0022
2486.00,0.0021
2485.00,0.0021
2484.00,0.0022
2483.00,0.0022
2482.00,0.0022
2481.00,0.0022
2480.00,0.0022
2479.00,0.0022
2478.00,0.0021
2477.00,0.0021
2476.00,0.0020
2475.00,0.0019
2474.00,0.0019
2473.00,0.0020
2472.00,0.0020
2471.00,0.0020
2470.00,0.0020
2469.00,0.0020
2468.00,0.0020
2467.00,0.0019
2466.00,0.0019
2465.00,0.0019
2464.00,0.0019
2463.00,0.0020
2462.00,0.0021
2461.00,0.0021
2460.00,0.0022
2459.00,0.0022
2458.00,0.0022
2457.00,0.0022
2456.00,0.0022
2455.00,0.0022
2454.00,0.0022
2453.00,0.0022
2452.00,0.0022
2451.00,0.0022
2450.00,0.0022
2449.00,0.0022
2448.00,0.0023
2447.00,0.0023
2446.00,0.0023
2445.00,0.0023
2444.00,0.0023
2443.00,0.0022
2442.00,0.0021
2441.00,0.0021
2440.00,0.0021
2439.00,0.0021
2438.00,0.0021
2437.00,0.0022
2436.00,0.0022
2435.00,0.0023
2434.00,0.0023
2433.00,0.0023
2432.00,0.0023
2431.00,0.0023
2430.00,0.0022
2429.00,0.0022
2428.00,0.0022
2427.00,0.0022
2426.00,0.0022
2425.00,0.0022
2424.00,0.0022
2423.00,0.0022
2422.00,0.0022
2421.00,0.0021
2420.00,0.0020
2419.00,0.0020
2418.00,0.0019
2417.00,0.0019
2416.00,0.0019
2415.00,0.0020
2414.00,0.0020
2413.00,0.0021
2412.00,0.0022
2411.00,0.0023
2410.00,0.0023
2409.00,0.0022
2408.00,0.0021
2407.00,0.0020
2406.00,0.0018
2405.00,0.0018
2404.00,0.0018
2403.00,0.0018
2402.00,0.0019
2401.00,0.0019
2400.00,0.0019
2399.00,0.0019
2398.00,0.0018
2397.00,0.0018
2396.00,0.0018
2395.00,0.0018
2394.00,0.0018
2393.00,0.0019
2392.00,0.0018
2391.00,0.0018
2390.00,0.0017
2389.00,0.0017
2388.00,0.0017
2387.00,0.0017
2386.00,0.0017
2385.00,0.0017
2384.00,0.0016
2383.00,0.0015
2382.00,0.0015
2381.00,0.0015
2380.00,0.0015
2379.00,0.0015
2378.00,0.0015
2377.00,0.0016
2376.00,0.0016
2375.00,0.0015
2374.00,0.0015
2373.00,0.0015
2372.00,0.0015
2371.00,0.0015
2370.00,0.0015
2369.00,0.0015
2368.00,0.0014
2367.00,0.0013
2366.00,0.0013
2365.00,0.0013
2364.00,0.0014
2363.00,0.0014
2362.00,0.0015
2361.00,0.0015
2360.00,0.0015
2359.00,0.0015
2358.00,0.0016
2357.00,0.0016
2356.00,0.0017
2355.00,0.0017
2354.00,0.0017
2353.00,0.0016
2352.00,0.0016
2351.00,0.0015
2350.00,0.0015
2349.00,0.0016
2348.00,0.0016
2347.00,0.0017
2346.00,0.0017
2345.00,0.0017
2344.00,0.0017
2343.00,0.0016
2342.00,0.0017
2341.00,0.0018
2340.00,0.0019
2339.00,0.0020
2338.00,0.0020
2337.00,0.0020
2336.00,0.0019
2335.00,0.0019
2334.00,0.0018
2333.00,0.0018
2332.00,0.0018
2331.00,0.0018
2330.00,0.0018
2329.00,0.0019
2328.00,0.0020
2327.00,0.0023
2326.00,0.0027
2325.00,0.0031
2324.00,0.0032
2323.00,0.0032
2322.00,0.0029
2321.00,0.0027
2320.00,0.0025
2319.00,0.0024
2318.00,0.0024
2317.00,0.0023
2316.00,0.0023
2315.00,0.0022
2314.00,0.0021
2313.00,0.0020
2312.00,0.0019
2311.00,0.0018
2310.00,0.0018
2309.00,0.0018
2308.00,0.0018
2307.00,0.0018
2306.00,0.0017
2305.00,0.0018
2304.00,0.0018
2303.00,0.0019
2302.00,0.0019
2301.00,0.0019
2300.00,0.0019
2299.00,0.0020
2298.00,0.0021
2297.00,0.0022
2296.00,0.0023
2295.00,0.0023
2294.00,0.0023
2293.00,0.0024
2292.00,0.0024
2291.00,0.0025
2290.00,0.0026
2289.00,0.0026
2288.00,0.0027
2287.00,0.0028
2286.00,0.0028
2285.00,0.0028
2284.00,0.0027
2283.00,0.0026
2282.00,0.0025
2281.00,0.0024
2280.00,0.0024
2279.00,0.0024
2278.00,0.0023
2277.00,0.0023
2276.00,0.0023
2275.00,0.0022
2274.00,0.0022
2273.00,0.0022
2272.00,0.0023
2271.00,0.0024
2270.00,0.0025
2269.00,0.0025
2268.00,0.0023
2267.00,0.0021
2266.00,0.0020
2265.00,0.0020
2264.00,0.0021
2263.00,0.0021
2262.00,0.0021
2261.00,0.0020
2260.00,0.0021
2259.00,0.0021
2258.00,0.0021
2257.00,0.0021
2256.00,0.0020
2255.00,0.0019
2254.00,0.0019
2253.00,0.0018
2252.00,0.0018
2251.00,0.0017
2250.00,0.0017
2249.00,0.0017
2248.00,0.0017
2247.00,0.0016
2246.00,0.0015
2245.00,0.0015
2244.00,0.0016
2243.00,0.0017
2242.00,0.0017
2241.00,0.0016
2240.00,0.0016
2239.00,0.0016
2238.00,0.0017
2237.00,0.0018
2236.00,0.0019
2235.00,0.0020
2234.00,0.0019
2233.00,0.0019
2232.00,0.0020
2231.00,0.0020
2230.00,0.0019
2229.00,0.0019
2228.00,0.0019
2227.00,0.0018
2226.00,0.0018
2225.00,0.0018
2224.00,0.0019
2223.00,0.0019
2222.00,0.0020
2221.00,0.0020
2220.00,0.0020
2219.00,0.0019
2218.00,0.0018
2217.00,0.0018
2216.00,0.0017
2215.00,0.0016
2214.00,0.0015
2213.00,0.0014
2212.00,0.0014
2211.00,0.0015
2210.00,0.0016
2209.00,0.0018
2208.00,0.0018
2207.00,0.0018
2206.00,0.0017
2205.00,0.0016
2204.00,0.0016
2203.00,0.0015
2202.00,0.0016
2201.00,0.0016
2200.00,0.0016
2199.00,0.0016
2198.00,0.0016
2197.00,0.0016
2196.00,0.0018
2195.00,0.0019
2194.00,0.0020
2193.00,0.0019
2192.00,0.0018
2191.00,0.0016
2190.00,0.0015
2189.00,0.0015
2188.00,0.0016
2187.00,0.0018
2186.00,0.0020
2185.00,0.0020
2184.00,0.0020
2183.00,0.0018
2182.00,0.0016
2181.00,0.0014
2180.00,0.0012
2179.00,0.0012
2178.00,0.0013
2177.00,0.0013
2176.00,0.0013
2175.00,0.0012
2174.00,0.0012
2173.00,0.0013
2172.00,0.0016
2171.00,0.0019
2170.00,0.0023
2169.00,0.0026
2168.00,0.0028
2167.00,0.0029
2166.00,0.0027
2165.00,0.0025
2164.00,0.0024
2163.00,0.0025
2162.00,0.0026
2161.00,0.0024
2160.00,0.0014
2159.00,-0.0001
2158.00,-0.0013
2157.00,-0.0019
2156.00,-0.0020
2155.00,-0.0017
2154.00,-0.0013
2153.00,-0.0009
2152.00,-0.0006
2151.00,-0.0004
2150.00,-0.0004
2149.00,-0.0004
2148.00,-0.0005
2147.00,-0.0006
2146.00,-0.0006
2145.00,-0.0006
2144.00,-0.0005
2143.00,-0.0006
2142.00,-0.0007
2141.00,-0.0008
2140.00,-0.0008
2139.00,-0.0008
2138.00,-0.0008
2137.00,-0.0007
2136.00,-0.0005
2135.00,-0.0005
2134.00,-0.0005
2133.00,-0.0005
2132.00,-0.0005
2131.00,-0.0005
2130.00,-0.0004
2129.00,-0.0004
2128.00,-0.0003
2127.00,-0.0002
2126.00,-0.0000
2125.00,0.0001
2124.00,0.0003
2123.00,0.0004
2122.00,0.0005
2121.00,0.0006
2120.00,0.0007
2119.00,0.0008
2118.00,0.0008
2117.00,0.0009
2116.00,0.0011
2115.00,0.0012
2114.00,0.0013
2113.00,0.0013
2112.00,0.0012
2111.00,0.0012
2110.00,0.0012
2109.00,0.0012
2108.00,0.0011
2107.00,0.0010
2106.00,0.0009
2105.00,0.0008
2104.00,0.0008
2103.00,0.0009
2102.00,0.0011
2101.00,0.0012
2100.00,0.0013
2099.00,0.0012
2098.00,0.0010
2097.00,0.0008
2096.00,0.0006
2095.00,0.0005
2094.00,0.0005
2093.00,0.0006
2092.00,0.0007
2091.00,0.0008
2090.00,0.0009
2089.00,0.0010
2088.00,0.0011
2087.00,0.0012
2086.00,0.0013
2085.00,0.0012
2084.00,0.0011
2083.00,0.0010
2082.00,0.0011
2081.00,0.0013
2080.00,0.0014
2079.00,0.0014
2078.00,0.0013
2077.00,0.0012
2076.00,0.0011
2075.00,0.0010
2074.00,0.0010
2073.00,0.0011
2072.00,0.0011
2071.00,0.0010
2070.00,0.0010
2069.00,0.0009
2068.00,0.0009
2067.00,0.0008
2066.00,0.0008
2065.00,0.0008
2064.00,0.0007
2063.00,0.0006
2062.00,0.0006
2061.00,0.0005
2060.00,0.0005
2059.00,0.0005
2058.00,0.0005
2057.00,0.0007
2056.00,0.0008
2055.00,0.0009
2054.00,0.0010
2053.00,0.0013
2052.00,0.0017
2051.00,0.0021
2050.00,0.0021
2049.00,0.0018
2048.00,0.0015
2047.00,0.0013
2046.00,0.0013
2045.00,0.0014
2044.00,0.0015
2043.00,0.0016
2042.00,0.0015
2041.00,0.0014
2040.00,0.0013
2039.00,0.0013
2038.00,0.0015
2037.00,0.0016
2036.00,0.0016
2035.00,0.0012
2034.00,0.0009
2033.00,0.0006
2032.00,0.0006
2031.00,0.0007
2030.00,0.0008
2029.00,0.0008
2028.00,0.0007
2027.00,0.0004
2026.00,-0.0000
2025.00,-0.0003
2024.00,-0.0004
2023.00,-0.0003
2022.00,-0.0003
2021.00,-0.0003
2020.00,-0.0003
2019.00,-0.0003
2018.00,-0.0003
2017.00,-0.0002
2016.00,-0.0001
2015.00,0.0000
2014.00,0.0001
2013.00,0.0000
2012.00,-0.0000
2011.00,-0.0001
2010.00,0.0000
2009.00,0.0001
2008.00,-0.0000
2007.00,-0.0004
2006.00,-0.0007
2005.00,-0.0008
2004.00,-0.0007
2003.00,-0.0006
2002.00,-0.0006
2001.00,-0.0005
2000.00,-0.0004
1999.00,-0.0002
1998.00,-0.0001
1997.00,0.0000
1996.00,0.0000
1995.00,-0.0000
1994.00,-0.0000
1993.00,0.0001
1992.00,0.0002
1991.00,0.0003
1990.00,0.0003
1989.00,0.0002
1988.00,0.0002
1987.00,0.0001
1986.00,0.0002
1985.00,0.0005
1984.00,0.0007
1983.00,0.0010
1982.00,0.0013
1981.00,0.0015
1980.00,0.0016
1979.00,0.0012
1978.00,0.0004
1977.00,-0.0003
1976.00,-0.0007
1975.00,-0.0008
1974.00,-0.0008
1973.00,-0.0008
1972.00,-0.0008
1971.00,-0.0006
1970.00,-0.0004
1969.00,-0.0000
1968.00,0.0002
1967.00,0.0003
1966.00,0.0003
1965.00,0.0003
1964.00,0.0004
1963.00,0.0003
1962.00,0.0001
1961.00,-0.0002
1960.00,-0.0005
1959.00,-0.0008
1958.00,-0.0010
1957.00,-0.0011
1956.00,-0.0011
1955.00,-0.0009
1954.00,-0.0008
1953.00,-0.0007
1952.00,-0.0007
1951.00,-0.0008
1950.00,-0.0008
1949.00,-0.0009
1948.00,-0.0009
1947.00,-0.0009
1946.00,-0.0009
1945.00,-0.0009
1944.00,-0.0009
1943.00,-0.0008
1942.00,-0.0006
1941.00,-0.0004
1940.00,-0.0002
1939.00,-0.0001
1938.00,-0.0000
1937.00,-0.0001
1936.00,-0.0001
1935.00,-0.0002
1934.00,-0.0002
1933.00,-0.0002
1932.00,-0.0000
1931.00,0.0001
1930.00,0.0002
1929.00,0.0004
1928.00,0.0004
1927.00,0.0005
1926.00,0.0005
1925.00,0.0005
1924.00,0.0006
1923.00,0.0006
1922.00,0.0005
1921.00,0.0005
1920.00,0.0005
1919.00,0.0004
1918.00,0.0004
1917.00,0.0004
1916.00,0.0004
1915.00,0.0006
1914.00,0.0007
1913.00,0.0008
1912.00,0.0008
1911.00,0.0007
1910.00,0.0006
1909.00,0.0005
1908.00,0.0005
1907.00,0.0006
1906.00,0.0007
1905.00,0.0009
1904.00,0.0010
1903.00,0.0010
1902.00,0.0010
1901.00,0.0010
1900.00,0.0008
1899.00,0.0008
1898.00,0.0008
1897.00,0.0008
1896.00,0.0008
1895.00,0.0008
1894.00,0.0007
1893.00,0.0007
1892.00,0.0008
1891.00,0.0008
1890.00,0.0009
1889.00,0.0009
1888.00,0.0010
1887.00,0.0010
1886.00,0.0010
1885.00,0.0010
1884.00,0.0010
1883.00,0.0010
1882.00,0.0010
1881.00,0.0009
1880.00,0.0009
1879.00,0.0008
1878.00,0.0007
1877.00,0.0007
1876.00,0.0008
1875.00,0.0008
1874.00,0.0009
1873.00,0.0009
1872.00,0.0010
1871.00,0.0010
1870.00,0.0010
1869.00,0.0010
1868.00,0.0011
1867.00,0.0011
1866.00,0.0011
1865.00,0.0011
1864.00,0.0010
1863.00,0.0009
1862.00,0.0009
1861.00,0.0008
1860.00,0.0009
1859.00,0.0009
1858.00,0.0010
1857.00,0.0011
1856.00,0.0012
1855.00,0.0013
1854.00,0.0013
1853.00,0.0013
1852.00,0.0013
1851.00,0.0013
1850.00,0.0014
1849.00,0.0014
1848.00,0.0014
1847.00,0.0014
1846.00,0.0013
1845.00,0.0013
1844.00,0.0013
1843.00,0.0013
1842.00,0.0014
1841.00,0.0013
1840.00,0.0013
1839.00,0.0012
1838.00,0.0011
1837.00,0.0011
1836.00,0.0012
1835.00,0.0012
1834.00,0.0013
1833.00,0.0013
1832.00,0.0013
1831.00,0.0013
1830.00,0.0013
1829.00,0.0013
1828.00,0.0013
1827.00,0.0013
1826.00,0.0013
1825.00,0.0014
1824.00,0.0014
1823.00,0.0014
1822.00,0.0013
1821.00,0.0012
1820.00,0.0012
1819.00,0.0012
1818.00,0.0011
1817.00,0.0011
1816.00,0.0011
1815.00,0.0012
1814.00,0.0012
1813.00,0.0013
1812.00,0.0013
1811.00,0.0014
1810.00,0.0014
1809.00,0.0014
1808.00,0.0014
1807.00,0.0014
1806.00,0.0014
1805.00,0.0015
1804.00,0.0015
1803.00,0.0016
1802.00,0.0016
1801.00,0.0017
1800.00,0.0017
1799.00,0.0017
1798.00,0.0018
1797.00,0.0018
1796.00,0.0019
1795.00,0.0020
1794.00,0.0020
1793.00,0.0020
1792.00,0.0020
1791.00,0.0020
1790.00,0.0020
1789.00,0.0021
1788.00,0.0021
1787.00,0.0020
1786.00,0.0019
1785.00,0.0019
1784.00,0.0019
1783.00,0.0019
1782.00,0.0019
1781.00,0.0019
1780.00,0.0019
1779.00,0.0019
1778.00,0.0019
1777.00,0.0019
1776.00,0.0019
1775.00,0.0019
1774.00,0.0019
1773.00,0.0020
1772.00,0.0020
1771.00,0.0020
1770.00,0.0020
1769.00,0.0021
1768.00,0.0022
1767.00,0.0022
1766.00,0.0022
1765.00,0.0022
1764.00,0.0022
1763.00,0.0023
1762.00,0.0023
1761.00,0.0023
1760.00,0.0024
1759.00,0.0024
1758.00,0.0025
1757.00,0.0027
1756.00,0.0028
1755.00,0.0029
1754.00,0.0030
1753.00,0.0031
1752.00,0.0032
1751.00,0.0033
1750.00,0.0034
1749.00,0.0034
1748.00,0.0034
1747.00,0.0034
1746.00,0.0035
1745.00,0.0036
1744.00,0.0038
1743.00,0.0038
1742.00,0.0039
1741.00,0.0039
1740.00,0.0039
1739.00,0.0039
1738.00,0.0039
1737.00,0.0040
1736.00,0.0040
1735.00,0.0040
1734.00,0.0040
1733.00,0.0040
1732.00,0.0040
1731.00,0.0040
1730.00,0.0040
1729.00,0.0039
1728.00,0.0039
1727.00,0.0039
1726.00,0.0040
1725.00,0.0040
1724.00,0.0040
1723.00,0.0040
1722.00,0.0039
1721.00,0.0039
1720.00,0.0039
1719.00,0.0038
1718.00,0.0039
1717.00,0.0039
1716.00,0.0040
1715.00,0.0040
1714.00,0.0040
1713.00,0.0040
1712.00,0.0040
1711.00,0.0040
1710.00,0.0041
1709.00,0.0041
1708.00,0.0042
1707.00,0.0042
1706.00,0.0043
1705.00,0.0043
1704.00,0.0044
1703.00,0.0044
1702.00,0.0045
1701.00,0.0045
1700.00,0.0046
1699.00,0.0046
1698.00,0.0047
1697.00,0.0047
1696.00,0.0048
1695.00,0.0049
1694.00,0.0049
1693.00,0.0050
1692.00,0.0051
1691.00,0.0051
1690.00,0.0052
1689.00,0.0053
1688.00,0.0054
1687.00,0.0054
1686.00,0.0054
1685.00,0.0054
1684.00,0.0055
1683.00,0.0056
1682.00,0.0057
1681.00,0.0059
1680.00,0.0060
1679.00,0.0061
1678.00,0.0063
1677.00,0.0065
1676.00,0.0066
1675.00,0.0068
1674.00,0.0070
1673.00,0.0072
1672.00,0.0074
1671.00,0.0075
1670.00,0.0077
1669.00,0.0077
1668.00,0.0078
1667.00,0.0079
1666.00,0.0079
1665.00,0.0080
1664.00,0.0081
1663.00,0.0082
1662.00,0.0083
1661.00,0.0084
1660.00,0.0085
1659.00,0.0085
1658.00,0.0086
1657.00,0.0087
1656.00,0.0089
1655.00,0.0090
1654.00,0.0090
1653.00,0.0091
1652.00,0.0093
1651.00,0.0093
1650.00,0.0094
1649.00,0.0095
1648.00,0.0096
1647.00,0.0097
1646.00,0.0098
1645.00,0.0099
1644.00,0.0099
1643.00,0.0098
1642.00,0.0098
1641.00,0.0098
1640.00,0.0098
1639.00,0.0098
1638.00,0.0098
1637.00,0.0098
1636.00,0.0098
1635.00,0.0098
1634.00,0.0098
1633.00,0.0097
1632.00,0.0097
1631.00,0.0096
1630.00,0.0096
1629.00,0.0095
1628.00,0.0095
1627.00,0.0094
1626.00,0.0094
1625.00,0.0094
1624.00,0.0093
1623.00,0.0092
1622.00,0.0092
1621.00,0.0092
1620.00,0.0092
1619.00,0.0093
1618.00,0.0092
1617.00,0.0092
1616.00,0.0092
1615.00,0.0092
1614.00,0.0092
1613.00,0.0092
1612.00,0.0092
1611.00,0.0092
1610.00,0.0092
1609.00,0.0092
1608.00,0.0092
1607.00,0.0092
1606.00,0.0092
1605.00,0.0092
1604.00,0.0092
1603.00,0.0092
1602.00,0.0092
1601.00,0.0092
1600.00,0.0093
1599.00,0.0093
1598.00,0.0093
1597.00,0.0093
1596.00,0.0093
1595.00,0.0093
1594.00,0.0093
1593.00,0.0094
1592.00,0.0094
1591.00,0.0095
1590.00,0.0096
1589.00,0.0096
1588.00,0.0097
1587.00,0.0098
1586.00,0.0100
1585.00,0.0102
1584.00,0.0105
1583.00,0.0107
1582.00,0.0110
1581.00,0.0113
1580.00,0.0117
1579.00,0.0119
1578.00,0.0121
1577.00,0.0121
1576.00,0.0120
1575.00,0.0119
1574.00,0.0117
1573.00,0.0116
1572.00,0.0115
1571.00,0.0113
1570.00,0.0111
1569.00,0.0110
1568.00,0.0109
1567.00,0.0108
1566.00,0.0108
1565.00,0.0107
1564.00,0.0107
1563.00,0.0108
1562.00,0.0108
1561.00,0.0109
1560.00,0.0110
1559.00,0.0111
1558.00,0.0113
1557.00,0.0114
1556.00,0.0116
1555.00,0.0117
1554.00,0.0119
1553.00,0.0120
1552.00,0.0122
1551.00,0.0124
1550.00,0.0126
1549.00,0.0128
1548.00,0.0131
1547.00,0.0133
1546.00,0.0136
1545.00,0.0140
1544.00,0.0143
1543.00,0.0146
1542.00,0.0147
1541.00,0.0148
1540.00,0.0145
1539.00,0.0141
1538.00,0.0137
1537.00,0.0134
1536.00,0.0132
1535.00,0.0129
1534.00,0.0125
1533.00,0.0121
1532.00,0.0118
1531.00,0.0116
1530.00,0.0115
1529.00,0.0114
1528.00,0.0114
1527.00,0.0113
1526.00,0.0113
1525.00,0.0113
1524.00,0.0113
1523.00,0.0113
1522.00,0.0113
1521.00,0.0113
1520.00,0.0115
1519.00,0.0116
1518.00,0.0117
1517.00,0.0118
1516.00,0.0120
1515.00,0.0121
1514.00,0.0121
1513.00,0.0123
1512.00,0.0124
1511.00,0.0125
1510.00,0.0126
1509.00,0.0129
1508.00,0.0132
1507.00,0.0136
1506.00,0.0139
1505.00,0.0142
1504.00,0.0145
1503.00,0.0147
1502.00,0.0149
1501.00,0.0152
1500.00,0.0156
1499.00,0.0159
1498.00,0.0164
1497.00,0.0170
1496.00,0.0176
1495.00,0.0181
1494.00,0.0184
1493.00,0.0188
1492.00,0.0193
1491.00,0.0199
1490.00,0.0205
1489.00,0.0213
1488.00,0.0221
1487.00,0.0227
1486.00,0.0234
1485.00,0.0243
1484.00,0.0252
1483.00,0.0262
1482.00,0.0273
1481.00,0.0286
1480.00,0.0301
1479.00,0.0315
1478.00,0.0331
1477.00,0.0353
1476.00,0.0378
1475.00,0.0407
1474.00,0.0445
1473.00,0.0499
1472.00,0.0565
1471.00,0.0627
1470.00,0.0687
1469.00,0.0749
1468.00,0.0815
1467.00,0.0889
1466.00,0.0974
1465.00,0.1067
1464.00,0.1150
1463.00,0.1208
1462.00,0.1246
1461.00,0.1273
1460.00,0.1292
1459.00,0.1306
1458.00,0.1322
1457.00,0.1340
1456.00,0.1348
1455.00,0.1345
1454.00,0.1335
1453.00,0.1322
1452.00,0.1301
1451.00,0.1272
1450.00,0.1230
1449.00,0.1170
1448.00,0.1090
1447.00,0.1001
1446.00,0.0918
1445.00,0.0844
1444.00,0.0779
1443.00,0.0726
1442.00,0.0686
1441.00,0.0658
1440.00,0.0640
1439.00,0.0633
1438.00,0.0637
1437.00,0.0644
1436.00,0.0642
1435.00,0.0622
1434.00,0.0587
1433.00,0.0543
1432.00,0.0496
1431.00,0.0455
1430.00,0.0424
1429.00,0.0401
1428.00,0.0385
1427.00,0.0375
1426.00,0.0367
1425.00,0.0360
1424.00,0.0354
1423.00,0.0349
1422.00,0.0345
1421.00,0.0340
1420.00,0.0335
1419.00,0.0330
1418.00,0.0325
1417.00,0.0319
1416.00,0.0312
1415.00,0.0305
1414.00,0.0299
1413.00,0.0292
1412.00,0.0285
1411.00,0.0279
1410.00,0.0273
1409.00,0.0267
1408.00,0.0261
1407.00,0.0256
1406.00,0.0252
1405.00,0.0248
1404.00,0.0245
1403.00,0.0243
1402.00,0.0241
1401.00,0.0240
1400.00,0.0238
1399.00,0.0238
1398.00,0.0238
1397.00,0.0237
1396.00,0.0237
1395.00,0.0238
1394.00,0.0239
1393.00,0.0241
1392.00,0.0242
1391.00,0.0246
1390.00,0.0253
1389.00,0.0263
1388.00,0.0280
1387.00,0.0308
1386.00,0.0348
1385.00,0.0401
1384.00,0.0476
1383.00,0.0581
1382.00,0.0722
1381.00,0.0904
1380.00,0.1131
1379.00,0.1395
1378.00,0.1659
1377.00,0.1867
1376.00,0.1956
1375.00,0.1888
1374.00,0.1681
1373.00,0.1412
1372.00,0.1153
1371.00,0.0934
1370.00,0.0755
1369.00,0.0618
1368.00,0.0523
1367.00,0.0464
1366.00,0.0432
1365.00,0.0419
1364.00,0.0421
1363.00,0.0436
1362.00,0.0459
1361.00,0.0485
1360.00,0.0503
1359.00,0.0508
1358.00,0.0496
1357.00,0.0468
1356.00,0.0428
1355.00,0.0384
1354.00,0.0342
1353.00,0.0306
1352.00,0.0278
1351.00,0.0254
1350.00,0.0235
1349.00,0.0219
1348.00,0.0206
1347.00,0.0195
1346.00,0.0185
1345.00,0.0177
1344.00,0.0171
1343.00,0.0165
1342.00,0.0161
1341.00,0.0157
1340.00,0.0153
1339.00,0.0151
1338.00,0.0150
1337.00,0.0150
1336.00,0.0151
1335.00,0.0152
1334.00,0.0155
1333.00,0.0159
1332.00,0.0163
1331.00,0.0166
1330.00,0.0168
1329.00,0.0166
1328.00,0.0162
1327.00,0.0157
1326.00,0.0151
1325.00,0.0145
1324.00,0.0139
1323.00,0.0134
1322.00,0.0130
1321.00,0.0126
1320.00,0.0123
1319.00,0.0121
1318.00,0.0119
1317.00,0.0117
1316.00,0.0116
1315.00,0.0115
1314.00,0.0115
1313.00,0.0115
1312.00,0.0116
1311.00,0.0117
1310.00,0.0121
1309.00,0.0128
1308.00,0.0137
1307.00,0.0149
1306.00,0.0161
1305.00,0.0169
1304.00,0.0171
1303.00,0.0168
1302.00,0.0162
1301.00,0.0157
1300.00,0.0153
1299.00,0.0152
1298.00,0.0153
1297.00,0.0153
1296.00,0.0152
1295.00,0.0150
1294.00,0.0146
1293.00,0.0142
1292.00,0.0137
1291.00,0.0132
1290.00,0.0127
1289.00,0.0124
1288.00,0.0120
1287.00,0.0118
1286.00,0.0116
1285.00,0.0114
1284.00,0.0112
1283.00,0.0110
1282.00,0.0109
1281.00,0.0107
1280.00,0.0106
1279.00,0.0105
1278.00,0.0104
1277.00,0.0104
1276.00,0.0104
1275.00,0.0104
1274.00,0.0104
1273.00,0.0105
1272.00,0.0106
1271.00,0.0107
1270.00,0.0109
1269.00,0.0111
1268.00,0.0113
1267.00,0.0116
1266.00,0.0119
1265.00,0.0123
1264.00,0.0126
1263.00,0.0130
1262.00,0.0134
1261.00,0.0139
1260.00,0.0145
1259.00,0.0151
1258.00,0.0158
1257.00,0.0164
1256.00,0.0167
1255.00,0.0165
1254.00,0.0158
1253.00,0.0150
1252.00,0.0141
1251.00,0.0134
1250.00,0.0128
1249.00,0.0124
1248.00,0.0120
1247.00,0.0118
1246.00,0.0115
1245.00,0.0113
1244.00,0.0112
1243.00,0.0110
1242.00,0.0108
1241.00,0.0107
1240.00,0.0107
1239.00,0.0107
1238.00,0.0107
1237.00,0.0106
1236.00,0.0106
1235.00,0.0105
1234.00,0.0105
1233.00,0.0106
1232.00,0.0106
1231.00,0.0107
1230.00,0.0107
1229.00,0.0107
1228.00,0.0108
1227.00,0.0110
1226.00,0.0112
1225.00,0.0114
1224.00,0.0118
1223.00,0.0122
1222.00,0.0125
1221.00,0.0127
1220.00,0.0129
1219.00,0.0129
1218.00,0.0129
1217.00,0.0127
1216.00,0.0124
1215.00,0.0121
1214.00,0.0117
1213.00,0.0114
1212.00,0.0111
1211.00,0.0109
1210.00,0.0108
1209.00,0.0106
1208.00,0.0104
1207.00,0.0103
1206.00,0.0102
1205.00,0.0101
1204.00,0.0100
1203.00,0.0100
1202.00,0.0101
1201.00,0.0101
1200.00,0.0101
1199.00,0.0102
1198.00,0.0102
1197.00,0.0102
1196.00,0.0102
1195.00,0.0102
1194.00,0.0103
1193.00,0.0104
1192.00,0.0104
1191.00,0.0103
1190.00,0.0103
1189.00,0.0103
1188.00,0.0104
1187.00,0.0104
1186.00,0.0105
1185.00,0.0106
1184.00,0.0107
1183.00,0.0110
1182.00,0.0113
1181.00,0.0117
1180.00,0.0121
1179.00,0.0126
1178.00,0.0132
1177.00,0.0140
1176.00,0.0152
1175.00,0.0168
1174.00,0.0189
1173.00,0.0216
1172.00,0.0248
1171.00,0.0282
1170.00,0.0316
1169.00,0.0342
1168.00,0.0358
1167.00,0.0361
1166.00,0.0352
1165.00,0.0336
1164.00,0.0317
1163.00,0.0299
1162.00,0.0283
1161.00,0.0271
1160.00,0.0261
1159.00,0.0255
1158.00,0.0250
1157.00,0.0247
1156.00,0.0245
1155.00,0.0243
1154.00,0.0242
1153.00,0.0239
1152.00,0.0235
1151.00,0.0229
1150.00,0.0220
1149.00,0.0211
1148.00,0.0200
1147.00,0.0190
1146.00,0.0181
1145.00,0.0173
1144.00,0.0166
1143.00,0.0159
1142.00,0.0153
1141.00,0.0147
1140.00,0.0142
1139.00,0.0139
1138.00,0.0135
1137.00,0.0132
1136.00,0.0130
1135.00,0.0128
1134.00,0.0127
1133.00,0.0127
1132.00,0.0126
1131.00,0.0126
1130.00,0.0126
1129.00,0.0127
1128.00,0.0128
1127.00,0.0129
1126.00,0.0131
1125.00,0.0132
1124.00,0.0132
1123.00,0.0132
1122.00,0.0133
1121.00,0.0133
1120.00,0.0133
1119.00,0.0135
1118.00,0.0136
1117.00,0.0138
1116.00,0.0140
1115.00,0.0142
1114.00,0.0144
1113.00,0.0146
1112.00,0.0147
1111.00,0.0149
1110.00,0.0152
1109.00,0.0155
1108.00,0.0160
1107.00,0.0166
1106.00,0.0174
1105.00,0.0181
1104.00,0.0186
1103.00,0.0189
1102.00,0.0187
1101.00,0.0183
1100.00,0.0177
1099.00,0.0170
1098.00,0.0164
1097.00,0.0158
1096.00,0.0154
1095.00,0.0151
1094.00,0.0149
1093.00,0.0147
1092.00,0.0145
1091.00,0.0144
1090.00,0.0142
1089.00,0.0141
1088.00,0.0139
1087.00,0.0138
1086.00,0.0137
1085.00,0.0136
1084.00,0.0135
1083.00,0.0134
1082.00,0.0134
1081.00,0.0133
1080.00,0.0132
1079.00,0.0130
1078.00,0.0129
1077.00,0.0128
1076.00,0.0128
1075.00,0.0129
1074.00,0.0129
1073.00,0.0128
1072.00,0.0128
1071.00,0.0127
1070.00,0.0127
1069.00,0.0127
1068.00,0.0127
1067.00,0.0127
1066.00,0.0126
1065.00,0.0127
1064.00,0.0127
1063.00,0.0128
1062.00,0.0128
1061.00,0.0129
1060.00,0.0129
1059.00,0.0130
1058.00,0.0132
1057.00,0.0134
1056.00,0.0136
1055.00,0.0138
1054.00,0.0141
1053.00,0.0144
1052.00,0.0147
1051.00,0.0152
1050.00,0.0157
1049.00,0.0162
1048.00,0.0167
1047.00,0.0172
1046.00,0.0176
1045.00,0.0178
1044.00,0.0178
1043.00,0.0176
1042.00,0.0173
1041.00,0.0171
1040.00,0.0169
1039.00,0.0168
1038.00,0.0168
1037.00,0.0167
1036.00,0.0167
1035.00,0.0167
1034.00,0.0167
1033.00,0.0165
1032.00,0.0163
1031.00,0.0161
1030.00,0.0160
1029.00,0.0160
1028.00,0.0162
1027.00,0.0164
1026.00,0.0167
1025.00,0.0169
1024.00,0.0171
1023.00,0.0173
1022.00,0.0175
1021.00,0.0177
1020.00,0.0179
1019.00,0.0180
1018.00,0.0181
1017.00,0.0182
1016.00,0.0182
1015.00,0.0182
1014.00,0.0180
1013.00,0.0179
1012.00,0.0177
1011.00,0.0177
1010.00,0.0177
1009.00,0.0178
1008.00,0.0180
1007.00,0.0185
1006.00,0.0191
1005.00,0.0201
1004.00,0.0216
1003.00,0.0239
1002.00,0.0271
1001.00,0.0311
1000.00,0.0353
999.00,0.0387
998.00,0.0402
997.00,0.0392
996.00,0.0361
995.00,0.0318
994.00,0.0275
993.00,0.0237
992.00,0.0208
991.00,0.0187
990.00,0.0172
989.00,0.0161
988.00,0.0153
987.00,0.0149
986.00,0.0148
985.00,0.0149
984.00,0.0153
983.00,0.0160
982.00,0.0171
981.00,0.0187
980.00,0.0208
979.00,0.0238
978.00,0.0275
977.00,0.0319
976.00,0.0366
975.00,0.0410
974.00,0.0443
973.00,0.0454
972.00,0.0438
971.00,0.0398
970.00,0.0344
969.00,0.0290
968.00,0.0244
967.00,0.0210
966.00,0.0186
965.00,0.0169
964.00,0.0157
963.00,0.0146
962.00,0.0138
961.00,0.0132
960.00,0.0128
959.00,0.0124
958.00,0.0122
957.00,0.0120
956.00,0.0117
955.00,0.0115
954.00,0.0114
953.00,0.0114
952.00,0.0113
951.00,0.0112
950.00,0.0111
949.00,0.0109
948.00,0.0108
947.00,0.0109
946.00,0.0111
945.00,0.0114
944.00,0.0117
943.00,0.0120
942.00,0.0122
941.00,0.0124
940.00,0.0123
939.00,0.0120
938.00,0.0116
937.00,0.0110
936.00,0.0104
935.00,0.0099
934.00,0.0095
933.00,0.0092
932.00,0.0090
931.00,0.0088
930.00,0.0086
929.00,0.0084
928.00,0.0082
927.00,0.0082
926.00,0.0081
925.00,0.0081
924.00,0.0082
923.00,0.0082
922.00,0.0083
921.00,0.0083
920.00,0.0084
919.00,0.0085
918.00,0.0085
917.00,0.0084
916.00,0.0084
915.00,0.0084
914.00,0.0085
913.00,0.0086
912.00,0.0087
911.00,0.0089
910.00,0.0091
909.00,0.0094
908.00,0.0098
907.00,0.0103
906.00,0.0111
905.00,0.0121
904.00,0.0137
903.00,0.0157
902.00,0.0179
901.00,0.0199
900.00,0.0211
899.00,0.0213
898.00,0.0203
897.00,0.0186
896.00,0.0166
895.00,0.0147
894.00,0.0130
893.00,0.0118
892.00,0.0110
891.00,0.0105
890.00,0.0103
889.00,0.0102
888.00,0.0101
887.00,0.0101
886.00,0.0101
885.00,0.0103
884.00,0.0107
883.00,0.0113
882.00,0.0121
881.00,0.0131
880.00,0.0141
879.00,0.0152
878.00,0.0162
877.00,0.0169
876.00,0.0171
875.00,0.0170
874.00,0.0165
873.00,0.0157
872.00,0.0146
871.00,0.0133
870.00,0.0122
869.00,0.0113
868.00,0.0107
867.00,0.0105
866.00,0.0104
865.00,0.0104
864.00,0.0104
863.00,0.0104
862.00,0.0104
861.00,0.0105
860.00,0.0105
859.00,0.0107
858.00,0.0108
857.00,0.0110
856.00,0.0111
855.00,0.0113
854.00,0.0116
853.00,0.0118
852.00,0.0121
851.00,0.0124
850.00,0.0129
849.00,0.0136
848.00,0.0145
847.00,0.0158
846.00,0.0179
845.00,0.0212
844.00,0.0258
843.00,0.0312
842.00,0.0358
841.00,0.0374
840.00,0.0353
839.00,0.0303
838.00,0.0249
837.00,0.0205
836.00,0.0175
835.00,0.0157
834.00,0.0146
833.00,0.0140
832.00,0.0135
831.00,0.0132
830.00,0.0130
829.00,0.0128
828.00,0.0127
827.00,0.0125
826.00,0.0123
825.00,0.0121
824.00,0.0121
823.00,0.0121
822.00,0.0123
821.00,0.0124
820.00,0.0126
819.00,0.0129
818.00,0.0133
817.00,0.0139
816.00,0.0148
815.00,0.0161
814.00,0.0178
813.00,0.0199
812.00,0.0223
811.00,0.0244
810.00,0.0260
809.00,0.0265
808.00,0.0258
807.00,0.0242
806.00,0.0221
805.00,0.0200
804.00,0.0182
803.00,0.0168
802.00,0.0157
801.00,0.0149
800.00,0.0142
799.00,0.0136
798.00,0.0131
797.00,0.0126
796.00,0.0122
795.00,0.0119
794.00,0.0116
793.00,0.0113
792.00,0.0110
791.00,0.0108
790.00,0.0106
789.00,0.0103
788.00,0.0100
787.00,0.0098
786.00,0.0096
785.00,0.0094
784.00,0.0092
783.00,0.0089
782.00,0.0088
781.00,0.0086
780.00,0.0085
779.00,0.0084
778.00,0.0085
777.00,0.0086
776.00,0.0086
775.00,0.0085
774.00,0.0084
773.00,0.0083
772.00,0.0082
771.00,0.0082
770.00,0.0081
769.00,0.0082
768.00,0.0083
767.00,0.0084
766.00,0.0085
765.00,0.0086
764.00,0.0086
763.00,0.0086
762.00,0.0086
761.00,0.0086
760.00,0.0087
759.00,0.0088
758.00,0.0089
757.00,0.0089
756.00,0.0090
755.00,0.0092
754.00,0.0095
753.00,0.0097
752.00,0.0097
751.00,0.0096
750.00,0.0096
749.00,0.0097
748.00,0.0100
747.00,0.0102
746.00,0.0104
745.00,0.0104
744.00,0.0104
743.00,0.0104
742.00,0.0106
741.00,0.0108
740.00,0.0111
739.00,0.0115
738.00,0.0119
737.00,0.0124
736.00,0.0128
735.00,0.0132
734.00,0.0135
733.00,0.0136
732.00,0.0138
731.00,0.0140
730.00,0.0144
729.00,0.0148
728.00,0.0150
727.00,0.0150
726.00,0.0151
725.00,0.0152
724.00,0.0156
723.00,0.0160
722.00,0.0164
721.00,0.0166
720.00,0.0165
719.00,0.0161
718.00,0.0157
717.00,0.0153
716.00,0.0150
715.00,0.0146
714.00,0.0143
713.00,0.0140
712.00,0.0138
711.00,0.0136
710.00,0.0134
709.00,0.0131
708.00,0.0130
707.00,0.0130
706.00,0.0131
705.00,0.0132
704.00,0.0132
703.00,0.0130
702.00,0.0128
701.00,0.0125
700.00,0.0122
699.00,0.0121
698.00,0.0122
697.00,0.0124
696.00,0.0126
695.00,0.0128
694.00,0.0128
693.00,0.0127
692.00,0.0125
691.00,0.0124
690.00,0.0124
689.00,0.0125
688.00,0.0127
687.00,0.0128
686.00,0.0129
685.00,0.0128
684.00,0.0127
683.00,0.0127
682.00,0.0128
681.00,0.0127
680.00,0.0125
679.00,0.0125
678.00,0.0126
677.00,0.0129
676.00,0.0132
675.00,0.0133
674.00,0.0135
673.00,0.0136
672.00,0.0137
671.00,0.0140
670.00,0.0143
669.00,0.0146
668.00,0.0149
667.00,0.0147
666.00,0.0141
665.00,0.0135
664.00,0.0132
663.00,0.0129
662.00,0.0127
661.00,0.0125
660.00,0.0123
659.00,0.0123
658.00,0.0123
657.00,0.0124
656.00,0.0123
655.00,0.0123
654.00,0.0123
653.00,0.0123
652.00,0.0123
651.00,0.0121
650.00,0.0120
649.00,0.0119
648.00,0.0118
647.00,0.0118
646.00,0.0117
645.00,0.0116
644.00,0.0114
643.00,0.0113
642.00,0.0112
641.00,0.0111
640.00,0.0110
639.00,0.0110
638.00,0.0112
637.00,0.0114
636.00,0.0115
635.00,0.0115
634.00,0.0116
633.00,0.0117
632.00,0.0117
631.00,0.0118
630.00,0.0120
629.00,0.0121
628.00,0.0121
627.00,0.0120
626.00,0.0119
625.00,0.0119
624.00,0.0119
623.00,0.0119
622.00,0.0119
621.00,0.0120
620.00,0.0119
619.00,0.0116
618.00,0.0112
617.00,0.0109
616.00,0.0107
615.00,0.0107
614.00,0.0108
613.00,0.0111
612.00,0.0114
611.00,0.0116
610.00,0.0116
609.00,0.0115
608.00,0.0114
607.00,0.0114
606.00,0.0116
605.00,0.0118
604.00,0.0118
603.00,0.0116
602.00,0.0114
601.00,0.0113
600.00,0.0114
599.00,0.0116
598.00,0.0117
597.00,0.0116
596.00,0.0115
595.00,0.0112
594.00,0.0110
593.00,0.0108
592.00,0.0108
591.00,0.0110
590.00,0.0112
589.00,0.0112
588.00,0.0112
587.00,0.0112
586.00,0.0114
585.00,0.0115
584.00,0.0117
583.00,0.0118
582.00,0.0118
581.00,0.0117
580.00,0.0116
579.00,0.0116
578.00,0.0118
577.00,0.0120
576.00,0.0122
575.00,0.0122
574.00,0.0119
573.00,0.0116
572.00,0.0112
571.00,0.0110
570.00,0.0111
569.00,0.0113
568.00,0.0115
567.00,0.0116
566.00,0.0117
565.00,0.0117
564.00,0.0117
563.00,0.0118
562.00,0.0117
561.00,0.0115
560.00,0.0112
559.00,0.0110
558.00,0.0111
557.00,0.0116
556.00,0.0123
555.00,0.0130
554.00,0.0134
553.00,0.0132
552.00,0.0128
551.00,0.0124
550.00,0.0122
549.00,0.0120
548.00,0.0118
547.00,0.0116
546.00,0.0117
545.00,0.0120
544.00,0.0125
543.00,0.0130
542.00,0.0133
541.00,0.0134
540.00,0.0134
539.00,0.0134
538.00,0.0136
537.00,0.0139
536.00,0.0144
535.00,0.0149
534.00,0.0151
533.00,0.0148
532.00,0.0142
531.00,0.0139
530.00,0.0139
529.00,0.0140
528.00,0.0140
527.00,0.0139
526.00,0.0138
525.00,0.0137
524.00,0.0133
523.00,0.0129
522.00,0.0127
521.00,0.0129
520.00,0.0132
519.00,0.0133
518.00,0.0128
517.00,0.0120
516.00,0.0110
515.00,0.0103
514.00,0.0100
513.00,0.0099
512.00,0.0101
511.00,0.0104
510.00,0.0106
509.00,0.0105
508.00,0.0104
507.00,0.0107
506.00,0.0116
505.00,0.0128
504.00,0.0139
503.00,0.0143
502.00,0.0141
501.00,0.0136
500.00,0.0128
499.00,0.0120
498.00,0.0113
497.00,0.0109
496.00,0.0111
495.00,0.0115
494.00,0.0120
493.00,0.0123
492.00,0.0125
491.00,0.0127
490.00,0.0128
489.00,0.0128
488.00,0.0128
487.00,0.0129
486.00,0.0131
485.00,0.0130
484.00,0.0127
483.00,0.0126
482.00,0.0130
481.00,0.0137
480.00,0.0144
479.00,0.0151
478.00,0.0160
477.00,0.0166
476.00,0.0167
475.00,0.0164
474.00,0.0162
473.00,0.0161
472.00,0.0163
471.00,0.0169
470.00,0.0180
469.00,0.0194
468.00,0.0204
467.00,0.0212
466.00,0.0220
465.00,0.0230
464.00,0.0238
463.00,0.0239
462.00,0.0232
461.00,0.0225
460.00,0.0220
459.00,0.0215
458.00,0.0212
457.00,0.0212
456.00,0.0217
455.00,0.0223
454.00,0.0225
453.00,0.0224
452.00,0.0220
451.00,0.0213
450.00,0.0203
