Created as New Dataset,Sample 086 By Administrator Date Thursday, September 04 2025
cm-1,A
4000.00,0.0009
3999.00,0.0009
3998.00,0.0009
3997.00,0.0009
3996.00,0.0009
3995.00,0.0009
3994.00,0.0009
3993.00,0.0009
3992.00,0.0009
3991.00,0.0009
3990.00,0.0008
3989.00,0.0008
3988.00,0.0008
3987.00,0.0008
3986.00,0.0008
3985.00,0.0008
3984.00,0.0008
3983.00,0.0008
3982.00,0.0007
3981.00,0.0007
3980.00,0.0007
3979.00,0.0007
3978.00,0.0007
3977.00,0.0007
3976.00,0.0007
3975.00,0.0007
3974.00,0.0007
3973.00,0.0006
3972.00,0.0006
3971.00,0.0006
3970.00,0.0007
3969.00,0.0007
3968.00,0.0007
3967.00,0.0007
3966.00,0.0007
3965.00,0.0007
3964.00,0.0007
3963.00,0.0007
3962.00,0.0007
3961.00,0.0007
3960.00,0.0007
3959.00,0.0007
3958.00,0.0007
3957.00,0.0007
3956.00,0.0007
3955.00,0.0006
3954.00,0.0006
3953.00,0.0006
3952.00,0.0006
3951.00,0.0005
3950.00,0.0006
3949.00,0.0006
3948.00,0.0006
3947.00,0.0007
3946.00,0.0007
3945.00,0.0007
3944.00,0.0006
3943.00,0.0006
3942.00,0.0006
3941.00,0.0006
3940.00,0.0006
3939.00,0.0007
3938.00,0.0007
3937.00,0.0007
3936.00,0.0006
3935.00,0.0006
3934.00,0.0006
3933.00,0.0006
3932.00,0.0006
3931.00,0.0006
3930.00,0.0006
3929.00,0.0007
3928.00,0.0007
3927.00,0.0007
3926.00,0.0007
3925.00,0.0007
3924.00,0.0006
3923.00,0.0006
3922.00,0.0006
3921.00,0.0006
3920.00,0.0006
3919.00,0.0006
3918.00,0.0006
3917.00,0.0006
3916.00,0.0007
3915.00,0.0007
3914.00,0.0007
3913.00,0.0007
3912.00,0.0007
3911.00,0.0007
3910.00,0.0007
3909.00,0.0007
3908.00,0.0007
3907.00,0.0006
3906.00,0.0006
3905.00,0.0006
3904.00,0.0006
3903.00,0.0005
3902.00,0.0005
3901.00,0.0004
3900.00,0.0005
3899.00,0.0005
3898.00,0.0005
3897.00,0.0005
3896.00,0.0005
3895.00,0.0006
3894.00,0.0006
3893.00,0.0006
3892.00,0.0006
3891.00,0.0006
3890.00,0.0006
3889.00,0.0005
3888.00,0.0005
3887.00,0.0006
3886.00,0.0006
3885.00,0.0006
3884.00,0.0006
3883.00,0.0006
3882.00,0.0006
3881.00,0.0006
3880.00,0.0006
3879.00,0.0006
3878.00,0.0007
3877.00,0.0007
3876.00,0.0007
3875.00,0.0007
3874.00,0.0006
3873.00,0.0006
3872.00,0.0005
3871.00,0.0005
3870.00,0.0005
3869.00,0.0005
3868.00,0.0005
3867.00,0.0005
3866.00,0.0005
3865.00,0.0005
3864.00,0.0005
3863.00,0.0006
3862.00,0.0006
3861.00,0.0006
3860.00,0.0006
3859.00,0.0005
3858.00,0.0005
3857.00,0.0005
3856.00,0.0005
3855.00,0.0005
3854.00,0.0005
3853.00,0.0005
3852.00,0.0005
3851.00,0.0005
3850.00,0.0005
3849.00,0.0006
3848.00,0.0006
3847.00,0.0006
3846.00,0.0006
3845.00,0.0006
3844.00,0.0006
3843.00,0.0006
3842.00,0.0006
3841.00,0.0005
3840.00,0.0005
3839.00,0.0005
3838.00,0.0005
3837.00,0.0005
3836.00,0.0005
3835.00,0.0006
3834.00,0.0006
3833.00,0.0006
3832.00,0.0006
3831.00,0.0006
3830.00,0.0006
3829.00,0.0006
3828.00,0.0006
3827.00,0.0006
3826.00,0.0006
3825.00,0.0006
3824.00,0.0006
3823.00,0.0006
3822.00,0.0006
3821.00,0.0006
3820.00,0.0006
3819.00,0.0006
3818.00,0.0006
3817.00,0.0007
3816.00,0.0007
3815.00,0.0007
3814.00,0.0007
3813.00,0.0007
3812.00,0.0007
3811.00,0.0007
3810.00,0.0007
3809.00,0.0006
3808.00,0.0006
3807.00,0.0006
3806.00,0.0006
3805.00,0.0005
3804.00,0.0005
3803.00,0.0005
3802.00,0.0005
3801.00,0.0005
3800.00,0.0005
3799.00,0.0005
3798.00,0.0005
3797.00,0.0005
3796.00,0.0006
3795.00,0.0006
3794.00,0.0006
3793.00,0.0005
3792.00,0.0006
3791.00,0.0006
3790.00,0.0006
3789.00,0.0006
3788.00,0.0006
3787.00,0.0006
3786.00,0.0006
3785.00,0.0006
3784.00,0.0006
3783.00,0.0006
3782.00,0.0006
3781.00,0.0006
3780.00,0.0007
3779.00,0.0007
3778.00,0.0007
3777.00,0.0006
3776.00,0.0006
3775.00,0.0007
3774.00,0.0007
3773.00,0.0007
3772.00,0.0007
3771.00,0.0007
3770.00,0.0007
3769.00,0.0007
3768.00,0.0007
3767.00,0.0007
3766.00,0.0007
3765.00,0.0007
3764.00,0.0007
3763.00,0.0007
3762.00,0.0007
3761.00,0.0007
3760.00,0.0007
3759.00,0.0007
3758.00,0.0007
3757.00,0.0006
3756.00,0.0006
3755.00,0.0006
3754.00,0.0006
3753.00,0.0005
3752.00,0.0004
3751.00,0.0004
3750.00,0.0003
3749.00,0.0003
3748.00,0.0003
3747.00,0.0004
3746.00,0.0004
3745.00,0.0005
3744.00,0.0005
3743.00,0.0005
3742.00,0.0005
3741.00,0.0005
3740.00,0.0004
3739.00,0.0004
3738.00,0.0003
3737.00,0.0003
3736.00,0.0003
3735.00,0.0004
3734.00,0.0004
3733.00,0.0004
3732.00,0.0004
3731.00,0.0004
3730.00,0.0004
3729.00,0.0004
3728.00,0.0004
3727.00,0.0004
3726.00,0.0004
3725.00,0.0004
3724.00,0.0004
3723.00,0.0004
3722.00,0.0005
3721.00,0.0005
3720.00,0.0005
3719.00,0.0005
3718.00,0.0005
3717.00,0.0005
3716.00,0.0005
3715.00,0.0004
3714.00,0.0004
3713.00,0.0004
3712.00,0.0004
3711.00,0.0004
3710.00,0.0004
3709.00,0.0004
3708.00,0.0004
3707.00,0.0004
3706.00,0.0004
3705.00,0.0004
3704.00,0.0005
3703.00,0.0005
3702.00,0.0005
3701.00,0.0004
3700.00,0.0004
3699.00,0.0004
3698.00,0.0004
3697.00,0.0004
3696.00,0.0004
3695.00,0.0004
3694.00,0.0004
3693.00,0.0004
3692.00,0.0004
3691.00,0.0004
3690.00,0.0004
3689.00,0.0004
3688.00,0.0004
3687.00,0.0004
3686.00,0.0005
3685.00,0.0005
3684.00,0.0005
3683.00,0.0005
3682.00,0.0006
3681.00,0.0006
3680.00,0.0006
3679.00,0.0007
3678.00,0.0008
3677.00,0.0008
3676.00,0.0008
3675.00,0.0008
3674.00,0.0007
3673.00,0.0007
3672.00,0.0007
3671.00,0.0007
3670.00,0.0007
3669.00,0.0007
3668.00,0.0006
3667.00,0.0006
3666.00,0.0006
3665.00,0.0006
3664.00,0.0006
3663.00,0.0007
3662.00,0.0007
3661.00,0.0007
3660.00,0.0007
3659.00,0.0007
3658.00,0.0007
3657.00,0.0008
3656.00,0.0008
3655.00,0.0007
3654.00,0.0007
3653.00,0.0007
3652.00,0.0007
3651.00,0.0007
3650.00,0.0007
3649.00,0.0007
3648.00,0.0008
3647.00,0.0008
3646.00,0.0008
3645.00,0.0007
3644.00,0.0007
3643.00,0.0007
3642.00,0.0007
3641.00,0.0007
3640.00,0.0007
3639.00,0.0006
3638.00,0.0006
3637.00,0.0006
3636.00,0.0005
3635.00,0.0005
3634.00,0.0004
3633.00,0.0004
3632.00,0.0004
3631.00,0.0004
3630.00,0.0004
3629.00,0.0004
3628.00,0.0004
3627.00,0.0004
3626.00,0.0004
3625.00,0.0004
3624.00,0.0004
3623.00,0.0004
3622.00,0.0004
3621.00,0.0004
3620.00,0.0004
3619.00,0.0005
3618.00,0.0005
3617.00,0.0005
3616.00,0.0005
3615.00,0.0006
3614.00,0.0006
3613.00,0.0006
3612.00,0.0006
3611.00,0.0006
3610.00,0.0006
3609.00,0.0006
3608.00,0.0006
3607.00,0.0006
3606.00,0.0006
3605.00,0.0006
3604.00,0.0006
3603.00,0.0006
3602.00,0.0006
3601.00,0.0006
3600.00,0.0006
3599.00,0.0006
3598.00,0.0006
3597.00,0.0006
3596.00,0.0006
3595.00,0.0006
3594.00,0.0007
3593.00,0.0007
3592.00,0.0007
3591.00,0.0007
3590.00,0.0007
3589.00,0.0006
3588.00,0.0006
3587.00,0.0007
3586.00,0.0007
3585.00,0.0008
3584.00,0.0008
3583.00,0.0008
3582.00,0.0008
3581.00,0.0008
3580.00,0.0009
3579.00,0.0009
3578.00,0.0010
3577.00,0.0010
3576.00,0.0010
3575.00,0.0010
3574.00,0.0010
3573.00,0.0010
3572.00,0.0010
3571.00,0.0010
3570.00,0.0010
3569.00,0.0010
3568.00,0.0010
3567.00,0.0010
3566.00,0.0010
3565.00,0.0010
3564.00,0.0010
3563.00,0.0011
3562.00,0.0011
3561.00,0.0011
3560.00,0.0012
3559.00,0.0012
3558.00,0.0013
3557.00,0.0013
3556.00,0.0013
3555.00,0.0013
3554.00,0.0013
3553.00,0.0012
3552.00,0.0012
3551.00,0.0012
3550.00,0.0013
3549.00,0.0013
3548.00,0.0013
3547.00,0.0013
3546.00,0.0013
3545.00,0.0014
3544.00,0.0014
3543.00,0.0015
3542.00,0.0015
3541.00,0.0015
3540.00,0.0015
3539.00,0.0015
3538.00,0.0015
3537.00,0.0015
3536.00,0.0015
3535.00,0.0015
3534.00,0.0016
3533.00,0.0016
3532.00,0.0016
3531.00,0.0017
3530.00,0.0017
3529.00,0.0017
3528.00,0.0017
3527.00,0.0017
3526.00,0.0016
3525.00,0.0016
3524.00,0.0016
3523.00,0.0017
3522.00,0.0017
3521.00,0.0017
3520.00,0.0017
3519.00,0.0017
3518.00,0.0017
3517.00,0.0017
3516.00,0.0018
3515.00,0.0018
3514.00,0.0019
3513.00,0.0019
3512.00,0.0020
3511.00,0.0020
3510.00,0.0020
3509.00,0.0020
3508.00,0.0020
3507.00,0.0020
3506.00,0.0020
3505.00,0.0020
3504.00,0.0020
3503.00,0.0020
3502.00,0.0020
3501.00,0.0021
3500.00,0.0021
3499.00,0.0021
3498.00,0.0021
3497.00,0.0021
3496.00,0.0021
3495.00,0.0021
3494.00,0.0022
3493.00,0.0022
3492.00,0.0022
3491.00,0.0022
3490.00,0.0022
3489.00,0.0023
3488.00,0.0023
3487.00,0.0023
3486.00,0.0024
3485.00,0.0024
3484.00,0.0024
3483.00,0.0024
3482.00,0.0024
3481.00,0.0024
3480.00,0.0025
3479.00,0.0025
3478.00,0.0025
3477.00,0.0025
3476.00,0.0025
3475.00,0.0025
3474.00,0.0025
3473.00,0.0025
3472.00,0.0026
3471.00,0.0026
3470.00,0.0026
3469.00,0.0026
3468.00,0.0026
3467.00,0.0026
3466.00,0.0026
3465.00,0.0026
3464.00,0.0026
3463.00,0.0027
3462.00,0.0027
3461.00,0.0028
3460.00,0.0028
3459.00,0.0028
3458.00,0.0028
3457.00,0.0028
3456.00,0.0029
3455.00,0.0029
3454.00,0.0029
3453.00,0.0029
3452.00,0.0029
3451.00,0.0029
3450.00,0.0029
3449.00,0.0029
3448.00,0.0029
3447.00,0.0029
3446.00,0.0029
3445.00,0.0030
3444.00,0.0030
3443.00,0.0030
3442.00,0.0030
3441.00,0.0031
3440.00,0.0032
3439.00,0.0032
3438.00,0.0032
3437.00,0.0032
3436.00,0.0032
3435.00,0.0031
3434.00,0.0031
3433.00,0.0031
3432.00,0.0031
3431.00,0.0032
3430.00,0.0032
3429.00,0.0032
3428.00,0.0032
3427.00,0.0032
3426.00,0.0033
3425.00,0.0033
3424.00,0.0033
3423.00,0.0033
3422.00,0.0033
3421.00,0.0034
3420.00,0.0034
3419.00,0.0035
3418.00,0.0035
3417.00,0.0035
3416.00,0.0035
3415.00,0.0035
3414.00,0.0035
3413.00,0.0035
3412.00,0.0035
3411.00,0.0035
3410.00,0.0035
3409.00,0.0036
3408.00,0.0036
3407.00,0.0036
3406.00,0.0036
3405.00,0.0036
3404.00,0.0036
3403.00,0.0036
3402.00,0.0036
3401.00,0.0036
3400.00,0.0036
3399.00,0.0036
3398.00,0.0036
3397.00,0.0037
3396.00,0.0037
3395.00,0.0037
3394.00,0.0037
3393.00,0.0037
3392.00,0.0037
3391.00,0.0036
3390.00,0.0036
3389.00,0.0036
3388.00,0.0036
3387.00,0.0037
3386.00,0.0037
3385.00,0.0037
3384.00,0.0037
3383.00,0.0037
3382.00,0.0037
3381.00,0.0037
3380.00,0.0037
3379.00,0.0037
3378.00,0.0037
3377.00,0.0037
3376.00,0.0037
3375.00,0.0038
3374.00,0.0038
3373.00,0.0039
3372.00,0.0039
3371.00,0.0039
3370.00,0.0039
3369.00,0.0039
3368.00,0.0039
3367.00,0.0039
3366.00,0.0039
3365.00,0.0039
3364.00,0.0039
3363.00,0.0039
3362.00,0.0039
3361.00,0.0039
3360.00,0.0039
3359.00,0.0039
3358.00,0.0040
3357.00,0.0040
3356.00,0.0040
3355.00,0.0040
3354.00,0.0040
3353.00,0.0041
3352.00,0.0041
3351.00,0.0041
3350.00,0.0040
3349.00,0.0040
3348.00,0.0040
3347.00,0.0040
3346.00,0.0040
3345.00,0.0041
3344.00,0.0041
3343.00,0.0041
3342.00,0.0041
3341.00,0.0041
3340.00,0.0041
3339.00,0.0040
3338.00,0.0040
3337.00,0.0040
3336.00,0.0039
3335.00,0.0039
3334.00,0.0039
3333.00,0.0039
3332.00,0.0040
3331.00,0.0040
3330.00,0.0040
3329.00,0.0040
3328.00,0.0040
3327.00,0.0040
3326.00,0.0040
3325.00,0.0040
3324.00,0.0039
3323.00,0.0039
3322.00,0.0039
3321.00,0.0039
3320.00,0.0039
3319.00,0.0040
3318.00,0.0040
3317.00,0.0040
3316.00,0.0041
3315.00,0.0041
3314.00,0.0041
3313.00,0.0041
3312.00,0.0041
3311.00,0.0041
3310.00,0.0041
3309.00,0.0042
3308.00,0.0043
3307.00,0.0043
3306.00,0.0044
3305.00,0.0045
3304.00,0.0045
3303.00,0.0045
3302.00,0.0045
3301.00,0.0045
3300.00,0.0045
3299.00,0.0044
3298.00,0.0044
3297.00,0.0043
3296.00,0.0043
3295.00,0.0042
3294.00,0.0042
3293.00,0.0042
3292.00,0.0041
3291.00,0.0041
3290.00,0.0040
3289.00,0.0040
3288.00,0.0040
3287.00,0.0040
3286.00,0.0040
3285.00,0.0039
3284.00,0.0039
3283.00,0.0039
3282.00,0.0038
3281.00,0.0038
3280.00,0.0038
3279.00,0.0038
3278.00,0.0038
3277.00,0.0037
3276.00,0.0037
3275.00,0.0038
3274.00,0.0038
3273.00,0.0038
3272.00,0.0037
3271.00,0.0037
3270.00,0.0037
3269.00,0.0037
3268.00,0.0037
3267.00,0.0036
3266.00,0.0036
3265.00,0.0036
3264.00,0.0035
3263.00,0.0035
3262.00,0.0035
3261.00,0.0036
3260.00,0.0036
3259.00,0.0036
3258.00,0.0036
3257.00,0.0036
3256.00,0.0036
3255.00,0.0035
3254.00,0.0035
3253.00,0.0035
3252.00,0.0035
3251.00,0.0035
3250.00,0.0035
3249.00,0.0034
3248.00,0.0034
3247.00,0.0035
3246.00,0.0035
3245.00,0.0035
3244.00,0.0035
3243.00,0.0034
3242.00,0.0034
3241.00,0.0033
3240.00,0.0033
3239.00,0.0033
3238.00,0.0034
3237.00,0.0034
3236.00,0.0034
3235.00,0.0034
3234.00,0.0034
3233.00,0.0034
3232.00,0.0034
3231.00,0.0034
3230.00,0.0034
3229.00,0.0034
3228.00,0.0034
3227.00,0.0035
3226.00,0.0035
3225.00,0.0036
3224.00,0.0036
3223.00,0.0036
3222.00,0.0037
3221.00,0.0037
3220.00,0.0037
3219.00,0.0037
3218.00,0.0037
3217.00,0.0037
3216.00,0.0037
3215.00,0.0037
3214.00,0.0037
3213.00,0.0037
3212.00,0.0037
3211.00,0.0037
3210.00,0.0037
3209.00,0.0037
3208.00,0.0038
3207.00,0.0038
3206.00,0.0038
3205.00,0.0038
3204.00,0.0038
3203.00,0.0038
3202.00,0.0038
3201.00,0.0039
3200.00,0.0039
3199.00,0.0039
3198.00,0.0038
3197.00,0.0038
3196.00,0.0038
3195.00,0.0038
3194.00,0.0038
3193.00,0.0039
3192.00,0.0039
3191.00,0.0039
3190.00,0.0039
3189.00,0.0039
3188.00,0.0039
3187.00,0.0039
3186.00,0.0038
3185.00,0.0038
3184.00,0.0037
3183.00,0.0037
3182.00,0.0037
3181.00,0.0037
3180.00,0.0037
3179.00,0.0037
3178.00,0.0036
3177.00,0.0036
3176.00,0.0036
3175.00,0.0035
3174.00,0.0035
3173.00,0.0034
3172.00,0.0034
3171.00,0.0034
3170.00,0.0034
3169.00,0.0034
3168.00,0.0035
3167.00,0.0035
3166.00,0.0035
3165.00,0.0035
3164.00,0.0035
3163.00,0.0035
3162.00,0.0035
3161.00,0.0034
3160.00,0.0034
3159.00,0.0034
3158.00,0.0034
3157.00,0.0034
3156.00,0.0034
3155.00,0.0034
3154.00,0.0034
3153.00,0.0034
3152.00,0.0034
3151.00,0.0034
3150.00,0.0034
3149.00,0.0034
3148.00,0.0035
3147.00,0.0034
3146.00,0.0034
3145.00,0.0033
3144.00,0.0033
3143.00,0.0033
3142.00,0.0033
3141.00,0.0033
3140.00,0.0033
3139.00,0.0033
3138.00,0.0033
3137.00,0.0033
3136.00,0.0033
3135.00,0.0032
3134.00,0.0032
3133.00,0.0032
3132.00,0.0032
3131.00,0.0032
3130.00,0.0031
3129.00,0.0031
3128.00,0.0031
3127.00,0.0031
3126.00,0.0030
3125.00,0.0030
3124.00,0.0030
3123.00,0.0029
3122.00,0.0029
3121.00,0.0029
3120.00,0.0029
3119.00,0.0029
3118.00,0.0029
3117.00,0.0029
3116.00,0.0028
3115.00,0.0028
3114.00,0.0028
3113.00,0.0028
3112.00,0.0028
3111.00,0.0028
3110.00,0.0028
3109.00,0.0028
3108.00,0.0028
3107.00,0.0028
3106.00,0.0028
3105.00,0.0028
3104.00,0.0028
3103.00,0.0028
3102.00,0.0028
3101.00,0.0028
3100.00,0.0028
3099.00,0.0028
3098.00,0.0027
3097.00,0.0027
3096.00,0.0027
3095.00,0.0027
3094.00,0.0028
3093.00,0.0027
3092.00,0.0027
3091.00,0.0027
3090.00,0.0027
3089.00,0.0027
3088.00,0.0027
3087.00,0.0027
3086.00,0.0027
3085.00,0.0027
3084.00,0.0027
3083.00,0.0027
3082.00,0.0027
3081.00,0.0027
3080.00,0.0027
3079.00,0.0027
3078.00,0.0027
3077.00,0.0028
3076.00,0.0028
3075.00,0.0028
3074.00,0.0028
3073.00,0.0027
3072.00,0.0027
3071.00,0.0027
3070.00,0.0027
3069.00,0.0027
3068.00,0.0028
3067.00,0.0028
3066.00,0.0028
3065.00,0.0029
3064.00,0.0029
3063.00,0.0030
3062.00,0.0030
3061.00,0.0030
3060.00,0.0030
3059.00,0.0030
3058.00,0.0030
3057.00,0.0030
3056.00,0.0030
3055.00,0.0030
3054.00,0.0030
3053.00,0.0030
3052.00,0.0031
3051.00,0.0031
3050.00,0.0032
3049.00,0.0032
3048.00,0.0032
3047.00,0.0032
3046.00,0.0032
3045.00,0.0032
3044.00,0.0032
3043.00,0.0032
3042.00,0.0032
3041.00,0.0033
3040.00,0.0033
3039.00,0.0034
3038.00,0.0034
3037.00,0.0035
3036.00,0.0035
3035.00,0.0035
3034.00,0.0035
3033.00,0.0036
3032.00,0.0036
3031.00,0.0037
3030.00,0.0037
3029.00,0.0038
3028.00,0.0038
3027.00,0.0038
3026.00,0.0039
3025.00,0.0040
3024.00,0.0041
3023.00,0.0041
3022.00,0.0042
3021.00,0.0043
3020.00,0.0043
3019.00,0.0044
3018.00,0.0045
3017.00,0.0046
3016.00,0.0048
3015.00,0.0049
3014.00,0.0051
3013.00,0.0052
3012.00,0.0054
3011.00,0.0056
3010.00,0.0057
3009.00,0.0059
3008.00,0.0062
3007.00,0.0064
3006.00,0.0066
3005.00,0.0069
3004.00,0.0073
3003.00,0.0076
3002.00,0.0079
3001.00,0.0082
3000.00,0.0085
2999.00,0.0089
2998.00,0.0092
2997.00,0.0096
2996.00,0.0100
2995.00,0.0105
2994.00,0.0109
2993.00,0.0114
2992.00,0.0120
2991.00,0.0126
2990.00,0.0132
2989.00,0.0140
2988.00,0.0148
2987.00,0.0157
2986.00,0.0167
2985.00,0.0180
2984.00,0.0194
2983.00,0.0210
2982.00,0.0226
2981.00,0.0243
2980.00,0.0261
2979.00,0.0281
2978.00,0.0303
2977.00,0.0329
2976.00,0.0359
2975.00,0.0395
2974.00,0.0437
2973.00,0.0485
2972.00,0.0538
2971.00,0.0598
2970.00,0.0663
2969.00,0.0734
2968.00,0.0812
2967.00,0.0895
2966.00,0.0981
2965.00,0.1069
2964.00,0.1152
2963.00,0.1228
2962.00,0.1293
2961.00,0.1344
2960.00,0.1384
2959.00,0.1417
2958.00,0.1449
2957.00,0.1489
2956.00,0.1543
2955.00,0.1612
2954.00,0.1694
2953.00,0.1782
2952.00,0.1862
2951.00,0.1920
2950.00,0.1942
2949.00,0.1920
2948.00,0.1852
2947.00,0.1748
2946.00,0.1621
2945.00,0.1487
2944.00,0.1361
2943.00,0.1254
2942.00,0.1170
2941.00,0.1112
2940.00,0.1079
2939.00,0.1069
2938.00,0.1079
2937.00,0.1106
2936.00,0.1151
2935.00,0.1210
2934.00,0.1285
2933.00,0.1373
2932.00,0.1473
2931.00,0.1582
2930.00,0.1700
2929.00,0.1822
2928.00,0.1946
2927.00,0.2068
2926.00,0.2188
2925.00,0.2306
2924.00,0.2422
2923.00,0.2538
2922.00,0.2654
2921.00,0.2767
2920.00,0.2867
2919.00,0.2943
2918.00,0.2982
2917.00,0.2974
2916.00,0.2917
2915.00,0.2821
2914.00,0.2699
2913.00,0.2568
2912.00,0.2441
2911.00,0.2325
2910.00,0.2224
2909.00,0.2135
2908.00,0.2055
2907.00,0.1980
2906.00,0.1906
2905.00,0.1834
2904.00,0.1761
2903.00,0.1688
2902.00,0.1617
2901.00,0.1549
2900.00,0.1483
2899.00,0.1420
2898.00,0.1361
2897.00,0.1308
2896.00,0.1260
2895.00,0.1217
2894.00,0.1182
2893.00,0.1153
2892.00,0.1130
2891.00,0.1113
2890.00,0.1102
2889.00,0.1095
2888.00,0.1092
2887.00,0.1092
2886.00,0.1095
2885.00,0.1101
2884.00,0.1112
2883.00,0.1127
2882.00,0.1146
2881.00,0.1167
2880.00,0.1188
2879.00,0.1205
2878.00,0.1214
2877.00,0.1215
2876.00,0.1210
2875.00,0.1203
2874.00,0.1198
2873.00,0.1200
2872.00,0.1209
2871.00,0.1225
2870.00,0.1247
2869.00,0.1268
2868.00,0.1282
2867.00,0.1281
2866.00,0.1258
2865.00,0.1212
2864.00,0.1145
2863.00,0.1068
2862.00,0.0991
2861.00,0.0922
2860.00,0.0868
2859.00,0.0831
2858.00,0.0810
2857.00,0.0802
2856.00,0.0804
2855.00,0.0815
2854.00,0.0831
2853.00,0.0851
2852.00,0.0873
2851.00,0.0892
2850.00,0.0907
2849.00,0.0917
2848.00,0.0926
2847.00,0.0938
2846.00,0.0958
2845.00,0.0988
2844.00,0.1030
2843.00,0.1079
2842.00,0.1131
2841.00,0.1179
2840.00,0.1214
2839.00,0.1229
2838.00,0.1218
2837.00,0.1177
2836.00,0.1108
2835.00,0.1016
2834.00,0.0913
2833.00,0.0806
2832.00,0.0706
2831.00,0.0618
2830.00,0.0544
2829.00,0.0483
2828.00,0.0434
2827.00,0.0394
2826.00,0.0361
2825.00,0.0334
2824.00,0.0311
2823.00,0.0291
2822.00,0.0274
2821.00,0.0260
2820.00,0.0247
2819.00,0.0237
2818.00,0.0227
2817.00,0.0219
2816.00,0.0211
2815.00,0.0204
2814.00,0.0197
2813.00,0.0191
2812.00,0.0186
2811.00,0.0180
2810.00,0.0175
2809.00,0.0169
2808.00,0.0163
2807.00,0.0157
2806.00,0.0151
2805.00,0.0144
2804.00,0.0138
2803.00,0.0132
2802.00,0.0126
2801.00,0.0121
2800.00,0.0117
2799.00,0.0114
2798.00,0.0111
2797.00,0.0109
2796.00,0.0107
2795.00,0.0104
2794.00,0.0102
2793.00,0.0099
2792.00,0.0096
2791.00,0.0093
2790.00,0.0090
2789.00,0.0087
2788.00,0.0084
2787.00,0.0081
2786.00,0.0079
2785.00,0.0076
2784.00,0.0074
2783.00,0.0072
2782.00,0.0070
2781.00,0.0068
2780.00,0.0066
2779.00,0.0064
2778.00,0.0063
2777.00,0.0061
2776.00,0.0060
2775.00,0.0059
2774.00,0.0057
2773.00,0.0057
2772.00,0.0056
2771.00,0.0056
2770.00,0.0056
2769.00,0.0055
2768.00,0.0055
2767.00,0.0054
2766.00,0.0053
2765.00,0.0053
2764.00,0.0053
2763.00,0.0053
2762.00,0.0053
2761.00,0.0053
2760.00,0.0053
2759.00,0.0053
2758.00,0.0052
2757.00,0.0052
2756.00,0.0052
2755.00,0.0052
2754.00,0.0052
2753.00,0.0052
2752.00,0.0051
2751.00,0.0051
2750.00,0.0051
2749.00,0.0051
2748.00,0.0051
2747.00,0.0051
2746.00,0.0052
2745.00,0.0052
2744.00,0.0053
2743.00,0.0054
2742.00,0.0054
2741.00,0.0056
2740.00,0.0057
2739.00,0.0058
2738.00,0.0059
2737.00,0.0060
2736.00,0.0061
2735.00,0.0063
2734.00,0.0065
2733.00,0.0066
2732.00,0.0068
2731.00,0.0070
2730.00,0.0072
2729.00,0.0074
2728.00,0.0076
2727.00,0.0079
2726.00,0.0082
2725.00,0.0085
2724.00,0.0087
2723.00,0.0088
2722.00,0.0087
2721.00,0.0085
2720.00,0.0083
2719.00,0.0079
2718.00,0.0076
2717.00,0.0073
2716.00,0.0070
2715.00,0.0067
2714.00,0.0064
2713.00,0.0062
2712.00,0.0060
2711.00,0.0058
2710.00,0.0056
2709.00,0.0054
2708.00,0.0053
2707.00,0.0052
2706.00,0.0051
2705.00,0.0050
2704.00,0.0049
2703.00,0.0048
2702.00,0.0047
2701.00,0.0046
2700.00,0.0046
2699.00,0.0045
2698.00,0.0044
2697.00,0.0044
2696.00,0.0044
2695.00,0.0044
2694.00,0.0044
2693.00,0.0044
2692.00,0.0044
2691.00,0.0044
2690.00,0.0044
2689.00,0.0044
2688.00,0.0044
2687.00,0.0044
2686.00,0.0044
2685.00,0.0044
2684.00,0.0044
2683.00,0.0044
2682.00,0.0044
2681.00,0.0044
2680.00,0.0044
2679.00,0.0044
2678.00,0.0044
2677.00,0.0044
2676.00,0.0045
2675.00,0.0045
2674.00,0.0045
2673.00,0.0044
2672.00,0.0044
2671.00,0.0044
2670.00,0.0044
2669.00,0.0044
2668.00,0.0044
2667.00,0.0045
2666.00,0.0045
2665.00,0.0045
2664.00,0.0046
2663.00,0.0046
2662.00,0.0047
2661.00,0.0047
2660.00,0.0047
2659.00,0.0047
2658.00,0.0047
2657.00,0.0047
2656.00,0.0047
2655.00,0.0046
2654.00,0.0046
2653.00,0.0045
2652.00,0.0045
2651.00,0.0044
2650.00,0.0044
2649.00,0.0044
2648.00,0.0043
2647.00,0.0043
2646.00,0.0042
2645.00,0.0042
2644.00,0.0041
2643.00,0.0041
2642.00,0.0041
2641.00,0.0040
2640.00,0.0040
2639.00,0.0039
2638.00,0.0039
2637.00,0.0038
2636.00,0.0038
2635.00,0.0038
2634.00,0.0038
2633.00,0.0038
2632.00,0.0038
2631.00,0.0038
2630.00,0.0038
2629.00,0.0037
2628.00,0.0038
2627.00,0.0038
2626.00,0.0038
2625.00,0.0038
2624.00,0.0039
2623.00,0.0039
2622.00,0.0039
2621.00,0.0040
2620.00,0.0040
2619.00,0.0040
2618.00,0.0039
2617.00,0.0039
2616.00,0.0039
2615.00,0.0039
2614.00,0.0039
2613.00,0.0039
2612.00,0.0038
2611.00,0.0037
2610.00,0.0036
2609.00,0.0035
2608.00,0.0034
2607.00,0.0033
2606.00,0.0032
2605.00,0.0032
2604.00,0.0031
2603.00,0.0031
2602.00,0.0031
2601.00,0.0030
2600.00,0.0030
2599.00,0.0030
2598.00,0.0030
2597.00,0.0030
2596.00,0.0030
2595.00,0.0030
2594.00,0.0030
2593.00,0.0031
2592.00,0.0031
2591.00,0.0032
2590.00,0.0033
2589.00,0.0034
2588.00,0.0034
2587.00,0.0035
2586.00,0.0036
2585.00,0.0036
2584.00,0.0037
2583.00,0.0037
2582.00,0.0038
2581.00,0.0038
2580.00,0.0037
2579.00,0.0036
2578.00,0.0035
2577.00,0.0035
2576.00,0.0034
2575.00,0.0033
2574.00,0.0031
2573.00,0.0030
2572.00,0.0028
2571.00,0.0027
2570.00,0.0026
2569.00,0.0026
2568.00,0.0026
2567.00,0.0025
2566.00,0.0025
2565.00,0.0025
2564.00,0.0024
2563.00,0.0024
2562.00,0.0024
2561.00,0.0023
2560.00,0.0022
2559.00,0.0021
2558.00,0.0021
2557.00,0.0021
2556.00,0.0021
2555.00,0.0021
2554.00,0.0021
2553.00,0.0021
2552.00,0.0020
2551.00,0.0019
2550.00,0.0019
2549.00,0.0018
2548.00,0.0018
2547.00,0.0017
2546.00,0.0016
2545.00,0.0016
2544.00,0.0016
2543.00,0.0016
2542.00,0.0017
2541.00,0.0017
2540.00,0.0017
2539.00,0.0017
2538.00,0.0017
2537.00,0.0016
2536.00,0.0016
2535.00,0.0016
2534.00,0.0015
2533.00,0.0015
2532.00,0.0015
2531.00,0.0015
2530.00,0.0014
2529.00,0.0014
2528.00,0.0014
2527.00,0.0013
2526.00,0.0013
2525.00,0.0013
2524.00,0.0013
2523.00,0.0012
2522.00,0.0011
2521.00,0.0010
2520.00,0.0010
2519.00,0.0010
2518.00,0.0010
2517.00,0.0009
2516.00,0.0009
2515.00,0.0009
2514.00,0.0009
2513.00,0.0010
2512.00,0.0010
2511.00,0.0010
2510.00,0.0009
2509.00,0.0009
2508.00,0.0009
2507.00,0.0009
2506.00,0.0009
2505.00,0.0009
2504.00,0.0009
2503.00,0.0009
2502.00,0.0009
2501.00,0.0009
2500.00,0.0009
2499.00,0.0009
2498.00,0.0009
2497.00,0.0009
2496.00,0.0009
2495.00,0.0009
2494.00,0.0010
2493.00,0.0010
2492.00,0.0010
2491.00,0.0010
2490.00,0.0010
2489.00,0.0010
2488.00,0.0009
2487.00,0.0009
2486.00,0.0009
2485.00,0.0009
2484.00,0.0009
2483.00,0.0010
2482.00,0.0010
2481.00,0.0010
2480.00,0.0010
2479.00,0.0009
2478.00,0.0009
2477.00,0.0009
2476.00,0.0008
2475.00,0.0008
2474.00,0.0008
2473.00,0.0008
2472.00,0.0008
2471.00,0.0008
2470.00,0.0008
2469.00,0.0008
2468.00,0.0008
2467.00,0.0008
2466.00,0.0007
2465.00,0.0007
2464.00,0.0007
2463.00,0.0008
2462.00,0.0008
2461.00,0.0008
2460.00,0.0008
2459.00,0.0007
2458.00,0.0007
2457.00,0.0007
2456.00,0.0007
2455.00,0.0007
2454.00,0.0008
2453.00,0.0008
2452.00,0.0009
2451.00,0.0010
2450.00,0.0010
2449.00,0.0009
2448.00,0.0009
2447.00,0.0009
2446.00,0.0009
2445.00,0.0009
2444.00,0.0009
2443.00,0.0009
2442.00,0.0009
2441.00,0.0009
2440.00,0.0009
2439.00,0.0009
2438.00,0.0009
2437.00,0.0010
2436.00,0.0010
2435.00,0.0010
2434.00,0.0010
2433.00,0.0010
2432.00,0.0010
2431.00,0.0010
2430.00,0.0010
2429.00,0.0009
2428.00,0.0010
2427.00,0.0010
2426.00,0.0011
2425.00,0.0011
2424.00,0.0011
2423.00,0.0011
2422.00,0.0010
2421.00,0.0010
2420.00,0.0010
2419.00,0.0010
2418.00,0.0010
2417.00,0.0009
2416.00,0.0009
2415.00,0.0008
2414.00,0.0008
2413.00,0.0007
2412.00,0.0007
2411.00,0.0007
2410.00,0.0008
2409.00,0.0008
2408.00,0.0008
2407.00,0.0008
2406.00,0.0008
2405.00,0.0007
2404.00,0.0007
2403.00,0.0006
2402.00,0.0007
2401.00,0.0007
2400.00,0.0007
2399.00,0.0007
2398.00,0.0007
2397.00,0.0007
2396.00,0.0007
2395.00,0.0007
2394.00,0.0006
2393.00,0.0006
2392.00,0.0006
2391.00,0.0006
2390.00,0.0005
2389.00,0.0006
2388.00,0.0006
2387.00,0.0006
2386.00,0.0006
2385.00,0.0005
2384.00,0.0004
2383.00,0.0004
2382.00,0.0003
2381.00,0.0002
2380.00,0.0002
2379.00,0.0002
2378.00,0.0002
2377.00,0.0003
2376.00,0.0003
2375.00,0.0003
2374.00,0.0003
2373.00,0.0003
2372.00,0.0003
2371.00,0.0003
2370.00,0.0003
2369.00,0.0002
2368.00,0.0002
2367.00,0.0002
2366.00,0.0002
2365.00,0.0002
2364.00,0.0002
2363.00,0.0002
2362.00,0.0003
2361.00,0.0003
2360.00,0.0003
2359.00,0.0004
2358.00,0.0004
2357.00,0.0004
2356.00,0.0005
2355.00,0.0006
2354.00,0.0006
2353.00,0.0005
2352.00,0.0004
2351.00,0.0004
2350.00,0.0004
2349.00,0.0005
2348.00,0.0005
2347.00,0.0005
2346.00,0.0005
2345.00,0.0005
2344.00,0.0005
2343.00,0.0006
2342.00,0.0007
2341.00,0.0007
2340.00,0.0007
2339.00,0.0007
2338.00,0.0008
2337.00,0.0007
2336.00,0.0007
2335.00,0.0007
2334.00,0.0007
2333.00,0.0007
2332.00,0.0008
2331.00,0.0008
2330.00,0.0008
2329.00,0.0008
2328.00,0.0010
2327.00,0.0013
2326.00,0.0017
2325.00,0.0020
2324.00,0.0021
2323.00,0.0020
2322.00,0.0018
2321.00,0.0016
2320.00,0.0014
2319.00,0.0013
2318.00,0.0012
2317.00,0.0011
2316.00,0.0010
2315.00,0.0009
2314.00,0.0009
2313.00,0.0008
2312.00,0.0007
2311.00,0.0006
2310.00,0.0006
2309.00,0.0006
2308.00,0.0006
2307.00,0.0006
2306.00,0.0007
2305.00,0.0007
2304.00,0.0008
2303.00,0.0008
2302.00,0.0008
2301.00,0.0008
2300.00,0.0009
2299.00,0.0009
2298.00,0.0009
2297.00,0.0010
2296.00,0.0010
2295.00,0.0010
2294.00,0.0012
2293.00,0.0014
2292.00,0.0015
2291.00,0.0016
2290.00,0.0016
2289.00,0.0016
2288.00,0.0016
2287.00,0.0015
2286.00,0.0015
2285.00,0.0015
2284.00,0.0014
2283.00,0.0013
2282.00,0.0011
2281.00,0.0011
2280.00,0.0011
2279.00,0.0012
2278.00,0.0012
2277.00,0.0013
2276.00,0.0014
2275.00,0.0014
2274.00,0.0014
2273.00,0.0014
2272.00,0.0015
2271.00,0.0014
2270.00,0.0013
2269.00,0.0012
2268.00,0.0010
2267.00,0.0009
2266.00,0.0009
2265.00,0.0010
2264.00,0.0011
2263.00,0.0011
2262.00,0.0011
2261.00,0.0011
2260.00,0.0010
2259.00,0.0010
2258.00,0.0010
2257.00,0.0010
2256.00,0.0009
2255.00,0.0008
2254.00,0.0006
2253.00,0.0005
2252.00,0.0005
2251.00,0.0005
2250.00,0.0005
2249.00,0.0005
2248.00,0.0006
2247.00,0.0007
2246.00,0.0009
2245.00,0.0009
2244.00,0.0008
2243.00,0.0007
2242.00,0.0006
2241.00,0.0005
2240.00,0.0004
2239.00,0.0004
2238.00,0.0006
2237.00,0.0008
2236.00,0.0009
2235.00,0.0009
2234.00,0.0008
2233.00,0.0006
2232.00,0.0005
2231.00,0.0004
2230.00,0.0004
2229.00,0.0005
2228.00,0.0006
2227.00,0.0006
2226.00,0.0004
2225.00,0.0003
2224.00,0.0002
2223.00,0.0002
2222.00,0.0001
2221.00,0.0001
2220.00,0.0000
2219.00,-0.0000
2218.00,0.0000
2217.00,0.0001
2216.00,0.0001
2215.00,0.0001
2214.00,0.0001
2213.00,0.0002
2212.00,0.0004
2211.00,0.0006
2210.00,0.0007
2209.00,0.0006
2208.00,0.0005
2207.00,0.0004
2206.00,0.0003
2205.00,0.0003
2204.00,0.0003
2203.00,0.0002
2202.00,0.0001
2201.00,0.0002
2200.00,0.0003
2199.00,0.0005
2198.00,0.0005
2197.00,0.0005
2196.00,0.0003
2195.00,0.0002
2194.00,0.0002
2193.00,0.0004
2192.00,0.0006
2191.00,0.0007
2190.00,0.0009
2189.00,0.0010
2188.00,0.0013
2187.00,0.0016
2186.00,0.0016
2185.00,0.0013
2184.00,0.0008
2183.00,0.0003
2182.00,-0.0001
2181.00,-0.0002
2180.00,-0.0001
2179.00,0.0001
2178.00,0.0003
2177.00,0.0003
2176.00,0.0001
2175.00,-0.0001
2174.00,-0.0001
2173.00,0.0000
2172.00,0.0003
2171.00,0.0005
2170.00,0.0007
2169.00,0.0008
2168.00,0.0011
2167.00,0.0014
2166.00,0.0017
2165.00,0.0018
2164.00,0.0018
2163.00,0.0016
2162.00,0.0015
2161.00,0.0011
2160.00,0.0002
2159.00,-0.0010
2158.00,-0.0021
2157.00,-0.0027
2156.00,-0.0028
2155.00,-0.0026
2154.00,-0.0022
2153.00,-0.0018
2152.00,-0.0016
2151.00,-0.0016
2150.00,-0.0017
2149.00,-0.0018
2148.00,-0.0018
2147.00,-0.0018
2146.00,-0.0018
2145.00,-0.0017
2144.00,-0.0016
2143.00,-0.0014
2142.00,-0.0013
2141.00,-0.0013
2140.00,-0.0013
2139.00,-0.0013
2138.00,-0.0013
2137.00,-0.0014
2136.00,-0.0015
2135.00,-0.0016
2134.00,-0.0017
2133.00,-0.0017
2132.00,-0.0015
2131.00,-0.0014
2130.00,-0.0013
2129.00,-0.0012
2128.00,-0.0011
2127.00,-0.0010
2126.00,-0.0009
2125.00,-0.0007
2124.00,-0.0007
2123.00,-0.0006
2122.00,-0.0005
2121.00,-0.0004
2120.00,-0.0003
2119.00,-0.0003
2118.00,-0.0003
2117.00,-0.0002
2116.00,-0.0001
2115.00,0.0000
2114.00,0.0000
2113.00,0.0000
2112.00,0.0000
2111.00,0.0001
2110.00,0.0001
2109.00,0.0001
2108.00,0.0000
2107.00,-0.0000
2106.00,-0.0001
2105.00,-0.0001
2104.00,-0.0001
2103.00,0.0000
2102.00,0.0002
2101.00,0.0002
2100.00,0.0002
2099.00,0.0001
2098.00,-0.0001
2097.00,-0.0002
2096.00,-0.0003
2095.00,-0.0005
2094.00,-0.0006
2093.00,-0.0006
2092.00,-0.0004
2091.00,-0.0003
2090.00,-0.0003
2089.00,-0.0003
2088.00,-0.0003
2087.00,-0.0003
2086.00,-0.0002
2085.00,-0.0001
2084.00,0.0001
2083.00,0.0001
2082.00,-0.0000
2081.00,-0.0001
2080.00,-0.0000
2079.00,0.0001
2078.00,0.0003
2077.00,0.0004
2076.00,0.0003
2075.00,0.0002
2074.00,0.0001
2073.00,-0.0001
2072.00,-0.0002
2071.00,-0.0002
2070.00,-0.0002
2069.00,-0.0001
2068.00,-0.0001
2067.00,-0.0002
2066.00,-0.0004
2065.00,-0.0004
2064.00,-0.0004
2063.00,-0.0004
2062.00,-0.0004
2061.00,-0.0005
2060.00,-0.0005
2059.00,-0.0005
2058.00,-0.0005
2057.00,-0.0005
2056.00,-0.0005
2055.00,-0.0005
2054.00,-0.0004
2053.00,-0.0001
2052.00,0.0004
2051.00,0.0009
2050.00,0.0010
2049.00,0.0009
2048.00,0.0006
2047.00,0.0004
2046.00,0.0002
2045.00,0.0000
2044.00,-0.0002
2043.00,-0.0003
2042.00,-0.0003
2041.00,-0.0003
2040.00,-0.0002
2039.00,-0.0000
2038.00,0.0001
2037.00,0.0002
2036.00,0.0001
2035.00,-0.0000
2034.00,-0.0002
2033.00,-0.0005
2032.00,-0.0008
2031.00,-0.0011
2030.00,-0.0012
2029.00,-0.0014
2028.00,-0.0015
2027.00,-0.0016
2026.00,-0.0015
2025.00,-0.0012
2024.00,-0.0008
2023.00,-0.0006
2022.00,-0.0006
2021.00,-0.0008
2020.00,-0.0009
2019.00,-0.0010
2018.00,-0.0009
2017.00,-0.0007
2016.00,-0.0006
2015.00,-0.0006
2014.00,-0.0006
2013.00,-0.0006
2012.00,-0.0005
2011.00,-0.0006
2010.00,-0.0008
2009.00,-0.0012
2008.00,-0.0017
2007.00,-0.0021
2006.00,-0.0024
2005.00,-0.0024
2004.00,-0.0024
2003.00,-0.0023
2002.00,-0.0021
2001.00,-0.0018
2000.00,-0.0014
1999.00,-0.0012
1998.00,-0.0011
1997.00,-0.0012
1996.00,-0.0011
1995.00,-0.0011
1994.00,-0.0010
1993.00,-0.0010
1992.00,-0.0011
1991.00,-0.0011
1990.00,-0.0011
1989.00,-0.0009
1988.00,-0.0008
1987.00,-0.0008
1986.00,-0.0007
1985.00,-0.0004
1984.00,-0.0000
1983.00,0.0004
1982.00,0.0008
1981.00,0.0010
1980.00,0.0008
1979.00,0.0003
1978.00,-0.0004
1977.00,-0.0009
1976.00,-0.0011
1975.00,-0.0010
1974.00,-0.0009
1973.00,-0.0009
1972.00,-0.0010
1971.00,-0.0012
1970.00,-0.0014
1969.00,-0.0016
1968.00,-0.0018
1967.00,-0.0020
1966.00,-0.0021
1965.00,-0.0019
1964.00,-0.0017
1963.00,-0.0017
1962.00,-0.0019
1961.00,-0.0020
1960.00,-0.0021
1959.00,-0.0021
1958.00,-0.0021
1957.00,-0.0021
1956.00,-0.0021
1955.00,-0.0022
1954.00,-0.0023
1953.00,-0.0022
1952.00,-0.0020
1951.00,-0.0017
1950.00,-0.0015
1949.00,-0.0013
1948.00,-0.0012
1947.00,-0.0013
1946.00,-0.0015
1945.00,-0.0016
1944.00,-0.0017
1943.00,-0.0018
1942.00,-0.0017
1941.00,-0.0016
1940.00,-0.0015
1939.00,-0.0014
1938.00,-0.0013
1937.00,-0.0013
1936.00,-0.0013
1935.00,-0.0014
1934.00,-0.0014
1933.00,-0.0013
1932.00,-0.0012
1931.00,-0.0011
1930.00,-0.0010
1929.00,-0.0009
1928.00,-0.0009
1927.00,-0.0010
1926.00,-0.0010
1925.00,-0.0011
1924.00,-0.0010
1923.00,-0.0010
1922.00,-0.0009
1921.00,-0.0008
1920.00,-0.0006
1919.00,-0.0005
1918.00,-0.0005
1917.00,-0.0005
1916.00,-0.0006
1915.00,-0.0007
1914.00,-0.0007
1913.00,-0.0005
1912.00,-0.0003
1911.00,-0.0002
1910.00,-0.0002
1909.00,-0.0002
1908.00,-0.0001
1907.00,-0.0001
1906.00,-0.0001
1905.00,-0.0001
1904.00,-0.0001
1903.00,-0.0002
1902.00,-0.0003
1901.00,-0.0003
1900.00,-0.0003
1899.00,-0.0003
1898.00,-0.0004
1897.00,-0.0004
1896.00,-0.0003
1895.00,-0.0002
1894.00,-0.0002
1893.00,-0.0003
1892.00,-0.0003
1891.00,-0.0004
1890.00,-0.0003
1889.00,-0.0003
1888.00,-0.0002
1887.00,-0.0002
1886.00,-0.0002
1885.00,-0.0002
1884.00,-0.0002
1883.00,-0.0001
1882.00,-0.0001
1881.00,-0.0002
1880.00,-0.0002
1879.00,-0.0001
1878.00,-0.0001
1877.00,0.0000
1876.00,0.0000
1875.00,-0.0000
1874.00,-0.0000
1873.00,-0.0000
1872.00,-0.0001
1871.00,-0.0001
1870.00,-0.0002
1869.00,-0.0003
1868.00,-0.0003
1867.00,-0.0003
1866.00,-0.0003
1865.00,-0.0003
1864.00,-0.0003
1863.00,-0.0003
1862.00,-0.0003
1861.00,-0.0003
1860.00,-0.0002
1859.00,-0.0001
1858.00,-0.0000
1857.00,-0.0000
1856.00,-0.0000
1855.00,-0.0001
1854.00,-0.0001
1853.00,-0.0001
1852.00,-0.0001
1851.00,-0.0001
1850.00,-0.0001
1849.00,-0.0001
1848.00,-0.0000
1847.00,0.0001
1846.00,0.0002
1845.00,0.0002
1844.00,0.0003
1843.00,0.0002
1842.00,0.0002
1841.00,0.0002
1840.00,0.0002
1839.00,0.0002
1838.00,0.0002
1837.00,0.0002
1836.00,0.0002
1835.00,0.0002
1834.00,0.0002
1833.00,0.0002
1832.00,0.0002
1831.00,0.0002
1830.00,0.0002
1829.00,0.0003
1828.00,0.0003
1827.00,0.0003
1826.00,0.0003
1825.00,0.0003
1824.00,0.0003
1823.00,0.0002
1822.00,0.0002
1821.00,0.0002
1820.00,0.0001
1819.00,0.0000
1818.00,-0.0001
1817.00,-0.0002
1816.00,-0.0001
1815.00,-0.0001
1814.00,0.0000
1813.00,0.0001
1812.00,0.0001
1811.00,0.0001
1810.00,0.0001
1809.00,0.0002
1808.00,0.0002
1807.00,0.0002
1806.00,0.0002
1805.00,0.0003
1804.00,0.0003
1803.00,0.0004
1802.00,0.0004
1801.00,0.0004
1800.00,0.0004
1799.00,0.0004
1798.00,0.0004
1797.00,0.0004
1796.00,0.0004
1795.00,0.0004
1794.00,0.0004
1793.00,0.0004
1792.00,0.0004
1791.00,0.0005
1790.00,0.0005
1789.00,0.0005
1788.00,0.0005
1787.00,0.0005
1786.00,0.0005
1785.00,0.0006
1784.00,0.0006
1783.00,0.0007
1782.00,0.0007
1781.00,0.0007
1780.00,0.0007
1779.00,0.0007
1778.00,0.0007
1777.00,0.0006
1776.00,0.0007
1775.00,0.0007
1774.00,0.0007
1773.00,0.0007
1772.00,0.0008
1771.00,0.0009
1770.00,0.0009
1769.00,0.0009
1768.00,0.0009
1767.00,0.0010
1766.00,0.0009
1765.00,0.0009
1764.00,0.0009
1763.00,0.0009
1762.00,0.0009
1761.00,0.0010
1760.00,0.0011
1759.00,0.0011
1758.00,0.0012
1757.00,0.0013
1756.00,0.0013
1755.00,0.0014
1754.00,0.0014
1753.00,0.0014
1752.00,0.0015
1751.00,0.0015
1750.00,0.0016
1749.00,0.0017
1748.00,0.0018
1747.00,0.0019
1746.00,0.0019
1745.00,0.0019
1744.00,0.0020
1743.00,0.0020
1742.00,0.0021
1741.00,0.0022
1740.00,0.0023
1739.00,0.0023
1738.00,0.0024
1737.00,0.0024
1736.00,0.0024
1735.00,0.0024
1734.00,0.0024
1733.00,0.0025
1732.00,0.0025
1731.00,0.0025
1730.00,0.0025
1729.00,0.0025
1728.00,0.0025
1727.00,0.0025
1726.00,0.0025
1725.00,0.0025
1724.00,0.0025
1723.00,0.0026
1722.00,0.0026
1721.00,0.0026
1720.00,0.0026
1719.00,0.0026
1718.00,0.0025
1717.00,0.0024
1716.00,0.0024
1715.00,0.0024
1714.00,0.0023
1713.00,0.0023
1712.00,0.0023
1711.00,0.0023
1710.00,0.0023
1709.00,0.0022
1708.00,0.0022
1707.00,0.0022
1706.00,0.0022
1705.00,0.0023
1704.00,0.0024
1703.00,0.0025
1702.00,0.0025
1701.00,0.0026
1700.00,0.0026
1699.00,0.0027
1698.00,0.0027
1697.00,0.0027
1696.00,0.0028
1695.00,0.0028
1694.00,0.0028
1693.00,0.0029
1692.00,0.0029
1691.00,0.0029
1690.00,0.0029
1689.00,0.0030
1688.00,0.0030
1687.00,0.0031
1686.00,0.0031
1685.00,0.0031
1684.00,0.0033
1683.00,0.0034
1682.00,0.0035
1681.00,0.0035
1680.00,0.0035
1679.00,0.0036
1678.00,0.0036
1677.00,0.0036
1676.00,0.0036
1675.00,0.0036
1674.00,0.0037
1673.00,0.0038
1672.00,0.0039
1671.00,0.0040
1670.00,0.0041
1669.00,0.0041
1668.00,0.0042
1667.00,0.0042
1666.00,0.0042
1665.00,0.0042
1664.00,0.0042
1663.00,0.0043
1662.00,0.0043
1661.00,0.0044
1660.00,0.0044
1659.00,0.0045
1658.00,0.0046
1657.00,0.0047
1656.00,0.0049
1655.00,0.0050
1654.00,0.0050
1653.00,0.0050
1652.00,0.0050
1651.00,0.0050
1650.00,0.0051
1649.00,0.0051
1648.00,0.0052
1647.00,0.0053
1646.00,0.0054
1645.00,0.0055
1644.00,0.0056
1643.00,0.0057
1642.00,0.0058
1641.00,0.0060
1640.00,0.0062
1639.00,0.0063
1638.00,0.0064
1637.00,0.0065
1636.00,0.0064
1635.00,0.0063
1634.00,0.0062
1633.00,0.0061
1632.00,0.0060
1631.00,0.0060
1630.00,0.0059
1629.00,0.0059
1628.00,0.0058
1627.00,0.0058
1626.00,0.0057
1625.00,0.0057
1624.00,0.0057
1623.00,0.0057
1622.00,0.0056
1621.00,0.0056
1620.00,0.0056
1619.00,0.0056
1618.00,0.0055
1617.00,0.0054
1616.00,0.0054
1615.00,0.0054
1614.00,0.0054
1613.00,0.0055
1612.00,0.0055
1611.00,0.0055
1610.00,0.0055
1609.00,0.0055
1608.00,0.0056
1607.00,0.0056
1606.00,0.0055
1605.00,0.0055
1604.00,0.0055
1603.00,0.0056
1602.00,0.0056
1601.00,0.0056
1600.00,0.0055
1599.00,0.0055
1598.00,0.0055
1597.00,0.0055
1596.00,0.0055
1595.00,0.0055
1594.00,0.0055
1593.00,0.0056
1592.00,0.0056
1591.00,0.0056
1590.00,0.0056
1589.00,0.0057
1588.00,0.0058
1587.00,0.0059
1586.00,0.0060
1585.00,0.0061
1584.00,0.0062
1583.00,0.0064
1582.00,0.0066
1581.00,0.0068
1580.00,0.0070
1579.00,0.0072
1578.00,0.0073
1577.00,0.0073
1576.00,0.0073
1575.00,0.0072
1574.00,0.0072
1573.00,0.0071
1572.00,0.0071
1571.00,0.0070
1570.00,0.0068
1569.00,0.0068
1568.00,0.0067
1567.00,0.0066
1566.00,0.0065
1565.00,0.0065
1564.00,0.0065
1563.00,0.0065
1562.00,0.0065
1561.00,0.0065
1560.00,0.0065
1559.00,0.0064
1558.00,0.0064
1557.00,0.0065
1556.00,0.0065
1555.00,0.0065
1554.00,0.0065
1553.00,0.0066
1552.00,0.0066
1551.00,0.0067
1550.00,0.0068
1549.00,0.0070
1548.00,0.0071
1547.00,0.0072
1546.00,0.0073
1545.00,0.0075
1544.00,0.0078
1543.00,0.0080
1542.00,0.0081
1541.00,0.0082
1540.00,0.0081
1539.00,0.0078
1538.00,0.0075
1537.00,0.0072
1536.00,0.0070
1535.00,0.0068
1534.00,0.0065
1533.00,0.0062
1532.00,0.0060
1531.00,0.0059
1530.00,0.0058
1529.00,0.0057
1528.00,0.0056
1527.00,0.0056
1526.00,0.0056
1525.00,0.0056
1524.00,0.0056
1523.00,0.0056
1522.00,0.0056
1521.00,0.0056
1520.00,0.0056
1519.00,0.0055
1518.00,0.0055
1517.00,0.0055
1516.00,0.0056
1515.00,0.0056
1514.00,0.0056
1513.00,0.0056
1512.00,0.0057
1511.00,0.0057
1510.00,0.0057
1509.00,0.0059
1508.00,0.0060
1507.00,0.0062
1506.00,0.0062
1505.00,0.0063
1504.00,0.0063
1503.00,0.0064
1502.00,0.0065
1501.00,0.0067
1500.00,0.0070
1499.00,0.0072
1498.00,0.0074
1497.00,0.0078
1496.00,0.0081
1495.00,0.0084
1494.00,0.0086
1493.00,0.0089
1492.00,0.0093
1491.00,0.0097
1490.00,0.0101
1489.00,0.0106
1488.00,0.0112
1487.00,0.0117
1486.00,0.0122
1485.00,0.0128
1484.00,0.0135
1483.00,0.0143
1482.00,0.0152
1481.00,0.0164
1480.00,0.0177
1479.00,0.0190
1478.00,0.0206
1477.00,0.0227
1476.00,0.0253
1475.00,0.0284
1474.00,0.0325
1473.00,0.0382
1472.00,0.0448
1471.00,0.0512
1470.00,0.0575
1469.00,0.0641
1468.00,0.0714
1467.00,0.0794
1466.00,0.0884
1465.00,0.0981
1464.00,0.1066
1463.00,0.1123
1462.00,0.1160
1461.00,0.1183
1460.00,0.1198
1459.00,0.1207
1458.00,0.1211
1457.00,0.1210
1456.00,0.1202
1455.00,0.1189
1454.00,0.1173
1453.00,0.1154
1452.00,0.1126
1451.00,0.1087
1450.00,0.1036
1449.00,0.0966
1448.00,0.0877
1447.00,0.0783
1446.00,0.0697
1445.00,0.0624
1444.00,0.0561
1443.00,0.0510
1442.00,0.0472
1441.00,0.0446
1440.00,0.0430
1439.00,0.0424
1438.00,0.0427
1437.00,0.0431
1436.00,0.0424
1435.00,0.0401
1434.00,0.0365
1433.00,0.0322
1432.00,0.0277
1431.00,0.0236
1430.00,0.0205
1429.00,0.0181
1428.00,0.0165
1427.00,0.0154
1426.00,0.0147
1425.00,0.0141
1424.00,0.0136
1423.00,0.0133
1422.00,0.0132
1421.00,0.0130
1420.00,0.0126
1419.00,0.0124
1418.00,0.0122
1417.00,0.0120
1416.00,0.0117
1415.00,0.0116
1414.00,0.0115
1413.00,0.0114
1412.00,0.0113
1411.00,0.0113
1410.00,0.0113
1409.00,0.0112
1408.00,0.0111
1407.00,0.0112
1406.00,0.0112
1405.00,0.0113
1404.00,0.0113
1403.00,0.0114
1402.00,0.0115
1401.00,0.0117
1400.00,0.0118
1399.00,0.0121
1398.00,0.0124
1397.00,0.0127
1396.00,0.0130
1395.00,0.0134
1394.00,0.0140
1393.00,0.0144
1392.00,0.0149
1391.00,0.0156
1390.00,0.0166
1389.00,0.0180
1388.00,0.0200
1387.00,0.0231
1386.00,0.0273
1385.00,0.0328
1384.00,0.0403
1383.00,0.0510
1382.00,0.0655
1381.00,0.0845
1380.00,0.1084
1379.00,0.1363
1378.00,0.1642
1377.00,0.1857
1376.00,0.1942
1375.00,0.1858
1374.00,0.1631
1373.00,0.1348
1372.00,0.1085
1371.00,0.0867
1370.00,0.0693
1369.00,0.0563
1368.00,0.0473
1367.00,0.0418
1366.00,0.0387
1365.00,0.0375
1364.00,0.0377
1363.00,0.0392
1362.00,0.0414
1361.00,0.0438
1360.00,0.0456
1359.00,0.0461
1358.00,0.0451
1357.00,0.0424
1356.00,0.0387
1355.00,0.0345
1354.00,0.0305
1353.00,0.0271
1352.00,0.0243
1351.00,0.0220
1350.00,0.0202
1349.00,0.0187
1348.00,0.0175
1347.00,0.0164
1346.00,0.0155
1345.00,0.0147
1344.00,0.0141
1343.00,0.0135
1342.00,0.0131
1341.00,0.0127
1340.00,0.0124
1339.00,0.0122
1338.00,0.0121
1337.00,0.0121
1336.00,0.0121
1335.00,0.0123
1334.00,0.0126
1333.00,0.0129
1332.00,0.0134
1331.00,0.0137
1330.00,0.0138
1329.00,0.0137
1328.00,0.0134
1327.00,0.0129
1326.00,0.0123
1325.00,0.0117
1324.00,0.0112
1323.00,0.0107
1322.00,0.0103
1321.00,0.0100
1320.00,0.0097
1319.00,0.0096
1318.00,0.0095
1317.00,0.0094
1316.00,0.0093
1315.00,0.0092
1314.00,0.0091
1313.00,0.0091
1312.00,0.0091
1311.00,0.0093
1310.00,0.0097
1309.00,0.0102
1308.00,0.0110
1307.00,0.0120
1306.00,0.0129
1305.00,0.0136
1304.00,0.0137
1303.00,0.0135
1302.00,0.0130
1301.00,0.0127
1300.00,0.0125
1299.00,0.0125
1298.00,0.0126
1297.00,0.0127
1296.00,0.0127
1295.00,0.0125
1294.00,0.0122
1293.00,0.0117
1292.00,0.0112
1291.00,0.0107
1290.00,0.0102
1289.00,0.0098
1288.00,0.0095
1287.00,0.0093
1286.00,0.0091
1285.00,0.0090
1284.00,0.0088
1283.00,0.0087
1282.00,0.0086
1281.00,0.0085
1280.00,0.0084
1279.00,0.0083
1278.00,0.0082
1277.00,0.0082
1276.00,0.0082
1275.00,0.0082
1274.00,0.0083
1273.00,0.0085
1272.00,0.0086
1271.00,0.0089
1270.00,0.0091
1269.00,0.0093
1268.00,0.0095
1267.00,0.0099
1266.00,0.0103
1265.00,0.0107
1264.00,0.0111
1263.00,0.0114
1262.00,0.0116
1261.00,0.0119
1260.00,0.0124
1259.00,0.0128
1258.00,0.0133
1257.00,0.0137
1256.00,0.0138
1255.00,0.0136
1254.00,0.0130
1253.00,0.0122
1252.00,0.0115
1251.00,0.0108
1250.00,0.0103
1249.00,0.0099
1248.00,0.0096
1247.00,0.0094
1246.00,0.0092
1245.00,0.0090
1244.00,0.0089
1243.00,0.0087
1242.00,0.0086
1241.00,0.0084
1240.00,0.0083
1239.00,0.0083
1238.00,0.0083
1237.00,0.0083
1236.00,0.0083
1235.00,0.0083
1234.00,0.0083
1233.00,0.0083
1232.00,0.0084
1231.00,0.0085
1230.00,0.0086
1229.00,0.0086
1228.00,0.0087
1227.00,0.0089
1226.00,0.0091
1225.00,0.0094
1224.00,0.0097
1223.00,0.0100
1222.00,0.0104
1221.00,0.0107
1220.00,0.0109
1219.00,0.0109
1218.00,0.0108
1217.00,0.0105
1216.00,0.0102
1215.00,0.0099
1214.00,0.0096
1213.00,0.0093
1212.00,0.0091
1211.00,0.0089
1210.00,0.0087
1209.00,0.0086
1208.00,0.0085
1207.00,0.0084
1206.00,0.0083
1205.00,0.0082
1204.00,0.0082
1203.00,0.0082
1202.00,0.0081
1201.00,0.0081
1200.00,0.0081
1199.00,0.0081
1198.00,0.0081
1197.00,0.0081
1196.00,0.0080
1195.00,0.0081
1194.00,0.0081
1193.00,0.0082
1192.00,0.0082
1191.00,0.0082
1190.00,0.0082
1189.00,0.0082
1188.00,0.0083
1187.00,0.0084
1186.00,0.0085
1185.00,0.0086
1184.00,0.0087
1183.00,0.0088
1182.00,0.0090
1181.00,0.0093
1180.00,0.0096
1179.00,0.0101
1178.00,0.0107
1177.00,0.0114
1176.00,0.0124
1175.00,0.0137
1174.00,0.0153
1173.00,0.0174
1172.00,0.0199
1171.00,0.0227
1170.00,0.0255
1169.00,0.0279
1168.00,0.0294
1167.00,0.0298
1166.00,0.0292
1165.00,0.0280
1164.00,0.0265
1163.00,0.0251
1162.00,0.0238
1161.00,0.0228
1160.00,0.0219
1159.00,0.0213
1158.00,0.0209
1157.00,0.0206
1156.00,0.0204
1155.00,0.0204
1154.00,0.0203
1153.00,0.0202
1152.00,0.0198
1151.00,0.0192
1150.00,0.0183
1149.00,0.0174
1148.00,0.0164
1147.00,0.0155
1146.00,0.0146
1145.00,0.0138
1144.00,0.0130
1143.00,0.0124
1142.00,0.0117
1141.00,0.0112
1140.00,0.0107
1139.00,0.0104
1138.00,0.0100
1137.00,0.0097
1136.00,0.0094
1135.00,0.0092
1134.00,0.0091
1133.00,0.0090
1132.00,0.0091
1131.00,0.0091
1130.00,0.0092
1129.00,0.0092
1128.00,0.0092
1127.00,0.0093
1126.00,0.0094
1125.00,0.0094
1124.00,0.0093
1123.00,0.0093
1122.00,0.0093
1121.00,0.0094
1120.00,0.0095
1119.00,0.0096
1118.00,0.0098
1117.00,0.0099
1116.00,0.0099
1115.00,0.0100
1114.00,0.0102
1113.00,0.0104
1112.00,0.0106
1111.00,0.0109
1110.00,0.0113
1109.00,0.0117
1108.00,0.0121
1107.00,0.0127
1106.00,0.0132
1105.00,0.0139
1104.00,0.0144
1103.00,0.0147
1102.00,0.0148
1101.00,0.0144
1100.00,0.0139
1099.00,0.0132
1098.00,0.0125
1097.00,0.0120
1096.00,0.0116
1095.00,0.0113
1094.00,0.0111
1093.00,0.0109
1092.00,0.0107
1091.00,0.0106
1090.00,0.0105
1089.00,0.0103
1088.00,0.0102
1087.00,0.0101
1086.00,0.0100
1085.00,0.0099
1084.00,0.0099
1083.00,0.0100
1082.00,0.0100
1081.00,0.0100
1080.00,0.0100
1079.00,0.0099
1078.00,0.0097
1077.00,0.0096
1076.00,0.0095
1075.00,0.0094
1074.00,0.0094
1073.00,0.0093
1072.00,0.0092
1071.00,0.0091
1070.00,0.0090
1069.00,0.0090
1068.00,0.0090
1067.00,0.0090
1066.00,0.0091
1065.00,0.0091
1064.00,0.0092
1063.00,0.0093
1062.00,0.0093
1061.00,0.0094
1060.00,0.0095
1059.00,0.0096
1058.00,0.0098
1057.00,0.0099
1056.00,0.0101
1055.00,0.0102
1054.00,0.0103
1053.00,0.0105
1052.00,0.0107
1051.00,0.0111
1050.00,0.0115
1049.00,0.0120
1048.00,0.0124
1047.00,0.0127
1046.00,0.0130
1045.00,0.0132
1044.00,0.0132
1043.00,0.0131
1042.00,0.0130
1041.00,0.0129
1040.00,0.0128
1039.00,0.0127
1038.00,0.0127
1037.00,0.0127
1036.00,0.0127
1035.00,0.0126
1034.00,0.0124
1033.00,0.0122
1032.00,0.0121
1031.00,0.0120
1030.00,0.0119
1029.00,0.0118
1028.00,0.0119
1027.00,0.0120
1026.00,0.0121
1025.00,0.0123
1024.00,0.0125
1023.00,0.0127
1022.00,0.0129
1021.00,0.0131
1020.00,0.0133
1019.00,0.0134
1018.00,0.0135
1017.00,0.0136
1016.00,0.0136
1015.00,0.0136
1014.00,0.0136
1013.00,0.0136
1012.00,0.0136
1011.00,0.0136
1010.00,0.0136
1009.00,0.0137
1008.00,0.0139
1007.00,0.0142
1006.00,0.0146
1005.00,0.0154
1004.00,0.0166
1003.00,0.0184
1002.00,0.0209
1001.00,0.0241
1000.00,0.0275
999.00,0.0304
998.00,0.0318
997.00,0.0311
996.00,0.0286
995.00,0.0251
994.00,0.0215
993.00,0.0184
992.00,0.0161
991.00,0.0143
990.00,0.0131
989.00,0.0122
988.00,0.0117
987.00,0.0114
986.00,0.0113
985.00,0.0115
984.00,0.0118
983.00,0.0125
982.00,0.0134
981.00,0.0149
980.00,0.0168
979.00,0.0195
978.00,0.0228
977.00,0.0266
976.00,0.0307
975.00,0.0344
974.00,0.0372
973.00,0.0381
972.00,0.0368
971.00,0.0335
970.00,0.0291
969.00,0.0246
968.00,0.0208
967.00,0.0179
966.00,0.0158
965.00,0.0142
964.00,0.0130
963.00,0.0121
962.00,0.0113
961.00,0.0108
960.00,0.0104
959.00,0.0102
958.00,0.0100
957.00,0.0098
956.00,0.0095
955.00,0.0093
954.00,0.0091
953.00,0.0090
952.00,0.0089
951.00,0.0088
950.00,0.0088
949.00,0.0087
948.00,0.0086
947.00,0.0087
946.00,0.0088
945.00,0.0091
944.00,0.0095
943.00,0.0099
942.00,0.0102
941.00,0.0103
940.00,0.0103
939.00,0.0101
938.00,0.0096
937.00,0.0090
936.00,0.0084
935.00,0.0078
934.00,0.0074
933.00,0.0071
932.00,0.0069
931.00,0.0067
930.00,0.0067
929.00,0.0066
928.00,0.0065
927.00,0.0064
926.00,0.0063
925.00,0.0062
924.00,0.0061
923.00,0.0061
922.00,0.0061
921.00,0.0061
920.00,0.0062
919.00,0.0062
918.00,0.0062
917.00,0.0063
916.00,0.0064
915.00,0.0066
914.00,0.0067
913.00,0.0069
912.00,0.0069
911.00,0.0069
910.00,0.0070
909.00,0.0072
908.00,0.0075
907.00,0.0080
906.00,0.0088
905.00,0.0098
904.00,0.0113
903.00,0.0130
902.00,0.0150
901.00,0.0167
900.00,0.0179
899.00,0.0181
898.00,0.0173
897.00,0.0157
896.00,0.0138
895.00,0.0121
894.00,0.0106
893.00,0.0096
892.00,0.0089
891.00,0.0083
890.00,0.0079
889.00,0.0076
888.00,0.0074
887.00,0.0072
886.00,0.0070
885.00,0.0069
884.00,0.0068
883.00,0.0068
882.00,0.0070
881.00,0.0071
880.00,0.0072
879.00,0.0073
878.00,0.0072
877.00,0.0072
876.00,0.0072
875.00,0.0072
874.00,0.0072
873.00,0.0073
872.00,0.0074
871.00,0.0075
870.00,0.0076
869.00,0.0075
868.00,0.0075
867.00,0.0075
866.00,0.0077
865.00,0.0079
864.00,0.0080
863.00,0.0081
862.00,0.0081
861.00,0.0081
860.00,0.0081
859.00,0.0083
858.00,0.0085
857.00,0.0087
856.00,0.0089
855.00,0.0091
854.00,0.0093
853.00,0.0094
852.00,0.0096
851.00,0.0099
850.00,0.0103
849.00,0.0107
848.00,0.0113
847.00,0.0124
846.00,0.0140
845.00,0.0166
844.00,0.0204
843.00,0.0250
842.00,0.0288
841.00,0.0303
840.00,0.0286
839.00,0.0247
838.00,0.0203
837.00,0.0167
836.00,0.0143
835.00,0.0129
834.00,0.0120
833.00,0.0114
832.00,0.0110
831.00,0.0108
830.00,0.0107
829.00,0.0107
828.00,0.0106
827.00,0.0105
826.00,0.0105
825.00,0.0105
824.00,0.0105
823.00,0.0106
822.00,0.0108
821.00,0.0110
820.00,0.0112
819.00,0.0114
818.00,0.0116
817.00,0.0121
816.00,0.0128
815.00,0.0141
814.00,0.0158
813.00,0.0179
812.00,0.0201
811.00,0.0221
810.00,0.0235
809.00,0.0240
808.00,0.0235
807.00,0.0223
806.00,0.0205
805.00,0.0185
804.00,0.0168
803.00,0.0153
802.00,0.0142
801.00,0.0134
800.00,0.0128
799.00,0.0123
798.00,0.0118
797.00,0.0113
796.00,0.0108
795.00,0.0104
794.00,0.0101
793.00,0.0098
792.00,0.0095
791.00,0.0091
790.00,0.0087
789.00,0.0082
788.00,0.0078
787.00,0.0075
786.00,0.0073
785.00,0.0071
784.00,0.0071
783.00,0.0070
782.00,0.0070
781.00,0.0070
780.00,0.0069
779.00,0.0068
778.00,0.0067
777.00,0.0066
776.00,0.0065
775.00,0.0065
774.00,0.0066
773.00,0.0067
772.00,0.0068
771.00,0.0069
770.00,0.0069
769.00,0.0069
768.00,0.0068
767.00,0.0067
766.00,0.0066
765.00,0.0065
764.00,0.0065
763.00,0.0066
762.00,0.0067
761.00,0.0068
760.00,0.0069
759.00,0.0069
758.00,0.0069
757.00,0.0070
756.00,0.0071
755.00,0.0072
754.00,0.0072
753.00,0.0073
752.00,0.0075
751.00,0.0076
750.00,0.0077
749.00,0.0078
748.00,0.0080
747.00,0.0083
746.00,0.0086
745.00,0.0089
744.00,0.0091
743.00,0.0093
742.00,0.0096
741.00,0.0098
740.00,0.0101
739.00,0.0104
738.00,0.0107
737.00,0.0109
736.00,0.0112
735.00,0.0116
734.00,0.0122
733.00,0.0130
732.00,0.0137
731.00,0.0143
730.00,0.0147
729.00,0.0150
728.00,0.0152
727.00,0.0153
726.00,0.0155
725.00,0.0158
724.00,0.0162
723.00,0.0167
722.00,0.0172
721.00,0.0175
720.00,0.0174
719.00,0.0168
718.00,0.0159
717.00,0.0148
716.00,0.0137
715.00,0.0128
714.00,0.0121
713.00,0.0116
712.00,0.0114
711.00,0.0112
710.00,0.0112
709.00,0.0110
708.00,0.0107
707.00,0.0105
706.00,0.0104
705.00,0.0104
704.00,0.0104
703.00,0.0103
702.00,0.0102
701.00,0.0099
700.00,0.0097
699.00,0.0096
698.00,0.0096
697.00,0.0096
696.00,0.0096
695.00,0.0097
694.00,0.0098
693.00,0.0099
692.00,0.0100
691.00,0.0100
690.00,0.0101
689.00,0.0102
688.00,0.0103
687.00,0.0102
686.00,0.0101
685.00,0.0100
684.00,0.0098
683.00,0.0097
682.00,0.0095
681.00,0.0095
680.00,0.0095
679.00,0.0095
678.00,0.0096
677.00,0.0098
676.00,0.0099
675.00,0.0100
674.00,0.0100
673.00,0.0101
672.00,0.0101
671.00,0.0102
670.00,0.0103
669.00,0.0104
668.00,0.0106
667.00,0.0107
666.00,0.0104
665.00,0.0100
664.00,0.0097
663.00,0.0095
662.00,0.0094
661.00,0.0094
660.00,0.0092
659.00,0.0090
658.00,0.0088
657.00,0.0087
656.00,0.0087
655.00,0.0086
654.00,0.0086
653.00,0.0087
652.00,0.0087
651.00,0.0087
650.00,0.0087
649.00,0.0085
648.00,0.0083
647.00,0.0081
646.00,0.0080
645.00,0.0081
644.00,0.0083
643.00,0.0084
642.00,0.0085
641.00,0.0085
640.00,0.0085
639.00,0.0084
638.00,0.0082
637.00,0.0081
636.00,0.0081
635.00,0.0081
634.00,0.0083
633.00,0.0084
632.00,0.0087
631.00,0.0088
630.00,0.0089
629.00,0.0089
628.00,0.0088
627.00,0.0088
626.00,0.0088
625.00,0.0088
624.00,0.0088
623.00,0.0087
622.00,0.0086
621.00,0.0085
620.00,0.0085
619.00,0.0086
618.00,0.0086
617.00,0.0085
616.00,0.0083
615.00,0.0082
614.00,0.0082
613.00,0.0084
612.00,0.0085
611.00,0.0085
610.00,0.0084
609.00,0.0083
608.00,0.0081
607.00,0.0079
606.00,0.0078
605.00,0.0078
604.00,0.0079
603.00,0.0081
602.00,0.0082
601.00,0.0082
600.00,0.0082
599.00,0.0082
598.00,0.0083
597.00,0.0084
596.00,0.0083
595.00,0.0082
594.00,0.0080
593.00,0.0078
592.00,0.0077
591.00,0.0077
590.00,0.0077
589.00,0.0077
588.00,0.0078
587.00,0.0080
586.00,0.0083
585.00,0.0085
584.00,0.0085
583.00,0.0084
582.00,0.0083
581.00,0.0082
580.00,0.0082
579.00,0.0081
578.00,0.0080
577.00,0.0078
576.00,0.0077
575.00,0.0079
574.00,0.0082
573.00,0.0084
572.00,0.0086
571.00,0.0087
570.00,0.0087
569.00,0.0087
568.00,0.0087
567.00,0.0087
566.00,0.0087
565.00,0.0087
564.00,0.0085
563.00,0.0084
562.00,0.0083
561.00,0.0082
560.00,0.0082
559.00,0.0083
558.00,0.0084
557.00,0.0084
556.00,0.0082
555.00,0.0079
554.00,0.0077
553.00,0.0079
552.00,0.0083
551.00,0.0088
550.00,0.0092
549.00,0.0093
548.00,0.0091
547.00,0.0088
546.00,0.0086
545.00,0.0086
544.00,0.0089
543.00,0.0093
542.00,0.0099
541.00,0.0103
540.00,0.0105
539.00,0.0106
538.00,0.0107
537.00,0.0108
536.00,0.0109
535.00,0.0110
534.00,0.0112
533.00,0.0114
532.00,0.0116
531.00,0.0115
530.00,0.0108
529.00,0.0101
528.00,0.0097
527.00,0.0099
526.00,0.0103
525.00,0.0105
524.00,0.0103
523.00,0.0100
522.00,0.0097
521.00,0.0093
520.00,0.0089
519.00,0.0086
518.00,0.0086
517.00,0.0087
516.00,0.0088
515.00,0.0088
514.00,0.0087
513.00,0.0087
512.00,0.0088
511.00,0.0090
510.00,0.0089
509.00,0.0084
508.00,0.0078
507.00,0.0077
506.00,0.0085
505.00,0.0095
504.00,0.0101
503.00,0.0099
502.00,0.0092
501.00,0.0086
500.00,0.0082
499.00,0.0084
498.00,0.0087
497.00,0.0087
496.00,0.0082
495.00,0.0076
494.00,0.0072
493.00,0.0073
492.00,0.0075
491.00,0.0073
490.00,0.0071
489.00,0.0073
488.00,0.0078
487.00,0.0082
486.00,0.0081
485.00,0.0075
484.00,0.0070
483.00,0.0069
482.00,0.0073
481.00,0.0078
480.00,0.0085
479.00,0.0095
478.00,0.0107
477.00,0.0120
476.00,0.0131
475.00,0.0138
474.00,0.0140
473.00,0.0139
472.00,0.0138
471.00,0.0138
470.00,0.0136
469.00,0.0132
468.00,0.0132
467.00,0.0140
466.00,0.0155
465.00,0.0169
464.00,0.0176
463.00,0.0178
462.00,0.0181
461.00,0.0186
460.00,0.0192
459.00,0.0195
458.00,0.0196
457.00,0.0196
456.00,0.0197
455.00,0.0196
454.00,0.0191
453.00,0.0183
452.00,0.0174
451.00,0.0165
450.00,0.0154
