Created as New Dataset,Sample 030 By Administrator Date Wednesday, September 03 2025
cm-1,A
4000.00,0.0009
3999.00,0.0009
3998.00,0.0009
3997.00,0.0009
3996.00,0.0010
3995.00,0.0010
3994.00,0.0009
3993.00,0.0009
3992.00,0.0009
3991.00,0.0009
3990.00,0.0009
3989.00,0.0009
3988.00,0.0009
3987.00,0.0009
3986.00,0.0009
3985.00,0.0009
3984.00,0.0009
3983.00,0.0008
3982.00,0.0008
3981.00,0.0008
3980.00,0.0007
3979.00,0.0007
3978.00,0.0007
3977.00,0.0007
3976.00,0.0007
3975.00,0.0008
3974.00,0.0008
3973.00,0.0008
3972.00,0.0008
3971.00,0.0008
3970.00,0.0008
3969.00,0.0008
3968.00,0.0008
3967.00,0.0008
3966.00,0.0008
3965.00,0.0008
3964.00,0.0008
3963.00,0.0008
3962.00,0.0007
3961.00,0.0007
3960.00,0.0008
3959.00,0.0008
3958.00,0.0008
3957.00,0.0008
3956.00,0.0008
3955.00,0.0008
3954.00,0.0008
3953.00,0.0009
3952.00,0.0009
3951.00,0.0008
3950.00,0.0008
3949.00,0.0008
3948.00,0.0007
3947.00,0.0007
3946.00,0.0007
3945.00,0.0007
3944.00,0.0007
3943.00,0.0007
3942.00,0.0006
3941.00,0.0006
3940.00,0.0007
3939.00,0.0007
3938.00,0.0007
3937.00,0.0008
3936.00,0.0008
3935.00,0.0008
3934.00,0.0008
3933.00,0.0007
3932.00,0.0007
3931.00,0.0007
3930.00,0.0007
3929.00,0.0007
3928.00,0.0008
3927.00,0.0008
3926.00,0.0008
3925.00,0.0008
3924.00,0.0008
3923.00,0.0008
3922.00,0.0008
3921.00,0.0008
3920.00,0.0008
3919.00,0.0008
3918.00,0.0008
3917.00,0.0008
3916.00,0.0008
3915.00,0.0008
3914.00,0.0007
3913.00,0.0007
3912.00,0.0007
3911.00,0.0007
3910.00,0.0007
3909.00,0.0007
3908.00,0.0007
3907.00,0.0007
3906.00,0.0008
3905.00,0.0008
3904.00,0.0008
3903.00,0.0008
3902.00,0.0008
3901.00,0.0008
3900.00,0.0007
3899.00,0.0007
3898.00,0.0008
3897.00,0.0008
3896.00,0.0008
3895.00,0.0008
3894.00,0.0008
3893.00,0.0007
3892.00,0.0007
3891.00,0.0008
3890.00,0.0008
3889.00,0.0008
3888.00,0.0008
3887.00,0.0008
3886.00,0.0008
3885.00,0.0008
3884.00,0.0008
3883.00,0.0007
3882.00,0.0007
3881.00,0.0007
3880.00,0.0007
3879.00,0.0007
3878.00,0.0007
3877.00,0.0008
3876.00,0.0008
3875.00,0.0008
3874.00,0.0008
3873.00,0.0009
3872.00,0.0009
3871.00,0.0009
3870.00,0.0008
3869.00,0.0008
3868.00,0.0008
3867.00,0.0008
3866.00,0.0008
3865.00,0.0007
3864.00,0.0007
3863.00,0.0008
3862.00,0.0008
3861.00,0.0008
3860.00,0.0007
3859.00,0.0007
3858.00,0.0008
3857.00,0.0008
3856.00,0.0008
3855.00,0.0008
3854.00,0.0007
3853.00,0.0007
3852.00,0.0007
3851.00,0.0007
3850.00,0.0007
3849.00,0.0006
3848.00,0.0006
3847.00,0.0007
3846.00,0.0007
3845.00,0.0008
3844.00,0.0008
3843.00,0.0008
3842.00,0.0008
3841.00,0.0008
3840.00,0.0008
3839.00,0.0008
3838.00,0.0007
3837.00,0.0007
3836.00,0.0007
3835.00,0.0007
3834.00,0.0007
3833.00,0.0007
3832.00,0.0007
3831.00,0.0007
3830.00,0.0008
3829.00,0.0007
3828.00,0.0007
3827.00,0.0006
3826.00,0.0007
3825.00,0.0007
3824.00,0.0008
3823.00,0.0008
3822.00,0.0008
3821.00,0.0008
3820.00,0.0008
3819.00,0.0009
3818.00,0.0008
3817.00,0.0007
3816.00,0.0007
3815.00,0.0007
3814.00,0.0008
3813.00,0.0008
3812.00,0.0007
3811.00,0.0007
3810.00,0.0007
3809.00,0.0007
3808.00,0.0007
3807.00,0.0007
3806.00,0.0008
3805.00,0.0009
3804.00,0.0010
3803.00,0.0009
3802.00,0.0009
3801.00,0.0009
3800.00,0.0009
3799.00,0.0009
3798.00,0.0008
3797.00,0.0008
3796.00,0.0008
3795.00,0.0008
3794.00,0.0008
3793.00,0.0008
3792.00,0.0008
3791.00,0.0008
3790.00,0.0007
3789.00,0.0007
3788.00,0.0007
3787.00,0.0007
3786.00,0.0006
3785.00,0.0006
3784.00,0.0006
3783.00,0.0007
3782.00,0.0007
3781.00,0.0007
3780.00,0.0006
3779.00,0.0007
3778.00,0.0007
3777.00,0.0008
3776.00,0.0008
3775.00,0.0008
3774.00,0.0008
3773.00,0.0008
3772.00,0.0008
3771.00,0.0008
3770.00,0.0008
3769.00,0.0008
3768.00,0.0008
3767.00,0.0008
3766.00,0.0008
3765.00,0.0008
3764.00,0.0008
3763.00,0.0009
3762.00,0.0009
3761.00,0.0008
3760.00,0.0008
3759.00,0.0008
3758.00,0.0009
3757.00,0.0009
3756.00,0.0009
3755.00,0.0009
3754.00,0.0009
3753.00,0.0009
3752.00,0.0009
3751.00,0.0008
3750.00,0.0007
3749.00,0.0008
3748.00,0.0008
3747.00,0.0008
3746.00,0.0008
3745.00,0.0007
3744.00,0.0007
3743.00,0.0008
3742.00,0.0008
3741.00,0.0007
3740.00,0.0006
3739.00,0.0006
3738.00,0.0006
3737.00,0.0006
3736.00,0.0006
3735.00,0.0007
3734.00,0.0007
3733.00,0.0006
3732.00,0.0006
3731.00,0.0006
3730.00,0.0006
3729.00,0.0005
3728.00,0.0005
3727.00,0.0004
3726.00,0.0004
3725.00,0.0005
3724.00,0.0005
3723.00,0.0005
3722.00,0.0005
3721.00,0.0005
3720.00,0.0005
3719.00,0.0005
3718.00,0.0005
3717.00,0.0005
3716.00,0.0005
3715.00,0.0005
3714.00,0.0005
3713.00,0.0006
3712.00,0.0006
3711.00,0.0007
3710.00,0.0007
3709.00,0.0007
3708.00,0.0006
3707.00,0.0006
3706.00,0.0006
3705.00,0.0006
3704.00,0.0006
3703.00,0.0006
3702.00,0.0005
3701.00,0.0005
3700.00,0.0006
3699.00,0.0006
3698.00,0.0006
3697.00,0.0006
3696.00,0.0006
3695.00,0.0006
3694.00,0.0006
3693.00,0.0005
3692.00,0.0005
3691.00,0.0005
3690.00,0.0005
3689.00,0.0006
3688.00,0.0006
3687.00,0.0006
3686.00,0.0006
3685.00,0.0006
3684.00,0.0006
3683.00,0.0005
3682.00,0.0005
3681.00,0.0006
3680.00,0.0006
3679.00,0.0008
3678.00,0.0009
3677.00,0.0009
3676.00,0.0008
3675.00,0.0008
3674.00,0.0007
3673.00,0.0007
3672.00,0.0005
3671.00,0.0004
3670.00,0.0003
3669.00,0.0003
3668.00,0.0004
3667.00,0.0004
3666.00,0.0004
3665.00,0.0004
3664.00,0.0004
3663.00,0.0004
3662.00,0.0004
3661.00,0.0005
3660.00,0.0005
3659.00,0.0005
3658.00,0.0005
3657.00,0.0005
3656.00,0.0005
3655.00,0.0005
3654.00,0.0005
3653.00,0.0005
3652.00,0.0005
3651.00,0.0005
3650.00,0.0005
3649.00,0.0005
3648.00,0.0005
3647.00,0.0005
3646.00,0.0005
3645.00,0.0005
3644.00,0.0005
3643.00,0.0005
3642.00,0.0005
3641.00,0.0005
3640.00,0.0005
3639.00,0.0005
3638.00,0.0005
3637.00,0.0006
3636.00,0.0006
3635.00,0.0006
3634.00,0.0006
3633.00,0.0007
3632.00,0.0007
3631.00,0.0008
3630.00,0.0008
3629.00,0.0008
3628.00,0.0008
3627.00,0.0009
3626.00,0.0009
3625.00,0.0008
3624.00,0.0008
3623.00,0.0008
3622.00,0.0008
3621.00,0.0008
3620.00,0.0008
3619.00,0.0008
3618.00,0.0008
3617.00,0.0008
3616.00,0.0008
3615.00,0.0008
3614.00,0.0008
3613.00,0.0008
3612.00,0.0008
3611.00,0.0009
3610.00,0.0009
3609.00,0.0009
3608.00,0.0009
3607.00,0.0009
3606.00,0.0010
3605.00,0.0010
3604.00,0.0010
3603.00,0.0009
3602.00,0.0009
3601.00,0.0009
3600.00,0.0010
3599.00,0.0010
3598.00,0.0010
3597.00,0.0010
3596.00,0.0010
3595.00,0.0010
3594.00,0.0010
3593.00,0.0011
3592.00,0.0012
3591.00,0.0012
3590.00,0.0013
3589.00,0.0013
3588.00,0.0013
3587.00,0.0013
3586.00,0.0013
3585.00,0.0013
3584.00,0.0013
3583.00,0.0013
3582.00,0.0013
3581.00,0.0013
3580.00,0.0014
3579.00,0.0013
3578.00,0.0013
3577.00,0.0013
3576.00,0.0013
3575.00,0.0013
3574.00,0.0013
3573.00,0.0013
3572.00,0.0014
3571.00,0.0015
3570.00,0.0016
3569.00,0.0017
3568.00,0.0017
3567.00,0.0016
3566.00,0.0016
3565.00,0.0016
3564.00,0.0016
3563.00,0.0016
3562.00,0.0017
3561.00,0.0017
3560.00,0.0017
3559.00,0.0017
3558.00,0.0017
3557.00,0.0017
3556.00,0.0017
3555.00,0.0018
3554.00,0.0018
3553.00,0.0018
3552.00,0.0018
3551.00,0.0018
3550.00,0.0019
3549.00,0.0019
3548.00,0.0019
3547.00,0.0019
3546.00,0.0019
3545.00,0.0018
3544.00,0.0019
3543.00,0.0019
3542.00,0.0019
3541.00,0.0019
3540.00,0.0020
3539.00,0.0020
3538.00,0.0021
3537.00,0.0021
3536.00,0.0021
3535.00,0.0021
3534.00,0.0022
3533.00,0.0022
3532.00,0.0022
3531.00,0.0022
3530.00,0.0022
3529.00,0.0022
3528.00,0.0023
3527.00,0.0023
3526.00,0.0023
3525.00,0.0023
3524.00,0.0024
3523.00,0.0024
3522.00,0.0024
3521.00,0.0024
3520.00,0.0024
3519.00,0.0025
3518.00,0.0025
3517.00,0.0025
3516.00,0.0025
3515.00,0.0025
3514.00,0.0025
3513.00,0.0025
3512.00,0.0025
3511.00,0.0026
3510.00,0.0026
3509.00,0.0026
3508.00,0.0026
3507.00,0.0026
3506.00,0.0026
3505.00,0.0026
3504.00,0.0026
3503.00,0.0027
3502.00,0.0027
3501.00,0.0027
3500.00,0.0027
3499.00,0.0028
3498.00,0.0028
3497.00,0.0028
3496.00,0.0028
3495.00,0.0028
3494.00,0.0028
3493.00,0.0029
3492.00,0.0029
3491.00,0.0029
3490.00,0.0030
3489.00,0.0030
3488.00,0.0030
3487.00,0.0030
3486.00,0.0030
3485.00,0.0031
3484.00,0.0031
3483.00,0.0031
3482.00,0.0031
3481.00,0.0030
3480.00,0.0030
3479.00,0.0031
3478.00,0.0031
3477.00,0.0031
3476.00,0.0031
3475.00,0.0031
3474.00,0.0031
3473.00,0.0032
3472.00,0.0032
3471.00,0.0033
3470.00,0.0033
3469.00,0.0033
3468.00,0.0034
3467.00,0.0034
3466.00,0.0034
3465.00,0.0034
3464.00,0.0034
3463.00,0.0034
3462.00,0.0034
3461.00,0.0034
3460.00,0.0034
3459.00,0.0034
3458.00,0.0034
3457.00,0.0035
3456.00,0.0035
3455.00,0.0035
3454.00,0.0035
3453.00,0.0034
3452.00,0.0035
3451.00,0.0035
3450.00,0.0035
3449.00,0.0036
3448.00,0.0036
3447.00,0.0036
3446.00,0.0036
3445.00,0.0037
3444.00,0.0037
3443.00,0.0037
3442.00,0.0037
3441.00,0.0038
3440.00,0.0038
3439.00,0.0038
3438.00,0.0039
3437.00,0.0039
3436.00,0.0039
3435.00,0.0039
3434.00,0.0040
3433.00,0.0040
3432.00,0.0040
3431.00,0.0040
3430.00,0.0040
3429.00,0.0039
3428.00,0.0040
3427.00,0.0040
3426.00,0.0040
3425.00,0.0041
3424.00,0.0041
3423.00,0.0041
3422.00,0.0041
3421.00,0.0040
3420.00,0.0040
3419.00,0.0041
3418.00,0.0041
3417.00,0.0041
3416.00,0.0041
3415.00,0.0041
3414.00,0.0041
3413.00,0.0041
3412.00,0.0041
3411.00,0.0042
3410.00,0.0042
3409.00,0.0042
3408.00,0.0042
3407.00,0.0042
3406.00,0.0042
3405.00,0.0042
3404.00,0.0042
3403.00,0.0042
3402.00,0.0042
3401.00,0.0042
3400.00,0.0042
3399.00,0.0041
3398.00,0.0041
3397.00,0.0041
3396.00,0.0041
3395.00,0.0042
3394.00,0.0042
3393.00,0.0042
3392.00,0.0042
3391.00,0.0042
3390.00,0.0042
3389.00,0.0042
3388.00,0.0042
3387.00,0.0042
3386.00,0.0042
3385.00,0.0042
3384.00,0.0042
3383.00,0.0042
3382.00,0.0043
3381.00,0.0043
3380.00,0.0043
3379.00,0.0043
3378.00,0.0043
3377.00,0.0042
3376.00,0.0042
3375.00,0.0042
3374.00,0.0042
3373.00,0.0043
3372.00,0.0043
3371.00,0.0043
3370.00,0.0043
3369.00,0.0043
3368.00,0.0043
3367.00,0.0043
3366.00,0.0043
3365.00,0.0043
3364.00,0.0043
3363.00,0.0043
3362.00,0.0042
3361.00,0.0042
3360.00,0.0042
3359.00,0.0042
3358.00,0.0043
3357.00,0.0043
3356.00,0.0044
3355.00,0.0044
3354.00,0.0044
3353.00,0.0044
3352.00,0.0044
3351.00,0.0044
3350.00,0.0044
3349.00,0.0044
3348.00,0.0044
3347.00,0.0044
3346.00,0.0044
3345.00,0.0044
3344.00,0.0043
3343.00,0.0043
3342.00,0.0043
3341.00,0.0043
3340.00,0.0043
3339.00,0.0043
3338.00,0.0043
3337.00,0.0043
3336.00,0.0043
3335.00,0.0043
3334.00,0.0043
3333.00,0.0043
3332.00,0.0042
3331.00,0.0042
3330.00,0.0042
3329.00,0.0041
3328.00,0.0041
3327.00,0.0041
3326.00,0.0041
3325.00,0.0041
3324.00,0.0041
3323.00,0.0041
3322.00,0.0041
3321.00,0.0041
3320.00,0.0041
3319.00,0.0041
3318.00,0.0041
3317.00,0.0040
3316.00,0.0040
3315.00,0.0040
3314.00,0.0040
3313.00,0.0040
3312.00,0.0041
3311.00,0.0041
3310.00,0.0041
3309.00,0.0041
3308.00,0.0041
3307.00,0.0041
3306.00,0.0041
3305.00,0.0041
3304.00,0.0041
3303.00,0.0041
3302.00,0.0041
3301.00,0.0041
3300.00,0.0041
3299.00,0.0041
3298.00,0.0041
3297.00,0.0040
3296.00,0.0040
3295.00,0.0039
3294.00,0.0039
3293.00,0.0039
3292.00,0.0039
3291.00,0.0038
3290.00,0.0038
3289.00,0.0037
3288.00,0.0037
3287.00,0.0037
3286.00,0.0038
3285.00,0.0038
3284.00,0.0038
3283.00,0.0038
3282.00,0.0037
3281.00,0.0037
3280.00,0.0037
3279.00,0.0038
3278.00,0.0038
3277.00,0.0038
3276.00,0.0038
3275.00,0.0038
3274.00,0.0037
3273.00,0.0037
3272.00,0.0037
3271.00,0.0037
3270.00,0.0037
3269.00,0.0037
3268.00,0.0037
3267.00,0.0037
3266.00,0.0037
3265.00,0.0037
3264.00,0.0036
3263.00,0.0036
3262.00,0.0035
3261.00,0.0034
3260.00,0.0034
3259.00,0.0034
3258.00,0.0035
3257.00,0.0035
3256.00,0.0034
3255.00,0.0034
3254.00,0.0034
3253.00,0.0034
3252.00,0.0033
3251.00,0.0033
3250.00,0.0033
3249.00,0.0033
3248.00,0.0033
3247.00,0.0033
3246.00,0.0033
3245.00,0.0033
3244.00,0.0033
3243.00,0.0033
3242.00,0.0033
3241.00,0.0033
3240.00,0.0033
3239.00,0.0033
3238.00,0.0033
3237.00,0.0033
3236.00,0.0033
3235.00,0.0033
3234.00,0.0033
3233.00,0.0033
3232.00,0.0033
3231.00,0.0033
3230.00,0.0033
3229.00,0.0033
3228.00,0.0033
3227.00,0.0034
3226.00,0.0034
3225.00,0.0034
3224.00,0.0034
3223.00,0.0034
3222.00,0.0035
3221.00,0.0035
3220.00,0.0036
3219.00,0.0036
3218.00,0.0036
3217.00,0.0036
3216.00,0.0036
3215.00,0.0036
3214.00,0.0035
3213.00,0.0035
3212.00,0.0036
3211.00,0.0036
3210.00,0.0036
3209.00,0.0036
3208.00,0.0036
3207.00,0.0036
3206.00,0.0036
3205.00,0.0036
3204.00,0.0035
3203.00,0.0035
3202.00,0.0035
3201.00,0.0035
3200.00,0.0036
3199.00,0.0036
3198.00,0.0036
3197.00,0.0036
3196.00,0.0036
3195.00,0.0035
3194.00,0.0035
3193.00,0.0035
3192.00,0.0034
3191.00,0.0035
3190.00,0.0035
3189.00,0.0034
3188.00,0.0034
3187.00,0.0035
3186.00,0.0035
3185.00,0.0035
3184.00,0.0035
3183.00,0.0035
3182.00,0.0035
3181.00,0.0034
3180.00,0.0034
3179.00,0.0033
3178.00,0.0033
3177.00,0.0033
3176.00,0.0033
3175.00,0.0033
3174.00,0.0033
3173.00,0.0033
3172.00,0.0033
3171.00,0.0033
3170.00,0.0033
3169.00,0.0033
3168.00,0.0033
3167.00,0.0033
3166.00,0.0032
3165.00,0.0032
3164.00,0.0032
3163.00,0.0032
3162.00,0.0032
3161.00,0.0032
3160.00,0.0032
3159.00,0.0033
3158.00,0.0033
3157.00,0.0033
3156.00,0.0032
3155.00,0.0032
3154.00,0.0032
3153.00,0.0032
3152.00,0.0033
3151.00,0.0033
3150.00,0.0033
3149.00,0.0033
3148.00,0.0032
3147.00,0.0032
3146.00,0.0032
3145.00,0.0032
3144.00,0.0031
3143.00,0.0031
3142.00,0.0032
3141.00,0.0032
3140.00,0.0032
3139.00,0.0032
3138.00,0.0032
3137.00,0.0032
3136.00,0.0032
3135.00,0.0032
3134.00,0.0031
3133.00,0.0031
3132.00,0.0031
3131.00,0.0031
3130.00,0.0030
3129.00,0.0030
3128.00,0.0030
3127.00,0.0029
3126.00,0.0028
3125.00,0.0028
3124.00,0.0028
3123.00,0.0028
3122.00,0.0028
3121.00,0.0028
3120.00,0.0028
3119.00,0.0028
3118.00,0.0028
3117.00,0.0028
3116.00,0.0027
3115.00,0.0027
3114.00,0.0026
3113.00,0.0026
3112.00,0.0026
3111.00,0.0026
3110.00,0.0026
3109.00,0.0027
3108.00,0.0027
3107.00,0.0027
3106.00,0.0027
3105.00,0.0027
3104.00,0.0026
3103.00,0.0026
3102.00,0.0025
3101.00,0.0025
3100.00,0.0025
3099.00,0.0025
3098.00,0.0025
3097.00,0.0026
3096.00,0.0026
3095.00,0.0026
3094.00,0.0025
3093.00,0.0025
3092.00,0.0025
3091.00,0.0025
3090.00,0.0025
3089.00,0.0026
3088.00,0.0026
3087.00,0.0026
3086.00,0.0026
3085.00,0.0026
3084.00,0.0026
3083.00,0.0026
3082.00,0.0026
3081.00,0.0026
3080.00,0.0026
3079.00,0.0026
3078.00,0.0026
3077.00,0.0026
3076.00,0.0026
3075.00,0.0026
3074.00,0.0026
3073.00,0.0026
3072.00,0.0027
3071.00,0.0027
3070.00,0.0027
3069.00,0.0028
3068.00,0.0028
3067.00,0.0028
3066.00,0.0028
3065.00,0.0028
3064.00,0.0029
3063.00,0.0029
3062.00,0.0030
3061.00,0.0030
3060.00,0.0030
3059.00,0.0030
3058.00,0.0030
3057.00,0.0030
3056.00,0.0030
3055.00,0.0030
3054.00,0.0030
3053.00,0.0030
3052.00,0.0030
3051.00,0.0030
3050.00,0.0030
3049.00,0.0031
3048.00,0.0031
3047.00,0.0031
3046.00,0.0031
3045.00,0.0031
3044.00,0.0032
3043.00,0.0032
3042.00,0.0032
3041.00,0.0033
3040.00,0.0033
3039.00,0.0034
3038.00,0.0034
3037.00,0.0035
3036.00,0.0035
3035.00,0.0036
3034.00,0.0036
3033.00,0.0036
3032.00,0.0037
3031.00,0.0037
3030.00,0.0037
3029.00,0.0037
3028.00,0.0037
3027.00,0.0038
3026.00,0.0039
3025.00,0.0039
3024.00,0.0039
3023.00,0.0040
3022.00,0.0040
3021.00,0.0041
3020.00,0.0041
3019.00,0.0042
3018.00,0.0043
3017.00,0.0044
3016.00,0.0045
3015.00,0.0046
3014.00,0.0047
3013.00,0.0048
3012.00,0.0048
3011.00,0.0049
3010.00,0.0049
3009.00,0.0049
3008.00,0.0050
3007.00,0.0051
3006.00,0.0052
3005.00,0.0053
3004.00,0.0055
3003.00,0.0057
3002.00,0.0058
3001.00,0.0060
3000.00,0.0062
2999.00,0.0065
2998.00,0.0067
2997.00,0.0070
2996.00,0.0072
2995.00,0.0075
2994.00,0.0079
2993.00,0.0083
2992.00,0.0088
2991.00,0.0093
2990.00,0.0098
2989.00,0.0104
2988.00,0.0111
2987.00,0.0118
2986.00,0.0126
2985.00,0.0134
2984.00,0.0143
2983.00,0.0154
2982.00,0.0167
2981.00,0.0182
2980.00,0.0201
2979.00,0.0222
2978.00,0.0245
2977.00,0.0272
2976.00,0.0302
2975.00,0.0336
2974.00,0.0374
2973.00,0.0417
2972.00,0.0466
2971.00,0.0522
2970.00,0.0584
2969.00,0.0651
2968.00,0.0724
2967.00,0.0800
2966.00,0.0880
2965.00,0.0959
2964.00,0.1035
2963.00,0.1106
2962.00,0.1168
2961.00,0.1221
2960.00,0.1267
2959.00,0.1308
2958.00,0.1350
2957.00,0.1397
2956.00,0.1453
2955.00,0.1519
2954.00,0.1594
2953.00,0.1671
2952.00,0.1741
2951.00,0.1794
2950.00,0.1817
2949.00,0.1802
2948.00,0.1748
2947.00,0.1658
2946.00,0.1545
2945.00,0.1424
2944.00,0.1307
2943.00,0.1207
2942.00,0.1129
2941.00,0.1076
2940.00,0.1047
2939.00,0.1041
2938.00,0.1054
2937.00,0.1085
2936.00,0.1132
2935.00,0.1194
2934.00,0.1269
2933.00,0.1357
2932.00,0.1455
2931.00,0.1562
2930.00,0.1676
2929.00,0.1793
2928.00,0.1911
2927.00,0.2027
2926.00,0.2140
2925.00,0.2249
2924.00,0.2355
2923.00,0.2462
2922.00,0.2567
2921.00,0.2670
2920.00,0.2763
2919.00,0.2835
2918.00,0.2876
2917.00,0.2875
2916.00,0.2831
2915.00,0.2748
2914.00,0.2639
2913.00,0.2517
2912.00,0.2394
2911.00,0.2278
2910.00,0.2173
2909.00,0.2079
2908.00,0.1993
2907.00,0.1914
2906.00,0.1838
2905.00,0.1764
2904.00,0.1692
2903.00,0.1621
2902.00,0.1551
2901.00,0.1485
2900.00,0.1421
2899.00,0.1362
2898.00,0.1306
2897.00,0.1255
2896.00,0.1209
2895.00,0.1169
2894.00,0.1135
2893.00,0.1107
2892.00,0.1085
2891.00,0.1068
2890.00,0.1057
2889.00,0.1050
2888.00,0.1047
2887.00,0.1047
2886.00,0.1051
2885.00,0.1058
2884.00,0.1071
2883.00,0.1089
2882.00,0.1113
2881.00,0.1140
2880.00,0.1167
2879.00,0.1191
2878.00,0.1207
2877.00,0.1215
2876.00,0.1213
2875.00,0.1206
2874.00,0.1200
2873.00,0.1198
2872.00,0.1203
2871.00,0.1215
2870.00,0.1233
2869.00,0.1251
2868.00,0.1264
2867.00,0.1262
2866.00,0.1239
2865.00,0.1194
2864.00,0.1130
2863.00,0.1055
2862.00,0.0980
2861.00,0.0914
2860.00,0.0863
2859.00,0.0828
2858.00,0.0809
2857.00,0.0802
2856.00,0.0806
2855.00,0.0818
2854.00,0.0836
2853.00,0.0857
2852.00,0.0877
2851.00,0.0894
2850.00,0.0904
2849.00,0.0909
2848.00,0.0911
2847.00,0.0916
2846.00,0.0929
2845.00,0.0953
2844.00,0.0989
2843.00,0.1034
2842.00,0.1084
2841.00,0.1133
2840.00,0.1173
2839.00,0.1195
2838.00,0.1193
2837.00,0.1162
2836.00,0.1101
2835.00,0.1016
2834.00,0.0916
2833.00,0.0810
2832.00,0.0709
2831.00,0.0619
2830.00,0.0543
2829.00,0.0480
2828.00,0.0429
2827.00,0.0388
2826.00,0.0355
2825.00,0.0327
2824.00,0.0305
2823.00,0.0285
2822.00,0.0269
2821.00,0.0254
2820.00,0.0241
2819.00,0.0231
2818.00,0.0221
2817.00,0.0213
2816.00,0.0206
2815.00,0.0199
2814.00,0.0193
2813.00,0.0188
2812.00,0.0182
2811.00,0.0176
2810.00,0.0171
2809.00,0.0165
2808.00,0.0159
2807.00,0.0153
2806.00,0.0147
2805.00,0.0140
2804.00,0.0134
2803.00,0.0128
2802.00,0.0123
2801.00,0.0118
2800.00,0.0114
2799.00,0.0111
2798.00,0.0108
2797.00,0.0105
2796.00,0.0103
2795.00,0.0101
2794.00,0.0098
2793.00,0.0096
2792.00,0.0093
2791.00,0.0090
2790.00,0.0087
2789.00,0.0084
2788.00,0.0081
2787.00,0.0079
2786.00,0.0076
2785.00,0.0074
2784.00,0.0071
2783.00,0.0069
2782.00,0.0068
2781.00,0.0066
2780.00,0.0064
2779.00,0.0063
2778.00,0.0061
2777.00,0.0060
2776.00,0.0059
2775.00,0.0058
2774.00,0.0057
2773.00,0.0056
2772.00,0.0056
2771.00,0.0055
2770.00,0.0055
2769.00,0.0055
2768.00,0.0055
2767.00,0.0054
2766.00,0.0054
2765.00,0.0054
2764.00,0.0053
2763.00,0.0053
2762.00,0.0052
2761.00,0.0052
2760.00,0.0051
2759.00,0.0051
2758.00,0.0050
2757.00,0.0050
2756.00,0.0050
2755.00,0.0050
2754.00,0.0050
2753.00,0.0050
2752.00,0.0050
2751.00,0.0050
2750.00,0.0050
2749.00,0.0050
2748.00,0.0050
2747.00,0.0050
2746.00,0.0051
2745.00,0.0051
2744.00,0.0052
2743.00,0.0052
2742.00,0.0053
2741.00,0.0054
2740.00,0.0055
2739.00,0.0057
2738.00,0.0058
2737.00,0.0059
2736.00,0.0061
2735.00,0.0062
2734.00,0.0063
2733.00,0.0065
2732.00,0.0066
2731.00,0.0068
2730.00,0.0070
2729.00,0.0073
2728.00,0.0076
2727.00,0.0079
2726.00,0.0082
2725.00,0.0085
2724.00,0.0086
2723.00,0.0087
2722.00,0.0086
2721.00,0.0084
2720.00,0.0082
2719.00,0.0078
2718.00,0.0075
2717.00,0.0072
2716.00,0.0069
2715.00,0.0066
2714.00,0.0064
2713.00,0.0062
2712.00,0.0059
2711.00,0.0057
2710.00,0.0056
2709.00,0.0054
2708.00,0.0052
2707.00,0.0051
2706.00,0.0050
2705.00,0.0049
2704.00,0.0048
2703.00,0.0047
2702.00,0.0046
2701.00,0.0045
2700.00,0.0045
2699.00,0.0044
2698.00,0.0044
2697.00,0.0043
2696.00,0.0043
2695.00,0.0043
2694.00,0.0044
2693.00,0.0044
2692.00,0.0044
2691.00,0.0044
2690.00,0.0044
2689.00,0.0044
2688.00,0.0044
2687.00,0.0043
2686.00,0.0043
2685.00,0.0043
2684.00,0.0043
2683.00,0.0043
2682.00,0.0043
2681.00,0.0043
2680.00,0.0043
2679.00,0.0043
2678.00,0.0044
2677.00,0.0044
2676.00,0.0044
2675.00,0.0044
2674.00,0.0044
2673.00,0.0043
2672.00,0.0043
2671.00,0.0043
2670.00,0.0043
2669.00,0.0043
2668.00,0.0043
2667.00,0.0043
2666.00,0.0044
2665.00,0.0045
2664.00,0.0045
2663.00,0.0046
2662.00,0.0047
2661.00,0.0047
2660.00,0.0047
2659.00,0.0047
2658.00,0.0047
2657.00,0.0047
2656.00,0.0047
2655.00,0.0046
2654.00,0.0045
2653.00,0.0045
2652.00,0.0044
2651.00,0.0044
2650.00,0.0043
2649.00,0.0043
2648.00,0.0043
2647.00,0.0042
2646.00,0.0042
2645.00,0.0041
2644.00,0.0041
2643.00,0.0040
2642.00,0.0040
2641.00,0.0039
2640.00,0.0039
2639.00,0.0038
2638.00,0.0037
2637.00,0.0037
2636.00,0.0038
2635.00,0.0038
2634.00,0.0039
2633.00,0.0039
2632.00,0.0039
2631.00,0.0039
2630.00,0.0039
2629.00,0.0039
2628.00,0.0039
2627.00,0.0039
2626.00,0.0039
2625.00,0.0039
2624.00,0.0039
2623.00,0.0040
2622.00,0.0040
2621.00,0.0040
2620.00,0.0040
2619.00,0.0040
2618.00,0.0041
2617.00,0.0041
2616.00,0.0041
2615.00,0.0040
2614.00,0.0040
2613.00,0.0040
2612.00,0.0039
2611.00,0.0038
2610.00,0.0038
2609.00,0.0037
2608.00,0.0036
2607.00,0.0035
2606.00,0.0034
2605.00,0.0033
2604.00,0.0032
2603.00,0.0032
2602.00,0.0032
2601.00,0.0032
2600.00,0.0032
2599.00,0.0032
2598.00,0.0031
2597.00,0.0031
2596.00,0.0030
2595.00,0.0031
2594.00,0.0031
2593.00,0.0032
2592.00,0.0034
2591.00,0.0035
2590.00,0.0035
2589.00,0.0036
2588.00,0.0036
2587.00,0.0037
2586.00,0.0038
2585.00,0.0039
2584.00,0.0039
2583.00,0.0039
2582.00,0.0039
2581.00,0.0038
2580.00,0.0037
2579.00,0.0036
2578.00,0.0035
2577.00,0.0034
2576.00,0.0034
2575.00,0.0033
2574.00,0.0032
2573.00,0.0031
2572.00,0.0030
2571.00,0.0028
2570.00,0.0027
2569.00,0.0027
2568.00,0.0026
2567.00,0.0026
2566.00,0.0025
2565.00,0.0025
2564.00,0.0024
2563.00,0.0023
2562.00,0.0023
2561.00,0.0023
2560.00,0.0023
2559.00,0.0022
2558.00,0.0021
2557.00,0.0021
2556.00,0.0021
2555.00,0.0020
2554.00,0.0020
2553.00,0.0020
2552.00,0.0020
2551.00,0.0020
2550.00,0.0020
2549.00,0.0019
2548.00,0.0019
2547.00,0.0018
2546.00,0.0018
2545.00,0.0018
2544.00,0.0018
2543.00,0.0017
2542.00,0.0017
2541.00,0.0017
2540.00,0.0016
2539.00,0.0016
2538.00,0.0016
2537.00,0.0016
2536.00,0.0016
2535.00,0.0017
2534.00,0.0017
2533.00,0.0017
2532.00,0.0016
2531.00,0.0016
2530.00,0.0015
2529.00,0.0014
2528.00,0.0014
2527.00,0.0013
2526.00,0.0013
2525.00,0.0013
2524.00,0.0014
2523.00,0.0014
2522.00,0.0013
2521.00,0.0013
2520.00,0.0013
2519.00,0.0012
2518.00,0.0012
2517.00,0.0011
2516.00,0.0011
2515.00,0.0011
2514.00,0.0010
2513.00,0.0010
2512.00,0.0010
2511.00,0.0010
2510.00,0.0010
2509.00,0.0011
2508.00,0.0011
2507.00,0.0011
2506.00,0.0010
2505.00,0.0010
2504.00,0.0010
2503.00,0.0009
2502.00,0.0009
2501.00,0.0009
2500.00,0.0010
2499.00,0.0010
2498.00,0.0011
2497.00,0.0011
2496.00,0.0011
2495.00,0.0011
2494.00,0.0011
2493.00,0.0011
2492.00,0.0010
2491.00,0.0010
2490.00,0.0010
2489.00,0.0010
2488.00,0.0010
2487.00,0.0010
2486.00,0.0010
2485.00,0.0010
2484.00,0.0010
2483.00,0.0011
2482.00,0.0011
2481.00,0.0011
2480.00,0.0011
2479.00,0.0011
2478.00,0.0011
2477.00,0.0011
2476.00,0.0011
2475.00,0.0011
2474.00,0.0010
2473.00,0.0010
2472.00,0.0010
2471.00,0.0010
2470.00,0.0010
2469.00,0.0009
2468.00,0.0009
2467.00,0.0010
2466.00,0.0010
2465.00,0.0010
2464.00,0.0010
2463.00,0.0010
2462.00,0.0010
2461.00,0.0010
2460.00,0.0010
2459.00,0.0010
2458.00,0.0010
2457.00,0.0010
2456.00,0.0010
2455.00,0.0011
2454.00,0.0011
2453.00,0.0010
2452.00,0.0010
2451.00,0.0010
2450.00,0.0010
2449.00,0.0011
2448.00,0.0012
2447.00,0.0012
2446.00,0.0012
2445.00,0.0011
2444.00,0.0010
2443.00,0.0009
2442.00,0.0009
2441.00,0.0009
2440.00,0.0010
2439.00,0.0010
2438.00,0.0010
2437.00,0.0010
2436.00,0.0010
2435.00,0.0010
2434.00,0.0010
2433.00,0.0010
2432.00,0.0011
2431.00,0.0011
2430.00,0.0011
2429.00,0.0011
2428.00,0.0011
2427.00,0.0011
2426.00,0.0011
2425.00,0.0011
2424.00,0.0011
2423.00,0.0011
2422.00,0.0010
2421.00,0.0009
2420.00,0.0009
2419.00,0.0009
2418.00,0.0009
2417.00,0.0009
2416.00,0.0010
2415.00,0.0010
2414.00,0.0010
2413.00,0.0010
2412.00,0.0011
2411.00,0.0011
2410.00,0.0011
2409.00,0.0011
2408.00,0.0011
2407.00,0.0010
2406.00,0.0009
2405.00,0.0009
2404.00,0.0008
2403.00,0.0008
2402.00,0.0008
2401.00,0.0008
2400.00,0.0008
2399.00,0.0008
2398.00,0.0008
2397.00,0.0008
2396.00,0.0009
2395.00,0.0009
2394.00,0.0008
2393.00,0.0008
2392.00,0.0007
2391.00,0.0007
2390.00,0.0007
2389.00,0.0007
2388.00,0.0007
2387.00,0.0007
2386.00,0.0006
2385.00,0.0006
2384.00,0.0005
2383.00,0.0004
2382.00,0.0003
2381.00,0.0002
2380.00,0.0002
2379.00,0.0002
2378.00,0.0003
2377.00,0.0003
2376.00,0.0003
2375.00,0.0003
2374.00,0.0003
2373.00,0.0003
2372.00,0.0003
2371.00,0.0003
2370.00,0.0002
2369.00,0.0002
2368.00,0.0001
2367.00,0.0001
2366.00,0.0001
2365.00,0.0001
2364.00,0.0002
2363.00,0.0003
2362.00,0.0003
2361.00,0.0003
2360.00,0.0003
2359.00,0.0002
2358.00,0.0002
2357.00,0.0001
2356.00,0.0001
2355.00,0.0002
2354.00,0.0003
2353.00,0.0003
2352.00,0.0003
2351.00,0.0003
2350.00,0.0003
2349.00,0.0003
2348.00,0.0004
2347.00,0.0004
2346.00,0.0005
2345.00,0.0005
2344.00,0.0004
2343.00,0.0004
2342.00,0.0004
2341.00,0.0004
2340.00,0.0005
2339.00,0.0006
2338.00,0.0007
2337.00,0.0007
2336.00,0.0007
2335.00,0.0006
2334.00,0.0006
2333.00,0.0007
2332.00,0.0007
2331.00,0.0007
2330.00,0.0007
2329.00,0.0008
2328.00,0.0009
2327.00,0.0012
2326.00,0.0016
2325.00,0.0019
2324.00,0.0021
2323.00,0.0020
2322.00,0.0018
2321.00,0.0016
2320.00,0.0015
2319.00,0.0014
2318.00,0.0014
2317.00,0.0014
2316.00,0.0013
2315.00,0.0013
2314.00,0.0012
2313.00,0.0011
2312.00,0.0010
2311.00,0.0009
2310.00,0.0008
2309.00,0.0008
2308.00,0.0008
2307.00,0.0008
2306.00,0.0008
2305.00,0.0009
2304.00,0.0009
2303.00,0.0009
2302.00,0.0010
2301.00,0.0010
2300.00,0.0010
2299.00,0.0010
2298.00,0.0010
2297.00,0.0011
2296.00,0.0012
2295.00,0.0013
2294.00,0.0015
2293.00,0.0016
2292.00,0.0016
2291.00,0.0017
2290.00,0.0017
2289.00,0.0018
2288.00,0.0019
2287.00,0.0019
2286.00,0.0020
2285.00,0.0019
2284.00,0.0019
2283.00,0.0018
2282.00,0.0018
2281.00,0.0016
2280.00,0.0015
2279.00,0.0014
2278.00,0.0013
2277.00,0.0013
2276.00,0.0013
2275.00,0.0013
2274.00,0.0013
2273.00,0.0012
2272.00,0.0012
2271.00,0.0012
2270.00,0.0012
2269.00,0.0012
2268.00,0.0013
2267.00,0.0012
2266.00,0.0011
2265.00,0.0011
2264.00,0.0012
2263.00,0.0012
2262.00,0.0013
2261.00,0.0013
2260.00,0.0012
2259.00,0.0011
2258.00,0.0011
2257.00,0.0010
2256.00,0.0010
2255.00,0.0011
2254.00,0.0011
2253.00,0.0011
2252.00,0.0010
2251.00,0.0009
2250.00,0.0009
2249.00,0.0009
2248.00,0.0010
2247.00,0.0010
2246.00,0.0010
2245.00,0.0010
2244.00,0.0009
2243.00,0.0009
2242.00,0.0009
2241.00,0.0010
2240.00,0.0011
2239.00,0.0011
2238.00,0.0011
2237.00,0.0011
2236.00,0.0011
2235.00,0.0011
2234.00,0.0010
2233.00,0.0011
2232.00,0.0013
2231.00,0.0015
2230.00,0.0016
2229.00,0.0016
2228.00,0.0014
2227.00,0.0011
2226.00,0.0009
2225.00,0.0008
2224.00,0.0008
2223.00,0.0007
2222.00,0.0005
2221.00,0.0004
2220.00,0.0004
2219.00,0.0004
2218.00,0.0005
2217.00,0.0006
2216.00,0.0006
2215.00,0.0005
2214.00,0.0005
2213.00,0.0005
2212.00,0.0005
2211.00,0.0007
2210.00,0.0009
2209.00,0.0011
2208.00,0.0011
2207.00,0.0011
2206.00,0.0010
2205.00,0.0011
2204.00,0.0011
2203.00,0.0012
2202.00,0.0013
2201.00,0.0014
2200.00,0.0013
2199.00,0.0012
2198.00,0.0010
2197.00,0.0008
2196.00,0.0008
2195.00,0.0007
2194.00,0.0006
2193.00,0.0005
2192.00,0.0005
2191.00,0.0005
2190.00,0.0006
2189.00,0.0007
2188.00,0.0008
2187.00,0.0008
2186.00,0.0010
2185.00,0.0012
2184.00,0.0013
2183.00,0.0011
2182.00,0.0008
2181.00,0.0006
2180.00,0.0006
2179.00,0.0008
2178.00,0.0009
2177.00,0.0008
2176.00,0.0006
2175.00,0.0003
2174.00,0.0002
2173.00,0.0004
2172.00,0.0008
2171.00,0.0012
2170.00,0.0015
2169.00,0.0015
2168.00,0.0015
2167.00,0.0014
2166.00,0.0014
2165.00,0.0017
2164.00,0.0021
2163.00,0.0025
2162.00,0.0027
2161.00,0.0022
2160.00,0.0010
2159.00,-0.0008
2158.00,-0.0024
2157.00,-0.0032
2156.00,-0.0031
2155.00,-0.0026
2154.00,-0.0022
2153.00,-0.0020
2152.00,-0.0019
2151.00,-0.0018
2150.00,-0.0016
2149.00,-0.0014
2148.00,-0.0012
2147.00,-0.0012
2146.00,-0.0011
2145.00,-0.0010
2144.00,-0.0010
2143.00,-0.0011
2142.00,-0.0014
2141.00,-0.0015
2140.00,-0.0013
2139.00,-0.0011
2138.00,-0.0010
2137.00,-0.0010
2136.00,-0.0012
2135.00,-0.0014
2134.00,-0.0017
2133.00,-0.0018
2132.00,-0.0017
2131.00,-0.0014
2130.00,-0.0011
2129.00,-0.0009
2128.00,-0.0008
2127.00,-0.0007
2126.00,-0.0006
2125.00,-0.0005
2124.00,-0.0004
2123.00,-0.0003
2122.00,-0.0004
2121.00,-0.0005
2120.00,-0.0006
2119.00,-0.0005
2118.00,-0.0004
2117.00,-0.0002
2116.00,-0.0000
2115.00,0.0002
2114.00,0.0003
2113.00,0.0005
2112.00,0.0005
2111.00,0.0005
2110.00,0.0004
2109.00,0.0004
2108.00,0.0003
2107.00,0.0002
2106.00,0.0001
2105.00,0.0000
2104.00,0.0000
2103.00,0.0000
2102.00,0.0001
2101.00,0.0002
2100.00,0.0004
2099.00,0.0005
2098.00,0.0005
2097.00,0.0002
2096.00,-0.0001
2095.00,-0.0004
2094.00,-0.0005
2093.00,-0.0005
2092.00,-0.0004
2091.00,-0.0003
2090.00,-0.0002
2089.00,-0.0002
2088.00,-0.0002
2087.00,-0.0002
2086.00,-0.0002
2085.00,-0.0002
2084.00,-0.0001
2083.00,0.0000
2082.00,0.0002
2081.00,0.0003
2080.00,0.0004
2079.00,0.0005
2078.00,0.0006
2077.00,0.0006
2076.00,0.0006
2075.00,0.0005
2074.00,0.0003
2073.00,0.0002
2072.00,0.0002
2071.00,0.0002
2070.00,0.0002
2069.00,0.0001
2068.00,-0.0000
2067.00,-0.0002
2066.00,-0.0004
2065.00,-0.0005
2064.00,-0.0004
2063.00,-0.0003
2062.00,-0.0001
2061.00,0.0000
2060.00,0.0001
2059.00,0.0001
2058.00,0.0001
2057.00,0.0001
2056.00,0.0001
2055.00,0.0001
2054.00,0.0002
2053.00,0.0006
2052.00,0.0012
2051.00,0.0015
2050.00,0.0014
2049.00,0.0009
2048.00,0.0004
2047.00,0.0001
2046.00,-0.0000
2045.00,-0.0000
2044.00,0.0000
2043.00,0.0001
2042.00,0.0002
2041.00,0.0003
2040.00,0.0002
2039.00,0.0000
2038.00,-0.0001
2037.00,-0.0001
2036.00,0.0001
2035.00,0.0001
2034.00,-0.0002
2033.00,-0.0006
2032.00,-0.0010
2031.00,-0.0012
2030.00,-0.0011
2029.00,-0.0009
2028.00,-0.0009
2027.00,-0.0010
2026.00,-0.0013
2025.00,-0.0014
2024.00,-0.0015
2023.00,-0.0016
2022.00,-0.0018
2021.00,-0.0020
2020.00,-0.0020
2019.00,-0.0019
2018.00,-0.0016
2017.00,-0.0014
2016.00,-0.0012
2015.00,-0.0011
2014.00,-0.0011
2013.00,-0.0010
2012.00,-0.0009
2011.00,-0.0008
2010.00,-0.0007
2009.00,-0.0008
2008.00,-0.0011
2007.00,-0.0014
2006.00,-0.0016
2005.00,-0.0016
2004.00,-0.0015
2003.00,-0.0014
2002.00,-0.0013
2001.00,-0.0012
2000.00,-0.0010
1999.00,-0.0008
1998.00,-0.0007
1997.00,-0.0007
1996.00,-0.0010
1995.00,-0.0013
1994.00,-0.0015
1993.00,-0.0014
1992.00,-0.0013
1991.00,-0.0011
1990.00,-0.0011
1989.00,-0.0010
1988.00,-0.0008
1987.00,-0.0006
1986.00,-0.0003
1985.00,0.0000
1984.00,0.0003
1983.00,0.0005
1982.00,0.0008
1981.00,0.0009
1980.00,0.0010
1979.00,0.0008
1978.00,0.0004
1977.00,-0.0001
1976.00,-0.0004
1975.00,-0.0006
1974.00,-0.0007
1973.00,-0.0009
1972.00,-0.0011
1971.00,-0.0013
1970.00,-0.0013
1969.00,-0.0012
1968.00,-0.0011
1967.00,-0.0012
1966.00,-0.0014
1965.00,-0.0015
1964.00,-0.0015
1963.00,-0.0015
1962.00,-0.0016
1961.00,-0.0017
1960.00,-0.0018
1959.00,-0.0018
1958.00,-0.0018
1957.00,-0.0017
1956.00,-0.0015
1955.00,-0.0014
1954.00,-0.0013
1953.00,-0.0013
1952.00,-0.0013
1951.00,-0.0014
1950.00,-0.0015
1949.00,-0.0015
1948.00,-0.0015
1947.00,-0.0015
1946.00,-0.0016
1945.00,-0.0017
1944.00,-0.0018
1943.00,-0.0018
1942.00,-0.0018
1941.00,-0.0016
1940.00,-0.0013
1939.00,-0.0011
1938.00,-0.0009
1937.00,-0.0006
1936.00,-0.0005
1935.00,-0.0004
1934.00,-0.0005
1933.00,-0.0006
1932.00,-0.0008
1931.00,-0.0008
1930.00,-0.0008
1929.00,-0.0008
1928.00,-0.0008
1927.00,-0.0009
1926.00,-0.0009
1925.00,-0.0009
1924.00,-0.0008
1923.00,-0.0007
1922.00,-0.0006
1921.00,-0.0005
1920.00,-0.0006
1919.00,-0.0006
1918.00,-0.0007
1917.00,-0.0005
1916.00,-0.0004
1915.00,-0.0002
1914.00,-0.0002
1913.00,-0.0002
1912.00,-0.0001
1911.00,-0.0001
1910.00,-0.0002
1909.00,-0.0002
1908.00,-0.0003
1907.00,-0.0003
1906.00,-0.0003
1905.00,-0.0003
1904.00,-0.0003
1903.00,-0.0002
1902.00,-0.0001
1901.00,-0.0000
1900.00,0.0000
1899.00,0.0000
1898.00,0.0000
1897.00,0.0000
1896.00,-0.0000
1895.00,-0.0000
1894.00,-0.0000
1893.00,-0.0001
1892.00,-0.0001
1891.00,-0.0001
1890.00,-0.0001
1889.00,-0.0001
1888.00,-0.0001
1887.00,-0.0002
1886.00,-0.0003
1885.00,-0.0004
1884.00,-0.0005
1883.00,-0.0005
1882.00,-0.0005
1881.00,-0.0004
1880.00,-0.0004
1879.00,-0.0003
1878.00,-0.0003
1877.00,-0.0003
1876.00,-0.0002
1875.00,-0.0002
1874.00,-0.0001
1873.00,-0.0001
1872.00,-0.0000
1871.00,0.0001
1870.00,0.0001
1869.00,0.0001
1868.00,0.0002
1867.00,0.0002
1866.00,0.0001
1865.00,0.0001
1864.00,0.0000
1863.00,-0.0001
1862.00,-0.0001
1861.00,-0.0000
1860.00,0.0001
1859.00,0.0002
1858.00,0.0002
1857.00,0.0002
1856.00,0.0001
1855.00,0.0001
1854.00,0.0001
1853.00,0.0002
1852.00,0.0002
1851.00,0.0001
1850.00,0.0001
1849.00,0.0001
1848.00,0.0001
1847.00,0.0001
1846.00,0.0002
1845.00,0.0002
1844.00,0.0002
1843.00,0.0002
1842.00,0.0002
1841.00,0.0001
1840.00,0.0001
1839.00,0.0001
1838.00,0.0000
1837.00,0.0001
1836.00,0.0001
1835.00,0.0002
1834.00,0.0003
1833.00,0.0003
1832.00,0.0003
1831.00,0.0002
1830.00,0.0002
1829.00,0.0003
1828.00,0.0004
1827.00,0.0004
1826.00,0.0004
1825.00,0.0005
1824.00,0.0005
1823.00,0.0004
1822.00,0.0004
1821.00,0.0003
1820.00,0.0002
1819.00,0.0001
1818.00,-0.0001
1817.00,-0.0001
1816.00,-0.0001
1815.00,0.0000
1814.00,0.0001
1813.00,0.0001
1812.00,0.0002
1811.00,0.0002
1810.00,0.0003
1809.00,0.0003
1808.00,0.0004
1807.00,0.0004
1806.00,0.0004
1805.00,0.0004
1804.00,0.0004
1803.00,0.0004
1802.00,0.0003
1801.00,0.0003
1800.00,0.0003
1799.00,0.0004
1798.00,0.0004
1797.00,0.0004
1796.00,0.0005
1795.00,0.0005
1794.00,0.0005
1793.00,0.0005
1792.00,0.0006
1791.00,0.0006
1790.00,0.0006
1789.00,0.0006
1788.00,0.0007
1787.00,0.0007
1786.00,0.0007
1785.00,0.0007
1784.00,0.0007
1783.00,0.0007
1782.00,0.0008
1781.00,0.0008
1780.00,0.0008
1779.00,0.0008
1778.00,0.0007
1777.00,0.0007
1776.00,0.0007
1775.00,0.0007
1774.00,0.0007
1773.00,0.0007
1772.00,0.0008
1771.00,0.0009
1770.00,0.0010
1769.00,0.0010
1768.00,0.0010
1767.00,0.0010
1766.00,0.0010
1765.00,0.0011
1764.00,0.0011
1763.00,0.0011
1762.00,0.0012
1761.00,0.0012
1760.00,0.0013
1759.00,0.0013
1758.00,0.0013
1757.00,0.0013
1756.00,0.0014
1755.00,0.0015
1754.00,0.0015
1753.00,0.0016
1752.00,0.0016
1751.00,0.0017
1750.00,0.0017
1749.00,0.0018
1748.00,0.0019
1747.00,0.0019
1746.00,0.0019
1745.00,0.0019
1744.00,0.0020
1743.00,0.0020
1742.00,0.0020
1741.00,0.0020
1740.00,0.0021
1739.00,0.0021
1738.00,0.0021
1737.00,0.0020
1736.00,0.0020
1735.00,0.0020
1734.00,0.0020
1733.00,0.0021
1732.00,0.0022
1731.00,0.0021
1730.00,0.0021
1729.00,0.0022
1728.00,0.0022
1727.00,0.0022
1726.00,0.0022
1725.00,0.0022
1724.00,0.0022
1723.00,0.0023
1722.00,0.0023
1721.00,0.0024
1720.00,0.0024
1719.00,0.0024
1718.00,0.0023
1717.00,0.0022
1716.00,0.0023
1715.00,0.0023
1714.00,0.0024
1713.00,0.0024
1712.00,0.0025
1711.00,0.0025
1710.00,0.0025
1709.00,0.0025
1708.00,0.0025
1707.00,0.0025
1706.00,0.0024
1705.00,0.0024
1704.00,0.0024
1703.00,0.0024
1702.00,0.0024
1701.00,0.0024
1700.00,0.0025
1699.00,0.0025
1698.00,0.0025
1697.00,0.0025
1696.00,0.0026
1695.00,0.0027
1694.00,0.0028
1693.00,0.0028
1692.00,0.0028
1691.00,0.0028
1690.00,0.0029
1689.00,0.0029
1688.00,0.0031
1687.00,0.0032
1686.00,0.0033
1685.00,0.0034
1684.00,0.0034
1683.00,0.0034
1682.00,0.0034
1681.00,0.0034
1680.00,0.0035
1679.00,0.0035
1678.00,0.0036
1677.00,0.0037
1676.00,0.0038
1675.00,0.0038
1674.00,0.0038
1673.00,0.0039
1672.00,0.0039
1671.00,0.0040
1670.00,0.0040
1669.00,0.0041
1668.00,0.0042
1667.00,0.0042
1666.00,0.0042
1665.00,0.0042
1664.00,0.0041
1663.00,0.0041
1662.00,0.0042
1661.00,0.0042
1660.00,0.0043
1659.00,0.0044
1658.00,0.0044
1657.00,0.0044
1656.00,0.0045
1655.00,0.0045
1654.00,0.0045
1653.00,0.0045
1652.00,0.0046
1651.00,0.0047
1650.00,0.0047
1649.00,0.0048
1648.00,0.0049
1647.00,0.0050
1646.00,0.0050
1645.00,0.0051
1644.00,0.0051
1643.00,0.0052
1642.00,0.0052
1641.00,0.0052
1640.00,0.0053
1639.00,0.0054
1638.00,0.0055
1637.00,0.0056
1636.00,0.0056
1635.00,0.0056
1634.00,0.0055
1633.00,0.0055
1632.00,0.0055
1631.00,0.0054
1630.00,0.0054
1629.00,0.0054
1628.00,0.0054
1627.00,0.0054
1626.00,0.0054
1625.00,0.0054
1624.00,0.0054
1623.00,0.0054
1622.00,0.0053
1621.00,0.0052
1620.00,0.0052
1619.00,0.0052
1618.00,0.0051
1617.00,0.0051
1616.00,0.0051
1615.00,0.0051
1614.00,0.0051
1613.00,0.0051
1612.00,0.0051
1611.00,0.0051
1610.00,0.0051
1609.00,0.0050
1608.00,0.0050
1607.00,0.0050
1606.00,0.0050
1605.00,0.0050
1604.00,0.0050
1603.00,0.0050
1602.00,0.0050
1601.00,0.0050
1600.00,0.0050
1599.00,0.0050
1598.00,0.0050
1597.00,0.0050
1596.00,0.0050
1595.00,0.0050
1594.00,0.0051
1593.00,0.0051
1592.00,0.0052
1591.00,0.0052
1590.00,0.0053
1589.00,0.0054
1588.00,0.0056
1587.00,0.0058
1586.00,0.0059
1585.00,0.0062
1584.00,0.0064
1583.00,0.0067
1582.00,0.0070
1581.00,0.0074
1580.00,0.0076
1579.00,0.0078
1578.00,0.0079
1577.00,0.0080
1576.00,0.0079
1575.00,0.0078
1574.00,0.0077
1573.00,0.0075
1572.00,0.0074
1571.00,0.0072
1570.00,0.0070
1569.00,0.0068
1568.00,0.0067
1567.00,0.0065
1566.00,0.0064
1565.00,0.0064
1564.00,0.0063
1563.00,0.0063
1562.00,0.0063
1561.00,0.0064
1560.00,0.0064
1559.00,0.0063
1558.00,0.0062
1557.00,0.0062
1556.00,0.0062
1555.00,0.0063
1554.00,0.0064
1553.00,0.0065
1552.00,0.0067
1551.00,0.0069
1550.00,0.0070
1549.00,0.0072
1548.00,0.0074
1547.00,0.0077
1546.00,0.0079
1545.00,0.0083
1544.00,0.0087
1543.00,0.0090
1542.00,0.0092
1541.00,0.0093
1540.00,0.0091
1539.00,0.0086
1538.00,0.0082
1537.00,0.0079
1536.00,0.0076
1535.00,0.0072
1534.00,0.0068
1533.00,0.0064
1532.00,0.0061
1531.00,0.0059
1530.00,0.0058
1529.00,0.0057
1528.00,0.0056
1527.00,0.0054
1526.00,0.0053
1525.00,0.0053
1524.00,0.0054
1523.00,0.0054
1522.00,0.0054
1521.00,0.0054
1520.00,0.0055
1519.00,0.0055
1518.00,0.0055
1517.00,0.0056
1516.00,0.0056
1515.00,0.0055
1514.00,0.0055
1513.00,0.0056
1512.00,0.0056
1511.00,0.0057
1510.00,0.0058
1509.00,0.0059
1508.00,0.0060
1507.00,0.0061
1506.00,0.0061
1505.00,0.0063
1504.00,0.0065
1503.00,0.0066
1502.00,0.0067
1501.00,0.0070
1500.00,0.0072
1499.00,0.0075
1498.00,0.0077
1497.00,0.0081
1496.00,0.0084
1495.00,0.0087
1494.00,0.0089
1493.00,0.0092
1492.00,0.0096
1491.00,0.0100
1490.00,0.0105
1489.00,0.0111
1488.00,0.0117
1487.00,0.0122
1486.00,0.0127
1485.00,0.0133
1484.00,0.0141
1483.00,0.0149
1482.00,0.0159
1481.00,0.0172
1480.00,0.0185
1479.00,0.0198
1478.00,0.0214
1477.00,0.0235
1476.00,0.0261
1475.00,0.0291
1474.00,0.0331
1473.00,0.0388
1472.00,0.0455
1471.00,0.0520
1470.00,0.0583
1469.00,0.0649
1468.00,0.0721
1467.00,0.0799
1466.00,0.0889
1465.00,0.0985
1464.00,0.1068
1463.00,0.1124
1462.00,0.1158
1461.00,0.1179
1460.00,0.1191
1459.00,0.1197
1458.00,0.1199
1457.00,0.1198
1456.00,0.1191
1455.00,0.1178
1454.00,0.1163
1453.00,0.1142
1452.00,0.1111
1451.00,0.1070
1450.00,0.1015
1449.00,0.0941
1448.00,0.0851
1447.00,0.0757
1446.00,0.0674
1445.00,0.0604
1444.00,0.0546
1443.00,0.0498
1442.00,0.0462
1441.00,0.0438
1440.00,0.0424
1439.00,0.0420
1438.00,0.0424
1437.00,0.0429
1436.00,0.0423
1435.00,0.0401
1434.00,0.0366
1433.00,0.0323
1432.00,0.0278
1431.00,0.0237
1430.00,0.0205
1429.00,0.0181
1428.00,0.0165
1427.00,0.0155
1426.00,0.0149
1425.00,0.0143
1424.00,0.0138
1423.00,0.0135
1422.00,0.0133
1421.00,0.0130
1420.00,0.0126
1419.00,0.0124
1418.00,0.0121
1417.00,0.0118
1416.00,0.0116
1415.00,0.0114
1414.00,0.0113
1413.00,0.0111
1412.00,0.0109
1411.00,0.0108
1410.00,0.0107
1409.00,0.0106
1408.00,0.0105
1407.00,0.0105
1406.00,0.0106
1405.00,0.0105
1404.00,0.0104
1403.00,0.0104
1402.00,0.0105
1401.00,0.0107
1400.00,0.0107
1399.00,0.0109
1398.00,0.0111
1397.00,0.0112
1396.00,0.0113
1395.00,0.0117
1394.00,0.0121
1393.00,0.0126
1392.00,0.0131
1391.00,0.0138
1390.00,0.0149
1389.00,0.0163
1388.00,0.0183
1387.00,0.0214
1386.00,0.0256
1385.00,0.0310
1384.00,0.0387
1383.00,0.0497
1382.00,0.0649
1381.00,0.0850
1380.00,0.1102
1379.00,0.1392
1378.00,0.1672
1377.00,0.1876
1376.00,0.1944
1375.00,0.1841
1374.00,0.1601
1373.00,0.1314
1372.00,0.1053
1371.00,0.0839
1370.00,0.0670
1369.00,0.0543
1368.00,0.0456
1367.00,0.0403
1366.00,0.0374
1365.00,0.0363
1364.00,0.0366
1363.00,0.0380
1362.00,0.0402
1361.00,0.0426
1360.00,0.0444
1359.00,0.0450
1358.00,0.0440
1357.00,0.0415
1356.00,0.0379
1355.00,0.0337
1354.00,0.0298
1353.00,0.0263
1352.00,0.0236
1351.00,0.0213
1350.00,0.0195
1349.00,0.0180
1348.00,0.0168
1347.00,0.0158
1346.00,0.0150
1345.00,0.0143
1344.00,0.0136
1343.00,0.0131
1342.00,0.0126
1341.00,0.0122
1340.00,0.0119
1339.00,0.0116
1338.00,0.0115
1337.00,0.0115
1336.00,0.0116
1335.00,0.0119
1334.00,0.0123
1333.00,0.0127
1332.00,0.0132
1331.00,0.0136
1330.00,0.0137
1329.00,0.0136
1328.00,0.0132
1327.00,0.0126
1326.00,0.0120
1325.00,0.0113
1324.00,0.0107
1323.00,0.0102
1322.00,0.0099
1321.00,0.0096
1320.00,0.0094
1319.00,0.0093
1318.00,0.0091
1317.00,0.0090
1316.00,0.0089
1315.00,0.0088
1314.00,0.0087
1313.00,0.0087
1312.00,0.0088
1311.00,0.0090
1310.00,0.0093
1309.00,0.0098
1308.00,0.0105
1307.00,0.0114
1306.00,0.0122
1305.00,0.0128
1304.00,0.0131
1303.00,0.0130
1302.00,0.0127
1301.00,0.0125
1300.00,0.0125
1299.00,0.0126
1298.00,0.0127
1297.00,0.0127
1296.00,0.0127
1295.00,0.0125
1294.00,0.0121
1293.00,0.0117
1292.00,0.0111
1291.00,0.0106
1290.00,0.0101
1289.00,0.0097
1288.00,0.0093
1287.00,0.0090
1286.00,0.0088
1285.00,0.0086
1284.00,0.0085
1283.00,0.0083
1282.00,0.0082
1281.00,0.0081
1280.00,0.0080
1279.00,0.0080
1278.00,0.0079
1277.00,0.0079
1276.00,0.0078
1275.00,0.0077
1274.00,0.0077
1273.00,0.0077
1272.00,0.0077
1271.00,0.0078
1270.00,0.0078
1269.00,0.0079
1268.00,0.0081
1267.00,0.0082
1266.00,0.0084
1265.00,0.0087
1264.00,0.0090
1263.00,0.0093
1262.00,0.0096
1261.00,0.0099
1260.00,0.0103
1259.00,0.0107
1258.00,0.0112
1257.00,0.0116
1256.00,0.0117
1255.00,0.0114
1254.00,0.0109
1253.00,0.0102
1252.00,0.0095
1251.00,0.0090
1250.00,0.0086
1249.00,0.0084
1248.00,0.0083
1247.00,0.0081
1246.00,0.0080
1245.00,0.0078
1244.00,0.0076
1243.00,0.0076
1242.00,0.0075
1241.00,0.0075
1240.00,0.0074
1239.00,0.0073
1238.00,0.0073
1237.00,0.0073
1236.00,0.0073
1235.00,0.0074
1234.00,0.0074
1233.00,0.0075
1232.00,0.0076
1231.00,0.0077
1230.00,0.0078
1229.00,0.0080
1228.00,0.0082
1227.00,0.0084
1226.00,0.0087
1225.00,0.0090
1224.00,0.0094
1223.00,0.0097
1222.00,0.0101
1221.00,0.0104
1220.00,0.0107
1219.00,0.0107
1218.00,0.0107
1217.00,0.0105
1216.00,0.0102
1215.00,0.0099
1214.00,0.0095
1213.00,0.0092
1212.00,0.0089
1211.00,0.0087
1210.00,0.0085
1209.00,0.0083
1208.00,0.0082
1207.00,0.0081
1206.00,0.0081
1205.00,0.0080
1204.00,0.0080
1203.00,0.0080
1202.00,0.0080
1201.00,0.0080
1200.00,0.0080
1199.00,0.0080
1198.00,0.0079
1197.00,0.0079
1196.00,0.0078
1195.00,0.0079
1194.00,0.0079
1193.00,0.0080
1192.00,0.0080
1191.00,0.0080
1190.00,0.0080
1189.00,0.0079
1188.00,0.0079
1187.00,0.0079
1186.00,0.0079
1185.00,0.0079
1184.00,0.0079
1183.00,0.0079
1182.00,0.0081
1181.00,0.0083
1180.00,0.0086
1179.00,0.0090
1178.00,0.0094
1177.00,0.0100
1176.00,0.0108
1175.00,0.0119
1174.00,0.0135
1173.00,0.0154
1172.00,0.0176
1171.00,0.0201
1170.00,0.0225
1169.00,0.0243
1168.00,0.0253
1167.00,0.0255
1166.00,0.0249
1165.00,0.0239
1164.00,0.0226
1163.00,0.0214
1162.00,0.0204
1161.00,0.0196
1160.00,0.0190
1159.00,0.0186
1158.00,0.0182
1157.00,0.0180
1156.00,0.0178
1155.00,0.0179
1154.00,0.0179
1153.00,0.0179
1152.00,0.0176
1151.00,0.0171
1150.00,0.0164
1149.00,0.0155
1148.00,0.0146
1147.00,0.0137
1146.00,0.0129
1145.00,0.0122
1144.00,0.0116
1143.00,0.0111
1142.00,0.0105
1141.00,0.0100
1140.00,0.0095
1139.00,0.0092
1138.00,0.0089
1137.00,0.0087
1136.00,0.0084
1135.00,0.0082
1134.00,0.0080
1133.00,0.0079
1132.00,0.0079
1131.00,0.0078
1130.00,0.0079
1129.00,0.0079
1128.00,0.0081
1127.00,0.0082
1126.00,0.0083
1125.00,0.0084
1124.00,0.0085
1123.00,0.0085
1122.00,0.0086
1121.00,0.0087
1120.00,0.0088
1119.00,0.0090
1118.00,0.0091
1117.00,0.0093
1116.00,0.0095
1115.00,0.0096
1114.00,0.0098
1113.00,0.0099
1112.00,0.0101
1111.00,0.0103
1110.00,0.0105
1109.00,0.0109
1108.00,0.0114
1107.00,0.0120
1106.00,0.0126
1105.00,0.0132
1104.00,0.0136
1103.00,0.0139
1102.00,0.0139
1101.00,0.0136
1100.00,0.0130
1099.00,0.0122
1098.00,0.0116
1097.00,0.0110
1096.00,0.0105
1095.00,0.0101
1094.00,0.0097
1093.00,0.0094
1092.00,0.0091
1091.00,0.0088
1090.00,0.0086
1089.00,0.0085
1088.00,0.0085
1087.00,0.0085
1086.00,0.0085
1085.00,0.0085
1084.00,0.0085
1083.00,0.0084
1082.00,0.0083
1081.00,0.0082
1080.00,0.0081
1079.00,0.0080
1078.00,0.0078
1077.00,0.0077
1076.00,0.0075
1075.00,0.0075
1074.00,0.0075
1073.00,0.0075
1072.00,0.0075
1071.00,0.0074
1070.00,0.0074
1069.00,0.0074
1068.00,0.0074
1067.00,0.0075
1066.00,0.0075
1065.00,0.0076
1064.00,0.0077
1063.00,0.0078
1062.00,0.0078
1061.00,0.0080
1060.00,0.0081
1059.00,0.0081
1058.00,0.0081
1057.00,0.0080
1056.00,0.0080
1055.00,0.0082
1054.00,0.0085
1053.00,0.0088
1052.00,0.0092
1051.00,0.0095
1050.00,0.0099
1049.00,0.0104
1048.00,0.0109
1047.00,0.0113
1046.00,0.0116
1045.00,0.0118
1044.00,0.0119
1043.00,0.0118
1042.00,0.0117
1041.00,0.0116
1040.00,0.0116
1039.00,0.0116
1038.00,0.0117
1037.00,0.0117
1036.00,0.0117
1035.00,0.0116
1034.00,0.0115
1033.00,0.0113
1032.00,0.0111
1031.00,0.0110
1030.00,0.0111
1029.00,0.0111
1028.00,0.0112
1027.00,0.0113
1026.00,0.0114
1025.00,0.0116
1024.00,0.0117
1023.00,0.0119
1022.00,0.0121
1021.00,0.0123
1020.00,0.0125
1019.00,0.0127
1018.00,0.0127
1017.00,0.0128
1016.00,0.0128
1015.00,0.0128
1014.00,0.0128
1013.00,0.0127
1012.00,0.0127
1011.00,0.0127
1010.00,0.0127
1009.00,0.0128
1008.00,0.0129
1007.00,0.0132
1006.00,0.0136
1005.00,0.0144
1004.00,0.0156
1003.00,0.0173
1002.00,0.0195
1001.00,0.0222
1000.00,0.0251
999.00,0.0274
998.00,0.0283
997.00,0.0276
996.00,0.0254
995.00,0.0224
994.00,0.0194
993.00,0.0167
992.00,0.0146
991.00,0.0131
990.00,0.0121
989.00,0.0115
988.00,0.0111
987.00,0.0109
986.00,0.0109
985.00,0.0110
984.00,0.0113
983.00,0.0118
982.00,0.0127
981.00,0.0140
980.00,0.0158
979.00,0.0182
978.00,0.0212
977.00,0.0246
976.00,0.0282
975.00,0.0315
974.00,0.0337
973.00,0.0341
972.00,0.0326
971.00,0.0294
970.00,0.0255
969.00,0.0216
968.00,0.0183
967.00,0.0157
966.00,0.0138
965.00,0.0124
964.00,0.0113
963.00,0.0106
962.00,0.0100
961.00,0.0096
960.00,0.0093
959.00,0.0090
958.00,0.0087
957.00,0.0084
956.00,0.0081
955.00,0.0079
954.00,0.0077
953.00,0.0075
952.00,0.0073
951.00,0.0073
950.00,0.0073
949.00,0.0073
948.00,0.0073
947.00,0.0074
946.00,0.0076
945.00,0.0080
944.00,0.0084
943.00,0.0089
942.00,0.0092
941.00,0.0093
940.00,0.0092
939.00,0.0090
938.00,0.0085
937.00,0.0080
936.00,0.0075
935.00,0.0071
934.00,0.0068
933.00,0.0066
932.00,0.0064
931.00,0.0063
930.00,0.0063
929.00,0.0063
928.00,0.0062
927.00,0.0062
926.00,0.0062
925.00,0.0063
924.00,0.0063
923.00,0.0064
922.00,0.0064
921.00,0.0064
920.00,0.0064
919.00,0.0065
918.00,0.0065
917.00,0.0065
916.00,0.0065
915.00,0.0066
914.00,0.0068
913.00,0.0069
912.00,0.0071
911.00,0.0072
910.00,0.0073
909.00,0.0075
908.00,0.0079
907.00,0.0084
906.00,0.0091
905.00,0.0102
904.00,0.0117
903.00,0.0136
902.00,0.0157
901.00,0.0176
900.00,0.0188
899.00,0.0189
898.00,0.0179
897.00,0.0162
896.00,0.0141
895.00,0.0122
894.00,0.0108
893.00,0.0097
892.00,0.0090
891.00,0.0085
890.00,0.0082
889.00,0.0079
888.00,0.0077
887.00,0.0075
886.00,0.0074
885.00,0.0074
884.00,0.0074
883.00,0.0073
882.00,0.0073
881.00,0.0073
880.00,0.0073
879.00,0.0073
878.00,0.0073
877.00,0.0073
876.00,0.0074
875.00,0.0075
874.00,0.0076
873.00,0.0077
872.00,0.0077
871.00,0.0077
870.00,0.0076
869.00,0.0076
868.00,0.0076
867.00,0.0077
866.00,0.0078
865.00,0.0079
864.00,0.0080
863.00,0.0080
862.00,0.0081
861.00,0.0082
860.00,0.0084
859.00,0.0085
858.00,0.0086
857.00,0.0087
856.00,0.0087
855.00,0.0087
854.00,0.0088
853.00,0.0089
852.00,0.0092
851.00,0.0095
850.00,0.0099
849.00,0.0103
848.00,0.0109
847.00,0.0119
846.00,0.0134
845.00,0.0158
844.00,0.0192
843.00,0.0229
842.00,0.0258
841.00,0.0267
840.00,0.0250
839.00,0.0215
838.00,0.0178
837.00,0.0148
836.00,0.0128
835.00,0.0116
834.00,0.0110
833.00,0.0106
832.00,0.0103
831.00,0.0100
830.00,0.0097
829.00,0.0095
828.00,0.0094
827.00,0.0094
826.00,0.0095
825.00,0.0096
824.00,0.0098
823.00,0.0099
822.00,0.0100
821.00,0.0102
820.00,0.0103
819.00,0.0106
818.00,0.0111
817.00,0.0117
816.00,0.0126
815.00,0.0138
814.00,0.0153
813.00,0.0171
812.00,0.0193
811.00,0.0213
810.00,0.0229
809.00,0.0235
808.00,0.0231
807.00,0.0217
806.00,0.0197
805.00,0.0177
804.00,0.0159
803.00,0.0145
802.00,0.0134
801.00,0.0125
800.00,0.0118
799.00,0.0112
798.00,0.0107
797.00,0.0104
796.00,0.0100
795.00,0.0097
794.00,0.0094
793.00,0.0091
792.00,0.0088
791.00,0.0086
790.00,0.0083
789.00,0.0079
788.00,0.0076
787.00,0.0073
786.00,0.0072
785.00,0.0071
784.00,0.0070
783.00,0.0070
782.00,0.0069
781.00,0.0068
780.00,0.0067
779.00,0.0066
778.00,0.0065
777.00,0.0064
776.00,0.0064
775.00,0.0064
774.00,0.0064
773.00,0.0064
772.00,0.0064
771.00,0.0066
770.00,0.0067
769.00,0.0068
768.00,0.0069
767.00,0.0069
766.00,0.0068
765.00,0.0067
764.00,0.0066
763.00,0.0065
762.00,0.0064
761.00,0.0064
760.00,0.0065
759.00,0.0067
758.00,0.0069
757.00,0.0072
756.00,0.0074
755.00,0.0076
754.00,0.0076
753.00,0.0077
752.00,0.0077
751.00,0.0079
750.00,0.0080
749.00,0.0081
748.00,0.0082
747.00,0.0083
746.00,0.0085
745.00,0.0088
744.00,0.0091
743.00,0.0093
742.00,0.0095
741.00,0.0097
740.00,0.0100
739.00,0.0104
738.00,0.0108
737.00,0.0111
736.00,0.0116
735.00,0.0121
734.00,0.0125
733.00,0.0131
732.00,0.0137
731.00,0.0144
730.00,0.0150
729.00,0.0154
728.00,0.0156
727.00,0.0158
726.00,0.0160
725.00,0.0164
724.00,0.0169
723.00,0.0176
722.00,0.0182
721.00,0.0185
720.00,0.0184
719.00,0.0177
718.00,0.0165
717.00,0.0151
716.00,0.0138
715.00,0.0129
714.00,0.0122
713.00,0.0118
712.00,0.0113
711.00,0.0109
710.00,0.0106
709.00,0.0105
708.00,0.0106
707.00,0.0107
706.00,0.0106
705.00,0.0104
704.00,0.0102
703.00,0.0101
702.00,0.0101
701.00,0.0099
700.00,0.0098
699.00,0.0096
698.00,0.0096
697.00,0.0097
696.00,0.0097
695.00,0.0096
694.00,0.0096
693.00,0.0096
692.00,0.0097
691.00,0.0098
690.00,0.0099
689.00,0.0099
688.00,0.0097
687.00,0.0094
686.00,0.0092
685.00,0.0091
684.00,0.0091
683.00,0.0092
682.00,0.0093
681.00,0.0094
680.00,0.0096
679.00,0.0096
678.00,0.0096
677.00,0.0096
676.00,0.0097
675.00,0.0098
674.00,0.0100
673.00,0.0103
672.00,0.0105
671.00,0.0108
670.00,0.0112
669.00,0.0114
668.00,0.0113
667.00,0.0110
666.00,0.0105
665.00,0.0099
664.00,0.0095
663.00,0.0093
662.00,0.0092
661.00,0.0091
660.00,0.0090
659.00,0.0089
658.00,0.0087
657.00,0.0086
656.00,0.0084
655.00,0.0084
654.00,0.0084
653.00,0.0085
652.00,0.0084
651.00,0.0082
650.00,0.0081
649.00,0.0080
648.00,0.0081
647.00,0.0081
646.00,0.0082
645.00,0.0083
644.00,0.0084
643.00,0.0085
642.00,0.0084
641.00,0.0083
640.00,0.0081
639.00,0.0081
638.00,0.0082
637.00,0.0083
636.00,0.0082
635.00,0.0080
634.00,0.0078
633.00,0.0077
632.00,0.0078
631.00,0.0079
630.00,0.0080
629.00,0.0081
628.00,0.0081
627.00,0.0082
626.00,0.0083
625.00,0.0083
624.00,0.0083
623.00,0.0083
622.00,0.0083
621.00,0.0083
620.00,0.0083
619.00,0.0084
618.00,0.0085
617.00,0.0087
616.00,0.0088
615.00,0.0087
614.00,0.0086
613.00,0.0084
612.00,0.0080
611.00,0.0077
610.00,0.0075
609.00,0.0076
608.00,0.0079
607.00,0.0080
606.00,0.0080
605.00,0.0079
604.00,0.0080
603.00,0.0081
602.00,0.0083
601.00,0.0084
600.00,0.0084
599.00,0.0082
598.00,0.0082
597.00,0.0084
596.00,0.0089
595.00,0.0092
594.00,0.0094
593.00,0.0093
592.00,0.0090
591.00,0.0086
590.00,0.0082
589.00,0.0080
588.00,0.0080
587.00,0.0081
586.00,0.0081
585.00,0.0081
584.00,0.0081
583.00,0.0082
582.00,0.0084
581.00,0.0085
580.00,0.0083
579.00,0.0082
578.00,0.0081
577.00,0.0081
576.00,0.0080
575.00,0.0079
574.00,0.0079
573.00,0.0080
572.00,0.0081
571.00,0.0081
570.00,0.0081
569.00,0.0082
568.00,0.0082
567.00,0.0083
566.00,0.0083
565.00,0.0081
564.00,0.0079
563.00,0.0076
562.00,0.0075
561.00,0.0077
560.00,0.0081
559.00,0.0083
558.00,0.0082
557.00,0.0078
556.00,0.0075
555.00,0.0075
554.00,0.0076
553.00,0.0078
552.00,0.0079
551.00,0.0078
550.00,0.0077
549.00,0.0078
548.00,0.0082
547.00,0.0088
546.00,0.0093
545.00,0.0093
544.00,0.0090
543.00,0.0088
542.00,0.0087
541.00,0.0090
540.00,0.0095
539.00,0.0099
538.00,0.0104
537.00,0.0108
536.00,0.0109
535.00,0.0110
534.00,0.0110
533.00,0.0111
532.00,0.0112
531.00,0.0110
530.00,0.0105
529.00,0.0099
528.00,0.0095
527.00,0.0094
526.00,0.0096
525.00,0.0100
524.00,0.0102
523.00,0.0101
522.00,0.0096
521.00,0.0089
520.00,0.0084
519.00,0.0081
518.00,0.0080
517.00,0.0081
516.00,0.0081
515.00,0.0081
514.00,0.0079
513.00,0.0076
512.00,0.0075
511.00,0.0076
510.00,0.0079
509.00,0.0079
508.00,0.0078
507.00,0.0075
506.00,0.0074
505.00,0.0077
504.00,0.0083
503.00,0.0087
502.00,0.0087
501.00,0.0083
500.00,0.0077
499.00,0.0076
498.00,0.0077
497.00,0.0080
496.00,0.0081
495.00,0.0082
494.00,0.0083
493.00,0.0084
492.00,0.0084
491.00,0.0083
490.00,0.0083
489.00,0.0084
488.00,0.0083
487.00,0.0079
486.00,0.0070
485.00,0.0064
484.00,0.0064
483.00,0.0072
482.00,0.0080
481.00,0.0087
480.00,0.0095
479.00,0.0103
478.00,0.0110
477.00,0.0112
476.00,0.0112
475.00,0.0112
474.00,0.0115
473.00,0.0122
472.00,0.0132
471.00,0.0144
470.00,0.0158
469.00,0.0169
468.00,0.0174
467.00,0.0174
466.00,0.0172
465.00,0.0168
464.00,0.0165
463.00,0.0165
462.00,0.0171
461.00,0.0182
460.00,0.0193
459.00,0.0197
458.00,0.0188
457.00,0.0173
456.00,0.0162
455.00,0.0157
454.00,0.0154
453.00,0.0148
452.00,0.0141
451.00,0.0142
450.00,0.0152
