Created as New Dataset,Sample 029 By Administrator Date Thursday, September 04 2025
cm-1,A
4000.00,0.0010
3999.00,0.0010
3998.00,0.0009
3997.00,0.0010
3996.00,0.0010
3995.00,0.0010
3994.00,0.0010
3993.00,0.0010
3992.00,0.0011
3991.00,0.0011
3990.00,0.0011
3989.00,0.0011
3988.00,0.0011
3987.00,0.0011
3986.00,0.0010
3985.00,0.0010
3984.00,0.0010
3983.00,0.0010
3982.00,0.0009
3981.00,0.0009
3980.00,0.0009
3979.00,0.0009
3978.00,0.0009
3977.00,0.0009
3976.00,0.0009
3975.00,0.0009
3974.00,0.0009
3973.00,0.0009
3972.00,0.0008
3971.00,0.0008
3970.00,0.0008
3969.00,0.0008
3968.00,0.0008
3967.00,0.0008
3966.00,0.0008
3965.00,0.0008
3964.00,0.0008
3963.00,0.0009
3962.00,0.0009
3961.00,0.0009
3960.00,0.0009
3959.00,0.0009
3958.00,0.0009
3957.00,0.0009
3956.00,0.0009
3955.00,0.0008
3954.00,0.0008
3953.00,0.0008
3952.00,0.0009
3951.00,0.0009
3950.00,0.0009
3949.00,0.0009
3948.00,0.0009
3947.00,0.0009
3946.00,0.0009
3945.00,0.0009
3944.00,0.0009
3943.00,0.0008
3942.00,0.0008
3941.00,0.0009
3940.00,0.0009
3939.00,0.0009
3938.00,0.0009
3937.00,0.0009
3936.00,0.0009
3935.00,0.0009
3934.00,0.0009
3933.00,0.0009
3932.00,0.0008
3931.00,0.0009
3930.00,0.0009
3929.00,0.0009
3928.00,0.0009
3927.00,0.0009
3926.00,0.0009
3925.00,0.0009
3924.00,0.0009
3923.00,0.0009
3922.00,0.0009
3921.00,0.0009
3920.00,0.0009
3919.00,0.0009
3918.00,0.0009
3917.00,0.0009
3916.00,0.0009
3915.00,0.0009
3914.00,0.0009
3913.00,0.0009
3912.00,0.0009
3911.00,0.0009
3910.00,0.0008
3909.00,0.0009
3908.00,0.0009
3907.00,0.0009
3906.00,0.0010
3905.00,0.0010
3904.00,0.0009
3903.00,0.0009
3902.00,0.0009
3901.00,0.0009
3900.00,0.0010
3899.00,0.0009
3898.00,0.0009
3897.00,0.0009
3896.00,0.0009
3895.00,0.0009
3894.00,0.0009
3893.00,0.0009
3892.00,0.0009
3891.00,0.0008
3890.00,0.0008
3889.00,0.0008
3888.00,0.0008
3887.00,0.0008
3886.00,0.0008
3885.00,0.0008
3884.00,0.0008
3883.00,0.0009
3882.00,0.0009
3881.00,0.0009
3880.00,0.0009
3879.00,0.0008
3878.00,0.0008
3877.00,0.0008
3876.00,0.0008
3875.00,0.0008
3874.00,0.0008
3873.00,0.0008
3872.00,0.0008
3871.00,0.0008
3870.00,0.0008
3869.00,0.0007
3868.00,0.0007
3867.00,0.0008
3866.00,0.0008
3865.00,0.0008
3864.00,0.0008
3863.00,0.0008
3862.00,0.0008
3861.00,0.0009
3860.00,0.0009
3859.00,0.0009
3858.00,0.0009
3857.00,0.0009
3856.00,0.0009
3855.00,0.0008
3854.00,0.0008
3853.00,0.0008
3852.00,0.0008
3851.00,0.0008
3850.00,0.0008
3849.00,0.0008
3848.00,0.0008
3847.00,0.0008
3846.00,0.0008
3845.00,0.0008
3844.00,0.0008
3843.00,0.0008
3842.00,0.0008
3841.00,0.0008
3840.00,0.0009
3839.00,0.0009
3838.00,0.0009
3837.00,0.0009
3836.00,0.0009
3835.00,0.0009
3834.00,0.0009
3833.00,0.0009
3832.00,0.0008
3831.00,0.0008
3830.00,0.0008
3829.00,0.0008
3828.00,0.0009
3827.00,0.0009
3826.00,0.0009
3825.00,0.0009
3824.00,0.0009
3823.00,0.0009
3822.00,0.0009
3821.00,0.0009
3820.00,0.0009
3819.00,0.0010
3818.00,0.0010
3817.00,0.0010
3816.00,0.0009
3815.00,0.0009
3814.00,0.0009
3813.00,0.0009
3812.00,0.0009
3811.00,0.0009
3810.00,0.0009
3809.00,0.0009
3808.00,0.0009
3807.00,0.0009
3806.00,0.0008
3805.00,0.0009
3804.00,0.0009
3803.00,0.0009
3802.00,0.0008
3801.00,0.0008
3800.00,0.0008
3799.00,0.0009
3798.00,0.0009
3797.00,0.0009
3796.00,0.0009
3795.00,0.0009
3794.00,0.0009
3793.00,0.0009
3792.00,0.0008
3791.00,0.0008
3790.00,0.0008
3789.00,0.0008
3788.00,0.0008
3787.00,0.0008
3786.00,0.0009
3785.00,0.0009
3784.00,0.0009
3783.00,0.0009
3782.00,0.0009
3781.00,0.0009
3780.00,0.0009
3779.00,0.0009
3778.00,0.0008
3777.00,0.0008
3776.00,0.0008
3775.00,0.0008
3774.00,0.0008
3773.00,0.0008
3772.00,0.0008
3771.00,0.0008
3770.00,0.0008
3769.00,0.0009
3768.00,0.0009
3767.00,0.0010
3766.00,0.0010
3765.00,0.0010
3764.00,0.0010
3763.00,0.0010
3762.00,0.0009
3761.00,0.0009
3760.00,0.0009
3759.00,0.0009
3758.00,0.0009
3757.00,0.0009
3756.00,0.0010
3755.00,0.0010
3754.00,0.0010
3753.00,0.0010
3752.00,0.0009
3751.00,0.0008
3750.00,0.0007
3749.00,0.0007
3748.00,0.0007
3747.00,0.0008
3746.00,0.0009
3745.00,0.0008
3744.00,0.0007
3743.00,0.0006
3742.00,0.0006
3741.00,0.0006
3740.00,0.0006
3739.00,0.0006
3738.00,0.0007
3737.00,0.0007
3736.00,0.0008
3735.00,0.0008
3734.00,0.0008
3733.00,0.0008
3732.00,0.0008
3731.00,0.0007
3730.00,0.0007
3729.00,0.0007
3728.00,0.0007
3727.00,0.0007
3726.00,0.0006
3725.00,0.0006
3724.00,0.0006
3723.00,0.0006
3722.00,0.0006
3721.00,0.0007
3720.00,0.0007
3719.00,0.0007
3718.00,0.0008
3717.00,0.0008
3716.00,0.0008
3715.00,0.0008
3714.00,0.0008
3713.00,0.0008
3712.00,0.0008
3711.00,0.0008
3710.00,0.0008
3709.00,0.0008
3708.00,0.0007
3707.00,0.0006
3706.00,0.0006
3705.00,0.0005
3704.00,0.0005
3703.00,0.0005
3702.00,0.0005
3701.00,0.0005
3700.00,0.0005
3699.00,0.0005
3698.00,0.0006
3697.00,0.0006
3696.00,0.0006
3695.00,0.0007
3694.00,0.0007
3693.00,0.0006
3692.00,0.0006
3691.00,0.0006
3690.00,0.0006
3689.00,0.0007
3688.00,0.0007
3687.00,0.0006
3686.00,0.0006
3685.00,0.0006
3684.00,0.0006
3683.00,0.0006
3682.00,0.0006
3681.00,0.0006
3680.00,0.0006
3679.00,0.0007
3678.00,0.0007
3677.00,0.0008
3676.00,0.0008
3675.00,0.0007
3674.00,0.0007
3673.00,0.0008
3672.00,0.0008
3671.00,0.0007
3670.00,0.0006
3669.00,0.0006
3668.00,0.0006
3667.00,0.0006
3666.00,0.0006
3665.00,0.0005
3664.00,0.0005
3663.00,0.0004
3662.00,0.0005
3661.00,0.0005
3660.00,0.0006
3659.00,0.0006
3658.00,0.0005
3657.00,0.0005
3656.00,0.0004
3655.00,0.0004
3654.00,0.0004
3653.00,0.0005
3652.00,0.0005
3651.00,0.0005
3650.00,0.0005
3649.00,0.0005
3648.00,0.0005
3647.00,0.0006
3646.00,0.0006
3645.00,0.0006
3644.00,0.0006
3643.00,0.0006
3642.00,0.0005
3641.00,0.0005
3640.00,0.0005
3639.00,0.0005
3638.00,0.0005
3637.00,0.0005
3636.00,0.0005
3635.00,0.0005
3634.00,0.0005
3633.00,0.0005
3632.00,0.0005
3631.00,0.0005
3630.00,0.0005
3629.00,0.0005
3628.00,0.0004
3627.00,0.0004
3626.00,0.0004
3625.00,0.0004
3624.00,0.0004
3623.00,0.0005
3622.00,0.0005
3621.00,0.0005
3620.00,0.0005
3619.00,0.0005
3618.00,0.0004
3617.00,0.0004
3616.00,0.0005
3615.00,0.0005
3614.00,0.0005
3613.00,0.0006
3612.00,0.0006
3611.00,0.0007
3610.00,0.0007
3609.00,0.0007
3608.00,0.0007
3607.00,0.0007
3606.00,0.0006
3605.00,0.0006
3604.00,0.0006
3603.00,0.0006
3602.00,0.0006
3601.00,0.0006
3600.00,0.0006
3599.00,0.0006
3598.00,0.0006
3597.00,0.0006
3596.00,0.0005
3595.00,0.0005
3594.00,0.0005
3593.00,0.0005
3592.00,0.0005
3591.00,0.0005
3590.00,0.0005
3589.00,0.0006
3588.00,0.0006
3587.00,0.0006
3586.00,0.0006
3585.00,0.0007
3584.00,0.0007
3583.00,0.0007
3582.00,0.0007
3581.00,0.0007
3580.00,0.0007
3579.00,0.0007
3578.00,0.0006
3577.00,0.0006
3576.00,0.0007
3575.00,0.0007
3574.00,0.0007
3573.00,0.0007
3572.00,0.0007
3571.00,0.0007
3570.00,0.0007
3569.00,0.0007
3568.00,0.0007
3567.00,0.0007
3566.00,0.0008
3565.00,0.0008
3564.00,0.0009
3563.00,0.0009
3562.00,0.0009
3561.00,0.0008
3560.00,0.0008
3559.00,0.0008
3558.00,0.0008
3557.00,0.0008
3556.00,0.0008
3555.00,0.0008
3554.00,0.0008
3553.00,0.0009
3552.00,0.0009
3551.00,0.0010
3550.00,0.0010
3549.00,0.0010
3548.00,0.0011
3547.00,0.0011
3546.00,0.0011
3545.00,0.0011
3544.00,0.0011
3543.00,0.0011
3542.00,0.0010
3541.00,0.0010
3540.00,0.0010
3539.00,0.0011
3538.00,0.0011
3537.00,0.0011
3536.00,0.0011
3535.00,0.0011
3534.00,0.0011
3533.00,0.0010
3532.00,0.0010
3531.00,0.0011
3530.00,0.0011
3529.00,0.0012
3528.00,0.0012
3527.00,0.0013
3526.00,0.0013
3525.00,0.0013
3524.00,0.0013
3523.00,0.0013
3522.00,0.0013
3521.00,0.0013
3520.00,0.0013
3519.00,0.0013
3518.00,0.0013
3517.00,0.0013
3516.00,0.0013
3515.00,0.0013
3514.00,0.0014
3513.00,0.0014
3512.00,0.0014
3511.00,0.0015
3510.00,0.0014
3509.00,0.0014
3508.00,0.0014
3507.00,0.0014
3506.00,0.0014
3505.00,0.0014
3504.00,0.0014
3503.00,0.0014
3502.00,0.0014
3501.00,0.0014
3500.00,0.0014
3499.00,0.0015
3498.00,0.0015
3497.00,0.0015
3496.00,0.0015
3495.00,0.0015
3494.00,0.0015
3493.00,0.0015
3492.00,0.0015
3491.00,0.0015
3490.00,0.0015
3489.00,0.0016
3488.00,0.0016
3487.00,0.0016
3486.00,0.0015
3485.00,0.0015
3484.00,0.0015
3483.00,0.0016
3482.00,0.0016
3481.00,0.0016
3480.00,0.0016
3479.00,0.0016
3478.00,0.0016
3477.00,0.0016
3476.00,0.0016
3475.00,0.0017
3474.00,0.0017
3473.00,0.0017
3472.00,0.0017
3471.00,0.0017
3470.00,0.0017
3469.00,0.0017
3468.00,0.0017
3467.00,0.0017
3466.00,0.0017
3465.00,0.0017
3464.00,0.0018
3463.00,0.0018
3462.00,0.0018
3461.00,0.0018
3460.00,0.0018
3459.00,0.0018
3458.00,0.0018
3457.00,0.0018
3456.00,0.0018
3455.00,0.0018
3454.00,0.0018
3453.00,0.0019
3452.00,0.0019
3451.00,0.0020
3450.00,0.0020
3449.00,0.0020
3448.00,0.0020
3447.00,0.0020
3446.00,0.0020
3445.00,0.0020
3444.00,0.0021
3443.00,0.0020
3442.00,0.0020
3441.00,0.0020
3440.00,0.0020
3439.00,0.0020
3438.00,0.0020
3437.00,0.0021
3436.00,0.0021
3435.00,0.0021
3434.00,0.0022
3433.00,0.0022
3432.00,0.0023
3431.00,0.0023
3430.00,0.0023
3429.00,0.0023
3428.00,0.0023
3427.00,0.0022
3426.00,0.0022
3425.00,0.0022
3424.00,0.0022
3423.00,0.0023
3422.00,0.0023
3421.00,0.0023
3420.00,0.0023
3419.00,0.0023
3418.00,0.0023
3417.00,0.0023
3416.00,0.0023
3415.00,0.0023
3414.00,0.0024
3413.00,0.0024
3412.00,0.0024
3411.00,0.0024
3410.00,0.0024
3409.00,0.0024
3408.00,0.0024
3407.00,0.0024
3406.00,0.0024
3405.00,0.0024
3404.00,0.0024
3403.00,0.0024
3402.00,0.0024
3401.00,0.0024
3400.00,0.0024
3399.00,0.0023
3398.00,0.0023
3397.00,0.0024
3396.00,0.0024
3395.00,0.0024
3394.00,0.0025
3393.00,0.0025
3392.00,0.0025
3391.00,0.0025
3390.00,0.0025
3389.00,0.0025
3388.00,0.0025
3387.00,0.0025
3386.00,0.0025
3385.00,0.0025
3384.00,0.0025
3383.00,0.0025
3382.00,0.0025
3381.00,0.0025
3380.00,0.0025
3379.00,0.0025
3378.00,0.0025
3377.00,0.0026
3376.00,0.0026
3375.00,0.0026
3374.00,0.0026
3373.00,0.0025
3372.00,0.0025
3371.00,0.0025
3370.00,0.0025
3369.00,0.0025
3368.00,0.0026
3367.00,0.0026
3366.00,0.0026
3365.00,0.0026
3364.00,0.0026
3363.00,0.0026
3362.00,0.0026
3361.00,0.0026
3360.00,0.0026
3359.00,0.0026
3358.00,0.0026
3357.00,0.0026
3356.00,0.0026
3355.00,0.0026
3354.00,0.0026
3353.00,0.0026
3352.00,0.0025
3351.00,0.0026
3350.00,0.0026
3349.00,0.0026
3348.00,0.0026
3347.00,0.0027
3346.00,0.0027
3345.00,0.0027
3344.00,0.0027
3343.00,0.0028
3342.00,0.0028
3341.00,0.0028
3340.00,0.0028
3339.00,0.0027
3338.00,0.0027
3337.00,0.0027
3336.00,0.0026
3335.00,0.0026
3334.00,0.0026
3333.00,0.0026
3332.00,0.0026
3331.00,0.0026
3330.00,0.0026
3329.00,0.0027
3328.00,0.0027
3327.00,0.0027
3326.00,0.0026
3325.00,0.0026
3324.00,0.0026
3323.00,0.0026
3322.00,0.0026
3321.00,0.0026
3320.00,0.0026
3319.00,0.0025
3318.00,0.0025
3317.00,0.0025
3316.00,0.0025
3315.00,0.0025
3314.00,0.0025
3313.00,0.0025
3312.00,0.0025
3311.00,0.0025
3310.00,0.0025
3309.00,0.0026
3308.00,0.0026
3307.00,0.0026
3306.00,0.0027
3305.00,0.0027
3304.00,0.0027
3303.00,0.0028
3302.00,0.0028
3301.00,0.0028
3300.00,0.0027
3299.00,0.0027
3298.00,0.0027
3297.00,0.0026
3296.00,0.0026
3295.00,0.0026
3294.00,0.0026
3293.00,0.0026
3292.00,0.0026
3291.00,0.0026
3290.00,0.0026
3289.00,0.0025
3288.00,0.0025
3287.00,0.0025
3286.00,0.0025
3285.00,0.0025
3284.00,0.0024
3283.00,0.0024
3282.00,0.0024
3281.00,0.0024
3280.00,0.0024
3279.00,0.0024
3278.00,0.0024
3277.00,0.0024
3276.00,0.0024
3275.00,0.0024
3274.00,0.0024
3273.00,0.0023
3272.00,0.0023
3271.00,0.0023
3270.00,0.0023
3269.00,0.0023
3268.00,0.0023
3267.00,0.0023
3266.00,0.0023
3265.00,0.0024
3264.00,0.0024
3263.00,0.0024
3262.00,0.0024
3261.00,0.0023
3260.00,0.0023
3259.00,0.0023
3258.00,0.0023
3257.00,0.0022
3256.00,0.0022
3255.00,0.0022
3254.00,0.0022
3253.00,0.0022
3252.00,0.0022
3251.00,0.0022
3250.00,0.0022
3249.00,0.0022
3248.00,0.0022
3247.00,0.0023
3246.00,0.0023
3245.00,0.0023
3244.00,0.0023
3243.00,0.0022
3242.00,0.0022
3241.00,0.0022
3240.00,0.0022
3239.00,0.0022
3238.00,0.0022
3237.00,0.0022
3236.00,0.0022
3235.00,0.0023
3234.00,0.0023
3233.00,0.0023
3232.00,0.0023
3231.00,0.0023
3230.00,0.0023
3229.00,0.0023
3228.00,0.0023
3227.00,0.0023
3226.00,0.0023
3225.00,0.0024
3224.00,0.0025
3223.00,0.0025
3222.00,0.0025
3221.00,0.0025
3220.00,0.0025
3219.00,0.0025
3218.00,0.0025
3217.00,0.0025
3216.00,0.0026
3215.00,0.0026
3214.00,0.0026
3213.00,0.0026
3212.00,0.0027
3211.00,0.0027
3210.00,0.0027
3209.00,0.0027
3208.00,0.0027
3207.00,0.0028
3206.00,0.0028
3205.00,0.0028
3204.00,0.0029
3203.00,0.0029
3202.00,0.0029
3201.00,0.0029
3200.00,0.0030
3199.00,0.0030
3198.00,0.0030
3197.00,0.0030
3196.00,0.0030
3195.00,0.0030
3194.00,0.0029
3193.00,0.0029
3192.00,0.0029
3191.00,0.0029
3190.00,0.0029
3189.00,0.0029
3188.00,0.0029
3187.00,0.0029
3186.00,0.0029
3185.00,0.0029
3184.00,0.0029
3183.00,0.0028
3182.00,0.0028
3181.00,0.0027
3180.00,0.0027
3179.00,0.0027
3178.00,0.0027
3177.00,0.0028
3176.00,0.0028
3175.00,0.0028
3174.00,0.0028
3173.00,0.0028
3172.00,0.0027
3171.00,0.0027
3170.00,0.0027
3169.00,0.0026
3168.00,0.0026
3167.00,0.0026
3166.00,0.0026
3165.00,0.0026
3164.00,0.0027
3163.00,0.0027
3162.00,0.0027
3161.00,0.0027
3160.00,0.0027
3159.00,0.0027
3158.00,0.0027
3157.00,0.0027
3156.00,0.0026
3155.00,0.0026
3154.00,0.0026
3153.00,0.0027
3152.00,0.0027
3151.00,0.0027
3150.00,0.0027
3149.00,0.0026
3148.00,0.0026
3147.00,0.0026
3146.00,0.0027
3145.00,0.0027
3144.00,0.0027
3143.00,0.0027
3142.00,0.0027
3141.00,0.0027
3140.00,0.0027
3139.00,0.0027
3138.00,0.0027
3137.00,0.0027
3136.00,0.0027
3135.00,0.0027
3134.00,0.0026
3133.00,0.0025
3132.00,0.0025
3131.00,0.0024
3130.00,0.0024
3129.00,0.0025
3128.00,0.0025
3127.00,0.0025
3126.00,0.0025
3125.00,0.0025
3124.00,0.0024
3123.00,0.0024
3122.00,0.0024
3121.00,0.0024
3120.00,0.0024
3119.00,0.0023
3118.00,0.0023
3117.00,0.0023
3116.00,0.0023
3115.00,0.0024
3114.00,0.0024
3113.00,0.0024
3112.00,0.0023
3111.00,0.0023
3110.00,0.0022
3109.00,0.0022
3108.00,0.0022
3107.00,0.0022
3106.00,0.0022
3105.00,0.0022
3104.00,0.0022
3103.00,0.0022
3102.00,0.0022
3101.00,0.0022
3100.00,0.0022
3099.00,0.0022
3098.00,0.0022
3097.00,0.0022
3096.00,0.0022
3095.00,0.0022
3094.00,0.0022
3093.00,0.0022
3092.00,0.0022
3091.00,0.0022
3090.00,0.0022
3089.00,0.0022
3088.00,0.0022
3087.00,0.0022
3086.00,0.0022
3085.00,0.0022
3084.00,0.0022
3083.00,0.0022
3082.00,0.0022
3081.00,0.0022
3080.00,0.0022
3079.00,0.0022
3078.00,0.0022
3077.00,0.0023
3076.00,0.0023
3075.00,0.0023
3074.00,0.0023
3073.00,0.0023
3072.00,0.0023
3071.00,0.0023
3070.00,0.0023
3069.00,0.0023
3068.00,0.0023
3067.00,0.0024
3066.00,0.0024
3065.00,0.0024
3064.00,0.0024
3063.00,0.0024
3062.00,0.0024
3061.00,0.0025
3060.00,0.0025
3059.00,0.0026
3058.00,0.0026
3057.00,0.0025
3056.00,0.0025
3055.00,0.0026
3054.00,0.0026
3053.00,0.0026
3052.00,0.0026
3051.00,0.0026
3050.00,0.0026
3049.00,0.0026
3048.00,0.0027
3047.00,0.0027
3046.00,0.0027
3045.00,0.0028
3044.00,0.0028
3043.00,0.0028
3042.00,0.0029
3041.00,0.0029
3040.00,0.0030
3039.00,0.0030
3038.00,0.0030
3037.00,0.0031
3036.00,0.0031
3035.00,0.0031
3034.00,0.0031
3033.00,0.0032
3032.00,0.0032
3031.00,0.0033
3030.00,0.0033
3029.00,0.0033
3028.00,0.0034
3027.00,0.0034
3026.00,0.0035
3025.00,0.0036
3024.00,0.0037
3023.00,0.0038
3022.00,0.0038
3021.00,0.0039
3020.00,0.0040
3019.00,0.0041
3018.00,0.0042
3017.00,0.0042
3016.00,0.0043
3015.00,0.0044
3014.00,0.0045
3013.00,0.0046
3012.00,0.0048
3011.00,0.0049
3010.00,0.0050
3009.00,0.0052
3008.00,0.0053
3007.00,0.0055
3006.00,0.0056
3005.00,0.0058
3004.00,0.0060
3003.00,0.0062
3002.00,0.0065
3001.00,0.0067
3000.00,0.0070
2999.00,0.0072
2998.00,0.0076
2997.00,0.0079
2996.00,0.0083
2995.00,0.0087
2994.00,0.0091
2993.00,0.0096
2992.00,0.0101
2991.00,0.0107
2990.00,0.0114
2989.00,0.0122
2988.00,0.0130
2987.00,0.0139
2986.00,0.0149
2985.00,0.0160
2984.00,0.0173
2983.00,0.0187
2982.00,0.0203
2981.00,0.0222
2980.00,0.0243
2979.00,0.0267
2978.00,0.0294
2977.00,0.0325
2976.00,0.0361
2975.00,0.0402
2974.00,0.0449
2973.00,0.0503
2972.00,0.0565
2971.00,0.0634
2970.00,0.0712
2969.00,0.0799
2968.00,0.0894
2967.00,0.0998
2966.00,0.1109
2965.00,0.1226
2964.00,0.1344
2963.00,0.1458
2962.00,0.1562
2961.00,0.1650
2960.00,0.1718
2959.00,0.1767
2958.00,0.1798
2957.00,0.1821
2956.00,0.1840
2955.00,0.1864
2954.00,0.1892
2953.00,0.1922
2952.00,0.1945
2951.00,0.1951
2950.00,0.1932
2949.00,0.1880
2948.00,0.1797
2947.00,0.1689
2946.00,0.1565
2945.00,0.1438
2944.00,0.1320
2943.00,0.1219
2942.00,0.1142
2941.00,0.1088
2940.00,0.1058
2939.00,0.1049
2938.00,0.1059
2937.00,0.1086
2936.00,0.1128
2935.00,0.1184
2934.00,0.1252
2933.00,0.1333
2932.00,0.1423
2931.00,0.1521
2930.00,0.1623
2929.00,0.1728
2928.00,0.1831
2927.00,0.1931
2926.00,0.2025
2925.00,0.2114
2924.00,0.2199
2923.00,0.2280
2922.00,0.2358
2921.00,0.2430
2920.00,0.2492
2919.00,0.2536
2918.00,0.2555
2917.00,0.2544
2916.00,0.2503
2915.00,0.2439
2914.00,0.2360
2913.00,0.2276
2912.00,0.2196
2911.00,0.2124
2910.00,0.2061
2909.00,0.2006
2908.00,0.1955
2907.00,0.1906
2906.00,0.1854
2905.00,0.1797
2904.00,0.1736
2903.00,0.1672
2902.00,0.1606
2901.00,0.1540
2900.00,0.1475
2899.00,0.1412
2898.00,0.1353
2897.00,0.1299
2896.00,0.1250
2895.00,0.1207
2894.00,0.1170
2893.00,0.1140
2892.00,0.1115
2891.00,0.1096
2890.00,0.1082
2889.00,0.1072
2888.00,0.1065
2887.00,0.1061
2886.00,0.1061
2885.00,0.1064
2884.00,0.1071
2883.00,0.1082
2882.00,0.1096
2881.00,0.1111
2880.00,0.1126
2879.00,0.1136
2878.00,0.1141
2877.00,0.1139
2876.00,0.1132
2875.00,0.1123
2874.00,0.1118
2873.00,0.1119
2872.00,0.1127
2871.00,0.1142
2870.00,0.1159
2869.00,0.1175
2868.00,0.1182
2867.00,0.1176
2866.00,0.1151
2865.00,0.1105
2864.00,0.1043
2863.00,0.0973
2862.00,0.0904
2861.00,0.0844
2860.00,0.0798
2859.00,0.0768
2858.00,0.0751
2857.00,0.0746
2856.00,0.0750
2855.00,0.0761
2854.00,0.0776
2853.00,0.0794
2852.00,0.0814
2851.00,0.0833
2850.00,0.0849
2849.00,0.0865
2848.00,0.0882
2847.00,0.0904
2846.00,0.0936
2845.00,0.0978
2844.00,0.1030
2843.00,0.1089
2842.00,0.1150
2841.00,0.1206
2840.00,0.1248
2839.00,0.1269
2838.00,0.1261
2837.00,0.1221
2836.00,0.1150
2835.00,0.1055
2834.00,0.0947
2833.00,0.0836
2832.00,0.0731
2831.00,0.0639
2830.00,0.0561
2829.00,0.0497
2828.00,0.0445
2827.00,0.0403
2826.00,0.0368
2825.00,0.0340
2824.00,0.0316
2823.00,0.0296
2822.00,0.0278
2821.00,0.0263
2820.00,0.0250
2819.00,0.0238
2818.00,0.0228
2817.00,0.0219
2816.00,0.0211
2815.00,0.0204
2814.00,0.0197
2813.00,0.0191
2812.00,0.0185
2811.00,0.0180
2810.00,0.0174
2809.00,0.0169
2808.00,0.0164
2807.00,0.0158
2806.00,0.0152
2805.00,0.0146
2804.00,0.0140
2803.00,0.0134
2802.00,0.0129
2801.00,0.0124
2800.00,0.0120
2799.00,0.0117
2798.00,0.0115
2797.00,0.0113
2796.00,0.0111
2795.00,0.0109
2794.00,0.0106
2793.00,0.0103
2792.00,0.0100
2791.00,0.0096
2790.00,0.0092
2789.00,0.0089
2788.00,0.0086
2787.00,0.0083
2786.00,0.0080
2785.00,0.0077
2784.00,0.0074
2783.00,0.0071
2782.00,0.0069
2781.00,0.0067
2780.00,0.0065
2779.00,0.0063
2778.00,0.0062
2777.00,0.0060
2776.00,0.0059
2775.00,0.0058
2774.00,0.0056
2773.00,0.0056
2772.00,0.0055
2771.00,0.0055
2770.00,0.0055
2769.00,0.0055
2768.00,0.0055
2767.00,0.0054
2766.00,0.0054
2765.00,0.0053
2764.00,0.0053
2763.00,0.0052
2762.00,0.0052
2761.00,0.0052
2760.00,0.0052
2759.00,0.0051
2758.00,0.0051
2757.00,0.0050
2756.00,0.0050
2755.00,0.0050
2754.00,0.0050
2753.00,0.0049
2752.00,0.0049
2751.00,0.0049
2750.00,0.0049
2749.00,0.0050
2748.00,0.0050
2747.00,0.0051
2746.00,0.0051
2745.00,0.0052
2744.00,0.0052
2743.00,0.0053
2742.00,0.0054
2741.00,0.0055
2740.00,0.0057
2739.00,0.0058
2738.00,0.0059
2737.00,0.0060
2736.00,0.0061
2735.00,0.0062
2734.00,0.0064
2733.00,0.0065
2732.00,0.0067
2731.00,0.0069
2730.00,0.0071
2729.00,0.0073
2728.00,0.0075
2727.00,0.0078
2726.00,0.0080
2725.00,0.0083
2724.00,0.0084
2723.00,0.0084
2722.00,0.0084
2721.00,0.0082
2720.00,0.0080
2719.00,0.0077
2718.00,0.0074
2717.00,0.0071
2716.00,0.0068
2715.00,0.0066
2714.00,0.0063
2713.00,0.0061
2712.00,0.0059
2711.00,0.0057
2710.00,0.0056
2709.00,0.0055
2708.00,0.0054
2707.00,0.0052
2706.00,0.0051
2705.00,0.0050
2704.00,0.0049
2703.00,0.0048
2702.00,0.0047
2701.00,0.0046
2700.00,0.0046
2699.00,0.0045
2698.00,0.0045
2697.00,0.0045
2696.00,0.0045
2695.00,0.0045
2694.00,0.0045
2693.00,0.0045
2692.00,0.0045
2691.00,0.0045
2690.00,0.0045
2689.00,0.0045
2688.00,0.0044
2687.00,0.0044
2686.00,0.0044
2685.00,0.0044
2684.00,0.0044
2683.00,0.0045
2682.00,0.0045
2681.00,0.0045
2680.00,0.0045
2679.00,0.0045
2678.00,0.0045
2677.00,0.0045
2676.00,0.0045
2675.00,0.0044
2674.00,0.0044
2673.00,0.0044
2672.00,0.0044
2671.00,0.0044
2670.00,0.0044
2669.00,0.0044
2668.00,0.0043
2667.00,0.0044
2666.00,0.0044
2665.00,0.0045
2664.00,0.0045
2663.00,0.0046
2662.00,0.0046
2661.00,0.0047
2660.00,0.0047
2659.00,0.0047
2658.00,0.0047
2657.00,0.0046
2656.00,0.0046
2655.00,0.0045
2654.00,0.0045
2653.00,0.0044
2652.00,0.0043
2651.00,0.0043
2650.00,0.0042
2649.00,0.0042
2648.00,0.0042
2647.00,0.0042
2646.00,0.0042
2645.00,0.0042
2644.00,0.0041
2643.00,0.0041
2642.00,0.0041
2641.00,0.0040
2640.00,0.0040
2639.00,0.0040
2638.00,0.0039
2637.00,0.0038
2636.00,0.0038
2635.00,0.0038
2634.00,0.0038
2633.00,0.0038
2632.00,0.0038
2631.00,0.0038
2630.00,0.0038
2629.00,0.0038
2628.00,0.0039
2627.00,0.0039
2626.00,0.0039
2625.00,0.0040
2624.00,0.0040
2623.00,0.0040
2622.00,0.0041
2621.00,0.0041
2620.00,0.0041
2619.00,0.0040
2618.00,0.0040
2617.00,0.0040
2616.00,0.0040
2615.00,0.0040
2614.00,0.0039
2613.00,0.0039
2612.00,0.0039
2611.00,0.0038
2610.00,0.0037
2609.00,0.0036
2608.00,0.0035
2607.00,0.0034
2606.00,0.0034
2605.00,0.0033
2604.00,0.0032
2603.00,0.0032
2602.00,0.0031
2601.00,0.0031
2600.00,0.0030
2599.00,0.0030
2598.00,0.0030
2597.00,0.0030
2596.00,0.0030
2595.00,0.0030
2594.00,0.0031
2593.00,0.0031
2592.00,0.0031
2591.00,0.0032
2590.00,0.0032
2589.00,0.0033
2588.00,0.0034
2587.00,0.0035
2586.00,0.0036
2585.00,0.0037
2584.00,0.0038
2583.00,0.0038
2582.00,0.0037
2581.00,0.0037
2580.00,0.0036
2579.00,0.0035
2578.00,0.0035
2577.00,0.0034
2576.00,0.0033
2575.00,0.0031
2574.00,0.0030
2573.00,0.0028
2572.00,0.0027
2571.00,0.0026
2570.00,0.0026
2569.00,0.0025
2568.00,0.0025
2567.00,0.0025
2566.00,0.0025
2565.00,0.0025
2564.00,0.0024
2563.00,0.0024
2562.00,0.0023
2561.00,0.0022
2560.00,0.0022
2559.00,0.0022
2558.00,0.0022
2557.00,0.0022
2556.00,0.0022
2555.00,0.0022
2554.00,0.0022
2553.00,0.0021
2552.00,0.0021
2551.00,0.0021
2550.00,0.0021
2549.00,0.0021
2548.00,0.0020
2547.00,0.0019
2546.00,0.0019
2545.00,0.0018
2544.00,0.0018
2543.00,0.0018
2542.00,0.0018
2541.00,0.0018
2540.00,0.0018
2539.00,0.0018
2538.00,0.0017
2537.00,0.0017
2536.00,0.0016
2535.00,0.0016
2534.00,0.0015
2533.00,0.0015
2532.00,0.0014
2531.00,0.0014
2530.00,0.0014
2529.00,0.0013
2528.00,0.0013
2527.00,0.0012
2526.00,0.0012
2525.00,0.0012
2524.00,0.0011
2523.00,0.0011
2522.00,0.0011
2521.00,0.0011
2520.00,0.0011
2519.00,0.0011
2518.00,0.0011
2517.00,0.0011
2516.00,0.0011
2515.00,0.0011
2514.00,0.0011
2513.00,0.0011
2512.00,0.0011
2511.00,0.0011
2510.00,0.0011
2509.00,0.0011
2508.00,0.0011
2507.00,0.0011
2506.00,0.0012
2505.00,0.0011
2504.00,0.0011
2503.00,0.0010
2502.00,0.0010
2501.00,0.0009
2500.00,0.0009
2499.00,0.0009
2498.00,0.0009
2497.00,0.0010
2496.00,0.0009
2495.00,0.0009
2494.00,0.0008
2493.00,0.0008
2492.00,0.0008
2491.00,0.0008
2490.00,0.0009
2489.00,0.0009
2488.00,0.0010
2487.00,0.0010
2486.00,0.0010
2485.00,0.0010
2484.00,0.0009
2483.00,0.0009
2482.00,0.0009
2481.00,0.0009
2480.00,0.0009
2479.00,0.0009
2478.00,0.0009
2477.00,0.0009
2476.00,0.0009
2475.00,0.0008
2474.00,0.0008
2473.00,0.0008
2472.00,0.0008
2471.00,0.0008
2470.00,0.0008
2469.00,0.0008
2468.00,0.0008
2467.00,0.0008
2466.00,0.0008
2465.00,0.0008
2464.00,0.0009
2463.00,0.0010
2462.00,0.0010
2461.00,0.0010
2460.00,0.0010
2459.00,0.0010
2458.00,0.0010
2457.00,0.0011
2456.00,0.0011
2455.00,0.0011
2454.00,0.0011
2453.00,0.0011
2452.00,0.0011
2451.00,0.0011
2450.00,0.0011
2449.00,0.0010
2448.00,0.0010
2447.00,0.0009
2446.00,0.0009
2445.00,0.0009
2444.00,0.0009
2443.00,0.0010
2442.00,0.0010
2441.00,0.0011
2440.00,0.0011
2439.00,0.0011
2438.00,0.0011
2437.00,0.0011
2436.00,0.0011
2435.00,0.0012
2434.00,0.0012
2433.00,0.0012
2432.00,0.0012
2431.00,0.0012
2430.00,0.0012
2429.00,0.0012
2428.00,0.0012
2427.00,0.0012
2426.00,0.0012
2425.00,0.0012
2424.00,0.0012
2423.00,0.0011
2422.00,0.0010
2421.00,0.0010
2420.00,0.0009
2419.00,0.0009
2418.00,0.0008
2417.00,0.0008
2416.00,0.0009
2415.00,0.0009
2414.00,0.0009
2413.00,0.0009
2412.00,0.0009
2411.00,0.0009
2410.00,0.0009
2409.00,0.0009
2408.00,0.0008
2407.00,0.0008
2406.00,0.0007
2405.00,0.0007
2404.00,0.0008
2403.00,0.0008
2402.00,0.0008
2401.00,0.0008
2400.00,0.0008
2399.00,0.0008
2398.00,0.0008
2397.00,0.0008
2396.00,0.0008
2395.00,0.0007
2394.00,0.0007
2393.00,0.0006
2392.00,0.0006
2391.00,0.0007
2390.00,0.0007
2389.00,0.0007
2388.00,0.0006
2387.00,0.0006
2386.00,0.0005
2385.00,0.0004
2384.00,0.0004
2383.00,0.0003
2382.00,0.0003
2381.00,0.0002
2380.00,0.0001
2379.00,0.0001
2378.00,0.0001
2377.00,0.0001
2376.00,0.0001
2375.00,0.0000
2374.00,0.0000
2373.00,0.0000
2372.00,0.0001
2371.00,0.0001
2370.00,0.0001
2369.00,0.0001
2368.00,-0.0000
2367.00,-0.0001
2366.00,-0.0002
2365.00,-0.0002
2364.00,-0.0001
2363.00,-0.0001
2362.00,0.0000
2361.00,0.0001
2360.00,0.0001
2359.00,0.0001
2358.00,0.0001
2357.00,0.0001
2356.00,0.0001
2355.00,0.0002
2354.00,0.0002
2353.00,0.0002
2352.00,0.0001
2351.00,0.0001
2350.00,0.0001
2349.00,0.0001
2348.00,0.0002
2347.00,0.0003
2346.00,0.0003
2345.00,0.0003
2344.00,0.0003
2343.00,0.0003
2342.00,0.0003
2341.00,0.0004
2340.00,0.0004
2339.00,0.0005
2338.00,0.0005
2337.00,0.0005
2336.00,0.0004
2335.00,0.0004
2334.00,0.0004
2333.00,0.0003
2332.00,0.0003
2331.00,0.0002
2330.00,0.0002
2329.00,0.0003
2328.00,0.0005
2327.00,0.0008
2326.00,0.0012
2325.00,0.0016
2324.00,0.0018
2323.00,0.0018
2322.00,0.0016
2321.00,0.0013
2320.00,0.0011
2319.00,0.0010
2318.00,0.0010
2317.00,0.0009
2316.00,0.0009
2315.00,0.0009
2314.00,0.0008
2313.00,0.0007
2312.00,0.0006
2311.00,0.0005
2310.00,0.0004
2309.00,0.0005
2308.00,0.0005
2307.00,0.0006
2306.00,0.0006
2305.00,0.0006
2304.00,0.0006
2303.00,0.0006
2302.00,0.0006
2301.00,0.0006
2300.00,0.0007
2299.00,0.0007
2298.00,0.0008
2297.00,0.0008
2296.00,0.0009
2295.00,0.0010
2294.00,0.0011
2293.00,0.0012
2292.00,0.0014
2291.00,0.0015
2290.00,0.0016
2289.00,0.0016
2288.00,0.0016
2287.00,0.0016
2286.00,0.0016
2285.00,0.0016
2284.00,0.0016
2283.00,0.0015
2282.00,0.0015
2281.00,0.0014
2280.00,0.0015
2279.00,0.0015
2278.00,0.0014
2277.00,0.0014
2276.00,0.0013
2275.00,0.0012
2274.00,0.0013
2273.00,0.0013
2272.00,0.0014
2271.00,0.0015
2270.00,0.0015
2269.00,0.0015
2268.00,0.0014
2267.00,0.0014
2266.00,0.0013
2265.00,0.0013
2264.00,0.0013
2263.00,0.0013
2262.00,0.0014
2261.00,0.0014
2260.00,0.0014
2259.00,0.0014
2258.00,0.0014
2257.00,0.0013
2256.00,0.0012
2255.00,0.0011
2254.00,0.0009
2253.00,0.0009
2252.00,0.0009
2251.00,0.0009
2250.00,0.0007
2249.00,0.0006
2248.00,0.0005
2247.00,0.0004
2246.00,0.0004
2245.00,0.0004
2244.00,0.0006
2243.00,0.0007
2242.00,0.0007
2241.00,0.0007
2240.00,0.0006
2239.00,0.0005
2238.00,0.0004
2237.00,0.0004
2236.00,0.0006
2235.00,0.0008
2234.00,0.0009
2233.00,0.0009
2232.00,0.0009
2231.00,0.0007
2230.00,0.0006
2229.00,0.0005
2228.00,0.0005
2227.00,0.0005
2226.00,0.0005
2225.00,0.0004
2224.00,0.0004
2223.00,0.0004
2222.00,0.0004
2221.00,0.0004
2220.00,0.0003
2219.00,0.0003
2218.00,0.0003
2217.00,0.0003
2216.00,0.0004
2215.00,0.0005
2214.00,0.0006
2213.00,0.0006
2212.00,0.0005
2211.00,0.0005
2210.00,0.0005
2209.00,0.0005
2208.00,0.0005
2207.00,0.0004
2206.00,0.0003
2205.00,0.0003
2204.00,0.0003
2203.00,0.0004
2202.00,0.0005
2201.00,0.0005
2200.00,0.0005
2199.00,0.0006
2198.00,0.0007
2197.00,0.0008
2196.00,0.0008
2195.00,0.0007
2194.00,0.0006
2193.00,0.0005
2192.00,0.0005
2191.00,0.0005
2190.00,0.0005
2189.00,0.0005
2188.00,0.0006
2187.00,0.0007
2186.00,0.0009
2185.00,0.0010
2184.00,0.0010
2183.00,0.0008
2182.00,0.0004
2181.00,0.0001
2180.00,-0.0001
2179.00,0.0000
2178.00,0.0002
2177.00,0.0004
2176.00,0.0004
2175.00,0.0004
2174.00,0.0003
2173.00,0.0003
2172.00,0.0004
2171.00,0.0006
2170.00,0.0007
2169.00,0.0009
2168.00,0.0010
2167.00,0.0011
2166.00,0.0011
2165.00,0.0011
2164.00,0.0012
2163.00,0.0013
2162.00,0.0014
2161.00,0.0011
2160.00,0.0003
2159.00,-0.0010
2158.00,-0.0021
2157.00,-0.0028
2156.00,-0.0029
2155.00,-0.0027
2154.00,-0.0024
2153.00,-0.0022
2152.00,-0.0019
2151.00,-0.0017
2150.00,-0.0015
2149.00,-0.0015
2148.00,-0.0015
2147.00,-0.0017
2146.00,-0.0017
2145.00,-0.0017
2144.00,-0.0016
2143.00,-0.0015
2142.00,-0.0013
2141.00,-0.0012
2140.00,-0.0010
2139.00,-0.0010
2138.00,-0.0012
2137.00,-0.0014
2136.00,-0.0017
2135.00,-0.0018
2134.00,-0.0018
2133.00,-0.0018
2132.00,-0.0017
2131.00,-0.0017
2130.00,-0.0015
2129.00,-0.0014
2128.00,-0.0012
2127.00,-0.0011
2126.00,-0.0010
2125.00,-0.0010
2124.00,-0.0008
2123.00,-0.0007
2122.00,-0.0006
2121.00,-0.0005
2120.00,-0.0005
2119.00,-0.0005
2118.00,-0.0004
2117.00,-0.0003
2116.00,-0.0002
2115.00,-0.0002
2114.00,-0.0002
2113.00,-0.0002
2112.00,-0.0002
2111.00,-0.0001
2110.00,-0.0001
2109.00,-0.0001
2108.00,-0.0001
2107.00,-0.0002
2106.00,-0.0002
2105.00,-0.0002
2104.00,-0.0001
2103.00,-0.0001
2102.00,-0.0000
2101.00,0.0000
2100.00,0.0001
2099.00,0.0000
2098.00,-0.0001
2097.00,-0.0003
2096.00,-0.0005
2095.00,-0.0006
2094.00,-0.0005
2093.00,-0.0004
2092.00,-0.0003
2091.00,-0.0003
2090.00,-0.0002
2089.00,-0.0002
2088.00,-0.0002
2087.00,-0.0001
2086.00,-0.0000
2085.00,0.0001
2084.00,0.0002
2083.00,0.0002
2082.00,0.0001
2081.00,-0.0000
2080.00,-0.0001
2079.00,-0.0001
2078.00,-0.0001
2077.00,-0.0000
2076.00,-0.0000
2075.00,-0.0001
2074.00,-0.0001
2073.00,-0.0001
2072.00,-0.0001
2071.00,-0.0001
2070.00,-0.0001
2069.00,-0.0001
2068.00,-0.0000
2067.00,0.0000
2066.00,0.0000
2065.00,0.0000
2064.00,-0.0001
2063.00,-0.0003
2062.00,-0.0005
2061.00,-0.0006
2060.00,-0.0005
2059.00,-0.0003
2058.00,-0.0001
2057.00,0.0001
2056.00,0.0002
2055.00,0.0002
2054.00,0.0002
2053.00,0.0004
2052.00,0.0008
2051.00,0.0011
2050.00,0.0011
2049.00,0.0009
2048.00,0.0005
2047.00,0.0002
2046.00,0.0000
2045.00,-0.0001
2044.00,-0.0001
2043.00,-0.0000
2042.00,0.0001
2041.00,0.0004
2040.00,0.0006
2039.00,0.0006
2038.00,0.0004
2037.00,0.0000
2036.00,-0.0002
2035.00,-0.0003
2034.00,-0.0004
2033.00,-0.0006
2032.00,-0.0010
2031.00,-0.0013
2030.00,-0.0013
2029.00,-0.0012
2028.00,-0.0009
2027.00,-0.0008
2026.00,-0.0008
2025.00,-0.0010
2024.00,-0.0012
2023.00,-0.0014
2022.00,-0.0014
2021.00,-0.0012
2020.00,-0.0009
2019.00,-0.0006
2018.00,-0.0005
2017.00,-0.0004
2016.00,-0.0004
2015.00,-0.0006
2014.00,-0.0008
2013.00,-0.0010
2012.00,-0.0009
2011.00,-0.0009
2010.00,-0.0010
2009.00,-0.0012
2008.00,-0.0015
2007.00,-0.0017
2006.00,-0.0018
2005.00,-0.0016
2004.00,-0.0012
2003.00,-0.0008
2002.00,-0.0005
2001.00,-0.0003
2000.00,-0.0003
1999.00,-0.0005
1998.00,-0.0007
1997.00,-0.0010
1996.00,-0.0012
1995.00,-0.0012
1994.00,-0.0011
1993.00,-0.0010
1992.00,-0.0008
1991.00,-0.0008
1990.00,-0.0007
1989.00,-0.0006
1988.00,-0.0004
1987.00,-0.0004
1986.00,-0.0004
1985.00,-0.0004
1984.00,-0.0002
1983.00,0.0002
1982.00,0.0007
1981.00,0.0010
1980.00,0.0010
1979.00,0.0006
1978.00,-0.0000
1977.00,-0.0006
1976.00,-0.0009
1975.00,-0.0010
1974.00,-0.0010
1973.00,-0.0010
1972.00,-0.0010
1971.00,-0.0011
1970.00,-0.0012
1969.00,-0.0014
1968.00,-0.0015
1967.00,-0.0017
1966.00,-0.0018
1965.00,-0.0017
1964.00,-0.0015
1963.00,-0.0014
1962.00,-0.0013
1961.00,-0.0014
1960.00,-0.0016
1959.00,-0.0017
1958.00,-0.0018
1957.00,-0.0019
1956.00,-0.0019
1955.00,-0.0018
1954.00,-0.0017
1953.00,-0.0016
1952.00,-0.0016
1951.00,-0.0017
1950.00,-0.0019
1949.00,-0.0019
1948.00,-0.0018
1947.00,-0.0017
1946.00,-0.0017
1945.00,-0.0016
1944.00,-0.0016
1943.00,-0.0016
1942.00,-0.0016
1941.00,-0.0015
1940.00,-0.0014
1939.00,-0.0013
1938.00,-0.0012
1937.00,-0.0011
1936.00,-0.0011
1935.00,-0.0011
1934.00,-0.0011
1933.00,-0.0012
1932.00,-0.0012
1931.00,-0.0011
1930.00,-0.0011
1929.00,-0.0010
1928.00,-0.0010
1927.00,-0.0010
1926.00,-0.0011
1925.00,-0.0011
1924.00,-0.0011
1923.00,-0.0009
1922.00,-0.0007
1921.00,-0.0006
1920.00,-0.0005
1919.00,-0.0005
1918.00,-0.0005
1917.00,-0.0006
1916.00,-0.0006
1915.00,-0.0007
1914.00,-0.0007
1913.00,-0.0007
1912.00,-0.0006
1911.00,-0.0006
1910.00,-0.0007
1909.00,-0.0008
1908.00,-0.0008
1907.00,-0.0008
1906.00,-0.0007
1905.00,-0.0005
1904.00,-0.0003
1903.00,-0.0002
1902.00,-0.0002
1901.00,-0.0003
1900.00,-0.0003
1899.00,-0.0003
1898.00,-0.0002
1897.00,-0.0001
1896.00,-0.0000
1895.00,-0.0000
1894.00,-0.0001
1893.00,-0.0001
1892.00,-0.0001
1891.00,-0.0000
1890.00,0.0000
1889.00,0.0001
1888.00,0.0000
1887.00,-0.0000
1886.00,-0.0001
1885.00,-0.0001
1884.00,-0.0001
1883.00,-0.0000
1882.00,0.0000
1881.00,-0.0000
1880.00,-0.0001
1879.00,-0.0003
1878.00,-0.0004
1877.00,-0.0004
1876.00,-0.0004
1875.00,-0.0003
1874.00,-0.0003
1873.00,-0.0002
1872.00,-0.0001
1871.00,-0.0001
1870.00,-0.0001
1869.00,-0.0001
1868.00,-0.0001
1867.00,-0.0002
1866.00,-0.0003
1865.00,-0.0003
1864.00,-0.0002
1863.00,-0.0002
1862.00,-0.0001
1861.00,-0.0000
1860.00,0.0000
1859.00,0.0001
1858.00,0.0000
1857.00,-0.0000
1856.00,-0.0000
1855.00,-0.0000
1854.00,-0.0000
1853.00,0.0000
1852.00,0.0000
1851.00,0.0000
1850.00,-0.0000
1849.00,-0.0001
1848.00,-0.0001
1847.00,-0.0001
1846.00,-0.0001
1845.00,0.0000
1844.00,0.0001
1843.00,0.0001
1842.00,0.0001
1841.00,0.0001
1840.00,0.0001
1839.00,0.0001
1838.00,0.0001
1837.00,0.0000
1836.00,0.0000
1835.00,0.0000
1834.00,0.0000
1833.00,0.0001
1832.00,0.0001
1831.00,0.0001
1830.00,0.0001
1829.00,0.0001
1828.00,0.0002
1827.00,0.0002
1826.00,0.0002
1825.00,0.0002
1824.00,0.0002
1823.00,0.0003
1822.00,0.0003
1821.00,0.0002
1820.00,0.0001
1819.00,0.0000
1818.00,-0.0001
1817.00,-0.0001
1816.00,-0.0001
1815.00,-0.0000
1814.00,0.0000
1813.00,0.0001
1812.00,0.0001
1811.00,0.0001
1810.00,0.0001
1809.00,0.0002
1808.00,0.0002
1807.00,0.0003
1806.00,0.0004
1805.00,0.0004
1804.00,0.0003
1803.00,0.0003
1802.00,0.0002
1801.00,0.0003
1800.00,0.0003
1799.00,0.0004
1798.00,0.0005
1797.00,0.0006
1796.00,0.0006
1795.00,0.0005
1794.00,0.0005
1793.00,0.0004
1792.00,0.0004
1791.00,0.0004
1790.00,0.0004
1789.00,0.0005
1788.00,0.0005
1787.00,0.0006
1786.00,0.0006
1785.00,0.0005
1784.00,0.0005
1783.00,0.0005
1782.00,0.0005
1781.00,0.0005
1780.00,0.0005
1779.00,0.0006
1778.00,0.0006
1777.00,0.0006
1776.00,0.0006
1775.00,0.0006
1774.00,0.0006
1773.00,0.0006
1772.00,0.0006
1771.00,0.0007
1770.00,0.0007
1769.00,0.0008
1768.00,0.0008
1767.00,0.0008
1766.00,0.0008
1765.00,0.0008
1764.00,0.0008
1763.00,0.0009
1762.00,0.0010
1761.00,0.0010
1760.00,0.0010
1759.00,0.0010
1758.00,0.0010
1757.00,0.0010
1756.00,0.0010
1755.00,0.0011
1754.00,0.0011
1753.00,0.0012
1752.00,0.0012
1751.00,0.0013
1750.00,0.0013
1749.00,0.0014
1748.00,0.0015
1747.00,0.0016
1746.00,0.0017
1745.00,0.0018
1744.00,0.0020
1743.00,0.0021
1742.00,0.0021
1741.00,0.0021
1740.00,0.0022
1739.00,0.0022
1738.00,0.0022
1737.00,0.0022
1736.00,0.0022
1735.00,0.0023
1734.00,0.0023
1733.00,0.0023
1732.00,0.0023
1731.00,0.0023
1730.00,0.0023
1729.00,0.0023
1728.00,0.0023
1727.00,0.0023
1726.00,0.0023
1725.00,0.0024
1724.00,0.0024
1723.00,0.0024
1722.00,0.0023
1721.00,0.0023
1720.00,0.0023
1719.00,0.0023
1718.00,0.0022
1717.00,0.0022
1716.00,0.0022
1715.00,0.0021
1714.00,0.0020
1713.00,0.0019
1712.00,0.0019
1711.00,0.0019
1710.00,0.0019
1709.00,0.0019
1708.00,0.0020
1707.00,0.0020
1706.00,0.0019
1705.00,0.0019
1704.00,0.0019
1703.00,0.0019
1702.00,0.0019
1701.00,0.0020
1700.00,0.0020
1699.00,0.0020
1698.00,0.0020
1697.00,0.0021
1696.00,0.0021
1695.00,0.0021
1694.00,0.0021
1693.00,0.0021
1692.00,0.0021
1691.00,0.0022
1690.00,0.0022
1689.00,0.0023
1688.00,0.0023
1687.00,0.0023
1686.00,0.0023
1685.00,0.0023
1684.00,0.0023
1683.00,0.0023
1682.00,0.0023
1681.00,0.0024
1680.00,0.0024
1679.00,0.0024
1678.00,0.0024
1677.00,0.0025
1676.00,0.0025
1675.00,0.0025
1674.00,0.0025
1673.00,0.0026
1672.00,0.0026
1671.00,0.0026
1670.00,0.0027
1669.00,0.0027
1668.00,0.0028
1667.00,0.0028
1666.00,0.0028
1665.00,0.0029
1664.00,0.0029
1663.00,0.0029
1662.00,0.0029
1661.00,0.0029
1660.00,0.0030
1659.00,0.0030
1658.00,0.0030
1657.00,0.0030
1656.00,0.0031
1655.00,0.0031
1654.00,0.0031
1653.00,0.0032
1652.00,0.0032
1651.00,0.0033
1650.00,0.0033
1649.00,0.0033
1648.00,0.0034
1647.00,0.0035
1646.00,0.0036
1645.00,0.0036
1644.00,0.0037
1643.00,0.0037
1642.00,0.0038
1641.00,0.0038
1640.00,0.0039
1639.00,0.0040
1638.00,0.0040
1637.00,0.0041
1636.00,0.0042
1635.00,0.0042
1634.00,0.0041
1633.00,0.0040
1632.00,0.0040
1631.00,0.0039
1630.00,0.0039
1629.00,0.0038
1628.00,0.0038
1627.00,0.0037
1626.00,0.0036
1625.00,0.0036
1624.00,0.0036
1623.00,0.0036
1622.00,0.0035
1621.00,0.0035
1620.00,0.0035
1619.00,0.0035
1618.00,0.0036
1617.00,0.0036
1616.00,0.0036
1615.00,0.0036
1614.00,0.0036
1613.00,0.0036
1612.00,0.0036
1611.00,0.0036
1610.00,0.0036
1609.00,0.0036
1608.00,0.0036
1607.00,0.0036
1606.00,0.0035
1605.00,0.0035
1604.00,0.0035
1603.00,0.0035
1602.00,0.0034
1601.00,0.0035
1600.00,0.0035
1599.00,0.0035
1598.00,0.0035
1597.00,0.0035
1596.00,0.0035
1595.00,0.0035
1594.00,0.0035
1593.00,0.0035
1592.00,0.0035
1591.00,0.0036
1590.00,0.0036
1589.00,0.0036
1588.00,0.0036
1587.00,0.0037
1586.00,0.0037
1585.00,0.0038
1584.00,0.0038
1583.00,0.0039
1582.00,0.0039
1581.00,0.0040
1580.00,0.0040
1579.00,0.0041
1578.00,0.0042
1577.00,0.0043
1576.00,0.0043
1575.00,0.0042
1574.00,0.0042
1573.00,0.0042
1572.00,0.0042
1571.00,0.0042
1570.00,0.0042
1569.00,0.0041
1568.00,0.0042
1567.00,0.0042
1566.00,0.0042
1565.00,0.0042
1564.00,0.0042
1563.00,0.0042
1562.00,0.0041
1561.00,0.0041
1560.00,0.0042
1559.00,0.0042
1558.00,0.0042
1557.00,0.0042
1556.00,0.0043
1555.00,0.0043
1554.00,0.0043
1553.00,0.0043
1552.00,0.0044
1551.00,0.0044
1550.00,0.0044
1549.00,0.0045
1548.00,0.0045
1547.00,0.0045
1546.00,0.0046
1545.00,0.0046
1544.00,0.0047
1543.00,0.0047
1542.00,0.0047
1541.00,0.0047
1540.00,0.0046
1539.00,0.0045
1538.00,0.0044
1537.00,0.0043
1536.00,0.0043
1535.00,0.0043
1534.00,0.0042
1533.00,0.0041
1532.00,0.0041
1531.00,0.0041
1530.00,0.0041
1529.00,0.0041
1528.00,0.0042
1527.00,0.0041
1526.00,0.0041
1525.00,0.0041
1524.00,0.0042
1523.00,0.0042
1522.00,0.0041
1521.00,0.0041
1520.00,0.0041
1519.00,0.0042
1518.00,0.0042
1517.00,0.0043
1516.00,0.0044
1515.00,0.0045
1514.00,0.0045
1513.00,0.0046
1512.00,0.0047
1511.00,0.0047
1510.00,0.0047
1509.00,0.0048
1508.00,0.0049
1507.00,0.0049
1506.00,0.0050
1505.00,0.0052
1504.00,0.0054
1503.00,0.0055
1502.00,0.0057
1501.00,0.0059
1500.00,0.0061
1499.00,0.0063
1498.00,0.0064
1497.00,0.0066
1496.00,0.0069
1495.00,0.0072
1494.00,0.0074
1493.00,0.0077
1492.00,0.0080
1491.00,0.0083
1490.00,0.0087
1489.00,0.0092
1488.00,0.0097
1487.00,0.0100
1486.00,0.0104
1485.00,0.0110
1484.00,0.0116
1483.00,0.0123
1482.00,0.0131
1481.00,0.0141
1480.00,0.0152
1479.00,0.0164
1478.00,0.0179
1477.00,0.0199
1476.00,0.0224
1475.00,0.0254
1474.00,0.0293
1473.00,0.0348
1472.00,0.0414
1471.00,0.0479
1470.00,0.0541
1469.00,0.0606
1468.00,0.0676
1467.00,0.0752
1466.00,0.0837
1465.00,0.0928
1464.00,0.1008
1463.00,0.1065
1462.00,0.1102
1461.00,0.1128
1460.00,0.1147
1459.00,0.1161
1458.00,0.1173
1457.00,0.1185
1456.00,0.1190
1455.00,0.1188
1454.00,0.1181
1453.00,0.1168
1452.00,0.1145
1451.00,0.1112
1450.00,0.1063
1449.00,0.0995
1448.00,0.0906
1447.00,0.0809
1446.00,0.0720
1445.00,0.0643
1444.00,0.0575
1443.00,0.0519
1442.00,0.0476
1441.00,0.0445
1440.00,0.0425
1439.00,0.0414
1438.00,0.0410
1437.00,0.0406
1436.00,0.0394
1435.00,0.0369
1434.00,0.0336
1433.00,0.0296
1432.00,0.0253
1431.00,0.0216
1430.00,0.0186
1429.00,0.0164
1428.00,0.0148
1427.00,0.0138
1426.00,0.0132
1425.00,0.0126
1424.00,0.0120
1423.00,0.0116
1422.00,0.0114
1421.00,0.0111
1420.00,0.0107
1419.00,0.0105
1418.00,0.0103
1417.00,0.0101
1416.00,0.0099
1415.00,0.0098
1414.00,0.0098
1413.00,0.0097
1412.00,0.0096
1411.00,0.0096
1410.00,0.0096
1409.00,0.0095
1408.00,0.0094
1407.00,0.0095
1406.00,0.0096
1405.00,0.0096
1404.00,0.0095
1403.00,0.0096
1402.00,0.0098
1401.00,0.0099
1400.00,0.0101
1399.00,0.0103
1398.00,0.0105
1397.00,0.0107
1396.00,0.0109
1395.00,0.0113
1394.00,0.0118
1393.00,0.0123
1392.00,0.0129
1391.00,0.0136
1390.00,0.0147
1389.00,0.0161
1388.00,0.0182
1387.00,0.0214
1386.00,0.0257
1385.00,0.0315
1384.00,0.0393
1383.00,0.0501
1382.00,0.0644
1381.00,0.0825
1380.00,0.1043
1379.00,0.1284
1378.00,0.1509
1377.00,0.1666
1376.00,0.1708
1375.00,0.1612
1374.00,0.1405
1373.00,0.1163
1372.00,0.0942
1371.00,0.0760
1370.00,0.0615
1369.00,0.0505
1368.00,0.0428
1367.00,0.0380
1366.00,0.0353
1365.00,0.0342
1364.00,0.0343
1363.00,0.0354
1362.00,0.0372
1361.00,0.0391
1360.00,0.0406
1359.00,0.0410
1358.00,0.0400
1357.00,0.0377
1356.00,0.0345
1355.00,0.0309
1354.00,0.0274
1353.00,0.0245
1352.00,0.0221
1351.00,0.0201
1350.00,0.0184
1349.00,0.0170
1348.00,0.0159
1347.00,0.0149
1346.00,0.0141
1345.00,0.0134
1344.00,0.0129
1343.00,0.0124
1342.00,0.0120
1341.00,0.0117
1340.00,0.0114
1339.00,0.0112
1338.00,0.0110
1337.00,0.0110
1336.00,0.0111
1335.00,0.0113
1334.00,0.0116
1333.00,0.0119
1332.00,0.0123
1331.00,0.0126
1330.00,0.0127
1329.00,0.0125
1328.00,0.0122
1327.00,0.0118
1326.00,0.0113
1325.00,0.0108
1324.00,0.0103
1323.00,0.0098
1322.00,0.0094
1321.00,0.0091
1320.00,0.0089
1319.00,0.0088
1318.00,0.0087
1317.00,0.0085
1316.00,0.0085
1315.00,0.0084
1314.00,0.0084
1313.00,0.0085
1312.00,0.0087
1311.00,0.0089
1310.00,0.0094
1309.00,0.0102
1308.00,0.0113
1307.00,0.0126
1306.00,0.0140
1305.00,0.0149
1304.00,0.0151
1303.00,0.0147
1302.00,0.0140
1301.00,0.0132
1300.00,0.0127
1299.00,0.0124
1298.00,0.0122
1297.00,0.0120
1296.00,0.0119
1295.00,0.0116
1294.00,0.0112
1293.00,0.0108
1292.00,0.0104
1291.00,0.0099
1290.00,0.0095
1289.00,0.0092
1288.00,0.0089
1287.00,0.0086
1286.00,0.0084
1285.00,0.0083
1284.00,0.0081
1283.00,0.0079
1282.00,0.0078
1281.00,0.0077
1280.00,0.0076
1279.00,0.0075
1278.00,0.0075
1277.00,0.0075
1276.00,0.0075
1275.00,0.0074
1274.00,0.0075
1273.00,0.0075
1272.00,0.0076
1271.00,0.0076
1270.00,0.0077
1269.00,0.0078
1268.00,0.0080
1267.00,0.0082
1266.00,0.0085
1265.00,0.0088
1264.00,0.0090
1263.00,0.0093
1262.00,0.0097
1261.00,0.0103
1260.00,0.0110
1259.00,0.0119
1258.00,0.0129
1257.00,0.0137
1256.00,0.0140
1255.00,0.0138
1254.00,0.0132
1253.00,0.0122
1252.00,0.0112
1251.00,0.0103
1250.00,0.0096
1249.00,0.0091
1248.00,0.0088
1247.00,0.0085
1246.00,0.0084
1245.00,0.0082
1244.00,0.0080
1243.00,0.0079
1242.00,0.0078
1241.00,0.0078
1240.00,0.0077
1239.00,0.0076
1238.00,0.0076
1237.00,0.0075
1236.00,0.0075
1235.00,0.0075
1234.00,0.0075
1233.00,0.0075
1232.00,0.0075
1231.00,0.0076
1230.00,0.0076
1229.00,0.0077
1228.00,0.0078
1227.00,0.0079
1226.00,0.0081
1225.00,0.0084
1224.00,0.0087
1223.00,0.0090
1222.00,0.0092
1221.00,0.0094
1220.00,0.0095
1219.00,0.0096
1218.00,0.0094
1217.00,0.0092
1216.00,0.0090
1215.00,0.0088
1214.00,0.0086
1213.00,0.0084
1212.00,0.0082
1211.00,0.0080
1210.00,0.0079
1209.00,0.0078
1208.00,0.0077
1207.00,0.0076
1206.00,0.0075
1205.00,0.0074
1204.00,0.0074
1203.00,0.0074
1202.00,0.0074
1201.00,0.0074
1200.00,0.0074
1199.00,0.0074
1198.00,0.0074
1197.00,0.0074
1196.00,0.0073
1195.00,0.0073
1194.00,0.0073
1193.00,0.0072
1192.00,0.0072
1191.00,0.0072
1190.00,0.0072
1189.00,0.0073
1188.00,0.0073
1187.00,0.0074
1186.00,0.0074
1185.00,0.0075
1184.00,0.0077
1183.00,0.0079
1182.00,0.0082
1181.00,0.0085
1180.00,0.0089
1179.00,0.0095
1178.00,0.0103
1177.00,0.0113
1176.00,0.0127
1175.00,0.0146
1174.00,0.0170
1173.00,0.0200
1172.00,0.0237
1171.00,0.0278
1170.00,0.0318
1169.00,0.0351
1168.00,0.0370
1167.00,0.0373
1166.00,0.0361
1165.00,0.0338
1164.00,0.0313
1163.00,0.0289
1162.00,0.0268
1161.00,0.0251
1160.00,0.0237
1159.00,0.0227
1158.00,0.0219
1157.00,0.0214
1156.00,0.0209
1155.00,0.0206
1154.00,0.0203
1153.00,0.0199
1152.00,0.0193
1151.00,0.0185
1150.00,0.0176
1149.00,0.0166
1148.00,0.0156
1147.00,0.0146
1146.00,0.0136
1145.00,0.0127
1144.00,0.0119
1143.00,0.0112
1142.00,0.0105
1141.00,0.0099
1140.00,0.0094
1139.00,0.0089
1138.00,0.0086
1137.00,0.0082
1136.00,0.0079
1135.00,0.0077
1134.00,0.0075
1133.00,0.0073
1132.00,0.0071
1131.00,0.0070
1130.00,0.0070
1129.00,0.0069
1128.00,0.0069
1127.00,0.0070
1126.00,0.0070
1125.00,0.0070
1124.00,0.0070
1123.00,0.0071
1122.00,0.0071
1121.00,0.0071
1120.00,0.0071
1119.00,0.0071
1118.00,0.0072
1117.00,0.0073
1116.00,0.0074
1115.00,0.0075
1114.00,0.0077
1113.00,0.0078
1112.00,0.0079
1111.00,0.0082
1110.00,0.0084
1109.00,0.0088
1108.00,0.0092
1107.00,0.0097
1106.00,0.0103
1105.00,0.0108
1104.00,0.0112
1103.00,0.0114
1102.00,0.0114
1101.00,0.0110
1100.00,0.0105
1099.00,0.0100
1098.00,0.0096
1097.00,0.0092
1096.00,0.0088
1095.00,0.0085
1094.00,0.0083
1093.00,0.0080
1092.00,0.0078
1091.00,0.0077
1090.00,0.0076
1089.00,0.0075
1088.00,0.0074
1087.00,0.0074
1086.00,0.0074
1085.00,0.0074
1084.00,0.0073
1083.00,0.0073
1082.00,0.0072
1081.00,0.0072
1080.00,0.0072
1079.00,0.0071
1078.00,0.0071
1077.00,0.0070
1076.00,0.0070
1075.00,0.0069
1074.00,0.0069
1073.00,0.0068
1072.00,0.0068
1071.00,0.0069
1070.00,0.0069
1069.00,0.0069
1068.00,0.0069
1067.00,0.0069
1066.00,0.0070
1065.00,0.0071
1064.00,0.0072
1063.00,0.0073
1062.00,0.0075
1061.00,0.0076
1060.00,0.0077
1059.00,0.0079
1058.00,0.0081
1057.00,0.0082
1056.00,0.0083
1055.00,0.0085
1054.00,0.0087
1053.00,0.0089
1052.00,0.0093
1051.00,0.0098
1050.00,0.0103
1049.00,0.0108
1048.00,0.0114
1047.00,0.0119
1046.00,0.0124
1045.00,0.0127
1044.00,0.0129
1043.00,0.0128
1042.00,0.0126
1041.00,0.0123
1040.00,0.0120
1039.00,0.0118
1038.00,0.0117
1037.00,0.0117
1036.00,0.0116
1035.00,0.0116
1034.00,0.0115
1033.00,0.0114
1032.00,0.0113
1031.00,0.0112
1030.00,0.0111
1029.00,0.0110
1028.00,0.0110
1027.00,0.0111
1026.00,0.0112
1025.00,0.0114
1024.00,0.0117
1023.00,0.0120
1022.00,0.0123
1021.00,0.0125
1020.00,0.0127
1019.00,0.0129
1018.00,0.0131
1017.00,0.0132
1016.00,0.0133
1015.00,0.0132
1014.00,0.0132
1013.00,0.0132
1012.00,0.0132
1011.00,0.0133
1010.00,0.0134
1009.00,0.0136
1008.00,0.0140
1007.00,0.0148
1006.00,0.0159
1005.00,0.0174
1004.00,0.0194
1003.00,0.0222
1002.00,0.0259
1001.00,0.0306
1000.00,0.0358
999.00,0.0403
998.00,0.0427
997.00,0.0422
996.00,0.0389
995.00,0.0339
994.00,0.0285
993.00,0.0238
992.00,0.0201
991.00,0.0174
990.00,0.0155
989.00,0.0143
988.00,0.0135
987.00,0.0130
986.00,0.0128
985.00,0.0129
984.00,0.0133
983.00,0.0140
982.00,0.0152
981.00,0.0169
980.00,0.0193
979.00,0.0225
978.00,0.0267
977.00,0.0318
976.00,0.0374
975.00,0.0429
974.00,0.0472
973.00,0.0490
972.00,0.0475
971.00,0.0430
970.00,0.0366
969.00,0.0300
968.00,0.0243
967.00,0.0200
966.00,0.0170
965.00,0.0149
964.00,0.0133
963.00,0.0121
962.00,0.0112
961.00,0.0105
960.00,0.0100
959.00,0.0096
958.00,0.0093
957.00,0.0090
956.00,0.0088
955.00,0.0085
954.00,0.0083
953.00,0.0080
952.00,0.0078
951.00,0.0077
950.00,0.0076
949.00,0.0075
948.00,0.0075
947.00,0.0075
946.00,0.0077
945.00,0.0080
944.00,0.0082
943.00,0.0085
942.00,0.0087
941.00,0.0088
940.00,0.0088
939.00,0.0086
938.00,0.0083
937.00,0.0078
936.00,0.0074
935.00,0.0070
934.00,0.0068
933.00,0.0066
932.00,0.0065
931.00,0.0064
930.00,0.0063
929.00,0.0061
928.00,0.0060
927.00,0.0060
926.00,0.0060
925.00,0.0061
924.00,0.0061
923.00,0.0061
922.00,0.0061
921.00,0.0060
920.00,0.0059
919.00,0.0059
918.00,0.0058
917.00,0.0059
916.00,0.0059
915.00,0.0059
914.00,0.0060
913.00,0.0060
912.00,0.0062
911.00,0.0064
910.00,0.0067
909.00,0.0070
908.00,0.0072
907.00,0.0076
906.00,0.0083
905.00,0.0092
904.00,0.0104
903.00,0.0119
902.00,0.0136
901.00,0.0151
900.00,0.0161
899.00,0.0162
898.00,0.0155
897.00,0.0142
896.00,0.0127
895.00,0.0112
894.00,0.0099
893.00,0.0089
892.00,0.0081
891.00,0.0076
890.00,0.0073
889.00,0.0072
888.00,0.0071
887.00,0.0070
886.00,0.0069
885.00,0.0068
884.00,0.0067
883.00,0.0067
882.00,0.0067
881.00,0.0067
880.00,0.0067
879.00,0.0067
878.00,0.0066
877.00,0.0066
876.00,0.0066
875.00,0.0067
874.00,0.0070
873.00,0.0072
872.00,0.0074
871.00,0.0073
870.00,0.0072
869.00,0.0070
868.00,0.0070
867.00,0.0071
866.00,0.0072
865.00,0.0073
864.00,0.0074
863.00,0.0076
862.00,0.0079
861.00,0.0082
860.00,0.0084
859.00,0.0086
858.00,0.0088
857.00,0.0089
856.00,0.0091
855.00,0.0093
854.00,0.0095
853.00,0.0097
852.00,0.0099
851.00,0.0103
850.00,0.0109
849.00,0.0117
848.00,0.0129
847.00,0.0147
846.00,0.0174
845.00,0.0214
844.00,0.0271
843.00,0.0340
842.00,0.0399
841.00,0.0422
840.00,0.0396
839.00,0.0335
838.00,0.0265
837.00,0.0208
836.00,0.0170
835.00,0.0146
834.00,0.0132
833.00,0.0123
832.00,0.0118
831.00,0.0114
830.00,0.0111
829.00,0.0108
828.00,0.0104
827.00,0.0100
826.00,0.0098
825.00,0.0096
824.00,0.0096
823.00,0.0096
822.00,0.0097
821.00,0.0098
820.00,0.0099
819.00,0.0100
818.00,0.0103
817.00,0.0107
816.00,0.0114
815.00,0.0124
814.00,0.0138
813.00,0.0154
812.00,0.0171
811.00,0.0186
810.00,0.0198
809.00,0.0204
808.00,0.0201
807.00,0.0191
806.00,0.0176
805.00,0.0159
804.00,0.0144
803.00,0.0132
802.00,0.0123
801.00,0.0116
800.00,0.0110
799.00,0.0105
798.00,0.0101
797.00,0.0098
796.00,0.0095
795.00,0.0091
794.00,0.0087
793.00,0.0083
792.00,0.0080
791.00,0.0077
790.00,0.0075
789.00,0.0073
788.00,0.0070
787.00,0.0068
786.00,0.0065
785.00,0.0064
784.00,0.0063
783.00,0.0063
782.00,0.0064
781.00,0.0063
780.00,0.0062
779.00,0.0060
778.00,0.0058
777.00,0.0058
776.00,0.0059
775.00,0.0060
774.00,0.0060
773.00,0.0060
772.00,0.0059
771.00,0.0059
770.00,0.0060
769.00,0.0060
768.00,0.0061
767.00,0.0061
766.00,0.0062
765.00,0.0061
764.00,0.0060
763.00,0.0059
762.00,0.0058
761.00,0.0058
760.00,0.0058
759.00,0.0059
758.00,0.0060
757.00,0.0062
756.00,0.0063
755.00,0.0065
754.00,0.0066
753.00,0.0068
752.00,0.0069
751.00,0.0070
750.00,0.0071
749.00,0.0072
748.00,0.0072
747.00,0.0073
746.00,0.0075
745.00,0.0078
744.00,0.0082
743.00,0.0085
742.00,0.0087
741.00,0.0089
740.00,0.0091
739.00,0.0094
738.00,0.0097
737.00,0.0100
736.00,0.0103
735.00,0.0105
734.00,0.0110
733.00,0.0116
732.00,0.0124
731.00,0.0132
730.00,0.0139
729.00,0.0143
728.00,0.0143
727.00,0.0143
726.00,0.0143
725.00,0.0144
724.00,0.0148
723.00,0.0152
722.00,0.0156
721.00,0.0159
720.00,0.0159
719.00,0.0153
718.00,0.0144
717.00,0.0134
716.00,0.0125
715.00,0.0117
714.00,0.0111
713.00,0.0106
712.00,0.0101
711.00,0.0098
710.00,0.0094
709.00,0.0092
708.00,0.0090
707.00,0.0089
706.00,0.0089
705.00,0.0089
704.00,0.0089
703.00,0.0089
702.00,0.0087
701.00,0.0084
700.00,0.0082
699.00,0.0080
698.00,0.0080
697.00,0.0080
696.00,0.0080
695.00,0.0080
694.00,0.0080
693.00,0.0080
692.00,0.0080
691.00,0.0079
690.00,0.0078
689.00,0.0079
688.00,0.0081
687.00,0.0083
686.00,0.0085
685.00,0.0084
684.00,0.0082
683.00,0.0080
682.00,0.0079
681.00,0.0079
680.00,0.0080
679.00,0.0081
678.00,0.0082
677.00,0.0083
676.00,0.0084
675.00,0.0084
674.00,0.0083
673.00,0.0082
672.00,0.0082
671.00,0.0084
670.00,0.0087
669.00,0.0091
668.00,0.0093
667.00,0.0093
666.00,0.0089
665.00,0.0084
664.00,0.0082
663.00,0.0082
662.00,0.0083
661.00,0.0083
660.00,0.0082
659.00,0.0080
658.00,0.0078
657.00,0.0077
656.00,0.0076
655.00,0.0076
654.00,0.0076
653.00,0.0076
652.00,0.0076
651.00,0.0076
650.00,0.0076
649.00,0.0076
648.00,0.0075
647.00,0.0075
646.00,0.0075
645.00,0.0075
644.00,0.0075
643.00,0.0074
642.00,0.0072
641.00,0.0071
640.00,0.0070
639.00,0.0072
638.00,0.0075
637.00,0.0077
636.00,0.0077
635.00,0.0077
634.00,0.0076
633.00,0.0077
632.00,0.0078
631.00,0.0078
630.00,0.0078
629.00,0.0077
628.00,0.0076
627.00,0.0075
626.00,0.0074
625.00,0.0074
624.00,0.0075
623.00,0.0076
622.00,0.0078
621.00,0.0079
620.00,0.0077
619.00,0.0073
618.00,0.0071
617.00,0.0071
616.00,0.0074
615.00,0.0078
614.00,0.0079
613.00,0.0079
612.00,0.0077
611.00,0.0075
610.00,0.0074
609.00,0.0074
608.00,0.0075
607.00,0.0076
606.00,0.0079
605.00,0.0083
604.00,0.0085
603.00,0.0085
602.00,0.0083
601.00,0.0079
600.00,0.0076
599.00,0.0074
598.00,0.0075
597.00,0.0077
596.00,0.0078
595.00,0.0079
594.00,0.0080
593.00,0.0081
592.00,0.0081
591.00,0.0081
590.00,0.0079
589.00,0.0077
588.00,0.0076
587.00,0.0077
586.00,0.0080
585.00,0.0083
584.00,0.0084
583.00,0.0083
582.00,0.0080
581.00,0.0079
580.00,0.0078
579.00,0.0077
578.00,0.0077
577.00,0.0078
576.00,0.0082
575.00,0.0085
574.00,0.0087
573.00,0.0085
572.00,0.0081
571.00,0.0078
570.00,0.0078
569.00,0.0081
568.00,0.0084
567.00,0.0087
566.00,0.0088
565.00,0.0088
564.00,0.0087
563.00,0.0086
562.00,0.0086
561.00,0.0086
560.00,0.0085
559.00,0.0084
558.00,0.0082
557.00,0.0082
556.00,0.0083
555.00,0.0085
554.00,0.0086
553.00,0.0084
552.00,0.0081
551.00,0.0077
550.00,0.0077
549.00,0.0080
548.00,0.0084
547.00,0.0087
546.00,0.0088
545.00,0.0086
544.00,0.0085
543.00,0.0087
542.00,0.0091
541.00,0.0094
540.00,0.0095
539.00,0.0093
538.00,0.0092
537.00,0.0093
536.00,0.0095
535.00,0.0099
534.00,0.0105
533.00,0.0112
532.00,0.0116
531.00,0.0115
530.00,0.0110
529.00,0.0106
528.00,0.0105
527.00,0.0105
526.00,0.0105
525.00,0.0104
524.00,0.0103
523.00,0.0101
522.00,0.0099
521.00,0.0096
520.00,0.0092
519.00,0.0091
518.00,0.0092
517.00,0.0094
516.00,0.0094
515.00,0.0089
514.00,0.0082
513.00,0.0073
512.00,0.0067
511.00,0.0064
510.00,0.0067
509.00,0.0071
508.00,0.0074
507.00,0.0074
506.00,0.0074
505.00,0.0076
504.00,0.0080
503.00,0.0082
502.00,0.0079
501.00,0.0073
500.00,0.0067
499.00,0.0066
498.00,0.0069
497.00,0.0072
496.00,0.0074
495.00,0.0074
494.00,0.0073
493.00,0.0074
492.00,0.0077
491.00,0.0081
490.00,0.0082
489.00,0.0081
488.00,0.0081
487.00,0.0085
486.00,0.0090
485.00,0.0092
484.00,0.0089
483.00,0.0084
482.00,0.0084
481.00,0.0091
480.00,0.0101
479.00,0.0109
478.00,0.0113
477.00,0.0114
476.00,0.0113
475.00,0.0114
474.00,0.0116
473.00,0.0118
472.00,0.0120
471.00,0.0121
470.00,0.0124
469.00,0.0128
468.00,0.0133
467.00,0.0139
466.00,0.0144
465.00,0.0145
464.00,0.0146
463.00,0.0150
462.00,0.0160
461.00,0.0175
460.00,0.0184
459.00,0.0181
458.00,0.0170
457.00,0.0163
456.00,0.0166
455.00,0.0174
454.00,0.0180
453.00,0.0184
452.00,0.0186
451.00,0.0186
450.00,0.0177
