Created as New Dataset,Sample 026 By Administrator Date Thursday, September 04 2025
cm-1,A
4000.00,0.0014
3999.00,0.0014
3998.00,0.0014
3997.00,0.0014
3996.00,0.0014
3995.00,0.0014
3994.00,0.0014
3993.00,0.0014
3992.00,0.0013
3991.00,0.0013
3990.00,0.0014
3989.00,0.0014
3988.00,0.0014
3987.00,0.0014
3986.00,0.0014
3985.00,0.0014
3984.00,0.0013
3983.00,0.0013
3982.00,0.0013
3981.00,0.0013
3980.00,0.0013
3979.00,0.0012
3978.00,0.0012
3977.00,0.0012
3976.00,0.0012
3975.00,0.0012
3974.00,0.0011
3973.00,0.0011
3972.00,0.0012
3971.00,0.0012
3970.00,0.0012
3969.00,0.0012
3968.00,0.0012
3967.00,0.0012
3966.00,0.0012
3965.00,0.0012
3964.00,0.0012
3963.00,0.0012
3962.00,0.0012
3961.00,0.0011
3960.00,0.0011
3959.00,0.0011
3958.00,0.0011
3957.00,0.0011
3956.00,0.0012
3955.00,0.0012
3954.00,0.0012
3953.00,0.0012
3952.00,0.0012
3951.00,0.0012
3950.00,0.0012
3949.00,0.0012
3948.00,0.0012
3947.00,0.0012
3946.00,0.0012
3945.00,0.0012
3944.00,0.0012
3943.00,0.0012
3942.00,0.0012
3941.00,0.0012
3940.00,0.0012
3939.00,0.0012
3938.00,0.0012
3937.00,0.0013
3936.00,0.0013
3935.00,0.0013
3934.00,0.0013
3933.00,0.0013
3932.00,0.0013
3931.00,0.0012
3930.00,0.0012
3929.00,0.0012
3928.00,0.0011
3927.00,0.0011
3926.00,0.0012
3925.00,0.0012
3924.00,0.0013
3923.00,0.0013
3922.00,0.0014
3921.00,0.0014
3920.00,0.0014
3919.00,0.0014
3918.00,0.0014
3917.00,0.0013
3916.00,0.0013
3915.00,0.0012
3914.00,0.0012
3913.00,0.0012
3912.00,0.0012
3911.00,0.0012
3910.00,0.0012
3909.00,0.0013
3908.00,0.0013
3907.00,0.0013
3906.00,0.0012
3905.00,0.0012
3904.00,0.0012
3903.00,0.0012
3902.00,0.0012
3901.00,0.0012
3900.00,0.0012
3899.00,0.0012
3898.00,0.0012
3897.00,0.0011
3896.00,0.0011
3895.00,0.0012
3894.00,0.0012
3893.00,0.0012
3892.00,0.0012
3891.00,0.0012
3890.00,0.0011
3889.00,0.0011
3888.00,0.0011
3887.00,0.0011
3886.00,0.0011
3885.00,0.0012
3884.00,0.0012
3883.00,0.0012
3882.00,0.0012
3881.00,0.0012
3880.00,0.0012
3879.00,0.0012
3878.00,0.0012
3877.00,0.0012
3876.00,0.0012
3875.00,0.0011
3874.00,0.0012
3873.00,0.0012
3872.00,0.0012
3871.00,0.0012
3870.00,0.0012
3869.00,0.0012
3868.00,0.0012
3867.00,0.0012
3866.00,0.0011
3865.00,0.0011
3864.00,0.0012
3863.00,0.0012
3862.00,0.0012
3861.00,0.0012
3860.00,0.0012
3859.00,0.0013
3858.00,0.0013
3857.00,0.0014
3856.00,0.0014
3855.00,0.0014
3854.00,0.0014
3853.00,0.0013
3852.00,0.0013
3851.00,0.0013
3850.00,0.0012
3849.00,0.0012
3848.00,0.0012
3847.00,0.0012
3846.00,0.0012
3845.00,0.0012
3844.00,0.0012
3843.00,0.0012
3842.00,0.0012
3841.00,0.0012
3840.00,0.0012
3839.00,0.0012
3838.00,0.0013
3837.00,0.0013
3836.00,0.0013
3835.00,0.0013
3834.00,0.0013
3833.00,0.0013
3832.00,0.0013
3831.00,0.0013
3830.00,0.0013
3829.00,0.0013
3828.00,0.0012
3827.00,0.0012
3826.00,0.0012
3825.00,0.0012
3824.00,0.0012
3823.00,0.0012
3822.00,0.0012
3821.00,0.0012
3820.00,0.0012
3819.00,0.0012
3818.00,0.0012
3817.00,0.0012
3816.00,0.0012
3815.00,0.0012
3814.00,0.0012
3813.00,0.0012
3812.00,0.0012
3811.00,0.0012
3810.00,0.0012
3809.00,0.0011
3808.00,0.0012
3807.00,0.0012
3806.00,0.0012
3805.00,0.0013
3804.00,0.0013
3803.00,0.0013
3802.00,0.0012
3801.00,0.0012
3800.00,0.0012
3799.00,0.0012
3798.00,0.0012
3797.00,0.0012
3796.00,0.0012
3795.00,0.0012
3794.00,0.0011
3793.00,0.0011
3792.00,0.0011
3791.00,0.0011
3790.00,0.0012
3789.00,0.0012
3788.00,0.0012
3787.00,0.0012
3786.00,0.0012
3785.00,0.0012
3784.00,0.0012
3783.00,0.0012
3782.00,0.0011
3781.00,0.0011
3780.00,0.0011
3779.00,0.0011
3778.00,0.0012
3777.00,0.0012
3776.00,0.0012
3775.00,0.0012
3774.00,0.0013
3773.00,0.0012
3772.00,0.0012
3771.00,0.0012
3770.00,0.0012
3769.00,0.0012
3768.00,0.0013
3767.00,0.0013
3766.00,0.0013
3765.00,0.0013
3764.00,0.0013
3763.00,0.0014
3762.00,0.0014
3761.00,0.0014
3760.00,0.0014
3759.00,0.0013
3758.00,0.0013
3757.00,0.0013
3756.00,0.0013
3755.00,0.0013
3754.00,0.0013
3753.00,0.0013
3752.00,0.0013
3751.00,0.0014
3750.00,0.0014
3749.00,0.0014
3748.00,0.0014
3747.00,0.0013
3746.00,0.0013
3745.00,0.0013
3744.00,0.0013
3743.00,0.0013
3742.00,0.0013
3741.00,0.0013
3740.00,0.0013
3739.00,0.0013
3738.00,0.0014
3737.00,0.0014
3736.00,0.0014
3735.00,0.0014
3734.00,0.0014
3733.00,0.0014
3732.00,0.0013
3731.00,0.0013
3730.00,0.0012
3729.00,0.0012
3728.00,0.0012
3727.00,0.0012
3726.00,0.0012
3725.00,0.0011
3724.00,0.0010
3723.00,0.0010
3722.00,0.0010
3721.00,0.0010
3720.00,0.0010
3719.00,0.0010
3718.00,0.0010
3717.00,0.0011
3716.00,0.0011
3715.00,0.0011
3714.00,0.0011
3713.00,0.0012
3712.00,0.0012
3711.00,0.0012
3710.00,0.0012
3709.00,0.0011
3708.00,0.0011
3707.00,0.0011
3706.00,0.0010
3705.00,0.0010
3704.00,0.0010
3703.00,0.0010
3702.00,0.0010
3701.00,0.0010
3700.00,0.0010
3699.00,0.0010
3698.00,0.0011
3697.00,0.0011
3696.00,0.0011
3695.00,0.0011
3694.00,0.0011
3693.00,0.0011
3692.00,0.0011
3691.00,0.0011
3690.00,0.0011
3689.00,0.0011
3688.00,0.0012
3687.00,0.0012
3686.00,0.0012
3685.00,0.0012
3684.00,0.0012
3683.00,0.0012
3682.00,0.0012
3681.00,0.0012
3680.00,0.0013
3679.00,0.0013
3678.00,0.0013
3677.00,0.0014
3676.00,0.0014
3675.00,0.0013
3674.00,0.0013
3673.00,0.0012
3672.00,0.0011
3671.00,0.0010
3670.00,0.0010
3669.00,0.0011
3668.00,0.0011
3667.00,0.0011
3666.00,0.0011
3665.00,0.0010
3664.00,0.0010
3663.00,0.0010
3662.00,0.0010
3661.00,0.0010
3660.00,0.0010
3659.00,0.0010
3658.00,0.0010
3657.00,0.0011
3656.00,0.0012
3655.00,0.0012
3654.00,0.0013
3653.00,0.0013
3652.00,0.0013
3651.00,0.0013
3650.00,0.0013
3649.00,0.0013
3648.00,0.0012
3647.00,0.0012
3646.00,0.0012
3645.00,0.0012
3644.00,0.0012
3643.00,0.0012
3642.00,0.0012
3641.00,0.0012
3640.00,0.0012
3639.00,0.0012
3638.00,0.0012
3637.00,0.0012
3636.00,0.0012
3635.00,0.0013
3634.00,0.0013
3633.00,0.0013
3632.00,0.0013
3631.00,0.0013
3630.00,0.0013
3629.00,0.0013
3628.00,0.0014
3627.00,0.0014
3626.00,0.0014
3625.00,0.0014
3624.00,0.0014
3623.00,0.0013
3622.00,0.0014
3621.00,0.0014
3620.00,0.0014
3619.00,0.0014
3618.00,0.0014
3617.00,0.0014
3616.00,0.0014
3615.00,0.0015
3614.00,0.0015
3613.00,0.0015
3612.00,0.0015
3611.00,0.0015
3610.00,0.0015
3609.00,0.0015
3608.00,0.0015
3607.00,0.0016
3606.00,0.0016
3605.00,0.0016
3604.00,0.0016
3603.00,0.0016
3602.00,0.0015
3601.00,0.0015
3600.00,0.0015
3599.00,0.0015
3598.00,0.0016
3597.00,0.0016
3596.00,0.0017
3595.00,0.0017
3594.00,0.0018
3593.00,0.0018
3592.00,0.0018
3591.00,0.0018
3590.00,0.0018
3589.00,0.0019
3588.00,0.0019
3587.00,0.0019
3586.00,0.0019
3585.00,0.0019
3584.00,0.0019
3583.00,0.0019
3582.00,0.0019
3581.00,0.0020
3580.00,0.0020
3579.00,0.0019
3578.00,0.0019
3577.00,0.0019
3576.00,0.0019
3575.00,0.0020
3574.00,0.0020
3573.00,0.0021
3572.00,0.0022
3571.00,0.0022
3570.00,0.0022
3569.00,0.0022
3568.00,0.0022
3567.00,0.0022
3566.00,0.0021
3565.00,0.0022
3564.00,0.0022
3563.00,0.0022
3562.00,0.0022
3561.00,0.0022
3560.00,0.0022
3559.00,0.0023
3558.00,0.0023
3557.00,0.0023
3556.00,0.0024
3555.00,0.0024
3554.00,0.0024
3553.00,0.0024
3552.00,0.0024
3551.00,0.0024
3550.00,0.0025
3549.00,0.0025
3548.00,0.0025
3547.00,0.0026
3546.00,0.0026
3545.00,0.0025
3544.00,0.0026
3543.00,0.0026
3542.00,0.0026
3541.00,0.0027
3540.00,0.0027
3539.00,0.0026
3538.00,0.0026
3537.00,0.0026
3536.00,0.0027
3535.00,0.0027
3534.00,0.0028
3533.00,0.0028
3532.00,0.0028
3531.00,0.0028
3530.00,0.0028
3529.00,0.0028
3528.00,0.0029
3527.00,0.0029
3526.00,0.0029
3525.00,0.0029
3524.00,0.0029
3523.00,0.0029
3522.00,0.0029
3521.00,0.0030
3520.00,0.0030
3519.00,0.0030
3518.00,0.0030
3517.00,0.0030
3516.00,0.0030
3515.00,0.0031
3514.00,0.0031
3513.00,0.0031
3512.00,0.0031
3511.00,0.0032
3510.00,0.0032
3509.00,0.0033
3508.00,0.0033
3507.00,0.0033
3506.00,0.0033
3505.00,0.0033
3504.00,0.0033
3503.00,0.0033
3502.00,0.0033
3501.00,0.0034
3500.00,0.0034
3499.00,0.0035
3498.00,0.0035
3497.00,0.0035
3496.00,0.0035
3495.00,0.0035
3494.00,0.0035
3493.00,0.0035
3492.00,0.0035
3491.00,0.0036
3490.00,0.0036
3489.00,0.0036
3488.00,0.0036
3487.00,0.0037
3486.00,0.0037
3485.00,0.0037
3484.00,0.0037
3483.00,0.0037
3482.00,0.0038
3481.00,0.0038
3480.00,0.0038
3479.00,0.0039
3478.00,0.0039
3477.00,0.0039
3476.00,0.0039
3475.00,0.0039
3474.00,0.0040
3473.00,0.0040
3472.00,0.0040
3471.00,0.0040
3470.00,0.0040
3469.00,0.0041
3468.00,0.0041
3467.00,0.0041
3466.00,0.0041
3465.00,0.0041
3464.00,0.0041
3463.00,0.0041
3462.00,0.0042
3461.00,0.0042
3460.00,0.0042
3459.00,0.0042
3458.00,0.0042
3457.00,0.0042
3456.00,0.0042
3455.00,0.0042
3454.00,0.0042
3453.00,0.0043
3452.00,0.0043
3451.00,0.0044
3450.00,0.0044
3449.00,0.0044
3448.00,0.0044
3447.00,0.0044
3446.00,0.0044
3445.00,0.0044
3444.00,0.0044
3443.00,0.0045
3442.00,0.0045
3441.00,0.0045
3440.00,0.0046
3439.00,0.0046
3438.00,0.0046
3437.00,0.0046
3436.00,0.0047
3435.00,0.0047
3434.00,0.0047
3433.00,0.0048
3432.00,0.0048
3431.00,0.0048
3430.00,0.0049
3429.00,0.0049
3428.00,0.0049
3427.00,0.0049
3426.00,0.0049
3425.00,0.0049
3424.00,0.0049
3423.00,0.0050
3422.00,0.0050
3421.00,0.0051
3420.00,0.0051
3419.00,0.0051
3418.00,0.0051
3417.00,0.0051
3416.00,0.0051
3415.00,0.0050
3414.00,0.0050
3413.00,0.0050
3412.00,0.0050
3411.00,0.0051
3410.00,0.0051
3409.00,0.0051
3408.00,0.0051
3407.00,0.0051
3406.00,0.0051
3405.00,0.0051
3404.00,0.0052
3403.00,0.0053
3402.00,0.0053
3401.00,0.0053
3400.00,0.0053
3399.00,0.0053
3398.00,0.0053
3397.00,0.0053
3396.00,0.0054
3395.00,0.0054
3394.00,0.0054
3393.00,0.0054
3392.00,0.0053
3391.00,0.0053
3390.00,0.0053
3389.00,0.0053
3388.00,0.0053
3387.00,0.0054
3386.00,0.0054
3385.00,0.0054
3384.00,0.0054
3383.00,0.0054
3382.00,0.0054
3381.00,0.0054
3380.00,0.0054
3379.00,0.0054
3378.00,0.0054
3377.00,0.0054
3376.00,0.0054
3375.00,0.0054
3374.00,0.0055
3373.00,0.0055
3372.00,0.0055
3371.00,0.0055
3370.00,0.0055
3369.00,0.0055
3368.00,0.0055
3367.00,0.0055
3366.00,0.0055
3365.00,0.0055
3364.00,0.0056
3363.00,0.0056
3362.00,0.0056
3361.00,0.0055
3360.00,0.0055
3359.00,0.0055
3358.00,0.0055
3357.00,0.0056
3356.00,0.0056
3355.00,0.0056
3354.00,0.0056
3353.00,0.0056
3352.00,0.0056
3351.00,0.0056
3350.00,0.0056
3349.00,0.0056
3348.00,0.0056
3347.00,0.0057
3346.00,0.0057
3345.00,0.0057
3344.00,0.0057
3343.00,0.0057
3342.00,0.0057
3341.00,0.0056
3340.00,0.0056
3339.00,0.0056
3338.00,0.0056
3337.00,0.0056
3336.00,0.0056
3335.00,0.0056
3334.00,0.0056
3333.00,0.0056
3332.00,0.0056
3331.00,0.0057
3330.00,0.0056
3329.00,0.0056
3328.00,0.0056
3327.00,0.0055
3326.00,0.0055
3325.00,0.0055
3324.00,0.0055
3323.00,0.0055
3322.00,0.0055
3321.00,0.0055
3320.00,0.0055
3319.00,0.0055
3318.00,0.0055
3317.00,0.0056
3316.00,0.0056
3315.00,0.0056
3314.00,0.0056
3313.00,0.0056
3312.00,0.0056
3311.00,0.0056
3310.00,0.0056
3309.00,0.0057
3308.00,0.0057
3307.00,0.0057
3306.00,0.0056
3305.00,0.0056
3304.00,0.0056
3303.00,0.0056
3302.00,0.0056
3301.00,0.0056
3300.00,0.0056
3299.00,0.0056
3298.00,0.0055
3297.00,0.0054
3296.00,0.0054
3295.00,0.0054
3294.00,0.0054
3293.00,0.0054
3292.00,0.0054
3291.00,0.0053
3290.00,0.0053
3289.00,0.0053
3288.00,0.0053
3287.00,0.0053
3286.00,0.0053
3285.00,0.0053
3284.00,0.0053
3283.00,0.0053
3282.00,0.0053
3281.00,0.0052
3280.00,0.0053
3279.00,0.0053
3278.00,0.0053
3277.00,0.0052
3276.00,0.0052
3275.00,0.0051
3274.00,0.0050
3273.00,0.0050
3272.00,0.0050
3271.00,0.0050
3270.00,0.0050
3269.00,0.0050
3268.00,0.0050
3267.00,0.0049
3266.00,0.0049
3265.00,0.0049
3264.00,0.0049
3263.00,0.0049
3262.00,0.0048
3261.00,0.0048
3260.00,0.0048
3259.00,0.0048
3258.00,0.0048
3257.00,0.0048
3256.00,0.0047
3255.00,0.0047
3254.00,0.0047
3253.00,0.0047
3252.00,0.0047
3251.00,0.0047
3250.00,0.0047
3249.00,0.0047
3248.00,0.0046
3247.00,0.0046
3246.00,0.0046
3245.00,0.0046
3244.00,0.0046
3243.00,0.0047
3242.00,0.0047
3241.00,0.0047
3240.00,0.0047
3239.00,0.0046
3238.00,0.0047
3237.00,0.0046
3236.00,0.0046
3235.00,0.0046
3234.00,0.0046
3233.00,0.0046
3232.00,0.0046
3231.00,0.0046
3230.00,0.0046
3229.00,0.0046
3228.00,0.0046
3227.00,0.0047
3226.00,0.0047
3225.00,0.0047
3224.00,0.0047
3223.00,0.0047
3222.00,0.0047
3221.00,0.0047
3220.00,0.0047
3219.00,0.0047
3218.00,0.0047
3217.00,0.0047
3216.00,0.0048
3215.00,0.0048
3214.00,0.0048
3213.00,0.0048
3212.00,0.0048
3211.00,0.0049
3210.00,0.0049
3209.00,0.0049
3208.00,0.0049
3207.00,0.0049
3206.00,0.0049
3205.00,0.0050
3204.00,0.0050
3203.00,0.0050
3202.00,0.0051
3201.00,0.0051
3200.00,0.0051
3199.00,0.0051
3198.00,0.0051
3197.00,0.0051
3196.00,0.0051
3195.00,0.0051
3194.00,0.0051
3193.00,0.0051
3192.00,0.0050
3191.00,0.0050
3190.00,0.0050
3189.00,0.0049
3188.00,0.0049
3187.00,0.0049
3186.00,0.0049
3185.00,0.0049
3184.00,0.0049
3183.00,0.0048
3182.00,0.0048
3181.00,0.0048
3180.00,0.0048
3179.00,0.0048
3178.00,0.0048
3177.00,0.0048
3176.00,0.0048
3175.00,0.0048
3174.00,0.0048
3173.00,0.0048
3172.00,0.0047
3171.00,0.0047
3170.00,0.0046
3169.00,0.0046
3168.00,0.0046
3167.00,0.0046
3166.00,0.0046
3165.00,0.0046
3164.00,0.0045
3163.00,0.0045
3162.00,0.0044
3161.00,0.0044
3160.00,0.0044
3159.00,0.0045
3158.00,0.0045
3157.00,0.0045
3156.00,0.0044
3155.00,0.0044
3154.00,0.0045
3153.00,0.0045
3152.00,0.0044
3151.00,0.0044
3150.00,0.0043
3149.00,0.0043
3148.00,0.0043
3147.00,0.0043
3146.00,0.0043
3145.00,0.0043
3144.00,0.0043
3143.00,0.0043
3142.00,0.0043
3141.00,0.0043
3140.00,0.0043
3139.00,0.0043
3138.00,0.0043
3137.00,0.0043
3136.00,0.0043
3135.00,0.0042
3134.00,0.0042
3133.00,0.0042
3132.00,0.0041
3131.00,0.0041
3130.00,0.0041
3129.00,0.0041
3128.00,0.0041
3127.00,0.0041
3126.00,0.0041
3125.00,0.0040
3124.00,0.0040
3123.00,0.0039
3122.00,0.0039
3121.00,0.0039
3120.00,0.0038
3119.00,0.0038
3118.00,0.0038
3117.00,0.0037
3116.00,0.0037
3115.00,0.0037
3114.00,0.0037
3113.00,0.0037
3112.00,0.0037
3111.00,0.0036
3110.00,0.0036
3109.00,0.0036
3108.00,0.0037
3107.00,0.0037
3106.00,0.0037
3105.00,0.0036
3104.00,0.0036
3103.00,0.0036
3102.00,0.0036
3101.00,0.0036
3100.00,0.0036
3099.00,0.0036
3098.00,0.0036
3097.00,0.0036
3096.00,0.0036
3095.00,0.0036
3094.00,0.0036
3093.00,0.0035
3092.00,0.0035
3091.00,0.0035
3090.00,0.0035
3089.00,0.0035
3088.00,0.0035
3087.00,0.0035
3086.00,0.0035
3085.00,0.0035
3084.00,0.0035
3083.00,0.0035
3082.00,0.0035
3081.00,0.0035
3080.00,0.0035
3079.00,0.0036
3078.00,0.0036
3077.00,0.0036
3076.00,0.0036
3075.00,0.0036
3074.00,0.0036
3073.00,0.0037
3072.00,0.0037
3071.00,0.0036
3070.00,0.0036
3069.00,0.0036
3068.00,0.0036
3067.00,0.0036
3066.00,0.0036
3065.00,0.0037
3064.00,0.0037
3063.00,0.0037
3062.00,0.0037
3061.00,0.0037
3060.00,0.0037
3059.00,0.0037
3058.00,0.0037
3057.00,0.0037
3056.00,0.0037
3055.00,0.0037
3054.00,0.0038
3053.00,0.0038
3052.00,0.0038
3051.00,0.0038
3050.00,0.0038
3049.00,0.0038
3048.00,0.0038
3047.00,0.0038
3046.00,0.0038
3045.00,0.0039
3044.00,0.0039
3043.00,0.0039
3042.00,0.0040
3041.00,0.0040
3040.00,0.0041
3039.00,0.0041
3038.00,0.0041
3037.00,0.0041
3036.00,0.0042
3035.00,0.0042
3034.00,0.0042
3033.00,0.0042
3032.00,0.0043
3031.00,0.0044
3030.00,0.0044
3029.00,0.0045
3028.00,0.0045
3027.00,0.0046
3026.00,0.0046
3025.00,0.0046
3024.00,0.0047
3023.00,0.0048
3022.00,0.0048
3021.00,0.0049
3020.00,0.0050
3019.00,0.0051
3018.00,0.0051
3017.00,0.0052
3016.00,0.0053
3015.00,0.0054
3014.00,0.0055
3013.00,0.0056
3012.00,0.0058
3011.00,0.0059
3010.00,0.0060
3009.00,0.0062
3008.00,0.0063
3007.00,0.0065
3006.00,0.0066
3005.00,0.0068
3004.00,0.0069
3003.00,0.0071
3002.00,0.0073
3001.00,0.0076
3000.00,0.0078
2999.00,0.0081
2998.00,0.0085
2997.00,0.0088
2996.00,0.0092
2995.00,0.0096
2994.00,0.0100
2993.00,0.0104
2992.00,0.0109
2991.00,0.0115
2990.00,0.0121
2989.00,0.0129
2988.00,0.0136
2987.00,0.0145
2986.00,0.0155
2985.00,0.0166
2984.00,0.0177
2983.00,0.0191
2982.00,0.0206
2981.00,0.0224
2980.00,0.0244
2979.00,0.0266
2978.00,0.0292
2977.00,0.0322
2976.00,0.0356
2975.00,0.0395
2974.00,0.0441
2973.00,0.0493
2972.00,0.0552
2971.00,0.0618
2970.00,0.0692
2969.00,0.0774
2968.00,0.0864
2967.00,0.0962
2966.00,0.1065
2965.00,0.1174
2964.00,0.1282
2963.00,0.1385
2962.00,0.1476
2961.00,0.1549
2960.00,0.1603
2959.00,0.1638
2958.00,0.1663
2957.00,0.1683
2956.00,0.1709
2955.00,0.1744
2954.00,0.1790
2953.00,0.1839
2952.00,0.1882
2951.00,0.1906
2950.00,0.1900
2949.00,0.1858
2948.00,0.1780
2947.00,0.1674
2946.00,0.1553
2945.00,0.1429
2944.00,0.1314
2943.00,0.1217
2942.00,0.1142
2941.00,0.1091
2940.00,0.1062
2939.00,0.1055
2938.00,0.1066
2937.00,0.1093
2936.00,0.1136
2935.00,0.1192
2934.00,0.1261
2933.00,0.1343
2932.00,0.1435
2931.00,0.1536
2930.00,0.1643
2929.00,0.1753
2928.00,0.1865
2927.00,0.1974
2926.00,0.2080
2925.00,0.2183
2924.00,0.2283
2923.00,0.2382
2922.00,0.2478
2921.00,0.2569
2920.00,0.2647
2919.00,0.2703
2918.00,0.2726
2917.00,0.2711
2916.00,0.2657
2915.00,0.2572
2914.00,0.2470
2913.00,0.2363
2912.00,0.2262
2911.00,0.2173
2910.00,0.2097
2909.00,0.2032
2908.00,0.1973
2907.00,0.1916
2906.00,0.1857
2905.00,0.1796
2904.00,0.1733
2903.00,0.1667
2902.00,0.1600
2901.00,0.1534
2900.00,0.1470
2899.00,0.1408
2898.00,0.1350
2897.00,0.1296
2896.00,0.1248
2895.00,0.1206
2894.00,0.1171
2893.00,0.1141
2892.00,0.1117
2891.00,0.1098
2890.00,0.1084
2889.00,0.1074
2888.00,0.1067
2887.00,0.1064
2886.00,0.1063
2885.00,0.1066
2884.00,0.1072
2883.00,0.1082
2882.00,0.1095
2881.00,0.1110
2880.00,0.1123
2879.00,0.1132
2878.00,0.1135
2877.00,0.1132
2876.00,0.1125
2875.00,0.1119
2874.00,0.1115
2873.00,0.1118
2872.00,0.1128
2871.00,0.1144
2870.00,0.1164
2869.00,0.1182
2868.00,0.1193
2867.00,0.1191
2866.00,0.1169
2865.00,0.1127
2864.00,0.1069
2863.00,0.1003
2862.00,0.0938
2861.00,0.0881
2860.00,0.0839
2859.00,0.0811
2858.00,0.0797
2857.00,0.0795
2856.00,0.0803
2855.00,0.0818
2854.00,0.0839
2853.00,0.0863
2852.00,0.0888
2851.00,0.0911
2850.00,0.0929
2849.00,0.0941
2848.00,0.0950
2847.00,0.0961
2846.00,0.0979
2845.00,0.1009
2844.00,0.1050
2843.00,0.1100
2842.00,0.1151
2841.00,0.1197
2840.00,0.1229
2839.00,0.1239
2838.00,0.1222
2837.00,0.1176
2836.00,0.1103
2835.00,0.1010
2834.00,0.0907
2833.00,0.0802
2832.00,0.0704
2831.00,0.0618
2830.00,0.0546
2829.00,0.0487
2828.00,0.0438
2827.00,0.0399
2826.00,0.0366
2825.00,0.0339
2824.00,0.0317
2823.00,0.0297
2822.00,0.0281
2821.00,0.0266
2820.00,0.0253
2819.00,0.0242
2818.00,0.0232
2817.00,0.0223
2816.00,0.0215
2815.00,0.0208
2814.00,0.0202
2813.00,0.0196
2812.00,0.0190
2811.00,0.0185
2810.00,0.0179
2809.00,0.0173
2808.00,0.0168
2807.00,0.0162
2806.00,0.0156
2805.00,0.0150
2804.00,0.0144
2803.00,0.0138
2802.00,0.0133
2801.00,0.0129
2800.00,0.0125
2799.00,0.0123
2798.00,0.0120
2797.00,0.0118
2796.00,0.0115
2795.00,0.0113
2794.00,0.0111
2793.00,0.0108
2792.00,0.0104
2791.00,0.0101
2790.00,0.0097
2789.00,0.0094
2788.00,0.0090
2787.00,0.0087
2786.00,0.0084
2785.00,0.0082
2784.00,0.0079
2783.00,0.0077
2782.00,0.0075
2781.00,0.0073
2780.00,0.0071
2779.00,0.0069
2778.00,0.0068
2777.00,0.0067
2776.00,0.0065
2775.00,0.0064
2774.00,0.0063
2773.00,0.0063
2772.00,0.0062
2771.00,0.0061
2770.00,0.0061
2769.00,0.0061
2768.00,0.0060
2767.00,0.0060
2766.00,0.0060
2765.00,0.0060
2764.00,0.0059
2763.00,0.0058
2762.00,0.0058
2761.00,0.0057
2760.00,0.0057
2759.00,0.0057
2758.00,0.0057
2757.00,0.0056
2756.00,0.0056
2755.00,0.0056
2754.00,0.0056
2753.00,0.0056
2752.00,0.0055
2751.00,0.0055
2750.00,0.0055
2749.00,0.0056
2748.00,0.0056
2747.00,0.0056
2746.00,0.0056
2745.00,0.0056
2744.00,0.0057
2743.00,0.0058
2742.00,0.0059
2741.00,0.0060
2740.00,0.0061
2739.00,0.0063
2738.00,0.0064
2737.00,0.0065
2736.00,0.0066
2735.00,0.0067
2734.00,0.0068
2733.00,0.0069
2732.00,0.0071
2731.00,0.0072
2730.00,0.0074
2729.00,0.0077
2728.00,0.0079
2727.00,0.0082
2726.00,0.0084
2725.00,0.0086
2724.00,0.0088
2723.00,0.0089
2722.00,0.0088
2721.00,0.0087
2720.00,0.0084
2719.00,0.0081
2718.00,0.0078
2717.00,0.0075
2716.00,0.0073
2715.00,0.0070
2714.00,0.0068
2713.00,0.0066
2712.00,0.0064
2711.00,0.0062
2710.00,0.0060
2709.00,0.0059
2708.00,0.0058
2707.00,0.0057
2706.00,0.0055
2705.00,0.0054
2704.00,0.0053
2703.00,0.0052
2702.00,0.0052
2701.00,0.0051
2700.00,0.0050
2699.00,0.0050
2698.00,0.0049
2697.00,0.0049
2696.00,0.0049
2695.00,0.0049
2694.00,0.0050
2693.00,0.0050
2692.00,0.0050
2691.00,0.0050
2690.00,0.0050
2689.00,0.0050
2688.00,0.0050
2687.00,0.0050
2686.00,0.0049
2685.00,0.0049
2684.00,0.0049
2683.00,0.0049
2682.00,0.0049
2681.00,0.0049
2680.00,0.0050
2679.00,0.0050
2678.00,0.0050
2677.00,0.0050
2676.00,0.0049
2675.00,0.0049
2674.00,0.0049
2673.00,0.0049
2672.00,0.0049
2671.00,0.0049
2670.00,0.0049
2669.00,0.0049
2668.00,0.0049
2667.00,0.0049
2666.00,0.0049
2665.00,0.0050
2664.00,0.0050
2663.00,0.0051
2662.00,0.0052
2661.00,0.0052
2660.00,0.0052
2659.00,0.0052
2658.00,0.0052
2657.00,0.0051
2656.00,0.0051
2655.00,0.0050
2654.00,0.0050
2653.00,0.0050
2652.00,0.0049
2651.00,0.0049
2650.00,0.0048
2649.00,0.0048
2648.00,0.0048
2647.00,0.0047
2646.00,0.0047
2645.00,0.0046
2644.00,0.0046
2643.00,0.0046
2642.00,0.0045
2641.00,0.0045
2640.00,0.0044
2639.00,0.0044
2638.00,0.0043
2637.00,0.0042
2636.00,0.0042
2635.00,0.0042
2634.00,0.0042
2633.00,0.0043
2632.00,0.0043
2631.00,0.0044
2630.00,0.0044
2629.00,0.0044
2628.00,0.0044
2627.00,0.0044
2626.00,0.0043
2625.00,0.0043
2624.00,0.0043
2623.00,0.0043
2622.00,0.0043
2621.00,0.0044
2620.00,0.0044
2619.00,0.0044
2618.00,0.0044
2617.00,0.0045
2616.00,0.0045
2615.00,0.0045
2614.00,0.0044
2613.00,0.0043
2612.00,0.0043
2611.00,0.0042
2610.00,0.0041
2609.00,0.0040
2608.00,0.0040
2607.00,0.0039
2606.00,0.0038
2605.00,0.0038
2604.00,0.0037
2603.00,0.0036
2602.00,0.0036
2601.00,0.0035
2600.00,0.0034
2599.00,0.0034
2598.00,0.0034
2597.00,0.0035
2596.00,0.0035
2595.00,0.0035
2594.00,0.0035
2593.00,0.0035
2592.00,0.0035
2591.00,0.0035
2590.00,0.0035
2589.00,0.0036
2588.00,0.0037
2587.00,0.0038
2586.00,0.0040
2585.00,0.0041
2584.00,0.0042
2583.00,0.0042
2582.00,0.0041
2581.00,0.0041
2580.00,0.0041
2579.00,0.0040
2578.00,0.0040
2577.00,0.0038
2576.00,0.0037
2575.00,0.0036
2574.00,0.0035
2573.00,0.0034
2572.00,0.0033
2571.00,0.0032
2570.00,0.0031
2569.00,0.0030
2568.00,0.0029
2567.00,0.0029
2566.00,0.0029
2565.00,0.0028
2564.00,0.0028
2563.00,0.0028
2562.00,0.0028
2561.00,0.0027
2560.00,0.0027
2559.00,0.0026
2558.00,0.0026
2557.00,0.0026
2556.00,0.0026
2555.00,0.0027
2554.00,0.0027
2553.00,0.0027
2552.00,0.0026
2551.00,0.0026
2550.00,0.0025
2549.00,0.0024
2548.00,0.0024
2547.00,0.0023
2546.00,0.0023
2545.00,0.0023
2544.00,0.0022
2543.00,0.0022
2542.00,0.0022
2541.00,0.0022
2540.00,0.0021
2539.00,0.0020
2538.00,0.0020
2537.00,0.0020
2536.00,0.0020
2535.00,0.0020
2534.00,0.0020
2533.00,0.0020
2532.00,0.0020
2531.00,0.0019
2530.00,0.0019
2529.00,0.0019
2528.00,0.0018
2527.00,0.0018
2526.00,0.0018
2525.00,0.0018
2524.00,0.0018
2523.00,0.0018
2522.00,0.0018
2521.00,0.0017
2520.00,0.0017
2519.00,0.0016
2518.00,0.0016
2517.00,0.0016
2516.00,0.0016
2515.00,0.0016
2514.00,0.0015
2513.00,0.0015
2512.00,0.0014
2511.00,0.0014
2510.00,0.0014
2509.00,0.0013
2508.00,0.0013
2507.00,0.0013
2506.00,0.0013
2505.00,0.0013
2504.00,0.0014
2503.00,0.0014
2502.00,0.0014
2501.00,0.0014
2500.00,0.0014
2499.00,0.0014
2498.00,0.0015
2497.00,0.0015
2496.00,0.0015
2495.00,0.0015
2494.00,0.0014
2493.00,0.0013
2492.00,0.0013
2491.00,0.0012
2490.00,0.0012
2489.00,0.0013
2488.00,0.0014
2487.00,0.0015
2486.00,0.0015
2485.00,0.0014
2484.00,0.0014
2483.00,0.0013
2482.00,0.0013
2481.00,0.0013
2480.00,0.0014
2479.00,0.0014
2478.00,0.0014
2477.00,0.0014
2476.00,0.0014
2475.00,0.0014
2474.00,0.0013
2473.00,0.0013
2472.00,0.0013
2471.00,0.0012
2470.00,0.0012
2469.00,0.0012
2468.00,0.0012
2467.00,0.0013
2466.00,0.0013
2465.00,0.0013
2464.00,0.0013
2463.00,0.0013
2462.00,0.0013
2461.00,0.0013
2460.00,0.0014
2459.00,0.0015
2458.00,0.0015
2457.00,0.0016
2456.00,0.0015
2455.00,0.0015
2454.00,0.0015
2453.00,0.0015
2452.00,0.0015
2451.00,0.0015
2450.00,0.0016
2449.00,0.0016
2448.00,0.0016
2447.00,0.0015
2446.00,0.0015
2445.00,0.0014
2444.00,0.0014
2443.00,0.0014
2442.00,0.0014
2441.00,0.0015
2440.00,0.0015
2439.00,0.0015
2438.00,0.0015
2437.00,0.0015
2436.00,0.0015
2435.00,0.0015
2434.00,0.0016
2433.00,0.0016
2432.00,0.0016
2431.00,0.0015
2430.00,0.0015
2429.00,0.0015
2428.00,0.0015
2427.00,0.0015
2426.00,0.0015
2425.00,0.0015
2424.00,0.0014
2423.00,0.0013
2422.00,0.0013
2421.00,0.0013
2420.00,0.0013
2419.00,0.0013
2418.00,0.0013
2417.00,0.0013
2416.00,0.0013
2415.00,0.0013
2414.00,0.0013
2413.00,0.0013
2412.00,0.0013
2411.00,0.0013
2410.00,0.0013
2409.00,0.0012
2408.00,0.0012
2407.00,0.0012
2406.00,0.0012
2405.00,0.0012
2404.00,0.0012
2403.00,0.0012
2402.00,0.0012
2401.00,0.0011
2400.00,0.0011
2399.00,0.0011
2398.00,0.0011
2397.00,0.0011
2396.00,0.0011
2395.00,0.0011
2394.00,0.0010
2393.00,0.0010
2392.00,0.0010
2391.00,0.0010
2390.00,0.0010
2389.00,0.0010
2388.00,0.0009
2387.00,0.0009
2386.00,0.0009
2385.00,0.0009
2384.00,0.0009
2383.00,0.0009
2382.00,0.0009
2381.00,0.0009
2380.00,0.0008
2379.00,0.0007
2378.00,0.0007
2377.00,0.0007
2376.00,0.0008
2375.00,0.0008
2374.00,0.0008
2373.00,0.0008
2372.00,0.0008
2371.00,0.0007
2370.00,0.0007
2369.00,0.0007
2368.00,0.0007
2367.00,0.0008
2366.00,0.0008
2365.00,0.0008
2364.00,0.0008
2363.00,0.0008
2362.00,0.0008
2361.00,0.0009
2360.00,0.0010
2359.00,0.0010
2358.00,0.0009
2357.00,0.0009
2356.00,0.0009
2355.00,0.0009
2354.00,0.0009
2353.00,0.0008
2352.00,0.0008
2351.00,0.0009
2350.00,0.0009
2349.00,0.0010
2348.00,0.0010
2347.00,0.0010
2346.00,0.0010
2345.00,0.0010
2344.00,0.0010
2343.00,0.0011
2342.00,0.0011
2341.00,0.0012
2340.00,0.0012
2339.00,0.0012
2338.00,0.0012
2337.00,0.0011
2336.00,0.0011
2335.00,0.0010
2334.00,0.0010
2333.00,0.0009
2332.00,0.0009
2331.00,0.0010
2330.00,0.0011
2329.00,0.0012
2328.00,0.0014
2327.00,0.0016
2326.00,0.0020
2325.00,0.0023
2324.00,0.0025
2323.00,0.0024
2322.00,0.0022
2321.00,0.0019
2320.00,0.0017
2319.00,0.0017
2318.00,0.0016
2317.00,0.0016
2316.00,0.0015
2315.00,0.0014
2314.00,0.0013
2313.00,0.0013
2312.00,0.0013
2311.00,0.0013
2310.00,0.0012
2309.00,0.0012
2308.00,0.0012
2307.00,0.0013
2306.00,0.0013
2305.00,0.0014
2304.00,0.0014
2303.00,0.0015
2302.00,0.0015
2301.00,0.0015
2300.00,0.0016
2299.00,0.0016
2298.00,0.0017
2297.00,0.0018
2296.00,0.0018
2295.00,0.0019
2294.00,0.0019
2293.00,0.0019
2292.00,0.0020
2291.00,0.0021
2290.00,0.0022
2289.00,0.0023
2288.00,0.0024
2287.00,0.0024
2286.00,0.0023
2285.00,0.0021
2284.00,0.0020
2283.00,0.0018
2282.00,0.0017
2281.00,0.0016
2280.00,0.0016
2279.00,0.0017
2278.00,0.0019
2277.00,0.0020
2276.00,0.0020
2275.00,0.0020
2274.00,0.0020
2273.00,0.0020
2272.00,0.0019
2271.00,0.0018
2270.00,0.0017
2269.00,0.0017
2268.00,0.0016
2267.00,0.0016
2266.00,0.0015
2265.00,0.0014
2264.00,0.0014
2263.00,0.0013
2262.00,0.0013
2261.00,0.0014
2260.00,0.0014
2259.00,0.0014
2258.00,0.0014
2257.00,0.0014
2256.00,0.0013
2255.00,0.0012
2254.00,0.0011
2253.00,0.0010
2252.00,0.0011
2251.00,0.0011
2250.00,0.0012
2249.00,0.0013
2248.00,0.0014
2247.00,0.0015
2246.00,0.0015
2245.00,0.0016
2244.00,0.0016
2243.00,0.0016
2242.00,0.0016
2241.00,0.0015
2240.00,0.0013
2239.00,0.0011
2238.00,0.0010
2237.00,0.0010
2236.00,0.0011
2235.00,0.0013
2234.00,0.0014
2233.00,0.0014
2232.00,0.0013
2231.00,0.0012
2230.00,0.0011
2229.00,0.0011
2228.00,0.0011
2227.00,0.0010
2226.00,0.0010
2225.00,0.0009
2224.00,0.0009
2223.00,0.0010
2222.00,0.0012
2221.00,0.0013
2220.00,0.0012
2219.00,0.0012
2218.00,0.0011
2217.00,0.0011
2216.00,0.0010
2215.00,0.0009
2214.00,0.0009
2213.00,0.0009
2212.00,0.0009
2211.00,0.0009
2210.00,0.0007
2209.00,0.0005
2208.00,0.0004
2207.00,0.0003
2206.00,0.0004
2205.00,0.0005
2204.00,0.0007
2203.00,0.0008
2202.00,0.0009
2201.00,0.0008
2200.00,0.0008
2199.00,0.0007
2198.00,0.0007
2197.00,0.0008
2196.00,0.0009
2195.00,0.0009
2194.00,0.0009
2193.00,0.0009
2192.00,0.0010
2191.00,0.0010
2190.00,0.0012
2189.00,0.0014
2188.00,0.0017
2187.00,0.0018
2186.00,0.0018
2185.00,0.0016
2184.00,0.0014
2183.00,0.0010
2182.00,0.0005
2181.00,0.0003
2180.00,0.0005
2179.00,0.0008
2178.00,0.0011
2177.00,0.0012
2176.00,0.0012
2175.00,0.0011
2174.00,0.0011
2173.00,0.0013
2172.00,0.0014
2171.00,0.0016
2170.00,0.0018
2169.00,0.0020
2168.00,0.0022
2167.00,0.0023
2166.00,0.0023
2165.00,0.0022
2164.00,0.0022
2163.00,0.0022
2162.00,0.0022
2161.00,0.0017
2160.00,0.0007
2159.00,-0.0007
2158.00,-0.0020
2157.00,-0.0026
2156.00,-0.0026
2155.00,-0.0023
2154.00,-0.0020
2153.00,-0.0018
2152.00,-0.0016
2151.00,-0.0014
2150.00,-0.0012
2149.00,-0.0010
2148.00,-0.0008
2147.00,-0.0009
2146.00,-0.0011
2145.00,-0.0012
2144.00,-0.0012
2143.00,-0.0010
2142.00,-0.0009
2141.00,-0.0008
2140.00,-0.0007
2139.00,-0.0007
2138.00,-0.0007
2137.00,-0.0008
2136.00,-0.0011
2135.00,-0.0014
2134.00,-0.0016
2133.00,-0.0015
2132.00,-0.0013
2131.00,-0.0010
2130.00,-0.0008
2129.00,-0.0007
2128.00,-0.0006
2127.00,-0.0006
2126.00,-0.0006
2125.00,-0.0005
2124.00,-0.0004
2123.00,-0.0003
2122.00,-0.0002
2121.00,-0.0002
2120.00,-0.0001
2119.00,0.0000
2118.00,0.0002
2117.00,0.0003
2116.00,0.0005
2115.00,0.0006
2114.00,0.0006
2113.00,0.0006
2112.00,0.0005
2111.00,0.0004
2110.00,0.0004
2109.00,0.0004
2108.00,0.0005
2107.00,0.0006
2106.00,0.0006
2105.00,0.0005
2104.00,0.0005
2103.00,0.0005
2102.00,0.0005
2101.00,0.0005
2100.00,0.0005
2099.00,0.0004
2098.00,0.0003
2097.00,0.0002
2096.00,0.0000
2095.00,-0.0002
2094.00,-0.0003
2093.00,-0.0002
2092.00,-0.0000
2091.00,0.0002
2090.00,0.0004
2089.00,0.0005
2088.00,0.0006
2087.00,0.0007
2086.00,0.0007
2085.00,0.0008
2084.00,0.0007
2083.00,0.0006
2082.00,0.0005
2081.00,0.0005
2080.00,0.0006
2079.00,0.0006
2078.00,0.0006
2077.00,0.0005
2076.00,0.0004
2075.00,0.0003
2074.00,0.0003
2073.00,0.0003
2072.00,0.0002
2071.00,0.0002
2070.00,0.0001
2069.00,0.0002
2068.00,0.0002
2067.00,0.0003
2066.00,0.0003
2065.00,0.0003
2064.00,0.0004
2063.00,0.0004
2062.00,0.0005
2061.00,0.0005
2060.00,0.0005
2059.00,0.0004
2058.00,0.0003
2057.00,0.0002
2056.00,0.0001
2055.00,-0.0001
2054.00,0.0001
2053.00,0.0005
2052.00,0.0012
2051.00,0.0016
2050.00,0.0016
2049.00,0.0012
2048.00,0.0006
2047.00,0.0003
2046.00,0.0001
2045.00,0.0000
2044.00,-0.0002
2043.00,-0.0004
2042.00,-0.0004
2041.00,-0.0003
2040.00,-0.0002
2039.00,-0.0002
2038.00,-0.0003
2037.00,-0.0002
2036.00,-0.0001
2035.00,-0.0001
2034.00,-0.0001
2033.00,-0.0001
2032.00,-0.0001
2031.00,-0.0003
2030.00,-0.0005
2029.00,-0.0008
2028.00,-0.0010
2027.00,-0.0011
2026.00,-0.0010
2025.00,-0.0008
2024.00,-0.0006
2023.00,-0.0007
2022.00,-0.0009
2021.00,-0.0011
2020.00,-0.0011
2019.00,-0.0010
2018.00,-0.0009
2017.00,-0.0007
2016.00,-0.0006
2015.00,-0.0006
2014.00,-0.0006
2013.00,-0.0005
2012.00,-0.0005
2011.00,-0.0005
2010.00,-0.0007
2009.00,-0.0008
2008.00,-0.0011
2007.00,-0.0015
2006.00,-0.0018
2005.00,-0.0018
2004.00,-0.0016
2003.00,-0.0014
2002.00,-0.0013
2001.00,-0.0012
2000.00,-0.0013
1999.00,-0.0015
1998.00,-0.0017
1997.00,-0.0018
1996.00,-0.0018
1995.00,-0.0018
1994.00,-0.0017
1993.00,-0.0015
1992.00,-0.0013
1991.00,-0.0011
1990.00,-0.0008
1989.00,-0.0006
1988.00,-0.0004
1987.00,-0.0002
1986.00,-0.0001
1985.00,0.0002
1984.00,0.0006
1983.00,0.0011
1982.00,0.0015
1981.00,0.0018
1980.00,0.0016
1979.00,0.0011
1978.00,0.0005
1977.00,-0.0001
1976.00,-0.0004
1975.00,-0.0006
1974.00,-0.0008
1973.00,-0.0011
1972.00,-0.0012
1971.00,-0.0011
1970.00,-0.0010
1969.00,-0.0010
1968.00,-0.0013
1967.00,-0.0017
1966.00,-0.0019
1965.00,-0.0020
1964.00,-0.0020
1963.00,-0.0021
1962.00,-0.0022
1961.00,-0.0022
1960.00,-0.0022
1959.00,-0.0022
1958.00,-0.0022
1957.00,-0.0021
1956.00,-0.0019
1955.00,-0.0018
1954.00,-0.0017
1953.00,-0.0017
1952.00,-0.0016
1951.00,-0.0015
1950.00,-0.0014
1949.00,-0.0012
1948.00,-0.0010
1947.00,-0.0010
1946.00,-0.0010
1945.00,-0.0011
1944.00,-0.0013
1943.00,-0.0013
1942.00,-0.0013
1941.00,-0.0011
1940.00,-0.0010
1939.00,-0.0009
1938.00,-0.0007
1937.00,-0.0006
1936.00,-0.0004
1935.00,-0.0004
1934.00,-0.0003
1933.00,-0.0004
1932.00,-0.0005
1931.00,-0.0006
1930.00,-0.0007
1929.00,-0.0008
1928.00,-0.0008
1927.00,-0.0008
1926.00,-0.0007
1925.00,-0.0006
1924.00,-0.0005
1923.00,-0.0004
1922.00,-0.0004
1921.00,-0.0003
1920.00,-0.0002
1919.00,-0.0003
1918.00,-0.0003
1917.00,-0.0003
1916.00,-0.0003
1915.00,-0.0002
1914.00,-0.0001
1913.00,-0.0001
1912.00,-0.0001
1911.00,-0.0002
1910.00,-0.0001
1909.00,-0.0001
1908.00,-0.0001
1907.00,-0.0001
1906.00,-0.0001
1905.00,-0.0001
1904.00,-0.0000
1903.00,-0.0000
1902.00,0.0000
1901.00,0.0001
1900.00,0.0002
1899.00,0.0002
1898.00,0.0002
1897.00,0.0002
1896.00,0.0001
1895.00,0.0001
1894.00,0.0000
1893.00,0.0001
1892.00,0.0002
1891.00,0.0003
1890.00,0.0003
1889.00,0.0003
1888.00,0.0002
1887.00,0.0002
1886.00,0.0002
1885.00,0.0002
1884.00,0.0002
1883.00,0.0001
1882.00,0.0000
1881.00,0.0000
1880.00,0.0000
1879.00,0.0001
1878.00,0.0001
1877.00,0.0000
1876.00,-0.0000
1875.00,-0.0001
1874.00,-0.0001
1873.00,-0.0000
1872.00,0.0001
1871.00,0.0002
1870.00,0.0002
1869.00,0.0002
1868.00,0.0002
1867.00,0.0001
1866.00,0.0001
1865.00,0.0001
1864.00,0.0001
1863.00,0.0001
1862.00,0.0002
1861.00,0.0003
1860.00,0.0004
1859.00,0.0004
1858.00,0.0004
1857.00,0.0004
1856.00,0.0004
1855.00,0.0004
1854.00,0.0004
1853.00,0.0004
1852.00,0.0003
1851.00,0.0003
1850.00,0.0002
1849.00,0.0002
1848.00,0.0002
1847.00,0.0002
1846.00,0.0002
1845.00,0.0003
1844.00,0.0003
1843.00,0.0004
1842.00,0.0004
1841.00,0.0005
1840.00,0.0006
1839.00,0.0006
1838.00,0.0006
1837.00,0.0006
1836.00,0.0006
1835.00,0.0006
1834.00,0.0006
1833.00,0.0005
1832.00,0.0005
1831.00,0.0005
1830.00,0.0005
1829.00,0.0004
1828.00,0.0004
1827.00,0.0004
1826.00,0.0005
1825.00,0.0006
1824.00,0.0007
1823.00,0.0007
1822.00,0.0007
1821.00,0.0007
1820.00,0.0006
1819.00,0.0005
1818.00,0.0004
1817.00,0.0003
1816.00,0.0003
1815.00,0.0003
1814.00,0.0004
1813.00,0.0004
1812.00,0.0004
1811.00,0.0005
1810.00,0.0005
1809.00,0.0006
1808.00,0.0006
1807.00,0.0005
1806.00,0.0005
1805.00,0.0005
1804.00,0.0006
1803.00,0.0007
1802.00,0.0008
1801.00,0.0008
1800.00,0.0008
1799.00,0.0008
1798.00,0.0008
1797.00,0.0008
1796.00,0.0008
1795.00,0.0009
1794.00,0.0009
1793.00,0.0009
1792.00,0.0009
1791.00,0.0009
1790.00,0.0010
1789.00,0.0010
1788.00,0.0011
1787.00,0.0011
1786.00,0.0011
1785.00,0.0011
1784.00,0.0012
1783.00,0.0011
1782.00,0.0011
1781.00,0.0011
1780.00,0.0011
1779.00,0.0011
1778.00,0.0012
1777.00,0.0012
1776.00,0.0013
1775.00,0.0013
1774.00,0.0013
1773.00,0.0013
1772.00,0.0013
1771.00,0.0014
1770.00,0.0014
1769.00,0.0015
1768.00,0.0015
1767.00,0.0015
1766.00,0.0015
1765.00,0.0014
1764.00,0.0014
1763.00,0.0015
1762.00,0.0015
1761.00,0.0016
1760.00,0.0017
1759.00,0.0017
1758.00,0.0017
1757.00,0.0018
1756.00,0.0018
1755.00,0.0018
1754.00,0.0018
1753.00,0.0019
1752.00,0.0021
1751.00,0.0022
1750.00,0.0023
1749.00,0.0024
1748.00,0.0024
1747.00,0.0025
1746.00,0.0026
1745.00,0.0027
1744.00,0.0028
1743.00,0.0029
1742.00,0.0030
1741.00,0.0031
1740.00,0.0032
1739.00,0.0033
1738.00,0.0033
1737.00,0.0033
1736.00,0.0033
1735.00,0.0033
1734.00,0.0032
1733.00,0.0032
1732.00,0.0031
1731.00,0.0031
1730.00,0.0031
1729.00,0.0032
1728.00,0.0032
1727.00,0.0032
1726.00,0.0032
1725.00,0.0032
1724.00,0.0032
1723.00,0.0031
1722.00,0.0031
1721.00,0.0031
1720.00,0.0030
1719.00,0.0029
1718.00,0.0028
1717.00,0.0028
1716.00,0.0028
1715.00,0.0028
1714.00,0.0027
1713.00,0.0027
1712.00,0.0027
1711.00,0.0027
1710.00,0.0027
1709.00,0.0028
1708.00,0.0028
1707.00,0.0029
1706.00,0.0029
1705.00,0.0029
1704.00,0.0029
1703.00,0.0030
1702.00,0.0030
1701.00,0.0031
1700.00,0.0031
1699.00,0.0032
1698.00,0.0032
1697.00,0.0032
1696.00,0.0033
1695.00,0.0034
1694.00,0.0034
1693.00,0.0034
1692.00,0.0034
1691.00,0.0034
1690.00,0.0035
1689.00,0.0036
1688.00,0.0036
1687.00,0.0037
1686.00,0.0036
1685.00,0.0037
1684.00,0.0038
1683.00,0.0040
1682.00,0.0041
1681.00,0.0042
1680.00,0.0043
1679.00,0.0044
1678.00,0.0044
1677.00,0.0046
1676.00,0.0047
1675.00,0.0048
1674.00,0.0048
1673.00,0.0048
1672.00,0.0048
1671.00,0.0048
1670.00,0.0049
1669.00,0.0049
1668.00,0.0050
1667.00,0.0050
1666.00,0.0051
1665.00,0.0052
1664.00,0.0053
1663.00,0.0054
1662.00,0.0054
1661.00,0.0055
1660.00,0.0056
1659.00,0.0056
1658.00,0.0057
1657.00,0.0057
1656.00,0.0058
1655.00,0.0058
1654.00,0.0059
1653.00,0.0061
1652.00,0.0062
1651.00,0.0062
1650.00,0.0063
1649.00,0.0064
1648.00,0.0066
1647.00,0.0068
1646.00,0.0068
1645.00,0.0069
1644.00,0.0069
1643.00,0.0070
1642.00,0.0071
1641.00,0.0072
1640.00,0.0073
1639.00,0.0074
1638.00,0.0074
1637.00,0.0075
1636.00,0.0075
1635.00,0.0075
1634.00,0.0074
1633.00,0.0074
1632.00,0.0073
1631.00,0.0073
1630.00,0.0072
1629.00,0.0072
1628.00,0.0072
1627.00,0.0072
1626.00,0.0071
1625.00,0.0071
1624.00,0.0071
1623.00,0.0071
1622.00,0.0070
1621.00,0.0070
1620.00,0.0070
1619.00,0.0069
1618.00,0.0069
1617.00,0.0069
1616.00,0.0069
1615.00,0.0070
1614.00,0.0070
1613.00,0.0070
1612.00,0.0070
1611.00,0.0070
1610.00,0.0070
1609.00,0.0070
1608.00,0.0069
1607.00,0.0069
1606.00,0.0069
1605.00,0.0069
1604.00,0.0070
1603.00,0.0070
1602.00,0.0071
1601.00,0.0071
1600.00,0.0072
1599.00,0.0072
1598.00,0.0071
1597.00,0.0071
1596.00,0.0071
1595.00,0.0072
1594.00,0.0072
1593.00,0.0073
1592.00,0.0074
1591.00,0.0076
1590.00,0.0077
1589.00,0.0079
1588.00,0.0082
1587.00,0.0085
1586.00,0.0088
1585.00,0.0092
1584.00,0.0096
1583.00,0.0101
1582.00,0.0106
1581.00,0.0110
1580.00,0.0114
1579.00,0.0116
1578.00,0.0118
1577.00,0.0118
1576.00,0.0116
1575.00,0.0113
1574.00,0.0110
1573.00,0.0107
1572.00,0.0105
1571.00,0.0102
1570.00,0.0100
1569.00,0.0097
1568.00,0.0094
1567.00,0.0092
1566.00,0.0090
1565.00,0.0089
1564.00,0.0089
1563.00,0.0089
1562.00,0.0089
1561.00,0.0089
1560.00,0.0090
1559.00,0.0090
1558.00,0.0090
1557.00,0.0089
1556.00,0.0090
1555.00,0.0091
1554.00,0.0093
1553.00,0.0095
1552.00,0.0098
1551.00,0.0101
1550.00,0.0104
1549.00,0.0108
1548.00,0.0112
1547.00,0.0117
1546.00,0.0122
1545.00,0.0127
1544.00,0.0132
1543.00,0.0136
1542.00,0.0138
1541.00,0.0137
1540.00,0.0133
1539.00,0.0125
1538.00,0.0119
1537.00,0.0114
1536.00,0.0109
1535.00,0.0103
1534.00,0.0097
1533.00,0.0090
1532.00,0.0086
1531.00,0.0083
1530.00,0.0080
1529.00,0.0078
1528.00,0.0077
1527.00,0.0075
1526.00,0.0074
1525.00,0.0073
1524.00,0.0072
1523.00,0.0072
1522.00,0.0071
1521.00,0.0072
1520.00,0.0072
1519.00,0.0071
1518.00,0.0071
1517.00,0.0071
1516.00,0.0072
1515.00,0.0072
1514.00,0.0072
1513.00,0.0073
1512.00,0.0074
1511.00,0.0074
1510.00,0.0075
1509.00,0.0076
1508.00,0.0077
1507.00,0.0078
1506.00,0.0078
1505.00,0.0078
1504.00,0.0079
1503.00,0.0081
1502.00,0.0082
1501.00,0.0085
1500.00,0.0087
1499.00,0.0089
1498.00,0.0091
1497.00,0.0094
1496.00,0.0098
1495.00,0.0101
1494.00,0.0103
1493.00,0.0107
1492.00,0.0111
1491.00,0.0115
1490.00,0.0119
1489.00,0.0126
1488.00,0.0132
1487.00,0.0138
1486.00,0.0144
1485.00,0.0152
1484.00,0.0160
1483.00,0.0170
1482.00,0.0181
1481.00,0.0195
1480.00,0.0210
1479.00,0.0225
1478.00,0.0242
1477.00,0.0265
1476.00,0.0292
1475.00,0.0323
1474.00,0.0363
1473.00,0.0419
1472.00,0.0483
1471.00,0.0545
1470.00,0.0604
1469.00,0.0666
1468.00,0.0734
1467.00,0.0808
1466.00,0.0890
1465.00,0.0979
1464.00,0.1055
1463.00,0.1107
1462.00,0.1141
1461.00,0.1163
1460.00,0.1179
1459.00,0.1191
1458.00,0.1203
1457.00,0.1213
1456.00,0.1215
1455.00,0.1208
1454.00,0.1199
1453.00,0.1184
1452.00,0.1162
1451.00,0.1129
1450.00,0.1082
1449.00,0.1016
1448.00,0.0929
1447.00,0.0835
1446.00,0.0748
1445.00,0.0672
1444.00,0.0606
1443.00,0.0552
1442.00,0.0510
1441.00,0.0480
1440.00,0.0461
1439.00,0.0452
1438.00,0.0451
1437.00,0.0450
1436.00,0.0439
1435.00,0.0415
1434.00,0.0381
1433.00,0.0340
1432.00,0.0297
1431.00,0.0259
1430.00,0.0229
1429.00,0.0206
1428.00,0.0191
1427.00,0.0182
1426.00,0.0175
1425.00,0.0170
1424.00,0.0164
1423.00,0.0161
1422.00,0.0160
1421.00,0.0158
1420.00,0.0155
1419.00,0.0151
1418.00,0.0148
1417.00,0.0144
1416.00,0.0140
1415.00,0.0138
1414.00,0.0137
1413.00,0.0135
1412.00,0.0133
1411.00,0.0131
1410.00,0.0130
1409.00,0.0129
1408.00,0.0128
1407.00,0.0127
1406.00,0.0127
1405.00,0.0126
1404.00,0.0125
1403.00,0.0124
1402.00,0.0125
1401.00,0.0126
1400.00,0.0126
1399.00,0.0128
1398.00,0.0129
1397.00,0.0131
1396.00,0.0132
1395.00,0.0136
1394.00,0.0141
1393.00,0.0145
1392.00,0.0150
1391.00,0.0157
1390.00,0.0166
1389.00,0.0180
1388.00,0.0199
1387.00,0.0229
1386.00,0.0270
1385.00,0.0325
1384.00,0.0399
1383.00,0.0503
1382.00,0.0641
1381.00,0.0817
1380.00,0.1032
1379.00,0.1277
1378.00,0.1515
1377.00,0.1690
1376.00,0.1750
1375.00,0.1665
1374.00,0.1460
1373.00,0.1211
1372.00,0.0983
1371.00,0.0794
1370.00,0.0644
1369.00,0.0530
1368.00,0.0451
1367.00,0.0403
1366.00,0.0376
1365.00,0.0366
1364.00,0.0368
1363.00,0.0380
1362.00,0.0399
1361.00,0.0419
1360.00,0.0434
1359.00,0.0439
1358.00,0.0429
1357.00,0.0405
1356.00,0.0372
1355.00,0.0335
1354.00,0.0300
1353.00,0.0270
1352.00,0.0245
1351.00,0.0225
1350.00,0.0208
1349.00,0.0194
1348.00,0.0183
1347.00,0.0172
1346.00,0.0163
1345.00,0.0156
1344.00,0.0149
1343.00,0.0144
1342.00,0.0140
1341.00,0.0137
1340.00,0.0134
1339.00,0.0132
1338.00,0.0131
1337.00,0.0130
1336.00,0.0130
1335.00,0.0131
1334.00,0.0134
1333.00,0.0137
1332.00,0.0140
1331.00,0.0143
1330.00,0.0144
1329.00,0.0143
1328.00,0.0140
1327.00,0.0136
1326.00,0.0132
1325.00,0.0127
1324.00,0.0123
1323.00,0.0118
1322.00,0.0114
1321.00,0.0111
1320.00,0.0109
1319.00,0.0107
1318.00,0.0105
1317.00,0.0103
1316.00,0.0102
1315.00,0.0101
1314.00,0.0101
1313.00,0.0102
1312.00,0.0103
1311.00,0.0106
1310.00,0.0110
1309.00,0.0117
1308.00,0.0128
1307.00,0.0141
1306.00,0.0153
1305.00,0.0162
1304.00,0.0164
1303.00,0.0161
1302.00,0.0154
1301.00,0.0147
1300.00,0.0143
1299.00,0.0140
1298.00,0.0139
1297.00,0.0138
1296.00,0.0136
1295.00,0.0134
1294.00,0.0131
1293.00,0.0126
1292.00,0.0122
1291.00,0.0118
1290.00,0.0114
1289.00,0.0110
1288.00,0.0107
1287.00,0.0105
1286.00,0.0102
1285.00,0.0100
1284.00,0.0098
1283.00,0.0096
1282.00,0.0095
1281.00,0.0095
1280.00,0.0094
1279.00,0.0094
1278.00,0.0093
1277.00,0.0093
1276.00,0.0093
1275.00,0.0092
1274.00,0.0092
1273.00,0.0092
1272.00,0.0092
1271.00,0.0093
1270.00,0.0094
1269.00,0.0096
1268.00,0.0098
1267.00,0.0101
1266.00,0.0104
1265.00,0.0107
1264.00,0.0110
1263.00,0.0113
1262.00,0.0117
1261.00,0.0122
1260.00,0.0129
1259.00,0.0136
1258.00,0.0145
1257.00,0.0151
1256.00,0.0154
1255.00,0.0152
1254.00,0.0145
1253.00,0.0134
1252.00,0.0124
1251.00,0.0116
1250.00,0.0110
1249.00,0.0105
1248.00,0.0102
1247.00,0.0099
1246.00,0.0097
1245.00,0.0095
1244.00,0.0093
1243.00,0.0092
1242.00,0.0092
1241.00,0.0092
1240.00,0.0092
1239.00,0.0092
1238.00,0.0092
1237.00,0.0091
1236.00,0.0092
1235.00,0.0092
1234.00,0.0093
1233.00,0.0093
1232.00,0.0093
1231.00,0.0094
1230.00,0.0095
1229.00,0.0096
1228.00,0.0098
1227.00,0.0100
1226.00,0.0103
1225.00,0.0105
1224.00,0.0108
1223.00,0.0111
1222.00,0.0114
1221.00,0.0117
1220.00,0.0118
1219.00,0.0119
1218.00,0.0118
1217.00,0.0117
1216.00,0.0114
1215.00,0.0112
1214.00,0.0109
1213.00,0.0107
1212.00,0.0105
1211.00,0.0102
1210.00,0.0100
1209.00,0.0098
1208.00,0.0097
1207.00,0.0096
1206.00,0.0096
1205.00,0.0095
1204.00,0.0095
1203.00,0.0096
1202.00,0.0096
1201.00,0.0096
1200.00,0.0097
1199.00,0.0098
1198.00,0.0098
1197.00,0.0099
1196.00,0.0099
1195.00,0.0099
1194.00,0.0099
1193.00,0.0098
1192.00,0.0098
1191.00,0.0098
1190.00,0.0098
1189.00,0.0098
1188.00,0.0098
1187.00,0.0098
1186.00,0.0099
1185.00,0.0101
1184.00,0.0102
1183.00,0.0103
1182.00,0.0105
1181.00,0.0108
1180.00,0.0112
1179.00,0.0117
1178.00,0.0123
1177.00,0.0132
1176.00,0.0144
1175.00,0.0160
1174.00,0.0182
1173.00,0.0211
1172.00,0.0245
1171.00,0.0284
1170.00,0.0321
1169.00,0.0352
1168.00,0.0370
1167.00,0.0373
1166.00,0.0362
1165.00,0.0342
1164.00,0.0319
1163.00,0.0296
1162.00,0.0276
1161.00,0.0259
1160.00,0.0246
1159.00,0.0237
1158.00,0.0229
1157.00,0.0222
1156.00,0.0218
1155.00,0.0214
1154.00,0.0211
1153.00,0.0208
1152.00,0.0203
1151.00,0.0196
1150.00,0.0188
1149.00,0.0178
1148.00,0.0169
1147.00,0.0160
1146.00,0.0152
1145.00,0.0145
1144.00,0.0137
1143.00,0.0130
1142.00,0.0123
1141.00,0.0118
1140.00,0.0113
1139.00,0.0110
1138.00,0.0107
1137.00,0.0105
1136.00,0.0103
1135.00,0.0101
1134.00,0.0099
1133.00,0.0098
1132.00,0.0097
1131.00,0.0097
1130.00,0.0098
1129.00,0.0099
1128.00,0.0100
1127.00,0.0101
1126.00,0.0102
1125.00,0.0103
1124.00,0.0103
1123.00,0.0103
1122.00,0.0103
1121.00,0.0104
1120.00,0.0104
1119.00,0.0104
1118.00,0.0104
1117.00,0.0104
1116.00,0.0106
1115.00,0.0107
1114.00,0.0109
1113.00,0.0111
1112.00,0.0112
1111.00,0.0114
1110.00,0.0116
1109.00,0.0119
1108.00,0.0123
1107.00,0.0128
1106.00,0.0134
1105.00,0.0139
1104.00,0.0143
1103.00,0.0145
1102.00,0.0144
1101.00,0.0141
1100.00,0.0136
1099.00,0.0129
1098.00,0.0124
1097.00,0.0118
1096.00,0.0114
1095.00,0.0111
1094.00,0.0109
1093.00,0.0107
1092.00,0.0106
1091.00,0.0103
1090.00,0.0100
1089.00,0.0098
1088.00,0.0096
1087.00,0.0094
1086.00,0.0094
1085.00,0.0095
1084.00,0.0096
1083.00,0.0096
1082.00,0.0095
1081.00,0.0095
1080.00,0.0093
1079.00,0.0092
1078.00,0.0092
1077.00,0.0091
1076.00,0.0091
1075.00,0.0091
1074.00,0.0091
1073.00,0.0091
1072.00,0.0091
1071.00,0.0090
1070.00,0.0088
1069.00,0.0087
1068.00,0.0087
1067.00,0.0088
1066.00,0.0089
1065.00,0.0090
1064.00,0.0091
1063.00,0.0093
1062.00,0.0093
1061.00,0.0093
1060.00,0.0094
1059.00,0.0094
1058.00,0.0096
1057.00,0.0098
1056.00,0.0099
1055.00,0.0102
1054.00,0.0104
1053.00,0.0107
1052.00,0.0110
1051.00,0.0115
1050.00,0.0120
1049.00,0.0126
1048.00,0.0131
1047.00,0.0136
1046.00,0.0141
1045.00,0.0144
1044.00,0.0145
1043.00,0.0144
1042.00,0.0142
1041.00,0.0140
1040.00,0.0139
1039.00,0.0139
1038.00,0.0140
1037.00,0.0140
1036.00,0.0140
1035.00,0.0140
1034.00,0.0138
1033.00,0.0136
1032.00,0.0133
1031.00,0.0131
1030.00,0.0128
1029.00,0.0127
1028.00,0.0127
1027.00,0.0128
1026.00,0.0130
1025.00,0.0132
1024.00,0.0135
1023.00,0.0137
1022.00,0.0138
1021.00,0.0140
1020.00,0.0142
1019.00,0.0145
1018.00,0.0148
1017.00,0.0149
1016.00,0.0150
1015.00,0.0151
1014.00,0.0153
1013.00,0.0155
1012.00,0.0157
1011.00,0.0158
1010.00,0.0158
1009.00,0.0158
1008.00,0.0159
1007.00,0.0164
1006.00,0.0171
1005.00,0.0183
1004.00,0.0201
1003.00,0.0226
1002.00,0.0262
1001.00,0.0307
1000.00,0.0356
999.00,0.0397
998.00,0.0418
997.00,0.0412
996.00,0.0380
995.00,0.0333
994.00,0.0282
993.00,0.0238
992.00,0.0204
991.00,0.0179
990.00,0.0162
989.00,0.0150
988.00,0.0142
987.00,0.0136
986.00,0.0134
985.00,0.0135
984.00,0.0139
983.00,0.0146
982.00,0.0158
981.00,0.0174
980.00,0.0197
979.00,0.0227
978.00,0.0266
977.00,0.0313
976.00,0.0365
975.00,0.0416
974.00,0.0456
973.00,0.0473
972.00,0.0460
971.00,0.0418
970.00,0.0359
969.00,0.0298
968.00,0.0245
967.00,0.0204
966.00,0.0174
965.00,0.0153
964.00,0.0138
963.00,0.0127
962.00,0.0119
961.00,0.0113
960.00,0.0108
959.00,0.0104
958.00,0.0100
957.00,0.0097
956.00,0.0095
955.00,0.0093
954.00,0.0091
953.00,0.0089
952.00,0.0088
951.00,0.0087
950.00,0.0085
949.00,0.0085
948.00,0.0085
947.00,0.0085
946.00,0.0087
945.00,0.0089
944.00,0.0091
943.00,0.0095
942.00,0.0097
941.00,0.0099
940.00,0.0099
939.00,0.0097
938.00,0.0094
937.00,0.0090
936.00,0.0085
935.00,0.0080
934.00,0.0075
933.00,0.0072
932.00,0.0070
931.00,0.0070
930.00,0.0070
929.00,0.0069
928.00,0.0068
927.00,0.0068
926.00,0.0068
925.00,0.0069
924.00,0.0070
923.00,0.0070
922.00,0.0069
921.00,0.0068
920.00,0.0068
919.00,0.0068
918.00,0.0068
917.00,0.0068
916.00,0.0069
915.00,0.0069
914.00,0.0070
913.00,0.0072
912.00,0.0073
911.00,0.0075
910.00,0.0076
909.00,0.0078
908.00,0.0081
907.00,0.0085
906.00,0.0091
905.00,0.0100
904.00,0.0112
903.00,0.0127
902.00,0.0143
901.00,0.0158
900.00,0.0169
899.00,0.0172
898.00,0.0166
897.00,0.0153
896.00,0.0136
895.00,0.0119
894.00,0.0106
893.00,0.0097
892.00,0.0091
891.00,0.0088
890.00,0.0085
889.00,0.0083
888.00,0.0082
887.00,0.0080
886.00,0.0080
885.00,0.0079
884.00,0.0080
883.00,0.0080
882.00,0.0081
881.00,0.0082
880.00,0.0082
879.00,0.0083
878.00,0.0083
877.00,0.0083
876.00,0.0083
875.00,0.0084
874.00,0.0086
873.00,0.0087
872.00,0.0087
871.00,0.0086
870.00,0.0085
869.00,0.0084
868.00,0.0084
867.00,0.0084
866.00,0.0084
865.00,0.0085
864.00,0.0087
863.00,0.0088
862.00,0.0089
861.00,0.0089
860.00,0.0090
859.00,0.0092
858.00,0.0094
857.00,0.0097
856.00,0.0099
855.00,0.0101
854.00,0.0102
853.00,0.0104
852.00,0.0108
851.00,0.0113
850.00,0.0119
849.00,0.0127
848.00,0.0137
847.00,0.0152
846.00,0.0174
845.00,0.0211
844.00,0.0264
843.00,0.0330
842.00,0.0387
841.00,0.0411
840.00,0.0389
839.00,0.0332
838.00,0.0266
837.00,0.0212
836.00,0.0176
835.00,0.0154
834.00,0.0141
833.00,0.0133
832.00,0.0127
831.00,0.0123
830.00,0.0120
829.00,0.0118
828.00,0.0117
827.00,0.0115
826.00,0.0113
825.00,0.0112
824.00,0.0111
823.00,0.0112
822.00,0.0113
821.00,0.0114
820.00,0.0115
819.00,0.0116
818.00,0.0119
817.00,0.0125
816.00,0.0132
815.00,0.0142
814.00,0.0154
813.00,0.0169
812.00,0.0186
811.00,0.0202
810.00,0.0214
809.00,0.0219
808.00,0.0216
807.00,0.0205
806.00,0.0190
805.00,0.0174
804.00,0.0160
803.00,0.0149
802.00,0.0140
801.00,0.0133
800.00,0.0127
799.00,0.0122
798.00,0.0118
797.00,0.0114
796.00,0.0109
795.00,0.0105
794.00,0.0100
793.00,0.0097
792.00,0.0095
791.00,0.0093
790.00,0.0091
789.00,0.0088
788.00,0.0084
787.00,0.0081
786.00,0.0079
785.00,0.0078
784.00,0.0078
783.00,0.0078
782.00,0.0077
781.00,0.0075
780.00,0.0073
779.00,0.0071
778.00,0.0070
777.00,0.0070
776.00,0.0071
775.00,0.0073
774.00,0.0075
773.00,0.0077
772.00,0.0077
771.00,0.0076
770.00,0.0074
769.00,0.0073
768.00,0.0072
767.00,0.0072
766.00,0.0073
765.00,0.0073
764.00,0.0073
763.00,0.0072
762.00,0.0072
761.00,0.0073
760.00,0.0073
759.00,0.0073
758.00,0.0073
757.00,0.0074
756.00,0.0076
755.00,0.0078
754.00,0.0082
753.00,0.0085
752.00,0.0088
751.00,0.0090
750.00,0.0092
749.00,0.0093
748.00,0.0093
747.00,0.0092
746.00,0.0091
745.00,0.0092
744.00,0.0093
743.00,0.0095
742.00,0.0098
741.00,0.0101
740.00,0.0106
739.00,0.0111
738.00,0.0116
737.00,0.0121
736.00,0.0125
735.00,0.0128
734.00,0.0132
733.00,0.0137
732.00,0.0144
731.00,0.0152
730.00,0.0159
729.00,0.0164
728.00,0.0166
727.00,0.0168
726.00,0.0169
725.00,0.0173
724.00,0.0178
723.00,0.0184
722.00,0.0189
721.00,0.0191
720.00,0.0188
719.00,0.0179
718.00,0.0166
717.00,0.0153
716.00,0.0142
715.00,0.0134
714.00,0.0129
713.00,0.0125
712.00,0.0123
711.00,0.0122
710.00,0.0121
709.00,0.0118
708.00,0.0115
707.00,0.0113
706.00,0.0113
705.00,0.0113
704.00,0.0112
703.00,0.0110
702.00,0.0107
701.00,0.0104
700.00,0.0103
699.00,0.0103
698.00,0.0104
697.00,0.0105
696.00,0.0105
695.00,0.0105
694.00,0.0104
693.00,0.0104
692.00,0.0105
691.00,0.0106
690.00,0.0108
689.00,0.0110
688.00,0.0111
687.00,0.0112
686.00,0.0112
685.00,0.0111
684.00,0.0110
683.00,0.0108
682.00,0.0107
681.00,0.0106
680.00,0.0106
679.00,0.0105
678.00,0.0105
677.00,0.0106
676.00,0.0108
675.00,0.0110
674.00,0.0113
673.00,0.0115
672.00,0.0117
671.00,0.0118
670.00,0.0118
669.00,0.0115
668.00,0.0112
667.00,0.0109
666.00,0.0107
665.00,0.0106
664.00,0.0105
663.00,0.0104
662.00,0.0103
661.00,0.0102
660.00,0.0101
659.00,0.0100
658.00,0.0099
657.00,0.0098
656.00,0.0096
655.00,0.0094
654.00,0.0092
653.00,0.0091
652.00,0.0092
651.00,0.0094
650.00,0.0096
649.00,0.0097
648.00,0.0097
647.00,0.0095
646.00,0.0093
645.00,0.0091
644.00,0.0090
643.00,0.0090
642.00,0.0090
641.00,0.0091
640.00,0.0092
639.00,0.0093
638.00,0.0094
637.00,0.0095
636.00,0.0096
635.00,0.0096
634.00,0.0093
633.00,0.0091
632.00,0.0090
631.00,0.0092
630.00,0.0095
629.00,0.0097
628.00,0.0097
627.00,0.0096
626.00,0.0096
625.00,0.0095
624.00,0.0094
623.00,0.0094
622.00,0.0094
621.00,0.0093
620.00,0.0091
619.00,0.0090
618.00,0.0091
617.00,0.0093
616.00,0.0094
615.00,0.0094
614.00,0.0093
613.00,0.0093
612.00,0.0095
611.00,0.0099
610.00,0.0101
609.00,0.0101
608.00,0.0096
607.00,0.0090
606.00,0.0086
605.00,0.0086
604.00,0.0088
603.00,0.0091
602.00,0.0091
601.00,0.0089
600.00,0.0086
599.00,0.0083
598.00,0.0083
597.00,0.0088
596.00,0.0095
595.00,0.0102
594.00,0.0104
593.00,0.0104
592.00,0.0103
591.00,0.0101
590.00,0.0100
589.00,0.0099
588.00,0.0098
587.00,0.0100
586.00,0.0104
585.00,0.0109
584.00,0.0113
583.00,0.0113
582.00,0.0110
581.00,0.0105
580.00,0.0102
579.00,0.0102
578.00,0.0103
577.00,0.0105
576.00,0.0106
575.00,0.0104
574.00,0.0102
573.00,0.0102
572.00,0.0102
571.00,0.0102
570.00,0.0101
569.00,0.0100
568.00,0.0100
567.00,0.0101
566.00,0.0102
565.00,0.0102
564.00,0.0102
563.00,0.0102
562.00,0.0102
561.00,0.0101
560.00,0.0099
559.00,0.0099
558.00,0.0100
557.00,0.0102
556.00,0.0104
555.00,0.0103
554.00,0.0099
553.00,0.0094
552.00,0.0090
551.00,0.0088
550.00,0.0089
549.00,0.0093
548.00,0.0097
547.00,0.0100
546.00,0.0101
545.00,0.0102
544.00,0.0103
543.00,0.0105
542.00,0.0109
541.00,0.0114
540.00,0.0116
539.00,0.0116
538.00,0.0116
537.00,0.0118
536.00,0.0122
535.00,0.0125
534.00,0.0126
533.00,0.0123
532.00,0.0121
531.00,0.0120
530.00,0.0122
529.00,0.0124
528.00,0.0124
527.00,0.0121
526.00,0.0115
525.00,0.0109
524.00,0.0105
523.00,0.0103
522.00,0.0103
521.00,0.0102
520.00,0.0098
519.00,0.0092
518.00,0.0089
517.00,0.0090
516.00,0.0095
515.00,0.0100
514.00,0.0101
513.00,0.0098
512.00,0.0091
511.00,0.0085
510.00,0.0084
509.00,0.0090
508.00,0.0099
507.00,0.0107
506.00,0.0108
505.00,0.0102
504.00,0.0093
503.00,0.0086
502.00,0.0086
501.00,0.0092
500.00,0.0097
499.00,0.0099
498.00,0.0098
497.00,0.0096
496.00,0.0094
495.00,0.0089
494.00,0.0082
493.00,0.0079
492.00,0.0080
491.00,0.0083
490.00,0.0082
489.00,0.0077
488.00,0.0071
487.00,0.0067
486.00,0.0066
485.00,0.0069
484.00,0.0077
483.00,0.0088
482.00,0.0099
481.00,0.0105
480.00,0.0108
479.00,0.0109
478.00,0.0110
477.00,0.0110
476.00,0.0107
475.00,0.0103
474.00,0.0102
473.00,0.0106
472.00,0.0115
471.00,0.0124
470.00,0.0130
469.00,0.0134
468.00,0.0139
467.00,0.0146
466.00,0.0152
465.00,0.0157
464.00,0.0165
463.00,0.0179
462.00,0.0197
461.00,0.0215
460.00,0.0227
459.00,0.0225
458.00,0.0212
457.00,0.0201
456.00,0.0195
455.00,0.0200
454.00,0.0209
453.00,0.0213
452.00,0.0205
451.00,0.0183
450.00,0.0155
