Created as New Dataset,Sample 075 By Administrator Date Thursday, September 04 2025
cm-1,A
4000.00,0.0010
3999.00,0.0010
3998.00,0.0011
3997.00,0.0011
3996.00,0.0011
3995.00,0.0011
3994.00,0.0011
3993.00,0.0011
3992.00,0.0011
3991.00,0.0011
3990.00,0.0011
3989.00,0.0010
3988.00,0.0010
3987.00,0.0010
3986.00,0.0010
3985.00,0.0009
3984.00,0.0009
3983.00,0.0009
3982.00,0.0009
3981.00,0.0008
3980.00,0.0008
3979.00,0.0008
3978.00,0.0008
3977.00,0.0008
3976.00,0.0009
3975.00,0.0009
3974.00,0.0009
3973.00,0.0009
3972.00,0.0009
3971.00,0.0010
3970.00,0.0010
3969.00,0.0010
3968.00,0.0009
3967.00,0.0009
3966.00,0.0009
3965.00,0.0009
3964.00,0.0009
3963.00,0.0009
3962.00,0.0009
3961.00,0.0009
3960.00,0.0009
3959.00,0.0009
3958.00,0.0009
3957.00,0.0008
3956.00,0.0008
3955.00,0.0008
3954.00,0.0009
3953.00,0.0009
3952.00,0.0009
3951.00,0.0009
3950.00,0.0009
3949.00,0.0009
3948.00,0.0009
3947.00,0.0009
3946.00,0.0009
3945.00,0.0008
3944.00,0.0008
3943.00,0.0008
3942.00,0.0008
3941.00,0.0008
3940.00,0.0008
3939.00,0.0008
3938.00,0.0008
3937.00,0.0008
3936.00,0.0009
3935.00,0.0009
3934.00,0.0009
3933.00,0.0009
3932.00,0.0009
3931.00,0.0009
3930.00,0.0009
3929.00,0.0009
3928.00,0.0009
3927.00,0.0009
3926.00,0.0008
3925.00,0.0008
3924.00,0.0008
3923.00,0.0008
3922.00,0.0008
3921.00,0.0008
3920.00,0.0008
3919.00,0.0008
3918.00,0.0008
3917.00,0.0008
3916.00,0.0008
3915.00,0.0009
3914.00,0.0009
3913.00,0.0009
3912.00,0.0009
3911.00,0.0009
3910.00,0.0009
3909.00,0.0009
3908.00,0.0009
3907.00,0.0008
3906.00,0.0008
3905.00,0.0008
3904.00,0.0008
3903.00,0.0008
3902.00,0.0008
3901.00,0.0007
3900.00,0.0007
3899.00,0.0007
3898.00,0.0007
3897.00,0.0007
3896.00,0.0007
3895.00,0.0008
3894.00,0.0008
3893.00,0.0008
3892.00,0.0007
3891.00,0.0007
3890.00,0.0008
3889.00,0.0008
3888.00,0.0008
3887.00,0.0008
3886.00,0.0008
3885.00,0.0008
3884.00,0.0008
3883.00,0.0008
3882.00,0.0008
3881.00,0.0007
3880.00,0.0007
3879.00,0.0008
3878.00,0.0008
3877.00,0.0008
3876.00,0.0008
3875.00,0.0008
3874.00,0.0008
3873.00,0.0008
3872.00,0.0008
3871.00,0.0007
3870.00,0.0007
3869.00,0.0007
3868.00,0.0007
3867.00,0.0008
3866.00,0.0007
3865.00,0.0007
3864.00,0.0007
3863.00,0.0008
3862.00,0.0008
3861.00,0.0008
3860.00,0.0007
3859.00,0.0007
3858.00,0.0007
3857.00,0.0007
3856.00,0.0007
3855.00,0.0007
3854.00,0.0007
3853.00,0.0006
3852.00,0.0007
3851.00,0.0007
3850.00,0.0007
3849.00,0.0007
3848.00,0.0007
3847.00,0.0007
3846.00,0.0007
3845.00,0.0007
3844.00,0.0008
3843.00,0.0008
3842.00,0.0008
3841.00,0.0008
3840.00,0.0008
3839.00,0.0008
3838.00,0.0008
3837.00,0.0008
3836.00,0.0008
3835.00,0.0007
3834.00,0.0007
3833.00,0.0007
3832.00,0.0007
3831.00,0.0008
3830.00,0.0008
3829.00,0.0008
3828.00,0.0008
3827.00,0.0008
3826.00,0.0008
3825.00,0.0008
3824.00,0.0008
3823.00,0.0008
3822.00,0.0007
3821.00,0.0007
3820.00,0.0008
3819.00,0.0009
3818.00,0.0008
3817.00,0.0008
3816.00,0.0008
3815.00,0.0009
3814.00,0.0009
3813.00,0.0009
3812.00,0.0009
3811.00,0.0009
3810.00,0.0009
3809.00,0.0009
3808.00,0.0008
3807.00,0.0008
3806.00,0.0008
3805.00,0.0008
3804.00,0.0007
3803.00,0.0007
3802.00,0.0006
3801.00,0.0007
3800.00,0.0007
3799.00,0.0007
3798.00,0.0007
3797.00,0.0006
3796.00,0.0006
3795.00,0.0007
3794.00,0.0007
3793.00,0.0007
3792.00,0.0007
3791.00,0.0007
3790.00,0.0008
3789.00,0.0008
3788.00,0.0008
3787.00,0.0008
3786.00,0.0007
3785.00,0.0007
3784.00,0.0007
3783.00,0.0007
3782.00,0.0008
3781.00,0.0008
3780.00,0.0008
3779.00,0.0008
3778.00,0.0008
3777.00,0.0008
3776.00,0.0008
3775.00,0.0008
3774.00,0.0009
3773.00,0.0009
3772.00,0.0009
3771.00,0.0008
3770.00,0.0008
3769.00,0.0008
3768.00,0.0008
3767.00,0.0008
3766.00,0.0008
3765.00,0.0008
3764.00,0.0008
3763.00,0.0009
3762.00,0.0009
3761.00,0.0008
3760.00,0.0008
3759.00,0.0008
3758.00,0.0008
3757.00,0.0008
3756.00,0.0008
3755.00,0.0008
3754.00,0.0008
3753.00,0.0007
3752.00,0.0006
3751.00,0.0006
3750.00,0.0006
3749.00,0.0006
3748.00,0.0006
3747.00,0.0007
3746.00,0.0007
3745.00,0.0007
3744.00,0.0007
3743.00,0.0007
3742.00,0.0007
3741.00,0.0006
3740.00,0.0006
3739.00,0.0005
3738.00,0.0006
3737.00,0.0005
3736.00,0.0005
3735.00,0.0005
3734.00,0.0005
3733.00,0.0004
3732.00,0.0004
3731.00,0.0005
3730.00,0.0006
3729.00,0.0006
3728.00,0.0006
3727.00,0.0006
3726.00,0.0006
3725.00,0.0006
3724.00,0.0006
3723.00,0.0006
3722.00,0.0006
3721.00,0.0007
3720.00,0.0007
3719.00,0.0007
3718.00,0.0007
3717.00,0.0007
3716.00,0.0007
3715.00,0.0007
3714.00,0.0007
3713.00,0.0007
3712.00,0.0007
3711.00,0.0007
3710.00,0.0006
3709.00,0.0006
3708.00,0.0006
3707.00,0.0005
3706.00,0.0006
3705.00,0.0006
3704.00,0.0006
3703.00,0.0006
3702.00,0.0006
3701.00,0.0006
3700.00,0.0006
3699.00,0.0006
3698.00,0.0006
3697.00,0.0006
3696.00,0.0006
3695.00,0.0006
3694.00,0.0006
3693.00,0.0006
3692.00,0.0006
3691.00,0.0006
3690.00,0.0005
3689.00,0.0005
3688.00,0.0005
3687.00,0.0005
3686.00,0.0005
3685.00,0.0005
3684.00,0.0005
3683.00,0.0005
3682.00,0.0006
3681.00,0.0006
3680.00,0.0007
3679.00,0.0007
3678.00,0.0007
3677.00,0.0007
3676.00,0.0006
3675.00,0.0005
3674.00,0.0006
3673.00,0.0006
3672.00,0.0005
3671.00,0.0005
3670.00,0.0004
3669.00,0.0005
3668.00,0.0005
3667.00,0.0004
3666.00,0.0004
3665.00,0.0004
3664.00,0.0004
3663.00,0.0004
3662.00,0.0004
3661.00,0.0004
3660.00,0.0005
3659.00,0.0005
3658.00,0.0005
3657.00,0.0005
3656.00,0.0005
3655.00,0.0005
3654.00,0.0005
3653.00,0.0005
3652.00,0.0005
3651.00,0.0005
3650.00,0.0006
3649.00,0.0006
3648.00,0.0006
3647.00,0.0006
3646.00,0.0006
3645.00,0.0006
3644.00,0.0005
3643.00,0.0005
3642.00,0.0005
3641.00,0.0005
3640.00,0.0005
3639.00,0.0005
3638.00,0.0004
3637.00,0.0004
3636.00,0.0004
3635.00,0.0003
3634.00,0.0003
3633.00,0.0004
3632.00,0.0004
3631.00,0.0004
3630.00,0.0003
3629.00,0.0003
3628.00,0.0003
3627.00,0.0003
3626.00,0.0003
3625.00,0.0003
3624.00,0.0003
3623.00,0.0003
3622.00,0.0004
3621.00,0.0004
3620.00,0.0004
3619.00,0.0004
3618.00,0.0005
3617.00,0.0005
3616.00,0.0005
3615.00,0.0005
3614.00,0.0005
3613.00,0.0005
3612.00,0.0005
3611.00,0.0005
3610.00,0.0005
3609.00,0.0004
3608.00,0.0004
3607.00,0.0004
3606.00,0.0004
3605.00,0.0004
3604.00,0.0004
3603.00,0.0004
3602.00,0.0005
3601.00,0.0005
3600.00,0.0005
3599.00,0.0005
3598.00,0.0005
3597.00,0.0004
3596.00,0.0004
3595.00,0.0003
3594.00,0.0004
3593.00,0.0004
3592.00,0.0004
3591.00,0.0005
3590.00,0.0004
3589.00,0.0004
3588.00,0.0004
3587.00,0.0004
3586.00,0.0004
3585.00,0.0004
3584.00,0.0005
3583.00,0.0005
3582.00,0.0005
3581.00,0.0005
3580.00,0.0005
3579.00,0.0005
3578.00,0.0006
3577.00,0.0006
3576.00,0.0006
3575.00,0.0006
3574.00,0.0006
3573.00,0.0006
3572.00,0.0006
3571.00,0.0006
3570.00,0.0006
3569.00,0.0006
3568.00,0.0006
3567.00,0.0006
3566.00,0.0006
3565.00,0.0006
3564.00,0.0006
3563.00,0.0006
3562.00,0.0006
3561.00,0.0006
3560.00,0.0006
3559.00,0.0007
3558.00,0.0007
3557.00,0.0007
3556.00,0.0008
3555.00,0.0008
3554.00,0.0008
3553.00,0.0007
3552.00,0.0007
3551.00,0.0007
3550.00,0.0007
3549.00,0.0007
3548.00,0.0007
3547.00,0.0006
3546.00,0.0006
3545.00,0.0007
3544.00,0.0007
3543.00,0.0007
3542.00,0.0008
3541.00,0.0008
3540.00,0.0008
3539.00,0.0008
3538.00,0.0008
3537.00,0.0008
3536.00,0.0008
3535.00,0.0009
3534.00,0.0009
3533.00,0.0009
3532.00,0.0009
3531.00,0.0009
3530.00,0.0009
3529.00,0.0009
3528.00,0.0008
3527.00,0.0008
3526.00,0.0008
3525.00,0.0008
3524.00,0.0008
3523.00,0.0009
3522.00,0.0009
3521.00,0.0009
3520.00,0.0009
3519.00,0.0009
3518.00,0.0009
3517.00,0.0009
3516.00,0.0009
3515.00,0.0009
3514.00,0.0010
3513.00,0.0010
3512.00,0.0010
3511.00,0.0010
3510.00,0.0010
3509.00,0.0010
3508.00,0.0010
3507.00,0.0010
3506.00,0.0010
3505.00,0.0010
3504.00,0.0011
3503.00,0.0011
3502.00,0.0011
3501.00,0.0011
3500.00,0.0011
3499.00,0.0011
3498.00,0.0011
3497.00,0.0011
3496.00,0.0011
3495.00,0.0011
3494.00,0.0011
3493.00,0.0011
3492.00,0.0011
3491.00,0.0011
3490.00,0.0011
3489.00,0.0011
3488.00,0.0011
3487.00,0.0012
3486.00,0.0012
3485.00,0.0011
3484.00,0.0012
3483.00,0.0012
3482.00,0.0013
3481.00,0.0013
3480.00,0.0013
3479.00,0.0013
3478.00,0.0013
3477.00,0.0013
3476.00,0.0013
3475.00,0.0013
3474.00,0.0014
3473.00,0.0013
3472.00,0.0013
3471.00,0.0014
3470.00,0.0014
3469.00,0.0014
3468.00,0.0014
3467.00,0.0013
3466.00,0.0013
3465.00,0.0013
3464.00,0.0013
3463.00,0.0014
3462.00,0.0014
3461.00,0.0015
3460.00,0.0014
3459.00,0.0014
3458.00,0.0014
3457.00,0.0014
3456.00,0.0014
3455.00,0.0014
3454.00,0.0014
3453.00,0.0014
3452.00,0.0014
3451.00,0.0014
3450.00,0.0015
3449.00,0.0015
3448.00,0.0015
3447.00,0.0016
3446.00,0.0016
3445.00,0.0016
3444.00,0.0016
3443.00,0.0016
3442.00,0.0016
3441.00,0.0017
3440.00,0.0017
3439.00,0.0017
3438.00,0.0017
3437.00,0.0016
3436.00,0.0016
3435.00,0.0016
3434.00,0.0016
3433.00,0.0016
3432.00,0.0016
3431.00,0.0016
3430.00,0.0016
3429.00,0.0016
3428.00,0.0017
3427.00,0.0017
3426.00,0.0017
3425.00,0.0017
3424.00,0.0017
3423.00,0.0017
3422.00,0.0017
3421.00,0.0017
3420.00,0.0017
3419.00,0.0017
3418.00,0.0017
3417.00,0.0018
3416.00,0.0018
3415.00,0.0018
3414.00,0.0018
3413.00,0.0019
3412.00,0.0019
3411.00,0.0019
3410.00,0.0019
3409.00,0.0019
3408.00,0.0019
3407.00,0.0019
3406.00,0.0019
3405.00,0.0019
3404.00,0.0019
3403.00,0.0019
3402.00,0.0019
3401.00,0.0019
3400.00,0.0019
3399.00,0.0018
3398.00,0.0018
3397.00,0.0019
3396.00,0.0019
3395.00,0.0019
3394.00,0.0019
3393.00,0.0018
3392.00,0.0018
3391.00,0.0018
3390.00,0.0018
3389.00,0.0018
3388.00,0.0017
3387.00,0.0017
3386.00,0.0018
3385.00,0.0018
3384.00,0.0018
3383.00,0.0019
3382.00,0.0019
3381.00,0.0019
3380.00,0.0019
3379.00,0.0019
3378.00,0.0018
3377.00,0.0018
3376.00,0.0018
3375.00,0.0018
3374.00,0.0019
3373.00,0.0019
3372.00,0.0019
3371.00,0.0020
3370.00,0.0020
3369.00,0.0020
3368.00,0.0019
3367.00,0.0019
3366.00,0.0019
3365.00,0.0019
3364.00,0.0019
3363.00,0.0019
3362.00,0.0019
3361.00,0.0019
3360.00,0.0019
3359.00,0.0019
3358.00,0.0020
3357.00,0.0020
3356.00,0.0020
3355.00,0.0020
3354.00,0.0020
3353.00,0.0019
3352.00,0.0019
3351.00,0.0019
3350.00,0.0020
3349.00,0.0020
3348.00,0.0020
3347.00,0.0020
3346.00,0.0020
3345.00,0.0021
3344.00,0.0021
3343.00,0.0021
3342.00,0.0020
3341.00,0.0020
3340.00,0.0020
3339.00,0.0020
3338.00,0.0019
3337.00,0.0019
3336.00,0.0019
3335.00,0.0019
3334.00,0.0019
3333.00,0.0019
3332.00,0.0019
3331.00,0.0019
3330.00,0.0019
3329.00,0.0018
3328.00,0.0018
3327.00,0.0018
3326.00,0.0018
3325.00,0.0018
3324.00,0.0018
3323.00,0.0018
3322.00,0.0018
3321.00,0.0018
3320.00,0.0018
3319.00,0.0018
3318.00,0.0019
3317.00,0.0019
3316.00,0.0019
3315.00,0.0019
3314.00,0.0018
3313.00,0.0018
3312.00,0.0018
3311.00,0.0018
3310.00,0.0018
3309.00,0.0019
3308.00,0.0019
3307.00,0.0020
3306.00,0.0020
3305.00,0.0020
3304.00,0.0019
3303.00,0.0019
3302.00,0.0020
3301.00,0.0020
3300.00,0.0020
3299.00,0.0020
3298.00,0.0020
3297.00,0.0019
3296.00,0.0019
3295.00,0.0019
3294.00,0.0019
3293.00,0.0019
3292.00,0.0019
3291.00,0.0018
3290.00,0.0018
3289.00,0.0018
3288.00,0.0018
3287.00,0.0018
3286.00,0.0018
3285.00,0.0018
3284.00,0.0018
3283.00,0.0018
3282.00,0.0017
3281.00,0.0017
3280.00,0.0017
3279.00,0.0017
3278.00,0.0017
3277.00,0.0017
3276.00,0.0017
3275.00,0.0017
3274.00,0.0017
3273.00,0.0017
3272.00,0.0017
3271.00,0.0017
3270.00,0.0017
3269.00,0.0018
3268.00,0.0018
3267.00,0.0018
3266.00,0.0017
3265.00,0.0017
3264.00,0.0017
3263.00,0.0017
3262.00,0.0017
3261.00,0.0017
3260.00,0.0018
3259.00,0.0018
3258.00,0.0018
3257.00,0.0017
3256.00,0.0017
3255.00,0.0017
3254.00,0.0017
3253.00,0.0016
3252.00,0.0016
3251.00,0.0017
3250.00,0.0017
3249.00,0.0017
3248.00,0.0017
3247.00,0.0017
3246.00,0.0018
3245.00,0.0018
3244.00,0.0017
3243.00,0.0017
3242.00,0.0016
3241.00,0.0016
3240.00,0.0016
3239.00,0.0016
3238.00,0.0017
3237.00,0.0017
3236.00,0.0017
3235.00,0.0017
3234.00,0.0017
3233.00,0.0017
3232.00,0.0017
3231.00,0.0017
3230.00,0.0017
3229.00,0.0018
3228.00,0.0018
3227.00,0.0019
3226.00,0.0019
3225.00,0.0019
3224.00,0.0019
3223.00,0.0020
3222.00,0.0020
3221.00,0.0020
3220.00,0.0021
3219.00,0.0021
3218.00,0.0021
3217.00,0.0021
3216.00,0.0021
3215.00,0.0021
3214.00,0.0021
3213.00,0.0021
3212.00,0.0022
3211.00,0.0022
3210.00,0.0022
3209.00,0.0022
3208.00,0.0022
3207.00,0.0023
3206.00,0.0023
3205.00,0.0023
3204.00,0.0022
3203.00,0.0022
3202.00,0.0022
3201.00,0.0022
3200.00,0.0023
3199.00,0.0023
3198.00,0.0023
3197.00,0.0022
3196.00,0.0022
3195.00,0.0023
3194.00,0.0023
3193.00,0.0023
3192.00,0.0024
3191.00,0.0024
3190.00,0.0024
3189.00,0.0024
3188.00,0.0023
3187.00,0.0023
3186.00,0.0023
3185.00,0.0023
3184.00,0.0023
3183.00,0.0023
3182.00,0.0022
3181.00,0.0022
3180.00,0.0022
3179.00,0.0021
3178.00,0.0021
3177.00,0.0021
3176.00,0.0021
3175.00,0.0021
3174.00,0.0021
3173.00,0.0021
3172.00,0.0021
3171.00,0.0021
3170.00,0.0020
3169.00,0.0020
3168.00,0.0020
3167.00,0.0020
3166.00,0.0020
3165.00,0.0021
3164.00,0.0021
3163.00,0.0021
3162.00,0.0021
3161.00,0.0021
3160.00,0.0021
3159.00,0.0021
3158.00,0.0021
3157.00,0.0021
3156.00,0.0022
3155.00,0.0022
3154.00,0.0022
3153.00,0.0021
3152.00,0.0021
3151.00,0.0021
3150.00,0.0021
3149.00,0.0021
3148.00,0.0021
3147.00,0.0021
3146.00,0.0021
3145.00,0.0021
3144.00,0.0021
3143.00,0.0021
3142.00,0.0021
3141.00,0.0022
3140.00,0.0022
3139.00,0.0022
3138.00,0.0021
3137.00,0.0021
3136.00,0.0020
3135.00,0.0020
3134.00,0.0020
3133.00,0.0020
3132.00,0.0020
3131.00,0.0020
3130.00,0.0020
3129.00,0.0020
3128.00,0.0020
3127.00,0.0020
3126.00,0.0020
3125.00,0.0019
3124.00,0.0019
3123.00,0.0019
3122.00,0.0019
3121.00,0.0019
3120.00,0.0019
3119.00,0.0019
3118.00,0.0018
3117.00,0.0018
3116.00,0.0018
3115.00,0.0018
3114.00,0.0018
3113.00,0.0018
3112.00,0.0018
3111.00,0.0019
3110.00,0.0019
3109.00,0.0019
3108.00,0.0019
3107.00,0.0018
3106.00,0.0018
3105.00,0.0019
3104.00,0.0019
3103.00,0.0019
3102.00,0.0019
3101.00,0.0019
3100.00,0.0018
3099.00,0.0018
3098.00,0.0018
3097.00,0.0018
3096.00,0.0019
3095.00,0.0018
3094.00,0.0018
3093.00,0.0018
3092.00,0.0018
3091.00,0.0018
3090.00,0.0018
3089.00,0.0018
3088.00,0.0018
3087.00,0.0017
3086.00,0.0017
3085.00,0.0017
3084.00,0.0018
3083.00,0.0018
3082.00,0.0018
3081.00,0.0018
3080.00,0.0018
3079.00,0.0019
3078.00,0.0019
3077.00,0.0019
3076.00,0.0019
3075.00,0.0019
3074.00,0.0019
3073.00,0.0019
3072.00,0.0019
3071.00,0.0019
3070.00,0.0019
3069.00,0.0019
3068.00,0.0019
3067.00,0.0019
3066.00,0.0019
3065.00,0.0020
3064.00,0.0020
3063.00,0.0020
3062.00,0.0021
3061.00,0.0021
3060.00,0.0021
3059.00,0.0021
3058.00,0.0021
3057.00,0.0021
3056.00,0.0021
3055.00,0.0022
3054.00,0.0022
3053.00,0.0022
3052.00,0.0023
3051.00,0.0023
3050.00,0.0023
3049.00,0.0024
3048.00,0.0024
3047.00,0.0024
3046.00,0.0024
3045.00,0.0024
3044.00,0.0025
3043.00,0.0025
3042.00,0.0025
3041.00,0.0025
3040.00,0.0025
3039.00,0.0026
3038.00,0.0026
3037.00,0.0026
3036.00,0.0027
3035.00,0.0027
3034.00,0.0027
3033.00,0.0027
3032.00,0.0028
3031.00,0.0029
3030.00,0.0029
3029.00,0.0030
3028.00,0.0030
3027.00,0.0031
3026.00,0.0031
3025.00,0.0032
3024.00,0.0033
3023.00,0.0034
3022.00,0.0035
3021.00,0.0035
3020.00,0.0036
3019.00,0.0036
3018.00,0.0037
3017.00,0.0038
3016.00,0.0039
3015.00,0.0041
3014.00,0.0042
3013.00,0.0043
3012.00,0.0044
3011.00,0.0045
3010.00,0.0046
3009.00,0.0048
3008.00,0.0050
3007.00,0.0052
3006.00,0.0054
3005.00,0.0056
3004.00,0.0059
3003.00,0.0061
3002.00,0.0063
3001.00,0.0066
3000.00,0.0068
2999.00,0.0071
2998.00,0.0074
2997.00,0.0077
2996.00,0.0081
2995.00,0.0085
2994.00,0.0090
2993.00,0.0094
2992.00,0.0099
2991.00,0.0105
2990.00,0.0111
2989.00,0.0118
2988.00,0.0126
2987.00,0.0134
2986.00,0.0144
2985.00,0.0154
2984.00,0.0166
2983.00,0.0180
2982.00,0.0195
2981.00,0.0211
2980.00,0.0230
2979.00,0.0251
2978.00,0.0274
2977.00,0.0301
2976.00,0.0332
2975.00,0.0367
2974.00,0.0408
2973.00,0.0454
2972.00,0.0505
2971.00,0.0562
2970.00,0.0625
2969.00,0.0693
2968.00,0.0767
2967.00,0.0845
2966.00,0.0924
2965.00,0.1002
2964.00,0.1076
2963.00,0.1142
2962.00,0.1198
2961.00,0.1243
2960.00,0.1281
2959.00,0.1317
2958.00,0.1358
2957.00,0.1411
2956.00,0.1482
2955.00,0.1571
2954.00,0.1675
2953.00,0.1785
2952.00,0.1889
2951.00,0.1967
2950.00,0.2006
2949.00,0.1993
2948.00,0.1928
2947.00,0.1820
2946.00,0.1684
2945.00,0.1538
2944.00,0.1399
2943.00,0.1280
2942.00,0.1187
2941.00,0.1121
2940.00,0.1083
2939.00,0.1069
2938.00,0.1076
2937.00,0.1103
2936.00,0.1147
2935.00,0.1207
2934.00,0.1283
2933.00,0.1373
2932.00,0.1477
2931.00,0.1592
2930.00,0.1717
2929.00,0.1847
2928.00,0.1980
2927.00,0.2112
2926.00,0.2242
2925.00,0.2371
2924.00,0.2499
2923.00,0.2629
2922.00,0.2761
2921.00,0.2891
2920.00,0.3011
2919.00,0.3105
2918.00,0.3158
2917.00,0.3156
2916.00,0.3097
2915.00,0.2992
2914.00,0.2856
2913.00,0.2708
2912.00,0.2564
2911.00,0.2433
2910.00,0.2316
2909.00,0.2213
2908.00,0.2120
2907.00,0.2033
2906.00,0.1950
2905.00,0.1869
2904.00,0.1789
2903.00,0.1711
2902.00,0.1637
2901.00,0.1565
2900.00,0.1497
2899.00,0.1433
2898.00,0.1373
2897.00,0.1319
2896.00,0.1270
2895.00,0.1228
2894.00,0.1193
2893.00,0.1164
2892.00,0.1143
2891.00,0.1128
2890.00,0.1118
2889.00,0.1113
2888.00,0.1111
2887.00,0.1114
2886.00,0.1119
2885.00,0.1128
2884.00,0.1142
2883.00,0.1160
2882.00,0.1183
2881.00,0.1208
2880.00,0.1233
2879.00,0.1253
2878.00,0.1265
2877.00,0.1266
2876.00,0.1260
2875.00,0.1252
2874.00,0.1246
2873.00,0.1247
2872.00,0.1257
2871.00,0.1276
2870.00,0.1300
2869.00,0.1325
2868.00,0.1342
2867.00,0.1342
2866.00,0.1318
2865.00,0.1266
2864.00,0.1191
2863.00,0.1103
2862.00,0.1013
2861.00,0.0933
2860.00,0.0869
2859.00,0.0824
2858.00,0.0795
2857.00,0.0782
2856.00,0.0780
2855.00,0.0787
2854.00,0.0801
2853.00,0.0820
2852.00,0.0840
2851.00,0.0859
2850.00,0.0876
2849.00,0.0890
2848.00,0.0904
2847.00,0.0922
2846.00,0.0949
2845.00,0.0987
2844.00,0.1034
2843.00,0.1089
2842.00,0.1145
2841.00,0.1195
2840.00,0.1232
2839.00,0.1248
2838.00,0.1237
2837.00,0.1195
2836.00,0.1124
2835.00,0.1030
2834.00,0.0924
2833.00,0.0815
2832.00,0.0713
2831.00,0.0623
2830.00,0.0547
2829.00,0.0485
2828.00,0.0434
2827.00,0.0393
2826.00,0.0359
2825.00,0.0332
2824.00,0.0309
2823.00,0.0290
2822.00,0.0273
2821.00,0.0258
2820.00,0.0246
2819.00,0.0235
2818.00,0.0226
2817.00,0.0218
2816.00,0.0210
2815.00,0.0203
2814.00,0.0197
2813.00,0.0191
2812.00,0.0185
2811.00,0.0179
2810.00,0.0174
2809.00,0.0168
2808.00,0.0162
2807.00,0.0155
2806.00,0.0149
2805.00,0.0142
2804.00,0.0135
2803.00,0.0129
2802.00,0.0123
2801.00,0.0118
2800.00,0.0114
2799.00,0.0111
2798.00,0.0108
2797.00,0.0105
2796.00,0.0103
2795.00,0.0101
2794.00,0.0098
2793.00,0.0095
2792.00,0.0093
2791.00,0.0090
2790.00,0.0087
2789.00,0.0084
2788.00,0.0081
2787.00,0.0079
2786.00,0.0077
2785.00,0.0075
2784.00,0.0073
2783.00,0.0071
2782.00,0.0068
2781.00,0.0066
2780.00,0.0064
2779.00,0.0062
2778.00,0.0061
2777.00,0.0059
2776.00,0.0058
2775.00,0.0057
2774.00,0.0056
2773.00,0.0056
2772.00,0.0055
2771.00,0.0054
2770.00,0.0054
2769.00,0.0053
2768.00,0.0053
2767.00,0.0052
2766.00,0.0052
2765.00,0.0052
2764.00,0.0052
2763.00,0.0052
2762.00,0.0052
2761.00,0.0051
2760.00,0.0051
2759.00,0.0051
2758.00,0.0051
2757.00,0.0050
2756.00,0.0050
2755.00,0.0050
2754.00,0.0050
2753.00,0.0050
2752.00,0.0050
2751.00,0.0050
2750.00,0.0050
2749.00,0.0049
2748.00,0.0049
2747.00,0.0050
2746.00,0.0050
2745.00,0.0051
2744.00,0.0051
2743.00,0.0052
2742.00,0.0053
2741.00,0.0054
2740.00,0.0055
2739.00,0.0056
2738.00,0.0057
2737.00,0.0059
2736.00,0.0061
2735.00,0.0063
2734.00,0.0064
2733.00,0.0066
2732.00,0.0068
2731.00,0.0070
2730.00,0.0072
2729.00,0.0075
2728.00,0.0078
2727.00,0.0081
2726.00,0.0084
2725.00,0.0087
2724.00,0.0089
2723.00,0.0089
2722.00,0.0089
2721.00,0.0087
2720.00,0.0084
2719.00,0.0080
2718.00,0.0077
2717.00,0.0073
2716.00,0.0070
2715.00,0.0067
2714.00,0.0064
2713.00,0.0062
2712.00,0.0059
2711.00,0.0057
2710.00,0.0055
2709.00,0.0054
2708.00,0.0053
2707.00,0.0051
2706.00,0.0050
2705.00,0.0049
2704.00,0.0048
2703.00,0.0047
2702.00,0.0046
2701.00,0.0045
2700.00,0.0044
2699.00,0.0044
2698.00,0.0043
2697.00,0.0043
2696.00,0.0042
2695.00,0.0042
2694.00,0.0043
2693.00,0.0042
2692.00,0.0042
2691.00,0.0042
2690.00,0.0043
2689.00,0.0043
2688.00,0.0043
2687.00,0.0043
2686.00,0.0042
2685.00,0.0042
2684.00,0.0042
2683.00,0.0042
2682.00,0.0043
2681.00,0.0043
2680.00,0.0043
2679.00,0.0043
2678.00,0.0043
2677.00,0.0043
2676.00,0.0043
2675.00,0.0043
2674.00,0.0043
2673.00,0.0043
2672.00,0.0043
2671.00,0.0043
2670.00,0.0043
2669.00,0.0043
2668.00,0.0043
2667.00,0.0044
2666.00,0.0044
2665.00,0.0045
2664.00,0.0045
2663.00,0.0046
2662.00,0.0047
2661.00,0.0047
2660.00,0.0047
2659.00,0.0047
2658.00,0.0047
2657.00,0.0047
2656.00,0.0047
2655.00,0.0047
2654.00,0.0046
2653.00,0.0046
2652.00,0.0045
2651.00,0.0045
2650.00,0.0044
2649.00,0.0044
2648.00,0.0043
2647.00,0.0043
2646.00,0.0042
2645.00,0.0041
2644.00,0.0040
2643.00,0.0040
2642.00,0.0040
2641.00,0.0039
2640.00,0.0039
2639.00,0.0038
2638.00,0.0038
2637.00,0.0037
2636.00,0.0037
2635.00,0.0037
2634.00,0.0038
2633.00,0.0038
2632.00,0.0038
2631.00,0.0038
2630.00,0.0038
2629.00,0.0038
2628.00,0.0038
2627.00,0.0038
2626.00,0.0038
2625.00,0.0038
2624.00,0.0039
2623.00,0.0039
2622.00,0.0039
2621.00,0.0039
2620.00,0.0039
2619.00,0.0039
2618.00,0.0038
2617.00,0.0038
2616.00,0.0038
2615.00,0.0038
2614.00,0.0038
2613.00,0.0038
2612.00,0.0038
2611.00,0.0038
2610.00,0.0037
2609.00,0.0036
2608.00,0.0035
2607.00,0.0034
2606.00,0.0033
2605.00,0.0032
2604.00,0.0031
2603.00,0.0030
2602.00,0.0030
2601.00,0.0030
2600.00,0.0030
2599.00,0.0029
2598.00,0.0029
2597.00,0.0029
2596.00,0.0029
2595.00,0.0030
2594.00,0.0031
2593.00,0.0032
2592.00,0.0033
2591.00,0.0034
2590.00,0.0034
2589.00,0.0035
2588.00,0.0036
2587.00,0.0037
2586.00,0.0039
2585.00,0.0039
2584.00,0.0040
2583.00,0.0041
2582.00,0.0041
2581.00,0.0040
2580.00,0.0039
2579.00,0.0038
2578.00,0.0037
2577.00,0.0035
2576.00,0.0034
2575.00,0.0033
2574.00,0.0031
2573.00,0.0030
2572.00,0.0029
2571.00,0.0028
2570.00,0.0027
2569.00,0.0027
2568.00,0.0026
2567.00,0.0026
2566.00,0.0026
2565.00,0.0025
2564.00,0.0025
2563.00,0.0024
2562.00,0.0023
2561.00,0.0022
2560.00,0.0022
2559.00,0.0022
2558.00,0.0022
2557.00,0.0022
2556.00,0.0022
2555.00,0.0022
2554.00,0.0021
2553.00,0.0021
2552.00,0.0021
2551.00,0.0020
2550.00,0.0020
2549.00,0.0019
2548.00,0.0018
2547.00,0.0018
2546.00,0.0017
2545.00,0.0018
2544.00,0.0018
2543.00,0.0018
2542.00,0.0018
2541.00,0.0017
2540.00,0.0017
2539.00,0.0016
2538.00,0.0016
2537.00,0.0016
2536.00,0.0016
2535.00,0.0016
2534.00,0.0016
2533.00,0.0016
2532.00,0.0015
2531.00,0.0014
2530.00,0.0013
2529.00,0.0013
2528.00,0.0013
2527.00,0.0014
2526.00,0.0014
2525.00,0.0014
2524.00,0.0013
2523.00,0.0013
2522.00,0.0013
2521.00,0.0013
2520.00,0.0013
2519.00,0.0012
2518.00,0.0011
2517.00,0.0010
2516.00,0.0010
2515.00,0.0010
2514.00,0.0010
2513.00,0.0010
2512.00,0.0010
2511.00,0.0010
2510.00,0.0010
2509.00,0.0010
2508.00,0.0010
2507.00,0.0010
2506.00,0.0010
2505.00,0.0010
2504.00,0.0010
2503.00,0.0010
2502.00,0.0010
2501.00,0.0009
2500.00,0.0009
2499.00,0.0009
2498.00,0.0009
2497.00,0.0009
2496.00,0.0010
2495.00,0.0010
2494.00,0.0010
2493.00,0.0010
2492.00,0.0010
2491.00,0.0010
2490.00,0.0010
2489.00,0.0010
2488.00,0.0010
2487.00,0.0010
2486.00,0.0009
2485.00,0.0009
2484.00,0.0009
2483.00,0.0010
2482.00,0.0010
2481.00,0.0010
2480.00,0.0010
2479.00,0.0010
2478.00,0.0009
2477.00,0.0009
2476.00,0.0009
2475.00,0.0009
2474.00,0.0009
2473.00,0.0009
2472.00,0.0009
2471.00,0.0009
2470.00,0.0009
2469.00,0.0010
2468.00,0.0010
2467.00,0.0009
2466.00,0.0008
2465.00,0.0008
2464.00,0.0007
2463.00,0.0008
2462.00,0.0009
2461.00,0.0009
2460.00,0.0008
2459.00,0.0007
2458.00,0.0007
2457.00,0.0007
2456.00,0.0008
2455.00,0.0008
2454.00,0.0009
2453.00,0.0010
2452.00,0.0010
2451.00,0.0011
2450.00,0.0010
2449.00,0.0010
2448.00,0.0010
2447.00,0.0010
2446.00,0.0010
2445.00,0.0010
2444.00,0.0009
2443.00,0.0009
2442.00,0.0009
2441.00,0.0009
2440.00,0.0009
2439.00,0.0009
2438.00,0.0010
2437.00,0.0011
2436.00,0.0011
2435.00,0.0011
2434.00,0.0010
2433.00,0.0010
2432.00,0.0010
2431.00,0.0010
2430.00,0.0009
2429.00,0.0009
2428.00,0.0009
2427.00,0.0009
2426.00,0.0010
2425.00,0.0011
2424.00,0.0011
2423.00,0.0012
2422.00,0.0012
2421.00,0.0012
2420.00,0.0012
2419.00,0.0010
2418.00,0.0009
2417.00,0.0008
2416.00,0.0008
2415.00,0.0008
2414.00,0.0008
2413.00,0.0008
2412.00,0.0008
2411.00,0.0008
2410.00,0.0008
2409.00,0.0008
2408.00,0.0008
2407.00,0.0008
2406.00,0.0008
2405.00,0.0007
2404.00,0.0007
2403.00,0.0007
2402.00,0.0007
2401.00,0.0007
2400.00,0.0007
2399.00,0.0007
2398.00,0.0007
2397.00,0.0007
2396.00,0.0007
2395.00,0.0006
2394.00,0.0006
2393.00,0.0006
2392.00,0.0006
2391.00,0.0006
2390.00,0.0006
2389.00,0.0006
2388.00,0.0005
2387.00,0.0005
2386.00,0.0005
2385.00,0.0004
2384.00,0.0003
2383.00,0.0002
2382.00,0.0001
2381.00,0.0001
2380.00,0.0001
2379.00,0.0001
2378.00,0.0001
2377.00,0.0001
2376.00,0.0002
2375.00,0.0002
2374.00,0.0002
2373.00,0.0002
2372.00,0.0002
2371.00,0.0001
2370.00,0.0001
2369.00,0.0000
2368.00,-0.0000
2367.00,-0.0000
2366.00,0.0000
2365.00,0.0001
2364.00,0.0002
2363.00,0.0002
2362.00,0.0002
2361.00,0.0002
2360.00,0.0002
2359.00,0.0002
2358.00,0.0002
2357.00,0.0002
2356.00,0.0003
2355.00,0.0005
2354.00,0.0006
2353.00,0.0006
2352.00,0.0005
2351.00,0.0003
2350.00,0.0003
2349.00,0.0003
2348.00,0.0003
2347.00,0.0004
2346.00,0.0004
2345.00,0.0004
2344.00,0.0005
2343.00,0.0005
2342.00,0.0005
2341.00,0.0005
2340.00,0.0005
2339.00,0.0005
2338.00,0.0006
2337.00,0.0007
2336.00,0.0006
2335.00,0.0006
2334.00,0.0006
2333.00,0.0006
2332.00,0.0006
2331.00,0.0005
2330.00,0.0005
2329.00,0.0006
2328.00,0.0007
2327.00,0.0010
2326.00,0.0014
2325.00,0.0017
2324.00,0.0018
2323.00,0.0017
2322.00,0.0015
2321.00,0.0013
2320.00,0.0011
2319.00,0.0010
2318.00,0.0009
2317.00,0.0009
2316.00,0.0008
2315.00,0.0007
2314.00,0.0007
2313.00,0.0006
2312.00,0.0005
2311.00,0.0004
2310.00,0.0002
2309.00,0.0002
2308.00,0.0001
2307.00,0.0002
2306.00,0.0003
2305.00,0.0003
2304.00,0.0004
2303.00,0.0004
2302.00,0.0005
2301.00,0.0006
2300.00,0.0007
2299.00,0.0008
2298.00,0.0009
2297.00,0.0009
2296.00,0.0009
2295.00,0.0010
2294.00,0.0011
2293.00,0.0013
2292.00,0.0014
2291.00,0.0015
2290.00,0.0015
2289.00,0.0015
2288.00,0.0014
2287.00,0.0014
2286.00,0.0014
2285.00,0.0014
2284.00,0.0013
2283.00,0.0012
2282.00,0.0012
2281.00,0.0012
2280.00,0.0013
2279.00,0.0014
2278.00,0.0014
2277.00,0.0014
2276.00,0.0014
2275.00,0.0014
2274.00,0.0014
2273.00,0.0013
2272.00,0.0013
2271.00,0.0012
2270.00,0.0011
2269.00,0.0011
2268.00,0.0011
2267.00,0.0011
2266.00,0.0011
2265.00,0.0011
2264.00,0.0010
2263.00,0.0010
2262.00,0.0010
2261.00,0.0011
2260.00,0.0012
2259.00,0.0013
2258.00,0.0012
2257.00,0.0011
2256.00,0.0009
2255.00,0.0007
2254.00,0.0006
2253.00,0.0006
2252.00,0.0006
2251.00,0.0006
2250.00,0.0006
2249.00,0.0006
2248.00,0.0006
2247.00,0.0006
2246.00,0.0007
2245.00,0.0006
2244.00,0.0006
2243.00,0.0006
2242.00,0.0006
2241.00,0.0006
2240.00,0.0006
2239.00,0.0006
2238.00,0.0007
2237.00,0.0007
2236.00,0.0007
2235.00,0.0007
2234.00,0.0007
2233.00,0.0007
2232.00,0.0007
2231.00,0.0006
2230.00,0.0006
2229.00,0.0007
2228.00,0.0008
2227.00,0.0008
2226.00,0.0007
2225.00,0.0006
2224.00,0.0005
2223.00,0.0004
2222.00,0.0003
2221.00,0.0002
2220.00,0.0001
2219.00,0.0000
2218.00,0.0001
2217.00,0.0003
2216.00,0.0004
2215.00,0.0005
2214.00,0.0005
2213.00,0.0005
2212.00,0.0006
2211.00,0.0007
2210.00,0.0006
2209.00,0.0005
2208.00,0.0004
2207.00,0.0002
2206.00,0.0001
2205.00,0.0001
2204.00,0.0001
2203.00,0.0001
2202.00,0.0001
2201.00,0.0002
2200.00,0.0003
2199.00,0.0005
2198.00,0.0006
2197.00,0.0007
2196.00,0.0007
2195.00,0.0005
2194.00,0.0005
2193.00,0.0005
2192.00,0.0006
2191.00,0.0007
2190.00,0.0007
2189.00,0.0007
2188.00,0.0009
2187.00,0.0010
2186.00,0.0010
2185.00,0.0009
2184.00,0.0007
2183.00,0.0003
2182.00,-0.0001
2181.00,-0.0005
2180.00,-0.0006
2179.00,-0.0004
2178.00,-0.0003
2177.00,-0.0003
2176.00,-0.0004
2175.00,-0.0006
2174.00,-0.0007
2173.00,-0.0005
2172.00,-0.0003
2171.00,-0.0000
2170.00,0.0002
2169.00,0.0005
2168.00,0.0009
2167.00,0.0013
2166.00,0.0015
2165.00,0.0015
2164.00,0.0015
2163.00,0.0015
2162.00,0.0015
2161.00,0.0011
2160.00,0.0003
2159.00,-0.0011
2158.00,-0.0023
2157.00,-0.0030
2156.00,-0.0031
2155.00,-0.0029
2154.00,-0.0026
2153.00,-0.0022
2152.00,-0.0020
2151.00,-0.0020
2150.00,-0.0020
2149.00,-0.0020
2148.00,-0.0019
2147.00,-0.0019
2146.00,-0.0018
2145.00,-0.0016
2144.00,-0.0014
2143.00,-0.0013
2142.00,-0.0013
2141.00,-0.0015
2140.00,-0.0016
2139.00,-0.0015
2138.00,-0.0014
2137.00,-0.0013
2136.00,-0.0014
2135.00,-0.0017
2134.00,-0.0020
2133.00,-0.0021
2132.00,-0.0021
2131.00,-0.0020
2130.00,-0.0018
2129.00,-0.0016
2128.00,-0.0015
2127.00,-0.0013
2126.00,-0.0011
2125.00,-0.0008
2124.00,-0.0007
2123.00,-0.0006
2122.00,-0.0007
2121.00,-0.0007
2120.00,-0.0006
2119.00,-0.0005
2118.00,-0.0003
2117.00,-0.0001
2116.00,0.0001
2115.00,0.0003
2114.00,0.0003
2113.00,0.0002
2112.00,0.0002
2111.00,0.0001
2110.00,0.0001
2109.00,0.0001
2108.00,-0.0000
2107.00,-0.0001
2106.00,-0.0001
2105.00,-0.0001
2104.00,-0.0000
2103.00,0.0001
2102.00,0.0001
2101.00,0.0001
2100.00,0.0001
2099.00,-0.0000
2098.00,-0.0002
2097.00,-0.0004
2096.00,-0.0005
2095.00,-0.0006
2094.00,-0.0006
2093.00,-0.0006
2092.00,-0.0005
2091.00,-0.0003
2090.00,-0.0002
2089.00,-0.0002
2088.00,-0.0001
2087.00,-0.0001
2086.00,-0.0001
2085.00,-0.0001
2084.00,-0.0001
2083.00,-0.0001
2082.00,-0.0001
2081.00,-0.0000
2080.00,0.0001
2079.00,0.0002
2078.00,0.0003
2077.00,0.0004
2076.00,0.0004
2075.00,0.0003
2074.00,0.0002
2073.00,0.0001
2072.00,-0.0000
2071.00,-0.0001
2070.00,-0.0001
2069.00,-0.0001
2068.00,-0.0001
2067.00,-0.0002
2066.00,-0.0004
2065.00,-0.0005
2064.00,-0.0005
2063.00,-0.0003
2062.00,-0.0002
2061.00,-0.0001
2060.00,-0.0001
2059.00,-0.0001
2058.00,-0.0002
2057.00,-0.0003
2056.00,-0.0005
2055.00,-0.0006
2054.00,-0.0005
2053.00,-0.0001
2052.00,0.0005
2051.00,0.0009
2050.00,0.0009
2049.00,0.0008
2048.00,0.0005
2047.00,0.0002
2046.00,-0.0001
2045.00,-0.0004
2044.00,-0.0006
2043.00,-0.0006
2042.00,-0.0004
2041.00,-0.0001
2040.00,-0.0000
2039.00,-0.0000
2038.00,-0.0000
2037.00,-0.0000
2036.00,-0.0000
2035.00,-0.0001
2034.00,-0.0004
2033.00,-0.0007
2032.00,-0.0011
2031.00,-0.0014
2030.00,-0.0016
2029.00,-0.0017
2028.00,-0.0018
2027.00,-0.0018
2026.00,-0.0016
2025.00,-0.0014
2024.00,-0.0011
2023.00,-0.0010
2022.00,-0.0010
2021.00,-0.0011
2020.00,-0.0011
2019.00,-0.0011
2018.00,-0.0012
2017.00,-0.0012
2016.00,-0.0012
2015.00,-0.0011
2014.00,-0.0009
2013.00,-0.0008
2012.00,-0.0007
2011.00,-0.0008
2010.00,-0.0010
2009.00,-0.0013
2008.00,-0.0017
2007.00,-0.0020
2006.00,-0.0021
2005.00,-0.0021
2004.00,-0.0020
2003.00,-0.0020
2002.00,-0.0019
2001.00,-0.0017
2000.00,-0.0014
1999.00,-0.0013
1998.00,-0.0013
1997.00,-0.0013
1996.00,-0.0012
1995.00,-0.0011
1994.00,-0.0010
1993.00,-0.0009
1992.00,-0.0009
1991.00,-0.0010
1990.00,-0.0013
1989.00,-0.0014
1988.00,-0.0015
1987.00,-0.0014
1986.00,-0.0012
1985.00,-0.0009
1984.00,-0.0005
1983.00,-0.0000
1982.00,0.0004
1981.00,0.0008
1980.00,0.0009
1979.00,0.0004
1978.00,-0.0004
1977.00,-0.0010
1976.00,-0.0012
1975.00,-0.0012
1974.00,-0.0013
1973.00,-0.0015
1972.00,-0.0017
1971.00,-0.0018
1970.00,-0.0018
1969.00,-0.0018
1968.00,-0.0018
1967.00,-0.0018
1966.00,-0.0017
1965.00,-0.0015
1964.00,-0.0013
1963.00,-0.0013
1962.00,-0.0013
1961.00,-0.0014
1960.00,-0.0014
1959.00,-0.0013
1958.00,-0.0013
1957.00,-0.0013
1956.00,-0.0014
1955.00,-0.0017
1954.00,-0.0020
1953.00,-0.0022
1952.00,-0.0021
1951.00,-0.0019
1950.00,-0.0017
1949.00,-0.0016
1948.00,-0.0016
1947.00,-0.0017
1946.00,-0.0018
1945.00,-0.0018
1944.00,-0.0018
1943.00,-0.0017
1942.00,-0.0016
1941.00,-0.0015
1940.00,-0.0014
1939.00,-0.0014
1938.00,-0.0012
1937.00,-0.0012
1936.00,-0.0012
1935.00,-0.0013
1934.00,-0.0014
1933.00,-0.0014
1932.00,-0.0013
1931.00,-0.0012
1930.00,-0.0011
1929.00,-0.0011
1928.00,-0.0011
1927.00,-0.0011
1926.00,-0.0012
1925.00,-0.0012
1924.00,-0.0012
1923.00,-0.0010
1922.00,-0.0008
1921.00,-0.0007
1920.00,-0.0006
1919.00,-0.0006
1918.00,-0.0006
1917.00,-0.0007
1916.00,-0.0007
1915.00,-0.0008
1914.00,-0.0008
1913.00,-0.0007
1912.00,-0.0005
1911.00,-0.0004
1910.00,-0.0004
1909.00,-0.0003
1908.00,-0.0002
1907.00,-0.0002
1906.00,-0.0002
1905.00,-0.0003
1904.00,-0.0004
1903.00,-0.0005
1902.00,-0.0005
1901.00,-0.0004
1900.00,-0.0003
1899.00,-0.0004
1898.00,-0.0004
1897.00,-0.0005
1896.00,-0.0005
1895.00,-0.0005
1894.00,-0.0005
1893.00,-0.0005
1892.00,-0.0005
1891.00,-0.0005
1890.00,-0.0005
1889.00,-0.0004
1888.00,-0.0003
1887.00,-0.0003
1886.00,-0.0002
1885.00,-0.0002
1884.00,-0.0002
1883.00,-0.0002
1882.00,-0.0002
1881.00,-0.0003
1880.00,-0.0003
1879.00,-0.0003
1878.00,-0.0002
1877.00,-0.0002
1876.00,-0.0002
1875.00,-0.0002
1874.00,-0.0003
1873.00,-0.0003
1872.00,-0.0004
1871.00,-0.0004
1870.00,-0.0004
1869.00,-0.0004
1868.00,-0.0003
1867.00,-0.0003
1866.00,-0.0003
1865.00,-0.0003
1864.00,-0.0003
1863.00,-0.0003
1862.00,-0.0003
1861.00,-0.0003
1860.00,-0.0003
1859.00,-0.0002
1858.00,-0.0002
1857.00,-0.0002
1856.00,-0.0002
1855.00,-0.0002
1854.00,-0.0002
1853.00,-0.0002
1852.00,-0.0002
1851.00,-0.0002
1850.00,-0.0003
1849.00,-0.0003
1848.00,-0.0003
1847.00,-0.0002
1846.00,-0.0001
1845.00,-0.0000
1844.00,0.0000
1843.00,0.0000
1842.00,0.0000
1841.00,-0.0000
1840.00,0.0000
1839.00,0.0000
1838.00,0.0001
1837.00,0.0001
1836.00,0.0001
1835.00,0.0002
1834.00,0.0002
1833.00,0.0001
1832.00,0.0001
1831.00,0.0001
1830.00,0.0001
1829.00,0.0001
1828.00,0.0001
1827.00,0.0001
1826.00,0.0001
1825.00,0.0001
1824.00,0.0001
1823.00,0.0001
1822.00,0.0002
1821.00,0.0002
1820.00,0.0001
1819.00,-0.0001
1818.00,-0.0002
1817.00,-0.0003
1816.00,-0.0003
1815.00,-0.0002
1814.00,-0.0001
1813.00,-0.0001
1812.00,-0.0000
1811.00,-0.0000
1810.00,-0.0000
1809.00,0.0000
1808.00,0.0000
1807.00,0.0001
1806.00,0.0001
1805.00,0.0002
1804.00,0.0003
1803.00,0.0003
1802.00,0.0003
1801.00,0.0003
1800.00,0.0003
1799.00,0.0002
1798.00,0.0002
1797.00,0.0002
1796.00,0.0002
1795.00,0.0003
1794.00,0.0004
1793.00,0.0004
1792.00,0.0004
1791.00,0.0004
1790.00,0.0004
1789.00,0.0004
1788.00,0.0004
1787.00,0.0004
1786.00,0.0004
1785.00,0.0004
1784.00,0.0004
1783.00,0.0005
1782.00,0.0005
1781.00,0.0005
1780.00,0.0006
1779.00,0.0006
1778.00,0.0007
1777.00,0.0007
1776.00,0.0007
1775.00,0.0007
1774.00,0.0007
1773.00,0.0008
1772.00,0.0008
1771.00,0.0008
1770.00,0.0007
1769.00,0.0007
1768.00,0.0008
1767.00,0.0007
1766.00,0.0007
1765.00,0.0007
1764.00,0.0007
1763.00,0.0007
1762.00,0.0008
1761.00,0.0008
1760.00,0.0009
1759.00,0.0010
1758.00,0.0010
1757.00,0.0011
1756.00,0.0011
1755.00,0.0012
1754.00,0.0012
1753.00,0.0012
1752.00,0.0012
1751.00,0.0012
1750.00,0.0012
1749.00,0.0013
1748.00,0.0013
1747.00,0.0014
1746.00,0.0014
1745.00,0.0014
1744.00,0.0015
1743.00,0.0015
1742.00,0.0016
1741.00,0.0017
1740.00,0.0017
1739.00,0.0017
1738.00,0.0017
1737.00,0.0017
1736.00,0.0017
1735.00,0.0017
1734.00,0.0017
1733.00,0.0017
1732.00,0.0017
1731.00,0.0017
1730.00,0.0018
1729.00,0.0018
1728.00,0.0019
1727.00,0.0019
1726.00,0.0019
1725.00,0.0019
1724.00,0.0019
1723.00,0.0019
1722.00,0.0019
1721.00,0.0019
1720.00,0.0019
1719.00,0.0019
1718.00,0.0019
1717.00,0.0019
1716.00,0.0019
1715.00,0.0019
1714.00,0.0018
1713.00,0.0018
1712.00,0.0018
1711.00,0.0018
1710.00,0.0018
1709.00,0.0018
1708.00,0.0018
1707.00,0.0018
1706.00,0.0018
1705.00,0.0018
1704.00,0.0018
1703.00,0.0018
1702.00,0.0018
1701.00,0.0018
1700.00,0.0018
1699.00,0.0019
1698.00,0.0019
1697.00,0.0019
1696.00,0.0019
1695.00,0.0019
1694.00,0.0019
1693.00,0.0019
1692.00,0.0019
1691.00,0.0020
1690.00,0.0020
1689.00,0.0020
1688.00,0.0020
1687.00,0.0020
1686.00,0.0019
1685.00,0.0018
1684.00,0.0018
1683.00,0.0018
1682.00,0.0018
1681.00,0.0019
1680.00,0.0020
1679.00,0.0020
1678.00,0.0020
1677.00,0.0020
1676.00,0.0020
1675.00,0.0020
1674.00,0.0020
1673.00,0.0020
1672.00,0.0021
1671.00,0.0021
1670.00,0.0022
1669.00,0.0022
1668.00,0.0021
1667.00,0.0021
1666.00,0.0021
1665.00,0.0021
1664.00,0.0021
1663.00,0.0021
1662.00,0.0022
1661.00,0.0022
1660.00,0.0023
1659.00,0.0023
1658.00,0.0023
1657.00,0.0023
1656.00,0.0024
1655.00,0.0024
1654.00,0.0024
1653.00,0.0025
1652.00,0.0025
1651.00,0.0025
1650.00,0.0025
1649.00,0.0025
1648.00,0.0025
1647.00,0.0026
1646.00,0.0027
1645.00,0.0027
1644.00,0.0028
1643.00,0.0028
1642.00,0.0029
1641.00,0.0030
1640.00,0.0031
1639.00,0.0032
1638.00,0.0032
1637.00,0.0033
1636.00,0.0033
1635.00,0.0032
1634.00,0.0031
1633.00,0.0030
1632.00,0.0030
1631.00,0.0029
1630.00,0.0029
1629.00,0.0028
1628.00,0.0028
1627.00,0.0028
1626.00,0.0028
1625.00,0.0028
1624.00,0.0028
1623.00,0.0028
1622.00,0.0028
1621.00,0.0028
1620.00,0.0027
1619.00,0.0027
1618.00,0.0027
1617.00,0.0027
1616.00,0.0027
1615.00,0.0027
1614.00,0.0026
1613.00,0.0026
1612.00,0.0027
1611.00,0.0027
1610.00,0.0028
1609.00,0.0028
1608.00,0.0028
1607.00,0.0028
1606.00,0.0028
1605.00,0.0028
1604.00,0.0028
1603.00,0.0028
1602.00,0.0028
1601.00,0.0027
1600.00,0.0027
1599.00,0.0026
1598.00,0.0026
1597.00,0.0026
1596.00,0.0026
1595.00,0.0026
1594.00,0.0026
1593.00,0.0026
1592.00,0.0026
1591.00,0.0026
1590.00,0.0026
1589.00,0.0026
1588.00,0.0026
1587.00,0.0027
1586.00,0.0027
1585.00,0.0028
1584.00,0.0028
1583.00,0.0029
1582.00,0.0029
1581.00,0.0029
1580.00,0.0029
1579.00,0.0029
1578.00,0.0029
1577.00,0.0029
1576.00,0.0030
1575.00,0.0030
1574.00,0.0030
1573.00,0.0031
1572.00,0.0031
1571.00,0.0032
1570.00,0.0032
1569.00,0.0032
1568.00,0.0032
1567.00,0.0032
1566.00,0.0032
1565.00,0.0032
1564.00,0.0032
1563.00,0.0032
1562.00,0.0032
1561.00,0.0032
1560.00,0.0033
1559.00,0.0032
1558.00,0.0031
1557.00,0.0032
1556.00,0.0032
1555.00,0.0033
1554.00,0.0033
1553.00,0.0033
1552.00,0.0033
1551.00,0.0034
1550.00,0.0034
1549.00,0.0034
1548.00,0.0034
1547.00,0.0034
1546.00,0.0034
1545.00,0.0034
1544.00,0.0035
1543.00,0.0036
1542.00,0.0036
1541.00,0.0036
1540.00,0.0036
1539.00,0.0035
1538.00,0.0034
1537.00,0.0034
1536.00,0.0034
1535.00,0.0034
1534.00,0.0034
1533.00,0.0034
1532.00,0.0034
1531.00,0.0034
1530.00,0.0034
1529.00,0.0034
1528.00,0.0035
1527.00,0.0035
1526.00,0.0035
1525.00,0.0036
1524.00,0.0038
1523.00,0.0039
1522.00,0.0039
1521.00,0.0040
1520.00,0.0041
1519.00,0.0040
1518.00,0.0039
1517.00,0.0039
1516.00,0.0040
1515.00,0.0040
1514.00,0.0041
1513.00,0.0042
1512.00,0.0043
1511.00,0.0044
1510.00,0.0044
1509.00,0.0045
1508.00,0.0046
1507.00,0.0046
1506.00,0.0046
1505.00,0.0048
1504.00,0.0050
1503.00,0.0051
1502.00,0.0053
1501.00,0.0055
1500.00,0.0057
1499.00,0.0058
1498.00,0.0060
1497.00,0.0062
1496.00,0.0065
1495.00,0.0068
1494.00,0.0070
1493.00,0.0073
1492.00,0.0076
1491.00,0.0079
1490.00,0.0082
1489.00,0.0086
1488.00,0.0091
1487.00,0.0095
1486.00,0.0100
1485.00,0.0106
1484.00,0.0112
1483.00,0.0119
1482.00,0.0127
1481.00,0.0137
1480.00,0.0149
1479.00,0.0162
1478.00,0.0177
1477.00,0.0198
1476.00,0.0224
1475.00,0.0254
1474.00,0.0295
1473.00,0.0353
1472.00,0.0422
1471.00,0.0489
1470.00,0.0555
1469.00,0.0626
1468.00,0.0702
1467.00,0.0787
1466.00,0.0882
1465.00,0.0984
1464.00,0.1072
1463.00,0.1133
1462.00,0.1170
1461.00,0.1194
1460.00,0.1208
1459.00,0.1215
1458.00,0.1216
1457.00,0.1211
1456.00,0.1200
1455.00,0.1185
1454.00,0.1167
1453.00,0.1145
1452.00,0.1114
1451.00,0.1072
1450.00,0.1017
1449.00,0.0944
1448.00,0.0853
1447.00,0.0758
1446.00,0.0672
1445.00,0.0600
1444.00,0.0538
1443.00,0.0488
1442.00,0.0451
1441.00,0.0425
1440.00,0.0411
1439.00,0.0407
1438.00,0.0411
1437.00,0.0417
1436.00,0.0411
1435.00,0.0388
1434.00,0.0352
1433.00,0.0307
1432.00,0.0261
1431.00,0.0219
1430.00,0.0187
1429.00,0.0163
1428.00,0.0146
1427.00,0.0135
1426.00,0.0128
1425.00,0.0122
1424.00,0.0116
1423.00,0.0113
1422.00,0.0111
1421.00,0.0109
1420.00,0.0105
1419.00,0.0102
1418.00,0.0100
1417.00,0.0098
1416.00,0.0095
1415.00,0.0095
1414.00,0.0095
1413.00,0.0094
1412.00,0.0093
1411.00,0.0093
1410.00,0.0094
1409.00,0.0094
1408.00,0.0093
1407.00,0.0093
1406.00,0.0094
1405.00,0.0094
1404.00,0.0093
1403.00,0.0094
1402.00,0.0095
1401.00,0.0096
1400.00,0.0097
1399.00,0.0100
1398.00,0.0103
1397.00,0.0105
1396.00,0.0108
1395.00,0.0112
1394.00,0.0118
1393.00,0.0123
1392.00,0.0129
1391.00,0.0136
1390.00,0.0146
1389.00,0.0160
1388.00,0.0180
1387.00,0.0211
1386.00,0.0253
1385.00,0.0309
1384.00,0.0386
1383.00,0.0496
1382.00,0.0646
1381.00,0.0842
1380.00,0.1093
1379.00,0.1391
1378.00,0.1695
1377.00,0.1936
1376.00,0.2041
1375.00,0.1963
1374.00,0.1725
1373.00,0.1421
1372.00,0.1136
1371.00,0.0899
1370.00,0.0711
1369.00,0.0570
1368.00,0.0474
1367.00,0.0415
1366.00,0.0383
1365.00,0.0371
1364.00,0.0374
1363.00,0.0389
1362.00,0.0413
1361.00,0.0439
1360.00,0.0459
1359.00,0.0466
1358.00,0.0455
1357.00,0.0426
1356.00,0.0386
1355.00,0.0342
1354.00,0.0299
1353.00,0.0263
1352.00,0.0233
1351.00,0.0210
1350.00,0.0190
1349.00,0.0175
1348.00,0.0162
1347.00,0.0151
1346.00,0.0141
1345.00,0.0134
1344.00,0.0127
1343.00,0.0122
1342.00,0.0117
1341.00,0.0113
1340.00,0.0110
1339.00,0.0108
1338.00,0.0107
1337.00,0.0107
1336.00,0.0109
1335.00,0.0111
1334.00,0.0114
1333.00,0.0118
1332.00,0.0123
1331.00,0.0127
1330.00,0.0128
1329.00,0.0127
1328.00,0.0123
1327.00,0.0118
1326.00,0.0112
1325.00,0.0105
1324.00,0.0099
1323.00,0.0094
1322.00,0.0090
1321.00,0.0087
1320.00,0.0084
1319.00,0.0083
1318.00,0.0081
1317.00,0.0080
1316.00,0.0079
1315.00,0.0078
1314.00,0.0077
1313.00,0.0077
1312.00,0.0078
1311.00,0.0080
1310.00,0.0083
1309.00,0.0088
1308.00,0.0094
1307.00,0.0102
1306.00,0.0110
1305.00,0.0116
1304.00,0.0118
1303.00,0.0117
1302.00,0.0114
1301.00,0.0112
1300.00,0.0111
1299.00,0.0113
1298.00,0.0115
1297.00,0.0117
1296.00,0.0117
1295.00,0.0115
1294.00,0.0112
1293.00,0.0107
1292.00,0.0102
1291.00,0.0097
1290.00,0.0092
1289.00,0.0088
1288.00,0.0085
1287.00,0.0083
1286.00,0.0081
1285.00,0.0079
1284.00,0.0077
1283.00,0.0075
1282.00,0.0074
1281.00,0.0073
1280.00,0.0072
1279.00,0.0071
1278.00,0.0070
1277.00,0.0069
1276.00,0.0069
1275.00,0.0069
1274.00,0.0069
1273.00,0.0070
1272.00,0.0071
1271.00,0.0072
1270.00,0.0072
1269.00,0.0073
1268.00,0.0074
1267.00,0.0075
1266.00,0.0078
1265.00,0.0080
1264.00,0.0082
1263.00,0.0084
1262.00,0.0086
1261.00,0.0089
1260.00,0.0093
1259.00,0.0097
1258.00,0.0102
1257.00,0.0106
1256.00,0.0108
1255.00,0.0106
1254.00,0.0102
1253.00,0.0096
1252.00,0.0090
1251.00,0.0085
1250.00,0.0081
1249.00,0.0078
1248.00,0.0076
1247.00,0.0074
1246.00,0.0073
1245.00,0.0071
1244.00,0.0070
1243.00,0.0069
1242.00,0.0068
1241.00,0.0067
1240.00,0.0066
1239.00,0.0066
1238.00,0.0066
1237.00,0.0066
1236.00,0.0066
1235.00,0.0066
1234.00,0.0066
1233.00,0.0067
1232.00,0.0068
1231.00,0.0069
1230.00,0.0069
1229.00,0.0070
1228.00,0.0071
1227.00,0.0072
1226.00,0.0075
1225.00,0.0078
1224.00,0.0082
1223.00,0.0086
1222.00,0.0089
1221.00,0.0092
1220.00,0.0094
1219.00,0.0094
1218.00,0.0093
1217.00,0.0090
1216.00,0.0087
1215.00,0.0084
1214.00,0.0081
1213.00,0.0078
1212.00,0.0075
1211.00,0.0073
1210.00,0.0072
1209.00,0.0071
1208.00,0.0070
1207.00,0.0069
1206.00,0.0069
1205.00,0.0068
1204.00,0.0067
1203.00,0.0067
1202.00,0.0066
1201.00,0.0066
1200.00,0.0066
1199.00,0.0066
1198.00,0.0066
1197.00,0.0066
1196.00,0.0066
1195.00,0.0066
1194.00,0.0067
1193.00,0.0067
1192.00,0.0067
1191.00,0.0066
1190.00,0.0065
1189.00,0.0065
1188.00,0.0065
1187.00,0.0065
1186.00,0.0066
1185.00,0.0066
1184.00,0.0067
1183.00,0.0069
1182.00,0.0070
1181.00,0.0073
1180.00,0.0075
1179.00,0.0079
1178.00,0.0084
1177.00,0.0091
1176.00,0.0099
1175.00,0.0110
1174.00,0.0124
1173.00,0.0142
1172.00,0.0163
1171.00,0.0187
1170.00,0.0210
1169.00,0.0229
1168.00,0.0241
1167.00,0.0244
1166.00,0.0240
1165.00,0.0231
1164.00,0.0220
1163.00,0.0209
1162.00,0.0200
1161.00,0.0192
1160.00,0.0187
1159.00,0.0183
1158.00,0.0180
1157.00,0.0178
1156.00,0.0177
1155.00,0.0176
1154.00,0.0177
1153.00,0.0177
1152.00,0.0174
1151.00,0.0169
1150.00,0.0161
1149.00,0.0151
1148.00,0.0141
1147.00,0.0131
1146.00,0.0122
1145.00,0.0113
1144.00,0.0106
1143.00,0.0100
1142.00,0.0094
1141.00,0.0088
1140.00,0.0083
1139.00,0.0079
1138.00,0.0075
1137.00,0.0072
1136.00,0.0070
1135.00,0.0068
1134.00,0.0066
1133.00,0.0065
1132.00,0.0064
1131.00,0.0063
1130.00,0.0063
1129.00,0.0063
1128.00,0.0063
1127.00,0.0063
1126.00,0.0063
1125.00,0.0063
1124.00,0.0062
1123.00,0.0062
1122.00,0.0063
1121.00,0.0064
1120.00,0.0065
1119.00,0.0066
1118.00,0.0067
1117.00,0.0068
1116.00,0.0069
1115.00,0.0070
1114.00,0.0071
1113.00,0.0072
1112.00,0.0074
1111.00,0.0077
1110.00,0.0080
1109.00,0.0084
1108.00,0.0089
1107.00,0.0095
1106.00,0.0101
1105.00,0.0108
1104.00,0.0114
1103.00,0.0117
1102.00,0.0116
1101.00,0.0113
1100.00,0.0107
1099.00,0.0100
1098.00,0.0094
1097.00,0.0088
1096.00,0.0084
1095.00,0.0081
1094.00,0.0079
1093.00,0.0077
1092.00,0.0076
1091.00,0.0074
1090.00,0.0073
1089.00,0.0072
1088.00,0.0070
1087.00,0.0069
1086.00,0.0068
1085.00,0.0068
1084.00,0.0068
1083.00,0.0068
1082.00,0.0068
1081.00,0.0069
1080.00,0.0068
1079.00,0.0067
1078.00,0.0067
1077.00,0.0066
1076.00,0.0066
1075.00,0.0066
1074.00,0.0066
1073.00,0.0065
1072.00,0.0064
1071.00,0.0064
1070.00,0.0064
1069.00,0.0064
1068.00,0.0064
1067.00,0.0064
1066.00,0.0065
1065.00,0.0066
1064.00,0.0066
1063.00,0.0067
1062.00,0.0068
1061.00,0.0069
1060.00,0.0070
1059.00,0.0071
1058.00,0.0072
1057.00,0.0073
1056.00,0.0074
1055.00,0.0075
1054.00,0.0076
1053.00,0.0078
1052.00,0.0081
1051.00,0.0084
1050.00,0.0088
1049.00,0.0091
1048.00,0.0095
1047.00,0.0098
1046.00,0.0101
1045.00,0.0103
1044.00,0.0104
1043.00,0.0103
1042.00,0.0103
1041.00,0.0102
1040.00,0.0101
1039.00,0.0101
1038.00,0.0100
1037.00,0.0100
1036.00,0.0099
1035.00,0.0098
1034.00,0.0096
1033.00,0.0095
1032.00,0.0094
1031.00,0.0094
1030.00,0.0094
1029.00,0.0094
1028.00,0.0094
1027.00,0.0096
1026.00,0.0098
1025.00,0.0101
1024.00,0.0104
1023.00,0.0106
1022.00,0.0109
1021.00,0.0110
1020.00,0.0112
1019.00,0.0113
1018.00,0.0114
1017.00,0.0114
1016.00,0.0114
1015.00,0.0113
1014.00,0.0112
1013.00,0.0111
1012.00,0.0110
1011.00,0.0110
1010.00,0.0110
1009.00,0.0111
1008.00,0.0113
1007.00,0.0116
1006.00,0.0121
1005.00,0.0129
1004.00,0.0140
1003.00,0.0156
1002.00,0.0177
1001.00,0.0203
1000.00,0.0230
999.00,0.0251
998.00,0.0260
997.00,0.0254
996.00,0.0233
995.00,0.0205
994.00,0.0177
993.00,0.0153
992.00,0.0134
991.00,0.0120
990.00,0.0110
989.00,0.0103
988.00,0.0099
987.00,0.0098
986.00,0.0098
985.00,0.0100
984.00,0.0103
983.00,0.0110
982.00,0.0119
981.00,0.0134
980.00,0.0153
979.00,0.0177
978.00,0.0206
977.00,0.0239
976.00,0.0273
975.00,0.0304
974.00,0.0324
973.00,0.0329
972.00,0.0314
971.00,0.0284
970.00,0.0247
969.00,0.0210
968.00,0.0179
967.00,0.0155
966.00,0.0136
965.00,0.0122
964.00,0.0112
963.00,0.0104
962.00,0.0098
961.00,0.0093
960.00,0.0089
959.00,0.0086
958.00,0.0084
957.00,0.0082
956.00,0.0080
955.00,0.0078
954.00,0.0076
953.00,0.0074
952.00,0.0074
951.00,0.0074
950.00,0.0074
949.00,0.0073
948.00,0.0073
947.00,0.0074
946.00,0.0076
945.00,0.0080
944.00,0.0084
943.00,0.0087
942.00,0.0090
941.00,0.0092
940.00,0.0092
939.00,0.0089
938.00,0.0084
937.00,0.0077
936.00,0.0071
935.00,0.0065
934.00,0.0062
933.00,0.0060
932.00,0.0060
931.00,0.0059
930.00,0.0058
929.00,0.0057
928.00,0.0056
927.00,0.0056
926.00,0.0055
925.00,0.0055
924.00,0.0055
923.00,0.0056
922.00,0.0057
921.00,0.0058
920.00,0.0058
919.00,0.0058
918.00,0.0057
917.00,0.0057
916.00,0.0058
915.00,0.0059
914.00,0.0060
913.00,0.0060
912.00,0.0060
911.00,0.0061
910.00,0.0062
909.00,0.0065
908.00,0.0069
907.00,0.0075
906.00,0.0082
905.00,0.0093
904.00,0.0108
903.00,0.0127
902.00,0.0148
901.00,0.0168
900.00,0.0182
899.00,0.0186
898.00,0.0178
897.00,0.0161
896.00,0.0139
895.00,0.0119
894.00,0.0102
893.00,0.0090
892.00,0.0081
891.00,0.0076
890.00,0.0071
889.00,0.0067
888.00,0.0065
887.00,0.0064
886.00,0.0065
885.00,0.0065
884.00,0.0064
883.00,0.0062
882.00,0.0061
881.00,0.0060
880.00,0.0061
879.00,0.0063
878.00,0.0064
877.00,0.0064
876.00,0.0064
875.00,0.0064
874.00,0.0065
873.00,0.0065
872.00,0.0066
871.00,0.0067
870.00,0.0068
869.00,0.0068
868.00,0.0068
867.00,0.0069
866.00,0.0070
865.00,0.0071
864.00,0.0071
863.00,0.0072
862.00,0.0073
861.00,0.0073
860.00,0.0074
859.00,0.0074
858.00,0.0075
857.00,0.0077
856.00,0.0080
855.00,0.0082
854.00,0.0084
853.00,0.0085
852.00,0.0086
851.00,0.0088
850.00,0.0091
849.00,0.0096
848.00,0.0102
847.00,0.0110
846.00,0.0123
845.00,0.0143
844.00,0.0172
843.00,0.0206
842.00,0.0233
841.00,0.0242
840.00,0.0227
839.00,0.0197
838.00,0.0164
837.00,0.0137
836.00,0.0119
835.00,0.0108
834.00,0.0101
833.00,0.0098
832.00,0.0096
831.00,0.0094
830.00,0.0094
829.00,0.0094
828.00,0.0094
827.00,0.0093
826.00,0.0092
825.00,0.0092
824.00,0.0092
823.00,0.0093
822.00,0.0094
821.00,0.0095
820.00,0.0097
819.00,0.0101
818.00,0.0107
817.00,0.0113
816.00,0.0122
815.00,0.0133
814.00,0.0149
813.00,0.0170
812.00,0.0192
811.00,0.0212
810.00,0.0227
809.00,0.0232
808.00,0.0227
807.00,0.0213
806.00,0.0194
805.00,0.0173
804.00,0.0154
803.00,0.0138
802.00,0.0126
801.00,0.0117
800.00,0.0110
799.00,0.0105
798.00,0.0101
797.00,0.0097
796.00,0.0093
795.00,0.0091
794.00,0.0089
793.00,0.0087
792.00,0.0084
791.00,0.0081
790.00,0.0078
789.00,0.0074
788.00,0.0071
787.00,0.0067
786.00,0.0065
785.00,0.0063
784.00,0.0061
783.00,0.0059
782.00,0.0059
781.00,0.0059
780.00,0.0060
779.00,0.0060
778.00,0.0060
777.00,0.0058
776.00,0.0057
775.00,0.0056
774.00,0.0056
773.00,0.0058
772.00,0.0059
771.00,0.0059
770.00,0.0057
769.00,0.0056
768.00,0.0056
767.00,0.0056
766.00,0.0056
765.00,0.0056
764.00,0.0056
763.00,0.0057
762.00,0.0058
761.00,0.0059
760.00,0.0059
759.00,0.0059
758.00,0.0058
757.00,0.0058
756.00,0.0060
755.00,0.0062
754.00,0.0063
753.00,0.0064
752.00,0.0066
751.00,0.0067
750.00,0.0068
749.00,0.0068
748.00,0.0069
747.00,0.0071
746.00,0.0074
745.00,0.0076
744.00,0.0078
743.00,0.0080
742.00,0.0081
741.00,0.0083
740.00,0.0086
739.00,0.0090
738.00,0.0094
737.00,0.0097
736.00,0.0100
735.00,0.0103
734.00,0.0108
733.00,0.0114
732.00,0.0120
731.00,0.0127
730.00,0.0132
729.00,0.0136
728.00,0.0137
727.00,0.0138
726.00,0.0140
725.00,0.0145
724.00,0.0150
723.00,0.0157
722.00,0.0162
721.00,0.0164
720.00,0.0162
719.00,0.0155
718.00,0.0145
717.00,0.0134
716.00,0.0123
715.00,0.0115
714.00,0.0109
713.00,0.0104
712.00,0.0100
711.00,0.0097
710.00,0.0095
709.00,0.0093
708.00,0.0091
707.00,0.0089
706.00,0.0088
705.00,0.0089
704.00,0.0089
703.00,0.0088
702.00,0.0087
701.00,0.0085
700.00,0.0085
699.00,0.0084
698.00,0.0085
697.00,0.0085
696.00,0.0085
695.00,0.0085
694.00,0.0085
693.00,0.0086
692.00,0.0087
691.00,0.0087
690.00,0.0087
689.00,0.0086
688.00,0.0084
687.00,0.0084
686.00,0.0084
685.00,0.0085
684.00,0.0085
683.00,0.0085
682.00,0.0085
681.00,0.0084
680.00,0.0082
679.00,0.0081
678.00,0.0082
677.00,0.0084
676.00,0.0086
675.00,0.0086
674.00,0.0085
673.00,0.0086
672.00,0.0087
671.00,0.0088
670.00,0.0091
669.00,0.0092
668.00,0.0094
667.00,0.0094
666.00,0.0092
665.00,0.0089
664.00,0.0087
663.00,0.0086
662.00,0.0085
661.00,0.0084
660.00,0.0082
659.00,0.0079
658.00,0.0076
657.00,0.0074
656.00,0.0073
655.00,0.0073
654.00,0.0074
653.00,0.0076
652.00,0.0076
651.00,0.0076
650.00,0.0074
649.00,0.0072
648.00,0.0070
647.00,0.0069
646.00,0.0070
645.00,0.0071
644.00,0.0072
643.00,0.0073
642.00,0.0072
641.00,0.0071
640.00,0.0070
639.00,0.0070
638.00,0.0070
637.00,0.0070
636.00,0.0069
635.00,0.0068
634.00,0.0068
633.00,0.0069
632.00,0.0071
631.00,0.0073
630.00,0.0073
629.00,0.0073
628.00,0.0074
627.00,0.0075
626.00,0.0076
625.00,0.0076
624.00,0.0076
623.00,0.0075
622.00,0.0072
621.00,0.0070
620.00,0.0068
619.00,0.0069
618.00,0.0070
617.00,0.0072
616.00,0.0073
615.00,0.0073
614.00,0.0073
613.00,0.0071
612.00,0.0069
611.00,0.0065
610.00,0.0062
609.00,0.0060
608.00,0.0061
607.00,0.0064
606.00,0.0066
605.00,0.0067
604.00,0.0067
603.00,0.0067
602.00,0.0068
601.00,0.0069
600.00,0.0067
599.00,0.0064
598.00,0.0062
597.00,0.0063
596.00,0.0066
595.00,0.0068
594.00,0.0068
593.00,0.0068
592.00,0.0067
591.00,0.0066
590.00,0.0064
589.00,0.0063
588.00,0.0063
587.00,0.0065
586.00,0.0067
585.00,0.0068
584.00,0.0068
583.00,0.0068
582.00,0.0067
581.00,0.0067
580.00,0.0067
579.00,0.0066
578.00,0.0066
577.00,0.0065
576.00,0.0065
575.00,0.0065
574.00,0.0066
573.00,0.0067
572.00,0.0069
571.00,0.0072
570.00,0.0075
569.00,0.0075
568.00,0.0073
567.00,0.0073
566.00,0.0074
565.00,0.0076
564.00,0.0076
563.00,0.0073
562.00,0.0069
561.00,0.0065
560.00,0.0063
559.00,0.0064
558.00,0.0068
557.00,0.0071
556.00,0.0071
555.00,0.0069
554.00,0.0066
553.00,0.0066
552.00,0.0067
551.00,0.0070
550.00,0.0071
549.00,0.0071
548.00,0.0071
547.00,0.0071
546.00,0.0071
545.00,0.0074
544.00,0.0078
543.00,0.0083
542.00,0.0087
541.00,0.0088
540.00,0.0085
539.00,0.0083
538.00,0.0082
537.00,0.0085
536.00,0.0087
535.00,0.0089
534.00,0.0091
533.00,0.0094
532.00,0.0099
531.00,0.0100
530.00,0.0096
529.00,0.0090
528.00,0.0084
527.00,0.0083
526.00,0.0085
525.00,0.0089
524.00,0.0092
523.00,0.0091
522.00,0.0088
521.00,0.0083
520.00,0.0080
519.00,0.0078
518.00,0.0076
517.00,0.0072
516.00,0.0066
515.00,0.0062
514.00,0.0062
513.00,0.0065
512.00,0.0069
511.00,0.0072
510.00,0.0072
509.00,0.0068
508.00,0.0063
507.00,0.0060
506.00,0.0062
505.00,0.0066
504.00,0.0072
503.00,0.0076
502.00,0.0082
501.00,0.0088
500.00,0.0092
499.00,0.0091
498.00,0.0086
497.00,0.0078
496.00,0.0069
495.00,0.0061
494.00,0.0055
493.00,0.0054
492.00,0.0058
491.00,0.0063
490.00,0.0067
489.00,0.0070
488.00,0.0072
487.00,0.0071
486.00,0.0064
485.00,0.0054
484.00,0.0048
483.00,0.0049
482.00,0.0053
481.00,0.0057
480.00,0.0060
479.00,0.0063
478.00,0.0068
477.00,0.0077
476.00,0.0091
475.00,0.0108
474.00,0.0123
473.00,0.0131
472.00,0.0131
471.00,0.0127
470.00,0.0124
469.00,0.0124
468.00,0.0129
467.00,0.0137
466.00,0.0146
465.00,0.0153
464.00,0.0161
463.00,0.0171
462.00,0.0179
461.00,0.0184
460.00,0.0184
459.00,0.0178
458.00,0.0168
457.00,0.0157
456.00,0.0149
455.00,0.0141
454.00,0.0130
453.00,0.0117
452.00,0.0110
451.00,0.0114
450.00,0.0124
