Created as New Dataset,Sample 012 By Administrator Date Friday, September 05 2025
cm-1,A
4000.00,0.0009
3999.00,0.0009
3998.00,0.0009
3997.00,0.0009
3996.00,0.0009
3995.00,0.0009
3994.00,0.0009
3993.00,0.0009
3992.00,0.0009
3991.00,0.0009
3990.00,0.0009
3989.00,0.0009
3988.00,0.0008
3987.00,0.0008
3986.00,0.0008
3985.00,0.0008
3984.00,0.0008
3983.00,0.0008
3982.00,0.0008
3981.00,0.0008
3980.00,0.0008
3979.00,0.0008
3978.00,0.0008
3977.00,0.0008
3976.00,0.0008
3975.00,0.0008
3974.00,0.0008
3973.00,0.0008
3972.00,0.0008
3971.00,0.0008
3970.00,0.0007
3969.00,0.0007
3968.00,0.0007
3967.00,0.0007
3966.00,0.0007
3965.00,0.0007
3964.00,0.0007
3963.00,0.0007
3962.00,0.0007
3961.00,0.0008
3960.00,0.0008
3959.00,0.0008
3958.00,0.0008
3957.00,0.0008
3956.00,0.0008
3955.00,0.0007
3954.00,0.0007
3953.00,0.0007
3952.00,0.0007
3951.00,0.0007
3950.00,0.0007
3949.00,0.0007
3948.00,0.0007
3947.00,0.0007
3946.00,0.0007
3945.00,0.0007
3944.00,0.0007
3943.00,0.0007
3942.00,0.0007
3941.00,0.0008
3940.00,0.0008
3939.00,0.0008
3938.00,0.0008
3937.00,0.0008
3936.00,0.0008
3935.00,0.0008
3934.00,0.0008
3933.00,0.0008
3932.00,0.0008
3931.00,0.0007
3930.00,0.0007
3929.00,0.0007
3928.00,0.0007
3927.00,0.0008
3926.00,0.0008
3925.00,0.0008
3924.00,0.0008
3923.00,0.0008
3922.00,0.0008
3921.00,0.0007
3920.00,0.0007
3919.00,0.0007
3918.00,0.0007
3917.00,0.0007
3916.00,0.0007
3915.00,0.0007
3914.00,0.0007
3913.00,0.0008
3912.00,0.0008
3911.00,0.0008
3910.00,0.0008
3909.00,0.0008
3908.00,0.0008
3907.00,0.0008
3906.00,0.0008
3905.00,0.0008
3904.00,0.0008
3903.00,0.0008
3902.00,0.0008
3901.00,0.0007
3900.00,0.0007
3899.00,0.0007
3898.00,0.0007
3897.00,0.0007
3896.00,0.0007
3895.00,0.0007
3894.00,0.0008
3893.00,0.0008
3892.00,0.0008
3891.00,0.0008
3890.00,0.0008
3889.00,0.0008
3888.00,0.0008
3887.00,0.0007
3886.00,0.0007
3885.00,0.0008
3884.00,0.0008
3883.00,0.0008
3882.00,0.0008
3881.00,0.0008
3880.00,0.0008
3879.00,0.0008
3878.00,0.0008
3877.00,0.0008
3876.00,0.0008
3875.00,0.0008
3874.00,0.0008
3873.00,0.0008
3872.00,0.0008
3871.00,0.0009
3870.00,0.0009
3869.00,0.0009
3868.00,0.0009
3867.00,0.0008
3866.00,0.0007
3865.00,0.0006
3864.00,0.0006
3863.00,0.0006
3862.00,0.0007
3861.00,0.0007
3860.00,0.0007
3859.00,0.0008
3858.00,0.0008
3857.00,0.0009
3856.00,0.0009
3855.00,0.0009
3854.00,0.0008
3853.00,0.0008
3852.00,0.0008
3851.00,0.0007
3850.00,0.0007
3849.00,0.0006
3848.00,0.0007
3847.00,0.0007
3846.00,0.0007
3845.00,0.0007
3844.00,0.0008
3843.00,0.0008
3842.00,0.0008
3841.00,0.0009
3840.00,0.0009
3839.00,0.0009
3838.00,0.0009
3837.00,0.0009
3836.00,0.0008
3835.00,0.0007
3834.00,0.0007
3833.00,0.0006
3832.00,0.0006
3831.00,0.0007
3830.00,0.0007
3829.00,0.0007
3828.00,0.0007
3827.00,0.0007
3826.00,0.0007
3825.00,0.0007
3824.00,0.0007
3823.00,0.0007
3822.00,0.0007
3821.00,0.0007
3820.00,0.0007
3819.00,0.0007
3818.00,0.0007
3817.00,0.0007
3816.00,0.0007
3815.00,0.0008
3814.00,0.0008
3813.00,0.0008
3812.00,0.0008
3811.00,0.0008
3810.00,0.0008
3809.00,0.0008
3808.00,0.0008
3807.00,0.0008
3806.00,0.0008
3805.00,0.0009
3804.00,0.0008
3803.00,0.0008
3802.00,0.0008
3801.00,0.0008
3800.00,0.0007
3799.00,0.0007
3798.00,0.0006
3797.00,0.0006
3796.00,0.0007
3795.00,0.0007
3794.00,0.0008
3793.00,0.0007
3792.00,0.0007
3791.00,0.0007
3790.00,0.0007
3789.00,0.0007
3788.00,0.0007
3787.00,0.0007
3786.00,0.0007
3785.00,0.0006
3784.00,0.0007
3783.00,0.0007
3782.00,0.0007
3781.00,0.0006
3780.00,0.0006
3779.00,0.0006
3778.00,0.0007
3777.00,0.0007
3776.00,0.0006
3775.00,0.0007
3774.00,0.0007
3773.00,0.0007
3772.00,0.0007
3771.00,0.0007
3770.00,0.0007
3769.00,0.0008
3768.00,0.0008
3767.00,0.0008
3766.00,0.0008
3765.00,0.0008
3764.00,0.0008
3763.00,0.0007
3762.00,0.0007
3761.00,0.0007
3760.00,0.0007
3759.00,0.0007
3758.00,0.0008
3757.00,0.0008
3756.00,0.0009
3755.00,0.0009
3754.00,0.0009
3753.00,0.0009
3752.00,0.0009
3751.00,0.0008
3750.00,0.0008
3749.00,0.0008
3748.00,0.0008
3747.00,0.0007
3746.00,0.0007
3745.00,0.0006
3744.00,0.0007
3743.00,0.0008
3742.00,0.0007
3741.00,0.0007
3740.00,0.0006
3739.00,0.0006
3738.00,0.0006
3737.00,0.0005
3736.00,0.0005
3735.00,0.0005
3734.00,0.0005
3733.00,0.0005
3732.00,0.0006
3731.00,0.0006
3730.00,0.0007
3729.00,0.0007
3728.00,0.0007
3727.00,0.0007
3726.00,0.0007
3725.00,0.0007
3724.00,0.0006
3723.00,0.0006
3722.00,0.0005
3721.00,0.0006
3720.00,0.0006
3719.00,0.0006
3718.00,0.0006
3717.00,0.0006
3716.00,0.0006
3715.00,0.0006
3714.00,0.0006
3713.00,0.0006
3712.00,0.0006
3711.00,0.0006
3710.00,0.0005
3709.00,0.0005
3708.00,0.0005
3707.00,0.0004
3706.00,0.0004
3705.00,0.0004
3704.00,0.0004
3703.00,0.0004
3702.00,0.0004
3701.00,0.0004
3700.00,0.0005
3699.00,0.0005
3698.00,0.0005
3697.00,0.0005
3696.00,0.0005
3695.00,0.0006
3694.00,0.0006
3693.00,0.0006
3692.00,0.0006
3691.00,0.0006
3690.00,0.0006
3689.00,0.0006
3688.00,0.0006
3687.00,0.0006
3686.00,0.0005
3685.00,0.0005
3684.00,0.0005
3683.00,0.0005
3682.00,0.0005
3681.00,0.0005
3680.00,0.0006
3679.00,0.0007
3678.00,0.0008
3677.00,0.0008
3676.00,0.0007
3675.00,0.0007
3674.00,0.0007
3673.00,0.0006
3672.00,0.0005
3671.00,0.0004
3670.00,0.0004
3669.00,0.0004
3668.00,0.0004
3667.00,0.0004
3666.00,0.0004
3665.00,0.0004
3664.00,0.0004
3663.00,0.0004
3662.00,0.0003
3661.00,0.0003
3660.00,0.0003
3659.00,0.0003
3658.00,0.0003
3657.00,0.0003
3656.00,0.0004
3655.00,0.0004
3654.00,0.0004
3653.00,0.0004
3652.00,0.0005
3651.00,0.0006
3650.00,0.0006
3649.00,0.0006
3648.00,0.0005
3647.00,0.0005
3646.00,0.0004
3645.00,0.0004
3644.00,0.0004
3643.00,0.0004
3642.00,0.0005
3641.00,0.0005
3640.00,0.0006
3639.00,0.0006
3638.00,0.0006
3637.00,0.0006
3636.00,0.0006
3635.00,0.0006
3634.00,0.0006
3633.00,0.0006
3632.00,0.0006
3631.00,0.0005
3630.00,0.0004
3629.00,0.0005
3628.00,0.0005
3627.00,0.0006
3626.00,0.0006
3625.00,0.0005
3624.00,0.0005
3623.00,0.0005
3622.00,0.0005
3621.00,0.0006
3620.00,0.0006
3619.00,0.0006
3618.00,0.0007
3617.00,0.0007
3616.00,0.0007
3615.00,0.0007
3614.00,0.0008
3613.00,0.0008
3612.00,0.0008
3611.00,0.0008
3610.00,0.0008
3609.00,0.0008
3608.00,0.0008
3607.00,0.0008
3606.00,0.0008
3605.00,0.0008
3604.00,0.0009
3603.00,0.0009
3602.00,0.0009
3601.00,0.0009
3600.00,0.0009
3599.00,0.0009
3598.00,0.0008
3597.00,0.0007
3596.00,0.0007
3595.00,0.0007
3594.00,0.0008
3593.00,0.0008
3592.00,0.0009
3591.00,0.0009
3590.00,0.0009
3589.00,0.0009
3588.00,0.0009
3587.00,0.0009
3586.00,0.0009
3585.00,0.0010
3584.00,0.0010
3583.00,0.0010
3582.00,0.0010
3581.00,0.0010
3580.00,0.0010
3579.00,0.0010
3578.00,0.0010
3577.00,0.0010
3576.00,0.0010
3575.00,0.0011
3574.00,0.0011
3573.00,0.0011
3572.00,0.0011
3571.00,0.0012
3570.00,0.0012
3569.00,0.0012
3568.00,0.0012
3567.00,0.0013
3566.00,0.0013
3565.00,0.0013
3564.00,0.0013
3563.00,0.0013
3562.00,0.0013
3561.00,0.0013
3560.00,0.0013
3559.00,0.0013
3558.00,0.0014
3557.00,0.0014
3556.00,0.0015
3555.00,0.0015
3554.00,0.0015
3553.00,0.0015
3552.00,0.0015
3551.00,0.0015
3550.00,0.0015
3549.00,0.0015
3548.00,0.0015
3547.00,0.0016
3546.00,0.0016
3545.00,0.0016
3544.00,0.0016
3543.00,0.0016
3542.00,0.0016
3541.00,0.0017
3540.00,0.0017
3539.00,0.0017
3538.00,0.0017
3537.00,0.0017
3536.00,0.0017
3535.00,0.0017
3534.00,0.0017
3533.00,0.0017
3532.00,0.0017
3531.00,0.0018
3530.00,0.0018
3529.00,0.0019
3528.00,0.0019
3527.00,0.0019
3526.00,0.0019
3525.00,0.0019
3524.00,0.0018
3523.00,0.0018
3522.00,0.0019
3521.00,0.0019
3520.00,0.0020
3519.00,0.0020
3518.00,0.0020
3517.00,0.0021
3516.00,0.0021
3515.00,0.0021
3514.00,0.0021
3513.00,0.0021
3512.00,0.0020
3511.00,0.0020
3510.00,0.0021
3509.00,0.0021
3508.00,0.0021
3507.00,0.0021
3506.00,0.0021
3505.00,0.0021
3504.00,0.0021
3503.00,0.0021
3502.00,0.0021
3501.00,0.0022
3500.00,0.0022
3499.00,0.0023
3498.00,0.0023
3497.00,0.0024
3496.00,0.0024
3495.00,0.0024
3494.00,0.0023
3493.00,0.0023
3492.00,0.0023
3491.00,0.0023
3490.00,0.0023
3489.00,0.0023
3488.00,0.0024
3487.00,0.0024
3486.00,0.0025
3485.00,0.0025
3484.00,0.0025
3483.00,0.0025
3482.00,0.0025
3481.00,0.0025
3480.00,0.0025
3479.00,0.0026
3478.00,0.0026
3477.00,0.0027
3476.00,0.0027
3475.00,0.0027
3474.00,0.0027
3473.00,0.0027
3472.00,0.0027
3471.00,0.0026
3470.00,0.0026
3469.00,0.0027
3468.00,0.0027
3467.00,0.0027
3466.00,0.0028
3465.00,0.0028
3464.00,0.0028
3463.00,0.0028
3462.00,0.0028
3461.00,0.0029
3460.00,0.0029
3459.00,0.0029
3458.00,0.0030
3457.00,0.0029
3456.00,0.0029
3455.00,0.0029
3454.00,0.0029
3453.00,0.0029
3452.00,0.0029
3451.00,0.0029
3450.00,0.0029
3449.00,0.0029
3448.00,0.0030
3447.00,0.0030
3446.00,0.0031
3445.00,0.0031
3444.00,0.0031
3443.00,0.0031
3442.00,0.0032
3441.00,0.0032
3440.00,0.0032
3439.00,0.0032
3438.00,0.0032
3437.00,0.0032
3436.00,0.0033
3435.00,0.0033
3434.00,0.0033
3433.00,0.0033
3432.00,0.0033
3431.00,0.0033
3430.00,0.0033
3429.00,0.0033
3428.00,0.0034
3427.00,0.0034
3426.00,0.0034
3425.00,0.0034
3424.00,0.0035
3423.00,0.0035
3422.00,0.0035
3421.00,0.0035
3420.00,0.0035
3419.00,0.0034
3418.00,0.0034
3417.00,0.0034
3416.00,0.0034
3415.00,0.0035
3414.00,0.0035
3413.00,0.0036
3412.00,0.0037
3411.00,0.0037
3410.00,0.0037
3409.00,0.0037
3408.00,0.0037
3407.00,0.0037
3406.00,0.0037
3405.00,0.0037
3404.00,0.0037
3403.00,0.0037
3402.00,0.0038
3401.00,0.0038
3400.00,0.0038
3399.00,0.0038
3398.00,0.0039
3397.00,0.0039
3396.00,0.0039
3395.00,0.0039
3394.00,0.0039
3393.00,0.0038
3392.00,0.0038
3391.00,0.0038
3390.00,0.0038
3389.00,0.0038
3388.00,0.0038
3387.00,0.0038
3386.00,0.0038
3385.00,0.0038
3384.00,0.0037
3383.00,0.0038
3382.00,0.0038
3381.00,0.0038
3380.00,0.0038
3379.00,0.0038
3378.00,0.0038
3377.00,0.0038
3376.00,0.0038
3375.00,0.0039
3374.00,0.0039
3373.00,0.0039
3372.00,0.0039
3371.00,0.0039
3370.00,0.0039
3369.00,0.0039
3368.00,0.0039
3367.00,0.0038
3366.00,0.0038
3365.00,0.0038
3364.00,0.0038
3363.00,0.0039
3362.00,0.0039
3361.00,0.0040
3360.00,0.0040
3359.00,0.0040
3358.00,0.0040
3357.00,0.0040
3356.00,0.0039
3355.00,0.0039
3354.00,0.0039
3353.00,0.0039
3352.00,0.0039
3351.00,0.0039
3350.00,0.0039
3349.00,0.0039
3348.00,0.0039
3347.00,0.0039
3346.00,0.0038
3345.00,0.0038
3344.00,0.0038
3343.00,0.0038
3342.00,0.0038
3341.00,0.0038
3340.00,0.0038
3339.00,0.0038
3338.00,0.0038
3337.00,0.0038
3336.00,0.0038
3335.00,0.0038
3334.00,0.0038
3333.00,0.0038
3332.00,0.0038
3331.00,0.0038
3330.00,0.0038
3329.00,0.0038
3328.00,0.0038
3327.00,0.0038
3326.00,0.0038
3325.00,0.0037
3324.00,0.0038
3323.00,0.0038
3322.00,0.0038
3321.00,0.0038
3320.00,0.0038
3319.00,0.0038
3318.00,0.0038
3317.00,0.0038
3316.00,0.0038
3315.00,0.0038
3314.00,0.0038
3313.00,0.0038
3312.00,0.0038
3311.00,0.0039
3310.00,0.0039
3309.00,0.0040
3308.00,0.0040
3307.00,0.0041
3306.00,0.0042
3305.00,0.0042
3304.00,0.0043
3303.00,0.0044
3302.00,0.0044
3301.00,0.0044
3300.00,0.0044
3299.00,0.0043
3298.00,0.0043
3297.00,0.0042
3296.00,0.0041
3295.00,0.0040
3294.00,0.0039
3293.00,0.0039
3292.00,0.0039
3291.00,0.0038
3290.00,0.0038
3289.00,0.0038
3288.00,0.0037
3287.00,0.0037
3286.00,0.0037
3285.00,0.0036
3284.00,0.0036
3283.00,0.0036
3282.00,0.0036
3281.00,0.0036
3280.00,0.0036
3279.00,0.0036
3278.00,0.0035
3277.00,0.0035
3276.00,0.0035
3275.00,0.0034
3274.00,0.0034
3273.00,0.0034
3272.00,0.0034
3271.00,0.0034
3270.00,0.0034
3269.00,0.0034
3268.00,0.0034
3267.00,0.0034
3266.00,0.0034
3265.00,0.0033
3264.00,0.0033
3263.00,0.0032
3262.00,0.0032
3261.00,0.0032
3260.00,0.0032
3259.00,0.0032
3258.00,0.0032
3257.00,0.0032
3256.00,0.0032
3255.00,0.0031
3254.00,0.0031
3253.00,0.0031
3252.00,0.0031
3251.00,0.0031
3250.00,0.0031
3249.00,0.0031
3248.00,0.0031
3247.00,0.0031
3246.00,0.0031
3245.00,0.0031
3244.00,0.0031
3243.00,0.0031
3242.00,0.0031
3241.00,0.0031
3240.00,0.0031
3239.00,0.0031
3238.00,0.0031
3237.00,0.0031
3236.00,0.0031
3235.00,0.0031
3234.00,0.0031
3233.00,0.0031
3232.00,0.0031
3231.00,0.0031
3230.00,0.0032
3229.00,0.0032
3228.00,0.0032
3227.00,0.0032
3226.00,0.0032
3225.00,0.0032
3224.00,0.0033
3223.00,0.0033
3222.00,0.0033
3221.00,0.0033
3220.00,0.0033
3219.00,0.0034
3218.00,0.0034
3217.00,0.0035
3216.00,0.0035
3215.00,0.0035
3214.00,0.0036
3213.00,0.0036
3212.00,0.0036
3211.00,0.0035
3210.00,0.0035
3209.00,0.0035
3208.00,0.0035
3207.00,0.0036
3206.00,0.0036
3205.00,0.0036
3204.00,0.0036
3203.00,0.0036
3202.00,0.0036
3201.00,0.0036
3200.00,0.0036
3199.00,0.0037
3198.00,0.0037
3197.00,0.0037
3196.00,0.0037
3195.00,0.0037
3194.00,0.0037
3193.00,0.0036
3192.00,0.0036
3191.00,0.0036
3190.00,0.0036
3189.00,0.0036
3188.00,0.0037
3187.00,0.0037
3186.00,0.0036
3185.00,0.0036
3184.00,0.0035
3183.00,0.0035
3182.00,0.0035
3181.00,0.0035
3180.00,0.0035
3179.00,0.0035
3178.00,0.0034
3177.00,0.0034
3176.00,0.0034
3175.00,0.0034
3174.00,0.0034
3173.00,0.0034
3172.00,0.0034
3171.00,0.0034
3170.00,0.0033
3169.00,0.0032
3168.00,0.0032
3167.00,0.0032
3166.00,0.0032
3165.00,0.0032
3164.00,0.0032
3163.00,0.0032
3162.00,0.0032
3161.00,0.0032
3160.00,0.0032
3159.00,0.0032
3158.00,0.0032
3157.00,0.0032
3156.00,0.0032
3155.00,0.0032
3154.00,0.0031
3153.00,0.0031
3152.00,0.0031
3151.00,0.0031
3150.00,0.0031
3149.00,0.0031
3148.00,0.0031
3147.00,0.0031
3146.00,0.0031
3145.00,0.0031
3144.00,0.0031
3143.00,0.0031
3142.00,0.0031
3141.00,0.0030
3140.00,0.0030
3139.00,0.0029
3138.00,0.0029
3137.00,0.0029
3136.00,0.0029
3135.00,0.0029
3134.00,0.0029
3133.00,0.0029
3132.00,0.0029
3131.00,0.0029
3130.00,0.0028
3129.00,0.0028
3128.00,0.0028
3127.00,0.0028
3126.00,0.0028
3125.00,0.0028
3124.00,0.0028
3123.00,0.0028
3122.00,0.0028
3121.00,0.0027
3120.00,0.0027
3119.00,0.0027
3118.00,0.0027
3117.00,0.0027
3116.00,0.0027
3115.00,0.0027
3114.00,0.0026
3113.00,0.0026
3112.00,0.0026
3111.00,0.0026
3110.00,0.0025
3109.00,0.0025
3108.00,0.0025
3107.00,0.0025
3106.00,0.0025
3105.00,0.0025
3104.00,0.0025
3103.00,0.0025
3102.00,0.0025
3101.00,0.0025
3100.00,0.0025
3099.00,0.0025
3098.00,0.0025
3097.00,0.0026
3096.00,0.0026
3095.00,0.0026
3094.00,0.0026
3093.00,0.0026
3092.00,0.0026
3091.00,0.0026
3090.00,0.0025
3089.00,0.0025
3088.00,0.0025
3087.00,0.0025
3086.00,0.0025
3085.00,0.0025
3084.00,0.0025
3083.00,0.0024
3082.00,0.0024
3081.00,0.0024
3080.00,0.0024
3079.00,0.0024
3078.00,0.0024
3077.00,0.0025
3076.00,0.0025
3075.00,0.0025
3074.00,0.0026
3073.00,0.0026
3072.00,0.0026
3071.00,0.0026
3070.00,0.0026
3069.00,0.0026
3068.00,0.0026
3067.00,0.0026
3066.00,0.0026
3065.00,0.0026
3064.00,0.0026
3063.00,0.0027
3062.00,0.0027
3061.00,0.0028
3060.00,0.0028
3059.00,0.0028
3058.00,0.0028
3057.00,0.0028
3056.00,0.0028
3055.00,0.0028
3054.00,0.0028
3053.00,0.0029
3052.00,0.0029
3051.00,0.0029
3050.00,0.0030
3049.00,0.0030
3048.00,0.0030
3047.00,0.0030
3046.00,0.0030
3045.00,0.0030
3044.00,0.0030
3043.00,0.0030
3042.00,0.0031
3041.00,0.0031
3040.00,0.0032
3039.00,0.0033
3038.00,0.0033
3037.00,0.0033
3036.00,0.0033
3035.00,0.0033
3034.00,0.0033
3033.00,0.0033
3032.00,0.0033
3031.00,0.0034
3030.00,0.0034
3029.00,0.0034
3028.00,0.0035
3027.00,0.0036
3026.00,0.0036
3025.00,0.0037
3024.00,0.0038
3023.00,0.0039
3022.00,0.0039
3021.00,0.0040
3020.00,0.0041
3019.00,0.0042
3018.00,0.0043
3017.00,0.0044
3016.00,0.0044
3015.00,0.0045
3014.00,0.0046
3013.00,0.0046
3012.00,0.0048
3011.00,0.0049
3010.00,0.0050
3009.00,0.0051
3008.00,0.0052
3007.00,0.0053
3006.00,0.0055
3005.00,0.0056
3004.00,0.0058
3003.00,0.0060
3002.00,0.0061
3001.00,0.0063
3000.00,0.0065
2999.00,0.0067
2998.00,0.0070
2997.00,0.0073
2996.00,0.0077
2995.00,0.0080
2994.00,0.0085
2993.00,0.0089
2992.00,0.0095
2991.00,0.0100
2990.00,0.0107
2989.00,0.0113
2988.00,0.0121
2987.00,0.0129
2986.00,0.0138
2985.00,0.0147
2984.00,0.0158
2983.00,0.0171
2982.00,0.0186
2981.00,0.0204
2980.00,0.0225
2979.00,0.0250
2978.00,0.0277
2977.00,0.0307
2976.00,0.0342
2975.00,0.0382
2974.00,0.0429
2973.00,0.0482
2972.00,0.0542
2971.00,0.0612
2970.00,0.0690
2969.00,0.0777
2968.00,0.0872
2967.00,0.0976
2966.00,0.1088
2965.00,0.1205
2964.00,0.1325
2963.00,0.1440
2962.00,0.1544
2961.00,0.1629
2960.00,0.1693
2959.00,0.1735
2958.00,0.1762
2957.00,0.1780
2956.00,0.1799
2955.00,0.1825
2954.00,0.1860
2953.00,0.1898
2952.00,0.1930
2951.00,0.1944
2950.00,0.1928
2949.00,0.1878
2948.00,0.1794
2947.00,0.1682
2946.00,0.1556
2945.00,0.1427
2944.00,0.1309
2943.00,0.1209
2942.00,0.1131
2941.00,0.1078
2940.00,0.1048
2939.00,0.1038
2938.00,0.1048
2937.00,0.1074
2936.00,0.1116
2935.00,0.1171
2934.00,0.1239
2933.00,0.1319
2932.00,0.1409
2931.00,0.1508
2930.00,0.1612
2929.00,0.1720
2928.00,0.1827
2927.00,0.1932
2926.00,0.2033
2925.00,0.2129
2924.00,0.2221
2923.00,0.2311
2922.00,0.2398
2921.00,0.2479
2920.00,0.2548
2919.00,0.2596
2918.00,0.2615
2917.00,0.2600
2916.00,0.2552
2915.00,0.2477
2914.00,0.2387
2913.00,0.2294
2912.00,0.2206
2911.00,0.2129
2910.00,0.2063
2909.00,0.2006
2908.00,0.1953
2907.00,0.1902
2906.00,0.1848
2905.00,0.1790
2904.00,0.1727
2903.00,0.1662
2902.00,0.1595
2901.00,0.1528
2900.00,0.1462
2899.00,0.1399
2898.00,0.1340
2897.00,0.1285
2896.00,0.1236
2895.00,0.1193
2894.00,0.1157
2893.00,0.1127
2892.00,0.1103
2891.00,0.1085
2890.00,0.1071
2889.00,0.1062
2888.00,0.1056
2887.00,0.1053
2886.00,0.1053
2885.00,0.1055
2884.00,0.1062
2883.00,0.1071
2882.00,0.1083
2881.00,0.1097
2880.00,0.1109
2879.00,0.1118
2878.00,0.1121
2877.00,0.1118
2876.00,0.1110
2875.00,0.1103
2874.00,0.1099
2873.00,0.1101
2872.00,0.1111
2871.00,0.1127
2870.00,0.1147
2869.00,0.1165
2868.00,0.1177
2867.00,0.1174
2866.00,0.1151
2865.00,0.1108
2864.00,0.1048
2863.00,0.0980
2862.00,0.0913
2861.00,0.0855
2860.00,0.0810
2859.00,0.0780
2858.00,0.0764
2857.00,0.0759
2856.00,0.0764
2855.00,0.0776
2854.00,0.0793
2853.00,0.0814
2852.00,0.0835
2851.00,0.0856
2850.00,0.0874
2849.00,0.0889
2848.00,0.0904
2847.00,0.0923
2846.00,0.0951
2845.00,0.0991
2844.00,0.1041
2843.00,0.1099
2842.00,0.1158
2841.00,0.1211
2840.00,0.1248
2839.00,0.1263
2838.00,0.1248
2837.00,0.1201
2836.00,0.1126
2835.00,0.1030
2834.00,0.0923
2833.00,0.0815
2832.00,0.0714
2831.00,0.0625
2830.00,0.0551
2829.00,0.0490
2828.00,0.0440
2827.00,0.0400
2826.00,0.0367
2825.00,0.0339
2824.00,0.0315
2823.00,0.0295
2822.00,0.0278
2821.00,0.0263
2820.00,0.0249
2819.00,0.0238
2818.00,0.0227
2817.00,0.0218
2816.00,0.0210
2815.00,0.0203
2814.00,0.0197
2813.00,0.0192
2812.00,0.0187
2811.00,0.0182
2810.00,0.0176
2809.00,0.0171
2808.00,0.0165
2807.00,0.0159
2806.00,0.0152
2805.00,0.0146
2804.00,0.0140
2803.00,0.0134
2802.00,0.0129
2801.00,0.0124
2800.00,0.0121
2799.00,0.0118
2798.00,0.0116
2797.00,0.0114
2796.00,0.0112
2795.00,0.0109
2794.00,0.0107
2793.00,0.0104
2792.00,0.0100
2791.00,0.0097
2790.00,0.0093
2789.00,0.0090
2788.00,0.0086
2787.00,0.0083
2786.00,0.0080
2785.00,0.0077
2784.00,0.0074
2783.00,0.0072
2782.00,0.0070
2781.00,0.0068
2780.00,0.0067
2779.00,0.0065
2778.00,0.0063
2777.00,0.0061
2776.00,0.0060
2775.00,0.0059
2774.00,0.0058
2773.00,0.0057
2772.00,0.0056
2771.00,0.0055
2770.00,0.0055
2769.00,0.0054
2768.00,0.0054
2767.00,0.0053
2766.00,0.0053
2765.00,0.0053
2764.00,0.0053
2763.00,0.0053
2762.00,0.0052
2761.00,0.0052
2760.00,0.0051
2759.00,0.0051
2758.00,0.0051
2757.00,0.0050
2756.00,0.0050
2755.00,0.0050
2754.00,0.0050
2753.00,0.0050
2752.00,0.0050
2751.00,0.0050
2750.00,0.0049
2749.00,0.0049
2748.00,0.0050
2747.00,0.0050
2746.00,0.0050
2745.00,0.0051
2744.00,0.0052
2743.00,0.0053
2742.00,0.0053
2741.00,0.0054
2740.00,0.0055
2739.00,0.0057
2738.00,0.0058
2737.00,0.0059
2736.00,0.0060
2735.00,0.0061
2734.00,0.0063
2733.00,0.0065
2732.00,0.0067
2731.00,0.0068
2730.00,0.0070
2729.00,0.0072
2728.00,0.0074
2727.00,0.0077
2726.00,0.0079
2725.00,0.0082
2724.00,0.0084
2723.00,0.0084
2722.00,0.0084
2721.00,0.0082
2720.00,0.0080
2719.00,0.0077
2718.00,0.0074
2717.00,0.0071
2716.00,0.0068
2715.00,0.0065
2714.00,0.0063
2713.00,0.0061
2712.00,0.0059
2711.00,0.0058
2710.00,0.0057
2709.00,0.0055
2708.00,0.0054
2707.00,0.0052
2706.00,0.0051
2705.00,0.0050
2704.00,0.0049
2703.00,0.0048
2702.00,0.0047
2701.00,0.0046
2700.00,0.0046
2699.00,0.0046
2698.00,0.0045
2697.00,0.0045
2696.00,0.0045
2695.00,0.0045
2694.00,0.0045
2693.00,0.0045
2692.00,0.0045
2691.00,0.0045
2690.00,0.0045
2689.00,0.0045
2688.00,0.0045
2687.00,0.0045
2686.00,0.0045
2685.00,0.0045
2684.00,0.0044
2683.00,0.0044
2682.00,0.0044
2681.00,0.0044
2680.00,0.0045
2679.00,0.0045
2678.00,0.0045
2677.00,0.0045
2676.00,0.0045
2675.00,0.0044
2674.00,0.0044
2673.00,0.0044
2672.00,0.0044
2671.00,0.0043
2670.00,0.0043
2669.00,0.0043
2668.00,0.0043
2667.00,0.0043
2666.00,0.0043
2665.00,0.0044
2664.00,0.0045
2663.00,0.0045
2662.00,0.0046
2661.00,0.0047
2660.00,0.0047
2659.00,0.0047
2658.00,0.0047
2657.00,0.0047
2656.00,0.0046
2655.00,0.0045
2654.00,0.0045
2653.00,0.0044
2652.00,0.0044
2651.00,0.0044
2650.00,0.0043
2649.00,0.0043
2648.00,0.0042
2647.00,0.0042
2646.00,0.0042
2645.00,0.0042
2644.00,0.0041
2643.00,0.0041
2642.00,0.0040
2641.00,0.0039
2640.00,0.0039
2639.00,0.0038
2638.00,0.0038
2637.00,0.0038
2636.00,0.0038
2635.00,0.0038
2634.00,0.0038
2633.00,0.0038
2632.00,0.0038
2631.00,0.0038
2630.00,0.0039
2629.00,0.0039
2628.00,0.0039
2627.00,0.0039
2626.00,0.0039
2625.00,0.0040
2624.00,0.0040
2623.00,0.0040
2622.00,0.0040
2621.00,0.0040
2620.00,0.0040
2619.00,0.0040
2618.00,0.0040
2617.00,0.0041
2616.00,0.0041
2615.00,0.0041
2614.00,0.0040
2613.00,0.0040
2612.00,0.0039
2611.00,0.0038
2610.00,0.0037
2609.00,0.0036
2608.00,0.0035
2607.00,0.0035
2606.00,0.0034
2605.00,0.0033
2604.00,0.0032
2603.00,0.0031
2602.00,0.0030
2601.00,0.0030
2600.00,0.0029
2599.00,0.0029
2598.00,0.0029
2597.00,0.0029
2596.00,0.0029
2595.00,0.0030
2594.00,0.0030
2593.00,0.0031
2592.00,0.0031
2591.00,0.0032
2590.00,0.0032
2589.00,0.0033
2588.00,0.0034
2587.00,0.0034
2586.00,0.0035
2585.00,0.0035
2584.00,0.0036
2583.00,0.0037
2582.00,0.0037
2581.00,0.0038
2580.00,0.0037
2579.00,0.0036
2578.00,0.0035
2577.00,0.0034
2576.00,0.0033
2575.00,0.0032
2574.00,0.0031
2573.00,0.0030
2572.00,0.0029
2571.00,0.0028
2570.00,0.0027
2569.00,0.0026
2568.00,0.0025
2567.00,0.0025
2566.00,0.0025
2565.00,0.0025
2564.00,0.0025
2563.00,0.0025
2562.00,0.0025
2561.00,0.0024
2560.00,0.0023
2559.00,0.0022
2558.00,0.0022
2557.00,0.0021
2556.00,0.0021
2555.00,0.0021
2554.00,0.0020
2553.00,0.0020
2552.00,0.0020
2551.00,0.0020
2550.00,0.0021
2549.00,0.0021
2548.00,0.0021
2547.00,0.0020
2546.00,0.0019
2545.00,0.0018
2544.00,0.0018
2543.00,0.0017
2542.00,0.0017
2541.00,0.0016
2540.00,0.0016
2539.00,0.0016
2538.00,0.0016
2537.00,0.0016
2536.00,0.0016
2535.00,0.0016
2534.00,0.0015
2533.00,0.0015
2532.00,0.0015
2531.00,0.0014
2530.00,0.0014
2529.00,0.0013
2528.00,0.0014
2527.00,0.0014
2526.00,0.0015
2525.00,0.0015
2524.00,0.0014
2523.00,0.0014
2522.00,0.0013
2521.00,0.0013
2520.00,0.0012
2519.00,0.0012
2518.00,0.0011
2517.00,0.0010
2516.00,0.0009
2515.00,0.0009
2514.00,0.0009
2513.00,0.0009
2512.00,0.0010
2511.00,0.0011
2510.00,0.0012
2509.00,0.0012
2508.00,0.0012
2507.00,0.0012
2506.00,0.0012
2505.00,0.0011
2504.00,0.0010
2503.00,0.0010
2502.00,0.0009
2501.00,0.0009
2500.00,0.0009
2499.00,0.0010
2498.00,0.0011
2497.00,0.0011
2496.00,0.0011
2495.00,0.0010
2494.00,0.0010
2493.00,0.0011
2492.00,0.0011
2491.00,0.0011
2490.00,0.0011
2489.00,0.0010
2488.00,0.0010
2487.00,0.0009
2486.00,0.0008
2485.00,0.0008
2484.00,0.0008
2483.00,0.0009
2482.00,0.0009
2481.00,0.0009
2480.00,0.0009
2479.00,0.0009
2478.00,0.0009
2477.00,0.0009
2476.00,0.0008
2475.00,0.0009
2474.00,0.0009
2473.00,0.0009
2472.00,0.0009
2471.00,0.0008
2470.00,0.0008
2469.00,0.0007
2468.00,0.0007
2467.00,0.0007
2466.00,0.0007
2465.00,0.0008
2464.00,0.0008
2463.00,0.0009
2462.00,0.0009
2461.00,0.0009
2460.00,0.0009
2459.00,0.0009
2458.00,0.0009
2457.00,0.0010
2456.00,0.0011
2455.00,0.0011
2454.00,0.0012
2453.00,0.0012
2452.00,0.0012
2451.00,0.0011
2450.00,0.0010
2449.00,0.0009
2448.00,0.0008
2447.00,0.0008
2446.00,0.0009
2445.00,0.0010
2444.00,0.0011
2443.00,0.0012
2442.00,0.0011
2441.00,0.0011
2440.00,0.0011
2439.00,0.0011
2438.00,0.0011
2437.00,0.0012
2436.00,0.0012
2435.00,0.0012
2434.00,0.0012
2433.00,0.0012
2432.00,0.0012
2431.00,0.0012
2430.00,0.0012
2429.00,0.0012
2428.00,0.0012
2427.00,0.0012
2426.00,0.0012
2425.00,0.0012
2424.00,0.0012
2423.00,0.0011
2422.00,0.0010
2421.00,0.0009
2420.00,0.0009
2419.00,0.0009
2418.00,0.0009
2417.00,0.0008
2416.00,0.0009
2415.00,0.0009
2414.00,0.0010
2413.00,0.0010
2412.00,0.0010
2411.00,0.0010
2410.00,0.0010
2409.00,0.0009
2408.00,0.0009
2407.00,0.0008
2406.00,0.0008
2405.00,0.0008
2404.00,0.0008
2403.00,0.0008
2402.00,0.0008
2401.00,0.0008
2400.00,0.0008
2399.00,0.0008
2398.00,0.0008
2397.00,0.0008
2396.00,0.0008
2395.00,0.0008
2394.00,0.0008
2393.00,0.0007
2392.00,0.0007
2391.00,0.0007
2390.00,0.0007
2389.00,0.0007
2388.00,0.0007
2387.00,0.0007
2386.00,0.0006
2385.00,0.0006
2384.00,0.0006
2383.00,0.0005
2382.00,0.0005
2381.00,0.0004
2380.00,0.0004
2379.00,0.0004
2378.00,0.0005
2377.00,0.0005
2376.00,0.0005
2375.00,0.0005
2374.00,0.0005
2373.00,0.0005
2372.00,0.0005
2371.00,0.0004
2370.00,0.0004
2369.00,0.0003
2368.00,0.0003
2367.00,0.0003
2366.00,0.0004
2365.00,0.0005
2364.00,0.0005
2363.00,0.0006
2362.00,0.0006
2361.00,0.0006
2360.00,0.0006
2359.00,0.0005
2358.00,0.0005
2357.00,0.0005
2356.00,0.0006
2355.00,0.0006
2354.00,0.0007
2353.00,0.0006
2352.00,0.0006
2351.00,0.0006
2350.00,0.0007
2349.00,0.0007
2348.00,0.0008
2347.00,0.0008
2346.00,0.0007
2345.00,0.0006
2344.00,0.0006
2343.00,0.0007
2342.00,0.0008
2341.00,0.0009
2340.00,0.0009
2339.00,0.0009
2338.00,0.0009
2337.00,0.0009
2336.00,0.0009
2335.00,0.0009
2334.00,0.0008
2333.00,0.0008
2332.00,0.0008
2331.00,0.0008
2330.00,0.0009
2329.00,0.0010
2328.00,0.0012
2327.00,0.0015
2326.00,0.0018
2325.00,0.0021
2324.00,0.0022
2323.00,0.0021
2322.00,0.0018
2321.00,0.0016
2320.00,0.0014
2319.00,0.0013
2318.00,0.0014
2317.00,0.0014
2316.00,0.0014
2315.00,0.0013
2314.00,0.0011
2313.00,0.0010
2312.00,0.0009
2311.00,0.0008
2310.00,0.0008
2309.00,0.0008
2308.00,0.0009
2307.00,0.0009
2306.00,0.0010
2305.00,0.0010
2304.00,0.0010
2303.00,0.0010
2302.00,0.0010
2301.00,0.0010
2300.00,0.0009
2299.00,0.0010
2298.00,0.0010
2297.00,0.0011
2296.00,0.0012
2295.00,0.0012
2294.00,0.0013
2293.00,0.0014
2292.00,0.0015
2291.00,0.0016
2290.00,0.0017
2289.00,0.0018
2288.00,0.0018
2287.00,0.0019
2286.00,0.0019
2285.00,0.0018
2284.00,0.0017
2283.00,0.0016
2282.00,0.0015
2281.00,0.0014
2280.00,0.0014
2279.00,0.0014
2278.00,0.0013
2277.00,0.0012
2276.00,0.0011
2275.00,0.0011
2274.00,0.0011
2273.00,0.0012
2272.00,0.0013
2271.00,0.0013
2270.00,0.0014
2269.00,0.0014
2268.00,0.0013
2267.00,0.0013
2266.00,0.0013
2265.00,0.0013
2264.00,0.0013
2263.00,0.0013
2262.00,0.0013
2261.00,0.0013
2260.00,0.0013
2259.00,0.0014
2258.00,0.0015
2257.00,0.0014
2256.00,0.0013
2255.00,0.0010
2254.00,0.0009
2253.00,0.0008
2252.00,0.0008
2251.00,0.0009
2250.00,0.0009
2249.00,0.0009
2248.00,0.0008
2247.00,0.0008
2246.00,0.0007
2245.00,0.0006
2244.00,0.0006
2243.00,0.0006
2242.00,0.0006
2241.00,0.0007
2240.00,0.0008
2239.00,0.0008
2238.00,0.0008
2237.00,0.0008
2236.00,0.0009
2235.00,0.0010
2234.00,0.0011
2233.00,0.0012
2232.00,0.0012
2231.00,0.0011
2230.00,0.0010
2229.00,0.0010
2228.00,0.0010
2227.00,0.0011
2226.00,0.0012
2225.00,0.0012
2224.00,0.0012
2223.00,0.0012
2222.00,0.0012
2221.00,0.0011
2220.00,0.0009
2219.00,0.0007
2218.00,0.0006
2217.00,0.0006
2216.00,0.0005
2215.00,0.0003
2214.00,0.0002
2213.00,0.0002
2212.00,0.0003
2211.00,0.0004
2210.00,0.0006
2209.00,0.0007
2208.00,0.0008
2207.00,0.0008
2206.00,0.0008
2205.00,0.0008
2204.00,0.0009
2203.00,0.0009
2202.00,0.0009
2201.00,0.0008
2200.00,0.0007
2199.00,0.0005
2198.00,0.0005
2197.00,0.0005
2196.00,0.0007
2195.00,0.0009
2194.00,0.0010
2193.00,0.0010
2192.00,0.0010
2191.00,0.0009
2190.00,0.0008
2189.00,0.0009
2188.00,0.0010
2187.00,0.0011
2186.00,0.0013
2185.00,0.0012
2184.00,0.0011
2183.00,0.0008
2182.00,0.0006
2181.00,0.0003
2180.00,0.0002
2179.00,0.0002
2178.00,0.0002
2177.00,0.0003
2176.00,0.0003
2175.00,0.0002
2174.00,0.0002
2173.00,0.0004
2172.00,0.0007
2171.00,0.0009
2170.00,0.0011
2169.00,0.0013
2168.00,0.0015
2167.00,0.0017
2166.00,0.0017
2165.00,0.0016
2164.00,0.0015
2163.00,0.0017
2162.00,0.0018
2161.00,0.0014
2160.00,0.0002
2159.00,-0.0014
2158.00,-0.0026
2157.00,-0.0031
2156.00,-0.0029
2155.00,-0.0025
2154.00,-0.0020
2153.00,-0.0014
2152.00,-0.0010
2151.00,-0.0010
2150.00,-0.0011
2149.00,-0.0013
2148.00,-0.0012
2147.00,-0.0012
2146.00,-0.0011
2145.00,-0.0011
2144.00,-0.0011
2143.00,-0.0011
2142.00,-0.0010
2141.00,-0.0009
2140.00,-0.0008
2139.00,-0.0008
2138.00,-0.0010
2137.00,-0.0013
2136.00,-0.0016
2135.00,-0.0018
2134.00,-0.0017
2133.00,-0.0015
2132.00,-0.0013
2131.00,-0.0011
2130.00,-0.0009
2129.00,-0.0009
2128.00,-0.0009
2127.00,-0.0009
2126.00,-0.0009
2125.00,-0.0008
2124.00,-0.0007
2123.00,-0.0005
2122.00,-0.0004
2121.00,-0.0002
2120.00,-0.0001
2119.00,-0.0000
2118.00,0.0000
2117.00,0.0001
2116.00,0.0001
2115.00,0.0001
2114.00,0.0001
2113.00,0.0001
2112.00,0.0001
2111.00,0.0000
2110.00,-0.0000
2109.00,-0.0001
2108.00,-0.0002
2107.00,-0.0003
2106.00,-0.0003
2105.00,-0.0004
2104.00,-0.0003
2103.00,-0.0001
2102.00,0.0000
2101.00,0.0001
2100.00,0.0000
2099.00,-0.0001
2098.00,-0.0002
2097.00,-0.0003
2096.00,-0.0004
2095.00,-0.0004
2094.00,-0.0003
2093.00,-0.0003
2092.00,-0.0003
2091.00,-0.0003
2090.00,-0.0003
2089.00,-0.0002
2088.00,-0.0002
2087.00,-0.0002
2086.00,-0.0000
2085.00,0.0001
2084.00,0.0003
2083.00,0.0004
2082.00,0.0004
2081.00,0.0004
2080.00,0.0003
2079.00,0.0002
2078.00,0.0002
2077.00,0.0001
2076.00,0.0001
2075.00,0.0001
2074.00,0.0002
2073.00,0.0003
2072.00,0.0004
2071.00,0.0003
2070.00,0.0002
2069.00,0.0001
2068.00,0.0001
2067.00,0.0002
2066.00,0.0001
2065.00,0.0000
2064.00,-0.0001
2063.00,-0.0002
2062.00,-0.0002
2061.00,-0.0001
2060.00,-0.0001
2059.00,-0.0001
2058.00,-0.0002
2057.00,-0.0001
2056.00,-0.0000
2055.00,0.0001
2054.00,0.0003
2053.00,0.0007
2052.00,0.0010
2051.00,0.0011
2050.00,0.0009
2049.00,0.0005
2048.00,0.0002
2047.00,0.0000
2046.00,0.0000
2045.00,0.0000
2044.00,0.0000
2043.00,-0.0000
2042.00,-0.0000
2041.00,0.0001
2040.00,0.0003
2039.00,0.0004
2038.00,0.0005
2037.00,0.0005
2036.00,0.0003
2035.00,0.0000
2034.00,-0.0003
2033.00,-0.0006
2032.00,-0.0009
2031.00,-0.0012
2030.00,-0.0012
2029.00,-0.0010
2028.00,-0.0006
2027.00,-0.0004
2026.00,-0.0003
2025.00,-0.0004
2024.00,-0.0006
2023.00,-0.0011
2022.00,-0.0015
2021.00,-0.0016
2020.00,-0.0015
2019.00,-0.0012
2018.00,-0.0010
2017.00,-0.0009
2016.00,-0.0009
2015.00,-0.0010
2014.00,-0.0010
2013.00,-0.0009
2012.00,-0.0007
2011.00,-0.0006
2010.00,-0.0007
2009.00,-0.0010
2008.00,-0.0012
2007.00,-0.0015
2006.00,-0.0016
2005.00,-0.0016
2004.00,-0.0015
2003.00,-0.0016
2002.00,-0.0016
2001.00,-0.0015
2000.00,-0.0014
1999.00,-0.0013
1998.00,-0.0014
1997.00,-0.0016
1996.00,-0.0016
1995.00,-0.0015
1994.00,-0.0013
1993.00,-0.0011
1992.00,-0.0009
1991.00,-0.0008
1990.00,-0.0008
1989.00,-0.0010
1988.00,-0.0011
1987.00,-0.0011
1986.00,-0.0009
1985.00,-0.0005
1984.00,0.0000
1983.00,0.0005
1982.00,0.0009
1981.00,0.0010
1980.00,0.0008
1979.00,0.0003
1978.00,-0.0003
1977.00,-0.0007
1976.00,-0.0010
1975.00,-0.0011
1974.00,-0.0012
1973.00,-0.0014
1972.00,-0.0015
1971.00,-0.0016
1970.00,-0.0016
1969.00,-0.0016
1968.00,-0.0016
1967.00,-0.0016
1966.00,-0.0016
1965.00,-0.0015
1964.00,-0.0015
1963.00,-0.0014
1962.00,-0.0015
1961.00,-0.0016
1960.00,-0.0018
1959.00,-0.0019
1958.00,-0.0018
1957.00,-0.0016
1956.00,-0.0013
1955.00,-0.0011
1954.00,-0.0011
1953.00,-0.0011
1952.00,-0.0012
1951.00,-0.0012
1950.00,-0.0013
1949.00,-0.0013
1948.00,-0.0015
1947.00,-0.0016
1946.00,-0.0017
1945.00,-0.0016
1944.00,-0.0014
1943.00,-0.0012
1942.00,-0.0011
1941.00,-0.0009
1940.00,-0.0008
1939.00,-0.0008
1938.00,-0.0009
1937.00,-0.0010
1936.00,-0.0010
1935.00,-0.0009
1934.00,-0.0009
1933.00,-0.0008
1932.00,-0.0008
1931.00,-0.0009
1930.00,-0.0009
1929.00,-0.0009
1928.00,-0.0008
1927.00,-0.0007
1926.00,-0.0006
1925.00,-0.0006
1924.00,-0.0006
1923.00,-0.0005
1922.00,-0.0005
1921.00,-0.0004
1920.00,-0.0003
1919.00,-0.0003
1918.00,-0.0002
1917.00,-0.0003
1916.00,-0.0004
1915.00,-0.0005
1914.00,-0.0006
1913.00,-0.0005
1912.00,-0.0004
1911.00,-0.0002
1910.00,-0.0001
1909.00,-0.0001
1908.00,-0.0002
1907.00,-0.0003
1906.00,-0.0004
1905.00,-0.0004
1904.00,-0.0003
1903.00,-0.0002
1902.00,-0.0001
1901.00,-0.0001
1900.00,0.0000
1899.00,0.0001
1898.00,0.0001
1897.00,0.0001
1896.00,-0.0000
1895.00,-0.0001
1894.00,-0.0002
1893.00,-0.0002
1892.00,-0.0001
1891.00,-0.0001
1890.00,0.0000
1889.00,0.0001
1888.00,0.0002
1887.00,0.0002
1886.00,0.0001
1885.00,0.0001
1884.00,-0.0000
1883.00,-0.0001
1882.00,-0.0002
1881.00,-0.0002
1880.00,-0.0003
1879.00,-0.0003
1878.00,-0.0003
1877.00,-0.0002
1876.00,-0.0002
1875.00,-0.0001
1874.00,-0.0001
1873.00,-0.0001
1872.00,-0.0002
1871.00,-0.0002
1870.00,-0.0002
1869.00,-0.0001
1868.00,0.0000
1867.00,0.0001
1866.00,0.0001
1865.00,-0.0000
1864.00,-0.0000
1863.00,-0.0000
1862.00,-0.0000
1861.00,-0.0000
1860.00,-0.0001
1859.00,-0.0001
1858.00,-0.0001
1857.00,-0.0000
1856.00,0.0001
1855.00,0.0001
1854.00,0.0002
1853.00,0.0003
1852.00,0.0003
1851.00,0.0002
1850.00,0.0002
1849.00,0.0001
1848.00,0.0001
1847.00,0.0000
1846.00,-0.0000
1845.00,-0.0000
1844.00,0.0001
1843.00,0.0002
1842.00,0.0002
1841.00,0.0002
1840.00,0.0002
1839.00,0.0002
1838.00,0.0001
1837.00,0.0001
1836.00,0.0001
1835.00,0.0001
1834.00,0.0002
1833.00,0.0002
1832.00,0.0002
1831.00,0.0003
1830.00,0.0004
1829.00,0.0004
1828.00,0.0003
1827.00,0.0003
1826.00,0.0003
1825.00,0.0004
1824.00,0.0005
1823.00,0.0005
1822.00,0.0004
1821.00,0.0002
1820.00,0.0001
1819.00,0.0001
1818.00,0.0000
1817.00,0.0001
1816.00,0.0001
1815.00,0.0002
1814.00,0.0002
1813.00,0.0003
1812.00,0.0003
1811.00,0.0004
1810.00,0.0004
1809.00,0.0004
1808.00,0.0004
1807.00,0.0005
1806.00,0.0005
1805.00,0.0006
1804.00,0.0007
1803.00,0.0007
1802.00,0.0006
1801.00,0.0006
1800.00,0.0005
1799.00,0.0005
1798.00,0.0005
1797.00,0.0006
1796.00,0.0006
1795.00,0.0007
1794.00,0.0006
1793.00,0.0006
1792.00,0.0007
1791.00,0.0007
1790.00,0.0007
1789.00,0.0007
1788.00,0.0007
1787.00,0.0007
1786.00,0.0008
1785.00,0.0008
1784.00,0.0008
1783.00,0.0008
1782.00,0.0008
1781.00,0.0008
1780.00,0.0008
1779.00,0.0009
1778.00,0.0008
1777.00,0.0008
1776.00,0.0008
1775.00,0.0008
1774.00,0.0008
1773.00,0.0008
1772.00,0.0008
1771.00,0.0009
1770.00,0.0009
1769.00,0.0010
1768.00,0.0010
1767.00,0.0010
1766.00,0.0010
1765.00,0.0010
1764.00,0.0010
1763.00,0.0011
1762.00,0.0013
1761.00,0.0014
1760.00,0.0014
1759.00,0.0014
1758.00,0.0014
1757.00,0.0014
1756.00,0.0015
1755.00,0.0015
1754.00,0.0016
1753.00,0.0016
1752.00,0.0017
1751.00,0.0018
1750.00,0.0019
1749.00,0.0020
1748.00,0.0022
1747.00,0.0023
1746.00,0.0025
1745.00,0.0027
1744.00,0.0029
1743.00,0.0030
1742.00,0.0031
1741.00,0.0031
1740.00,0.0033
1739.00,0.0033
1738.00,0.0034
1737.00,0.0034
1736.00,0.0035
1735.00,0.0035
1734.00,0.0035
1733.00,0.0035
1732.00,0.0034
1731.00,0.0033
1730.00,0.0033
1729.00,0.0033
1728.00,0.0033
1727.00,0.0032
1726.00,0.0031
1725.00,0.0030
1724.00,0.0030
1723.00,0.0029
1722.00,0.0029
1721.00,0.0029
1720.00,0.0029
1719.00,0.0029
1718.00,0.0029
1717.00,0.0028
1716.00,0.0027
1715.00,0.0026
1714.00,0.0025
1713.00,0.0024
1712.00,0.0024
1711.00,0.0023
1710.00,0.0023
1709.00,0.0023
1708.00,0.0023
1707.00,0.0023
1706.00,0.0022
1705.00,0.0023
1704.00,0.0023
1703.00,0.0024
1702.00,0.0024
1701.00,0.0025
1700.00,0.0026
1699.00,0.0026
1698.00,0.0026
1697.00,0.0027
1696.00,0.0027
1695.00,0.0028
1694.00,0.0028
1693.00,0.0028
1692.00,0.0028
1691.00,0.0029
1690.00,0.0029
1689.00,0.0030
1688.00,0.0030
1687.00,0.0030
1686.00,0.0031
1685.00,0.0032
1684.00,0.0033
1683.00,0.0034
1682.00,0.0034
1681.00,0.0035
1680.00,0.0035
1679.00,0.0036
1678.00,0.0037
1677.00,0.0037
1676.00,0.0037
1675.00,0.0038
1674.00,0.0038
1673.00,0.0038
1672.00,0.0039
1671.00,0.0040
1670.00,0.0040
1669.00,0.0041
1668.00,0.0041
1667.00,0.0042
1666.00,0.0042
1665.00,0.0042
1664.00,0.0042
1663.00,0.0042
1662.00,0.0043
1661.00,0.0043
1660.00,0.0043
1659.00,0.0044
1658.00,0.0044
1657.00,0.0045
1656.00,0.0046
1655.00,0.0046
1654.00,0.0046
1653.00,0.0047
1652.00,0.0049
1651.00,0.0049
1650.00,0.0050
1649.00,0.0051
1648.00,0.0053
1647.00,0.0054
1646.00,0.0054
1645.00,0.0055
1644.00,0.0055
1643.00,0.0055
1642.00,0.0056
1641.00,0.0057
1640.00,0.0058
1639.00,0.0058
1638.00,0.0059
1637.00,0.0059
1636.00,0.0060
1635.00,0.0059
1634.00,0.0058
1633.00,0.0056
1632.00,0.0055
1631.00,0.0053
1630.00,0.0052
1629.00,0.0051
1628.00,0.0050
1627.00,0.0049
1626.00,0.0048
1625.00,0.0047
1624.00,0.0047
1623.00,0.0047
1622.00,0.0046
1621.00,0.0045
1620.00,0.0045
1619.00,0.0044
1618.00,0.0044
1617.00,0.0043
1616.00,0.0043
1615.00,0.0043
1614.00,0.0043
1613.00,0.0043
1612.00,0.0043
1611.00,0.0043
1610.00,0.0043
1609.00,0.0043
1608.00,0.0042
1607.00,0.0042
1606.00,0.0041
1605.00,0.0041
1604.00,0.0041
1603.00,0.0042
1602.00,0.0042
1601.00,0.0041
1600.00,0.0041
1599.00,0.0041
1598.00,0.0040
1597.00,0.0040
1596.00,0.0040
1595.00,0.0040
1594.00,0.0040
1593.00,0.0040
1592.00,0.0040
1591.00,0.0041
1590.00,0.0042
1589.00,0.0042
1588.00,0.0043
1587.00,0.0044
1586.00,0.0044
1585.00,0.0045
1584.00,0.0046
1583.00,0.0048
1582.00,0.0049
1581.00,0.0050
1580.00,0.0052
1579.00,0.0054
1578.00,0.0055
1577.00,0.0056
1576.00,0.0056
1575.00,0.0056
1574.00,0.0055
1573.00,0.0055
1572.00,0.0055
1571.00,0.0055
1570.00,0.0054
1569.00,0.0055
1568.00,0.0055
1567.00,0.0055
1566.00,0.0055
1565.00,0.0055
1564.00,0.0054
1563.00,0.0054
1562.00,0.0054
1561.00,0.0054
1560.00,0.0053
1559.00,0.0052
1558.00,0.0051
1557.00,0.0051
1556.00,0.0052
1555.00,0.0054
1554.00,0.0054
1553.00,0.0055
1552.00,0.0055
1551.00,0.0056
1550.00,0.0056
1549.00,0.0057
1548.00,0.0058
1547.00,0.0059
1546.00,0.0060
1545.00,0.0062
1544.00,0.0065
1543.00,0.0066
1542.00,0.0066
1541.00,0.0067
1540.00,0.0066
1539.00,0.0063
1538.00,0.0061
1537.00,0.0059
1536.00,0.0058
1535.00,0.0056
1534.00,0.0054
1533.00,0.0053
1532.00,0.0051
1531.00,0.0050
1530.00,0.0050
1529.00,0.0050
1528.00,0.0050
1527.00,0.0050
1526.00,0.0050
1525.00,0.0050
1524.00,0.0050
1523.00,0.0050
1522.00,0.0050
1521.00,0.0051
1520.00,0.0052
1519.00,0.0053
1518.00,0.0053
1517.00,0.0053
1516.00,0.0053
1515.00,0.0053
1514.00,0.0053
1513.00,0.0054
1512.00,0.0055
1511.00,0.0056
1510.00,0.0056
1509.00,0.0057
1508.00,0.0058
1507.00,0.0058
1506.00,0.0058
1505.00,0.0060
1504.00,0.0061
1503.00,0.0063
1502.00,0.0064
1501.00,0.0066
1500.00,0.0068
1499.00,0.0070
1498.00,0.0072
1497.00,0.0075
1496.00,0.0078
1495.00,0.0080
1494.00,0.0082
1493.00,0.0085
1492.00,0.0088
1491.00,0.0092
1490.00,0.0096
1489.00,0.0101
1488.00,0.0106
1487.00,0.0110
1486.00,0.0115
1485.00,0.0120
1484.00,0.0127
1483.00,0.0134
1482.00,0.0143
1481.00,0.0154
1480.00,0.0166
1479.00,0.0178
1478.00,0.0194
1477.00,0.0214
1476.00,0.0240
1475.00,0.0270
1474.00,0.0310
1473.00,0.0366
1472.00,0.0432
1471.00,0.0495
1470.00,0.0555
1469.00,0.0618
1468.00,0.0686
1467.00,0.0760
1466.00,0.0844
1465.00,0.0935
1464.00,0.1014
1463.00,0.1070
1462.00,0.1105
1461.00,0.1131
1460.00,0.1149
1459.00,0.1163
1458.00,0.1177
1457.00,0.1190
1456.00,0.1194
1455.00,0.1191
1454.00,0.1185
1453.00,0.1175
1452.00,0.1156
1451.00,0.1125
1450.00,0.1080
1449.00,0.1013
1448.00,0.0924
1447.00,0.0827
1446.00,0.0737
1445.00,0.0658
1444.00,0.0590
1443.00,0.0533
1442.00,0.0489
1441.00,0.0457
1440.00,0.0437
1439.00,0.0426
1438.00,0.0422
1437.00,0.0419
1436.00,0.0407
1435.00,0.0382
1434.00,0.0348
1433.00,0.0308
1432.00,0.0266
1431.00,0.0229
1430.00,0.0199
1429.00,0.0177
1428.00,0.0162
1427.00,0.0152
1426.00,0.0146
1425.00,0.0140
1424.00,0.0135
1423.00,0.0131
1422.00,0.0129
1421.00,0.0127
1420.00,0.0125
1419.00,0.0122
1418.00,0.0120
1417.00,0.0117
1416.00,0.0114
1415.00,0.0112
1414.00,0.0111
1413.00,0.0109
1412.00,0.0107
1411.00,0.0105
1410.00,0.0105
1409.00,0.0104
1408.00,0.0103
1407.00,0.0103
1406.00,0.0104
1405.00,0.0104
1404.00,0.0103
1403.00,0.0104
1402.00,0.0105
1401.00,0.0106
1400.00,0.0107
1399.00,0.0109
1398.00,0.0111
1397.00,0.0113
1396.00,0.0115
1395.00,0.0118
1394.00,0.0122
1393.00,0.0126
1392.00,0.0130
1391.00,0.0137
1390.00,0.0147
1389.00,0.0162
1388.00,0.0182
1387.00,0.0213
1386.00,0.0255
1385.00,0.0309
1384.00,0.0382
1383.00,0.0486
1382.00,0.0624
1381.00,0.0799
1380.00,0.1014
1379.00,0.1255
1378.00,0.1486
1377.00,0.1653
1376.00,0.1707
1375.00,0.1620
1374.00,0.1417
1373.00,0.1174
1372.00,0.0953
1371.00,0.0770
1370.00,0.0623
1369.00,0.0510
1368.00,0.0432
1367.00,0.0383
1366.00,0.0356
1365.00,0.0346
1364.00,0.0348
1363.00,0.0361
1362.00,0.0380
1361.00,0.0400
1360.00,0.0415
1359.00,0.0419
1358.00,0.0409
1357.00,0.0386
1356.00,0.0352
1355.00,0.0316
1354.00,0.0281
1353.00,0.0251
1352.00,0.0227
1351.00,0.0207
1350.00,0.0190
1349.00,0.0176
1348.00,0.0165
1347.00,0.0155
1346.00,0.0147
1345.00,0.0139
1344.00,0.0133
1343.00,0.0128
1342.00,0.0124
1341.00,0.0121
1340.00,0.0119
1339.00,0.0117
1338.00,0.0115
1337.00,0.0115
1336.00,0.0115
1335.00,0.0117
1334.00,0.0119
1333.00,0.0123
1332.00,0.0127
1331.00,0.0130
1330.00,0.0131
1329.00,0.0131
1328.00,0.0128
1327.00,0.0125
1326.00,0.0121
1325.00,0.0116
1324.00,0.0110
1323.00,0.0105
1322.00,0.0101
1321.00,0.0098
1320.00,0.0096
1319.00,0.0095
1318.00,0.0093
1317.00,0.0092
1316.00,0.0090
1315.00,0.0090
1314.00,0.0090
1313.00,0.0091
1312.00,0.0092
1311.00,0.0095
1310.00,0.0101
1309.00,0.0109
1308.00,0.0121
1307.00,0.0136
1306.00,0.0150
1305.00,0.0159
1304.00,0.0161
1303.00,0.0155
1302.00,0.0147
1301.00,0.0138
1300.00,0.0133
1299.00,0.0130
1298.00,0.0129
1297.00,0.0129
1296.00,0.0127
1295.00,0.0125
1294.00,0.0121
1293.00,0.0117
1292.00,0.0112
1291.00,0.0108
1290.00,0.0104
1289.00,0.0101
1288.00,0.0097
1287.00,0.0094
1286.00,0.0091
1285.00,0.0089
1284.00,0.0088
1283.00,0.0087
1282.00,0.0086
1281.00,0.0085
1280.00,0.0084
1279.00,0.0083
1278.00,0.0082
1277.00,0.0081
1276.00,0.0081
1275.00,0.0081
1274.00,0.0082
1273.00,0.0082
1272.00,0.0083
1271.00,0.0085
1270.00,0.0087
1269.00,0.0089
1268.00,0.0092
1267.00,0.0095
1266.00,0.0098
1265.00,0.0102
1264.00,0.0106
1263.00,0.0110
1262.00,0.0115
1261.00,0.0120
1260.00,0.0126
1259.00,0.0133
1258.00,0.0141
1257.00,0.0148
1256.00,0.0151
1255.00,0.0148
1254.00,0.0139
1253.00,0.0127
1252.00,0.0115
1251.00,0.0105
1250.00,0.0098
1249.00,0.0093
1248.00,0.0089
1247.00,0.0086
1246.00,0.0085
1245.00,0.0084
1244.00,0.0082
1243.00,0.0081
1242.00,0.0080
1241.00,0.0078
1240.00,0.0077
1239.00,0.0076
1238.00,0.0076
1237.00,0.0075
1236.00,0.0075
1235.00,0.0075
1234.00,0.0075
1233.00,0.0076
1232.00,0.0076
1231.00,0.0076
1230.00,0.0077
1229.00,0.0078
1228.00,0.0079
1227.00,0.0081
1226.00,0.0083
1225.00,0.0086
1224.00,0.0089
1223.00,0.0091
1222.00,0.0094
1221.00,0.0097
1220.00,0.0099
1219.00,0.0099
1218.00,0.0099
1217.00,0.0097
1216.00,0.0095
1215.00,0.0092
1214.00,0.0090
1213.00,0.0088
1212.00,0.0087
1211.00,0.0085
1210.00,0.0084
1209.00,0.0082
1208.00,0.0081
1207.00,0.0080
1206.00,0.0080
1205.00,0.0080
1204.00,0.0079
1203.00,0.0079
1202.00,0.0079
1201.00,0.0079
1200.00,0.0079
1199.00,0.0078
1198.00,0.0078
1197.00,0.0078
1196.00,0.0079
1195.00,0.0079
1194.00,0.0080
1193.00,0.0081
1192.00,0.0081
1191.00,0.0082
1190.00,0.0082
1189.00,0.0081
1188.00,0.0081
1187.00,0.0082
1186.00,0.0083
1185.00,0.0084
1184.00,0.0086
1183.00,0.0088
1182.00,0.0090
1181.00,0.0094
1180.00,0.0098
1179.00,0.0103
1178.00,0.0111
1177.00,0.0121
1176.00,0.0134
1175.00,0.0152
1174.00,0.0175
1173.00,0.0205
1172.00,0.0242
1171.00,0.0285
1170.00,0.0327
1169.00,0.0362
1168.00,0.0383
1167.00,0.0386
1166.00,0.0374
1165.00,0.0351
1164.00,0.0324
1163.00,0.0297
1162.00,0.0274
1161.00,0.0256
1160.00,0.0241
1159.00,0.0229
1158.00,0.0220
1157.00,0.0214
1156.00,0.0210
1155.00,0.0206
1154.00,0.0202
1153.00,0.0198
1152.00,0.0192
1151.00,0.0184
1150.00,0.0175
1149.00,0.0165
1148.00,0.0155
1147.00,0.0146
1146.00,0.0138
1145.00,0.0131
1144.00,0.0123
1143.00,0.0117
1142.00,0.0110
1141.00,0.0104
1140.00,0.0098
1139.00,0.0093
1138.00,0.0090
1137.00,0.0087
1136.00,0.0085
1135.00,0.0083
1134.00,0.0082
1133.00,0.0081
1132.00,0.0080
1131.00,0.0079
1130.00,0.0079
1129.00,0.0079
1128.00,0.0080
1127.00,0.0081
1126.00,0.0082
1125.00,0.0082
1124.00,0.0082
1123.00,0.0083
1122.00,0.0084
1121.00,0.0085
1120.00,0.0087
1119.00,0.0088
1118.00,0.0089
1117.00,0.0091
1116.00,0.0092
1115.00,0.0093
1114.00,0.0094
1113.00,0.0095
1112.00,0.0096
1111.00,0.0099
1110.00,0.0102
1109.00,0.0106
1108.00,0.0111
1107.00,0.0117
1106.00,0.0123
1105.00,0.0128
1104.00,0.0132
1103.00,0.0134
1102.00,0.0134
1101.00,0.0131
1100.00,0.0126
1099.00,0.0121
1098.00,0.0116
1097.00,0.0111
1096.00,0.0107
1095.00,0.0103
1094.00,0.0100
1093.00,0.0097
1092.00,0.0095
1091.00,0.0094
1090.00,0.0092
1089.00,0.0091
1088.00,0.0089
1087.00,0.0088
1086.00,0.0088
1085.00,0.0089
1084.00,0.0089
1083.00,0.0089
1082.00,0.0089
1081.00,0.0087
1080.00,0.0086
1079.00,0.0085
1078.00,0.0084
1077.00,0.0084
1076.00,0.0084
1075.00,0.0084
1074.00,0.0084
1073.00,0.0084
1072.00,0.0083
1071.00,0.0082
1070.00,0.0081
1069.00,0.0081
1068.00,0.0081
1067.00,0.0081
1066.00,0.0082
1065.00,0.0084
1064.00,0.0085
1063.00,0.0087
1062.00,0.0088
1061.00,0.0088
1060.00,0.0089
1059.00,0.0090
1058.00,0.0092
1057.00,0.0094
1056.00,0.0096
1055.00,0.0098
1054.00,0.0100
1053.00,0.0102
1052.00,0.0106
1051.00,0.0110
1050.00,0.0115
1049.00,0.0120
1048.00,0.0126
1047.00,0.0133
1046.00,0.0138
1045.00,0.0141
1044.00,0.0142
1043.00,0.0140
1042.00,0.0137
1041.00,0.0133
1040.00,0.0130
1039.00,0.0128
1038.00,0.0128
1037.00,0.0128
1036.00,0.0128
1035.00,0.0127
1034.00,0.0125
1033.00,0.0123
1032.00,0.0121
1031.00,0.0121
1030.00,0.0121
1029.00,0.0122
1028.00,0.0124
1027.00,0.0126
1026.00,0.0128
1025.00,0.0130
1024.00,0.0133
1023.00,0.0135
1022.00,0.0137
1021.00,0.0140
1020.00,0.0143
1019.00,0.0146
1018.00,0.0147
1017.00,0.0147
1016.00,0.0147
1015.00,0.0146
1014.00,0.0146
1013.00,0.0145
1012.00,0.0145
1011.00,0.0146
1010.00,0.0147
1009.00,0.0148
1008.00,0.0152
1007.00,0.0158
1006.00,0.0167
1005.00,0.0181
1004.00,0.0201
1003.00,0.0229
1002.00,0.0267
1001.00,0.0316
1000.00,0.0370
999.00,0.0417
998.00,0.0443
997.00,0.0438
996.00,0.0404
995.00,0.0352
994.00,0.0297
993.00,0.0248
992.00,0.0211
991.00,0.0184
990.00,0.0165
989.00,0.0151
988.00,0.0142
987.00,0.0136
986.00,0.0134
985.00,0.0134
984.00,0.0137
983.00,0.0144
982.00,0.0154
981.00,0.0170
980.00,0.0193
979.00,0.0224
978.00,0.0265
977.00,0.0315
976.00,0.0370
975.00,0.0426
974.00,0.0471
973.00,0.0492
972.00,0.0480
971.00,0.0437
970.00,0.0373
969.00,0.0306
968.00,0.0248
967.00,0.0204
966.00,0.0173
965.00,0.0150
964.00,0.0135
963.00,0.0123
962.00,0.0115
961.00,0.0108
960.00,0.0101
959.00,0.0096
958.00,0.0092
957.00,0.0089
956.00,0.0086
955.00,0.0083
954.00,0.0081
953.00,0.0079
952.00,0.0079
951.00,0.0078
950.00,0.0078
949.00,0.0077
948.00,0.0076
947.00,0.0077
946.00,0.0078
945.00,0.0080
944.00,0.0082
943.00,0.0085
942.00,0.0088
941.00,0.0091
940.00,0.0091
939.00,0.0090
938.00,0.0086
937.00,0.0081
936.00,0.0075
935.00,0.0070
934.00,0.0067
933.00,0.0066
932.00,0.0065
931.00,0.0065
930.00,0.0064
929.00,0.0064
928.00,0.0063
927.00,0.0063
926.00,0.0062
925.00,0.0062
924.00,0.0061
923.00,0.0061
922.00,0.0062
921.00,0.0063
920.00,0.0064
919.00,0.0064
918.00,0.0064
917.00,0.0064
916.00,0.0064
915.00,0.0065
914.00,0.0066
913.00,0.0066
912.00,0.0066
911.00,0.0067
910.00,0.0069
909.00,0.0071
908.00,0.0074
907.00,0.0079
906.00,0.0085
905.00,0.0095
904.00,0.0107
903.00,0.0123
902.00,0.0140
901.00,0.0156
900.00,0.0167
899.00,0.0168
898.00,0.0160
897.00,0.0145
896.00,0.0128
895.00,0.0113
894.00,0.0101
893.00,0.0092
892.00,0.0085
891.00,0.0081
890.00,0.0078
889.00,0.0077
888.00,0.0077
887.00,0.0076
886.00,0.0075
885.00,0.0072
884.00,0.0070
883.00,0.0069
882.00,0.0069
881.00,0.0070
880.00,0.0072
879.00,0.0073
878.00,0.0074
877.00,0.0073
876.00,0.0073
875.00,0.0073
874.00,0.0074
873.00,0.0075
872.00,0.0076
871.00,0.0077
870.00,0.0079
869.00,0.0079
868.00,0.0078
867.00,0.0078
866.00,0.0078
865.00,0.0079
864.00,0.0079
863.00,0.0080
862.00,0.0081
861.00,0.0082
860.00,0.0084
859.00,0.0086
858.00,0.0088
857.00,0.0090
856.00,0.0091
855.00,0.0093
854.00,0.0096
853.00,0.0100
852.00,0.0103
851.00,0.0107
850.00,0.0113
849.00,0.0121
848.00,0.0132
847.00,0.0148
846.00,0.0174
845.00,0.0214
844.00,0.0272
843.00,0.0344
842.00,0.0410
841.00,0.0440
840.00,0.0419
839.00,0.0357
838.00,0.0283
837.00,0.0221
836.00,0.0180
835.00,0.0155
834.00,0.0140
833.00,0.0131
832.00,0.0124
831.00,0.0119
830.00,0.0115
829.00,0.0112
828.00,0.0110
827.00,0.0109
826.00,0.0108
825.00,0.0106
824.00,0.0106
823.00,0.0106
822.00,0.0107
821.00,0.0109
820.00,0.0112
819.00,0.0115
818.00,0.0118
817.00,0.0123
816.00,0.0131
815.00,0.0140
814.00,0.0153
813.00,0.0167
812.00,0.0184
811.00,0.0201
810.00,0.0213
809.00,0.0218
808.00,0.0215
807.00,0.0205
806.00,0.0189
805.00,0.0172
804.00,0.0156
803.00,0.0143
802.00,0.0134
801.00,0.0128
800.00,0.0124
799.00,0.0120
798.00,0.0116
797.00,0.0112
796.00,0.0108
795.00,0.0104
794.00,0.0099
793.00,0.0096
792.00,0.0093
791.00,0.0090
790.00,0.0087
789.00,0.0083
788.00,0.0078
787.00,0.0074
786.00,0.0071
785.00,0.0069
784.00,0.0067
783.00,0.0067
782.00,0.0066
781.00,0.0065
780.00,0.0063
779.00,0.0062
778.00,0.0062
777.00,0.0062
776.00,0.0063
775.00,0.0064
774.00,0.0065
773.00,0.0066
772.00,0.0066
771.00,0.0066
770.00,0.0067
769.00,0.0067
768.00,0.0066
767.00,0.0066
766.00,0.0066
765.00,0.0066
764.00,0.0065
763.00,0.0065
762.00,0.0066
761.00,0.0067
760.00,0.0068
759.00,0.0069
758.00,0.0070
757.00,0.0071
756.00,0.0071
755.00,0.0072
754.00,0.0073
753.00,0.0074
752.00,0.0075
751.00,0.0075
750.00,0.0075
749.00,0.0075
748.00,0.0076
747.00,0.0079
746.00,0.0081
745.00,0.0083
744.00,0.0084
743.00,0.0086
742.00,0.0089
741.00,0.0093
740.00,0.0097
739.00,0.0101
738.00,0.0106
737.00,0.0110
736.00,0.0113
735.00,0.0115
734.00,0.0119
733.00,0.0125
732.00,0.0134
731.00,0.0143
730.00,0.0148
729.00,0.0151
728.00,0.0151
727.00,0.0151
726.00,0.0152
725.00,0.0155
724.00,0.0159
723.00,0.0165
722.00,0.0171
721.00,0.0174
720.00,0.0173
719.00,0.0166
718.00,0.0155
717.00,0.0143
716.00,0.0132
715.00,0.0123
714.00,0.0117
713.00,0.0114
712.00,0.0112
711.00,0.0108
710.00,0.0105
709.00,0.0102
708.00,0.0101
707.00,0.0099
706.00,0.0099
705.00,0.0100
704.00,0.0102
703.00,0.0103
702.00,0.0103
701.00,0.0101
700.00,0.0098
699.00,0.0095
698.00,0.0093
697.00,0.0092
696.00,0.0091
695.00,0.0089
694.00,0.0088
693.00,0.0089
692.00,0.0089
691.00,0.0091
690.00,0.0092
689.00,0.0092
688.00,0.0092
687.00,0.0091
686.00,0.0090
685.00,0.0090
684.00,0.0091
683.00,0.0093
682.00,0.0094
681.00,0.0093
680.00,0.0091
679.00,0.0091
678.00,0.0093
677.00,0.0096
676.00,0.0099
675.00,0.0102
674.00,0.0103
673.00,0.0102
672.00,0.0102
671.00,0.0102
670.00,0.0104
669.00,0.0106
668.00,0.0107
667.00,0.0105
666.00,0.0100
665.00,0.0097
664.00,0.0096
663.00,0.0096
662.00,0.0096
661.00,0.0093
660.00,0.0090
659.00,0.0087
658.00,0.0084
657.00,0.0082
656.00,0.0081
655.00,0.0082
654.00,0.0085
653.00,0.0087
652.00,0.0088
651.00,0.0088
650.00,0.0085
649.00,0.0083
648.00,0.0081
647.00,0.0081
646.00,0.0083
645.00,0.0084
644.00,0.0084
643.00,0.0083
642.00,0.0082
641.00,0.0083
640.00,0.0084
639.00,0.0085
638.00,0.0086
637.00,0.0085
636.00,0.0084
635.00,0.0084
634.00,0.0083
633.00,0.0084
632.00,0.0085
631.00,0.0086
630.00,0.0087
629.00,0.0087
628.00,0.0086
627.00,0.0085
626.00,0.0086
625.00,0.0087
624.00,0.0089
623.00,0.0089
622.00,0.0088
621.00,0.0085
620.00,0.0082
619.00,0.0081
618.00,0.0082
617.00,0.0083
616.00,0.0083
615.00,0.0083
614.00,0.0085
613.00,0.0088
612.00,0.0090
611.00,0.0091
610.00,0.0092
609.00,0.0094
608.00,0.0095
607.00,0.0096
606.00,0.0094
605.00,0.0092
604.00,0.0088
603.00,0.0084
602.00,0.0082
601.00,0.0083
600.00,0.0084
599.00,0.0085
598.00,0.0085
597.00,0.0084
596.00,0.0081
595.00,0.0077
594.00,0.0075
593.00,0.0076
592.00,0.0080
591.00,0.0084
590.00,0.0085
589.00,0.0085
588.00,0.0085
587.00,0.0087
586.00,0.0089
585.00,0.0091
584.00,0.0093
583.00,0.0094
582.00,0.0093
581.00,0.0091
580.00,0.0086
579.00,0.0083
578.00,0.0081
577.00,0.0082
576.00,0.0086
575.00,0.0090
574.00,0.0093
573.00,0.0093
572.00,0.0091
571.00,0.0089
570.00,0.0088
569.00,0.0089
568.00,0.0089
567.00,0.0089
566.00,0.0088
565.00,0.0087
564.00,0.0087
563.00,0.0087
562.00,0.0088
561.00,0.0090
560.00,0.0093
559.00,0.0096
558.00,0.0096
557.00,0.0094
556.00,0.0093
555.00,0.0092
554.00,0.0094
553.00,0.0094
552.00,0.0092
551.00,0.0089
550.00,0.0086
549.00,0.0086
548.00,0.0086
547.00,0.0085
546.00,0.0083
545.00,0.0083
544.00,0.0085
543.00,0.0088
542.00,0.0091
541.00,0.0094
540.00,0.0096
539.00,0.0099
538.00,0.0103
537.00,0.0108
536.00,0.0113
535.00,0.0116
534.00,0.0117
533.00,0.0117
532.00,0.0117
531.00,0.0115
530.00,0.0114
529.00,0.0112
528.00,0.0111
527.00,0.0110
526.00,0.0108
525.00,0.0106
524.00,0.0103
523.00,0.0102
522.00,0.0100
521.00,0.0098
520.00,0.0094
519.00,0.0090
518.00,0.0087
517.00,0.0086
516.00,0.0088
515.00,0.0088
514.00,0.0086
513.00,0.0081
512.00,0.0077
511.00,0.0075
510.00,0.0075
509.00,0.0074
508.00,0.0072
507.00,0.0072
506.00,0.0076
505.00,0.0083
504.00,0.0086
503.00,0.0085
502.00,0.0084
501.00,0.0087
500.00,0.0092
499.00,0.0096
498.00,0.0094
497.00,0.0088
496.00,0.0082
495.00,0.0078
494.00,0.0078
493.00,0.0079
492.00,0.0081
491.00,0.0083
490.00,0.0083
489.00,0.0084
488.00,0.0086
487.00,0.0086
486.00,0.0082
485.00,0.0078
484.00,0.0078
483.00,0.0085
482.00,0.0095
481.00,0.0104
480.00,0.0110
479.00,0.0112
478.00,0.0112
477.00,0.0113
476.00,0.0114
475.00,0.0114
474.00,0.0112
473.00,0.0109
472.00,0.0110
471.00,0.0113
470.00,0.0118
469.00,0.0127
468.00,0.0142
467.00,0.0160
466.00,0.0172
465.00,0.0175
464.00,0.0175
463.00,0.0177
462.00,0.0184
461.00,0.0197
460.00,0.0213
459.00,0.0227
458.00,0.0234
457.00,0.0229
456.00,0.0218
455.00,0.0207
454.00,0.0197
453.00,0.0187
452.00,0.0178
451.00,0.0170
450.00,0.0165
