Created as New Dataset,Sample 001 By Administrator Date Wednesday, September 03 2025
cm-1,A
4000.00,0.0019
3999.00,0.0019
3998.00,0.0019
3997.00,0.0019
3996.00,0.0019
3995.00,0.0019
3994.00,0.0019
3993.00,0.0019
3992.00,0.0019
3991.00,0.0019
3990.00,0.0019
3989.00,0.0019
3988.00,0.0019
3987.00,0.0019
3986.00,0.0019
3985.00,0.0018
3984.00,0.0018
3983.00,0.0018
3982.00,0.0018
3981.00,0.0018
3980.00,0.0018
3979.00,0.0018
3978.00,0.0018
3977.00,0.0018
3976.00,0.0018
3975.00,0.0018
3974.00,0.0018
3973.00,0.0018
3972.00,0.0018
3971.00,0.0018
3970.00,0.0018
3969.00,0.0018
3968.00,0.0018
3967.00,0.0018
3966.00,0.0018
3965.00,0.0018
3964.00,0.0018
3963.00,0.0018
3962.00,0.0018
3961.00,0.0018
3960.00,0.0018
3959.00,0.0018
3958.00,0.0018
3957.00,0.0018
3956.00,0.0017
3955.00,0.0017
3954.00,0.0017
3953.00,0.0018
3952.00,0.0018
3951.00,0.0018
3950.00,0.0019
3949.00,0.0019
3948.00,0.0019
3947.00,0.0018
3946.00,0.0018
3945.00,0.0018
3944.00,0.0017
3943.00,0.0017
3942.00,0.0017
3941.00,0.0017
3940.00,0.0017
3939.00,0.0017
3938.00,0.0018
3937.00,0.0018
3936.00,0.0018
3935.00,0.0018
3934.00,0.0018
3933.00,0.0017
3932.00,0.0017
3931.00,0.0017
3930.00,0.0017
3929.00,0.0018
3928.00,0.0018
3927.00,0.0019
3926.00,0.0019
3925.00,0.0019
3924.00,0.0019
3923.00,0.0019
3922.00,0.0019
3921.00,0.0019
3920.00,0.0018
3919.00,0.0018
3918.00,0.0018
3917.00,0.0018
3916.00,0.0018
3915.00,0.0018
3914.00,0.0017
3913.00,0.0017
3912.00,0.0017
3911.00,0.0017
3910.00,0.0017
3909.00,0.0017
3908.00,0.0017
3907.00,0.0017
3906.00,0.0017
3905.00,0.0018
3904.00,0.0018
3903.00,0.0018
3902.00,0.0018
3901.00,0.0018
3900.00,0.0017
3899.00,0.0017
3898.00,0.0017
3897.00,0.0017
3896.00,0.0017
3895.00,0.0017
3894.00,0.0017
3893.00,0.0017
3892.00,0.0017
3891.00,0.0017
3890.00,0.0017
3889.00,0.0017
3888.00,0.0017
3887.00,0.0017
3886.00,0.0017
3885.00,0.0017
3884.00,0.0017
3883.00,0.0017
3882.00,0.0016
3881.00,0.0016
3880.00,0.0016
3879.00,0.0017
3878.00,0.0017
3877.00,0.0017
3876.00,0.0017
3875.00,0.0018
3874.00,0.0018
3873.00,0.0017
3872.00,0.0017
3871.00,0.0017
3870.00,0.0016
3869.00,0.0016
3868.00,0.0016
3867.00,0.0016
3866.00,0.0016
3865.00,0.0016
3864.00,0.0016
3863.00,0.0016
3862.00,0.0016
3861.00,0.0016
3860.00,0.0016
3859.00,0.0016
3858.00,0.0016
3857.00,0.0016
3856.00,0.0016
3855.00,0.0016
3854.00,0.0016
3853.00,0.0015
3852.00,0.0016
3851.00,0.0016
3850.00,0.0016
3849.00,0.0015
3848.00,0.0016
3847.00,0.0016
3846.00,0.0016
3845.00,0.0016
3844.00,0.0016
3843.00,0.0016
3842.00,0.0016
3841.00,0.0017
3840.00,0.0017
3839.00,0.0017
3838.00,0.0016
3837.00,0.0016
3836.00,0.0016
3835.00,0.0016
3834.00,0.0016
3833.00,0.0016
3832.00,0.0017
3831.00,0.0017
3830.00,0.0016
3829.00,0.0016
3828.00,0.0015
3827.00,0.0015
3826.00,0.0015
3825.00,0.0016
3824.00,0.0016
3823.00,0.0016
3822.00,0.0016
3821.00,0.0017
3820.00,0.0017
3819.00,0.0018
3818.00,0.0018
3817.00,0.0018
3816.00,0.0018
3815.00,0.0017
3814.00,0.0017
3813.00,0.0016
3812.00,0.0016
3811.00,0.0016
3810.00,0.0016
3809.00,0.0016
3808.00,0.0016
3807.00,0.0016
3806.00,0.0016
3805.00,0.0017
3804.00,0.0016
3803.00,0.0016
3802.00,0.0016
3801.00,0.0016
3800.00,0.0017
3799.00,0.0017
3798.00,0.0017
3797.00,0.0016
3796.00,0.0017
3795.00,0.0017
3794.00,0.0017
3793.00,0.0017
3792.00,0.0017
3791.00,0.0017
3790.00,0.0017
3789.00,0.0017
3788.00,0.0017
3787.00,0.0017
3786.00,0.0016
3785.00,0.0016
3784.00,0.0016
3783.00,0.0016
3782.00,0.0016
3781.00,0.0016
3780.00,0.0016
3779.00,0.0017
3778.00,0.0017
3777.00,0.0018
3776.00,0.0018
3775.00,0.0018
3774.00,0.0018
3773.00,0.0018
3772.00,0.0017
3771.00,0.0017
3770.00,0.0017
3769.00,0.0017
3768.00,0.0017
3767.00,0.0017
3766.00,0.0017
3765.00,0.0018
3764.00,0.0018
3763.00,0.0018
3762.00,0.0018
3761.00,0.0018
3760.00,0.0017
3759.00,0.0017
3758.00,0.0017
3757.00,0.0017
3756.00,0.0017
3755.00,0.0018
3754.00,0.0017
3753.00,0.0017
3752.00,0.0016
3751.00,0.0016
3750.00,0.0015
3749.00,0.0015
3748.00,0.0015
3747.00,0.0015
3746.00,0.0015
3745.00,0.0014
3744.00,0.0014
3743.00,0.0015
3742.00,0.0015
3741.00,0.0015
3740.00,0.0015
3739.00,0.0015
3738.00,0.0015
3737.00,0.0015
3736.00,0.0015
3735.00,0.0015
3734.00,0.0015
3733.00,0.0015
3732.00,0.0015
3731.00,0.0015
3730.00,0.0015
3729.00,0.0015
3728.00,0.0014
3727.00,0.0015
3726.00,0.0015
3725.00,0.0015
3724.00,0.0015
3723.00,0.0015
3722.00,0.0015
3721.00,0.0015
3720.00,0.0015
3719.00,0.0015
3718.00,0.0015
3717.00,0.0015
3716.00,0.0015
3715.00,0.0015
3714.00,0.0015
3713.00,0.0014
3712.00,0.0014
3711.00,0.0015
3710.00,0.0015
3709.00,0.0016
3708.00,0.0017
3707.00,0.0016
3706.00,0.0016
3705.00,0.0016
3704.00,0.0015
3703.00,0.0015
3702.00,0.0016
3701.00,0.0016
3700.00,0.0016
3699.00,0.0016
3698.00,0.0016
3697.00,0.0016
3696.00,0.0016
3695.00,0.0016
3694.00,0.0015
3693.00,0.0015
3692.00,0.0014
3691.00,0.0013
3690.00,0.0013
3689.00,0.0014
3688.00,0.0015
3687.00,0.0015
3686.00,0.0015
3685.00,0.0015
3684.00,0.0015
3683.00,0.0014
3682.00,0.0014
3681.00,0.0014
3680.00,0.0014
3679.00,0.0014
3678.00,0.0014
3677.00,0.0014
3676.00,0.0013
3675.00,0.0012
3674.00,0.0012
3673.00,0.0011
3672.00,0.0010
3671.00,0.0010
3670.00,0.0009
3669.00,0.0009
3668.00,0.0009
3667.00,0.0009
3666.00,0.0010
3665.00,0.0010
3664.00,0.0010
3663.00,0.0010
3662.00,0.0009
3661.00,0.0009
3660.00,0.0009
3659.00,0.0010
3658.00,0.0010
3657.00,0.0010
3656.00,0.0010
3655.00,0.0010
3654.00,0.0010
3653.00,0.0010
3652.00,0.0011
3651.00,0.0010
3650.00,0.0010
3649.00,0.0011
3648.00,0.0012
3647.00,0.0013
3646.00,0.0013
3645.00,0.0014
3644.00,0.0014
3643.00,0.0014
3642.00,0.0014
3641.00,0.0015
3640.00,0.0015
3639.00,0.0015
3638.00,0.0015
3637.00,0.0015
3636.00,0.0016
3635.00,0.0017
3634.00,0.0018
3633.00,0.0019
3632.00,0.0020
3631.00,0.0021
3630.00,0.0021
3629.00,0.0022
3628.00,0.0023
3627.00,0.0023
3626.00,0.0023
3625.00,0.0023
3624.00,0.0023
3623.00,0.0024
3622.00,0.0024
3621.00,0.0025
3620.00,0.0025
3619.00,0.0026
3618.00,0.0026
3617.00,0.0026
3616.00,0.0026
3615.00,0.0027
3614.00,0.0027
3613.00,0.0027
3612.00,0.0027
3611.00,0.0027
3610.00,0.0027
3609.00,0.0027
3608.00,0.0028
3607.00,0.0028
3606.00,0.0029
3605.00,0.0030
3604.00,0.0030
3603.00,0.0031
3602.00,0.0031
3601.00,0.0031
3600.00,0.0032
3599.00,0.0032
3598.00,0.0033
3597.00,0.0033
3596.00,0.0033
3595.00,0.0034
3594.00,0.0034
3593.00,0.0035
3592.00,0.0035
3591.00,0.0036
3590.00,0.0036
3589.00,0.0036
3588.00,0.0036
3587.00,0.0037
3586.00,0.0037
3585.00,0.0037
3584.00,0.0038
3583.00,0.0038
3582.00,0.0038
3581.00,0.0039
3580.00,0.0039
3579.00,0.0040
3578.00,0.0040
3577.00,0.0040
3576.00,0.0040
3575.00,0.0041
3574.00,0.0042
3573.00,0.0042
3572.00,0.0043
3571.00,0.0044
3570.00,0.0044
3569.00,0.0045
3568.00,0.0045
3567.00,0.0044
3566.00,0.0044
3565.00,0.0044
3564.00,0.0045
3563.00,0.0045
3562.00,0.0046
3561.00,0.0047
3560.00,0.0048
3559.00,0.0048
3558.00,0.0048
3557.00,0.0048
3556.00,0.0049
3555.00,0.0049
3554.00,0.0050
3553.00,0.0050
3552.00,0.0051
3551.00,0.0051
3550.00,0.0052
3549.00,0.0052
3548.00,0.0052
3547.00,0.0053
3546.00,0.0053
3545.00,0.0053
3544.00,0.0053
3543.00,0.0054
3542.00,0.0054
3541.00,0.0055
3540.00,0.0056
3539.00,0.0056
3538.00,0.0057
3537.00,0.0058
3536.00,0.0058
3535.00,0.0058
3534.00,0.0058
3533.00,0.0059
3532.00,0.0059
3531.00,0.0059
3530.00,0.0060
3529.00,0.0060
3528.00,0.0060
3527.00,0.0061
3526.00,0.0061
3525.00,0.0062
3524.00,0.0063
3523.00,0.0063
3522.00,0.0063
3521.00,0.0064
3520.00,0.0064
3519.00,0.0065
3518.00,0.0066
3517.00,0.0066
3516.00,0.0067
3515.00,0.0067
3514.00,0.0067
3513.00,0.0067
3512.00,0.0067
3511.00,0.0068
3510.00,0.0068
3509.00,0.0069
3508.00,0.0069
3507.00,0.0070
3506.00,0.0070
3505.00,0.0070
3504.00,0.0070
3503.00,0.0071
3502.00,0.0071
3501.00,0.0071
3500.00,0.0071
3499.00,0.0072
3498.00,0.0072
3497.00,0.0073
3496.00,0.0074
3495.00,0.0074
3494.00,0.0075
3493.00,0.0075
3492.00,0.0075
3491.00,0.0076
3490.00,0.0076
3489.00,0.0077
3488.00,0.0077
3487.00,0.0078
3486.00,0.0079
3485.00,0.0079
3484.00,0.0080
3483.00,0.0080
3482.00,0.0080
3481.00,0.0080
3480.00,0.0080
3479.00,0.0081
3478.00,0.0081
3477.00,0.0081
3476.00,0.0082
3475.00,0.0082
3474.00,0.0083
3473.00,0.0083
3472.00,0.0084
3471.00,0.0084
3470.00,0.0085
3469.00,0.0085
3468.00,0.0085
3467.00,0.0086
3466.00,0.0086
3465.00,0.0087
3464.00,0.0088
3463.00,0.0088
3462.00,0.0089
3461.00,0.0089
3460.00,0.0089
3459.00,0.0089
3458.00,0.0089
3457.00,0.0089
3456.00,0.0089
3455.00,0.0089
3454.00,0.0089
3453.00,0.0090
3452.00,0.0090
3451.00,0.0091
3450.00,0.0091
3449.00,0.0092
3448.00,0.0092
3447.00,0.0093
3446.00,0.0093
3445.00,0.0094
3444.00,0.0094
3443.00,0.0095
3442.00,0.0095
3441.00,0.0096
3440.00,0.0096
3439.00,0.0097
3438.00,0.0097
3437.00,0.0098
3436.00,0.0099
3435.00,0.0099
3434.00,0.0099
3433.00,0.0099
3432.00,0.0099
3431.00,0.0099
3430.00,0.0099
3429.00,0.0100
3428.00,0.0100
3427.00,0.0101
3426.00,0.0101
3425.00,0.0102
3424.00,0.0102
3423.00,0.0102
3422.00,0.0102
3421.00,0.0103
3420.00,0.0103
3419.00,0.0104
3418.00,0.0104
3417.00,0.0105
3416.00,0.0105
3415.00,0.0105
3414.00,0.0106
3413.00,0.0106
3412.00,0.0107
3411.00,0.0107
3410.00,0.0108
3409.00,0.0108
3408.00,0.0108
3407.00,0.0108
3406.00,0.0108
3405.00,0.0108
3404.00,0.0108
3403.00,0.0108
3402.00,0.0109
3401.00,0.0109
3400.00,0.0109
3399.00,0.0110
3398.00,0.0110
3397.00,0.0110
3396.00,0.0111
3395.00,0.0111
3394.00,0.0112
3393.00,0.0112
3392.00,0.0112
3391.00,0.0112
3390.00,0.0112
3389.00,0.0112
3388.00,0.0112
3387.00,0.0112
3386.00,0.0112
3385.00,0.0113
3384.00,0.0113
3383.00,0.0113
3382.00,0.0113
3381.00,0.0114
3380.00,0.0114
3379.00,0.0114
3378.00,0.0114
3377.00,0.0114
3376.00,0.0114
3375.00,0.0114
3374.00,0.0114
3373.00,0.0114
3372.00,0.0114
3371.00,0.0115
3370.00,0.0115
3369.00,0.0115
3368.00,0.0116
3367.00,0.0116
3366.00,0.0116
3365.00,0.0116
3364.00,0.0115
3363.00,0.0115
3362.00,0.0115
3361.00,0.0116
3360.00,0.0116
3359.00,0.0117
3358.00,0.0117
3357.00,0.0118
3356.00,0.0118
3355.00,0.0118
3354.00,0.0118
3353.00,0.0118
3352.00,0.0118
3351.00,0.0119
3350.00,0.0119
3349.00,0.0118
3348.00,0.0118
3347.00,0.0118
3346.00,0.0119
3345.00,0.0119
3344.00,0.0119
3343.00,0.0119
3342.00,0.0119
3341.00,0.0118
3340.00,0.0118
3339.00,0.0118
3338.00,0.0118
3337.00,0.0118
3336.00,0.0118
3335.00,0.0118
3334.00,0.0118
3333.00,0.0118
3332.00,0.0118
3331.00,0.0118
3330.00,0.0118
3329.00,0.0119
3328.00,0.0119
3327.00,0.0118
3326.00,0.0118
3325.00,0.0118
3324.00,0.0119
3323.00,0.0119
3322.00,0.0119
3321.00,0.0119
3320.00,0.0119
3319.00,0.0118
3318.00,0.0118
3317.00,0.0118
3316.00,0.0118
3315.00,0.0118
3314.00,0.0118
3313.00,0.0118
3312.00,0.0118
3311.00,0.0118
3310.00,0.0118
3309.00,0.0118
3308.00,0.0119
3307.00,0.0119
3306.00,0.0119
3305.00,0.0119
3304.00,0.0119
3303.00,0.0119
3302.00,0.0118
3301.00,0.0118
3300.00,0.0118
3299.00,0.0118
3298.00,0.0118
3297.00,0.0117
3296.00,0.0117
3295.00,0.0117
3294.00,0.0116
3293.00,0.0116
3292.00,0.0116
3291.00,0.0115
3290.00,0.0115
3289.00,0.0115
3288.00,0.0114
3287.00,0.0114
3286.00,0.0114
3285.00,0.0114
3284.00,0.0113
3283.00,0.0112
3282.00,0.0112
3281.00,0.0111
3280.00,0.0111
3279.00,0.0110
3278.00,0.0110
3277.00,0.0110
3276.00,0.0109
3275.00,0.0109
3274.00,0.0109
3273.00,0.0109
3272.00,0.0109
3271.00,0.0108
3270.00,0.0108
3269.00,0.0108
3268.00,0.0107
3267.00,0.0107
3266.00,0.0107
3265.00,0.0107
3264.00,0.0106
3263.00,0.0105
3262.00,0.0104
3261.00,0.0103
3260.00,0.0103
3259.00,0.0103
3258.00,0.0103
3257.00,0.0102
3256.00,0.0102
3255.00,0.0102
3254.00,0.0101
3253.00,0.0101
3252.00,0.0101
3251.00,0.0100
3250.00,0.0100
3249.00,0.0100
3248.00,0.0099
3247.00,0.0099
3246.00,0.0099
3245.00,0.0099
3244.00,0.0098
3243.00,0.0098
3242.00,0.0098
3241.00,0.0098
3240.00,0.0097
3239.00,0.0097
3238.00,0.0097
3237.00,0.0097
3236.00,0.0097
3235.00,0.0096
3234.00,0.0096
3233.00,0.0096
3232.00,0.0095
3231.00,0.0095
3230.00,0.0095
3229.00,0.0095
3228.00,0.0096
3227.00,0.0096
3226.00,0.0096
3225.00,0.0095
3224.00,0.0095
3223.00,0.0095
3222.00,0.0095
3221.00,0.0096
3220.00,0.0096
3219.00,0.0096
3218.00,0.0096
3217.00,0.0095
3216.00,0.0095
3215.00,0.0095
3214.00,0.0095
3213.00,0.0095
3212.00,0.0095
3211.00,0.0095
3210.00,0.0095
3209.00,0.0095
3208.00,0.0095
3207.00,0.0094
3206.00,0.0094
3205.00,0.0094
3204.00,0.0094
3203.00,0.0094
3202.00,0.0093
3201.00,0.0093
3200.00,0.0094
3199.00,0.0094
3198.00,0.0094
3197.00,0.0094
3196.00,0.0093
3195.00,0.0092
3194.00,0.0092
3193.00,0.0092
3192.00,0.0092
3191.00,0.0092
3190.00,0.0091
3189.00,0.0091
3188.00,0.0091
3187.00,0.0091
3186.00,0.0091
3185.00,0.0091
3184.00,0.0091
3183.00,0.0091
3182.00,0.0091
3181.00,0.0090
3180.00,0.0089
3179.00,0.0089
3178.00,0.0088
3177.00,0.0088
3176.00,0.0087
3175.00,0.0087
3174.00,0.0087
3173.00,0.0086
3172.00,0.0086
3171.00,0.0086
3170.00,0.0086
3169.00,0.0086
3168.00,0.0087
3167.00,0.0087
3166.00,0.0086
3165.00,0.0086
3164.00,0.0085
3163.00,0.0085
3162.00,0.0085
3161.00,0.0084
3160.00,0.0084
3159.00,0.0084
3158.00,0.0084
3157.00,0.0083
3156.00,0.0083
3155.00,0.0082
3154.00,0.0082
3153.00,0.0081
3152.00,0.0081
3151.00,0.0081
3150.00,0.0081
3149.00,0.0081
3148.00,0.0081
3147.00,0.0081
3146.00,0.0081
3145.00,0.0080
3144.00,0.0079
3143.00,0.0078
3142.00,0.0078
3141.00,0.0078
3140.00,0.0078
3139.00,0.0078
3138.00,0.0078
3137.00,0.0078
3136.00,0.0078
3135.00,0.0078
3134.00,0.0078
3133.00,0.0077
3132.00,0.0076
3131.00,0.0076
3130.00,0.0075
3129.00,0.0075
3128.00,0.0075
3127.00,0.0074
3126.00,0.0073
3125.00,0.0073
3124.00,0.0073
3123.00,0.0073
3122.00,0.0073
3121.00,0.0073
3120.00,0.0073
3119.00,0.0072
3118.00,0.0072
3117.00,0.0071
3116.00,0.0070
3115.00,0.0070
3114.00,0.0070
3113.00,0.0069
3112.00,0.0069
3111.00,0.0069
3110.00,0.0068
3109.00,0.0068
3108.00,0.0068
3107.00,0.0068
3106.00,0.0068
3105.00,0.0068
3104.00,0.0068
3103.00,0.0067
3102.00,0.0067
3101.00,0.0066
3100.00,0.0066
3099.00,0.0066
3098.00,0.0067
3097.00,0.0067
3096.00,0.0066
3095.00,0.0066
3094.00,0.0065
3093.00,0.0065
3092.00,0.0064
3091.00,0.0064
3090.00,0.0064
3089.00,0.0065
3088.00,0.0065
3087.00,0.0065
3086.00,0.0065
3085.00,0.0065
3084.00,0.0065
3083.00,0.0065
3082.00,0.0064
3081.00,0.0064
3080.00,0.0064
3079.00,0.0064
3078.00,0.0063
3077.00,0.0063
3076.00,0.0063
3075.00,0.0063
3074.00,0.0063
3073.00,0.0063
3072.00,0.0064
3071.00,0.0064
3070.00,0.0064
3069.00,0.0064
3068.00,0.0064
3067.00,0.0064
3066.00,0.0064
3065.00,0.0065
3064.00,0.0065
3063.00,0.0065
3062.00,0.0065
3061.00,0.0065
3060.00,0.0065
3059.00,0.0065
3058.00,0.0065
3057.00,0.0065
3056.00,0.0065
3055.00,0.0065
3054.00,0.0065
3053.00,0.0065
3052.00,0.0065
3051.00,0.0065
3050.00,0.0066
3049.00,0.0066
3048.00,0.0066
3047.00,0.0066
3046.00,0.0066
3045.00,0.0066
3044.00,0.0066
3043.00,0.0066
3042.00,0.0066
3041.00,0.0067
3040.00,0.0067
3039.00,0.0068
3038.00,0.0068
3037.00,0.0069
3036.00,0.0069
3035.00,0.0069
3034.00,0.0069
3033.00,0.0069
3032.00,0.0070
3031.00,0.0070
3030.00,0.0070
3029.00,0.0070
3028.00,0.0071
3027.00,0.0071
3026.00,0.0071
3025.00,0.0071
3024.00,0.0071
3023.00,0.0071
3022.00,0.0071
3021.00,0.0071
3020.00,0.0071
3019.00,0.0071
3018.00,0.0071
3017.00,0.0071
3016.00,0.0072
3015.00,0.0072
3014.00,0.0071
3013.00,0.0071
3012.00,0.0070
3011.00,0.0070
3010.00,0.0069
3009.00,0.0068
3008.00,0.0067
3007.00,0.0066
3006.00,0.0065
3005.00,0.0064
3004.00,0.0063
3003.00,0.0062
3002.00,0.0062
3001.00,0.0061
3000.00,0.0061
2999.00,0.0061
2998.00,0.0062
2997.00,0.0062
2996.00,0.0064
2995.00,0.0066
2994.00,0.0069
2993.00,0.0072
2992.00,0.0076
2991.00,0.0079
2990.00,0.0084
2989.00,0.0089
2988.00,0.0094
2987.00,0.0100
2986.00,0.0104
2985.00,0.0107
2984.00,0.0110
2983.00,0.0114
2982.00,0.0123
2981.00,0.0138
2980.00,0.0158
2979.00,0.0182
2978.00,0.0209
2977.00,0.0238
2976.00,0.0269
2975.00,0.0302
2974.00,0.0339
2973.00,0.0379
2972.00,0.0426
2971.00,0.0480
2970.00,0.0541
2969.00,0.0607
2968.00,0.0678
2967.00,0.0752
2966.00,0.0829
2965.00,0.0905
2964.00,0.0979
2963.00,0.1047
2962.00,0.1106
2961.00,0.1157
2960.00,0.1198
2959.00,0.1235
2958.00,0.1271
2957.00,0.1311
2956.00,0.1358
2955.00,0.1414
2954.00,0.1477
2953.00,0.1541
2952.00,0.1600
2951.00,0.1641
2950.00,0.1657
2949.00,0.1640
2948.00,0.1590
2947.00,0.1511
2946.00,0.1413
2945.00,0.1310
2944.00,0.1211
2943.00,0.1128
2942.00,0.1065
2941.00,0.1023
2940.00,0.1002
2939.00,0.0999
2938.00,0.1015
2937.00,0.1045
2936.00,0.1090
2935.00,0.1147
2934.00,0.1216
2933.00,0.1295
2932.00,0.1383
2931.00,0.1479
2930.00,0.1580
2929.00,0.1684
2928.00,0.1789
2927.00,0.1891
2926.00,0.1990
2925.00,0.2085
2924.00,0.2177
2923.00,0.2267
2922.00,0.2355
2921.00,0.2438
2920.00,0.2511
2919.00,0.2566
2918.00,0.2592
2917.00,0.2583
2916.00,0.2537
2915.00,0.2460
2914.00,0.2363
2913.00,0.2257
2912.00,0.2152
2911.00,0.2055
2910.00,0.1967
2909.00,0.1888
2908.00,0.1817
2907.00,0.1750
2906.00,0.1685
2905.00,0.1622
2904.00,0.1559
2903.00,0.1497
2902.00,0.1437
2901.00,0.1378
2900.00,0.1322
2899.00,0.1268
2898.00,0.1218
2897.00,0.1172
2896.00,0.1131
2895.00,0.1095
2894.00,0.1063
2893.00,0.1037
2892.00,0.1016
2891.00,0.1000
2890.00,0.0989
2889.00,0.0982
2888.00,0.0979
2887.00,0.0979
2886.00,0.0982
2885.00,0.0989
2884.00,0.0999
2883.00,0.1014
2882.00,0.1034
2881.00,0.1056
2880.00,0.1078
2879.00,0.1096
2878.00,0.1108
2877.00,0.1112
2876.00,0.1109
2875.00,0.1104
2874.00,0.1100
2873.00,0.1102
2872.00,0.1109
2871.00,0.1123
2870.00,0.1140
2869.00,0.1156
2868.00,0.1166
2867.00,0.1163
2866.00,0.1144
2865.00,0.1105
2864.00,0.1052
2863.00,0.0990
2862.00,0.0930
2861.00,0.0877
2860.00,0.0837
2859.00,0.0811
2858.00,0.0797
2857.00,0.0794
2856.00,0.0799
2855.00,0.0809
2854.00,0.0824
2853.00,0.0840
2852.00,0.0856
2851.00,0.0869
2850.00,0.0877
2849.00,0.0880
2848.00,0.0882
2847.00,0.0886
2846.00,0.0897
2845.00,0.0917
2844.00,0.0947
2843.00,0.0985
2842.00,0.1026
2841.00,0.1065
2840.00,0.1094
2839.00,0.1108
2838.00,0.1099
2837.00,0.1066
2836.00,0.1007
2835.00,0.0929
2834.00,0.0840
2833.00,0.0747
2832.00,0.0660
2831.00,0.0583
2830.00,0.0517
2829.00,0.0463
2828.00,0.0419
2827.00,0.0383
2826.00,0.0353
2825.00,0.0329
2824.00,0.0308
2823.00,0.0290
2822.00,0.0275
2821.00,0.0262
2820.00,0.0250
2819.00,0.0240
2818.00,0.0231
2817.00,0.0224
2816.00,0.0217
2815.00,0.0210
2814.00,0.0204
2813.00,0.0199
2812.00,0.0194
2811.00,0.0188
2810.00,0.0183
2809.00,0.0178
2808.00,0.0172
2807.00,0.0167
2806.00,0.0161
2805.00,0.0155
2804.00,0.0149
2803.00,0.0144
2802.00,0.0139
2801.00,0.0135
2800.00,0.0131
2799.00,0.0128
2798.00,0.0125
2797.00,0.0123
2796.00,0.0121
2795.00,0.0118
2794.00,0.0116
2793.00,0.0113
2792.00,0.0110
2791.00,0.0107
2790.00,0.0104
2789.00,0.0101
2788.00,0.0099
2787.00,0.0097
2786.00,0.0094
2785.00,0.0092
2784.00,0.0090
2783.00,0.0087
2782.00,0.0085
2781.00,0.0084
2780.00,0.0082
2779.00,0.0081
2778.00,0.0080
2777.00,0.0078
2776.00,0.0077
2775.00,0.0075
2774.00,0.0074
2773.00,0.0074
2772.00,0.0073
2771.00,0.0073
2770.00,0.0073
2769.00,0.0072
2768.00,0.0072
2767.00,0.0072
2766.00,0.0071
2765.00,0.0071
2764.00,0.0071
2763.00,0.0070
2762.00,0.0070
2761.00,0.0069
2760.00,0.0069
2759.00,0.0069
2758.00,0.0068
2757.00,0.0068
2756.00,0.0068
2755.00,0.0068
2754.00,0.0068
2753.00,0.0068
2752.00,0.0067
2751.00,0.0067
2750.00,0.0067
2749.00,0.0067
2748.00,0.0067
2747.00,0.0067
2746.00,0.0067
2745.00,0.0067
2744.00,0.0068
2743.00,0.0068
2742.00,0.0069
2741.00,0.0071
2740.00,0.0072
2739.00,0.0073
2738.00,0.0074
2737.00,0.0075
2736.00,0.0076
2735.00,0.0077
2734.00,0.0078
2733.00,0.0079
2732.00,0.0081
2731.00,0.0083
2730.00,0.0084
2729.00,0.0087
2728.00,0.0089
2727.00,0.0091
2726.00,0.0093
2725.00,0.0095
2724.00,0.0097
2723.00,0.0097
2722.00,0.0096
2721.00,0.0095
2720.00,0.0092
2719.00,0.0090
2718.00,0.0087
2717.00,0.0085
2716.00,0.0082
2715.00,0.0079
2714.00,0.0077
2713.00,0.0075
2712.00,0.0073
2711.00,0.0071
2710.00,0.0070
2709.00,0.0068
2708.00,0.0067
2707.00,0.0066
2706.00,0.0065
2705.00,0.0064
2704.00,0.0063
2703.00,0.0062
2702.00,0.0061
2701.00,0.0060
2700.00,0.0060
2699.00,0.0059
2698.00,0.0059
2697.00,0.0059
2696.00,0.0058
2695.00,0.0058
2694.00,0.0058
2693.00,0.0059
2692.00,0.0059
2691.00,0.0059
2690.00,0.0058
2689.00,0.0058
2688.00,0.0058
2687.00,0.0057
2686.00,0.0057
2685.00,0.0058
2684.00,0.0058
2683.00,0.0058
2682.00,0.0058
2681.00,0.0058
2680.00,0.0058
2679.00,0.0058
2678.00,0.0058
2677.00,0.0058
2676.00,0.0058
2675.00,0.0058
2674.00,0.0057
2673.00,0.0057
2672.00,0.0057
2671.00,0.0056
2670.00,0.0056
2669.00,0.0056
2668.00,0.0057
2667.00,0.0057
2666.00,0.0058
2665.00,0.0059
2664.00,0.0059
2663.00,0.0059
2662.00,0.0060
2661.00,0.0060
2660.00,0.0060
2659.00,0.0060
2658.00,0.0060
2657.00,0.0060
2656.00,0.0059
2655.00,0.0059
2654.00,0.0058
2653.00,0.0058
2652.00,0.0058
2651.00,0.0057
2650.00,0.0056
2649.00,0.0056
2648.00,0.0055
2647.00,0.0054
2646.00,0.0054
2645.00,0.0054
2644.00,0.0054
2643.00,0.0053
2642.00,0.0053
2641.00,0.0052
2640.00,0.0052
2639.00,0.0051
2638.00,0.0051
2637.00,0.0051
2636.00,0.0052
2635.00,0.0052
2634.00,0.0052
2633.00,0.0052
2632.00,0.0052
2631.00,0.0052
2630.00,0.0052
2629.00,0.0052
2628.00,0.0052
2627.00,0.0051
2626.00,0.0051
2625.00,0.0051
2624.00,0.0052
2623.00,0.0052
2622.00,0.0052
2621.00,0.0053
2620.00,0.0053
2619.00,0.0053
2618.00,0.0053
2617.00,0.0053
2616.00,0.0052
2615.00,0.0052
2614.00,0.0052
2613.00,0.0052
2612.00,0.0051
2611.00,0.0051
2610.00,0.0051
2609.00,0.0050
2608.00,0.0050
2607.00,0.0049
2606.00,0.0048
2605.00,0.0047
2604.00,0.0047
2603.00,0.0046
2602.00,0.0046
2601.00,0.0045
2600.00,0.0045
2599.00,0.0044
2598.00,0.0044
2597.00,0.0044
2596.00,0.0044
2595.00,0.0044
2594.00,0.0044
2593.00,0.0045
2592.00,0.0047
2591.00,0.0048
2590.00,0.0048
2589.00,0.0048
2588.00,0.0048
2587.00,0.0049
2586.00,0.0049
2585.00,0.0050
2584.00,0.0051
2583.00,0.0052
2582.00,0.0052
2581.00,0.0051
2580.00,0.0050
2579.00,0.0049
2578.00,0.0047
2577.00,0.0046
2576.00,0.0045
2575.00,0.0044
2574.00,0.0044
2573.00,0.0043
2572.00,0.0042
2571.00,0.0042
2570.00,0.0041
2569.00,0.0040
2568.00,0.0040
2567.00,0.0039
2566.00,0.0039
2565.00,0.0038
2564.00,0.0038
2563.00,0.0038
2562.00,0.0037
2561.00,0.0037
2560.00,0.0036
2559.00,0.0036
2558.00,0.0036
2557.00,0.0035
2556.00,0.0035
2555.00,0.0034
2554.00,0.0034
2553.00,0.0034
2552.00,0.0034
2551.00,0.0034
2550.00,0.0033
2549.00,0.0033
2548.00,0.0032
2547.00,0.0032
2546.00,0.0032
2545.00,0.0032
2544.00,0.0031
2543.00,0.0031
2542.00,0.0031
2541.00,0.0030
2540.00,0.0030
2539.00,0.0030
2538.00,0.0030
2537.00,0.0030
2536.00,0.0031
2535.00,0.0031
2534.00,0.0031
2533.00,0.0031
2532.00,0.0030
2531.00,0.0029
2530.00,0.0028
2529.00,0.0028
2528.00,0.0027
2527.00,0.0027
2526.00,0.0027
2525.00,0.0028
2524.00,0.0028
2523.00,0.0028
2522.00,0.0029
2521.00,0.0028
2520.00,0.0028
2519.00,0.0028
2518.00,0.0027
2517.00,0.0027
2516.00,0.0027
2515.00,0.0027
2514.00,0.0027
2513.00,0.0026
2512.00,0.0026
2511.00,0.0025
2510.00,0.0025
2509.00,0.0025
2508.00,0.0026
2507.00,0.0026
2506.00,0.0026
2505.00,0.0025
2504.00,0.0025
2503.00,0.0024
2502.00,0.0024
2501.00,0.0023
2500.00,0.0023
2499.00,0.0023
2498.00,0.0024
2497.00,0.0024
2496.00,0.0024
2495.00,0.0025
2494.00,0.0024
2493.00,0.0024
2492.00,0.0024
2491.00,0.0024
2490.00,0.0024
2489.00,0.0025
2488.00,0.0026
2487.00,0.0025
2486.00,0.0025
2485.00,0.0025
2484.00,0.0025
2483.00,0.0025
2482.00,0.0024
2481.00,0.0024
2480.00,0.0024
2479.00,0.0023
2478.00,0.0023
2477.00,0.0023
2476.00,0.0024
2475.00,0.0023
2474.00,0.0023
2473.00,0.0023
2472.00,0.0023
2471.00,0.0023
2470.00,0.0022
2469.00,0.0022
2468.00,0.0022
2467.00,0.0022
2466.00,0.0023
2465.00,0.0023
2464.00,0.0024
2463.00,0.0025
2462.00,0.0025
2461.00,0.0025
2460.00,0.0025
2459.00,0.0024
2458.00,0.0024
2457.00,0.0024
2456.00,0.0025
2455.00,0.0025
2454.00,0.0025
2453.00,0.0024
2452.00,0.0024
2451.00,0.0024
2450.00,0.0024
2449.00,0.0024
2448.00,0.0024
2447.00,0.0024
2446.00,0.0024
2445.00,0.0023
2444.00,0.0022
2443.00,0.0022
2442.00,0.0022
2441.00,0.0023
2440.00,0.0023
2439.00,0.0023
2438.00,0.0024
2437.00,0.0024
2436.00,0.0024
2435.00,0.0024
2434.00,0.0024
2433.00,0.0024
2432.00,0.0024
2431.00,0.0024
2430.00,0.0023
2429.00,0.0023
2428.00,0.0023
2427.00,0.0023
2426.00,0.0023
2425.00,0.0023
2424.00,0.0023
2423.00,0.0023
2422.00,0.0023
2421.00,0.0022
2420.00,0.0022
2419.00,0.0022
2418.00,0.0022
2417.00,0.0023
2416.00,0.0023
2415.00,0.0023
2414.00,0.0023
2413.00,0.0023
2412.00,0.0023
2411.00,0.0023
2410.00,0.0023
2409.00,0.0024
2408.00,0.0024
2407.00,0.0023
2406.00,0.0022
2405.00,0.0022
2404.00,0.0021
2403.00,0.0021
2402.00,0.0021
2401.00,0.0020
2400.00,0.0020
2399.00,0.0020
2398.00,0.0020
2397.00,0.0020
2396.00,0.0020
2395.00,0.0020
2394.00,0.0021
2393.00,0.0021
2392.00,0.0020
2391.00,0.0020
2390.00,0.0020
2389.00,0.0020
2388.00,0.0019
2387.00,0.0019
2386.00,0.0018
2385.00,0.0017
2384.00,0.0016
2383.00,0.0015
2382.00,0.0013
2381.00,0.0013
2380.00,0.0012
2379.00,0.0012
2378.00,0.0012
2377.00,0.0012
2376.00,0.0012
2375.00,0.0013
2374.00,0.0013
2373.00,0.0013
2372.00,0.0013
2371.00,0.0012
2370.00,0.0012
2369.00,0.0011
2368.00,0.0011
2367.00,0.0010
2366.00,0.0009
2365.00,0.0009
2364.00,0.0010
2363.00,0.0010
2362.00,0.0011
2361.00,0.0011
2360.00,0.0012
2359.00,0.0012
2358.00,0.0012
2357.00,0.0013
2356.00,0.0013
2355.00,0.0013
2354.00,0.0012
2353.00,0.0012
2352.00,0.0012
2351.00,0.0012
2350.00,0.0012
2349.00,0.0013
2348.00,0.0013
2347.00,0.0014
2346.00,0.0014
2345.00,0.0014
2344.00,0.0014
2343.00,0.0014
2342.00,0.0015
2341.00,0.0016
2340.00,0.0017
2339.00,0.0017
2338.00,0.0017
2337.00,0.0017
2336.00,0.0017
2335.00,0.0016
2334.00,0.0016
2333.00,0.0016
2332.00,0.0017
2331.00,0.0017
2330.00,0.0017
2329.00,0.0018
2328.00,0.0020
2327.00,0.0023
2326.00,0.0026
2325.00,0.0030
2324.00,0.0031
2323.00,0.0031
2322.00,0.0028
2321.00,0.0026
2320.00,0.0025
2319.00,0.0024
2318.00,0.0023
2317.00,0.0023
2316.00,0.0023
2315.00,0.0023
2314.00,0.0022
2313.00,0.0021
2312.00,0.0020
2311.00,0.0019
2310.00,0.0018
2309.00,0.0018
2308.00,0.0018
2307.00,0.0019
2306.00,0.0020
2305.00,0.0020
2304.00,0.0020
2303.00,0.0021
2302.00,0.0021
2301.00,0.0021
2300.00,0.0022
2299.00,0.0022
2298.00,0.0022
2297.00,0.0023
2296.00,0.0024
2295.00,0.0025
2294.00,0.0026
2293.00,0.0027
2292.00,0.0028
2291.00,0.0028
2290.00,0.0029
2289.00,0.0029
2288.00,0.0030
2287.00,0.0031
2286.00,0.0032
2285.00,0.0032
2284.00,0.0031
2283.00,0.0030
2282.00,0.0029
2281.00,0.0028
2280.00,0.0027
2279.00,0.0026
2278.00,0.0025
2277.00,0.0025
2276.00,0.0025
2275.00,0.0026
2274.00,0.0026
2273.00,0.0025
2272.00,0.0024
2271.00,0.0023
2270.00,0.0023
2269.00,0.0024
2268.00,0.0025
2267.00,0.0025
2266.00,0.0024
2265.00,0.0024
2264.00,0.0024
2263.00,0.0026
2262.00,0.0027
2261.00,0.0028
2260.00,0.0027
2259.00,0.0026
2258.00,0.0024
2257.00,0.0024
2256.00,0.0024
2255.00,0.0023
2254.00,0.0023
2253.00,0.0022
2252.00,0.0021
2251.00,0.0020
2250.00,0.0020
2249.00,0.0020
2248.00,0.0020
2247.00,0.0021
2246.00,0.0021
2245.00,0.0021
2244.00,0.0022
2243.00,0.0022
2242.00,0.0022
2241.00,0.0022
2240.00,0.0021
2239.00,0.0021
2238.00,0.0020
2237.00,0.0021
2236.00,0.0022
2235.00,0.0022
2234.00,0.0023
2233.00,0.0023
2232.00,0.0024
2231.00,0.0024
2230.00,0.0024
2229.00,0.0025
2228.00,0.0025
2227.00,0.0024
2226.00,0.0023
2225.00,0.0023
2224.00,0.0022
2223.00,0.0022
2222.00,0.0021
2221.00,0.0020
2220.00,0.0019
2219.00,0.0019
2218.00,0.0018
2217.00,0.0018
2216.00,0.0018
2215.00,0.0017
2214.00,0.0016
2213.00,0.0016
2212.00,0.0017
2211.00,0.0019
2210.00,0.0021
2209.00,0.0022
2208.00,0.0023
2207.00,0.0022
2206.00,0.0021
2205.00,0.0021
2204.00,0.0021
2203.00,0.0021
2202.00,0.0020
2201.00,0.0020
2200.00,0.0021
2199.00,0.0022
2198.00,0.0023
2197.00,0.0024
2196.00,0.0024
2195.00,0.0023
2194.00,0.0022
2193.00,0.0020
2192.00,0.0017
2191.00,0.0015
2190.00,0.0015
2189.00,0.0016
2188.00,0.0018
2187.00,0.0019
2186.00,0.0019
2185.00,0.0018
2184.00,0.0018
2183.00,0.0018
2182.00,0.0017
2181.00,0.0016
2180.00,0.0017
2179.00,0.0018
2178.00,0.0020
2177.00,0.0021
2176.00,0.0020
2175.00,0.0018
2174.00,0.0016
2173.00,0.0018
2172.00,0.0021
2171.00,0.0024
2170.00,0.0026
2169.00,0.0027
2168.00,0.0027
2167.00,0.0026
2166.00,0.0026
2165.00,0.0027
2164.00,0.0030
2163.00,0.0032
2162.00,0.0034
2161.00,0.0031
2160.00,0.0020
2159.00,0.0004
2158.00,-0.0011
2157.00,-0.0019
2156.00,-0.0018
2155.00,-0.0012
2154.00,-0.0006
2153.00,-0.0002
2152.00,-0.0000
2151.00,0.0001
2150.00,0.0002
2149.00,0.0002
2148.00,0.0001
2147.00,0.0001
2146.00,0.0000
2145.00,0.0002
2144.00,0.0003
2143.00,0.0003
2142.00,0.0003
2141.00,0.0002
2140.00,0.0003
2139.00,0.0004
2138.00,0.0005
2137.00,0.0003
2136.00,0.0000
2135.00,-0.0003
2134.00,-0.0005
2133.00,-0.0004
2132.00,-0.0002
2131.00,0.0001
2130.00,0.0003
2129.00,0.0005
2128.00,0.0006
2127.00,0.0006
2126.00,0.0007
2125.00,0.0007
2124.00,0.0008
2123.00,0.0008
2122.00,0.0008
2121.00,0.0008
2120.00,0.0008
2119.00,0.0008
2118.00,0.0008
2117.00,0.0010
2116.00,0.0012
2115.00,0.0014
2114.00,0.0016
2113.00,0.0017
2112.00,0.0017
2111.00,0.0017
2110.00,0.0016
2109.00,0.0016
2108.00,0.0016
2107.00,0.0016
2106.00,0.0015
2105.00,0.0015
2104.00,0.0014
2103.00,0.0014
2102.00,0.0015
2101.00,0.0016
2100.00,0.0017
2099.00,0.0017
2098.00,0.0015
2097.00,0.0012
2096.00,0.0010
2095.00,0.0008
2094.00,0.0008
2093.00,0.0009
2092.00,0.0010
2091.00,0.0012
2090.00,0.0013
2089.00,0.0013
2088.00,0.0013
2087.00,0.0013
2086.00,0.0013
2085.00,0.0014
2084.00,0.0014
2083.00,0.0014
2082.00,0.0015
2081.00,0.0016
2080.00,0.0017
2079.00,0.0018
2078.00,0.0018
2077.00,0.0018
2076.00,0.0017
2075.00,0.0016
2074.00,0.0015
2073.00,0.0014
2072.00,0.0014
2071.00,0.0016
2070.00,0.0016
2069.00,0.0016
2068.00,0.0015
2067.00,0.0013
2066.00,0.0010
2065.00,0.0009
2064.00,0.0009
2063.00,0.0011
2062.00,0.0014
2061.00,0.0017
2060.00,0.0017
2059.00,0.0017
2058.00,0.0017
2057.00,0.0016
2056.00,0.0015
2055.00,0.0013
2054.00,0.0012
2053.00,0.0014
2052.00,0.0019
2051.00,0.0024
2050.00,0.0025
2049.00,0.0023
2048.00,0.0020
2047.00,0.0017
2046.00,0.0016
2045.00,0.0017
2044.00,0.0017
2043.00,0.0016
2042.00,0.0014
2041.00,0.0013
2040.00,0.0014
2039.00,0.0015
2038.00,0.0016
2037.00,0.0016
2036.00,0.0016
2035.00,0.0014
2034.00,0.0010
2033.00,0.0006
2032.00,0.0003
2031.00,0.0001
2030.00,-0.0000
2029.00,-0.0001
2028.00,-0.0001
2027.00,-0.0000
2026.00,0.0002
2025.00,0.0005
2024.00,0.0008
2023.00,0.0007
2022.00,0.0003
2021.00,-0.0001
2020.00,-0.0002
2019.00,-0.0001
2018.00,0.0002
2017.00,0.0004
2016.00,0.0006
2015.00,0.0006
2014.00,0.0005
2013.00,0.0006
2012.00,0.0007
2011.00,0.0009
2010.00,0.0009
2009.00,0.0007
2008.00,0.0002
2007.00,-0.0004
2006.00,-0.0007
2005.00,-0.0007
2004.00,-0.0004
2003.00,-0.0001
2002.00,0.0001
2001.00,0.0003
2000.00,0.0004
1999.00,0.0005
1998.00,0.0005
1997.00,0.0005
1996.00,0.0003
1995.00,0.0001
1994.00,-0.0001
1993.00,-0.0001
1992.00,0.0000
1991.00,0.0002
1990.00,0.0003
1989.00,0.0005
1988.00,0.0007
1987.00,0.0008
1986.00,0.0010
1985.00,0.0012
1984.00,0.0015
1983.00,0.0018
1982.00,0.0021
1981.00,0.0023
1980.00,0.0023
1979.00,0.0019
1978.00,0.0013
1977.00,0.0007
1976.00,0.0003
1975.00,-0.0000
1974.00,-0.0004
1973.00,-0.0006
1972.00,-0.0006
1971.00,-0.0004
1970.00,-0.0001
1969.00,0.0002
1968.00,0.0003
1967.00,0.0002
1966.00,0.0000
1965.00,-0.0000
1964.00,0.0001
1963.00,0.0002
1962.00,0.0001
1961.00,-0.0000
1960.00,-0.0002
1959.00,-0.0002
1958.00,-0.0002
1957.00,-0.0002
1956.00,-0.0002
1955.00,-0.0003
1954.00,-0.0003
1953.00,-0.0001
1952.00,-0.0000
1951.00,-0.0000
1950.00,-0.0001
1949.00,-0.0002
1948.00,-0.0001
1947.00,-0.0001
1946.00,-0.0000
1945.00,0.0000
1944.00,0.0000
1943.00,0.0001
1942.00,0.0001
1941.00,0.0001
1940.00,0.0001
1939.00,0.0001
1938.00,0.0002
1937.00,0.0003
1936.00,0.0005
1935.00,0.0006
1934.00,0.0005
1933.00,0.0005
1932.00,0.0004
1931.00,0.0004
1930.00,0.0004
1929.00,0.0005
1928.00,0.0006
1927.00,0.0007
1926.00,0.0007
1925.00,0.0007
1924.00,0.0008
1923.00,0.0008
1922.00,0.0008
1921.00,0.0008
1920.00,0.0008
1919.00,0.0007
1918.00,0.0007
1917.00,0.0008
1916.00,0.0009
1915.00,0.0010
1914.00,0.0010
1913.00,0.0009
1912.00,0.0010
1911.00,0.0010
1910.00,0.0011
1909.00,0.0011
1908.00,0.0011
1907.00,0.0010
1906.00,0.0010
1905.00,0.0010
1904.00,0.0011
1903.00,0.0012
1902.00,0.0013
1901.00,0.0014
1900.00,0.0014
1899.00,0.0014
1898.00,0.0013
1897.00,0.0012
1896.00,0.0012
1895.00,0.0012
1894.00,0.0012
1893.00,0.0012
1892.00,0.0011
1891.00,0.0011
1890.00,0.0011
1889.00,0.0011
1888.00,0.0012
1887.00,0.0011
1886.00,0.0010
1885.00,0.0010
1884.00,0.0009
1883.00,0.0009
1882.00,0.0009
1881.00,0.0010
1880.00,0.0011
1879.00,0.0012
1878.00,0.0012
1877.00,0.0012
1876.00,0.0012
1875.00,0.0012
1874.00,0.0012
1873.00,0.0011
1872.00,0.0011
1871.00,0.0011
1870.00,0.0012
1869.00,0.0012
1868.00,0.0012
1867.00,0.0012
1866.00,0.0011
1865.00,0.0012
1864.00,0.0012
1863.00,0.0013
1862.00,0.0013
1861.00,0.0012
1860.00,0.0012
1859.00,0.0012
1858.00,0.0013
1857.00,0.0013
1856.00,0.0014
1855.00,0.0015
1854.00,0.0015
1853.00,0.0016
1852.00,0.0016
1851.00,0.0016
1850.00,0.0016
1849.00,0.0016
1848.00,0.0016
1847.00,0.0016
1846.00,0.0015
1845.00,0.0015
1844.00,0.0016
1843.00,0.0016
1842.00,0.0016
1841.00,0.0015
1840.00,0.0015
1839.00,0.0015
1838.00,0.0015
1837.00,0.0016
1836.00,0.0016
1835.00,0.0016
1834.00,0.0017
1833.00,0.0017
1832.00,0.0017
1831.00,0.0017
1830.00,0.0016
1829.00,0.0017
1828.00,0.0017
1827.00,0.0017
1826.00,0.0017
1825.00,0.0017
1824.00,0.0017
1823.00,0.0017
1822.00,0.0017
1821.00,0.0017
1820.00,0.0017
1819.00,0.0016
1818.00,0.0015
1817.00,0.0014
1816.00,0.0014
1815.00,0.0014
1814.00,0.0014
1813.00,0.0015
1812.00,0.0016
1811.00,0.0016
1810.00,0.0017
1809.00,0.0018
1808.00,0.0019
1807.00,0.0019
1806.00,0.0019
1805.00,0.0019
1804.00,0.0019
1803.00,0.0020
1802.00,0.0020
1801.00,0.0020
1800.00,0.0020
1799.00,0.0020
1798.00,0.0020
1797.00,0.0021
1796.00,0.0021
1795.00,0.0021
1794.00,0.0021
1793.00,0.0021
1792.00,0.0022
1791.00,0.0021
1790.00,0.0021
1789.00,0.0021
1788.00,0.0022
1787.00,0.0023
1786.00,0.0023
1785.00,0.0023
1784.00,0.0023
1783.00,0.0023
1782.00,0.0023
1781.00,0.0023
1780.00,0.0022
1779.00,0.0022
1778.00,0.0021
1777.00,0.0022
1776.00,0.0022
1775.00,0.0023
1774.00,0.0023
1773.00,0.0024
1772.00,0.0024
1771.00,0.0024
1770.00,0.0025
1769.00,0.0025
1768.00,0.0025
1767.00,0.0025
1766.00,0.0025
1765.00,0.0026
1764.00,0.0027
1763.00,0.0027
1762.00,0.0028
1761.00,0.0029
1760.00,0.0030
1759.00,0.0030
1758.00,0.0031
1757.00,0.0031
1756.00,0.0032
1755.00,0.0033
1754.00,0.0034
1753.00,0.0035
1752.00,0.0036
1751.00,0.0036
1750.00,0.0036
1749.00,0.0037
1748.00,0.0039
1747.00,0.0040
1746.00,0.0042
1745.00,0.0044
1744.00,0.0045
1743.00,0.0046
1742.00,0.0047
1741.00,0.0048
1740.00,0.0049
1739.00,0.0049
1738.00,0.0049
1737.00,0.0049
1736.00,0.0050
1735.00,0.0050
1734.00,0.0050
1733.00,0.0050
1732.00,0.0050
1731.00,0.0050
1730.00,0.0050
1729.00,0.0050
1728.00,0.0050
1727.00,0.0050
1726.00,0.0050
1725.00,0.0050
1724.00,0.0051
1723.00,0.0051
1722.00,0.0051
1721.00,0.0051
1720.00,0.0050
1719.00,0.0049
1718.00,0.0047
1717.00,0.0046
1716.00,0.0047
1715.00,0.0048
1714.00,0.0048
1713.00,0.0049
1712.00,0.0049
1711.00,0.0049
1710.00,0.0050
1709.00,0.0050
1708.00,0.0050
1707.00,0.0051
1706.00,0.0051
1705.00,0.0051
1704.00,0.0052
1703.00,0.0052
1702.00,0.0053
1701.00,0.0053
1700.00,0.0054
1699.00,0.0056
1698.00,0.0058
1697.00,0.0061
1696.00,0.0064
1695.00,0.0067
1694.00,0.0069
1693.00,0.0071
1692.00,0.0074
1691.00,0.0076
1690.00,0.0079
1689.00,0.0081
1688.00,0.0084
1687.00,0.0087
1686.00,0.0090
1685.00,0.0093
1684.00,0.0096
1683.00,0.0098
1682.00,0.0099
1681.00,0.0102
1680.00,0.0105
1679.00,0.0107
1678.00,0.0110
1677.00,0.0112
1676.00,0.0115
1675.00,0.0117
1674.00,0.0119
1673.00,0.0120
1672.00,0.0122
1671.00,0.0124
1670.00,0.0126
1669.00,0.0129
1668.00,0.0131
1667.00,0.0132
1666.00,0.0133
1665.00,0.0133
1664.00,0.0134
1663.00,0.0135
1662.00,0.0137
1661.00,0.0139
1660.00,0.0141
1659.00,0.0143
1658.00,0.0144
1657.00,0.0144
1656.00,0.0145
1655.00,0.0146
1654.00,0.0146
1653.00,0.0148
1652.00,0.0149
1651.00,0.0150
1650.00,0.0151
1649.00,0.0152
1648.00,0.0153
1647.00,0.0154
1646.00,0.0155
1645.00,0.0155
1644.00,0.0156
1643.00,0.0157
1642.00,0.0157
1641.00,0.0157
1640.00,0.0157
1639.00,0.0157
1638.00,0.0157
1637.00,0.0156
1636.00,0.0156
1635.00,0.0155
1634.00,0.0155
1633.00,0.0155
1632.00,0.0155
1631.00,0.0155
1630.00,0.0154
1629.00,0.0154
1628.00,0.0153
1627.00,0.0152
1626.00,0.0151
1625.00,0.0150
1624.00,0.0149
1623.00,0.0148
1622.00,0.0147
1621.00,0.0147
1620.00,0.0146
1619.00,0.0146
1618.00,0.0145
1617.00,0.0145
1616.00,0.0145
1615.00,0.0144
1614.00,0.0144
1613.00,0.0144
1612.00,0.0144
1611.00,0.0144
1610.00,0.0144
1609.00,0.0143
1608.00,0.0143
1607.00,0.0143
1606.00,0.0143
1605.00,0.0143
1604.00,0.0143
1603.00,0.0143
1602.00,0.0143
1601.00,0.0143
1600.00,0.0143
1599.00,0.0143
1598.00,0.0143
1597.00,0.0143
1596.00,0.0143
1595.00,0.0143
1594.00,0.0144
1593.00,0.0145
1592.00,0.0145
1591.00,0.0145
1590.00,0.0146
1589.00,0.0147
1588.00,0.0149
1587.00,0.0151
1586.00,0.0153
1585.00,0.0156
1584.00,0.0159
1583.00,0.0163
1582.00,0.0167
1581.00,0.0171
1580.00,0.0174
1579.00,0.0177
1578.00,0.0179
1577.00,0.0179
1576.00,0.0179
1575.00,0.0177
1574.00,0.0175
1573.00,0.0173
1572.00,0.0171
1571.00,0.0168
1570.00,0.0165
1569.00,0.0163
1568.00,0.0161
1567.00,0.0160
1566.00,0.0159
1565.00,0.0159
1564.00,0.0159
1563.00,0.0159
1562.00,0.0160
1561.00,0.0161
1560.00,0.0161
1559.00,0.0162
1558.00,0.0163
1557.00,0.0165
1556.00,0.0168
1555.00,0.0170
1554.00,0.0173
1553.00,0.0176
1552.00,0.0179
1551.00,0.0182
1550.00,0.0185
1549.00,0.0188
1548.00,0.0191
1547.00,0.0194
1546.00,0.0198
1545.00,0.0202
1544.00,0.0206
1543.00,0.0209
1542.00,0.0210
1541.00,0.0209
1540.00,0.0204
1539.00,0.0198
1538.00,0.0192
1537.00,0.0187
1536.00,0.0182
1535.00,0.0176
1534.00,0.0169
1533.00,0.0162
1532.00,0.0157
1531.00,0.0154
1530.00,0.0152
1529.00,0.0150
1528.00,0.0147
1527.00,0.0145
1526.00,0.0142
1525.00,0.0141
1524.00,0.0141
1523.00,0.0141
1522.00,0.0141
1521.00,0.0141
1520.00,0.0141
1519.00,0.0141
1518.00,0.0140
1517.00,0.0140
1516.00,0.0141
1515.00,0.0141
1514.00,0.0141
1513.00,0.0142
1512.00,0.0144
1511.00,0.0144
1510.00,0.0145
1509.00,0.0146
1508.00,0.0147
1507.00,0.0147
1506.00,0.0148
1505.00,0.0151
1504.00,0.0153
1503.00,0.0156
1502.00,0.0158
1501.00,0.0162
1500.00,0.0166
1499.00,0.0169
1498.00,0.0173
1497.00,0.0178
1496.00,0.0184
1495.00,0.0189
1494.00,0.0193
1493.00,0.0198
1492.00,0.0203
1491.00,0.0209
1490.00,0.0216
1489.00,0.0224
1488.00,0.0231
1487.00,0.0238
1486.00,0.0245
1485.00,0.0253
1484.00,0.0262
1483.00,0.0272
1482.00,0.0283
1481.00,0.0297
1480.00,0.0312
1479.00,0.0326
1478.00,0.0342
1477.00,0.0362
1476.00,0.0387
1475.00,0.0416
1474.00,0.0454
1473.00,0.0509
1472.00,0.0576
1471.00,0.0639
1470.00,0.0698
1469.00,0.0760
1468.00,0.0825
1467.00,0.0894
1466.00,0.0974
1465.00,0.1060
1464.00,0.1136
1463.00,0.1189
1462.00,0.1223
1461.00,0.1246
1460.00,0.1261
1459.00,0.1272
1458.00,0.1283
1457.00,0.1293
1456.00,0.1294
1455.00,0.1285
1454.00,0.1271
1453.00,0.1253
1452.00,0.1226
1451.00,0.1190
1450.00,0.1143
1449.00,0.1080
1448.00,0.1002
1447.00,0.0920
1446.00,0.0845
1445.00,0.0782
1444.00,0.0727
1443.00,0.0683
1442.00,0.0649
1441.00,0.0625
1440.00,0.0611
1439.00,0.0606
1438.00,0.0608
1437.00,0.0611
1436.00,0.0605
1435.00,0.0583
1434.00,0.0550
1433.00,0.0510
1432.00,0.0467
1431.00,0.0429
1430.00,0.0398
1429.00,0.0376
1428.00,0.0360
1427.00,0.0349
1426.00,0.0342
1425.00,0.0335
1424.00,0.0329
1423.00,0.0324
1422.00,0.0320
1421.00,0.0316
1420.00,0.0310
1419.00,0.0304
1418.00,0.0298
1417.00,0.0291
1416.00,0.0283
1415.00,0.0276
1414.00,0.0270
1413.00,0.0264
1412.00,0.0257
1411.00,0.0251
1410.00,0.0245
1409.00,0.0239
1408.00,0.0233
1407.00,0.0228
1406.00,0.0224
1405.00,0.0220
1404.00,0.0215
1403.00,0.0212
1402.00,0.0209
1401.00,0.0207
1400.00,0.0204
1399.00,0.0201
1398.00,0.0200
1397.00,0.0198
1396.00,0.0196
1395.00,0.0196
1394.00,0.0196
1393.00,0.0198
1392.00,0.0200
1391.00,0.0204
1390.00,0.0212
1389.00,0.0222
1388.00,0.0239
1387.00,0.0265
1386.00,0.0303
1385.00,0.0353
1384.00,0.0423
1383.00,0.0524
1382.00,0.0662
1381.00,0.0844
1380.00,0.1070
1379.00,0.1327
1378.00,0.1574
1377.00,0.1755
1376.00,0.1816
1375.00,0.1729
1374.00,0.1520
1373.00,0.1266
1372.00,0.1032
1371.00,0.0839
1370.00,0.0686
1369.00,0.0569
1368.00,0.0489
1367.00,0.0439
1366.00,0.0411
1365.00,0.0399
1364.00,0.0401
1363.00,0.0413
1362.00,0.0433
1361.00,0.0453
1360.00,0.0468
1359.00,0.0473
1358.00,0.0463
1357.00,0.0440
1356.00,0.0407
1355.00,0.0369
1354.00,0.0334
1353.00,0.0303
1352.00,0.0278
1351.00,0.0258
1350.00,0.0242
1349.00,0.0228
1348.00,0.0217
1347.00,0.0207
1346.00,0.0199
1345.00,0.0192
1344.00,0.0186
1343.00,0.0180
1342.00,0.0176
1341.00,0.0172
1340.00,0.0168
1339.00,0.0166
1338.00,0.0164
1337.00,0.0163
1336.00,0.0163
1335.00,0.0165
1334.00,0.0168
1333.00,0.0171
1332.00,0.0175
1331.00,0.0178
1330.00,0.0179
1329.00,0.0177
1328.00,0.0174
1327.00,0.0169
1326.00,0.0164
1325.00,0.0159
1324.00,0.0154
1323.00,0.0149
1322.00,0.0146
1321.00,0.0143
1320.00,0.0141
1319.00,0.0139
1318.00,0.0137
1317.00,0.0136
1316.00,0.0134
1315.00,0.0134
1314.00,0.0133
1313.00,0.0133
1312.00,0.0134
1311.00,0.0135
1310.00,0.0138
1309.00,0.0143
1308.00,0.0151
1307.00,0.0160
1306.00,0.0169
1305.00,0.0175
1304.00,0.0177
1303.00,0.0176
1302.00,0.0173
1301.00,0.0170
1300.00,0.0168
1299.00,0.0168
1298.00,0.0168
1297.00,0.0168
1296.00,0.0168
1295.00,0.0166
1294.00,0.0162
1293.00,0.0158
1292.00,0.0153
1291.00,0.0148
1290.00,0.0144
1289.00,0.0140
1288.00,0.0136
1287.00,0.0134
1286.00,0.0131
1285.00,0.0129
1284.00,0.0127
1283.00,0.0126
1282.00,0.0124
1281.00,0.0123
1280.00,0.0121
1279.00,0.0120
1278.00,0.0119
1277.00,0.0118
1276.00,0.0117
1275.00,0.0116
1274.00,0.0115
1273.00,0.0115
1272.00,0.0114
1271.00,0.0114
1270.00,0.0114
1269.00,0.0115
1268.00,0.0116
1267.00,0.0119
1266.00,0.0121
1265.00,0.0124
1264.00,0.0127
1263.00,0.0131
1262.00,0.0134
1261.00,0.0138
1260.00,0.0143
1259.00,0.0147
1258.00,0.0152
1257.00,0.0155
1256.00,0.0155
1255.00,0.0152
1254.00,0.0146
1253.00,0.0139
1252.00,0.0131
1251.00,0.0126
1250.00,0.0122
1249.00,0.0120
1248.00,0.0119
1247.00,0.0119
1246.00,0.0118
1245.00,0.0117
1244.00,0.0116
1243.00,0.0115
1242.00,0.0114
1241.00,0.0113
1240.00,0.0113
1239.00,0.0113
1238.00,0.0112
1237.00,0.0113
1236.00,0.0113
1235.00,0.0114
1234.00,0.0115
1233.00,0.0117
1232.00,0.0118
1231.00,0.0120
1230.00,0.0121
1229.00,0.0123
1228.00,0.0126
1227.00,0.0128
1226.00,0.0132
1225.00,0.0136
1224.00,0.0140
1223.00,0.0145
1222.00,0.0149
1221.00,0.0152
1220.00,0.0154
1219.00,0.0155
1218.00,0.0155
1217.00,0.0153
1216.00,0.0150
1215.00,0.0147
1214.00,0.0144
1213.00,0.0140
1212.00,0.0137
1211.00,0.0135
1210.00,0.0133
1209.00,0.0132
1208.00,0.0131
1207.00,0.0131
1206.00,0.0130
1205.00,0.0129
1204.00,0.0129
1203.00,0.0129
1202.00,0.0130
1201.00,0.0131
1200.00,0.0131
1199.00,0.0131
1198.00,0.0131
1197.00,0.0131
1196.00,0.0130
1195.00,0.0131
1194.00,0.0131
1193.00,0.0131
1192.00,0.0131
1191.00,0.0131
1190.00,0.0130
1189.00,0.0129
1188.00,0.0127
1187.00,0.0126
1186.00,0.0126
1185.00,0.0125
1184.00,0.0124
1183.00,0.0124
1182.00,0.0125
1181.00,0.0127
1180.00,0.0129
1179.00,0.0133
1178.00,0.0137
1177.00,0.0143
1176.00,0.0152
1175.00,0.0164
1174.00,0.0180
1173.00,0.0201
1172.00,0.0224
1171.00,0.0249
1170.00,0.0272
1169.00,0.0290
1168.00,0.0301
1167.00,0.0302
1166.00,0.0296
1165.00,0.0284
1164.00,0.0272
1163.00,0.0260
1162.00,0.0249
1161.00,0.0241
1160.00,0.0234
1159.00,0.0229
1158.00,0.0225
1157.00,0.0223
1156.00,0.0222
1155.00,0.0222
1154.00,0.0222
1153.00,0.0220
1152.00,0.0217
1151.00,0.0211
1150.00,0.0205
1149.00,0.0198
1148.00,0.0191
1147.00,0.0184
1146.00,0.0178
1145.00,0.0172
1144.00,0.0166
1143.00,0.0161
1142.00,0.0156
1141.00,0.0153
1140.00,0.0150
1139.00,0.0148
1138.00,0.0146
1137.00,0.0144
1136.00,0.0143
1135.00,0.0142
1134.00,0.0141
1133.00,0.0141
1132.00,0.0142
1131.00,0.0143
1130.00,0.0145
1129.00,0.0147
1128.00,0.0150
1127.00,0.0153
1126.00,0.0156
1125.00,0.0158
1124.00,0.0160
1123.00,0.0163
1122.00,0.0165
1121.00,0.0168
1120.00,0.0171
1119.00,0.0173
1118.00,0.0175
1117.00,0.0177
1116.00,0.0179
1115.00,0.0181
1114.00,0.0183
1113.00,0.0185
1112.00,0.0186
1111.00,0.0188
1110.00,0.0191
1109.00,0.0194
1108.00,0.0198
1107.00,0.0203
1106.00,0.0208
1105.00,0.0213
1104.00,0.0216
1103.00,0.0218
1102.00,0.0217
1101.00,0.0213
1100.00,0.0207
1099.00,0.0199
1098.00,0.0192
1097.00,0.0186
1096.00,0.0180
1095.00,0.0176
1094.00,0.0172
1093.00,0.0168
1092.00,0.0163
1091.00,0.0159
1090.00,0.0155
1089.00,0.0152
1088.00,0.0151
1087.00,0.0151
1086.00,0.0151
1085.00,0.0151
1084.00,0.0149
1083.00,0.0147
1082.00,0.0145
1081.00,0.0143
1080.00,0.0140
1079.00,0.0139
1078.00,0.0137
1077.00,0.0136
1076.00,0.0134
1075.00,0.0132
1074.00,0.0131
1073.00,0.0130
1072.00,0.0129
1071.00,0.0129
1070.00,0.0129
1069.00,0.0129
1068.00,0.0129
1067.00,0.0130
1066.00,0.0131
1065.00,0.0132
1064.00,0.0134
1063.00,0.0135
1062.00,0.0136
1061.00,0.0136
1060.00,0.0137
1059.00,0.0138
1058.00,0.0138
1057.00,0.0139
1056.00,0.0140
1055.00,0.0142
1054.00,0.0146
1053.00,0.0151
1052.00,0.0156
1051.00,0.0161
1050.00,0.0165
1049.00,0.0169
1048.00,0.0174
1047.00,0.0178
1046.00,0.0182
1045.00,0.0185
1044.00,0.0187
1043.00,0.0187
1042.00,0.0185
1041.00,0.0184
1040.00,0.0183
1039.00,0.0183
1038.00,0.0184
1037.00,0.0185
1036.00,0.0186
1035.00,0.0185
1034.00,0.0184
1033.00,0.0182
1032.00,0.0179
1031.00,0.0178
1030.00,0.0177
1029.00,0.0177
1028.00,0.0178
1027.00,0.0178
1026.00,0.0179
1025.00,0.0179
1024.00,0.0181
1023.00,0.0183
1022.00,0.0186
1021.00,0.0189
1020.00,0.0190
1019.00,0.0191
1018.00,0.0191
1017.00,0.0190
1016.00,0.0189
1015.00,0.0188
1014.00,0.0188
1013.00,0.0189
1012.00,0.0188
1011.00,0.0188
1010.00,0.0187
1009.00,0.0186
1008.00,0.0186
1007.00,0.0188
1006.00,0.0191
1005.00,0.0198
1004.00,0.0209
1003.00,0.0226
1002.00,0.0250
1001.00,0.0279
1000.00,0.0309
999.00,0.0333
998.00,0.0343
997.00,0.0336
996.00,0.0313
995.00,0.0280
994.00,0.0247
993.00,0.0217
992.00,0.0194
991.00,0.0178
990.00,0.0167
989.00,0.0159
988.00,0.0153
987.00,0.0149
986.00,0.0146
985.00,0.0147
984.00,0.0150
983.00,0.0155
982.00,0.0164
981.00,0.0176
980.00,0.0194
979.00,0.0218
978.00,0.0247
977.00,0.0280
976.00,0.0316
975.00,0.0349
974.00,0.0371
973.00,0.0376
972.00,0.0360
971.00,0.0326
970.00,0.0283
969.00,0.0239
968.00,0.0201
967.00,0.0172
966.00,0.0152
965.00,0.0138
964.00,0.0127
963.00,0.0119
962.00,0.0113
961.00,0.0108
960.00,0.0104
959.00,0.0100
958.00,0.0096
957.00,0.0092
956.00,0.0089
955.00,0.0087
954.00,0.0085
953.00,0.0083
952.00,0.0082
951.00,0.0082
950.00,0.0082
949.00,0.0082
948.00,0.0083
947.00,0.0084
946.00,0.0087
945.00,0.0090
944.00,0.0094
943.00,0.0099
942.00,0.0103
941.00,0.0105
940.00,0.0105
939.00,0.0103
938.00,0.0099
937.00,0.0095
936.00,0.0091
935.00,0.0088
934.00,0.0087
933.00,0.0087
932.00,0.0087
931.00,0.0087
930.00,0.0088
929.00,0.0089
928.00,0.0090
927.00,0.0090
926.00,0.0090
925.00,0.0090
924.00,0.0091
923.00,0.0091
922.00,0.0091
921.00,0.0091
920.00,0.0091
919.00,0.0091
918.00,0.0091
917.00,0.0093
916.00,0.0094
915.00,0.0095
914.00,0.0097
913.00,0.0098
912.00,0.0098
911.00,0.0099
910.00,0.0101
909.00,0.0103
908.00,0.0106
907.00,0.0111
906.00,0.0119
905.00,0.0129
904.00,0.0143
903.00,0.0161
902.00,0.0180
901.00,0.0197
900.00,0.0208
899.00,0.0209
898.00,0.0201
897.00,0.0185
896.00,0.0167
895.00,0.0150
894.00,0.0136
893.00,0.0126
892.00,0.0119
891.00,0.0114
890.00,0.0111
889.00,0.0109
888.00,0.0108
887.00,0.0108
886.00,0.0109
885.00,0.0111
884.00,0.0114
883.00,0.0118
882.00,0.0124
881.00,0.0132
880.00,0.0141
879.00,0.0150
878.00,0.0156
877.00,0.0160
876.00,0.0160
875.00,0.0159
874.00,0.0155
873.00,0.0148
872.00,0.0139
871.00,0.0130
870.00,0.0121
869.00,0.0115
868.00,0.0111
867.00,0.0109
866.00,0.0109
865.00,0.0109
864.00,0.0110
863.00,0.0111
862.00,0.0112
861.00,0.0114
860.00,0.0115
859.00,0.0116
858.00,0.0117
857.00,0.0117
856.00,0.0118
855.00,0.0119
854.00,0.0120
853.00,0.0122
852.00,0.0123
851.00,0.0126
850.00,0.0129
849.00,0.0134
848.00,0.0142
847.00,0.0154
846.00,0.0171
845.00,0.0197
844.00,0.0234
843.00,0.0275
842.00,0.0308
841.00,0.0318
840.00,0.0300
839.00,0.0261
838.00,0.0219
837.00,0.0184
836.00,0.0161
835.00,0.0148
834.00,0.0140
833.00,0.0135
832.00,0.0132
831.00,0.0128
830.00,0.0124
829.00,0.0122
828.00,0.0122
827.00,0.0121
826.00,0.0121
825.00,0.0121
824.00,0.0121
823.00,0.0121
822.00,0.0122
821.00,0.0125
820.00,0.0128
819.00,0.0133
818.00,0.0138
817.00,0.0145
816.00,0.0153
815.00,0.0164
814.00,0.0179
813.00,0.0197
812.00,0.0217
811.00,0.0235
810.00,0.0249
809.00,0.0254
808.00,0.0250
807.00,0.0238
806.00,0.0221
805.00,0.0203
804.00,0.0186
803.00,0.0173
802.00,0.0164
801.00,0.0157
800.00,0.0151
799.00,0.0145
798.00,0.0140
797.00,0.0136
796.00,0.0133
795.00,0.0131
794.00,0.0129
793.00,0.0126
792.00,0.0124
791.00,0.0121
790.00,0.0119
789.00,0.0116
788.00,0.0114
787.00,0.0112
786.00,0.0110
785.00,0.0108
784.00,0.0106
783.00,0.0106
782.00,0.0106
781.00,0.0107
780.00,0.0107
779.00,0.0106
778.00,0.0105
777.00,0.0103
776.00,0.0102
775.00,0.0100
774.00,0.0099
773.00,0.0100
772.00,0.0101
771.00,0.0102
770.00,0.0103
769.00,0.0104
768.00,0.0105
767.00,0.0105
766.00,0.0106
765.00,0.0106
764.00,0.0106
763.00,0.0105
762.00,0.0105
761.00,0.0104
760.00,0.0103
759.00,0.0104
758.00,0.0106
757.00,0.0109
756.00,0.0112
755.00,0.0115
754.00,0.0117
753.00,0.0118
752.00,0.0119
751.00,0.0119
750.00,0.0118
749.00,0.0119
748.00,0.0120
747.00,0.0121
746.00,0.0124
745.00,0.0127
744.00,0.0131
743.00,0.0134
742.00,0.0137
741.00,0.0141
740.00,0.0146
739.00,0.0151
738.00,0.0155
737.00,0.0160
736.00,0.0164
735.00,0.0169
734.00,0.0174
733.00,0.0180
732.00,0.0188
731.00,0.0195
730.00,0.0201
729.00,0.0204
728.00,0.0205
727.00,0.0206
726.00,0.0208
725.00,0.0212
724.00,0.0217
723.00,0.0224
722.00,0.0231
721.00,0.0235
720.00,0.0234
719.00,0.0228
718.00,0.0217
717.00,0.0204
716.00,0.0192
715.00,0.0183
714.00,0.0176
713.00,0.0171
712.00,0.0166
711.00,0.0162
710.00,0.0160
709.00,0.0159
708.00,0.0159
707.00,0.0159
706.00,0.0159
705.00,0.0158
704.00,0.0157
703.00,0.0156
702.00,0.0154
701.00,0.0152
700.00,0.0148
699.00,0.0145
698.00,0.0143
697.00,0.0142
696.00,0.0142
695.00,0.0142
694.00,0.0142
693.00,0.0143
692.00,0.0144
691.00,0.0145
690.00,0.0145
689.00,0.0144
688.00,0.0142
687.00,0.0140
686.00,0.0140
685.00,0.0141
684.00,0.0143
683.00,0.0146
682.00,0.0147
681.00,0.0147
680.00,0.0145
679.00,0.0144
678.00,0.0145
677.00,0.0147
676.00,0.0149
675.00,0.0150
674.00,0.0150
673.00,0.0151
672.00,0.0153
671.00,0.0156
670.00,0.0159
669.00,0.0160
668.00,0.0158
667.00,0.0156
666.00,0.0152
665.00,0.0149
664.00,0.0146
663.00,0.0145
662.00,0.0143
661.00,0.0141
660.00,0.0139
659.00,0.0137
658.00,0.0136
657.00,0.0135
656.00,0.0135
655.00,0.0135
654.00,0.0135
653.00,0.0133
652.00,0.0132
651.00,0.0131
650.00,0.0132
649.00,0.0133
648.00,0.0134
647.00,0.0134
646.00,0.0134
645.00,0.0134
644.00,0.0135
643.00,0.0135
642.00,0.0134
641.00,0.0132
640.00,0.0130
639.00,0.0129
638.00,0.0129
637.00,0.0129
636.00,0.0128
635.00,0.0127
634.00,0.0126
633.00,0.0128
632.00,0.0130
631.00,0.0133
630.00,0.0135
629.00,0.0135
628.00,0.0134
627.00,0.0133
626.00,0.0134
625.00,0.0135
624.00,0.0136
623.00,0.0135
622.00,0.0135
621.00,0.0136
620.00,0.0138
619.00,0.0140
618.00,0.0142
617.00,0.0143
616.00,0.0143
615.00,0.0143
614.00,0.0143
613.00,0.0142
612.00,0.0139
611.00,0.0135
610.00,0.0133
609.00,0.0134
608.00,0.0136
607.00,0.0138
606.00,0.0137
605.00,0.0136
604.00,0.0135
603.00,0.0135
602.00,0.0136
601.00,0.0138
600.00,0.0139
599.00,0.0138
598.00,0.0137
597.00,0.0136
596.00,0.0137
595.00,0.0139
594.00,0.0139
593.00,0.0136
592.00,0.0132
591.00,0.0131
590.00,0.0132
589.00,0.0134
588.00,0.0136
587.00,0.0136
586.00,0.0134
585.00,0.0131
584.00,0.0131
583.00,0.0135
582.00,0.0140
581.00,0.0144
580.00,0.0144
579.00,0.0143
578.00,0.0139
577.00,0.0136
576.00,0.0135
575.00,0.0136
574.00,0.0137
573.00,0.0137
572.00,0.0135
571.00,0.0133
570.00,0.0133
569.00,0.0135
568.00,0.0138
567.00,0.0139
566.00,0.0139
565.00,0.0136
564.00,0.0133
563.00,0.0130
562.00,0.0128
561.00,0.0128
560.00,0.0131
559.00,0.0136
558.00,0.0139
557.00,0.0140
556.00,0.0137
555.00,0.0133
554.00,0.0132
553.00,0.0133
552.00,0.0133
551.00,0.0132
550.00,0.0130
549.00,0.0128
548.00,0.0129
547.00,0.0132
546.00,0.0135
545.00,0.0136
544.00,0.0134
543.00,0.0133
542.00,0.0134
541.00,0.0137
540.00,0.0141
539.00,0.0145
538.00,0.0150
537.00,0.0153
536.00,0.0155
535.00,0.0156
534.00,0.0159
533.00,0.0162
532.00,0.0164
531.00,0.0164
530.00,0.0163
529.00,0.0161
528.00,0.0158
527.00,0.0154
526.00,0.0149
525.00,0.0143
524.00,0.0137
523.00,0.0133
522.00,0.0132
521.00,0.0133
520.00,0.0133
519.00,0.0132
518.00,0.0131
517.00,0.0131
516.00,0.0132
515.00,0.0133
514.00,0.0133
513.00,0.0132
512.00,0.0131
511.00,0.0130
510.00,0.0132
509.00,0.0134
508.00,0.0134
507.00,0.0135
506.00,0.0136
505.00,0.0139
504.00,0.0142
503.00,0.0141
502.00,0.0137
501.00,0.0133
500.00,0.0131
499.00,0.0130
498.00,0.0129
497.00,0.0128
496.00,0.0126
495.00,0.0125
494.00,0.0126
493.00,0.0127
492.00,0.0127
491.00,0.0126
490.00,0.0126
489.00,0.0127
488.00,0.0130
487.00,0.0133
486.00,0.0135
485.00,0.0136
484.00,0.0136
483.00,0.0133
482.00,0.0128
481.00,0.0126
480.00,0.0127
479.00,0.0131
478.00,0.0133
477.00,0.0133
476.00,0.0135
475.00,0.0141
474.00,0.0150
473.00,0.0160
472.00,0.0171
471.00,0.0187
470.00,0.0205
469.00,0.0218
468.00,0.0223
467.00,0.0221
466.00,0.0216
465.00,0.0212
464.00,0.0209
463.00,0.0212
462.00,0.0222
461.00,0.0238
460.00,0.0253
459.00,0.0259
458.00,0.0251
457.00,0.0236
456.00,0.0225
455.00,0.0222
454.00,0.0224
453.00,0.0227
452.00,0.0229
451.00,0.0229
450.00,0.0224
