Created as New Dataset,Sample 005 By Administrator Date Friday, September 05 2025
cm-1,A
4000.00,0.0011
3999.00,0.0011
3998.00,0.0011
3997.00,0.0011
3996.00,0.0011
3995.00,0.0011
3994.00,0.0011
3993.00,0.0011
3992.00,0.0011
3991.00,0.0011
3990.00,0.0011
3989.00,0.0010
3988.00,0.0010
3987.00,0.0010
3986.00,0.0010
3985.00,0.0011
3984.00,0.0011
3983.00,0.0011
3982.00,0.0011
3981.00,0.0011
3980.00,0.0010
3979.00,0.0010
3978.00,0.0010
3977.00,0.0009
3976.00,0.0009
3975.00,0.0009
3974.00,0.0009
3973.00,0.0009
3972.00,0.0009
3971.00,0.0009
3970.00,0.0009
3969.00,0.0008
3968.00,0.0008
3967.00,0.0009
3966.00,0.0009
3965.00,0.0009
3964.00,0.0009
3963.00,0.0009
3962.00,0.0009
3961.00,0.0008
3960.00,0.0008
3959.00,0.0008
3958.00,0.0008
3957.00,0.0008
3956.00,0.0008
3955.00,0.0008
3954.00,0.0008
3953.00,0.0008
3952.00,0.0008
3951.00,0.0008
3950.00,0.0008
3949.00,0.0008
3948.00,0.0008
3947.00,0.0008
3946.00,0.0008
3945.00,0.0008
3944.00,0.0009
3943.00,0.0009
3942.00,0.0009
3941.00,0.0009
3940.00,0.0009
3939.00,0.0009
3938.00,0.0008
3937.00,0.0008
3936.00,0.0008
3935.00,0.0009
3934.00,0.0009
3933.00,0.0009
3932.00,0.0009
3931.00,0.0009
3930.00,0.0009
3929.00,0.0009
3928.00,0.0009
3927.00,0.0009
3926.00,0.0010
3925.00,0.0010
3924.00,0.0010
3923.00,0.0010
3922.00,0.0009
3921.00,0.0009
3920.00,0.0008
3919.00,0.0008
3918.00,0.0008
3917.00,0.0009
3916.00,0.0009
3915.00,0.0009
3914.00,0.0009
3913.00,0.0009
3912.00,0.0009
3911.00,0.0009
3910.00,0.0009
3909.00,0.0009
3908.00,0.0009
3907.00,0.0008
3906.00,0.0008
3905.00,0.0008
3904.00,0.0008
3903.00,0.0007
3902.00,0.0007
3901.00,0.0007
3900.00,0.0007
3899.00,0.0007
3898.00,0.0007
3897.00,0.0008
3896.00,0.0008
3895.00,0.0008
3894.00,0.0008
3893.00,0.0008
3892.00,0.0008
3891.00,0.0008
3890.00,0.0008
3889.00,0.0008
3888.00,0.0007
3887.00,0.0007
3886.00,0.0007
3885.00,0.0007
3884.00,0.0008
3883.00,0.0008
3882.00,0.0009
3881.00,0.0009
3880.00,0.0009
3879.00,0.0009
3878.00,0.0009
3877.00,0.0008
3876.00,0.0008
3875.00,0.0008
3874.00,0.0008
3873.00,0.0007
3872.00,0.0007
3871.00,0.0008
3870.00,0.0008
3869.00,0.0008
3868.00,0.0007
3867.00,0.0007
3866.00,0.0007
3865.00,0.0007
3864.00,0.0007
3863.00,0.0008
3862.00,0.0008
3861.00,0.0008
3860.00,0.0008
3859.00,0.0008
3858.00,0.0008
3857.00,0.0008
3856.00,0.0007
3855.00,0.0008
3854.00,0.0008
3853.00,0.0008
3852.00,0.0008
3851.00,0.0007
3850.00,0.0007
3849.00,0.0007
3848.00,0.0007
3847.00,0.0007
3846.00,0.0008
3845.00,0.0008
3844.00,0.0008
3843.00,0.0009
3842.00,0.0009
3841.00,0.0008
3840.00,0.0008
3839.00,0.0008
3838.00,0.0008
3837.00,0.0007
3836.00,0.0007
3835.00,0.0007
3834.00,0.0007
3833.00,0.0007
3832.00,0.0008
3831.00,0.0008
3830.00,0.0008
3829.00,0.0008
3828.00,0.0008
3827.00,0.0008
3826.00,0.0008
3825.00,0.0008
3824.00,0.0007
3823.00,0.0007
3822.00,0.0007
3821.00,0.0007
3820.00,0.0007
3819.00,0.0007
3818.00,0.0007
3817.00,0.0008
3816.00,0.0008
3815.00,0.0008
3814.00,0.0008
3813.00,0.0008
3812.00,0.0008
3811.00,0.0008
3810.00,0.0009
3809.00,0.0009
3808.00,0.0009
3807.00,0.0009
3806.00,0.0008
3805.00,0.0008
3804.00,0.0008
3803.00,0.0009
3802.00,0.0008
3801.00,0.0008
3800.00,0.0007
3799.00,0.0007
3798.00,0.0007
3797.00,0.0008
3796.00,0.0008
3795.00,0.0009
3794.00,0.0009
3793.00,0.0009
3792.00,0.0009
3791.00,0.0009
3790.00,0.0009
3789.00,0.0009
3788.00,0.0008
3787.00,0.0008
3786.00,0.0008
3785.00,0.0007
3784.00,0.0007
3783.00,0.0007
3782.00,0.0007
3781.00,0.0007
3780.00,0.0008
3779.00,0.0008
3778.00,0.0008
3777.00,0.0008
3776.00,0.0008
3775.00,0.0009
3774.00,0.0009
3773.00,0.0009
3772.00,0.0009
3771.00,0.0009
3770.00,0.0008
3769.00,0.0008
3768.00,0.0008
3767.00,0.0008
3766.00,0.0008
3765.00,0.0008
3764.00,0.0008
3763.00,0.0008
3762.00,0.0008
3761.00,0.0008
3760.00,0.0009
3759.00,0.0009
3758.00,0.0009
3757.00,0.0009
3756.00,0.0009
3755.00,0.0009
3754.00,0.0009
3753.00,0.0009
3752.00,0.0008
3751.00,0.0007
3750.00,0.0007
3749.00,0.0007
3748.00,0.0006
3747.00,0.0006
3746.00,0.0005
3745.00,0.0005
3744.00,0.0005
3743.00,0.0005
3742.00,0.0006
3741.00,0.0006
3740.00,0.0007
3739.00,0.0007
3738.00,0.0008
3737.00,0.0008
3736.00,0.0007
3735.00,0.0007
3734.00,0.0006
3733.00,0.0006
3732.00,0.0006
3731.00,0.0007
3730.00,0.0007
3729.00,0.0008
3728.00,0.0008
3727.00,0.0008
3726.00,0.0008
3725.00,0.0008
3724.00,0.0007
3723.00,0.0007
3722.00,0.0007
3721.00,0.0007
3720.00,0.0007
3719.00,0.0007
3718.00,0.0007
3717.00,0.0007
3716.00,0.0006
3715.00,0.0006
3714.00,0.0006
3713.00,0.0005
3712.00,0.0005
3711.00,0.0005
3710.00,0.0005
3709.00,0.0005
3708.00,0.0006
3707.00,0.0006
3706.00,0.0007
3705.00,0.0006
3704.00,0.0006
3703.00,0.0005
3702.00,0.0005
3701.00,0.0005
3700.00,0.0006
3699.00,0.0006
3698.00,0.0006
3697.00,0.0006
3696.00,0.0006
3695.00,0.0006
3694.00,0.0006
3693.00,0.0007
3692.00,0.0007
3691.00,0.0007
3690.00,0.0007
3689.00,0.0007
3688.00,0.0006
3687.00,0.0006
3686.00,0.0006
3685.00,0.0006
3684.00,0.0006
3683.00,0.0006
3682.00,0.0006
3681.00,0.0007
3680.00,0.0007
3679.00,0.0007
3678.00,0.0007
3677.00,0.0007
3676.00,0.0008
3675.00,0.0007
3674.00,0.0007
3673.00,0.0006
3672.00,0.0006
3671.00,0.0007
3670.00,0.0007
3669.00,0.0007
3668.00,0.0006
3667.00,0.0006
3666.00,0.0005
3665.00,0.0005
3664.00,0.0005
3663.00,0.0005
3662.00,0.0006
3661.00,0.0006
3660.00,0.0005
3659.00,0.0005
3658.00,0.0004
3657.00,0.0004
3656.00,0.0004
3655.00,0.0005
3654.00,0.0004
3653.00,0.0004
3652.00,0.0004
3651.00,0.0004
3650.00,0.0004
3649.00,0.0004
3648.00,0.0004
3647.00,0.0004
3646.00,0.0005
3645.00,0.0005
3644.00,0.0005
3643.00,0.0006
3642.00,0.0006
3641.00,0.0007
3640.00,0.0007
3639.00,0.0007
3638.00,0.0006
3637.00,0.0006
3636.00,0.0006
3635.00,0.0006
3634.00,0.0006
3633.00,0.0005
3632.00,0.0004
3631.00,0.0004
3630.00,0.0003
3629.00,0.0003
3628.00,0.0004
3627.00,0.0004
3626.00,0.0004
3625.00,0.0004
3624.00,0.0005
3623.00,0.0005
3622.00,0.0005
3621.00,0.0005
3620.00,0.0005
3619.00,0.0004
3618.00,0.0004
3617.00,0.0004
3616.00,0.0004
3615.00,0.0005
3614.00,0.0005
3613.00,0.0005
3612.00,0.0006
3611.00,0.0006
3610.00,0.0006
3609.00,0.0006
3608.00,0.0006
3607.00,0.0006
3606.00,0.0006
3605.00,0.0006
3604.00,0.0006
3603.00,0.0006
3602.00,0.0006
3601.00,0.0006
3600.00,0.0006
3599.00,0.0006
3598.00,0.0005
3597.00,0.0005
3596.00,0.0005
3595.00,0.0005
3594.00,0.0005
3593.00,0.0006
3592.00,0.0006
3591.00,0.0006
3590.00,0.0006
3589.00,0.0006
3588.00,0.0006
3587.00,0.0006
3586.00,0.0006
3585.00,0.0006
3584.00,0.0006
3583.00,0.0007
3582.00,0.0007
3581.00,0.0006
3580.00,0.0006
3579.00,0.0006
3578.00,0.0006
3577.00,0.0006
3576.00,0.0006
3575.00,0.0007
3574.00,0.0007
3573.00,0.0007
3572.00,0.0007
3571.00,0.0007
3570.00,0.0007
3569.00,0.0007
3568.00,0.0007
3567.00,0.0007
3566.00,0.0007
3565.00,0.0007
3564.00,0.0007
3563.00,0.0007
3562.00,0.0006
3561.00,0.0007
3560.00,0.0007
3559.00,0.0008
3558.00,0.0008
3557.00,0.0008
3556.00,0.0008
3555.00,0.0009
3554.00,0.0009
3553.00,0.0010
3552.00,0.0010
3551.00,0.0010
3550.00,0.0010
3549.00,0.0010
3548.00,0.0009
3547.00,0.0009
3546.00,0.0009
3545.00,0.0009
3544.00,0.0009
3543.00,0.0010
3542.00,0.0010
3541.00,0.0010
3540.00,0.0010
3539.00,0.0010
3538.00,0.0010
3537.00,0.0010
3536.00,0.0010
3535.00,0.0011
3534.00,0.0011
3533.00,0.0011
3532.00,0.0012
3531.00,0.0012
3530.00,0.0012
3529.00,0.0012
3528.00,0.0011
3527.00,0.0011
3526.00,0.0011
3525.00,0.0010
3524.00,0.0011
3523.00,0.0011
3522.00,0.0011
3521.00,0.0011
3520.00,0.0012
3519.00,0.0012
3518.00,0.0012
3517.00,0.0013
3516.00,0.0013
3515.00,0.0013
3514.00,0.0012
3513.00,0.0012
3512.00,0.0012
3511.00,0.0012
3510.00,0.0012
3509.00,0.0012
3508.00,0.0012
3507.00,0.0012
3506.00,0.0012
3505.00,0.0012
3504.00,0.0012
3503.00,0.0012
3502.00,0.0012
3501.00,0.0013
3500.00,0.0013
3499.00,0.0014
3498.00,0.0014
3497.00,0.0015
3496.00,0.0015
3495.00,0.0014
3494.00,0.0014
3493.00,0.0014
3492.00,0.0013
3491.00,0.0013
3490.00,0.0013
3489.00,0.0013
3488.00,0.0014
3487.00,0.0014
3486.00,0.0014
3485.00,0.0014
3484.00,0.0014
3483.00,0.0014
3482.00,0.0014
3481.00,0.0014
3480.00,0.0014
3479.00,0.0014
3478.00,0.0014
3477.00,0.0015
3476.00,0.0016
3475.00,0.0016
3474.00,0.0016
3473.00,0.0016
3472.00,0.0015
3471.00,0.0015
3470.00,0.0015
3469.00,0.0015
3468.00,0.0015
3467.00,0.0015
3466.00,0.0016
3465.00,0.0016
3464.00,0.0016
3463.00,0.0016
3462.00,0.0016
3461.00,0.0016
3460.00,0.0016
3459.00,0.0016
3458.00,0.0016
3457.00,0.0016
3456.00,0.0016
3455.00,0.0016
3454.00,0.0016
3453.00,0.0016
3452.00,0.0016
3451.00,0.0016
3450.00,0.0016
3449.00,0.0016
3448.00,0.0017
3447.00,0.0017
3446.00,0.0018
3445.00,0.0018
3444.00,0.0018
3443.00,0.0018
3442.00,0.0018
3441.00,0.0019
3440.00,0.0019
3439.00,0.0019
3438.00,0.0019
3437.00,0.0019
3436.00,0.0019
3435.00,0.0019
3434.00,0.0020
3433.00,0.0020
3432.00,0.0020
3431.00,0.0020
3430.00,0.0019
3429.00,0.0019
3428.00,0.0019
3427.00,0.0019
3426.00,0.0019
3425.00,0.0019
3424.00,0.0019
3423.00,0.0019
3422.00,0.0020
3421.00,0.0020
3420.00,0.0020
3419.00,0.0020
3418.00,0.0020
3417.00,0.0020
3416.00,0.0020
3415.00,0.0020
3414.00,0.0020
3413.00,0.0020
3412.00,0.0020
3411.00,0.0021
3410.00,0.0021
3409.00,0.0021
3408.00,0.0021
3407.00,0.0021
3406.00,0.0021
3405.00,0.0020
3404.00,0.0020
3403.00,0.0021
3402.00,0.0021
3401.00,0.0021
3400.00,0.0021
3399.00,0.0020
3398.00,0.0020
3397.00,0.0020
3396.00,0.0020
3395.00,0.0020
3394.00,0.0021
3393.00,0.0021
3392.00,0.0021
3391.00,0.0021
3390.00,0.0021
3389.00,0.0021
3388.00,0.0021
3387.00,0.0021
3386.00,0.0021
3385.00,0.0021
3384.00,0.0021
3383.00,0.0021
3382.00,0.0021
3381.00,0.0021
3380.00,0.0021
3379.00,0.0021
3378.00,0.0021
3377.00,0.0021
3376.00,0.0021
3375.00,0.0021
3374.00,0.0021
3373.00,0.0021
3372.00,0.0021
3371.00,0.0020
3370.00,0.0021
3369.00,0.0021
3368.00,0.0021
3367.00,0.0022
3366.00,0.0022
3365.00,0.0022
3364.00,0.0022
3363.00,0.0022
3362.00,0.0022
3361.00,0.0022
3360.00,0.0022
3359.00,0.0022
3358.00,0.0022
3357.00,0.0022
3356.00,0.0022
3355.00,0.0022
3354.00,0.0021
3353.00,0.0021
3352.00,0.0021
3351.00,0.0021
3350.00,0.0021
3349.00,0.0022
3348.00,0.0022
3347.00,0.0022
3346.00,0.0021
3345.00,0.0021
3344.00,0.0022
3343.00,0.0022
3342.00,0.0022
3341.00,0.0022
3340.00,0.0022
3339.00,0.0022
3338.00,0.0022
3337.00,0.0022
3336.00,0.0022
3335.00,0.0022
3334.00,0.0022
3333.00,0.0022
3332.00,0.0022
3331.00,0.0022
3330.00,0.0021
3329.00,0.0021
3328.00,0.0021
3327.00,0.0020
3326.00,0.0020
3325.00,0.0020
3324.00,0.0021
3323.00,0.0021
3322.00,0.0021
3321.00,0.0021
3320.00,0.0021
3319.00,0.0021
3318.00,0.0021
3317.00,0.0021
3316.00,0.0021
3315.00,0.0021
3314.00,0.0020
3313.00,0.0020
3312.00,0.0020
3311.00,0.0020
3310.00,0.0020
3309.00,0.0021
3308.00,0.0021
3307.00,0.0021
3306.00,0.0022
3305.00,0.0022
3304.00,0.0022
3303.00,0.0023
3302.00,0.0023
3301.00,0.0023
3300.00,0.0023
3299.00,0.0023
3298.00,0.0023
3297.00,0.0023
3296.00,0.0022
3295.00,0.0021
3294.00,0.0021
3293.00,0.0021
3292.00,0.0021
3291.00,0.0021
3290.00,0.0021
3289.00,0.0021
3288.00,0.0021
3287.00,0.0020
3286.00,0.0020
3285.00,0.0020
3284.00,0.0021
3283.00,0.0021
3282.00,0.0021
3281.00,0.0020
3280.00,0.0020
3279.00,0.0020
3278.00,0.0020
3277.00,0.0020
3276.00,0.0019
3275.00,0.0019
3274.00,0.0019
3273.00,0.0019
3272.00,0.0019
3271.00,0.0019
3270.00,0.0020
3269.00,0.0020
3268.00,0.0020
3267.00,0.0019
3266.00,0.0019
3265.00,0.0019
3264.00,0.0019
3263.00,0.0019
3262.00,0.0019
3261.00,0.0019
3260.00,0.0019
3259.00,0.0019
3258.00,0.0018
3257.00,0.0018
3256.00,0.0018
3255.00,0.0018
3254.00,0.0018
3253.00,0.0018
3252.00,0.0018
3251.00,0.0018
3250.00,0.0018
3249.00,0.0018
3248.00,0.0018
3247.00,0.0018
3246.00,0.0018
3245.00,0.0018
3244.00,0.0018
3243.00,0.0018
3242.00,0.0018
3241.00,0.0018
3240.00,0.0018
3239.00,0.0019
3238.00,0.0019
3237.00,0.0019
3236.00,0.0020
3235.00,0.0020
3234.00,0.0019
3233.00,0.0019
3232.00,0.0018
3231.00,0.0018
3230.00,0.0019
3229.00,0.0019
3228.00,0.0019
3227.00,0.0020
3226.00,0.0020
3225.00,0.0020
3224.00,0.0021
3223.00,0.0021
3222.00,0.0021
3221.00,0.0021
3220.00,0.0021
3219.00,0.0021
3218.00,0.0021
3217.00,0.0022
3216.00,0.0022
3215.00,0.0023
3214.00,0.0023
3213.00,0.0023
3212.00,0.0023
3211.00,0.0023
3210.00,0.0022
3209.00,0.0022
3208.00,0.0022
3207.00,0.0023
3206.00,0.0023
3205.00,0.0024
3204.00,0.0024
3203.00,0.0024
3202.00,0.0024
3201.00,0.0024
3200.00,0.0024
3199.00,0.0024
3198.00,0.0024
3197.00,0.0024
3196.00,0.0024
3195.00,0.0024
3194.00,0.0024
3193.00,0.0024
3192.00,0.0024
3191.00,0.0024
3190.00,0.0024
3189.00,0.0024
3188.00,0.0024
3187.00,0.0024
3186.00,0.0023
3185.00,0.0023
3184.00,0.0023
3183.00,0.0023
3182.00,0.0023
3181.00,0.0023
3180.00,0.0022
3179.00,0.0022
3178.00,0.0022
3177.00,0.0021
3176.00,0.0021
3175.00,0.0022
3174.00,0.0022
3173.00,0.0022
3172.00,0.0023
3171.00,0.0022
3170.00,0.0022
3169.00,0.0021
3168.00,0.0021
3167.00,0.0021
3166.00,0.0021
3165.00,0.0022
3164.00,0.0022
3163.00,0.0022
3162.00,0.0022
3161.00,0.0022
3160.00,0.0022
3159.00,0.0022
3158.00,0.0022
3157.00,0.0022
3156.00,0.0022
3155.00,0.0022
3154.00,0.0022
3153.00,0.0022
3152.00,0.0022
3151.00,0.0022
3150.00,0.0023
3149.00,0.0023
3148.00,0.0023
3147.00,0.0023
3146.00,0.0023
3145.00,0.0023
3144.00,0.0022
3143.00,0.0022
3142.00,0.0022
3141.00,0.0022
3140.00,0.0022
3139.00,0.0022
3138.00,0.0022
3137.00,0.0022
3136.00,0.0021
3135.00,0.0021
3134.00,0.0021
3133.00,0.0021
3132.00,0.0021
3131.00,0.0021
3130.00,0.0021
3129.00,0.0021
3128.00,0.0021
3127.00,0.0021
3126.00,0.0021
3125.00,0.0020
3124.00,0.0020
3123.00,0.0020
3122.00,0.0020
3121.00,0.0020
3120.00,0.0020
3119.00,0.0020
3118.00,0.0020
3117.00,0.0019
3116.00,0.0019
3115.00,0.0019
3114.00,0.0019
3113.00,0.0018
3112.00,0.0018
3111.00,0.0018
3110.00,0.0018
3109.00,0.0018
3108.00,0.0018
3107.00,0.0018
3106.00,0.0018
3105.00,0.0018
3104.00,0.0018
3103.00,0.0019
3102.00,0.0019
3101.00,0.0019
3100.00,0.0019
3099.00,0.0019
3098.00,0.0019
3097.00,0.0019
3096.00,0.0019
3095.00,0.0019
3094.00,0.0020
3093.00,0.0019
3092.00,0.0019
3091.00,0.0019
3090.00,0.0019
3089.00,0.0019
3088.00,0.0019
3087.00,0.0019
3086.00,0.0019
3085.00,0.0019
3084.00,0.0018
3083.00,0.0018
3082.00,0.0018
3081.00,0.0018
3080.00,0.0018
3079.00,0.0018
3078.00,0.0019
3077.00,0.0019
3076.00,0.0019
3075.00,0.0020
3074.00,0.0020
3073.00,0.0020
3072.00,0.0020
3071.00,0.0020
3070.00,0.0021
3069.00,0.0021
3068.00,0.0021
3067.00,0.0021
3066.00,0.0021
3065.00,0.0022
3064.00,0.0022
3063.00,0.0022
3062.00,0.0022
3061.00,0.0022
3060.00,0.0023
3059.00,0.0023
3058.00,0.0023
3057.00,0.0023
3056.00,0.0023
3055.00,0.0024
3054.00,0.0024
3053.00,0.0024
3052.00,0.0025
3051.00,0.0025
3050.00,0.0025
3049.00,0.0025
3048.00,0.0025
3047.00,0.0025
3046.00,0.0025
3045.00,0.0026
3044.00,0.0026
3043.00,0.0026
3042.00,0.0027
3041.00,0.0027
3040.00,0.0027
3039.00,0.0028
3038.00,0.0028
3037.00,0.0028
3036.00,0.0028
3035.00,0.0028
3034.00,0.0028
3033.00,0.0028
3032.00,0.0028
3031.00,0.0028
3030.00,0.0029
3029.00,0.0029
3028.00,0.0030
3027.00,0.0030
3026.00,0.0031
3025.00,0.0032
3024.00,0.0032
3023.00,0.0033
3022.00,0.0034
3021.00,0.0035
3020.00,0.0036
3019.00,0.0037
3018.00,0.0038
3017.00,0.0039
3016.00,0.0040
3015.00,0.0040
3014.00,0.0041
3013.00,0.0042
3012.00,0.0043
3011.00,0.0045
3010.00,0.0047
3009.00,0.0048
3008.00,0.0050
3007.00,0.0051
3006.00,0.0053
3005.00,0.0054
3004.00,0.0057
3003.00,0.0059
3002.00,0.0061
3001.00,0.0063
3000.00,0.0066
2999.00,0.0068
2998.00,0.0071
2997.00,0.0074
2996.00,0.0078
2995.00,0.0081
2994.00,0.0086
2993.00,0.0091
2992.00,0.0096
2991.00,0.0102
2990.00,0.0108
2989.00,0.0114
2988.00,0.0122
2987.00,0.0130
2986.00,0.0139
2985.00,0.0149
2984.00,0.0160
2983.00,0.0173
2982.00,0.0188
2981.00,0.0205
2980.00,0.0224
2979.00,0.0246
2978.00,0.0270
2977.00,0.0298
2976.00,0.0329
2975.00,0.0365
2974.00,0.0406
2973.00,0.0453
2972.00,0.0506
2971.00,0.0565
2970.00,0.0631
2969.00,0.0702
2968.00,0.0778
2967.00,0.0858
2966.00,0.0941
2965.00,0.1022
2964.00,0.1099
2963.00,0.1167
2962.00,0.1224
2961.00,0.1268
2960.00,0.1304
2959.00,0.1337
2958.00,0.1376
2957.00,0.1427
2956.00,0.1496
2955.00,0.1584
2954.00,0.1690
2953.00,0.1803
2952.00,0.1909
2951.00,0.1989
2950.00,0.2028
2949.00,0.2013
2948.00,0.1944
2947.00,0.1831
2946.00,0.1690
2945.00,0.1541
2944.00,0.1400
2943.00,0.1279
2942.00,0.1184
2941.00,0.1118
2940.00,0.1078
2939.00,0.1063
2938.00,0.1069
2937.00,0.1095
2936.00,0.1137
2935.00,0.1197
2934.00,0.1272
2933.00,0.1361
2932.00,0.1464
2931.00,0.1579
2930.00,0.1702
2929.00,0.1832
2928.00,0.1965
2927.00,0.2097
2926.00,0.2228
2925.00,0.2357
2924.00,0.2487
2923.00,0.2619
2922.00,0.2753
2921.00,0.2886
2920.00,0.3008
2919.00,0.3103
2918.00,0.3154
2917.00,0.3150
2916.00,0.3089
2915.00,0.2980
2914.00,0.2842
2913.00,0.2693
2912.00,0.2548
2911.00,0.2417
2910.00,0.2302
2909.00,0.2201
2908.00,0.2110
2907.00,0.2024
2906.00,0.1942
2905.00,0.1862
2904.00,0.1783
2903.00,0.1706
2902.00,0.1632
2901.00,0.1560
2900.00,0.1492
2899.00,0.1427
2898.00,0.1368
2897.00,0.1313
2896.00,0.1264
2895.00,0.1222
2894.00,0.1186
2893.00,0.1159
2892.00,0.1138
2891.00,0.1123
2890.00,0.1115
2889.00,0.1110
2888.00,0.1109
2887.00,0.1111
2886.00,0.1117
2885.00,0.1126
2884.00,0.1140
2883.00,0.1158
2882.00,0.1180
2881.00,0.1205
2880.00,0.1228
2879.00,0.1246
2878.00,0.1256
2877.00,0.1256
2876.00,0.1249
2875.00,0.1240
2874.00,0.1234
2873.00,0.1236
2872.00,0.1247
2871.00,0.1267
2870.00,0.1293
2869.00,0.1319
2868.00,0.1337
2867.00,0.1337
2866.00,0.1313
2865.00,0.1260
2864.00,0.1185
2863.00,0.1096
2862.00,0.1007
2861.00,0.0927
2860.00,0.0862
2859.00,0.0816
2858.00,0.0787
2857.00,0.0772
2856.00,0.0769
2855.00,0.0775
2854.00,0.0787
2853.00,0.0805
2852.00,0.0824
2851.00,0.0844
2850.00,0.0862
2849.00,0.0878
2848.00,0.0895
2847.00,0.0917
2846.00,0.0947
2845.00,0.0988
2844.00,0.1039
2843.00,0.1096
2842.00,0.1154
2841.00,0.1205
2840.00,0.1241
2839.00,0.1254
2838.00,0.1239
2837.00,0.1194
2836.00,0.1120
2835.00,0.1025
2834.00,0.0918
2833.00,0.0811
2832.00,0.0710
2831.00,0.0621
2830.00,0.0546
2829.00,0.0485
2828.00,0.0435
2827.00,0.0395
2826.00,0.0362
2825.00,0.0334
2824.00,0.0311
2823.00,0.0291
2822.00,0.0274
2821.00,0.0260
2820.00,0.0247
2819.00,0.0236
2818.00,0.0226
2817.00,0.0218
2816.00,0.0211
2815.00,0.0204
2814.00,0.0198
2813.00,0.0192
2812.00,0.0187
2811.00,0.0181
2810.00,0.0175
2809.00,0.0169
2808.00,0.0163
2807.00,0.0156
2806.00,0.0149
2805.00,0.0143
2804.00,0.0136
2803.00,0.0130
2802.00,0.0124
2801.00,0.0120
2800.00,0.0116
2799.00,0.0112
2798.00,0.0110
2797.00,0.0107
2796.00,0.0105
2795.00,0.0102
2794.00,0.0100
2793.00,0.0097
2792.00,0.0094
2791.00,0.0091
2790.00,0.0088
2789.00,0.0085
2788.00,0.0082
2787.00,0.0079
2786.00,0.0077
2785.00,0.0075
2784.00,0.0072
2783.00,0.0070
2782.00,0.0068
2781.00,0.0067
2780.00,0.0065
2779.00,0.0064
2778.00,0.0062
2777.00,0.0060
2776.00,0.0059
2775.00,0.0057
2774.00,0.0056
2773.00,0.0056
2772.00,0.0055
2771.00,0.0055
2770.00,0.0055
2769.00,0.0054
2768.00,0.0054
2767.00,0.0053
2766.00,0.0053
2765.00,0.0053
2764.00,0.0053
2763.00,0.0052
2762.00,0.0052
2761.00,0.0051
2760.00,0.0051
2759.00,0.0051
2758.00,0.0050
2757.00,0.0050
2756.00,0.0050
2755.00,0.0050
2754.00,0.0050
2753.00,0.0050
2752.00,0.0050
2751.00,0.0049
2750.00,0.0049
2749.00,0.0048
2748.00,0.0049
2747.00,0.0049
2746.00,0.0050
2745.00,0.0051
2744.00,0.0051
2743.00,0.0052
2742.00,0.0053
2741.00,0.0054
2740.00,0.0055
2739.00,0.0056
2738.00,0.0058
2737.00,0.0059
2736.00,0.0061
2735.00,0.0062
2734.00,0.0064
2733.00,0.0066
2732.00,0.0068
2731.00,0.0070
2730.00,0.0073
2729.00,0.0075
2728.00,0.0078
2727.00,0.0081
2726.00,0.0083
2725.00,0.0086
2724.00,0.0087
2723.00,0.0088
2722.00,0.0088
2721.00,0.0086
2720.00,0.0084
2719.00,0.0080
2718.00,0.0077
2717.00,0.0074
2716.00,0.0070
2715.00,0.0067
2714.00,0.0064
2713.00,0.0062
2712.00,0.0060
2711.00,0.0058
2710.00,0.0056
2709.00,0.0055
2708.00,0.0053
2707.00,0.0052
2706.00,0.0051
2705.00,0.0049
2704.00,0.0048
2703.00,0.0047
2702.00,0.0046
2701.00,0.0045
2700.00,0.0044
2699.00,0.0044
2698.00,0.0044
2697.00,0.0044
2696.00,0.0044
2695.00,0.0044
2694.00,0.0044
2693.00,0.0044
2692.00,0.0044
2691.00,0.0043
2690.00,0.0043
2689.00,0.0043
2688.00,0.0044
2687.00,0.0044
2686.00,0.0044
2685.00,0.0043
2684.00,0.0043
2683.00,0.0043
2682.00,0.0043
2681.00,0.0043
2680.00,0.0044
2679.00,0.0044
2678.00,0.0044
2677.00,0.0044
2676.00,0.0044
2675.00,0.0044
2674.00,0.0044
2673.00,0.0044
2672.00,0.0044
2671.00,0.0043
2670.00,0.0043
2669.00,0.0043
2668.00,0.0043
2667.00,0.0043
2666.00,0.0044
2665.00,0.0044
2664.00,0.0045
2663.00,0.0046
2662.00,0.0046
2661.00,0.0047
2660.00,0.0047
2659.00,0.0047
2658.00,0.0047
2657.00,0.0047
2656.00,0.0047
2655.00,0.0046
2654.00,0.0046
2653.00,0.0045
2652.00,0.0044
2651.00,0.0044
2650.00,0.0043
2649.00,0.0043
2648.00,0.0042
2647.00,0.0042
2646.00,0.0041
2645.00,0.0041
2644.00,0.0041
2643.00,0.0041
2642.00,0.0040
2641.00,0.0039
2640.00,0.0038
2639.00,0.0038
2638.00,0.0038
2637.00,0.0038
2636.00,0.0038
2635.00,0.0038
2634.00,0.0038
2633.00,0.0038
2632.00,0.0038
2631.00,0.0038
2630.00,0.0038
2629.00,0.0039
2628.00,0.0039
2627.00,0.0039
2626.00,0.0039
2625.00,0.0040
2624.00,0.0040
2623.00,0.0040
2622.00,0.0041
2621.00,0.0041
2620.00,0.0041
2619.00,0.0040
2618.00,0.0040
2617.00,0.0040
2616.00,0.0040
2615.00,0.0040
2614.00,0.0040
2613.00,0.0040
2612.00,0.0039
2611.00,0.0039
2610.00,0.0038
2609.00,0.0037
2608.00,0.0036
2607.00,0.0035
2606.00,0.0034
2605.00,0.0034
2604.00,0.0033
2603.00,0.0032
2602.00,0.0031
2601.00,0.0031
2600.00,0.0030
2599.00,0.0030
2598.00,0.0030
2597.00,0.0030
2596.00,0.0030
2595.00,0.0031
2594.00,0.0031
2593.00,0.0032
2592.00,0.0032
2591.00,0.0034
2590.00,0.0035
2589.00,0.0036
2588.00,0.0037
2587.00,0.0038
2586.00,0.0038
2585.00,0.0039
2584.00,0.0040
2583.00,0.0040
2582.00,0.0041
2581.00,0.0040
2580.00,0.0040
2579.00,0.0039
2578.00,0.0037
2577.00,0.0036
2576.00,0.0034
2575.00,0.0032
2574.00,0.0031
2573.00,0.0030
2572.00,0.0029
2571.00,0.0029
2570.00,0.0028
2569.00,0.0027
2568.00,0.0026
2567.00,0.0025
2566.00,0.0025
2565.00,0.0024
2564.00,0.0025
2563.00,0.0025
2562.00,0.0025
2561.00,0.0024
2560.00,0.0024
2559.00,0.0023
2558.00,0.0022
2557.00,0.0021
2556.00,0.0021
2555.00,0.0020
2554.00,0.0020
2553.00,0.0019
2552.00,0.0019
2551.00,0.0019
2550.00,0.0019
2549.00,0.0019
2548.00,0.0019
2547.00,0.0019
2546.00,0.0018
2545.00,0.0018
2544.00,0.0017
2543.00,0.0017
2542.00,0.0017
2541.00,0.0016
2540.00,0.0016
2539.00,0.0016
2538.00,0.0016
2537.00,0.0016
2536.00,0.0015
2535.00,0.0015
2534.00,0.0015
2533.00,0.0015
2532.00,0.0015
2531.00,0.0015
2530.00,0.0015
2529.00,0.0014
2528.00,0.0014
2527.00,0.0014
2526.00,0.0014
2525.00,0.0014
2524.00,0.0014
2523.00,0.0014
2522.00,0.0014
2521.00,0.0013
2520.00,0.0013
2519.00,0.0013
2518.00,0.0013
2517.00,0.0012
2516.00,0.0011
2515.00,0.0010
2514.00,0.0009
2513.00,0.0009
2512.00,0.0010
2511.00,0.0011
2510.00,0.0011
2509.00,0.0011
2508.00,0.0011
2507.00,0.0010
2506.00,0.0010
2505.00,0.0009
2504.00,0.0009
2503.00,0.0008
2502.00,0.0007
2501.00,0.0007
2500.00,0.0008
2499.00,0.0009
2498.00,0.0010
2497.00,0.0011
2496.00,0.0011
2495.00,0.0010
2494.00,0.0010
2493.00,0.0009
2492.00,0.0009
2491.00,0.0009
2490.00,0.0009
2489.00,0.0009
2488.00,0.0009
2487.00,0.0009
2486.00,0.0009
2485.00,0.0008
2484.00,0.0008
2483.00,0.0009
2482.00,0.0009
2481.00,0.0009
2480.00,0.0009
2479.00,0.0009
2478.00,0.0009
2477.00,0.0009
2476.00,0.0009
2475.00,0.0010
2474.00,0.0010
2473.00,0.0010
2472.00,0.0010
2471.00,0.0009
2470.00,0.0008
2469.00,0.0008
2468.00,0.0007
2467.00,0.0007
2466.00,0.0007
2465.00,0.0008
2464.00,0.0008
2463.00,0.0009
2462.00,0.0009
2461.00,0.0009
2460.00,0.0009
2459.00,0.0009
2458.00,0.0009
2457.00,0.0010
2456.00,0.0010
2455.00,0.0011
2454.00,0.0011
2453.00,0.0012
2452.00,0.0012
2451.00,0.0012
2450.00,0.0012
2449.00,0.0011
2448.00,0.0010
2447.00,0.0009
2446.00,0.0009
2445.00,0.0009
2444.00,0.0010
2443.00,0.0010
2442.00,0.0011
2441.00,0.0011
2440.00,0.0011
2439.00,0.0011
2438.00,0.0011
2437.00,0.0011
2436.00,0.0011
2435.00,0.0011
2434.00,0.0011
2433.00,0.0011
2432.00,0.0011
2431.00,0.0011
2430.00,0.0012
2429.00,0.0012
2428.00,0.0012
2427.00,0.0012
2426.00,0.0011
2425.00,0.0011
2424.00,0.0011
2423.00,0.0010
2422.00,0.0010
2421.00,0.0009
2420.00,0.0009
2419.00,0.0009
2418.00,0.0009
2417.00,0.0008
2416.00,0.0008
2415.00,0.0008
2414.00,0.0009
2413.00,0.0009
2412.00,0.0009
2411.00,0.0009
2410.00,0.0009
2409.00,0.0009
2408.00,0.0009
2407.00,0.0008
2406.00,0.0008
2405.00,0.0008
2404.00,0.0008
2403.00,0.0008
2402.00,0.0008
2401.00,0.0007
2400.00,0.0008
2399.00,0.0008
2398.00,0.0008
2397.00,0.0008
2396.00,0.0007
2395.00,0.0007
2394.00,0.0006
2393.00,0.0006
2392.00,0.0006
2391.00,0.0006
2390.00,0.0006
2389.00,0.0006
2388.00,0.0006
2387.00,0.0006
2386.00,0.0005
2385.00,0.0005
2384.00,0.0005
2383.00,0.0004
2382.00,0.0003
2381.00,0.0003
2380.00,0.0002
2379.00,0.0002
2378.00,0.0003
2377.00,0.0004
2376.00,0.0004
2375.00,0.0004
2374.00,0.0004
2373.00,0.0004
2372.00,0.0004
2371.00,0.0004
2370.00,0.0004
2369.00,0.0004
2368.00,0.0004
2367.00,0.0004
2366.00,0.0005
2365.00,0.0005
2364.00,0.0005
2363.00,0.0005
2362.00,0.0005
2361.00,0.0005
2360.00,0.0005
2359.00,0.0004
2358.00,0.0004
2357.00,0.0005
2356.00,0.0005
2355.00,0.0006
2354.00,0.0006
2353.00,0.0006
2352.00,0.0006
2351.00,0.0006
2350.00,0.0006
2349.00,0.0006
2348.00,0.0006
2347.00,0.0007
2346.00,0.0007
2345.00,0.0007
2344.00,0.0007
2343.00,0.0007
2342.00,0.0007
2341.00,0.0008
2340.00,0.0008
2339.00,0.0009
2338.00,0.0009
2337.00,0.0009
2336.00,0.0009
2335.00,0.0008
2334.00,0.0008
2333.00,0.0007
2332.00,0.0007
2331.00,0.0007
2330.00,0.0008
2329.00,0.0009
2328.00,0.0011
2327.00,0.0014
2326.00,0.0018
2325.00,0.0021
2324.00,0.0022
2323.00,0.0021
2322.00,0.0019
2321.00,0.0017
2320.00,0.0015
2319.00,0.0014
2318.00,0.0013
2317.00,0.0013
2316.00,0.0012
2315.00,0.0011
2314.00,0.0010
2313.00,0.0008
2312.00,0.0008
2311.00,0.0008
2310.00,0.0008
2309.00,0.0009
2308.00,0.0009
2307.00,0.0009
2306.00,0.0010
2305.00,0.0010
2304.00,0.0010
2303.00,0.0010
2302.00,0.0010
2301.00,0.0010
2300.00,0.0010
2299.00,0.0010
2298.00,0.0010
2297.00,0.0011
2296.00,0.0012
2295.00,0.0013
2294.00,0.0014
2293.00,0.0014
2292.00,0.0015
2291.00,0.0015
2290.00,0.0016
2289.00,0.0017
2288.00,0.0017
2287.00,0.0017
2286.00,0.0017
2285.00,0.0017
2284.00,0.0016
2283.00,0.0015
2282.00,0.0014
2281.00,0.0013
2280.00,0.0013
2279.00,0.0013
2278.00,0.0013
2277.00,0.0013
2276.00,0.0013
2275.00,0.0013
2274.00,0.0013
2273.00,0.0013
2272.00,0.0013
2271.00,0.0012
2270.00,0.0012
2269.00,0.0012
2268.00,0.0013
2267.00,0.0013
2266.00,0.0012
2265.00,0.0012
2264.00,0.0012
2263.00,0.0012
2262.00,0.0012
2261.00,0.0012
2260.00,0.0013
2259.00,0.0013
2258.00,0.0013
2257.00,0.0013
2256.00,0.0011
2255.00,0.0009
2254.00,0.0008
2253.00,0.0007
2252.00,0.0008
2251.00,0.0008
2250.00,0.0008
2249.00,0.0007
2248.00,0.0007
2247.00,0.0006
2246.00,0.0005
2245.00,0.0005
2244.00,0.0005
2243.00,0.0005
2242.00,0.0004
2241.00,0.0005
2240.00,0.0005
2239.00,0.0005
2238.00,0.0006
2237.00,0.0006
2236.00,0.0007
2235.00,0.0009
2234.00,0.0010
2233.00,0.0010
2232.00,0.0010
2231.00,0.0009
2230.00,0.0008
2229.00,0.0008
2228.00,0.0009
2227.00,0.0010
2226.00,0.0011
2225.00,0.0011
2224.00,0.0011
2223.00,0.0011
2222.00,0.0010
2221.00,0.0008
2220.00,0.0006
2219.00,0.0004
2218.00,0.0003
2217.00,0.0003
2216.00,0.0004
2215.00,0.0004
2214.00,0.0003
2213.00,0.0003
2212.00,0.0003
2211.00,0.0003
2210.00,0.0004
2209.00,0.0004
2208.00,0.0003
2207.00,0.0002
2206.00,0.0001
2205.00,0.0002
2204.00,0.0004
2203.00,0.0006
2202.00,0.0006
2201.00,0.0006
2200.00,0.0006
2199.00,0.0007
2198.00,0.0008
2197.00,0.0009
2196.00,0.0011
2195.00,0.0012
2194.00,0.0013
2193.00,0.0012
2192.00,0.0011
2191.00,0.0009
2190.00,0.0008
2189.00,0.0008
2188.00,0.0009
2187.00,0.0010
2186.00,0.0010
2185.00,0.0010
2184.00,0.0009
2183.00,0.0008
2182.00,0.0006
2181.00,0.0005
2180.00,0.0003
2179.00,0.0002
2178.00,0.0002
2177.00,0.0002
2176.00,0.0003
2175.00,0.0003
2174.00,0.0005
2173.00,0.0006
2172.00,0.0008
2171.00,0.0008
2170.00,0.0008
2169.00,0.0008
2168.00,0.0009
2167.00,0.0010
2166.00,0.0012
2165.00,0.0015
2164.00,0.0018
2163.00,0.0020
2162.00,0.0020
2161.00,0.0013
2160.00,-0.0001
2159.00,-0.0018
2158.00,-0.0031
2157.00,-0.0039
2156.00,-0.0040
2155.00,-0.0036
2154.00,-0.0030
2153.00,-0.0022
2152.00,-0.0016
2151.00,-0.0013
2150.00,-0.0012
2149.00,-0.0011
2148.00,-0.0011
2147.00,-0.0011
2146.00,-0.0010
2145.00,-0.0010
2144.00,-0.0011
2143.00,-0.0011
2142.00,-0.0012
2141.00,-0.0012
2140.00,-0.0012
2139.00,-0.0011
2138.00,-0.0011
2137.00,-0.0013
2136.00,-0.0016
2135.00,-0.0019
2134.00,-0.0020
2133.00,-0.0019
2132.00,-0.0017
2131.00,-0.0015
2130.00,-0.0014
2129.00,-0.0013
2128.00,-0.0012
2127.00,-0.0011
2126.00,-0.0009
2125.00,-0.0008
2124.00,-0.0006
2123.00,-0.0006
2122.00,-0.0005
2121.00,-0.0005
2120.00,-0.0004
2119.00,-0.0002
2118.00,-0.0001
2117.00,-0.0001
2116.00,0.0000
2115.00,0.0001
2114.00,0.0002
2113.00,0.0002
2112.00,0.0002
2111.00,0.0001
2110.00,-0.0000
2109.00,-0.0002
2108.00,-0.0003
2107.00,-0.0003
2106.00,-0.0004
2105.00,-0.0004
2104.00,-0.0003
2103.00,-0.0002
2102.00,-0.0001
2101.00,-0.0000
2100.00,-0.0000
2099.00,-0.0001
2098.00,-0.0002
2097.00,-0.0002
2096.00,-0.0003
2095.00,-0.0004
2094.00,-0.0005
2093.00,-0.0005
2092.00,-0.0005
2091.00,-0.0004
2090.00,-0.0004
2089.00,-0.0004
2088.00,-0.0004
2087.00,-0.0004
2086.00,-0.0003
2085.00,-0.0001
2084.00,0.0002
2083.00,0.0003
2082.00,0.0003
2081.00,0.0003
2080.00,0.0002
2079.00,0.0003
2078.00,0.0003
2077.00,0.0004
2076.00,0.0003
2075.00,0.0003
2074.00,0.0002
2073.00,0.0001
2072.00,0.0001
2071.00,0.0000
2070.00,-0.0000
2069.00,-0.0001
2068.00,-0.0000
2067.00,-0.0000
2066.00,-0.0000
2065.00,-0.0000
2064.00,-0.0001
2063.00,-0.0001
2062.00,-0.0001
2061.00,0.0001
2060.00,0.0001
2059.00,0.0000
2058.00,-0.0001
2057.00,-0.0001
2056.00,0.0000
2055.00,0.0003
2054.00,0.0006
2053.00,0.0010
2052.00,0.0013
2051.00,0.0014
2050.00,0.0010
2049.00,0.0005
2048.00,0.0001
2047.00,-0.0002
2046.00,-0.0003
2045.00,-0.0004
2044.00,-0.0004
2043.00,-0.0005
2042.00,-0.0006
2041.00,-0.0006
2040.00,-0.0004
2039.00,-0.0002
2038.00,0.0001
2037.00,0.0003
2036.00,0.0001
2035.00,-0.0004
2034.00,-0.0010
2033.00,-0.0013
2032.00,-0.0014
2031.00,-0.0013
2030.00,-0.0012
2029.00,-0.0010
2028.00,-0.0007
2027.00,-0.0006
2026.00,-0.0006
2025.00,-0.0009
2024.00,-0.0012
2023.00,-0.0014
2022.00,-0.0015
2021.00,-0.0015
2020.00,-0.0013
2019.00,-0.0012
2018.00,-0.0013
2017.00,-0.0013
2016.00,-0.0013
2015.00,-0.0012
2014.00,-0.0008
2013.00,-0.0002
2012.00,0.0003
2011.00,0.0005
2010.00,0.0002
2009.00,-0.0004
2008.00,-0.0010
2007.00,-0.0015
2006.00,-0.0016
2005.00,-0.0014
2004.00,-0.0013
2003.00,-0.0014
2002.00,-0.0017
2001.00,-0.0019
2000.00,-0.0020
1999.00,-0.0019
1998.00,-0.0019
1997.00,-0.0018
1996.00,-0.0016
1995.00,-0.0013
1994.00,-0.0011
1993.00,-0.0010
1992.00,-0.0009
1991.00,-0.0008
1990.00,-0.0007
1989.00,-0.0006
1988.00,-0.0006
1987.00,-0.0004
1986.00,-0.0002
1985.00,0.0002
1984.00,0.0005
1983.00,0.0006
1982.00,0.0007
1981.00,0.0008
1980.00,0.0008
1979.00,0.0004
1978.00,-0.0003
1977.00,-0.0011
1976.00,-0.0016
1975.00,-0.0018
1974.00,-0.0017
1973.00,-0.0014
1972.00,-0.0012
1971.00,-0.0012
1970.00,-0.0013
1969.00,-0.0013
1968.00,-0.0013
1967.00,-0.0013
1966.00,-0.0013
1965.00,-0.0012
1964.00,-0.0012
1963.00,-0.0011
1962.00,-0.0012
1961.00,-0.0013
1960.00,-0.0013
1959.00,-0.0013
1958.00,-0.0011
1957.00,-0.0010
1956.00,-0.0009
1955.00,-0.0010
1954.00,-0.0012
1953.00,-0.0013
1952.00,-0.0014
1951.00,-0.0015
1950.00,-0.0016
1949.00,-0.0016
1948.00,-0.0016
1947.00,-0.0016
1946.00,-0.0015
1945.00,-0.0014
1944.00,-0.0014
1943.00,-0.0014
1942.00,-0.0015
1941.00,-0.0015
1940.00,-0.0014
1939.00,-0.0012
1938.00,-0.0011
1937.00,-0.0009
1936.00,-0.0008
1935.00,-0.0009
1934.00,-0.0009
1933.00,-0.0009
1932.00,-0.0009
1931.00,-0.0009
1930.00,-0.0009
1929.00,-0.0009
1928.00,-0.0009
1927.00,-0.0009
1926.00,-0.0009
1925.00,-0.0009
1924.00,-0.0008
1923.00,-0.0007
1922.00,-0.0006
1921.00,-0.0006
1920.00,-0.0005
1919.00,-0.0004
1918.00,-0.0004
1917.00,-0.0005
1916.00,-0.0006
1915.00,-0.0006
1914.00,-0.0006
1913.00,-0.0005
1912.00,-0.0003
1911.00,-0.0002
1910.00,-0.0002
1909.00,-0.0001
1908.00,-0.0001
1907.00,-0.0001
1906.00,-0.0001
1905.00,-0.0001
1904.00,-0.0000
1903.00,0.0000
1902.00,0.0001
1901.00,0.0000
1900.00,-0.0001
1899.00,-0.0002
1898.00,-0.0002
1897.00,-0.0002
1896.00,-0.0002
1895.00,-0.0001
1894.00,-0.0001
1893.00,-0.0001
1892.00,-0.0000
1891.00,-0.0000
1890.00,-0.0001
1889.00,-0.0002
1888.00,-0.0002
1887.00,-0.0002
1886.00,-0.0002
1885.00,-0.0001
1884.00,-0.0001
1883.00,-0.0001
1882.00,-0.0001
1881.00,-0.0002
1880.00,-0.0002
1879.00,-0.0003
1878.00,-0.0003
1877.00,-0.0003
1876.00,-0.0003
1875.00,-0.0003
1874.00,-0.0003
1873.00,-0.0003
1872.00,-0.0003
1871.00,-0.0003
1870.00,-0.0002
1869.00,-0.0002
1868.00,-0.0001
1867.00,-0.0000
1866.00,-0.0000
1865.00,-0.0000
1864.00,-0.0000
1863.00,-0.0000
1862.00,-0.0001
1861.00,-0.0002
1860.00,-0.0002
1859.00,-0.0002
1858.00,-0.0002
1857.00,-0.0002
1856.00,-0.0000
1855.00,0.0001
1854.00,0.0001
1853.00,0.0002
1852.00,0.0002
1851.00,0.0002
1850.00,0.0001
1849.00,0.0000
1848.00,-0.0000
1847.00,-0.0001
1846.00,-0.0001
1845.00,-0.0001
1844.00,-0.0001
1843.00,-0.0000
1842.00,-0.0000
1841.00,0.0000
1840.00,0.0000
1839.00,0.0000
1838.00,0.0000
1837.00,0.0000
1836.00,0.0001
1835.00,0.0001
1834.00,0.0001
1833.00,0.0001
1832.00,0.0002
1831.00,0.0002
1830.00,0.0003
1829.00,0.0003
1828.00,0.0003
1827.00,0.0003
1826.00,0.0003
1825.00,0.0004
1824.00,0.0004
1823.00,0.0004
1822.00,0.0003
1821.00,0.0003
1820.00,0.0002
1819.00,0.0001
1818.00,-0.0000
1817.00,-0.0001
1816.00,-0.0000
1815.00,0.0001
1814.00,0.0001
1813.00,0.0001
1812.00,0.0001
1811.00,0.0001
1810.00,0.0002
1809.00,0.0002
1808.00,0.0002
1807.00,0.0002
1806.00,0.0002
1805.00,0.0003
1804.00,0.0004
1803.00,0.0004
1802.00,0.0004
1801.00,0.0004
1800.00,0.0004
1799.00,0.0003
1798.00,0.0003
1797.00,0.0004
1796.00,0.0004
1795.00,0.0004
1794.00,0.0004
1793.00,0.0004
1792.00,0.0004
1791.00,0.0004
1790.00,0.0004
1789.00,0.0005
1788.00,0.0005
1787.00,0.0006
1786.00,0.0006
1785.00,0.0007
1784.00,0.0006
1783.00,0.0005
1782.00,0.0005
1781.00,0.0005
1780.00,0.0006
1779.00,0.0006
1778.00,0.0006
1777.00,0.0006
1776.00,0.0006
1775.00,0.0006
1774.00,0.0006
1773.00,0.0006
1772.00,0.0006
1771.00,0.0006
1770.00,0.0006
1769.00,0.0007
1768.00,0.0007
1767.00,0.0007
1766.00,0.0007
1765.00,0.0007
1764.00,0.0007
1763.00,0.0008
1762.00,0.0009
1761.00,0.0010
1760.00,0.0010
1759.00,0.0010
1758.00,0.0010
1757.00,0.0011
1756.00,0.0011
1755.00,0.0011
1754.00,0.0011
1753.00,0.0011
1752.00,0.0011
1751.00,0.0011
1750.00,0.0011
1749.00,0.0012
1748.00,0.0013
1747.00,0.0015
1746.00,0.0016
1745.00,0.0017
1744.00,0.0017
1743.00,0.0017
1742.00,0.0017
1741.00,0.0018
1740.00,0.0018
1739.00,0.0019
1738.00,0.0019
1737.00,0.0019
1736.00,0.0019
1735.00,0.0019
1734.00,0.0019
1733.00,0.0019
1732.00,0.0020
1731.00,0.0021
1730.00,0.0021
1729.00,0.0022
1728.00,0.0022
1727.00,0.0021
1726.00,0.0021
1725.00,0.0020
1724.00,0.0020
1723.00,0.0020
1722.00,0.0020
1721.00,0.0020
1720.00,0.0020
1719.00,0.0020
1718.00,0.0020
1717.00,0.0021
1716.00,0.0021
1715.00,0.0020
1714.00,0.0020
1713.00,0.0020
1712.00,0.0019
1711.00,0.0019
1710.00,0.0019
1709.00,0.0019
1708.00,0.0018
1707.00,0.0018
1706.00,0.0018
1705.00,0.0019
1704.00,0.0020
1703.00,0.0020
1702.00,0.0019
1701.00,0.0019
1700.00,0.0019
1699.00,0.0019
1698.00,0.0019
1697.00,0.0020
1696.00,0.0020
1695.00,0.0021
1694.00,0.0021
1693.00,0.0022
1692.00,0.0022
1691.00,0.0022
1690.00,0.0022
1689.00,0.0022
1688.00,0.0021
1687.00,0.0021
1686.00,0.0021
1685.00,0.0022
1684.00,0.0022
1683.00,0.0022
1682.00,0.0022
1681.00,0.0022
1680.00,0.0023
1679.00,0.0023
1678.00,0.0023
1677.00,0.0023
1676.00,0.0023
1675.00,0.0023
1674.00,0.0023
1673.00,0.0023
1672.00,0.0023
1671.00,0.0023
1670.00,0.0023
1669.00,0.0023
1668.00,0.0023
1667.00,0.0024
1666.00,0.0024
1665.00,0.0025
1664.00,0.0025
1663.00,0.0025
1662.00,0.0025
1661.00,0.0025
1660.00,0.0026
1659.00,0.0026
1658.00,0.0026
1657.00,0.0026
1656.00,0.0027
1655.00,0.0027
1654.00,0.0027
1653.00,0.0027
1652.00,0.0028
1651.00,0.0028
1650.00,0.0028
1649.00,0.0028
1648.00,0.0028
1647.00,0.0028
1646.00,0.0029
1645.00,0.0029
1644.00,0.0030
1643.00,0.0031
1642.00,0.0031
1641.00,0.0032
1640.00,0.0034
1639.00,0.0034
1638.00,0.0035
1637.00,0.0035
1636.00,0.0035
1635.00,0.0035
1634.00,0.0035
1633.00,0.0034
1632.00,0.0034
1631.00,0.0033
1630.00,0.0032
1629.00,0.0032
1628.00,0.0031
1627.00,0.0031
1626.00,0.0030
1625.00,0.0030
1624.00,0.0030
1623.00,0.0029
1622.00,0.0029
1621.00,0.0029
1620.00,0.0029
1619.00,0.0028
1618.00,0.0028
1617.00,0.0028
1616.00,0.0028
1615.00,0.0028
1614.00,0.0028
1613.00,0.0028
1612.00,0.0028
1611.00,0.0028
1610.00,0.0028
1609.00,0.0028
1608.00,0.0028
1607.00,0.0028
1606.00,0.0027
1605.00,0.0028
1604.00,0.0028
1603.00,0.0028
1602.00,0.0028
1601.00,0.0028
1600.00,0.0028
1599.00,0.0027
1598.00,0.0027
1597.00,0.0027
1596.00,0.0027
1595.00,0.0027
1594.00,0.0027
1593.00,0.0027
1592.00,0.0027
1591.00,0.0028
1590.00,0.0028
1589.00,0.0029
1588.00,0.0029
1587.00,0.0029
1586.00,0.0029
1585.00,0.0030
1584.00,0.0030
1583.00,0.0031
1582.00,0.0031
1581.00,0.0032
1580.00,0.0033
1579.00,0.0033
1578.00,0.0034
1577.00,0.0035
1576.00,0.0036
1575.00,0.0036
1574.00,0.0036
1573.00,0.0036
1572.00,0.0036
1571.00,0.0036
1570.00,0.0036
1569.00,0.0036
1568.00,0.0037
1567.00,0.0037
1566.00,0.0037
1565.00,0.0037
1564.00,0.0037
1563.00,0.0036
1562.00,0.0036
1561.00,0.0036
1560.00,0.0036
1559.00,0.0035
1558.00,0.0033
1557.00,0.0034
1556.00,0.0035
1555.00,0.0036
1554.00,0.0037
1553.00,0.0037
1552.00,0.0038
1551.00,0.0038
1550.00,0.0038
1549.00,0.0038
1548.00,0.0038
1547.00,0.0039
1546.00,0.0040
1545.00,0.0040
1544.00,0.0041
1543.00,0.0042
1542.00,0.0042
1541.00,0.0042
1540.00,0.0042
1539.00,0.0041
1538.00,0.0040
1537.00,0.0040
1536.00,0.0041
1535.00,0.0040
1534.00,0.0040
1533.00,0.0039
1532.00,0.0039
1531.00,0.0039
1530.00,0.0039
1529.00,0.0040
1528.00,0.0040
1527.00,0.0041
1526.00,0.0041
1525.00,0.0041
1524.00,0.0042
1523.00,0.0042
1522.00,0.0042
1521.00,0.0043
1520.00,0.0045
1519.00,0.0046
1518.00,0.0047
1517.00,0.0048
1516.00,0.0049
1515.00,0.0050
1514.00,0.0050
1513.00,0.0051
1512.00,0.0052
1511.00,0.0053
1510.00,0.0053
1509.00,0.0054
1508.00,0.0055
1507.00,0.0056
1506.00,0.0056
1505.00,0.0058
1504.00,0.0061
1503.00,0.0062
1502.00,0.0064
1501.00,0.0067
1500.00,0.0069
1499.00,0.0071
1498.00,0.0073
1497.00,0.0075
1496.00,0.0078
1495.00,0.0080
1494.00,0.0082
1493.00,0.0086
1492.00,0.0090
1491.00,0.0094
1490.00,0.0098
1489.00,0.0103
1488.00,0.0108
1487.00,0.0112
1486.00,0.0117
1485.00,0.0123
1484.00,0.0130
1483.00,0.0137
1482.00,0.0145
1481.00,0.0156
1480.00,0.0168
1479.00,0.0180
1478.00,0.0196
1477.00,0.0217
1476.00,0.0243
1475.00,0.0273
1474.00,0.0315
1473.00,0.0374
1472.00,0.0445
1471.00,0.0513
1470.00,0.0578
1469.00,0.0647
1468.00,0.0722
1467.00,0.0805
1466.00,0.0899
1465.00,0.1002
1464.00,0.1091
1463.00,0.1152
1462.00,0.1188
1461.00,0.1212
1460.00,0.1226
1459.00,0.1234
1458.00,0.1236
1457.00,0.1235
1456.00,0.1226
1455.00,0.1212
1454.00,0.1197
1453.00,0.1176
1452.00,0.1148
1451.00,0.1108
1450.00,0.1056
1449.00,0.0984
1448.00,0.0892
1447.00,0.0796
1446.00,0.0710
1445.00,0.0637
1444.00,0.0576
1443.00,0.0525
1442.00,0.0487
1441.00,0.0461
1440.00,0.0445
1439.00,0.0440
1438.00,0.0443
1437.00,0.0449
1436.00,0.0443
1435.00,0.0421
1434.00,0.0385
1433.00,0.0341
1432.00,0.0294
1431.00,0.0252
1430.00,0.0220
1429.00,0.0196
1428.00,0.0179
1427.00,0.0169
1426.00,0.0162
1425.00,0.0154
1424.00,0.0148
1423.00,0.0143
1422.00,0.0141
1421.00,0.0139
1420.00,0.0135
1419.00,0.0132
1418.00,0.0130
1417.00,0.0128
1416.00,0.0125
1415.00,0.0123
1414.00,0.0122
1413.00,0.0120
1412.00,0.0118
1411.00,0.0116
1410.00,0.0116
1409.00,0.0114
1408.00,0.0113
1407.00,0.0112
1406.00,0.0113
1405.00,0.0112
1404.00,0.0112
1403.00,0.0112
1402.00,0.0114
1401.00,0.0114
1400.00,0.0115
1399.00,0.0116
1398.00,0.0118
1397.00,0.0120
1396.00,0.0122
1395.00,0.0125
1394.00,0.0129
1393.00,0.0133
1392.00,0.0138
1391.00,0.0145
1390.00,0.0155
1389.00,0.0169
1388.00,0.0190
1387.00,0.0220
1386.00,0.0262
1385.00,0.0315
1384.00,0.0390
1383.00,0.0497
1382.00,0.0644
1381.00,0.0837
1380.00,0.1084
1379.00,0.1379
1378.00,0.1682
1377.00,0.1927
1376.00,0.2038
1375.00,0.1965
1374.00,0.1728
1373.00,0.1425
1372.00,0.1142
1371.00,0.0906
1370.00,0.0717
1369.00,0.0575
1368.00,0.0478
1367.00,0.0419
1366.00,0.0387
1365.00,0.0375
1364.00,0.0379
1363.00,0.0395
1362.00,0.0420
1361.00,0.0446
1360.00,0.0466
1359.00,0.0471
1358.00,0.0459
1357.00,0.0429
1356.00,0.0388
1355.00,0.0344
1354.00,0.0301
1353.00,0.0265
1352.00,0.0236
1351.00,0.0213
1350.00,0.0194
1349.00,0.0178
1348.00,0.0165
1347.00,0.0153
1346.00,0.0144
1345.00,0.0136
1344.00,0.0129
1343.00,0.0124
1342.00,0.0120
1341.00,0.0116
1340.00,0.0113
1339.00,0.0111
1338.00,0.0110
1337.00,0.0109
1336.00,0.0110
1335.00,0.0112
1334.00,0.0115
1333.00,0.0119
1332.00,0.0124
1331.00,0.0128
1330.00,0.0130
1329.00,0.0129
1328.00,0.0126
1327.00,0.0121
1326.00,0.0114
1325.00,0.0108
1324.00,0.0102
1323.00,0.0096
1322.00,0.0092
1321.00,0.0089
1320.00,0.0087
1319.00,0.0085
1318.00,0.0083
1317.00,0.0082
1316.00,0.0081
1315.00,0.0081
1314.00,0.0081
1313.00,0.0081
1312.00,0.0081
1311.00,0.0083
1310.00,0.0086
1309.00,0.0091
1308.00,0.0098
1307.00,0.0107
1306.00,0.0116
1305.00,0.0121
1304.00,0.0123
1303.00,0.0122
1302.00,0.0119
1301.00,0.0116
1300.00,0.0115
1299.00,0.0116
1298.00,0.0118
1297.00,0.0119
1296.00,0.0119
1295.00,0.0117
1294.00,0.0114
1293.00,0.0109
1292.00,0.0104
1291.00,0.0100
1290.00,0.0095
1289.00,0.0091
1288.00,0.0088
1287.00,0.0085
1286.00,0.0082
1285.00,0.0080
1284.00,0.0079
1283.00,0.0078
1282.00,0.0077
1281.00,0.0076
1280.00,0.0074
1279.00,0.0074
1278.00,0.0073
1277.00,0.0072
1276.00,0.0072
1275.00,0.0072
1274.00,0.0072
1273.00,0.0072
1272.00,0.0072
1271.00,0.0073
1270.00,0.0074
1269.00,0.0075
1268.00,0.0077
1267.00,0.0079
1266.00,0.0082
1265.00,0.0084
1264.00,0.0087
1263.00,0.0089
1262.00,0.0092
1261.00,0.0096
1260.00,0.0099
1259.00,0.0104
1258.00,0.0108
1257.00,0.0112
1256.00,0.0113
1255.00,0.0111
1254.00,0.0105
1253.00,0.0098
1252.00,0.0092
1251.00,0.0086
1250.00,0.0082
1249.00,0.0079
1248.00,0.0076
1247.00,0.0074
1246.00,0.0073
1245.00,0.0072
1244.00,0.0071
1243.00,0.0070
1242.00,0.0069
1241.00,0.0068
1240.00,0.0067
1239.00,0.0067
1238.00,0.0067
1237.00,0.0067
1236.00,0.0066
1235.00,0.0065
1234.00,0.0065
1233.00,0.0066
1232.00,0.0066
1231.00,0.0067
1230.00,0.0068
1229.00,0.0068
1228.00,0.0070
1227.00,0.0072
1226.00,0.0075
1225.00,0.0078
1224.00,0.0081
1223.00,0.0084
1222.00,0.0087
1221.00,0.0090
1220.00,0.0093
1219.00,0.0094
1218.00,0.0094
1217.00,0.0092
1216.00,0.0089
1215.00,0.0085
1214.00,0.0082
1213.00,0.0079
1212.00,0.0077
1211.00,0.0075
1210.00,0.0074
1209.00,0.0072
1208.00,0.0071
1207.00,0.0070
1206.00,0.0070
1205.00,0.0069
1204.00,0.0068
1203.00,0.0067
1202.00,0.0066
1201.00,0.0065
1200.00,0.0065
1199.00,0.0065
1198.00,0.0066
1197.00,0.0067
1196.00,0.0067
1195.00,0.0067
1194.00,0.0067
1193.00,0.0067
1192.00,0.0067
1191.00,0.0067
1190.00,0.0068
1189.00,0.0067
1188.00,0.0067
1187.00,0.0067
1186.00,0.0067
1185.00,0.0068
1184.00,0.0069
1183.00,0.0070
1182.00,0.0072
1181.00,0.0073
1180.00,0.0076
1179.00,0.0080
1178.00,0.0084
1177.00,0.0091
1176.00,0.0100
1175.00,0.0112
1174.00,0.0127
1173.00,0.0146
1172.00,0.0169
1171.00,0.0194
1170.00,0.0219
1169.00,0.0240
1168.00,0.0253
1167.00,0.0257
1166.00,0.0252
1165.00,0.0241
1164.00,0.0227
1163.00,0.0215
1162.00,0.0205
1161.00,0.0196
1160.00,0.0190
1159.00,0.0185
1158.00,0.0182
1157.00,0.0180
1156.00,0.0180
1155.00,0.0180
1154.00,0.0179
1153.00,0.0178
1152.00,0.0174
1151.00,0.0168
1150.00,0.0160
1149.00,0.0150
1148.00,0.0140
1147.00,0.0131
1146.00,0.0123
1145.00,0.0115
1144.00,0.0108
1143.00,0.0102
1142.00,0.0096
1141.00,0.0090
1140.00,0.0084
1139.00,0.0080
1138.00,0.0076
1137.00,0.0073
1136.00,0.0070
1135.00,0.0068
1134.00,0.0067
1133.00,0.0066
1132.00,0.0065
1131.00,0.0065
1130.00,0.0064
1129.00,0.0064
1128.00,0.0063
1127.00,0.0063
1126.00,0.0063
1125.00,0.0064
1124.00,0.0065
1123.00,0.0065
1122.00,0.0066
1121.00,0.0067
1120.00,0.0068
1119.00,0.0069
1118.00,0.0070
1117.00,0.0071
1116.00,0.0073
1115.00,0.0074
1114.00,0.0075
1113.00,0.0076
1112.00,0.0079
1111.00,0.0082
1110.00,0.0085
1109.00,0.0089
1108.00,0.0094
1107.00,0.0100
1106.00,0.0107
1105.00,0.0114
1104.00,0.0120
1103.00,0.0123
1102.00,0.0123
1101.00,0.0119
1100.00,0.0113
1099.00,0.0106
1098.00,0.0099
1097.00,0.0093
1096.00,0.0088
1095.00,0.0085
1094.00,0.0083
1093.00,0.0081
1092.00,0.0080
1091.00,0.0078
1090.00,0.0076
1089.00,0.0075
1088.00,0.0073
1087.00,0.0072
1086.00,0.0072
1085.00,0.0072
1084.00,0.0072
1083.00,0.0073
1082.00,0.0072
1081.00,0.0071
1080.00,0.0070
1079.00,0.0069
1078.00,0.0069
1077.00,0.0069
1076.00,0.0070
1075.00,0.0070
1074.00,0.0070
1073.00,0.0070
1072.00,0.0069
1071.00,0.0068
1070.00,0.0067
1069.00,0.0067
1068.00,0.0067
1067.00,0.0068
1066.00,0.0069
1065.00,0.0070
1064.00,0.0070
1063.00,0.0071
1062.00,0.0072
1061.00,0.0073
1060.00,0.0074
1059.00,0.0075
1058.00,0.0076
1057.00,0.0077
1056.00,0.0078
1055.00,0.0080
1054.00,0.0082
1053.00,0.0085
1052.00,0.0087
1051.00,0.0090
1050.00,0.0093
1049.00,0.0097
1048.00,0.0101
1047.00,0.0106
1046.00,0.0110
1045.00,0.0113
1044.00,0.0113
1043.00,0.0112
1042.00,0.0111
1041.00,0.0109
1040.00,0.0107
1039.00,0.0107
1038.00,0.0107
1037.00,0.0108
1036.00,0.0107
1035.00,0.0106
1034.00,0.0104
1033.00,0.0103
1032.00,0.0102
1031.00,0.0103
1030.00,0.0104
1029.00,0.0104
1028.00,0.0105
1027.00,0.0107
1026.00,0.0110
1025.00,0.0113
1024.00,0.0115
1023.00,0.0116
1022.00,0.0117
1021.00,0.0119
1020.00,0.0120
1019.00,0.0122
1018.00,0.0122
1017.00,0.0122
1016.00,0.0121
1015.00,0.0121
1014.00,0.0120
1013.00,0.0120
1012.00,0.0120
1011.00,0.0120
1010.00,0.0120
1009.00,0.0121
1008.00,0.0122
1007.00,0.0126
1006.00,0.0131
1005.00,0.0140
1004.00,0.0152
1003.00,0.0168
1002.00,0.0190
1001.00,0.0217
1000.00,0.0246
999.00,0.0269
998.00,0.0279
997.00,0.0272
996.00,0.0250
995.00,0.0220
994.00,0.0189
993.00,0.0163
992.00,0.0143
991.00,0.0129
990.00,0.0119
989.00,0.0112
988.00,0.0107
987.00,0.0105
986.00,0.0104
985.00,0.0106
984.00,0.0109
983.00,0.0115
982.00,0.0123
981.00,0.0136
980.00,0.0155
979.00,0.0179
978.00,0.0210
977.00,0.0245
976.00,0.0282
975.00,0.0315
974.00,0.0338
973.00,0.0343
972.00,0.0330
971.00,0.0299
970.00,0.0258
969.00,0.0218
968.00,0.0184
967.00,0.0157
966.00,0.0138
965.00,0.0124
964.00,0.0113
963.00,0.0106
962.00,0.0100
961.00,0.0096
960.00,0.0091
959.00,0.0087
958.00,0.0084
957.00,0.0082
956.00,0.0080
955.00,0.0079
954.00,0.0078
953.00,0.0076
952.00,0.0075
951.00,0.0075
950.00,0.0074
949.00,0.0074
948.00,0.0074
947.00,0.0074
946.00,0.0076
945.00,0.0079
944.00,0.0082
943.00,0.0087
942.00,0.0091
941.00,0.0093
940.00,0.0092
939.00,0.0090
938.00,0.0085
937.00,0.0080
936.00,0.0074
935.00,0.0069
934.00,0.0065
933.00,0.0062
932.00,0.0061
931.00,0.0060
930.00,0.0060
929.00,0.0059
928.00,0.0058
927.00,0.0058
926.00,0.0057
925.00,0.0057
924.00,0.0057
923.00,0.0058
922.00,0.0058
921.00,0.0058
920.00,0.0059
919.00,0.0059
918.00,0.0060
917.00,0.0060
916.00,0.0061
915.00,0.0062
914.00,0.0063
913.00,0.0063
912.00,0.0063
911.00,0.0064
910.00,0.0065
909.00,0.0067
908.00,0.0071
907.00,0.0076
906.00,0.0084
905.00,0.0096
904.00,0.0112
903.00,0.0131
902.00,0.0152
901.00,0.0172
900.00,0.0185
899.00,0.0188
898.00,0.0181
897.00,0.0164
896.00,0.0143
895.00,0.0123
894.00,0.0107
893.00,0.0094
892.00,0.0086
891.00,0.0080
890.00,0.0076
889.00,0.0074
888.00,0.0073
887.00,0.0073
886.00,0.0072
885.00,0.0071
884.00,0.0070
883.00,0.0069
882.00,0.0070
881.00,0.0071
880.00,0.0073
879.00,0.0075
878.00,0.0077
877.00,0.0078
876.00,0.0079
875.00,0.0078
874.00,0.0078
873.00,0.0076
872.00,0.0075
871.00,0.0074
870.00,0.0073
869.00,0.0073
868.00,0.0073
867.00,0.0073
866.00,0.0073
865.00,0.0074
864.00,0.0075
863.00,0.0075
862.00,0.0076
861.00,0.0077
860.00,0.0077
859.00,0.0079
858.00,0.0080
857.00,0.0081
856.00,0.0082
855.00,0.0084
854.00,0.0087
853.00,0.0089
852.00,0.0091
851.00,0.0094
850.00,0.0097
849.00,0.0102
848.00,0.0109
847.00,0.0118
846.00,0.0131
845.00,0.0152
844.00,0.0182
843.00,0.0219
842.00,0.0250
841.00,0.0262
840.00,0.0246
839.00,0.0212
838.00,0.0174
837.00,0.0144
836.00,0.0125
835.00,0.0113
834.00,0.0105
833.00,0.0099
832.00,0.0096
831.00,0.0093
830.00,0.0092
829.00,0.0092
828.00,0.0091
827.00,0.0091
826.00,0.0090
825.00,0.0091
824.00,0.0093
823.00,0.0095
822.00,0.0098
821.00,0.0101
820.00,0.0103
819.00,0.0106
818.00,0.0110
817.00,0.0117
816.00,0.0125
815.00,0.0137
814.00,0.0153
813.00,0.0172
812.00,0.0193
811.00,0.0213
810.00,0.0228
809.00,0.0235
808.00,0.0231
807.00,0.0217
806.00,0.0198
805.00,0.0177
804.00,0.0157
803.00,0.0142
802.00,0.0130
801.00,0.0122
800.00,0.0116
799.00,0.0112
798.00,0.0108
797.00,0.0104
796.00,0.0099
795.00,0.0094
794.00,0.0090
793.00,0.0086
792.00,0.0083
791.00,0.0080
790.00,0.0078
789.00,0.0076
788.00,0.0072
787.00,0.0068
786.00,0.0064
785.00,0.0062
784.00,0.0061
783.00,0.0061
782.00,0.0060
781.00,0.0059
780.00,0.0057
779.00,0.0055
778.00,0.0055
777.00,0.0055
776.00,0.0055
775.00,0.0056
774.00,0.0056
773.00,0.0057
772.00,0.0057
771.00,0.0058
770.00,0.0058
769.00,0.0058
768.00,0.0058
767.00,0.0058
766.00,0.0059
765.00,0.0059
764.00,0.0060
763.00,0.0060
762.00,0.0061
761.00,0.0062
760.00,0.0062
759.00,0.0061
758.00,0.0061
757.00,0.0062
756.00,0.0064
755.00,0.0066
754.00,0.0067
753.00,0.0068
752.00,0.0069
751.00,0.0069
750.00,0.0070
749.00,0.0071
748.00,0.0072
747.00,0.0074
746.00,0.0076
745.00,0.0077
744.00,0.0079
743.00,0.0080
742.00,0.0082
741.00,0.0084
740.00,0.0086
739.00,0.0089
738.00,0.0094
737.00,0.0099
736.00,0.0103
735.00,0.0107
734.00,0.0111
733.00,0.0117
732.00,0.0124
731.00,0.0130
730.00,0.0135
729.00,0.0138
728.00,0.0139
727.00,0.0140
726.00,0.0143
725.00,0.0146
724.00,0.0151
723.00,0.0157
722.00,0.0162
721.00,0.0165
720.00,0.0165
719.00,0.0159
718.00,0.0150
717.00,0.0137
716.00,0.0126
715.00,0.0117
714.00,0.0112
713.00,0.0110
712.00,0.0108
711.00,0.0106
710.00,0.0103
709.00,0.0099
708.00,0.0096
707.00,0.0094
706.00,0.0093
705.00,0.0093
704.00,0.0095
703.00,0.0097
702.00,0.0098
701.00,0.0096
700.00,0.0093
699.00,0.0089
698.00,0.0086
697.00,0.0084
696.00,0.0083
695.00,0.0082
694.00,0.0081
693.00,0.0082
692.00,0.0084
691.00,0.0086
690.00,0.0088
689.00,0.0088
688.00,0.0088
687.00,0.0088
686.00,0.0087
685.00,0.0086
684.00,0.0086
683.00,0.0086
682.00,0.0086
681.00,0.0085
680.00,0.0085
679.00,0.0085
678.00,0.0087
677.00,0.0089
676.00,0.0091
675.00,0.0092
674.00,0.0092
673.00,0.0092
672.00,0.0093
671.00,0.0097
670.00,0.0101
669.00,0.0103
668.00,0.0101
667.00,0.0095
666.00,0.0089
665.00,0.0085
664.00,0.0083
663.00,0.0084
662.00,0.0084
661.00,0.0083
660.00,0.0081
659.00,0.0078
658.00,0.0076
657.00,0.0075
656.00,0.0074
655.00,0.0074
654.00,0.0075
653.00,0.0077
652.00,0.0079
651.00,0.0080
650.00,0.0080
649.00,0.0079
648.00,0.0077
647.00,0.0075
646.00,0.0075
645.00,0.0076
644.00,0.0075
643.00,0.0074
642.00,0.0072
641.00,0.0072
640.00,0.0074
639.00,0.0076
638.00,0.0077
637.00,0.0076
636.00,0.0075
635.00,0.0075
634.00,0.0076
633.00,0.0076
632.00,0.0076
631.00,0.0076
630.00,0.0075
629.00,0.0074
628.00,0.0074
627.00,0.0074
626.00,0.0075
625.00,0.0076
624.00,0.0077
623.00,0.0076
622.00,0.0073
621.00,0.0070
620.00,0.0068
619.00,0.0067
618.00,0.0067
617.00,0.0069
616.00,0.0071
615.00,0.0072
614.00,0.0074
613.00,0.0075
612.00,0.0076
611.00,0.0075
610.00,0.0074
609.00,0.0073
608.00,0.0073
607.00,0.0073
606.00,0.0073
605.00,0.0071
604.00,0.0069
603.00,0.0067
602.00,0.0067
601.00,0.0068
600.00,0.0069
599.00,0.0070
598.00,0.0070
597.00,0.0069
596.00,0.0067
595.00,0.0066
594.00,0.0067
593.00,0.0069
592.00,0.0071
591.00,0.0071
590.00,0.0070
589.00,0.0069
588.00,0.0069
587.00,0.0069
586.00,0.0071
585.00,0.0073
584.00,0.0075
583.00,0.0075
582.00,0.0074
581.00,0.0072
580.00,0.0070
579.00,0.0070
578.00,0.0072
577.00,0.0074
576.00,0.0078
575.00,0.0080
574.00,0.0082
573.00,0.0081
572.00,0.0080
571.00,0.0078
570.00,0.0075
569.00,0.0073
568.00,0.0071
567.00,0.0070
566.00,0.0070
565.00,0.0069
564.00,0.0069
563.00,0.0071
562.00,0.0073
561.00,0.0076
560.00,0.0079
559.00,0.0080
558.00,0.0079
557.00,0.0077
556.00,0.0074
555.00,0.0074
554.00,0.0077
553.00,0.0082
552.00,0.0083
551.00,0.0081
550.00,0.0076
549.00,0.0070
548.00,0.0066
547.00,0.0065
546.00,0.0067
545.00,0.0072
544.00,0.0078
543.00,0.0083
542.00,0.0086
541.00,0.0088
540.00,0.0090
539.00,0.0094
538.00,0.0100
537.00,0.0105
536.00,0.0108
535.00,0.0108
534.00,0.0105
533.00,0.0101
532.00,0.0096
531.00,0.0092
530.00,0.0091
529.00,0.0092
528.00,0.0096
527.00,0.0098
526.00,0.0096
525.00,0.0091
524.00,0.0086
523.00,0.0085
522.00,0.0087
521.00,0.0091
520.00,0.0093
519.00,0.0092
518.00,0.0087
517.00,0.0081
516.00,0.0076
515.00,0.0072
514.00,0.0067
513.00,0.0063
512.00,0.0061
511.00,0.0064
510.00,0.0069
509.00,0.0072
508.00,0.0072
507.00,0.0072
506.00,0.0073
505.00,0.0077
504.00,0.0082
503.00,0.0085
502.00,0.0086
501.00,0.0086
500.00,0.0086
499.00,0.0086
498.00,0.0083
497.00,0.0078
496.00,0.0073
495.00,0.0072
494.00,0.0076
493.00,0.0080
492.00,0.0082
491.00,0.0080
490.00,0.0076
489.00,0.0071
488.00,0.0068
487.00,0.0067
486.00,0.0070
485.00,0.0076
484.00,0.0082
483.00,0.0090
482.00,0.0097
481.00,0.0102
480.00,0.0103
479.00,0.0103
478.00,0.0105
477.00,0.0106
476.00,0.0106
475.00,0.0104
474.00,0.0104
473.00,0.0108
472.00,0.0114
471.00,0.0120
470.00,0.0126
469.00,0.0136
468.00,0.0151
467.00,0.0168
466.00,0.0180
465.00,0.0184
464.00,0.0181
463.00,0.0177
462.00,0.0181
461.00,0.0190
460.00,0.0197
459.00,0.0195
458.00,0.0188
457.00,0.0183
456.00,0.0183
455.00,0.0181
454.00,0.0173
453.00,0.0162
452.00,0.0152
451.00,0.0148
450.00,0.0145
