Created as New Dataset,Sample 028 By Administrator Date Friday, September 05 2025
cm-1,A
4000.00,0.0012
3999.00,0.0012
3998.00,0.0012
3997.00,0.0012
3996.00,0.0012
3995.00,0.0012
3994.00,0.0012
3993.00,0.0012
3992.00,0.0012
3991.00,0.0012
3990.00,0.0012
3989.00,0.0012
3988.00,0.0012
3987.00,0.0012
3986.00,0.0012
3985.00,0.0012
3984.00,0.0012
3983.00,0.0012
3982.00,0.0012
3981.00,0.0012
3980.00,0.0011
3979.00,0.0011
3978.00,0.0011
3977.00,0.0011
3976.00,0.0011
3975.00,0.0011
3974.00,0.0011
3973.00,0.0011
3972.00,0.0011
3971.00,0.0011
3970.00,0.0010
3969.00,0.0010
3968.00,0.0010
3967.00,0.0010
3966.00,0.0011
3965.00,0.0011
3964.00,0.0011
3963.00,0.0011
3962.00,0.0011
3961.00,0.0010
3960.00,0.0010
3959.00,0.0010
3958.00,0.0010
3957.00,0.0010
3956.00,0.0010
3955.00,0.0010
3954.00,0.0010
3953.00,0.0010
3952.00,0.0010
3951.00,0.0010
3950.00,0.0010
3949.00,0.0011
3948.00,0.0010
3947.00,0.0010
3946.00,0.0010
3945.00,0.0010
3944.00,0.0010
3943.00,0.0010
3942.00,0.0011
3941.00,0.0011
3940.00,0.0011
3939.00,0.0010
3938.00,0.0010
3937.00,0.0010
3936.00,0.0011
3935.00,0.0011
3934.00,0.0012
3933.00,0.0012
3932.00,0.0012
3931.00,0.0011
3930.00,0.0010
3929.00,0.0010
3928.00,0.0010
3927.00,0.0010
3926.00,0.0010
3925.00,0.0011
3924.00,0.0011
3923.00,0.0011
3922.00,0.0011
3921.00,0.0011
3920.00,0.0010
3919.00,0.0010
3918.00,0.0010
3917.00,0.0011
3916.00,0.0011
3915.00,0.0012
3914.00,0.0012
3913.00,0.0012
3912.00,0.0012
3911.00,0.0011
3910.00,0.0011
3909.00,0.0011
3908.00,0.0011
3907.00,0.0010
3906.00,0.0010
3905.00,0.0010
3904.00,0.0010
3903.00,0.0010
3902.00,0.0010
3901.00,0.0010
3900.00,0.0010
3899.00,0.0009
3898.00,0.0009
3897.00,0.0009
3896.00,0.0010
3895.00,0.0010
3894.00,0.0010
3893.00,0.0010
3892.00,0.0010
3891.00,0.0010
3890.00,0.0010
3889.00,0.0010
3888.00,0.0010
3887.00,0.0010
3886.00,0.0010
3885.00,0.0010
3884.00,0.0010
3883.00,0.0010
3882.00,0.0011
3881.00,0.0011
3880.00,0.0011
3879.00,0.0011
3878.00,0.0011
3877.00,0.0011
3876.00,0.0011
3875.00,0.0011
3874.00,0.0010
3873.00,0.0009
3872.00,0.0009
3871.00,0.0009
3870.00,0.0010
3869.00,0.0010
3868.00,0.0009
3867.00,0.0009
3866.00,0.0008
3865.00,0.0008
3864.00,0.0008
3863.00,0.0009
3862.00,0.0009
3861.00,0.0010
3860.00,0.0010
3859.00,0.0010
3858.00,0.0010
3857.00,0.0010
3856.00,0.0010
3855.00,0.0010
3854.00,0.0009
3853.00,0.0008
3852.00,0.0007
3851.00,0.0007
3850.00,0.0008
3849.00,0.0009
3848.00,0.0009
3847.00,0.0010
3846.00,0.0010
3845.00,0.0010
3844.00,0.0010
3843.00,0.0010
3842.00,0.0009
3841.00,0.0009
3840.00,0.0009
3839.00,0.0009
3838.00,0.0008
3837.00,0.0008
3836.00,0.0008
3835.00,0.0008
3834.00,0.0009
3833.00,0.0009
3832.00,0.0009
3831.00,0.0009
3830.00,0.0009
3829.00,0.0009
3828.00,0.0009
3827.00,0.0009
3826.00,0.0009
3825.00,0.0009
3824.00,0.0008
3823.00,0.0008
3822.00,0.0008
3821.00,0.0008
3820.00,0.0009
3819.00,0.0009
3818.00,0.0009
3817.00,0.0009
3816.00,0.0009
3815.00,0.0010
3814.00,0.0010
3813.00,0.0010
3812.00,0.0010
3811.00,0.0010
3810.00,0.0010
3809.00,0.0010
3808.00,0.0010
3807.00,0.0009
3806.00,0.0009
3805.00,0.0009
3804.00,0.0009
3803.00,0.0009
3802.00,0.0008
3801.00,0.0008
3800.00,0.0009
3799.00,0.0009
3798.00,0.0010
3797.00,0.0010
3796.00,0.0010
3795.00,0.0010
3794.00,0.0010
3793.00,0.0010
3792.00,0.0010
3791.00,0.0010
3790.00,0.0010
3789.00,0.0010
3788.00,0.0010
3787.00,0.0009
3786.00,0.0009
3785.00,0.0009
3784.00,0.0009
3783.00,0.0010
3782.00,0.0010
3781.00,0.0010
3780.00,0.0010
3779.00,0.0010
3778.00,0.0010
3777.00,0.0010
3776.00,0.0010
3775.00,0.0010
3774.00,0.0010
3773.00,0.0011
3772.00,0.0011
3771.00,0.0010
3770.00,0.0010
3769.00,0.0010
3768.00,0.0010
3767.00,0.0010
3766.00,0.0010
3765.00,0.0010
3764.00,0.0010
3763.00,0.0010
3762.00,0.0010
3761.00,0.0009
3760.00,0.0009
3759.00,0.0009
3758.00,0.0010
3757.00,0.0010
3756.00,0.0010
3755.00,0.0009
3754.00,0.0009
3753.00,0.0009
3752.00,0.0009
3751.00,0.0009
3750.00,0.0008
3749.00,0.0008
3748.00,0.0008
3747.00,0.0008
3746.00,0.0008
3745.00,0.0008
3744.00,0.0008
3743.00,0.0008
3742.00,0.0009
3741.00,0.0009
3740.00,0.0009
3739.00,0.0009
3738.00,0.0009
3737.00,0.0009
3736.00,0.0009
3735.00,0.0009
3734.00,0.0008
3733.00,0.0008
3732.00,0.0008
3731.00,0.0008
3730.00,0.0009
3729.00,0.0010
3728.00,0.0010
3727.00,0.0010
3726.00,0.0010
3725.00,0.0010
3724.00,0.0009
3723.00,0.0009
3722.00,0.0009
3721.00,0.0009
3720.00,0.0009
3719.00,0.0010
3718.00,0.0010
3717.00,0.0010
3716.00,0.0009
3715.00,0.0009
3714.00,0.0009
3713.00,0.0008
3712.00,0.0008
3711.00,0.0008
3710.00,0.0007
3709.00,0.0008
3708.00,0.0008
3707.00,0.0008
3706.00,0.0009
3705.00,0.0009
3704.00,0.0008
3703.00,0.0008
3702.00,0.0008
3701.00,0.0009
3700.00,0.0009
3699.00,0.0009
3698.00,0.0010
3697.00,0.0010
3696.00,0.0010
3695.00,0.0010
3694.00,0.0009
3693.00,0.0009
3692.00,0.0009
3691.00,0.0009
3690.00,0.0008
3689.00,0.0008
3688.00,0.0008
3687.00,0.0008
3686.00,0.0008
3685.00,0.0008
3684.00,0.0009
3683.00,0.0009
3682.00,0.0009
3681.00,0.0008
3680.00,0.0008
3679.00,0.0008
3678.00,0.0008
3677.00,0.0008
3676.00,0.0007
3675.00,0.0007
3674.00,0.0007
3673.00,0.0006
3672.00,0.0006
3671.00,0.0006
3670.00,0.0006
3669.00,0.0006
3668.00,0.0006
3667.00,0.0006
3666.00,0.0006
3665.00,0.0006
3664.00,0.0006
3663.00,0.0007
3662.00,0.0007
3661.00,0.0007
3660.00,0.0006
3659.00,0.0006
3658.00,0.0006
3657.00,0.0006
3656.00,0.0006
3655.00,0.0006
3654.00,0.0006
3653.00,0.0007
3652.00,0.0007
3651.00,0.0008
3650.00,0.0008
3649.00,0.0009
3648.00,0.0008
3647.00,0.0008
3646.00,0.0008
3645.00,0.0008
3644.00,0.0008
3643.00,0.0009
3642.00,0.0009
3641.00,0.0010
3640.00,0.0010
3639.00,0.0010
3638.00,0.0010
3637.00,0.0010
3636.00,0.0011
3635.00,0.0012
3634.00,0.0013
3633.00,0.0013
3632.00,0.0013
3631.00,0.0012
3630.00,0.0012
3629.00,0.0013
3628.00,0.0013
3627.00,0.0014
3626.00,0.0014
3625.00,0.0014
3624.00,0.0014
3623.00,0.0014
3622.00,0.0014
3621.00,0.0014
3620.00,0.0015
3619.00,0.0016
3618.00,0.0016
3617.00,0.0016
3616.00,0.0017
3615.00,0.0018
3614.00,0.0019
3613.00,0.0019
3612.00,0.0019
3611.00,0.0019
3610.00,0.0019
3609.00,0.0019
3608.00,0.0019
3607.00,0.0019
3606.00,0.0019
3605.00,0.0020
3604.00,0.0020
3603.00,0.0020
3602.00,0.0021
3601.00,0.0021
3600.00,0.0021
3599.00,0.0020
3598.00,0.0020
3597.00,0.0020
3596.00,0.0020
3595.00,0.0021
3594.00,0.0021
3593.00,0.0022
3592.00,0.0022
3591.00,0.0022
3590.00,0.0023
3589.00,0.0024
3588.00,0.0024
3587.00,0.0024
3586.00,0.0024
3585.00,0.0024
3584.00,0.0024
3583.00,0.0024
3582.00,0.0024
3581.00,0.0024
3580.00,0.0024
3579.00,0.0024
3578.00,0.0025
3577.00,0.0025
3576.00,0.0025
3575.00,0.0026
3574.00,0.0027
3573.00,0.0027
3572.00,0.0028
3571.00,0.0028
3570.00,0.0028
3569.00,0.0028
3568.00,0.0029
3567.00,0.0029
3566.00,0.0029
3565.00,0.0029
3564.00,0.0029
3563.00,0.0029
3562.00,0.0029
3561.00,0.0029
3560.00,0.0030
3559.00,0.0030
3558.00,0.0031
3557.00,0.0031
3556.00,0.0032
3555.00,0.0032
3554.00,0.0032
3553.00,0.0033
3552.00,0.0033
3551.00,0.0033
3550.00,0.0033
3549.00,0.0033
3548.00,0.0033
3547.00,0.0034
3546.00,0.0034
3545.00,0.0034
3544.00,0.0034
3543.00,0.0034
3542.00,0.0034
3541.00,0.0034
3540.00,0.0034
3539.00,0.0035
3538.00,0.0035
3537.00,0.0036
3536.00,0.0036
3535.00,0.0036
3534.00,0.0037
3533.00,0.0037
3532.00,0.0037
3531.00,0.0038
3530.00,0.0038
3529.00,0.0038
3528.00,0.0038
3527.00,0.0038
3526.00,0.0038
3525.00,0.0039
3524.00,0.0039
3523.00,0.0039
3522.00,0.0039
3521.00,0.0040
3520.00,0.0040
3519.00,0.0041
3518.00,0.0041
3517.00,0.0041
3516.00,0.0041
3515.00,0.0041
3514.00,0.0041
3513.00,0.0040
3512.00,0.0040
3511.00,0.0041
3510.00,0.0041
3509.00,0.0042
3508.00,0.0042
3507.00,0.0042
3506.00,0.0042
3505.00,0.0042
3504.00,0.0042
3503.00,0.0043
3502.00,0.0043
3501.00,0.0044
3500.00,0.0045
3499.00,0.0046
3498.00,0.0046
3497.00,0.0047
3496.00,0.0047
3495.00,0.0046
3494.00,0.0046
3493.00,0.0046
3492.00,0.0046
3491.00,0.0046
3490.00,0.0046
3489.00,0.0046
3488.00,0.0047
3487.00,0.0047
3486.00,0.0048
3485.00,0.0048
3484.00,0.0048
3483.00,0.0049
3482.00,0.0049
3481.00,0.0049
3480.00,0.0050
3479.00,0.0050
3478.00,0.0050
3477.00,0.0050
3476.00,0.0050
3475.00,0.0051
3474.00,0.0051
3473.00,0.0051
3472.00,0.0051
3471.00,0.0051
3470.00,0.0051
3469.00,0.0052
3468.00,0.0052
3467.00,0.0052
3466.00,0.0052
3465.00,0.0052
3464.00,0.0052
3463.00,0.0052
3462.00,0.0053
3461.00,0.0053
3460.00,0.0054
3459.00,0.0055
3458.00,0.0055
3457.00,0.0055
3456.00,0.0055
3455.00,0.0055
3454.00,0.0055
3453.00,0.0055
3452.00,0.0055
3451.00,0.0055
3450.00,0.0055
3449.00,0.0056
3448.00,0.0056
3447.00,0.0056
3446.00,0.0056
3445.00,0.0057
3444.00,0.0057
3443.00,0.0058
3442.00,0.0058
3441.00,0.0059
3440.00,0.0059
3439.00,0.0059
3438.00,0.0059
3437.00,0.0059
3436.00,0.0060
3435.00,0.0060
3434.00,0.0060
3433.00,0.0060
3432.00,0.0060
3431.00,0.0060
3430.00,0.0060
3429.00,0.0060
3428.00,0.0061
3427.00,0.0061
3426.00,0.0062
3425.00,0.0062
3424.00,0.0062
3423.00,0.0063
3422.00,0.0063
3421.00,0.0063
3420.00,0.0063
3419.00,0.0063
3418.00,0.0063
3417.00,0.0063
3416.00,0.0063
3415.00,0.0063
3414.00,0.0063
3413.00,0.0064
3412.00,0.0064
3411.00,0.0065
3410.00,0.0066
3409.00,0.0066
3408.00,0.0066
3407.00,0.0066
3406.00,0.0066
3405.00,0.0066
3404.00,0.0066
3403.00,0.0066
3402.00,0.0066
3401.00,0.0066
3400.00,0.0066
3399.00,0.0066
3398.00,0.0067
3397.00,0.0067
3396.00,0.0067
3395.00,0.0067
3394.00,0.0066
3393.00,0.0066
3392.00,0.0066
3391.00,0.0067
3390.00,0.0067
3389.00,0.0067
3388.00,0.0067
3387.00,0.0067
3386.00,0.0068
3385.00,0.0068
3384.00,0.0068
3383.00,0.0068
3382.00,0.0068
3381.00,0.0068
3380.00,0.0068
3379.00,0.0068
3378.00,0.0069
3377.00,0.0069
3376.00,0.0069
3375.00,0.0070
3374.00,0.0070
3373.00,0.0070
3372.00,0.0070
3371.00,0.0069
3370.00,0.0069
3369.00,0.0069
3368.00,0.0069
3367.00,0.0069
3366.00,0.0070
3365.00,0.0070
3364.00,0.0070
3363.00,0.0071
3362.00,0.0071
3361.00,0.0071
3360.00,0.0071
3359.00,0.0072
3358.00,0.0072
3357.00,0.0072
3356.00,0.0072
3355.00,0.0072
3354.00,0.0072
3353.00,0.0071
3352.00,0.0071
3351.00,0.0072
3350.00,0.0072
3349.00,0.0072
3348.00,0.0072
3347.00,0.0072
3346.00,0.0072
3345.00,0.0072
3344.00,0.0073
3343.00,0.0073
3342.00,0.0073
3341.00,0.0073
3340.00,0.0073
3339.00,0.0072
3338.00,0.0072
3337.00,0.0072
3336.00,0.0072
3335.00,0.0073
3334.00,0.0073
3333.00,0.0073
3332.00,0.0073
3331.00,0.0072
3330.00,0.0072
3329.00,0.0072
3328.00,0.0072
3327.00,0.0071
3326.00,0.0071
3325.00,0.0071
3324.00,0.0072
3323.00,0.0072
3322.00,0.0072
3321.00,0.0072
3320.00,0.0072
3319.00,0.0072
3318.00,0.0072
3317.00,0.0072
3316.00,0.0072
3315.00,0.0071
3314.00,0.0071
3313.00,0.0071
3312.00,0.0071
3311.00,0.0071
3310.00,0.0072
3309.00,0.0072
3308.00,0.0072
3307.00,0.0073
3306.00,0.0073
3305.00,0.0073
3304.00,0.0074
3303.00,0.0074
3302.00,0.0074
3301.00,0.0074
3300.00,0.0074
3299.00,0.0074
3298.00,0.0073
3297.00,0.0073
3296.00,0.0072
3295.00,0.0072
3294.00,0.0071
3293.00,0.0070
3292.00,0.0070
3291.00,0.0070
3290.00,0.0070
3289.00,0.0070
3288.00,0.0070
3287.00,0.0069
3286.00,0.0069
3285.00,0.0069
3284.00,0.0069
3283.00,0.0069
3282.00,0.0069
3281.00,0.0069
3280.00,0.0069
3279.00,0.0068
3278.00,0.0068
3277.00,0.0067
3276.00,0.0067
3275.00,0.0066
3274.00,0.0066
3273.00,0.0066
3272.00,0.0066
3271.00,0.0066
3270.00,0.0066
3269.00,0.0066
3268.00,0.0066
3267.00,0.0065
3266.00,0.0065
3265.00,0.0065
3264.00,0.0064
3263.00,0.0064
3262.00,0.0064
3261.00,0.0063
3260.00,0.0063
3259.00,0.0063
3258.00,0.0063
3257.00,0.0062
3256.00,0.0062
3255.00,0.0061
3254.00,0.0061
3253.00,0.0061
3252.00,0.0061
3251.00,0.0061
3250.00,0.0061
3249.00,0.0061
3248.00,0.0061
3247.00,0.0061
3246.00,0.0060
3245.00,0.0060
3244.00,0.0060
3243.00,0.0060
3242.00,0.0060
3241.00,0.0060
3240.00,0.0060
3239.00,0.0061
3238.00,0.0061
3237.00,0.0061
3236.00,0.0060
3235.00,0.0060
3234.00,0.0059
3233.00,0.0059
3232.00,0.0059
3231.00,0.0059
3230.00,0.0059
3229.00,0.0059
3228.00,0.0060
3227.00,0.0060
3226.00,0.0060
3225.00,0.0060
3224.00,0.0060
3223.00,0.0060
3222.00,0.0060
3221.00,0.0060
3220.00,0.0060
3219.00,0.0060
3218.00,0.0060
3217.00,0.0061
3216.00,0.0061
3215.00,0.0061
3214.00,0.0062
3213.00,0.0062
3212.00,0.0062
3211.00,0.0061
3210.00,0.0061
3209.00,0.0060
3208.00,0.0060
3207.00,0.0060
3206.00,0.0061
3205.00,0.0061
3204.00,0.0061
3203.00,0.0061
3202.00,0.0061
3201.00,0.0061
3200.00,0.0061
3199.00,0.0061
3198.00,0.0061
3197.00,0.0061
3196.00,0.0061
3195.00,0.0060
3194.00,0.0060
3193.00,0.0059
3192.00,0.0059
3191.00,0.0059
3190.00,0.0059
3189.00,0.0059
3188.00,0.0059
3187.00,0.0059
3186.00,0.0058
3185.00,0.0058
3184.00,0.0058
3183.00,0.0057
3182.00,0.0057
3181.00,0.0057
3180.00,0.0057
3179.00,0.0056
3178.00,0.0056
3177.00,0.0055
3176.00,0.0055
3175.00,0.0055
3174.00,0.0056
3173.00,0.0056
3172.00,0.0056
3171.00,0.0055
3170.00,0.0055
3169.00,0.0054
3168.00,0.0054
3167.00,0.0054
3166.00,0.0054
3165.00,0.0054
3164.00,0.0054
3163.00,0.0054
3162.00,0.0054
3161.00,0.0054
3160.00,0.0053
3159.00,0.0053
3158.00,0.0053
3157.00,0.0053
3156.00,0.0053
3155.00,0.0053
3154.00,0.0053
3153.00,0.0053
3152.00,0.0053
3151.00,0.0053
3150.00,0.0053
3149.00,0.0053
3148.00,0.0053
3147.00,0.0053
3146.00,0.0052
3145.00,0.0052
3144.00,0.0052
3143.00,0.0051
3142.00,0.0051
3141.00,0.0050
3140.00,0.0050
3139.00,0.0049
3138.00,0.0049
3137.00,0.0049
3136.00,0.0049
3135.00,0.0049
3134.00,0.0049
3133.00,0.0049
3132.00,0.0049
3131.00,0.0048
3130.00,0.0048
3129.00,0.0048
3128.00,0.0048
3127.00,0.0048
3126.00,0.0047
3125.00,0.0047
3124.00,0.0046
3123.00,0.0046
3122.00,0.0046
3121.00,0.0045
3120.00,0.0045
3119.00,0.0045
3118.00,0.0045
3117.00,0.0045
3116.00,0.0044
3115.00,0.0044
3114.00,0.0044
3113.00,0.0044
3112.00,0.0044
3111.00,0.0044
3110.00,0.0043
3109.00,0.0043
3108.00,0.0043
3107.00,0.0043
3106.00,0.0043
3105.00,0.0043
3104.00,0.0043
3103.00,0.0043
3102.00,0.0043
3101.00,0.0043
3100.00,0.0043
3099.00,0.0043
3098.00,0.0043
3097.00,0.0043
3096.00,0.0043
3095.00,0.0043
3094.00,0.0043
3093.00,0.0043
3092.00,0.0042
3091.00,0.0042
3090.00,0.0042
3089.00,0.0042
3088.00,0.0042
3087.00,0.0042
3086.00,0.0042
3085.00,0.0042
3084.00,0.0041
3083.00,0.0042
3082.00,0.0042
3081.00,0.0041
3080.00,0.0041
3079.00,0.0041
3078.00,0.0041
3077.00,0.0041
3076.00,0.0042
3075.00,0.0042
3074.00,0.0042
3073.00,0.0043
3072.00,0.0043
3071.00,0.0042
3070.00,0.0042
3069.00,0.0042
3068.00,0.0042
3067.00,0.0043
3066.00,0.0043
3065.00,0.0043
3064.00,0.0043
3063.00,0.0043
3062.00,0.0043
3061.00,0.0043
3060.00,0.0044
3059.00,0.0044
3058.00,0.0044
3057.00,0.0044
3056.00,0.0043
3055.00,0.0044
3054.00,0.0044
3053.00,0.0044
3052.00,0.0044
3051.00,0.0045
3050.00,0.0045
3049.00,0.0045
3048.00,0.0045
3047.00,0.0046
3046.00,0.0046
3045.00,0.0046
3044.00,0.0045
3043.00,0.0045
3042.00,0.0045
3041.00,0.0046
3040.00,0.0046
3039.00,0.0047
3038.00,0.0047
3037.00,0.0047
3036.00,0.0047
3035.00,0.0047
3034.00,0.0047
3033.00,0.0047
3032.00,0.0047
3031.00,0.0047
3030.00,0.0048
3029.00,0.0048
3028.00,0.0049
3027.00,0.0050
3026.00,0.0050
3025.00,0.0051
3024.00,0.0051
3023.00,0.0051
3022.00,0.0052
3021.00,0.0052
3020.00,0.0053
3019.00,0.0054
3018.00,0.0054
3017.00,0.0054
3016.00,0.0054
3015.00,0.0054
3014.00,0.0055
3013.00,0.0056
3012.00,0.0056
3011.00,0.0057
3010.00,0.0057
3009.00,0.0057
3008.00,0.0057
3007.00,0.0057
3006.00,0.0057
3005.00,0.0057
3004.00,0.0058
3003.00,0.0058
3002.00,0.0059
3001.00,0.0060
3000.00,0.0061
2999.00,0.0063
2998.00,0.0064
2997.00,0.0067
2996.00,0.0069
2995.00,0.0072
2994.00,0.0075
2993.00,0.0079
2992.00,0.0083
2991.00,0.0088
2990.00,0.0093
2989.00,0.0099
2988.00,0.0105
2987.00,0.0111
2986.00,0.0118
2985.00,0.0124
2984.00,0.0130
2983.00,0.0139
2982.00,0.0150
2981.00,0.0166
2980.00,0.0186
2979.00,0.0209
2978.00,0.0235
2977.00,0.0263
2976.00,0.0295
2975.00,0.0329
2974.00,0.0368
2973.00,0.0411
2972.00,0.0461
2971.00,0.0517
2970.00,0.0580
2969.00,0.0648
2968.00,0.0720
2967.00,0.0796
2966.00,0.0873
2965.00,0.0948
2964.00,0.1020
2963.00,0.1083
2962.00,0.1136
2961.00,0.1178
2960.00,0.1213
2959.00,0.1247
2958.00,0.1286
2957.00,0.1335
2956.00,0.1401
2955.00,0.1484
2954.00,0.1583
2953.00,0.1687
2952.00,0.1784
2951.00,0.1859
2950.00,0.1895
2949.00,0.1883
2948.00,0.1822
2947.00,0.1721
2946.00,0.1596
2945.00,0.1463
2944.00,0.1338
2943.00,0.1230
2942.00,0.1147
2941.00,0.1090
2940.00,0.1057
2939.00,0.1047
2938.00,0.1057
2937.00,0.1084
2936.00,0.1127
2935.00,0.1186
2934.00,0.1259
2933.00,0.1346
2932.00,0.1444
2931.00,0.1554
2930.00,0.1673
2929.00,0.1797
2928.00,0.1924
2927.00,0.2052
2926.00,0.2179
2925.00,0.2305
2924.00,0.2431
2923.00,0.2560
2922.00,0.2691
2921.00,0.2821
2920.00,0.2941
2919.00,0.3035
2918.00,0.3087
2917.00,0.3084
2916.00,0.3026
2915.00,0.2919
2914.00,0.2782
2913.00,0.2634
2912.00,0.2490
2911.00,0.2359
2910.00,0.2244
2909.00,0.2143
2908.00,0.2052
2907.00,0.1968
2906.00,0.1888
2905.00,0.1810
2904.00,0.1733
2903.00,0.1658
2902.00,0.1587
2901.00,0.1518
2900.00,0.1453
2899.00,0.1392
2898.00,0.1334
2897.00,0.1281
2896.00,0.1234
2895.00,0.1192
2894.00,0.1157
2893.00,0.1129
2892.00,0.1107
2891.00,0.1091
2890.00,0.1081
2889.00,0.1075
2888.00,0.1072
2887.00,0.1073
2886.00,0.1077
2885.00,0.1085
2884.00,0.1097
2883.00,0.1113
2882.00,0.1134
2881.00,0.1157
2880.00,0.1179
2879.00,0.1197
2878.00,0.1208
2877.00,0.1209
2876.00,0.1204
2875.00,0.1197
2874.00,0.1194
2873.00,0.1196
2872.00,0.1208
2871.00,0.1226
2870.00,0.1250
2869.00,0.1275
2868.00,0.1292
2867.00,0.1294
2866.00,0.1273
2865.00,0.1228
2864.00,0.1162
2863.00,0.1084
2862.00,0.1006
2861.00,0.0936
2860.00,0.0881
2859.00,0.0843
2858.00,0.0820
2857.00,0.0812
2856.00,0.0815
2855.00,0.0826
2854.00,0.0844
2853.00,0.0867
2852.00,0.0890
2851.00,0.0911
2850.00,0.0926
2849.00,0.0936
2848.00,0.0942
2847.00,0.0951
2846.00,0.0967
2845.00,0.0993
2844.00,0.1030
2843.00,0.1075
2842.00,0.1121
2841.00,0.1162
2840.00,0.1191
2839.00,0.1200
2838.00,0.1184
2837.00,0.1140
2836.00,0.1070
2835.00,0.0981
2834.00,0.0881
2833.00,0.0779
2832.00,0.0685
2831.00,0.0602
2830.00,0.0532
2829.00,0.0474
2828.00,0.0427
2827.00,0.0389
2826.00,0.0358
2825.00,0.0332
2824.00,0.0310
2823.00,0.0291
2822.00,0.0275
2821.00,0.0261
2820.00,0.0249
2819.00,0.0238
2818.00,0.0229
2817.00,0.0221
2816.00,0.0213
2815.00,0.0207
2814.00,0.0201
2813.00,0.0196
2812.00,0.0190
2811.00,0.0185
2810.00,0.0179
2809.00,0.0173
2808.00,0.0166
2807.00,0.0160
2806.00,0.0153
2805.00,0.0147
2804.00,0.0140
2803.00,0.0135
2802.00,0.0130
2801.00,0.0125
2800.00,0.0122
2799.00,0.0118
2798.00,0.0116
2797.00,0.0113
2796.00,0.0111
2795.00,0.0108
2794.00,0.0105
2793.00,0.0103
2792.00,0.0099
2791.00,0.0096
2790.00,0.0093
2789.00,0.0091
2788.00,0.0088
2787.00,0.0085
2786.00,0.0083
2785.00,0.0081
2784.00,0.0079
2783.00,0.0077
2782.00,0.0076
2781.00,0.0074
2780.00,0.0072
2779.00,0.0071
2778.00,0.0069
2777.00,0.0068
2776.00,0.0066
2775.00,0.0065
2774.00,0.0064
2773.00,0.0063
2772.00,0.0062
2771.00,0.0062
2770.00,0.0061
2769.00,0.0061
2768.00,0.0060
2767.00,0.0060
2766.00,0.0060
2765.00,0.0060
2764.00,0.0059
2763.00,0.0059
2762.00,0.0059
2761.00,0.0059
2760.00,0.0058
2759.00,0.0058
2758.00,0.0057
2757.00,0.0057
2756.00,0.0057
2755.00,0.0057
2754.00,0.0057
2753.00,0.0057
2752.00,0.0056
2751.00,0.0056
2750.00,0.0055
2749.00,0.0055
2748.00,0.0055
2747.00,0.0056
2746.00,0.0056
2745.00,0.0057
2744.00,0.0058
2743.00,0.0058
2742.00,0.0059
2741.00,0.0060
2740.00,0.0061
2739.00,0.0062
2738.00,0.0064
2737.00,0.0065
2736.00,0.0066
2735.00,0.0068
2734.00,0.0070
2733.00,0.0072
2732.00,0.0074
2731.00,0.0076
2730.00,0.0078
2729.00,0.0080
2728.00,0.0082
2727.00,0.0084
2726.00,0.0087
2725.00,0.0090
2724.00,0.0091
2723.00,0.0092
2722.00,0.0091
2721.00,0.0090
2720.00,0.0088
2719.00,0.0085
2718.00,0.0081
2717.00,0.0078
2716.00,0.0075
2715.00,0.0072
2714.00,0.0069
2713.00,0.0067
2712.00,0.0065
2711.00,0.0063
2710.00,0.0061
2709.00,0.0060
2708.00,0.0058
2707.00,0.0056
2706.00,0.0055
2705.00,0.0054
2704.00,0.0053
2703.00,0.0052
2702.00,0.0052
2701.00,0.0051
2700.00,0.0050
2699.00,0.0050
2698.00,0.0049
2697.00,0.0049
2696.00,0.0049
2695.00,0.0049
2694.00,0.0049
2693.00,0.0049
2692.00,0.0049
2691.00,0.0049
2690.00,0.0048
2689.00,0.0049
2688.00,0.0049
2687.00,0.0049
2686.00,0.0049
2685.00,0.0049
2684.00,0.0048
2683.00,0.0048
2682.00,0.0048
2681.00,0.0049
2680.00,0.0049
2679.00,0.0049
2678.00,0.0049
2677.00,0.0049
2676.00,0.0049
2675.00,0.0049
2674.00,0.0049
2673.00,0.0048
2672.00,0.0048
2671.00,0.0048
2670.00,0.0048
2669.00,0.0048
2668.00,0.0048
2667.00,0.0048
2666.00,0.0048
2665.00,0.0048
2664.00,0.0049
2663.00,0.0050
2662.00,0.0050
2661.00,0.0051
2660.00,0.0051
2659.00,0.0052
2658.00,0.0051
2657.00,0.0051
2656.00,0.0051
2655.00,0.0050
2654.00,0.0049
2653.00,0.0049
2652.00,0.0048
2651.00,0.0048
2650.00,0.0047
2649.00,0.0047
2648.00,0.0046
2647.00,0.0046
2646.00,0.0045
2645.00,0.0045
2644.00,0.0045
2643.00,0.0044
2642.00,0.0044
2641.00,0.0043
2640.00,0.0043
2639.00,0.0042
2638.00,0.0042
2637.00,0.0042
2636.00,0.0042
2635.00,0.0042
2634.00,0.0042
2633.00,0.0042
2632.00,0.0042
2631.00,0.0042
2630.00,0.0043
2629.00,0.0043
2628.00,0.0043
2627.00,0.0043
2626.00,0.0043
2625.00,0.0043
2624.00,0.0043
2623.00,0.0043
2622.00,0.0044
2621.00,0.0044
2620.00,0.0044
2619.00,0.0044
2618.00,0.0044
2617.00,0.0044
2616.00,0.0045
2615.00,0.0045
2614.00,0.0044
2613.00,0.0044
2612.00,0.0043
2611.00,0.0042
2610.00,0.0041
2609.00,0.0040
2608.00,0.0039
2607.00,0.0038
2606.00,0.0038
2605.00,0.0038
2604.00,0.0037
2603.00,0.0037
2602.00,0.0036
2601.00,0.0036
2600.00,0.0035
2599.00,0.0035
2598.00,0.0034
2597.00,0.0034
2596.00,0.0035
2595.00,0.0035
2594.00,0.0035
2593.00,0.0035
2592.00,0.0036
2591.00,0.0036
2590.00,0.0037
2589.00,0.0038
2588.00,0.0039
2587.00,0.0040
2586.00,0.0041
2585.00,0.0042
2584.00,0.0042
2583.00,0.0043
2582.00,0.0043
2581.00,0.0043
2580.00,0.0043
2579.00,0.0042
2578.00,0.0041
2577.00,0.0040
2576.00,0.0038
2575.00,0.0036
2574.00,0.0034
2573.00,0.0033
2572.00,0.0032
2571.00,0.0031
2570.00,0.0031
2569.00,0.0030
2568.00,0.0030
2567.00,0.0029
2566.00,0.0029
2565.00,0.0029
2564.00,0.0029
2563.00,0.0029
2562.00,0.0029
2561.00,0.0028
2560.00,0.0028
2559.00,0.0027
2558.00,0.0026
2557.00,0.0026
2556.00,0.0025
2555.00,0.0025
2554.00,0.0024
2553.00,0.0024
2552.00,0.0024
2551.00,0.0025
2550.00,0.0025
2549.00,0.0024
2548.00,0.0024
2547.00,0.0024
2546.00,0.0023
2545.00,0.0022
2544.00,0.0022
2543.00,0.0021
2542.00,0.0020
2541.00,0.0020
2540.00,0.0020
2539.00,0.0020
2538.00,0.0020
2537.00,0.0020
2536.00,0.0020
2535.00,0.0019
2534.00,0.0019
2533.00,0.0019
2532.00,0.0019
2531.00,0.0019
2530.00,0.0019
2529.00,0.0018
2528.00,0.0018
2527.00,0.0018
2526.00,0.0018
2525.00,0.0018
2524.00,0.0017
2523.00,0.0017
2522.00,0.0017
2521.00,0.0017
2520.00,0.0016
2519.00,0.0016
2518.00,0.0016
2517.00,0.0015
2516.00,0.0015
2515.00,0.0014
2514.00,0.0013
2513.00,0.0013
2512.00,0.0014
2511.00,0.0014
2510.00,0.0015
2509.00,0.0015
2508.00,0.0015
2507.00,0.0014
2506.00,0.0014
2505.00,0.0014
2504.00,0.0014
2503.00,0.0014
2502.00,0.0014
2501.00,0.0014
2500.00,0.0014
2499.00,0.0015
2498.00,0.0015
2497.00,0.0015
2496.00,0.0015
2495.00,0.0015
2494.00,0.0014
2493.00,0.0014
2492.00,0.0014
2491.00,0.0014
2490.00,0.0014
2489.00,0.0014
2488.00,0.0014
2487.00,0.0013
2486.00,0.0013
2485.00,0.0012
2484.00,0.0011
2483.00,0.0011
2482.00,0.0012
2481.00,0.0012
2480.00,0.0012
2479.00,0.0012
2478.00,0.0012
2477.00,0.0013
2476.00,0.0014
2475.00,0.0014
2474.00,0.0014
2473.00,0.0014
2472.00,0.0013
2471.00,0.0013
2470.00,0.0012
2469.00,0.0011
2468.00,0.0011
2467.00,0.0011
2466.00,0.0011
2465.00,0.0011
2464.00,0.0011
2463.00,0.0011
2462.00,0.0011
2461.00,0.0011
2460.00,0.0011
2459.00,0.0012
2458.00,0.0012
2457.00,0.0013
2456.00,0.0014
2455.00,0.0014
2454.00,0.0015
2453.00,0.0015
2452.00,0.0015
2451.00,0.0015
2450.00,0.0015
2449.00,0.0014
2448.00,0.0014
2447.00,0.0014
2446.00,0.0014
2445.00,0.0014
2444.00,0.0015
2443.00,0.0015
2442.00,0.0015
2441.00,0.0015
2440.00,0.0015
2439.00,0.0015
2438.00,0.0015
2437.00,0.0015
2436.00,0.0015
2435.00,0.0015
2434.00,0.0015
2433.00,0.0016
2432.00,0.0016
2431.00,0.0016
2430.00,0.0016
2429.00,0.0015
2428.00,0.0015
2427.00,0.0015
2426.00,0.0015
2425.00,0.0015
2424.00,0.0016
2423.00,0.0016
2422.00,0.0015
2421.00,0.0015
2420.00,0.0014
2419.00,0.0014
2418.00,0.0013
2417.00,0.0012
2416.00,0.0011
2415.00,0.0012
2414.00,0.0012
2413.00,0.0013
2412.00,0.0013
2411.00,0.0013
2410.00,0.0013
2409.00,0.0013
2408.00,0.0013
2407.00,0.0012
2406.00,0.0012
2405.00,0.0012
2404.00,0.0012
2403.00,0.0012
2402.00,0.0012
2401.00,0.0012
2400.00,0.0012
2399.00,0.0012
2398.00,0.0012
2397.00,0.0012
2396.00,0.0011
2395.00,0.0011
2394.00,0.0010
2393.00,0.0010
2392.00,0.0010
2391.00,0.0010
2390.00,0.0010
2389.00,0.0011
2388.00,0.0011
2387.00,0.0011
2386.00,0.0011
2385.00,0.0011
2384.00,0.0010
2383.00,0.0010
2382.00,0.0009
2381.00,0.0008
2380.00,0.0007
2379.00,0.0007
2378.00,0.0007
2377.00,0.0007
2376.00,0.0007
2375.00,0.0007
2374.00,0.0007
2373.00,0.0007
2372.00,0.0007
2371.00,0.0007
2370.00,0.0006
2369.00,0.0006
2368.00,0.0005
2367.00,0.0004
2366.00,0.0004
2365.00,0.0005
2364.00,0.0005
2363.00,0.0006
2362.00,0.0006
2361.00,0.0006
2360.00,0.0006
2359.00,0.0006
2358.00,0.0006
2357.00,0.0007
2356.00,0.0007
2355.00,0.0007
2354.00,0.0008
2353.00,0.0007
2352.00,0.0007
2351.00,0.0007
2350.00,0.0007
2349.00,0.0007
2348.00,0.0007
2347.00,0.0007
2346.00,0.0007
2345.00,0.0007
2344.00,0.0007
2343.00,0.0008
2342.00,0.0009
2341.00,0.0009
2340.00,0.0010
2339.00,0.0010
2338.00,0.0010
2337.00,0.0010
2336.00,0.0010
2335.00,0.0010
2334.00,0.0010
2333.00,0.0010
2332.00,0.0009
2331.00,0.0009
2330.00,0.0009
2329.00,0.0010
2328.00,0.0013
2327.00,0.0016
2326.00,0.0020
2325.00,0.0022
2324.00,0.0023
2323.00,0.0022
2322.00,0.0020
2321.00,0.0019
2320.00,0.0018
2319.00,0.0018
2318.00,0.0018
2317.00,0.0017
2316.00,0.0017
2315.00,0.0016
2314.00,0.0015
2313.00,0.0014
2312.00,0.0014
2311.00,0.0014
2310.00,0.0014
2309.00,0.0014
2308.00,0.0015
2307.00,0.0015
2306.00,0.0015
2305.00,0.0015
2304.00,0.0015
2303.00,0.0015
2302.00,0.0015
2301.00,0.0015
2300.00,0.0015
2299.00,0.0015
2298.00,0.0015
2297.00,0.0015
2296.00,0.0016
2295.00,0.0016
2294.00,0.0017
2293.00,0.0018
2292.00,0.0019
2291.00,0.0020
2290.00,0.0021
2289.00,0.0022
2288.00,0.0023
2287.00,0.0024
2286.00,0.0023
2285.00,0.0022
2284.00,0.0021
2283.00,0.0019
2282.00,0.0018
2281.00,0.0017
2280.00,0.0017
2279.00,0.0017
2278.00,0.0017
2277.00,0.0016
2276.00,0.0015
2275.00,0.0014
2274.00,0.0015
2273.00,0.0016
2272.00,0.0016
2271.00,0.0016
2270.00,0.0016
2269.00,0.0016
2268.00,0.0017
2267.00,0.0017
2266.00,0.0016
2265.00,0.0015
2264.00,0.0014
2263.00,0.0014
2262.00,0.0015
2261.00,0.0016
2260.00,0.0017
2259.00,0.0018
2258.00,0.0018
2257.00,0.0016
2256.00,0.0014
2255.00,0.0012
2254.00,0.0011
2253.00,0.0011
2252.00,0.0012
2251.00,0.0013
2250.00,0.0013
2249.00,0.0013
2248.00,0.0012
2247.00,0.0010
2246.00,0.0010
2245.00,0.0010
2244.00,0.0010
2243.00,0.0010
2242.00,0.0010
2241.00,0.0009
2240.00,0.0009
2239.00,0.0009
2238.00,0.0009
2237.00,0.0011
2236.00,0.0012
2235.00,0.0014
2234.00,0.0014
2233.00,0.0013
2232.00,0.0013
2231.00,0.0012
2230.00,0.0012
2229.00,0.0012
2228.00,0.0013
2227.00,0.0014
2226.00,0.0015
2225.00,0.0016
2224.00,0.0015
2223.00,0.0014
2222.00,0.0013
2221.00,0.0011
2220.00,0.0009
2219.00,0.0008
2218.00,0.0008
2217.00,0.0009
2216.00,0.0010
2215.00,0.0009
2214.00,0.0007
2213.00,0.0007
2212.00,0.0007
2211.00,0.0008
2210.00,0.0008
2209.00,0.0009
2208.00,0.0011
2207.00,0.0012
2206.00,0.0012
2205.00,0.0011
2204.00,0.0010
2203.00,0.0011
2202.00,0.0011
2201.00,0.0012
2200.00,0.0012
2199.00,0.0012
2198.00,0.0011
2197.00,0.0010
2196.00,0.0010
2195.00,0.0012
2194.00,0.0013
2193.00,0.0013
2192.00,0.0010
2191.00,0.0008
2190.00,0.0008
2189.00,0.0011
2188.00,0.0015
2187.00,0.0017
2186.00,0.0017
2185.00,0.0016
2184.00,0.0013
2183.00,0.0011
2182.00,0.0010
2181.00,0.0010
2180.00,0.0011
2179.00,0.0010
2178.00,0.0010
2177.00,0.0009
2176.00,0.0008
2175.00,0.0007
2174.00,0.0007
2173.00,0.0009
2172.00,0.0011
2171.00,0.0011
2170.00,0.0012
2169.00,0.0013
2168.00,0.0015
2167.00,0.0018
2166.00,0.0019
2165.00,0.0021
2164.00,0.0022
2163.00,0.0024
2162.00,0.0024
2161.00,0.0020
2160.00,0.0009
2159.00,-0.0005
2158.00,-0.0019
2157.00,-0.0027
2156.00,-0.0030
2155.00,-0.0029
2154.00,-0.0024
2153.00,-0.0017
2152.00,-0.0011
2151.00,-0.0008
2150.00,-0.0007
2149.00,-0.0008
2148.00,-0.0009
2147.00,-0.0011
2146.00,-0.0011
2145.00,-0.0010
2144.00,-0.0008
2143.00,-0.0007
2142.00,-0.0007
2141.00,-0.0006
2140.00,-0.0005
2139.00,-0.0006
2138.00,-0.0007
2137.00,-0.0009
2136.00,-0.0011
2135.00,-0.0012
2134.00,-0.0012
2133.00,-0.0011
2132.00,-0.0010
2131.00,-0.0009
2130.00,-0.0008
2129.00,-0.0006
2128.00,-0.0004
2127.00,-0.0002
2126.00,-0.0001
2125.00,-0.0000
2124.00,0.0000
2123.00,0.0000
2122.00,0.0001
2121.00,0.0002
2120.00,0.0003
2119.00,0.0004
2118.00,0.0005
2117.00,0.0005
2116.00,0.0005
2115.00,0.0005
2114.00,0.0005
2113.00,0.0005
2112.00,0.0005
2111.00,0.0004
2110.00,0.0003
2109.00,0.0002
2108.00,0.0002
2107.00,0.0001
2106.00,0.0001
2105.00,0.0002
2104.00,0.0003
2103.00,0.0004
2102.00,0.0004
2101.00,0.0004
2100.00,0.0003
2099.00,0.0001
2098.00,0.0000
2097.00,-0.0000
2096.00,-0.0001
2095.00,-0.0001
2094.00,-0.0002
2093.00,-0.0001
2092.00,0.0000
2091.00,0.0001
2090.00,0.0000
2089.00,-0.0000
2088.00,0.0000
2087.00,0.0001
2086.00,0.0003
2085.00,0.0005
2084.00,0.0006
2083.00,0.0006
2082.00,0.0005
2081.00,0.0005
2080.00,0.0006
2079.00,0.0007
2078.00,0.0008
2077.00,0.0008
2076.00,0.0007
2075.00,0.0005
2074.00,0.0004
2073.00,0.0004
2072.00,0.0005
2071.00,0.0005
2070.00,0.0005
2069.00,0.0004
2068.00,0.0004
2067.00,0.0004
2066.00,0.0004
2065.00,0.0003
2064.00,0.0003
2063.00,0.0003
2062.00,0.0003
2061.00,0.0005
2060.00,0.0006
2059.00,0.0005
2058.00,0.0004
2057.00,0.0004
2056.00,0.0005
2055.00,0.0006
2054.00,0.0009
2053.00,0.0013
2052.00,0.0017
2051.00,0.0018
2050.00,0.0015
2049.00,0.0011
2048.00,0.0008
2047.00,0.0006
2046.00,0.0004
2045.00,0.0003
2044.00,0.0002
2043.00,0.0002
2042.00,0.0003
2041.00,0.0004
2040.00,0.0006
2039.00,0.0006
2038.00,0.0006
2037.00,0.0005
2036.00,0.0003
2035.00,-0.0000
2034.00,-0.0004
2033.00,-0.0007
2032.00,-0.0008
2031.00,-0.0008
2030.00,-0.0006
2029.00,-0.0002
2028.00,0.0001
2027.00,0.0002
2026.00,0.0001
2025.00,-0.0001
2024.00,-0.0004
2023.00,-0.0008
2022.00,-0.0011
2021.00,-0.0012
2020.00,-0.0011
2019.00,-0.0009
2018.00,-0.0008
2017.00,-0.0007
2016.00,-0.0007
2015.00,-0.0006
2014.00,-0.0005
2013.00,-0.0002
2012.00,0.0001
2011.00,0.0002
2010.00,0.0001
2009.00,-0.0002
2008.00,-0.0006
2007.00,-0.0009
2006.00,-0.0009
2005.00,-0.0008
2004.00,-0.0007
2003.00,-0.0008
2002.00,-0.0009
2001.00,-0.0009
2000.00,-0.0008
1999.00,-0.0007
1998.00,-0.0008
1997.00,-0.0009
1996.00,-0.0009
1995.00,-0.0006
1994.00,-0.0003
1993.00,0.0001
1992.00,0.0003
1991.00,0.0003
1990.00,0.0001
1989.00,-0.0001
1988.00,-0.0003
1987.00,-0.0003
1986.00,-0.0001
1985.00,0.0003
1984.00,0.0006
1983.00,0.0007
1982.00,0.0009
1981.00,0.0011
1980.00,0.0011
1979.00,0.0009
1978.00,0.0003
1977.00,-0.0003
1976.00,-0.0007
1975.00,-0.0008
1974.00,-0.0007
1973.00,-0.0007
1972.00,-0.0007
1971.00,-0.0009
1970.00,-0.0011
1969.00,-0.0012
1968.00,-0.0011
1967.00,-0.0010
1966.00,-0.0010
1965.00,-0.0010
1964.00,-0.0010
1963.00,-0.0010
1962.00,-0.0010
1961.00,-0.0011
1960.00,-0.0012
1959.00,-0.0012
1958.00,-0.0012
1957.00,-0.0009
1956.00,-0.0006
1955.00,-0.0004
1954.00,-0.0004
1953.00,-0.0005
1952.00,-0.0007
1951.00,-0.0009
1950.00,-0.0009
1949.00,-0.0009
1948.00,-0.0008
1947.00,-0.0009
1946.00,-0.0009
1945.00,-0.0008
1944.00,-0.0006
1943.00,-0.0005
1942.00,-0.0004
1941.00,-0.0004
1940.00,-0.0004
1939.00,-0.0005
1938.00,-0.0006
1937.00,-0.0005
1936.00,-0.0004
1935.00,-0.0004
1934.00,-0.0005
1933.00,-0.0005
1932.00,-0.0006
1931.00,-0.0005
1930.00,-0.0004
1929.00,-0.0003
1928.00,-0.0002
1927.00,-0.0002
1926.00,-0.0002
1925.00,-0.0002
1924.00,-0.0001
1923.00,-0.0001
1922.00,-0.0001
1921.00,0.0000
1920.00,0.0002
1919.00,0.0004
1918.00,0.0006
1917.00,0.0006
1916.00,0.0004
1915.00,0.0001
1914.00,-0.0000
1913.00,-0.0001
1912.00,-0.0000
1911.00,0.0001
1910.00,0.0002
1909.00,0.0003
1908.00,0.0004
1907.00,0.0004
1906.00,0.0004
1905.00,0.0005
1904.00,0.0005
1903.00,0.0005
1902.00,0.0005
1901.00,0.0005
1900.00,0.0005
1899.00,0.0004
1898.00,0.0004
1897.00,0.0004
1896.00,0.0004
1895.00,0.0004
1894.00,0.0004
1893.00,0.0004
1892.00,0.0004
1891.00,0.0004
1890.00,0.0005
1889.00,0.0005
1888.00,0.0005
1887.00,0.0004
1886.00,0.0004
1885.00,0.0004
1884.00,0.0003
1883.00,0.0003
1882.00,0.0003
1881.00,0.0003
1880.00,0.0003
1879.00,0.0002
1878.00,0.0001
1877.00,0.0002
1876.00,0.0003
1875.00,0.0004
1874.00,0.0004
1873.00,0.0004
1872.00,0.0004
1871.00,0.0004
1870.00,0.0004
1869.00,0.0005
1868.00,0.0005
1867.00,0.0006
1866.00,0.0005
1865.00,0.0005
1864.00,0.0005
1863.00,0.0005
1862.00,0.0005
1861.00,0.0005
1860.00,0.0004
1859.00,0.0004
1858.00,0.0005
1857.00,0.0005
1856.00,0.0006
1855.00,0.0006
1854.00,0.0006
1853.00,0.0006
1852.00,0.0007
1851.00,0.0007
1850.00,0.0006
1849.00,0.0006
1848.00,0.0005
1847.00,0.0005
1846.00,0.0005
1845.00,0.0005
1844.00,0.0005
1843.00,0.0006
1842.00,0.0006
1841.00,0.0006
1840.00,0.0006
1839.00,0.0006
1838.00,0.0007
1837.00,0.0007
1836.00,0.0007
1835.00,0.0007
1834.00,0.0007
1833.00,0.0007
1832.00,0.0008
1831.00,0.0008
1830.00,0.0009
1829.00,0.0009
1828.00,0.0009
1827.00,0.0008
1826.00,0.0008
1825.00,0.0009
1824.00,0.0009
1823.00,0.0009
1822.00,0.0008
1821.00,0.0007
1820.00,0.0007
1819.00,0.0006
1818.00,0.0005
1817.00,0.0004
1816.00,0.0004
1815.00,0.0005
1814.00,0.0006
1813.00,0.0007
1812.00,0.0008
1811.00,0.0008
1810.00,0.0008
1809.00,0.0008
1808.00,0.0008
1807.00,0.0008
1806.00,0.0009
1805.00,0.0009
1804.00,0.0010
1803.00,0.0010
1802.00,0.0010
1801.00,0.0010
1800.00,0.0009
1799.00,0.0009
1798.00,0.0009
1797.00,0.0009
1796.00,0.0010
1795.00,0.0010
1794.00,0.0010
1793.00,0.0011
1792.00,0.0012
1791.00,0.0012
1790.00,0.0012
1789.00,0.0012
1788.00,0.0012
1787.00,0.0012
1786.00,0.0012
1785.00,0.0013
1784.00,0.0013
1783.00,0.0013
1782.00,0.0013
1781.00,0.0013
1780.00,0.0013
1779.00,0.0013
1778.00,0.0013
1777.00,0.0013
1776.00,0.0013
1775.00,0.0013
1774.00,0.0013
1773.00,0.0014
1772.00,0.0014
1771.00,0.0014
1770.00,0.0015
1769.00,0.0016
1768.00,0.0017
1767.00,0.0017
1766.00,0.0016
1765.00,0.0016
1764.00,0.0016
1763.00,0.0017
1762.00,0.0019
1761.00,0.0020
1760.00,0.0021
1759.00,0.0021
1758.00,0.0021
1757.00,0.0022
1756.00,0.0023
1755.00,0.0024
1754.00,0.0025
1753.00,0.0026
1752.00,0.0028
1751.00,0.0030
1750.00,0.0031
1749.00,0.0033
1748.00,0.0034
1747.00,0.0035
1746.00,0.0036
1745.00,0.0038
1744.00,0.0039
1743.00,0.0040
1742.00,0.0041
1741.00,0.0042
1740.00,0.0042
1739.00,0.0042
1738.00,0.0042
1737.00,0.0042
1736.00,0.0042
1735.00,0.0042
1734.00,0.0042
1733.00,0.0042
1732.00,0.0042
1731.00,0.0041
1730.00,0.0041
1729.00,0.0041
1728.00,0.0041
1727.00,0.0040
1726.00,0.0040
1725.00,0.0039
1724.00,0.0039
1723.00,0.0038
1722.00,0.0037
1721.00,0.0037
1720.00,0.0037
1719.00,0.0037
1718.00,0.0037
1717.00,0.0038
1716.00,0.0038
1715.00,0.0037
1714.00,0.0036
1713.00,0.0036
1712.00,0.0035
1711.00,0.0035
1710.00,0.0035
1709.00,0.0035
1708.00,0.0036
1707.00,0.0037
1706.00,0.0037
1705.00,0.0038
1704.00,0.0039
1703.00,0.0040
1702.00,0.0041
1701.00,0.0042
1700.00,0.0043
1699.00,0.0044
1698.00,0.0045
1697.00,0.0046
1696.00,0.0047
1695.00,0.0049
1694.00,0.0050
1693.00,0.0051
1692.00,0.0052
1691.00,0.0053
1690.00,0.0054
1689.00,0.0056
1688.00,0.0057
1687.00,0.0058
1686.00,0.0060
1685.00,0.0062
1684.00,0.0065
1683.00,0.0067
1682.00,0.0068
1681.00,0.0069
1680.00,0.0070
1679.00,0.0071
1678.00,0.0073
1677.00,0.0074
1676.00,0.0076
1675.00,0.0078
1674.00,0.0079
1673.00,0.0080
1672.00,0.0082
1671.00,0.0083
1670.00,0.0085
1669.00,0.0086
1668.00,0.0087
1667.00,0.0088
1666.00,0.0089
1665.00,0.0090
1664.00,0.0092
1663.00,0.0093
1662.00,0.0094
1661.00,0.0094
1660.00,0.0095
1659.00,0.0095
1658.00,0.0095
1657.00,0.0096
1656.00,0.0097
1655.00,0.0098
1654.00,0.0098
1653.00,0.0099
1652.00,0.0100
1651.00,0.0101
1650.00,0.0100
1649.00,0.0100
1648.00,0.0100
1647.00,0.0100
1646.00,0.0101
1645.00,0.0101
1644.00,0.0101
1643.00,0.0102
1642.00,0.0102
1641.00,0.0103
1640.00,0.0104
1639.00,0.0104
1638.00,0.0105
1637.00,0.0105
1636.00,0.0106
1635.00,0.0105
1634.00,0.0104
1633.00,0.0103
1632.00,0.0101
1631.00,0.0100
1630.00,0.0099
1629.00,0.0098
1628.00,0.0098
1627.00,0.0097
1626.00,0.0097
1625.00,0.0096
1624.00,0.0095
1623.00,0.0094
1622.00,0.0093
1621.00,0.0092
1620.00,0.0091
1619.00,0.0091
1618.00,0.0090
1617.00,0.0090
1616.00,0.0090
1615.00,0.0089
1614.00,0.0089
1613.00,0.0089
1612.00,0.0089
1611.00,0.0088
1610.00,0.0088
1609.00,0.0088
1608.00,0.0087
1607.00,0.0087
1606.00,0.0087
1605.00,0.0087
1604.00,0.0087
1603.00,0.0087
1602.00,0.0088
1601.00,0.0088
1600.00,0.0088
1599.00,0.0088
1598.00,0.0087
1597.00,0.0088
1596.00,0.0088
1595.00,0.0088
1594.00,0.0089
1593.00,0.0090
1592.00,0.0091
1591.00,0.0092
1590.00,0.0093
1589.00,0.0095
1588.00,0.0098
1587.00,0.0100
1586.00,0.0102
1585.00,0.0106
1584.00,0.0109
1583.00,0.0113
1582.00,0.0118
1581.00,0.0122
1580.00,0.0126
1579.00,0.0128
1578.00,0.0130
1577.00,0.0130
1576.00,0.0129
1575.00,0.0127
1574.00,0.0124
1573.00,0.0122
1572.00,0.0120
1571.00,0.0117
1570.00,0.0115
1569.00,0.0112
1568.00,0.0110
1567.00,0.0109
1566.00,0.0107
1565.00,0.0106
1564.00,0.0105
1563.00,0.0105
1562.00,0.0105
1561.00,0.0105
1560.00,0.0105
1559.00,0.0105
1558.00,0.0104
1557.00,0.0106
1556.00,0.0107
1555.00,0.0109
1554.00,0.0110
1553.00,0.0112
1552.00,0.0113
1551.00,0.0115
1550.00,0.0118
1549.00,0.0121
1548.00,0.0124
1547.00,0.0128
1546.00,0.0132
1545.00,0.0138
1544.00,0.0143
1543.00,0.0147
1542.00,0.0149
1541.00,0.0148
1540.00,0.0143
1539.00,0.0137
1538.00,0.0131
1537.00,0.0127
1536.00,0.0123
1535.00,0.0118
1534.00,0.0111
1533.00,0.0105
1532.00,0.0101
1531.00,0.0098
1530.00,0.0095
1529.00,0.0093
1528.00,0.0092
1527.00,0.0090
1526.00,0.0088
1525.00,0.0087
1524.00,0.0087
1523.00,0.0086
1522.00,0.0085
1521.00,0.0085
1520.00,0.0086
1519.00,0.0086
1518.00,0.0086
1517.00,0.0086
1516.00,0.0087
1515.00,0.0086
1514.00,0.0085
1513.00,0.0085
1512.00,0.0086
1511.00,0.0086
1510.00,0.0086
1509.00,0.0086
1508.00,0.0086
1507.00,0.0085
1506.00,0.0085
1505.00,0.0086
1504.00,0.0088
1503.00,0.0089
1502.00,0.0090
1501.00,0.0093
1500.00,0.0095
1499.00,0.0097
1498.00,0.0098
1497.00,0.0101
1496.00,0.0103
1495.00,0.0105
1494.00,0.0107
1493.00,0.0110
1492.00,0.0114
1491.00,0.0118
1490.00,0.0123
1489.00,0.0128
1488.00,0.0134
1487.00,0.0139
1486.00,0.0145
1485.00,0.0152
1484.00,0.0161
1483.00,0.0170
1482.00,0.0181
1481.00,0.0195
1480.00,0.0209
1479.00,0.0224
1478.00,0.0241
1477.00,0.0264
1476.00,0.0290
1475.00,0.0321
1474.00,0.0362
1473.00,0.0421
1472.00,0.0489
1471.00,0.0554
1470.00,0.0617
1469.00,0.0683
1468.00,0.0754
1467.00,0.0833
1466.00,0.0923
1465.00,0.1020
1464.00,0.1102
1463.00,0.1157
1462.00,0.1190
1461.00,0.1210
1460.00,0.1223
1459.00,0.1229
1458.00,0.1232
1457.00,0.1229
1456.00,0.1218
1455.00,0.1203
1454.00,0.1186
1453.00,0.1164
1452.00,0.1134
1451.00,0.1094
1450.00,0.1042
1449.00,0.0972
1448.00,0.0884
1447.00,0.0792
1446.00,0.0709
1445.00,0.0640
1444.00,0.0581
1443.00,0.0533
1442.00,0.0497
1441.00,0.0473
1440.00,0.0459
1439.00,0.0455
1438.00,0.0460
1437.00,0.0466
1436.00,0.0462
1435.00,0.0440
1434.00,0.0404
1433.00,0.0361
1432.00,0.0315
1431.00,0.0274
1430.00,0.0242
1429.00,0.0218
1428.00,0.0202
1427.00,0.0192
1426.00,0.0186
1425.00,0.0180
1424.00,0.0174
1423.00,0.0171
1422.00,0.0169
1421.00,0.0167
1420.00,0.0163
1419.00,0.0160
1418.00,0.0157
1417.00,0.0154
1416.00,0.0150
1415.00,0.0148
1414.00,0.0146
1413.00,0.0144
1412.00,0.0141
1411.00,0.0139
1410.00,0.0138
1409.00,0.0136
1408.00,0.0134
1407.00,0.0132
1406.00,0.0132
1405.00,0.0130
1404.00,0.0129
1403.00,0.0128
1402.00,0.0128
1401.00,0.0128
1400.00,0.0127
1399.00,0.0128
1398.00,0.0129
1397.00,0.0130
1396.00,0.0131
1395.00,0.0133
1394.00,0.0137
1393.00,0.0140
1392.00,0.0145
1391.00,0.0151
1390.00,0.0161
1389.00,0.0174
1388.00,0.0194
1387.00,0.0223
1386.00,0.0262
1385.00,0.0314
1384.00,0.0386
1383.00,0.0489
1382.00,0.0630
1381.00,0.0816
1380.00,0.1055
1379.00,0.1340
1378.00,0.1633
1377.00,0.1869
1376.00,0.1979
1375.00,0.1912
1374.00,0.1689
1373.00,0.1399
1372.00,0.1127
1371.00,0.0899
1370.00,0.0718
1369.00,0.0580
1368.00,0.0486
1367.00,0.0429
1366.00,0.0398
1365.00,0.0387
1364.00,0.0391
1363.00,0.0406
1362.00,0.0430
1361.00,0.0455
1360.00,0.0474
1359.00,0.0480
1358.00,0.0469
1357.00,0.0442
1356.00,0.0403
1355.00,0.0360
1354.00,0.0319
1353.00,0.0284
1352.00,0.0256
1351.00,0.0234
1350.00,0.0215
1349.00,0.0200
1348.00,0.0187
1347.00,0.0176
1346.00,0.0167
1345.00,0.0159
1344.00,0.0152
1343.00,0.0147
1342.00,0.0143
1341.00,0.0140
1340.00,0.0137
1339.00,0.0135
1338.00,0.0134
1337.00,0.0133
1336.00,0.0134
1335.00,0.0136
1334.00,0.0138
1333.00,0.0142
1332.00,0.0147
1331.00,0.0150
1330.00,0.0152
1329.00,0.0151
1328.00,0.0148
1327.00,0.0143
1326.00,0.0137
1325.00,0.0131
1324.00,0.0126
1323.00,0.0122
1322.00,0.0118
1321.00,0.0116
1320.00,0.0114
1319.00,0.0113
1318.00,0.0111
1317.00,0.0109
1316.00,0.0108
1315.00,0.0107
1314.00,0.0107
1313.00,0.0107
1312.00,0.0107
1311.00,0.0108
1310.00,0.0110
1309.00,0.0115
1308.00,0.0121
1307.00,0.0129
1306.00,0.0137
1305.00,0.0143
1304.00,0.0146
1303.00,0.0145
1302.00,0.0143
1301.00,0.0141
1300.00,0.0141
1299.00,0.0143
1298.00,0.0145
1297.00,0.0146
1296.00,0.0146
1295.00,0.0144
1294.00,0.0141
1293.00,0.0136
1292.00,0.0131
1291.00,0.0127
1290.00,0.0122
1289.00,0.0117
1288.00,0.0114
1287.00,0.0110
1286.00,0.0108
1285.00,0.0106
1284.00,0.0104
1283.00,0.0103
1282.00,0.0102
1281.00,0.0101
1280.00,0.0100
1279.00,0.0099
1278.00,0.0098
1277.00,0.0097
1276.00,0.0097
1275.00,0.0096
1274.00,0.0096
1273.00,0.0097
1272.00,0.0097
1271.00,0.0098
1270.00,0.0099
1269.00,0.0101
1268.00,0.0105
1267.00,0.0108
1266.00,0.0112
1265.00,0.0116
1264.00,0.0120
1263.00,0.0123
1262.00,0.0126
1261.00,0.0129
1260.00,0.0131
1259.00,0.0134
1258.00,0.0137
1257.00,0.0139
1256.00,0.0138
1255.00,0.0135
1254.00,0.0129
1253.00,0.0121
1252.00,0.0115
1251.00,0.0109
1250.00,0.0105
1249.00,0.0101
1248.00,0.0099
1247.00,0.0097
1246.00,0.0096
1245.00,0.0096
1244.00,0.0095
1243.00,0.0094
1242.00,0.0093
1241.00,0.0093
1240.00,0.0092
1239.00,0.0093
1238.00,0.0093
1237.00,0.0094
1236.00,0.0094
1235.00,0.0095
1234.00,0.0096
1233.00,0.0097
1232.00,0.0098
1231.00,0.0099
1230.00,0.0100
1229.00,0.0101
1228.00,0.0103
1227.00,0.0106
1226.00,0.0109
1225.00,0.0113
1224.00,0.0117
1223.00,0.0120
1222.00,0.0124
1221.00,0.0127
1220.00,0.0130
1219.00,0.0131
1218.00,0.0130
1217.00,0.0128
1216.00,0.0126
1215.00,0.0123
1214.00,0.0120
1213.00,0.0117
1212.00,0.0114
1211.00,0.0113
1210.00,0.0111
1209.00,0.0110
1208.00,0.0109
1207.00,0.0108
1206.00,0.0107
1205.00,0.0106
1204.00,0.0106
1203.00,0.0106
1202.00,0.0105
1201.00,0.0105
1200.00,0.0106
1199.00,0.0106
1198.00,0.0106
1197.00,0.0106
1196.00,0.0107
1195.00,0.0108
1194.00,0.0108
1193.00,0.0109
1192.00,0.0110
1191.00,0.0110
1190.00,0.0110
1189.00,0.0109
1188.00,0.0109
1187.00,0.0108
1186.00,0.0109
1185.00,0.0109
1184.00,0.0109
1183.00,0.0110
1182.00,0.0113
1181.00,0.0115
1180.00,0.0118
1179.00,0.0121
1178.00,0.0125
1177.00,0.0130
1176.00,0.0138
1175.00,0.0148
1174.00,0.0163
1173.00,0.0181
1172.00,0.0202
1171.00,0.0225
1170.00,0.0248
1169.00,0.0266
1168.00,0.0278
1167.00,0.0281
1166.00,0.0276
1165.00,0.0266
1164.00,0.0255
1163.00,0.0245
1162.00,0.0236
1161.00,0.0229
1160.00,0.0223
1159.00,0.0219
1158.00,0.0217
1157.00,0.0215
1156.00,0.0214
1155.00,0.0215
1154.00,0.0215
1153.00,0.0213
1152.00,0.0210
1151.00,0.0204
1150.00,0.0196
1149.00,0.0188
1148.00,0.0179
1147.00,0.0170
1146.00,0.0163
1145.00,0.0156
1144.00,0.0151
1143.00,0.0145
1142.00,0.0140
1141.00,0.0136
1140.00,0.0131
1139.00,0.0127
1138.00,0.0123
1137.00,0.0121
1136.00,0.0119
1135.00,0.0118
1134.00,0.0118
1133.00,0.0118
1132.00,0.0119
1131.00,0.0120
1130.00,0.0122
1129.00,0.0123
1128.00,0.0125
1127.00,0.0126
1126.00,0.0128
1125.00,0.0129
1124.00,0.0130
1123.00,0.0131
1122.00,0.0133
1121.00,0.0134
1120.00,0.0136
1119.00,0.0138
1118.00,0.0140
1117.00,0.0142
1116.00,0.0145
1115.00,0.0147
1114.00,0.0149
1113.00,0.0151
1112.00,0.0153
1111.00,0.0156
1110.00,0.0160
1109.00,0.0164
1108.00,0.0168
1107.00,0.0174
1106.00,0.0181
1105.00,0.0188
1104.00,0.0193
1103.00,0.0196
1102.00,0.0196
1101.00,0.0192
1100.00,0.0185
1099.00,0.0178
1098.00,0.0171
1097.00,0.0165
1096.00,0.0160
1095.00,0.0156
1094.00,0.0152
1093.00,0.0149
1092.00,0.0146
1091.00,0.0144
1090.00,0.0140
1089.00,0.0137
1088.00,0.0134
1087.00,0.0131
1086.00,0.0130
1085.00,0.0129
1084.00,0.0128
1083.00,0.0128
1082.00,0.0127
1081.00,0.0125
1080.00,0.0124
1079.00,0.0122
1078.00,0.0120
1077.00,0.0119
1076.00,0.0118
1075.00,0.0118
1074.00,0.0117
1073.00,0.0115
1072.00,0.0114
1071.00,0.0113
1070.00,0.0112
1069.00,0.0111
1068.00,0.0111
1067.00,0.0112
1066.00,0.0113
1065.00,0.0114
1064.00,0.0115
1063.00,0.0116
1062.00,0.0117
1061.00,0.0117
1060.00,0.0118
1059.00,0.0120
1058.00,0.0122
1057.00,0.0124
1056.00,0.0125
1055.00,0.0126
1054.00,0.0128
1053.00,0.0131
1052.00,0.0134
1051.00,0.0138
1050.00,0.0142
1049.00,0.0147
1048.00,0.0152
1047.00,0.0158
1046.00,0.0162
1045.00,0.0165
1044.00,0.0166
1043.00,0.0166
1042.00,0.0165
1041.00,0.0163
1040.00,0.0162
1039.00,0.0162
1038.00,0.0164
1037.00,0.0166
1036.00,0.0167
1035.00,0.0166
1034.00,0.0164
1033.00,0.0162
1032.00,0.0160
1031.00,0.0159
1030.00,0.0158
1029.00,0.0158
1028.00,0.0158
1027.00,0.0159
1026.00,0.0159
1025.00,0.0161
1024.00,0.0163
1023.00,0.0165
1022.00,0.0167
1021.00,0.0169
1020.00,0.0172
1019.00,0.0174
1018.00,0.0175
1017.00,0.0174
1016.00,0.0173
1015.00,0.0172
1014.00,0.0172
1013.00,0.0171
1012.00,0.0171
1011.00,0.0169
1010.00,0.0168
1009.00,0.0166
1008.00,0.0165
1007.00,0.0165
1006.00,0.0168
1005.00,0.0174
1004.00,0.0183
1003.00,0.0197
1002.00,0.0216
1001.00,0.0240
1000.00,0.0265
999.00,0.0285
998.00,0.0294
997.00,0.0287
996.00,0.0266
995.00,0.0237
994.00,0.0208
993.00,0.0182
992.00,0.0163
991.00,0.0149
990.00,0.0139
989.00,0.0132
988.00,0.0127
987.00,0.0123
986.00,0.0122
985.00,0.0123
984.00,0.0127
983.00,0.0132
982.00,0.0141
981.00,0.0153
980.00,0.0169
979.00,0.0192
978.00,0.0221
977.00,0.0253
976.00,0.0287
975.00,0.0316
974.00,0.0335
973.00,0.0338
972.00,0.0323
971.00,0.0293
970.00,0.0254
969.00,0.0216
968.00,0.0183
967.00,0.0158
966.00,0.0139
965.00,0.0126
964.00,0.0117
963.00,0.0109
962.00,0.0103
961.00,0.0098
960.00,0.0094
959.00,0.0091
958.00,0.0088
957.00,0.0085
956.00,0.0083
955.00,0.0081
954.00,0.0079
953.00,0.0078
952.00,0.0077
951.00,0.0076
950.00,0.0075
949.00,0.0075
948.00,0.0075
947.00,0.0076
946.00,0.0078
945.00,0.0081
944.00,0.0085
943.00,0.0089
942.00,0.0093
941.00,0.0097
940.00,0.0097
939.00,0.0095
938.00,0.0091
937.00,0.0086
936.00,0.0081
935.00,0.0077
934.00,0.0074
933.00,0.0072
932.00,0.0071
931.00,0.0071
930.00,0.0071
929.00,0.0071
928.00,0.0071
927.00,0.0071
926.00,0.0071
925.00,0.0071
924.00,0.0071
923.00,0.0071
922.00,0.0071
921.00,0.0072
920.00,0.0073
919.00,0.0074
918.00,0.0074
917.00,0.0075
916.00,0.0076
915.00,0.0077
914.00,0.0078
913.00,0.0079
912.00,0.0080
911.00,0.0080
910.00,0.0082
909.00,0.0084
908.00,0.0087
907.00,0.0091
906.00,0.0099
905.00,0.0110
904.00,0.0125
903.00,0.0145
902.00,0.0166
901.00,0.0186
900.00,0.0199
899.00,0.0202
898.00,0.0192
897.00,0.0174
896.00,0.0153
895.00,0.0134
894.00,0.0119
893.00,0.0108
892.00,0.0100
891.00,0.0095
890.00,0.0092
889.00,0.0089
888.00,0.0088
887.00,0.0087
886.00,0.0087
885.00,0.0086
884.00,0.0085
883.00,0.0084
882.00,0.0084
881.00,0.0085
880.00,0.0086
879.00,0.0087
878.00,0.0087
877.00,0.0087
876.00,0.0087
875.00,0.0087
874.00,0.0087
873.00,0.0086
872.00,0.0086
871.00,0.0087
870.00,0.0088
869.00,0.0089
868.00,0.0089
867.00,0.0089
866.00,0.0089
865.00,0.0089
864.00,0.0090
863.00,0.0091
862.00,0.0092
861.00,0.0093
860.00,0.0094
859.00,0.0095
858.00,0.0096
857.00,0.0097
856.00,0.0099
855.00,0.0101
854.00,0.0103
853.00,0.0105
852.00,0.0108
851.00,0.0109
850.00,0.0112
849.00,0.0115
848.00,0.0121
847.00,0.0130
846.00,0.0144
845.00,0.0165
844.00,0.0194
843.00,0.0228
842.00,0.0255
841.00,0.0264
840.00,0.0250
839.00,0.0218
838.00,0.0184
837.00,0.0157
836.00,0.0139
835.00,0.0129
834.00,0.0121
833.00,0.0117
832.00,0.0115
831.00,0.0114
830.00,0.0113
829.00,0.0113
828.00,0.0113
827.00,0.0113
826.00,0.0114
825.00,0.0114
824.00,0.0115
823.00,0.0116
822.00,0.0118
821.00,0.0120
820.00,0.0123
819.00,0.0127
818.00,0.0132
817.00,0.0139
816.00,0.0148
815.00,0.0160
814.00,0.0176
813.00,0.0195
812.00,0.0217
811.00,0.0239
810.00,0.0255
809.00,0.0262
808.00,0.0258
807.00,0.0245
806.00,0.0225
805.00,0.0204
804.00,0.0185
803.00,0.0169
802.00,0.0157
801.00,0.0148
800.00,0.0142
799.00,0.0137
798.00,0.0134
797.00,0.0131
796.00,0.0127
795.00,0.0122
794.00,0.0117
793.00,0.0112
792.00,0.0108
791.00,0.0105
790.00,0.0103
789.00,0.0099
788.00,0.0095
787.00,0.0091
786.00,0.0088
785.00,0.0087
784.00,0.0086
783.00,0.0085
782.00,0.0084
781.00,0.0083
780.00,0.0082
779.00,0.0081
778.00,0.0080
777.00,0.0079
776.00,0.0079
775.00,0.0079
774.00,0.0080
773.00,0.0080
772.00,0.0081
771.00,0.0081
770.00,0.0081
769.00,0.0080
768.00,0.0080
767.00,0.0080
766.00,0.0082
765.00,0.0083
764.00,0.0084
763.00,0.0084
762.00,0.0084
761.00,0.0084
760.00,0.0084
759.00,0.0085
758.00,0.0087
757.00,0.0089
756.00,0.0090
755.00,0.0092
754.00,0.0093
753.00,0.0094
752.00,0.0094
751.00,0.0094
750.00,0.0093
749.00,0.0094
748.00,0.0095
747.00,0.0097
746.00,0.0101
745.00,0.0104
744.00,0.0106
743.00,0.0108
742.00,0.0109
741.00,0.0111
740.00,0.0114
739.00,0.0118
738.00,0.0123
737.00,0.0128
736.00,0.0132
735.00,0.0136
734.00,0.0141
733.00,0.0147
732.00,0.0154
731.00,0.0163
730.00,0.0169
729.00,0.0172
728.00,0.0173
727.00,0.0174
726.00,0.0176
725.00,0.0180
724.00,0.0184
723.00,0.0191
722.00,0.0197
721.00,0.0201
720.00,0.0200
719.00,0.0193
718.00,0.0182
717.00,0.0170
716.00,0.0158
715.00,0.0150
714.00,0.0145
713.00,0.0141
712.00,0.0138
711.00,0.0135
710.00,0.0133
709.00,0.0132
708.00,0.0130
707.00,0.0129
706.00,0.0128
705.00,0.0128
704.00,0.0128
703.00,0.0129
702.00,0.0129
701.00,0.0126
700.00,0.0123
699.00,0.0120
698.00,0.0120
697.00,0.0120
696.00,0.0122
695.00,0.0122
694.00,0.0123
693.00,0.0123
692.00,0.0123
691.00,0.0124
690.00,0.0124
689.00,0.0123
688.00,0.0123
687.00,0.0123
686.00,0.0124
685.00,0.0125
684.00,0.0127
683.00,0.0127
682.00,0.0127
681.00,0.0126
680.00,0.0125
679.00,0.0124
678.00,0.0125
677.00,0.0126
676.00,0.0128
675.00,0.0129
674.00,0.0129
673.00,0.0129
672.00,0.0131
671.00,0.0134
670.00,0.0137
669.00,0.0138
668.00,0.0136
667.00,0.0131
666.00,0.0126
665.00,0.0122
664.00,0.0120
663.00,0.0120
662.00,0.0120
661.00,0.0119
660.00,0.0117
659.00,0.0114
658.00,0.0111
657.00,0.0108
656.00,0.0107
655.00,0.0108
654.00,0.0110
653.00,0.0112
652.00,0.0112
651.00,0.0110
650.00,0.0108
649.00,0.0106
648.00,0.0105
647.00,0.0105
646.00,0.0107
645.00,0.0110
644.00,0.0112
643.00,0.0111
642.00,0.0109
641.00,0.0109
640.00,0.0110
639.00,0.0111
638.00,0.0113
637.00,0.0113
636.00,0.0113
635.00,0.0112
634.00,0.0111
633.00,0.0110
632.00,0.0111
631.00,0.0113
630.00,0.0115
629.00,0.0115
628.00,0.0113
627.00,0.0110
626.00,0.0109
625.00,0.0109
624.00,0.0110
623.00,0.0109
622.00,0.0108
621.00,0.0106
620.00,0.0104
619.00,0.0104
618.00,0.0104
617.00,0.0104
616.00,0.0104
615.00,0.0104
614.00,0.0104
613.00,0.0105
612.00,0.0105
611.00,0.0105
610.00,0.0107
609.00,0.0111
608.00,0.0115
607.00,0.0117
606.00,0.0118
605.00,0.0116
604.00,0.0113
603.00,0.0109
602.00,0.0106
601.00,0.0104
600.00,0.0103
599.00,0.0103
598.00,0.0102
597.00,0.0101
596.00,0.0100
595.00,0.0099
594.00,0.0099
593.00,0.0101
592.00,0.0103
591.00,0.0104
590.00,0.0104
589.00,0.0104
588.00,0.0105
587.00,0.0107
586.00,0.0109
585.00,0.0111
584.00,0.0111
583.00,0.0110
582.00,0.0107
581.00,0.0103
580.00,0.0099
579.00,0.0095
578.00,0.0094
577.00,0.0096
576.00,0.0100
575.00,0.0106
574.00,0.0110
573.00,0.0110
572.00,0.0110
571.00,0.0109
570.00,0.0110
569.00,0.0110
568.00,0.0110
567.00,0.0109
566.00,0.0109
565.00,0.0109
564.00,0.0108
563.00,0.0108
562.00,0.0110
561.00,0.0113
560.00,0.0116
559.00,0.0118
558.00,0.0117
557.00,0.0115
556.00,0.0113
555.00,0.0112
554.00,0.0112
553.00,0.0111
552.00,0.0111
551.00,0.0111
550.00,0.0111
549.00,0.0110
548.00,0.0107
547.00,0.0104
546.00,0.0104
545.00,0.0107
544.00,0.0113
543.00,0.0118
542.00,0.0122
541.00,0.0124
540.00,0.0127
539.00,0.0129
538.00,0.0131
537.00,0.0131
536.00,0.0130
535.00,0.0128
534.00,0.0127
533.00,0.0127
532.00,0.0126
531.00,0.0126
530.00,0.0126
529.00,0.0126
528.00,0.0123
527.00,0.0119
526.00,0.0114
525.00,0.0111
524.00,0.0109
523.00,0.0110
522.00,0.0111
521.00,0.0113
520.00,0.0112
519.00,0.0107
518.00,0.0102
517.00,0.0098
516.00,0.0098
515.00,0.0100
514.00,0.0104
513.00,0.0107
512.00,0.0108
511.00,0.0105
510.00,0.0101
509.00,0.0096
508.00,0.0094
507.00,0.0094
506.00,0.0097
505.00,0.0099
504.00,0.0101
503.00,0.0102
502.00,0.0104
501.00,0.0108
500.00,0.0114
499.00,0.0118
498.00,0.0116
497.00,0.0108
496.00,0.0099
495.00,0.0094
494.00,0.0092
493.00,0.0091
492.00,0.0091
491.00,0.0091
490.00,0.0092
489.00,0.0091
488.00,0.0087
487.00,0.0083
486.00,0.0080
485.00,0.0081
484.00,0.0086
483.00,0.0093
482.00,0.0100
481.00,0.0103
480.00,0.0104
479.00,0.0106
478.00,0.0112
477.00,0.0120
476.00,0.0128
475.00,0.0131
474.00,0.0128
473.00,0.0123
472.00,0.0123
471.00,0.0129
470.00,0.0140
469.00,0.0154
468.00,0.0172
467.00,0.0188
466.00,0.0198
465.00,0.0204
464.00,0.0210
463.00,0.0221
462.00,0.0233
461.00,0.0245
460.00,0.0252
459.00,0.0251
458.00,0.0244
457.00,0.0233
456.00,0.0226
455.00,0.0221
454.00,0.0212
453.00,0.0196
452.00,0.0180
451.00,0.0169
450.00,0.0162
