Created as New Dataset,Sample 093 By Administrator Date Thursday, September 04 2025
cm-1,A
4000.00,0.0010
3999.00,0.0010
3998.00,0.0010
3997.00,0.0010
3996.00,0.0010
3995.00,0.0010
3994.00,0.0010
3993.00,0.0011
3992.00,0.0011
3991.00,0.0010
3990.00,0.0010
3989.00,0.0009
3988.00,0.0009
3987.00,0.0008
3986.00,0.0008
3985.00,0.0008
3984.00,0.0008
3983.00,0.0008
3982.00,0.0008
3981.00,0.0008
3980.00,0.0008
3979.00,0.0008
3978.00,0.0008
3977.00,0.0008
3976.00,0.0008
3975.00,0.0007
3974.00,0.0007
3973.00,0.0007
3972.00,0.0007
3971.00,0.0007
3970.00,0.0008
3969.00,0.0008
3968.00,0.0008
3967.00,0.0007
3966.00,0.0007
3965.00,0.0007
3964.00,0.0007
3963.00,0.0007
3962.00,0.0007
3961.00,0.0007
3960.00,0.0007
3959.00,0.0007
3958.00,0.0007
3957.00,0.0007
3956.00,0.0007
3955.00,0.0007
3954.00,0.0006
3953.00,0.0006
3952.00,0.0006
3951.00,0.0006
3950.00,0.0007
3949.00,0.0007
3948.00,0.0007
3947.00,0.0007
3946.00,0.0007
3945.00,0.0007
3944.00,0.0007
3943.00,0.0007
3942.00,0.0007
3941.00,0.0007
3940.00,0.0008
3939.00,0.0008
3938.00,0.0008
3937.00,0.0008
3936.00,0.0007
3935.00,0.0007
3934.00,0.0007
3933.00,0.0007
3932.00,0.0007
3931.00,0.0007
3930.00,0.0007
3929.00,0.0007
3928.00,0.0007
3927.00,0.0007
3926.00,0.0007
3925.00,0.0007
3924.00,0.0007
3923.00,0.0007
3922.00,0.0007
3921.00,0.0007
3920.00,0.0007
3919.00,0.0007
3918.00,0.0007
3917.00,0.0007
3916.00,0.0007
3915.00,0.0007
3914.00,0.0007
3913.00,0.0008
3912.00,0.0008
3911.00,0.0008
3910.00,0.0008
3909.00,0.0008
3908.00,0.0007
3907.00,0.0007
3906.00,0.0007
3905.00,0.0007
3904.00,0.0006
3903.00,0.0006
3902.00,0.0005
3901.00,0.0005
3900.00,0.0005
3899.00,0.0005
3898.00,0.0005
3897.00,0.0005
3896.00,0.0006
3895.00,0.0006
3894.00,0.0007
3893.00,0.0007
3892.00,0.0007
3891.00,0.0006
3890.00,0.0006
3889.00,0.0006
3888.00,0.0006
3887.00,0.0006
3886.00,0.0007
3885.00,0.0007
3884.00,0.0007
3883.00,0.0007
3882.00,0.0007
3881.00,0.0007
3880.00,0.0007
3879.00,0.0007
3878.00,0.0007
3877.00,0.0007
3876.00,0.0006
3875.00,0.0006
3874.00,0.0006
3873.00,0.0006
3872.00,0.0006
3871.00,0.0006
3870.00,0.0006
3869.00,0.0006
3868.00,0.0006
3867.00,0.0006
3866.00,0.0006
3865.00,0.0006
3864.00,0.0006
3863.00,0.0006
3862.00,0.0006
3861.00,0.0006
3860.00,0.0006
3859.00,0.0006
3858.00,0.0006
3857.00,0.0006
3856.00,0.0005
3855.00,0.0005
3854.00,0.0004
3853.00,0.0005
3852.00,0.0005
3851.00,0.0005
3850.00,0.0006
3849.00,0.0006
3848.00,0.0006
3847.00,0.0006
3846.00,0.0006
3845.00,0.0006
3844.00,0.0006
3843.00,0.0006
3842.00,0.0006
3841.00,0.0006
3840.00,0.0006
3839.00,0.0007
3838.00,0.0007
3837.00,0.0006
3836.00,0.0006
3835.00,0.0006
3834.00,0.0006
3833.00,0.0006
3832.00,0.0006
3831.00,0.0007
3830.00,0.0007
3829.00,0.0007
3828.00,0.0007
3827.00,0.0007
3826.00,0.0006
3825.00,0.0006
3824.00,0.0006
3823.00,0.0006
3822.00,0.0006
3821.00,0.0006
3820.00,0.0006
3819.00,0.0006
3818.00,0.0006
3817.00,0.0007
3816.00,0.0007
3815.00,0.0007
3814.00,0.0008
3813.00,0.0008
3812.00,0.0007
3811.00,0.0007
3810.00,0.0007
3809.00,0.0007
3808.00,0.0006
3807.00,0.0006
3806.00,0.0006
3805.00,0.0006
3804.00,0.0006
3803.00,0.0006
3802.00,0.0006
3801.00,0.0006
3800.00,0.0006
3799.00,0.0006
3798.00,0.0006
3797.00,0.0006
3796.00,0.0006
3795.00,0.0006
3794.00,0.0005
3793.00,0.0006
3792.00,0.0006
3791.00,0.0007
3790.00,0.0007
3789.00,0.0007
3788.00,0.0007
3787.00,0.0007
3786.00,0.0006
3785.00,0.0006
3784.00,0.0006
3783.00,0.0006
3782.00,0.0006
3781.00,0.0007
3780.00,0.0007
3779.00,0.0008
3778.00,0.0008
3777.00,0.0008
3776.00,0.0008
3775.00,0.0008
3774.00,0.0008
3773.00,0.0008
3772.00,0.0007
3771.00,0.0007
3770.00,0.0007
3769.00,0.0007
3768.00,0.0007
3767.00,0.0006
3766.00,0.0006
3765.00,0.0006
3764.00,0.0006
3763.00,0.0006
3762.00,0.0006
3761.00,0.0007
3760.00,0.0007
3759.00,0.0007
3758.00,0.0007
3757.00,0.0007
3756.00,0.0007
3755.00,0.0006
3754.00,0.0006
3753.00,0.0005
3752.00,0.0004
3751.00,0.0004
3750.00,0.0003
3749.00,0.0003
3748.00,0.0004
3747.00,0.0005
3746.00,0.0005
3745.00,0.0005
3744.00,0.0005
3743.00,0.0005
3742.00,0.0005
3741.00,0.0005
3740.00,0.0005
3739.00,0.0005
3738.00,0.0004
3737.00,0.0004
3736.00,0.0005
3735.00,0.0005
3734.00,0.0006
3733.00,0.0005
3732.00,0.0005
3731.00,0.0005
3730.00,0.0005
3729.00,0.0004
3728.00,0.0004
3727.00,0.0004
3726.00,0.0004
3725.00,0.0004
3724.00,0.0004
3723.00,0.0005
3722.00,0.0005
3721.00,0.0006
3720.00,0.0006
3719.00,0.0007
3718.00,0.0007
3717.00,0.0007
3716.00,0.0007
3715.00,0.0006
3714.00,0.0006
3713.00,0.0005
3712.00,0.0005
3711.00,0.0005
3710.00,0.0005
3709.00,0.0005
3708.00,0.0005
3707.00,0.0006
3706.00,0.0006
3705.00,0.0006
3704.00,0.0006
3703.00,0.0006
3702.00,0.0006
3701.00,0.0006
3700.00,0.0006
3699.00,0.0005
3698.00,0.0005
3697.00,0.0005
3696.00,0.0006
3695.00,0.0006
3694.00,0.0006
3693.00,0.0006
3692.00,0.0006
3691.00,0.0006
3690.00,0.0006
3689.00,0.0006
3688.00,0.0005
3687.00,0.0005
3686.00,0.0005
3685.00,0.0006
3684.00,0.0006
3683.00,0.0007
3682.00,0.0007
3681.00,0.0008
3680.00,0.0009
3679.00,0.0010
3678.00,0.0010
3677.00,0.0010
3676.00,0.0010
3675.00,0.0009
3674.00,0.0008
3673.00,0.0007
3672.00,0.0007
3671.00,0.0007
3670.00,0.0008
3669.00,0.0008
3668.00,0.0008
3667.00,0.0008
3666.00,0.0007
3665.00,0.0008
3664.00,0.0008
3663.00,0.0008
3662.00,0.0008
3661.00,0.0008
3660.00,0.0008
3659.00,0.0008
3658.00,0.0008
3657.00,0.0008
3656.00,0.0008
3655.00,0.0009
3654.00,0.0009
3653.00,0.0009
3652.00,0.0008
3651.00,0.0008
3650.00,0.0008
3649.00,0.0008
3648.00,0.0008
3647.00,0.0008
3646.00,0.0008
3645.00,0.0008
3644.00,0.0008
3643.00,0.0008
3642.00,0.0009
3641.00,0.0009
3640.00,0.0010
3639.00,0.0010
3638.00,0.0010
3637.00,0.0009
3636.00,0.0008
3635.00,0.0008
3634.00,0.0007
3633.00,0.0007
3632.00,0.0007
3631.00,0.0006
3630.00,0.0006
3629.00,0.0006
3628.00,0.0006
3627.00,0.0006
3626.00,0.0006
3625.00,0.0006
3624.00,0.0006
3623.00,0.0007
3622.00,0.0007
3621.00,0.0007
3620.00,0.0007
3619.00,0.0007
3618.00,0.0007
3617.00,0.0007
3616.00,0.0007
3615.00,0.0008
3614.00,0.0008
3613.00,0.0008
3612.00,0.0008
3611.00,0.0008
3610.00,0.0008
3609.00,0.0008
3608.00,0.0008
3607.00,0.0008
3606.00,0.0008
3605.00,0.0008
3604.00,0.0008
3603.00,0.0008
3602.00,0.0008
3601.00,0.0008
3600.00,0.0008
3599.00,0.0008
3598.00,0.0008
3597.00,0.0008
3596.00,0.0008
3595.00,0.0008
3594.00,0.0008
3593.00,0.0009
3592.00,0.0009
3591.00,0.0009
3590.00,0.0009
3589.00,0.0008
3588.00,0.0008
3587.00,0.0009
3586.00,0.0009
3585.00,0.0010
3584.00,0.0011
3583.00,0.0011
3582.00,0.0011
3581.00,0.0011
3580.00,0.0011
3579.00,0.0012
3578.00,0.0012
3577.00,0.0012
3576.00,0.0013
3575.00,0.0013
3574.00,0.0012
3573.00,0.0012
3572.00,0.0012
3571.00,0.0012
3570.00,0.0012
3569.00,0.0012
3568.00,0.0011
3567.00,0.0011
3566.00,0.0012
3565.00,0.0012
3564.00,0.0012
3563.00,0.0013
3562.00,0.0013
3561.00,0.0014
3560.00,0.0014
3559.00,0.0015
3558.00,0.0015
3557.00,0.0015
3556.00,0.0015
3555.00,0.0015
3554.00,0.0015
3553.00,0.0015
3552.00,0.0015
3551.00,0.0015
3550.00,0.0015
3549.00,0.0015
3548.00,0.0015
3547.00,0.0015
3546.00,0.0015
3545.00,0.0015
3544.00,0.0015
3543.00,0.0016
3542.00,0.0016
3541.00,0.0016
3540.00,0.0016
3539.00,0.0016
3538.00,0.0017
3537.00,0.0017
3536.00,0.0018
3535.00,0.0018
3534.00,0.0018
3533.00,0.0018
3532.00,0.0018
3531.00,0.0018
3530.00,0.0018
3529.00,0.0018
3528.00,0.0018
3527.00,0.0018
3526.00,0.0018
3525.00,0.0018
3524.00,0.0018
3523.00,0.0018
3522.00,0.0018
3521.00,0.0019
3520.00,0.0019
3519.00,0.0019
3518.00,0.0020
3517.00,0.0020
3516.00,0.0020
3515.00,0.0021
3514.00,0.0021
3513.00,0.0021
3512.00,0.0021
3511.00,0.0021
3510.00,0.0021
3509.00,0.0021
3508.00,0.0022
3507.00,0.0022
3506.00,0.0022
3505.00,0.0023
3504.00,0.0023
3503.00,0.0023
3502.00,0.0023
3501.00,0.0023
3500.00,0.0023
3499.00,0.0024
3498.00,0.0024
3497.00,0.0024
3496.00,0.0024
3495.00,0.0024
3494.00,0.0024
3493.00,0.0024
3492.00,0.0024
3491.00,0.0024
3490.00,0.0024
3489.00,0.0025
3488.00,0.0026
3487.00,0.0026
3486.00,0.0026
3485.00,0.0026
3484.00,0.0026
3483.00,0.0027
3482.00,0.0027
3481.00,0.0028
3480.00,0.0028
3479.00,0.0028
3478.00,0.0028
3477.00,0.0028
3476.00,0.0028
3475.00,0.0028
3474.00,0.0028
3473.00,0.0028
3472.00,0.0028
3471.00,0.0028
3470.00,0.0028
3469.00,0.0028
3468.00,0.0028
3467.00,0.0028
3466.00,0.0028
3465.00,0.0028
3464.00,0.0028
3463.00,0.0029
3462.00,0.0030
3461.00,0.0031
3460.00,0.0031
3459.00,0.0031
3458.00,0.0031
3457.00,0.0031
3456.00,0.0031
3455.00,0.0031
3454.00,0.0031
3453.00,0.0031
3452.00,0.0031
3451.00,0.0031
3450.00,0.0031
3449.00,0.0031
3448.00,0.0032
3447.00,0.0032
3446.00,0.0033
3445.00,0.0033
3444.00,0.0034
3443.00,0.0034
3442.00,0.0034
3441.00,0.0035
3440.00,0.0035
3439.00,0.0035
3438.00,0.0034
3437.00,0.0034
3436.00,0.0034
3435.00,0.0034
3434.00,0.0034
3433.00,0.0034
3432.00,0.0034
3431.00,0.0034
3430.00,0.0034
3429.00,0.0035
3428.00,0.0036
3427.00,0.0036
3426.00,0.0036
3425.00,0.0036
3424.00,0.0036
3423.00,0.0036
3422.00,0.0036
3421.00,0.0036
3420.00,0.0037
3419.00,0.0037
3418.00,0.0037
3417.00,0.0038
3416.00,0.0038
3415.00,0.0038
3414.00,0.0038
3413.00,0.0038
3412.00,0.0038
3411.00,0.0038
3410.00,0.0038
3409.00,0.0039
3408.00,0.0039
3407.00,0.0039
3406.00,0.0039
3405.00,0.0039
3404.00,0.0039
3403.00,0.0039
3402.00,0.0039
3401.00,0.0039
3400.00,0.0040
3399.00,0.0040
3398.00,0.0040
3397.00,0.0040
3396.00,0.0040
3395.00,0.0040
3394.00,0.0040
3393.00,0.0040
3392.00,0.0040
3391.00,0.0040
3390.00,0.0040
3389.00,0.0040
3388.00,0.0039
3387.00,0.0040
3386.00,0.0040
3385.00,0.0040
3384.00,0.0041
3383.00,0.0041
3382.00,0.0041
3381.00,0.0041
3380.00,0.0041
3379.00,0.0041
3378.00,0.0041
3377.00,0.0041
3376.00,0.0041
3375.00,0.0041
3374.00,0.0042
3373.00,0.0042
3372.00,0.0042
3371.00,0.0042
3370.00,0.0042
3369.00,0.0042
3368.00,0.0042
3367.00,0.0042
3366.00,0.0042
3365.00,0.0042
3364.00,0.0042
3363.00,0.0042
3362.00,0.0043
3361.00,0.0043
3360.00,0.0043
3359.00,0.0044
3358.00,0.0044
3357.00,0.0044
3356.00,0.0044
3355.00,0.0045
3354.00,0.0044
3353.00,0.0044
3352.00,0.0043
3351.00,0.0043
3350.00,0.0043
3349.00,0.0043
3348.00,0.0044
3347.00,0.0044
3346.00,0.0044
3345.00,0.0045
3344.00,0.0045
3343.00,0.0045
3342.00,0.0046
3341.00,0.0045
3340.00,0.0045
3339.00,0.0044
3338.00,0.0044
3337.00,0.0044
3336.00,0.0044
3335.00,0.0044
3334.00,0.0044
3333.00,0.0044
3332.00,0.0044
3331.00,0.0044
3330.00,0.0044
3329.00,0.0044
3328.00,0.0044
3327.00,0.0044
3326.00,0.0044
3325.00,0.0043
3324.00,0.0044
3323.00,0.0044
3322.00,0.0044
3321.00,0.0044
3320.00,0.0044
3319.00,0.0044
3318.00,0.0044
3317.00,0.0044
3316.00,0.0044
3315.00,0.0044
3314.00,0.0044
3313.00,0.0044
3312.00,0.0045
3311.00,0.0045
3310.00,0.0045
3309.00,0.0046
3308.00,0.0047
3307.00,0.0047
3306.00,0.0048
3305.00,0.0048
3304.00,0.0048
3303.00,0.0049
3302.00,0.0049
3301.00,0.0049
3300.00,0.0049
3299.00,0.0048
3298.00,0.0047
3297.00,0.0047
3296.00,0.0046
3295.00,0.0046
3294.00,0.0045
3293.00,0.0045
3292.00,0.0044
3291.00,0.0044
3290.00,0.0044
3289.00,0.0044
3288.00,0.0044
3287.00,0.0043
3286.00,0.0043
3285.00,0.0043
3284.00,0.0042
3283.00,0.0042
3282.00,0.0042
3281.00,0.0042
3280.00,0.0042
3279.00,0.0042
3278.00,0.0041
3277.00,0.0041
3276.00,0.0040
3275.00,0.0041
3274.00,0.0041
3273.00,0.0041
3272.00,0.0041
3271.00,0.0041
3270.00,0.0041
3269.00,0.0041
3268.00,0.0041
3267.00,0.0040
3266.00,0.0040
3265.00,0.0039
3264.00,0.0039
3263.00,0.0039
3262.00,0.0039
3261.00,0.0039
3260.00,0.0039
3259.00,0.0039
3258.00,0.0039
3257.00,0.0039
3256.00,0.0039
3255.00,0.0039
3254.00,0.0039
3253.00,0.0039
3252.00,0.0038
3251.00,0.0038
3250.00,0.0038
3249.00,0.0038
3248.00,0.0038
3247.00,0.0037
3246.00,0.0037
3245.00,0.0037
3244.00,0.0037
3243.00,0.0036
3242.00,0.0036
3241.00,0.0036
3240.00,0.0036
3239.00,0.0036
3238.00,0.0037
3237.00,0.0037
3236.00,0.0037
3235.00,0.0036
3234.00,0.0036
3233.00,0.0036
3232.00,0.0036
3231.00,0.0036
3230.00,0.0036
3229.00,0.0036
3228.00,0.0037
3227.00,0.0037
3226.00,0.0038
3225.00,0.0038
3224.00,0.0038
3223.00,0.0039
3222.00,0.0039
3221.00,0.0039
3220.00,0.0039
3219.00,0.0039
3218.00,0.0040
3217.00,0.0040
3216.00,0.0040
3215.00,0.0040
3214.00,0.0040
3213.00,0.0040
3212.00,0.0041
3211.00,0.0041
3210.00,0.0041
3209.00,0.0041
3208.00,0.0041
3207.00,0.0041
3206.00,0.0041
3205.00,0.0041
3204.00,0.0041
3203.00,0.0041
3202.00,0.0042
3201.00,0.0042
3200.00,0.0042
3199.00,0.0042
3198.00,0.0041
3197.00,0.0041
3196.00,0.0041
3195.00,0.0041
3194.00,0.0041
3193.00,0.0041
3192.00,0.0041
3191.00,0.0042
3190.00,0.0042
3189.00,0.0042
3188.00,0.0041
3187.00,0.0041
3186.00,0.0041
3185.00,0.0040
3184.00,0.0040
3183.00,0.0040
3182.00,0.0040
3181.00,0.0039
3180.00,0.0039
3179.00,0.0039
3178.00,0.0039
3177.00,0.0039
3176.00,0.0039
3175.00,0.0038
3174.00,0.0038
3173.00,0.0038
3172.00,0.0038
3171.00,0.0037
3170.00,0.0037
3169.00,0.0037
3168.00,0.0037
3167.00,0.0037
3166.00,0.0037
3165.00,0.0037
3164.00,0.0037
3163.00,0.0037
3162.00,0.0037
3161.00,0.0037
3160.00,0.0037
3159.00,0.0036
3158.00,0.0036
3157.00,0.0037
3156.00,0.0037
3155.00,0.0036
3154.00,0.0036
3153.00,0.0036
3152.00,0.0036
3151.00,0.0036
3150.00,0.0036
3149.00,0.0036
3148.00,0.0036
3147.00,0.0036
3146.00,0.0036
3145.00,0.0036
3144.00,0.0035
3143.00,0.0035
3142.00,0.0035
3141.00,0.0035
3140.00,0.0035
3139.00,0.0035
3138.00,0.0035
3137.00,0.0034
3136.00,0.0034
3135.00,0.0034
3134.00,0.0034
3133.00,0.0034
3132.00,0.0033
3131.00,0.0033
3130.00,0.0033
3129.00,0.0033
3128.00,0.0033
3127.00,0.0033
3126.00,0.0033
3125.00,0.0033
3124.00,0.0033
3123.00,0.0032
3122.00,0.0032
3121.00,0.0032
3120.00,0.0032
3119.00,0.0032
3118.00,0.0031
3117.00,0.0031
3116.00,0.0031
3115.00,0.0031
3114.00,0.0031
3113.00,0.0031
3112.00,0.0030
3111.00,0.0030
3110.00,0.0031
3109.00,0.0031
3108.00,0.0031
3107.00,0.0030
3106.00,0.0030
3105.00,0.0030
3104.00,0.0030
3103.00,0.0030
3102.00,0.0030
3101.00,0.0029
3100.00,0.0029
3099.00,0.0029
3098.00,0.0029
3097.00,0.0029
3096.00,0.0030
3095.00,0.0030
3094.00,0.0030
3093.00,0.0029
3092.00,0.0029
3091.00,0.0029
3090.00,0.0029
3089.00,0.0029
3088.00,0.0029
3087.00,0.0029
3086.00,0.0029
3085.00,0.0028
3084.00,0.0028
3083.00,0.0028
3082.00,0.0028
3081.00,0.0028
3080.00,0.0028
3079.00,0.0028
3078.00,0.0028
3077.00,0.0029
3076.00,0.0029
3075.00,0.0030
3074.00,0.0030
3073.00,0.0030
3072.00,0.0030
3071.00,0.0030
3070.00,0.0030
3069.00,0.0030
3068.00,0.0030
3067.00,0.0030
3066.00,0.0030
3065.00,0.0030
3064.00,0.0031
3063.00,0.0031
3062.00,0.0031
3061.00,0.0031
3060.00,0.0031
3059.00,0.0031
3058.00,0.0030
3057.00,0.0030
3056.00,0.0031
3055.00,0.0031
3054.00,0.0032
3053.00,0.0032
3052.00,0.0032
3051.00,0.0033
3050.00,0.0033
3049.00,0.0033
3048.00,0.0033
3047.00,0.0033
3046.00,0.0033
3045.00,0.0033
3044.00,0.0034
3043.00,0.0034
3042.00,0.0034
3041.00,0.0034
3040.00,0.0035
3039.00,0.0035
3038.00,0.0036
3037.00,0.0036
3036.00,0.0037
3035.00,0.0037
3034.00,0.0037
3033.00,0.0037
3032.00,0.0038
3031.00,0.0038
3030.00,0.0038
3029.00,0.0038
3028.00,0.0039
3027.00,0.0040
3026.00,0.0041
3025.00,0.0041
3024.00,0.0042
3023.00,0.0043
3022.00,0.0043
3021.00,0.0044
3020.00,0.0044
3019.00,0.0045
3018.00,0.0046
3017.00,0.0047
3016.00,0.0049
3015.00,0.0050
3014.00,0.0052
3013.00,0.0053
3012.00,0.0055
3011.00,0.0057
3010.00,0.0059
3009.00,0.0061
3008.00,0.0064
3007.00,0.0066
3006.00,0.0069
3005.00,0.0072
3004.00,0.0075
3003.00,0.0078
3002.00,0.0081
3001.00,0.0084
3000.00,0.0088
2999.00,0.0091
2998.00,0.0094
2997.00,0.0098
2996.00,0.0102
2995.00,0.0106
2994.00,0.0111
2993.00,0.0116
2992.00,0.0121
2991.00,0.0127
2990.00,0.0133
2989.00,0.0141
2988.00,0.0149
2987.00,0.0159
2986.00,0.0170
2985.00,0.0182
2984.00,0.0196
2983.00,0.0211
2982.00,0.0227
2981.00,0.0244
2980.00,0.0261
2979.00,0.0280
2978.00,0.0303
2977.00,0.0328
2976.00,0.0358
2975.00,0.0392
2974.00,0.0432
2973.00,0.0478
2972.00,0.0529
2971.00,0.0586
2970.00,0.0649
2969.00,0.0718
2968.00,0.0792
2967.00,0.0871
2966.00,0.0952
2965.00,0.1034
2964.00,0.1112
2963.00,0.1183
2962.00,0.1242
2961.00,0.1290
2960.00,0.1328
2959.00,0.1361
2958.00,0.1396
2957.00,0.1440
2956.00,0.1498
2955.00,0.1572
2954.00,0.1660
2953.00,0.1755
2952.00,0.1842
2951.00,0.1908
2950.00,0.1938
2949.00,0.1923
2948.00,0.1860
2947.00,0.1758
2946.00,0.1632
2945.00,0.1497
2944.00,0.1370
2943.00,0.1260
2942.00,0.1175
2941.00,0.1116
2940.00,0.1082
2939.00,0.1071
2938.00,0.1080
2937.00,0.1108
2936.00,0.1151
2935.00,0.1211
2934.00,0.1285
2933.00,0.1374
2932.00,0.1474
2931.00,0.1585
2930.00,0.1703
2929.00,0.1827
2928.00,0.1953
2927.00,0.2079
2926.00,0.2202
2925.00,0.2324
2924.00,0.2445
2923.00,0.2566
2922.00,0.2687
2921.00,0.2805
2920.00,0.2912
2919.00,0.2994
2918.00,0.3037
2917.00,0.3030
2916.00,0.2972
2915.00,0.2871
2914.00,0.2743
2913.00,0.2605
2912.00,0.2470
2911.00,0.2348
2910.00,0.2240
2909.00,0.2146
2908.00,0.2061
2907.00,0.1982
2906.00,0.1905
2905.00,0.1830
2904.00,0.1755
2903.00,0.1682
2902.00,0.1610
2901.00,0.1541
2900.00,0.1475
2899.00,0.1413
2898.00,0.1356
2897.00,0.1303
2896.00,0.1255
2895.00,0.1214
2894.00,0.1179
2893.00,0.1151
2892.00,0.1130
2891.00,0.1114
2890.00,0.1104
2889.00,0.1097
2888.00,0.1094
2887.00,0.1095
2886.00,0.1098
2885.00,0.1105
2884.00,0.1116
2883.00,0.1132
2882.00,0.1153
2881.00,0.1176
2880.00,0.1198
2879.00,0.1216
2878.00,0.1227
2877.00,0.1228
2876.00,0.1223
2875.00,0.1215
2874.00,0.1210
2873.00,0.1210
2872.00,0.1220
2871.00,0.1237
2870.00,0.1259
2869.00,0.1282
2868.00,0.1297
2867.00,0.1297
2866.00,0.1275
2865.00,0.1228
2864.00,0.1161
2863.00,0.1082
2862.00,0.1002
2861.00,0.0932
2860.00,0.0876
2859.00,0.0837
2858.00,0.0815
2857.00,0.0806
2856.00,0.0808
2855.00,0.0818
2854.00,0.0835
2853.00,0.0856
2852.00,0.0878
2851.00,0.0898
2850.00,0.0913
2849.00,0.0923
2848.00,0.0931
2847.00,0.0941
2846.00,0.0959
2845.00,0.0988
2844.00,0.1027
2843.00,0.1075
2842.00,0.1126
2841.00,0.1172
2840.00,0.1207
2839.00,0.1222
2838.00,0.1211
2837.00,0.1170
2836.00,0.1101
2835.00,0.1010
2834.00,0.0907
2833.00,0.0801
2832.00,0.0702
2831.00,0.0615
2830.00,0.0541
2829.00,0.0480
2828.00,0.0431
2827.00,0.0391
2826.00,0.0359
2825.00,0.0332
2824.00,0.0309
2823.00,0.0290
2822.00,0.0273
2821.00,0.0259
2820.00,0.0246
2819.00,0.0236
2818.00,0.0226
2817.00,0.0218
2816.00,0.0211
2815.00,0.0204
2814.00,0.0197
2813.00,0.0191
2812.00,0.0186
2811.00,0.0181
2810.00,0.0175
2809.00,0.0170
2808.00,0.0164
2807.00,0.0157
2806.00,0.0151
2805.00,0.0144
2804.00,0.0137
2803.00,0.0132
2802.00,0.0126
2801.00,0.0122
2800.00,0.0118
2799.00,0.0114
2798.00,0.0111
2797.00,0.0109
2796.00,0.0107
2795.00,0.0104
2794.00,0.0101
2793.00,0.0098
2792.00,0.0095
2791.00,0.0093
2790.00,0.0090
2789.00,0.0087
2788.00,0.0084
2787.00,0.0081
2786.00,0.0079
2785.00,0.0077
2784.00,0.0075
2783.00,0.0073
2782.00,0.0071
2781.00,0.0069
2780.00,0.0067
2779.00,0.0065
2778.00,0.0064
2777.00,0.0062
2776.00,0.0061
2775.00,0.0060
2774.00,0.0059
2773.00,0.0058
2772.00,0.0058
2771.00,0.0057
2770.00,0.0057
2769.00,0.0056
2768.00,0.0056
2767.00,0.0055
2766.00,0.0054
2765.00,0.0054
2764.00,0.0054
2763.00,0.0054
2762.00,0.0053
2761.00,0.0053
2760.00,0.0053
2759.00,0.0053
2758.00,0.0053
2757.00,0.0052
2756.00,0.0052
2755.00,0.0052
2754.00,0.0052
2753.00,0.0052
2752.00,0.0052
2751.00,0.0052
2750.00,0.0051
2749.00,0.0051
2748.00,0.0051
2747.00,0.0051
2746.00,0.0052
2745.00,0.0053
2744.00,0.0054
2743.00,0.0055
2742.00,0.0055
2741.00,0.0056
2740.00,0.0057
2739.00,0.0058
2738.00,0.0060
2737.00,0.0061
2736.00,0.0063
2735.00,0.0064
2734.00,0.0066
2733.00,0.0067
2732.00,0.0069
2731.00,0.0070
2730.00,0.0072
2729.00,0.0074
2728.00,0.0077
2727.00,0.0080
2726.00,0.0083
2725.00,0.0086
2724.00,0.0088
2723.00,0.0089
2722.00,0.0088
2721.00,0.0086
2720.00,0.0084
2719.00,0.0080
2718.00,0.0077
2717.00,0.0073
2716.00,0.0070
2715.00,0.0067
2714.00,0.0064
2713.00,0.0062
2712.00,0.0060
2711.00,0.0058
2710.00,0.0057
2709.00,0.0055
2708.00,0.0053
2707.00,0.0052
2706.00,0.0051
2705.00,0.0051
2704.00,0.0050
2703.00,0.0048
2702.00,0.0048
2701.00,0.0047
2700.00,0.0046
2699.00,0.0045
2698.00,0.0045
2697.00,0.0044
2696.00,0.0044
2695.00,0.0044
2694.00,0.0045
2693.00,0.0045
2692.00,0.0045
2691.00,0.0045
2690.00,0.0045
2689.00,0.0045
2688.00,0.0045
2687.00,0.0045
2686.00,0.0045
2685.00,0.0045
2684.00,0.0045
2683.00,0.0045
2682.00,0.0045
2681.00,0.0045
2680.00,0.0045
2679.00,0.0046
2678.00,0.0046
2677.00,0.0045
2676.00,0.0045
2675.00,0.0045
2674.00,0.0045
2673.00,0.0045
2672.00,0.0045
2671.00,0.0045
2670.00,0.0045
2669.00,0.0045
2668.00,0.0045
2667.00,0.0046
2666.00,0.0046
2665.00,0.0046
2664.00,0.0047
2663.00,0.0047
2662.00,0.0048
2661.00,0.0048
2660.00,0.0048
2659.00,0.0048
2658.00,0.0048
2657.00,0.0048
2656.00,0.0047
2655.00,0.0047
2654.00,0.0047
2653.00,0.0046
2652.00,0.0045
2651.00,0.0044
2650.00,0.0044
2649.00,0.0044
2648.00,0.0044
2647.00,0.0043
2646.00,0.0043
2645.00,0.0042
2644.00,0.0041
2643.00,0.0041
2642.00,0.0041
2641.00,0.0040
2640.00,0.0040
2639.00,0.0039
2638.00,0.0039
2637.00,0.0039
2636.00,0.0038
2635.00,0.0038
2634.00,0.0038
2633.00,0.0038
2632.00,0.0038
2631.00,0.0038
2630.00,0.0038
2629.00,0.0038
2628.00,0.0038
2627.00,0.0038
2626.00,0.0039
2625.00,0.0039
2624.00,0.0040
2623.00,0.0040
2622.00,0.0040
2621.00,0.0040
2620.00,0.0040
2619.00,0.0039
2618.00,0.0039
2617.00,0.0039
2616.00,0.0039
2615.00,0.0039
2614.00,0.0039
2613.00,0.0039
2612.00,0.0038
2611.00,0.0037
2610.00,0.0036
2609.00,0.0035
2608.00,0.0035
2607.00,0.0034
2606.00,0.0034
2605.00,0.0033
2604.00,0.0033
2603.00,0.0032
2602.00,0.0031
2601.00,0.0031
2600.00,0.0030
2599.00,0.0030
2598.00,0.0031
2597.00,0.0031
2596.00,0.0031
2595.00,0.0032
2594.00,0.0032
2593.00,0.0032
2592.00,0.0032
2591.00,0.0033
2590.00,0.0034
2589.00,0.0035
2588.00,0.0036
2587.00,0.0037
2586.00,0.0038
2585.00,0.0038
2584.00,0.0039
2583.00,0.0039
2582.00,0.0039
2581.00,0.0038
2580.00,0.0037
2579.00,0.0036
2578.00,0.0036
2577.00,0.0035
2576.00,0.0034
2575.00,0.0033
2574.00,0.0032
2573.00,0.0031
2572.00,0.0030
2571.00,0.0029
2570.00,0.0028
2569.00,0.0027
2568.00,0.0027
2567.00,0.0027
2566.00,0.0026
2565.00,0.0025
2564.00,0.0024
2563.00,0.0024
2562.00,0.0023
2561.00,0.0022
2560.00,0.0022
2559.00,0.0022
2558.00,0.0022
2557.00,0.0021
2556.00,0.0021
2555.00,0.0021
2554.00,0.0021
2553.00,0.0021
2552.00,0.0020
2551.00,0.0020
2550.00,0.0019
2549.00,0.0019
2548.00,0.0018
2547.00,0.0018
2546.00,0.0018
2545.00,0.0018
2544.00,0.0018
2543.00,0.0018
2542.00,0.0018
2541.00,0.0017
2540.00,0.0017
2539.00,0.0017
2538.00,0.0016
2537.00,0.0016
2536.00,0.0015
2535.00,0.0015
2534.00,0.0016
2533.00,0.0015
2532.00,0.0015
2531.00,0.0014
2530.00,0.0014
2529.00,0.0014
2528.00,0.0014
2527.00,0.0014
2526.00,0.0014
2525.00,0.0014
2524.00,0.0013
2523.00,0.0012
2522.00,0.0011
2521.00,0.0011
2520.00,0.0011
2519.00,0.0011
2518.00,0.0011
2517.00,0.0011
2516.00,0.0010
2515.00,0.0010
2514.00,0.0011
2513.00,0.0011
2512.00,0.0011
2511.00,0.0011
2510.00,0.0011
2509.00,0.0010
2508.00,0.0010
2507.00,0.0010
2506.00,0.0010
2505.00,0.0010
2504.00,0.0010
2503.00,0.0010
2502.00,0.0010
2501.00,0.0011
2500.00,0.0011
2499.00,0.0010
2498.00,0.0010
2497.00,0.0010
2496.00,0.0010
2495.00,0.0010
2494.00,0.0010
2493.00,0.0011
2492.00,0.0011
2491.00,0.0011
2490.00,0.0010
2489.00,0.0010
2488.00,0.0010
2487.00,0.0010
2486.00,0.0010
2485.00,0.0010
2484.00,0.0010
2483.00,0.0010
2482.00,0.0009
2481.00,0.0009
2480.00,0.0009
2479.00,0.0009
2478.00,0.0008
2477.00,0.0008
2476.00,0.0008
2475.00,0.0008
2474.00,0.0008
2473.00,0.0008
2472.00,0.0008
2471.00,0.0008
2470.00,0.0008
2469.00,0.0009
2468.00,0.0009
2467.00,0.0009
2466.00,0.0009
2465.00,0.0009
2464.00,0.0008
2463.00,0.0008
2462.00,0.0009
2461.00,0.0009
2460.00,0.0009
2459.00,0.0009
2458.00,0.0009
2457.00,0.0009
2456.00,0.0008
2455.00,0.0009
2454.00,0.0009
2453.00,0.0009
2452.00,0.0009
2451.00,0.0009
2450.00,0.0009
2449.00,0.0009
2448.00,0.0009
2447.00,0.0009
2446.00,0.0010
2445.00,0.0010
2444.00,0.0010
2443.00,0.0010
2442.00,0.0009
2441.00,0.0009
2440.00,0.0009
2439.00,0.0009
2438.00,0.0010
2437.00,0.0011
2436.00,0.0011
2435.00,0.0011
2434.00,0.0011
2433.00,0.0010
2432.00,0.0010
2431.00,0.0010
2430.00,0.0010
2429.00,0.0010
2428.00,0.0010
2427.00,0.0010
2426.00,0.0011
2425.00,0.0011
2424.00,0.0011
2423.00,0.0010
2422.00,0.0010
2421.00,0.0009
2420.00,0.0009
2419.00,0.0009
2418.00,0.0009
2417.00,0.0009
2416.00,0.0009
2415.00,0.0009
2414.00,0.0009
2413.00,0.0008
2412.00,0.0008
2411.00,0.0009
2410.00,0.0009
2409.00,0.0009
2408.00,0.0009
2407.00,0.0009
2406.00,0.0008
2405.00,0.0008
2404.00,0.0007
2403.00,0.0007
2402.00,0.0007
2401.00,0.0007
2400.00,0.0008
2399.00,0.0008
2398.00,0.0007
2397.00,0.0007
2396.00,0.0007
2395.00,0.0006
2394.00,0.0006
2393.00,0.0006
2392.00,0.0006
2391.00,0.0006
2390.00,0.0006
2389.00,0.0006
2388.00,0.0006
2387.00,0.0007
2386.00,0.0007
2385.00,0.0007
2384.00,0.0006
2383.00,0.0006
2382.00,0.0005
2381.00,0.0005
2380.00,0.0004
2379.00,0.0004
2378.00,0.0004
2377.00,0.0004
2376.00,0.0004
2375.00,0.0004
2374.00,0.0005
2373.00,0.0005
2372.00,0.0005
2371.00,0.0005
2370.00,0.0004
2369.00,0.0003
2368.00,0.0002
2367.00,0.0003
2366.00,0.0004
2365.00,0.0004
2364.00,0.0004
2363.00,0.0004
2362.00,0.0003
2361.00,0.0004
2360.00,0.0004
2359.00,0.0005
2358.00,0.0006
2357.00,0.0006
2356.00,0.0006
2355.00,0.0006
2354.00,0.0006
2353.00,0.0006
2352.00,0.0005
2351.00,0.0004
2350.00,0.0004
2349.00,0.0004
2348.00,0.0005
2347.00,0.0005
2346.00,0.0005
2345.00,0.0006
2344.00,0.0007
2343.00,0.0008
2342.00,0.0008
2341.00,0.0008
2340.00,0.0008
2339.00,0.0008
2338.00,0.0008
2337.00,0.0008
2336.00,0.0007
2335.00,0.0007
2334.00,0.0006
2333.00,0.0006
2332.00,0.0006
2331.00,0.0006
2330.00,0.0007
2329.00,0.0007
2328.00,0.0009
2327.00,0.0013
2326.00,0.0017
2325.00,0.0020
2324.00,0.0021
2323.00,0.0020
2322.00,0.0018
2321.00,0.0016
2320.00,0.0015
2319.00,0.0014
2318.00,0.0013
2317.00,0.0012
2316.00,0.0012
2315.00,0.0012
2314.00,0.0012
2313.00,0.0011
2312.00,0.0011
2311.00,0.0010
2310.00,0.0010
2309.00,0.0010
2308.00,0.0011
2307.00,0.0011
2306.00,0.0011
2305.00,0.0011
2304.00,0.0010
2303.00,0.0011
2302.00,0.0011
2301.00,0.0012
2300.00,0.0012
2299.00,0.0013
2298.00,0.0013
2297.00,0.0013
2296.00,0.0013
2295.00,0.0013
2294.00,0.0014
2293.00,0.0016
2292.00,0.0017
2291.00,0.0017
2290.00,0.0017
2289.00,0.0016
2288.00,0.0017
2287.00,0.0016
2286.00,0.0016
2285.00,0.0015
2284.00,0.0014
2283.00,0.0013
2282.00,0.0013
2281.00,0.0013
2280.00,0.0013
2279.00,0.0013
2278.00,0.0014
2277.00,0.0014
2276.00,0.0014
2275.00,0.0014
2274.00,0.0014
2273.00,0.0013
2272.00,0.0013
2271.00,0.0013
2270.00,0.0013
2269.00,0.0012
2268.00,0.0011
2267.00,0.0010
2266.00,0.0010
2265.00,0.0010
2264.00,0.0011
2263.00,0.0011
2262.00,0.0011
2261.00,0.0012
2260.00,0.0012
2259.00,0.0013
2258.00,0.0013
2257.00,0.0012
2256.00,0.0011
2255.00,0.0010
2254.00,0.0009
2253.00,0.0008
2252.00,0.0008
2251.00,0.0007
2250.00,0.0006
2249.00,0.0007
2248.00,0.0007
2247.00,0.0008
2246.00,0.0008
2245.00,0.0007
2244.00,0.0007
2243.00,0.0006
2242.00,0.0006
2241.00,0.0006
2240.00,0.0006
2239.00,0.0006
2238.00,0.0008
2237.00,0.0010
2236.00,0.0011
2235.00,0.0011
2234.00,0.0010
2233.00,0.0008
2232.00,0.0006
2231.00,0.0005
2230.00,0.0004
2229.00,0.0005
2228.00,0.0005
2227.00,0.0005
2226.00,0.0005
2225.00,0.0004
2224.00,0.0003
2223.00,0.0003
2222.00,0.0002
2221.00,0.0002
2220.00,0.0001
2219.00,-0.0001
2218.00,-0.0002
2217.00,-0.0001
2216.00,-0.0000
2215.00,0.0000
2214.00,0.0001
2213.00,0.0001
2212.00,0.0002
2211.00,0.0004
2210.00,0.0005
2209.00,0.0004
2208.00,0.0003
2207.00,0.0001
2206.00,0.0000
2205.00,-0.0000
2204.00,0.0000
2203.00,0.0001
2202.00,0.0002
2201.00,0.0003
2200.00,0.0005
2199.00,0.0007
2198.00,0.0007
2197.00,0.0006
2196.00,0.0004
2195.00,0.0002
2194.00,0.0001
2193.00,0.0001
2192.00,0.0003
2191.00,0.0005
2190.00,0.0007
2189.00,0.0009
2188.00,0.0010
2187.00,0.0009
2186.00,0.0007
2185.00,0.0006
2184.00,0.0005
2183.00,0.0003
2182.00,0.0000
2181.00,-0.0002
2180.00,-0.0002
2179.00,-0.0001
2178.00,0.0001
2177.00,0.0002
2176.00,0.0000
2175.00,-0.0002
2174.00,-0.0003
2173.00,-0.0002
2172.00,0.0000
2171.00,0.0003
2170.00,0.0005
2169.00,0.0007
2168.00,0.0008
2167.00,0.0009
2166.00,0.0011
2165.00,0.0012
2164.00,0.0014
2163.00,0.0015
2162.00,0.0014
2161.00,0.0011
2160.00,0.0003
2159.00,-0.0009
2158.00,-0.0021
2157.00,-0.0028
2156.00,-0.0028
2155.00,-0.0025
2154.00,-0.0021
2153.00,-0.0018
2152.00,-0.0018
2151.00,-0.0018
2150.00,-0.0019
2149.00,-0.0018
2148.00,-0.0018
2147.00,-0.0018
2146.00,-0.0018
2145.00,-0.0017
2144.00,-0.0014
2143.00,-0.0012
2142.00,-0.0011
2141.00,-0.0013
2140.00,-0.0014
2139.00,-0.0015
2138.00,-0.0015
2137.00,-0.0015
2136.00,-0.0016
2135.00,-0.0017
2134.00,-0.0018
2133.00,-0.0016
2132.00,-0.0015
2131.00,-0.0013
2130.00,-0.0012
2129.00,-0.0012
2128.00,-0.0012
2127.00,-0.0011
2126.00,-0.0010
2125.00,-0.0009
2124.00,-0.0007
2123.00,-0.0006
2122.00,-0.0005
2121.00,-0.0004
2120.00,-0.0004
2119.00,-0.0004
2118.00,-0.0003
2117.00,-0.0003
2116.00,-0.0002
2115.00,-0.0000
2114.00,0.0001
2113.00,0.0001
2112.00,0.0002
2111.00,0.0003
2110.00,0.0002
2109.00,0.0001
2108.00,-0.0001
2107.00,-0.0002
2106.00,-0.0002
2105.00,-0.0001
2104.00,-0.0000
2103.00,0.0001
2102.00,0.0002
2101.00,0.0002
2100.00,0.0003
2099.00,0.0002
2098.00,0.0001
2097.00,-0.0002
2096.00,-0.0005
2095.00,-0.0008
2094.00,-0.0010
2093.00,-0.0009
2092.00,-0.0007
2091.00,-0.0004
2090.00,-0.0003
2089.00,-0.0002
2088.00,-0.0002
2087.00,-0.0002
2086.00,-0.0001
2085.00,-0.0000
2084.00,-0.0001
2083.00,-0.0002
2082.00,-0.0003
2081.00,-0.0003
2080.00,-0.0003
2079.00,-0.0003
2078.00,-0.0002
2077.00,-0.0001
2076.00,0.0001
2075.00,0.0003
2074.00,0.0003
2073.00,0.0003
2072.00,0.0002
2071.00,0.0001
2070.00,-0.0001
2069.00,-0.0001
2068.00,-0.0001
2067.00,-0.0001
2066.00,-0.0002
2065.00,-0.0002
2064.00,-0.0001
2063.00,-0.0001
2062.00,-0.0000
2061.00,-0.0001
2060.00,-0.0002
2059.00,-0.0003
2058.00,-0.0004
2057.00,-0.0005
2056.00,-0.0005
2055.00,-0.0005
2054.00,-0.0003
2053.00,0.0001
2052.00,0.0007
2051.00,0.0011
2050.00,0.0012
2049.00,0.0009
2048.00,0.0005
2047.00,0.0001
2046.00,-0.0003
2045.00,-0.0005
2044.00,-0.0006
2043.00,-0.0005
2042.00,-0.0005
2041.00,-0.0003
2040.00,-0.0002
2039.00,-0.0000
2038.00,0.0001
2037.00,0.0002
2036.00,0.0001
2035.00,-0.0002
2034.00,-0.0006
2033.00,-0.0010
2032.00,-0.0012
2031.00,-0.0011
2030.00,-0.0012
2029.00,-0.0014
2028.00,-0.0016
2027.00,-0.0017
2026.00,-0.0015
2025.00,-0.0014
2024.00,-0.0013
2023.00,-0.0014
2022.00,-0.0015
2021.00,-0.0016
2020.00,-0.0016
2019.00,-0.0016
2018.00,-0.0016
2017.00,-0.0014
2016.00,-0.0013
2015.00,-0.0011
2014.00,-0.0008
2013.00,-0.0004
2012.00,-0.0000
2011.00,0.0001
2010.00,-0.0001
2009.00,-0.0006
2008.00,-0.0011
2007.00,-0.0016
2006.00,-0.0018
2005.00,-0.0017
2004.00,-0.0014
2003.00,-0.0012
2002.00,-0.0010
2001.00,-0.0009
2000.00,-0.0009
1999.00,-0.0010
1998.00,-0.0011
1997.00,-0.0010
1996.00,-0.0009
1995.00,-0.0009
1994.00,-0.0009
1993.00,-0.0008
1992.00,-0.0008
1991.00,-0.0007
1990.00,-0.0006
1989.00,-0.0007
1988.00,-0.0007
1987.00,-0.0007
1986.00,-0.0005
1985.00,-0.0001
1984.00,0.0004
1983.00,0.0008
1982.00,0.0011
1981.00,0.0013
1980.00,0.0012
1979.00,0.0007
1978.00,0.0000
1977.00,-0.0006
1976.00,-0.0008
1975.00,-0.0008
1974.00,-0.0007
1973.00,-0.0008
1972.00,-0.0008
1971.00,-0.0010
1970.00,-0.0011
1969.00,-0.0013
1968.00,-0.0016
1967.00,-0.0018
1966.00,-0.0019
1965.00,-0.0019
1964.00,-0.0018
1963.00,-0.0017
1962.00,-0.0016
1961.00,-0.0014
1960.00,-0.0013
1959.00,-0.0013
1958.00,-0.0014
1957.00,-0.0014
1956.00,-0.0015
1955.00,-0.0016
1954.00,-0.0017
1953.00,-0.0017
1952.00,-0.0015
1951.00,-0.0014
1950.00,-0.0012
1949.00,-0.0012
1948.00,-0.0013
1947.00,-0.0014
1946.00,-0.0016
1945.00,-0.0017
1944.00,-0.0018
1943.00,-0.0018
1942.00,-0.0017
1941.00,-0.0016
1940.00,-0.0014
1939.00,-0.0013
1938.00,-0.0011
1937.00,-0.0010
1936.00,-0.0009
1935.00,-0.0009
1934.00,-0.0009
1933.00,-0.0009
1932.00,-0.0008
1931.00,-0.0008
1930.00,-0.0008
1929.00,-0.0009
1928.00,-0.0009
1927.00,-0.0009
1926.00,-0.0009
1925.00,-0.0009
1924.00,-0.0009
1923.00,-0.0008
1922.00,-0.0006
1921.00,-0.0005
1920.00,-0.0004
1919.00,-0.0003
1918.00,-0.0003
1917.00,-0.0003
1916.00,-0.0004
1915.00,-0.0004
1914.00,-0.0005
1913.00,-0.0004
1912.00,-0.0003
1911.00,-0.0003
1910.00,-0.0003
1909.00,-0.0004
1908.00,-0.0004
1907.00,-0.0003
1906.00,-0.0002
1905.00,-0.0000
1904.00,-0.0000
1903.00,-0.0000
1902.00,-0.0001
1901.00,-0.0001
1900.00,-0.0001
1899.00,-0.0001
1898.00,-0.0001
1897.00,-0.0001
1896.00,-0.0001
1895.00,-0.0001
1894.00,-0.0001
1893.00,-0.0001
1892.00,-0.0001
1891.00,-0.0002
1890.00,-0.0002
1889.00,-0.0001
1888.00,-0.0001
1887.00,-0.0001
1886.00,-0.0001
1885.00,-0.0000
1884.00,0.0000
1883.00,0.0001
1882.00,0.0000
1881.00,-0.0000
1880.00,-0.0000
1879.00,-0.0000
1878.00,0.0001
1877.00,0.0002
1876.00,0.0002
1875.00,0.0002
1874.00,0.0000
1873.00,-0.0001
1872.00,-0.0002
1871.00,-0.0003
1870.00,-0.0003
1869.00,-0.0002
1868.00,-0.0001
1867.00,0.0000
1866.00,0.0000
1865.00,-0.0000
1864.00,-0.0000
1863.00,-0.0000
1862.00,-0.0001
1861.00,-0.0001
1860.00,-0.0001
1859.00,-0.0002
1858.00,-0.0002
1857.00,-0.0002
1856.00,-0.0001
1855.00,-0.0001
1854.00,-0.0000
1853.00,0.0000
1852.00,0.0000
1851.00,-0.0000
1850.00,-0.0000
1849.00,-0.0000
1848.00,0.0000
1847.00,0.0001
1846.00,0.0002
1845.00,0.0003
1844.00,0.0003
1843.00,0.0002
1842.00,0.0001
1841.00,0.0001
1840.00,0.0001
1839.00,0.0002
1838.00,0.0003
1837.00,0.0003
1836.00,0.0003
1835.00,0.0003
1834.00,0.0003
1833.00,0.0002
1832.00,0.0002
1831.00,0.0002
1830.00,0.0002
1829.00,0.0003
1828.00,0.0003
1827.00,0.0003
1826.00,0.0004
1825.00,0.0004
1824.00,0.0004
1823.00,0.0004
1822.00,0.0003
1821.00,0.0003
1820.00,0.0002
1819.00,0.0001
1818.00,-0.0000
1817.00,-0.0001
1816.00,-0.0000
1815.00,0.0001
1814.00,0.0002
1813.00,0.0002
1812.00,0.0003
1811.00,0.0003
1810.00,0.0004
1809.00,0.0003
1808.00,0.0003
1807.00,0.0003
1806.00,0.0003
1805.00,0.0004
1804.00,0.0004
1803.00,0.0005
1802.00,0.0005
1801.00,0.0005
1800.00,0.0005
1799.00,0.0004
1798.00,0.0004
1797.00,0.0005
1796.00,0.0006
1795.00,0.0006
1794.00,0.0006
1793.00,0.0006
1792.00,0.0006
1791.00,0.0006
1790.00,0.0006
1789.00,0.0006
1788.00,0.0006
1787.00,0.0006
1786.00,0.0007
1785.00,0.0007
1784.00,0.0007
1783.00,0.0007
1782.00,0.0007
1781.00,0.0007
1780.00,0.0008
1779.00,0.0008
1778.00,0.0008
1777.00,0.0008
1776.00,0.0008
1775.00,0.0008
1774.00,0.0008
1773.00,0.0008
1772.00,0.0009
1771.00,0.0009
1770.00,0.0009
1769.00,0.0009
1768.00,0.0009
1767.00,0.0010
1766.00,0.0010
1765.00,0.0010
1764.00,0.0010
1763.00,0.0010
1762.00,0.0010
1761.00,0.0011
1760.00,0.0011
1759.00,0.0012
1758.00,0.0013
1757.00,0.0013
1756.00,0.0014
1755.00,0.0014
1754.00,0.0015
1753.00,0.0015
1752.00,0.0015
1751.00,0.0015
1750.00,0.0016
1749.00,0.0017
1748.00,0.0018
1747.00,0.0018
1746.00,0.0019
1745.00,0.0019
1744.00,0.0019
1743.00,0.0020
1742.00,0.0020
1741.00,0.0021
1740.00,0.0022
1739.00,0.0022
1738.00,0.0023
1737.00,0.0023
1736.00,0.0023
1735.00,0.0024
1734.00,0.0024
1733.00,0.0024
1732.00,0.0025
1731.00,0.0025
1730.00,0.0026
1729.00,0.0026
1728.00,0.0026
1727.00,0.0026
1726.00,0.0026
1725.00,0.0026
1724.00,0.0027
1723.00,0.0026
1722.00,0.0026
1721.00,0.0026
1720.00,0.0026
1719.00,0.0026
1718.00,0.0025
1717.00,0.0024
1716.00,0.0024
1715.00,0.0024
1714.00,0.0024
1713.00,0.0024
1712.00,0.0024
1711.00,0.0023
1710.00,0.0023
1709.00,0.0023
1708.00,0.0023
1707.00,0.0023
1706.00,0.0024
1705.00,0.0024
1704.00,0.0024
1703.00,0.0025
1702.00,0.0025
1701.00,0.0026
1700.00,0.0027
1699.00,0.0027
1698.00,0.0027
1697.00,0.0027
1696.00,0.0028
1695.00,0.0028
1694.00,0.0029
1693.00,0.0030
1692.00,0.0030
1691.00,0.0031
1690.00,0.0031
1689.00,0.0032
1688.00,0.0032
1687.00,0.0033
1686.00,0.0033
1685.00,0.0033
1684.00,0.0034
1683.00,0.0035
1682.00,0.0036
1681.00,0.0037
1680.00,0.0038
1679.00,0.0038
1678.00,0.0039
1677.00,0.0039
1676.00,0.0041
1675.00,0.0041
1674.00,0.0042
1673.00,0.0043
1672.00,0.0044
1671.00,0.0044
1670.00,0.0045
1669.00,0.0046
1668.00,0.0046
1667.00,0.0046
1666.00,0.0046
1665.00,0.0046
1664.00,0.0047
1663.00,0.0047
1662.00,0.0048
1661.00,0.0048
1660.00,0.0049
1659.00,0.0050
1658.00,0.0051
1657.00,0.0052
1656.00,0.0053
1655.00,0.0054
1654.00,0.0055
1653.00,0.0056
1652.00,0.0056
1651.00,0.0056
1650.00,0.0057
1649.00,0.0057
1648.00,0.0057
1647.00,0.0058
1646.00,0.0059
1645.00,0.0059
1644.00,0.0060
1643.00,0.0062
1642.00,0.0063
1641.00,0.0064
1640.00,0.0066
1639.00,0.0066
1638.00,0.0067
1637.00,0.0068
1636.00,0.0068
1635.00,0.0067
1634.00,0.0066
1633.00,0.0065
1632.00,0.0064
1631.00,0.0063
1630.00,0.0063
1629.00,0.0062
1628.00,0.0062
1627.00,0.0061
1626.00,0.0061
1625.00,0.0061
1624.00,0.0061
1623.00,0.0061
1622.00,0.0060
1621.00,0.0059
1620.00,0.0059
1619.00,0.0058
1618.00,0.0057
1617.00,0.0057
1616.00,0.0057
1615.00,0.0058
1614.00,0.0058
1613.00,0.0058
1612.00,0.0058
1611.00,0.0059
1610.00,0.0059
1609.00,0.0059
1608.00,0.0060
1607.00,0.0060
1606.00,0.0060
1605.00,0.0060
1604.00,0.0060
1603.00,0.0060
1602.00,0.0060
1601.00,0.0059
1600.00,0.0059
1599.00,0.0058
1598.00,0.0058
1597.00,0.0058
1596.00,0.0058
1595.00,0.0058
1594.00,0.0058
1593.00,0.0059
1592.00,0.0059
1591.00,0.0059
1590.00,0.0060
1589.00,0.0060
1588.00,0.0062
1587.00,0.0063
1586.00,0.0065
1585.00,0.0067
1584.00,0.0069
1583.00,0.0071
1582.00,0.0073
1581.00,0.0076
1580.00,0.0079
1579.00,0.0081
1578.00,0.0082
1577.00,0.0083
1576.00,0.0082
1575.00,0.0082
1574.00,0.0081
1573.00,0.0080
1572.00,0.0079
1571.00,0.0078
1570.00,0.0076
1569.00,0.0075
1568.00,0.0074
1567.00,0.0073
1566.00,0.0072
1565.00,0.0072
1564.00,0.0072
1563.00,0.0071
1562.00,0.0071
1561.00,0.0071
1560.00,0.0071
1559.00,0.0070
1558.00,0.0069
1557.00,0.0070
1556.00,0.0071
1555.00,0.0072
1554.00,0.0072
1553.00,0.0073
1552.00,0.0074
1551.00,0.0076
1550.00,0.0077
1549.00,0.0079
1548.00,0.0081
1547.00,0.0082
1546.00,0.0084
1545.00,0.0086
1544.00,0.0089
1543.00,0.0091
1542.00,0.0093
1541.00,0.0093
1540.00,0.0092
1539.00,0.0089
1538.00,0.0085
1537.00,0.0083
1536.00,0.0080
1535.00,0.0077
1534.00,0.0073
1533.00,0.0070
1532.00,0.0067
1531.00,0.0065
1530.00,0.0064
1529.00,0.0063
1528.00,0.0062
1527.00,0.0061
1526.00,0.0061
1525.00,0.0060
1524.00,0.0060
1523.00,0.0060
1522.00,0.0060
1521.00,0.0060
1520.00,0.0061
1519.00,0.0061
1518.00,0.0061
1517.00,0.0061
1516.00,0.0060
1515.00,0.0060
1514.00,0.0059
1513.00,0.0060
1512.00,0.0061
1511.00,0.0062
1510.00,0.0062
1509.00,0.0063
1508.00,0.0064
1507.00,0.0064
1506.00,0.0064
1505.00,0.0065
1504.00,0.0067
1503.00,0.0068
1502.00,0.0069
1501.00,0.0071
1500.00,0.0074
1499.00,0.0076
1498.00,0.0078
1497.00,0.0081
1496.00,0.0085
1495.00,0.0088
1494.00,0.0090
1493.00,0.0094
1492.00,0.0098
1491.00,0.0102
1490.00,0.0106
1489.00,0.0110
1488.00,0.0116
1487.00,0.0121
1486.00,0.0126
1485.00,0.0134
1484.00,0.0141
1483.00,0.0150
1482.00,0.0160
1481.00,0.0172
1480.00,0.0185
1479.00,0.0199
1478.00,0.0215
1477.00,0.0236
1476.00,0.0263
1475.00,0.0293
1474.00,0.0334
1473.00,0.0390
1472.00,0.0456
1471.00,0.0520
1470.00,0.0583
1469.00,0.0650
1468.00,0.0723
1467.00,0.0804
1466.00,0.0895
1465.00,0.0993
1464.00,0.1077
1463.00,0.1135
1462.00,0.1170
1461.00,0.1192
1460.00,0.1206
1459.00,0.1213
1458.00,0.1215
1457.00,0.1213
1456.00,0.1204
1455.00,0.1191
1454.00,0.1175
1453.00,0.1154
1452.00,0.1125
1451.00,0.1084
1450.00,0.1032
1449.00,0.0961
1448.00,0.0872
1447.00,0.0779
1446.00,0.0695
1445.00,0.0622
1444.00,0.0561
1443.00,0.0511
1442.00,0.0474
1441.00,0.0448
1440.00,0.0434
1439.00,0.0429
1438.00,0.0433
1437.00,0.0437
1436.00,0.0430
1435.00,0.0408
1434.00,0.0372
1433.00,0.0329
1432.00,0.0283
1431.00,0.0242
1430.00,0.0211
1429.00,0.0187
1428.00,0.0170
1427.00,0.0161
1426.00,0.0154
1425.00,0.0149
1424.00,0.0144
1423.00,0.0141
1422.00,0.0139
1421.00,0.0137
1420.00,0.0134
1419.00,0.0132
1418.00,0.0129
1417.00,0.0127
1416.00,0.0124
1415.00,0.0122
1414.00,0.0122
1413.00,0.0121
1412.00,0.0119
1411.00,0.0119
1410.00,0.0119
1409.00,0.0118
1408.00,0.0117
1407.00,0.0118
1406.00,0.0119
1405.00,0.0119
1404.00,0.0118
1403.00,0.0118
1402.00,0.0120
1401.00,0.0121
1400.00,0.0123
1399.00,0.0126
1398.00,0.0129
1397.00,0.0131
1396.00,0.0134
1395.00,0.0138
1394.00,0.0144
1393.00,0.0149
1392.00,0.0154
1391.00,0.0161
1390.00,0.0171
1389.00,0.0184
1388.00,0.0205
1387.00,0.0235
1386.00,0.0277
1385.00,0.0332
1384.00,0.0407
1383.00,0.0514
1382.00,0.0659
1381.00,0.0849
1380.00,0.1090
1379.00,0.1374
1378.00,0.1661
1377.00,0.1884
1376.00,0.1976
1375.00,0.1894
1374.00,0.1663
1373.00,0.1373
1372.00,0.1103
1371.00,0.0880
1370.00,0.0703
1369.00,0.0571
1368.00,0.0480
1367.00,0.0424
1366.00,0.0394
1365.00,0.0382
1364.00,0.0384
1363.00,0.0398
1362.00,0.0421
1361.00,0.0445
1360.00,0.0463
1359.00,0.0469
1358.00,0.0457
1357.00,0.0430
1356.00,0.0393
1355.00,0.0351
1354.00,0.0311
1353.00,0.0276
1352.00,0.0248
1351.00,0.0225
1350.00,0.0206
1349.00,0.0191
1348.00,0.0178
1347.00,0.0168
1346.00,0.0159
1345.00,0.0151
1344.00,0.0145
1343.00,0.0139
1342.00,0.0135
1341.00,0.0131
1340.00,0.0127
1339.00,0.0125
1338.00,0.0124
1337.00,0.0124
1336.00,0.0124
1335.00,0.0126
1334.00,0.0128
1333.00,0.0132
1332.00,0.0137
1331.00,0.0140
1330.00,0.0141
1329.00,0.0140
1328.00,0.0136
1327.00,0.0131
1326.00,0.0126
1325.00,0.0120
1324.00,0.0114
1323.00,0.0109
1322.00,0.0105
1321.00,0.0102
1320.00,0.0100
1319.00,0.0098
1318.00,0.0096
1317.00,0.0095
1316.00,0.0095
1315.00,0.0094
1314.00,0.0094
1313.00,0.0093
1312.00,0.0094
1311.00,0.0095
1310.00,0.0097
1309.00,0.0102
1308.00,0.0110
1307.00,0.0119
1306.00,0.0128
1305.00,0.0134
1304.00,0.0135
1303.00,0.0134
1302.00,0.0130
1301.00,0.0128
1300.00,0.0126
1299.00,0.0127
1298.00,0.0128
1297.00,0.0129
1296.00,0.0129
1295.00,0.0127
1294.00,0.0123
1293.00,0.0119
1292.00,0.0114
1291.00,0.0109
1290.00,0.0105
1289.00,0.0101
1288.00,0.0099
1287.00,0.0096
1286.00,0.0094
1285.00,0.0093
1284.00,0.0091
1283.00,0.0090
1282.00,0.0089
1281.00,0.0088
1280.00,0.0087
1279.00,0.0086
1278.00,0.0086
1277.00,0.0085
1276.00,0.0086
1275.00,0.0086
1274.00,0.0087
1273.00,0.0088
1272.00,0.0090
1271.00,0.0092
1270.00,0.0095
1269.00,0.0098
1268.00,0.0102
1267.00,0.0107
1266.00,0.0112
1265.00,0.0117
1264.00,0.0121
1263.00,0.0124
1262.00,0.0126
1261.00,0.0128
1260.00,0.0131
1259.00,0.0134
1258.00,0.0138
1257.00,0.0140
1256.00,0.0141
1255.00,0.0137
1254.00,0.0131
1253.00,0.0124
1252.00,0.0116
1251.00,0.0110
1250.00,0.0105
1249.00,0.0101
1248.00,0.0099
1247.00,0.0096
1246.00,0.0095
1245.00,0.0093
1244.00,0.0091
1243.00,0.0090
1242.00,0.0088
1241.00,0.0087
1240.00,0.0086
1239.00,0.0086
1238.00,0.0086
1237.00,0.0086
1236.00,0.0086
1235.00,0.0086
1234.00,0.0086
1233.00,0.0086
1232.00,0.0087
1231.00,0.0088
1230.00,0.0088
1229.00,0.0089
1228.00,0.0089
1227.00,0.0091
1226.00,0.0093
1225.00,0.0096
1224.00,0.0100
1223.00,0.0104
1222.00,0.0107
1221.00,0.0110
1220.00,0.0112
1219.00,0.0112
1218.00,0.0110
1217.00,0.0107
1216.00,0.0104
1215.00,0.0100
1214.00,0.0097
1213.00,0.0094
1212.00,0.0092
1211.00,0.0090
1210.00,0.0088
1209.00,0.0087
1208.00,0.0086
1207.00,0.0085
1206.00,0.0084
1205.00,0.0084
1204.00,0.0084
1203.00,0.0083
1202.00,0.0083
1201.00,0.0083
1200.00,0.0083
1199.00,0.0083
1198.00,0.0083
1197.00,0.0083
1196.00,0.0084
1195.00,0.0085
1194.00,0.0085
1193.00,0.0085
1192.00,0.0085
1191.00,0.0084
1190.00,0.0084
1189.00,0.0084
1188.00,0.0085
1187.00,0.0086
1186.00,0.0087
1185.00,0.0088
1184.00,0.0089
1183.00,0.0091
1182.00,0.0093
1181.00,0.0095
1180.00,0.0098
1179.00,0.0102
1178.00,0.0107
1177.00,0.0114
1176.00,0.0123
1175.00,0.0135
1174.00,0.0151
1173.00,0.0171
1172.00,0.0194
1171.00,0.0221
1170.00,0.0247
1169.00,0.0268
1168.00,0.0280
1167.00,0.0283
1166.00,0.0277
1165.00,0.0266
1164.00,0.0254
1163.00,0.0242
1162.00,0.0232
1161.00,0.0224
1160.00,0.0216
1159.00,0.0211
1158.00,0.0207
1157.00,0.0205
1156.00,0.0204
1155.00,0.0205
1154.00,0.0205
1153.00,0.0205
1152.00,0.0202
1151.00,0.0196
1150.00,0.0187
1149.00,0.0177
1148.00,0.0167
1147.00,0.0158
1146.00,0.0150
1145.00,0.0142
1144.00,0.0136
1143.00,0.0129
1142.00,0.0123
1141.00,0.0117
1140.00,0.0113
1139.00,0.0109
1138.00,0.0106
1137.00,0.0103
1136.00,0.0100
1135.00,0.0098
1134.00,0.0096
1133.00,0.0096
1132.00,0.0097
1131.00,0.0097
1130.00,0.0098
1129.00,0.0098
1128.00,0.0098
1127.00,0.0099
1126.00,0.0100
1125.00,0.0100
1124.00,0.0100
1123.00,0.0100
1122.00,0.0101
1121.00,0.0102
1120.00,0.0104
1119.00,0.0106
1118.00,0.0107
1117.00,0.0109
1116.00,0.0110
1115.00,0.0111
1114.00,0.0113
1113.00,0.0115
1112.00,0.0117
1111.00,0.0120
1110.00,0.0124
1109.00,0.0129
1108.00,0.0134
1107.00,0.0140
1106.00,0.0147
1105.00,0.0153
1104.00,0.0159
1103.00,0.0162
1102.00,0.0162
1101.00,0.0158
1100.00,0.0153
1099.00,0.0146
1098.00,0.0140
1097.00,0.0135
1096.00,0.0130
1095.00,0.0127
1094.00,0.0125
1093.00,0.0122
1092.00,0.0121
1091.00,0.0119
1090.00,0.0117
1089.00,0.0115
1088.00,0.0113
1087.00,0.0111
1086.00,0.0111
1085.00,0.0111
1084.00,0.0111
1083.00,0.0112
1082.00,0.0112
1081.00,0.0112
1080.00,0.0111
1079.00,0.0110
1078.00,0.0108
1077.00,0.0107
1076.00,0.0106
1075.00,0.0105
1074.00,0.0105
1073.00,0.0105
1072.00,0.0104
1071.00,0.0104
1070.00,0.0104
1069.00,0.0103
1068.00,0.0102
1067.00,0.0102
1066.00,0.0101
1065.00,0.0101
1064.00,0.0101
1063.00,0.0101
1062.00,0.0102
1061.00,0.0102
1060.00,0.0103
1059.00,0.0105
1058.00,0.0106
1057.00,0.0108
1056.00,0.0110
1055.00,0.0112
1054.00,0.0113
1053.00,0.0114
1052.00,0.0116
1051.00,0.0119
1050.00,0.0122
1049.00,0.0126
1048.00,0.0129
1047.00,0.0133
1046.00,0.0135
1045.00,0.0136
1044.00,0.0137
1043.00,0.0137
1042.00,0.0136
1041.00,0.0135
1040.00,0.0135
1039.00,0.0134
1038.00,0.0134
1037.00,0.0135
1036.00,0.0136
1035.00,0.0136
1034.00,0.0135
1033.00,0.0133
1032.00,0.0130
1031.00,0.0129
1030.00,0.0129
1029.00,0.0130
1028.00,0.0131
1027.00,0.0133
1026.00,0.0134
1025.00,0.0135
1024.00,0.0136
1023.00,0.0138
1022.00,0.0140
1021.00,0.0142
1020.00,0.0144
1019.00,0.0146
1018.00,0.0146
1017.00,0.0146
1016.00,0.0145
1015.00,0.0144
1014.00,0.0144
1013.00,0.0144
1012.00,0.0143
1011.00,0.0143
1010.00,0.0142
1009.00,0.0142
1008.00,0.0143
1007.00,0.0145
1006.00,0.0148
1005.00,0.0155
1004.00,0.0165
1003.00,0.0182
1002.00,0.0205
1001.00,0.0234
1000.00,0.0265
999.00,0.0290
998.00,0.0301
997.00,0.0294
996.00,0.0271
995.00,0.0239
994.00,0.0207
993.00,0.0180
992.00,0.0158
991.00,0.0142
990.00,0.0130
989.00,0.0122
988.00,0.0117
987.00,0.0114
986.00,0.0114
985.00,0.0116
984.00,0.0119
983.00,0.0125
982.00,0.0135
981.00,0.0149
980.00,0.0168
979.00,0.0193
978.00,0.0225
977.00,0.0261
976.00,0.0299
975.00,0.0335
974.00,0.0359
973.00,0.0366
972.00,0.0352
971.00,0.0320
970.00,0.0278
969.00,0.0237
968.00,0.0202
967.00,0.0175
966.00,0.0155
965.00,0.0141
964.00,0.0130
963.00,0.0122
962.00,0.0116
961.00,0.0111
960.00,0.0108
959.00,0.0106
958.00,0.0104
957.00,0.0102
956.00,0.0100
955.00,0.0097
954.00,0.0094
953.00,0.0093
952.00,0.0091
951.00,0.0091
950.00,0.0090
949.00,0.0090
948.00,0.0090
947.00,0.0090
946.00,0.0091
945.00,0.0093
944.00,0.0097
943.00,0.0101
942.00,0.0105
941.00,0.0107
940.00,0.0107
939.00,0.0104
938.00,0.0098
937.00,0.0092
936.00,0.0085
935.00,0.0080
934.00,0.0076
933.00,0.0072
932.00,0.0070
931.00,0.0069
930.00,0.0068
929.00,0.0068
928.00,0.0067
927.00,0.0066
926.00,0.0065
925.00,0.0065
924.00,0.0064
923.00,0.0064
922.00,0.0064
921.00,0.0064
920.00,0.0065
919.00,0.0065
918.00,0.0065
917.00,0.0065
916.00,0.0066
915.00,0.0068
914.00,0.0069
913.00,0.0070
912.00,0.0070
911.00,0.0071
910.00,0.0072
909.00,0.0074
908.00,0.0077
907.00,0.0082
906.00,0.0089
905.00,0.0099
904.00,0.0113
903.00,0.0131
902.00,0.0151
901.00,0.0170
900.00,0.0183
899.00,0.0186
898.00,0.0179
897.00,0.0162
896.00,0.0143
895.00,0.0124
894.00,0.0108
893.00,0.0097
892.00,0.0090
891.00,0.0084
890.00,0.0079
889.00,0.0075
888.00,0.0073
887.00,0.0072
886.00,0.0072
885.00,0.0072
884.00,0.0071
883.00,0.0071
882.00,0.0071
881.00,0.0072
880.00,0.0073
879.00,0.0074
878.00,0.0075
877.00,0.0075
876.00,0.0075
875.00,0.0075
874.00,0.0075
873.00,0.0076
872.00,0.0077
871.00,0.0077
870.00,0.0078
869.00,0.0078
868.00,0.0077
867.00,0.0077
866.00,0.0078
865.00,0.0078
864.00,0.0079
863.00,0.0080
862.00,0.0081
861.00,0.0082
860.00,0.0084
859.00,0.0085
858.00,0.0087
857.00,0.0090
856.00,0.0092
855.00,0.0094
854.00,0.0095
853.00,0.0096
852.00,0.0097
851.00,0.0099
850.00,0.0102
849.00,0.0107
848.00,0.0113
847.00,0.0123
846.00,0.0136
845.00,0.0159
844.00,0.0193
843.00,0.0233
842.00,0.0268
841.00,0.0280
840.00,0.0265
839.00,0.0230
838.00,0.0190
837.00,0.0158
836.00,0.0136
835.00,0.0123
834.00,0.0116
833.00,0.0113
832.00,0.0112
831.00,0.0111
830.00,0.0111
829.00,0.0111
828.00,0.0109
827.00,0.0108
826.00,0.0108
825.00,0.0109
824.00,0.0110
823.00,0.0112
822.00,0.0113
821.00,0.0115
820.00,0.0117
819.00,0.0121
818.00,0.0126
817.00,0.0132
816.00,0.0140
815.00,0.0152
814.00,0.0168
813.00,0.0188
812.00,0.0210
811.00,0.0230
810.00,0.0245
809.00,0.0250
808.00,0.0246
807.00,0.0233
806.00,0.0214
805.00,0.0194
804.00,0.0175
803.00,0.0160
802.00,0.0149
801.00,0.0141
800.00,0.0135
799.00,0.0130
798.00,0.0126
797.00,0.0122
796.00,0.0119
795.00,0.0115
794.00,0.0112
793.00,0.0109
792.00,0.0105
791.00,0.0100
790.00,0.0094
789.00,0.0089
788.00,0.0085
787.00,0.0082
786.00,0.0080
785.00,0.0078
784.00,0.0075
783.00,0.0073
782.00,0.0071
781.00,0.0069
780.00,0.0068
779.00,0.0068
778.00,0.0068
777.00,0.0068
776.00,0.0068
775.00,0.0068
774.00,0.0068
773.00,0.0070
772.00,0.0071
771.00,0.0072
770.00,0.0071
769.00,0.0070
768.00,0.0068
767.00,0.0066
766.00,0.0065
765.00,0.0065
764.00,0.0066
763.00,0.0068
762.00,0.0070
761.00,0.0071
760.00,0.0072
759.00,0.0072
758.00,0.0073
757.00,0.0073
756.00,0.0073
755.00,0.0073
754.00,0.0074
753.00,0.0076
752.00,0.0079
751.00,0.0081
750.00,0.0082
749.00,0.0083
748.00,0.0083
747.00,0.0085
746.00,0.0087
745.00,0.0089
744.00,0.0091
743.00,0.0094
742.00,0.0097
741.00,0.0099
740.00,0.0101
739.00,0.0103
738.00,0.0106
737.00,0.0110
736.00,0.0115
735.00,0.0121
734.00,0.0127
733.00,0.0133
732.00,0.0139
731.00,0.0144
730.00,0.0148
729.00,0.0151
728.00,0.0153
727.00,0.0155
726.00,0.0158
725.00,0.0163
724.00,0.0168
723.00,0.0175
722.00,0.0181
721.00,0.0185
720.00,0.0183
719.00,0.0176
718.00,0.0165
717.00,0.0153
716.00,0.0142
715.00,0.0133
714.00,0.0127
713.00,0.0124
712.00,0.0122
711.00,0.0120
710.00,0.0118
709.00,0.0114
708.00,0.0110
707.00,0.0107
706.00,0.0105
705.00,0.0104
704.00,0.0104
703.00,0.0104
702.00,0.0104
701.00,0.0103
700.00,0.0101
699.00,0.0100
698.00,0.0098
697.00,0.0098
696.00,0.0098
695.00,0.0100
694.00,0.0102
693.00,0.0103
692.00,0.0104
691.00,0.0104
690.00,0.0103
689.00,0.0103
688.00,0.0104
687.00,0.0105
686.00,0.0105
685.00,0.0105
684.00,0.0104
683.00,0.0103
682.00,0.0102
681.00,0.0100
680.00,0.0098
679.00,0.0097
678.00,0.0098
677.00,0.0099
676.00,0.0101
675.00,0.0102
674.00,0.0103
673.00,0.0104
672.00,0.0104
671.00,0.0104
670.00,0.0105
669.00,0.0105
668.00,0.0104
667.00,0.0103
666.00,0.0101
665.00,0.0098
664.00,0.0096
663.00,0.0096
662.00,0.0096
661.00,0.0096
660.00,0.0096
659.00,0.0095
658.00,0.0092
657.00,0.0089
656.00,0.0087
655.00,0.0088
654.00,0.0090
653.00,0.0093
652.00,0.0094
651.00,0.0093
650.00,0.0090
649.00,0.0088
648.00,0.0088
647.00,0.0087
646.00,0.0087
645.00,0.0087
644.00,0.0088
643.00,0.0089
642.00,0.0089
641.00,0.0088
640.00,0.0087
639.00,0.0086
638.00,0.0084
637.00,0.0083
636.00,0.0083
635.00,0.0084
634.00,0.0085
633.00,0.0087
632.00,0.0089
631.00,0.0090
630.00,0.0091
629.00,0.0092
628.00,0.0093
627.00,0.0094
626.00,0.0094
625.00,0.0094
624.00,0.0095
623.00,0.0094
622.00,0.0092
621.00,0.0089
620.00,0.0087
619.00,0.0086
618.00,0.0087
617.00,0.0087
616.00,0.0087
615.00,0.0087
614.00,0.0087
613.00,0.0089
612.00,0.0089
611.00,0.0089
610.00,0.0087
609.00,0.0086
608.00,0.0085
607.00,0.0085
606.00,0.0085
605.00,0.0084
604.00,0.0084
603.00,0.0083
602.00,0.0082
601.00,0.0079
600.00,0.0077
599.00,0.0078
598.00,0.0082
597.00,0.0086
596.00,0.0090
595.00,0.0090
594.00,0.0089
593.00,0.0087
592.00,0.0085
591.00,0.0083
590.00,0.0081
589.00,0.0079
588.00,0.0079
587.00,0.0081
586.00,0.0083
585.00,0.0084
584.00,0.0084
583.00,0.0084
582.00,0.0085
581.00,0.0087
580.00,0.0089
579.00,0.0089
578.00,0.0088
577.00,0.0085
576.00,0.0084
575.00,0.0083
574.00,0.0082
573.00,0.0081
572.00,0.0081
571.00,0.0085
570.00,0.0090
569.00,0.0093
568.00,0.0094
567.00,0.0092
566.00,0.0091
565.00,0.0090
564.00,0.0089
563.00,0.0088
562.00,0.0088
561.00,0.0087
560.00,0.0087
559.00,0.0087
558.00,0.0088
557.00,0.0090
556.00,0.0092
555.00,0.0093
554.00,0.0092
553.00,0.0091
552.00,0.0088
551.00,0.0085
550.00,0.0084
549.00,0.0086
548.00,0.0089
547.00,0.0091
546.00,0.0091
545.00,0.0091
544.00,0.0093
543.00,0.0097
542.00,0.0102
541.00,0.0106
540.00,0.0110
539.00,0.0112
538.00,0.0113
537.00,0.0112
536.00,0.0112
535.00,0.0112
534.00,0.0115
533.00,0.0119
532.00,0.0123
531.00,0.0122
530.00,0.0116
529.00,0.0108
528.00,0.0104
527.00,0.0104
526.00,0.0107
525.00,0.0108
524.00,0.0106
523.00,0.0103
522.00,0.0097
521.00,0.0088
520.00,0.0081
519.00,0.0079
518.00,0.0080
517.00,0.0082
516.00,0.0081
515.00,0.0079
514.00,0.0079
513.00,0.0081
512.00,0.0084
511.00,0.0088
510.00,0.0091
509.00,0.0093
508.00,0.0093
507.00,0.0093
506.00,0.0093
505.00,0.0095
504.00,0.0097
503.00,0.0100
502.00,0.0101
501.00,0.0099
500.00,0.0097
499.00,0.0096
498.00,0.0095
497.00,0.0092
496.00,0.0087
495.00,0.0083
494.00,0.0084
493.00,0.0089
492.00,0.0094
491.00,0.0094
490.00,0.0093
489.00,0.0090
488.00,0.0087
487.00,0.0083
486.00,0.0080
485.00,0.0079
484.00,0.0080
483.00,0.0081
482.00,0.0081
481.00,0.0083
480.00,0.0085
479.00,0.0087
478.00,0.0091
477.00,0.0098
476.00,0.0109
475.00,0.0121
474.00,0.0125
473.00,0.0124
472.00,0.0120
471.00,0.0120
470.00,0.0123
469.00,0.0129
468.00,0.0138
467.00,0.0150
466.00,0.0163
465.00,0.0176
464.00,0.0187
463.00,0.0196
462.00,0.0200
461.00,0.0200
460.00,0.0198
459.00,0.0196
458.00,0.0195
457.00,0.0193
456.00,0.0189
455.00,0.0182
454.00,0.0174
453.00,0.0164
452.00,0.0155
451.00,0.0148
450.00,0.0142
