Created as New Dataset,Sample 039 By Administrator Date Wednesday, September 03 2025
cm-1,A
4000.00,0.0010
3999.00,0.0010
3998.00,0.0010
3997.00,0.0010
3996.00,0.0010
3995.00,0.0010
3994.00,0.0010
3993.00,0.0010
3992.00,0.0010
3991.00,0.0009
3990.00,0.0009
3989.00,0.0009
3988.00,0.0009
3987.00,0.0009
3986.00,0.0009
3985.00,0.0009
3984.00,0.0009
3983.00,0.0009
3982.00,0.0008
3981.00,0.0008
3980.00,0.0008
3979.00,0.0008
3978.00,0.0008
3977.00,0.0008
3976.00,0.0009
3975.00,0.0009
3974.00,0.0009
3973.00,0.0009
3972.00,0.0009
3971.00,0.0009
3970.00,0.0008
3969.00,0.0008
3968.00,0.0008
3967.00,0.0008
3966.00,0.0008
3965.00,0.0008
3964.00,0.0008
3963.00,0.0008
3962.00,0.0008
3961.00,0.0008
3960.00,0.0008
3959.00,0.0008
3958.00,0.0008
3957.00,0.0008
3956.00,0.0008
3955.00,0.0008
3954.00,0.0009
3953.00,0.0009
3952.00,0.0009
3951.00,0.0009
3950.00,0.0009
3949.00,0.0009
3948.00,0.0008
3947.00,0.0008
3946.00,0.0008
3945.00,0.0008
3944.00,0.0008
3943.00,0.0008
3942.00,0.0008
3941.00,0.0007
3940.00,0.0007
3939.00,0.0008
3938.00,0.0008
3937.00,0.0008
3936.00,0.0008
3935.00,0.0008
3934.00,0.0008
3933.00,0.0008
3932.00,0.0008
3931.00,0.0008
3930.00,0.0008
3929.00,0.0008
3928.00,0.0009
3927.00,0.0010
3926.00,0.0010
3925.00,0.0010
3924.00,0.0010
3923.00,0.0010
3922.00,0.0010
3921.00,0.0010
3920.00,0.0010
3919.00,0.0010
3918.00,0.0010
3917.00,0.0010
3916.00,0.0009
3915.00,0.0009
3914.00,0.0008
3913.00,0.0008
3912.00,0.0008
3911.00,0.0008
3910.00,0.0008
3909.00,0.0008
3908.00,0.0008
3907.00,0.0009
3906.00,0.0009
3905.00,0.0010
3904.00,0.0010
3903.00,0.0010
3902.00,0.0010
3901.00,0.0010
3900.00,0.0009
3899.00,0.0009
3898.00,0.0009
3897.00,0.0009
3896.00,0.0009
3895.00,0.0009
3894.00,0.0008
3893.00,0.0008
3892.00,0.0008
3891.00,0.0008
3890.00,0.0008
3889.00,0.0008
3888.00,0.0008
3887.00,0.0008
3886.00,0.0008
3885.00,0.0008
3884.00,0.0008
3883.00,0.0009
3882.00,0.0009
3881.00,0.0008
3880.00,0.0008
3879.00,0.0008
3878.00,0.0008
3877.00,0.0008
3876.00,0.0009
3875.00,0.0009
3874.00,0.0009
3873.00,0.0009
3872.00,0.0009
3871.00,0.0009
3870.00,0.0008
3869.00,0.0008
3868.00,0.0008
3867.00,0.0008
3866.00,0.0008
3865.00,0.0008
3864.00,0.0007
3863.00,0.0007
3862.00,0.0007
3861.00,0.0007
3860.00,0.0007
3859.00,0.0007
3858.00,0.0007
3857.00,0.0007
3856.00,0.0008
3855.00,0.0008
3854.00,0.0008
3853.00,0.0007
3852.00,0.0008
3851.00,0.0008
3850.00,0.0008
3849.00,0.0008
3848.00,0.0008
3847.00,0.0008
3846.00,0.0008
3845.00,0.0008
3844.00,0.0008
3843.00,0.0008
3842.00,0.0008
3841.00,0.0008
3840.00,0.0008
3839.00,0.0008
3838.00,0.0008
3837.00,0.0008
3836.00,0.0008
3835.00,0.0007
3834.00,0.0007
3833.00,0.0007
3832.00,0.0007
3831.00,0.0007
3830.00,0.0007
3829.00,0.0007
3828.00,0.0007
3827.00,0.0007
3826.00,0.0008
3825.00,0.0008
3824.00,0.0008
3823.00,0.0008
3822.00,0.0008
3821.00,0.0007
3820.00,0.0007
3819.00,0.0008
3818.00,0.0008
3817.00,0.0008
3816.00,0.0008
3815.00,0.0008
3814.00,0.0008
3813.00,0.0008
3812.00,0.0007
3811.00,0.0007
3810.00,0.0007
3809.00,0.0007
3808.00,0.0007
3807.00,0.0007
3806.00,0.0007
3805.00,0.0008
3804.00,0.0008
3803.00,0.0008
3802.00,0.0008
3801.00,0.0009
3800.00,0.0009
3799.00,0.0009
3798.00,0.0008
3797.00,0.0008
3796.00,0.0007
3795.00,0.0007
3794.00,0.0008
3793.00,0.0008
3792.00,0.0008
3791.00,0.0008
3790.00,0.0008
3789.00,0.0007
3788.00,0.0007
3787.00,0.0007
3786.00,0.0007
3785.00,0.0007
3784.00,0.0008
3783.00,0.0008
3782.00,0.0008
3781.00,0.0008
3780.00,0.0008
3779.00,0.0008
3778.00,0.0008
3777.00,0.0009
3776.00,0.0009
3775.00,0.0009
3774.00,0.0009
3773.00,0.0009
3772.00,0.0008
3771.00,0.0008
3770.00,0.0008
3769.00,0.0008
3768.00,0.0009
3767.00,0.0009
3766.00,0.0009
3765.00,0.0008
3764.00,0.0008
3763.00,0.0008
3762.00,0.0008
3761.00,0.0008
3760.00,0.0008
3759.00,0.0009
3758.00,0.0009
3757.00,0.0009
3756.00,0.0009
3755.00,0.0009
3754.00,0.0009
3753.00,0.0009
3752.00,0.0008
3751.00,0.0008
3750.00,0.0008
3749.00,0.0008
3748.00,0.0009
3747.00,0.0009
3746.00,0.0009
3745.00,0.0010
3744.00,0.0010
3743.00,0.0009
3742.00,0.0009
3741.00,0.0008
3740.00,0.0008
3739.00,0.0008
3738.00,0.0008
3737.00,0.0009
3736.00,0.0009
3735.00,0.0010
3734.00,0.0010
3733.00,0.0010
3732.00,0.0009
3731.00,0.0009
3730.00,0.0008
3729.00,0.0008
3728.00,0.0008
3727.00,0.0008
3726.00,0.0008
3725.00,0.0007
3724.00,0.0007
3723.00,0.0007
3722.00,0.0007
3721.00,0.0007
3720.00,0.0007
3719.00,0.0007
3718.00,0.0007
3717.00,0.0007
3716.00,0.0007
3715.00,0.0007
3714.00,0.0007
3713.00,0.0007
3712.00,0.0008
3711.00,0.0008
3710.00,0.0009
3709.00,0.0009
3708.00,0.0009
3707.00,0.0009
3706.00,0.0009
3705.00,0.0008
3704.00,0.0008
3703.00,0.0008
3702.00,0.0008
3701.00,0.0008
3700.00,0.0008
3699.00,0.0007
3698.00,0.0007
3697.00,0.0007
3696.00,0.0006
3695.00,0.0006
3694.00,0.0006
3693.00,0.0006
3692.00,0.0006
3691.00,0.0006
3690.00,0.0006
3689.00,0.0006
3688.00,0.0007
3687.00,0.0007
3686.00,0.0007
3685.00,0.0007
3684.00,0.0007
3683.00,0.0006
3682.00,0.0006
3681.00,0.0005
3680.00,0.0005
3679.00,0.0006
3678.00,0.0006
3677.00,0.0006
3676.00,0.0006
3675.00,0.0005
3674.00,0.0005
3673.00,0.0005
3672.00,0.0004
3671.00,0.0004
3670.00,0.0004
3669.00,0.0003
3668.00,0.0003
3667.00,0.0003
3666.00,0.0003
3665.00,0.0002
3664.00,0.0002
3663.00,0.0002
3662.00,0.0002
3661.00,0.0002
3660.00,0.0002
3659.00,0.0003
3658.00,0.0003
3657.00,0.0003
3656.00,0.0003
3655.00,0.0003
3654.00,0.0004
3653.00,0.0004
3652.00,0.0005
3651.00,0.0005
3650.00,0.0005
3649.00,0.0005
3648.00,0.0006
3647.00,0.0006
3646.00,0.0006
3645.00,0.0006
3644.00,0.0006
3643.00,0.0006
3642.00,0.0006
3641.00,0.0006
3640.00,0.0006
3639.00,0.0007
3638.00,0.0007
3637.00,0.0008
3636.00,0.0009
3635.00,0.0010
3634.00,0.0011
3633.00,0.0012
3632.00,0.0013
3631.00,0.0013
3630.00,0.0013
3629.00,0.0014
3628.00,0.0014
3627.00,0.0015
3626.00,0.0015
3625.00,0.0015
3624.00,0.0014
3623.00,0.0014
3622.00,0.0014
3621.00,0.0014
3620.00,0.0015
3619.00,0.0015
3618.00,0.0015
3617.00,0.0016
3616.00,0.0016
3615.00,0.0017
3614.00,0.0017
3613.00,0.0018
3612.00,0.0018
3611.00,0.0018
3610.00,0.0019
3609.00,0.0019
3608.00,0.0019
3607.00,0.0019
3606.00,0.0019
3605.00,0.0019
3604.00,0.0020
3603.00,0.0020
3602.00,0.0021
3601.00,0.0021
3600.00,0.0022
3599.00,0.0022
3598.00,0.0023
3597.00,0.0023
3596.00,0.0024
3595.00,0.0024
3594.00,0.0024
3593.00,0.0024
3592.00,0.0025
3591.00,0.0025
3590.00,0.0026
3589.00,0.0026
3588.00,0.0027
3587.00,0.0027
3586.00,0.0028
3585.00,0.0028
3584.00,0.0028
3583.00,0.0028
3582.00,0.0028
3581.00,0.0028
3580.00,0.0028
3579.00,0.0028
3578.00,0.0028
3577.00,0.0028
3576.00,0.0029
3575.00,0.0029
3574.00,0.0029
3573.00,0.0030
3572.00,0.0030
3571.00,0.0031
3570.00,0.0032
3569.00,0.0033
3568.00,0.0033
3567.00,0.0033
3566.00,0.0033
3565.00,0.0034
3564.00,0.0034
3563.00,0.0034
3562.00,0.0035
3561.00,0.0035
3560.00,0.0036
3559.00,0.0036
3558.00,0.0036
3557.00,0.0037
3556.00,0.0037
3555.00,0.0037
3554.00,0.0037
3553.00,0.0038
3552.00,0.0038
3551.00,0.0039
3550.00,0.0040
3549.00,0.0040
3548.00,0.0041
3547.00,0.0041
3546.00,0.0041
3545.00,0.0041
3544.00,0.0041
3543.00,0.0041
3542.00,0.0042
3541.00,0.0042
3540.00,0.0043
3539.00,0.0044
3538.00,0.0045
3537.00,0.0045
3536.00,0.0046
3535.00,0.0046
3534.00,0.0046
3533.00,0.0046
3532.00,0.0046
3531.00,0.0047
3530.00,0.0047
3529.00,0.0048
3528.00,0.0049
3527.00,0.0050
3526.00,0.0050
3525.00,0.0051
3524.00,0.0051
3523.00,0.0051
3522.00,0.0052
3521.00,0.0052
3520.00,0.0052
3519.00,0.0052
3518.00,0.0053
3517.00,0.0053
3516.00,0.0054
3515.00,0.0054
3514.00,0.0054
3513.00,0.0055
3512.00,0.0055
3511.00,0.0055
3510.00,0.0056
3509.00,0.0056
3508.00,0.0057
3507.00,0.0057
3506.00,0.0058
3505.00,0.0059
3504.00,0.0059
3503.00,0.0060
3502.00,0.0060
3501.00,0.0060
3500.00,0.0060
3499.00,0.0061
3498.00,0.0061
3497.00,0.0062
3496.00,0.0062
3495.00,0.0063
3494.00,0.0063
3493.00,0.0063
3492.00,0.0064
3491.00,0.0064
3490.00,0.0065
3489.00,0.0065
3488.00,0.0066
3487.00,0.0066
3486.00,0.0067
3485.00,0.0068
3484.00,0.0068
3483.00,0.0068
3482.00,0.0069
3481.00,0.0069
3480.00,0.0069
3479.00,0.0069
3478.00,0.0069
3477.00,0.0069
3476.00,0.0069
3475.00,0.0070
3474.00,0.0070
3473.00,0.0071
3472.00,0.0072
3471.00,0.0072
3470.00,0.0073
3469.00,0.0073
3468.00,0.0074
3467.00,0.0074
3466.00,0.0075
3465.00,0.0075
3464.00,0.0075
3463.00,0.0075
3462.00,0.0076
3461.00,0.0076
3460.00,0.0076
3459.00,0.0076
3458.00,0.0077
3457.00,0.0077
3456.00,0.0078
3455.00,0.0078
3454.00,0.0079
3453.00,0.0079
3452.00,0.0079
3451.00,0.0079
3450.00,0.0080
3449.00,0.0080
3448.00,0.0081
3447.00,0.0082
3446.00,0.0082
3445.00,0.0082
3444.00,0.0083
3443.00,0.0083
3442.00,0.0083
3441.00,0.0083
3440.00,0.0084
3439.00,0.0084
3438.00,0.0085
3437.00,0.0086
3436.00,0.0086
3435.00,0.0086
3434.00,0.0087
3433.00,0.0087
3432.00,0.0088
3431.00,0.0088
3430.00,0.0088
3429.00,0.0088
3428.00,0.0089
3427.00,0.0089
3426.00,0.0090
3425.00,0.0090
3424.00,0.0091
3423.00,0.0091
3422.00,0.0091
3421.00,0.0091
3420.00,0.0091
3419.00,0.0091
3418.00,0.0092
3417.00,0.0092
3416.00,0.0092
3415.00,0.0092
3414.00,0.0093
3413.00,0.0093
3412.00,0.0094
3411.00,0.0094
3410.00,0.0094
3409.00,0.0095
3408.00,0.0095
3407.00,0.0095
3406.00,0.0095
3405.00,0.0096
3404.00,0.0096
3403.00,0.0096
3402.00,0.0097
3401.00,0.0097
3400.00,0.0097
3399.00,0.0097
3398.00,0.0098
3397.00,0.0098
3396.00,0.0098
3395.00,0.0099
3394.00,0.0099
3393.00,0.0099
3392.00,0.0099
3391.00,0.0099
3390.00,0.0099
3389.00,0.0099
3388.00,0.0099
3387.00,0.0099
3386.00,0.0099
3385.00,0.0100
3384.00,0.0100
3383.00,0.0100
3382.00,0.0100
3381.00,0.0100
3380.00,0.0100
3379.00,0.0100
3378.00,0.0100
3377.00,0.0101
3376.00,0.0101
3375.00,0.0101
3374.00,0.0101
3373.00,0.0101
3372.00,0.0101
3371.00,0.0101
3370.00,0.0101
3369.00,0.0102
3368.00,0.0102
3367.00,0.0103
3366.00,0.0103
3365.00,0.0103
3364.00,0.0102
3363.00,0.0102
3362.00,0.0101
3361.00,0.0102
3360.00,0.0102
3359.00,0.0102
3358.00,0.0103
3357.00,0.0103
3356.00,0.0103
3355.00,0.0103
3354.00,0.0103
3353.00,0.0104
3352.00,0.0104
3351.00,0.0104
3350.00,0.0104
3349.00,0.0105
3348.00,0.0105
3347.00,0.0105
3346.00,0.0105
3345.00,0.0105
3344.00,0.0105
3343.00,0.0104
3342.00,0.0104
3341.00,0.0104
3340.00,0.0104
3339.00,0.0104
3338.00,0.0104
3337.00,0.0104
3336.00,0.0104
3335.00,0.0104
3334.00,0.0104
3333.00,0.0103
3332.00,0.0103
3331.00,0.0103
3330.00,0.0103
3329.00,0.0103
3328.00,0.0103
3327.00,0.0103
3326.00,0.0103
3325.00,0.0103
3324.00,0.0103
3323.00,0.0103
3322.00,0.0103
3321.00,0.0103
3320.00,0.0103
3319.00,0.0102
3318.00,0.0102
3317.00,0.0102
3316.00,0.0102
3315.00,0.0103
3314.00,0.0103
3313.00,0.0103
3312.00,0.0103
3311.00,0.0103
3310.00,0.0103
3309.00,0.0103
3308.00,0.0103
3307.00,0.0103
3306.00,0.0103
3305.00,0.0103
3304.00,0.0103
3303.00,0.0103
3302.00,0.0103
3301.00,0.0103
3300.00,0.0102
3299.00,0.0102
3298.00,0.0102
3297.00,0.0102
3296.00,0.0101
3295.00,0.0101
3294.00,0.0101
3293.00,0.0101
3292.00,0.0100
3291.00,0.0100
3290.00,0.0099
3289.00,0.0099
3288.00,0.0098
3287.00,0.0098
3286.00,0.0098
3285.00,0.0098
3284.00,0.0097
3283.00,0.0097
3282.00,0.0096
3281.00,0.0096
3280.00,0.0096
3279.00,0.0095
3278.00,0.0095
3277.00,0.0095
3276.00,0.0094
3275.00,0.0094
3274.00,0.0094
3273.00,0.0094
3272.00,0.0093
3271.00,0.0093
3270.00,0.0093
3269.00,0.0092
3268.00,0.0092
3267.00,0.0091
3266.00,0.0091
3265.00,0.0091
3264.00,0.0091
3263.00,0.0090
3262.00,0.0089
3261.00,0.0089
3260.00,0.0088
3259.00,0.0088
3258.00,0.0088
3257.00,0.0087
3256.00,0.0087
3255.00,0.0087
3254.00,0.0086
3253.00,0.0086
3252.00,0.0085
3251.00,0.0085
3250.00,0.0084
3249.00,0.0084
3248.00,0.0084
3247.00,0.0084
3246.00,0.0084
3245.00,0.0084
3244.00,0.0084
3243.00,0.0083
3242.00,0.0083
3241.00,0.0083
3240.00,0.0082
3239.00,0.0082
3238.00,0.0082
3237.00,0.0082
3236.00,0.0082
3235.00,0.0081
3234.00,0.0081
3233.00,0.0080
3232.00,0.0080
3231.00,0.0080
3230.00,0.0080
3229.00,0.0080
3228.00,0.0081
3227.00,0.0081
3226.00,0.0081
3225.00,0.0081
3224.00,0.0081
3223.00,0.0081
3222.00,0.0081
3221.00,0.0081
3220.00,0.0081
3219.00,0.0081
3218.00,0.0080
3217.00,0.0080
3216.00,0.0080
3215.00,0.0080
3214.00,0.0080
3213.00,0.0080
3212.00,0.0081
3211.00,0.0081
3210.00,0.0081
3209.00,0.0081
3208.00,0.0080
3207.00,0.0080
3206.00,0.0080
3205.00,0.0080
3204.00,0.0080
3203.00,0.0080
3202.00,0.0080
3201.00,0.0080
3200.00,0.0080
3199.00,0.0081
3198.00,0.0080
3197.00,0.0080
3196.00,0.0079
3195.00,0.0079
3194.00,0.0078
3193.00,0.0078
3192.00,0.0078
3191.00,0.0078
3190.00,0.0078
3189.00,0.0078
3188.00,0.0077
3187.00,0.0077
3186.00,0.0077
3185.00,0.0077
3184.00,0.0077
3183.00,0.0077
3182.00,0.0077
3181.00,0.0076
3180.00,0.0075
3179.00,0.0074
3178.00,0.0074
3177.00,0.0073
3176.00,0.0073
3175.00,0.0073
3174.00,0.0073
3173.00,0.0073
3172.00,0.0073
3171.00,0.0073
3170.00,0.0073
3169.00,0.0073
3168.00,0.0072
3167.00,0.0072
3166.00,0.0071
3165.00,0.0071
3164.00,0.0070
3163.00,0.0070
3162.00,0.0070
3161.00,0.0070
3160.00,0.0069
3159.00,0.0069
3158.00,0.0069
3157.00,0.0069
3156.00,0.0069
3155.00,0.0068
3154.00,0.0067
3153.00,0.0067
3152.00,0.0067
3151.00,0.0067
3150.00,0.0067
3149.00,0.0067
3148.00,0.0067
3147.00,0.0067
3146.00,0.0066
3145.00,0.0066
3144.00,0.0065
3143.00,0.0065
3142.00,0.0065
3141.00,0.0065
3140.00,0.0065
3139.00,0.0064
3138.00,0.0064
3137.00,0.0064
3136.00,0.0064
3135.00,0.0064
3134.00,0.0063
3133.00,0.0063
3132.00,0.0062
3131.00,0.0062
3130.00,0.0062
3129.00,0.0062
3128.00,0.0061
3127.00,0.0061
3126.00,0.0060
3125.00,0.0059
3124.00,0.0059
3123.00,0.0059
3122.00,0.0059
3121.00,0.0059
3120.00,0.0059
3119.00,0.0059
3118.00,0.0059
3117.00,0.0058
3116.00,0.0058
3115.00,0.0057
3114.00,0.0057
3113.00,0.0057
3112.00,0.0056
3111.00,0.0056
3110.00,0.0056
3109.00,0.0056
3108.00,0.0055
3107.00,0.0055
3106.00,0.0055
3105.00,0.0055
3104.00,0.0054
3103.00,0.0054
3102.00,0.0054
3101.00,0.0053
3100.00,0.0053
3099.00,0.0053
3098.00,0.0054
3097.00,0.0054
3096.00,0.0054
3095.00,0.0053
3094.00,0.0053
3093.00,0.0052
3092.00,0.0052
3091.00,0.0052
3090.00,0.0052
3089.00,0.0052
3088.00,0.0052
3087.00,0.0052
3086.00,0.0052
3085.00,0.0052
3084.00,0.0052
3083.00,0.0052
3082.00,0.0052
3081.00,0.0051
3080.00,0.0051
3079.00,0.0051
3078.00,0.0051
3077.00,0.0051
3076.00,0.0051
3075.00,0.0051
3074.00,0.0051
3073.00,0.0052
3072.00,0.0052
3071.00,0.0052
3070.00,0.0052
3069.00,0.0052
3068.00,0.0053
3067.00,0.0053
3066.00,0.0053
3065.00,0.0053
3064.00,0.0053
3063.00,0.0053
3062.00,0.0053
3061.00,0.0053
3060.00,0.0054
3059.00,0.0054
3058.00,0.0054
3057.00,0.0054
3056.00,0.0054
3055.00,0.0054
3054.00,0.0054
3053.00,0.0054
3052.00,0.0054
3051.00,0.0054
3050.00,0.0054
3049.00,0.0054
3048.00,0.0055
3047.00,0.0055
3046.00,0.0055
3045.00,0.0055
3044.00,0.0055
3043.00,0.0055
3042.00,0.0055
3041.00,0.0056
3040.00,0.0056
3039.00,0.0056
3038.00,0.0057
3037.00,0.0057
3036.00,0.0058
3035.00,0.0058
3034.00,0.0059
3033.00,0.0059
3032.00,0.0060
3031.00,0.0060
3030.00,0.0060
3029.00,0.0060
3028.00,0.0060
3027.00,0.0061
3026.00,0.0061
3025.00,0.0061
3024.00,0.0061
3023.00,0.0061
3022.00,0.0061
3021.00,0.0061
3020.00,0.0062
3019.00,0.0062
3018.00,0.0062
3017.00,0.0063
3016.00,0.0063
3015.00,0.0063
3014.00,0.0063
3013.00,0.0063
3012.00,0.0062
3011.00,0.0062
3010.00,0.0061
3009.00,0.0061
3008.00,0.0060
3007.00,0.0060
3006.00,0.0059
3005.00,0.0058
3004.00,0.0058
3003.00,0.0057
3002.00,0.0058
3001.00,0.0058
3000.00,0.0058
2999.00,0.0059
2998.00,0.0060
2997.00,0.0062
2996.00,0.0064
2995.00,0.0066
2994.00,0.0068
2993.00,0.0071
2992.00,0.0075
2991.00,0.0079
2990.00,0.0083
2989.00,0.0089
2988.00,0.0094
2987.00,0.0099
2986.00,0.0104
2985.00,0.0108
2984.00,0.0111
2983.00,0.0117
2982.00,0.0126
2981.00,0.0140
2980.00,0.0159
2979.00,0.0181
2978.00,0.0206
2977.00,0.0233
2976.00,0.0263
2975.00,0.0294
2974.00,0.0329
2973.00,0.0368
2972.00,0.0414
2971.00,0.0466
2970.00,0.0525
2969.00,0.0589
2968.00,0.0658
2967.00,0.0729
2966.00,0.0803
2965.00,0.0876
2964.00,0.0946
2963.00,0.1012
2962.00,0.1070
2961.00,0.1120
2960.00,0.1165
2959.00,0.1206
2958.00,0.1248
2957.00,0.1295
2956.00,0.1349
2955.00,0.1412
2954.00,0.1480
2953.00,0.1551
2952.00,0.1614
2951.00,0.1662
2950.00,0.1684
2949.00,0.1674
2948.00,0.1629
2947.00,0.1554
2946.00,0.1457
2945.00,0.1352
2944.00,0.1251
2943.00,0.1164
2942.00,0.1098
2941.00,0.1055
2940.00,0.1033
2939.00,0.1031
2938.00,0.1047
2937.00,0.1080
2936.00,0.1127
2935.00,0.1188
2934.00,0.1261
2933.00,0.1346
2932.00,0.1440
2931.00,0.1543
2930.00,0.1652
2929.00,0.1764
2928.00,0.1875
2927.00,0.1984
2926.00,0.2090
2925.00,0.2191
2924.00,0.2289
2923.00,0.2385
2922.00,0.2480
2921.00,0.2572
2920.00,0.2654
2919.00,0.2718
2918.00,0.2755
2917.00,0.2755
2916.00,0.2715
2915.00,0.2640
2914.00,0.2540
2913.00,0.2426
2912.00,0.2310
2911.00,0.2200
2910.00,0.2098
2909.00,0.2006
2908.00,0.1923
2907.00,0.1845
2906.00,0.1771
2905.00,0.1700
2904.00,0.1630
2903.00,0.1562
2902.00,0.1496
2901.00,0.1433
2900.00,0.1373
2899.00,0.1316
2898.00,0.1263
2897.00,0.1214
2896.00,0.1170
2895.00,0.1131
2894.00,0.1098
2893.00,0.1070
2892.00,0.1048
2891.00,0.1030
2890.00,0.1018
2889.00,0.1011
2888.00,0.1007
2887.00,0.1006
2886.00,0.1009
2885.00,0.1015
2884.00,0.1027
2883.00,0.1044
2882.00,0.1066
2881.00,0.1092
2880.00,0.1120
2879.00,0.1145
2878.00,0.1164
2877.00,0.1174
2876.00,0.1176
2875.00,0.1173
2874.00,0.1168
2873.00,0.1168
2872.00,0.1173
2871.00,0.1185
2870.00,0.1201
2869.00,0.1218
2868.00,0.1230
2867.00,0.1229
2866.00,0.1211
2865.00,0.1173
2864.00,0.1118
2863.00,0.1054
2862.00,0.0990
2861.00,0.0934
2860.00,0.0892
2859.00,0.0864
2858.00,0.0851
2857.00,0.0848
2856.00,0.0854
2855.00,0.0866
2854.00,0.0882
2853.00,0.0899
2852.00,0.0915
2851.00,0.0926
2850.00,0.0930
2849.00,0.0928
2848.00,0.0921
2847.00,0.0917
2846.00,0.0921
2845.00,0.0935
2844.00,0.0961
2843.00,0.0997
2842.00,0.1038
2841.00,0.1080
2840.00,0.1115
2839.00,0.1135
2838.00,0.1134
2837.00,0.1107
2836.00,0.1053
2835.00,0.0976
2834.00,0.0883
2833.00,0.0785
2832.00,0.0690
2831.00,0.0605
2830.00,0.0532
2829.00,0.0472
2828.00,0.0424
2827.00,0.0384
2826.00,0.0352
2825.00,0.0326
2824.00,0.0304
2823.00,0.0285
2822.00,0.0269
2821.00,0.0255
2820.00,0.0243
2819.00,0.0233
2818.00,0.0224
2817.00,0.0216
2816.00,0.0209
2815.00,0.0202
2814.00,0.0196
2813.00,0.0191
2812.00,0.0185
2811.00,0.0180
2810.00,0.0174
2809.00,0.0169
2808.00,0.0163
2807.00,0.0157
2806.00,0.0151
2805.00,0.0145
2804.00,0.0139
2803.00,0.0133
2802.00,0.0128
2801.00,0.0124
2800.00,0.0120
2799.00,0.0116
2798.00,0.0114
2797.00,0.0111
2796.00,0.0109
2795.00,0.0106
2794.00,0.0104
2793.00,0.0101
2792.00,0.0098
2791.00,0.0096
2790.00,0.0093
2789.00,0.0090
2788.00,0.0088
2787.00,0.0085
2786.00,0.0083
2785.00,0.0080
2784.00,0.0078
2783.00,0.0076
2782.00,0.0074
2781.00,0.0072
2780.00,0.0071
2779.00,0.0069
2778.00,0.0068
2777.00,0.0067
2776.00,0.0066
2775.00,0.0065
2774.00,0.0064
2773.00,0.0063
2772.00,0.0063
2771.00,0.0062
2770.00,0.0062
2769.00,0.0062
2768.00,0.0061
2767.00,0.0061
2766.00,0.0061
2765.00,0.0060
2764.00,0.0060
2763.00,0.0059
2762.00,0.0059
2761.00,0.0058
2760.00,0.0057
2759.00,0.0057
2758.00,0.0057
2757.00,0.0057
2756.00,0.0057
2755.00,0.0057
2754.00,0.0056
2753.00,0.0057
2752.00,0.0057
2751.00,0.0057
2750.00,0.0056
2749.00,0.0056
2748.00,0.0056
2747.00,0.0056
2746.00,0.0057
2745.00,0.0057
2744.00,0.0057
2743.00,0.0058
2742.00,0.0059
2741.00,0.0060
2740.00,0.0061
2739.00,0.0062
2738.00,0.0063
2737.00,0.0064
2736.00,0.0066
2735.00,0.0067
2734.00,0.0068
2733.00,0.0069
2732.00,0.0070
2731.00,0.0072
2730.00,0.0074
2729.00,0.0076
2728.00,0.0079
2727.00,0.0082
2726.00,0.0084
2725.00,0.0087
2724.00,0.0088
2723.00,0.0089
2722.00,0.0088
2721.00,0.0086
2720.00,0.0083
2719.00,0.0080
2718.00,0.0077
2717.00,0.0074
2716.00,0.0071
2715.00,0.0069
2714.00,0.0067
2713.00,0.0065
2712.00,0.0063
2711.00,0.0061
2710.00,0.0060
2709.00,0.0058
2708.00,0.0057
2707.00,0.0055
2706.00,0.0054
2705.00,0.0053
2704.00,0.0052
2703.00,0.0051
2702.00,0.0050
2701.00,0.0050
2700.00,0.0049
2699.00,0.0049
2698.00,0.0049
2697.00,0.0048
2696.00,0.0048
2695.00,0.0047
2694.00,0.0047
2693.00,0.0047
2692.00,0.0047
2691.00,0.0048
2690.00,0.0048
2689.00,0.0048
2688.00,0.0047
2687.00,0.0047
2686.00,0.0047
2685.00,0.0047
2684.00,0.0047
2683.00,0.0047
2682.00,0.0048
2681.00,0.0048
2680.00,0.0048
2679.00,0.0047
2678.00,0.0047
2677.00,0.0047
2676.00,0.0047
2675.00,0.0047
2674.00,0.0047
2673.00,0.0047
2672.00,0.0046
2671.00,0.0046
2670.00,0.0045
2669.00,0.0045
2668.00,0.0045
2667.00,0.0046
2666.00,0.0047
2665.00,0.0048
2664.00,0.0048
2663.00,0.0049
2662.00,0.0049
2661.00,0.0050
2660.00,0.0050
2659.00,0.0050
2658.00,0.0050
2657.00,0.0050
2656.00,0.0049
2655.00,0.0049
2654.00,0.0048
2653.00,0.0048
2652.00,0.0047
2651.00,0.0046
2650.00,0.0046
2649.00,0.0045
2648.00,0.0045
2647.00,0.0044
2646.00,0.0044
2645.00,0.0044
2644.00,0.0043
2643.00,0.0043
2642.00,0.0043
2641.00,0.0042
2640.00,0.0042
2639.00,0.0041
2638.00,0.0040
2637.00,0.0040
2636.00,0.0040
2635.00,0.0040
2634.00,0.0040
2633.00,0.0041
2632.00,0.0041
2631.00,0.0041
2630.00,0.0041
2629.00,0.0041
2628.00,0.0041
2627.00,0.0041
2626.00,0.0041
2625.00,0.0041
2624.00,0.0041
2623.00,0.0041
2622.00,0.0041
2621.00,0.0042
2620.00,0.0042
2619.00,0.0042
2618.00,0.0042
2617.00,0.0042
2616.00,0.0042
2615.00,0.0042
2614.00,0.0042
2613.00,0.0041
2612.00,0.0041
2611.00,0.0040
2610.00,0.0039
2609.00,0.0039
2608.00,0.0038
2607.00,0.0037
2606.00,0.0036
2605.00,0.0035
2604.00,0.0035
2603.00,0.0035
2602.00,0.0034
2601.00,0.0034
2600.00,0.0034
2599.00,0.0034
2598.00,0.0034
2597.00,0.0034
2596.00,0.0033
2595.00,0.0033
2594.00,0.0034
2593.00,0.0034
2592.00,0.0036
2591.00,0.0036
2590.00,0.0037
2589.00,0.0037
2588.00,0.0038
2587.00,0.0038
2586.00,0.0039
2585.00,0.0039
2584.00,0.0040
2583.00,0.0041
2582.00,0.0041
2581.00,0.0041
2580.00,0.0040
2579.00,0.0038
2578.00,0.0037
2577.00,0.0036
2576.00,0.0035
2575.00,0.0035
2574.00,0.0034
2573.00,0.0033
2572.00,0.0032
2571.00,0.0031
2570.00,0.0030
2569.00,0.0030
2568.00,0.0029
2567.00,0.0029
2566.00,0.0028
2565.00,0.0027
2564.00,0.0026
2563.00,0.0025
2562.00,0.0025
2561.00,0.0024
2560.00,0.0024
2559.00,0.0024
2558.00,0.0024
2557.00,0.0024
2556.00,0.0024
2555.00,0.0024
2554.00,0.0024
2553.00,0.0024
2552.00,0.0024
2551.00,0.0023
2550.00,0.0022
2549.00,0.0022
2548.00,0.0021
2547.00,0.0020
2546.00,0.0020
2545.00,0.0020
2544.00,0.0020
2543.00,0.0020
2542.00,0.0021
2541.00,0.0020
2540.00,0.0020
2539.00,0.0020
2538.00,0.0020
2537.00,0.0020
2536.00,0.0020
2535.00,0.0020
2534.00,0.0019
2533.00,0.0019
2532.00,0.0018
2531.00,0.0018
2530.00,0.0018
2529.00,0.0017
2528.00,0.0017
2527.00,0.0017
2526.00,0.0016
2525.00,0.0016
2524.00,0.0016
2523.00,0.0015
2522.00,0.0015
2521.00,0.0016
2520.00,0.0016
2519.00,0.0016
2518.00,0.0016
2517.00,0.0016
2516.00,0.0016
2515.00,0.0015
2514.00,0.0015
2513.00,0.0014
2512.00,0.0014
2511.00,0.0014
2510.00,0.0014
2509.00,0.0014
2508.00,0.0014
2507.00,0.0013
2506.00,0.0013
2505.00,0.0012
2504.00,0.0012
2503.00,0.0012
2502.00,0.0012
2501.00,0.0012
2500.00,0.0012
2499.00,0.0012
2498.00,0.0013
2497.00,0.0014
2496.00,0.0014
2495.00,0.0014
2494.00,0.0014
2493.00,0.0013
2492.00,0.0013
2491.00,0.0013
2490.00,0.0013
2489.00,0.0014
2488.00,0.0014
2487.00,0.0013
2486.00,0.0013
2485.00,0.0012
2484.00,0.0012
2483.00,0.0012
2482.00,0.0013
2481.00,0.0013
2480.00,0.0012
2479.00,0.0012
2478.00,0.0012
2477.00,0.0013
2476.00,0.0013
2475.00,0.0013
2474.00,0.0013
2473.00,0.0012
2472.00,0.0012
2471.00,0.0012
2470.00,0.0012
2469.00,0.0012
2468.00,0.0012
2467.00,0.0012
2466.00,0.0012
2465.00,0.0012
2464.00,0.0012
2463.00,0.0012
2462.00,0.0013
2461.00,0.0013
2460.00,0.0012
2459.00,0.0012
2458.00,0.0012
2457.00,0.0013
2456.00,0.0013
2455.00,0.0013
2454.00,0.0013
2453.00,0.0012
2452.00,0.0012
2451.00,0.0012
2450.00,0.0013
2449.00,0.0013
2448.00,0.0014
2447.00,0.0014
2446.00,0.0014
2445.00,0.0013
2444.00,0.0012
2443.00,0.0011
2442.00,0.0011
2441.00,0.0011
2440.00,0.0011
2439.00,0.0011
2438.00,0.0011
2437.00,0.0011
2436.00,0.0011
2435.00,0.0012
2434.00,0.0012
2433.00,0.0013
2432.00,0.0013
2431.00,0.0014
2430.00,0.0015
2429.00,0.0015
2428.00,0.0015
2427.00,0.0015
2426.00,0.0014
2425.00,0.0014
2424.00,0.0014
2423.00,0.0013
2422.00,0.0013
2421.00,0.0012
2420.00,0.0012
2419.00,0.0012
2418.00,0.0012
2417.00,0.0012
2416.00,0.0013
2415.00,0.0013
2414.00,0.0013
2413.00,0.0013
2412.00,0.0013
2411.00,0.0013
2410.00,0.0013
2409.00,0.0012
2408.00,0.0012
2407.00,0.0012
2406.00,0.0011
2405.00,0.0011
2404.00,0.0010
2403.00,0.0010
2402.00,0.0010
2401.00,0.0010
2400.00,0.0010
2399.00,0.0010
2398.00,0.0010
2397.00,0.0010
2396.00,0.0010
2395.00,0.0010
2394.00,0.0010
2393.00,0.0010
2392.00,0.0010
2391.00,0.0010
2390.00,0.0010
2389.00,0.0010
2388.00,0.0010
2387.00,0.0009
2386.00,0.0009
2385.00,0.0008
2384.00,0.0008
2383.00,0.0007
2382.00,0.0006
2381.00,0.0005
2380.00,0.0005
2379.00,0.0005
2378.00,0.0006
2377.00,0.0006
2376.00,0.0007
2375.00,0.0007
2374.00,0.0007
2373.00,0.0007
2372.00,0.0007
2371.00,0.0007
2370.00,0.0007
2369.00,0.0007
2368.00,0.0007
2367.00,0.0007
2366.00,0.0006
2365.00,0.0006
2364.00,0.0006
2363.00,0.0006
2362.00,0.0006
2361.00,0.0007
2360.00,0.0007
2359.00,0.0008
2358.00,0.0008
2357.00,0.0008
2356.00,0.0008
2355.00,0.0008
2354.00,0.0008
2353.00,0.0008
2352.00,0.0008
2351.00,0.0008
2350.00,0.0008
2349.00,0.0009
2348.00,0.0009
2347.00,0.0009
2346.00,0.0009
2345.00,0.0009
2344.00,0.0010
2343.00,0.0010
2342.00,0.0010
2341.00,0.0011
2340.00,0.0011
2339.00,0.0011
2338.00,0.0011
2337.00,0.0011
2336.00,0.0011
2335.00,0.0011
2334.00,0.0011
2333.00,0.0011
2332.00,0.0012
2331.00,0.0012
2330.00,0.0012
2329.00,0.0012
2328.00,0.0014
2327.00,0.0017
2326.00,0.0020
2325.00,0.0024
2324.00,0.0025
2323.00,0.0024
2322.00,0.0022
2321.00,0.0020
2320.00,0.0018
2319.00,0.0017
2318.00,0.0016
2317.00,0.0016
2316.00,0.0016
2315.00,0.0015
2314.00,0.0015
2313.00,0.0014
2312.00,0.0014
2311.00,0.0013
2310.00,0.0012
2309.00,0.0012
2308.00,0.0013
2307.00,0.0013
2306.00,0.0013
2305.00,0.0013
2304.00,0.0014
2303.00,0.0014
2302.00,0.0014
2301.00,0.0014
2300.00,0.0015
2299.00,0.0015
2298.00,0.0016
2297.00,0.0017
2296.00,0.0018
2295.00,0.0018
2294.00,0.0018
2293.00,0.0018
2292.00,0.0018
2291.00,0.0019
2290.00,0.0020
2289.00,0.0021
2288.00,0.0022
2287.00,0.0022
2286.00,0.0022
2285.00,0.0022
2284.00,0.0021
2283.00,0.0020
2282.00,0.0019
2281.00,0.0018
2280.00,0.0018
2279.00,0.0017
2278.00,0.0017
2277.00,0.0017
2276.00,0.0017
2275.00,0.0016
2274.00,0.0015
2273.00,0.0014
2272.00,0.0013
2271.00,0.0014
2270.00,0.0015
2269.00,0.0015
2268.00,0.0015
2267.00,0.0014
2266.00,0.0012
2265.00,0.0012
2264.00,0.0012
2263.00,0.0013
2262.00,0.0015
2261.00,0.0016
2260.00,0.0015
2259.00,0.0014
2258.00,0.0013
2257.00,0.0012
2256.00,0.0012
2255.00,0.0012
2254.00,0.0012
2253.00,0.0013
2252.00,0.0014
2251.00,0.0014
2250.00,0.0014
2249.00,0.0013
2248.00,0.0012
2247.00,0.0011
2246.00,0.0011
2245.00,0.0012
2244.00,0.0013
2243.00,0.0013
2242.00,0.0012
2241.00,0.0012
2240.00,0.0012
2239.00,0.0011
2238.00,0.0012
2237.00,0.0013
2236.00,0.0014
2235.00,0.0014
2234.00,0.0014
2233.00,0.0014
2232.00,0.0014
2231.00,0.0015
2230.00,0.0015
2229.00,0.0014
2228.00,0.0013
2227.00,0.0012
2226.00,0.0011
2225.00,0.0011
2224.00,0.0011
2223.00,0.0011
2222.00,0.0011
2221.00,0.0010
2220.00,0.0010
2219.00,0.0010
2218.00,0.0010
2217.00,0.0011
2216.00,0.0010
2215.00,0.0009
2214.00,0.0007
2213.00,0.0007
2212.00,0.0006
2211.00,0.0007
2210.00,0.0008
2209.00,0.0010
2208.00,0.0010
2207.00,0.0010
2206.00,0.0009
2205.00,0.0009
2204.00,0.0009
2203.00,0.0009
2202.00,0.0010
2201.00,0.0012
2200.00,0.0013
2199.00,0.0013
2198.00,0.0014
2197.00,0.0014
2196.00,0.0015
2195.00,0.0015
2194.00,0.0015
2193.00,0.0014
2192.00,0.0012
2191.00,0.0010
2190.00,0.0008
2189.00,0.0006
2188.00,0.0007
2187.00,0.0008
2186.00,0.0009
2185.00,0.0012
2184.00,0.0013
2183.00,0.0012
2182.00,0.0009
2181.00,0.0006
2180.00,0.0006
2179.00,0.0009
2178.00,0.0011
2177.00,0.0011
2176.00,0.0008
2175.00,0.0004
2174.00,0.0003
2173.00,0.0005
2172.00,0.0009
2171.00,0.0013
2170.00,0.0017
2169.00,0.0019
2168.00,0.0021
2167.00,0.0023
2166.00,0.0025
2165.00,0.0026
2164.00,0.0026
2163.00,0.0025
2162.00,0.0023
2161.00,0.0019
2160.00,0.0009
2159.00,-0.0005
2158.00,-0.0019
2157.00,-0.0027
2156.00,-0.0027
2155.00,-0.0024
2154.00,-0.0020
2153.00,-0.0017
2152.00,-0.0014
2151.00,-0.0012
2150.00,-0.0010
2149.00,-0.0009
2148.00,-0.0008
2147.00,-0.0007
2146.00,-0.0007
2145.00,-0.0008
2144.00,-0.0010
2143.00,-0.0012
2142.00,-0.0012
2141.00,-0.0011
2140.00,-0.0008
2139.00,-0.0005
2138.00,-0.0003
2137.00,-0.0003
2136.00,-0.0004
2135.00,-0.0007
2134.00,-0.0010
2133.00,-0.0012
2132.00,-0.0012
2131.00,-0.0012
2130.00,-0.0010
2129.00,-0.0007
2128.00,-0.0005
2127.00,-0.0003
2126.00,-0.0001
2125.00,-0.0000
2124.00,0.0000
2123.00,-0.0000
2122.00,-0.0000
2121.00,-0.0000
2120.00,-0.0000
2119.00,-0.0000
2118.00,0.0001
2117.00,0.0002
2116.00,0.0003
2115.00,0.0005
2114.00,0.0006
2113.00,0.0007
2112.00,0.0007
2111.00,0.0006
2110.00,0.0005
2109.00,0.0004
2108.00,0.0004
2107.00,0.0003
2106.00,0.0003
2105.00,0.0003
2104.00,0.0004
2103.00,0.0004
2102.00,0.0005
2101.00,0.0006
2100.00,0.0007
2099.00,0.0007
2098.00,0.0006
2097.00,0.0004
2096.00,0.0001
2095.00,-0.0001
2094.00,-0.0002
2093.00,-0.0002
2092.00,0.0000
2091.00,0.0002
2090.00,0.0002
2089.00,0.0003
2088.00,0.0003
2087.00,0.0003
2086.00,0.0003
2085.00,0.0003
2084.00,0.0003
2083.00,0.0004
2082.00,0.0005
2081.00,0.0006
2080.00,0.0007
2079.00,0.0007
2078.00,0.0006
2077.00,0.0006
2076.00,0.0006
2075.00,0.0005
2074.00,0.0005
2073.00,0.0004
2072.00,0.0004
2071.00,0.0004
2070.00,0.0004
2069.00,0.0004
2068.00,0.0003
2067.00,0.0002
2066.00,0.0001
2065.00,0.0001
2064.00,0.0001
2063.00,0.0002
2062.00,0.0003
2061.00,0.0004
2060.00,0.0004
2059.00,0.0004
2058.00,0.0004
2057.00,0.0004
2056.00,0.0004
2055.00,0.0004
2054.00,0.0005
2053.00,0.0008
2052.00,0.0013
2051.00,0.0016
2050.00,0.0015
2049.00,0.0010
2048.00,0.0005
2047.00,0.0001
2046.00,-0.0001
2045.00,-0.0001
2044.00,-0.0000
2043.00,0.0001
2042.00,0.0003
2041.00,0.0004
2040.00,0.0005
2039.00,0.0004
2038.00,0.0002
2037.00,-0.0000
2036.00,-0.0002
2035.00,-0.0004
2034.00,-0.0006
2033.00,-0.0009
2032.00,-0.0009
2031.00,-0.0008
2030.00,-0.0006
2029.00,-0.0004
2028.00,-0.0003
2027.00,-0.0003
2026.00,-0.0003
2025.00,-0.0004
2024.00,-0.0006
2023.00,-0.0010
2022.00,-0.0013
2021.00,-0.0014
2020.00,-0.0012
2019.00,-0.0009
2018.00,-0.0008
2017.00,-0.0007
2016.00,-0.0007
2015.00,-0.0006
2014.00,-0.0006
2013.00,-0.0006
2012.00,-0.0005
2011.00,-0.0003
2010.00,0.0000
2009.00,0.0001
2008.00,-0.0002
2007.00,-0.0008
2006.00,-0.0013
2005.00,-0.0015
2004.00,-0.0015
2003.00,-0.0014
2002.00,-0.0013
2001.00,-0.0013
2000.00,-0.0012
1999.00,-0.0010
1998.00,-0.0008
1997.00,-0.0007
1996.00,-0.0007
1995.00,-0.0009
1994.00,-0.0010
1993.00,-0.0010
1992.00,-0.0008
1991.00,-0.0007
1990.00,-0.0007
1989.00,-0.0007
1988.00,-0.0006
1987.00,-0.0004
1986.00,-0.0002
1985.00,0.0001
1984.00,0.0003
1983.00,0.0005
1982.00,0.0007
1981.00,0.0008
1980.00,0.0009
1979.00,0.0007
1978.00,0.0003
1977.00,-0.0002
1976.00,-0.0007
1975.00,-0.0010
1974.00,-0.0011
1973.00,-0.0012
1972.00,-0.0012
1971.00,-0.0013
1970.00,-0.0012
1969.00,-0.0011
1968.00,-0.0009
1967.00,-0.0008
1966.00,-0.0009
1965.00,-0.0009
1964.00,-0.0009
1963.00,-0.0009
1962.00,-0.0009
1961.00,-0.0010
1960.00,-0.0011
1959.00,-0.0013
1958.00,-0.0013
1957.00,-0.0013
1956.00,-0.0013
1955.00,-0.0012
1954.00,-0.0011
1953.00,-0.0010
1952.00,-0.0010
1951.00,-0.0010
1950.00,-0.0011
1949.00,-0.0011
1948.00,-0.0012
1947.00,-0.0013
1946.00,-0.0013
1945.00,-0.0013
1944.00,-0.0012
1943.00,-0.0011
1942.00,-0.0010
1941.00,-0.0009
1940.00,-0.0008
1939.00,-0.0007
1938.00,-0.0007
1937.00,-0.0006
1936.00,-0.0004
1935.00,-0.0003
1934.00,-0.0003
1933.00,-0.0003
1932.00,-0.0004
1931.00,-0.0005
1930.00,-0.0004
1929.00,-0.0003
1928.00,-0.0002
1927.00,-0.0003
1926.00,-0.0003
1925.00,-0.0004
1924.00,-0.0004
1923.00,-0.0003
1922.00,-0.0002
1921.00,-0.0002
1920.00,-0.0002
1919.00,-0.0003
1918.00,-0.0003
1917.00,-0.0001
1916.00,0.0002
1915.00,0.0003
1914.00,0.0002
1913.00,0.0002
1912.00,0.0002
1911.00,0.0003
1910.00,0.0003
1909.00,0.0002
1908.00,0.0002
1907.00,0.0001
1906.00,0.0001
1905.00,0.0001
1904.00,0.0002
1903.00,0.0002
1902.00,0.0003
1901.00,0.0004
1900.00,0.0004
1899.00,0.0004
1898.00,0.0004
1897.00,0.0004
1896.00,0.0004
1895.00,0.0003
1894.00,0.0002
1893.00,0.0001
1892.00,0.0000
1891.00,0.0001
1890.00,0.0002
1889.00,0.0003
1888.00,0.0003
1887.00,0.0003
1886.00,0.0002
1885.00,0.0002
1884.00,0.0002
1883.00,0.0001
1882.00,0.0001
1881.00,0.0001
1880.00,0.0001
1879.00,0.0001
1878.00,0.0000
1877.00,-0.0000
1876.00,0.0000
1875.00,0.0001
1874.00,0.0001
1873.00,0.0002
1872.00,0.0002
1871.00,0.0002
1870.00,0.0002
1869.00,0.0003
1868.00,0.0004
1867.00,0.0005
1866.00,0.0004
1865.00,0.0004
1864.00,0.0003
1863.00,0.0002
1862.00,0.0002
1861.00,0.0002
1860.00,0.0003
1859.00,0.0004
1858.00,0.0005
1857.00,0.0005
1856.00,0.0005
1855.00,0.0005
1854.00,0.0005
1853.00,0.0005
1852.00,0.0005
1851.00,0.0004
1850.00,0.0004
1849.00,0.0004
1848.00,0.0004
1847.00,0.0004
1846.00,0.0004
1845.00,0.0005
1844.00,0.0007
1843.00,0.0008
1842.00,0.0008
1841.00,0.0007
1840.00,0.0006
1839.00,0.0005
1838.00,0.0005
1837.00,0.0005
1836.00,0.0006
1835.00,0.0006
1834.00,0.0006
1833.00,0.0006
1832.00,0.0006
1831.00,0.0005
1830.00,0.0005
1829.00,0.0005
1828.00,0.0005
1827.00,0.0005
1826.00,0.0005
1825.00,0.0005
1824.00,0.0005
1823.00,0.0005
1822.00,0.0006
1821.00,0.0005
1820.00,0.0005
1819.00,0.0004
1818.00,0.0003
1817.00,0.0002
1816.00,0.0002
1815.00,0.0003
1814.00,0.0004
1813.00,0.0004
1812.00,0.0005
1811.00,0.0005
1810.00,0.0006
1809.00,0.0006
1808.00,0.0007
1807.00,0.0007
1806.00,0.0007
1805.00,0.0007
1804.00,0.0007
1803.00,0.0007
1802.00,0.0007
1801.00,0.0007
1800.00,0.0007
1799.00,0.0008
1798.00,0.0009
1797.00,0.0009
1796.00,0.0009
1795.00,0.0009
1794.00,0.0009
1793.00,0.0009
1792.00,0.0010
1791.00,0.0010
1790.00,0.0010
1789.00,0.0010
1788.00,0.0010
1787.00,0.0010
1786.00,0.0011
1785.00,0.0012
1784.00,0.0012
1783.00,0.0012
1782.00,0.0012
1781.00,0.0012
1780.00,0.0012
1779.00,0.0011
1778.00,0.0011
1777.00,0.0011
1776.00,0.0011
1775.00,0.0011
1774.00,0.0011
1773.00,0.0012
1772.00,0.0012
1771.00,0.0013
1770.00,0.0014
1769.00,0.0015
1768.00,0.0015
1767.00,0.0015
1766.00,0.0015
1765.00,0.0015
1764.00,0.0016
1763.00,0.0017
1762.00,0.0017
1761.00,0.0018
1760.00,0.0018
1759.00,0.0018
1758.00,0.0018
1757.00,0.0019
1756.00,0.0020
1755.00,0.0020
1754.00,0.0021
1753.00,0.0021
1752.00,0.0022
1751.00,0.0022
1750.00,0.0023
1749.00,0.0024
1748.00,0.0025
1747.00,0.0027
1746.00,0.0028
1745.00,0.0029
1744.00,0.0030
1743.00,0.0031
1742.00,0.0031
1741.00,0.0032
1740.00,0.0033
1739.00,0.0034
1738.00,0.0034
1737.00,0.0034
1736.00,0.0035
1735.00,0.0035
1734.00,0.0036
1733.00,0.0036
1732.00,0.0037
1731.00,0.0037
1730.00,0.0037
1729.00,0.0037
1728.00,0.0036
1727.00,0.0036
1726.00,0.0036
1725.00,0.0036
1724.00,0.0036
1723.00,0.0036
1722.00,0.0036
1721.00,0.0037
1720.00,0.0037
1719.00,0.0036
1718.00,0.0036
1717.00,0.0035
1716.00,0.0035
1715.00,0.0035
1714.00,0.0035
1713.00,0.0036
1712.00,0.0036
1711.00,0.0036
1710.00,0.0036
1709.00,0.0036
1708.00,0.0037
1707.00,0.0037
1706.00,0.0037
1705.00,0.0037
1704.00,0.0037
1703.00,0.0038
1702.00,0.0039
1701.00,0.0041
1700.00,0.0043
1699.00,0.0045
1698.00,0.0046
1697.00,0.0047
1696.00,0.0049
1695.00,0.0052
1694.00,0.0054
1693.00,0.0056
1692.00,0.0057
1691.00,0.0059
1690.00,0.0061
1689.00,0.0063
1688.00,0.0065
1687.00,0.0067
1686.00,0.0069
1685.00,0.0072
1684.00,0.0075
1683.00,0.0078
1682.00,0.0080
1681.00,0.0082
1680.00,0.0084
1679.00,0.0086
1678.00,0.0088
1677.00,0.0090
1676.00,0.0093
1675.00,0.0096
1674.00,0.0097
1673.00,0.0099
1672.00,0.0100
1671.00,0.0101
1670.00,0.0102
1669.00,0.0104
1668.00,0.0106
1667.00,0.0107
1666.00,0.0108
1665.00,0.0108
1664.00,0.0109
1663.00,0.0110
1662.00,0.0112
1661.00,0.0114
1660.00,0.0115
1659.00,0.0116
1658.00,0.0117
1657.00,0.0118
1656.00,0.0118
1655.00,0.0119
1654.00,0.0119
1653.00,0.0121
1652.00,0.0124
1651.00,0.0125
1650.00,0.0125
1649.00,0.0126
1648.00,0.0127
1647.00,0.0128
1646.00,0.0129
1645.00,0.0131
1644.00,0.0131
1643.00,0.0132
1642.00,0.0132
1641.00,0.0132
1640.00,0.0132
1639.00,0.0132
1638.00,0.0132
1637.00,0.0132
1636.00,0.0132
1635.00,0.0132
1634.00,0.0132
1633.00,0.0131
1632.00,0.0131
1631.00,0.0129
1630.00,0.0129
1629.00,0.0128
1628.00,0.0127
1627.00,0.0127
1626.00,0.0126
1625.00,0.0126
1624.00,0.0125
1623.00,0.0124
1622.00,0.0123
1621.00,0.0122
1620.00,0.0121
1619.00,0.0120
1618.00,0.0119
1617.00,0.0118
1616.00,0.0117
1615.00,0.0117
1614.00,0.0117
1613.00,0.0117
1612.00,0.0117
1611.00,0.0117
1610.00,0.0116
1609.00,0.0116
1608.00,0.0116
1607.00,0.0115
1606.00,0.0115
1605.00,0.0115
1604.00,0.0115
1603.00,0.0115
1602.00,0.0114
1601.00,0.0114
1600.00,0.0114
1599.00,0.0114
1598.00,0.0113
1597.00,0.0113
1596.00,0.0113
1595.00,0.0113
1594.00,0.0113
1593.00,0.0113
1592.00,0.0113
1591.00,0.0113
1590.00,0.0113
1589.00,0.0114
1588.00,0.0115
1587.00,0.0116
1586.00,0.0117
1585.00,0.0119
1584.00,0.0121
1583.00,0.0123
1582.00,0.0125
1581.00,0.0128
1580.00,0.0130
1579.00,0.0132
1578.00,0.0134
1577.00,0.0134
1576.00,0.0134
1575.00,0.0134
1574.00,0.0132
1573.00,0.0131
1572.00,0.0130
1571.00,0.0128
1570.00,0.0126
1569.00,0.0125
1568.00,0.0125
1567.00,0.0125
1566.00,0.0125
1565.00,0.0125
1564.00,0.0125
1563.00,0.0126
1562.00,0.0126
1561.00,0.0127
1560.00,0.0128
1559.00,0.0128
1558.00,0.0129
1557.00,0.0132
1556.00,0.0133
1555.00,0.0134
1554.00,0.0136
1553.00,0.0137
1552.00,0.0139
1551.00,0.0141
1550.00,0.0143
1549.00,0.0145
1548.00,0.0147
1547.00,0.0149
1546.00,0.0151
1545.00,0.0152
1544.00,0.0154
1543.00,0.0155
1542.00,0.0155
1541.00,0.0154
1540.00,0.0150
1539.00,0.0145
1538.00,0.0140
1537.00,0.0136
1536.00,0.0133
1535.00,0.0129
1534.00,0.0124
1533.00,0.0119
1532.00,0.0115
1531.00,0.0112
1530.00,0.0110
1529.00,0.0107
1528.00,0.0105
1527.00,0.0102
1526.00,0.0099
1525.00,0.0098
1524.00,0.0098
1523.00,0.0097
1522.00,0.0096
1521.00,0.0096
1520.00,0.0096
1519.00,0.0095
1518.00,0.0095
1517.00,0.0094
1516.00,0.0094
1515.00,0.0093
1514.00,0.0093
1513.00,0.0094
1512.00,0.0095
1511.00,0.0095
1510.00,0.0095
1509.00,0.0095
1508.00,0.0095
1507.00,0.0093
1506.00,0.0092
1505.00,0.0094
1504.00,0.0096
1503.00,0.0098
1502.00,0.0100
1501.00,0.0103
1500.00,0.0106
1499.00,0.0108
1498.00,0.0111
1497.00,0.0114
1496.00,0.0119
1495.00,0.0122
1494.00,0.0125
1493.00,0.0129
1492.00,0.0134
1491.00,0.0139
1490.00,0.0143
1489.00,0.0148
1488.00,0.0154
1487.00,0.0160
1486.00,0.0165
1485.00,0.0172
1484.00,0.0180
1483.00,0.0188
1482.00,0.0197
1481.00,0.0209
1480.00,0.0221
1479.00,0.0234
1478.00,0.0248
1477.00,0.0268
1476.00,0.0292
1475.00,0.0320
1474.00,0.0359
1473.00,0.0415
1472.00,0.0483
1471.00,0.0549
1470.00,0.0612
1469.00,0.0678
1468.00,0.0747
1467.00,0.0823
1466.00,0.0908
1465.00,0.0998
1464.00,0.1077
1463.00,0.1130
1462.00,0.1163
1461.00,0.1183
1460.00,0.1196
1459.00,0.1202
1458.00,0.1206
1457.00,0.1207
1456.00,0.1200
1455.00,0.1187
1454.00,0.1170
1453.00,0.1148
1452.00,0.1116
1451.00,0.1074
1450.00,0.1021
1449.00,0.0950
1448.00,0.0862
1447.00,0.0773
1446.00,0.0694
1445.00,0.0627
1444.00,0.0571
1443.00,0.0526
1442.00,0.0492
1441.00,0.0469
1440.00,0.0456
1439.00,0.0452
1438.00,0.0456
1437.00,0.0461
1436.00,0.0455
1435.00,0.0433
1434.00,0.0399
1433.00,0.0357
1432.00,0.0312
1431.00,0.0272
1430.00,0.0240
1429.00,0.0216
1428.00,0.0200
1427.00,0.0191
1426.00,0.0185
1425.00,0.0179
1424.00,0.0174
1423.00,0.0171
1422.00,0.0169
1421.00,0.0167
1420.00,0.0164
1419.00,0.0161
1418.00,0.0159
1417.00,0.0155
1416.00,0.0152
1415.00,0.0150
1414.00,0.0148
1413.00,0.0146
1412.00,0.0143
1411.00,0.0142
1410.00,0.0140
1409.00,0.0139
1408.00,0.0137
1407.00,0.0136
1406.00,0.0135
1405.00,0.0134
1404.00,0.0132
1403.00,0.0132
1402.00,0.0133
1401.00,0.0133
1400.00,0.0133
1399.00,0.0133
1398.00,0.0133
1397.00,0.0134
1396.00,0.0134
1395.00,0.0137
1394.00,0.0141
1393.00,0.0144
1392.00,0.0148
1391.00,0.0155
1390.00,0.0165
1389.00,0.0178
1388.00,0.0197
1387.00,0.0226
1386.00,0.0265
1385.00,0.0316
1384.00,0.0389
1383.00,0.0495
1382.00,0.0644
1381.00,0.0841
1380.00,0.1089
1379.00,0.1372
1378.00,0.1643
1377.00,0.1839
1376.00,0.1900
1375.00,0.1799
1374.00,0.1566
1373.00,0.1289
1372.00,0.1039
1371.00,0.0835
1370.00,0.0674
1369.00,0.0553
1368.00,0.0469
1367.00,0.0418
1366.00,0.0389
1365.00,0.0378
1364.00,0.0381
1363.00,0.0394
1362.00,0.0415
1361.00,0.0438
1360.00,0.0455
1359.00,0.0462
1358.00,0.0453
1357.00,0.0430
1356.00,0.0396
1355.00,0.0357
1354.00,0.0319
1353.00,0.0286
1352.00,0.0260
1351.00,0.0239
1350.00,0.0221
1349.00,0.0207
1348.00,0.0196
1347.00,0.0186
1346.00,0.0178
1345.00,0.0171
1344.00,0.0165
1343.00,0.0159
1342.00,0.0154
1341.00,0.0149
1340.00,0.0145
1339.00,0.0142
1338.00,0.0140
1337.00,0.0140
1336.00,0.0140
1335.00,0.0143
1334.00,0.0146
1333.00,0.0151
1332.00,0.0156
1331.00,0.0159
1330.00,0.0161
1329.00,0.0160
1328.00,0.0156
1327.00,0.0151
1326.00,0.0145
1325.00,0.0138
1324.00,0.0132
1323.00,0.0128
1322.00,0.0124
1321.00,0.0121
1320.00,0.0119
1319.00,0.0118
1318.00,0.0116
1317.00,0.0115
1316.00,0.0114
1315.00,0.0113
1314.00,0.0113
1313.00,0.0113
1312.00,0.0114
1311.00,0.0115
1310.00,0.0118
1309.00,0.0123
1308.00,0.0129
1307.00,0.0138
1306.00,0.0146
1305.00,0.0152
1304.00,0.0154
1303.00,0.0153
1302.00,0.0151
1301.00,0.0149
1300.00,0.0148
1299.00,0.0149
1298.00,0.0151
1297.00,0.0152
1296.00,0.0152
1295.00,0.0150
1294.00,0.0146
1293.00,0.0142
1292.00,0.0137
1291.00,0.0131
1290.00,0.0127
1289.00,0.0122
1288.00,0.0118
1287.00,0.0115
1286.00,0.0113
1285.00,0.0111
1284.00,0.0109
1283.00,0.0108
1282.00,0.0106
1281.00,0.0105
1280.00,0.0103
1279.00,0.0102
1278.00,0.0101
1277.00,0.0100
1276.00,0.0099
1275.00,0.0098
1274.00,0.0097
1273.00,0.0097
1272.00,0.0097
1271.00,0.0098
1270.00,0.0098
1269.00,0.0099
1268.00,0.0100
1267.00,0.0102
1266.00,0.0104
1265.00,0.0107
1264.00,0.0110
1263.00,0.0113
1262.00,0.0116
1261.00,0.0120
1260.00,0.0123
1259.00,0.0128
1258.00,0.0131
1257.00,0.0133
1256.00,0.0133
1255.00,0.0130
1254.00,0.0125
1253.00,0.0119
1252.00,0.0113
1251.00,0.0108
1250.00,0.0106
1249.00,0.0104
1248.00,0.0104
1247.00,0.0103
1246.00,0.0102
1245.00,0.0100
1244.00,0.0099
1243.00,0.0097
1242.00,0.0096
1241.00,0.0095
1240.00,0.0094
1239.00,0.0094
1238.00,0.0094
1237.00,0.0094
1236.00,0.0094
1235.00,0.0095
1234.00,0.0096
1233.00,0.0097
1232.00,0.0098
1231.00,0.0099
1230.00,0.0101
1229.00,0.0103
1228.00,0.0105
1227.00,0.0107
1226.00,0.0110
1225.00,0.0114
1224.00,0.0118
1223.00,0.0123
1222.00,0.0127
1221.00,0.0130
1220.00,0.0133
1219.00,0.0134
1218.00,0.0134
1217.00,0.0133
1216.00,0.0129
1215.00,0.0125
1214.00,0.0121
1213.00,0.0117
1212.00,0.0114
1211.00,0.0112
1210.00,0.0110
1209.00,0.0108
1208.00,0.0107
1207.00,0.0106
1206.00,0.0105
1205.00,0.0104
1204.00,0.0104
1203.00,0.0104
1202.00,0.0104
1201.00,0.0104
1200.00,0.0104
1199.00,0.0104
1198.00,0.0104
1197.00,0.0104
1196.00,0.0104
1195.00,0.0105
1194.00,0.0105
1193.00,0.0105
1192.00,0.0104
1191.00,0.0104
1190.00,0.0103
1189.00,0.0102
1188.00,0.0101
1187.00,0.0101
1186.00,0.0100
1185.00,0.0099
1184.00,0.0099
1183.00,0.0099
1182.00,0.0100
1181.00,0.0102
1180.00,0.0104
1179.00,0.0107
1178.00,0.0111
1177.00,0.0116
1176.00,0.0123
1175.00,0.0132
1174.00,0.0146
1173.00,0.0163
1172.00,0.0183
1171.00,0.0206
1170.00,0.0227
1169.00,0.0243
1168.00,0.0253
1167.00,0.0254
1166.00,0.0250
1165.00,0.0241
1164.00,0.0231
1163.00,0.0221
1162.00,0.0213
1161.00,0.0206
1160.00,0.0201
1159.00,0.0198
1158.00,0.0195
1157.00,0.0195
1156.00,0.0195
1155.00,0.0196
1154.00,0.0197
1153.00,0.0196
1152.00,0.0194
1151.00,0.0189
1150.00,0.0183
1149.00,0.0176
1148.00,0.0168
1147.00,0.0162
1146.00,0.0155
1145.00,0.0149
1144.00,0.0143
1143.00,0.0138
1142.00,0.0133
1141.00,0.0129
1140.00,0.0126
1139.00,0.0124
1138.00,0.0122
1137.00,0.0121
1136.00,0.0119
1135.00,0.0118
1134.00,0.0118
1133.00,0.0117
1132.00,0.0117
1131.00,0.0118
1130.00,0.0119
1129.00,0.0121
1128.00,0.0124
1127.00,0.0126
1126.00,0.0128
1125.00,0.0130
1124.00,0.0133
1123.00,0.0135
1122.00,0.0138
1121.00,0.0141
1120.00,0.0143
1119.00,0.0145
1118.00,0.0147
1117.00,0.0150
1116.00,0.0152
1115.00,0.0154
1114.00,0.0155
1113.00,0.0157
1112.00,0.0159
1111.00,0.0161
1110.00,0.0163
1109.00,0.0166
1108.00,0.0171
1107.00,0.0176
1106.00,0.0182
1105.00,0.0187
1104.00,0.0191
1103.00,0.0192
1102.00,0.0191
1101.00,0.0187
1100.00,0.0180
1099.00,0.0172
1098.00,0.0165
1097.00,0.0158
1096.00,0.0153
1095.00,0.0148
1094.00,0.0143
1093.00,0.0139
1092.00,0.0134
1091.00,0.0131
1090.00,0.0128
1089.00,0.0127
1088.00,0.0126
1087.00,0.0126
1086.00,0.0125
1085.00,0.0125
1084.00,0.0124
1083.00,0.0122
1082.00,0.0120
1081.00,0.0118
1080.00,0.0116
1079.00,0.0114
1078.00,0.0112
1077.00,0.0111
1076.00,0.0109
1075.00,0.0107
1074.00,0.0106
1073.00,0.0105
1072.00,0.0105
1071.00,0.0105
1070.00,0.0105
1069.00,0.0106
1068.00,0.0106
1067.00,0.0106
1066.00,0.0106
1065.00,0.0107
1064.00,0.0108
1063.00,0.0109
1062.00,0.0110
1061.00,0.0110
1060.00,0.0110
1059.00,0.0110
1058.00,0.0111
1057.00,0.0112
1056.00,0.0114
1055.00,0.0115
1054.00,0.0118
1053.00,0.0121
1052.00,0.0125
1051.00,0.0129
1050.00,0.0133
1049.00,0.0138
1048.00,0.0142
1047.00,0.0146
1046.00,0.0150
1045.00,0.0153
1044.00,0.0155
1043.00,0.0155
1042.00,0.0154
1041.00,0.0153
1040.00,0.0152
1039.00,0.0153
1038.00,0.0154
1037.00,0.0154
1036.00,0.0154
1035.00,0.0154
1034.00,0.0153
1033.00,0.0152
1032.00,0.0149
1031.00,0.0147
1030.00,0.0146
1029.00,0.0146
1028.00,0.0146
1027.00,0.0147
1026.00,0.0148
1025.00,0.0149
1024.00,0.0151
1023.00,0.0153
1022.00,0.0155
1021.00,0.0156
1020.00,0.0158
1019.00,0.0159
1018.00,0.0160
1017.00,0.0159
1016.00,0.0158
1015.00,0.0157
1014.00,0.0156
1013.00,0.0156
1012.00,0.0156
1011.00,0.0156
1010.00,0.0155
1009.00,0.0154
1008.00,0.0154
1007.00,0.0155
1006.00,0.0159
1005.00,0.0165
1004.00,0.0175
1003.00,0.0190
1002.00,0.0210
1001.00,0.0235
1000.00,0.0260
999.00,0.0280
998.00,0.0288
997.00,0.0281
996.00,0.0262
995.00,0.0234
994.00,0.0206
993.00,0.0181
992.00,0.0162
991.00,0.0148
990.00,0.0139
989.00,0.0132
988.00,0.0128
987.00,0.0125
986.00,0.0123
985.00,0.0124
984.00,0.0127
983.00,0.0133
982.00,0.0141
981.00,0.0152
980.00,0.0168
979.00,0.0190
978.00,0.0217
977.00,0.0248
976.00,0.0280
975.00,0.0307
974.00,0.0325
973.00,0.0328
972.00,0.0312
971.00,0.0282
970.00,0.0245
969.00,0.0207
968.00,0.0176
967.00,0.0152
966.00,0.0134
965.00,0.0122
964.00,0.0113
963.00,0.0106
962.00,0.0100
961.00,0.0096
960.00,0.0092
959.00,0.0088
958.00,0.0084
957.00,0.0081
956.00,0.0078
955.00,0.0076
954.00,0.0074
953.00,0.0073
952.00,0.0072
951.00,0.0072
950.00,0.0073
949.00,0.0074
948.00,0.0075
947.00,0.0076
946.00,0.0078
945.00,0.0081
944.00,0.0085
943.00,0.0089
942.00,0.0093
941.00,0.0096
940.00,0.0096
939.00,0.0094
938.00,0.0091
937.00,0.0086
936.00,0.0082
935.00,0.0078
934.00,0.0076
933.00,0.0076
932.00,0.0075
931.00,0.0075
930.00,0.0075
929.00,0.0075
928.00,0.0075
927.00,0.0074
926.00,0.0074
925.00,0.0075
924.00,0.0076
923.00,0.0078
922.00,0.0078
921.00,0.0078
920.00,0.0079
919.00,0.0079
918.00,0.0080
917.00,0.0081
916.00,0.0081
915.00,0.0081
914.00,0.0082
913.00,0.0083
912.00,0.0085
911.00,0.0086
910.00,0.0088
909.00,0.0091
908.00,0.0095
907.00,0.0100
906.00,0.0108
905.00,0.0120
904.00,0.0135
903.00,0.0154
902.00,0.0174
901.00,0.0191
900.00,0.0202
899.00,0.0204
898.00,0.0195
897.00,0.0178
896.00,0.0157
895.00,0.0138
894.00,0.0123
893.00,0.0112
892.00,0.0104
891.00,0.0099
890.00,0.0095
889.00,0.0092
888.00,0.0091
887.00,0.0091
886.00,0.0090
885.00,0.0090
884.00,0.0089
883.00,0.0090
882.00,0.0090
881.00,0.0092
880.00,0.0093
879.00,0.0094
878.00,0.0095
877.00,0.0095
876.00,0.0096
875.00,0.0097
874.00,0.0097
873.00,0.0097
872.00,0.0096
871.00,0.0095
870.00,0.0094
869.00,0.0093
868.00,0.0092
867.00,0.0092
866.00,0.0092
865.00,0.0093
864.00,0.0095
863.00,0.0096
862.00,0.0096
861.00,0.0096
860.00,0.0096
859.00,0.0097
858.00,0.0098
857.00,0.0099
856.00,0.0100
855.00,0.0101
854.00,0.0102
853.00,0.0103
852.00,0.0106
851.00,0.0109
850.00,0.0112
849.00,0.0117
848.00,0.0123
847.00,0.0132
846.00,0.0147
845.00,0.0170
844.00,0.0200
843.00,0.0234
842.00,0.0261
841.00,0.0268
840.00,0.0252
839.00,0.0220
838.00,0.0185
837.00,0.0157
836.00,0.0138
835.00,0.0126
834.00,0.0120
833.00,0.0115
832.00,0.0112
831.00,0.0110
830.00,0.0108
829.00,0.0108
828.00,0.0108
827.00,0.0108
826.00,0.0108
825.00,0.0107
824.00,0.0107
823.00,0.0108
822.00,0.0109
821.00,0.0112
820.00,0.0115
819.00,0.0119
818.00,0.0124
817.00,0.0131
816.00,0.0139
815.00,0.0150
814.00,0.0165
813.00,0.0185
812.00,0.0207
811.00,0.0229
810.00,0.0245
809.00,0.0251
808.00,0.0247
807.00,0.0234
806.00,0.0215
805.00,0.0195
804.00,0.0177
803.00,0.0162
802.00,0.0150
801.00,0.0142
800.00,0.0135
799.00,0.0130
798.00,0.0126
797.00,0.0123
796.00,0.0119
795.00,0.0116
794.00,0.0113
793.00,0.0110
792.00,0.0107
791.00,0.0104
790.00,0.0101
789.00,0.0098
788.00,0.0096
787.00,0.0094
786.00,0.0093
785.00,0.0092
784.00,0.0092
783.00,0.0091
782.00,0.0091
781.00,0.0090
780.00,0.0090
779.00,0.0089
778.00,0.0088
777.00,0.0088
776.00,0.0088
775.00,0.0087
774.00,0.0086
773.00,0.0085
772.00,0.0086
771.00,0.0088
770.00,0.0089
769.00,0.0090
768.00,0.0090
767.00,0.0090
766.00,0.0091
765.00,0.0091
764.00,0.0090
763.00,0.0090
762.00,0.0089
761.00,0.0089
760.00,0.0089
759.00,0.0090
758.00,0.0092
757.00,0.0094
756.00,0.0096
755.00,0.0098
754.00,0.0099
753.00,0.0100
752.00,0.0100
751.00,0.0100
750.00,0.0101
749.00,0.0103
748.00,0.0104
747.00,0.0107
746.00,0.0109
745.00,0.0112
744.00,0.0116
743.00,0.0119
742.00,0.0123
741.00,0.0126
740.00,0.0131
739.00,0.0135
738.00,0.0140
737.00,0.0144
736.00,0.0149
735.00,0.0154
734.00,0.0160
733.00,0.0167
732.00,0.0174
731.00,0.0180
730.00,0.0184
729.00,0.0188
728.00,0.0191
727.00,0.0194
726.00,0.0197
725.00,0.0201
724.00,0.0205
723.00,0.0209
722.00,0.0214
721.00,0.0216
720.00,0.0214
719.00,0.0206
718.00,0.0194
717.00,0.0181
716.00,0.0170
715.00,0.0161
714.00,0.0153
713.00,0.0146
712.00,0.0142
711.00,0.0140
710.00,0.0139
709.00,0.0139
708.00,0.0140
707.00,0.0141
706.00,0.0142
705.00,0.0141
704.00,0.0139
703.00,0.0137
702.00,0.0135
701.00,0.0133
700.00,0.0131
699.00,0.0130
698.00,0.0128
697.00,0.0127
696.00,0.0125
695.00,0.0124
694.00,0.0123
693.00,0.0123
692.00,0.0124
691.00,0.0125
690.00,0.0125
689.00,0.0124
688.00,0.0123
687.00,0.0122
686.00,0.0121
685.00,0.0120
684.00,0.0119
683.00,0.0119
682.00,0.0120
681.00,0.0121
680.00,0.0123
679.00,0.0124
678.00,0.0126
677.00,0.0127
676.00,0.0129
675.00,0.0131
674.00,0.0132
673.00,0.0134
672.00,0.0135
671.00,0.0136
670.00,0.0137
669.00,0.0136
668.00,0.0134
667.00,0.0132
666.00,0.0129
665.00,0.0127
664.00,0.0124
663.00,0.0122
662.00,0.0120
661.00,0.0119
660.00,0.0119
659.00,0.0119
658.00,0.0117
657.00,0.0114
656.00,0.0112
655.00,0.0112
654.00,0.0112
653.00,0.0112
652.00,0.0111
651.00,0.0110
650.00,0.0110
649.00,0.0111
648.00,0.0112
647.00,0.0114
646.00,0.0115
645.00,0.0115
644.00,0.0116
643.00,0.0116
642.00,0.0116
641.00,0.0114
640.00,0.0111
639.00,0.0109
638.00,0.0110
637.00,0.0111
636.00,0.0111
635.00,0.0110
634.00,0.0108
633.00,0.0108
632.00,0.0110
631.00,0.0112
630.00,0.0113
629.00,0.0114
628.00,0.0114
627.00,0.0114
626.00,0.0115
625.00,0.0116
624.00,0.0118
623.00,0.0120
622.00,0.0120
621.00,0.0118
620.00,0.0115
619.00,0.0113
618.00,0.0115
617.00,0.0118
616.00,0.0120
615.00,0.0120
614.00,0.0119
613.00,0.0116
612.00,0.0112
611.00,0.0109
610.00,0.0107
609.00,0.0107
608.00,0.0108
607.00,0.0109
606.00,0.0108
605.00,0.0108
604.00,0.0109
603.00,0.0111
602.00,0.0114
601.00,0.0116
600.00,0.0117
599.00,0.0115
598.00,0.0112
597.00,0.0111
596.00,0.0113
595.00,0.0116
594.00,0.0116
593.00,0.0113
592.00,0.0109
591.00,0.0106
590.00,0.0106
589.00,0.0107
588.00,0.0109
587.00,0.0110
586.00,0.0108
585.00,0.0107
584.00,0.0107
583.00,0.0108
582.00,0.0111
581.00,0.0113
580.00,0.0113
579.00,0.0111
578.00,0.0107
577.00,0.0103
576.00,0.0102
575.00,0.0104
574.00,0.0107
573.00,0.0109
572.00,0.0111
571.00,0.0112
570.00,0.0113
569.00,0.0113
568.00,0.0114
567.00,0.0115
566.00,0.0115
565.00,0.0113
564.00,0.0110
563.00,0.0106
562.00,0.0103
561.00,0.0102
560.00,0.0103
559.00,0.0106
558.00,0.0109
557.00,0.0109
556.00,0.0109
555.00,0.0108
554.00,0.0110
553.00,0.0113
552.00,0.0116
551.00,0.0116
550.00,0.0114
549.00,0.0109
548.00,0.0107
547.00,0.0110
546.00,0.0116
545.00,0.0121
544.00,0.0121
543.00,0.0119
542.00,0.0116
541.00,0.0118
540.00,0.0123
539.00,0.0132
538.00,0.0141
537.00,0.0145
536.00,0.0144
535.00,0.0139
534.00,0.0136
533.00,0.0137
532.00,0.0139
531.00,0.0139
530.00,0.0136
529.00,0.0129
528.00,0.0122
527.00,0.0118
526.00,0.0119
525.00,0.0124
524.00,0.0128
523.00,0.0128
522.00,0.0124
521.00,0.0120
520.00,0.0118
519.00,0.0119
518.00,0.0120
517.00,0.0119
516.00,0.0115
515.00,0.0108
514.00,0.0102
513.00,0.0098
512.00,0.0097
511.00,0.0101
510.00,0.0108
509.00,0.0114
508.00,0.0115
507.00,0.0112
506.00,0.0109
505.00,0.0109
504.00,0.0113
503.00,0.0119
502.00,0.0122
501.00,0.0118
500.00,0.0111
499.00,0.0103
498.00,0.0098
497.00,0.0097
496.00,0.0100
495.00,0.0104
494.00,0.0106
493.00,0.0106
492.00,0.0104
491.00,0.0104
490.00,0.0110
489.00,0.0118
488.00,0.0123
487.00,0.0124
486.00,0.0120
485.00,0.0117
484.00,0.0116
483.00,0.0119
482.00,0.0124
481.00,0.0128
480.00,0.0128
479.00,0.0122
478.00,0.0112
477.00,0.0106
476.00,0.0106
475.00,0.0112
474.00,0.0117
473.00,0.0119
472.00,0.0122
471.00,0.0132
470.00,0.0146
469.00,0.0160
468.00,0.0170
467.00,0.0175
466.00,0.0174
465.00,0.0173
464.00,0.0175
463.00,0.0184
462.00,0.0198
461.00,0.0218
460.00,0.0238
459.00,0.0246
458.00,0.0234
457.00,0.0211
456.00,0.0195
455.00,0.0194
454.00,0.0197
453.00,0.0192
452.00,0.0178
451.00,0.0168
450.00,0.0169
