Created as New Dataset,Sample 035 By Administrator Date Friday, September 05 2025
cm-1,A
4000.00,0.0009
3999.00,0.0009
3998.00,0.0008
3997.00,0.0009
3996.00,0.0009
3995.00,0.0009
3994.00,0.0009
3993.00,0.0010
3992.00,0.0010
3991.00,0.0010
3990.00,0.0009
3989.00,0.0009
3988.00,0.0009
3987.00,0.0009
3986.00,0.0009
3985.00,0.0008
3984.00,0.0008
3983.00,0.0008
3982.00,0.0008
3981.00,0.0008
3980.00,0.0008
3979.00,0.0008
3978.00,0.0008
3977.00,0.0008
3976.00,0.0008
3975.00,0.0008
3974.00,0.0008
3973.00,0.0007
3972.00,0.0007
3971.00,0.0007
3970.00,0.0007
3969.00,0.0007
3968.00,0.0007
3967.00,0.0007
3966.00,0.0007
3965.00,0.0007
3964.00,0.0007
3963.00,0.0008
3962.00,0.0008
3961.00,0.0008
3960.00,0.0008
3959.00,0.0008
3958.00,0.0007
3957.00,0.0007
3956.00,0.0007
3955.00,0.0007
3954.00,0.0007
3953.00,0.0007
3952.00,0.0007
3951.00,0.0007
3950.00,0.0007
3949.00,0.0007
3948.00,0.0007
3947.00,0.0007
3946.00,0.0007
3945.00,0.0007
3944.00,0.0007
3943.00,0.0007
3942.00,0.0007
3941.00,0.0007
3940.00,0.0007
3939.00,0.0008
3938.00,0.0008
3937.00,0.0008
3936.00,0.0008
3935.00,0.0008
3934.00,0.0008
3933.00,0.0008
3932.00,0.0008
3931.00,0.0008
3930.00,0.0008
3929.00,0.0007
3928.00,0.0007
3927.00,0.0007
3926.00,0.0007
3925.00,0.0007
3924.00,0.0007
3923.00,0.0007
3922.00,0.0008
3921.00,0.0008
3920.00,0.0008
3919.00,0.0008
3918.00,0.0008
3917.00,0.0008
3916.00,0.0008
3915.00,0.0007
3914.00,0.0007
3913.00,0.0007
3912.00,0.0007
3911.00,0.0007
3910.00,0.0007
3909.00,0.0008
3908.00,0.0008
3907.00,0.0008
3906.00,0.0007
3905.00,0.0007
3904.00,0.0007
3903.00,0.0006
3902.00,0.0006
3901.00,0.0007
3900.00,0.0007
3899.00,0.0007
3898.00,0.0007
3897.00,0.0007
3896.00,0.0008
3895.00,0.0008
3894.00,0.0007
3893.00,0.0007
3892.00,0.0007
3891.00,0.0007
3890.00,0.0007
3889.00,0.0007
3888.00,0.0007
3887.00,0.0006
3886.00,0.0006
3885.00,0.0006
3884.00,0.0006
3883.00,0.0006
3882.00,0.0007
3881.00,0.0007
3880.00,0.0007
3879.00,0.0007
3878.00,0.0007
3877.00,0.0007
3876.00,0.0007
3875.00,0.0007
3874.00,0.0007
3873.00,0.0007
3872.00,0.0006
3871.00,0.0006
3870.00,0.0006
3869.00,0.0006
3868.00,0.0006
3867.00,0.0006
3866.00,0.0006
3865.00,0.0007
3864.00,0.0007
3863.00,0.0007
3862.00,0.0007
3861.00,0.0007
3860.00,0.0006
3859.00,0.0006
3858.00,0.0005
3857.00,0.0005
3856.00,0.0005
3855.00,0.0005
3854.00,0.0005
3853.00,0.0005
3852.00,0.0005
3851.00,0.0005
3850.00,0.0006
3849.00,0.0006
3848.00,0.0006
3847.00,0.0007
3846.00,0.0007
3845.00,0.0007
3844.00,0.0007
3843.00,0.0007
3842.00,0.0007
3841.00,0.0007
3840.00,0.0007
3839.00,0.0006
3838.00,0.0006
3837.00,0.0006
3836.00,0.0006
3835.00,0.0006
3834.00,0.0006
3833.00,0.0006
3832.00,0.0007
3831.00,0.0007
3830.00,0.0007
3829.00,0.0007
3828.00,0.0007
3827.00,0.0007
3826.00,0.0007
3825.00,0.0007
3824.00,0.0007
3823.00,0.0007
3822.00,0.0007
3821.00,0.0006
3820.00,0.0006
3819.00,0.0006
3818.00,0.0006
3817.00,0.0006
3816.00,0.0006
3815.00,0.0006
3814.00,0.0006
3813.00,0.0006
3812.00,0.0007
3811.00,0.0007
3810.00,0.0007
3809.00,0.0007
3808.00,0.0007
3807.00,0.0007
3806.00,0.0007
3805.00,0.0006
3804.00,0.0006
3803.00,0.0006
3802.00,0.0006
3801.00,0.0006
3800.00,0.0006
3799.00,0.0006
3798.00,0.0006
3797.00,0.0007
3796.00,0.0007
3795.00,0.0007
3794.00,0.0007
3793.00,0.0007
3792.00,0.0007
3791.00,0.0007
3790.00,0.0007
3789.00,0.0007
3788.00,0.0008
3787.00,0.0008
3786.00,0.0008
3785.00,0.0008
3784.00,0.0007
3783.00,0.0007
3782.00,0.0007
3781.00,0.0007
3780.00,0.0007
3779.00,0.0007
3778.00,0.0007
3777.00,0.0007
3776.00,0.0008
3775.00,0.0008
3774.00,0.0008
3773.00,0.0008
3772.00,0.0008
3771.00,0.0007
3770.00,0.0007
3769.00,0.0007
3768.00,0.0007
3767.00,0.0007
3766.00,0.0007
3765.00,0.0006
3764.00,0.0006
3763.00,0.0007
3762.00,0.0007
3761.00,0.0007
3760.00,0.0008
3759.00,0.0008
3758.00,0.0008
3757.00,0.0007
3756.00,0.0007
3755.00,0.0007
3754.00,0.0007
3753.00,0.0006
3752.00,0.0006
3751.00,0.0006
3750.00,0.0005
3749.00,0.0005
3748.00,0.0005
3747.00,0.0006
3746.00,0.0006
3745.00,0.0006
3744.00,0.0006
3743.00,0.0007
3742.00,0.0007
3741.00,0.0007
3740.00,0.0007
3739.00,0.0007
3738.00,0.0007
3737.00,0.0007
3736.00,0.0007
3735.00,0.0007
3734.00,0.0007
3733.00,0.0007
3732.00,0.0006
3731.00,0.0006
3730.00,0.0006
3729.00,0.0006
3728.00,0.0006
3727.00,0.0007
3726.00,0.0007
3725.00,0.0007
3724.00,0.0006
3723.00,0.0006
3722.00,0.0006
3721.00,0.0006
3720.00,0.0007
3719.00,0.0007
3718.00,0.0007
3717.00,0.0006
3716.00,0.0006
3715.00,0.0006
3714.00,0.0006
3713.00,0.0006
3712.00,0.0005
3711.00,0.0005
3710.00,0.0005
3709.00,0.0005
3708.00,0.0006
3707.00,0.0006
3706.00,0.0006
3705.00,0.0006
3704.00,0.0006
3703.00,0.0006
3702.00,0.0006
3701.00,0.0006
3700.00,0.0006
3699.00,0.0007
3698.00,0.0007
3697.00,0.0007
3696.00,0.0007
3695.00,0.0008
3694.00,0.0008
3693.00,0.0007
3692.00,0.0007
3691.00,0.0006
3690.00,0.0006
3689.00,0.0006
3688.00,0.0005
3687.00,0.0006
3686.00,0.0006
3685.00,0.0006
3684.00,0.0007
3683.00,0.0007
3682.00,0.0007
3681.00,0.0007
3680.00,0.0007
3679.00,0.0008
3678.00,0.0008
3677.00,0.0009
3676.00,0.0008
3675.00,0.0007
3674.00,0.0005
3673.00,0.0004
3672.00,0.0004
3671.00,0.0005
3670.00,0.0005
3669.00,0.0006
3668.00,0.0006
3667.00,0.0006
3666.00,0.0006
3665.00,0.0007
3664.00,0.0007
3663.00,0.0007
3662.00,0.0007
3661.00,0.0006
3660.00,0.0006
3659.00,0.0006
3658.00,0.0006
3657.00,0.0006
3656.00,0.0006
3655.00,0.0006
3654.00,0.0006
3653.00,0.0006
3652.00,0.0006
3651.00,0.0006
3650.00,0.0006
3649.00,0.0007
3648.00,0.0007
3647.00,0.0007
3646.00,0.0007
3645.00,0.0007
3644.00,0.0007
3643.00,0.0007
3642.00,0.0007
3641.00,0.0007
3640.00,0.0008
3639.00,0.0008
3638.00,0.0009
3637.00,0.0009
3636.00,0.0009
3635.00,0.0009
3634.00,0.0009
3633.00,0.0009
3632.00,0.0010
3631.00,0.0010
3630.00,0.0011
3629.00,0.0011
3628.00,0.0010
3627.00,0.0009
3626.00,0.0009
3625.00,0.0010
3624.00,0.0010
3623.00,0.0011
3622.00,0.0012
3621.00,0.0012
3620.00,0.0012
3619.00,0.0012
3618.00,0.0012
3617.00,0.0012
3616.00,0.0012
3615.00,0.0012
3614.00,0.0013
3613.00,0.0013
3612.00,0.0014
3611.00,0.0014
3610.00,0.0014
3609.00,0.0014
3608.00,0.0014
3607.00,0.0014
3606.00,0.0014
3605.00,0.0014
3604.00,0.0014
3603.00,0.0015
3602.00,0.0016
3601.00,0.0016
3600.00,0.0017
3599.00,0.0017
3598.00,0.0017
3597.00,0.0017
3596.00,0.0017
3595.00,0.0018
3594.00,0.0018
3593.00,0.0019
3592.00,0.0019
3591.00,0.0019
3590.00,0.0019
3589.00,0.0019
3588.00,0.0019
3587.00,0.0019
3586.00,0.0019
3585.00,0.0020
3584.00,0.0020
3583.00,0.0020
3582.00,0.0020
3581.00,0.0020
3580.00,0.0019
3579.00,0.0019
3578.00,0.0020
3577.00,0.0020
3576.00,0.0021
3575.00,0.0022
3574.00,0.0022
3573.00,0.0023
3572.00,0.0023
3571.00,0.0024
3570.00,0.0025
3569.00,0.0025
3568.00,0.0026
3567.00,0.0026
3566.00,0.0026
3565.00,0.0025
3564.00,0.0025
3563.00,0.0025
3562.00,0.0025
3561.00,0.0026
3560.00,0.0026
3559.00,0.0027
3558.00,0.0027
3557.00,0.0028
3556.00,0.0028
3555.00,0.0028
3554.00,0.0028
3553.00,0.0028
3552.00,0.0028
3551.00,0.0029
3550.00,0.0029
3549.00,0.0030
3548.00,0.0030
3547.00,0.0031
3546.00,0.0031
3545.00,0.0031
3544.00,0.0031
3543.00,0.0031
3542.00,0.0032
3541.00,0.0032
3540.00,0.0033
3539.00,0.0033
3538.00,0.0033
3537.00,0.0033
3536.00,0.0033
3535.00,0.0034
3534.00,0.0034
3533.00,0.0035
3532.00,0.0036
3531.00,0.0036
3530.00,0.0036
3529.00,0.0037
3528.00,0.0036
3527.00,0.0036
3526.00,0.0036
3525.00,0.0037
3524.00,0.0037
3523.00,0.0037
3522.00,0.0037
3521.00,0.0037
3520.00,0.0037
3519.00,0.0038
3518.00,0.0038
3517.00,0.0039
3516.00,0.0039
3515.00,0.0039
3514.00,0.0040
3513.00,0.0040
3512.00,0.0041
3511.00,0.0041
3510.00,0.0041
3509.00,0.0041
3508.00,0.0041
3507.00,0.0042
3506.00,0.0042
3505.00,0.0043
3504.00,0.0043
3503.00,0.0043
3502.00,0.0043
3501.00,0.0043
3500.00,0.0044
3499.00,0.0044
3498.00,0.0045
3497.00,0.0045
3496.00,0.0046
3495.00,0.0046
3494.00,0.0046
3493.00,0.0046
3492.00,0.0046
3491.00,0.0046
3490.00,0.0046
3489.00,0.0047
3488.00,0.0047
3487.00,0.0047
3486.00,0.0048
3485.00,0.0048
3484.00,0.0049
3483.00,0.0049
3482.00,0.0049
3481.00,0.0049
3480.00,0.0049
3479.00,0.0049
3478.00,0.0049
3477.00,0.0050
3476.00,0.0050
3475.00,0.0051
3474.00,0.0051
3473.00,0.0051
3472.00,0.0052
3471.00,0.0052
3470.00,0.0052
3469.00,0.0052
3468.00,0.0053
3467.00,0.0053
3466.00,0.0053
3465.00,0.0053
3464.00,0.0053
3463.00,0.0053
3462.00,0.0053
3461.00,0.0054
3460.00,0.0054
3459.00,0.0054
3458.00,0.0054
3457.00,0.0055
3456.00,0.0055
3455.00,0.0056
3454.00,0.0056
3453.00,0.0055
3452.00,0.0055
3451.00,0.0055
3450.00,0.0055
3449.00,0.0056
3448.00,0.0057
3447.00,0.0057
3446.00,0.0058
3445.00,0.0058
3444.00,0.0058
3443.00,0.0058
3442.00,0.0058
3441.00,0.0059
3440.00,0.0059
3439.00,0.0059
3438.00,0.0059
3437.00,0.0059
3436.00,0.0060
3435.00,0.0060
3434.00,0.0060
3433.00,0.0060
3432.00,0.0060
3431.00,0.0060
3430.00,0.0061
3429.00,0.0061
3428.00,0.0061
3427.00,0.0062
3426.00,0.0062
3425.00,0.0062
3424.00,0.0063
3423.00,0.0063
3422.00,0.0064
3421.00,0.0064
3420.00,0.0064
3419.00,0.0064
3418.00,0.0064
3417.00,0.0064
3416.00,0.0064
3415.00,0.0064
3414.00,0.0064
3413.00,0.0064
3412.00,0.0065
3411.00,0.0065
3410.00,0.0065
3409.00,0.0064
3408.00,0.0064
3407.00,0.0064
3406.00,0.0064
3405.00,0.0064
3404.00,0.0065
3403.00,0.0065
3402.00,0.0065
3401.00,0.0066
3400.00,0.0066
3399.00,0.0066
3398.00,0.0066
3397.00,0.0066
3396.00,0.0066
3395.00,0.0066
3394.00,0.0066
3393.00,0.0066
3392.00,0.0066
3391.00,0.0066
3390.00,0.0065
3389.00,0.0065
3388.00,0.0066
3387.00,0.0066
3386.00,0.0066
3385.00,0.0066
3384.00,0.0067
3383.00,0.0067
3382.00,0.0067
3381.00,0.0067
3380.00,0.0067
3379.00,0.0068
3378.00,0.0068
3377.00,0.0067
3376.00,0.0067
3375.00,0.0067
3374.00,0.0067
3373.00,0.0067
3372.00,0.0067
3371.00,0.0067
3370.00,0.0067
3369.00,0.0067
3368.00,0.0067
3367.00,0.0067
3366.00,0.0067
3365.00,0.0067
3364.00,0.0067
3363.00,0.0067
3362.00,0.0067
3361.00,0.0067
3360.00,0.0067
3359.00,0.0067
3358.00,0.0067
3357.00,0.0067
3356.00,0.0067
3355.00,0.0067
3354.00,0.0067
3353.00,0.0067
3352.00,0.0067
3351.00,0.0067
3350.00,0.0067
3349.00,0.0067
3348.00,0.0066
3347.00,0.0066
3346.00,0.0066
3345.00,0.0066
3344.00,0.0066
3343.00,0.0066
3342.00,0.0065
3341.00,0.0065
3340.00,0.0066
3339.00,0.0066
3338.00,0.0066
3337.00,0.0066
3336.00,0.0066
3335.00,0.0065
3334.00,0.0064
3333.00,0.0064
3332.00,0.0063
3331.00,0.0063
3330.00,0.0063
3329.00,0.0063
3328.00,0.0063
3327.00,0.0063
3326.00,0.0063
3325.00,0.0063
3324.00,0.0063
3323.00,0.0063
3322.00,0.0063
3321.00,0.0063
3320.00,0.0063
3319.00,0.0063
3318.00,0.0063
3317.00,0.0062
3316.00,0.0062
3315.00,0.0062
3314.00,0.0062
3313.00,0.0062
3312.00,0.0062
3311.00,0.0062
3310.00,0.0062
3309.00,0.0062
3308.00,0.0062
3307.00,0.0062
3306.00,0.0063
3305.00,0.0063
3304.00,0.0063
3303.00,0.0063
3302.00,0.0063
3301.00,0.0063
3300.00,0.0063
3299.00,0.0063
3298.00,0.0063
3297.00,0.0062
3296.00,0.0062
3295.00,0.0061
3294.00,0.0061
3293.00,0.0060
3292.00,0.0060
3291.00,0.0060
3290.00,0.0059
3289.00,0.0059
3288.00,0.0059
3287.00,0.0058
3286.00,0.0058
3285.00,0.0058
3284.00,0.0058
3283.00,0.0058
3282.00,0.0058
3281.00,0.0058
3280.00,0.0058
3279.00,0.0057
3278.00,0.0057
3277.00,0.0057
3276.00,0.0057
3275.00,0.0057
3274.00,0.0057
3273.00,0.0057
3272.00,0.0056
3271.00,0.0056
3270.00,0.0056
3269.00,0.0056
3268.00,0.0055
3267.00,0.0055
3266.00,0.0055
3265.00,0.0054
3264.00,0.0054
3263.00,0.0054
3262.00,0.0053
3261.00,0.0053
3260.00,0.0053
3259.00,0.0052
3258.00,0.0052
3257.00,0.0052
3256.00,0.0052
3255.00,0.0051
3254.00,0.0051
3253.00,0.0051
3252.00,0.0050
3251.00,0.0050
3250.00,0.0050
3249.00,0.0050
3248.00,0.0050
3247.00,0.0050
3246.00,0.0050
3245.00,0.0050
3244.00,0.0050
3243.00,0.0049
3242.00,0.0049
3241.00,0.0049
3240.00,0.0049
3239.00,0.0049
3238.00,0.0048
3237.00,0.0048
3236.00,0.0048
3235.00,0.0048
3234.00,0.0048
3233.00,0.0048
3232.00,0.0048
3231.00,0.0048
3230.00,0.0048
3229.00,0.0048
3228.00,0.0048
3227.00,0.0048
3226.00,0.0048
3225.00,0.0048
3224.00,0.0048
3223.00,0.0048
3222.00,0.0048
3221.00,0.0048
3220.00,0.0049
3219.00,0.0049
3218.00,0.0049
3217.00,0.0050
3216.00,0.0050
3215.00,0.0050
3214.00,0.0050
3213.00,0.0050
3212.00,0.0050
3211.00,0.0050
3210.00,0.0050
3209.00,0.0050
3208.00,0.0050
3207.00,0.0050
3206.00,0.0050
3205.00,0.0050
3204.00,0.0050
3203.00,0.0050
3202.00,0.0050
3201.00,0.0050
3200.00,0.0050
3199.00,0.0049
3198.00,0.0049
3197.00,0.0049
3196.00,0.0049
3195.00,0.0048
3194.00,0.0048
3193.00,0.0048
3192.00,0.0048
3191.00,0.0048
3190.00,0.0048
3189.00,0.0048
3188.00,0.0048
3187.00,0.0048
3186.00,0.0048
3185.00,0.0048
3184.00,0.0047
3183.00,0.0047
3182.00,0.0047
3181.00,0.0046
3180.00,0.0046
3179.00,0.0045
3178.00,0.0045
3177.00,0.0045
3176.00,0.0044
3175.00,0.0044
3174.00,0.0044
3173.00,0.0044
3172.00,0.0044
3171.00,0.0044
3170.00,0.0044
3169.00,0.0044
3168.00,0.0043
3167.00,0.0043
3166.00,0.0043
3165.00,0.0043
3164.00,0.0043
3163.00,0.0043
3162.00,0.0043
3161.00,0.0042
3160.00,0.0042
3159.00,0.0042
3158.00,0.0042
3157.00,0.0042
3156.00,0.0042
3155.00,0.0042
3154.00,0.0041
3153.00,0.0042
3152.00,0.0042
3151.00,0.0042
3150.00,0.0042
3149.00,0.0042
3148.00,0.0042
3147.00,0.0041
3146.00,0.0041
3145.00,0.0040
3144.00,0.0040
3143.00,0.0040
3142.00,0.0040
3141.00,0.0040
3140.00,0.0040
3139.00,0.0040
3138.00,0.0039
3137.00,0.0039
3136.00,0.0039
3135.00,0.0039
3134.00,0.0039
3133.00,0.0038
3132.00,0.0038
3131.00,0.0038
3130.00,0.0038
3129.00,0.0037
3128.00,0.0037
3127.00,0.0037
3126.00,0.0037
3125.00,0.0037
3124.00,0.0036
3123.00,0.0036
3122.00,0.0035
3121.00,0.0035
3120.00,0.0034
3119.00,0.0034
3118.00,0.0034
3117.00,0.0034
3116.00,0.0034
3115.00,0.0034
3114.00,0.0034
3113.00,0.0034
3112.00,0.0034
3111.00,0.0033
3110.00,0.0033
3109.00,0.0033
3108.00,0.0033
3107.00,0.0033
3106.00,0.0033
3105.00,0.0033
3104.00,0.0033
3103.00,0.0033
3102.00,0.0033
3101.00,0.0032
3100.00,0.0032
3099.00,0.0032
3098.00,0.0032
3097.00,0.0032
3096.00,0.0032
3095.00,0.0032
3094.00,0.0032
3093.00,0.0032
3092.00,0.0032
3091.00,0.0032
3090.00,0.0032
3089.00,0.0032
3088.00,0.0032
3087.00,0.0032
3086.00,0.0032
3085.00,0.0032
3084.00,0.0031
3083.00,0.0031
3082.00,0.0032
3081.00,0.0032
3080.00,0.0032
3079.00,0.0032
3078.00,0.0032
3077.00,0.0032
3076.00,0.0032
3075.00,0.0032
3074.00,0.0032
3073.00,0.0032
3072.00,0.0032
3071.00,0.0033
3070.00,0.0033
3069.00,0.0033
3068.00,0.0033
3067.00,0.0034
3066.00,0.0034
3065.00,0.0034
3064.00,0.0034
3063.00,0.0034
3062.00,0.0034
3061.00,0.0034
3060.00,0.0034
3059.00,0.0034
3058.00,0.0034
3057.00,0.0035
3056.00,0.0035
3055.00,0.0035
3054.00,0.0035
3053.00,0.0035
3052.00,0.0035
3051.00,0.0035
3050.00,0.0035
3049.00,0.0036
3048.00,0.0036
3047.00,0.0036
3046.00,0.0037
3045.00,0.0037
3044.00,0.0037
3043.00,0.0037
3042.00,0.0037
3041.00,0.0038
3040.00,0.0038
3039.00,0.0039
3038.00,0.0039
3037.00,0.0039
3036.00,0.0040
3035.00,0.0040
3034.00,0.0041
3033.00,0.0041
3032.00,0.0042
3031.00,0.0042
3030.00,0.0042
3029.00,0.0043
3028.00,0.0043
3027.00,0.0043
3026.00,0.0044
3025.00,0.0044
3024.00,0.0045
3023.00,0.0045
3022.00,0.0046
3021.00,0.0046
3020.00,0.0047
3019.00,0.0048
3018.00,0.0048
3017.00,0.0049
3016.00,0.0050
3015.00,0.0051
3014.00,0.0051
3013.00,0.0052
3012.00,0.0053
3011.00,0.0054
3010.00,0.0055
3009.00,0.0056
3008.00,0.0057
3007.00,0.0059
3006.00,0.0060
3005.00,0.0061
3004.00,0.0062
3003.00,0.0064
3002.00,0.0065
3001.00,0.0067
3000.00,0.0069
2999.00,0.0071
2998.00,0.0074
2997.00,0.0077
2996.00,0.0081
2995.00,0.0084
2994.00,0.0088
2993.00,0.0092
2992.00,0.0096
2991.00,0.0101
2990.00,0.0106
2989.00,0.0113
2988.00,0.0120
2987.00,0.0128
2986.00,0.0136
2985.00,0.0145
2984.00,0.0155
2983.00,0.0167
2982.00,0.0180
2981.00,0.0195
2980.00,0.0213
2979.00,0.0233
2978.00,0.0256
2977.00,0.0282
2976.00,0.0311
2975.00,0.0345
2974.00,0.0383
2973.00,0.0426
2972.00,0.0475
2971.00,0.0529
2970.00,0.0589
2969.00,0.0654
2968.00,0.0723
2967.00,0.0796
2966.00,0.0871
2965.00,0.0945
2964.00,0.1016
2963.00,0.1081
2962.00,0.1136
2961.00,0.1183
2960.00,0.1224
2959.00,0.1263
2958.00,0.1305
2957.00,0.1357
2956.00,0.1421
2955.00,0.1497
2954.00,0.1584
2953.00,0.1675
2952.00,0.1758
2951.00,0.1820
2950.00,0.1850
2949.00,0.1839
2948.00,0.1784
2947.00,0.1694
2946.00,0.1579
2945.00,0.1455
2944.00,0.1336
2943.00,0.1234
2942.00,0.1155
2941.00,0.1100
2940.00,0.1069
2939.00,0.1061
2938.00,0.1073
2937.00,0.1104
2936.00,0.1150
2935.00,0.1212
2934.00,0.1288
2933.00,0.1377
2932.00,0.1478
2931.00,0.1588
2930.00,0.1706
2929.00,0.1829
2928.00,0.1953
2927.00,0.2076
2926.00,0.2197
2925.00,0.2317
2924.00,0.2435
2923.00,0.2554
2922.00,0.2673
2921.00,0.2789
2920.00,0.2895
2919.00,0.2978
2918.00,0.3025
2917.00,0.3023
2916.00,0.2971
2915.00,0.2876
2914.00,0.2751
2913.00,0.2613
2912.00,0.2476
2911.00,0.2349
2910.00,0.2234
2909.00,0.2133
2908.00,0.2041
2907.00,0.1956
2906.00,0.1876
2905.00,0.1798
2904.00,0.1723
2903.00,0.1650
2902.00,0.1579
2901.00,0.1511
2900.00,0.1447
2899.00,0.1386
2898.00,0.1329
2897.00,0.1278
2896.00,0.1231
2895.00,0.1191
2894.00,0.1157
2893.00,0.1129
2892.00,0.1106
2891.00,0.1090
2890.00,0.1078
2889.00,0.1071
2888.00,0.1068
2887.00,0.1068
2886.00,0.1071
2885.00,0.1079
2884.00,0.1091
2883.00,0.1108
2882.00,0.1130
2881.00,0.1155
2880.00,0.1181
2879.00,0.1204
2878.00,0.1220
2877.00,0.1226
2876.00,0.1225
2875.00,0.1219
2874.00,0.1214
2873.00,0.1214
2872.00,0.1221
2871.00,0.1236
2870.00,0.1257
2869.00,0.1277
2868.00,0.1291
2867.00,0.1290
2866.00,0.1268
2865.00,0.1223
2864.00,0.1158
2863.00,0.1082
2862.00,0.1006
2861.00,0.0939
2860.00,0.0887
2859.00,0.0851
2858.00,0.0831
2857.00,0.0824
2856.00,0.0829
2855.00,0.0842
2854.00,0.0862
2853.00,0.0884
2852.00,0.0908
2851.00,0.0928
2850.00,0.0942
2849.00,0.0948
2848.00,0.0949
2847.00,0.0952
2846.00,0.0961
2845.00,0.0980
2844.00,0.1011
2843.00,0.1051
2842.00,0.1096
2841.00,0.1138
2840.00,0.1171
2839.00,0.1186
2838.00,0.1178
2837.00,0.1142
2836.00,0.1078
2835.00,0.0992
2834.00,0.0893
2833.00,0.0791
2832.00,0.0694
2831.00,0.0607
2830.00,0.0534
2829.00,0.0473
2828.00,0.0424
2827.00,0.0384
2826.00,0.0351
2825.00,0.0324
2824.00,0.0302
2823.00,0.0283
2822.00,0.0267
2821.00,0.0253
2820.00,0.0242
2819.00,0.0231
2818.00,0.0222
2817.00,0.0214
2816.00,0.0207
2815.00,0.0201
2814.00,0.0194
2813.00,0.0189
2812.00,0.0183
2811.00,0.0177
2810.00,0.0172
2809.00,0.0166
2808.00,0.0159
2807.00,0.0153
2806.00,0.0146
2805.00,0.0139
2804.00,0.0133
2803.00,0.0127
2802.00,0.0122
2801.00,0.0118
2800.00,0.0114
2799.00,0.0111
2798.00,0.0109
2797.00,0.0106
2796.00,0.0104
2795.00,0.0101
2794.00,0.0098
2793.00,0.0096
2792.00,0.0093
2791.00,0.0090
2790.00,0.0088
2789.00,0.0085
2788.00,0.0083
2787.00,0.0080
2786.00,0.0077
2785.00,0.0075
2784.00,0.0072
2783.00,0.0070
2782.00,0.0068
2781.00,0.0067
2780.00,0.0065
2779.00,0.0063
2778.00,0.0062
2777.00,0.0061
2776.00,0.0060
2775.00,0.0059
2774.00,0.0058
2773.00,0.0057
2772.00,0.0057
2771.00,0.0056
2770.00,0.0056
2769.00,0.0055
2768.00,0.0055
2767.00,0.0055
2766.00,0.0054
2765.00,0.0054
2764.00,0.0054
2763.00,0.0053
2762.00,0.0052
2761.00,0.0052
2760.00,0.0051
2759.00,0.0051
2758.00,0.0051
2757.00,0.0052
2756.00,0.0052
2755.00,0.0052
2754.00,0.0051
2753.00,0.0051
2752.00,0.0050
2751.00,0.0049
2750.00,0.0049
2749.00,0.0049
2748.00,0.0050
2747.00,0.0050
2746.00,0.0051
2745.00,0.0052
2744.00,0.0052
2743.00,0.0053
2742.00,0.0054
2741.00,0.0055
2740.00,0.0056
2739.00,0.0057
2738.00,0.0058
2737.00,0.0059
2736.00,0.0060
2735.00,0.0062
2734.00,0.0064
2733.00,0.0066
2732.00,0.0068
2731.00,0.0070
2730.00,0.0072
2729.00,0.0074
2728.00,0.0076
2727.00,0.0079
2726.00,0.0081
2725.00,0.0084
2724.00,0.0086
2723.00,0.0087
2722.00,0.0086
2721.00,0.0085
2720.00,0.0082
2719.00,0.0079
2718.00,0.0075
2717.00,0.0072
2716.00,0.0069
2715.00,0.0066
2714.00,0.0063
2713.00,0.0061
2712.00,0.0059
2711.00,0.0057
2710.00,0.0056
2709.00,0.0054
2708.00,0.0053
2707.00,0.0051
2706.00,0.0050
2705.00,0.0049
2704.00,0.0048
2703.00,0.0047
2702.00,0.0047
2701.00,0.0046
2700.00,0.0045
2699.00,0.0045
2698.00,0.0044
2697.00,0.0043
2696.00,0.0043
2695.00,0.0043
2694.00,0.0043
2693.00,0.0043
2692.00,0.0043
2691.00,0.0043
2690.00,0.0043
2689.00,0.0043
2688.00,0.0043
2687.00,0.0044
2686.00,0.0044
2685.00,0.0044
2684.00,0.0044
2683.00,0.0044
2682.00,0.0044
2681.00,0.0044
2680.00,0.0044
2679.00,0.0044
2678.00,0.0044
2677.00,0.0044
2676.00,0.0044
2675.00,0.0044
2674.00,0.0043
2673.00,0.0043
2672.00,0.0043
2671.00,0.0043
2670.00,0.0043
2669.00,0.0044
2668.00,0.0044
2667.00,0.0044
2666.00,0.0044
2665.00,0.0045
2664.00,0.0045
2663.00,0.0046
2662.00,0.0046
2661.00,0.0046
2660.00,0.0047
2659.00,0.0047
2658.00,0.0047
2657.00,0.0047
2656.00,0.0047
2655.00,0.0047
2654.00,0.0046
2653.00,0.0045
2652.00,0.0044
2651.00,0.0044
2650.00,0.0044
2649.00,0.0043
2648.00,0.0043
2647.00,0.0042
2646.00,0.0041
2645.00,0.0041
2644.00,0.0040
2643.00,0.0040
2642.00,0.0039
2641.00,0.0039
2640.00,0.0038
2639.00,0.0038
2638.00,0.0037
2637.00,0.0037
2636.00,0.0037
2635.00,0.0037
2634.00,0.0038
2633.00,0.0038
2632.00,0.0038
2631.00,0.0038
2630.00,0.0038
2629.00,0.0038
2628.00,0.0038
2627.00,0.0038
2626.00,0.0038
2625.00,0.0038
2624.00,0.0038
2623.00,0.0038
2622.00,0.0038
2621.00,0.0038
2620.00,0.0039
2619.00,0.0039
2618.00,0.0039
2617.00,0.0039
2616.00,0.0039
2615.00,0.0039
2614.00,0.0038
2613.00,0.0038
2612.00,0.0037
2611.00,0.0037
2610.00,0.0036
2609.00,0.0036
2608.00,0.0036
2607.00,0.0035
2606.00,0.0034
2605.00,0.0034
2604.00,0.0033
2603.00,0.0033
2602.00,0.0033
2601.00,0.0032
2600.00,0.0032
2599.00,0.0031
2598.00,0.0031
2597.00,0.0031
2596.00,0.0031
2595.00,0.0031
2594.00,0.0031
2593.00,0.0032
2592.00,0.0032
2591.00,0.0033
2590.00,0.0033
2589.00,0.0033
2588.00,0.0033
2587.00,0.0034
2586.00,0.0035
2585.00,0.0037
2584.00,0.0038
2583.00,0.0038
2582.00,0.0038
2581.00,0.0038
2580.00,0.0037
2579.00,0.0036
2578.00,0.0035
2577.00,0.0034
2576.00,0.0033
2575.00,0.0032
2574.00,0.0031
2573.00,0.0030
2572.00,0.0029
2571.00,0.0028
2570.00,0.0026
2569.00,0.0026
2568.00,0.0025
2567.00,0.0025
2566.00,0.0025
2565.00,0.0025
2564.00,0.0024
2563.00,0.0023
2562.00,0.0022
2561.00,0.0021
2560.00,0.0021
2559.00,0.0021
2558.00,0.0021
2557.00,0.0021
2556.00,0.0022
2555.00,0.0022
2554.00,0.0021
2553.00,0.0021
2552.00,0.0020
2551.00,0.0019
2550.00,0.0018
2549.00,0.0018
2548.00,0.0018
2547.00,0.0018
2546.00,0.0018
2545.00,0.0018
2544.00,0.0018
2543.00,0.0018
2542.00,0.0018
2541.00,0.0018
2540.00,0.0017
2539.00,0.0017
2538.00,0.0017
2537.00,0.0016
2536.00,0.0016
2535.00,0.0016
2534.00,0.0016
2533.00,0.0015
2532.00,0.0015
2531.00,0.0015
2530.00,0.0015
2529.00,0.0015
2528.00,0.0014
2527.00,0.0014
2526.00,0.0014
2525.00,0.0014
2524.00,0.0014
2523.00,0.0014
2522.00,0.0013
2521.00,0.0013
2520.00,0.0013
2519.00,0.0013
2518.00,0.0012
2517.00,0.0012
2516.00,0.0011
2515.00,0.0010
2514.00,0.0010
2513.00,0.0010
2512.00,0.0011
2511.00,0.0011
2510.00,0.0010
2509.00,0.0010
2508.00,0.0010
2507.00,0.0009
2506.00,0.0009
2505.00,0.0009
2504.00,0.0009
2503.00,0.0010
2502.00,0.0011
2501.00,0.0012
2500.00,0.0012
2499.00,0.0011
2498.00,0.0010
2497.00,0.0010
2496.00,0.0010
2495.00,0.0010
2494.00,0.0011
2493.00,0.0011
2492.00,0.0011
2491.00,0.0011
2490.00,0.0010
2489.00,0.0010
2488.00,0.0009
2487.00,0.0009
2486.00,0.0009
2485.00,0.0009
2484.00,0.0008
2483.00,0.0008
2482.00,0.0007
2481.00,0.0008
2480.00,0.0008
2479.00,0.0009
2478.00,0.0009
2477.00,0.0009
2476.00,0.0009
2475.00,0.0008
2474.00,0.0008
2473.00,0.0008
2472.00,0.0008
2471.00,0.0008
2470.00,0.0008
2469.00,0.0009
2468.00,0.0009
2467.00,0.0009
2466.00,0.0009
2465.00,0.0009
2464.00,0.0009
2463.00,0.0009
2462.00,0.0009
2461.00,0.0009
2460.00,0.0009
2459.00,0.0009
2458.00,0.0009
2457.00,0.0010
2456.00,0.0010
2455.00,0.0010
2454.00,0.0010
2453.00,0.0010
2452.00,0.0010
2451.00,0.0011
2450.00,0.0011
2449.00,0.0011
2448.00,0.0011
2447.00,0.0011
2446.00,0.0011
2445.00,0.0011
2444.00,0.0010
2443.00,0.0010
2442.00,0.0010
2441.00,0.0010
2440.00,0.0010
2439.00,0.0010
2438.00,0.0010
2437.00,0.0010
2436.00,0.0011
2435.00,0.0011
2434.00,0.0011
2433.00,0.0011
2432.00,0.0011
2431.00,0.0011
2430.00,0.0010
2429.00,0.0010
2428.00,0.0010
2427.00,0.0010
2426.00,0.0010
2425.00,0.0010
2424.00,0.0011
2423.00,0.0011
2422.00,0.0011
2421.00,0.0010
2420.00,0.0010
2419.00,0.0010
2418.00,0.0010
2417.00,0.0009
2416.00,0.0008
2415.00,0.0008
2414.00,0.0008
2413.00,0.0008
2412.00,0.0008
2411.00,0.0008
2410.00,0.0008
2409.00,0.0008
2408.00,0.0008
2407.00,0.0007
2406.00,0.0007
2405.00,0.0007
2404.00,0.0007
2403.00,0.0008
2402.00,0.0008
2401.00,0.0008
2400.00,0.0008
2399.00,0.0008
2398.00,0.0008
2397.00,0.0007
2396.00,0.0007
2395.00,0.0007
2394.00,0.0007
2393.00,0.0007
2392.00,0.0007
2391.00,0.0006
2390.00,0.0006
2389.00,0.0005
2388.00,0.0005
2387.00,0.0005
2386.00,0.0005
2385.00,0.0005
2384.00,0.0005
2383.00,0.0005
2382.00,0.0005
2381.00,0.0004
2380.00,0.0004
2379.00,0.0003
2378.00,0.0003
2377.00,0.0003
2376.00,0.0003
2375.00,0.0003
2374.00,0.0004
2373.00,0.0005
2372.00,0.0005
2371.00,0.0005
2370.00,0.0005
2369.00,0.0005
2368.00,0.0005
2367.00,0.0005
2366.00,0.0005
2365.00,0.0005
2364.00,0.0005
2363.00,0.0006
2362.00,0.0007
2361.00,0.0008
2360.00,0.0008
2359.00,0.0009
2358.00,0.0008
2357.00,0.0008
2356.00,0.0008
2355.00,0.0007
2354.00,0.0006
2353.00,0.0006
2352.00,0.0006
2351.00,0.0007
2350.00,0.0007
2349.00,0.0007
2348.00,0.0007
2347.00,0.0008
2346.00,0.0008
2345.00,0.0008
2344.00,0.0009
2343.00,0.0009
2342.00,0.0009
2341.00,0.0010
2340.00,0.0010
2339.00,0.0010
2338.00,0.0010
2337.00,0.0010
2336.00,0.0010
2335.00,0.0009
2334.00,0.0009
2333.00,0.0008
2332.00,0.0008
2331.00,0.0008
2330.00,0.0008
2329.00,0.0009
2328.00,0.0011
2327.00,0.0014
2326.00,0.0018
2325.00,0.0022
2324.00,0.0023
2323.00,0.0022
2322.00,0.0020
2321.00,0.0018
2320.00,0.0017
2319.00,0.0015
2318.00,0.0015
2317.00,0.0014
2316.00,0.0014
2315.00,0.0013
2314.00,0.0012
2313.00,0.0011
2312.00,0.0010
2311.00,0.0009
2310.00,0.0009
2309.00,0.0008
2308.00,0.0009
2307.00,0.0009
2306.00,0.0010
2305.00,0.0010
2304.00,0.0010
2303.00,0.0010
2302.00,0.0010
2301.00,0.0011
2300.00,0.0012
2299.00,0.0012
2298.00,0.0012
2297.00,0.0012
2296.00,0.0013
2295.00,0.0014
2294.00,0.0015
2293.00,0.0016
2292.00,0.0016
2291.00,0.0016
2290.00,0.0016
2289.00,0.0016
2288.00,0.0017
2287.00,0.0018
2286.00,0.0019
2285.00,0.0019
2284.00,0.0018
2283.00,0.0017
2282.00,0.0016
2281.00,0.0015
2280.00,0.0015
2279.00,0.0014
2278.00,0.0013
2277.00,0.0013
2276.00,0.0013
2275.00,0.0013
2274.00,0.0014
2273.00,0.0014
2272.00,0.0013
2271.00,0.0012
2270.00,0.0011
2269.00,0.0010
2268.00,0.0010
2267.00,0.0010
2266.00,0.0011
2265.00,0.0012
2264.00,0.0012
2263.00,0.0011
2262.00,0.0011
2261.00,0.0011
2260.00,0.0012
2259.00,0.0013
2258.00,0.0013
2257.00,0.0012
2256.00,0.0011
2255.00,0.0009
2254.00,0.0008
2253.00,0.0007
2252.00,0.0007
2251.00,0.0006
2250.00,0.0006
2249.00,0.0006
2248.00,0.0008
2247.00,0.0009
2246.00,0.0009
2245.00,0.0010
2244.00,0.0010
2243.00,0.0010
2242.00,0.0009
2241.00,0.0008
2240.00,0.0008
2239.00,0.0008
2238.00,0.0009
2237.00,0.0010
2236.00,0.0010
2235.00,0.0009
2234.00,0.0008
2233.00,0.0007
2232.00,0.0006
2231.00,0.0007
2230.00,0.0008
2229.00,0.0010
2228.00,0.0011
2227.00,0.0010
2226.00,0.0009
2225.00,0.0008
2224.00,0.0008
2223.00,0.0009
2222.00,0.0008
2221.00,0.0008
2220.00,0.0007
2219.00,0.0007
2218.00,0.0007
2217.00,0.0007
2216.00,0.0007
2215.00,0.0007
2214.00,0.0006
2213.00,0.0007
2212.00,0.0007
2211.00,0.0006
2210.00,0.0005
2209.00,0.0004
2208.00,0.0003
2207.00,0.0003
2206.00,0.0003
2205.00,0.0003
2204.00,0.0004
2203.00,0.0005
2202.00,0.0005
2201.00,0.0004
2200.00,0.0004
2199.00,0.0004
2198.00,0.0005
2197.00,0.0007
2196.00,0.0008
2195.00,0.0010
2194.00,0.0011
2193.00,0.0011
2192.00,0.0011
2191.00,0.0010
2190.00,0.0010
2189.00,0.0009
2188.00,0.0009
2187.00,0.0008
2186.00,0.0009
2185.00,0.0010
2184.00,0.0010
2183.00,0.0010
2182.00,0.0009
2181.00,0.0008
2180.00,0.0007
2179.00,0.0005
2178.00,0.0002
2177.00,0.0001
2176.00,0.0000
2175.00,0.0001
2174.00,0.0004
2173.00,0.0006
2172.00,0.0009
2171.00,0.0011
2170.00,0.0014
2169.00,0.0017
2168.00,0.0020
2167.00,0.0021
2166.00,0.0020
2165.00,0.0018
2164.00,0.0017
2163.00,0.0016
2162.00,0.0015
2161.00,0.0012
2160.00,0.0003
2159.00,-0.0011
2158.00,-0.0023
2157.00,-0.0028
2156.00,-0.0028
2155.00,-0.0026
2154.00,-0.0024
2153.00,-0.0021
2152.00,-0.0018
2151.00,-0.0015
2150.00,-0.0012
2149.00,-0.0010
2148.00,-0.0009
2147.00,-0.0010
2146.00,-0.0012
2145.00,-0.0014
2144.00,-0.0014
2143.00,-0.0012
2142.00,-0.0012
2141.00,-0.0012
2140.00,-0.0013
2139.00,-0.0013
2138.00,-0.0012
2137.00,-0.0009
2136.00,-0.0008
2135.00,-0.0008
2134.00,-0.0009
2133.00,-0.0011
2132.00,-0.0013
2131.00,-0.0014
2130.00,-0.0013
2129.00,-0.0011
2128.00,-0.0010
2127.00,-0.0009
2126.00,-0.0009
2125.00,-0.0009
2124.00,-0.0008
2123.00,-0.0007
2122.00,-0.0007
2121.00,-0.0006
2120.00,-0.0005
2119.00,-0.0003
2118.00,-0.0001
2117.00,0.0001
2116.00,0.0002
2115.00,0.0003
2114.00,0.0003
2113.00,0.0002
2112.00,0.0002
2111.00,0.0002
2110.00,0.0002
2109.00,0.0002
2108.00,0.0002
2107.00,0.0002
2106.00,0.0003
2105.00,0.0003
2104.00,0.0004
2103.00,0.0004
2102.00,0.0004
2101.00,0.0004
2100.00,0.0003
2099.00,0.0001
2098.00,-0.0001
2097.00,-0.0002
2096.00,-0.0003
2095.00,-0.0004
2094.00,-0.0004
2093.00,-0.0004
2092.00,-0.0003
2091.00,-0.0001
2090.00,0.0000
2089.00,0.0002
2088.00,0.0002
2087.00,0.0002
2086.00,0.0002
2085.00,0.0002
2084.00,0.0002
2083.00,0.0002
2082.00,0.0002
2081.00,0.0002
2080.00,0.0002
2079.00,0.0002
2078.00,0.0003
2077.00,0.0003
2076.00,0.0003
2075.00,0.0002
2074.00,0.0002
2073.00,0.0003
2072.00,0.0002
2071.00,0.0001
2070.00,0.0001
2069.00,0.0001
2068.00,0.0002
2067.00,0.0000
2066.00,-0.0002
2065.00,-0.0003
2064.00,-0.0003
2063.00,-0.0002
2062.00,-0.0001
2061.00,0.0001
2060.00,0.0003
2059.00,0.0005
2058.00,0.0005
2057.00,0.0004
2056.00,0.0002
2055.00,-0.0002
2054.00,-0.0003
2053.00,-0.0000
2052.00,0.0005
2051.00,0.0011
2050.00,0.0013
2049.00,0.0011
2048.00,0.0008
2047.00,0.0004
2046.00,0.0002
2045.00,0.0001
2044.00,0.0001
2043.00,-0.0000
2042.00,-0.0003
2041.00,-0.0006
2040.00,-0.0008
2039.00,-0.0008
2038.00,-0.0006
2037.00,-0.0004
2036.00,-0.0001
2035.00,-0.0000
2034.00,-0.0001
2033.00,-0.0003
2032.00,-0.0005
2031.00,-0.0005
2030.00,-0.0004
2029.00,-0.0002
2028.00,-0.0002
2027.00,-0.0004
2026.00,-0.0007
2025.00,-0.0010
2024.00,-0.0012
2023.00,-0.0013
2022.00,-0.0014
2021.00,-0.0013
2020.00,-0.0012
2019.00,-0.0010
2018.00,-0.0010
2017.00,-0.0011
2016.00,-0.0012
2015.00,-0.0012
2014.00,-0.0011
2013.00,-0.0009
2012.00,-0.0007
2011.00,-0.0005
2010.00,-0.0006
2009.00,-0.0008
2008.00,-0.0011
2007.00,-0.0014
2006.00,-0.0016
2005.00,-0.0018
2004.00,-0.0019
2003.00,-0.0020
2002.00,-0.0019
2001.00,-0.0017
2000.00,-0.0014
1999.00,-0.0012
1998.00,-0.0011
1997.00,-0.0010
1996.00,-0.0009
1995.00,-0.0008
1994.00,-0.0007
1993.00,-0.0006
1992.00,-0.0003
1991.00,-0.0000
1990.00,0.0001
1989.00,0.0001
1988.00,0.0000
1987.00,-0.0000
1986.00,0.0000
1985.00,0.0002
1984.00,0.0004
1983.00,0.0006
1982.00,0.0007
1981.00,0.0008
1980.00,0.0006
1979.00,0.0001
1978.00,-0.0006
1977.00,-0.0014
1976.00,-0.0019
1975.00,-0.0021
1974.00,-0.0021
1973.00,-0.0020
1972.00,-0.0020
1971.00,-0.0021
1970.00,-0.0021
1969.00,-0.0019
1968.00,-0.0015
1967.00,-0.0013
1966.00,-0.0013
1965.00,-0.0015
1964.00,-0.0015
1963.00,-0.0014
1962.00,-0.0013
1961.00,-0.0012
1960.00,-0.0011
1959.00,-0.0012
1958.00,-0.0012
1957.00,-0.0013
1956.00,-0.0013
1955.00,-0.0013
1954.00,-0.0014
1953.00,-0.0014
1952.00,-0.0014
1951.00,-0.0013
1950.00,-0.0012
1949.00,-0.0011
1948.00,-0.0011
1947.00,-0.0013
1946.00,-0.0015
1945.00,-0.0017
1944.00,-0.0017
1943.00,-0.0015
1942.00,-0.0012
1941.00,-0.0010
1940.00,-0.0008
1939.00,-0.0008
1938.00,-0.0008
1937.00,-0.0008
1936.00,-0.0009
1935.00,-0.0010
1934.00,-0.0010
1933.00,-0.0009
1932.00,-0.0009
1931.00,-0.0008
1930.00,-0.0008
1929.00,-0.0006
1928.00,-0.0005
1927.00,-0.0005
1926.00,-0.0006
1925.00,-0.0007
1924.00,-0.0007
1923.00,-0.0007
1922.00,-0.0007
1921.00,-0.0006
1920.00,-0.0005
1919.00,-0.0004
1918.00,-0.0003
1917.00,-0.0003
1916.00,-0.0004
1915.00,-0.0004
1914.00,-0.0004
1913.00,-0.0003
1912.00,-0.0002
1911.00,-0.0001
1910.00,-0.0001
1909.00,-0.0001
1908.00,-0.0002
1907.00,-0.0002
1906.00,-0.0002
1905.00,-0.0002
1904.00,-0.0002
1903.00,-0.0002
1902.00,-0.0001
1901.00,-0.0000
1900.00,0.0000
1899.00,0.0001
1898.00,0.0000
1897.00,-0.0000
1896.00,-0.0001
1895.00,-0.0001
1894.00,-0.0001
1893.00,-0.0001
1892.00,0.0000
1891.00,0.0000
1890.00,-0.0000
1889.00,-0.0001
1888.00,-0.0002
1887.00,-0.0001
1886.00,-0.0000
1885.00,0.0000
1884.00,-0.0000
1883.00,-0.0001
1882.00,-0.0001
1881.00,-0.0001
1880.00,-0.0000
1879.00,-0.0001
1878.00,-0.0001
1877.00,-0.0001
1876.00,-0.0001
1875.00,-0.0001
1874.00,0.0000
1873.00,0.0001
1872.00,0.0001
1871.00,0.0001
1870.00,0.0001
1869.00,-0.0000
1868.00,-0.0001
1867.00,-0.0002
1866.00,-0.0002
1865.00,-0.0002
1864.00,-0.0002
1863.00,-0.0002
1862.00,-0.0001
1861.00,-0.0000
1860.00,0.0000
1859.00,0.0001
1858.00,0.0001
1857.00,0.0002
1856.00,0.0002
1855.00,0.0003
1854.00,0.0002
1853.00,0.0002
1852.00,0.0001
1851.00,0.0000
1850.00,-0.0000
1849.00,-0.0001
1848.00,-0.0000
1847.00,0.0000
1846.00,0.0001
1845.00,0.0002
1844.00,0.0002
1843.00,0.0002
1842.00,0.0002
1841.00,0.0002
1840.00,0.0002
1839.00,0.0002
1838.00,0.0001
1837.00,0.0001
1836.00,0.0002
1835.00,0.0002
1834.00,0.0003
1833.00,0.0003
1832.00,0.0003
1831.00,0.0002
1830.00,0.0002
1829.00,0.0002
1828.00,0.0003
1827.00,0.0003
1826.00,0.0003
1825.00,0.0004
1824.00,0.0004
1823.00,0.0004
1822.00,0.0003
1821.00,0.0003
1820.00,0.0002
1819.00,0.0001
1818.00,0.0000
1817.00,-0.0000
1816.00,-0.0000
1815.00,0.0000
1814.00,0.0001
1813.00,0.0002
1812.00,0.0003
1811.00,0.0002
1810.00,0.0002
1809.00,0.0002
1808.00,0.0003
1807.00,0.0003
1806.00,0.0004
1805.00,0.0004
1804.00,0.0004
1803.00,0.0005
1802.00,0.0005
1801.00,0.0006
1800.00,0.0006
1799.00,0.0005
1798.00,0.0005
1797.00,0.0005
1796.00,0.0005
1795.00,0.0005
1794.00,0.0006
1793.00,0.0006
1792.00,0.0006
1791.00,0.0006
1790.00,0.0006
1789.00,0.0007
1788.00,0.0007
1787.00,0.0007
1786.00,0.0007
1785.00,0.0007
1784.00,0.0007
1783.00,0.0007
1782.00,0.0008
1781.00,0.0008
1780.00,0.0009
1779.00,0.0008
1778.00,0.0008
1777.00,0.0008
1776.00,0.0008
1775.00,0.0008
1774.00,0.0007
1773.00,0.0007
1772.00,0.0008
1771.00,0.0008
1770.00,0.0009
1769.00,0.0010
1768.00,0.0010
1767.00,0.0010
1766.00,0.0010
1765.00,0.0010
1764.00,0.0010
1763.00,0.0011
1762.00,0.0011
1761.00,0.0011
1760.00,0.0011
1759.00,0.0011
1758.00,0.0011
1757.00,0.0012
1756.00,0.0013
1755.00,0.0014
1754.00,0.0014
1753.00,0.0015
1752.00,0.0015
1751.00,0.0016
1750.00,0.0016
1749.00,0.0017
1748.00,0.0018
1747.00,0.0019
1746.00,0.0019
1745.00,0.0020
1744.00,0.0021
1743.00,0.0023
1742.00,0.0024
1741.00,0.0024
1740.00,0.0024
1739.00,0.0024
1738.00,0.0025
1737.00,0.0025
1736.00,0.0025
1735.00,0.0025
1734.00,0.0025
1733.00,0.0026
1732.00,0.0026
1731.00,0.0026
1730.00,0.0026
1729.00,0.0025
1728.00,0.0025
1727.00,0.0026
1726.00,0.0026
1725.00,0.0027
1724.00,0.0028
1723.00,0.0028
1722.00,0.0028
1721.00,0.0028
1720.00,0.0028
1719.00,0.0028
1718.00,0.0027
1717.00,0.0026
1716.00,0.0026
1715.00,0.0026
1714.00,0.0025
1713.00,0.0025
1712.00,0.0025
1711.00,0.0025
1710.00,0.0025
1709.00,0.0025
1708.00,0.0026
1707.00,0.0026
1706.00,0.0026
1705.00,0.0026
1704.00,0.0026
1703.00,0.0027
1702.00,0.0027
1701.00,0.0028
1700.00,0.0030
1699.00,0.0031
1698.00,0.0032
1697.00,0.0032
1696.00,0.0033
1695.00,0.0035
1694.00,0.0035
1693.00,0.0035
1692.00,0.0035
1691.00,0.0035
1690.00,0.0036
1689.00,0.0038
1688.00,0.0039
1687.00,0.0039
1686.00,0.0039
1685.00,0.0040
1684.00,0.0042
1683.00,0.0044
1682.00,0.0046
1681.00,0.0048
1680.00,0.0049
1679.00,0.0051
1678.00,0.0051
1677.00,0.0052
1676.00,0.0053
1675.00,0.0054
1674.00,0.0056
1673.00,0.0057
1672.00,0.0058
1671.00,0.0059
1670.00,0.0059
1669.00,0.0060
1668.00,0.0061
1667.00,0.0061
1666.00,0.0061
1665.00,0.0062
1664.00,0.0062
1663.00,0.0063
1662.00,0.0064
1661.00,0.0065
1660.00,0.0066
1659.00,0.0066
1658.00,0.0066
1657.00,0.0066
1656.00,0.0067
1655.00,0.0067
1654.00,0.0067
1653.00,0.0068
1652.00,0.0070
1651.00,0.0070
1650.00,0.0071
1649.00,0.0071
1648.00,0.0072
1647.00,0.0072
1646.00,0.0072
1645.00,0.0072
1644.00,0.0073
1643.00,0.0073
1642.00,0.0074
1641.00,0.0074
1640.00,0.0075
1639.00,0.0076
1638.00,0.0076
1637.00,0.0076
1636.00,0.0076
1635.00,0.0077
1634.00,0.0077
1633.00,0.0076
1632.00,0.0076
1631.00,0.0075
1630.00,0.0074
1629.00,0.0073
1628.00,0.0073
1627.00,0.0073
1626.00,0.0072
1625.00,0.0071
1624.00,0.0071
1623.00,0.0070
1622.00,0.0070
1621.00,0.0069
1620.00,0.0069
1619.00,0.0068
1618.00,0.0066
1617.00,0.0065
1616.00,0.0064
1615.00,0.0064
1614.00,0.0064
1613.00,0.0064
1612.00,0.0064
1611.00,0.0064
1610.00,0.0063
1609.00,0.0063
1608.00,0.0063
1607.00,0.0062
1606.00,0.0062
1605.00,0.0063
1604.00,0.0063
1603.00,0.0063
1602.00,0.0062
1601.00,0.0063
1600.00,0.0063
1599.00,0.0063
1598.00,0.0063
1597.00,0.0062
1596.00,0.0062
1595.00,0.0062
1594.00,0.0062
1593.00,0.0063
1592.00,0.0064
1591.00,0.0065
1590.00,0.0066
1589.00,0.0068
1588.00,0.0070
1587.00,0.0073
1586.00,0.0076
1585.00,0.0080
1584.00,0.0083
1583.00,0.0088
1582.00,0.0092
1581.00,0.0098
1580.00,0.0103
1579.00,0.0107
1578.00,0.0109
1577.00,0.0110
1576.00,0.0110
1575.00,0.0109
1574.00,0.0107
1573.00,0.0105
1572.00,0.0102
1571.00,0.0098
1570.00,0.0094
1569.00,0.0090
1568.00,0.0088
1567.00,0.0086
1566.00,0.0084
1565.00,0.0082
1564.00,0.0081
1563.00,0.0081
1562.00,0.0081
1561.00,0.0081
1560.00,0.0081
1559.00,0.0081
1558.00,0.0081
1557.00,0.0081
1556.00,0.0082
1555.00,0.0084
1554.00,0.0085
1553.00,0.0086
1552.00,0.0088
1551.00,0.0089
1550.00,0.0091
1549.00,0.0094
1548.00,0.0098
1547.00,0.0101
1546.00,0.0105
1545.00,0.0110
1544.00,0.0115
1543.00,0.0119
1542.00,0.0122
1541.00,0.0123
1540.00,0.0122
1539.00,0.0119
1538.00,0.0115
1537.00,0.0111
1536.00,0.0106
1535.00,0.0101
1534.00,0.0093
1533.00,0.0086
1532.00,0.0081
1531.00,0.0078
1530.00,0.0076
1529.00,0.0074
1528.00,0.0073
1527.00,0.0071
1526.00,0.0070
1525.00,0.0068
1524.00,0.0068
1523.00,0.0067
1522.00,0.0066
1521.00,0.0066
1520.00,0.0067
1519.00,0.0068
1518.00,0.0068
1517.00,0.0069
1516.00,0.0069
1515.00,0.0069
1514.00,0.0069
1513.00,0.0069
1512.00,0.0070
1511.00,0.0070
1510.00,0.0071
1509.00,0.0071
1508.00,0.0072
1507.00,0.0073
1506.00,0.0073
1505.00,0.0075
1504.00,0.0077
1503.00,0.0079
1502.00,0.0080
1501.00,0.0083
1500.00,0.0086
1499.00,0.0088
1498.00,0.0091
1497.00,0.0095
1496.00,0.0099
1495.00,0.0102
1494.00,0.0104
1493.00,0.0108
1492.00,0.0112
1491.00,0.0117
1490.00,0.0122
1489.00,0.0129
1488.00,0.0135
1487.00,0.0141
1486.00,0.0147
1485.00,0.0155
1484.00,0.0164
1483.00,0.0174
1482.00,0.0185
1481.00,0.0199
1480.00,0.0214
1479.00,0.0229
1478.00,0.0246
1477.00,0.0268
1476.00,0.0294
1475.00,0.0323
1474.00,0.0363
1473.00,0.0419
1472.00,0.0487
1471.00,0.0552
1470.00,0.0615
1469.00,0.0681
1468.00,0.0752
1467.00,0.0830
1466.00,0.0920
1465.00,0.1016
1464.00,0.1100
1463.00,0.1156
1462.00,0.1189
1461.00,0.1210
1460.00,0.1223
1459.00,0.1230
1458.00,0.1232
1457.00,0.1229
1456.00,0.1216
1455.00,0.1197
1454.00,0.1177
1453.00,0.1152
1452.00,0.1118
1451.00,0.1075
1450.00,0.1019
1449.00,0.0945
1448.00,0.0856
1447.00,0.0765
1446.00,0.0685
1445.00,0.0619
1444.00,0.0562
1443.00,0.0516
1442.00,0.0483
1441.00,0.0460
1440.00,0.0447
1439.00,0.0443
1438.00,0.0448
1437.00,0.0453
1436.00,0.0447
1435.00,0.0425
1434.00,0.0390
1433.00,0.0347
1432.00,0.0301
1431.00,0.0260
1430.00,0.0228
1429.00,0.0205
1428.00,0.0189
1427.00,0.0179
1426.00,0.0173
1425.00,0.0168
1424.00,0.0163
1423.00,0.0161
1422.00,0.0160
1421.00,0.0157
1420.00,0.0153
1419.00,0.0150
1418.00,0.0147
1417.00,0.0143
1416.00,0.0139
1415.00,0.0136
1414.00,0.0134
1413.00,0.0132
1412.00,0.0129
1411.00,0.0128
1410.00,0.0127
1409.00,0.0126
1408.00,0.0125
1407.00,0.0124
1406.00,0.0124
1405.00,0.0123
1404.00,0.0122
1403.00,0.0121
1402.00,0.0122
1401.00,0.0123
1400.00,0.0123
1399.00,0.0124
1398.00,0.0126
1397.00,0.0127
1396.00,0.0129
1395.00,0.0132
1394.00,0.0137
1393.00,0.0141
1392.00,0.0145
1391.00,0.0152
1390.00,0.0162
1389.00,0.0175
1388.00,0.0195
1387.00,0.0225
1386.00,0.0267
1385.00,0.0321
1384.00,0.0396
1383.00,0.0504
1382.00,0.0652
1381.00,0.0847
1380.00,0.1094
1379.00,0.1383
1378.00,0.1670
1377.00,0.1891
1376.00,0.1978
1375.00,0.1891
1374.00,0.1654
1373.00,0.1362
1372.00,0.1094
1371.00,0.0874
1370.00,0.0699
1369.00,0.0567
1368.00,0.0476
1367.00,0.0420
1366.00,0.0390
1365.00,0.0379
1364.00,0.0381
1363.00,0.0396
1362.00,0.0418
1361.00,0.0442
1360.00,0.0460
1359.00,0.0466
1358.00,0.0456
1357.00,0.0430
1356.00,0.0393
1355.00,0.0351
1354.00,0.0311
1353.00,0.0277
1352.00,0.0249
1351.00,0.0226
1350.00,0.0208
1349.00,0.0192
1348.00,0.0179
1347.00,0.0168
1346.00,0.0160
1345.00,0.0152
1344.00,0.0147
1343.00,0.0141
1342.00,0.0137
1341.00,0.0133
1340.00,0.0130
1339.00,0.0127
1338.00,0.0126
1337.00,0.0126
1336.00,0.0127
1335.00,0.0129
1334.00,0.0132
1333.00,0.0136
1332.00,0.0140
1331.00,0.0144
1330.00,0.0145
1329.00,0.0144
1328.00,0.0140
1327.00,0.0135
1326.00,0.0129
1325.00,0.0123
1324.00,0.0118
1323.00,0.0113
1322.00,0.0110
1321.00,0.0107
1320.00,0.0105
1319.00,0.0104
1318.00,0.0102
1317.00,0.0100
1316.00,0.0098
1315.00,0.0098
1314.00,0.0098
1313.00,0.0097
1312.00,0.0097
1311.00,0.0099
1310.00,0.0101
1309.00,0.0105
1308.00,0.0112
1307.00,0.0119
1306.00,0.0127
1305.00,0.0132
1304.00,0.0134
1303.00,0.0133
1302.00,0.0132
1301.00,0.0132
1300.00,0.0133
1299.00,0.0134
1298.00,0.0136
1297.00,0.0136
1296.00,0.0136
1295.00,0.0134
1294.00,0.0131
1293.00,0.0126
1292.00,0.0122
1291.00,0.0117
1290.00,0.0112
1289.00,0.0108
1288.00,0.0104
1287.00,0.0101
1286.00,0.0099
1285.00,0.0097
1284.00,0.0095
1283.00,0.0094
1282.00,0.0092
1281.00,0.0091
1280.00,0.0090
1279.00,0.0089
1278.00,0.0089
1277.00,0.0088
1276.00,0.0088
1275.00,0.0087
1274.00,0.0087
1273.00,0.0087
1272.00,0.0087
1271.00,0.0088
1270.00,0.0090
1269.00,0.0092
1268.00,0.0095
1267.00,0.0098
1266.00,0.0101
1265.00,0.0105
1264.00,0.0108
1263.00,0.0111
1262.00,0.0113
1261.00,0.0115
1260.00,0.0118
1259.00,0.0120
1258.00,0.0124
1257.00,0.0126
1256.00,0.0126
1255.00,0.0124
1254.00,0.0119
1253.00,0.0114
1252.00,0.0108
1251.00,0.0103
1250.00,0.0099
1249.00,0.0097
1248.00,0.0094
1247.00,0.0092
1246.00,0.0090
1245.00,0.0088
1244.00,0.0087
1243.00,0.0086
1242.00,0.0085
1241.00,0.0085
1240.00,0.0084
1239.00,0.0084
1238.00,0.0084
1237.00,0.0084
1236.00,0.0085
1235.00,0.0085
1234.00,0.0085
1233.00,0.0085
1232.00,0.0086
1231.00,0.0086
1230.00,0.0087
1229.00,0.0089
1228.00,0.0090
1227.00,0.0092
1226.00,0.0095
1225.00,0.0099
1224.00,0.0103
1223.00,0.0106
1222.00,0.0110
1221.00,0.0114
1220.00,0.0116
1219.00,0.0117
1218.00,0.0116
1217.00,0.0115
1216.00,0.0112
1215.00,0.0108
1214.00,0.0104
1213.00,0.0101
1212.00,0.0098
1211.00,0.0096
1210.00,0.0094
1209.00,0.0093
1208.00,0.0092
1207.00,0.0091
1206.00,0.0090
1205.00,0.0089
1204.00,0.0088
1203.00,0.0088
1202.00,0.0087
1201.00,0.0086
1200.00,0.0086
1199.00,0.0086
1198.00,0.0086
1197.00,0.0086
1196.00,0.0086
1195.00,0.0086
1194.00,0.0087
1193.00,0.0087
1192.00,0.0087
1191.00,0.0087
1190.00,0.0087
1189.00,0.0087
1188.00,0.0087
1187.00,0.0087
1186.00,0.0087
1185.00,0.0086
1184.00,0.0086
1183.00,0.0087
1182.00,0.0088
1181.00,0.0089
1180.00,0.0092
1179.00,0.0095
1178.00,0.0099
1177.00,0.0105
1176.00,0.0112
1175.00,0.0122
1174.00,0.0135
1173.00,0.0152
1172.00,0.0172
1171.00,0.0193
1170.00,0.0214
1169.00,0.0231
1168.00,0.0241
1167.00,0.0243
1166.00,0.0238
1165.00,0.0230
1164.00,0.0221
1163.00,0.0213
1162.00,0.0206
1161.00,0.0200
1160.00,0.0196
1159.00,0.0193
1158.00,0.0192
1157.00,0.0191
1156.00,0.0191
1155.00,0.0192
1154.00,0.0192
1153.00,0.0190
1152.00,0.0187
1151.00,0.0182
1150.00,0.0175
1149.00,0.0166
1148.00,0.0157
1147.00,0.0149
1146.00,0.0141
1145.00,0.0133
1144.00,0.0127
1143.00,0.0120
1142.00,0.0115
1141.00,0.0110
1140.00,0.0105
1139.00,0.0102
1138.00,0.0099
1137.00,0.0097
1136.00,0.0095
1135.00,0.0094
1134.00,0.0093
1133.00,0.0092
1132.00,0.0092
1131.00,0.0092
1130.00,0.0092
1129.00,0.0093
1128.00,0.0094
1127.00,0.0097
1126.00,0.0099
1125.00,0.0100
1124.00,0.0101
1123.00,0.0102
1122.00,0.0102
1121.00,0.0103
1120.00,0.0104
1119.00,0.0104
1118.00,0.0106
1117.00,0.0107
1116.00,0.0108
1115.00,0.0110
1114.00,0.0112
1113.00,0.0114
1112.00,0.0117
1111.00,0.0120
1110.00,0.0124
1109.00,0.0129
1108.00,0.0133
1107.00,0.0139
1106.00,0.0145
1105.00,0.0151
1104.00,0.0156
1103.00,0.0158
1102.00,0.0157
1101.00,0.0154
1100.00,0.0149
1099.00,0.0143
1098.00,0.0136
1097.00,0.0130
1096.00,0.0125
1095.00,0.0121
1094.00,0.0118
1093.00,0.0116
1092.00,0.0113
1091.00,0.0111
1090.00,0.0109
1089.00,0.0107
1088.00,0.0106
1087.00,0.0105
1086.00,0.0105
1085.00,0.0104
1084.00,0.0104
1083.00,0.0103
1082.00,0.0102
1081.00,0.0101
1080.00,0.0100
1079.00,0.0099
1078.00,0.0097
1077.00,0.0096
1076.00,0.0095
1075.00,0.0094
1074.00,0.0093
1073.00,0.0093
1072.00,0.0092
1071.00,0.0093
1070.00,0.0093
1069.00,0.0093
1068.00,0.0093
1067.00,0.0093
1066.00,0.0093
1065.00,0.0094
1064.00,0.0095
1063.00,0.0096
1062.00,0.0096
1061.00,0.0096
1060.00,0.0096
1059.00,0.0096
1058.00,0.0098
1057.00,0.0100
1056.00,0.0102
1055.00,0.0103
1054.00,0.0104
1053.00,0.0106
1052.00,0.0108
1051.00,0.0112
1050.00,0.0116
1049.00,0.0121
1048.00,0.0125
1047.00,0.0130
1046.00,0.0134
1045.00,0.0137
1044.00,0.0138
1043.00,0.0138
1042.00,0.0137
1041.00,0.0136
1040.00,0.0135
1039.00,0.0136
1038.00,0.0137
1037.00,0.0138
1036.00,0.0139
1035.00,0.0139
1034.00,0.0139
1033.00,0.0137
1032.00,0.0135
1031.00,0.0134
1030.00,0.0133
1029.00,0.0132
1028.00,0.0131
1027.00,0.0132
1026.00,0.0133
1025.00,0.0135
1024.00,0.0137
1023.00,0.0140
1022.00,0.0142
1021.00,0.0143
1020.00,0.0145
1019.00,0.0146
1018.00,0.0147
1017.00,0.0148
1016.00,0.0149
1015.00,0.0149
1014.00,0.0150
1013.00,0.0149
1012.00,0.0148
1011.00,0.0146
1010.00,0.0145
1009.00,0.0144
1008.00,0.0143
1007.00,0.0145
1006.00,0.0148
1005.00,0.0154
1004.00,0.0164
1003.00,0.0178
1002.00,0.0196
1001.00,0.0218
1000.00,0.0241
999.00,0.0259
998.00,0.0266
997.00,0.0258
996.00,0.0238
995.00,0.0212
994.00,0.0186
993.00,0.0164
992.00,0.0147
991.00,0.0134
990.00,0.0125
989.00,0.0118
988.00,0.0114
987.00,0.0112
986.00,0.0112
985.00,0.0114
984.00,0.0118
983.00,0.0123
982.00,0.0132
981.00,0.0144
980.00,0.0160
979.00,0.0183
978.00,0.0212
977.00,0.0245
976.00,0.0278
975.00,0.0305
974.00,0.0323
973.00,0.0325
972.00,0.0310
971.00,0.0281
970.00,0.0246
969.00,0.0211
968.00,0.0182
967.00,0.0158
966.00,0.0141
965.00,0.0127
964.00,0.0117
963.00,0.0110
962.00,0.0104
961.00,0.0100
960.00,0.0098
959.00,0.0095
958.00,0.0093
957.00,0.0091
956.00,0.0088
955.00,0.0086
954.00,0.0084
953.00,0.0083
952.00,0.0082
951.00,0.0081
950.00,0.0081
949.00,0.0081
948.00,0.0081
947.00,0.0082
946.00,0.0084
945.00,0.0086
944.00,0.0090
943.00,0.0095
942.00,0.0099
941.00,0.0103
940.00,0.0104
939.00,0.0102
938.00,0.0097
937.00,0.0090
936.00,0.0083
935.00,0.0079
934.00,0.0076
933.00,0.0074
932.00,0.0072
931.00,0.0070
930.00,0.0069
929.00,0.0069
928.00,0.0069
927.00,0.0070
926.00,0.0070
925.00,0.0070
924.00,0.0069
923.00,0.0069
922.00,0.0068
921.00,0.0068
920.00,0.0068
919.00,0.0068
918.00,0.0069
917.00,0.0071
916.00,0.0074
915.00,0.0075
914.00,0.0076
913.00,0.0077
912.00,0.0079
911.00,0.0081
910.00,0.0083
909.00,0.0084
908.00,0.0085
907.00,0.0088
906.00,0.0095
905.00,0.0106
904.00,0.0121
903.00,0.0139
902.00,0.0160
901.00,0.0179
900.00,0.0191
899.00,0.0193
898.00,0.0185
897.00,0.0169
896.00,0.0149
895.00,0.0130
894.00,0.0114
893.00,0.0102
892.00,0.0095
891.00,0.0090
890.00,0.0087
889.00,0.0085
888.00,0.0083
887.00,0.0081
886.00,0.0079
885.00,0.0078
884.00,0.0077
883.00,0.0078
882.00,0.0079
881.00,0.0080
880.00,0.0081
879.00,0.0081
878.00,0.0082
877.00,0.0083
876.00,0.0084
875.00,0.0085
874.00,0.0085
873.00,0.0085
872.00,0.0085
871.00,0.0085
870.00,0.0084
869.00,0.0083
868.00,0.0082
867.00,0.0082
866.00,0.0082
865.00,0.0083
864.00,0.0084
863.00,0.0084
862.00,0.0085
861.00,0.0086
860.00,0.0086
859.00,0.0087
858.00,0.0088
857.00,0.0088
856.00,0.0089
855.00,0.0089
854.00,0.0090
853.00,0.0092
852.00,0.0094
851.00,0.0097
850.00,0.0102
849.00,0.0107
848.00,0.0113
847.00,0.0121
846.00,0.0132
845.00,0.0150
844.00,0.0177
843.00,0.0208
842.00,0.0232
841.00,0.0237
840.00,0.0222
839.00,0.0193
838.00,0.0162
837.00,0.0139
836.00,0.0124
835.00,0.0115
834.00,0.0111
833.00,0.0108
832.00,0.0108
831.00,0.0108
830.00,0.0108
829.00,0.0108
828.00,0.0106
827.00,0.0105
826.00,0.0103
825.00,0.0102
824.00,0.0102
823.00,0.0104
822.00,0.0107
821.00,0.0112
820.00,0.0116
819.00,0.0120
818.00,0.0124
817.00,0.0129
816.00,0.0136
815.00,0.0148
814.00,0.0165
813.00,0.0185
812.00,0.0207
811.00,0.0227
810.00,0.0242
809.00,0.0248
808.00,0.0246
807.00,0.0234
806.00,0.0217
805.00,0.0196
804.00,0.0176
803.00,0.0160
802.00,0.0149
801.00,0.0141
800.00,0.0134
799.00,0.0128
798.00,0.0123
797.00,0.0117
796.00,0.0113
795.00,0.0111
794.00,0.0109
793.00,0.0108
792.00,0.0105
791.00,0.0101
790.00,0.0097
789.00,0.0092
788.00,0.0088
787.00,0.0084
786.00,0.0081
785.00,0.0079
784.00,0.0077
783.00,0.0076
782.00,0.0076
781.00,0.0076
780.00,0.0075
779.00,0.0074
778.00,0.0073
777.00,0.0072
776.00,0.0072
775.00,0.0073
774.00,0.0073
773.00,0.0074
772.00,0.0075
771.00,0.0075
770.00,0.0076
769.00,0.0077
768.00,0.0078
767.00,0.0078
766.00,0.0078
765.00,0.0077
764.00,0.0077
763.00,0.0077
762.00,0.0077
761.00,0.0078
760.00,0.0079
759.00,0.0079
758.00,0.0081
757.00,0.0082
756.00,0.0084
755.00,0.0086
754.00,0.0087
753.00,0.0087
752.00,0.0087
751.00,0.0088
750.00,0.0089
749.00,0.0092
748.00,0.0094
747.00,0.0096
746.00,0.0096
745.00,0.0097
744.00,0.0098
743.00,0.0100
742.00,0.0103
741.00,0.0108
740.00,0.0113
739.00,0.0118
738.00,0.0123
737.00,0.0126
736.00,0.0130
735.00,0.0133
734.00,0.0139
733.00,0.0145
732.00,0.0154
731.00,0.0162
730.00,0.0169
729.00,0.0174
728.00,0.0176
727.00,0.0175
726.00,0.0175
725.00,0.0177
724.00,0.0182
723.00,0.0190
722.00,0.0197
721.00,0.0202
720.00,0.0200
719.00,0.0192
718.00,0.0178
717.00,0.0164
716.00,0.0152
715.00,0.0144
714.00,0.0139
713.00,0.0136
712.00,0.0132
711.00,0.0129
710.00,0.0126
709.00,0.0124
708.00,0.0123
707.00,0.0123
706.00,0.0122
705.00,0.0122
704.00,0.0122
703.00,0.0121
702.00,0.0120
701.00,0.0118
700.00,0.0116
699.00,0.0114
698.00,0.0113
697.00,0.0113
696.00,0.0112
695.00,0.0111
694.00,0.0111
693.00,0.0110
692.00,0.0110
691.00,0.0109
690.00,0.0108
689.00,0.0108
688.00,0.0111
687.00,0.0113
686.00,0.0114
685.00,0.0114
684.00,0.0113
683.00,0.0111
682.00,0.0109
681.00,0.0110
680.00,0.0111
679.00,0.0112
678.00,0.0114
677.00,0.0114
676.00,0.0114
675.00,0.0115
674.00,0.0117
673.00,0.0121
672.00,0.0124
671.00,0.0125
670.00,0.0124
669.00,0.0122
668.00,0.0121
667.00,0.0121
666.00,0.0121
665.00,0.0119
664.00,0.0118
663.00,0.0116
662.00,0.0114
661.00,0.0113
660.00,0.0111
659.00,0.0109
658.00,0.0107
657.00,0.0104
656.00,0.0103
655.00,0.0102
654.00,0.0102
653.00,0.0102
652.00,0.0103
651.00,0.0103
650.00,0.0104
649.00,0.0105
648.00,0.0106
647.00,0.0107
646.00,0.0108
645.00,0.0108
644.00,0.0106
643.00,0.0104
642.00,0.0102
641.00,0.0102
640.00,0.0103
639.00,0.0103
638.00,0.0103
637.00,0.0102
636.00,0.0103
635.00,0.0106
634.00,0.0109
633.00,0.0110
632.00,0.0109
631.00,0.0107
630.00,0.0106
629.00,0.0106
628.00,0.0106
627.00,0.0105
626.00,0.0103
625.00,0.0102
624.00,0.0101
623.00,0.0101
622.00,0.0102
621.00,0.0103
620.00,0.0103
619.00,0.0102
618.00,0.0099
617.00,0.0096
616.00,0.0095
615.00,0.0095
614.00,0.0095
613.00,0.0094
612.00,0.0093
611.00,0.0093
610.00,0.0095
609.00,0.0097
608.00,0.0099
607.00,0.0099
606.00,0.0098
605.00,0.0095
604.00,0.0094
603.00,0.0093
602.00,0.0094
601.00,0.0094
600.00,0.0095
599.00,0.0097
598.00,0.0098
597.00,0.0099
596.00,0.0098
595.00,0.0095
594.00,0.0092
593.00,0.0089
592.00,0.0087
591.00,0.0087
590.00,0.0088
589.00,0.0090
588.00,0.0090
587.00,0.0092
586.00,0.0093
585.00,0.0095
584.00,0.0097
583.00,0.0098
582.00,0.0100
581.00,0.0100
580.00,0.0100
579.00,0.0098
578.00,0.0096
577.00,0.0094
576.00,0.0090
575.00,0.0087
574.00,0.0086
573.00,0.0087
572.00,0.0089
571.00,0.0092
570.00,0.0095
569.00,0.0098
568.00,0.0100
567.00,0.0100
566.00,0.0098
565.00,0.0094
564.00,0.0091
563.00,0.0090
562.00,0.0091
561.00,0.0092
560.00,0.0093
559.00,0.0093
558.00,0.0093
557.00,0.0095
556.00,0.0098
555.00,0.0101
554.00,0.0103
553.00,0.0102
552.00,0.0100
551.00,0.0098
550.00,0.0099
549.00,0.0100
548.00,0.0100
547.00,0.0100
546.00,0.0100
545.00,0.0102
544.00,0.0105
543.00,0.0110
542.00,0.0114
541.00,0.0116
540.00,0.0116
539.00,0.0118
538.00,0.0120
537.00,0.0122
536.00,0.0122
535.00,0.0121
534.00,0.0122
533.00,0.0123
532.00,0.0124
531.00,0.0122
530.00,0.0118
529.00,0.0116
528.00,0.0116
527.00,0.0119
526.00,0.0123
525.00,0.0124
524.00,0.0122
523.00,0.0118
522.00,0.0113
521.00,0.0110
520.00,0.0108
519.00,0.0106
518.00,0.0103
517.00,0.0098
516.00,0.0094
515.00,0.0092
514.00,0.0090
513.00,0.0089
512.00,0.0088
511.00,0.0089
510.00,0.0091
509.00,0.0093
508.00,0.0096
507.00,0.0102
506.00,0.0110
505.00,0.0117
504.00,0.0120
503.00,0.0120
502.00,0.0117
501.00,0.0110
500.00,0.0102
499.00,0.0096
498.00,0.0094
497.00,0.0096
496.00,0.0099
495.00,0.0100
494.00,0.0097
493.00,0.0091
492.00,0.0084
491.00,0.0079
490.00,0.0077
489.00,0.0077
488.00,0.0078
487.00,0.0080
486.00,0.0082
485.00,0.0084
484.00,0.0086
483.00,0.0090
482.00,0.0096
481.00,0.0102
480.00,0.0105
479.00,0.0106
478.00,0.0108
477.00,0.0114
476.00,0.0123
475.00,0.0128
474.00,0.0127
473.00,0.0125
472.00,0.0129
471.00,0.0138
470.00,0.0146
469.00,0.0148
468.00,0.0147
467.00,0.0149
466.00,0.0155
465.00,0.0163
464.00,0.0174
463.00,0.0188
462.00,0.0202
461.00,0.0212
460.00,0.0214
459.00,0.0210
458.00,0.0203
457.00,0.0200
456.00,0.0202
455.00,0.0204
454.00,0.0198
453.00,0.0182
452.00,0.0159
451.00,0.0140
450.00,0.0130
