Created as New Dataset,Sample 072 By Administrator Date Thursday, September 04 2025
cm-1,A
4000.00,0.0009
3999.00,0.0009
3998.00,0.0009
3997.00,0.0010
3996.00,0.0010
3995.00,0.0010
3994.00,0.0011
3993.00,0.0011
3992.00,0.0011
3991.00,0.0010
3990.00,0.0010
3989.00,0.0009
3988.00,0.0009
3987.00,0.0009
3986.00,0.0009
3985.00,0.0009
3984.00,0.0009
3983.00,0.0009
3982.00,0.0009
3981.00,0.0009
3980.00,0.0009
3979.00,0.0009
3978.00,0.0009
3977.00,0.0008
3976.00,0.0008
3975.00,0.0008
3974.00,0.0008
3973.00,0.0008
3972.00,0.0008
3971.00,0.0008
3970.00,0.0008
3969.00,0.0008
3968.00,0.0008
3967.00,0.0008
3966.00,0.0008
3965.00,0.0008
3964.00,0.0008
3963.00,0.0008
3962.00,0.0008
3961.00,0.0007
3960.00,0.0007
3959.00,0.0008
3958.00,0.0008
3957.00,0.0007
3956.00,0.0007
3955.00,0.0007
3954.00,0.0007
3953.00,0.0008
3952.00,0.0008
3951.00,0.0008
3950.00,0.0008
3949.00,0.0008
3948.00,0.0007
3947.00,0.0007
3946.00,0.0007
3945.00,0.0007
3944.00,0.0008
3943.00,0.0008
3942.00,0.0008
3941.00,0.0008
3940.00,0.0009
3939.00,0.0008
3938.00,0.0008
3937.00,0.0008
3936.00,0.0008
3935.00,0.0008
3934.00,0.0008
3933.00,0.0008
3932.00,0.0008
3931.00,0.0008
3930.00,0.0008
3929.00,0.0009
3928.00,0.0009
3927.00,0.0009
3926.00,0.0009
3925.00,0.0008
3924.00,0.0008
3923.00,0.0008
3922.00,0.0008
3921.00,0.0008
3920.00,0.0008
3919.00,0.0008
3918.00,0.0008
3917.00,0.0008
3916.00,0.0008
3915.00,0.0008
3914.00,0.0008
3913.00,0.0008
3912.00,0.0008
3911.00,0.0008
3910.00,0.0008
3909.00,0.0008
3908.00,0.0008
3907.00,0.0008
3906.00,0.0007
3905.00,0.0007
3904.00,0.0007
3903.00,0.0007
3902.00,0.0008
3901.00,0.0008
3900.00,0.0008
3899.00,0.0008
3898.00,0.0008
3897.00,0.0008
3896.00,0.0008
3895.00,0.0008
3894.00,0.0008
3893.00,0.0008
3892.00,0.0008
3891.00,0.0008
3890.00,0.0008
3889.00,0.0008
3888.00,0.0008
3887.00,0.0008
3886.00,0.0008
3885.00,0.0008
3884.00,0.0008
3883.00,0.0008
3882.00,0.0007
3881.00,0.0007
3880.00,0.0007
3879.00,0.0007
3878.00,0.0007
3877.00,0.0007
3876.00,0.0007
3875.00,0.0007
3874.00,0.0008
3873.00,0.0008
3872.00,0.0007
3871.00,0.0007
3870.00,0.0007
3869.00,0.0007
3868.00,0.0007
3867.00,0.0007
3866.00,0.0007
3865.00,0.0007
3864.00,0.0007
3863.00,0.0007
3862.00,0.0007
3861.00,0.0007
3860.00,0.0007
3859.00,0.0007
3858.00,0.0007
3857.00,0.0008
3856.00,0.0008
3855.00,0.0007
3854.00,0.0007
3853.00,0.0007
3852.00,0.0007
3851.00,0.0007
3850.00,0.0007
3849.00,0.0006
3848.00,0.0006
3847.00,0.0007
3846.00,0.0007
3845.00,0.0007
3844.00,0.0007
3843.00,0.0007
3842.00,0.0007
3841.00,0.0007
3840.00,0.0007
3839.00,0.0008
3838.00,0.0008
3837.00,0.0008
3836.00,0.0008
3835.00,0.0008
3834.00,0.0007
3833.00,0.0007
3832.00,0.0007
3831.00,0.0007
3830.00,0.0008
3829.00,0.0008
3828.00,0.0007
3827.00,0.0007
3826.00,0.0008
3825.00,0.0008
3824.00,0.0008
3823.00,0.0008
3822.00,0.0007
3821.00,0.0007
3820.00,0.0008
3819.00,0.0008
3818.00,0.0007
3817.00,0.0007
3816.00,0.0008
3815.00,0.0008
3814.00,0.0008
3813.00,0.0008
3812.00,0.0008
3811.00,0.0008
3810.00,0.0008
3809.00,0.0008
3808.00,0.0007
3807.00,0.0007
3806.00,0.0007
3805.00,0.0007
3804.00,0.0007
3803.00,0.0007
3802.00,0.0007
3801.00,0.0007
3800.00,0.0007
3799.00,0.0007
3798.00,0.0007
3797.00,0.0007
3796.00,0.0007
3795.00,0.0007
3794.00,0.0007
3793.00,0.0006
3792.00,0.0006
3791.00,0.0006
3790.00,0.0006
3789.00,0.0006
3788.00,0.0007
3787.00,0.0007
3786.00,0.0007
3785.00,0.0008
3784.00,0.0008
3783.00,0.0008
3782.00,0.0008
3781.00,0.0008
3780.00,0.0008
3779.00,0.0008
3778.00,0.0007
3777.00,0.0007
3776.00,0.0007
3775.00,0.0007
3774.00,0.0007
3773.00,0.0007
3772.00,0.0007
3771.00,0.0007
3770.00,0.0007
3769.00,0.0007
3768.00,0.0008
3767.00,0.0008
3766.00,0.0008
3765.00,0.0008
3764.00,0.0008
3763.00,0.0008
3762.00,0.0008
3761.00,0.0007
3760.00,0.0007
3759.00,0.0007
3758.00,0.0007
3757.00,0.0007
3756.00,0.0007
3755.00,0.0007
3754.00,0.0007
3753.00,0.0007
3752.00,0.0007
3751.00,0.0007
3750.00,0.0007
3749.00,0.0007
3748.00,0.0007
3747.00,0.0007
3746.00,0.0007
3745.00,0.0007
3744.00,0.0007
3743.00,0.0007
3742.00,0.0007
3741.00,0.0006
3740.00,0.0006
3739.00,0.0006
3738.00,0.0006
3737.00,0.0006
3736.00,0.0006
3735.00,0.0006
3734.00,0.0006
3733.00,0.0006
3732.00,0.0006
3731.00,0.0006
3730.00,0.0006
3729.00,0.0006
3728.00,0.0006
3727.00,0.0007
3726.00,0.0007
3725.00,0.0007
3724.00,0.0007
3723.00,0.0007
3722.00,0.0007
3721.00,0.0007
3720.00,0.0007
3719.00,0.0007
3718.00,0.0007
3717.00,0.0007
3716.00,0.0007
3715.00,0.0007
3714.00,0.0006
3713.00,0.0006
3712.00,0.0006
3711.00,0.0006
3710.00,0.0006
3709.00,0.0006
3708.00,0.0006
3707.00,0.0006
3706.00,0.0006
3705.00,0.0007
3704.00,0.0007
3703.00,0.0007
3702.00,0.0007
3701.00,0.0006
3700.00,0.0006
3699.00,0.0006
3698.00,0.0006
3697.00,0.0006
3696.00,0.0006
3695.00,0.0006
3694.00,0.0006
3693.00,0.0006
3692.00,0.0005
3691.00,0.0005
3690.00,0.0005
3689.00,0.0005
3688.00,0.0005
3687.00,0.0006
3686.00,0.0006
3685.00,0.0006
3684.00,0.0006
3683.00,0.0006
3682.00,0.0006
3681.00,0.0006
3680.00,0.0006
3679.00,0.0007
3678.00,0.0007
3677.00,0.0007
3676.00,0.0007
3675.00,0.0007
3674.00,0.0006
3673.00,0.0005
3672.00,0.0004
3671.00,0.0004
3670.00,0.0004
3669.00,0.0004
3668.00,0.0005
3667.00,0.0005
3666.00,0.0005
3665.00,0.0005
3664.00,0.0005
3663.00,0.0005
3662.00,0.0006
3661.00,0.0006
3660.00,0.0006
3659.00,0.0005
3658.00,0.0005
3657.00,0.0004
3656.00,0.0005
3655.00,0.0005
3654.00,0.0005
3653.00,0.0005
3652.00,0.0005
3651.00,0.0006
3650.00,0.0007
3649.00,0.0007
3648.00,0.0008
3647.00,0.0007
3646.00,0.0007
3645.00,0.0007
3644.00,0.0006
3643.00,0.0006
3642.00,0.0007
3641.00,0.0007
3640.00,0.0007
3639.00,0.0007
3638.00,0.0007
3637.00,0.0007
3636.00,0.0007
3635.00,0.0007
3634.00,0.0008
3633.00,0.0008
3632.00,0.0008
3631.00,0.0008
3630.00,0.0007
3629.00,0.0007
3628.00,0.0008
3627.00,0.0008
3626.00,0.0009
3625.00,0.0009
3624.00,0.0009
3623.00,0.0009
3622.00,0.0009
3621.00,0.0009
3620.00,0.0010
3619.00,0.0010
3618.00,0.0010
3617.00,0.0011
3616.00,0.0011
3615.00,0.0011
3614.00,0.0011
3613.00,0.0011
3612.00,0.0011
3611.00,0.0011
3610.00,0.0011
3609.00,0.0011
3608.00,0.0012
3607.00,0.0012
3606.00,0.0012
3605.00,0.0011
3604.00,0.0011
3603.00,0.0011
3602.00,0.0012
3601.00,0.0013
3600.00,0.0014
3599.00,0.0014
3598.00,0.0014
3597.00,0.0013
3596.00,0.0013
3595.00,0.0013
3594.00,0.0014
3593.00,0.0014
3592.00,0.0015
3591.00,0.0015
3590.00,0.0015
3589.00,0.0015
3588.00,0.0015
3587.00,0.0016
3586.00,0.0016
3585.00,0.0016
3584.00,0.0016
3583.00,0.0016
3582.00,0.0016
3581.00,0.0017
3580.00,0.0017
3579.00,0.0017
3578.00,0.0017
3577.00,0.0018
3576.00,0.0018
3575.00,0.0018
3574.00,0.0018
3573.00,0.0019
3572.00,0.0019
3571.00,0.0020
3570.00,0.0020
3569.00,0.0020
3568.00,0.0020
3567.00,0.0020
3566.00,0.0021
3565.00,0.0021
3564.00,0.0021
3563.00,0.0021
3562.00,0.0021
3561.00,0.0022
3560.00,0.0022
3559.00,0.0022
3558.00,0.0023
3557.00,0.0023
3556.00,0.0023
3555.00,0.0024
3554.00,0.0024
3553.00,0.0024
3552.00,0.0024
3551.00,0.0024
3550.00,0.0024
3549.00,0.0024
3548.00,0.0024
3547.00,0.0024
3546.00,0.0025
3545.00,0.0025
3544.00,0.0026
3543.00,0.0026
3542.00,0.0026
3541.00,0.0027
3540.00,0.0027
3539.00,0.0027
3538.00,0.0027
3537.00,0.0026
3536.00,0.0026
3535.00,0.0026
3534.00,0.0026
3533.00,0.0026
3532.00,0.0027
3531.00,0.0027
3530.00,0.0028
3529.00,0.0028
3528.00,0.0029
3527.00,0.0029
3526.00,0.0029
3525.00,0.0029
3524.00,0.0029
3523.00,0.0029
3522.00,0.0029
3521.00,0.0030
3520.00,0.0030
3519.00,0.0031
3518.00,0.0031
3517.00,0.0031
3516.00,0.0031
3515.00,0.0031
3514.00,0.0032
3513.00,0.0032
3512.00,0.0032
3511.00,0.0033
3510.00,0.0033
3509.00,0.0033
3508.00,0.0033
3507.00,0.0033
3506.00,0.0033
3505.00,0.0033
3504.00,0.0033
3503.00,0.0033
3502.00,0.0033
3501.00,0.0034
3500.00,0.0034
3499.00,0.0035
3498.00,0.0035
3497.00,0.0036
3496.00,0.0036
3495.00,0.0036
3494.00,0.0037
3493.00,0.0037
3492.00,0.0037
3491.00,0.0037
3490.00,0.0037
3489.00,0.0037
3488.00,0.0038
3487.00,0.0038
3486.00,0.0039
3485.00,0.0039
3484.00,0.0039
3483.00,0.0039
3482.00,0.0039
3481.00,0.0039
3480.00,0.0039
3479.00,0.0039
3478.00,0.0039
3477.00,0.0040
3476.00,0.0040
3475.00,0.0041
3474.00,0.0041
3473.00,0.0041
3472.00,0.0041
3471.00,0.0041
3470.00,0.0041
3469.00,0.0041
3468.00,0.0042
3467.00,0.0042
3466.00,0.0042
3465.00,0.0042
3464.00,0.0043
3463.00,0.0043
3462.00,0.0044
3461.00,0.0044
3460.00,0.0044
3459.00,0.0045
3458.00,0.0045
3457.00,0.0045
3456.00,0.0045
3455.00,0.0045
3454.00,0.0045
3453.00,0.0045
3452.00,0.0045
3451.00,0.0045
3450.00,0.0046
3449.00,0.0046
3448.00,0.0047
3447.00,0.0047
3446.00,0.0048
3445.00,0.0048
3444.00,0.0048
3443.00,0.0048
3442.00,0.0048
3441.00,0.0049
3440.00,0.0049
3439.00,0.0049
3438.00,0.0050
3437.00,0.0050
3436.00,0.0050
3435.00,0.0050
3434.00,0.0050
3433.00,0.0050
3432.00,0.0051
3431.00,0.0051
3430.00,0.0052
3429.00,0.0052
3428.00,0.0052
3427.00,0.0052
3426.00,0.0052
3425.00,0.0052
3424.00,0.0052
3423.00,0.0053
3422.00,0.0053
3421.00,0.0054
3420.00,0.0054
3419.00,0.0054
3418.00,0.0054
3417.00,0.0054
3416.00,0.0054
3415.00,0.0054
3414.00,0.0054
3413.00,0.0054
3412.00,0.0054
3411.00,0.0054
3410.00,0.0054
3409.00,0.0054
3408.00,0.0055
3407.00,0.0055
3406.00,0.0056
3405.00,0.0056
3404.00,0.0056
3403.00,0.0057
3402.00,0.0057
3401.00,0.0057
3400.00,0.0057
3399.00,0.0057
3398.00,0.0057
3397.00,0.0057
3396.00,0.0057
3395.00,0.0057
3394.00,0.0057
3393.00,0.0057
3392.00,0.0057
3391.00,0.0058
3390.00,0.0058
3389.00,0.0058
3388.00,0.0058
3387.00,0.0058
3386.00,0.0059
3385.00,0.0059
3384.00,0.0059
3383.00,0.0059
3382.00,0.0059
3381.00,0.0060
3380.00,0.0060
3379.00,0.0060
3378.00,0.0060
3377.00,0.0059
3376.00,0.0059
3375.00,0.0059
3374.00,0.0060
3373.00,0.0060
3372.00,0.0061
3371.00,0.0062
3370.00,0.0062
3369.00,0.0061
3368.00,0.0061
3367.00,0.0061
3366.00,0.0060
3365.00,0.0060
3364.00,0.0060
3363.00,0.0060
3362.00,0.0061
3361.00,0.0061
3360.00,0.0062
3359.00,0.0062
3358.00,0.0063
3357.00,0.0063
3356.00,0.0063
3355.00,0.0063
3354.00,0.0063
3353.00,0.0063
3352.00,0.0062
3351.00,0.0063
3350.00,0.0063
3349.00,0.0063
3348.00,0.0063
3347.00,0.0063
3346.00,0.0064
3345.00,0.0063
3344.00,0.0063
3343.00,0.0063
3342.00,0.0063
3341.00,0.0063
3340.00,0.0062
3339.00,0.0062
3338.00,0.0063
3337.00,0.0063
3336.00,0.0063
3335.00,0.0063
3334.00,0.0064
3333.00,0.0064
3332.00,0.0064
3331.00,0.0064
3330.00,0.0064
3329.00,0.0063
3328.00,0.0063
3327.00,0.0063
3326.00,0.0063
3325.00,0.0062
3324.00,0.0062
3323.00,0.0062
3322.00,0.0062
3321.00,0.0062
3320.00,0.0062
3319.00,0.0063
3318.00,0.0063
3317.00,0.0064
3316.00,0.0063
3315.00,0.0063
3314.00,0.0062
3313.00,0.0062
3312.00,0.0062
3311.00,0.0062
3310.00,0.0063
3309.00,0.0063
3308.00,0.0063
3307.00,0.0063
3306.00,0.0064
3305.00,0.0065
3304.00,0.0065
3303.00,0.0066
3302.00,0.0066
3301.00,0.0065
3300.00,0.0064
3299.00,0.0064
3298.00,0.0063
3297.00,0.0062
3296.00,0.0062
3295.00,0.0062
3294.00,0.0061
3293.00,0.0061
3292.00,0.0061
3291.00,0.0061
3290.00,0.0060
3289.00,0.0060
3288.00,0.0060
3287.00,0.0060
3286.00,0.0060
3285.00,0.0060
3284.00,0.0059
3283.00,0.0059
3282.00,0.0058
3281.00,0.0058
3280.00,0.0058
3279.00,0.0058
3278.00,0.0058
3277.00,0.0058
3276.00,0.0058
3275.00,0.0057
3274.00,0.0057
3273.00,0.0056
3272.00,0.0056
3271.00,0.0056
3270.00,0.0055
3269.00,0.0055
3268.00,0.0055
3267.00,0.0054
3266.00,0.0054
3265.00,0.0054
3264.00,0.0054
3263.00,0.0054
3262.00,0.0054
3261.00,0.0054
3260.00,0.0053
3259.00,0.0053
3258.00,0.0054
3257.00,0.0054
3256.00,0.0054
3255.00,0.0054
3254.00,0.0054
3253.00,0.0053
3252.00,0.0052
3251.00,0.0052
3250.00,0.0051
3249.00,0.0051
3248.00,0.0050
3247.00,0.0050
3246.00,0.0050
3245.00,0.0050
3244.00,0.0051
3243.00,0.0051
3242.00,0.0050
3241.00,0.0050
3240.00,0.0051
3239.00,0.0051
3238.00,0.0051
3237.00,0.0051
3236.00,0.0051
3235.00,0.0051
3234.00,0.0051
3233.00,0.0051
3232.00,0.0051
3231.00,0.0050
3230.00,0.0050
3229.00,0.0050
3228.00,0.0051
3227.00,0.0051
3226.00,0.0052
3225.00,0.0052
3224.00,0.0052
3223.00,0.0052
3222.00,0.0052
3221.00,0.0052
3220.00,0.0052
3219.00,0.0052
3218.00,0.0052
3217.00,0.0052
3216.00,0.0052
3215.00,0.0052
3214.00,0.0052
3213.00,0.0053
3212.00,0.0053
3211.00,0.0053
3210.00,0.0053
3209.00,0.0053
3208.00,0.0054
3207.00,0.0054
3206.00,0.0054
3205.00,0.0054
3204.00,0.0054
3203.00,0.0054
3202.00,0.0054
3201.00,0.0054
3200.00,0.0054
3199.00,0.0054
3198.00,0.0055
3197.00,0.0055
3196.00,0.0055
3195.00,0.0055
3194.00,0.0055
3193.00,0.0054
3192.00,0.0054
3191.00,0.0053
3190.00,0.0053
3189.00,0.0053
3188.00,0.0052
3187.00,0.0052
3186.00,0.0052
3185.00,0.0052
3184.00,0.0052
3183.00,0.0052
3182.00,0.0052
3181.00,0.0051
3180.00,0.0051
3179.00,0.0050
3178.00,0.0050
3177.00,0.0050
3176.00,0.0050
3175.00,0.0050
3174.00,0.0049
3173.00,0.0049
3172.00,0.0049
3171.00,0.0049
3170.00,0.0049
3169.00,0.0049
3168.00,0.0049
3167.00,0.0049
3166.00,0.0049
3165.00,0.0048
3164.00,0.0048
3163.00,0.0048
3162.00,0.0048
3161.00,0.0048
3160.00,0.0048
3159.00,0.0048
3158.00,0.0048
3157.00,0.0048
3156.00,0.0048
3155.00,0.0048
3154.00,0.0048
3153.00,0.0047
3152.00,0.0047
3151.00,0.0047
3150.00,0.0047
3149.00,0.0047
3148.00,0.0047
3147.00,0.0047
3146.00,0.0047
3145.00,0.0047
3144.00,0.0046
3143.00,0.0046
3142.00,0.0046
3141.00,0.0046
3140.00,0.0046
3139.00,0.0046
3138.00,0.0046
3137.00,0.0045
3136.00,0.0045
3135.00,0.0044
3134.00,0.0044
3133.00,0.0043
3132.00,0.0043
3131.00,0.0043
3130.00,0.0043
3129.00,0.0043
3128.00,0.0043
3127.00,0.0043
3126.00,0.0042
3125.00,0.0042
3124.00,0.0041
3123.00,0.0041
3122.00,0.0040
3121.00,0.0040
3120.00,0.0040
3119.00,0.0040
3118.00,0.0040
3117.00,0.0039
3116.00,0.0039
3115.00,0.0039
3114.00,0.0039
3113.00,0.0039
3112.00,0.0039
3111.00,0.0039
3110.00,0.0039
3109.00,0.0039
3108.00,0.0039
3107.00,0.0039
3106.00,0.0039
3105.00,0.0039
3104.00,0.0039
3103.00,0.0038
3102.00,0.0037
3101.00,0.0037
3100.00,0.0037
3099.00,0.0037
3098.00,0.0037
3097.00,0.0037
3096.00,0.0037
3095.00,0.0037
3094.00,0.0037
3093.00,0.0037
3092.00,0.0037
3091.00,0.0037
3090.00,0.0037
3089.00,0.0037
3088.00,0.0037
3087.00,0.0037
3086.00,0.0036
3085.00,0.0036
3084.00,0.0036
3083.00,0.0036
3082.00,0.0036
3081.00,0.0036
3080.00,0.0036
3079.00,0.0036
3078.00,0.0036
3077.00,0.0036
3076.00,0.0037
3075.00,0.0037
3074.00,0.0038
3073.00,0.0038
3072.00,0.0038
3071.00,0.0037
3070.00,0.0037
3069.00,0.0037
3068.00,0.0037
3067.00,0.0037
3066.00,0.0038
3065.00,0.0038
3064.00,0.0038
3063.00,0.0039
3062.00,0.0039
3061.00,0.0038
3060.00,0.0038
3059.00,0.0038
3058.00,0.0038
3057.00,0.0038
3056.00,0.0038
3055.00,0.0039
3054.00,0.0039
3053.00,0.0039
3052.00,0.0039
3051.00,0.0039
3050.00,0.0040
3049.00,0.0040
3048.00,0.0040
3047.00,0.0040
3046.00,0.0040
3045.00,0.0040
3044.00,0.0040
3043.00,0.0040
3042.00,0.0041
3041.00,0.0041
3040.00,0.0042
3039.00,0.0042
3038.00,0.0042
3037.00,0.0042
3036.00,0.0042
3035.00,0.0042
3034.00,0.0043
3033.00,0.0044
3032.00,0.0045
3031.00,0.0045
3030.00,0.0046
3029.00,0.0046
3028.00,0.0046
3027.00,0.0047
3026.00,0.0047
3025.00,0.0047
3024.00,0.0048
3023.00,0.0049
3022.00,0.0049
3021.00,0.0050
3020.00,0.0050
3019.00,0.0051
3018.00,0.0052
3017.00,0.0053
3016.00,0.0054
3015.00,0.0055
3014.00,0.0056
3013.00,0.0057
3012.00,0.0058
3011.00,0.0059
3010.00,0.0059
3009.00,0.0060
3008.00,0.0061
3007.00,0.0063
3006.00,0.0065
3005.00,0.0067
3004.00,0.0068
3003.00,0.0070
3002.00,0.0072
3001.00,0.0073
3000.00,0.0076
2999.00,0.0078
2998.00,0.0081
2997.00,0.0084
2996.00,0.0088
2995.00,0.0093
2994.00,0.0097
2993.00,0.0102
2992.00,0.0107
2991.00,0.0112
2990.00,0.0118
2989.00,0.0125
2988.00,0.0132
2987.00,0.0141
2986.00,0.0150
2985.00,0.0160
2984.00,0.0171
2983.00,0.0184
2982.00,0.0199
2981.00,0.0216
2980.00,0.0236
2979.00,0.0259
2978.00,0.0284
2977.00,0.0313
2976.00,0.0346
2975.00,0.0384
2974.00,0.0428
2973.00,0.0479
2972.00,0.0536
2971.00,0.0602
2970.00,0.0676
2969.00,0.0757
2968.00,0.0846
2967.00,0.0943
2966.00,0.1046
2965.00,0.1155
2964.00,0.1265
2963.00,0.1371
2962.00,0.1466
2961.00,0.1545
2960.00,0.1603
2959.00,0.1642
2958.00,0.1668
2957.00,0.1686
2956.00,0.1707
2955.00,0.1734
2954.00,0.1770
2953.00,0.1810
2952.00,0.1844
2951.00,0.1860
2950.00,0.1849
2949.00,0.1805
2948.00,0.1729
2947.00,0.1626
2946.00,0.1510
2945.00,0.1392
2944.00,0.1283
2943.00,0.1191
2942.00,0.1120
2941.00,0.1072
2940.00,0.1046
2939.00,0.1039
2938.00,0.1051
2937.00,0.1079
2936.00,0.1121
2935.00,0.1177
2934.00,0.1245
2933.00,0.1324
2932.00,0.1414
2931.00,0.1512
2930.00,0.1616
2929.00,0.1724
2928.00,0.1832
2927.00,0.1938
2926.00,0.2041
2925.00,0.2141
2924.00,0.2237
2923.00,0.2331
2922.00,0.2423
2921.00,0.2509
2920.00,0.2583
2919.00,0.2635
2918.00,0.2657
2917.00,0.2641
2916.00,0.2589
2915.00,0.2507
2914.00,0.2408
2913.00,0.2304
2912.00,0.2206
2911.00,0.2120
2910.00,0.2048
2909.00,0.1986
2908.00,0.1931
2907.00,0.1877
2906.00,0.1822
2905.00,0.1764
2904.00,0.1702
2903.00,0.1639
2902.00,0.1574
2901.00,0.1509
2900.00,0.1447
2899.00,0.1386
2898.00,0.1329
2897.00,0.1276
2896.00,0.1229
2895.00,0.1187
2894.00,0.1151
2893.00,0.1121
2892.00,0.1096
2891.00,0.1077
2890.00,0.1062
2889.00,0.1051
2888.00,0.1044
2887.00,0.1040
2886.00,0.1039
2885.00,0.1040
2884.00,0.1045
2883.00,0.1053
2882.00,0.1064
2881.00,0.1077
2880.00,0.1088
2879.00,0.1096
2878.00,0.1099
2877.00,0.1096
2876.00,0.1089
2875.00,0.1083
2874.00,0.1080
2873.00,0.1083
2872.00,0.1093
2871.00,0.1109
2870.00,0.1128
2869.00,0.1146
2868.00,0.1157
2867.00,0.1155
2866.00,0.1136
2865.00,0.1098
2864.00,0.1045
2863.00,0.0984
2862.00,0.0924
2861.00,0.0873
2860.00,0.0834
2859.00,0.0810
2858.00,0.0799
2857.00,0.0800
2856.00,0.0810
2855.00,0.0828
2854.00,0.0850
2853.00,0.0876
2852.00,0.0903
2851.00,0.0926
2850.00,0.0942
2849.00,0.0952
2848.00,0.0957
2847.00,0.0964
2846.00,0.0979
2845.00,0.1005
2844.00,0.1042
2843.00,0.1088
2842.00,0.1136
2841.00,0.1179
2840.00,0.1209
2839.00,0.1218
2838.00,0.1200
2837.00,0.1155
2836.00,0.1083
2835.00,0.0991
2834.00,0.0889
2833.00,0.0787
2832.00,0.0691
2831.00,0.0608
2830.00,0.0537
2829.00,0.0479
2828.00,0.0432
2827.00,0.0393
2826.00,0.0361
2825.00,0.0335
2824.00,0.0312
2823.00,0.0293
2822.00,0.0276
2821.00,0.0262
2820.00,0.0249
2819.00,0.0237
2818.00,0.0227
2817.00,0.0219
2816.00,0.0211
2815.00,0.0204
2814.00,0.0198
2813.00,0.0192
2812.00,0.0187
2811.00,0.0181
2810.00,0.0176
2809.00,0.0171
2808.00,0.0166
2807.00,0.0160
2806.00,0.0154
2805.00,0.0147
2804.00,0.0141
2803.00,0.0136
2802.00,0.0131
2801.00,0.0126
2800.00,0.0123
2799.00,0.0120
2798.00,0.0117
2797.00,0.0115
2796.00,0.0113
2795.00,0.0111
2794.00,0.0108
2793.00,0.0105
2792.00,0.0102
2791.00,0.0099
2790.00,0.0095
2789.00,0.0092
2788.00,0.0089
2787.00,0.0086
2786.00,0.0083
2785.00,0.0081
2784.00,0.0078
2783.00,0.0076
2782.00,0.0073
2781.00,0.0071
2780.00,0.0069
2779.00,0.0067
2778.00,0.0066
2777.00,0.0064
2776.00,0.0063
2775.00,0.0062
2774.00,0.0061
2773.00,0.0060
2772.00,0.0060
2771.00,0.0059
2770.00,0.0059
2769.00,0.0058
2768.00,0.0058
2767.00,0.0057
2766.00,0.0057
2765.00,0.0056
2764.00,0.0056
2763.00,0.0056
2762.00,0.0055
2761.00,0.0055
2760.00,0.0054
2759.00,0.0054
2758.00,0.0054
2757.00,0.0054
2756.00,0.0054
2755.00,0.0054
2754.00,0.0054
2753.00,0.0054
2752.00,0.0053
2751.00,0.0053
2750.00,0.0053
2749.00,0.0053
2748.00,0.0053
2747.00,0.0053
2746.00,0.0054
2745.00,0.0055
2744.00,0.0055
2743.00,0.0056
2742.00,0.0057
2741.00,0.0058
2740.00,0.0059
2739.00,0.0060
2738.00,0.0061
2737.00,0.0062
2736.00,0.0063
2735.00,0.0064
2734.00,0.0065
2733.00,0.0066
2732.00,0.0068
2731.00,0.0070
2730.00,0.0072
2729.00,0.0074
2728.00,0.0076
2727.00,0.0079
2726.00,0.0081
2725.00,0.0083
2724.00,0.0085
2723.00,0.0085
2722.00,0.0084
2721.00,0.0083
2720.00,0.0080
2719.00,0.0078
2718.00,0.0075
2717.00,0.0072
2716.00,0.0069
2715.00,0.0066
2714.00,0.0064
2713.00,0.0062
2712.00,0.0060
2711.00,0.0059
2710.00,0.0057
2709.00,0.0056
2708.00,0.0054
2707.00,0.0053
2706.00,0.0052
2705.00,0.0052
2704.00,0.0051
2703.00,0.0050
2702.00,0.0049
2701.00,0.0048
2700.00,0.0048
2699.00,0.0048
2698.00,0.0047
2697.00,0.0047
2696.00,0.0047
2695.00,0.0046
2694.00,0.0046
2693.00,0.0046
2692.00,0.0046
2691.00,0.0046
2690.00,0.0046
2689.00,0.0046
2688.00,0.0046
2687.00,0.0046
2686.00,0.0046
2685.00,0.0046
2684.00,0.0046
2683.00,0.0046
2682.00,0.0047
2681.00,0.0047
2680.00,0.0047
2679.00,0.0047
2678.00,0.0047
2677.00,0.0047
2676.00,0.0047
2675.00,0.0047
2674.00,0.0046
2673.00,0.0046
2672.00,0.0046
2671.00,0.0046
2670.00,0.0046
2669.00,0.0046
2668.00,0.0045
2667.00,0.0046
2666.00,0.0046
2665.00,0.0046
2664.00,0.0047
2663.00,0.0048
2662.00,0.0049
2661.00,0.0049
2660.00,0.0049
2659.00,0.0049
2658.00,0.0049
2657.00,0.0049
2656.00,0.0048
2655.00,0.0048
2654.00,0.0047
2653.00,0.0047
2652.00,0.0046
2651.00,0.0046
2650.00,0.0045
2649.00,0.0045
2648.00,0.0044
2647.00,0.0044
2646.00,0.0044
2645.00,0.0044
2644.00,0.0044
2643.00,0.0043
2642.00,0.0042
2641.00,0.0042
2640.00,0.0041
2639.00,0.0041
2638.00,0.0041
2637.00,0.0041
2636.00,0.0041
2635.00,0.0040
2634.00,0.0040
2633.00,0.0040
2632.00,0.0040
2631.00,0.0040
2630.00,0.0040
2629.00,0.0040
2628.00,0.0040
2627.00,0.0040
2626.00,0.0040
2625.00,0.0040
2624.00,0.0040
2623.00,0.0041
2622.00,0.0041
2621.00,0.0041
2620.00,0.0041
2619.00,0.0041
2618.00,0.0041
2617.00,0.0041
2616.00,0.0041
2615.00,0.0041
2614.00,0.0041
2613.00,0.0040
2612.00,0.0039
2611.00,0.0038
2610.00,0.0037
2609.00,0.0037
2608.00,0.0036
2607.00,0.0035
2606.00,0.0034
2605.00,0.0033
2604.00,0.0033
2603.00,0.0033
2602.00,0.0033
2601.00,0.0032
2600.00,0.0032
2599.00,0.0032
2598.00,0.0032
2597.00,0.0033
2596.00,0.0033
2595.00,0.0033
2594.00,0.0033
2593.00,0.0033
2592.00,0.0033
2591.00,0.0033
2590.00,0.0034
2589.00,0.0035
2588.00,0.0035
2587.00,0.0036
2586.00,0.0036
2585.00,0.0037
2584.00,0.0037
2583.00,0.0038
2582.00,0.0038
2581.00,0.0038
2580.00,0.0038
2579.00,0.0037
2578.00,0.0036
2577.00,0.0035
2576.00,0.0034
2575.00,0.0033
2574.00,0.0032
2573.00,0.0031
2572.00,0.0030
2571.00,0.0029
2570.00,0.0028
2569.00,0.0027
2568.00,0.0027
2567.00,0.0026
2566.00,0.0026
2565.00,0.0026
2564.00,0.0026
2563.00,0.0026
2562.00,0.0026
2561.00,0.0025
2560.00,0.0024
2559.00,0.0024
2558.00,0.0024
2557.00,0.0024
2556.00,0.0024
2555.00,0.0023
2554.00,0.0023
2553.00,0.0023
2552.00,0.0023
2551.00,0.0022
2550.00,0.0022
2549.00,0.0021
2548.00,0.0021
2547.00,0.0020
2546.00,0.0019
2545.00,0.0019
2544.00,0.0019
2543.00,0.0019
2542.00,0.0019
2541.00,0.0018
2540.00,0.0018
2539.00,0.0018
2538.00,0.0018
2537.00,0.0019
2536.00,0.0019
2535.00,0.0019
2534.00,0.0019
2533.00,0.0019
2532.00,0.0018
2531.00,0.0018
2530.00,0.0017
2529.00,0.0017
2528.00,0.0017
2527.00,0.0016
2526.00,0.0015
2525.00,0.0014
2524.00,0.0014
2523.00,0.0014
2522.00,0.0013
2521.00,0.0013
2520.00,0.0014
2519.00,0.0013
2518.00,0.0013
2517.00,0.0012
2516.00,0.0012
2515.00,0.0012
2514.00,0.0011
2513.00,0.0011
2512.00,0.0011
2511.00,0.0011
2510.00,0.0011
2509.00,0.0012
2508.00,0.0012
2507.00,0.0012
2506.00,0.0012
2505.00,0.0012
2504.00,0.0012
2503.00,0.0013
2502.00,0.0013
2501.00,0.0013
2500.00,0.0012
2499.00,0.0011
2498.00,0.0010
2497.00,0.0010
2496.00,0.0009
2495.00,0.0009
2494.00,0.0009
2493.00,0.0010
2492.00,0.0011
2491.00,0.0011
2490.00,0.0012
2489.00,0.0012
2488.00,0.0012
2487.00,0.0012
2486.00,0.0012
2485.00,0.0012
2484.00,0.0012
2483.00,0.0012
2482.00,0.0012
2481.00,0.0011
2480.00,0.0010
2479.00,0.0009
2478.00,0.0009
2477.00,0.0009
2476.00,0.0009
2475.00,0.0009
2474.00,0.0009
2473.00,0.0009
2472.00,0.0009
2471.00,0.0008
2470.00,0.0008
2469.00,0.0008
2468.00,0.0008
2467.00,0.0009
2466.00,0.0010
2465.00,0.0011
2464.00,0.0011
2463.00,0.0012
2462.00,0.0012
2461.00,0.0012
2460.00,0.0012
2459.00,0.0012
2458.00,0.0012
2457.00,0.0012
2456.00,0.0012
2455.00,0.0012
2454.00,0.0012
2453.00,0.0012
2452.00,0.0012
2451.00,0.0012
2450.00,0.0013
2449.00,0.0014
2448.00,0.0014
2447.00,0.0014
2446.00,0.0014
2445.00,0.0013
2444.00,0.0012
2443.00,0.0012
2442.00,0.0012
2441.00,0.0012
2440.00,0.0012
2439.00,0.0012
2438.00,0.0011
2437.00,0.0011
2436.00,0.0011
2435.00,0.0011
2434.00,0.0012
2433.00,0.0012
2432.00,0.0013
2431.00,0.0013
2430.00,0.0013
2429.00,0.0012
2428.00,0.0012
2427.00,0.0012
2426.00,0.0012
2425.00,0.0012
2424.00,0.0012
2423.00,0.0012
2422.00,0.0011
2421.00,0.0011
2420.00,0.0011
2419.00,0.0011
2418.00,0.0011
2417.00,0.0011
2416.00,0.0011
2415.00,0.0011
2414.00,0.0011
2413.00,0.0011
2412.00,0.0012
2411.00,0.0012
2410.00,0.0012
2409.00,0.0013
2408.00,0.0012
2407.00,0.0011
2406.00,0.0010
2405.00,0.0009
2404.00,0.0009
2403.00,0.0009
2402.00,0.0009
2401.00,0.0009
2400.00,0.0009
2399.00,0.0010
2398.00,0.0010
2397.00,0.0010
2396.00,0.0010
2395.00,0.0010
2394.00,0.0010
2393.00,0.0010
2392.00,0.0009
2391.00,0.0008
2390.00,0.0008
2389.00,0.0008
2388.00,0.0007
2387.00,0.0007
2386.00,0.0007
2385.00,0.0007
2384.00,0.0007
2383.00,0.0006
2382.00,0.0006
2381.00,0.0007
2380.00,0.0007
2379.00,0.0007
2378.00,0.0006
2377.00,0.0005
2376.00,0.0005
2375.00,0.0004
2374.00,0.0004
2373.00,0.0004
2372.00,0.0005
2371.00,0.0005
2370.00,0.0005
2369.00,0.0005
2368.00,0.0005
2367.00,0.0005
2366.00,0.0005
2365.00,0.0005
2364.00,0.0005
2363.00,0.0005
2362.00,0.0005
2361.00,0.0005
2360.00,0.0005
2359.00,0.0005
2358.00,0.0005
2357.00,0.0005
2356.00,0.0006
2355.00,0.0006
2354.00,0.0006
2353.00,0.0006
2352.00,0.0005
2351.00,0.0005
2350.00,0.0005
2349.00,0.0006
2348.00,0.0006
2347.00,0.0007
2346.00,0.0007
2345.00,0.0007
2344.00,0.0007
2343.00,0.0008
2342.00,0.0009
2341.00,0.0009
2340.00,0.0009
2339.00,0.0009
2338.00,0.0008
2337.00,0.0008
2336.00,0.0008
2335.00,0.0008
2334.00,0.0008
2333.00,0.0007
2332.00,0.0006
2331.00,0.0006
2330.00,0.0007
2329.00,0.0008
2328.00,0.0009
2327.00,0.0012
2326.00,0.0016
2325.00,0.0020
2324.00,0.0021
2323.00,0.0020
2322.00,0.0018
2321.00,0.0016
2320.00,0.0015
2319.00,0.0014
2318.00,0.0013
2317.00,0.0012
2316.00,0.0011
2315.00,0.0010
2314.00,0.0009
2313.00,0.0009
2312.00,0.0009
2311.00,0.0009
2310.00,0.0010
2309.00,0.0010
2308.00,0.0010
2307.00,0.0010
2306.00,0.0010
2305.00,0.0009
2304.00,0.0009
2303.00,0.0010
2302.00,0.0010
2301.00,0.0011
2300.00,0.0011
2299.00,0.0011
2298.00,0.0012
2297.00,0.0012
2296.00,0.0013
2295.00,0.0013
2294.00,0.0013
2293.00,0.0015
2292.00,0.0016
2291.00,0.0017
2290.00,0.0018
2289.00,0.0019
2288.00,0.0019
2287.00,0.0019
2286.00,0.0019
2285.00,0.0019
2284.00,0.0018
2283.00,0.0018
2282.00,0.0018
2281.00,0.0017
2280.00,0.0016
2279.00,0.0015
2278.00,0.0014
2277.00,0.0013
2276.00,0.0013
2275.00,0.0013
2274.00,0.0013
2273.00,0.0013
2272.00,0.0013
2271.00,0.0013
2270.00,0.0013
2269.00,0.0013
2268.00,0.0012
2267.00,0.0012
2266.00,0.0012
2265.00,0.0011
2264.00,0.0011
2263.00,0.0011
2262.00,0.0011
2261.00,0.0011
2260.00,0.0012
2259.00,0.0012
2258.00,0.0011
2257.00,0.0010
2256.00,0.0010
2255.00,0.0010
2254.00,0.0010
2253.00,0.0011
2252.00,0.0011
2251.00,0.0012
2250.00,0.0012
2249.00,0.0013
2248.00,0.0013
2247.00,0.0012
2246.00,0.0009
2245.00,0.0008
2244.00,0.0008
2243.00,0.0010
2242.00,0.0012
2241.00,0.0012
2240.00,0.0012
2239.00,0.0012
2238.00,0.0011
2237.00,0.0010
2236.00,0.0009
2235.00,0.0009
2234.00,0.0008
2233.00,0.0008
2232.00,0.0007
2231.00,0.0007
2230.00,0.0007
2229.00,0.0007
2228.00,0.0008
2227.00,0.0008
2226.00,0.0008
2225.00,0.0008
2224.00,0.0007
2223.00,0.0006
2222.00,0.0005
2221.00,0.0006
2220.00,0.0008
2219.00,0.0010
2218.00,0.0011
2217.00,0.0011
2216.00,0.0011
2215.00,0.0011
2214.00,0.0011
2213.00,0.0012
2212.00,0.0011
2211.00,0.0010
2210.00,0.0008
2209.00,0.0007
2208.00,0.0005
2207.00,0.0005
2206.00,0.0005
2205.00,0.0006
2204.00,0.0007
2203.00,0.0008
2202.00,0.0008
2201.00,0.0008
2200.00,0.0008
2199.00,0.0008
2198.00,0.0009
2197.00,0.0009
2196.00,0.0010
2195.00,0.0009
2194.00,0.0009
2193.00,0.0009
2192.00,0.0009
2191.00,0.0009
2190.00,0.0009
2189.00,0.0008
2188.00,0.0008
2187.00,0.0009
2186.00,0.0010
2185.00,0.0010
2184.00,0.0010
2183.00,0.0009
2182.00,0.0008
2181.00,0.0009
2180.00,0.0011
2179.00,0.0013
2178.00,0.0014
2177.00,0.0012
2176.00,0.0008
2175.00,0.0004
2174.00,0.0002
2173.00,0.0002
2172.00,0.0004
2171.00,0.0007
2170.00,0.0010
2169.00,0.0012
2168.00,0.0015
2167.00,0.0017
2166.00,0.0020
2165.00,0.0022
2164.00,0.0023
2163.00,0.0024
2162.00,0.0021
2161.00,0.0015
2160.00,0.0003
2159.00,-0.0010
2158.00,-0.0021
2157.00,-0.0026
2156.00,-0.0025
2155.00,-0.0023
2154.00,-0.0019
2153.00,-0.0016
2152.00,-0.0013
2151.00,-0.0011
2150.00,-0.0010
2149.00,-0.0011
2148.00,-0.0011
2147.00,-0.0011
2146.00,-0.0011
2145.00,-0.0010
2144.00,-0.0009
2143.00,-0.0009
2142.00,-0.0009
2141.00,-0.0010
2140.00,-0.0010
2139.00,-0.0009
2138.00,-0.0009
2137.00,-0.0010
2136.00,-0.0011
2135.00,-0.0013
2134.00,-0.0015
2133.00,-0.0016
2132.00,-0.0015
2131.00,-0.0013
2130.00,-0.0011
2129.00,-0.0009
2128.00,-0.0007
2127.00,-0.0006
2126.00,-0.0006
2125.00,-0.0007
2124.00,-0.0007
2123.00,-0.0007
2122.00,-0.0007
2121.00,-0.0006
2120.00,-0.0004
2119.00,-0.0003
2118.00,-0.0001
2117.00,0.0002
2116.00,0.0004
2115.00,0.0005
2114.00,0.0005
2113.00,0.0004
2112.00,0.0004
2111.00,0.0003
2110.00,0.0003
2109.00,0.0002
2108.00,0.0001
2107.00,0.0000
2106.00,-0.0000
2105.00,-0.0001
2104.00,-0.0000
2103.00,0.0000
2102.00,0.0001
2101.00,0.0001
2100.00,0.0002
2099.00,0.0002
2098.00,0.0001
2097.00,0.0000
2096.00,-0.0001
2095.00,-0.0002
2094.00,-0.0002
2093.00,-0.0002
2092.00,-0.0000
2091.00,0.0001
2090.00,0.0001
2089.00,0.0001
2088.00,0.0001
2087.00,0.0002
2086.00,0.0003
2085.00,0.0003
2084.00,0.0003
2083.00,0.0002
2082.00,0.0001
2081.00,0.0001
2080.00,0.0001
2079.00,0.0002
2078.00,0.0003
2077.00,0.0003
2076.00,0.0003
2075.00,0.0003
2074.00,0.0002
2073.00,0.0001
2072.00,0.0001
2071.00,-0.0001
2070.00,-0.0001
2069.00,-0.0002
2068.00,-0.0001
2067.00,-0.0001
2066.00,-0.0001
2065.00,-0.0001
2064.00,-0.0000
2063.00,0.0000
2062.00,0.0000
2061.00,0.0001
2060.00,0.0000
2059.00,-0.0000
2058.00,-0.0001
2057.00,-0.0000
2056.00,0.0001
2055.00,0.0001
2054.00,0.0003
2053.00,0.0006
2052.00,0.0010
2051.00,0.0014
2050.00,0.0014
2049.00,0.0012
2048.00,0.0009
2047.00,0.0007
2046.00,0.0005
2045.00,0.0003
2044.00,0.0002
2043.00,0.0002
2042.00,0.0004
2041.00,0.0006
2040.00,0.0006
2039.00,0.0004
2038.00,0.0001
2037.00,-0.0002
2036.00,-0.0004
2035.00,-0.0004
2034.00,-0.0002
2033.00,0.0000
2032.00,0.0001
2031.00,-0.0001
2030.00,-0.0003
2029.00,-0.0005
2028.00,-0.0006
2027.00,-0.0008
2026.00,-0.0009
2025.00,-0.0009
2024.00,-0.0009
2023.00,-0.0009
2022.00,-0.0010
2021.00,-0.0011
2020.00,-0.0011
2019.00,-0.0013
2018.00,-0.0014
2017.00,-0.0015
2016.00,-0.0014
2015.00,-0.0013
2014.00,-0.0012
2013.00,-0.0013
2012.00,-0.0013
2011.00,-0.0014
2010.00,-0.0014
2009.00,-0.0014
2008.00,-0.0015
2007.00,-0.0017
2006.00,-0.0018
2005.00,-0.0018
2004.00,-0.0017
2003.00,-0.0015
2002.00,-0.0014
2001.00,-0.0013
2000.00,-0.0012
1999.00,-0.0011
1998.00,-0.0007
1997.00,-0.0004
1996.00,-0.0002
1995.00,-0.0003
1994.00,-0.0005
1993.00,-0.0008
1992.00,-0.0009
1991.00,-0.0009
1990.00,-0.0007
1989.00,-0.0004
1988.00,-0.0000
1987.00,0.0001
1986.00,0.0000
1985.00,-0.0001
1984.00,-0.0001
1983.00,-0.0000
1982.00,0.0001
1981.00,0.0002
1980.00,0.0003
1979.00,0.0002
1978.00,-0.0000
1977.00,-0.0003
1976.00,-0.0006
1975.00,-0.0009
1974.00,-0.0011
1973.00,-0.0012
1972.00,-0.0012
1971.00,-0.0014
1970.00,-0.0016
1969.00,-0.0017
1968.00,-0.0016
1967.00,-0.0015
1966.00,-0.0013
1965.00,-0.0012
1964.00,-0.0012
1963.00,-0.0012
1962.00,-0.0013
1961.00,-0.0014
1960.00,-0.0014
1959.00,-0.0016
1958.00,-0.0017
1957.00,-0.0017
1956.00,-0.0016
1955.00,-0.0015
1954.00,-0.0015
1953.00,-0.0014
1952.00,-0.0014
1951.00,-0.0015
1950.00,-0.0016
1949.00,-0.0016
1948.00,-0.0016
1947.00,-0.0015
1946.00,-0.0015
1945.00,-0.0014
1944.00,-0.0014
1943.00,-0.0014
1942.00,-0.0014
1941.00,-0.0013
1940.00,-0.0012
1939.00,-0.0011
1938.00,-0.0010
1937.00,-0.0010
1936.00,-0.0010
1935.00,-0.0009
1934.00,-0.0008
1933.00,-0.0007
1932.00,-0.0005
1931.00,-0.0005
1930.00,-0.0005
1929.00,-0.0006
1928.00,-0.0006
1927.00,-0.0007
1926.00,-0.0007
1925.00,-0.0006
1924.00,-0.0006
1923.00,-0.0006
1922.00,-0.0005
1921.00,-0.0004
1920.00,-0.0004
1919.00,-0.0003
1918.00,-0.0003
1917.00,-0.0003
1916.00,-0.0003
1915.00,-0.0003
1914.00,-0.0003
1913.00,-0.0003
1912.00,-0.0003
1911.00,-0.0003
1910.00,-0.0004
1909.00,-0.0004
1908.00,-0.0004
1907.00,-0.0003
1906.00,-0.0003
1905.00,-0.0002
1904.00,-0.0000
1903.00,-0.0000
1902.00,-0.0000
1901.00,-0.0001
1900.00,-0.0002
1899.00,-0.0002
1898.00,-0.0003
1897.00,-0.0004
1896.00,-0.0003
1895.00,-0.0002
1894.00,0.0000
1893.00,0.0002
1892.00,0.0004
1891.00,0.0005
1890.00,0.0004
1889.00,0.0003
1888.00,0.0002
1887.00,0.0001
1886.00,-0.0000
1885.00,-0.0001
1884.00,-0.0001
1883.00,-0.0001
1882.00,-0.0000
1881.00,-0.0000
1880.00,0.0000
1879.00,-0.0000
1878.00,-0.0001
1877.00,-0.0001
1876.00,-0.0002
1875.00,-0.0002
1874.00,-0.0002
1873.00,-0.0002
1872.00,-0.0001
1871.00,-0.0001
1870.00,-0.0001
1869.00,-0.0000
1868.00,0.0000
1867.00,0.0001
1866.00,0.0001
1865.00,0.0002
1864.00,0.0002
1863.00,0.0003
1862.00,0.0004
1861.00,0.0004
1860.00,0.0003
1859.00,0.0002
1858.00,0.0002
1857.00,0.0001
1856.00,-0.0000
1855.00,-0.0002
1854.00,-0.0003
1853.00,-0.0003
1852.00,-0.0003
1851.00,-0.0002
1850.00,-0.0002
1849.00,-0.0001
1848.00,-0.0001
1847.00,-0.0000
1846.00,0.0000
1845.00,0.0001
1844.00,0.0002
1843.00,0.0003
1842.00,0.0002
1841.00,0.0002
1840.00,0.0001
1839.00,0.0001
1838.00,0.0002
1837.00,0.0003
1836.00,0.0003
1835.00,0.0003
1834.00,0.0003
1833.00,0.0003
1832.00,0.0003
1831.00,0.0003
1830.00,0.0004
1829.00,0.0004
1828.00,0.0005
1827.00,0.0005
1826.00,0.0005
1825.00,0.0004
1824.00,0.0004
1823.00,0.0003
1822.00,0.0004
1821.00,0.0004
1820.00,0.0004
1819.00,0.0002
1818.00,0.0001
1817.00,0.0000
1816.00,0.0000
1815.00,0.0001
1814.00,0.0002
1813.00,0.0003
1812.00,0.0003
1811.00,0.0003
1810.00,0.0003
1809.00,0.0003
1808.00,0.0003
1807.00,0.0004
1806.00,0.0005
1805.00,0.0006
1804.00,0.0006
1803.00,0.0006
1802.00,0.0005
1801.00,0.0005
1800.00,0.0005
1799.00,0.0005
1798.00,0.0005
1797.00,0.0005
1796.00,0.0005
1795.00,0.0005
1794.00,0.0005
1793.00,0.0006
1792.00,0.0007
1791.00,0.0007
1790.00,0.0008
1789.00,0.0008
1788.00,0.0008
1787.00,0.0008
1786.00,0.0008
1785.00,0.0008
1784.00,0.0008
1783.00,0.0008
1782.00,0.0008
1781.00,0.0008
1780.00,0.0009
1779.00,0.0009
1778.00,0.0009
1777.00,0.0009
1776.00,0.0009
1775.00,0.0008
1774.00,0.0008
1773.00,0.0008
1772.00,0.0009
1771.00,0.0010
1770.00,0.0011
1769.00,0.0012
1768.00,0.0012
1767.00,0.0013
1766.00,0.0013
1765.00,0.0013
1764.00,0.0013
1763.00,0.0014
1762.00,0.0014
1761.00,0.0014
1760.00,0.0015
1759.00,0.0016
1758.00,0.0016
1757.00,0.0017
1756.00,0.0017
1755.00,0.0018
1754.00,0.0018
1753.00,0.0018
1752.00,0.0019
1751.00,0.0020
1750.00,0.0021
1749.00,0.0022
1748.00,0.0023
1747.00,0.0023
1746.00,0.0024
1745.00,0.0025
1744.00,0.0026
1743.00,0.0027
1742.00,0.0027
1741.00,0.0028
1740.00,0.0028
1739.00,0.0029
1738.00,0.0029
1737.00,0.0029
1736.00,0.0029
1735.00,0.0029
1734.00,0.0029
1733.00,0.0029
1732.00,0.0029
1731.00,0.0029
1730.00,0.0029
1729.00,0.0029
1728.00,0.0028
1727.00,0.0028
1726.00,0.0027
1725.00,0.0027
1724.00,0.0027
1723.00,0.0028
1722.00,0.0028
1721.00,0.0029
1720.00,0.0029
1719.00,0.0029
1718.00,0.0028
1717.00,0.0027
1716.00,0.0027
1715.00,0.0026
1714.00,0.0026
1713.00,0.0026
1712.00,0.0026
1711.00,0.0027
1710.00,0.0027
1709.00,0.0027
1708.00,0.0027
1707.00,0.0027
1706.00,0.0027
1705.00,0.0028
1704.00,0.0028
1703.00,0.0028
1702.00,0.0028
1701.00,0.0029
1700.00,0.0030
1699.00,0.0031
1698.00,0.0031
1697.00,0.0031
1696.00,0.0032
1695.00,0.0032
1694.00,0.0033
1693.00,0.0034
1692.00,0.0034
1691.00,0.0035
1690.00,0.0036
1689.00,0.0037
1688.00,0.0037
1687.00,0.0038
1686.00,0.0038
1685.00,0.0038
1684.00,0.0040
1683.00,0.0041
1682.00,0.0042
1681.00,0.0042
1680.00,0.0043
1679.00,0.0044
1678.00,0.0045
1677.00,0.0047
1676.00,0.0048
1675.00,0.0050
1674.00,0.0051
1673.00,0.0052
1672.00,0.0053
1671.00,0.0054
1670.00,0.0054
1669.00,0.0055
1668.00,0.0056
1667.00,0.0056
1666.00,0.0057
1665.00,0.0058
1664.00,0.0059
1663.00,0.0059
1662.00,0.0060
1661.00,0.0060
1660.00,0.0060
1659.00,0.0061
1658.00,0.0062
1657.00,0.0062
1656.00,0.0063
1655.00,0.0063
1654.00,0.0065
1653.00,0.0067
1652.00,0.0069
1651.00,0.0070
1650.00,0.0070
1649.00,0.0071
1648.00,0.0072
1647.00,0.0074
1646.00,0.0076
1645.00,0.0077
1644.00,0.0078
1643.00,0.0078
1642.00,0.0079
1641.00,0.0080
1640.00,0.0081
1639.00,0.0082
1638.00,0.0083
1637.00,0.0083
1636.00,0.0084
1635.00,0.0085
1634.00,0.0085
1633.00,0.0085
1632.00,0.0085
1631.00,0.0084
1630.00,0.0084
1629.00,0.0083
1628.00,0.0083
1627.00,0.0082
1626.00,0.0082
1625.00,0.0082
1624.00,0.0081
1623.00,0.0081
1622.00,0.0081
1621.00,0.0080
1620.00,0.0080
1619.00,0.0080
1618.00,0.0079
1617.00,0.0078
1616.00,0.0078
1615.00,0.0078
1614.00,0.0079
1613.00,0.0079
1612.00,0.0079
1611.00,0.0080
1610.00,0.0080
1609.00,0.0080
1608.00,0.0080
1607.00,0.0080
1606.00,0.0080
1605.00,0.0081
1604.00,0.0081
1603.00,0.0082
1602.00,0.0082
1601.00,0.0082
1600.00,0.0082
1599.00,0.0082
1598.00,0.0082
1597.00,0.0082
1596.00,0.0083
1595.00,0.0083
1594.00,0.0084
1593.00,0.0086
1592.00,0.0087
1591.00,0.0088
1590.00,0.0090
1589.00,0.0092
1588.00,0.0095
1587.00,0.0098
1586.00,0.0102
1585.00,0.0107
1584.00,0.0112
1583.00,0.0118
1582.00,0.0124
1581.00,0.0131
1580.00,0.0137
1579.00,0.0141
1578.00,0.0143
1577.00,0.0144
1576.00,0.0142
1575.00,0.0139
1574.00,0.0135
1573.00,0.0131
1572.00,0.0127
1571.00,0.0122
1570.00,0.0117
1569.00,0.0113
1568.00,0.0109
1567.00,0.0107
1566.00,0.0104
1565.00,0.0102
1564.00,0.0101
1563.00,0.0100
1562.00,0.0099
1561.00,0.0099
1560.00,0.0100
1559.00,0.0100
1558.00,0.0100
1557.00,0.0101
1556.00,0.0101
1555.00,0.0103
1554.00,0.0105
1553.00,0.0108
1552.00,0.0111
1551.00,0.0115
1550.00,0.0119
1549.00,0.0123
1548.00,0.0128
1547.00,0.0133
1546.00,0.0139
1545.00,0.0146
1544.00,0.0153
1543.00,0.0158
1542.00,0.0162
1541.00,0.0162
1540.00,0.0158
1539.00,0.0151
1538.00,0.0143
1537.00,0.0137
1536.00,0.0130
1535.00,0.0123
1534.00,0.0114
1533.00,0.0105
1532.00,0.0099
1531.00,0.0094
1530.00,0.0090
1529.00,0.0087
1528.00,0.0085
1527.00,0.0082
1526.00,0.0080
1525.00,0.0079
1524.00,0.0078
1523.00,0.0077
1522.00,0.0076
1521.00,0.0076
1520.00,0.0076
1519.00,0.0075
1518.00,0.0075
1517.00,0.0074
1516.00,0.0074
1515.00,0.0074
1514.00,0.0074
1513.00,0.0074
1512.00,0.0075
1511.00,0.0075
1510.00,0.0075
1509.00,0.0076
1508.00,0.0077
1507.00,0.0078
1506.00,0.0078
1505.00,0.0080
1504.00,0.0082
1503.00,0.0083
1502.00,0.0085
1501.00,0.0087
1500.00,0.0090
1499.00,0.0093
1498.00,0.0095
1497.00,0.0098
1496.00,0.0102
1495.00,0.0105
1494.00,0.0108
1493.00,0.0112
1492.00,0.0116
1491.00,0.0121
1490.00,0.0126
1489.00,0.0133
1488.00,0.0139
1487.00,0.0145
1486.00,0.0152
1485.00,0.0160
1484.00,0.0169
1483.00,0.0179
1482.00,0.0191
1481.00,0.0206
1480.00,0.0221
1479.00,0.0237
1478.00,0.0255
1477.00,0.0278
1476.00,0.0305
1475.00,0.0335
1474.00,0.0374
1473.00,0.0428
1472.00,0.0490
1471.00,0.0550
1470.00,0.0608
1469.00,0.0668
1468.00,0.0734
1467.00,0.0806
1466.00,0.0886
1465.00,0.0971
1464.00,0.1044
1463.00,0.1095
1462.00,0.1128
1461.00,0.1150
1460.00,0.1166
1459.00,0.1177
1458.00,0.1187
1457.00,0.1197
1456.00,0.1200
1455.00,0.1197
1454.00,0.1189
1453.00,0.1177
1452.00,0.1156
1451.00,0.1124
1450.00,0.1079
1449.00,0.1014
1448.00,0.0929
1447.00,0.0836
1446.00,0.0749
1445.00,0.0673
1444.00,0.0606
1443.00,0.0552
1442.00,0.0510
1441.00,0.0480
1440.00,0.0461
1439.00,0.0452
1438.00,0.0450
1437.00,0.0448
1436.00,0.0438
1435.00,0.0414
1434.00,0.0381
1433.00,0.0341
1432.00,0.0299
1431.00,0.0262
1430.00,0.0233
1429.00,0.0212
1428.00,0.0196
1427.00,0.0187
1426.00,0.0181
1425.00,0.0175
1424.00,0.0170
1423.00,0.0167
1422.00,0.0166
1421.00,0.0163
1420.00,0.0160
1419.00,0.0157
1418.00,0.0154
1417.00,0.0151
1416.00,0.0147
1415.00,0.0145
1414.00,0.0143
1413.00,0.0141
1412.00,0.0138
1411.00,0.0136
1410.00,0.0136
1409.00,0.0134
1408.00,0.0132
1407.00,0.0132
1406.00,0.0132
1405.00,0.0131
1404.00,0.0129
1403.00,0.0129
1402.00,0.0129
1401.00,0.0129
1400.00,0.0129
1399.00,0.0130
1398.00,0.0132
1397.00,0.0134
1396.00,0.0135
1395.00,0.0138
1394.00,0.0142
1393.00,0.0145
1392.00,0.0150
1391.00,0.0157
1390.00,0.0167
1389.00,0.0180
1388.00,0.0199
1387.00,0.0229
1386.00,0.0269
1385.00,0.0322
1384.00,0.0395
1383.00,0.0496
1382.00,0.0630
1381.00,0.0800
1380.00,0.1008
1379.00,0.1244
1378.00,0.1472
1377.00,0.1638
1376.00,0.1693
1375.00,0.1609
1374.00,0.1412
1373.00,0.1175
1372.00,0.0956
1371.00,0.0776
1370.00,0.0631
1369.00,0.0522
1368.00,0.0445
1367.00,0.0398
1366.00,0.0372
1365.00,0.0362
1364.00,0.0363
1363.00,0.0374
1362.00,0.0391
1361.00,0.0410
1360.00,0.0425
1359.00,0.0429
1358.00,0.0420
1357.00,0.0397
1356.00,0.0365
1355.00,0.0329
1354.00,0.0295
1353.00,0.0265
1352.00,0.0241
1351.00,0.0222
1350.00,0.0205
1349.00,0.0191
1348.00,0.0179
1347.00,0.0170
1346.00,0.0162
1345.00,0.0155
1344.00,0.0149
1343.00,0.0145
1342.00,0.0140
1341.00,0.0137
1340.00,0.0134
1339.00,0.0132
1338.00,0.0131
1337.00,0.0130
1336.00,0.0130
1335.00,0.0131
1334.00,0.0133
1333.00,0.0136
1332.00,0.0139
1331.00,0.0141
1330.00,0.0143
1329.00,0.0142
1328.00,0.0139
1327.00,0.0136
1326.00,0.0132
1325.00,0.0127
1324.00,0.0122
1323.00,0.0117
1322.00,0.0114
1321.00,0.0111
1320.00,0.0109
1319.00,0.0107
1318.00,0.0106
1317.00,0.0104
1316.00,0.0102
1315.00,0.0101
1314.00,0.0101
1313.00,0.0101
1312.00,0.0103
1311.00,0.0106
1310.00,0.0110
1309.00,0.0118
1308.00,0.0128
1307.00,0.0142
1306.00,0.0155
1305.00,0.0164
1304.00,0.0166
1303.00,0.0161
1302.00,0.0153
1301.00,0.0146
1300.00,0.0141
1299.00,0.0138
1298.00,0.0137
1297.00,0.0136
1296.00,0.0134
1295.00,0.0131
1294.00,0.0127
1293.00,0.0122
1292.00,0.0118
1291.00,0.0113
1290.00,0.0109
1289.00,0.0106
1288.00,0.0103
1287.00,0.0100
1286.00,0.0098
1285.00,0.0096
1284.00,0.0094
1283.00,0.0093
1282.00,0.0091
1281.00,0.0090
1280.00,0.0089
1279.00,0.0089
1278.00,0.0088
1277.00,0.0088
1276.00,0.0088
1275.00,0.0088
1274.00,0.0088
1273.00,0.0088
1272.00,0.0088
1271.00,0.0089
1270.00,0.0091
1269.00,0.0093
1268.00,0.0096
1267.00,0.0099
1266.00,0.0102
1265.00,0.0105
1264.00,0.0109
1263.00,0.0113
1262.00,0.0118
1261.00,0.0123
1260.00,0.0130
1259.00,0.0138
1258.00,0.0146
1257.00,0.0153
1256.00,0.0156
1255.00,0.0153
1254.00,0.0146
1253.00,0.0136
1252.00,0.0126
1251.00,0.0118
1250.00,0.0112
1249.00,0.0107
1248.00,0.0103
1247.00,0.0101
1246.00,0.0099
1245.00,0.0097
1244.00,0.0096
1243.00,0.0094
1242.00,0.0094
1241.00,0.0093
1240.00,0.0093
1239.00,0.0093
1238.00,0.0093
1237.00,0.0093
1236.00,0.0093
1235.00,0.0094
1234.00,0.0095
1233.00,0.0096
1232.00,0.0097
1231.00,0.0098
1230.00,0.0099
1229.00,0.0100
1228.00,0.0102
1227.00,0.0103
1226.00,0.0106
1225.00,0.0109
1224.00,0.0112
1223.00,0.0116
1222.00,0.0119
1221.00,0.0121
1220.00,0.0122
1219.00,0.0123
1218.00,0.0121
1217.00,0.0119
1216.00,0.0116
1215.00,0.0114
1214.00,0.0112
1213.00,0.0110
1212.00,0.0108
1211.00,0.0107
1210.00,0.0105
1209.00,0.0104
1208.00,0.0103
1207.00,0.0102
1206.00,0.0102
1205.00,0.0101
1204.00,0.0101
1203.00,0.0102
1202.00,0.0102
1201.00,0.0103
1200.00,0.0104
1199.00,0.0105
1198.00,0.0107
1197.00,0.0107
1196.00,0.0107
1195.00,0.0106
1194.00,0.0107
1193.00,0.0107
1192.00,0.0107
1191.00,0.0108
1190.00,0.0108
1189.00,0.0109
1188.00,0.0109
1187.00,0.0109
1186.00,0.0109
1185.00,0.0110
1184.00,0.0111
1183.00,0.0112
1182.00,0.0113
1181.00,0.0115
1180.00,0.0119
1179.00,0.0123
1178.00,0.0130
1177.00,0.0139
1176.00,0.0152
1175.00,0.0168
1174.00,0.0191
1173.00,0.0219
1172.00,0.0254
1171.00,0.0294
1170.00,0.0333
1169.00,0.0365
1168.00,0.0384
1167.00,0.0387
1166.00,0.0376
1165.00,0.0355
1164.00,0.0331
1163.00,0.0306
1162.00,0.0285
1161.00,0.0268
1160.00,0.0255
1159.00,0.0244
1158.00,0.0236
1157.00,0.0229
1156.00,0.0224
1155.00,0.0219
1154.00,0.0216
1153.00,0.0213
1152.00,0.0208
1151.00,0.0201
1150.00,0.0193
1149.00,0.0184
1148.00,0.0175
1147.00,0.0167
1146.00,0.0159
1145.00,0.0151
1144.00,0.0142
1143.00,0.0135
1142.00,0.0128
1141.00,0.0123
1140.00,0.0119
1139.00,0.0116
1138.00,0.0114
1137.00,0.0111
1136.00,0.0109
1135.00,0.0107
1134.00,0.0106
1133.00,0.0106
1132.00,0.0106
1131.00,0.0106
1130.00,0.0106
1129.00,0.0107
1128.00,0.0107
1127.00,0.0108
1126.00,0.0108
1125.00,0.0109
1124.00,0.0110
1123.00,0.0111
1122.00,0.0112
1121.00,0.0112
1120.00,0.0113
1119.00,0.0113
1118.00,0.0115
1117.00,0.0117
1116.00,0.0118
1115.00,0.0120
1114.00,0.0121
1113.00,0.0123
1112.00,0.0124
1111.00,0.0126
1110.00,0.0128
1109.00,0.0131
1108.00,0.0134
1107.00,0.0138
1106.00,0.0143
1105.00,0.0147
1104.00,0.0151
1103.00,0.0153
1102.00,0.0153
1101.00,0.0150
1100.00,0.0145
1099.00,0.0140
1098.00,0.0135
1097.00,0.0130
1096.00,0.0126
1095.00,0.0122
1094.00,0.0118
1093.00,0.0115
1092.00,0.0112
1091.00,0.0111
1090.00,0.0109
1089.00,0.0108
1088.00,0.0107
1087.00,0.0106
1086.00,0.0106
1085.00,0.0106
1084.00,0.0106
1083.00,0.0105
1082.00,0.0105
1081.00,0.0105
1080.00,0.0104
1079.00,0.0103
1078.00,0.0101
1077.00,0.0099
1076.00,0.0098
1075.00,0.0096
1074.00,0.0096
1073.00,0.0096
1072.00,0.0096
1071.00,0.0097
1070.00,0.0097
1069.00,0.0098
1068.00,0.0098
1067.00,0.0099
1066.00,0.0100
1065.00,0.0101
1064.00,0.0102
1063.00,0.0102
1062.00,0.0102
1061.00,0.0103
1060.00,0.0104
1059.00,0.0106
1058.00,0.0108
1057.00,0.0109
1056.00,0.0111
1055.00,0.0113
1054.00,0.0114
1053.00,0.0117
1052.00,0.0120
1051.00,0.0124
1050.00,0.0128
1049.00,0.0134
1048.00,0.0140
1047.00,0.0146
1046.00,0.0151
1045.00,0.0155
1044.00,0.0156
1043.00,0.0155
1042.00,0.0153
1041.00,0.0150
1040.00,0.0147
1039.00,0.0146
1038.00,0.0145
1037.00,0.0146
1036.00,0.0147
1035.00,0.0147
1034.00,0.0145
1033.00,0.0142
1032.00,0.0138
1031.00,0.0135
1030.00,0.0133
1029.00,0.0133
1028.00,0.0133
1027.00,0.0135
1026.00,0.0137
1025.00,0.0139
1024.00,0.0142
1023.00,0.0144
1022.00,0.0146
1021.00,0.0148
1020.00,0.0150
1019.00,0.0152
1018.00,0.0154
1017.00,0.0157
1016.00,0.0158
1015.00,0.0159
1014.00,0.0161
1013.00,0.0162
1012.00,0.0163
1011.00,0.0163
1010.00,0.0164
1009.00,0.0164
1008.00,0.0166
1007.00,0.0169
1006.00,0.0176
1005.00,0.0188
1004.00,0.0205
1003.00,0.0231
1002.00,0.0268
1001.00,0.0315
1000.00,0.0367
999.00,0.0412
998.00,0.0436
997.00,0.0429
996.00,0.0395
995.00,0.0345
994.00,0.0292
993.00,0.0246
992.00,0.0210
991.00,0.0185
990.00,0.0167
989.00,0.0155
988.00,0.0146
987.00,0.0141
986.00,0.0138
985.00,0.0139
984.00,0.0142
983.00,0.0148
982.00,0.0159
981.00,0.0175
980.00,0.0197
979.00,0.0227
978.00,0.0266
977.00,0.0314
976.00,0.0367
975.00,0.0421
974.00,0.0465
973.00,0.0486
972.00,0.0475
971.00,0.0433
970.00,0.0371
969.00,0.0305
968.00,0.0249
967.00,0.0206
966.00,0.0176
965.00,0.0156
964.00,0.0141
963.00,0.0130
962.00,0.0122
961.00,0.0115
960.00,0.0108
959.00,0.0104
958.00,0.0100
957.00,0.0096
956.00,0.0094
955.00,0.0092
954.00,0.0090
953.00,0.0088
952.00,0.0086
951.00,0.0084
950.00,0.0083
949.00,0.0082
948.00,0.0082
947.00,0.0083
946.00,0.0085
945.00,0.0086
944.00,0.0089
943.00,0.0092
942.00,0.0095
941.00,0.0097
940.00,0.0097
939.00,0.0095
938.00,0.0092
937.00,0.0087
936.00,0.0082
935.00,0.0078
934.00,0.0074
933.00,0.0071
932.00,0.0070
931.00,0.0069
930.00,0.0069
929.00,0.0069
928.00,0.0069
927.00,0.0069
926.00,0.0070
925.00,0.0070
924.00,0.0070
923.00,0.0069
922.00,0.0069
921.00,0.0068
920.00,0.0067
919.00,0.0068
918.00,0.0068
917.00,0.0068
916.00,0.0069
915.00,0.0070
914.00,0.0071
913.00,0.0072
912.00,0.0073
911.00,0.0075
910.00,0.0076
909.00,0.0078
908.00,0.0081
907.00,0.0086
906.00,0.0092
905.00,0.0101
904.00,0.0112
903.00,0.0126
902.00,0.0143
901.00,0.0159
900.00,0.0170
899.00,0.0172
898.00,0.0165
897.00,0.0151
896.00,0.0135
895.00,0.0120
894.00,0.0108
893.00,0.0099
892.00,0.0092
891.00,0.0087
890.00,0.0083
889.00,0.0081
888.00,0.0079
887.00,0.0077
886.00,0.0076
885.00,0.0077
884.00,0.0078
883.00,0.0080
882.00,0.0081
881.00,0.0082
880.00,0.0082
879.00,0.0082
878.00,0.0083
877.00,0.0084
876.00,0.0086
875.00,0.0087
874.00,0.0088
873.00,0.0088
872.00,0.0086
871.00,0.0084
870.00,0.0083
869.00,0.0082
868.00,0.0081
867.00,0.0082
866.00,0.0084
865.00,0.0087
864.00,0.0089
863.00,0.0090
862.00,0.0091
861.00,0.0092
860.00,0.0093
859.00,0.0095
858.00,0.0097
857.00,0.0098
856.00,0.0099
855.00,0.0100
854.00,0.0102
853.00,0.0104
852.00,0.0107
851.00,0.0111
850.00,0.0117
849.00,0.0125
848.00,0.0136
847.00,0.0152
846.00,0.0176
845.00,0.0214
844.00,0.0270
843.00,0.0339
842.00,0.0402
841.00,0.0430
840.00,0.0409
839.00,0.0350
838.00,0.0279
837.00,0.0221
836.00,0.0182
835.00,0.0158
834.00,0.0144
833.00,0.0135
832.00,0.0129
831.00,0.0125
830.00,0.0122
829.00,0.0119
828.00,0.0116
827.00,0.0114
826.00,0.0113
825.00,0.0113
824.00,0.0113
823.00,0.0112
822.00,0.0112
821.00,0.0113
820.00,0.0115
819.00,0.0116
818.00,0.0119
817.00,0.0123
816.00,0.0129
815.00,0.0139
814.00,0.0151
813.00,0.0167
812.00,0.0184
811.00,0.0200
810.00,0.0212
809.00,0.0217
808.00,0.0214
807.00,0.0203
806.00,0.0188
805.00,0.0172
804.00,0.0158
803.00,0.0147
802.00,0.0139
801.00,0.0133
800.00,0.0127
799.00,0.0122
798.00,0.0117
797.00,0.0113
796.00,0.0110
795.00,0.0108
794.00,0.0105
793.00,0.0103
792.00,0.0100
791.00,0.0097
790.00,0.0093
789.00,0.0090
788.00,0.0087
787.00,0.0085
786.00,0.0083
785.00,0.0082
784.00,0.0080
783.00,0.0078
782.00,0.0077
781.00,0.0077
780.00,0.0077
779.00,0.0077
778.00,0.0077
777.00,0.0076
776.00,0.0074
775.00,0.0074
774.00,0.0074
773.00,0.0074
772.00,0.0074
771.00,0.0074
770.00,0.0073
769.00,0.0072
768.00,0.0072
767.00,0.0073
766.00,0.0074
765.00,0.0075
764.00,0.0075
763.00,0.0076
762.00,0.0077
761.00,0.0079
760.00,0.0080
759.00,0.0081
758.00,0.0082
757.00,0.0084
756.00,0.0086
755.00,0.0088
754.00,0.0089
753.00,0.0090
752.00,0.0089
751.00,0.0089
750.00,0.0088
749.00,0.0088
748.00,0.0089
747.00,0.0091
746.00,0.0093
745.00,0.0094
744.00,0.0095
743.00,0.0098
742.00,0.0102
741.00,0.0106
740.00,0.0109
739.00,0.0113
738.00,0.0117
737.00,0.0122
736.00,0.0127
735.00,0.0133
734.00,0.0139
733.00,0.0145
732.00,0.0152
731.00,0.0159
730.00,0.0165
729.00,0.0169
728.00,0.0170
727.00,0.0171
726.00,0.0172
725.00,0.0175
724.00,0.0180
723.00,0.0185
722.00,0.0192
721.00,0.0197
720.00,0.0197
719.00,0.0190
718.00,0.0177
717.00,0.0163
716.00,0.0150
715.00,0.0142
714.00,0.0136
713.00,0.0131
712.00,0.0127
711.00,0.0123
710.00,0.0122
709.00,0.0122
708.00,0.0121
707.00,0.0120
706.00,0.0119
705.00,0.0117
704.00,0.0116
703.00,0.0115
702.00,0.0113
701.00,0.0112
700.00,0.0110
699.00,0.0108
698.00,0.0107
697.00,0.0106
696.00,0.0107
695.00,0.0108
694.00,0.0109
693.00,0.0109
692.00,0.0109
691.00,0.0109
690.00,0.0109
689.00,0.0109
688.00,0.0110
687.00,0.0112
686.00,0.0114
685.00,0.0114
684.00,0.0112
683.00,0.0110
682.00,0.0109
681.00,0.0109
680.00,0.0108
679.00,0.0108
678.00,0.0109
677.00,0.0111
676.00,0.0113
675.00,0.0116
674.00,0.0120
673.00,0.0124
672.00,0.0126
671.00,0.0128
670.00,0.0129
669.00,0.0128
668.00,0.0125
667.00,0.0121
666.00,0.0116
665.00,0.0112
664.00,0.0109
663.00,0.0106
662.00,0.0103
661.00,0.0100
660.00,0.0099
659.00,0.0098
658.00,0.0097
657.00,0.0096
656.00,0.0096
655.00,0.0096
654.00,0.0097
653.00,0.0097
652.00,0.0096
651.00,0.0096
650.00,0.0097
649.00,0.0098
648.00,0.0097
647.00,0.0096
646.00,0.0095
645.00,0.0095
644.00,0.0095
643.00,0.0096
642.00,0.0096
641.00,0.0096
640.00,0.0095
639.00,0.0095
638.00,0.0096
637.00,0.0098
636.00,0.0100
635.00,0.0100
634.00,0.0099
633.00,0.0098
632.00,0.0098
631.00,0.0098
630.00,0.0099
629.00,0.0100
628.00,0.0100
627.00,0.0100
626.00,0.0100
625.00,0.0101
624.00,0.0100
623.00,0.0100
622.00,0.0099
621.00,0.0099
620.00,0.0101
619.00,0.0102
618.00,0.0103
617.00,0.0104
616.00,0.0103
615.00,0.0102
614.00,0.0100
613.00,0.0097
612.00,0.0094
611.00,0.0093
610.00,0.0093
609.00,0.0096
608.00,0.0100
607.00,0.0103
606.00,0.0105
605.00,0.0104
604.00,0.0103
603.00,0.0101
602.00,0.0100
601.00,0.0099
600.00,0.0099
599.00,0.0101
598.00,0.0102
597.00,0.0101
596.00,0.0100
595.00,0.0098
594.00,0.0098
593.00,0.0099
592.00,0.0101
591.00,0.0103
590.00,0.0104
589.00,0.0105
588.00,0.0104
587.00,0.0101
586.00,0.0098
585.00,0.0096
584.00,0.0097
583.00,0.0101
582.00,0.0104
581.00,0.0104
580.00,0.0103
579.00,0.0103
578.00,0.0104
577.00,0.0105
576.00,0.0106
575.00,0.0106
574.00,0.0104
573.00,0.0101
572.00,0.0099
571.00,0.0099
570.00,0.0102
569.00,0.0105
568.00,0.0105
567.00,0.0105
566.00,0.0104
565.00,0.0103
564.00,0.0101
563.00,0.0100
562.00,0.0099
561.00,0.0099
560.00,0.0099
559.00,0.0099
558.00,0.0099
557.00,0.0100
556.00,0.0102
555.00,0.0105
554.00,0.0108
553.00,0.0109
552.00,0.0107
551.00,0.0105
550.00,0.0107
549.00,0.0110
548.00,0.0112
547.00,0.0112
546.00,0.0111
545.00,0.0110
544.00,0.0111
543.00,0.0113
542.00,0.0117
541.00,0.0123
540.00,0.0128
539.00,0.0131
538.00,0.0131
537.00,0.0130
536.00,0.0128
535.00,0.0128
534.00,0.0131
533.00,0.0134
532.00,0.0133
531.00,0.0129
530.00,0.0123
529.00,0.0118
528.00,0.0116
527.00,0.0116
526.00,0.0117
525.00,0.0121
524.00,0.0123
523.00,0.0124
522.00,0.0122
521.00,0.0118
520.00,0.0111
519.00,0.0102
518.00,0.0095
517.00,0.0093
516.00,0.0094
515.00,0.0097
514.00,0.0102
513.00,0.0108
512.00,0.0112
511.00,0.0114
510.00,0.0115
509.00,0.0112
508.00,0.0106
507.00,0.0098
506.00,0.0093
505.00,0.0095
504.00,0.0103
503.00,0.0112
502.00,0.0118
501.00,0.0118
500.00,0.0115
499.00,0.0112
498.00,0.0112
497.00,0.0115
496.00,0.0119
495.00,0.0121
494.00,0.0120
493.00,0.0114
492.00,0.0105
491.00,0.0095
490.00,0.0089
489.00,0.0089
488.00,0.0095
487.00,0.0099
486.00,0.0099
485.00,0.0097
484.00,0.0098
483.00,0.0103
482.00,0.0109
481.00,0.0110
480.00,0.0107
479.00,0.0105
478.00,0.0109
477.00,0.0120
476.00,0.0134
475.00,0.0147
474.00,0.0157
473.00,0.0163
472.00,0.0167
471.00,0.0168
470.00,0.0168
469.00,0.0169
468.00,0.0171
467.00,0.0174
466.00,0.0178
465.00,0.0182
464.00,0.0186
463.00,0.0187
462.00,0.0187
461.00,0.0189
460.00,0.0192
459.00,0.0199
458.00,0.0206
457.00,0.0210
456.00,0.0206
455.00,0.0196
454.00,0.0187
453.00,0.0180
452.00,0.0179
451.00,0.0181
450.00,0.0186
