Created as New Dataset,Sample 012 By Administrator Date Thursday, September 04 2025
cm-1,A
4000.00,0.0010
3999.00,0.0010
3998.00,0.0010
3997.00,0.0010
3996.00,0.0010
3995.00,0.0010
3994.00,0.0010
3993.00,0.0010
3992.00,0.0010
3991.00,0.0010
3990.00,0.0010
3989.00,0.0010
3988.00,0.0010
3987.00,0.0010
3986.00,0.0010
3985.00,0.0010
3984.00,0.0010
3983.00,0.0010
3982.00,0.0010
3981.00,0.0010
3980.00,0.0009
3979.00,0.0009
3978.00,0.0008
3977.00,0.0008
3976.00,0.0007
3975.00,0.0007
3974.00,0.0007
3973.00,0.0008
3972.00,0.0008
3971.00,0.0008
3970.00,0.0009
3969.00,0.0009
3968.00,0.0009
3967.00,0.0009
3966.00,0.0009
3965.00,0.0008
3964.00,0.0008
3963.00,0.0008
3962.00,0.0007
3961.00,0.0007
3960.00,0.0007
3959.00,0.0007
3958.00,0.0007
3957.00,0.0007
3956.00,0.0007
3955.00,0.0007
3954.00,0.0007
3953.00,0.0007
3952.00,0.0007
3951.00,0.0007
3950.00,0.0008
3949.00,0.0008
3948.00,0.0008
3947.00,0.0008
3946.00,0.0008
3945.00,0.0007
3944.00,0.0007
3943.00,0.0007
3942.00,0.0008
3941.00,0.0008
3940.00,0.0008
3939.00,0.0009
3938.00,0.0009
3937.00,0.0009
3936.00,0.0009
3935.00,0.0009
3934.00,0.0008
3933.00,0.0008
3932.00,0.0007
3931.00,0.0007
3930.00,0.0007
3929.00,0.0007
3928.00,0.0007
3927.00,0.0007
3926.00,0.0008
3925.00,0.0008
3924.00,0.0009
3923.00,0.0009
3922.00,0.0008
3921.00,0.0008
3920.00,0.0008
3919.00,0.0008
3918.00,0.0008
3917.00,0.0008
3916.00,0.0008
3915.00,0.0008
3914.00,0.0008
3913.00,0.0008
3912.00,0.0008
3911.00,0.0008
3910.00,0.0008
3909.00,0.0008
3908.00,0.0008
3907.00,0.0007
3906.00,0.0007
3905.00,0.0007
3904.00,0.0007
3903.00,0.0007
3902.00,0.0007
3901.00,0.0007
3900.00,0.0007
3899.00,0.0007
3898.00,0.0007
3897.00,0.0007
3896.00,0.0007
3895.00,0.0007
3894.00,0.0007
3893.00,0.0007
3892.00,0.0007
3891.00,0.0007
3890.00,0.0007
3889.00,0.0007
3888.00,0.0007
3887.00,0.0007
3886.00,0.0007
3885.00,0.0007
3884.00,0.0007
3883.00,0.0006
3882.00,0.0006
3881.00,0.0006
3880.00,0.0007
3879.00,0.0007
3878.00,0.0007
3877.00,0.0007
3876.00,0.0007
3875.00,0.0007
3874.00,0.0007
3873.00,0.0007
3872.00,0.0006
3871.00,0.0007
3870.00,0.0007
3869.00,0.0007
3868.00,0.0007
3867.00,0.0006
3866.00,0.0006
3865.00,0.0006
3864.00,0.0006
3863.00,0.0006
3862.00,0.0006
3861.00,0.0007
3860.00,0.0007
3859.00,0.0007
3858.00,0.0007
3857.00,0.0007
3856.00,0.0007
3855.00,0.0007
3854.00,0.0006
3853.00,0.0006
3852.00,0.0005
3851.00,0.0005
3850.00,0.0005
3849.00,0.0006
3848.00,0.0006
3847.00,0.0007
3846.00,0.0007
3845.00,0.0007
3844.00,0.0007
3843.00,0.0008
3842.00,0.0008
3841.00,0.0007
3840.00,0.0007
3839.00,0.0006
3838.00,0.0006
3837.00,0.0006
3836.00,0.0005
3835.00,0.0005
3834.00,0.0006
3833.00,0.0006
3832.00,0.0007
3831.00,0.0007
3830.00,0.0007
3829.00,0.0007
3828.00,0.0007
3827.00,0.0008
3826.00,0.0008
3825.00,0.0008
3824.00,0.0007
3823.00,0.0007
3822.00,0.0007
3821.00,0.0007
3820.00,0.0007
3819.00,0.0006
3818.00,0.0006
3817.00,0.0007
3816.00,0.0007
3815.00,0.0007
3814.00,0.0007
3813.00,0.0007
3812.00,0.0008
3811.00,0.0008
3810.00,0.0007
3809.00,0.0007
3808.00,0.0007
3807.00,0.0007
3806.00,0.0007
3805.00,0.0007
3804.00,0.0007
3803.00,0.0007
3802.00,0.0007
3801.00,0.0007
3800.00,0.0006
3799.00,0.0006
3798.00,0.0006
3797.00,0.0006
3796.00,0.0006
3795.00,0.0006
3794.00,0.0006
3793.00,0.0006
3792.00,0.0007
3791.00,0.0007
3790.00,0.0007
3789.00,0.0007
3788.00,0.0008
3787.00,0.0008
3786.00,0.0008
3785.00,0.0007
3784.00,0.0007
3783.00,0.0007
3782.00,0.0006
3781.00,0.0007
3780.00,0.0007
3779.00,0.0008
3778.00,0.0008
3777.00,0.0008
3776.00,0.0008
3775.00,0.0008
3774.00,0.0008
3773.00,0.0008
3772.00,0.0007
3771.00,0.0007
3770.00,0.0007
3769.00,0.0007
3768.00,0.0007
3767.00,0.0007
3766.00,0.0007
3765.00,0.0007
3764.00,0.0008
3763.00,0.0008
3762.00,0.0008
3761.00,0.0008
3760.00,0.0008
3759.00,0.0008
3758.00,0.0008
3757.00,0.0008
3756.00,0.0008
3755.00,0.0007
3754.00,0.0007
3753.00,0.0007
3752.00,0.0008
3751.00,0.0008
3750.00,0.0008
3749.00,0.0008
3748.00,0.0007
3747.00,0.0006
3746.00,0.0006
3745.00,0.0006
3744.00,0.0005
3743.00,0.0005
3742.00,0.0005
3741.00,0.0005
3740.00,0.0006
3739.00,0.0006
3738.00,0.0006
3737.00,0.0006
3736.00,0.0006
3735.00,0.0006
3734.00,0.0005
3733.00,0.0005
3732.00,0.0005
3731.00,0.0005
3730.00,0.0005
3729.00,0.0005
3728.00,0.0005
3727.00,0.0005
3726.00,0.0005
3725.00,0.0005
3724.00,0.0005
3723.00,0.0005
3722.00,0.0005
3721.00,0.0005
3720.00,0.0005
3719.00,0.0005
3718.00,0.0005
3717.00,0.0005
3716.00,0.0005
3715.00,0.0005
3714.00,0.0006
3713.00,0.0006
3712.00,0.0007
3711.00,0.0007
3710.00,0.0006
3709.00,0.0005
3708.00,0.0005
3707.00,0.0004
3706.00,0.0004
3705.00,0.0004
3704.00,0.0004
3703.00,0.0005
3702.00,0.0005
3701.00,0.0005
3700.00,0.0005
3699.00,0.0005
3698.00,0.0005
3697.00,0.0005
3696.00,0.0005
3695.00,0.0005
3694.00,0.0005
3693.00,0.0006
3692.00,0.0006
3691.00,0.0006
3690.00,0.0006
3689.00,0.0006
3688.00,0.0005
3687.00,0.0005
3686.00,0.0005
3685.00,0.0005
3684.00,0.0005
3683.00,0.0006
3682.00,0.0006
3681.00,0.0007
3680.00,0.0007
3679.00,0.0007
3678.00,0.0007
3677.00,0.0007
3676.00,0.0007
3675.00,0.0007
3674.00,0.0006
3673.00,0.0005
3672.00,0.0004
3671.00,0.0003
3670.00,0.0003
3669.00,0.0003
3668.00,0.0003
3667.00,0.0004
3666.00,0.0004
3665.00,0.0004
3664.00,0.0004
3663.00,0.0004
3662.00,0.0004
3661.00,0.0004
3660.00,0.0004
3659.00,0.0004
3658.00,0.0005
3657.00,0.0005
3656.00,0.0006
3655.00,0.0005
3654.00,0.0005
3653.00,0.0004
3652.00,0.0003
3651.00,0.0004
3650.00,0.0005
3649.00,0.0005
3648.00,0.0005
3647.00,0.0004
3646.00,0.0004
3645.00,0.0004
3644.00,0.0004
3643.00,0.0004
3642.00,0.0005
3641.00,0.0005
3640.00,0.0005
3639.00,0.0005
3638.00,0.0004
3637.00,0.0004
3636.00,0.0005
3635.00,0.0005
3634.00,0.0005
3633.00,0.0005
3632.00,0.0005
3631.00,0.0004
3630.00,0.0004
3629.00,0.0004
3628.00,0.0004
3627.00,0.0004
3626.00,0.0004
3625.00,0.0004
3624.00,0.0004
3623.00,0.0004
3622.00,0.0004
3621.00,0.0005
3620.00,0.0005
3619.00,0.0005
3618.00,0.0004
3617.00,0.0004
3616.00,0.0004
3615.00,0.0004
3614.00,0.0004
3613.00,0.0004
3612.00,0.0004
3611.00,0.0003
3610.00,0.0003
3609.00,0.0004
3608.00,0.0004
3607.00,0.0004
3606.00,0.0005
3605.00,0.0005
3604.00,0.0005
3603.00,0.0005
3602.00,0.0005
3601.00,0.0005
3600.00,0.0005
3599.00,0.0005
3598.00,0.0005
3597.00,0.0005
3596.00,0.0005
3595.00,0.0005
3594.00,0.0005
3593.00,0.0005
3592.00,0.0005
3591.00,0.0005
3590.00,0.0005
3589.00,0.0005
3588.00,0.0006
3587.00,0.0006
3586.00,0.0006
3585.00,0.0006
3584.00,0.0007
3583.00,0.0007
3582.00,0.0008
3581.00,0.0008
3580.00,0.0008
3579.00,0.0008
3578.00,0.0008
3577.00,0.0007
3576.00,0.0007
3575.00,0.0007
3574.00,0.0007
3573.00,0.0007
3572.00,0.0007
3571.00,0.0007
3570.00,0.0007
3569.00,0.0007
3568.00,0.0007
3567.00,0.0007
3566.00,0.0007
3565.00,0.0007
3564.00,0.0008
3563.00,0.0008
3562.00,0.0008
3561.00,0.0009
3560.00,0.0009
3559.00,0.0009
3558.00,0.0009
3557.00,0.0009
3556.00,0.0009
3555.00,0.0009
3554.00,0.0009
3553.00,0.0009
3552.00,0.0010
3551.00,0.0010
3550.00,0.0010
3549.00,0.0010
3548.00,0.0011
3547.00,0.0011
3546.00,0.0011
3545.00,0.0011
3544.00,0.0011
3543.00,0.0011
3542.00,0.0011
3541.00,0.0011
3540.00,0.0011
3539.00,0.0011
3538.00,0.0011
3537.00,0.0011
3536.00,0.0012
3535.00,0.0012
3534.00,0.0013
3533.00,0.0013
3532.00,0.0013
3531.00,0.0013
3530.00,0.0013
3529.00,0.0013
3528.00,0.0013
3527.00,0.0013
3526.00,0.0013
3525.00,0.0013
3524.00,0.0013
3523.00,0.0013
3522.00,0.0013
3521.00,0.0013
3520.00,0.0013
3519.00,0.0014
3518.00,0.0014
3517.00,0.0014
3516.00,0.0014
3515.00,0.0014
3514.00,0.0014
3513.00,0.0014
3512.00,0.0015
3511.00,0.0015
3510.00,0.0016
3509.00,0.0016
3508.00,0.0016
3507.00,0.0016
3506.00,0.0016
3505.00,0.0016
3504.00,0.0016
3503.00,0.0016
3502.00,0.0016
3501.00,0.0016
3500.00,0.0016
3499.00,0.0016
3498.00,0.0016
3497.00,0.0016
3496.00,0.0016
3495.00,0.0016
3494.00,0.0016
3493.00,0.0016
3492.00,0.0017
3491.00,0.0017
3490.00,0.0017
3489.00,0.0017
3488.00,0.0017
3487.00,0.0017
3486.00,0.0018
3485.00,0.0018
3484.00,0.0018
3483.00,0.0018
3482.00,0.0018
3481.00,0.0018
3480.00,0.0018
3479.00,0.0018
3478.00,0.0019
3477.00,0.0019
3476.00,0.0019
3475.00,0.0019
3474.00,0.0020
3473.00,0.0020
3472.00,0.0020
3471.00,0.0020
3470.00,0.0020
3469.00,0.0020
3468.00,0.0020
3467.00,0.0020
3466.00,0.0020
3465.00,0.0020
3464.00,0.0020
3463.00,0.0021
3462.00,0.0021
3461.00,0.0021
3460.00,0.0021
3459.00,0.0021
3458.00,0.0021
3457.00,0.0021
3456.00,0.0021
3455.00,0.0021
3454.00,0.0021
3453.00,0.0021
3452.00,0.0022
3451.00,0.0022
3450.00,0.0022
3449.00,0.0022
3448.00,0.0022
3447.00,0.0022
3446.00,0.0022
3445.00,0.0022
3444.00,0.0022
3443.00,0.0022
3442.00,0.0022
3441.00,0.0023
3440.00,0.0023
3439.00,0.0024
3438.00,0.0024
3437.00,0.0024
3436.00,0.0024
3435.00,0.0024
3434.00,0.0024
3433.00,0.0025
3432.00,0.0025
3431.00,0.0026
3430.00,0.0026
3429.00,0.0027
3428.00,0.0027
3427.00,0.0027
3426.00,0.0026
3425.00,0.0026
3424.00,0.0026
3423.00,0.0026
3422.00,0.0026
3421.00,0.0027
3420.00,0.0027
3419.00,0.0028
3418.00,0.0028
3417.00,0.0029
3416.00,0.0029
3415.00,0.0029
3414.00,0.0029
3413.00,0.0029
3412.00,0.0029
3411.00,0.0029
3410.00,0.0029
3409.00,0.0029
3408.00,0.0029
3407.00,0.0029
3406.00,0.0030
3405.00,0.0030
3404.00,0.0031
3403.00,0.0032
3402.00,0.0033
3401.00,0.0034
3400.00,0.0034
3399.00,0.0034
3398.00,0.0034
3397.00,0.0034
3396.00,0.0034
3395.00,0.0034
3394.00,0.0034
3393.00,0.0034
3392.00,0.0033
3391.00,0.0033
3390.00,0.0033
3389.00,0.0033
3388.00,0.0032
3387.00,0.0032
3386.00,0.0032
3385.00,0.0032
3384.00,0.0032
3383.00,0.0032
3382.00,0.0032
3381.00,0.0032
3380.00,0.0031
3379.00,0.0031
3378.00,0.0031
3377.00,0.0031
3376.00,0.0031
3375.00,0.0031
3374.00,0.0031
3373.00,0.0031
3372.00,0.0030
3371.00,0.0030
3370.00,0.0030
3369.00,0.0030
3368.00,0.0030
3367.00,0.0031
3366.00,0.0031
3365.00,0.0031
3364.00,0.0031
3363.00,0.0031
3362.00,0.0031
3361.00,0.0030
3360.00,0.0030
3359.00,0.0030
3358.00,0.0030
3357.00,0.0030
3356.00,0.0030
3355.00,0.0030
3354.00,0.0030
3353.00,0.0030
3352.00,0.0031
3351.00,0.0031
3350.00,0.0031
3349.00,0.0031
3348.00,0.0031
3347.00,0.0031
3346.00,0.0031
3345.00,0.0031
3344.00,0.0031
3343.00,0.0031
3342.00,0.0031
3341.00,0.0031
3340.00,0.0031
3339.00,0.0031
3338.00,0.0031
3337.00,0.0031
3336.00,0.0031
3335.00,0.0031
3334.00,0.0030
3333.00,0.0030
3332.00,0.0030
3331.00,0.0030
3330.00,0.0030
3329.00,0.0030
3328.00,0.0030
3327.00,0.0030
3326.00,0.0029
3325.00,0.0029
3324.00,0.0029
3323.00,0.0029
3322.00,0.0029
3321.00,0.0029
3320.00,0.0030
3319.00,0.0030
3318.00,0.0031
3317.00,0.0031
3316.00,0.0031
3315.00,0.0031
3314.00,0.0031
3313.00,0.0031
3312.00,0.0031
3311.00,0.0032
3310.00,0.0033
3309.00,0.0033
3308.00,0.0034
3307.00,0.0034
3306.00,0.0034
3305.00,0.0034
3304.00,0.0034
3303.00,0.0034
3302.00,0.0034
3301.00,0.0034
3300.00,0.0034
3299.00,0.0034
3298.00,0.0034
3297.00,0.0033
3296.00,0.0032
3295.00,0.0032
3294.00,0.0031
3293.00,0.0031
3292.00,0.0030
3291.00,0.0030
3290.00,0.0030
3289.00,0.0030
3288.00,0.0030
3287.00,0.0030
3286.00,0.0030
3285.00,0.0030
3284.00,0.0029
3283.00,0.0029
3282.00,0.0028
3281.00,0.0028
3280.00,0.0028
3279.00,0.0028
3278.00,0.0028
3277.00,0.0028
3276.00,0.0028
3275.00,0.0028
3274.00,0.0027
3273.00,0.0027
3272.00,0.0027
3271.00,0.0028
3270.00,0.0028
3269.00,0.0028
3268.00,0.0027
3267.00,0.0027
3266.00,0.0027
3265.00,0.0027
3264.00,0.0027
3263.00,0.0027
3262.00,0.0027
3261.00,0.0027
3260.00,0.0027
3259.00,0.0027
3258.00,0.0027
3257.00,0.0027
3256.00,0.0026
3255.00,0.0026
3254.00,0.0026
3253.00,0.0026
3252.00,0.0027
3251.00,0.0027
3250.00,0.0026
3249.00,0.0026
3248.00,0.0025
3247.00,0.0025
3246.00,0.0026
3245.00,0.0026
3244.00,0.0026
3243.00,0.0027
3242.00,0.0027
3241.00,0.0027
3240.00,0.0026
3239.00,0.0026
3238.00,0.0026
3237.00,0.0026
3236.00,0.0026
3235.00,0.0026
3234.00,0.0026
3233.00,0.0026
3232.00,0.0026
3231.00,0.0027
3230.00,0.0027
3229.00,0.0028
3228.00,0.0028
3227.00,0.0028
3226.00,0.0028
3225.00,0.0028
3224.00,0.0029
3223.00,0.0029
3222.00,0.0029
3221.00,0.0029
3220.00,0.0029
3219.00,0.0029
3218.00,0.0030
3217.00,0.0030
3216.00,0.0030
3215.00,0.0030
3214.00,0.0030
3213.00,0.0031
3212.00,0.0031
3211.00,0.0031
3210.00,0.0031
3209.00,0.0032
3208.00,0.0032
3207.00,0.0032
3206.00,0.0032
3205.00,0.0032
3204.00,0.0032
3203.00,0.0033
3202.00,0.0033
3201.00,0.0033
3200.00,0.0034
3199.00,0.0034
3198.00,0.0034
3197.00,0.0034
3196.00,0.0035
3195.00,0.0035
3194.00,0.0035
3193.00,0.0035
3192.00,0.0035
3191.00,0.0034
3190.00,0.0034
3189.00,0.0034
3188.00,0.0034
3187.00,0.0034
3186.00,0.0034
3185.00,0.0033
3184.00,0.0033
3183.00,0.0033
3182.00,0.0033
3181.00,0.0032
3180.00,0.0032
3179.00,0.0032
3178.00,0.0032
3177.00,0.0032
3176.00,0.0032
3175.00,0.0031
3174.00,0.0031
3173.00,0.0031
3172.00,0.0030
3171.00,0.0030
3170.00,0.0030
3169.00,0.0030
3168.00,0.0030
3167.00,0.0030
3166.00,0.0030
3165.00,0.0030
3164.00,0.0030
3163.00,0.0030
3162.00,0.0029
3161.00,0.0029
3160.00,0.0029
3159.00,0.0029
3158.00,0.0029
3157.00,0.0029
3156.00,0.0029
3155.00,0.0029
3154.00,0.0029
3153.00,0.0029
3152.00,0.0029
3151.00,0.0028
3150.00,0.0028
3149.00,0.0028
3148.00,0.0028
3147.00,0.0028
3146.00,0.0028
3145.00,0.0028
3144.00,0.0028
3143.00,0.0028
3142.00,0.0028
3141.00,0.0028
3140.00,0.0028
3139.00,0.0028
3138.00,0.0028
3137.00,0.0028
3136.00,0.0028
3135.00,0.0028
3134.00,0.0028
3133.00,0.0028
3132.00,0.0027
3131.00,0.0026
3130.00,0.0026
3129.00,0.0026
3128.00,0.0026
3127.00,0.0026
3126.00,0.0026
3125.00,0.0026
3124.00,0.0026
3123.00,0.0025
3122.00,0.0025
3121.00,0.0025
3120.00,0.0025
3119.00,0.0024
3118.00,0.0024
3117.00,0.0024
3116.00,0.0024
3115.00,0.0024
3114.00,0.0024
3113.00,0.0024
3112.00,0.0023
3111.00,0.0023
3110.00,0.0023
3109.00,0.0023
3108.00,0.0023
3107.00,0.0023
3106.00,0.0023
3105.00,0.0023
3104.00,0.0023
3103.00,0.0023
3102.00,0.0023
3101.00,0.0024
3100.00,0.0024
3099.00,0.0024
3098.00,0.0023
3097.00,0.0023
3096.00,0.0023
3095.00,0.0024
3094.00,0.0024
3093.00,0.0024
3092.00,0.0023
3091.00,0.0023
3090.00,0.0023
3089.00,0.0023
3088.00,0.0023
3087.00,0.0023
3086.00,0.0023
3085.00,0.0023
3084.00,0.0022
3083.00,0.0022
3082.00,0.0023
3081.00,0.0023
3080.00,0.0023
3079.00,0.0024
3078.00,0.0024
3077.00,0.0023
3076.00,0.0023
3075.00,0.0024
3074.00,0.0024
3073.00,0.0024
3072.00,0.0024
3071.00,0.0024
3070.00,0.0024
3069.00,0.0024
3068.00,0.0024
3067.00,0.0024
3066.00,0.0025
3065.00,0.0025
3064.00,0.0026
3063.00,0.0026
3062.00,0.0026
3061.00,0.0026
3060.00,0.0026
3059.00,0.0026
3058.00,0.0026
3057.00,0.0026
3056.00,0.0026
3055.00,0.0026
3054.00,0.0026
3053.00,0.0026
3052.00,0.0027
3051.00,0.0027
3050.00,0.0027
3049.00,0.0028
3048.00,0.0028
3047.00,0.0028
3046.00,0.0028
3045.00,0.0028
3044.00,0.0028
3043.00,0.0029
3042.00,0.0029
3041.00,0.0029
3040.00,0.0030
3039.00,0.0030
3038.00,0.0031
3037.00,0.0031
3036.00,0.0031
3035.00,0.0031
3034.00,0.0031
3033.00,0.0032
3032.00,0.0032
3031.00,0.0033
3030.00,0.0033
3029.00,0.0034
3028.00,0.0034
3027.00,0.0035
3026.00,0.0035
3025.00,0.0036
3024.00,0.0037
3023.00,0.0037
3022.00,0.0038
3021.00,0.0039
3020.00,0.0040
3019.00,0.0041
3018.00,0.0042
3017.00,0.0044
3016.00,0.0045
3015.00,0.0046
3014.00,0.0046
3013.00,0.0047
3012.00,0.0048
3011.00,0.0050
3010.00,0.0051
3009.00,0.0053
3008.00,0.0054
3007.00,0.0056
3006.00,0.0057
3005.00,0.0059
3004.00,0.0061
3003.00,0.0063
3002.00,0.0065
3001.00,0.0067
3000.00,0.0070
2999.00,0.0073
2998.00,0.0076
2997.00,0.0079
2996.00,0.0082
2995.00,0.0086
2994.00,0.0090
2993.00,0.0094
2992.00,0.0099
2991.00,0.0104
2990.00,0.0110
2989.00,0.0117
2988.00,0.0124
2987.00,0.0132
2986.00,0.0141
2985.00,0.0152
2984.00,0.0163
2983.00,0.0175
2982.00,0.0190
2981.00,0.0206
2980.00,0.0224
2979.00,0.0245
2978.00,0.0268
2977.00,0.0295
2976.00,0.0326
2975.00,0.0361
2974.00,0.0401
2973.00,0.0447
2972.00,0.0499
2971.00,0.0557
2970.00,0.0620
2969.00,0.0689
2968.00,0.0762
2967.00,0.0840
2966.00,0.0919
2965.00,0.0997
2964.00,0.1071
2963.00,0.1137
2962.00,0.1191
2961.00,0.1234
2960.00,0.1269
2959.00,0.1303
2958.00,0.1342
2957.00,0.1394
2956.00,0.1464
2955.00,0.1554
2954.00,0.1661
2953.00,0.1775
2952.00,0.1882
2951.00,0.1963
2950.00,0.2004
2949.00,0.1991
2948.00,0.1925
2947.00,0.1815
2946.00,0.1679
2945.00,0.1534
2944.00,0.1397
2943.00,0.1279
2942.00,0.1187
2941.00,0.1123
2940.00,0.1085
2939.00,0.1070
2938.00,0.1078
2937.00,0.1104
2936.00,0.1147
2935.00,0.1207
2934.00,0.1282
2933.00,0.1372
2932.00,0.1475
2931.00,0.1591
2930.00,0.1716
2929.00,0.1847
2928.00,0.1982
2927.00,0.2118
2926.00,0.2252
2925.00,0.2386
2924.00,0.2519
2923.00,0.2656
2922.00,0.2794
2921.00,0.2931
2920.00,0.3055
2919.00,0.3152
2918.00,0.3204
2917.00,0.3200
2916.00,0.3135
2915.00,0.3022
2914.00,0.2877
2913.00,0.2722
2912.00,0.2571
2911.00,0.2435
2910.00,0.2316
2909.00,0.2211
2908.00,0.2117
2907.00,0.2029
2906.00,0.1945
2905.00,0.1863
2904.00,0.1783
2903.00,0.1705
2902.00,0.1630
2901.00,0.1559
2900.00,0.1490
2899.00,0.1426
2898.00,0.1366
2897.00,0.1312
2896.00,0.1264
2895.00,0.1222
2894.00,0.1187
2893.00,0.1159
2892.00,0.1137
2891.00,0.1122
2890.00,0.1113
2889.00,0.1108
2888.00,0.1107
2887.00,0.1110
2886.00,0.1115
2885.00,0.1124
2884.00,0.1137
2883.00,0.1155
2882.00,0.1177
2881.00,0.1202
2880.00,0.1226
2879.00,0.1244
2878.00,0.1254
2877.00,0.1255
2876.00,0.1249
2875.00,0.1241
2874.00,0.1237
2873.00,0.1239
2872.00,0.1251
2871.00,0.1270
2870.00,0.1296
2869.00,0.1322
2868.00,0.1340
2867.00,0.1342
2866.00,0.1320
2865.00,0.1271
2864.00,0.1198
2863.00,0.1112
2862.00,0.1025
2861.00,0.0946
2860.00,0.0883
2859.00,0.0838
2858.00,0.0810
2857.00,0.0797
2856.00,0.0796
2855.00,0.0804
2854.00,0.0819
2853.00,0.0839
2852.00,0.0861
2851.00,0.0882
2850.00,0.0900
2849.00,0.0914
2848.00,0.0927
2847.00,0.0942
2846.00,0.0965
2845.00,0.0999
2844.00,0.1043
2843.00,0.1094
2842.00,0.1147
2841.00,0.1195
2840.00,0.1229
2839.00,0.1242
2838.00,0.1227
2837.00,0.1183
2836.00,0.1110
2835.00,0.1017
2834.00,0.0912
2833.00,0.0805
2832.00,0.0705
2831.00,0.0616
2830.00,0.0542
2829.00,0.0482
2828.00,0.0432
2827.00,0.0393
2826.00,0.0360
2825.00,0.0333
2824.00,0.0310
2823.00,0.0291
2822.00,0.0274
2821.00,0.0260
2820.00,0.0248
2819.00,0.0237
2818.00,0.0227
2817.00,0.0219
2816.00,0.0211
2815.00,0.0205
2814.00,0.0198
2813.00,0.0193
2812.00,0.0187
2811.00,0.0181
2810.00,0.0174
2809.00,0.0168
2808.00,0.0162
2807.00,0.0155
2806.00,0.0149
2805.00,0.0142
2804.00,0.0135
2803.00,0.0129
2802.00,0.0124
2801.00,0.0119
2800.00,0.0115
2799.00,0.0112
2798.00,0.0110
2797.00,0.0107
2796.00,0.0105
2795.00,0.0103
2794.00,0.0100
2793.00,0.0097
2792.00,0.0094
2791.00,0.0091
2790.00,0.0088
2789.00,0.0085
2788.00,0.0082
2787.00,0.0080
2786.00,0.0077
2785.00,0.0075
2784.00,0.0073
2783.00,0.0071
2782.00,0.0069
2781.00,0.0067
2780.00,0.0065
2779.00,0.0064
2778.00,0.0063
2777.00,0.0061
2776.00,0.0060
2775.00,0.0058
2774.00,0.0057
2773.00,0.0056
2772.00,0.0056
2771.00,0.0055
2770.00,0.0055
2769.00,0.0055
2768.00,0.0055
2767.00,0.0054
2766.00,0.0054
2765.00,0.0054
2764.00,0.0053
2763.00,0.0053
2762.00,0.0052
2761.00,0.0052
2760.00,0.0052
2759.00,0.0051
2758.00,0.0051
2757.00,0.0051
2756.00,0.0051
2755.00,0.0051
2754.00,0.0051
2753.00,0.0051
2752.00,0.0051
2751.00,0.0050
2750.00,0.0050
2749.00,0.0050
2748.00,0.0050
2747.00,0.0051
2746.00,0.0051
2745.00,0.0051
2744.00,0.0052
2743.00,0.0052
2742.00,0.0053
2741.00,0.0054
2740.00,0.0056
2739.00,0.0057
2738.00,0.0059
2737.00,0.0060
2736.00,0.0062
2735.00,0.0063
2734.00,0.0064
2733.00,0.0066
2732.00,0.0068
2731.00,0.0070
2730.00,0.0072
2729.00,0.0075
2728.00,0.0078
2727.00,0.0081
2726.00,0.0083
2725.00,0.0086
2724.00,0.0088
2723.00,0.0088
2722.00,0.0088
2721.00,0.0087
2720.00,0.0084
2719.00,0.0081
2718.00,0.0077
2717.00,0.0074
2716.00,0.0071
2715.00,0.0068
2714.00,0.0066
2713.00,0.0063
2712.00,0.0060
2711.00,0.0058
2710.00,0.0056
2709.00,0.0054
2708.00,0.0053
2707.00,0.0051
2706.00,0.0050
2705.00,0.0049
2704.00,0.0048
2703.00,0.0047
2702.00,0.0046
2701.00,0.0046
2700.00,0.0045
2699.00,0.0045
2698.00,0.0044
2697.00,0.0044
2696.00,0.0043
2695.00,0.0043
2694.00,0.0044
2693.00,0.0044
2692.00,0.0044
2691.00,0.0044
2690.00,0.0044
2689.00,0.0044
2688.00,0.0044
2687.00,0.0044
2686.00,0.0044
2685.00,0.0044
2684.00,0.0044
2683.00,0.0044
2682.00,0.0044
2681.00,0.0044
2680.00,0.0045
2679.00,0.0045
2678.00,0.0045
2677.00,0.0045
2676.00,0.0045
2675.00,0.0045
2674.00,0.0045
2673.00,0.0044
2672.00,0.0044
2671.00,0.0044
2670.00,0.0044
2669.00,0.0044
2668.00,0.0044
2667.00,0.0045
2666.00,0.0045
2665.00,0.0046
2664.00,0.0046
2663.00,0.0047
2662.00,0.0047
2661.00,0.0048
2660.00,0.0048
2659.00,0.0048
2658.00,0.0047
2657.00,0.0047
2656.00,0.0047
2655.00,0.0046
2654.00,0.0046
2653.00,0.0045
2652.00,0.0044
2651.00,0.0044
2650.00,0.0043
2649.00,0.0043
2648.00,0.0043
2647.00,0.0043
2646.00,0.0042
2645.00,0.0042
2644.00,0.0041
2643.00,0.0041
2642.00,0.0040
2641.00,0.0040
2640.00,0.0039
2639.00,0.0039
2638.00,0.0038
2637.00,0.0038
2636.00,0.0039
2635.00,0.0039
2634.00,0.0039
2633.00,0.0039
2632.00,0.0039
2631.00,0.0039
2630.00,0.0039
2629.00,0.0039
2628.00,0.0040
2627.00,0.0040
2626.00,0.0040
2625.00,0.0040
2624.00,0.0040
2623.00,0.0040
2622.00,0.0040
2621.00,0.0040
2620.00,0.0040
2619.00,0.0040
2618.00,0.0040
2617.00,0.0040
2616.00,0.0040
2615.00,0.0040
2614.00,0.0040
2613.00,0.0040
2612.00,0.0039
2611.00,0.0039
2610.00,0.0038
2609.00,0.0037
2608.00,0.0036
2607.00,0.0035
2606.00,0.0035
2605.00,0.0034
2604.00,0.0033
2603.00,0.0032
2602.00,0.0031
2601.00,0.0031
2600.00,0.0031
2599.00,0.0031
2598.00,0.0032
2597.00,0.0033
2596.00,0.0033
2595.00,0.0034
2594.00,0.0034
2593.00,0.0034
2592.00,0.0034
2591.00,0.0034
2590.00,0.0034
2589.00,0.0034
2588.00,0.0035
2587.00,0.0036
2586.00,0.0038
2585.00,0.0039
2584.00,0.0040
2583.00,0.0040
2582.00,0.0040
2581.00,0.0039
2580.00,0.0038
2579.00,0.0037
2578.00,0.0036
2577.00,0.0035
2576.00,0.0034
2575.00,0.0033
2574.00,0.0032
2573.00,0.0031
2572.00,0.0030
2571.00,0.0029
2570.00,0.0028
2569.00,0.0027
2568.00,0.0026
2567.00,0.0026
2566.00,0.0025
2565.00,0.0024
2564.00,0.0024
2563.00,0.0024
2562.00,0.0024
2561.00,0.0024
2560.00,0.0023
2559.00,0.0023
2558.00,0.0023
2557.00,0.0023
2556.00,0.0023
2555.00,0.0023
2554.00,0.0023
2553.00,0.0022
2552.00,0.0022
2551.00,0.0021
2550.00,0.0020
2549.00,0.0020
2548.00,0.0019
2547.00,0.0019
2546.00,0.0018
2545.00,0.0018
2544.00,0.0018
2543.00,0.0018
2542.00,0.0018
2541.00,0.0018
2540.00,0.0017
2539.00,0.0017
2538.00,0.0017
2537.00,0.0017
2536.00,0.0017
2535.00,0.0017
2534.00,0.0017
2533.00,0.0016
2532.00,0.0016
2531.00,0.0016
2530.00,0.0016
2529.00,0.0015
2528.00,0.0015
2527.00,0.0014
2526.00,0.0014
2525.00,0.0014
2524.00,0.0014
2523.00,0.0014
2522.00,0.0013
2521.00,0.0013
2520.00,0.0012
2519.00,0.0011
2518.00,0.0011
2517.00,0.0011
2516.00,0.0010
2515.00,0.0010
2514.00,0.0009
2513.00,0.0009
2512.00,0.0009
2511.00,0.0009
2510.00,0.0009
2509.00,0.0009
2508.00,0.0009
2507.00,0.0008
2506.00,0.0008
2505.00,0.0009
2504.00,0.0009
2503.00,0.0010
2502.00,0.0010
2501.00,0.0010
2500.00,0.0010
2499.00,0.0010
2498.00,0.0011
2497.00,0.0011
2496.00,0.0011
2495.00,0.0011
2494.00,0.0011
2493.00,0.0011
2492.00,0.0010
2491.00,0.0009
2490.00,0.0008
2489.00,0.0008
2488.00,0.0008
2487.00,0.0009
2486.00,0.0009
2485.00,0.0010
2484.00,0.0010
2483.00,0.0010
2482.00,0.0010
2481.00,0.0010
2480.00,0.0010
2479.00,0.0010
2478.00,0.0010
2477.00,0.0009
2476.00,0.0010
2475.00,0.0009
2474.00,0.0009
2473.00,0.0009
2472.00,0.0008
2471.00,0.0008
2470.00,0.0007
2469.00,0.0007
2468.00,0.0007
2467.00,0.0006
2466.00,0.0007
2465.00,0.0007
2464.00,0.0008
2463.00,0.0009
2462.00,0.0009
2461.00,0.0009
2460.00,0.0009
2459.00,0.0010
2458.00,0.0010
2457.00,0.0011
2456.00,0.0011
2455.00,0.0010
2454.00,0.0010
2453.00,0.0010
2452.00,0.0010
2451.00,0.0010
2450.00,0.0010
2449.00,0.0011
2448.00,0.0011
2447.00,0.0011
2446.00,0.0011
2445.00,0.0010
2444.00,0.0009
2443.00,0.0009
2442.00,0.0009
2441.00,0.0010
2440.00,0.0010
2439.00,0.0011
2438.00,0.0011
2437.00,0.0010
2436.00,0.0009
2435.00,0.0009
2434.00,0.0009
2433.00,0.0010
2432.00,0.0010
2431.00,0.0010
2430.00,0.0010
2429.00,0.0010
2428.00,0.0011
2427.00,0.0011
2426.00,0.0011
2425.00,0.0011
2424.00,0.0010
2423.00,0.0010
2422.00,0.0010
2421.00,0.0010
2420.00,0.0009
2419.00,0.0009
2418.00,0.0009
2417.00,0.0009
2416.00,0.0009
2415.00,0.0009
2414.00,0.0010
2413.00,0.0010
2412.00,0.0010
2411.00,0.0010
2410.00,0.0010
2409.00,0.0010
2408.00,0.0010
2407.00,0.0010
2406.00,0.0010
2405.00,0.0010
2404.00,0.0009
2403.00,0.0009
2402.00,0.0008
2401.00,0.0007
2400.00,0.0007
2399.00,0.0007
2398.00,0.0007
2397.00,0.0007
2396.00,0.0007
2395.00,0.0008
2394.00,0.0007
2393.00,0.0007
2392.00,0.0007
2391.00,0.0006
2390.00,0.0006
2389.00,0.0005
2388.00,0.0005
2387.00,0.0004
2386.00,0.0004
2385.00,0.0003
2384.00,0.0003
2383.00,0.0003
2382.00,0.0002
2381.00,0.0002
2380.00,0.0001
2379.00,0.0001
2378.00,0.0001
2377.00,0.0001
2376.00,0.0001
2375.00,0.0002
2374.00,0.0002
2373.00,0.0001
2372.00,0.0001
2371.00,0.0000
2370.00,-0.0000
2369.00,-0.0001
2368.00,-0.0002
2367.00,-0.0002
2366.00,-0.0001
2365.00,-0.0001
2364.00,0.0000
2363.00,0.0001
2362.00,0.0001
2361.00,0.0000
2360.00,-0.0000
2359.00,-0.0000
2358.00,-0.0000
2357.00,0.0000
2356.00,0.0001
2355.00,0.0001
2354.00,0.0000
2353.00,0.0000
2352.00,0.0000
2351.00,0.0001
2350.00,0.0001
2349.00,0.0001
2348.00,0.0002
2347.00,0.0002
2346.00,0.0002
2345.00,0.0002
2344.00,0.0002
2343.00,0.0003
2342.00,0.0003
2341.00,0.0003
2340.00,0.0003
2339.00,0.0003
2338.00,0.0003
2337.00,0.0003
2336.00,0.0004
2335.00,0.0004
2334.00,0.0003
2333.00,0.0003
2332.00,0.0002
2331.00,0.0002
2330.00,0.0002
2329.00,0.0003
2328.00,0.0005
2327.00,0.0009
2326.00,0.0013
2325.00,0.0016
2324.00,0.0017
2323.00,0.0016
2322.00,0.0014
2321.00,0.0012
2320.00,0.0011
2319.00,0.0010
2318.00,0.0010
2317.00,0.0009
2316.00,0.0008
2315.00,0.0007
2314.00,0.0006
2313.00,0.0006
2312.00,0.0006
2311.00,0.0006
2310.00,0.0007
2309.00,0.0007
2308.00,0.0007
2307.00,0.0007
2306.00,0.0007
2305.00,0.0007
2304.00,0.0007
2303.00,0.0007
2302.00,0.0008
2301.00,0.0009
2300.00,0.0009
2299.00,0.0010
2298.00,0.0011
2297.00,0.0011
2296.00,0.0012
2295.00,0.0013
2294.00,0.0014
2293.00,0.0015
2292.00,0.0015
2291.00,0.0016
2290.00,0.0017
2289.00,0.0018
2288.00,0.0018
2287.00,0.0018
2286.00,0.0017
2285.00,0.0017
2284.00,0.0017
2283.00,0.0017
2282.00,0.0017
2281.00,0.0016
2280.00,0.0015
2279.00,0.0015
2278.00,0.0016
2277.00,0.0016
2276.00,0.0016
2275.00,0.0016
2274.00,0.0016
2273.00,0.0016
2272.00,0.0016
2271.00,0.0016
2270.00,0.0015
2269.00,0.0014
2268.00,0.0013
2267.00,0.0012
2266.00,0.0011
2265.00,0.0010
2264.00,0.0009
2263.00,0.0008
2262.00,0.0008
2261.00,0.0008
2260.00,0.0008
2259.00,0.0009
2258.00,0.0009
2257.00,0.0010
2256.00,0.0009
2255.00,0.0009
2254.00,0.0008
2253.00,0.0008
2252.00,0.0008
2251.00,0.0009
2250.00,0.0008
2249.00,0.0008
2248.00,0.0008
2247.00,0.0008
2246.00,0.0008
2245.00,0.0009
2244.00,0.0010
2243.00,0.0011
2242.00,0.0010
2241.00,0.0010
2240.00,0.0009
2239.00,0.0008
2238.00,0.0008
2237.00,0.0007
2236.00,0.0007
2235.00,0.0007
2234.00,0.0007
2233.00,0.0006
2232.00,0.0006
2231.00,0.0005
2230.00,0.0005
2229.00,0.0005
2228.00,0.0005
2227.00,0.0005
2226.00,0.0004
2225.00,0.0003
2224.00,0.0004
2223.00,0.0005
2222.00,0.0007
2221.00,0.0006
2220.00,0.0005
2219.00,0.0005
2218.00,0.0005
2217.00,0.0006
2216.00,0.0008
2215.00,0.0008
2214.00,0.0008
2213.00,0.0008
2212.00,0.0007
2211.00,0.0006
2210.00,0.0005
2209.00,0.0003
2208.00,0.0002
2207.00,0.0001
2206.00,0.0002
2205.00,0.0004
2204.00,0.0005
2203.00,0.0006
2202.00,0.0006
2201.00,0.0007
2200.00,0.0008
2199.00,0.0008
2198.00,0.0008
2197.00,0.0007
2196.00,0.0005
2195.00,0.0005
2194.00,0.0005
2193.00,0.0006
2192.00,0.0008
2191.00,0.0008
2190.00,0.0008
2189.00,0.0008
2188.00,0.0010
2187.00,0.0012
2186.00,0.0013
2185.00,0.0014
2184.00,0.0012
2183.00,0.0008
2182.00,0.0005
2181.00,0.0003
2180.00,0.0004
2179.00,0.0005
2178.00,0.0005
2177.00,0.0005
2176.00,0.0004
2175.00,0.0005
2174.00,0.0007
2173.00,0.0010
2172.00,0.0013
2171.00,0.0015
2170.00,0.0016
2169.00,0.0018
2168.00,0.0020
2167.00,0.0021
2166.00,0.0021
2165.00,0.0020
2164.00,0.0018
2163.00,0.0016
2162.00,0.0014
2161.00,0.0008
2160.00,-0.0002
2159.00,-0.0015
2158.00,-0.0025
2157.00,-0.0031
2156.00,-0.0032
2155.00,-0.0030
2154.00,-0.0025
2153.00,-0.0021
2152.00,-0.0017
2151.00,-0.0016
2150.00,-0.0015
2149.00,-0.0016
2148.00,-0.0016
2147.00,-0.0016
2146.00,-0.0016
2145.00,-0.0015
2144.00,-0.0013
2143.00,-0.0011
2142.00,-0.0010
2141.00,-0.0009
2140.00,-0.0010
2139.00,-0.0010
2138.00,-0.0011
2137.00,-0.0012
2136.00,-0.0014
2135.00,-0.0016
2134.00,-0.0018
2133.00,-0.0018
2132.00,-0.0017
2131.00,-0.0015
2130.00,-0.0013
2129.00,-0.0011
2128.00,-0.0011
2127.00,-0.0011
2126.00,-0.0011
2125.00,-0.0010
2124.00,-0.0010
2123.00,-0.0010
2122.00,-0.0009
2121.00,-0.0008
2120.00,-0.0006
2119.00,-0.0004
2118.00,-0.0003
2117.00,-0.0001
2116.00,0.0000
2115.00,0.0001
2114.00,0.0001
2113.00,0.0001
2112.00,0.0001
2111.00,0.0001
2110.00,0.0001
2109.00,0.0001
2108.00,0.0001
2107.00,0.0001
2106.00,0.0000
2105.00,0.0001
2104.00,0.0003
2103.00,0.0005
2102.00,0.0007
2101.00,0.0006
2100.00,0.0004
2099.00,0.0001
2098.00,-0.0001
2097.00,-0.0002
2096.00,-0.0003
2095.00,-0.0005
2094.00,-0.0007
2093.00,-0.0008
2092.00,-0.0007
2091.00,-0.0005
2090.00,-0.0003
2089.00,-0.0002
2088.00,-0.0001
2087.00,-0.0000
2086.00,0.0001
2085.00,0.0002
2084.00,0.0002
2083.00,0.0002
2082.00,0.0001
2081.00,0.0001
2080.00,0.0001
2079.00,0.0002
2078.00,0.0003
2077.00,0.0003
2076.00,0.0003
2075.00,0.0001
2074.00,-0.0001
2073.00,-0.0002
2072.00,-0.0002
2071.00,-0.0002
2070.00,-0.0002
2069.00,-0.0002
2068.00,-0.0002
2067.00,-0.0003
2066.00,-0.0003
2065.00,-0.0003
2064.00,-0.0003
2063.00,-0.0002
2062.00,-0.0001
2061.00,-0.0000
2060.00,-0.0001
2059.00,-0.0002
2058.00,-0.0004
2057.00,-0.0006
2056.00,-0.0007
2055.00,-0.0008
2054.00,-0.0006
2053.00,-0.0001
2052.00,0.0006
2051.00,0.0011
2050.00,0.0012
2049.00,0.0009
2048.00,0.0005
2047.00,0.0002
2046.00,0.0001
2045.00,0.0001
2044.00,-0.0001
2043.00,-0.0003
2042.00,-0.0006
2041.00,-0.0009
2040.00,-0.0010
2039.00,-0.0009
2038.00,-0.0006
2037.00,-0.0003
2036.00,-0.0002
2035.00,-0.0003
2034.00,-0.0006
2033.00,-0.0008
2032.00,-0.0009
2031.00,-0.0009
2030.00,-0.0010
2029.00,-0.0012
2028.00,-0.0013
2027.00,-0.0013
2026.00,-0.0013
2025.00,-0.0012
2024.00,-0.0010
2023.00,-0.0009
2022.00,-0.0009
2021.00,-0.0008
2020.00,-0.0009
2019.00,-0.0010
2018.00,-0.0011
2017.00,-0.0011
2016.00,-0.0009
2015.00,-0.0007
2014.00,-0.0006
2013.00,-0.0006
2012.00,-0.0007
2011.00,-0.0008
2010.00,-0.0009
2009.00,-0.0010
2008.00,-0.0012
2007.00,-0.0013
2006.00,-0.0014
2005.00,-0.0016
2004.00,-0.0016
2003.00,-0.0015
2002.00,-0.0012
2001.00,-0.0008
2000.00,-0.0006
1999.00,-0.0007
1998.00,-0.0009
1997.00,-0.0011
1996.00,-0.0013
1995.00,-0.0016
1994.00,-0.0018
1993.00,-0.0018
1992.00,-0.0016
1991.00,-0.0013
1990.00,-0.0009
1989.00,-0.0006
1988.00,-0.0004
1987.00,-0.0003
1986.00,-0.0002
1985.00,-0.0001
1984.00,0.0002
1983.00,0.0006
1982.00,0.0008
1981.00,0.0010
1980.00,0.0010
1979.00,0.0005
1978.00,-0.0001
1977.00,-0.0006
1976.00,-0.0007
1975.00,-0.0008
1974.00,-0.0009
1973.00,-0.0011
1972.00,-0.0013
1971.00,-0.0013
1970.00,-0.0014
1969.00,-0.0017
1968.00,-0.0021
1967.00,-0.0027
1966.00,-0.0031
1965.00,-0.0033
1964.00,-0.0033
1963.00,-0.0030
1962.00,-0.0026
1961.00,-0.0022
1960.00,-0.0020
1959.00,-0.0020
1958.00,-0.0020
1957.00,-0.0020
1956.00,-0.0020
1955.00,-0.0019
1954.00,-0.0018
1953.00,-0.0017
1952.00,-0.0016
1951.00,-0.0016
1950.00,-0.0015
1949.00,-0.0014
1948.00,-0.0013
1947.00,-0.0013
1946.00,-0.0014
1945.00,-0.0016
1944.00,-0.0018
1943.00,-0.0019
1942.00,-0.0018
1941.00,-0.0017
1940.00,-0.0015
1939.00,-0.0013
1938.00,-0.0012
1937.00,-0.0011
1936.00,-0.0011
1935.00,-0.0011
1934.00,-0.0010
1933.00,-0.0008
1932.00,-0.0006
1931.00,-0.0006
1930.00,-0.0008
1929.00,-0.0010
1928.00,-0.0011
1927.00,-0.0012
1926.00,-0.0011
1925.00,-0.0010
1924.00,-0.0008
1923.00,-0.0006
1922.00,-0.0005
1921.00,-0.0004
1920.00,-0.0005
1919.00,-0.0005
1918.00,-0.0006
1917.00,-0.0006
1916.00,-0.0005
1915.00,-0.0004
1914.00,-0.0003
1913.00,-0.0004
1912.00,-0.0005
1911.00,-0.0005
1910.00,-0.0006
1909.00,-0.0006
1908.00,-0.0007
1907.00,-0.0007
1906.00,-0.0007
1905.00,-0.0006
1904.00,-0.0005
1903.00,-0.0004
1902.00,-0.0004
1901.00,-0.0004
1900.00,-0.0004
1899.00,-0.0004
1898.00,-0.0004
1897.00,-0.0004
1896.00,-0.0004
1895.00,-0.0004
1894.00,-0.0004
1893.00,-0.0003
1892.00,-0.0003
1891.00,-0.0003
1890.00,-0.0003
1889.00,-0.0004
1888.00,-0.0004
1887.00,-0.0004
1886.00,-0.0004
1885.00,-0.0004
1884.00,-0.0003
1883.00,-0.0003
1882.00,-0.0002
1881.00,-0.0002
1880.00,-0.0002
1879.00,-0.0001
1878.00,-0.0002
1877.00,-0.0002
1876.00,-0.0003
1875.00,-0.0003
1874.00,-0.0003
1873.00,-0.0002
1872.00,-0.0002
1871.00,-0.0003
1870.00,-0.0003
1869.00,-0.0004
1868.00,-0.0004
1867.00,-0.0004
1866.00,-0.0004
1865.00,-0.0004
1864.00,-0.0004
1863.00,-0.0003
1862.00,-0.0003
1861.00,-0.0002
1860.00,-0.0001
1859.00,-0.0000
1858.00,0.0000
1857.00,0.0001
1856.00,0.0000
1855.00,0.0000
1854.00,-0.0000
1853.00,-0.0001
1852.00,-0.0001
1851.00,-0.0001
1850.00,-0.0000
1849.00,-0.0000
1848.00,-0.0001
1847.00,-0.0001
1846.00,-0.0001
1845.00,-0.0001
1844.00,0.0001
1843.00,0.0001
1842.00,0.0001
1841.00,0.0001
1840.00,0.0000
1839.00,0.0000
1838.00,0.0000
1837.00,0.0000
1836.00,0.0001
1835.00,0.0002
1834.00,0.0002
1833.00,0.0002
1832.00,0.0002
1831.00,0.0003
1830.00,0.0003
1829.00,0.0003
1828.00,0.0002
1827.00,0.0002
1826.00,0.0001
1825.00,0.0001
1824.00,0.0001
1823.00,0.0001
1822.00,0.0001
1821.00,0.0001
1820.00,0.0001
1819.00,0.0000
1818.00,-0.0000
1817.00,-0.0001
1816.00,-0.0001
1815.00,-0.0000
1814.00,0.0000
1813.00,0.0001
1812.00,0.0002
1811.00,0.0002
1810.00,0.0001
1809.00,0.0001
1808.00,0.0001
1807.00,0.0001
1806.00,0.0001
1805.00,0.0001
1804.00,0.0002
1803.00,0.0003
1802.00,0.0003
1801.00,0.0003
1800.00,0.0003
1799.00,0.0003
1798.00,0.0003
1797.00,0.0003
1796.00,0.0003
1795.00,0.0003
1794.00,0.0003
1793.00,0.0003
1792.00,0.0005
1791.00,0.0006
1790.00,0.0006
1789.00,0.0007
1788.00,0.0007
1787.00,0.0007
1786.00,0.0007
1785.00,0.0007
1784.00,0.0006
1783.00,0.0006
1782.00,0.0005
1781.00,0.0005
1780.00,0.0005
1779.00,0.0006
1778.00,0.0007
1777.00,0.0007
1776.00,0.0007
1775.00,0.0007
1774.00,0.0007
1773.00,0.0007
1772.00,0.0007
1771.00,0.0007
1770.00,0.0007
1769.00,0.0008
1768.00,0.0008
1767.00,0.0009
1766.00,0.0009
1765.00,0.0009
1764.00,0.0010
1763.00,0.0010
1762.00,0.0010
1761.00,0.0010
1760.00,0.0011
1759.00,0.0011
1758.00,0.0011
1757.00,0.0011
1756.00,0.0011
1755.00,0.0011
1754.00,0.0011
1753.00,0.0012
1752.00,0.0013
1751.00,0.0014
1750.00,0.0015
1749.00,0.0015
1748.00,0.0016
1747.00,0.0016
1746.00,0.0017
1745.00,0.0018
1744.00,0.0019
1743.00,0.0019
1742.00,0.0019
1741.00,0.0020
1740.00,0.0021
1739.00,0.0022
1738.00,0.0021
1737.00,0.0021
1736.00,0.0022
1735.00,0.0022
1734.00,0.0022
1733.00,0.0022
1732.00,0.0022
1731.00,0.0021
1730.00,0.0021
1729.00,0.0021
1728.00,0.0021
1727.00,0.0021
1726.00,0.0021
1725.00,0.0021
1724.00,0.0022
1723.00,0.0022
1722.00,0.0022
1721.00,0.0022
1720.00,0.0022
1719.00,0.0022
1718.00,0.0021
1717.00,0.0021
1716.00,0.0020
1715.00,0.0020
1714.00,0.0020
1713.00,0.0020
1712.00,0.0020
1711.00,0.0021
1710.00,0.0021
1709.00,0.0021
1708.00,0.0021
1707.00,0.0020
1706.00,0.0020
1705.00,0.0020
1704.00,0.0021
1703.00,0.0021
1702.00,0.0021
1701.00,0.0021
1700.00,0.0021
1699.00,0.0021
1698.00,0.0021
1697.00,0.0022
1696.00,0.0023
1695.00,0.0024
1694.00,0.0024
1693.00,0.0024
1692.00,0.0024
1691.00,0.0024
1690.00,0.0024
1689.00,0.0025
1688.00,0.0025
1687.00,0.0024
1686.00,0.0024
1685.00,0.0025
1684.00,0.0025
1683.00,0.0026
1682.00,0.0027
1681.00,0.0028
1680.00,0.0028
1679.00,0.0028
1678.00,0.0028
1677.00,0.0029
1676.00,0.0030
1675.00,0.0031
1674.00,0.0031
1673.00,0.0030
1672.00,0.0030
1671.00,0.0030
1670.00,0.0031
1669.00,0.0031
1668.00,0.0032
1667.00,0.0032
1666.00,0.0032
1665.00,0.0033
1664.00,0.0034
1663.00,0.0034
1662.00,0.0035
1661.00,0.0035
1660.00,0.0035
1659.00,0.0035
1658.00,0.0035
1657.00,0.0035
1656.00,0.0036
1655.00,0.0037
1654.00,0.0040
1653.00,0.0043
1652.00,0.0046
1651.00,0.0047
1650.00,0.0047
1649.00,0.0049
1648.00,0.0052
1647.00,0.0055
1646.00,0.0057
1645.00,0.0057
1644.00,0.0057
1643.00,0.0056
1642.00,0.0056
1641.00,0.0055
1640.00,0.0055
1639.00,0.0055
1638.00,0.0055
1637.00,0.0055
1636.00,0.0054
1635.00,0.0053
1634.00,0.0052
1633.00,0.0051
1632.00,0.0051
1631.00,0.0051
1630.00,0.0051
1629.00,0.0050
1628.00,0.0050
1627.00,0.0048
1626.00,0.0047
1625.00,0.0047
1624.00,0.0046
1623.00,0.0046
1622.00,0.0045
1621.00,0.0044
1620.00,0.0043
1619.00,0.0043
1618.00,0.0042
1617.00,0.0042
1616.00,0.0043
1615.00,0.0043
1614.00,0.0043
1613.00,0.0043
1612.00,0.0043
1611.00,0.0043
1610.00,0.0043
1609.00,0.0043
1608.00,0.0043
1607.00,0.0042
1606.00,0.0042
1605.00,0.0042
1604.00,0.0043
1603.00,0.0042
1602.00,0.0042
1601.00,0.0042
1600.00,0.0042
1599.00,0.0042
1598.00,0.0041
1597.00,0.0041
1596.00,0.0042
1595.00,0.0042
1594.00,0.0042
1593.00,0.0042
1592.00,0.0042
1591.00,0.0042
1590.00,0.0042
1589.00,0.0042
1588.00,0.0043
1587.00,0.0044
1586.00,0.0045
1585.00,0.0046
1584.00,0.0047
1583.00,0.0048
1582.00,0.0050
1581.00,0.0051
1580.00,0.0052
1579.00,0.0053
1578.00,0.0055
1577.00,0.0056
1576.00,0.0057
1575.00,0.0056
1574.00,0.0055
1573.00,0.0054
1572.00,0.0053
1571.00,0.0053
1570.00,0.0053
1569.00,0.0052
1568.00,0.0052
1567.00,0.0051
1566.00,0.0050
1565.00,0.0050
1564.00,0.0050
1563.00,0.0050
1562.00,0.0049
1561.00,0.0049
1560.00,0.0050
1559.00,0.0049
1558.00,0.0049
1557.00,0.0049
1556.00,0.0049
1555.00,0.0049
1554.00,0.0049
1553.00,0.0050
1552.00,0.0051
1551.00,0.0052
1550.00,0.0052
1549.00,0.0053
1548.00,0.0054
1547.00,0.0055
1546.00,0.0055
1545.00,0.0057
1544.00,0.0058
1543.00,0.0059
1542.00,0.0060
1541.00,0.0060
1540.00,0.0059
1539.00,0.0058
1538.00,0.0057
1537.00,0.0056
1536.00,0.0055
1535.00,0.0053
1534.00,0.0052
1533.00,0.0050
1532.00,0.0049
1531.00,0.0048
1530.00,0.0047
1529.00,0.0046
1528.00,0.0046
1527.00,0.0046
1526.00,0.0046
1525.00,0.0046
1524.00,0.0046
1523.00,0.0046
1522.00,0.0046
1521.00,0.0047
1520.00,0.0047
1519.00,0.0048
1518.00,0.0048
1517.00,0.0048
1516.00,0.0049
1515.00,0.0049
1514.00,0.0049
1513.00,0.0050
1512.00,0.0051
1511.00,0.0052
1510.00,0.0052
1509.00,0.0053
1508.00,0.0055
1507.00,0.0055
1506.00,0.0055
1505.00,0.0056
1504.00,0.0058
1503.00,0.0059
1502.00,0.0061
1501.00,0.0063
1500.00,0.0066
1499.00,0.0068
1498.00,0.0070
1497.00,0.0073
1496.00,0.0076
1495.00,0.0078
1494.00,0.0080
1493.00,0.0083
1492.00,0.0086
1491.00,0.0090
1490.00,0.0093
1489.00,0.0099
1488.00,0.0104
1487.00,0.0109
1486.00,0.0114
1485.00,0.0120
1484.00,0.0127
1483.00,0.0135
1482.00,0.0144
1481.00,0.0155
1480.00,0.0167
1479.00,0.0181
1478.00,0.0197
1477.00,0.0219
1476.00,0.0245
1475.00,0.0275
1474.00,0.0315
1473.00,0.0374
1472.00,0.0443
1471.00,0.0511
1470.00,0.0577
1469.00,0.0646
1468.00,0.0721
1467.00,0.0803
1466.00,0.0897
1465.00,0.0998
1464.00,0.1085
1463.00,0.1143
1462.00,0.1179
1461.00,0.1201
1460.00,0.1213
1459.00,0.1219
1458.00,0.1221
1457.00,0.1218
1456.00,0.1208
1455.00,0.1194
1454.00,0.1176
1453.00,0.1155
1452.00,0.1124
1451.00,0.1084
1450.00,0.1031
1449.00,0.0959
1448.00,0.0869
1447.00,0.0774
1446.00,0.0688
1445.00,0.0615
1444.00,0.0554
1443.00,0.0504
1442.00,0.0466
1441.00,0.0440
1440.00,0.0425
1439.00,0.0421
1438.00,0.0426
1437.00,0.0432
1436.00,0.0427
1435.00,0.0404
1434.00,0.0368
1433.00,0.0323
1432.00,0.0276
1431.00,0.0234
1430.00,0.0202
1429.00,0.0179
1428.00,0.0164
1427.00,0.0154
1426.00,0.0147
1425.00,0.0141
1424.00,0.0135
1423.00,0.0132
1422.00,0.0130
1421.00,0.0128
1420.00,0.0125
1419.00,0.0123
1418.00,0.0120
1417.00,0.0117
1416.00,0.0114
1415.00,0.0112
1414.00,0.0111
1413.00,0.0110
1412.00,0.0108
1411.00,0.0107
1410.00,0.0107
1409.00,0.0106
1408.00,0.0105
1407.00,0.0105
1406.00,0.0106
1405.00,0.0106
1404.00,0.0106
1403.00,0.0106
1402.00,0.0107
1401.00,0.0108
1400.00,0.0108
1399.00,0.0110
1398.00,0.0112
1397.00,0.0114
1396.00,0.0117
1395.00,0.0121
1394.00,0.0126
1393.00,0.0131
1392.00,0.0136
1391.00,0.0143
1390.00,0.0153
1389.00,0.0167
1388.00,0.0187
1387.00,0.0217
1386.00,0.0258
1385.00,0.0312
1384.00,0.0387
1383.00,0.0494
1382.00,0.0640
1381.00,0.0833
1380.00,0.1079
1379.00,0.1375
1378.00,0.1681
1377.00,0.1927
1376.00,0.2039
1375.00,0.1968
1374.00,0.1734
1373.00,0.1431
1372.00,0.1146
1371.00,0.0908
1370.00,0.0718
1369.00,0.0576
1368.00,0.0480
1367.00,0.0421
1366.00,0.0389
1365.00,0.0377
1364.00,0.0380
1363.00,0.0396
1362.00,0.0421
1361.00,0.0447
1360.00,0.0467
1359.00,0.0474
1358.00,0.0463
1357.00,0.0434
1356.00,0.0394
1355.00,0.0349
1354.00,0.0306
1353.00,0.0269
1352.00,0.0239
1351.00,0.0216
1350.00,0.0197
1349.00,0.0182
1348.00,0.0169
1347.00,0.0157
1346.00,0.0147
1345.00,0.0139
1344.00,0.0133
1343.00,0.0128
1342.00,0.0124
1341.00,0.0120
1340.00,0.0118
1339.00,0.0116
1338.00,0.0114
1337.00,0.0114
1336.00,0.0115
1335.00,0.0117
1334.00,0.0120
1333.00,0.0125
1332.00,0.0130
1331.00,0.0133
1330.00,0.0135
1329.00,0.0133
1328.00,0.0129
1327.00,0.0124
1326.00,0.0119
1325.00,0.0113
1324.00,0.0107
1323.00,0.0102
1322.00,0.0097
1321.00,0.0094
1320.00,0.0092
1319.00,0.0090
1318.00,0.0088
1317.00,0.0086
1316.00,0.0085
1315.00,0.0084
1314.00,0.0084
1313.00,0.0084
1312.00,0.0085
1311.00,0.0087
1310.00,0.0090
1309.00,0.0094
1308.00,0.0100
1307.00,0.0108
1306.00,0.0117
1305.00,0.0123
1304.00,0.0125
1303.00,0.0124
1302.00,0.0122
1301.00,0.0120
1300.00,0.0120
1299.00,0.0121
1298.00,0.0122
1297.00,0.0123
1296.00,0.0123
1295.00,0.0121
1294.00,0.0118
1293.00,0.0113
1292.00,0.0108
1291.00,0.0103
1290.00,0.0098
1289.00,0.0094
1288.00,0.0091
1287.00,0.0088
1286.00,0.0086
1285.00,0.0084
1284.00,0.0082
1283.00,0.0080
1282.00,0.0079
1281.00,0.0078
1280.00,0.0077
1279.00,0.0077
1278.00,0.0076
1277.00,0.0076
1276.00,0.0076
1275.00,0.0075
1274.00,0.0075
1273.00,0.0075
1272.00,0.0076
1271.00,0.0077
1270.00,0.0078
1269.00,0.0080
1268.00,0.0082
1267.00,0.0084
1266.00,0.0086
1265.00,0.0088
1264.00,0.0091
1263.00,0.0093
1262.00,0.0096
1261.00,0.0098
1260.00,0.0102
1259.00,0.0106
1258.00,0.0110
1257.00,0.0114
1256.00,0.0115
1255.00,0.0113
1254.00,0.0108
1253.00,0.0102
1252.00,0.0096
1251.00,0.0091
1250.00,0.0088
1249.00,0.0085
1248.00,0.0083
1247.00,0.0082
1246.00,0.0080
1245.00,0.0079
1244.00,0.0077
1243.00,0.0076
1242.00,0.0075
1241.00,0.0075
1240.00,0.0074
1239.00,0.0073
1238.00,0.0072
1237.00,0.0072
1236.00,0.0072
1235.00,0.0072
1234.00,0.0073
1233.00,0.0074
1232.00,0.0075
1231.00,0.0075
1230.00,0.0076
1229.00,0.0077
1228.00,0.0078
1227.00,0.0080
1226.00,0.0082
1225.00,0.0085
1224.00,0.0089
1223.00,0.0093
1222.00,0.0098
1221.00,0.0101
1220.00,0.0102
1219.00,0.0102
1218.00,0.0101
1217.00,0.0099
1216.00,0.0096
1215.00,0.0093
1214.00,0.0090
1213.00,0.0087
1212.00,0.0085
1211.00,0.0083
1210.00,0.0080
1209.00,0.0079
1208.00,0.0077
1207.00,0.0076
1206.00,0.0075
1205.00,0.0074
1204.00,0.0074
1203.00,0.0074
1202.00,0.0075
1201.00,0.0075
1200.00,0.0075
1199.00,0.0075
1198.00,0.0075
1197.00,0.0074
1196.00,0.0074
1195.00,0.0075
1194.00,0.0075
1193.00,0.0074
1192.00,0.0074
1191.00,0.0074
1190.00,0.0075
1189.00,0.0075
1188.00,0.0075
1187.00,0.0074
1186.00,0.0074
1185.00,0.0074
1184.00,0.0075
1183.00,0.0076
1182.00,0.0078
1181.00,0.0080
1180.00,0.0084
1179.00,0.0087
1178.00,0.0091
1177.00,0.0097
1176.00,0.0105
1175.00,0.0115
1174.00,0.0129
1173.00,0.0147
1172.00,0.0169
1171.00,0.0193
1170.00,0.0217
1169.00,0.0236
1168.00,0.0247
1167.00,0.0250
1166.00,0.0246
1165.00,0.0237
1164.00,0.0225
1163.00,0.0214
1162.00,0.0205
1161.00,0.0198
1160.00,0.0192
1159.00,0.0188
1158.00,0.0185
1157.00,0.0183
1156.00,0.0183
1155.00,0.0183
1154.00,0.0183
1153.00,0.0182
1152.00,0.0179
1151.00,0.0174
1150.00,0.0165
1149.00,0.0155
1148.00,0.0144
1147.00,0.0135
1146.00,0.0128
1145.00,0.0121
1144.00,0.0115
1143.00,0.0108
1142.00,0.0102
1141.00,0.0096
1140.00,0.0092
1139.00,0.0088
1138.00,0.0085
1137.00,0.0082
1136.00,0.0080
1135.00,0.0078
1134.00,0.0075
1133.00,0.0073
1132.00,0.0072
1131.00,0.0072
1130.00,0.0072
1129.00,0.0072
1128.00,0.0073
1127.00,0.0074
1126.00,0.0074
1125.00,0.0075
1124.00,0.0075
1123.00,0.0076
1122.00,0.0076
1121.00,0.0076
1120.00,0.0077
1119.00,0.0077
1118.00,0.0077
1117.00,0.0078
1116.00,0.0079
1115.00,0.0081
1114.00,0.0083
1113.00,0.0086
1112.00,0.0088
1111.00,0.0090
1110.00,0.0092
1109.00,0.0096
1108.00,0.0101
1107.00,0.0107
1106.00,0.0114
1105.00,0.0121
1104.00,0.0127
1103.00,0.0130
1102.00,0.0130
1101.00,0.0126
1100.00,0.0120
1099.00,0.0113
1098.00,0.0106
1097.00,0.0100
1096.00,0.0095
1095.00,0.0091
1094.00,0.0088
1093.00,0.0087
1092.00,0.0085
1091.00,0.0083
1090.00,0.0081
1089.00,0.0079
1088.00,0.0078
1087.00,0.0077
1086.00,0.0078
1085.00,0.0078
1084.00,0.0078
1083.00,0.0077
1082.00,0.0077
1081.00,0.0076
1080.00,0.0075
1079.00,0.0074
1078.00,0.0074
1077.00,0.0074
1076.00,0.0074
1075.00,0.0074
1074.00,0.0073
1073.00,0.0073
1072.00,0.0073
1071.00,0.0073
1070.00,0.0073
1069.00,0.0073
1068.00,0.0074
1067.00,0.0074
1066.00,0.0074
1065.00,0.0075
1064.00,0.0075
1063.00,0.0076
1062.00,0.0076
1061.00,0.0077
1060.00,0.0077
1059.00,0.0077
1058.00,0.0078
1057.00,0.0080
1056.00,0.0081
1055.00,0.0082
1054.00,0.0083
1053.00,0.0086
1052.00,0.0089
1051.00,0.0092
1050.00,0.0096
1049.00,0.0100
1048.00,0.0105
1047.00,0.0109
1046.00,0.0112
1045.00,0.0113
1044.00,0.0113
1043.00,0.0113
1042.00,0.0112
1041.00,0.0112
1040.00,0.0112
1039.00,0.0113
1038.00,0.0113
1037.00,0.0113
1036.00,0.0112
1035.00,0.0110
1034.00,0.0109
1033.00,0.0107
1032.00,0.0106
1031.00,0.0106
1030.00,0.0106
1029.00,0.0107
1028.00,0.0108
1027.00,0.0109
1026.00,0.0110
1025.00,0.0112
1024.00,0.0115
1023.00,0.0117
1022.00,0.0119
1021.00,0.0120
1020.00,0.0120
1019.00,0.0121
1018.00,0.0122
1017.00,0.0123
1016.00,0.0123
1015.00,0.0123
1014.00,0.0124
1013.00,0.0123
1012.00,0.0122
1011.00,0.0121
1010.00,0.0121
1009.00,0.0121
1008.00,0.0122
1007.00,0.0124
1006.00,0.0129
1005.00,0.0136
1004.00,0.0147
1003.00,0.0163
1002.00,0.0184
1001.00,0.0210
1000.00,0.0236
999.00,0.0257
998.00,0.0266
997.00,0.0260
996.00,0.0240
995.00,0.0213
994.00,0.0185
993.00,0.0161
992.00,0.0142
991.00,0.0128
990.00,0.0118
989.00,0.0111
988.00,0.0107
987.00,0.0105
986.00,0.0104
985.00,0.0106
984.00,0.0110
983.00,0.0115
982.00,0.0125
981.00,0.0138
980.00,0.0156
979.00,0.0179
978.00,0.0207
977.00,0.0240
976.00,0.0274
975.00,0.0304
974.00,0.0325
973.00,0.0330
972.00,0.0317
971.00,0.0288
970.00,0.0251
969.00,0.0213
968.00,0.0181
967.00,0.0156
966.00,0.0137
965.00,0.0122
964.00,0.0112
963.00,0.0104
962.00,0.0098
961.00,0.0094
960.00,0.0091
959.00,0.0089
958.00,0.0086
957.00,0.0084
956.00,0.0082
955.00,0.0081
954.00,0.0080
953.00,0.0079
952.00,0.0078
951.00,0.0077
950.00,0.0076
949.00,0.0076
948.00,0.0077
947.00,0.0078
946.00,0.0079
945.00,0.0081
944.00,0.0085
943.00,0.0089
942.00,0.0093
941.00,0.0096
940.00,0.0096
939.00,0.0093
938.00,0.0088
937.00,0.0082
936.00,0.0076
935.00,0.0071
934.00,0.0067
933.00,0.0065
932.00,0.0063
931.00,0.0063
930.00,0.0062
929.00,0.0061
928.00,0.0059
927.00,0.0058
926.00,0.0058
925.00,0.0059
924.00,0.0060
923.00,0.0060
922.00,0.0060
921.00,0.0059
920.00,0.0058
919.00,0.0058
918.00,0.0058
917.00,0.0059
916.00,0.0059
915.00,0.0061
914.00,0.0062
913.00,0.0064
912.00,0.0066
911.00,0.0068
910.00,0.0069
909.00,0.0071
908.00,0.0074
907.00,0.0079
906.00,0.0086
905.00,0.0098
904.00,0.0113
903.00,0.0131
902.00,0.0152
901.00,0.0171
900.00,0.0185
899.00,0.0188
898.00,0.0180
897.00,0.0163
896.00,0.0141
895.00,0.0121
894.00,0.0105
893.00,0.0094
892.00,0.0086
891.00,0.0081
890.00,0.0078
889.00,0.0076
888.00,0.0074
887.00,0.0071
886.00,0.0069
885.00,0.0067
884.00,0.0066
883.00,0.0066
882.00,0.0067
881.00,0.0068
880.00,0.0069
879.00,0.0070
878.00,0.0070
877.00,0.0070
876.00,0.0070
875.00,0.0071
874.00,0.0072
873.00,0.0074
872.00,0.0074
871.00,0.0074
870.00,0.0073
869.00,0.0073
868.00,0.0073
867.00,0.0073
866.00,0.0073
865.00,0.0074
864.00,0.0075
863.00,0.0077
862.00,0.0078
861.00,0.0079
860.00,0.0080
859.00,0.0081
858.00,0.0083
857.00,0.0084
856.00,0.0085
855.00,0.0086
854.00,0.0086
853.00,0.0087
852.00,0.0089
851.00,0.0092
850.00,0.0096
849.00,0.0099
848.00,0.0104
847.00,0.0112
846.00,0.0125
845.00,0.0146
844.00,0.0177
843.00,0.0212
842.00,0.0241
841.00,0.0250
840.00,0.0235
839.00,0.0203
838.00,0.0167
837.00,0.0140
836.00,0.0123
835.00,0.0114
834.00,0.0109
833.00,0.0105
832.00,0.0102
831.00,0.0099
830.00,0.0097
829.00,0.0095
828.00,0.0095
827.00,0.0095
826.00,0.0095
825.00,0.0095
824.00,0.0096
823.00,0.0096
822.00,0.0097
821.00,0.0099
820.00,0.0101
819.00,0.0105
818.00,0.0112
817.00,0.0120
816.00,0.0129
815.00,0.0140
814.00,0.0155
813.00,0.0175
812.00,0.0198
811.00,0.0218
810.00,0.0232
809.00,0.0236
808.00,0.0230
807.00,0.0217
806.00,0.0199
805.00,0.0180
804.00,0.0163
803.00,0.0148
802.00,0.0136
801.00,0.0127
800.00,0.0120
799.00,0.0115
798.00,0.0110
797.00,0.0106
796.00,0.0101
795.00,0.0097
794.00,0.0092
793.00,0.0089
792.00,0.0086
791.00,0.0083
790.00,0.0081
789.00,0.0078
788.00,0.0075
787.00,0.0072
786.00,0.0069
785.00,0.0066
784.00,0.0065
783.00,0.0064
782.00,0.0063
781.00,0.0063
780.00,0.0062
779.00,0.0061
778.00,0.0060
777.00,0.0060
776.00,0.0062
775.00,0.0064
774.00,0.0065
773.00,0.0066
772.00,0.0065
771.00,0.0063
770.00,0.0062
769.00,0.0061
768.00,0.0061
767.00,0.0062
766.00,0.0063
765.00,0.0064
764.00,0.0064
763.00,0.0064
762.00,0.0063
761.00,0.0062
760.00,0.0063
759.00,0.0063
758.00,0.0064
757.00,0.0065
756.00,0.0066
755.00,0.0068
754.00,0.0069
753.00,0.0070
752.00,0.0072
751.00,0.0073
750.00,0.0076
749.00,0.0078
748.00,0.0079
747.00,0.0079
746.00,0.0079
745.00,0.0080
744.00,0.0081
743.00,0.0083
742.00,0.0085
741.00,0.0088
740.00,0.0092
739.00,0.0096
738.00,0.0101
737.00,0.0105
736.00,0.0108
735.00,0.0111
734.00,0.0115
733.00,0.0121
732.00,0.0129
731.00,0.0137
730.00,0.0142
729.00,0.0145
728.00,0.0146
727.00,0.0147
726.00,0.0150
725.00,0.0154
724.00,0.0159
723.00,0.0166
722.00,0.0172
721.00,0.0175
720.00,0.0172
719.00,0.0164
718.00,0.0153
717.00,0.0141
716.00,0.0131
715.00,0.0123
714.00,0.0117
713.00,0.0112
712.00,0.0109
711.00,0.0106
710.00,0.0104
709.00,0.0102
708.00,0.0101
707.00,0.0100
706.00,0.0099
705.00,0.0098
704.00,0.0095
703.00,0.0092
702.00,0.0090
701.00,0.0090
700.00,0.0092
699.00,0.0094
698.00,0.0095
697.00,0.0094
696.00,0.0091
695.00,0.0090
694.00,0.0088
693.00,0.0088
692.00,0.0089
691.00,0.0090
690.00,0.0091
689.00,0.0092
688.00,0.0094
687.00,0.0096
686.00,0.0097
685.00,0.0096
684.00,0.0094
683.00,0.0092
682.00,0.0090
681.00,0.0089
680.00,0.0089
679.00,0.0090
678.00,0.0092
677.00,0.0094
676.00,0.0096
675.00,0.0098
674.00,0.0098
673.00,0.0099
672.00,0.0099
671.00,0.0101
670.00,0.0101
669.00,0.0100
668.00,0.0099
667.00,0.0098
666.00,0.0096
665.00,0.0093
664.00,0.0092
663.00,0.0091
662.00,0.0091
661.00,0.0091
660.00,0.0090
659.00,0.0089
658.00,0.0088
657.00,0.0087
656.00,0.0086
655.00,0.0085
654.00,0.0083
653.00,0.0081
652.00,0.0078
651.00,0.0077
650.00,0.0077
649.00,0.0078
648.00,0.0080
647.00,0.0081
646.00,0.0081
645.00,0.0079
644.00,0.0077
643.00,0.0075
642.00,0.0075
641.00,0.0075
640.00,0.0077
639.00,0.0079
638.00,0.0082
637.00,0.0084
636.00,0.0084
635.00,0.0083
634.00,0.0081
633.00,0.0080
632.00,0.0080
631.00,0.0081
630.00,0.0084
629.00,0.0086
628.00,0.0085
627.00,0.0083
626.00,0.0079
625.00,0.0076
624.00,0.0074
623.00,0.0073
622.00,0.0074
621.00,0.0076
620.00,0.0076
619.00,0.0076
618.00,0.0076
617.00,0.0077
616.00,0.0078
615.00,0.0078
614.00,0.0078
613.00,0.0078
612.00,0.0078
611.00,0.0078
610.00,0.0078
609.00,0.0077
608.00,0.0075
607.00,0.0073
606.00,0.0072
605.00,0.0070
604.00,0.0070
603.00,0.0072
602.00,0.0074
601.00,0.0075
600.00,0.0074
599.00,0.0071
598.00,0.0069
597.00,0.0069
596.00,0.0071
595.00,0.0073
594.00,0.0075
593.00,0.0076
592.00,0.0076
591.00,0.0075
590.00,0.0074
589.00,0.0074
588.00,0.0075
587.00,0.0074
586.00,0.0073
585.00,0.0072
584.00,0.0073
583.00,0.0075
582.00,0.0078
581.00,0.0079
580.00,0.0080
579.00,0.0080
578.00,0.0081
577.00,0.0082
576.00,0.0083
575.00,0.0082
574.00,0.0080
573.00,0.0077
572.00,0.0074
571.00,0.0071
570.00,0.0070
569.00,0.0072
568.00,0.0075
567.00,0.0078
566.00,0.0079
565.00,0.0079
564.00,0.0078
563.00,0.0077
562.00,0.0074
561.00,0.0071
560.00,0.0068
559.00,0.0069
558.00,0.0070
557.00,0.0072
556.00,0.0072
555.00,0.0072
554.00,0.0072
553.00,0.0072
552.00,0.0071
551.00,0.0070
550.00,0.0071
549.00,0.0073
548.00,0.0077
547.00,0.0081
546.00,0.0084
545.00,0.0085
544.00,0.0084
543.00,0.0083
542.00,0.0084
541.00,0.0088
540.00,0.0093
539.00,0.0095
538.00,0.0096
537.00,0.0096
536.00,0.0098
535.00,0.0099
534.00,0.0097
533.00,0.0095
532.00,0.0096
531.00,0.0101
530.00,0.0108
529.00,0.0113
528.00,0.0112
527.00,0.0107
526.00,0.0099
525.00,0.0091
524.00,0.0086
523.00,0.0083
522.00,0.0082
521.00,0.0083
520.00,0.0083
519.00,0.0082
518.00,0.0079
517.00,0.0075
516.00,0.0075
515.00,0.0077
514.00,0.0080
513.00,0.0079
512.00,0.0076
511.00,0.0073
510.00,0.0074
509.00,0.0079
508.00,0.0085
507.00,0.0088
506.00,0.0087
505.00,0.0084
504.00,0.0083
503.00,0.0085
502.00,0.0088
501.00,0.0090
500.00,0.0091
499.00,0.0089
498.00,0.0085
497.00,0.0082
496.00,0.0078
495.00,0.0074
494.00,0.0070
493.00,0.0068
492.00,0.0068
491.00,0.0071
490.00,0.0074
489.00,0.0078
488.00,0.0080
487.00,0.0078
486.00,0.0075
485.00,0.0075
484.00,0.0082
483.00,0.0093
482.00,0.0100
481.00,0.0101
480.00,0.0098
479.00,0.0094
478.00,0.0089
477.00,0.0088
476.00,0.0092
475.00,0.0102
474.00,0.0114
473.00,0.0122
472.00,0.0125
471.00,0.0125
470.00,0.0126
469.00,0.0129
468.00,0.0134
467.00,0.0140
466.00,0.0146
465.00,0.0151
464.00,0.0161
463.00,0.0179
462.00,0.0203
461.00,0.0223
460.00,0.0230
459.00,0.0225
458.00,0.0211
457.00,0.0196
456.00,0.0183
455.00,0.0171
454.00,0.0159
453.00,0.0147
452.00,0.0137
451.00,0.0127
450.00,0.0116
