Created as New Dataset,Sample 037 By Administrator Date Thursday, September 04 2025
cm-1,A
4000.00,0.0011
3999.00,0.0011
3998.00,0.0011
3997.00,0.0011
3996.00,0.0011
3995.00,0.0011
3994.00,0.0011
3993.00,0.0011
3992.00,0.0010
3991.00,0.0010
3990.00,0.0010
3989.00,0.0010
3988.00,0.0010
3987.00,0.0010
3986.00,0.0011
3985.00,0.0010
3984.00,0.0010
3983.00,0.0010
3982.00,0.0010
3981.00,0.0010
3980.00,0.0009
3979.00,0.0009
3978.00,0.0009
3977.00,0.0009
3976.00,0.0009
3975.00,0.0008
3974.00,0.0008
3973.00,0.0008
3972.00,0.0008
3971.00,0.0009
3970.00,0.0008
3969.00,0.0008
3968.00,0.0008
3967.00,0.0008
3966.00,0.0008
3965.00,0.0009
3964.00,0.0009
3963.00,0.0009
3962.00,0.0009
3961.00,0.0009
3960.00,0.0009
3959.00,0.0009
3958.00,0.0009
3957.00,0.0009
3956.00,0.0009
3955.00,0.0009
3954.00,0.0008
3953.00,0.0008
3952.00,0.0008
3951.00,0.0008
3950.00,0.0008
3949.00,0.0008
3948.00,0.0009
3947.00,0.0009
3946.00,0.0009
3945.00,0.0009
3944.00,0.0009
3943.00,0.0009
3942.00,0.0009
3941.00,0.0010
3940.00,0.0010
3939.00,0.0009
3938.00,0.0009
3937.00,0.0009
3936.00,0.0009
3935.00,0.0009
3934.00,0.0008
3933.00,0.0008
3932.00,0.0008
3931.00,0.0009
3930.00,0.0009
3929.00,0.0010
3928.00,0.0010
3927.00,0.0010
3926.00,0.0010
3925.00,0.0010
3924.00,0.0010
3923.00,0.0010
3922.00,0.0010
3921.00,0.0010
3920.00,0.0010
3919.00,0.0010
3918.00,0.0009
3917.00,0.0009
3916.00,0.0009
3915.00,0.0009
3914.00,0.0009
3913.00,0.0009
3912.00,0.0009
3911.00,0.0008
3910.00,0.0008
3909.00,0.0008
3908.00,0.0008
3907.00,0.0008
3906.00,0.0008
3905.00,0.0008
3904.00,0.0008
3903.00,0.0008
3902.00,0.0009
3901.00,0.0009
3900.00,0.0009
3899.00,0.0009
3898.00,0.0009
3897.00,0.0009
3896.00,0.0010
3895.00,0.0010
3894.00,0.0009
3893.00,0.0009
3892.00,0.0009
3891.00,0.0008
3890.00,0.0008
3889.00,0.0008
3888.00,0.0008
3887.00,0.0008
3886.00,0.0008
3885.00,0.0008
3884.00,0.0008
3883.00,0.0008
3882.00,0.0008
3881.00,0.0008
3880.00,0.0008
3879.00,0.0008
3878.00,0.0008
3877.00,0.0008
3876.00,0.0008
3875.00,0.0008
3874.00,0.0008
3873.00,0.0008
3872.00,0.0008
3871.00,0.0008
3870.00,0.0008
3869.00,0.0008
3868.00,0.0008
3867.00,0.0008
3866.00,0.0008
3865.00,0.0008
3864.00,0.0008
3863.00,0.0008
3862.00,0.0008
3861.00,0.0008
3860.00,0.0008
3859.00,0.0008
3858.00,0.0007
3857.00,0.0007
3856.00,0.0006
3855.00,0.0006
3854.00,0.0006
3853.00,0.0006
3852.00,0.0007
3851.00,0.0007
3850.00,0.0008
3849.00,0.0008
3848.00,0.0008
3847.00,0.0008
3846.00,0.0008
3845.00,0.0008
3844.00,0.0008
3843.00,0.0007
3842.00,0.0008
3841.00,0.0008
3840.00,0.0008
3839.00,0.0009
3838.00,0.0009
3837.00,0.0009
3836.00,0.0008
3835.00,0.0008
3834.00,0.0008
3833.00,0.0008
3832.00,0.0008
3831.00,0.0008
3830.00,0.0008
3829.00,0.0008
3828.00,0.0007
3827.00,0.0007
3826.00,0.0007
3825.00,0.0008
3824.00,0.0007
3823.00,0.0007
3822.00,0.0007
3821.00,0.0007
3820.00,0.0007
3819.00,0.0007
3818.00,0.0007
3817.00,0.0007
3816.00,0.0007
3815.00,0.0008
3814.00,0.0008
3813.00,0.0009
3812.00,0.0009
3811.00,0.0009
3810.00,0.0009
3809.00,0.0008
3808.00,0.0008
3807.00,0.0008
3806.00,0.0008
3805.00,0.0008
3804.00,0.0008
3803.00,0.0008
3802.00,0.0008
3801.00,0.0008
3800.00,0.0008
3799.00,0.0008
3798.00,0.0008
3797.00,0.0008
3796.00,0.0008
3795.00,0.0008
3794.00,0.0008
3793.00,0.0008
3792.00,0.0009
3791.00,0.0009
3790.00,0.0009
3789.00,0.0009
3788.00,0.0008
3787.00,0.0008
3786.00,0.0008
3785.00,0.0008
3784.00,0.0008
3783.00,0.0008
3782.00,0.0008
3781.00,0.0008
3780.00,0.0008
3779.00,0.0007
3778.00,0.0008
3777.00,0.0008
3776.00,0.0008
3775.00,0.0008
3774.00,0.0009
3773.00,0.0009
3772.00,0.0009
3771.00,0.0009
3770.00,0.0009
3769.00,0.0009
3768.00,0.0009
3767.00,0.0009
3766.00,0.0008
3765.00,0.0008
3764.00,0.0009
3763.00,0.0009
3762.00,0.0009
3761.00,0.0010
3760.00,0.0009
3759.00,0.0009
3758.00,0.0009
3757.00,0.0009
3756.00,0.0008
3755.00,0.0008
3754.00,0.0008
3753.00,0.0008
3752.00,0.0008
3751.00,0.0008
3750.00,0.0008
3749.00,0.0008
3748.00,0.0009
3747.00,0.0009
3746.00,0.0009
3745.00,0.0009
3744.00,0.0009
3743.00,0.0009
3742.00,0.0009
3741.00,0.0008
3740.00,0.0008
3739.00,0.0008
3738.00,0.0008
3737.00,0.0008
3736.00,0.0007
3735.00,0.0007
3734.00,0.0007
3733.00,0.0007
3732.00,0.0007
3731.00,0.0006
3730.00,0.0006
3729.00,0.0006
3728.00,0.0006
3727.00,0.0006
3726.00,0.0006
3725.00,0.0006
3724.00,0.0006
3723.00,0.0006
3722.00,0.0006
3721.00,0.0006
3720.00,0.0006
3719.00,0.0006
3718.00,0.0006
3717.00,0.0006
3716.00,0.0007
3715.00,0.0007
3714.00,0.0007
3713.00,0.0007
3712.00,0.0007
3711.00,0.0007
3710.00,0.0007
3709.00,0.0007
3708.00,0.0006
3707.00,0.0007
3706.00,0.0007
3705.00,0.0007
3704.00,0.0007
3703.00,0.0007
3702.00,0.0007
3701.00,0.0007
3700.00,0.0007
3699.00,0.0007
3698.00,0.0007
3697.00,0.0007
3696.00,0.0006
3695.00,0.0006
3694.00,0.0006
3693.00,0.0006
3692.00,0.0006
3691.00,0.0007
3690.00,0.0007
3689.00,0.0008
3688.00,0.0009
3687.00,0.0009
3686.00,0.0009
3685.00,0.0010
3684.00,0.0010
3683.00,0.0010
3682.00,0.0010
3681.00,0.0011
3680.00,0.0011
3679.00,0.0012
3678.00,0.0013
3677.00,0.0014
3676.00,0.0014
3675.00,0.0013
3674.00,0.0013
3673.00,0.0012
3672.00,0.0012
3671.00,0.0011
3670.00,0.0011
3669.00,0.0012
3668.00,0.0012
3667.00,0.0012
3666.00,0.0012
3665.00,0.0012
3664.00,0.0013
3663.00,0.0013
3662.00,0.0013
3661.00,0.0013
3660.00,0.0013
3659.00,0.0013
3658.00,0.0013
3657.00,0.0013
3656.00,0.0013
3655.00,0.0012
3654.00,0.0012
3653.00,0.0012
3652.00,0.0012
3651.00,0.0012
3650.00,0.0012
3649.00,0.0012
3648.00,0.0012
3647.00,0.0012
3646.00,0.0013
3645.00,0.0013
3644.00,0.0013
3643.00,0.0013
3642.00,0.0013
3641.00,0.0012
3640.00,0.0012
3639.00,0.0013
3638.00,0.0013
3637.00,0.0013
3636.00,0.0013
3635.00,0.0013
3634.00,0.0014
3633.00,0.0014
3632.00,0.0014
3631.00,0.0014
3630.00,0.0013
3629.00,0.0013
3628.00,0.0013
3627.00,0.0013
3626.00,0.0013
3625.00,0.0013
3624.00,0.0013
3623.00,0.0013
3622.00,0.0013
3621.00,0.0013
3620.00,0.0014
3619.00,0.0014
3618.00,0.0014
3617.00,0.0014
3616.00,0.0014
3615.00,0.0014
3614.00,0.0014
3613.00,0.0014
3612.00,0.0014
3611.00,0.0014
3610.00,0.0014
3609.00,0.0014
3608.00,0.0015
3607.00,0.0016
3606.00,0.0016
3605.00,0.0016
3604.00,0.0016
3603.00,0.0016
3602.00,0.0016
3601.00,0.0016
3600.00,0.0016
3599.00,0.0017
3598.00,0.0017
3597.00,0.0016
3596.00,0.0016
3595.00,0.0016
3594.00,0.0017
3593.00,0.0017
3592.00,0.0018
3591.00,0.0019
3590.00,0.0019
3589.00,0.0019
3588.00,0.0019
3587.00,0.0019
3586.00,0.0019
3585.00,0.0019
3584.00,0.0020
3583.00,0.0020
3582.00,0.0021
3581.00,0.0022
3580.00,0.0022
3579.00,0.0022
3578.00,0.0023
3577.00,0.0023
3576.00,0.0023
3575.00,0.0023
3574.00,0.0023
3573.00,0.0023
3572.00,0.0023
3571.00,0.0023
3570.00,0.0024
3569.00,0.0024
3568.00,0.0024
3567.00,0.0025
3566.00,0.0025
3565.00,0.0026
3564.00,0.0026
3563.00,0.0026
3562.00,0.0027
3561.00,0.0027
3560.00,0.0028
3559.00,0.0029
3558.00,0.0029
3557.00,0.0029
3556.00,0.0030
3555.00,0.0030
3554.00,0.0030
3553.00,0.0030
3552.00,0.0031
3551.00,0.0031
3550.00,0.0031
3549.00,0.0031
3548.00,0.0032
3547.00,0.0032
3546.00,0.0032
3545.00,0.0033
3544.00,0.0033
3543.00,0.0033
3542.00,0.0034
3541.00,0.0034
3540.00,0.0034
3539.00,0.0035
3538.00,0.0036
3537.00,0.0036
3536.00,0.0036
3535.00,0.0037
3534.00,0.0037
3533.00,0.0037
3532.00,0.0037
3531.00,0.0037
3530.00,0.0037
3529.00,0.0038
3528.00,0.0038
3527.00,0.0039
3526.00,0.0040
3525.00,0.0040
3524.00,0.0041
3523.00,0.0041
3522.00,0.0040
3521.00,0.0041
3520.00,0.0041
3519.00,0.0041
3518.00,0.0042
3517.00,0.0042
3516.00,0.0043
3515.00,0.0043
3514.00,0.0044
3513.00,0.0045
3512.00,0.0045
3511.00,0.0045
3510.00,0.0046
3509.00,0.0046
3508.00,0.0047
3507.00,0.0047
3506.00,0.0047
3505.00,0.0047
3504.00,0.0048
3503.00,0.0048
3502.00,0.0048
3501.00,0.0048
3500.00,0.0049
3499.00,0.0049
3498.00,0.0049
3497.00,0.0050
3496.00,0.0050
3495.00,0.0050
3494.00,0.0051
3493.00,0.0051
3492.00,0.0052
3491.00,0.0052
3490.00,0.0053
3489.00,0.0053
3488.00,0.0053
3487.00,0.0053
3486.00,0.0054
3485.00,0.0054
3484.00,0.0055
3483.00,0.0055
3482.00,0.0056
3481.00,0.0057
3480.00,0.0057
3479.00,0.0057
3478.00,0.0058
3477.00,0.0058
3476.00,0.0058
3475.00,0.0059
3474.00,0.0059
3473.00,0.0060
3472.00,0.0061
3471.00,0.0061
3470.00,0.0061
3469.00,0.0061
3468.00,0.0061
3467.00,0.0061
3466.00,0.0060
3465.00,0.0061
3464.00,0.0061
3463.00,0.0062
3462.00,0.0062
3461.00,0.0063
3460.00,0.0063
3459.00,0.0063
3458.00,0.0063
3457.00,0.0063
3456.00,0.0064
3455.00,0.0064
3454.00,0.0064
3453.00,0.0064
3452.00,0.0064
3451.00,0.0065
3450.00,0.0065
3449.00,0.0066
3448.00,0.0066
3447.00,0.0067
3446.00,0.0067
3445.00,0.0067
3444.00,0.0068
3443.00,0.0068
3442.00,0.0069
3441.00,0.0069
3440.00,0.0069
3439.00,0.0069
3438.00,0.0069
3437.00,0.0070
3436.00,0.0070
3435.00,0.0071
3434.00,0.0071
3433.00,0.0072
3432.00,0.0072
3431.00,0.0072
3430.00,0.0072
3429.00,0.0073
3428.00,0.0073
3427.00,0.0073
3426.00,0.0073
3425.00,0.0073
3424.00,0.0073
3423.00,0.0073
3422.00,0.0073
3421.00,0.0073
3420.00,0.0073
3419.00,0.0074
3418.00,0.0074
3417.00,0.0075
3416.00,0.0075
3415.00,0.0075
3414.00,0.0076
3413.00,0.0076
3412.00,0.0076
3411.00,0.0077
3410.00,0.0077
3409.00,0.0077
3408.00,0.0078
3407.00,0.0078
3406.00,0.0078
3405.00,0.0078
3404.00,0.0078
3403.00,0.0079
3402.00,0.0079
3401.00,0.0079
3400.00,0.0079
3399.00,0.0080
3398.00,0.0080
3397.00,0.0080
3396.00,0.0080
3395.00,0.0080
3394.00,0.0080
3393.00,0.0080
3392.00,0.0080
3391.00,0.0080
3390.00,0.0080
3389.00,0.0080
3388.00,0.0080
3387.00,0.0080
3386.00,0.0080
3385.00,0.0080
3384.00,0.0080
3383.00,0.0080
3382.00,0.0080
3381.00,0.0080
3380.00,0.0080
3379.00,0.0080
3378.00,0.0081
3377.00,0.0081
3376.00,0.0081
3375.00,0.0081
3374.00,0.0081
3373.00,0.0081
3372.00,0.0081
3371.00,0.0081
3370.00,0.0081
3369.00,0.0081
3368.00,0.0081
3367.00,0.0082
3366.00,0.0082
3365.00,0.0082
3364.00,0.0081
3363.00,0.0081
3362.00,0.0081
3361.00,0.0081
3360.00,0.0081
3359.00,0.0081
3358.00,0.0081
3357.00,0.0081
3356.00,0.0081
3355.00,0.0081
3354.00,0.0081
3353.00,0.0081
3352.00,0.0081
3351.00,0.0082
3350.00,0.0082
3349.00,0.0082
3348.00,0.0082
3347.00,0.0082
3346.00,0.0082
3345.00,0.0082
3344.00,0.0081
3343.00,0.0081
3342.00,0.0081
3341.00,0.0081
3340.00,0.0081
3339.00,0.0081
3338.00,0.0080
3337.00,0.0080
3336.00,0.0080
3335.00,0.0080
3334.00,0.0080
3333.00,0.0080
3332.00,0.0080
3331.00,0.0080
3330.00,0.0080
3329.00,0.0079
3328.00,0.0079
3327.00,0.0078
3326.00,0.0078
3325.00,0.0078
3324.00,0.0078
3323.00,0.0078
3322.00,0.0078
3321.00,0.0078
3320.00,0.0078
3319.00,0.0078
3318.00,0.0078
3317.00,0.0078
3316.00,0.0077
3315.00,0.0077
3314.00,0.0077
3313.00,0.0078
3312.00,0.0078
3311.00,0.0078
3310.00,0.0078
3309.00,0.0079
3308.00,0.0079
3307.00,0.0080
3306.00,0.0080
3305.00,0.0080
3304.00,0.0080
3303.00,0.0080
3302.00,0.0080
3301.00,0.0079
3300.00,0.0079
3299.00,0.0078
3298.00,0.0078
3297.00,0.0077
3296.00,0.0076
3295.00,0.0076
3294.00,0.0075
3293.00,0.0075
3292.00,0.0075
3291.00,0.0074
3290.00,0.0074
3289.00,0.0073
3288.00,0.0073
3287.00,0.0072
3286.00,0.0072
3285.00,0.0072
3284.00,0.0072
3283.00,0.0071
3282.00,0.0071
3281.00,0.0071
3280.00,0.0070
3279.00,0.0070
3278.00,0.0070
3277.00,0.0069
3276.00,0.0069
3275.00,0.0069
3274.00,0.0069
3273.00,0.0068
3272.00,0.0068
3271.00,0.0068
3270.00,0.0068
3269.00,0.0068
3268.00,0.0068
3267.00,0.0067
3266.00,0.0067
3265.00,0.0066
3264.00,0.0066
3263.00,0.0066
3262.00,0.0066
3261.00,0.0066
3260.00,0.0065
3259.00,0.0065
3258.00,0.0064
3257.00,0.0064
3256.00,0.0064
3255.00,0.0064
3254.00,0.0063
3253.00,0.0063
3252.00,0.0063
3251.00,0.0062
3250.00,0.0062
3249.00,0.0062
3248.00,0.0061
3247.00,0.0061
3246.00,0.0061
3245.00,0.0061
3244.00,0.0061
3243.00,0.0061
3242.00,0.0060
3241.00,0.0060
3240.00,0.0060
3239.00,0.0060
3238.00,0.0060
3237.00,0.0061
3236.00,0.0061
3235.00,0.0060
3234.00,0.0060
3233.00,0.0060
3232.00,0.0060
3231.00,0.0060
3230.00,0.0060
3229.00,0.0060
3228.00,0.0060
3227.00,0.0060
3226.00,0.0060
3225.00,0.0060
3224.00,0.0060
3223.00,0.0061
3222.00,0.0061
3221.00,0.0061
3220.00,0.0061
3219.00,0.0061
3218.00,0.0061
3217.00,0.0061
3216.00,0.0060
3215.00,0.0060
3214.00,0.0059
3213.00,0.0059
3212.00,0.0059
3211.00,0.0059
3210.00,0.0060
3209.00,0.0060
3208.00,0.0060
3207.00,0.0061
3206.00,0.0061
3205.00,0.0061
3204.00,0.0061
3203.00,0.0061
3202.00,0.0061
3201.00,0.0061
3200.00,0.0061
3199.00,0.0061
3198.00,0.0061
3197.00,0.0060
3196.00,0.0060
3195.00,0.0060
3194.00,0.0060
3193.00,0.0060
3192.00,0.0060
3191.00,0.0060
3190.00,0.0060
3189.00,0.0060
3188.00,0.0060
3187.00,0.0059
3186.00,0.0059
3185.00,0.0059
3184.00,0.0058
3183.00,0.0058
3182.00,0.0058
3181.00,0.0058
3180.00,0.0057
3179.00,0.0057
3178.00,0.0057
3177.00,0.0057
3176.00,0.0057
3175.00,0.0056
3174.00,0.0056
3173.00,0.0056
3172.00,0.0055
3171.00,0.0055
3170.00,0.0055
3169.00,0.0054
3168.00,0.0054
3167.00,0.0054
3166.00,0.0054
3165.00,0.0053
3164.00,0.0053
3163.00,0.0053
3162.00,0.0052
3161.00,0.0052
3160.00,0.0051
3159.00,0.0051
3158.00,0.0051
3157.00,0.0051
3156.00,0.0051
3155.00,0.0051
3154.00,0.0051
3153.00,0.0051
3152.00,0.0051
3151.00,0.0051
3150.00,0.0051
3149.00,0.0051
3148.00,0.0051
3147.00,0.0051
3146.00,0.0051
3145.00,0.0051
3144.00,0.0051
3143.00,0.0050
3142.00,0.0050
3141.00,0.0050
3140.00,0.0049
3139.00,0.0049
3138.00,0.0049
3137.00,0.0048
3136.00,0.0048
3135.00,0.0048
3134.00,0.0047
3133.00,0.0047
3132.00,0.0047
3131.00,0.0047
3130.00,0.0047
3129.00,0.0046
3128.00,0.0046
3127.00,0.0045
3126.00,0.0045
3125.00,0.0045
3124.00,0.0044
3123.00,0.0044
3122.00,0.0044
3121.00,0.0044
3120.00,0.0043
3119.00,0.0043
3118.00,0.0042
3117.00,0.0042
3116.00,0.0042
3115.00,0.0042
3114.00,0.0041
3113.00,0.0041
3112.00,0.0041
3111.00,0.0041
3110.00,0.0041
3109.00,0.0041
3108.00,0.0041
3107.00,0.0041
3106.00,0.0041
3105.00,0.0041
3104.00,0.0040
3103.00,0.0040
3102.00,0.0039
3101.00,0.0039
3100.00,0.0039
3099.00,0.0040
3098.00,0.0040
3097.00,0.0040
3096.00,0.0040
3095.00,0.0039
3094.00,0.0039
3093.00,0.0039
3092.00,0.0039
3091.00,0.0038
3090.00,0.0038
3089.00,0.0038
3088.00,0.0037
3087.00,0.0037
3086.00,0.0038
3085.00,0.0038
3084.00,0.0038
3083.00,0.0038
3082.00,0.0038
3081.00,0.0038
3080.00,0.0037
3079.00,0.0037
3078.00,0.0037
3077.00,0.0037
3076.00,0.0037
3075.00,0.0038
3074.00,0.0038
3073.00,0.0038
3072.00,0.0038
3071.00,0.0038
3070.00,0.0038
3069.00,0.0038
3068.00,0.0038
3067.00,0.0039
3066.00,0.0039
3065.00,0.0039
3064.00,0.0040
3063.00,0.0040
3062.00,0.0040
3061.00,0.0040
3060.00,0.0040
3059.00,0.0040
3058.00,0.0039
3057.00,0.0039
3056.00,0.0040
3055.00,0.0040
3054.00,0.0040
3053.00,0.0040
3052.00,0.0040
3051.00,0.0041
3050.00,0.0041
3049.00,0.0041
3048.00,0.0041
3047.00,0.0042
3046.00,0.0042
3045.00,0.0042
3044.00,0.0043
3043.00,0.0043
3042.00,0.0043
3041.00,0.0043
3040.00,0.0044
3039.00,0.0044
3038.00,0.0045
3037.00,0.0045
3036.00,0.0045
3035.00,0.0045
3034.00,0.0045
3033.00,0.0046
3032.00,0.0046
3031.00,0.0047
3030.00,0.0047
3029.00,0.0048
3028.00,0.0048
3027.00,0.0049
3026.00,0.0049
3025.00,0.0050
3024.00,0.0050
3023.00,0.0051
3022.00,0.0052
3021.00,0.0053
3020.00,0.0054
3019.00,0.0055
3018.00,0.0056
3017.00,0.0057
3016.00,0.0058
3015.00,0.0060
3014.00,0.0061
3013.00,0.0063
3012.00,0.0065
3011.00,0.0067
3010.00,0.0069
3009.00,0.0072
3008.00,0.0074
3007.00,0.0077
3006.00,0.0079
3005.00,0.0082
3004.00,0.0085
3003.00,0.0088
3002.00,0.0091
3001.00,0.0094
3000.00,0.0098
2999.00,0.0102
2998.00,0.0106
2997.00,0.0110
2996.00,0.0114
2995.00,0.0118
2994.00,0.0123
2993.00,0.0128
2992.00,0.0133
2991.00,0.0139
2990.00,0.0145
2989.00,0.0151
2988.00,0.0159
2987.00,0.0168
2986.00,0.0179
2985.00,0.0192
2984.00,0.0207
2983.00,0.0223
2982.00,0.0239
2981.00,0.0255
2980.00,0.0271
2979.00,0.0289
2978.00,0.0309
2977.00,0.0332
2976.00,0.0360
2975.00,0.0393
2974.00,0.0432
2973.00,0.0476
2972.00,0.0524
2971.00,0.0578
2970.00,0.0636
2969.00,0.0699
2968.00,0.0767
2967.00,0.0838
2966.00,0.0911
2965.00,0.0983
2964.00,0.1051
2963.00,0.1110
2962.00,0.1160
2961.00,0.1200
2960.00,0.1233
2959.00,0.1266
2958.00,0.1303
2957.00,0.1353
2956.00,0.1418
2955.00,0.1501
2954.00,0.1598
2953.00,0.1700
2952.00,0.1795
2951.00,0.1867
2950.00,0.1902
2949.00,0.1890
2948.00,0.1830
2947.00,0.1731
2946.00,0.1607
2945.00,0.1477
2944.00,0.1354
2943.00,0.1250
2942.00,0.1169
2941.00,0.1114
2940.00,0.1083
2939.00,0.1075
2938.00,0.1086
2937.00,0.1115
2936.00,0.1159
2935.00,0.1219
2934.00,0.1292
2933.00,0.1379
2932.00,0.1479
2931.00,0.1590
2930.00,0.1709
2929.00,0.1833
2928.00,0.1959
2927.00,0.2086
2926.00,0.2210
2925.00,0.2333
2924.00,0.2456
2923.00,0.2580
2922.00,0.2706
2921.00,0.2831
2920.00,0.2945
2919.00,0.3034
2918.00,0.3083
2917.00,0.3080
2916.00,0.3022
2915.00,0.2918
2914.00,0.2784
2913.00,0.2639
2912.00,0.2498
2911.00,0.2368
2910.00,0.2254
2909.00,0.2152
2908.00,0.2061
2907.00,0.1977
2906.00,0.1897
2905.00,0.1819
2904.00,0.1742
2903.00,0.1669
2902.00,0.1598
2901.00,0.1530
2900.00,0.1465
2899.00,0.1404
2898.00,0.1348
2897.00,0.1296
2896.00,0.1249
2895.00,0.1209
2894.00,0.1175
2893.00,0.1147
2892.00,0.1125
2891.00,0.1109
2890.00,0.1099
2889.00,0.1093
2888.00,0.1091
2887.00,0.1092
2886.00,0.1095
2885.00,0.1103
2884.00,0.1114
2883.00,0.1130
2882.00,0.1150
2881.00,0.1172
2880.00,0.1194
2879.00,0.1211
2878.00,0.1222
2877.00,0.1224
2876.00,0.1221
2875.00,0.1215
2874.00,0.1212
2873.00,0.1216
2872.00,0.1227
2871.00,0.1245
2870.00,0.1268
2869.00,0.1292
2868.00,0.1309
2867.00,0.1312
2866.00,0.1293
2865.00,0.1250
2864.00,0.1186
2863.00,0.1111
2862.00,0.1035
2861.00,0.0967
2860.00,0.0914
2859.00,0.0877
2858.00,0.0855
2857.00,0.0846
2856.00,0.0847
2855.00,0.0855
2854.00,0.0869
2853.00,0.0886
2852.00,0.0904
2851.00,0.0919
2850.00,0.0930
2849.00,0.0936
2848.00,0.0941
2847.00,0.0948
2846.00,0.0963
2845.00,0.0988
2844.00,0.1023
2843.00,0.1066
2842.00,0.1111
2841.00,0.1151
2840.00,0.1179
2839.00,0.1188
2838.00,0.1173
2837.00,0.1130
2836.00,0.1062
2835.00,0.0974
2834.00,0.0876
2833.00,0.0776
2832.00,0.0683
2831.00,0.0600
2830.00,0.0531
2829.00,0.0473
2828.00,0.0426
2827.00,0.0388
2826.00,0.0357
2825.00,0.0330
2824.00,0.0308
2823.00,0.0290
2822.00,0.0274
2821.00,0.0260
2820.00,0.0249
2819.00,0.0238
2818.00,0.0229
2817.00,0.0220
2816.00,0.0213
2815.00,0.0206
2814.00,0.0200
2813.00,0.0194
2812.00,0.0188
2811.00,0.0183
2810.00,0.0177
2809.00,0.0171
2808.00,0.0165
2807.00,0.0158
2806.00,0.0151
2805.00,0.0145
2804.00,0.0139
2803.00,0.0133
2802.00,0.0128
2801.00,0.0124
2800.00,0.0120
2799.00,0.0117
2798.00,0.0114
2797.00,0.0111
2796.00,0.0109
2795.00,0.0106
2794.00,0.0104
2793.00,0.0101
2792.00,0.0098
2791.00,0.0096
2790.00,0.0093
2789.00,0.0090
2788.00,0.0088
2787.00,0.0085
2786.00,0.0083
2785.00,0.0080
2784.00,0.0078
2783.00,0.0076
2782.00,0.0073
2781.00,0.0072
2780.00,0.0070
2779.00,0.0068
2778.00,0.0067
2777.00,0.0066
2776.00,0.0064
2775.00,0.0063
2774.00,0.0062
2773.00,0.0061
2772.00,0.0061
2771.00,0.0060
2770.00,0.0059
2769.00,0.0059
2768.00,0.0059
2767.00,0.0059
2766.00,0.0059
2765.00,0.0058
2764.00,0.0058
2763.00,0.0057
2762.00,0.0057
2761.00,0.0057
2760.00,0.0056
2759.00,0.0056
2758.00,0.0056
2757.00,0.0055
2756.00,0.0055
2755.00,0.0055
2754.00,0.0055
2753.00,0.0055
2752.00,0.0054
2751.00,0.0054
2750.00,0.0054
2749.00,0.0054
2748.00,0.0054
2747.00,0.0054
2746.00,0.0055
2745.00,0.0055
2744.00,0.0056
2743.00,0.0056
2742.00,0.0057
2741.00,0.0058
2740.00,0.0060
2739.00,0.0061
2738.00,0.0062
2737.00,0.0063
2736.00,0.0064
2735.00,0.0065
2734.00,0.0067
2733.00,0.0069
2732.00,0.0070
2731.00,0.0072
2730.00,0.0074
2729.00,0.0077
2728.00,0.0080
2727.00,0.0082
2726.00,0.0085
2725.00,0.0087
2724.00,0.0089
2723.00,0.0089
2722.00,0.0089
2721.00,0.0087
2720.00,0.0084
2719.00,0.0081
2718.00,0.0078
2717.00,0.0075
2716.00,0.0072
2715.00,0.0069
2714.00,0.0066
2713.00,0.0064
2712.00,0.0061
2711.00,0.0060
2710.00,0.0058
2709.00,0.0056
2708.00,0.0055
2707.00,0.0054
2706.00,0.0053
2705.00,0.0052
2704.00,0.0051
2703.00,0.0050
2702.00,0.0049
2701.00,0.0048
2700.00,0.0047
2699.00,0.0047
2698.00,0.0046
2697.00,0.0046
2696.00,0.0046
2695.00,0.0046
2694.00,0.0046
2693.00,0.0046
2692.00,0.0046
2691.00,0.0046
2690.00,0.0047
2689.00,0.0047
2688.00,0.0047
2687.00,0.0047
2686.00,0.0047
2685.00,0.0047
2684.00,0.0047
2683.00,0.0047
2682.00,0.0047
2681.00,0.0047
2680.00,0.0047
2679.00,0.0047
2678.00,0.0047
2677.00,0.0047
2676.00,0.0047
2675.00,0.0047
2674.00,0.0047
2673.00,0.0047
2672.00,0.0047
2671.00,0.0047
2670.00,0.0047
2669.00,0.0047
2668.00,0.0047
2667.00,0.0047
2666.00,0.0047
2665.00,0.0048
2664.00,0.0049
2663.00,0.0049
2662.00,0.0050
2661.00,0.0050
2660.00,0.0050
2659.00,0.0050
2658.00,0.0050
2657.00,0.0050
2656.00,0.0049
2655.00,0.0049
2654.00,0.0048
2653.00,0.0048
2652.00,0.0047
2651.00,0.0047
2650.00,0.0046
2649.00,0.0046
2648.00,0.0045
2647.00,0.0045
2646.00,0.0044
2645.00,0.0044
2644.00,0.0044
2643.00,0.0043
2642.00,0.0042
2641.00,0.0042
2640.00,0.0041
2639.00,0.0041
2638.00,0.0040
2637.00,0.0040
2636.00,0.0040
2635.00,0.0041
2634.00,0.0041
2633.00,0.0041
2632.00,0.0041
2631.00,0.0041
2630.00,0.0041
2629.00,0.0041
2628.00,0.0041
2627.00,0.0041
2626.00,0.0041
2625.00,0.0041
2624.00,0.0042
2623.00,0.0042
2622.00,0.0042
2621.00,0.0042
2620.00,0.0042
2619.00,0.0041
2618.00,0.0041
2617.00,0.0041
2616.00,0.0041
2615.00,0.0041
2614.00,0.0041
2613.00,0.0041
2612.00,0.0040
2611.00,0.0040
2610.00,0.0040
2609.00,0.0039
2608.00,0.0038
2607.00,0.0037
2606.00,0.0037
2605.00,0.0036
2604.00,0.0035
2603.00,0.0034
2602.00,0.0034
2601.00,0.0033
2600.00,0.0034
2599.00,0.0034
2598.00,0.0034
2597.00,0.0034
2596.00,0.0034
2595.00,0.0034
2594.00,0.0034
2593.00,0.0034
2592.00,0.0034
2591.00,0.0035
2590.00,0.0035
2589.00,0.0036
2588.00,0.0038
2587.00,0.0039
2586.00,0.0040
2585.00,0.0041
2584.00,0.0042
2583.00,0.0042
2582.00,0.0042
2581.00,0.0042
2580.00,0.0041
2579.00,0.0040
2578.00,0.0039
2577.00,0.0038
2576.00,0.0036
2575.00,0.0035
2574.00,0.0033
2573.00,0.0031
2572.00,0.0030
2571.00,0.0030
2570.00,0.0029
2569.00,0.0029
2568.00,0.0028
2567.00,0.0028
2566.00,0.0027
2565.00,0.0027
2564.00,0.0026
2563.00,0.0027
2562.00,0.0027
2561.00,0.0026
2560.00,0.0026
2559.00,0.0025
2558.00,0.0025
2557.00,0.0025
2556.00,0.0025
2555.00,0.0025
2554.00,0.0024
2553.00,0.0022
2552.00,0.0021
2551.00,0.0020
2550.00,0.0019
2549.00,0.0019
2548.00,0.0020
2547.00,0.0020
2546.00,0.0020
2545.00,0.0020
2544.00,0.0021
2543.00,0.0020
2542.00,0.0020
2541.00,0.0020
2540.00,0.0020
2539.00,0.0020
2538.00,0.0019
2537.00,0.0019
2536.00,0.0019
2535.00,0.0020
2534.00,0.0020
2533.00,0.0019
2532.00,0.0018
2531.00,0.0017
2530.00,0.0016
2529.00,0.0016
2528.00,0.0016
2527.00,0.0015
2526.00,0.0015
2525.00,0.0014
2524.00,0.0014
2523.00,0.0014
2522.00,0.0015
2521.00,0.0015
2520.00,0.0014
2519.00,0.0014
2518.00,0.0014
2517.00,0.0014
2516.00,0.0014
2515.00,0.0014
2514.00,0.0013
2513.00,0.0012
2512.00,0.0012
2511.00,0.0011
2510.00,0.0011
2509.00,0.0012
2508.00,0.0012
2507.00,0.0013
2506.00,0.0013
2505.00,0.0012
2504.00,0.0012
2503.00,0.0011
2502.00,0.0011
2501.00,0.0010
2500.00,0.0010
2499.00,0.0011
2498.00,0.0011
2497.00,0.0011
2496.00,0.0011
2495.00,0.0010
2494.00,0.0011
2493.00,0.0011
2492.00,0.0012
2491.00,0.0012
2490.00,0.0012
2489.00,0.0012
2488.00,0.0011
2487.00,0.0011
2486.00,0.0011
2485.00,0.0012
2484.00,0.0012
2483.00,0.0012
2482.00,0.0012
2481.00,0.0012
2480.00,0.0012
2479.00,0.0011
2478.00,0.0011
2477.00,0.0010
2476.00,0.0010
2475.00,0.0010
2474.00,0.0010
2473.00,0.0010
2472.00,0.0009
2471.00,0.0009
2470.00,0.0009
2469.00,0.0010
2468.00,0.0010
2467.00,0.0010
2466.00,0.0010
2465.00,0.0010
2464.00,0.0010
2463.00,0.0010
2462.00,0.0010
2461.00,0.0011
2460.00,0.0011
2459.00,0.0011
2458.00,0.0011
2457.00,0.0012
2456.00,0.0013
2455.00,0.0013
2454.00,0.0013
2453.00,0.0014
2452.00,0.0014
2451.00,0.0013
2450.00,0.0013
2449.00,0.0013
2448.00,0.0012
2447.00,0.0013
2446.00,0.0013
2445.00,0.0013
2444.00,0.0013
2443.00,0.0012
2442.00,0.0011
2441.00,0.0011
2440.00,0.0011
2439.00,0.0011
2438.00,0.0011
2437.00,0.0011
2436.00,0.0011
2435.00,0.0012
2434.00,0.0012
2433.00,0.0012
2432.00,0.0012
2431.00,0.0012
2430.00,0.0011
2429.00,0.0011
2428.00,0.0012
2427.00,0.0012
2426.00,0.0013
2425.00,0.0013
2424.00,0.0013
2423.00,0.0012
2422.00,0.0012
2421.00,0.0012
2420.00,0.0011
2419.00,0.0010
2418.00,0.0010
2417.00,0.0009
2416.00,0.0009
2415.00,0.0010
2414.00,0.0010
2413.00,0.0010
2412.00,0.0010
2411.00,0.0010
2410.00,0.0010
2409.00,0.0010
2408.00,0.0009
2407.00,0.0008
2406.00,0.0008
2405.00,0.0008
2404.00,0.0008
2403.00,0.0008
2402.00,0.0008
2401.00,0.0008
2400.00,0.0008
2399.00,0.0008
2398.00,0.0008
2397.00,0.0008
2396.00,0.0008
2395.00,0.0009
2394.00,0.0009
2393.00,0.0009
2392.00,0.0009
2391.00,0.0009
2390.00,0.0009
2389.00,0.0009
2388.00,0.0009
2387.00,0.0009
2386.00,0.0009
2385.00,0.0009
2384.00,0.0008
2383.00,0.0007
2382.00,0.0007
2381.00,0.0007
2380.00,0.0007
2379.00,0.0007
2378.00,0.0007
2377.00,0.0007
2376.00,0.0007
2375.00,0.0007
2374.00,0.0007
2373.00,0.0006
2372.00,0.0006
2371.00,0.0007
2370.00,0.0007
2369.00,0.0007
2368.00,0.0007
2367.00,0.0007
2366.00,0.0006
2365.00,0.0007
2364.00,0.0007
2363.00,0.0007
2362.00,0.0008
2361.00,0.0008
2360.00,0.0008
2359.00,0.0009
2358.00,0.0009
2357.00,0.0009
2356.00,0.0009
2355.00,0.0009
2354.00,0.0008
2353.00,0.0008
2352.00,0.0008
2351.00,0.0008
2350.00,0.0009
2349.00,0.0009
2348.00,0.0009
2347.00,0.0008
2346.00,0.0008
2345.00,0.0008
2344.00,0.0009
2343.00,0.0010
2342.00,0.0011
2341.00,0.0012
2340.00,0.0012
2339.00,0.0012
2338.00,0.0013
2337.00,0.0013
2336.00,0.0013
2335.00,0.0013
2334.00,0.0012
2333.00,0.0012
2332.00,0.0012
2331.00,0.0012
2330.00,0.0011
2329.00,0.0012
2328.00,0.0014
2327.00,0.0017
2326.00,0.0022
2325.00,0.0026
2324.00,0.0028
2323.00,0.0027
2322.00,0.0025
2321.00,0.0023
2320.00,0.0021
2319.00,0.0020
2318.00,0.0019
2317.00,0.0018
2316.00,0.0017
2315.00,0.0016
2314.00,0.0015
2313.00,0.0014
2312.00,0.0013
2311.00,0.0013
2310.00,0.0013
2309.00,0.0013
2308.00,0.0013
2307.00,0.0012
2306.00,0.0012
2305.00,0.0011
2304.00,0.0011
2303.00,0.0011
2302.00,0.0012
2301.00,0.0012
2300.00,0.0013
2299.00,0.0014
2298.00,0.0015
2297.00,0.0015
2296.00,0.0016
2295.00,0.0016
2294.00,0.0016
2293.00,0.0016
2292.00,0.0017
2291.00,0.0018
2290.00,0.0018
2289.00,0.0019
2288.00,0.0020
2287.00,0.0021
2286.00,0.0022
2285.00,0.0022
2284.00,0.0021
2283.00,0.0020
2282.00,0.0018
2281.00,0.0017
2280.00,0.0017
2279.00,0.0016
2278.00,0.0016
2277.00,0.0016
2276.00,0.0016
2275.00,0.0016
2274.00,0.0016
2273.00,0.0016
2272.00,0.0016
2271.00,0.0016
2270.00,0.0015
2269.00,0.0015
2268.00,0.0013
2267.00,0.0012
2266.00,0.0010
2265.00,0.0010
2264.00,0.0011
2263.00,0.0012
2262.00,0.0013
2261.00,0.0013
2260.00,0.0013
2259.00,0.0013
2258.00,0.0013
2257.00,0.0013
2256.00,0.0013
2255.00,0.0011
2254.00,0.0010
2253.00,0.0009
2252.00,0.0008
2251.00,0.0008
2250.00,0.0008
2249.00,0.0008
2248.00,0.0008
2247.00,0.0008
2246.00,0.0007
2245.00,0.0008
2244.00,0.0009
2243.00,0.0011
2242.00,0.0011
2241.00,0.0011
2240.00,0.0010
2239.00,0.0009
2238.00,0.0009
2237.00,0.0010
2236.00,0.0010
2235.00,0.0010
2234.00,0.0009
2233.00,0.0009
2232.00,0.0010
2231.00,0.0011
2230.00,0.0012
2229.00,0.0013
2228.00,0.0013
2227.00,0.0012
2226.00,0.0012
2225.00,0.0011
2224.00,0.0010
2223.00,0.0009
2222.00,0.0009
2221.00,0.0009
2220.00,0.0009
2219.00,0.0010
2218.00,0.0010
2217.00,0.0010
2216.00,0.0010
2215.00,0.0010
2214.00,0.0010
2213.00,0.0010
2212.00,0.0010
2211.00,0.0010
2210.00,0.0011
2209.00,0.0012
2208.00,0.0011
2207.00,0.0010
2206.00,0.0009
2205.00,0.0008
2204.00,0.0009
2203.00,0.0009
2202.00,0.0009
2201.00,0.0009
2200.00,0.0008
2199.00,0.0007
2198.00,0.0007
2197.00,0.0008
2196.00,0.0009
2195.00,0.0009
2194.00,0.0010
2193.00,0.0011
2192.00,0.0012
2191.00,0.0011
2190.00,0.0009
2189.00,0.0008
2188.00,0.0008
2187.00,0.0009
2186.00,0.0011
2185.00,0.0012
2184.00,0.0012
2183.00,0.0010
2182.00,0.0008
2181.00,0.0006
2180.00,0.0006
2179.00,0.0008
2178.00,0.0011
2177.00,0.0014
2176.00,0.0014
2175.00,0.0012
2174.00,0.0011
2173.00,0.0011
2172.00,0.0011
2171.00,0.0012
2170.00,0.0013
2169.00,0.0016
2168.00,0.0018
2167.00,0.0017
2166.00,0.0013
2165.00,0.0010
2164.00,0.0011
2163.00,0.0014
2162.00,0.0018
2161.00,0.0018
2160.00,0.0009
2159.00,-0.0006
2158.00,-0.0019
2157.00,-0.0026
2156.00,-0.0026
2155.00,-0.0024
2154.00,-0.0022
2153.00,-0.0020
2152.00,-0.0019
2151.00,-0.0018
2150.00,-0.0017
2149.00,-0.0016
2148.00,-0.0014
2147.00,-0.0014
2146.00,-0.0014
2145.00,-0.0014
2144.00,-0.0015
2143.00,-0.0016
2142.00,-0.0016
2141.00,-0.0016
2140.00,-0.0015
2139.00,-0.0015
2138.00,-0.0015
2137.00,-0.0015
2136.00,-0.0015
2135.00,-0.0017
2134.00,-0.0018
2133.00,-0.0019
2132.00,-0.0019
2131.00,-0.0017
2130.00,-0.0014
2129.00,-0.0012
2128.00,-0.0011
2127.00,-0.0010
2126.00,-0.0009
2125.00,-0.0007
2124.00,-0.0006
2123.00,-0.0004
2122.00,-0.0003
2121.00,-0.0002
2120.00,-0.0001
2119.00,-0.0001
2118.00,-0.0000
2117.00,0.0001
2116.00,0.0003
2115.00,0.0004
2114.00,0.0005
2113.00,0.0006
2112.00,0.0006
2111.00,0.0005
2110.00,0.0004
2109.00,0.0003
2108.00,0.0002
2107.00,0.0001
2106.00,0.0001
2105.00,0.0001
2104.00,0.0002
2103.00,0.0003
2102.00,0.0004
2101.00,0.0004
2100.00,0.0004
2099.00,0.0003
2098.00,0.0002
2097.00,0.0001
2096.00,-0.0001
2095.00,-0.0003
2094.00,-0.0003
2093.00,-0.0003
2092.00,-0.0001
2091.00,0.0000
2090.00,0.0002
2089.00,0.0002
2088.00,0.0003
2087.00,0.0003
2086.00,0.0003
2085.00,0.0003
2084.00,0.0003
2083.00,0.0003
2082.00,0.0003
2081.00,0.0004
2080.00,0.0005
2079.00,0.0005
2078.00,0.0005
2077.00,0.0004
2076.00,0.0003
2075.00,0.0003
2074.00,0.0004
2073.00,0.0005
2072.00,0.0005
2071.00,0.0004
2070.00,0.0003
2069.00,0.0002
2068.00,0.0002
2067.00,0.0001
2066.00,0.0000
2065.00,-0.0000
2064.00,-0.0000
2063.00,0.0000
2062.00,0.0001
2061.00,0.0001
2060.00,0.0001
2059.00,0.0002
2058.00,0.0002
2057.00,0.0003
2056.00,0.0003
2055.00,0.0002
2054.00,0.0002
2053.00,0.0005
2052.00,0.0009
2051.00,0.0013
2050.00,0.0013
2049.00,0.0010
2048.00,0.0005
2047.00,0.0002
2046.00,0.0001
2045.00,0.0003
2044.00,0.0007
2043.00,0.0010
2042.00,0.0011
2041.00,0.0010
2040.00,0.0007
2039.00,0.0004
2038.00,0.0004
2037.00,0.0006
2036.00,0.0006
2035.00,0.0005
2034.00,0.0002
2033.00,0.0001
2032.00,0.0001
2031.00,0.0002
2030.00,0.0002
2029.00,0.0002
2028.00,0.0001
2027.00,-0.0002
2026.00,-0.0005
2025.00,-0.0007
2024.00,-0.0008
2023.00,-0.0007
2022.00,-0.0006
2021.00,-0.0004
2020.00,-0.0003
2019.00,-0.0004
2018.00,-0.0005
2017.00,-0.0005
2016.00,-0.0004
2015.00,-0.0003
2014.00,-0.0002
2013.00,-0.0000
2012.00,0.0000
2011.00,-0.0002
2010.00,-0.0005
2009.00,-0.0008
2008.00,-0.0012
2007.00,-0.0015
2006.00,-0.0017
2005.00,-0.0017
2004.00,-0.0016
2003.00,-0.0015
2002.00,-0.0014
2001.00,-0.0013
2000.00,-0.0012
1999.00,-0.0013
1998.00,-0.0014
1997.00,-0.0013
1996.00,-0.0011
1995.00,-0.0007
1994.00,-0.0004
1993.00,-0.0002
1992.00,-0.0001
1991.00,-0.0002
1990.00,-0.0003
1989.00,-0.0004
1988.00,-0.0004
1987.00,-0.0003
1986.00,0.0000
1985.00,0.0004
1984.00,0.0006
1983.00,0.0008
1982.00,0.0009
1981.00,0.0011
1980.00,0.0011
1979.00,0.0008
1978.00,0.0000
1977.00,-0.0007
1976.00,-0.0011
1975.00,-0.0013
1974.00,-0.0014
1973.00,-0.0014
1972.00,-0.0013
1971.00,-0.0009
1970.00,-0.0006
1969.00,-0.0003
1968.00,-0.0002
1967.00,-0.0002
1966.00,-0.0003
1965.00,-0.0003
1964.00,-0.0004
1963.00,-0.0005
1962.00,-0.0007
1961.00,-0.0009
1960.00,-0.0012
1959.00,-0.0016
1958.00,-0.0019
1957.00,-0.0020
1956.00,-0.0018
1955.00,-0.0016
1954.00,-0.0015
1953.00,-0.0014
1952.00,-0.0013
1951.00,-0.0014
1950.00,-0.0014
1949.00,-0.0014
1948.00,-0.0014
1947.00,-0.0014
1946.00,-0.0015
1945.00,-0.0015
1944.00,-0.0015
1943.00,-0.0014
1942.00,-0.0013
1941.00,-0.0011
1940.00,-0.0009
1939.00,-0.0008
1938.00,-0.0007
1937.00,-0.0008
1936.00,-0.0010
1935.00,-0.0011
1934.00,-0.0010
1933.00,-0.0009
1932.00,-0.0007
1931.00,-0.0006
1930.00,-0.0005
1929.00,-0.0005
1928.00,-0.0004
1927.00,-0.0004
1926.00,-0.0004
1925.00,-0.0005
1924.00,-0.0005
1923.00,-0.0006
1922.00,-0.0006
1921.00,-0.0007
1920.00,-0.0007
1919.00,-0.0007
1918.00,-0.0006
1917.00,-0.0004
1916.00,-0.0003
1915.00,-0.0001
1914.00,-0.0000
1913.00,-0.0000
1912.00,-0.0000
1911.00,-0.0001
1910.00,-0.0002
1909.00,-0.0003
1908.00,-0.0003
1907.00,-0.0002
1906.00,-0.0001
1905.00,-0.0000
1904.00,-0.0000
1903.00,-0.0001
1902.00,-0.0002
1901.00,-0.0002
1900.00,-0.0002
1899.00,-0.0001
1898.00,-0.0001
1897.00,-0.0000
1896.00,0.0000
1895.00,0.0001
1894.00,0.0001
1893.00,0.0001
1892.00,0.0001
1891.00,0.0001
1890.00,0.0002
1889.00,0.0003
1888.00,0.0004
1887.00,0.0004
1886.00,0.0003
1885.00,0.0003
1884.00,0.0003
1883.00,0.0003
1882.00,0.0003
1881.00,0.0002
1880.00,0.0001
1879.00,0.0000
1878.00,-0.0000
1877.00,-0.0000
1876.00,0.0000
1875.00,0.0001
1874.00,0.0002
1873.00,0.0002
1872.00,0.0002
1871.00,0.0001
1870.00,0.0001
1869.00,0.0001
1868.00,0.0001
1867.00,0.0001
1866.00,0.0001
1865.00,0.0001
1864.00,0.0001
1863.00,0.0002
1862.00,0.0002
1861.00,0.0001
1860.00,0.0000
1859.00,-0.0000
1858.00,-0.0001
1857.00,-0.0000
1856.00,0.0001
1855.00,0.0002
1854.00,0.0002
1853.00,0.0002
1852.00,0.0002
1851.00,0.0002
1850.00,0.0002
1849.00,0.0003
1848.00,0.0003
1847.00,0.0003
1846.00,0.0003
1845.00,0.0003
1844.00,0.0004
1843.00,0.0004
1842.00,0.0004
1841.00,0.0003
1840.00,0.0003
1839.00,0.0002
1838.00,0.0002
1837.00,0.0003
1836.00,0.0004
1835.00,0.0004
1834.00,0.0004
1833.00,0.0004
1832.00,0.0003
1831.00,0.0003
1830.00,0.0003
1829.00,0.0003
1828.00,0.0004
1827.00,0.0003
1826.00,0.0003
1825.00,0.0004
1824.00,0.0004
1823.00,0.0004
1822.00,0.0004
1821.00,0.0004
1820.00,0.0003
1819.00,0.0002
1818.00,0.0002
1817.00,0.0001
1816.00,0.0001
1815.00,0.0002
1814.00,0.0002
1813.00,0.0003
1812.00,0.0003
1811.00,0.0004
1810.00,0.0004
1809.00,0.0004
1808.00,0.0004
1807.00,0.0004
1806.00,0.0004
1805.00,0.0005
1804.00,0.0005
1803.00,0.0005
1802.00,0.0005
1801.00,0.0005
1800.00,0.0005
1799.00,0.0006
1798.00,0.0007
1797.00,0.0008
1796.00,0.0008
1795.00,0.0009
1794.00,0.0009
1793.00,0.0009
1792.00,0.0010
1791.00,0.0011
1790.00,0.0011
1789.00,0.0010
1788.00,0.0010
1787.00,0.0009
1786.00,0.0009
1785.00,0.0009
1784.00,0.0009
1783.00,0.0010
1782.00,0.0010
1781.00,0.0010
1780.00,0.0010
1779.00,0.0009
1778.00,0.0009
1777.00,0.0008
1776.00,0.0008
1775.00,0.0008
1774.00,0.0008
1773.00,0.0008
1772.00,0.0009
1771.00,0.0010
1770.00,0.0010
1769.00,0.0011
1768.00,0.0012
1767.00,0.0013
1766.00,0.0013
1765.00,0.0012
1764.00,0.0012
1763.00,0.0012
1762.00,0.0012
1761.00,0.0013
1760.00,0.0013
1759.00,0.0014
1758.00,0.0014
1757.00,0.0016
1756.00,0.0017
1755.00,0.0018
1754.00,0.0019
1753.00,0.0019
1752.00,0.0020
1751.00,0.0021
1750.00,0.0022
1749.00,0.0022
1748.00,0.0023
1747.00,0.0024
1746.00,0.0025
1745.00,0.0027
1744.00,0.0028
1743.00,0.0030
1742.00,0.0030
1741.00,0.0031
1740.00,0.0031
1739.00,0.0032
1738.00,0.0033
1737.00,0.0034
1736.00,0.0034
1735.00,0.0035
1734.00,0.0035
1733.00,0.0035
1732.00,0.0035
1731.00,0.0035
1730.00,0.0034
1729.00,0.0033
1728.00,0.0033
1727.00,0.0033
1726.00,0.0033
1725.00,0.0033
1724.00,0.0033
1723.00,0.0033
1722.00,0.0032
1721.00,0.0032
1720.00,0.0032
1719.00,0.0031
1718.00,0.0030
1717.00,0.0030
1716.00,0.0029
1715.00,0.0029
1714.00,0.0029
1713.00,0.0028
1712.00,0.0028
1711.00,0.0028
1710.00,0.0027
1709.00,0.0027
1708.00,0.0027
1707.00,0.0027
1706.00,0.0027
1705.00,0.0028
1704.00,0.0028
1703.00,0.0029
1702.00,0.0029
1701.00,0.0030
1700.00,0.0030
1699.00,0.0031
1698.00,0.0030
1697.00,0.0030
1696.00,0.0031
1695.00,0.0031
1694.00,0.0032
1693.00,0.0033
1692.00,0.0034
1691.00,0.0035
1690.00,0.0036
1689.00,0.0037
1688.00,0.0037
1687.00,0.0037
1686.00,0.0037
1685.00,0.0037
1684.00,0.0039
1683.00,0.0041
1682.00,0.0042
1681.00,0.0043
1680.00,0.0043
1679.00,0.0044
1678.00,0.0044
1677.00,0.0045
1676.00,0.0047
1675.00,0.0048
1674.00,0.0049
1673.00,0.0050
1672.00,0.0051
1671.00,0.0053
1670.00,0.0054
1669.00,0.0054
1668.00,0.0055
1667.00,0.0056
1666.00,0.0056
1665.00,0.0057
1664.00,0.0057
1663.00,0.0058
1662.00,0.0059
1661.00,0.0060
1660.00,0.0061
1659.00,0.0061
1658.00,0.0062
1657.00,0.0063
1656.00,0.0064
1655.00,0.0064
1654.00,0.0065
1653.00,0.0067
1652.00,0.0069
1651.00,0.0070
1650.00,0.0071
1649.00,0.0072
1648.00,0.0073
1647.00,0.0074
1646.00,0.0075
1645.00,0.0077
1644.00,0.0078
1643.00,0.0079
1642.00,0.0079
1641.00,0.0080
1640.00,0.0081
1639.00,0.0082
1638.00,0.0082
1637.00,0.0082
1636.00,0.0083
1635.00,0.0082
1634.00,0.0082
1633.00,0.0081
1632.00,0.0081
1631.00,0.0080
1630.00,0.0080
1629.00,0.0079
1628.00,0.0079
1627.00,0.0078
1626.00,0.0078
1625.00,0.0077
1624.00,0.0076
1623.00,0.0075
1622.00,0.0074
1621.00,0.0074
1620.00,0.0074
1619.00,0.0074
1618.00,0.0074
1617.00,0.0074
1616.00,0.0074
1615.00,0.0074
1614.00,0.0074
1613.00,0.0074
1612.00,0.0074
1611.00,0.0074
1610.00,0.0073
1609.00,0.0073
1608.00,0.0073
1607.00,0.0073
1606.00,0.0073
1605.00,0.0074
1604.00,0.0073
1603.00,0.0073
1602.00,0.0072
1601.00,0.0072
1600.00,0.0072
1599.00,0.0072
1598.00,0.0072
1597.00,0.0072
1596.00,0.0071
1595.00,0.0071
1594.00,0.0070
1593.00,0.0070
1592.00,0.0071
1591.00,0.0071
1590.00,0.0071
1589.00,0.0071
1588.00,0.0072
1587.00,0.0072
1586.00,0.0073
1585.00,0.0075
1584.00,0.0076
1583.00,0.0078
1582.00,0.0080
1581.00,0.0082
1580.00,0.0084
1579.00,0.0087
1578.00,0.0088
1577.00,0.0089
1576.00,0.0089
1575.00,0.0088
1574.00,0.0087
1573.00,0.0087
1572.00,0.0087
1571.00,0.0086
1570.00,0.0085
1569.00,0.0084
1568.00,0.0084
1567.00,0.0084
1566.00,0.0084
1565.00,0.0083
1564.00,0.0083
1563.00,0.0083
1562.00,0.0082
1561.00,0.0082
1560.00,0.0083
1559.00,0.0082
1558.00,0.0083
1557.00,0.0084
1556.00,0.0085
1555.00,0.0087
1554.00,0.0088
1553.00,0.0090
1552.00,0.0091
1551.00,0.0092
1550.00,0.0093
1549.00,0.0094
1548.00,0.0096
1547.00,0.0097
1546.00,0.0099
1545.00,0.0101
1544.00,0.0102
1543.00,0.0103
1542.00,0.0103
1541.00,0.0104
1540.00,0.0101
1539.00,0.0097
1538.00,0.0093
1537.00,0.0091
1536.00,0.0089
1535.00,0.0086
1534.00,0.0082
1533.00,0.0078
1532.00,0.0075
1531.00,0.0074
1530.00,0.0072
1529.00,0.0072
1528.00,0.0071
1527.00,0.0070
1526.00,0.0068
1525.00,0.0067
1524.00,0.0067
1523.00,0.0066
1522.00,0.0065
1521.00,0.0064
1520.00,0.0065
1519.00,0.0065
1518.00,0.0066
1517.00,0.0067
1516.00,0.0067
1515.00,0.0067
1514.00,0.0067
1513.00,0.0067
1512.00,0.0068
1511.00,0.0068
1510.00,0.0069
1509.00,0.0070
1508.00,0.0071
1507.00,0.0072
1506.00,0.0072
1505.00,0.0074
1504.00,0.0077
1503.00,0.0079
1502.00,0.0081
1501.00,0.0084
1500.00,0.0087
1499.00,0.0090
1498.00,0.0093
1497.00,0.0098
1496.00,0.0104
1495.00,0.0108
1494.00,0.0111
1493.00,0.0115
1492.00,0.0120
1491.00,0.0124
1490.00,0.0129
1489.00,0.0135
1488.00,0.0140
1487.00,0.0145
1486.00,0.0151
1485.00,0.0158
1484.00,0.0166
1483.00,0.0174
1482.00,0.0183
1481.00,0.0195
1480.00,0.0208
1479.00,0.0221
1478.00,0.0237
1477.00,0.0258
1476.00,0.0284
1475.00,0.0315
1474.00,0.0357
1473.00,0.0415
1472.00,0.0483
1471.00,0.0548
1470.00,0.0611
1469.00,0.0677
1468.00,0.0750
1467.00,0.0829
1466.00,0.0918
1465.00,0.1013
1464.00,0.1097
1463.00,0.1153
1462.00,0.1188
1461.00,0.1210
1460.00,0.1223
1459.00,0.1229
1458.00,0.1231
1457.00,0.1228
1456.00,0.1217
1455.00,0.1201
1454.00,0.1183
1453.00,0.1161
1452.00,0.1130
1451.00,0.1090
1450.00,0.1037
1449.00,0.0966
1448.00,0.0878
1447.00,0.0786
1446.00,0.0704
1445.00,0.0634
1444.00,0.0575
1443.00,0.0526
1442.00,0.0489
1441.00,0.0464
1440.00,0.0450
1439.00,0.0445
1438.00,0.0449
1437.00,0.0455
1436.00,0.0450
1435.00,0.0428
1434.00,0.0392
1433.00,0.0348
1432.00,0.0302
1431.00,0.0261
1430.00,0.0228
1429.00,0.0205
1428.00,0.0189
1427.00,0.0179
1426.00,0.0173
1425.00,0.0167
1424.00,0.0162
1423.00,0.0159
1422.00,0.0157
1421.00,0.0155
1420.00,0.0152
1419.00,0.0150
1418.00,0.0148
1417.00,0.0145
1416.00,0.0142
1415.00,0.0140
1414.00,0.0139
1413.00,0.0137
1412.00,0.0135
1411.00,0.0134
1410.00,0.0133
1409.00,0.0132
1408.00,0.0132
1407.00,0.0132
1406.00,0.0133
1405.00,0.0133
1404.00,0.0133
1403.00,0.0134
1402.00,0.0136
1401.00,0.0138
1400.00,0.0140
1399.00,0.0143
1398.00,0.0146
1397.00,0.0149
1396.00,0.0151
1395.00,0.0155
1394.00,0.0159
1393.00,0.0163
1392.00,0.0167
1391.00,0.0174
1390.00,0.0183
1389.00,0.0196
1388.00,0.0216
1387.00,0.0245
1386.00,0.0285
1385.00,0.0337
1384.00,0.0410
1383.00,0.0513
1382.00,0.0655
1381.00,0.0841
1380.00,0.1080
1379.00,0.1364
1378.00,0.1656
1377.00,0.1892
1376.00,0.2000
1375.00,0.1933
1374.00,0.1709
1373.00,0.1420
1372.00,0.1145
1371.00,0.0914
1370.00,0.0730
1369.00,0.0592
1368.00,0.0497
1367.00,0.0439
1366.00,0.0407
1365.00,0.0395
1364.00,0.0398
1363.00,0.0413
1362.00,0.0436
1361.00,0.0461
1360.00,0.0481
1359.00,0.0487
1358.00,0.0476
1357.00,0.0449
1356.00,0.0411
1355.00,0.0367
1354.00,0.0326
1353.00,0.0290
1352.00,0.0261
1351.00,0.0238
1350.00,0.0219
1349.00,0.0204
1348.00,0.0191
1347.00,0.0181
1346.00,0.0171
1345.00,0.0163
1344.00,0.0157
1343.00,0.0152
1342.00,0.0148
1341.00,0.0144
1340.00,0.0141
1339.00,0.0138
1338.00,0.0136
1337.00,0.0134
1336.00,0.0134
1335.00,0.0135
1334.00,0.0138
1333.00,0.0142
1332.00,0.0147
1331.00,0.0150
1330.00,0.0152
1329.00,0.0150
1328.00,0.0146
1327.00,0.0141
1326.00,0.0135
1325.00,0.0128
1324.00,0.0123
1323.00,0.0118
1322.00,0.0114
1321.00,0.0111
1320.00,0.0108
1319.00,0.0106
1318.00,0.0105
1317.00,0.0103
1316.00,0.0102
1315.00,0.0101
1314.00,0.0101
1313.00,0.0102
1312.00,0.0102
1311.00,0.0104
1310.00,0.0106
1309.00,0.0111
1308.00,0.0117
1307.00,0.0125
1306.00,0.0133
1305.00,0.0138
1304.00,0.0140
1303.00,0.0139
1302.00,0.0136
1301.00,0.0134
1300.00,0.0134
1299.00,0.0135
1298.00,0.0137
1297.00,0.0138
1296.00,0.0138
1295.00,0.0136
1294.00,0.0133
1293.00,0.0129
1292.00,0.0124
1291.00,0.0120
1290.00,0.0115
1289.00,0.0111
1288.00,0.0108
1287.00,0.0105
1286.00,0.0103
1285.00,0.0102
1284.00,0.0100
1283.00,0.0099
1282.00,0.0097
1281.00,0.0096
1280.00,0.0095
1279.00,0.0095
1278.00,0.0094
1277.00,0.0094
1276.00,0.0093
1275.00,0.0094
1274.00,0.0094
1273.00,0.0095
1272.00,0.0097
1271.00,0.0099
1270.00,0.0101
1269.00,0.0103
1268.00,0.0106
1267.00,0.0109
1266.00,0.0112
1265.00,0.0116
1264.00,0.0119
1263.00,0.0123
1262.00,0.0126
1261.00,0.0130
1260.00,0.0134
1259.00,0.0137
1258.00,0.0141
1257.00,0.0143
1256.00,0.0144
1255.00,0.0142
1254.00,0.0137
1253.00,0.0131
1252.00,0.0126
1251.00,0.0121
1250.00,0.0117
1249.00,0.0114
1248.00,0.0111
1247.00,0.0108
1246.00,0.0106
1245.00,0.0104
1244.00,0.0103
1243.00,0.0101
1242.00,0.0100
1241.00,0.0098
1240.00,0.0097
1239.00,0.0097
1238.00,0.0097
1237.00,0.0097
1236.00,0.0097
1235.00,0.0096
1234.00,0.0096
1233.00,0.0097
1232.00,0.0098
1231.00,0.0098
1230.00,0.0099
1229.00,0.0099
1228.00,0.0100
1227.00,0.0101
1226.00,0.0103
1225.00,0.0106
1224.00,0.0110
1223.00,0.0114
1222.00,0.0117
1221.00,0.0120
1220.00,0.0122
1219.00,0.0123
1218.00,0.0122
1217.00,0.0121
1216.00,0.0118
1215.00,0.0115
1214.00,0.0111
1213.00,0.0108
1212.00,0.0105
1211.00,0.0103
1210.00,0.0100
1209.00,0.0098
1208.00,0.0096
1207.00,0.0094
1206.00,0.0093
1205.00,0.0092
1204.00,0.0092
1203.00,0.0092
1202.00,0.0093
1201.00,0.0093
1200.00,0.0093
1199.00,0.0094
1198.00,0.0094
1197.00,0.0094
1196.00,0.0094
1195.00,0.0094
1194.00,0.0094
1193.00,0.0095
1192.00,0.0095
1191.00,0.0095
1190.00,0.0095
1189.00,0.0096
1188.00,0.0096
1187.00,0.0097
1186.00,0.0097
1185.00,0.0098
1184.00,0.0099
1183.00,0.0100
1182.00,0.0102
1181.00,0.0105
1180.00,0.0107
1179.00,0.0111
1178.00,0.0116
1177.00,0.0121
1176.00,0.0129
1175.00,0.0139
1174.00,0.0152
1173.00,0.0169
1172.00,0.0190
1171.00,0.0214
1170.00,0.0237
1169.00,0.0257
1168.00,0.0269
1167.00,0.0273
1166.00,0.0270
1165.00,0.0262
1164.00,0.0252
1163.00,0.0243
1162.00,0.0235
1161.00,0.0229
1160.00,0.0225
1159.00,0.0222
1158.00,0.0220
1157.00,0.0220
1156.00,0.0220
1155.00,0.0221
1154.00,0.0221
1153.00,0.0220
1152.00,0.0217
1151.00,0.0212
1150.00,0.0205
1149.00,0.0197
1148.00,0.0188
1147.00,0.0178
1146.00,0.0169
1145.00,0.0161
1144.00,0.0155
1143.00,0.0150
1142.00,0.0145
1141.00,0.0140
1140.00,0.0136
1139.00,0.0132
1138.00,0.0128
1137.00,0.0125
1136.00,0.0122
1135.00,0.0120
1134.00,0.0119
1133.00,0.0118
1132.00,0.0118
1131.00,0.0119
1130.00,0.0119
1129.00,0.0120
1128.00,0.0121
1127.00,0.0122
1126.00,0.0124
1125.00,0.0126
1124.00,0.0128
1123.00,0.0128
1122.00,0.0128
1121.00,0.0129
1120.00,0.0129
1119.00,0.0130
1118.00,0.0132
1117.00,0.0133
1116.00,0.0135
1115.00,0.0136
1114.00,0.0136
1113.00,0.0137
1112.00,0.0138
1111.00,0.0140
1110.00,0.0143
1109.00,0.0147
1108.00,0.0152
1107.00,0.0158
1106.00,0.0164
1105.00,0.0171
1104.00,0.0176
1103.00,0.0179
1102.00,0.0178
1101.00,0.0175
1100.00,0.0169
1099.00,0.0162
1098.00,0.0155
1097.00,0.0149
1096.00,0.0145
1095.00,0.0142
1094.00,0.0139
1093.00,0.0137
1092.00,0.0135
1091.00,0.0134
1090.00,0.0133
1089.00,0.0131
1088.00,0.0130
1087.00,0.0128
1086.00,0.0127
1085.00,0.0126
1084.00,0.0125
1083.00,0.0124
1082.00,0.0124
1081.00,0.0122
1080.00,0.0121
1079.00,0.0119
1078.00,0.0118
1077.00,0.0117
1076.00,0.0117
1075.00,0.0117
1074.00,0.0116
1073.00,0.0116
1072.00,0.0115
1071.00,0.0114
1070.00,0.0114
1069.00,0.0114
1068.00,0.0114
1067.00,0.0114
1066.00,0.0114
1065.00,0.0114
1064.00,0.0113
1063.00,0.0113
1062.00,0.0114
1061.00,0.0114
1060.00,0.0114
1059.00,0.0115
1058.00,0.0116
1057.00,0.0117
1056.00,0.0118
1055.00,0.0118
1054.00,0.0120
1053.00,0.0122
1052.00,0.0125
1051.00,0.0128
1050.00,0.0131
1049.00,0.0134
1048.00,0.0137
1047.00,0.0140
1046.00,0.0143
1045.00,0.0144
1044.00,0.0144
1043.00,0.0143
1042.00,0.0142
1041.00,0.0140
1040.00,0.0140
1039.00,0.0140
1038.00,0.0141
1037.00,0.0142
1036.00,0.0143
1035.00,0.0143
1034.00,0.0142
1033.00,0.0140
1032.00,0.0137
1031.00,0.0135
1030.00,0.0134
1029.00,0.0134
1028.00,0.0135
1027.00,0.0137
1026.00,0.0138
1025.00,0.0140
1024.00,0.0142
1023.00,0.0144
1022.00,0.0146
1021.00,0.0148
1020.00,0.0149
1019.00,0.0149
1018.00,0.0149
1017.00,0.0149
1016.00,0.0149
1015.00,0.0149
1014.00,0.0149
1013.00,0.0149
1012.00,0.0148
1011.00,0.0146
1010.00,0.0145
1009.00,0.0145
1008.00,0.0145
1007.00,0.0147
1006.00,0.0151
1005.00,0.0157
1004.00,0.0166
1003.00,0.0180
1002.00,0.0200
1001.00,0.0224
1000.00,0.0249
999.00,0.0270
998.00,0.0279
997.00,0.0272
996.00,0.0252
995.00,0.0224
994.00,0.0196
993.00,0.0172
992.00,0.0153
991.00,0.0140
990.00,0.0131
989.00,0.0125
988.00,0.0121
987.00,0.0120
986.00,0.0119
985.00,0.0121
984.00,0.0124
983.00,0.0129
982.00,0.0138
981.00,0.0151
980.00,0.0169
979.00,0.0193
978.00,0.0222
977.00,0.0255
976.00,0.0289
975.00,0.0319
974.00,0.0340
973.00,0.0346
972.00,0.0334
971.00,0.0306
970.00,0.0270
969.00,0.0233
968.00,0.0201
967.00,0.0177
966.00,0.0160
965.00,0.0148
964.00,0.0139
963.00,0.0132
962.00,0.0126
961.00,0.0121
960.00,0.0118
959.00,0.0116
958.00,0.0114
957.00,0.0111
956.00,0.0109
955.00,0.0106
954.00,0.0106
953.00,0.0106
952.00,0.0105
951.00,0.0104
950.00,0.0102
949.00,0.0101
948.00,0.0101
947.00,0.0102
946.00,0.0104
945.00,0.0107
944.00,0.0110
943.00,0.0113
942.00,0.0116
941.00,0.0118
940.00,0.0118
939.00,0.0116
938.00,0.0111
937.00,0.0104
936.00,0.0097
935.00,0.0092
934.00,0.0088
933.00,0.0086
932.00,0.0085
931.00,0.0083
930.00,0.0081
929.00,0.0079
928.00,0.0077
927.00,0.0076
926.00,0.0076
925.00,0.0075
924.00,0.0074
923.00,0.0074
922.00,0.0074
921.00,0.0074
920.00,0.0074
919.00,0.0074
918.00,0.0074
917.00,0.0074
916.00,0.0075
915.00,0.0076
914.00,0.0077
913.00,0.0078
912.00,0.0079
911.00,0.0081
910.00,0.0082
909.00,0.0084
908.00,0.0087
907.00,0.0091
906.00,0.0099
905.00,0.0110
904.00,0.0126
903.00,0.0146
902.00,0.0168
901.00,0.0187
900.00,0.0200
899.00,0.0202
898.00,0.0193
897.00,0.0176
896.00,0.0155
895.00,0.0135
894.00,0.0118
893.00,0.0106
892.00,0.0099
891.00,0.0095
890.00,0.0093
889.00,0.0091
888.00,0.0089
887.00,0.0087
886.00,0.0085
885.00,0.0083
884.00,0.0082
883.00,0.0082
882.00,0.0083
881.00,0.0084
880.00,0.0085
879.00,0.0086
878.00,0.0087
877.00,0.0088
876.00,0.0088
875.00,0.0089
874.00,0.0089
873.00,0.0090
872.00,0.0089
871.00,0.0088
870.00,0.0086
869.00,0.0085
868.00,0.0084
867.00,0.0084
866.00,0.0086
865.00,0.0086
864.00,0.0086
863.00,0.0086
862.00,0.0087
861.00,0.0089
860.00,0.0091
859.00,0.0092
858.00,0.0092
857.00,0.0092
856.00,0.0093
855.00,0.0096
854.00,0.0098
853.00,0.0100
852.00,0.0101
851.00,0.0103
850.00,0.0106
849.00,0.0110
848.00,0.0116
847.00,0.0124
846.00,0.0137
845.00,0.0156
844.00,0.0184
843.00,0.0218
842.00,0.0246
841.00,0.0256
840.00,0.0242
839.00,0.0212
838.00,0.0180
837.00,0.0154
836.00,0.0138
835.00,0.0127
834.00,0.0121
833.00,0.0117
832.00,0.0114
831.00,0.0112
830.00,0.0111
829.00,0.0110
828.00,0.0110
827.00,0.0109
826.00,0.0109
825.00,0.0109
824.00,0.0109
823.00,0.0112
822.00,0.0115
821.00,0.0118
820.00,0.0120
819.00,0.0123
818.00,0.0126
817.00,0.0131
816.00,0.0140
815.00,0.0153
814.00,0.0170
813.00,0.0191
812.00,0.0214
811.00,0.0235
810.00,0.0251
809.00,0.0257
808.00,0.0251
807.00,0.0236
806.00,0.0216
805.00,0.0195
804.00,0.0177
803.00,0.0163
802.00,0.0153
801.00,0.0146
800.00,0.0139
799.00,0.0132
798.00,0.0125
797.00,0.0120
796.00,0.0116
795.00,0.0113
794.00,0.0110
793.00,0.0107
792.00,0.0104
791.00,0.0101
790.00,0.0098
789.00,0.0094
788.00,0.0091
787.00,0.0088
786.00,0.0086
785.00,0.0084
784.00,0.0083
783.00,0.0081
782.00,0.0079
781.00,0.0077
780.00,0.0075
779.00,0.0074
778.00,0.0074
777.00,0.0076
776.00,0.0076
775.00,0.0076
774.00,0.0075
773.00,0.0075
772.00,0.0075
771.00,0.0075
770.00,0.0075
769.00,0.0075
768.00,0.0075
767.00,0.0075
766.00,0.0075
765.00,0.0075
764.00,0.0075
763.00,0.0075
762.00,0.0075
761.00,0.0075
760.00,0.0075
759.00,0.0077
758.00,0.0079
757.00,0.0081
756.00,0.0082
755.00,0.0084
754.00,0.0086
753.00,0.0088
752.00,0.0090
751.00,0.0091
750.00,0.0091
749.00,0.0092
748.00,0.0094
747.00,0.0096
746.00,0.0098
745.00,0.0099
744.00,0.0100
743.00,0.0102
742.00,0.0105
741.00,0.0109
740.00,0.0114
739.00,0.0119
738.00,0.0124
737.00,0.0128
736.00,0.0132
735.00,0.0136
734.00,0.0141
733.00,0.0148
732.00,0.0156
731.00,0.0165
730.00,0.0172
729.00,0.0176
728.00,0.0177
727.00,0.0177
726.00,0.0179
725.00,0.0182
724.00,0.0188
723.00,0.0195
722.00,0.0201
721.00,0.0204
720.00,0.0201
719.00,0.0192
718.00,0.0180
717.00,0.0166
716.00,0.0154
715.00,0.0145
714.00,0.0140
713.00,0.0135
712.00,0.0132
711.00,0.0128
710.00,0.0126
709.00,0.0124
708.00,0.0124
707.00,0.0124
706.00,0.0124
705.00,0.0125
704.00,0.0125
703.00,0.0124
702.00,0.0122
701.00,0.0121
700.00,0.0118
699.00,0.0116
698.00,0.0114
697.00,0.0112
696.00,0.0112
695.00,0.0113
694.00,0.0113
693.00,0.0113
692.00,0.0112
691.00,0.0111
690.00,0.0110
689.00,0.0111
688.00,0.0111
687.00,0.0111
686.00,0.0112
685.00,0.0111
684.00,0.0112
683.00,0.0112
682.00,0.0112
681.00,0.0111
680.00,0.0109
679.00,0.0107
678.00,0.0109
677.00,0.0112
676.00,0.0114
675.00,0.0115
674.00,0.0115
673.00,0.0115
672.00,0.0118
671.00,0.0121
670.00,0.0125
669.00,0.0128
668.00,0.0128
667.00,0.0125
666.00,0.0121
665.00,0.0117
664.00,0.0115
663.00,0.0113
662.00,0.0111
661.00,0.0109
660.00,0.0106
659.00,0.0104
658.00,0.0103
657.00,0.0104
656.00,0.0105
655.00,0.0108
654.00,0.0111
653.00,0.0111
652.00,0.0111
651.00,0.0110
650.00,0.0109
649.00,0.0107
648.00,0.0104
647.00,0.0102
646.00,0.0100
645.00,0.0099
644.00,0.0097
643.00,0.0096
642.00,0.0095
641.00,0.0096
640.00,0.0096
639.00,0.0097
638.00,0.0098
637.00,0.0100
636.00,0.0100
635.00,0.0100
634.00,0.0100
633.00,0.0100
632.00,0.0101
631.00,0.0102
630.00,0.0103
629.00,0.0105
628.00,0.0106
627.00,0.0107
626.00,0.0107
625.00,0.0106
624.00,0.0105
623.00,0.0105
622.00,0.0106
621.00,0.0107
620.00,0.0106
619.00,0.0103
618.00,0.0099
617.00,0.0095
616.00,0.0093
615.00,0.0093
614.00,0.0094
613.00,0.0095
612.00,0.0096
611.00,0.0096
610.00,0.0096
609.00,0.0097
608.00,0.0099
607.00,0.0100
606.00,0.0100
605.00,0.0098
604.00,0.0097
603.00,0.0095
602.00,0.0095
601.00,0.0096
600.00,0.0097
599.00,0.0099
598.00,0.0102
597.00,0.0104
596.00,0.0104
595.00,0.0102
594.00,0.0098
593.00,0.0094
592.00,0.0091
591.00,0.0089
590.00,0.0090
589.00,0.0092
588.00,0.0096
587.00,0.0100
586.00,0.0103
585.00,0.0103
584.00,0.0101
583.00,0.0098
582.00,0.0096
581.00,0.0095
580.00,0.0094
579.00,0.0094
578.00,0.0096
577.00,0.0102
576.00,0.0106
575.00,0.0108
574.00,0.0106
573.00,0.0103
572.00,0.0101
571.00,0.0101
570.00,0.0101
569.00,0.0100
568.00,0.0097
567.00,0.0094
566.00,0.0091
565.00,0.0092
564.00,0.0095
563.00,0.0098
562.00,0.0098
561.00,0.0098
560.00,0.0097
559.00,0.0097
558.00,0.0098
557.00,0.0099
556.00,0.0102
555.00,0.0105
554.00,0.0107
553.00,0.0106
552.00,0.0102
551.00,0.0098
550.00,0.0099
549.00,0.0101
548.00,0.0102
547.00,0.0100
546.00,0.0100
545.00,0.0102
544.00,0.0104
543.00,0.0105
542.00,0.0105
541.00,0.0106
540.00,0.0110
539.00,0.0115
538.00,0.0122
537.00,0.0128
536.00,0.0134
535.00,0.0136
534.00,0.0135
533.00,0.0130
532.00,0.0126
531.00,0.0124
530.00,0.0124
529.00,0.0122
528.00,0.0119
527.00,0.0115
526.00,0.0113
525.00,0.0113
524.00,0.0113
523.00,0.0113
522.00,0.0114
521.00,0.0117
520.00,0.0118
519.00,0.0116
518.00,0.0112
517.00,0.0108
516.00,0.0105
515.00,0.0101
514.00,0.0095
513.00,0.0089
512.00,0.0083
511.00,0.0080
510.00,0.0080
509.00,0.0081
508.00,0.0083
507.00,0.0085
506.00,0.0090
505.00,0.0098
504.00,0.0108
503.00,0.0115
502.00,0.0116
501.00,0.0111
500.00,0.0103
499.00,0.0095
498.00,0.0092
497.00,0.0095
496.00,0.0100
495.00,0.0105
494.00,0.0108
493.00,0.0108
492.00,0.0108
491.00,0.0108
490.00,0.0108
489.00,0.0109
488.00,0.0109
487.00,0.0107
486.00,0.0103
485.00,0.0098
484.00,0.0095
483.00,0.0098
482.00,0.0107
481.00,0.0118
480.00,0.0128
479.00,0.0133
478.00,0.0134
477.00,0.0131
476.00,0.0126
475.00,0.0122
474.00,0.0122
473.00,0.0129
472.00,0.0141
471.00,0.0153
470.00,0.0164
469.00,0.0174
468.00,0.0183
467.00,0.0189
466.00,0.0191
465.00,0.0191
464.00,0.0190
463.00,0.0189
462.00,0.0189
461.00,0.0189
460.00,0.0189
459.00,0.0187
458.00,0.0185
457.00,0.0186
456.00,0.0188
455.00,0.0189
454.00,0.0188
453.00,0.0184
452.00,0.0177
451.00,0.0169
450.00,0.0162
