Created as New Dataset,Sample 020 By Administrator Date Thursday, September 04 2025
cm-1,A
4000.00,0.0009
3999.00,0.0009
3998.00,0.0009
3997.00,0.0009
3996.00,0.0009
3995.00,0.0009
3994.00,0.0009
3993.00,0.0010
3992.00,0.0010
3991.00,0.0010
3990.00,0.0010
3989.00,0.0010
3988.00,0.0010
3987.00,0.0010
3986.00,0.0010
3985.00,0.0010
3984.00,0.0009
3983.00,0.0009
3982.00,0.0009
3981.00,0.0009
3980.00,0.0009
3979.00,0.0008
3978.00,0.0008
3977.00,0.0007
3976.00,0.0007
3975.00,0.0007
3974.00,0.0007
3973.00,0.0007
3972.00,0.0007
3971.00,0.0007
3970.00,0.0008
3969.00,0.0008
3968.00,0.0008
3967.00,0.0008
3966.00,0.0008
3965.00,0.0008
3964.00,0.0007
3963.00,0.0007
3962.00,0.0007
3961.00,0.0007
3960.00,0.0007
3959.00,0.0007
3958.00,0.0007
3957.00,0.0007
3956.00,0.0007
3955.00,0.0007
3954.00,0.0007
3953.00,0.0007
3952.00,0.0007
3951.00,0.0007
3950.00,0.0008
3949.00,0.0008
3948.00,0.0008
3947.00,0.0007
3946.00,0.0007
3945.00,0.0007
3944.00,0.0007
3943.00,0.0007
3942.00,0.0008
3941.00,0.0008
3940.00,0.0008
3939.00,0.0008
3938.00,0.0008
3937.00,0.0008
3936.00,0.0008
3935.00,0.0008
3934.00,0.0008
3933.00,0.0008
3932.00,0.0007
3931.00,0.0007
3930.00,0.0007
3929.00,0.0006
3928.00,0.0006
3927.00,0.0006
3926.00,0.0006
3925.00,0.0007
3924.00,0.0007
3923.00,0.0008
3922.00,0.0008
3921.00,0.0008
3920.00,0.0008
3919.00,0.0008
3918.00,0.0008
3917.00,0.0008
3916.00,0.0008
3915.00,0.0008
3914.00,0.0008
3913.00,0.0008
3912.00,0.0007
3911.00,0.0007
3910.00,0.0007
3909.00,0.0007
3908.00,0.0007
3907.00,0.0007
3906.00,0.0006
3905.00,0.0006
3904.00,0.0006
3903.00,0.0006
3902.00,0.0006
3901.00,0.0006
3900.00,0.0006
3899.00,0.0006
3898.00,0.0006
3897.00,0.0006
3896.00,0.0006
3895.00,0.0006
3894.00,0.0006
3893.00,0.0006
3892.00,0.0006
3891.00,0.0006
3890.00,0.0006
3889.00,0.0006
3888.00,0.0006
3887.00,0.0006
3886.00,0.0006
3885.00,0.0006
3884.00,0.0006
3883.00,0.0006
3882.00,0.0006
3881.00,0.0006
3880.00,0.0006
3879.00,0.0006
3878.00,0.0006
3877.00,0.0006
3876.00,0.0006
3875.00,0.0006
3874.00,0.0006
3873.00,0.0006
3872.00,0.0006
3871.00,0.0006
3870.00,0.0007
3869.00,0.0007
3868.00,0.0006
3867.00,0.0006
3866.00,0.0006
3865.00,0.0006
3864.00,0.0006
3863.00,0.0006
3862.00,0.0006
3861.00,0.0006
3860.00,0.0006
3859.00,0.0006
3858.00,0.0006
3857.00,0.0006
3856.00,0.0005
3855.00,0.0005
3854.00,0.0005
3853.00,0.0005
3852.00,0.0005
3851.00,0.0005
3850.00,0.0005
3849.00,0.0006
3848.00,0.0007
3847.00,0.0007
3846.00,0.0007
3845.00,0.0008
3844.00,0.0008
3843.00,0.0008
3842.00,0.0008
3841.00,0.0007
3840.00,0.0006
3839.00,0.0006
3838.00,0.0005
3837.00,0.0005
3836.00,0.0004
3835.00,0.0004
3834.00,0.0005
3833.00,0.0005
3832.00,0.0006
3831.00,0.0006
3830.00,0.0007
3829.00,0.0007
3828.00,0.0007
3827.00,0.0007
3826.00,0.0007
3825.00,0.0007
3824.00,0.0007
3823.00,0.0006
3822.00,0.0006
3821.00,0.0006
3820.00,0.0006
3819.00,0.0006
3818.00,0.0006
3817.00,0.0006
3816.00,0.0006
3815.00,0.0007
3814.00,0.0007
3813.00,0.0007
3812.00,0.0007
3811.00,0.0007
3810.00,0.0007
3809.00,0.0007
3808.00,0.0006
3807.00,0.0006
3806.00,0.0006
3805.00,0.0006
3804.00,0.0006
3803.00,0.0005
3802.00,0.0006
3801.00,0.0006
3800.00,0.0006
3799.00,0.0006
3798.00,0.0006
3797.00,0.0006
3796.00,0.0006
3795.00,0.0006
3794.00,0.0006
3793.00,0.0006
3792.00,0.0007
3791.00,0.0007
3790.00,0.0007
3789.00,0.0007
3788.00,0.0007
3787.00,0.0007
3786.00,0.0007
3785.00,0.0007
3784.00,0.0007
3783.00,0.0006
3782.00,0.0006
3781.00,0.0006
3780.00,0.0006
3779.00,0.0006
3778.00,0.0007
3777.00,0.0007
3776.00,0.0007
3775.00,0.0007
3774.00,0.0007
3773.00,0.0007
3772.00,0.0007
3771.00,0.0007
3770.00,0.0007
3769.00,0.0007
3768.00,0.0007
3767.00,0.0007
3766.00,0.0007
3765.00,0.0007
3764.00,0.0007
3763.00,0.0008
3762.00,0.0008
3761.00,0.0008
3760.00,0.0008
3759.00,0.0008
3758.00,0.0007
3757.00,0.0007
3756.00,0.0007
3755.00,0.0006
3754.00,0.0006
3753.00,0.0005
3752.00,0.0006
3751.00,0.0006
3750.00,0.0006
3749.00,0.0006
3748.00,0.0006
3747.00,0.0005
3746.00,0.0005
3745.00,0.0006
3744.00,0.0006
3743.00,0.0006
3742.00,0.0006
3741.00,0.0006
3740.00,0.0006
3739.00,0.0006
3738.00,0.0006
3737.00,0.0006
3736.00,0.0006
3735.00,0.0006
3734.00,0.0005
3733.00,0.0005
3732.00,0.0005
3731.00,0.0005
3730.00,0.0005
3729.00,0.0005
3728.00,0.0005
3727.00,0.0005
3726.00,0.0005
3725.00,0.0004
3724.00,0.0004
3723.00,0.0004
3722.00,0.0005
3721.00,0.0005
3720.00,0.0005
3719.00,0.0005
3718.00,0.0005
3717.00,0.0006
3716.00,0.0006
3715.00,0.0006
3714.00,0.0006
3713.00,0.0006
3712.00,0.0005
3711.00,0.0005
3710.00,0.0005
3709.00,0.0004
3708.00,0.0004
3707.00,0.0004
3706.00,0.0004
3705.00,0.0004
3704.00,0.0004
3703.00,0.0004
3702.00,0.0004
3701.00,0.0004
3700.00,0.0004
3699.00,0.0004
3698.00,0.0004
3697.00,0.0005
3696.00,0.0005
3695.00,0.0005
3694.00,0.0005
3693.00,0.0005
3692.00,0.0005
3691.00,0.0005
3690.00,0.0005
3689.00,0.0005
3688.00,0.0005
3687.00,0.0005
3686.00,0.0005
3685.00,0.0005
3684.00,0.0005
3683.00,0.0005
3682.00,0.0006
3681.00,0.0006
3680.00,0.0006
3679.00,0.0007
3678.00,0.0007
3677.00,0.0007
3676.00,0.0007
3675.00,0.0006
3674.00,0.0005
3673.00,0.0004
3672.00,0.0003
3671.00,0.0002
3670.00,0.0002
3669.00,0.0003
3668.00,0.0003
3667.00,0.0004
3666.00,0.0004
3665.00,0.0004
3664.00,0.0004
3663.00,0.0004
3662.00,0.0004
3661.00,0.0004
3660.00,0.0004
3659.00,0.0004
3658.00,0.0004
3657.00,0.0004
3656.00,0.0004
3655.00,0.0005
3654.00,0.0005
3653.00,0.0005
3652.00,0.0005
3651.00,0.0005
3650.00,0.0005
3649.00,0.0004
3648.00,0.0004
3647.00,0.0004
3646.00,0.0005
3645.00,0.0005
3644.00,0.0005
3643.00,0.0005
3642.00,0.0005
3641.00,0.0005
3640.00,0.0005
3639.00,0.0005
3638.00,0.0005
3637.00,0.0005
3636.00,0.0005
3635.00,0.0005
3634.00,0.0005
3633.00,0.0005
3632.00,0.0005
3631.00,0.0004
3630.00,0.0004
3629.00,0.0004
3628.00,0.0004
3627.00,0.0005
3626.00,0.0005
3625.00,0.0005
3624.00,0.0005
3623.00,0.0005
3622.00,0.0005
3621.00,0.0005
3620.00,0.0005
3619.00,0.0005
3618.00,0.0005
3617.00,0.0005
3616.00,0.0005
3615.00,0.0005
3614.00,0.0006
3613.00,0.0006
3612.00,0.0006
3611.00,0.0005
3610.00,0.0005
3609.00,0.0005
3608.00,0.0005
3607.00,0.0005
3606.00,0.0006
3605.00,0.0006
3604.00,0.0006
3603.00,0.0006
3602.00,0.0006
3601.00,0.0006
3600.00,0.0006
3599.00,0.0006
3598.00,0.0007
3597.00,0.0007
3596.00,0.0007
3595.00,0.0007
3594.00,0.0007
3593.00,0.0007
3592.00,0.0007
3591.00,0.0007
3590.00,0.0007
3589.00,0.0007
3588.00,0.0006
3587.00,0.0007
3586.00,0.0007
3585.00,0.0007
3584.00,0.0007
3583.00,0.0008
3582.00,0.0008
3581.00,0.0008
3580.00,0.0008
3579.00,0.0008
3578.00,0.0008
3577.00,0.0008
3576.00,0.0008
3575.00,0.0009
3574.00,0.0009
3573.00,0.0009
3572.00,0.0010
3571.00,0.0010
3570.00,0.0010
3569.00,0.0009
3568.00,0.0009
3567.00,0.0008
3566.00,0.0008
3565.00,0.0008
3564.00,0.0009
3563.00,0.0009
3562.00,0.0010
3561.00,0.0010
3560.00,0.0010
3559.00,0.0010
3558.00,0.0010
3557.00,0.0010
3556.00,0.0010
3555.00,0.0011
3554.00,0.0011
3553.00,0.0011
3552.00,0.0012
3551.00,0.0012
3550.00,0.0012
3549.00,0.0012
3548.00,0.0012
3547.00,0.0012
3546.00,0.0012
3545.00,0.0012
3544.00,0.0013
3543.00,0.0013
3542.00,0.0013
3541.00,0.0014
3540.00,0.0013
3539.00,0.0013
3538.00,0.0013
3537.00,0.0013
3536.00,0.0013
3535.00,0.0014
3534.00,0.0014
3533.00,0.0014
3532.00,0.0015
3531.00,0.0015
3530.00,0.0015
3529.00,0.0016
3528.00,0.0016
3527.00,0.0016
3526.00,0.0016
3525.00,0.0016
3524.00,0.0016
3523.00,0.0016
3522.00,0.0016
3521.00,0.0016
3520.00,0.0017
3519.00,0.0017
3518.00,0.0016
3517.00,0.0016
3516.00,0.0016
3515.00,0.0016
3514.00,0.0017
3513.00,0.0017
3512.00,0.0018
3511.00,0.0018
3510.00,0.0019
3509.00,0.0019
3508.00,0.0019
3507.00,0.0019
3506.00,0.0019
3505.00,0.0018
3504.00,0.0018
3503.00,0.0019
3502.00,0.0019
3501.00,0.0019
3500.00,0.0019
3499.00,0.0019
3498.00,0.0020
3497.00,0.0020
3496.00,0.0020
3495.00,0.0019
3494.00,0.0019
3493.00,0.0020
3492.00,0.0020
3491.00,0.0020
3490.00,0.0021
3489.00,0.0021
3488.00,0.0021
3487.00,0.0021
3486.00,0.0022
3485.00,0.0022
3484.00,0.0022
3483.00,0.0022
3482.00,0.0023
3481.00,0.0023
3480.00,0.0023
3479.00,0.0023
3478.00,0.0023
3477.00,0.0023
3476.00,0.0024
3475.00,0.0024
3474.00,0.0024
3473.00,0.0024
3472.00,0.0025
3471.00,0.0025
3470.00,0.0025
3469.00,0.0025
3468.00,0.0025
3467.00,0.0025
3466.00,0.0025
3465.00,0.0025
3464.00,0.0026
3463.00,0.0026
3462.00,0.0027
3461.00,0.0027
3460.00,0.0027
3459.00,0.0026
3458.00,0.0026
3457.00,0.0026
3456.00,0.0026
3455.00,0.0027
3454.00,0.0027
3453.00,0.0027
3452.00,0.0028
3451.00,0.0028
3450.00,0.0028
3449.00,0.0028
3448.00,0.0028
3447.00,0.0028
3446.00,0.0028
3445.00,0.0028
3444.00,0.0028
3443.00,0.0028
3442.00,0.0029
3441.00,0.0029
3440.00,0.0029
3439.00,0.0029
3438.00,0.0029
3437.00,0.0029
3436.00,0.0029
3435.00,0.0029
3434.00,0.0030
3433.00,0.0030
3432.00,0.0030
3431.00,0.0031
3430.00,0.0032
3429.00,0.0032
3428.00,0.0032
3427.00,0.0032
3426.00,0.0031
3425.00,0.0031
3424.00,0.0031
3423.00,0.0031
3422.00,0.0032
3421.00,0.0032
3420.00,0.0032
3419.00,0.0032
3418.00,0.0033
3417.00,0.0033
3416.00,0.0033
3415.00,0.0034
3414.00,0.0034
3413.00,0.0033
3412.00,0.0033
3411.00,0.0033
3410.00,0.0033
3409.00,0.0033
3408.00,0.0033
3407.00,0.0033
3406.00,0.0033
3405.00,0.0033
3404.00,0.0034
3403.00,0.0034
3402.00,0.0034
3401.00,0.0034
3400.00,0.0034
3399.00,0.0034
3398.00,0.0034
3397.00,0.0034
3396.00,0.0034
3395.00,0.0034
3394.00,0.0034
3393.00,0.0034
3392.00,0.0034
3391.00,0.0034
3390.00,0.0035
3389.00,0.0035
3388.00,0.0035
3387.00,0.0035
3386.00,0.0035
3385.00,0.0035
3384.00,0.0036
3383.00,0.0036
3382.00,0.0035
3381.00,0.0035
3380.00,0.0035
3379.00,0.0035
3378.00,0.0035
3377.00,0.0035
3376.00,0.0035
3375.00,0.0035
3374.00,0.0036
3373.00,0.0036
3372.00,0.0036
3371.00,0.0036
3370.00,0.0036
3369.00,0.0036
3368.00,0.0036
3367.00,0.0036
3366.00,0.0036
3365.00,0.0036
3364.00,0.0036
3363.00,0.0036
3362.00,0.0036
3361.00,0.0036
3360.00,0.0036
3359.00,0.0036
3358.00,0.0036
3357.00,0.0036
3356.00,0.0037
3355.00,0.0037
3354.00,0.0037
3353.00,0.0037
3352.00,0.0037
3351.00,0.0038
3350.00,0.0038
3349.00,0.0038
3348.00,0.0038
3347.00,0.0038
3346.00,0.0038
3345.00,0.0038
3344.00,0.0038
3343.00,0.0038
3342.00,0.0038
3341.00,0.0038
3340.00,0.0038
3339.00,0.0038
3338.00,0.0038
3337.00,0.0037
3336.00,0.0037
3335.00,0.0036
3334.00,0.0036
3333.00,0.0036
3332.00,0.0036
3331.00,0.0037
3330.00,0.0037
3329.00,0.0037
3328.00,0.0037
3327.00,0.0036
3326.00,0.0036
3325.00,0.0036
3324.00,0.0036
3323.00,0.0036
3322.00,0.0036
3321.00,0.0036
3320.00,0.0037
3319.00,0.0037
3318.00,0.0037
3317.00,0.0038
3316.00,0.0038
3315.00,0.0038
3314.00,0.0038
3313.00,0.0038
3312.00,0.0038
3311.00,0.0038
3310.00,0.0038
3309.00,0.0039
3308.00,0.0039
3307.00,0.0040
3306.00,0.0040
3305.00,0.0040
3304.00,0.0040
3303.00,0.0040
3302.00,0.0040
3301.00,0.0040
3300.00,0.0040
3299.00,0.0040
3298.00,0.0039
3297.00,0.0039
3296.00,0.0038
3295.00,0.0038
3294.00,0.0037
3293.00,0.0037
3292.00,0.0036
3291.00,0.0036
3290.00,0.0035
3289.00,0.0035
3288.00,0.0035
3287.00,0.0035
3286.00,0.0035
3285.00,0.0035
3284.00,0.0035
3283.00,0.0035
3282.00,0.0035
3281.00,0.0035
3280.00,0.0034
3279.00,0.0034
3278.00,0.0034
3277.00,0.0034
3276.00,0.0033
3275.00,0.0033
3274.00,0.0033
3273.00,0.0033
3272.00,0.0033
3271.00,0.0033
3270.00,0.0033
3269.00,0.0033
3268.00,0.0033
3267.00,0.0033
3266.00,0.0033
3265.00,0.0033
3264.00,0.0033
3263.00,0.0033
3262.00,0.0032
3261.00,0.0032
3260.00,0.0032
3259.00,0.0032
3258.00,0.0032
3257.00,0.0032
3256.00,0.0032
3255.00,0.0032
3254.00,0.0031
3253.00,0.0031
3252.00,0.0031
3251.00,0.0031
3250.00,0.0030
3249.00,0.0030
3248.00,0.0030
3247.00,0.0030
3246.00,0.0030
3245.00,0.0030
3244.00,0.0031
3243.00,0.0031
3242.00,0.0031
3241.00,0.0031
3240.00,0.0031
3239.00,0.0031
3238.00,0.0031
3237.00,0.0031
3236.00,0.0031
3235.00,0.0031
3234.00,0.0031
3233.00,0.0031
3232.00,0.0031
3231.00,0.0031
3230.00,0.0031
3229.00,0.0031
3228.00,0.0030
3227.00,0.0031
3226.00,0.0031
3225.00,0.0031
3224.00,0.0032
3223.00,0.0032
3222.00,0.0033
3221.00,0.0033
3220.00,0.0033
3219.00,0.0032
3218.00,0.0032
3217.00,0.0032
3216.00,0.0033
3215.00,0.0033
3214.00,0.0033
3213.00,0.0033
3212.00,0.0034
3211.00,0.0034
3210.00,0.0034
3209.00,0.0034
3208.00,0.0035
3207.00,0.0035
3206.00,0.0035
3205.00,0.0035
3204.00,0.0035
3203.00,0.0035
3202.00,0.0036
3201.00,0.0036
3200.00,0.0037
3199.00,0.0037
3198.00,0.0036
3197.00,0.0036
3196.00,0.0035
3195.00,0.0035
3194.00,0.0035
3193.00,0.0035
3192.00,0.0035
3191.00,0.0035
3190.00,0.0035
3189.00,0.0035
3188.00,0.0034
3187.00,0.0034
3186.00,0.0034
3185.00,0.0035
3184.00,0.0035
3183.00,0.0034
3182.00,0.0034
3181.00,0.0033
3180.00,0.0033
3179.00,0.0033
3178.00,0.0033
3177.00,0.0033
3176.00,0.0033
3175.00,0.0033
3174.00,0.0033
3173.00,0.0033
3172.00,0.0033
3171.00,0.0032
3170.00,0.0032
3169.00,0.0032
3168.00,0.0031
3167.00,0.0032
3166.00,0.0032
3165.00,0.0032
3164.00,0.0032
3163.00,0.0031
3162.00,0.0031
3161.00,0.0031
3160.00,0.0032
3159.00,0.0032
3158.00,0.0032
3157.00,0.0032
3156.00,0.0031
3155.00,0.0031
3154.00,0.0031
3153.00,0.0031
3152.00,0.0031
3151.00,0.0031
3150.00,0.0031
3149.00,0.0031
3148.00,0.0031
3147.00,0.0031
3146.00,0.0031
3145.00,0.0031
3144.00,0.0031
3143.00,0.0031
3142.00,0.0031
3141.00,0.0031
3140.00,0.0031
3139.00,0.0031
3138.00,0.0031
3137.00,0.0031
3136.00,0.0031
3135.00,0.0030
3134.00,0.0030
3133.00,0.0030
3132.00,0.0029
3131.00,0.0029
3130.00,0.0029
3129.00,0.0029
3128.00,0.0029
3127.00,0.0029
3126.00,0.0029
3125.00,0.0029
3124.00,0.0028
3123.00,0.0028
3122.00,0.0027
3121.00,0.0027
3120.00,0.0027
3119.00,0.0028
3118.00,0.0027
3117.00,0.0027
3116.00,0.0027
3115.00,0.0026
3114.00,0.0026
3113.00,0.0026
3112.00,0.0026
3111.00,0.0025
3110.00,0.0025
3109.00,0.0025
3108.00,0.0025
3107.00,0.0026
3106.00,0.0026
3105.00,0.0025
3104.00,0.0025
3103.00,0.0025
3102.00,0.0025
3101.00,0.0025
3100.00,0.0025
3099.00,0.0025
3098.00,0.0025
3097.00,0.0025
3096.00,0.0025
3095.00,0.0025
3094.00,0.0025
3093.00,0.0025
3092.00,0.0025
3091.00,0.0024
3090.00,0.0024
3089.00,0.0025
3088.00,0.0025
3087.00,0.0025
3086.00,0.0025
3085.00,0.0025
3084.00,0.0025
3083.00,0.0025
3082.00,0.0025
3081.00,0.0025
3080.00,0.0025
3079.00,0.0025
3078.00,0.0026
3077.00,0.0026
3076.00,0.0026
3075.00,0.0026
3074.00,0.0026
3073.00,0.0026
3072.00,0.0026
3071.00,0.0026
3070.00,0.0025
3069.00,0.0025
3068.00,0.0026
3067.00,0.0026
3066.00,0.0026
3065.00,0.0027
3064.00,0.0027
3063.00,0.0027
3062.00,0.0027
3061.00,0.0027
3060.00,0.0027
3059.00,0.0027
3058.00,0.0027
3057.00,0.0027
3056.00,0.0027
3055.00,0.0027
3054.00,0.0028
3053.00,0.0028
3052.00,0.0028
3051.00,0.0029
3050.00,0.0029
3049.00,0.0029
3048.00,0.0029
3047.00,0.0029
3046.00,0.0029
3045.00,0.0029
3044.00,0.0029
3043.00,0.0030
3042.00,0.0030
3041.00,0.0030
3040.00,0.0030
3039.00,0.0031
3038.00,0.0031
3037.00,0.0031
3036.00,0.0031
3035.00,0.0032
3034.00,0.0032
3033.00,0.0033
3032.00,0.0034
3031.00,0.0034
3030.00,0.0035
3029.00,0.0035
3028.00,0.0036
3027.00,0.0036
3026.00,0.0037
3025.00,0.0037
3024.00,0.0038
3023.00,0.0039
3022.00,0.0040
3021.00,0.0040
3020.00,0.0041
3019.00,0.0042
3018.00,0.0043
3017.00,0.0044
3016.00,0.0045
3015.00,0.0047
3014.00,0.0048
3013.00,0.0049
3012.00,0.0050
3011.00,0.0052
3010.00,0.0053
3009.00,0.0054
3008.00,0.0055
3007.00,0.0057
3006.00,0.0058
3005.00,0.0060
3004.00,0.0062
3003.00,0.0064
3002.00,0.0066
3001.00,0.0068
3000.00,0.0071
2999.00,0.0074
2998.00,0.0077
2997.00,0.0080
2996.00,0.0084
2995.00,0.0088
2994.00,0.0092
2993.00,0.0097
2992.00,0.0102
2991.00,0.0107
2990.00,0.0114
2989.00,0.0121
2988.00,0.0128
2987.00,0.0137
2986.00,0.0146
2985.00,0.0157
2984.00,0.0169
2983.00,0.0183
2982.00,0.0198
2981.00,0.0215
2980.00,0.0235
2979.00,0.0257
2978.00,0.0282
2977.00,0.0312
2976.00,0.0345
2975.00,0.0384
2974.00,0.0428
2973.00,0.0479
2972.00,0.0537
2971.00,0.0602
2970.00,0.0675
2969.00,0.0755
2968.00,0.0842
2967.00,0.0935
2966.00,0.1033
2965.00,0.1132
2964.00,0.1229
2963.00,0.1318
2962.00,0.1392
2961.00,0.1449
2960.00,0.1489
2959.00,0.1517
2958.00,0.1543
2957.00,0.1573
2956.00,0.1617
2955.00,0.1678
2954.00,0.1755
2953.00,0.1838
2952.00,0.1914
2951.00,0.1967
2950.00,0.1981
2949.00,0.1950
2948.00,0.1873
2947.00,0.1760
2946.00,0.1627
2945.00,0.1488
2944.00,0.1360
2943.00,0.1250
2942.00,0.1165
2941.00,0.1106
2940.00,0.1071
2939.00,0.1059
2938.00,0.1068
2937.00,0.1095
2936.00,0.1138
2935.00,0.1196
2934.00,0.1268
2933.00,0.1353
2932.00,0.1451
2931.00,0.1559
2930.00,0.1675
2929.00,0.1796
2928.00,0.1918
2927.00,0.2039
2926.00,0.2157
2925.00,0.2271
2924.00,0.2383
2923.00,0.2495
2922.00,0.2605
2921.00,0.2711
2920.00,0.2803
2919.00,0.2871
2918.00,0.2901
2917.00,0.2885
2916.00,0.2825
2915.00,0.2730
2914.00,0.2614
2913.00,0.2492
2912.00,0.2376
2911.00,0.2273
2910.00,0.2185
2909.00,0.2108
2908.00,0.2038
2907.00,0.1971
2906.00,0.1904
2905.00,0.1835
2904.00,0.1765
2903.00,0.1694
2902.00,0.1623
2901.00,0.1554
2900.00,0.1487
2899.00,0.1423
2898.00,0.1364
2897.00,0.1309
2896.00,0.1260
2895.00,0.1218
2894.00,0.1182
2893.00,0.1153
2892.00,0.1129
2891.00,0.1112
2890.00,0.1100
2889.00,0.1092
2888.00,0.1089
2887.00,0.1088
2886.00,0.1091
2885.00,0.1097
2884.00,0.1106
2883.00,0.1120
2882.00,0.1136
2881.00,0.1154
2880.00,0.1171
2879.00,0.1183
2878.00,0.1188
2877.00,0.1185
2876.00,0.1178
2875.00,0.1170
2874.00,0.1166
2873.00,0.1169
2872.00,0.1181
2871.00,0.1200
2870.00,0.1222
2869.00,0.1244
2868.00,0.1259
2867.00,0.1258
2866.00,0.1235
2865.00,0.1188
2864.00,0.1122
2863.00,0.1045
2862.00,0.0968
2861.00,0.0901
2860.00,0.0848
2859.00,0.0811
2858.00,0.0790
2857.00,0.0781
2856.00,0.0783
2855.00,0.0792
2854.00,0.0807
2853.00,0.0825
2852.00,0.0845
2851.00,0.0864
2850.00,0.0880
2849.00,0.0895
2848.00,0.0909
2847.00,0.0929
2846.00,0.0957
2845.00,0.0996
2844.00,0.1045
2843.00,0.1101
2842.00,0.1158
2841.00,0.1208
2840.00,0.1243
2839.00,0.1254
2838.00,0.1238
2837.00,0.1190
2836.00,0.1116
2835.00,0.1021
2834.00,0.0915
2833.00,0.0807
2832.00,0.0707
2831.00,0.0620
2830.00,0.0546
2829.00,0.0485
2828.00,0.0436
2827.00,0.0395
2826.00,0.0363
2825.00,0.0336
2824.00,0.0313
2823.00,0.0293
2822.00,0.0276
2821.00,0.0262
2820.00,0.0249
2819.00,0.0238
2818.00,0.0228
2817.00,0.0219
2816.00,0.0212
2815.00,0.0205
2814.00,0.0198
2813.00,0.0193
2812.00,0.0187
2811.00,0.0181
2810.00,0.0176
2809.00,0.0169
2808.00,0.0163
2807.00,0.0157
2806.00,0.0151
2805.00,0.0145
2804.00,0.0138
2803.00,0.0132
2802.00,0.0127
2801.00,0.0123
2800.00,0.0119
2799.00,0.0116
2798.00,0.0114
2797.00,0.0111
2796.00,0.0109
2795.00,0.0107
2794.00,0.0104
2793.00,0.0101
2792.00,0.0098
2791.00,0.0095
2790.00,0.0092
2789.00,0.0088
2788.00,0.0085
2787.00,0.0082
2786.00,0.0079
2785.00,0.0076
2784.00,0.0074
2783.00,0.0072
2782.00,0.0070
2781.00,0.0068
2780.00,0.0066
2779.00,0.0064
2778.00,0.0063
2777.00,0.0061
2776.00,0.0060
2775.00,0.0059
2774.00,0.0058
2773.00,0.0057
2772.00,0.0056
2771.00,0.0056
2770.00,0.0055
2769.00,0.0055
2768.00,0.0054
2767.00,0.0054
2766.00,0.0054
2765.00,0.0054
2764.00,0.0053
2763.00,0.0053
2762.00,0.0052
2761.00,0.0052
2760.00,0.0052
2759.00,0.0051
2758.00,0.0051
2757.00,0.0051
2756.00,0.0051
2755.00,0.0051
2754.00,0.0051
2753.00,0.0051
2752.00,0.0051
2751.00,0.0051
2750.00,0.0051
2749.00,0.0051
2748.00,0.0051
2747.00,0.0051
2746.00,0.0051
2745.00,0.0051
2744.00,0.0051
2743.00,0.0052
2742.00,0.0054
2741.00,0.0055
2740.00,0.0056
2739.00,0.0057
2738.00,0.0059
2737.00,0.0060
2736.00,0.0061
2735.00,0.0062
2734.00,0.0064
2733.00,0.0065
2732.00,0.0067
2731.00,0.0069
2730.00,0.0071
2729.00,0.0074
2728.00,0.0076
2727.00,0.0079
2726.00,0.0082
2725.00,0.0084
2724.00,0.0086
2723.00,0.0086
2722.00,0.0086
2721.00,0.0084
2720.00,0.0082
2719.00,0.0079
2718.00,0.0075
2717.00,0.0072
2716.00,0.0070
2715.00,0.0067
2714.00,0.0065
2713.00,0.0062
2712.00,0.0060
2711.00,0.0058
2710.00,0.0056
2709.00,0.0054
2708.00,0.0053
2707.00,0.0052
2706.00,0.0051
2705.00,0.0050
2704.00,0.0049
2703.00,0.0048
2702.00,0.0047
2701.00,0.0046
2700.00,0.0046
2699.00,0.0045
2698.00,0.0045
2697.00,0.0045
2696.00,0.0045
2695.00,0.0045
2694.00,0.0045
2693.00,0.0045
2692.00,0.0045
2691.00,0.0045
2690.00,0.0045
2689.00,0.0045
2688.00,0.0045
2687.00,0.0044
2686.00,0.0044
2685.00,0.0044
2684.00,0.0044
2683.00,0.0044
2682.00,0.0044
2681.00,0.0044
2680.00,0.0045
2679.00,0.0045
2678.00,0.0045
2677.00,0.0045
2676.00,0.0045
2675.00,0.0045
2674.00,0.0045
2673.00,0.0044
2672.00,0.0044
2671.00,0.0044
2670.00,0.0044
2669.00,0.0044
2668.00,0.0044
2667.00,0.0045
2666.00,0.0045
2665.00,0.0045
2664.00,0.0046
2663.00,0.0046
2662.00,0.0047
2661.00,0.0047
2660.00,0.0047
2659.00,0.0047
2658.00,0.0047
2657.00,0.0047
2656.00,0.0046
2655.00,0.0046
2654.00,0.0046
2653.00,0.0045
2652.00,0.0045
2651.00,0.0045
2650.00,0.0045
2649.00,0.0044
2648.00,0.0044
2647.00,0.0043
2646.00,0.0042
2645.00,0.0042
2644.00,0.0041
2643.00,0.0041
2642.00,0.0041
2641.00,0.0040
2640.00,0.0040
2639.00,0.0039
2638.00,0.0038
2637.00,0.0038
2636.00,0.0038
2635.00,0.0038
2634.00,0.0038
2633.00,0.0038
2632.00,0.0039
2631.00,0.0039
2630.00,0.0039
2629.00,0.0039
2628.00,0.0039
2627.00,0.0039
2626.00,0.0039
2625.00,0.0038
2624.00,0.0038
2623.00,0.0038
2622.00,0.0039
2621.00,0.0039
2620.00,0.0040
2619.00,0.0040
2618.00,0.0040
2617.00,0.0040
2616.00,0.0041
2615.00,0.0041
2614.00,0.0041
2613.00,0.0040
2612.00,0.0039
2611.00,0.0038
2610.00,0.0037
2609.00,0.0036
2608.00,0.0035
2607.00,0.0035
2606.00,0.0034
2605.00,0.0034
2604.00,0.0033
2603.00,0.0033
2602.00,0.0032
2601.00,0.0032
2600.00,0.0032
2599.00,0.0033
2598.00,0.0033
2597.00,0.0033
2596.00,0.0032
2595.00,0.0032
2594.00,0.0032
2593.00,0.0032
2592.00,0.0032
2591.00,0.0032
2590.00,0.0032
2589.00,0.0032
2588.00,0.0033
2587.00,0.0035
2586.00,0.0037
2585.00,0.0038
2584.00,0.0039
2583.00,0.0039
2582.00,0.0040
2581.00,0.0039
2580.00,0.0039
2579.00,0.0038
2578.00,0.0036
2577.00,0.0035
2576.00,0.0034
2575.00,0.0033
2574.00,0.0032
2573.00,0.0031
2572.00,0.0029
2571.00,0.0028
2570.00,0.0027
2569.00,0.0026
2568.00,0.0025
2567.00,0.0025
2566.00,0.0024
2565.00,0.0024
2564.00,0.0024
2563.00,0.0023
2562.00,0.0024
2561.00,0.0024
2560.00,0.0023
2559.00,0.0023
2558.00,0.0023
2557.00,0.0023
2556.00,0.0022
2555.00,0.0022
2554.00,0.0022
2553.00,0.0022
2552.00,0.0021
2551.00,0.0021
2550.00,0.0020
2549.00,0.0020
2548.00,0.0019
2547.00,0.0018
2546.00,0.0018
2545.00,0.0018
2544.00,0.0018
2543.00,0.0018
2542.00,0.0017
2541.00,0.0017
2540.00,0.0017
2539.00,0.0017
2538.00,0.0017
2537.00,0.0017
2536.00,0.0017
2535.00,0.0016
2534.00,0.0016
2533.00,0.0015
2532.00,0.0015
2531.00,0.0014
2530.00,0.0014
2529.00,0.0014
2528.00,0.0014
2527.00,0.0014
2526.00,0.0014
2525.00,0.0015
2524.00,0.0015
2523.00,0.0014
2522.00,0.0013
2521.00,0.0012
2520.00,0.0011
2519.00,0.0010
2518.00,0.0010
2517.00,0.0011
2516.00,0.0011
2515.00,0.0011
2514.00,0.0010
2513.00,0.0010
2512.00,0.0010
2511.00,0.0010
2510.00,0.0010
2509.00,0.0009
2508.00,0.0008
2507.00,0.0008
2506.00,0.0008
2505.00,0.0009
2504.00,0.0010
2503.00,0.0011
2502.00,0.0011
2501.00,0.0011
2500.00,0.0011
2499.00,0.0010
2498.00,0.0010
2497.00,0.0010
2496.00,0.0010
2495.00,0.0010
2494.00,0.0010
2493.00,0.0010
2492.00,0.0010
2491.00,0.0009
2490.00,0.0008
2489.00,0.0008
2488.00,0.0008
2487.00,0.0009
2486.00,0.0009
2485.00,0.0009
2484.00,0.0009
2483.00,0.0009
2482.00,0.0009
2481.00,0.0010
2480.00,0.0010
2479.00,0.0009
2478.00,0.0009
2477.00,0.0009
2476.00,0.0009
2475.00,0.0009
2474.00,0.0009
2473.00,0.0009
2472.00,0.0008
2471.00,0.0008
2470.00,0.0007
2469.00,0.0008
2468.00,0.0008
2467.00,0.0008
2466.00,0.0008
2465.00,0.0008
2464.00,0.0008
2463.00,0.0008
2462.00,0.0009
2461.00,0.0010
2460.00,0.0010
2459.00,0.0010
2458.00,0.0010
2457.00,0.0010
2456.00,0.0010
2455.00,0.0011
2454.00,0.0011
2453.00,0.0011
2452.00,0.0011
2451.00,0.0011
2450.00,0.0011
2449.00,0.0011
2448.00,0.0011
2447.00,0.0010
2446.00,0.0010
2445.00,0.0009
2444.00,0.0009
2443.00,0.0009
2442.00,0.0010
2441.00,0.0011
2440.00,0.0012
2439.00,0.0012
2438.00,0.0012
2437.00,0.0011
2436.00,0.0010
2435.00,0.0009
2434.00,0.0009
2433.00,0.0009
2432.00,0.0009
2431.00,0.0009
2430.00,0.0010
2429.00,0.0010
2428.00,0.0011
2427.00,0.0011
2426.00,0.0011
2425.00,0.0011
2424.00,0.0010
2423.00,0.0010
2422.00,0.0010
2421.00,0.0011
2420.00,0.0010
2419.00,0.0010
2418.00,0.0010
2417.00,0.0010
2416.00,0.0010
2415.00,0.0010
2414.00,0.0010
2413.00,0.0009
2412.00,0.0009
2411.00,0.0009
2410.00,0.0009
2409.00,0.0009
2408.00,0.0009
2407.00,0.0009
2406.00,0.0008
2405.00,0.0008
2404.00,0.0008
2403.00,0.0007
2402.00,0.0006
2401.00,0.0006
2400.00,0.0006
2399.00,0.0006
2398.00,0.0006
2397.00,0.0006
2396.00,0.0007
2395.00,0.0007
2394.00,0.0007
2393.00,0.0007
2392.00,0.0007
2391.00,0.0006
2390.00,0.0006
2389.00,0.0005
2388.00,0.0005
2387.00,0.0005
2386.00,0.0005
2385.00,0.0005
2384.00,0.0005
2383.00,0.0005
2382.00,0.0005
2381.00,0.0005
2380.00,0.0004
2379.00,0.0003
2378.00,0.0002
2377.00,0.0002
2376.00,0.0002
2375.00,0.0002
2374.00,0.0001
2373.00,0.0001
2372.00,0.0000
2371.00,0.0001
2370.00,0.0001
2369.00,0.0002
2368.00,0.0003
2367.00,0.0003
2366.00,0.0003
2365.00,0.0002
2364.00,0.0002
2363.00,0.0002
2362.00,0.0002
2361.00,0.0002
2360.00,0.0002
2359.00,0.0002
2358.00,0.0001
2357.00,0.0001
2356.00,0.0002
2355.00,0.0002
2354.00,0.0003
2353.00,0.0003
2352.00,0.0002
2351.00,0.0003
2350.00,0.0003
2349.00,0.0003
2348.00,0.0004
2347.00,0.0004
2346.00,0.0004
2345.00,0.0004
2344.00,0.0005
2343.00,0.0005
2342.00,0.0005
2341.00,0.0005
2340.00,0.0005
2339.00,0.0006
2338.00,0.0006
2337.00,0.0006
2336.00,0.0006
2335.00,0.0005
2334.00,0.0004
2333.00,0.0003
2332.00,0.0003
2331.00,0.0003
2330.00,0.0004
2329.00,0.0005
2328.00,0.0007
2327.00,0.0011
2326.00,0.0015
2325.00,0.0019
2324.00,0.0021
2323.00,0.0020
2322.00,0.0017
2321.00,0.0015
2320.00,0.0013
2319.00,0.0012
2318.00,0.0011
2317.00,0.0010
2316.00,0.0010
2315.00,0.0009
2314.00,0.0008
2313.00,0.0008
2312.00,0.0009
2311.00,0.0009
2310.00,0.0010
2309.00,0.0010
2308.00,0.0010
2307.00,0.0010
2306.00,0.0011
2305.00,0.0011
2304.00,0.0011
2303.00,0.0012
2302.00,0.0012
2301.00,0.0012
2300.00,0.0012
2299.00,0.0011
2298.00,0.0012
2297.00,0.0012
2296.00,0.0013
2295.00,0.0014
2294.00,0.0014
2293.00,0.0015
2292.00,0.0015
2291.00,0.0016
2290.00,0.0017
2289.00,0.0018
2288.00,0.0019
2287.00,0.0020
2286.00,0.0019
2285.00,0.0018
2284.00,0.0017
2283.00,0.0015
2282.00,0.0013
2281.00,0.0012
2280.00,0.0012
2279.00,0.0013
2278.00,0.0014
2277.00,0.0015
2276.00,0.0015
2275.00,0.0015
2274.00,0.0015
2273.00,0.0015
2272.00,0.0015
2271.00,0.0015
2270.00,0.0014
2269.00,0.0013
2268.00,0.0013
2267.00,0.0012
2266.00,0.0011
2265.00,0.0011
2264.00,0.0011
2263.00,0.0011
2262.00,0.0012
2261.00,0.0012
2260.00,0.0012
2259.00,0.0012
2258.00,0.0012
2257.00,0.0012
2256.00,0.0010
2255.00,0.0009
2254.00,0.0008
2253.00,0.0008
2252.00,0.0008
2251.00,0.0009
2250.00,0.0010
2249.00,0.0010
2248.00,0.0010
2247.00,0.0010
2246.00,0.0010
2245.00,0.0010
2244.00,0.0011
2243.00,0.0011
2242.00,0.0010
2241.00,0.0010
2240.00,0.0010
2239.00,0.0011
2238.00,0.0011
2237.00,0.0011
2236.00,0.0010
2235.00,0.0009
2234.00,0.0009
2233.00,0.0008
2232.00,0.0009
2231.00,0.0008
2230.00,0.0008
2229.00,0.0008
2228.00,0.0008
2227.00,0.0007
2226.00,0.0006
2225.00,0.0006
2224.00,0.0006
2223.00,0.0007
2222.00,0.0006
2221.00,0.0005
2220.00,0.0004
2219.00,0.0004
2218.00,0.0006
2217.00,0.0007
2216.00,0.0007
2215.00,0.0007
2214.00,0.0006
2213.00,0.0006
2212.00,0.0007
2211.00,0.0006
2210.00,0.0005
2209.00,0.0003
2208.00,0.0002
2207.00,0.0002
2206.00,0.0002
2205.00,0.0003
2204.00,0.0004
2203.00,0.0005
2202.00,0.0006
2201.00,0.0006
2200.00,0.0007
2199.00,0.0007
2198.00,0.0007
2197.00,0.0007
2196.00,0.0008
2195.00,0.0007
2194.00,0.0007
2193.00,0.0006
2192.00,0.0005
2191.00,0.0005
2190.00,0.0006
2189.00,0.0008
2188.00,0.0009
2187.00,0.0010
2186.00,0.0010
2185.00,0.0010
2184.00,0.0009
2183.00,0.0007
2182.00,0.0005
2181.00,0.0003
2180.00,0.0002
2179.00,0.0003
2178.00,0.0004
2177.00,0.0005
2176.00,0.0006
2175.00,0.0008
2174.00,0.0010
2173.00,0.0012
2172.00,0.0013
2171.00,0.0014
2170.00,0.0015
2169.00,0.0017
2168.00,0.0019
2167.00,0.0020
2166.00,0.0019
2165.00,0.0017
2164.00,0.0016
2163.00,0.0016
2162.00,0.0015
2161.00,0.0009
2160.00,-0.0001
2159.00,-0.0013
2158.00,-0.0024
2157.00,-0.0029
2156.00,-0.0030
2155.00,-0.0028
2154.00,-0.0025
2153.00,-0.0022
2152.00,-0.0019
2151.00,-0.0017
2150.00,-0.0016
2149.00,-0.0016
2148.00,-0.0016
2147.00,-0.0016
2146.00,-0.0016
2145.00,-0.0016
2144.00,-0.0015
2143.00,-0.0013
2142.00,-0.0011
2141.00,-0.0010
2140.00,-0.0010
2139.00,-0.0009
2138.00,-0.0010
2137.00,-0.0011
2136.00,-0.0014
2135.00,-0.0017
2134.00,-0.0018
2133.00,-0.0018
2132.00,-0.0016
2131.00,-0.0013
2130.00,-0.0011
2129.00,-0.0010
2128.00,-0.0009
2127.00,-0.0009
2126.00,-0.0009
2125.00,-0.0008
2124.00,-0.0008
2123.00,-0.0008
2122.00,-0.0008
2121.00,-0.0007
2120.00,-0.0006
2119.00,-0.0005
2118.00,-0.0004
2117.00,-0.0003
2116.00,-0.0001
2115.00,0.0000
2114.00,0.0001
2113.00,0.0002
2112.00,0.0003
2111.00,0.0002
2110.00,0.0001
2109.00,0.0001
2108.00,0.0001
2107.00,0.0001
2106.00,0.0001
2105.00,0.0001
2104.00,0.0002
2103.00,0.0003
2102.00,0.0004
2101.00,0.0004
2100.00,0.0003
2099.00,0.0000
2098.00,-0.0002
2097.00,-0.0003
2096.00,-0.0004
2095.00,-0.0005
2094.00,-0.0005
2093.00,-0.0005
2092.00,-0.0004
2091.00,-0.0002
2090.00,-0.0001
2089.00,-0.0000
2088.00,0.0000
2087.00,0.0001
2086.00,0.0002
2085.00,0.0002
2084.00,0.0001
2083.00,0.0000
2082.00,-0.0000
2081.00,0.0000
2080.00,0.0001
2079.00,0.0002
2078.00,0.0003
2077.00,0.0003
2076.00,0.0002
2075.00,0.0002
2074.00,0.0001
2073.00,0.0000
2072.00,0.0000
2071.00,0.0000
2070.00,-0.0000
2069.00,-0.0001
2068.00,-0.0001
2067.00,-0.0002
2066.00,-0.0001
2065.00,-0.0001
2064.00,-0.0001
2063.00,-0.0002
2062.00,-0.0002
2061.00,-0.0001
2060.00,-0.0001
2059.00,-0.0001
2058.00,-0.0001
2057.00,-0.0001
2056.00,-0.0001
2055.00,-0.0002
2054.00,-0.0001
2053.00,0.0004
2052.00,0.0011
2051.00,0.0016
2050.00,0.0016
2049.00,0.0012
2048.00,0.0006
2047.00,0.0001
2046.00,-0.0002
2045.00,-0.0002
2044.00,-0.0003
2043.00,-0.0004
2042.00,-0.0005
2041.00,-0.0006
2040.00,-0.0006
2039.00,-0.0005
2038.00,-0.0003
2037.00,-0.0000
2036.00,0.0001
2035.00,-0.0000
2034.00,-0.0003
2033.00,-0.0006
2032.00,-0.0007
2031.00,-0.0007
2030.00,-0.0006
2029.00,-0.0006
2028.00,-0.0008
2027.00,-0.0010
2026.00,-0.0012
2025.00,-0.0013
2024.00,-0.0014
2023.00,-0.0016
2022.00,-0.0017
2021.00,-0.0017
2020.00,-0.0014
2019.00,-0.0011
2018.00,-0.0009
2017.00,-0.0007
2016.00,-0.0007
2015.00,-0.0009
2014.00,-0.0010
2013.00,-0.0010
2012.00,-0.0009
2011.00,-0.0008
2010.00,-0.0008
2009.00,-0.0009
2008.00,-0.0012
2007.00,-0.0015
2006.00,-0.0019
2005.00,-0.0020
2004.00,-0.0019
2003.00,-0.0017
2002.00,-0.0014
2001.00,-0.0011
2000.00,-0.0011
1999.00,-0.0012
1998.00,-0.0013
1997.00,-0.0013
1996.00,-0.0013
1995.00,-0.0014
1994.00,-0.0015
1993.00,-0.0015
1992.00,-0.0014
1991.00,-0.0013
1990.00,-0.0012
1989.00,-0.0010
1988.00,-0.0008
1987.00,-0.0005
1986.00,-0.0002
1985.00,0.0001
1984.00,0.0003
1983.00,0.0006
1982.00,0.0008
1981.00,0.0009
1980.00,0.0007
1979.00,0.0003
1978.00,-0.0002
1977.00,-0.0006
1976.00,-0.0006
1975.00,-0.0004
1974.00,-0.0004
1973.00,-0.0004
1972.00,-0.0006
1971.00,-0.0008
1970.00,-0.0010
1969.00,-0.0012
1968.00,-0.0016
1967.00,-0.0020
1966.00,-0.0023
1965.00,-0.0024
1964.00,-0.0023
1963.00,-0.0022
1962.00,-0.0020
1961.00,-0.0018
1960.00,-0.0018
1959.00,-0.0019
1958.00,-0.0020
1957.00,-0.0020
1956.00,-0.0020
1955.00,-0.0019
1954.00,-0.0019
1953.00,-0.0019
1952.00,-0.0020
1951.00,-0.0021
1950.00,-0.0021
1949.00,-0.0019
1948.00,-0.0016
1947.00,-0.0014
1946.00,-0.0013
1945.00,-0.0014
1944.00,-0.0015
1943.00,-0.0016
1942.00,-0.0016
1941.00,-0.0016
1940.00,-0.0015
1939.00,-0.0014
1938.00,-0.0012
1937.00,-0.0010
1936.00,-0.0009
1935.00,-0.0009
1934.00,-0.0009
1933.00,-0.0009
1932.00,-0.0009
1931.00,-0.0009
1930.00,-0.0009
1929.00,-0.0009
1928.00,-0.0010
1927.00,-0.0010
1926.00,-0.0009
1925.00,-0.0008
1924.00,-0.0006
1923.00,-0.0006
1922.00,-0.0006
1921.00,-0.0007
1920.00,-0.0007
1919.00,-0.0007
1918.00,-0.0006
1917.00,-0.0005
1916.00,-0.0005
1915.00,-0.0004
1914.00,-0.0004
1913.00,-0.0003
1912.00,-0.0003
1911.00,-0.0003
1910.00,-0.0003
1909.00,-0.0004
1908.00,-0.0005
1907.00,-0.0005
1906.00,-0.0005
1905.00,-0.0005
1904.00,-0.0005
1903.00,-0.0004
1902.00,-0.0004
1901.00,-0.0002
1900.00,-0.0001
1899.00,-0.0001
1898.00,-0.0001
1897.00,-0.0001
1896.00,-0.0002
1895.00,-0.0002
1894.00,-0.0001
1893.00,-0.0001
1892.00,-0.0000
1891.00,0.0000
1890.00,0.0000
1889.00,-0.0000
1888.00,-0.0001
1887.00,-0.0001
1886.00,-0.0002
1885.00,-0.0002
1884.00,-0.0003
1883.00,-0.0003
1882.00,-0.0004
1881.00,-0.0004
1880.00,-0.0003
1879.00,-0.0002
1878.00,-0.0002
1877.00,-0.0001
1876.00,-0.0002
1875.00,-0.0002
1874.00,-0.0002
1873.00,-0.0002
1872.00,-0.0001
1871.00,-0.0000
1870.00,-0.0000
1869.00,0.0000
1868.00,-0.0000
1867.00,-0.0000
1866.00,-0.0001
1865.00,-0.0001
1864.00,-0.0002
1863.00,-0.0002
1862.00,-0.0003
1861.00,-0.0002
1860.00,-0.0002
1859.00,-0.0001
1858.00,-0.0000
1857.00,0.0000
1856.00,0.0000
1855.00,0.0000
1854.00,0.0000
1853.00,0.0000
1852.00,0.0000
1851.00,0.0000
1850.00,0.0000
1849.00,0.0000
1848.00,-0.0000
1847.00,-0.0001
1846.00,-0.0001
1845.00,-0.0001
1844.00,-0.0000
1843.00,0.0000
1842.00,0.0001
1841.00,0.0001
1840.00,0.0002
1839.00,0.0002
1838.00,0.0002
1837.00,0.0002
1836.00,0.0002
1835.00,0.0003
1834.00,0.0003
1833.00,0.0003
1832.00,0.0003
1831.00,0.0003
1830.00,0.0002
1829.00,0.0002
1828.00,0.0002
1827.00,0.0002
1826.00,0.0002
1825.00,0.0003
1824.00,0.0003
1823.00,0.0003
1822.00,0.0002
1821.00,0.0002
1820.00,0.0001
1819.00,0.0000
1818.00,-0.0001
1817.00,-0.0002
1816.00,-0.0002
1815.00,-0.0001
1814.00,-0.0000
1813.00,0.0001
1812.00,0.0002
1811.00,0.0002
1810.00,0.0002
1809.00,0.0002
1808.00,0.0002
1807.00,0.0002
1806.00,0.0002
1805.00,0.0002
1804.00,0.0002
1803.00,0.0003
1802.00,0.0004
1801.00,0.0004
1800.00,0.0004
1799.00,0.0004
1798.00,0.0003
1797.00,0.0003
1796.00,0.0003
1795.00,0.0003
1794.00,0.0004
1793.00,0.0004
1792.00,0.0005
1791.00,0.0006
1790.00,0.0006
1789.00,0.0006
1788.00,0.0007
1787.00,0.0007
1786.00,0.0007
1785.00,0.0007
1784.00,0.0006
1783.00,0.0006
1782.00,0.0005
1781.00,0.0005
1780.00,0.0005
1779.00,0.0006
1778.00,0.0006
1777.00,0.0007
1776.00,0.0007
1775.00,0.0007
1774.00,0.0007
1773.00,0.0007
1772.00,0.0007
1771.00,0.0007
1770.00,0.0008
1769.00,0.0008
1768.00,0.0009
1767.00,0.0009
1766.00,0.0010
1765.00,0.0010
1764.00,0.0009
1763.00,0.0009
1762.00,0.0009
1761.00,0.0010
1760.00,0.0010
1759.00,0.0011
1758.00,0.0011
1757.00,0.0011
1756.00,0.0011
1755.00,0.0011
1754.00,0.0011
1753.00,0.0011
1752.00,0.0012
1751.00,0.0013
1750.00,0.0014
1749.00,0.0014
1748.00,0.0015
1747.00,0.0016
1746.00,0.0017
1745.00,0.0018
1744.00,0.0018
1743.00,0.0019
1742.00,0.0020
1741.00,0.0021
1740.00,0.0022
1739.00,0.0022
1738.00,0.0022
1737.00,0.0022
1736.00,0.0023
1735.00,0.0023
1734.00,0.0022
1733.00,0.0022
1732.00,0.0022
1731.00,0.0022
1730.00,0.0022
1729.00,0.0022
1728.00,0.0022
1727.00,0.0022
1726.00,0.0022
1725.00,0.0022
1724.00,0.0023
1723.00,0.0024
1722.00,0.0025
1721.00,0.0025
1720.00,0.0024
1719.00,0.0023
1718.00,0.0022
1717.00,0.0021
1716.00,0.0020
1715.00,0.0020
1714.00,0.0020
1713.00,0.0020
1712.00,0.0020
1711.00,0.0020
1710.00,0.0021
1709.00,0.0021
1708.00,0.0021
1707.00,0.0021
1706.00,0.0021
1705.00,0.0022
1704.00,0.0022
1703.00,0.0022
1702.00,0.0023
1701.00,0.0023
1700.00,0.0024
1699.00,0.0024
1698.00,0.0024
1697.00,0.0025
1696.00,0.0025
1695.00,0.0026
1694.00,0.0025
1693.00,0.0025
1692.00,0.0025
1691.00,0.0025
1690.00,0.0026
1689.00,0.0026
1688.00,0.0026
1687.00,0.0026
1686.00,0.0025
1685.00,0.0024
1684.00,0.0025
1683.00,0.0026
1682.00,0.0027
1681.00,0.0028
1680.00,0.0029
1679.00,0.0029
1678.00,0.0030
1677.00,0.0031
1676.00,0.0032
1675.00,0.0032
1674.00,0.0032
1673.00,0.0032
1672.00,0.0033
1671.00,0.0033
1670.00,0.0033
1669.00,0.0033
1668.00,0.0034
1667.00,0.0034
1666.00,0.0034
1665.00,0.0035
1664.00,0.0036
1663.00,0.0036
1662.00,0.0036
1661.00,0.0036
1660.00,0.0036
1659.00,0.0037
1658.00,0.0037
1657.00,0.0037
1656.00,0.0038
1655.00,0.0038
1654.00,0.0039
1653.00,0.0040
1652.00,0.0040
1651.00,0.0041
1650.00,0.0041
1649.00,0.0042
1648.00,0.0043
1647.00,0.0044
1646.00,0.0044
1645.00,0.0045
1644.00,0.0046
1643.00,0.0047
1642.00,0.0048
1641.00,0.0050
1640.00,0.0051
1639.00,0.0053
1638.00,0.0054
1637.00,0.0055
1636.00,0.0055
1635.00,0.0054
1634.00,0.0052
1633.00,0.0051
1632.00,0.0051
1631.00,0.0050
1630.00,0.0049
1629.00,0.0049
1628.00,0.0048
1627.00,0.0048
1626.00,0.0047
1625.00,0.0046
1624.00,0.0046
1623.00,0.0046
1622.00,0.0045
1621.00,0.0045
1620.00,0.0045
1619.00,0.0045
1618.00,0.0044
1617.00,0.0044
1616.00,0.0044
1615.00,0.0045
1614.00,0.0045
1613.00,0.0045
1612.00,0.0045
1611.00,0.0045
1610.00,0.0045
1609.00,0.0045
1608.00,0.0045
1607.00,0.0045
1606.00,0.0045
1605.00,0.0045
1604.00,0.0044
1603.00,0.0044
1602.00,0.0044
1601.00,0.0044
1600.00,0.0044
1599.00,0.0044
1598.00,0.0044
1597.00,0.0044
1596.00,0.0044
1595.00,0.0044
1594.00,0.0044
1593.00,0.0043
1592.00,0.0043
1591.00,0.0043
1590.00,0.0043
1589.00,0.0043
1588.00,0.0043
1587.00,0.0044
1586.00,0.0044
1585.00,0.0044
1584.00,0.0045
1583.00,0.0045
1582.00,0.0045
1581.00,0.0045
1580.00,0.0046
1579.00,0.0047
1578.00,0.0047
1577.00,0.0048
1576.00,0.0048
1575.00,0.0047
1574.00,0.0047
1573.00,0.0047
1572.00,0.0048
1571.00,0.0049
1570.00,0.0049
1569.00,0.0050
1568.00,0.0050
1567.00,0.0050
1566.00,0.0050
1565.00,0.0051
1564.00,0.0051
1563.00,0.0051
1562.00,0.0051
1561.00,0.0051
1560.00,0.0051
1559.00,0.0051
1558.00,0.0049
1557.00,0.0049
1556.00,0.0049
1555.00,0.0049
1554.00,0.0050
1553.00,0.0051
1552.00,0.0052
1551.00,0.0052
1550.00,0.0053
1549.00,0.0053
1548.00,0.0053
1547.00,0.0053
1546.00,0.0053
1545.00,0.0054
1544.00,0.0054
1543.00,0.0055
1542.00,0.0055
1541.00,0.0054
1540.00,0.0053
1539.00,0.0051
1538.00,0.0050
1537.00,0.0050
1536.00,0.0050
1535.00,0.0049
1534.00,0.0049
1533.00,0.0048
1532.00,0.0047
1531.00,0.0046
1530.00,0.0045
1529.00,0.0045
1528.00,0.0045
1527.00,0.0045
1526.00,0.0045
1525.00,0.0045
1524.00,0.0046
1523.00,0.0045
1522.00,0.0045
1521.00,0.0045
1520.00,0.0046
1519.00,0.0046
1518.00,0.0047
1517.00,0.0048
1516.00,0.0049
1515.00,0.0049
1514.00,0.0049
1513.00,0.0050
1512.00,0.0051
1511.00,0.0052
1510.00,0.0053
1509.00,0.0054
1508.00,0.0055
1507.00,0.0056
1506.00,0.0056
1505.00,0.0056
1504.00,0.0058
1503.00,0.0059
1502.00,0.0061
1501.00,0.0063
1500.00,0.0065
1499.00,0.0067
1498.00,0.0069
1497.00,0.0072
1496.00,0.0075
1495.00,0.0078
1494.00,0.0080
1493.00,0.0082
1492.00,0.0086
1491.00,0.0089
1490.00,0.0093
1489.00,0.0097
1488.00,0.0102
1487.00,0.0107
1486.00,0.0111
1485.00,0.0117
1484.00,0.0124
1483.00,0.0131
1482.00,0.0139
1481.00,0.0149
1480.00,0.0161
1479.00,0.0173
1478.00,0.0189
1477.00,0.0210
1476.00,0.0235
1475.00,0.0266
1474.00,0.0306
1473.00,0.0364
1472.00,0.0431
1471.00,0.0496
1470.00,0.0560
1469.00,0.0627
1468.00,0.0699
1467.00,0.0778
1466.00,0.0867
1465.00,0.0963
1464.00,0.1046
1463.00,0.1103
1462.00,0.1139
1461.00,0.1163
1460.00,0.1180
1459.00,0.1190
1458.00,0.1199
1457.00,0.1204
1456.00,0.1201
1455.00,0.1192
1454.00,0.1180
1453.00,0.1164
1452.00,0.1138
1451.00,0.1102
1450.00,0.1053
1449.00,0.0983
1448.00,0.0894
1447.00,0.0798
1446.00,0.0711
1445.00,0.0636
1444.00,0.0571
1443.00,0.0518
1442.00,0.0477
1441.00,0.0449
1440.00,0.0431
1439.00,0.0422
1438.00,0.0422
1437.00,0.0423
1436.00,0.0413
1435.00,0.0389
1434.00,0.0354
1433.00,0.0312
1432.00,0.0267
1431.00,0.0228
1430.00,0.0197
1429.00,0.0174
1428.00,0.0158
1427.00,0.0148
1426.00,0.0141
1425.00,0.0135
1424.00,0.0129
1423.00,0.0125
1422.00,0.0123
1421.00,0.0121
1420.00,0.0118
1419.00,0.0115
1418.00,0.0113
1417.00,0.0111
1416.00,0.0108
1415.00,0.0107
1414.00,0.0107
1413.00,0.0106
1412.00,0.0104
1411.00,0.0103
1410.00,0.0103
1409.00,0.0103
1408.00,0.0102
1407.00,0.0102
1406.00,0.0103
1405.00,0.0103
1404.00,0.0103
1403.00,0.0103
1402.00,0.0105
1401.00,0.0106
1400.00,0.0107
1399.00,0.0108
1398.00,0.0111
1397.00,0.0113
1396.00,0.0115
1395.00,0.0119
1394.00,0.0124
1393.00,0.0129
1392.00,0.0135
1391.00,0.0142
1390.00,0.0152
1389.00,0.0165
1388.00,0.0185
1387.00,0.0215
1386.00,0.0256
1385.00,0.0311
1384.00,0.0387
1383.00,0.0493
1382.00,0.0635
1381.00,0.0819
1380.00,0.1049
1379.00,0.1318
1378.00,0.1586
1377.00,0.1793
1376.00,0.1876
1375.00,0.1794
1374.00,0.1575
1373.00,0.1302
1372.00,0.1048
1371.00,0.0837
1370.00,0.0669
1369.00,0.0543
1368.00,0.0456
1367.00,0.0403
1366.00,0.0374
1365.00,0.0363
1364.00,0.0365
1363.00,0.0378
1362.00,0.0399
1361.00,0.0423
1360.00,0.0441
1359.00,0.0446
1358.00,0.0435
1357.00,0.0410
1356.00,0.0374
1355.00,0.0333
1354.00,0.0294
1353.00,0.0261
1352.00,0.0234
1351.00,0.0212
1350.00,0.0194
1349.00,0.0180
1348.00,0.0167
1347.00,0.0157
1346.00,0.0148
1345.00,0.0140
1344.00,0.0134
1343.00,0.0129
1342.00,0.0124
1341.00,0.0121
1340.00,0.0118
1339.00,0.0116
1338.00,0.0115
1337.00,0.0114
1336.00,0.0115
1335.00,0.0117
1334.00,0.0120
1333.00,0.0124
1332.00,0.0128
1331.00,0.0132
1330.00,0.0133
1329.00,0.0132
1328.00,0.0128
1327.00,0.0124
1326.00,0.0119
1325.00,0.0114
1324.00,0.0108
1323.00,0.0102
1322.00,0.0098
1321.00,0.0095
1320.00,0.0093
1319.00,0.0091
1318.00,0.0090
1317.00,0.0088
1316.00,0.0087
1315.00,0.0086
1314.00,0.0086
1313.00,0.0087
1312.00,0.0089
1311.00,0.0091
1310.00,0.0095
1309.00,0.0101
1308.00,0.0110
1307.00,0.0121
1306.00,0.0132
1305.00,0.0139
1304.00,0.0141
1303.00,0.0138
1302.00,0.0133
1301.00,0.0128
1300.00,0.0125
1299.00,0.0125
1298.00,0.0125
1297.00,0.0124
1296.00,0.0123
1295.00,0.0121
1294.00,0.0118
1293.00,0.0113
1292.00,0.0108
1291.00,0.0103
1290.00,0.0098
1289.00,0.0094
1288.00,0.0091
1287.00,0.0089
1286.00,0.0087
1285.00,0.0085
1284.00,0.0083
1283.00,0.0082
1282.00,0.0081
1281.00,0.0080
1280.00,0.0079
1279.00,0.0078
1278.00,0.0078
1277.00,0.0078
1276.00,0.0077
1275.00,0.0077
1274.00,0.0077
1273.00,0.0077
1272.00,0.0078
1271.00,0.0079
1270.00,0.0080
1269.00,0.0082
1268.00,0.0084
1267.00,0.0086
1266.00,0.0089
1265.00,0.0092
1264.00,0.0094
1263.00,0.0097
1262.00,0.0100
1261.00,0.0105
1260.00,0.0110
1259.00,0.0117
1258.00,0.0124
1257.00,0.0129
1256.00,0.0131
1255.00,0.0129
1254.00,0.0123
1253.00,0.0115
1252.00,0.0107
1251.00,0.0100
1250.00,0.0094
1249.00,0.0090
1248.00,0.0087
1247.00,0.0085
1246.00,0.0082
1245.00,0.0080
1244.00,0.0078
1243.00,0.0077
1242.00,0.0076
1241.00,0.0075
1240.00,0.0075
1239.00,0.0074
1238.00,0.0074
1237.00,0.0073
1236.00,0.0073
1235.00,0.0073
1234.00,0.0073
1233.00,0.0073
1232.00,0.0073
1231.00,0.0074
1230.00,0.0075
1229.00,0.0076
1228.00,0.0077
1227.00,0.0078
1226.00,0.0080
1225.00,0.0082
1224.00,0.0085
1223.00,0.0088
1222.00,0.0092
1221.00,0.0094
1220.00,0.0096
1219.00,0.0096
1218.00,0.0095
1217.00,0.0094
1216.00,0.0091
1215.00,0.0089
1214.00,0.0087
1213.00,0.0084
1212.00,0.0082
1211.00,0.0080
1210.00,0.0079
1209.00,0.0077
1208.00,0.0076
1207.00,0.0075
1206.00,0.0074
1205.00,0.0073
1204.00,0.0072
1203.00,0.0073
1202.00,0.0073
1201.00,0.0073
1200.00,0.0073
1199.00,0.0073
1198.00,0.0074
1197.00,0.0074
1196.00,0.0074
1195.00,0.0075
1194.00,0.0074
1193.00,0.0074
1192.00,0.0074
1191.00,0.0074
1190.00,0.0074
1189.00,0.0074
1188.00,0.0074
1187.00,0.0074
1186.00,0.0075
1185.00,0.0076
1184.00,0.0077
1183.00,0.0079
1182.00,0.0082
1181.00,0.0085
1180.00,0.0089
1179.00,0.0094
1178.00,0.0100
1177.00,0.0108
1176.00,0.0118
1175.00,0.0132
1174.00,0.0152
1173.00,0.0176
1172.00,0.0207
1171.00,0.0241
1170.00,0.0274
1169.00,0.0301
1168.00,0.0317
1167.00,0.0320
1166.00,0.0312
1165.00,0.0296
1164.00,0.0277
1163.00,0.0258
1162.00,0.0242
1161.00,0.0229
1160.00,0.0220
1159.00,0.0212
1158.00,0.0206
1157.00,0.0202
1156.00,0.0199
1155.00,0.0197
1154.00,0.0195
1153.00,0.0192
1152.00,0.0188
1151.00,0.0182
1150.00,0.0174
1149.00,0.0164
1148.00,0.0154
1147.00,0.0145
1146.00,0.0137
1145.00,0.0130
1144.00,0.0123
1143.00,0.0116
1142.00,0.0109
1141.00,0.0103
1140.00,0.0098
1139.00,0.0094
1138.00,0.0091
1137.00,0.0088
1136.00,0.0085
1135.00,0.0083
1134.00,0.0081
1133.00,0.0079
1132.00,0.0078
1131.00,0.0078
1130.00,0.0077
1129.00,0.0077
1128.00,0.0078
1127.00,0.0078
1126.00,0.0078
1125.00,0.0079
1124.00,0.0079
1123.00,0.0080
1122.00,0.0080
1121.00,0.0080
1120.00,0.0080
1119.00,0.0081
1118.00,0.0081
1117.00,0.0082
1116.00,0.0084
1115.00,0.0086
1114.00,0.0088
1113.00,0.0089
1112.00,0.0091
1111.00,0.0094
1110.00,0.0097
1109.00,0.0101
1108.00,0.0105
1107.00,0.0111
1106.00,0.0118
1105.00,0.0124
1104.00,0.0128
1103.00,0.0131
1102.00,0.0131
1101.00,0.0128
1100.00,0.0122
1099.00,0.0116
1098.00,0.0109
1097.00,0.0103
1096.00,0.0099
1095.00,0.0096
1094.00,0.0094
1093.00,0.0093
1092.00,0.0091
1091.00,0.0089
1090.00,0.0088
1089.00,0.0086
1088.00,0.0085
1087.00,0.0084
1086.00,0.0083
1085.00,0.0083
1084.00,0.0083
1083.00,0.0083
1082.00,0.0083
1081.00,0.0083
1080.00,0.0082
1079.00,0.0081
1078.00,0.0081
1077.00,0.0080
1076.00,0.0079
1075.00,0.0079
1074.00,0.0078
1073.00,0.0077
1072.00,0.0077
1071.00,0.0076
1070.00,0.0076
1069.00,0.0076
1068.00,0.0077
1067.00,0.0078
1066.00,0.0079
1065.00,0.0079
1064.00,0.0080
1063.00,0.0081
1062.00,0.0082
1061.00,0.0082
1060.00,0.0083
1059.00,0.0084
1058.00,0.0086
1057.00,0.0088
1056.00,0.0090
1055.00,0.0093
1054.00,0.0095
1053.00,0.0098
1052.00,0.0100
1051.00,0.0103
1050.00,0.0106
1049.00,0.0110
1048.00,0.0115
1047.00,0.0120
1046.00,0.0124
1045.00,0.0127
1044.00,0.0127
1043.00,0.0127
1042.00,0.0126
1041.00,0.0125
1040.00,0.0123
1039.00,0.0122
1038.00,0.0120
1037.00,0.0118
1036.00,0.0116
1035.00,0.0115
1034.00,0.0113
1033.00,0.0112
1032.00,0.0111
1031.00,0.0110
1030.00,0.0110
1029.00,0.0110
1028.00,0.0112
1027.00,0.0114
1026.00,0.0116
1025.00,0.0119
1024.00,0.0121
1023.00,0.0123
1022.00,0.0125
1021.00,0.0128
1020.00,0.0130
1019.00,0.0132
1018.00,0.0133
1017.00,0.0134
1016.00,0.0133
1015.00,0.0132
1014.00,0.0132
1013.00,0.0132
1012.00,0.0132
1011.00,0.0131
1010.00,0.0131
1009.00,0.0133
1008.00,0.0135
1007.00,0.0141
1006.00,0.0149
1005.00,0.0160
1004.00,0.0177
1003.00,0.0200
1002.00,0.0231
1001.00,0.0269
1000.00,0.0309
999.00,0.0343
998.00,0.0359
997.00,0.0351
996.00,0.0323
995.00,0.0283
994.00,0.0241
993.00,0.0204
992.00,0.0175
991.00,0.0154
990.00,0.0140
989.00,0.0130
988.00,0.0124
987.00,0.0120
986.00,0.0119
985.00,0.0120
984.00,0.0124
983.00,0.0132
982.00,0.0143
981.00,0.0157
980.00,0.0177
979.00,0.0204
978.00,0.0239
977.00,0.0280
976.00,0.0325
975.00,0.0369
974.00,0.0403
973.00,0.0416
972.00,0.0404
971.00,0.0368
970.00,0.0316
969.00,0.0264
968.00,0.0218
967.00,0.0183
966.00,0.0157
965.00,0.0139
964.00,0.0126
963.00,0.0117
962.00,0.0109
961.00,0.0103
960.00,0.0098
959.00,0.0094
958.00,0.0091
957.00,0.0088
956.00,0.0085
955.00,0.0084
954.00,0.0082
953.00,0.0081
952.00,0.0080
951.00,0.0079
950.00,0.0079
949.00,0.0078
948.00,0.0079
947.00,0.0080
946.00,0.0082
945.00,0.0084
944.00,0.0087
943.00,0.0090
942.00,0.0093
941.00,0.0094
940.00,0.0093
939.00,0.0091
938.00,0.0087
937.00,0.0082
936.00,0.0077
935.00,0.0072
934.00,0.0068
933.00,0.0066
932.00,0.0064
931.00,0.0063
930.00,0.0063
929.00,0.0061
928.00,0.0060
927.00,0.0059
926.00,0.0060
925.00,0.0061
924.00,0.0061
923.00,0.0061
922.00,0.0060
921.00,0.0059
920.00,0.0059
919.00,0.0059
918.00,0.0060
917.00,0.0060
916.00,0.0061
915.00,0.0062
914.00,0.0064
913.00,0.0066
912.00,0.0067
911.00,0.0069
910.00,0.0071
909.00,0.0074
908.00,0.0077
907.00,0.0081
906.00,0.0088
905.00,0.0098
904.00,0.0111
903.00,0.0127
902.00,0.0145
901.00,0.0162
900.00,0.0174
899.00,0.0177
898.00,0.0170
897.00,0.0154
896.00,0.0136
895.00,0.0117
894.00,0.0103
893.00,0.0093
892.00,0.0086
891.00,0.0082
890.00,0.0080
889.00,0.0077
888.00,0.0075
887.00,0.0073
886.00,0.0071
885.00,0.0070
884.00,0.0070
883.00,0.0070
882.00,0.0071
881.00,0.0071
880.00,0.0071
879.00,0.0071
878.00,0.0071
877.00,0.0072
876.00,0.0072
875.00,0.0073
874.00,0.0074
873.00,0.0075
872.00,0.0075
871.00,0.0075
870.00,0.0075
869.00,0.0075
868.00,0.0075
867.00,0.0075
866.00,0.0076
865.00,0.0077
864.00,0.0078
863.00,0.0080
862.00,0.0081
861.00,0.0082
860.00,0.0083
859.00,0.0084
858.00,0.0084
857.00,0.0085
856.00,0.0085
855.00,0.0087
854.00,0.0089
853.00,0.0091
852.00,0.0095
851.00,0.0099
850.00,0.0104
849.00,0.0109
848.00,0.0117
847.00,0.0129
846.00,0.0149
845.00,0.0181
844.00,0.0227
843.00,0.0282
842.00,0.0329
841.00,0.0346
840.00,0.0325
839.00,0.0277
838.00,0.0223
837.00,0.0179
836.00,0.0151
835.00,0.0134
834.00,0.0124
833.00,0.0117
832.00,0.0112
831.00,0.0108
830.00,0.0105
829.00,0.0104
828.00,0.0102
827.00,0.0101
826.00,0.0099
825.00,0.0097
824.00,0.0097
823.00,0.0097
822.00,0.0098
821.00,0.0100
820.00,0.0102
819.00,0.0105
818.00,0.0110
817.00,0.0117
816.00,0.0125
815.00,0.0135
814.00,0.0148
813.00,0.0165
812.00,0.0184
811.00,0.0202
810.00,0.0217
809.00,0.0222
808.00,0.0217
807.00,0.0205
806.00,0.0188
805.00,0.0171
804.00,0.0156
803.00,0.0144
802.00,0.0135
801.00,0.0127
800.00,0.0120
799.00,0.0115
798.00,0.0111
797.00,0.0107
796.00,0.0104
795.00,0.0100
794.00,0.0095
793.00,0.0091
792.00,0.0087
791.00,0.0085
790.00,0.0082
789.00,0.0079
788.00,0.0076
787.00,0.0073
786.00,0.0071
785.00,0.0070
784.00,0.0069
783.00,0.0068
782.00,0.0067
781.00,0.0065
780.00,0.0063
779.00,0.0061
778.00,0.0060
777.00,0.0060
776.00,0.0060
775.00,0.0061
774.00,0.0062
773.00,0.0063
772.00,0.0063
771.00,0.0062
770.00,0.0062
769.00,0.0061
768.00,0.0061
767.00,0.0061
766.00,0.0061
765.00,0.0061
764.00,0.0061
763.00,0.0062
762.00,0.0062
761.00,0.0063
760.00,0.0063
759.00,0.0064
758.00,0.0064
757.00,0.0066
756.00,0.0068
755.00,0.0071
754.00,0.0074
753.00,0.0076
752.00,0.0077
751.00,0.0078
750.00,0.0079
749.00,0.0080
748.00,0.0080
747.00,0.0080
746.00,0.0080
745.00,0.0080
744.00,0.0080
743.00,0.0082
742.00,0.0086
741.00,0.0091
740.00,0.0097
739.00,0.0102
738.00,0.0106
737.00,0.0109
736.00,0.0111
735.00,0.0114
734.00,0.0117
733.00,0.0123
732.00,0.0130
731.00,0.0137
730.00,0.0143
729.00,0.0147
728.00,0.0148
727.00,0.0150
726.00,0.0151
725.00,0.0154
724.00,0.0159
723.00,0.0165
722.00,0.0171
721.00,0.0174
720.00,0.0171
719.00,0.0163
718.00,0.0152
717.00,0.0140
716.00,0.0131
715.00,0.0125
714.00,0.0121
713.00,0.0117
712.00,0.0114
711.00,0.0110
710.00,0.0107
709.00,0.0104
708.00,0.0102
707.00,0.0101
706.00,0.0101
705.00,0.0101
704.00,0.0099
703.00,0.0096
702.00,0.0093
701.00,0.0089
700.00,0.0087
699.00,0.0087
698.00,0.0087
697.00,0.0088
696.00,0.0090
695.00,0.0090
694.00,0.0090
693.00,0.0090
692.00,0.0090
691.00,0.0090
690.00,0.0091
689.00,0.0091
688.00,0.0092
687.00,0.0092
686.00,0.0093
685.00,0.0093
684.00,0.0091
683.00,0.0089
682.00,0.0087
681.00,0.0087
680.00,0.0087
679.00,0.0087
678.00,0.0086
677.00,0.0086
676.00,0.0087
675.00,0.0089
674.00,0.0092
673.00,0.0095
672.00,0.0098
671.00,0.0100
670.00,0.0101
669.00,0.0100
668.00,0.0096
667.00,0.0093
666.00,0.0091
665.00,0.0090
664.00,0.0089
663.00,0.0089
662.00,0.0088
661.00,0.0087
660.00,0.0084
659.00,0.0083
658.00,0.0082
657.00,0.0082
656.00,0.0082
655.00,0.0081
654.00,0.0080
653.00,0.0079
652.00,0.0079
651.00,0.0081
650.00,0.0082
649.00,0.0082
648.00,0.0081
647.00,0.0080
646.00,0.0079
645.00,0.0077
644.00,0.0076
643.00,0.0075
642.00,0.0074
641.00,0.0073
640.00,0.0073
639.00,0.0074
638.00,0.0077
637.00,0.0080
636.00,0.0082
635.00,0.0083
634.00,0.0082
633.00,0.0080
632.00,0.0079
631.00,0.0079
630.00,0.0079
629.00,0.0080
628.00,0.0080
627.00,0.0079
626.00,0.0078
625.00,0.0077
624.00,0.0076
623.00,0.0076
622.00,0.0076
621.00,0.0077
620.00,0.0078
619.00,0.0079
618.00,0.0079
617.00,0.0080
616.00,0.0080
615.00,0.0081
614.00,0.0080
613.00,0.0079
612.00,0.0079
611.00,0.0080
610.00,0.0081
609.00,0.0081
608.00,0.0078
607.00,0.0075
606.00,0.0072
605.00,0.0072
604.00,0.0074
603.00,0.0076
602.00,0.0076
601.00,0.0074
600.00,0.0071
599.00,0.0070
598.00,0.0072
597.00,0.0075
596.00,0.0079
595.00,0.0082
594.00,0.0083
593.00,0.0084
592.00,0.0084
591.00,0.0083
590.00,0.0082
589.00,0.0080
588.00,0.0078
587.00,0.0077
586.00,0.0076
585.00,0.0075
584.00,0.0075
583.00,0.0077
582.00,0.0079
581.00,0.0081
580.00,0.0083
579.00,0.0085
578.00,0.0086
577.00,0.0087
576.00,0.0087
575.00,0.0086
574.00,0.0085
573.00,0.0082
572.00,0.0079
571.00,0.0075
570.00,0.0074
569.00,0.0076
568.00,0.0081
567.00,0.0085
566.00,0.0088
565.00,0.0088
564.00,0.0088
563.00,0.0088
562.00,0.0088
561.00,0.0087
560.00,0.0085
559.00,0.0083
558.00,0.0082
557.00,0.0082
556.00,0.0084
555.00,0.0085
554.00,0.0083
553.00,0.0079
552.00,0.0075
551.00,0.0074
550.00,0.0076
549.00,0.0079
548.00,0.0081
547.00,0.0082
546.00,0.0081
545.00,0.0081
544.00,0.0082
543.00,0.0084
542.00,0.0087
541.00,0.0090
540.00,0.0094
539.00,0.0098
538.00,0.0102
537.00,0.0104
536.00,0.0105
535.00,0.0105
534.00,0.0104
533.00,0.0103
532.00,0.0104
531.00,0.0107
530.00,0.0113
529.00,0.0117
528.00,0.0117
527.00,0.0114
526.00,0.0109
525.00,0.0103
524.00,0.0098
523.00,0.0094
522.00,0.0093
521.00,0.0093
520.00,0.0092
519.00,0.0088
518.00,0.0083
517.00,0.0080
516.00,0.0080
515.00,0.0084
514.00,0.0087
513.00,0.0086
512.00,0.0083
511.00,0.0081
510.00,0.0082
509.00,0.0086
508.00,0.0091
507.00,0.0096
506.00,0.0100
505.00,0.0103
504.00,0.0104
503.00,0.0103
502.00,0.0102
501.00,0.0101
500.00,0.0099
499.00,0.0097
498.00,0.0096
497.00,0.0093
496.00,0.0088
495.00,0.0081
494.00,0.0076
493.00,0.0077
492.00,0.0081
491.00,0.0086
490.00,0.0087
489.00,0.0084
488.00,0.0078
487.00,0.0070
486.00,0.0064
485.00,0.0063
484.00,0.0071
483.00,0.0084
482.00,0.0096
481.00,0.0101
480.00,0.0099
479.00,0.0094
478.00,0.0091
477.00,0.0093
476.00,0.0099
475.00,0.0108
474.00,0.0118
473.00,0.0127
472.00,0.0134
471.00,0.0136
470.00,0.0134
469.00,0.0136
468.00,0.0144
467.00,0.0154
466.00,0.0158
465.00,0.0157
464.00,0.0160
463.00,0.0172
462.00,0.0190
461.00,0.0204
460.00,0.0210
459.00,0.0205
458.00,0.0193
457.00,0.0182
456.00,0.0174
455.00,0.0173
454.00,0.0174
453.00,0.0171
452.00,0.0160
451.00,0.0143
450.00,0.0125
