Created as New Dataset,Sample 010 By Administrator Date Friday, September 05 2025
cm-1,A
4000.00,0.0009
3999.00,0.0009
3998.00,0.0009
3997.00,0.0009
3996.00,0.0009
3995.00,0.0008
3994.00,0.0008
3993.00,0.0008
3992.00,0.0009
3991.00,0.0009
3990.00,0.0009
3989.00,0.0008
3988.00,0.0008
3987.00,0.0008
3986.00,0.0008
3985.00,0.0008
3984.00,0.0008
3983.00,0.0008
3982.00,0.0008
3981.00,0.0008
3980.00,0.0008
3979.00,0.0008
3978.00,0.0008
3977.00,0.0008
3976.00,0.0008
3975.00,0.0007
3974.00,0.0007
3973.00,0.0007
3972.00,0.0007
3971.00,0.0007
3970.00,0.0007
3969.00,0.0007
3968.00,0.0007
3967.00,0.0007
3966.00,0.0007
3965.00,0.0007
3964.00,0.0007
3963.00,0.0007
3962.00,0.0007
3961.00,0.0007
3960.00,0.0007
3959.00,0.0007
3958.00,0.0007
3957.00,0.0007
3956.00,0.0006
3955.00,0.0006
3954.00,0.0006
3953.00,0.0006
3952.00,0.0006
3951.00,0.0007
3950.00,0.0007
3949.00,0.0007
3948.00,0.0007
3947.00,0.0006
3946.00,0.0006
3945.00,0.0006
3944.00,0.0007
3943.00,0.0007
3942.00,0.0007
3941.00,0.0007
3940.00,0.0007
3939.00,0.0007
3938.00,0.0007
3937.00,0.0007
3936.00,0.0007
3935.00,0.0008
3934.00,0.0008
3933.00,0.0007
3932.00,0.0007
3931.00,0.0007
3930.00,0.0007
3929.00,0.0006
3928.00,0.0007
3927.00,0.0007
3926.00,0.0007
3925.00,0.0008
3924.00,0.0009
3923.00,0.0009
3922.00,0.0008
3921.00,0.0008
3920.00,0.0007
3919.00,0.0007
3918.00,0.0007
3917.00,0.0007
3916.00,0.0007
3915.00,0.0007
3914.00,0.0007
3913.00,0.0007
3912.00,0.0007
3911.00,0.0007
3910.00,0.0007
3909.00,0.0007
3908.00,0.0008
3907.00,0.0008
3906.00,0.0008
3905.00,0.0008
3904.00,0.0008
3903.00,0.0008
3902.00,0.0008
3901.00,0.0008
3900.00,0.0007
3899.00,0.0007
3898.00,0.0006
3897.00,0.0006
3896.00,0.0007
3895.00,0.0007
3894.00,0.0007
3893.00,0.0007
3892.00,0.0008
3891.00,0.0008
3890.00,0.0007
3889.00,0.0007
3888.00,0.0007
3887.00,0.0007
3886.00,0.0007
3885.00,0.0008
3884.00,0.0008
3883.00,0.0008
3882.00,0.0008
3881.00,0.0008
3880.00,0.0008
3879.00,0.0008
3878.00,0.0008
3877.00,0.0008
3876.00,0.0008
3875.00,0.0008
3874.00,0.0008
3873.00,0.0007
3872.00,0.0007
3871.00,0.0007
3870.00,0.0008
3869.00,0.0007
3868.00,0.0007
3867.00,0.0006
3866.00,0.0006
3865.00,0.0006
3864.00,0.0006
3863.00,0.0006
3862.00,0.0007
3861.00,0.0007
3860.00,0.0008
3859.00,0.0008
3858.00,0.0008
3857.00,0.0008
3856.00,0.0007
3855.00,0.0007
3854.00,0.0007
3853.00,0.0007
3852.00,0.0006
3851.00,0.0006
3850.00,0.0006
3849.00,0.0006
3848.00,0.0007
3847.00,0.0007
3846.00,0.0007
3845.00,0.0008
3844.00,0.0008
3843.00,0.0008
3842.00,0.0008
3841.00,0.0007
3840.00,0.0007
3839.00,0.0007
3838.00,0.0006
3837.00,0.0006
3836.00,0.0006
3835.00,0.0006
3834.00,0.0006
3833.00,0.0006
3832.00,0.0007
3831.00,0.0007
3830.00,0.0007
3829.00,0.0007
3828.00,0.0007
3827.00,0.0007
3826.00,0.0006
3825.00,0.0006
3824.00,0.0006
3823.00,0.0005
3822.00,0.0006
3821.00,0.0006
3820.00,0.0006
3819.00,0.0006
3818.00,0.0006
3817.00,0.0006
3816.00,0.0007
3815.00,0.0007
3814.00,0.0007
3813.00,0.0007
3812.00,0.0007
3811.00,0.0008
3810.00,0.0008
3809.00,0.0008
3808.00,0.0008
3807.00,0.0008
3806.00,0.0008
3805.00,0.0007
3804.00,0.0007
3803.00,0.0007
3802.00,0.0007
3801.00,0.0007
3800.00,0.0007
3799.00,0.0007
3798.00,0.0007
3797.00,0.0007
3796.00,0.0008
3795.00,0.0008
3794.00,0.0008
3793.00,0.0007
3792.00,0.0007
3791.00,0.0007
3790.00,0.0007
3789.00,0.0007
3788.00,0.0007
3787.00,0.0007
3786.00,0.0006
3785.00,0.0006
3784.00,0.0006
3783.00,0.0006
3782.00,0.0006
3781.00,0.0007
3780.00,0.0007
3779.00,0.0007
3778.00,0.0007
3777.00,0.0007
3776.00,0.0007
3775.00,0.0007
3774.00,0.0008
3773.00,0.0008
3772.00,0.0008
3771.00,0.0008
3770.00,0.0008
3769.00,0.0008
3768.00,0.0007
3767.00,0.0007
3766.00,0.0007
3765.00,0.0007
3764.00,0.0007
3763.00,0.0006
3762.00,0.0006
3761.00,0.0006
3760.00,0.0006
3759.00,0.0007
3758.00,0.0007
3757.00,0.0008
3756.00,0.0008
3755.00,0.0008
3754.00,0.0008
3753.00,0.0008
3752.00,0.0007
3751.00,0.0007
3750.00,0.0007
3749.00,0.0007
3748.00,0.0007
3747.00,0.0006
3746.00,0.0006
3745.00,0.0006
3744.00,0.0006
3743.00,0.0006
3742.00,0.0006
3741.00,0.0006
3740.00,0.0007
3739.00,0.0007
3738.00,0.0007
3737.00,0.0007
3736.00,0.0007
3735.00,0.0007
3734.00,0.0006
3733.00,0.0005
3732.00,0.0005
3731.00,0.0005
3730.00,0.0005
3729.00,0.0006
3728.00,0.0006
3727.00,0.0006
3726.00,0.0006
3725.00,0.0006
3724.00,0.0005
3723.00,0.0005
3722.00,0.0005
3721.00,0.0005
3720.00,0.0005
3719.00,0.0005
3718.00,0.0005
3717.00,0.0005
3716.00,0.0005
3715.00,0.0006
3714.00,0.0006
3713.00,0.0006
3712.00,0.0006
3711.00,0.0006
3710.00,0.0005
3709.00,0.0005
3708.00,0.0005
3707.00,0.0005
3706.00,0.0004
3705.00,0.0004
3704.00,0.0004
3703.00,0.0004
3702.00,0.0004
3701.00,0.0004
3700.00,0.0005
3699.00,0.0005
3698.00,0.0005
3697.00,0.0005
3696.00,0.0006
3695.00,0.0006
3694.00,0.0006
3693.00,0.0006
3692.00,0.0005
3691.00,0.0005
3690.00,0.0005
3689.00,0.0005
3688.00,0.0004
3687.00,0.0004
3686.00,0.0004
3685.00,0.0004
3684.00,0.0005
3683.00,0.0005
3682.00,0.0005
3681.00,0.0006
3680.00,0.0006
3679.00,0.0007
3678.00,0.0007
3677.00,0.0007
3676.00,0.0007
3675.00,0.0007
3674.00,0.0006
3673.00,0.0005
3672.00,0.0005
3671.00,0.0005
3670.00,0.0005
3669.00,0.0005
3668.00,0.0005
3667.00,0.0004
3666.00,0.0004
3665.00,0.0004
3664.00,0.0003
3663.00,0.0004
3662.00,0.0004
3661.00,0.0004
3660.00,0.0004
3659.00,0.0005
3658.00,0.0005
3657.00,0.0004
3656.00,0.0004
3655.00,0.0004
3654.00,0.0004
3653.00,0.0004
3652.00,0.0004
3651.00,0.0005
3650.00,0.0005
3649.00,0.0006
3648.00,0.0006
3647.00,0.0005
3646.00,0.0005
3645.00,0.0004
3644.00,0.0004
3643.00,0.0004
3642.00,0.0004
3641.00,0.0005
3640.00,0.0005
3639.00,0.0005
3638.00,0.0005
3637.00,0.0005
3636.00,0.0005
3635.00,0.0005
3634.00,0.0005
3633.00,0.0005
3632.00,0.0004
3631.00,0.0003
3630.00,0.0003
3629.00,0.0003
3628.00,0.0004
3627.00,0.0004
3626.00,0.0004
3625.00,0.0004
3624.00,0.0004
3623.00,0.0004
3622.00,0.0004
3621.00,0.0005
3620.00,0.0005
3619.00,0.0006
3618.00,0.0006
3617.00,0.0006
3616.00,0.0006
3615.00,0.0007
3614.00,0.0007
3613.00,0.0007
3612.00,0.0007
3611.00,0.0007
3610.00,0.0007
3609.00,0.0007
3608.00,0.0007
3607.00,0.0007
3606.00,0.0007
3605.00,0.0007
3604.00,0.0007
3603.00,0.0007
3602.00,0.0007
3601.00,0.0007
3600.00,0.0007
3599.00,0.0007
3598.00,0.0006
3597.00,0.0006
3596.00,0.0006
3595.00,0.0007
3594.00,0.0007
3593.00,0.0008
3592.00,0.0008
3591.00,0.0008
3590.00,0.0009
3589.00,0.0009
3588.00,0.0009
3587.00,0.0009
3586.00,0.0009
3585.00,0.0009
3584.00,0.0009
3583.00,0.0009
3582.00,0.0009
3581.00,0.0009
3580.00,0.0009
3579.00,0.0009
3578.00,0.0009
3577.00,0.0009
3576.00,0.0010
3575.00,0.0010
3574.00,0.0011
3573.00,0.0011
3572.00,0.0011
3571.00,0.0011
3570.00,0.0011
3569.00,0.0011
3568.00,0.0011
3567.00,0.0011
3566.00,0.0011
3565.00,0.0011
3564.00,0.0011
3563.00,0.0011
3562.00,0.0011
3561.00,0.0012
3560.00,0.0012
3559.00,0.0012
3558.00,0.0012
3557.00,0.0013
3556.00,0.0013
3555.00,0.0013
3554.00,0.0014
3553.00,0.0014
3552.00,0.0014
3551.00,0.0014
3550.00,0.0014
3549.00,0.0014
3548.00,0.0014
3547.00,0.0014
3546.00,0.0014
3545.00,0.0015
3544.00,0.0015
3543.00,0.0015
3542.00,0.0015
3541.00,0.0015
3540.00,0.0015
3539.00,0.0015
3538.00,0.0015
3537.00,0.0015
3536.00,0.0016
3535.00,0.0016
3534.00,0.0016
3533.00,0.0016
3532.00,0.0016
3531.00,0.0016
3530.00,0.0016
3529.00,0.0017
3528.00,0.0017
3527.00,0.0016
3526.00,0.0016
3525.00,0.0016
3524.00,0.0017
3523.00,0.0017
3522.00,0.0017
3521.00,0.0018
3520.00,0.0018
3519.00,0.0018
3518.00,0.0018
3517.00,0.0018
3516.00,0.0018
3515.00,0.0018
3514.00,0.0018
3513.00,0.0018
3512.00,0.0018
3511.00,0.0018
3510.00,0.0019
3509.00,0.0019
3508.00,0.0019
3507.00,0.0019
3506.00,0.0019
3505.00,0.0019
3504.00,0.0019
3503.00,0.0020
3502.00,0.0020
3501.00,0.0020
3500.00,0.0020
3499.00,0.0021
3498.00,0.0021
3497.00,0.0021
3496.00,0.0021
3495.00,0.0021
3494.00,0.0021
3493.00,0.0021
3492.00,0.0021
3491.00,0.0021
3490.00,0.0021
3489.00,0.0021
3488.00,0.0021
3487.00,0.0021
3486.00,0.0022
3485.00,0.0022
3484.00,0.0022
3483.00,0.0022
3482.00,0.0023
3481.00,0.0023
3480.00,0.0023
3479.00,0.0022
3478.00,0.0023
3477.00,0.0023
3476.00,0.0023
3475.00,0.0023
3474.00,0.0024
3473.00,0.0024
3472.00,0.0024
3471.00,0.0024
3470.00,0.0024
3469.00,0.0024
3468.00,0.0024
3467.00,0.0024
3466.00,0.0025
3465.00,0.0025
3464.00,0.0025
3463.00,0.0025
3462.00,0.0025
3461.00,0.0025
3460.00,0.0025
3459.00,0.0025
3458.00,0.0026
3457.00,0.0026
3456.00,0.0026
3455.00,0.0025
3454.00,0.0026
3453.00,0.0026
3452.00,0.0026
3451.00,0.0026
3450.00,0.0026
3449.00,0.0026
3448.00,0.0026
3447.00,0.0027
3446.00,0.0027
3445.00,0.0028
3444.00,0.0028
3443.00,0.0028
3442.00,0.0029
3441.00,0.0029
3440.00,0.0029
3439.00,0.0029
3438.00,0.0029
3437.00,0.0029
3436.00,0.0029
3435.00,0.0029
3434.00,0.0029
3433.00,0.0029
3432.00,0.0029
3431.00,0.0029
3430.00,0.0029
3429.00,0.0029
3428.00,0.0029
3427.00,0.0030
3426.00,0.0030
3425.00,0.0030
3424.00,0.0031
3423.00,0.0031
3422.00,0.0031
3421.00,0.0031
3420.00,0.0031
3419.00,0.0031
3418.00,0.0031
3417.00,0.0031
3416.00,0.0031
3415.00,0.0031
3414.00,0.0031
3413.00,0.0031
3412.00,0.0032
3411.00,0.0033
3410.00,0.0033
3409.00,0.0034
3408.00,0.0034
3407.00,0.0033
3406.00,0.0033
3405.00,0.0033
3404.00,0.0033
3403.00,0.0033
3402.00,0.0034
3401.00,0.0034
3400.00,0.0034
3399.00,0.0034
3398.00,0.0034
3397.00,0.0034
3396.00,0.0033
3395.00,0.0033
3394.00,0.0033
3393.00,0.0034
3392.00,0.0034
3391.00,0.0034
3390.00,0.0034
3389.00,0.0034
3388.00,0.0034
3387.00,0.0034
3386.00,0.0034
3385.00,0.0033
3384.00,0.0033
3383.00,0.0033
3382.00,0.0033
3381.00,0.0033
3380.00,0.0033
3379.00,0.0034
3378.00,0.0034
3377.00,0.0034
3376.00,0.0034
3375.00,0.0033
3374.00,0.0033
3373.00,0.0033
3372.00,0.0033
3371.00,0.0033
3370.00,0.0033
3369.00,0.0033
3368.00,0.0033
3367.00,0.0033
3366.00,0.0033
3365.00,0.0034
3364.00,0.0034
3363.00,0.0034
3362.00,0.0034
3361.00,0.0035
3360.00,0.0035
3359.00,0.0035
3358.00,0.0035
3357.00,0.0035
3356.00,0.0035
3355.00,0.0034
3354.00,0.0034
3353.00,0.0034
3352.00,0.0035
3351.00,0.0035
3350.00,0.0035
3349.00,0.0035
3348.00,0.0035
3347.00,0.0035
3346.00,0.0034
3345.00,0.0034
3344.00,0.0033
3343.00,0.0033
3342.00,0.0033
3341.00,0.0033
3340.00,0.0034
3339.00,0.0034
3338.00,0.0034
3337.00,0.0034
3336.00,0.0034
3335.00,0.0034
3334.00,0.0034
3333.00,0.0033
3332.00,0.0033
3331.00,0.0033
3330.00,0.0033
3329.00,0.0033
3328.00,0.0033
3327.00,0.0033
3326.00,0.0032
3325.00,0.0032
3324.00,0.0032
3323.00,0.0033
3322.00,0.0033
3321.00,0.0033
3320.00,0.0034
3319.00,0.0034
3318.00,0.0034
3317.00,0.0034
3316.00,0.0034
3315.00,0.0033
3314.00,0.0033
3313.00,0.0033
3312.00,0.0033
3311.00,0.0033
3310.00,0.0033
3309.00,0.0034
3308.00,0.0035
3307.00,0.0035
3306.00,0.0035
3305.00,0.0036
3304.00,0.0036
3303.00,0.0036
3302.00,0.0036
3301.00,0.0036
3300.00,0.0036
3299.00,0.0036
3298.00,0.0036
3297.00,0.0035
3296.00,0.0034
3295.00,0.0034
3294.00,0.0034
3293.00,0.0033
3292.00,0.0033
3291.00,0.0032
3290.00,0.0032
3289.00,0.0032
3288.00,0.0031
3287.00,0.0031
3286.00,0.0031
3285.00,0.0031
3284.00,0.0031
3283.00,0.0031
3282.00,0.0031
3281.00,0.0031
3280.00,0.0030
3279.00,0.0030
3278.00,0.0030
3277.00,0.0030
3276.00,0.0030
3275.00,0.0030
3274.00,0.0029
3273.00,0.0029
3272.00,0.0029
3271.00,0.0029
3270.00,0.0029
3269.00,0.0029
3268.00,0.0029
3267.00,0.0029
3266.00,0.0029
3265.00,0.0029
3264.00,0.0028
3263.00,0.0028
3262.00,0.0028
3261.00,0.0028
3260.00,0.0028
3259.00,0.0028
3258.00,0.0028
3257.00,0.0028
3256.00,0.0027
3255.00,0.0026
3254.00,0.0026
3253.00,0.0026
3252.00,0.0026
3251.00,0.0027
3250.00,0.0027
3249.00,0.0027
3248.00,0.0027
3247.00,0.0027
3246.00,0.0027
3245.00,0.0027
3244.00,0.0027
3243.00,0.0027
3242.00,0.0027
3241.00,0.0027
3240.00,0.0027
3239.00,0.0027
3238.00,0.0028
3237.00,0.0028
3236.00,0.0028
3235.00,0.0028
3234.00,0.0027
3233.00,0.0027
3232.00,0.0027
3231.00,0.0027
3230.00,0.0027
3229.00,0.0027
3228.00,0.0027
3227.00,0.0027
3226.00,0.0028
3225.00,0.0028
3224.00,0.0029
3223.00,0.0029
3222.00,0.0029
3221.00,0.0029
3220.00,0.0029
3219.00,0.0029
3218.00,0.0029
3217.00,0.0030
3216.00,0.0031
3215.00,0.0031
3214.00,0.0031
3213.00,0.0032
3212.00,0.0032
3211.00,0.0032
3210.00,0.0031
3209.00,0.0031
3208.00,0.0031
3207.00,0.0032
3206.00,0.0032
3205.00,0.0032
3204.00,0.0032
3203.00,0.0032
3202.00,0.0032
3201.00,0.0032
3200.00,0.0032
3199.00,0.0032
3198.00,0.0032
3197.00,0.0032
3196.00,0.0032
3195.00,0.0032
3194.00,0.0031
3193.00,0.0031
3192.00,0.0031
3191.00,0.0031
3190.00,0.0032
3189.00,0.0032
3188.00,0.0032
3187.00,0.0032
3186.00,0.0032
3185.00,0.0031
3184.00,0.0031
3183.00,0.0030
3182.00,0.0030
3181.00,0.0030
3180.00,0.0029
3179.00,0.0029
3178.00,0.0029
3177.00,0.0028
3176.00,0.0028
3175.00,0.0028
3174.00,0.0029
3173.00,0.0029
3172.00,0.0029
3171.00,0.0029
3170.00,0.0028
3169.00,0.0028
3168.00,0.0027
3167.00,0.0027
3166.00,0.0028
3165.00,0.0028
3164.00,0.0028
3163.00,0.0028
3162.00,0.0027
3161.00,0.0027
3160.00,0.0027
3159.00,0.0027
3158.00,0.0027
3157.00,0.0028
3156.00,0.0028
3155.00,0.0028
3154.00,0.0028
3153.00,0.0028
3152.00,0.0028
3151.00,0.0028
3150.00,0.0028
3149.00,0.0028
3148.00,0.0028
3147.00,0.0028
3146.00,0.0028
3145.00,0.0027
3144.00,0.0027
3143.00,0.0027
3142.00,0.0027
3141.00,0.0027
3140.00,0.0027
3139.00,0.0026
3138.00,0.0026
3137.00,0.0025
3136.00,0.0025
3135.00,0.0026
3134.00,0.0026
3133.00,0.0026
3132.00,0.0025
3131.00,0.0025
3130.00,0.0025
3129.00,0.0024
3128.00,0.0024
3127.00,0.0024
3126.00,0.0024
3125.00,0.0024
3124.00,0.0024
3123.00,0.0024
3122.00,0.0024
3121.00,0.0024
3120.00,0.0024
3119.00,0.0024
3118.00,0.0024
3117.00,0.0024
3116.00,0.0023
3115.00,0.0023
3114.00,0.0023
3113.00,0.0022
3112.00,0.0022
3111.00,0.0022
3110.00,0.0022
3109.00,0.0022
3108.00,0.0022
3107.00,0.0022
3106.00,0.0023
3105.00,0.0023
3104.00,0.0023
3103.00,0.0023
3102.00,0.0023
3101.00,0.0023
3100.00,0.0022
3099.00,0.0022
3098.00,0.0022
3097.00,0.0022
3096.00,0.0022
3095.00,0.0023
3094.00,0.0023
3093.00,0.0023
3092.00,0.0022
3091.00,0.0022
3090.00,0.0022
3089.00,0.0022
3088.00,0.0022
3087.00,0.0022
3086.00,0.0022
3085.00,0.0021
3084.00,0.0021
3083.00,0.0021
3082.00,0.0021
3081.00,0.0021
3080.00,0.0021
3079.00,0.0022
3078.00,0.0022
3077.00,0.0022
3076.00,0.0023
3075.00,0.0023
3074.00,0.0023
3073.00,0.0023
3072.00,0.0023
3071.00,0.0023
3070.00,0.0024
3069.00,0.0024
3068.00,0.0024
3067.00,0.0024
3066.00,0.0024
3065.00,0.0024
3064.00,0.0025
3063.00,0.0025
3062.00,0.0025
3061.00,0.0025
3060.00,0.0025
3059.00,0.0025
3058.00,0.0025
3057.00,0.0025
3056.00,0.0025
3055.00,0.0025
3054.00,0.0026
3053.00,0.0026
3052.00,0.0026
3051.00,0.0026
3050.00,0.0027
3049.00,0.0027
3048.00,0.0027
3047.00,0.0027
3046.00,0.0028
3045.00,0.0028
3044.00,0.0028
3043.00,0.0028
3042.00,0.0028
3041.00,0.0029
3040.00,0.0030
3039.00,0.0030
3038.00,0.0031
3037.00,0.0031
3036.00,0.0031
3035.00,0.0031
3034.00,0.0031
3033.00,0.0031
3032.00,0.0031
3031.00,0.0032
3030.00,0.0032
3029.00,0.0032
3028.00,0.0033
3027.00,0.0033
3026.00,0.0034
3025.00,0.0034
3024.00,0.0035
3023.00,0.0036
3022.00,0.0037
3021.00,0.0038
3020.00,0.0039
3019.00,0.0040
3018.00,0.0041
3017.00,0.0041
3016.00,0.0041
3015.00,0.0042
3014.00,0.0043
3013.00,0.0044
3012.00,0.0045
3011.00,0.0047
3010.00,0.0048
3009.00,0.0049
3008.00,0.0050
3007.00,0.0052
3006.00,0.0053
3005.00,0.0054
3004.00,0.0056
3003.00,0.0057
3002.00,0.0059
3001.00,0.0061
3000.00,0.0063
2999.00,0.0066
2998.00,0.0068
2997.00,0.0071
2996.00,0.0074
2995.00,0.0078
2994.00,0.0082
2993.00,0.0087
2992.00,0.0092
2991.00,0.0097
2990.00,0.0102
2989.00,0.0109
2988.00,0.0115
2987.00,0.0123
2986.00,0.0132
2985.00,0.0141
2984.00,0.0151
2983.00,0.0163
2982.00,0.0177
2981.00,0.0193
2980.00,0.0212
2979.00,0.0233
2978.00,0.0257
2977.00,0.0285
2976.00,0.0316
2975.00,0.0351
2974.00,0.0391
2973.00,0.0436
2972.00,0.0488
2971.00,0.0545
2970.00,0.0608
2969.00,0.0678
2968.00,0.0752
2967.00,0.0829
2966.00,0.0907
2965.00,0.0984
2964.00,0.1057
2963.00,0.1121
2962.00,0.1174
2961.00,0.1217
2960.00,0.1251
2959.00,0.1285
2958.00,0.1326
2957.00,0.1380
2956.00,0.1452
2955.00,0.1545
2954.00,0.1655
2953.00,0.1772
2952.00,0.1882
2951.00,0.1965
2950.00,0.2005
2949.00,0.1991
2948.00,0.1923
2947.00,0.1810
2946.00,0.1671
2945.00,0.1524
2944.00,0.1386
2943.00,0.1268
2942.00,0.1177
2941.00,0.1113
2940.00,0.1075
2939.00,0.1061
2938.00,0.1069
2937.00,0.1095
2936.00,0.1139
2935.00,0.1199
2934.00,0.1274
2933.00,0.1363
2932.00,0.1466
2931.00,0.1581
2930.00,0.1705
2929.00,0.1837
2928.00,0.1972
2927.00,0.2107
2926.00,0.2242
2925.00,0.2375
2924.00,0.2509
2923.00,0.2645
2922.00,0.2785
2921.00,0.2924
2920.00,0.3052
2919.00,0.3153
2918.00,0.3209
2917.00,0.3207
2916.00,0.3144
2915.00,0.3031
2914.00,0.2886
2913.00,0.2729
2912.00,0.2576
2911.00,0.2438
2910.00,0.2317
2909.00,0.2210
2908.00,0.2115
2907.00,0.2026
2906.00,0.1942
2905.00,0.1859
2904.00,0.1779
2903.00,0.1701
2902.00,0.1626
2901.00,0.1555
2900.00,0.1487
2899.00,0.1422
2898.00,0.1362
2897.00,0.1307
2896.00,0.1258
2895.00,0.1216
2894.00,0.1181
2893.00,0.1153
2892.00,0.1131
2891.00,0.1116
2890.00,0.1107
2889.00,0.1103
2888.00,0.1102
2887.00,0.1105
2886.00,0.1110
2885.00,0.1119
2884.00,0.1132
2883.00,0.1150
2882.00,0.1173
2881.00,0.1197
2880.00,0.1221
2879.00,0.1239
2878.00,0.1250
2877.00,0.1251
2876.00,0.1245
2875.00,0.1238
2874.00,0.1233
2873.00,0.1236
2872.00,0.1248
2871.00,0.1268
2870.00,0.1294
2869.00,0.1320
2868.00,0.1339
2867.00,0.1341
2866.00,0.1319
2865.00,0.1269
2864.00,0.1195
2863.00,0.1109
2862.00,0.1021
2861.00,0.0942
2860.00,0.0880
2859.00,0.0834
2858.00,0.0806
2857.00,0.0792
2856.00,0.0791
2855.00,0.0798
2854.00,0.0812
2853.00,0.0832
2852.00,0.0853
2851.00,0.0873
2850.00,0.0890
2849.00,0.0904
2848.00,0.0917
2847.00,0.0933
2846.00,0.0958
2845.00,0.0994
2844.00,0.1039
2843.00,0.1092
2842.00,0.1145
2841.00,0.1193
2840.00,0.1226
2839.00,0.1238
2838.00,0.1223
2837.00,0.1177
2836.00,0.1104
2835.00,0.1010
2834.00,0.0905
2833.00,0.0799
2832.00,0.0700
2831.00,0.0613
2830.00,0.0539
2829.00,0.0479
2828.00,0.0431
2827.00,0.0391
2826.00,0.0359
2825.00,0.0332
2824.00,0.0309
2823.00,0.0290
2822.00,0.0273
2821.00,0.0258
2820.00,0.0246
2819.00,0.0235
2818.00,0.0226
2817.00,0.0218
2816.00,0.0211
2815.00,0.0204
2814.00,0.0198
2813.00,0.0192
2812.00,0.0186
2811.00,0.0180
2810.00,0.0174
2809.00,0.0168
2808.00,0.0161
2807.00,0.0154
2806.00,0.0147
2805.00,0.0141
2804.00,0.0135
2803.00,0.0129
2802.00,0.0124
2801.00,0.0119
2800.00,0.0115
2799.00,0.0111
2798.00,0.0109
2797.00,0.0106
2796.00,0.0104
2795.00,0.0101
2794.00,0.0098
2793.00,0.0095
2792.00,0.0093
2791.00,0.0090
2790.00,0.0087
2789.00,0.0085
2788.00,0.0082
2787.00,0.0079
2786.00,0.0076
2785.00,0.0074
2784.00,0.0071
2783.00,0.0069
2782.00,0.0068
2781.00,0.0066
2780.00,0.0064
2779.00,0.0063
2778.00,0.0062
2777.00,0.0060
2776.00,0.0059
2775.00,0.0057
2774.00,0.0056
2773.00,0.0055
2772.00,0.0055
2771.00,0.0054
2770.00,0.0054
2769.00,0.0053
2768.00,0.0053
2767.00,0.0053
2766.00,0.0053
2765.00,0.0053
2764.00,0.0052
2763.00,0.0052
2762.00,0.0052
2761.00,0.0051
2760.00,0.0050
2759.00,0.0050
2758.00,0.0050
2757.00,0.0049
2756.00,0.0050
2755.00,0.0050
2754.00,0.0050
2753.00,0.0050
2752.00,0.0050
2751.00,0.0049
2750.00,0.0049
2749.00,0.0049
2748.00,0.0049
2747.00,0.0049
2746.00,0.0050
2745.00,0.0051
2744.00,0.0051
2743.00,0.0052
2742.00,0.0052
2741.00,0.0053
2740.00,0.0054
2739.00,0.0055
2738.00,0.0057
2737.00,0.0059
2736.00,0.0060
2735.00,0.0062
2734.00,0.0064
2733.00,0.0066
2732.00,0.0068
2731.00,0.0070
2730.00,0.0072
2729.00,0.0074
2728.00,0.0077
2727.00,0.0080
2726.00,0.0083
2725.00,0.0086
2724.00,0.0087
2723.00,0.0088
2722.00,0.0088
2721.00,0.0086
2720.00,0.0083
2719.00,0.0080
2718.00,0.0077
2717.00,0.0073
2716.00,0.0070
2715.00,0.0067
2714.00,0.0064
2713.00,0.0061
2712.00,0.0059
2711.00,0.0057
2710.00,0.0056
2709.00,0.0054
2708.00,0.0053
2707.00,0.0051
2706.00,0.0050
2705.00,0.0049
2704.00,0.0047
2703.00,0.0046
2702.00,0.0045
2701.00,0.0044
2700.00,0.0043
2699.00,0.0043
2698.00,0.0043
2697.00,0.0043
2696.00,0.0043
2695.00,0.0043
2694.00,0.0043
2693.00,0.0043
2692.00,0.0043
2691.00,0.0043
2690.00,0.0043
2689.00,0.0043
2688.00,0.0043
2687.00,0.0043
2686.00,0.0042
2685.00,0.0042
2684.00,0.0042
2683.00,0.0042
2682.00,0.0042
2681.00,0.0043
2680.00,0.0043
2679.00,0.0043
2678.00,0.0043
2677.00,0.0043
2676.00,0.0043
2675.00,0.0043
2674.00,0.0043
2673.00,0.0043
2672.00,0.0043
2671.00,0.0043
2670.00,0.0043
2669.00,0.0042
2668.00,0.0042
2667.00,0.0043
2666.00,0.0043
2665.00,0.0044
2664.00,0.0045
2663.00,0.0046
2662.00,0.0046
2661.00,0.0046
2660.00,0.0047
2659.00,0.0047
2658.00,0.0047
2657.00,0.0047
2656.00,0.0046
2655.00,0.0045
2654.00,0.0045
2653.00,0.0044
2652.00,0.0043
2651.00,0.0043
2650.00,0.0043
2649.00,0.0042
2648.00,0.0042
2647.00,0.0042
2646.00,0.0041
2645.00,0.0041
2644.00,0.0040
2643.00,0.0040
2642.00,0.0039
2641.00,0.0039
2640.00,0.0038
2639.00,0.0037
2638.00,0.0037
2637.00,0.0037
2636.00,0.0037
2635.00,0.0037
2634.00,0.0037
2633.00,0.0037
2632.00,0.0037
2631.00,0.0037
2630.00,0.0037
2629.00,0.0037
2628.00,0.0037
2627.00,0.0038
2626.00,0.0038
2625.00,0.0038
2624.00,0.0039
2623.00,0.0039
2622.00,0.0040
2621.00,0.0040
2620.00,0.0040
2619.00,0.0040
2618.00,0.0040
2617.00,0.0040
2616.00,0.0041
2615.00,0.0040
2614.00,0.0040
2613.00,0.0040
2612.00,0.0039
2611.00,0.0038
2610.00,0.0037
2609.00,0.0036
2608.00,0.0035
2607.00,0.0034
2606.00,0.0033
2605.00,0.0033
2604.00,0.0033
2603.00,0.0032
2602.00,0.0031
2601.00,0.0030
2600.00,0.0029
2599.00,0.0029
2598.00,0.0030
2597.00,0.0030
2596.00,0.0031
2595.00,0.0031
2594.00,0.0031
2593.00,0.0032
2592.00,0.0033
2591.00,0.0034
2590.00,0.0034
2589.00,0.0035
2588.00,0.0036
2587.00,0.0036
2586.00,0.0037
2585.00,0.0037
2584.00,0.0038
2583.00,0.0039
2582.00,0.0040
2581.00,0.0040
2580.00,0.0040
2579.00,0.0039
2578.00,0.0037
2577.00,0.0036
2576.00,0.0034
2575.00,0.0032
2574.00,0.0030
2573.00,0.0029
2572.00,0.0029
2571.00,0.0028
2570.00,0.0027
2569.00,0.0026
2568.00,0.0025
2567.00,0.0024
2566.00,0.0023
2565.00,0.0023
2564.00,0.0023
2563.00,0.0024
2562.00,0.0024
2561.00,0.0024
2560.00,0.0023
2559.00,0.0023
2558.00,0.0022
2557.00,0.0022
2556.00,0.0022
2555.00,0.0021
2554.00,0.0020
2553.00,0.0020
2552.00,0.0020
2551.00,0.0020
2550.00,0.0020
2549.00,0.0020
2548.00,0.0019
2547.00,0.0018
2546.00,0.0017
2545.00,0.0016
2544.00,0.0016
2543.00,0.0016
2542.00,0.0015
2541.00,0.0015
2540.00,0.0016
2539.00,0.0016
2538.00,0.0017
2537.00,0.0017
2536.00,0.0016
2535.00,0.0016
2534.00,0.0016
2533.00,0.0016
2532.00,0.0015
2531.00,0.0015
2530.00,0.0014
2529.00,0.0014
2528.00,0.0014
2527.00,0.0014
2526.00,0.0014
2525.00,0.0014
2524.00,0.0014
2523.00,0.0014
2522.00,0.0013
2521.00,0.0012
2520.00,0.0012
2519.00,0.0012
2518.00,0.0011
2517.00,0.0011
2516.00,0.0010
2515.00,0.0009
2514.00,0.0009
2513.00,0.0009
2512.00,0.0010
2511.00,0.0010
2510.00,0.0011
2509.00,0.0011
2508.00,0.0011
2507.00,0.0010
2506.00,0.0010
2505.00,0.0009
2504.00,0.0008
2503.00,0.0008
2502.00,0.0008
2501.00,0.0008
2500.00,0.0008
2499.00,0.0009
2498.00,0.0009
2497.00,0.0010
2496.00,0.0010
2495.00,0.0010
2494.00,0.0010
2493.00,0.0010
2492.00,0.0010
2491.00,0.0010
2490.00,0.0009
2489.00,0.0009
2488.00,0.0009
2487.00,0.0009
2486.00,0.0009
2485.00,0.0008
2484.00,0.0008
2483.00,0.0008
2482.00,0.0008
2481.00,0.0008
2480.00,0.0008
2479.00,0.0008
2478.00,0.0008
2477.00,0.0008
2476.00,0.0008
2475.00,0.0008
2474.00,0.0009
2473.00,0.0009
2472.00,0.0009
2471.00,0.0008
2470.00,0.0008
2469.00,0.0007
2468.00,0.0007
2467.00,0.0007
2466.00,0.0007
2465.00,0.0008
2464.00,0.0008
2463.00,0.0009
2462.00,0.0009
2461.00,0.0010
2460.00,0.0010
2459.00,0.0010
2458.00,0.0010
2457.00,0.0010
2456.00,0.0010
2455.00,0.0010
2454.00,0.0011
2453.00,0.0011
2452.00,0.0011
2451.00,0.0011
2450.00,0.0010
2449.00,0.0010
2448.00,0.0009
2447.00,0.0009
2446.00,0.0010
2445.00,0.0011
2444.00,0.0011
2443.00,0.0012
2442.00,0.0011
2441.00,0.0011
2440.00,0.0010
2439.00,0.0010
2438.00,0.0009
2437.00,0.0009
2436.00,0.0010
2435.00,0.0010
2434.00,0.0011
2433.00,0.0011
2432.00,0.0011
2431.00,0.0012
2430.00,0.0011
2429.00,0.0011
2428.00,0.0011
2427.00,0.0011
2426.00,0.0011
2425.00,0.0011
2424.00,0.0010
2423.00,0.0010
2422.00,0.0009
2421.00,0.0009
2420.00,0.0009
2419.00,0.0009
2418.00,0.0008
2417.00,0.0008
2416.00,0.0008
2415.00,0.0008
2414.00,0.0009
2413.00,0.0010
2412.00,0.0011
2411.00,0.0010
2410.00,0.0010
2409.00,0.0010
2408.00,0.0009
2407.00,0.0008
2406.00,0.0008
2405.00,0.0007
2404.00,0.0007
2403.00,0.0006
2402.00,0.0006
2401.00,0.0006
2400.00,0.0007
2399.00,0.0007
2398.00,0.0007
2397.00,0.0007
2396.00,0.0007
2395.00,0.0007
2394.00,0.0007
2393.00,0.0006
2392.00,0.0006
2391.00,0.0006
2390.00,0.0006
2389.00,0.0007
2388.00,0.0007
2387.00,0.0007
2386.00,0.0006
2385.00,0.0005
2384.00,0.0004
2383.00,0.0003
2382.00,0.0001
2381.00,0.0000
2380.00,-0.0000
2379.00,-0.0000
2378.00,0.0000
2377.00,0.0001
2376.00,0.0001
2375.00,0.0001
2374.00,0.0000
2373.00,-0.0000
2372.00,-0.0001
2371.00,-0.0001
2370.00,-0.0001
2369.00,-0.0002
2368.00,-0.0002
2367.00,-0.0002
2366.00,-0.0002
2365.00,-0.0001
2364.00,-0.0001
2363.00,-0.0001
2362.00,-0.0000
2361.00,-0.0000
2360.00,-0.0000
2359.00,-0.0000
2358.00,-0.0000
2357.00,-0.0000
2356.00,0.0000
2355.00,0.0000
2354.00,0.0001
2353.00,0.0000
2352.00,0.0000
2351.00,0.0000
2350.00,0.0000
2349.00,0.0001
2348.00,0.0001
2347.00,0.0002
2346.00,0.0001
2345.00,0.0001
2344.00,0.0002
2343.00,0.0002
2342.00,0.0003
2341.00,0.0003
2340.00,0.0004
2339.00,0.0004
2338.00,0.0004
2337.00,0.0004
2336.00,0.0004
2335.00,0.0004
2334.00,0.0004
2333.00,0.0003
2332.00,0.0003
2331.00,0.0003
2330.00,0.0004
2329.00,0.0005
2328.00,0.0007
2327.00,0.0011
2326.00,0.0014
2325.00,0.0017
2324.00,0.0018
2323.00,0.0017
2322.00,0.0015
2321.00,0.0014
2320.00,0.0012
2319.00,0.0012
2318.00,0.0011
2317.00,0.0011
2316.00,0.0011
2315.00,0.0010
2314.00,0.0008
2313.00,0.0007
2312.00,0.0006
2311.00,0.0005
2310.00,0.0005
2309.00,0.0006
2308.00,0.0007
2307.00,0.0008
2306.00,0.0009
2305.00,0.0009
2304.00,0.0009
2303.00,0.0009
2302.00,0.0009
2301.00,0.0009
2300.00,0.0009
2299.00,0.0009
2298.00,0.0009
2297.00,0.0010
2296.00,0.0012
2295.00,0.0013
2294.00,0.0013
2293.00,0.0014
2292.00,0.0015
2291.00,0.0015
2290.00,0.0016
2289.00,0.0017
2288.00,0.0018
2287.00,0.0018
2286.00,0.0018
2285.00,0.0018
2284.00,0.0017
2283.00,0.0017
2282.00,0.0016
2281.00,0.0015
2280.00,0.0015
2279.00,0.0014
2278.00,0.0013
2277.00,0.0013
2276.00,0.0012
2275.00,0.0013
2274.00,0.0013
2273.00,0.0013
2272.00,0.0012
2271.00,0.0011
2270.00,0.0011
2269.00,0.0012
2268.00,0.0013
2267.00,0.0014
2266.00,0.0014
2265.00,0.0014
2264.00,0.0014
2263.00,0.0014
2262.00,0.0014
2261.00,0.0013
2260.00,0.0013
2259.00,0.0014
2258.00,0.0014
2257.00,0.0014
2256.00,0.0013
2255.00,0.0010
2254.00,0.0009
2253.00,0.0009
2252.00,0.0010
2251.00,0.0011
2250.00,0.0011
2249.00,0.0010
2248.00,0.0009
2247.00,0.0007
2246.00,0.0007
2245.00,0.0007
2244.00,0.0007
2243.00,0.0008
2242.00,0.0009
2241.00,0.0010
2240.00,0.0011
2239.00,0.0011
2238.00,0.0010
2237.00,0.0010
2236.00,0.0011
2235.00,0.0012
2234.00,0.0012
2233.00,0.0011
2232.00,0.0009
2231.00,0.0008
2230.00,0.0007
2229.00,0.0007
2228.00,0.0007
2227.00,0.0007
2226.00,0.0008
2225.00,0.0008
2224.00,0.0009
2223.00,0.0009
2222.00,0.0009
2221.00,0.0008
2220.00,0.0007
2219.00,0.0005
2218.00,0.0005
2217.00,0.0006
2216.00,0.0006
2215.00,0.0006
2214.00,0.0006
2213.00,0.0006
2212.00,0.0006
2211.00,0.0006
2210.00,0.0004
2209.00,0.0003
2208.00,0.0002
2207.00,0.0003
2206.00,0.0004
2205.00,0.0006
2204.00,0.0008
2203.00,0.0007
2202.00,0.0006
2201.00,0.0005
2200.00,0.0004
2199.00,0.0004
2198.00,0.0005
2197.00,0.0007
2196.00,0.0010
2195.00,0.0013
2194.00,0.0015
2193.00,0.0016
2192.00,0.0014
2191.00,0.0011
2190.00,0.0010
2189.00,0.0010
2188.00,0.0011
2187.00,0.0012
2186.00,0.0011
2185.00,0.0010
2184.00,0.0008
2183.00,0.0007
2182.00,0.0007
2181.00,0.0006
2180.00,0.0006
2179.00,0.0005
2178.00,0.0005
2177.00,0.0005
2176.00,0.0005
2175.00,0.0004
2174.00,0.0004
2173.00,0.0005
2172.00,0.0006
2171.00,0.0007
2170.00,0.0006
2169.00,0.0007
2168.00,0.0008
2167.00,0.0010
2166.00,0.0014
2165.00,0.0017
2164.00,0.0020
2163.00,0.0022
2162.00,0.0020
2161.00,0.0013
2160.00,-0.0001
2159.00,-0.0016
2158.00,-0.0028
2157.00,-0.0034
2156.00,-0.0034
2155.00,-0.0032
2154.00,-0.0027
2153.00,-0.0022
2152.00,-0.0018
2151.00,-0.0016
2150.00,-0.0015
2149.00,-0.0014
2148.00,-0.0014
2147.00,-0.0014
2146.00,-0.0014
2145.00,-0.0014
2144.00,-0.0014
2143.00,-0.0014
2142.00,-0.0014
2141.00,-0.0013
2140.00,-0.0011
2139.00,-0.0012
2138.00,-0.0013
2137.00,-0.0016
2136.00,-0.0018
2135.00,-0.0020
2134.00,-0.0020
2133.00,-0.0019
2132.00,-0.0017
2131.00,-0.0015
2130.00,-0.0013
2129.00,-0.0012
2128.00,-0.0010
2127.00,-0.0009
2126.00,-0.0008
2125.00,-0.0006
2124.00,-0.0004
2123.00,-0.0003
2122.00,-0.0003
2121.00,-0.0003
2120.00,-0.0003
2119.00,-0.0003
2118.00,-0.0002
2117.00,-0.0002
2116.00,-0.0001
2115.00,-0.0001
2114.00,-0.0000
2113.00,0.0000
2112.00,-0.0000
2111.00,-0.0000
2110.00,-0.0001
2109.00,-0.0001
2108.00,-0.0002
2107.00,-0.0002
2106.00,-0.0002
2105.00,-0.0002
2104.00,-0.0001
2103.00,-0.0000
2102.00,0.0000
2101.00,0.0001
2100.00,0.0000
2099.00,-0.0001
2098.00,-0.0002
2097.00,-0.0003
2096.00,-0.0004
2095.00,-0.0005
2094.00,-0.0006
2093.00,-0.0006
2092.00,-0.0005
2091.00,-0.0005
2090.00,-0.0004
2089.00,-0.0003
2088.00,-0.0002
2087.00,-0.0001
2086.00,0.0001
2085.00,0.0002
2084.00,0.0003
2083.00,0.0003
2082.00,0.0002
2081.00,0.0001
2080.00,0.0001
2079.00,0.0001
2078.00,0.0002
2077.00,0.0002
2076.00,0.0002
2075.00,0.0002
2074.00,0.0002
2073.00,0.0002
2072.00,0.0003
2071.00,0.0002
2070.00,0.0002
2069.00,0.0001
2068.00,-0.0000
2067.00,-0.0000
2066.00,0.0000
2065.00,0.0000
2064.00,0.0000
2063.00,-0.0001
2062.00,-0.0001
2061.00,-0.0001
2060.00,-0.0001
2059.00,-0.0001
2058.00,-0.0001
2057.00,-0.0001
2056.00,-0.0001
2055.00,-0.0001
2054.00,0.0001
2053.00,0.0004
2052.00,0.0008
2051.00,0.0010
2050.00,0.0008
2049.00,0.0005
2048.00,0.0002
2047.00,0.0001
2046.00,-0.0001
2045.00,-0.0003
2044.00,-0.0003
2043.00,-0.0003
2042.00,-0.0002
2041.00,-0.0001
2040.00,-0.0000
2039.00,0.0002
2038.00,0.0004
2037.00,0.0006
2036.00,0.0004
2035.00,0.0001
2034.00,-0.0003
2033.00,-0.0007
2032.00,-0.0010
2031.00,-0.0012
2030.00,-0.0014
2029.00,-0.0014
2028.00,-0.0013
2027.00,-0.0011
2026.00,-0.0011
2025.00,-0.0012
2024.00,-0.0014
2023.00,-0.0016
2022.00,-0.0016
2021.00,-0.0014
2020.00,-0.0011
2019.00,-0.0009
2018.00,-0.0008
2017.00,-0.0008
2016.00,-0.0008
2015.00,-0.0008
2014.00,-0.0008
2013.00,-0.0006
2012.00,-0.0005
2011.00,-0.0005
2010.00,-0.0008
2009.00,-0.0011
2008.00,-0.0014
2007.00,-0.0016
2006.00,-0.0017
2005.00,-0.0016
2004.00,-0.0015
2003.00,-0.0014
2002.00,-0.0013
2001.00,-0.0012
2000.00,-0.0011
1999.00,-0.0012
1998.00,-0.0014
1997.00,-0.0015
1996.00,-0.0015
1995.00,-0.0014
1994.00,-0.0012
1993.00,-0.0011
1992.00,-0.0011
1991.00,-0.0011
1990.00,-0.0011
1989.00,-0.0011
1988.00,-0.0010
1987.00,-0.0007
1986.00,-0.0003
1985.00,-0.0001
1984.00,0.0000
1983.00,0.0001
1982.00,0.0003
1981.00,0.0005
1980.00,0.0005
1979.00,0.0003
1978.00,-0.0001
1977.00,-0.0005
1976.00,-0.0008
1975.00,-0.0011
1974.00,-0.0013
1973.00,-0.0015
1972.00,-0.0015
1971.00,-0.0015
1970.00,-0.0014
1969.00,-0.0013
1968.00,-0.0011
1967.00,-0.0011
1966.00,-0.0011
1965.00,-0.0012
1964.00,-0.0014
1963.00,-0.0016
1962.00,-0.0018
1961.00,-0.0019
1960.00,-0.0020
1959.00,-0.0021
1958.00,-0.0019
1957.00,-0.0017
1956.00,-0.0014
1955.00,-0.0013
1954.00,-0.0013
1953.00,-0.0014
1952.00,-0.0014
1951.00,-0.0015
1950.00,-0.0015
1949.00,-0.0015
1948.00,-0.0014
1947.00,-0.0014
1946.00,-0.0013
1945.00,-0.0011
1944.00,-0.0010
1943.00,-0.0009
1942.00,-0.0009
1941.00,-0.0009
1940.00,-0.0010
1939.00,-0.0011
1938.00,-0.0012
1937.00,-0.0012
1936.00,-0.0012
1935.00,-0.0011
1934.00,-0.0011
1933.00,-0.0011
1932.00,-0.0011
1931.00,-0.0011
1930.00,-0.0011
1929.00,-0.0010
1928.00,-0.0010
1927.00,-0.0009
1926.00,-0.0008
1925.00,-0.0007
1924.00,-0.0006
1923.00,-0.0006
1922.00,-0.0006
1921.00,-0.0007
1920.00,-0.0006
1919.00,-0.0005
1918.00,-0.0004
1917.00,-0.0005
1916.00,-0.0006
1915.00,-0.0007
1914.00,-0.0007
1913.00,-0.0006
1912.00,-0.0005
1911.00,-0.0004
1910.00,-0.0003
1909.00,-0.0002
1908.00,-0.0002
1907.00,-0.0002
1906.00,-0.0003
1905.00,-0.0002
1904.00,-0.0002
1903.00,-0.0001
1902.00,-0.0001
1901.00,-0.0001
1900.00,-0.0001
1899.00,-0.0001
1898.00,-0.0001
1897.00,-0.0002
1896.00,-0.0002
1895.00,-0.0002
1894.00,-0.0002
1893.00,-0.0001
1892.00,0.0000
1891.00,0.0000
1890.00,0.0000
1889.00,0.0000
1888.00,0.0000
1887.00,0.0001
1886.00,0.0001
1885.00,0.0001
1884.00,0.0000
1883.00,0.0000
1882.00,0.0000
1881.00,-0.0000
1880.00,-0.0001
1879.00,-0.0002
1878.00,-0.0003
1877.00,-0.0004
1876.00,-0.0004
1875.00,-0.0003
1874.00,-0.0002
1873.00,-0.0002
1872.00,-0.0002
1871.00,-0.0002
1870.00,-0.0002
1869.00,-0.0001
1868.00,-0.0000
1867.00,0.0000
1866.00,0.0000
1865.00,0.0000
1864.00,0.0000
1863.00,0.0000
1862.00,0.0000
1861.00,-0.0000
1860.00,-0.0001
1859.00,-0.0001
1858.00,-0.0001
1857.00,0.0000
1856.00,0.0001
1855.00,0.0001
1854.00,0.0001
1853.00,0.0001
1852.00,0.0001
1851.00,0.0001
1850.00,0.0001
1849.00,0.0001
1848.00,-0.0000
1847.00,-0.0001
1846.00,-0.0003
1845.00,-0.0003
1844.00,-0.0002
1843.00,-0.0001
1842.00,-0.0001
1841.00,-0.0000
1840.00,0.0000
1839.00,0.0001
1838.00,0.0001
1837.00,0.0002
1836.00,0.0002
1835.00,0.0003
1834.00,0.0003
1833.00,0.0003
1832.00,0.0003
1831.00,0.0003
1830.00,0.0003
1829.00,0.0002
1828.00,0.0002
1827.00,0.0002
1826.00,0.0003
1825.00,0.0004
1824.00,0.0004
1823.00,0.0004
1822.00,0.0003
1821.00,0.0002
1820.00,0.0002
1819.00,0.0001
1818.00,0.0000
1817.00,-0.0000
1816.00,0.0000
1815.00,0.0000
1814.00,0.0001
1813.00,0.0001
1812.00,0.0001
1811.00,0.0002
1810.00,0.0002
1809.00,0.0003
1808.00,0.0003
1807.00,0.0002
1806.00,0.0003
1805.00,0.0003
1804.00,0.0004
1803.00,0.0004
1802.00,0.0003
1801.00,0.0003
1800.00,0.0003
1799.00,0.0003
1798.00,0.0003
1797.00,0.0004
1796.00,0.0004
1795.00,0.0004
1794.00,0.0004
1793.00,0.0005
1792.00,0.0005
1791.00,0.0005
1790.00,0.0005
1789.00,0.0005
1788.00,0.0006
1787.00,0.0006
1786.00,0.0007
1785.00,0.0007
1784.00,0.0007
1783.00,0.0007
1782.00,0.0006
1781.00,0.0006
1780.00,0.0006
1779.00,0.0007
1778.00,0.0007
1777.00,0.0007
1776.00,0.0007
1775.00,0.0007
1774.00,0.0007
1773.00,0.0007
1772.00,0.0008
1771.00,0.0008
1770.00,0.0008
1769.00,0.0009
1768.00,0.0009
1767.00,0.0009
1766.00,0.0009
1765.00,0.0009
1764.00,0.0009
1763.00,0.0010
1762.00,0.0010
1761.00,0.0011
1760.00,0.0012
1759.00,0.0011
1758.00,0.0011
1757.00,0.0012
1756.00,0.0012
1755.00,0.0013
1754.00,0.0013
1753.00,0.0014
1752.00,0.0015
1751.00,0.0017
1750.00,0.0018
1749.00,0.0019
1748.00,0.0020
1747.00,0.0022
1746.00,0.0023
1745.00,0.0024
1744.00,0.0026
1743.00,0.0027
1742.00,0.0028
1741.00,0.0029
1740.00,0.0030
1739.00,0.0031
1738.00,0.0031
1737.00,0.0032
1736.00,0.0032
1735.00,0.0031
1734.00,0.0030
1733.00,0.0030
1732.00,0.0030
1731.00,0.0031
1730.00,0.0031
1729.00,0.0031
1728.00,0.0030
1727.00,0.0029
1726.00,0.0029
1725.00,0.0028
1724.00,0.0028
1723.00,0.0027
1722.00,0.0026
1721.00,0.0026
1720.00,0.0025
1719.00,0.0025
1718.00,0.0024
1717.00,0.0024
1716.00,0.0024
1715.00,0.0024
1714.00,0.0023
1713.00,0.0022
1712.00,0.0022
1711.00,0.0021
1710.00,0.0021
1709.00,0.0021
1708.00,0.0022
1707.00,0.0022
1706.00,0.0022
1705.00,0.0022
1704.00,0.0022
1703.00,0.0022
1702.00,0.0022
1701.00,0.0023
1700.00,0.0024
1699.00,0.0024
1698.00,0.0024
1697.00,0.0024
1696.00,0.0025
1695.00,0.0026
1694.00,0.0026
1693.00,0.0026
1692.00,0.0026
1691.00,0.0026
1690.00,0.0026
1689.00,0.0026
1688.00,0.0027
1687.00,0.0028
1686.00,0.0029
1685.00,0.0029
1684.00,0.0030
1683.00,0.0030
1682.00,0.0030
1681.00,0.0030
1680.00,0.0031
1679.00,0.0032
1678.00,0.0032
1677.00,0.0033
1676.00,0.0033
1675.00,0.0033
1674.00,0.0032
1673.00,0.0032
1672.00,0.0032
1671.00,0.0033
1670.00,0.0033
1669.00,0.0034
1668.00,0.0034
1667.00,0.0035
1666.00,0.0036
1665.00,0.0036
1664.00,0.0037
1663.00,0.0037
1662.00,0.0037
1661.00,0.0037
1660.00,0.0037
1659.00,0.0037
1658.00,0.0037
1657.00,0.0038
1656.00,0.0039
1655.00,0.0039
1654.00,0.0040
1653.00,0.0040
1652.00,0.0042
1651.00,0.0042
1650.00,0.0043
1649.00,0.0044
1648.00,0.0045
1647.00,0.0045
1646.00,0.0046
1645.00,0.0047
1644.00,0.0047
1643.00,0.0047
1642.00,0.0047
1641.00,0.0048
1640.00,0.0049
1639.00,0.0049
1638.00,0.0050
1637.00,0.0050
1636.00,0.0050
1635.00,0.0049
1634.00,0.0049
1633.00,0.0048
1632.00,0.0047
1631.00,0.0046
1630.00,0.0046
1629.00,0.0045
1628.00,0.0044
1627.00,0.0044
1626.00,0.0043
1625.00,0.0043
1624.00,0.0042
1623.00,0.0041
1622.00,0.0040
1621.00,0.0040
1620.00,0.0040
1619.00,0.0039
1618.00,0.0039
1617.00,0.0038
1616.00,0.0038
1615.00,0.0039
1614.00,0.0039
1613.00,0.0038
1612.00,0.0038
1611.00,0.0038
1610.00,0.0037
1609.00,0.0037
1608.00,0.0038
1607.00,0.0038
1606.00,0.0038
1605.00,0.0038
1604.00,0.0038
1603.00,0.0038
1602.00,0.0038
1601.00,0.0037
1600.00,0.0037
1599.00,0.0036
1598.00,0.0036
1597.00,0.0036
1596.00,0.0037
1595.00,0.0037
1594.00,0.0037
1593.00,0.0038
1592.00,0.0038
1591.00,0.0038
1590.00,0.0039
1589.00,0.0039
1588.00,0.0040
1587.00,0.0041
1586.00,0.0042
1585.00,0.0043
1584.00,0.0044
1583.00,0.0045
1582.00,0.0047
1581.00,0.0049
1580.00,0.0051
1579.00,0.0053
1578.00,0.0054
1577.00,0.0055
1576.00,0.0055
1575.00,0.0055
1574.00,0.0054
1573.00,0.0053
1572.00,0.0053
1571.00,0.0053
1570.00,0.0052
1569.00,0.0052
1568.00,0.0052
1567.00,0.0052
1566.00,0.0051
1565.00,0.0050
1564.00,0.0049
1563.00,0.0049
1562.00,0.0048
1561.00,0.0047
1560.00,0.0046
1559.00,0.0044
1558.00,0.0044
1557.00,0.0046
1556.00,0.0048
1555.00,0.0049
1554.00,0.0050
1553.00,0.0050
1552.00,0.0050
1551.00,0.0051
1550.00,0.0051
1549.00,0.0052
1548.00,0.0053
1547.00,0.0054
1546.00,0.0056
1545.00,0.0058
1544.00,0.0061
1543.00,0.0063
1542.00,0.0063
1541.00,0.0063
1540.00,0.0062
1539.00,0.0061
1538.00,0.0059
1537.00,0.0057
1536.00,0.0056
1535.00,0.0055
1534.00,0.0052
1533.00,0.0051
1532.00,0.0049
1531.00,0.0048
1530.00,0.0047
1529.00,0.0047
1528.00,0.0047
1527.00,0.0046
1526.00,0.0046
1525.00,0.0046
1524.00,0.0046
1523.00,0.0046
1522.00,0.0045
1521.00,0.0046
1520.00,0.0047
1519.00,0.0048
1518.00,0.0048
1517.00,0.0049
1516.00,0.0050
1515.00,0.0050
1514.00,0.0050
1513.00,0.0051
1512.00,0.0052
1511.00,0.0053
1510.00,0.0053
1509.00,0.0054
1508.00,0.0055
1507.00,0.0055
1506.00,0.0055
1505.00,0.0057
1504.00,0.0059
1503.00,0.0060
1502.00,0.0062
1501.00,0.0064
1500.00,0.0066
1499.00,0.0068
1498.00,0.0070
1497.00,0.0073
1496.00,0.0076
1495.00,0.0078
1494.00,0.0080
1493.00,0.0083
1492.00,0.0087
1491.00,0.0091
1490.00,0.0095
1489.00,0.0101
1488.00,0.0106
1487.00,0.0111
1486.00,0.0116
1485.00,0.0122
1484.00,0.0129
1483.00,0.0136
1482.00,0.0145
1481.00,0.0157
1480.00,0.0170
1479.00,0.0183
1478.00,0.0199
1477.00,0.0220
1476.00,0.0246
1475.00,0.0276
1474.00,0.0317
1473.00,0.0376
1472.00,0.0446
1471.00,0.0514
1470.00,0.0580
1469.00,0.0648
1468.00,0.0723
1467.00,0.0804
1466.00,0.0898
1465.00,0.0999
1464.00,0.1087
1463.00,0.1146
1462.00,0.1182
1461.00,0.1204
1460.00,0.1218
1459.00,0.1224
1458.00,0.1226
1457.00,0.1222
1456.00,0.1211
1455.00,0.1196
1454.00,0.1179
1453.00,0.1158
1452.00,0.1128
1451.00,0.1089
1450.00,0.1037
1449.00,0.0966
1448.00,0.0874
1447.00,0.0778
1446.00,0.0692
1445.00,0.0619
1444.00,0.0557
1443.00,0.0507
1442.00,0.0470
1441.00,0.0444
1440.00,0.0429
1439.00,0.0425
1438.00,0.0429
1437.00,0.0436
1436.00,0.0432
1435.00,0.0410
1434.00,0.0375
1433.00,0.0330
1432.00,0.0283
1431.00,0.0240
1430.00,0.0207
1429.00,0.0183
1428.00,0.0166
1427.00,0.0156
1426.00,0.0149
1425.00,0.0142
1424.00,0.0136
1423.00,0.0133
1422.00,0.0131
1421.00,0.0128
1420.00,0.0125
1419.00,0.0122
1418.00,0.0119
1417.00,0.0117
1416.00,0.0114
1415.00,0.0112
1414.00,0.0112
1413.00,0.0110
1412.00,0.0108
1411.00,0.0106
1410.00,0.0106
1409.00,0.0105
1408.00,0.0104
1407.00,0.0104
1406.00,0.0104
1405.00,0.0104
1404.00,0.0103
1403.00,0.0104
1402.00,0.0106
1401.00,0.0106
1400.00,0.0107
1399.00,0.0108
1398.00,0.0111
1397.00,0.0113
1396.00,0.0116
1395.00,0.0119
1394.00,0.0124
1393.00,0.0128
1392.00,0.0133
1391.00,0.0140
1390.00,0.0150
1389.00,0.0163
1388.00,0.0184
1387.00,0.0214
1386.00,0.0255
1385.00,0.0308
1384.00,0.0382
1383.00,0.0488
1382.00,0.0633
1381.00,0.0824
1380.00,0.1071
1379.00,0.1369
1378.00,0.1677
1377.00,0.1927
1376.00,0.2044
1375.00,0.1975
1374.00,0.1740
1373.00,0.1436
1372.00,0.1151
1371.00,0.0913
1370.00,0.0722
1369.00,0.0578
1368.00,0.0480
1367.00,0.0420
1366.00,0.0389
1365.00,0.0377
1364.00,0.0381
1363.00,0.0397
1362.00,0.0422
1361.00,0.0449
1360.00,0.0470
1359.00,0.0476
1358.00,0.0465
1357.00,0.0436
1356.00,0.0395
1355.00,0.0350
1354.00,0.0307
1353.00,0.0270
1352.00,0.0241
1351.00,0.0217
1350.00,0.0197
1349.00,0.0181
1348.00,0.0168
1347.00,0.0157
1346.00,0.0147
1345.00,0.0139
1344.00,0.0133
1343.00,0.0128
1342.00,0.0124
1341.00,0.0120
1340.00,0.0118
1339.00,0.0116
1338.00,0.0114
1337.00,0.0114
1336.00,0.0114
1335.00,0.0116
1334.00,0.0120
1333.00,0.0124
1332.00,0.0129
1331.00,0.0133
1330.00,0.0134
1329.00,0.0133
1328.00,0.0129
1327.00,0.0125
1326.00,0.0119
1325.00,0.0113
1324.00,0.0107
1323.00,0.0101
1322.00,0.0097
1321.00,0.0094
1320.00,0.0092
1319.00,0.0090
1318.00,0.0088
1317.00,0.0087
1316.00,0.0086
1315.00,0.0085
1314.00,0.0085
1313.00,0.0085
1312.00,0.0086
1311.00,0.0087
1310.00,0.0090
1309.00,0.0095
1308.00,0.0102
1307.00,0.0110
1306.00,0.0118
1305.00,0.0124
1304.00,0.0126
1303.00,0.0125
1302.00,0.0122
1301.00,0.0120
1300.00,0.0120
1299.00,0.0122
1298.00,0.0123
1297.00,0.0125
1296.00,0.0125
1295.00,0.0124
1294.00,0.0120
1293.00,0.0116
1292.00,0.0110
1291.00,0.0105
1290.00,0.0101
1289.00,0.0096
1288.00,0.0093
1287.00,0.0090
1286.00,0.0087
1285.00,0.0085
1284.00,0.0083
1283.00,0.0082
1282.00,0.0081
1281.00,0.0080
1280.00,0.0079
1279.00,0.0078
1278.00,0.0078
1277.00,0.0077
1276.00,0.0076
1275.00,0.0076
1274.00,0.0077
1273.00,0.0077
1272.00,0.0078
1271.00,0.0079
1270.00,0.0080
1269.00,0.0082
1268.00,0.0084
1267.00,0.0086
1266.00,0.0089
1265.00,0.0092
1264.00,0.0094
1263.00,0.0097
1262.00,0.0100
1261.00,0.0103
1260.00,0.0106
1259.00,0.0110
1258.00,0.0114
1257.00,0.0117
1256.00,0.0118
1255.00,0.0116
1254.00,0.0110
1253.00,0.0103
1252.00,0.0097
1251.00,0.0092
1250.00,0.0088
1249.00,0.0085
1248.00,0.0083
1247.00,0.0081
1246.00,0.0079
1245.00,0.0078
1244.00,0.0077
1243.00,0.0076
1242.00,0.0075
1241.00,0.0074
1240.00,0.0073
1239.00,0.0073
1238.00,0.0072
1237.00,0.0072
1236.00,0.0072
1235.00,0.0072
1234.00,0.0072
1233.00,0.0072
1232.00,0.0072
1231.00,0.0072
1230.00,0.0073
1229.00,0.0074
1228.00,0.0076
1227.00,0.0078
1226.00,0.0081
1225.00,0.0083
1224.00,0.0086
1223.00,0.0090
1222.00,0.0094
1221.00,0.0098
1220.00,0.0100
1219.00,0.0102
1218.00,0.0101
1217.00,0.0099
1216.00,0.0096
1215.00,0.0092
1214.00,0.0088
1213.00,0.0086
1212.00,0.0083
1211.00,0.0081
1210.00,0.0080
1209.00,0.0078
1208.00,0.0077
1207.00,0.0076
1206.00,0.0075
1205.00,0.0075
1204.00,0.0074
1203.00,0.0074
1202.00,0.0074
1201.00,0.0074
1200.00,0.0073
1199.00,0.0073
1198.00,0.0073
1197.00,0.0073
1196.00,0.0073
1195.00,0.0073
1194.00,0.0073
1193.00,0.0074
1192.00,0.0075
1191.00,0.0075
1190.00,0.0075
1189.00,0.0075
1188.00,0.0074
1187.00,0.0074
1186.00,0.0074
1185.00,0.0075
1184.00,0.0075
1183.00,0.0076
1182.00,0.0077
1181.00,0.0080
1180.00,0.0083
1179.00,0.0087
1178.00,0.0091
1177.00,0.0097
1176.00,0.0105
1175.00,0.0115
1174.00,0.0129
1173.00,0.0146
1172.00,0.0168
1171.00,0.0191
1170.00,0.0215
1169.00,0.0235
1168.00,0.0248
1167.00,0.0252
1166.00,0.0249
1165.00,0.0239
1164.00,0.0227
1163.00,0.0215
1162.00,0.0206
1161.00,0.0198
1160.00,0.0192
1159.00,0.0187
1158.00,0.0184
1157.00,0.0182
1156.00,0.0182
1155.00,0.0182
1154.00,0.0182
1153.00,0.0180
1152.00,0.0177
1151.00,0.0171
1150.00,0.0163
1149.00,0.0153
1148.00,0.0144
1147.00,0.0135
1146.00,0.0127
1145.00,0.0120
1144.00,0.0114
1143.00,0.0107
1142.00,0.0101
1141.00,0.0095
1140.00,0.0090
1139.00,0.0085
1138.00,0.0082
1137.00,0.0079
1136.00,0.0077
1135.00,0.0075
1134.00,0.0074
1133.00,0.0073
1132.00,0.0072
1131.00,0.0071
1130.00,0.0071
1129.00,0.0072
1128.00,0.0073
1127.00,0.0073
1126.00,0.0074
1125.00,0.0074
1124.00,0.0074
1123.00,0.0075
1122.00,0.0077
1121.00,0.0078
1120.00,0.0079
1119.00,0.0080
1118.00,0.0081
1117.00,0.0082
1116.00,0.0083
1115.00,0.0084
1114.00,0.0085
1113.00,0.0087
1112.00,0.0089
1111.00,0.0091
1110.00,0.0095
1109.00,0.0099
1108.00,0.0105
1107.00,0.0111
1106.00,0.0119
1105.00,0.0125
1104.00,0.0131
1103.00,0.0133
1102.00,0.0133
1101.00,0.0130
1100.00,0.0124
1099.00,0.0117
1098.00,0.0110
1097.00,0.0104
1096.00,0.0098
1095.00,0.0094
1094.00,0.0091
1093.00,0.0088
1092.00,0.0087
1091.00,0.0086
1090.00,0.0084
1089.00,0.0082
1088.00,0.0081
1087.00,0.0080
1086.00,0.0080
1085.00,0.0080
1084.00,0.0080
1083.00,0.0080
1082.00,0.0079
1081.00,0.0079
1080.00,0.0078
1079.00,0.0077
1078.00,0.0076
1077.00,0.0075
1076.00,0.0075
1075.00,0.0075
1074.00,0.0074
1073.00,0.0074
1072.00,0.0073
1071.00,0.0073
1070.00,0.0073
1069.00,0.0073
1068.00,0.0073
1067.00,0.0074
1066.00,0.0075
1065.00,0.0076
1064.00,0.0078
1063.00,0.0079
1062.00,0.0080
1061.00,0.0081
1060.00,0.0081
1059.00,0.0082
1058.00,0.0083
1057.00,0.0084
1056.00,0.0085
1055.00,0.0087
1054.00,0.0089
1053.00,0.0092
1052.00,0.0096
1051.00,0.0099
1050.00,0.0102
1049.00,0.0105
1048.00,0.0110
1047.00,0.0114
1046.00,0.0118
1045.00,0.0120
1044.00,0.0121
1043.00,0.0120
1042.00,0.0119
1041.00,0.0117
1040.00,0.0116
1039.00,0.0115
1038.00,0.0116
1037.00,0.0116
1036.00,0.0117
1035.00,0.0116
1034.00,0.0114
1033.00,0.0113
1032.00,0.0112
1031.00,0.0112
1030.00,0.0112
1029.00,0.0113
1028.00,0.0114
1027.00,0.0115
1026.00,0.0117
1025.00,0.0119
1024.00,0.0122
1023.00,0.0124
1022.00,0.0127
1021.00,0.0130
1020.00,0.0132
1019.00,0.0133
1018.00,0.0133
1017.00,0.0132
1016.00,0.0131
1015.00,0.0130
1014.00,0.0129
1013.00,0.0128
1012.00,0.0128
1011.00,0.0128
1010.00,0.0128
1009.00,0.0128
1008.00,0.0128
1007.00,0.0130
1006.00,0.0135
1005.00,0.0143
1004.00,0.0153
1003.00,0.0169
1002.00,0.0189
1001.00,0.0214
1000.00,0.0242
999.00,0.0264
998.00,0.0273
997.00,0.0266
996.00,0.0245
995.00,0.0217
994.00,0.0188
993.00,0.0163
992.00,0.0143
991.00,0.0129
990.00,0.0120
989.00,0.0113
988.00,0.0109
987.00,0.0106
986.00,0.0106
985.00,0.0107
984.00,0.0110
983.00,0.0115
982.00,0.0123
981.00,0.0135
980.00,0.0153
979.00,0.0177
978.00,0.0206
977.00,0.0239
976.00,0.0273
975.00,0.0304
974.00,0.0326
973.00,0.0331
972.00,0.0318
971.00,0.0288
970.00,0.0250
969.00,0.0211
968.00,0.0179
967.00,0.0153
966.00,0.0134
965.00,0.0121
964.00,0.0111
963.00,0.0104
962.00,0.0099
961.00,0.0094
960.00,0.0090
959.00,0.0086
958.00,0.0084
957.00,0.0082
956.00,0.0081
955.00,0.0079
954.00,0.0078
953.00,0.0076
952.00,0.0075
951.00,0.0074
950.00,0.0074
949.00,0.0073
948.00,0.0073
947.00,0.0074
946.00,0.0076
945.00,0.0078
944.00,0.0082
943.00,0.0087
942.00,0.0092
941.00,0.0095
940.00,0.0095
939.00,0.0093
938.00,0.0089
937.00,0.0082
936.00,0.0076
935.00,0.0071
934.00,0.0067
933.00,0.0065
932.00,0.0064
931.00,0.0063
930.00,0.0063
929.00,0.0062
928.00,0.0061
927.00,0.0061
926.00,0.0060
925.00,0.0060
924.00,0.0059
923.00,0.0059
922.00,0.0060
921.00,0.0060
920.00,0.0061
919.00,0.0061
918.00,0.0061
917.00,0.0062
916.00,0.0063
915.00,0.0064
914.00,0.0066
913.00,0.0066
912.00,0.0068
911.00,0.0069
910.00,0.0071
909.00,0.0074
908.00,0.0077
907.00,0.0082
906.00,0.0089
905.00,0.0101
904.00,0.0116
903.00,0.0135
902.00,0.0156
901.00,0.0175
900.00,0.0189
899.00,0.0192
898.00,0.0184
897.00,0.0166
896.00,0.0145
895.00,0.0124
894.00,0.0108
893.00,0.0095
892.00,0.0086
891.00,0.0080
890.00,0.0077
889.00,0.0075
888.00,0.0074
887.00,0.0074
886.00,0.0073
885.00,0.0072
884.00,0.0070
883.00,0.0068
882.00,0.0068
881.00,0.0068
880.00,0.0069
879.00,0.0071
878.00,0.0071
877.00,0.0071
876.00,0.0070
875.00,0.0070
874.00,0.0071
873.00,0.0072
872.00,0.0072
871.00,0.0072
870.00,0.0073
869.00,0.0073
868.00,0.0074
867.00,0.0075
866.00,0.0076
865.00,0.0077
864.00,0.0077
863.00,0.0077
862.00,0.0077
861.00,0.0077
860.00,0.0077
859.00,0.0078
858.00,0.0079
857.00,0.0081
856.00,0.0083
855.00,0.0086
854.00,0.0089
853.00,0.0091
852.00,0.0093
851.00,0.0094
850.00,0.0097
849.00,0.0101
848.00,0.0107
847.00,0.0117
846.00,0.0131
845.00,0.0152
844.00,0.0181
843.00,0.0216
842.00,0.0245
841.00,0.0254
840.00,0.0239
839.00,0.0207
838.00,0.0172
837.00,0.0145
836.00,0.0128
835.00,0.0117
834.00,0.0109
833.00,0.0103
832.00,0.0099
831.00,0.0098
830.00,0.0097
829.00,0.0097
828.00,0.0098
827.00,0.0099
826.00,0.0099
825.00,0.0098
824.00,0.0097
823.00,0.0097
822.00,0.0097
821.00,0.0099
820.00,0.0102
819.00,0.0106
818.00,0.0110
817.00,0.0116
816.00,0.0126
815.00,0.0139
814.00,0.0156
813.00,0.0177
812.00,0.0201
811.00,0.0223
810.00,0.0239
809.00,0.0245
808.00,0.0239
807.00,0.0225
806.00,0.0205
805.00,0.0183
804.00,0.0164
803.00,0.0149
802.00,0.0138
801.00,0.0129
800.00,0.0123
799.00,0.0117
798.00,0.0112
797.00,0.0108
796.00,0.0104
795.00,0.0100
794.00,0.0097
793.00,0.0093
792.00,0.0090
791.00,0.0087
790.00,0.0084
789.00,0.0080
788.00,0.0075
787.00,0.0071
786.00,0.0068
785.00,0.0067
784.00,0.0066
783.00,0.0066
782.00,0.0066
781.00,0.0065
780.00,0.0063
779.00,0.0061
778.00,0.0060
777.00,0.0059
776.00,0.0059
775.00,0.0060
774.00,0.0062
773.00,0.0063
772.00,0.0064
771.00,0.0064
770.00,0.0064
769.00,0.0064
768.00,0.0065
767.00,0.0065
766.00,0.0064
765.00,0.0064
764.00,0.0064
763.00,0.0064
762.00,0.0065
761.00,0.0065
760.00,0.0065
759.00,0.0065
758.00,0.0066
757.00,0.0067
756.00,0.0070
755.00,0.0073
754.00,0.0075
753.00,0.0076
752.00,0.0076
751.00,0.0074
750.00,0.0073
749.00,0.0073
748.00,0.0076
747.00,0.0079
746.00,0.0082
745.00,0.0084
744.00,0.0085
743.00,0.0086
742.00,0.0088
741.00,0.0091
740.00,0.0094
739.00,0.0098
738.00,0.0103
737.00,0.0107
736.00,0.0110
735.00,0.0114
734.00,0.0117
733.00,0.0122
732.00,0.0129
731.00,0.0136
730.00,0.0142
729.00,0.0146
728.00,0.0148
727.00,0.0150
726.00,0.0153
725.00,0.0156
724.00,0.0160
723.00,0.0166
722.00,0.0171
721.00,0.0173
720.00,0.0171
719.00,0.0164
718.00,0.0154
717.00,0.0143
716.00,0.0132
715.00,0.0124
714.00,0.0119
713.00,0.0116
712.00,0.0113
711.00,0.0110
710.00,0.0106
709.00,0.0103
708.00,0.0100
707.00,0.0098
706.00,0.0098
705.00,0.0099
704.00,0.0102
703.00,0.0104
702.00,0.0104
701.00,0.0100
700.00,0.0096
699.00,0.0091
698.00,0.0089
697.00,0.0088
696.00,0.0089
695.00,0.0090
694.00,0.0090
693.00,0.0090
692.00,0.0092
691.00,0.0093
690.00,0.0095
689.00,0.0095
688.00,0.0095
687.00,0.0094
686.00,0.0093
685.00,0.0092
684.00,0.0093
683.00,0.0094
682.00,0.0095
681.00,0.0095
680.00,0.0095
679.00,0.0094
678.00,0.0094
677.00,0.0094
676.00,0.0095
675.00,0.0095
674.00,0.0096
673.00,0.0098
672.00,0.0099
671.00,0.0100
670.00,0.0101
669.00,0.0100
668.00,0.0100
667.00,0.0099
666.00,0.0097
665.00,0.0093
664.00,0.0092
663.00,0.0090
662.00,0.0089
661.00,0.0086
660.00,0.0083
659.00,0.0080
658.00,0.0080
657.00,0.0080
656.00,0.0080
655.00,0.0081
654.00,0.0081
653.00,0.0081
652.00,0.0081
651.00,0.0082
650.00,0.0082
649.00,0.0082
648.00,0.0081
647.00,0.0080
646.00,0.0080
645.00,0.0080
644.00,0.0080
643.00,0.0079
642.00,0.0077
641.00,0.0076
640.00,0.0077
639.00,0.0078
638.00,0.0078
637.00,0.0078
636.00,0.0077
635.00,0.0077
634.00,0.0079
633.00,0.0081
632.00,0.0084
631.00,0.0085
630.00,0.0083
629.00,0.0080
628.00,0.0078
627.00,0.0079
626.00,0.0081
625.00,0.0084
624.00,0.0086
623.00,0.0085
622.00,0.0083
621.00,0.0079
620.00,0.0075
619.00,0.0074
618.00,0.0075
617.00,0.0077
616.00,0.0079
615.00,0.0081
614.00,0.0081
613.00,0.0079
612.00,0.0076
611.00,0.0073
610.00,0.0072
609.00,0.0073
608.00,0.0075
607.00,0.0079
606.00,0.0081
605.00,0.0081
604.00,0.0079
603.00,0.0076
602.00,0.0074
601.00,0.0075
600.00,0.0075
599.00,0.0075
598.00,0.0076
597.00,0.0077
596.00,0.0078
595.00,0.0077
594.00,0.0076
593.00,0.0075
592.00,0.0075
591.00,0.0075
590.00,0.0075
589.00,0.0074
588.00,0.0073
587.00,0.0074
586.00,0.0075
585.00,0.0077
584.00,0.0078
583.00,0.0079
582.00,0.0078
581.00,0.0077
580.00,0.0075
579.00,0.0074
578.00,0.0075
577.00,0.0076
576.00,0.0079
575.00,0.0082
574.00,0.0084
573.00,0.0084
572.00,0.0082
571.00,0.0080
570.00,0.0080
569.00,0.0082
568.00,0.0083
567.00,0.0081
566.00,0.0077
565.00,0.0074
564.00,0.0072
563.00,0.0074
562.00,0.0077
561.00,0.0080
560.00,0.0081
559.00,0.0082
558.00,0.0081
557.00,0.0080
556.00,0.0078
555.00,0.0077
554.00,0.0077
553.00,0.0078
552.00,0.0079
551.00,0.0079
550.00,0.0079
549.00,0.0079
548.00,0.0080
547.00,0.0080
546.00,0.0080
545.00,0.0082
544.00,0.0085
543.00,0.0089
542.00,0.0093
541.00,0.0095
540.00,0.0095
539.00,0.0096
538.00,0.0099
537.00,0.0102
536.00,0.0103
535.00,0.0103
534.00,0.0102
533.00,0.0103
532.00,0.0104
531.00,0.0106
530.00,0.0108
529.00,0.0109
528.00,0.0108
527.00,0.0103
526.00,0.0096
525.00,0.0089
524.00,0.0085
523.00,0.0083
522.00,0.0082
521.00,0.0081
520.00,0.0078
519.00,0.0075
518.00,0.0074
517.00,0.0077
516.00,0.0081
515.00,0.0084
514.00,0.0085
513.00,0.0084
512.00,0.0082
511.00,0.0081
510.00,0.0079
509.00,0.0077
508.00,0.0074
507.00,0.0074
506.00,0.0075
505.00,0.0076
504.00,0.0075
503.00,0.0073
502.00,0.0074
501.00,0.0079
500.00,0.0085
499.00,0.0089
498.00,0.0088
497.00,0.0084
496.00,0.0082
495.00,0.0084
494.00,0.0086
493.00,0.0086
492.00,0.0081
491.00,0.0073
490.00,0.0066
489.00,0.0062
488.00,0.0062
487.00,0.0064
486.00,0.0068
485.00,0.0071
484.00,0.0075
483.00,0.0083
482.00,0.0091
481.00,0.0099
480.00,0.0104
479.00,0.0109
478.00,0.0116
477.00,0.0122
476.00,0.0123
475.00,0.0117
474.00,0.0110
473.00,0.0107
472.00,0.0109
471.00,0.0113
470.00,0.0118
469.00,0.0128
468.00,0.0143
467.00,0.0159
466.00,0.0169
465.00,0.0172
464.00,0.0172
463.00,0.0174
462.00,0.0179
461.00,0.0186
460.00,0.0194
459.00,0.0200
458.00,0.0201
457.00,0.0198
456.00,0.0193
455.00,0.0185
454.00,0.0173
453.00,0.0158
452.00,0.0144
451.00,0.0135
450.00,0.0129
