Created as New Dataset,Sample 003 By Administrator Date Wednesday, September 03 2025
cm-1,A
4000.00,0.0010
3999.00,0.0010
3998.00,0.0010
3997.00,0.0011
3996.00,0.0011
3995.00,0.0010
3994.00,0.0010
3993.00,0.0010
3992.00,0.0010
3991.00,0.0010
3990.00,0.0010
3989.00,0.0010
3988.00,0.0010
3987.00,0.0010
3986.00,0.0010
3985.00,0.0009
3984.00,0.0009
3983.00,0.0009
3982.00,0.0009
3981.00,0.0009
3980.00,0.0009
3979.00,0.0009
3978.00,0.0009
3977.00,0.0009
3976.00,0.0010
3975.00,0.0010
3974.00,0.0010
3973.00,0.0009
3972.00,0.0009
3971.00,0.0009
3970.00,0.0009
3969.00,0.0008
3968.00,0.0008
3967.00,0.0008
3966.00,0.0008
3965.00,0.0008
3964.00,0.0008
3963.00,0.0008
3962.00,0.0008
3961.00,0.0008
3960.00,0.0008
3959.00,0.0008
3958.00,0.0008
3957.00,0.0008
3956.00,0.0008
3955.00,0.0008
3954.00,0.0009
3953.00,0.0009
3952.00,0.0009
3951.00,0.0009
3950.00,0.0009
3949.00,0.0009
3948.00,0.0009
3947.00,0.0009
3946.00,0.0009
3945.00,0.0009
3944.00,0.0009
3943.00,0.0009
3942.00,0.0009
3941.00,0.0009
3940.00,0.0009
3939.00,0.0009
3938.00,0.0009
3937.00,0.0009
3936.00,0.0009
3935.00,0.0009
3934.00,0.0009
3933.00,0.0008
3932.00,0.0008
3931.00,0.0008
3930.00,0.0008
3929.00,0.0008
3928.00,0.0009
3927.00,0.0009
3926.00,0.0009
3925.00,0.0009
3924.00,0.0009
3923.00,0.0009
3922.00,0.0009
3921.00,0.0009
3920.00,0.0009
3919.00,0.0009
3918.00,0.0009
3917.00,0.0009
3916.00,0.0009
3915.00,0.0009
3914.00,0.0009
3913.00,0.0009
3912.00,0.0008
3911.00,0.0008
3910.00,0.0008
3909.00,0.0008
3908.00,0.0008
3907.00,0.0009
3906.00,0.0009
3905.00,0.0009
3904.00,0.0009
3903.00,0.0009
3902.00,0.0008
3901.00,0.0008
3900.00,0.0008
3899.00,0.0008
3898.00,0.0008
3897.00,0.0008
3896.00,0.0008
3895.00,0.0008
3894.00,0.0008
3893.00,0.0008
3892.00,0.0008
3891.00,0.0008
3890.00,0.0008
3889.00,0.0008
3888.00,0.0008
3887.00,0.0008
3886.00,0.0008
3885.00,0.0008
3884.00,0.0007
3883.00,0.0008
3882.00,0.0008
3881.00,0.0008
3880.00,0.0008
3879.00,0.0008
3878.00,0.0008
3877.00,0.0008
3876.00,0.0008
3875.00,0.0008
3874.00,0.0009
3873.00,0.0009
3872.00,0.0010
3871.00,0.0010
3870.00,0.0009
3869.00,0.0009
3868.00,0.0009
3867.00,0.0008
3866.00,0.0008
3865.00,0.0008
3864.00,0.0008
3863.00,0.0008
3862.00,0.0008
3861.00,0.0008
3860.00,0.0007
3859.00,0.0007
3858.00,0.0007
3857.00,0.0007
3856.00,0.0007
3855.00,0.0008
3854.00,0.0008
3853.00,0.0008
3852.00,0.0008
3851.00,0.0008
3850.00,0.0008
3849.00,0.0008
3848.00,0.0008
3847.00,0.0008
3846.00,0.0008
3845.00,0.0008
3844.00,0.0008
3843.00,0.0008
3842.00,0.0008
3841.00,0.0008
3840.00,0.0009
3839.00,0.0009
3838.00,0.0009
3837.00,0.0008
3836.00,0.0008
3835.00,0.0007
3834.00,0.0007
3833.00,0.0007
3832.00,0.0007
3831.00,0.0008
3830.00,0.0008
3829.00,0.0008
3828.00,0.0008
3827.00,0.0008
3826.00,0.0008
3825.00,0.0008
3824.00,0.0008
3823.00,0.0008
3822.00,0.0008
3821.00,0.0008
3820.00,0.0007
3819.00,0.0007
3818.00,0.0008
3817.00,0.0008
3816.00,0.0007
3815.00,0.0007
3814.00,0.0007
3813.00,0.0007
3812.00,0.0007
3811.00,0.0006
3810.00,0.0006
3809.00,0.0006
3808.00,0.0007
3807.00,0.0007
3806.00,0.0008
3805.00,0.0008
3804.00,0.0009
3803.00,0.0009
3802.00,0.0009
3801.00,0.0009
3800.00,0.0009
3799.00,0.0009
3798.00,0.0009
3797.00,0.0008
3796.00,0.0008
3795.00,0.0007
3794.00,0.0007
3793.00,0.0007
3792.00,0.0008
3791.00,0.0008
3790.00,0.0008
3789.00,0.0008
3788.00,0.0008
3787.00,0.0008
3786.00,0.0008
3785.00,0.0008
3784.00,0.0008
3783.00,0.0008
3782.00,0.0008
3781.00,0.0008
3780.00,0.0008
3779.00,0.0008
3778.00,0.0009
3777.00,0.0009
3776.00,0.0009
3775.00,0.0009
3774.00,0.0009
3773.00,0.0009
3772.00,0.0009
3771.00,0.0009
3770.00,0.0009
3769.00,0.0009
3768.00,0.0009
3767.00,0.0009
3766.00,0.0009
3765.00,0.0009
3764.00,0.0010
3763.00,0.0010
3762.00,0.0010
3761.00,0.0010
3760.00,0.0010
3759.00,0.0010
3758.00,0.0010
3757.00,0.0010
3756.00,0.0010
3755.00,0.0009
3754.00,0.0009
3753.00,0.0008
3752.00,0.0008
3751.00,0.0008
3750.00,0.0008
3749.00,0.0008
3748.00,0.0008
3747.00,0.0008
3746.00,0.0007
3745.00,0.0007
3744.00,0.0007
3743.00,0.0007
3742.00,0.0008
3741.00,0.0008
3740.00,0.0008
3739.00,0.0008
3738.00,0.0008
3737.00,0.0008
3736.00,0.0009
3735.00,0.0009
3734.00,0.0009
3733.00,0.0008
3732.00,0.0007
3731.00,0.0007
3730.00,0.0007
3729.00,0.0007
3728.00,0.0007
3727.00,0.0007
3726.00,0.0008
3725.00,0.0008
3724.00,0.0008
3723.00,0.0008
3722.00,0.0008
3721.00,0.0007
3720.00,0.0007
3719.00,0.0007
3718.00,0.0007
3717.00,0.0007
3716.00,0.0007
3715.00,0.0007
3714.00,0.0007
3713.00,0.0007
3712.00,0.0007
3711.00,0.0008
3710.00,0.0008
3709.00,0.0008
3708.00,0.0008
3707.00,0.0008
3706.00,0.0008
3705.00,0.0007
3704.00,0.0007
3703.00,0.0008
3702.00,0.0008
3701.00,0.0008
3700.00,0.0008
3699.00,0.0008
3698.00,0.0008
3697.00,0.0008
3696.00,0.0008
3695.00,0.0007
3694.00,0.0007
3693.00,0.0007
3692.00,0.0007
3691.00,0.0006
3690.00,0.0006
3689.00,0.0006
3688.00,0.0006
3687.00,0.0006
3686.00,0.0006
3685.00,0.0006
3684.00,0.0006
3683.00,0.0005
3682.00,0.0005
3681.00,0.0005
3680.00,0.0005
3679.00,0.0005
3678.00,0.0005
3677.00,0.0005
3676.00,0.0004
3675.00,0.0003
3674.00,0.0002
3673.00,0.0001
3672.00,0.0001
3671.00,0.0001
3670.00,0.0001
3669.00,0.0000
3668.00,0.0000
3667.00,-0.0000
3666.00,-0.0001
3665.00,-0.0001
3664.00,-0.0001
3663.00,-0.0001
3662.00,-0.0001
3661.00,-0.0001
3660.00,-0.0001
3659.00,-0.0001
3658.00,-0.0001
3657.00,-0.0001
3656.00,-0.0001
3655.00,-0.0001
3654.00,-0.0000
3653.00,0.0000
3652.00,0.0000
3651.00,0.0000
3650.00,0.0000
3649.00,0.0001
3648.00,0.0002
3647.00,0.0002
3646.00,0.0002
3645.00,0.0003
3644.00,0.0003
3643.00,0.0003
3642.00,0.0004
3641.00,0.0004
3640.00,0.0005
3639.00,0.0005
3638.00,0.0005
3637.00,0.0006
3636.00,0.0007
3635.00,0.0008
3634.00,0.0009
3633.00,0.0010
3632.00,0.0011
3631.00,0.0011
3630.00,0.0011
3629.00,0.0012
3628.00,0.0013
3627.00,0.0014
3626.00,0.0014
3625.00,0.0014
3624.00,0.0014
3623.00,0.0014
3622.00,0.0014
3621.00,0.0015
3620.00,0.0015
3619.00,0.0015
3618.00,0.0015
3617.00,0.0016
3616.00,0.0016
3615.00,0.0016
3614.00,0.0016
3613.00,0.0016
3612.00,0.0016
3611.00,0.0016
3610.00,0.0016
3609.00,0.0017
3608.00,0.0017
3607.00,0.0018
3606.00,0.0018
3605.00,0.0019
3604.00,0.0020
3603.00,0.0020
3602.00,0.0021
3601.00,0.0021
3600.00,0.0022
3599.00,0.0022
3598.00,0.0022
3597.00,0.0022
3596.00,0.0023
3595.00,0.0023
3594.00,0.0023
3593.00,0.0023
3592.00,0.0024
3591.00,0.0024
3590.00,0.0024
3589.00,0.0025
3588.00,0.0025
3587.00,0.0026
3586.00,0.0026
3585.00,0.0026
3584.00,0.0027
3583.00,0.0027
3582.00,0.0028
3581.00,0.0028
3580.00,0.0028
3579.00,0.0028
3578.00,0.0028
3577.00,0.0028
3576.00,0.0028
3575.00,0.0029
3574.00,0.0029
3573.00,0.0030
3572.00,0.0031
3571.00,0.0031
3570.00,0.0032
3569.00,0.0033
3568.00,0.0033
3567.00,0.0034
3566.00,0.0034
3565.00,0.0034
3564.00,0.0034
3563.00,0.0035
3562.00,0.0035
3561.00,0.0036
3560.00,0.0036
3559.00,0.0037
3558.00,0.0037
3557.00,0.0037
3556.00,0.0037
3555.00,0.0037
3554.00,0.0038
3553.00,0.0038
3552.00,0.0039
3551.00,0.0039
3550.00,0.0039
3549.00,0.0040
3548.00,0.0040
3547.00,0.0040
3546.00,0.0040
3545.00,0.0040
3544.00,0.0041
3543.00,0.0041
3542.00,0.0041
3541.00,0.0042
3540.00,0.0042
3539.00,0.0043
3538.00,0.0044
3537.00,0.0044
3536.00,0.0044
3535.00,0.0044
3534.00,0.0045
3533.00,0.0045
3532.00,0.0045
3531.00,0.0045
3530.00,0.0045
3529.00,0.0046
3528.00,0.0047
3527.00,0.0047
3526.00,0.0048
3525.00,0.0048
3524.00,0.0049
3523.00,0.0049
3522.00,0.0049
3521.00,0.0049
3520.00,0.0050
3519.00,0.0050
3518.00,0.0050
3517.00,0.0051
3516.00,0.0051
3515.00,0.0051
3514.00,0.0052
3513.00,0.0052
3512.00,0.0052
3511.00,0.0052
3510.00,0.0053
3509.00,0.0054
3508.00,0.0054
3507.00,0.0055
3506.00,0.0056
3505.00,0.0056
3504.00,0.0056
3503.00,0.0056
3502.00,0.0056
3501.00,0.0056
3500.00,0.0057
3499.00,0.0057
3498.00,0.0057
3497.00,0.0058
3496.00,0.0058
3495.00,0.0059
3494.00,0.0059
3493.00,0.0060
3492.00,0.0060
3491.00,0.0060
3490.00,0.0061
3489.00,0.0061
3488.00,0.0062
3487.00,0.0063
3486.00,0.0063
3485.00,0.0064
3484.00,0.0064
3483.00,0.0064
3482.00,0.0064
3481.00,0.0064
3480.00,0.0064
3479.00,0.0065
3478.00,0.0065
3477.00,0.0066
3476.00,0.0066
3475.00,0.0066
3474.00,0.0066
3473.00,0.0067
3472.00,0.0067
3471.00,0.0067
3470.00,0.0068
3469.00,0.0068
3468.00,0.0068
3467.00,0.0069
3466.00,0.0069
3465.00,0.0070
3464.00,0.0070
3463.00,0.0071
3462.00,0.0071
3461.00,0.0072
3460.00,0.0072
3459.00,0.0072
3458.00,0.0071
3457.00,0.0071
3456.00,0.0072
3455.00,0.0072
3454.00,0.0072
3453.00,0.0073
3452.00,0.0073
3451.00,0.0074
3450.00,0.0074
3449.00,0.0075
3448.00,0.0076
3447.00,0.0076
3446.00,0.0076
3445.00,0.0076
3444.00,0.0076
3443.00,0.0077
3442.00,0.0077
3441.00,0.0077
3440.00,0.0078
3439.00,0.0078
3438.00,0.0078
3437.00,0.0079
3436.00,0.0079
3435.00,0.0080
3434.00,0.0080
3433.00,0.0081
3432.00,0.0081
3431.00,0.0081
3430.00,0.0081
3429.00,0.0081
3428.00,0.0081
3427.00,0.0082
3426.00,0.0082
3425.00,0.0083
3424.00,0.0083
3423.00,0.0083
3422.00,0.0084
3421.00,0.0084
3420.00,0.0085
3419.00,0.0085
3418.00,0.0085
3417.00,0.0085
3416.00,0.0085
3415.00,0.0085
3414.00,0.0086
3413.00,0.0087
3412.00,0.0087
3411.00,0.0088
3410.00,0.0088
3409.00,0.0088
3408.00,0.0088
3407.00,0.0089
3406.00,0.0089
3405.00,0.0089
3404.00,0.0089
3403.00,0.0089
3402.00,0.0089
3401.00,0.0090
3400.00,0.0090
3399.00,0.0090
3398.00,0.0090
3397.00,0.0090
3396.00,0.0091
3395.00,0.0091
3394.00,0.0092
3393.00,0.0092
3392.00,0.0092
3391.00,0.0092
3390.00,0.0092
3389.00,0.0092
3388.00,0.0092
3387.00,0.0092
3386.00,0.0092
3385.00,0.0092
3384.00,0.0093
3383.00,0.0093
3382.00,0.0092
3381.00,0.0092
3380.00,0.0092
3379.00,0.0092
3378.00,0.0092
3377.00,0.0092
3376.00,0.0093
3375.00,0.0093
3374.00,0.0093
3373.00,0.0093
3372.00,0.0093
3371.00,0.0094
3370.00,0.0094
3369.00,0.0094
3368.00,0.0094
3367.00,0.0095
3366.00,0.0095
3365.00,0.0095
3364.00,0.0095
3363.00,0.0095
3362.00,0.0094
3361.00,0.0095
3360.00,0.0095
3359.00,0.0095
3358.00,0.0096
3357.00,0.0096
3356.00,0.0096
3355.00,0.0097
3354.00,0.0097
3353.00,0.0097
3352.00,0.0097
3351.00,0.0097
3350.00,0.0097
3349.00,0.0097
3348.00,0.0097
3347.00,0.0097
3346.00,0.0097
3345.00,0.0097
3344.00,0.0097
3343.00,0.0097
3342.00,0.0097
3341.00,0.0096
3340.00,0.0096
3339.00,0.0096
3338.00,0.0096
3337.00,0.0096
3336.00,0.0096
3335.00,0.0097
3334.00,0.0096
3333.00,0.0096
3332.00,0.0096
3331.00,0.0095
3330.00,0.0095
3329.00,0.0095
3328.00,0.0095
3327.00,0.0095
3326.00,0.0095
3325.00,0.0096
3324.00,0.0096
3323.00,0.0096
3322.00,0.0096
3321.00,0.0096
3320.00,0.0096
3319.00,0.0096
3318.00,0.0095
3317.00,0.0095
3316.00,0.0095
3315.00,0.0095
3314.00,0.0095
3313.00,0.0095
3312.00,0.0095
3311.00,0.0096
3310.00,0.0096
3309.00,0.0096
3308.00,0.0096
3307.00,0.0096
3306.00,0.0096
3305.00,0.0096
3304.00,0.0096
3303.00,0.0096
3302.00,0.0096
3301.00,0.0096
3300.00,0.0095
3299.00,0.0095
3298.00,0.0095
3297.00,0.0094
3296.00,0.0094
3295.00,0.0094
3294.00,0.0093
3293.00,0.0093
3292.00,0.0093
3291.00,0.0093
3290.00,0.0092
3289.00,0.0091
3288.00,0.0091
3287.00,0.0090
3286.00,0.0090
3285.00,0.0090
3284.00,0.0089
3283.00,0.0089
3282.00,0.0089
3281.00,0.0089
3280.00,0.0088
3279.00,0.0088
3278.00,0.0088
3277.00,0.0088
3276.00,0.0088
3275.00,0.0087
3274.00,0.0087
3273.00,0.0087
3272.00,0.0086
3271.00,0.0086
3270.00,0.0086
3269.00,0.0085
3268.00,0.0085
3267.00,0.0085
3266.00,0.0085
3265.00,0.0085
3264.00,0.0084
3263.00,0.0084
3262.00,0.0083
3261.00,0.0083
3260.00,0.0082
3259.00,0.0082
3258.00,0.0082
3257.00,0.0081
3256.00,0.0080
3255.00,0.0080
3254.00,0.0080
3253.00,0.0080
3252.00,0.0080
3251.00,0.0079
3250.00,0.0079
3249.00,0.0079
3248.00,0.0078
3247.00,0.0078
3246.00,0.0078
3245.00,0.0078
3244.00,0.0078
3243.00,0.0078
3242.00,0.0078
3241.00,0.0077
3240.00,0.0077
3239.00,0.0077
3238.00,0.0077
3237.00,0.0077
3236.00,0.0077
3235.00,0.0076
3234.00,0.0076
3233.00,0.0075
3232.00,0.0075
3231.00,0.0075
3230.00,0.0075
3229.00,0.0075
3228.00,0.0076
3227.00,0.0076
3226.00,0.0076
3225.00,0.0076
3224.00,0.0076
3223.00,0.0076
3222.00,0.0076
3221.00,0.0076
3220.00,0.0076
3219.00,0.0076
3218.00,0.0076
3217.00,0.0076
3216.00,0.0076
3215.00,0.0075
3214.00,0.0075
3213.00,0.0075
3212.00,0.0075
3211.00,0.0075
3210.00,0.0076
3209.00,0.0076
3208.00,0.0076
3207.00,0.0075
3206.00,0.0075
3205.00,0.0075
3204.00,0.0075
3203.00,0.0074
3202.00,0.0074
3201.00,0.0074
3200.00,0.0074
3199.00,0.0075
3198.00,0.0074
3197.00,0.0074
3196.00,0.0073
3195.00,0.0073
3194.00,0.0073
3193.00,0.0073
3192.00,0.0073
3191.00,0.0073
3190.00,0.0073
3189.00,0.0073
3188.00,0.0073
3187.00,0.0073
3186.00,0.0073
3185.00,0.0072
3184.00,0.0072
3183.00,0.0072
3182.00,0.0071
3181.00,0.0071
3180.00,0.0070
3179.00,0.0069
3178.00,0.0069
3177.00,0.0069
3176.00,0.0069
3175.00,0.0069
3174.00,0.0069
3173.00,0.0069
3172.00,0.0068
3171.00,0.0068
3170.00,0.0068
3169.00,0.0068
3168.00,0.0067
3167.00,0.0067
3166.00,0.0067
3165.00,0.0067
3164.00,0.0066
3163.00,0.0066
3162.00,0.0065
3161.00,0.0065
3160.00,0.0065
3159.00,0.0065
3158.00,0.0065
3157.00,0.0065
3156.00,0.0065
3155.00,0.0065
3154.00,0.0064
3153.00,0.0064
3152.00,0.0064
3151.00,0.0064
3150.00,0.0064
3149.00,0.0064
3148.00,0.0064
3147.00,0.0064
3146.00,0.0063
3145.00,0.0063
3144.00,0.0062
3143.00,0.0061
3142.00,0.0061
3141.00,0.0061
3140.00,0.0061
3139.00,0.0061
3138.00,0.0061
3137.00,0.0061
3136.00,0.0060
3135.00,0.0060
3134.00,0.0060
3133.00,0.0059
3132.00,0.0059
3131.00,0.0059
3130.00,0.0059
3129.00,0.0059
3128.00,0.0058
3127.00,0.0058
3126.00,0.0057
3125.00,0.0057
3124.00,0.0056
3123.00,0.0056
3122.00,0.0056
3121.00,0.0056
3120.00,0.0056
3119.00,0.0055
3118.00,0.0055
3117.00,0.0054
3116.00,0.0054
3115.00,0.0054
3114.00,0.0054
3113.00,0.0054
3112.00,0.0054
3111.00,0.0053
3110.00,0.0053
3109.00,0.0053
3108.00,0.0053
3107.00,0.0053
3106.00,0.0052
3105.00,0.0052
3104.00,0.0051
3103.00,0.0051
3102.00,0.0050
3101.00,0.0050
3100.00,0.0050
3099.00,0.0050
3098.00,0.0050
3097.00,0.0050
3096.00,0.0051
3095.00,0.0050
3094.00,0.0050
3093.00,0.0050
3092.00,0.0050
3091.00,0.0050
3090.00,0.0050
3089.00,0.0050
3088.00,0.0050
3087.00,0.0050
3086.00,0.0050
3085.00,0.0050
3084.00,0.0050
3083.00,0.0050
3082.00,0.0049
3081.00,0.0049
3080.00,0.0049
3079.00,0.0049
3078.00,0.0048
3077.00,0.0048
3076.00,0.0048
3075.00,0.0048
3074.00,0.0048
3073.00,0.0048
3072.00,0.0049
3071.00,0.0049
3070.00,0.0050
3069.00,0.0050
3068.00,0.0050
3067.00,0.0050
3066.00,0.0051
3065.00,0.0051
3064.00,0.0051
3063.00,0.0052
3062.00,0.0052
3061.00,0.0052
3060.00,0.0052
3059.00,0.0051
3058.00,0.0051
3057.00,0.0051
3056.00,0.0051
3055.00,0.0051
3054.00,0.0051
3053.00,0.0051
3052.00,0.0051
3051.00,0.0052
3050.00,0.0052
3049.00,0.0052
3048.00,0.0052
3047.00,0.0052
3046.00,0.0053
3045.00,0.0053
3044.00,0.0053
3043.00,0.0053
3042.00,0.0054
3041.00,0.0054
3040.00,0.0054
3039.00,0.0054
3038.00,0.0054
3037.00,0.0055
3036.00,0.0055
3035.00,0.0056
3034.00,0.0056
3033.00,0.0056
3032.00,0.0057
3031.00,0.0057
3030.00,0.0058
3029.00,0.0058
3028.00,0.0058
3027.00,0.0058
3026.00,0.0058
3025.00,0.0058
3024.00,0.0058
3023.00,0.0058
3022.00,0.0058
3021.00,0.0058
3020.00,0.0058
3019.00,0.0058
3018.00,0.0058
3017.00,0.0058
3016.00,0.0058
3015.00,0.0058
3014.00,0.0058
3013.00,0.0057
3012.00,0.0056
3011.00,0.0055
3010.00,0.0054
3009.00,0.0053
3008.00,0.0052
3007.00,0.0050
3006.00,0.0049
3005.00,0.0047
3004.00,0.0046
3003.00,0.0045
3002.00,0.0044
3001.00,0.0044
3000.00,0.0043
2999.00,0.0043
2998.00,0.0043
2997.00,0.0044
2996.00,0.0045
2995.00,0.0047
2994.00,0.0049
2993.00,0.0052
2992.00,0.0055
2991.00,0.0058
2990.00,0.0063
2989.00,0.0067
2988.00,0.0071
2987.00,0.0076
2986.00,0.0079
2985.00,0.0080
2984.00,0.0081
2983.00,0.0084
2982.00,0.0092
2981.00,0.0105
2980.00,0.0124
2979.00,0.0148
2978.00,0.0174
2977.00,0.0202
2976.00,0.0232
2975.00,0.0264
2974.00,0.0298
2973.00,0.0337
2972.00,0.0381
2971.00,0.0433
2970.00,0.0492
2969.00,0.0556
2968.00,0.0624
2967.00,0.0695
2966.00,0.0767
2965.00,0.0838
2964.00,0.0907
2963.00,0.0970
2962.00,0.1025
2961.00,0.1074
2960.00,0.1117
2959.00,0.1158
2958.00,0.1202
2957.00,0.1252
2956.00,0.1312
2955.00,0.1382
2954.00,0.1460
2953.00,0.1540
2952.00,0.1614
2951.00,0.1670
2950.00,0.1699
2949.00,0.1692
2948.00,0.1647
2947.00,0.1570
2946.00,0.1469
2945.00,0.1359
2944.00,0.1254
2943.00,0.1164
2942.00,0.1095
2941.00,0.1049
2940.00,0.1025
2939.00,0.1023
2938.00,0.1038
2937.00,0.1070
2936.00,0.1117
2935.00,0.1177
2934.00,0.1251
2933.00,0.1337
2932.00,0.1433
2931.00,0.1539
2930.00,0.1651
2929.00,0.1767
2928.00,0.1883
2927.00,0.1997
2926.00,0.2109
2925.00,0.2217
2924.00,0.2324
2923.00,0.2430
2922.00,0.2536
2921.00,0.2640
2920.00,0.2735
2919.00,0.2809
2918.00,0.2852
2917.00,0.2853
2916.00,0.2808
2915.00,0.2724
2914.00,0.2612
2913.00,0.2485
2912.00,0.2357
2911.00,0.2236
2910.00,0.2126
2909.00,0.2028
2908.00,0.1939
2907.00,0.1857
2906.00,0.1779
2905.00,0.1704
2904.00,0.1632
2903.00,0.1562
2902.00,0.1495
2901.00,0.1430
2900.00,0.1369
2899.00,0.1311
2898.00,0.1258
2897.00,0.1209
2896.00,0.1165
2895.00,0.1127
2894.00,0.1093
2893.00,0.1065
2892.00,0.1043
2891.00,0.1026
2890.00,0.1014
2889.00,0.1008
2888.00,0.1004
2887.00,0.1004
2886.00,0.1008
2885.00,0.1015
2884.00,0.1028
2883.00,0.1046
2882.00,0.1069
2881.00,0.1096
2880.00,0.1125
2879.00,0.1151
2878.00,0.1169
2877.00,0.1179
2876.00,0.1180
2875.00,0.1176
2874.00,0.1172
2873.00,0.1172
2872.00,0.1178
2871.00,0.1191
2870.00,0.1209
2869.00,0.1228
2868.00,0.1242
2867.00,0.1243
2866.00,0.1225
2865.00,0.1185
2864.00,0.1128
2863.00,0.1061
2862.00,0.0993
2861.00,0.0933
2860.00,0.0888
2859.00,0.0857
2858.00,0.0842
2857.00,0.0838
2856.00,0.0844
2855.00,0.0857
2854.00,0.0875
2853.00,0.0897
2852.00,0.0917
2851.00,0.0933
2850.00,0.0941
2849.00,0.0941
2848.00,0.0935
2847.00,0.0931
2846.00,0.0934
2845.00,0.0948
2844.00,0.0973
2843.00,0.1009
2842.00,0.1049
2841.00,0.1090
2840.00,0.1123
2839.00,0.1141
2838.00,0.1137
2837.00,0.1107
2836.00,0.1049
2835.00,0.0970
2834.00,0.0876
2833.00,0.0777
2832.00,0.0683
2831.00,0.0599
2830.00,0.0527
2829.00,0.0468
2828.00,0.0420
2827.00,0.0381
2826.00,0.0349
2825.00,0.0323
2824.00,0.0301
2823.00,0.0283
2822.00,0.0267
2821.00,0.0253
2820.00,0.0242
2819.00,0.0231
2818.00,0.0222
2817.00,0.0215
2816.00,0.0208
2815.00,0.0201
2814.00,0.0195
2813.00,0.0189
2812.00,0.0183
2811.00,0.0178
2810.00,0.0172
2809.00,0.0167
2808.00,0.0161
2807.00,0.0155
2806.00,0.0148
2805.00,0.0142
2804.00,0.0136
2803.00,0.0131
2802.00,0.0126
2801.00,0.0122
2800.00,0.0118
2799.00,0.0115
2798.00,0.0112
2797.00,0.0109
2796.00,0.0107
2795.00,0.0105
2794.00,0.0102
2793.00,0.0100
2792.00,0.0097
2791.00,0.0095
2790.00,0.0092
2789.00,0.0089
2788.00,0.0086
2787.00,0.0084
2786.00,0.0081
2785.00,0.0079
2784.00,0.0077
2783.00,0.0075
2782.00,0.0073
2781.00,0.0072
2780.00,0.0070
2779.00,0.0068
2778.00,0.0067
2777.00,0.0065
2776.00,0.0064
2775.00,0.0063
2774.00,0.0063
2773.00,0.0062
2772.00,0.0062
2771.00,0.0061
2770.00,0.0061
2769.00,0.0061
2768.00,0.0060
2767.00,0.0060
2766.00,0.0059
2765.00,0.0059
2764.00,0.0058
2763.00,0.0058
2762.00,0.0058
2761.00,0.0058
2760.00,0.0057
2759.00,0.0057
2758.00,0.0057
2757.00,0.0056
2756.00,0.0056
2755.00,0.0056
2754.00,0.0056
2753.00,0.0056
2752.00,0.0056
2751.00,0.0056
2750.00,0.0055
2749.00,0.0055
2748.00,0.0055
2747.00,0.0055
2746.00,0.0056
2745.00,0.0056
2744.00,0.0057
2743.00,0.0057
2742.00,0.0058
2741.00,0.0059
2740.00,0.0060
2739.00,0.0061
2738.00,0.0062
2737.00,0.0064
2736.00,0.0065
2735.00,0.0066
2734.00,0.0068
2733.00,0.0069
2732.00,0.0070
2731.00,0.0072
2730.00,0.0074
2729.00,0.0077
2728.00,0.0080
2727.00,0.0082
2726.00,0.0085
2725.00,0.0087
2724.00,0.0089
2723.00,0.0089
2722.00,0.0089
2721.00,0.0087
2720.00,0.0084
2719.00,0.0081
2718.00,0.0078
2717.00,0.0074
2716.00,0.0072
2715.00,0.0069
2714.00,0.0067
2713.00,0.0065
2712.00,0.0063
2711.00,0.0061
2710.00,0.0059
2709.00,0.0058
2708.00,0.0056
2707.00,0.0055
2706.00,0.0054
2705.00,0.0053
2704.00,0.0051
2703.00,0.0050
2702.00,0.0049
2701.00,0.0049
2700.00,0.0049
2699.00,0.0048
2698.00,0.0048
2697.00,0.0048
2696.00,0.0047
2695.00,0.0047
2694.00,0.0047
2693.00,0.0047
2692.00,0.0047
2691.00,0.0047
2690.00,0.0047
2689.00,0.0047
2688.00,0.0047
2687.00,0.0047
2686.00,0.0047
2685.00,0.0047
2684.00,0.0047
2683.00,0.0047
2682.00,0.0047
2681.00,0.0047
2680.00,0.0047
2679.00,0.0047
2678.00,0.0047
2677.00,0.0047
2676.00,0.0047
2675.00,0.0047
2674.00,0.0046
2673.00,0.0046
2672.00,0.0046
2671.00,0.0046
2670.00,0.0045
2669.00,0.0045
2668.00,0.0046
2667.00,0.0046
2666.00,0.0047
2665.00,0.0048
2664.00,0.0048
2663.00,0.0049
2662.00,0.0049
2661.00,0.0049
2660.00,0.0049
2659.00,0.0049
2658.00,0.0049
2657.00,0.0049
2656.00,0.0049
2655.00,0.0048
2654.00,0.0047
2653.00,0.0047
2652.00,0.0047
2651.00,0.0046
2650.00,0.0046
2649.00,0.0045
2648.00,0.0044
2647.00,0.0044
2646.00,0.0043
2645.00,0.0043
2644.00,0.0043
2643.00,0.0043
2642.00,0.0042
2641.00,0.0042
2640.00,0.0041
2639.00,0.0040
2638.00,0.0040
2637.00,0.0040
2636.00,0.0040
2635.00,0.0040
2634.00,0.0040
2633.00,0.0041
2632.00,0.0041
2631.00,0.0041
2630.00,0.0041
2629.00,0.0041
2628.00,0.0041
2627.00,0.0041
2626.00,0.0041
2625.00,0.0041
2624.00,0.0041
2623.00,0.0041
2622.00,0.0041
2621.00,0.0041
2620.00,0.0042
2619.00,0.0042
2618.00,0.0042
2617.00,0.0042
2616.00,0.0042
2615.00,0.0042
2614.00,0.0041
2613.00,0.0041
2612.00,0.0041
2611.00,0.0040
2610.00,0.0040
2609.00,0.0040
2608.00,0.0039
2607.00,0.0038
2606.00,0.0037
2605.00,0.0036
2604.00,0.0036
2603.00,0.0035
2602.00,0.0035
2601.00,0.0034
2600.00,0.0034
2599.00,0.0034
2598.00,0.0034
2597.00,0.0034
2596.00,0.0034
2595.00,0.0034
2594.00,0.0034
2593.00,0.0035
2592.00,0.0036
2591.00,0.0037
2590.00,0.0037
2589.00,0.0038
2588.00,0.0039
2587.00,0.0040
2586.00,0.0041
2585.00,0.0041
2584.00,0.0042
2583.00,0.0042
2582.00,0.0042
2581.00,0.0041
2580.00,0.0040
2579.00,0.0039
2578.00,0.0038
2577.00,0.0037
2576.00,0.0036
2575.00,0.0035
2574.00,0.0035
2573.00,0.0034
2572.00,0.0033
2571.00,0.0032
2570.00,0.0031
2569.00,0.0030
2568.00,0.0029
2567.00,0.0028
2566.00,0.0027
2565.00,0.0027
2564.00,0.0026
2563.00,0.0026
2562.00,0.0025
2561.00,0.0025
2560.00,0.0025
2559.00,0.0025
2558.00,0.0024
2557.00,0.0023
2556.00,0.0023
2555.00,0.0023
2554.00,0.0023
2553.00,0.0023
2552.00,0.0023
2551.00,0.0023
2550.00,0.0023
2549.00,0.0023
2548.00,0.0022
2547.00,0.0021
2546.00,0.0021
2545.00,0.0021
2544.00,0.0021
2543.00,0.0021
2542.00,0.0020
2541.00,0.0020
2540.00,0.0019
2539.00,0.0019
2538.00,0.0019
2537.00,0.0019
2536.00,0.0019
2535.00,0.0019
2534.00,0.0019
2533.00,0.0018
2532.00,0.0018
2531.00,0.0018
2530.00,0.0017
2529.00,0.0017
2528.00,0.0017
2527.00,0.0016
2526.00,0.0016
2525.00,0.0016
2524.00,0.0016
2523.00,0.0017
2522.00,0.0017
2521.00,0.0017
2520.00,0.0016
2519.00,0.0016
2518.00,0.0015
2517.00,0.0014
2516.00,0.0014
2515.00,0.0013
2514.00,0.0013
2513.00,0.0013
2512.00,0.0014
2511.00,0.0014
2510.00,0.0014
2509.00,0.0014
2508.00,0.0014
2507.00,0.0013
2506.00,0.0012
2505.00,0.0012
2504.00,0.0012
2503.00,0.0013
2502.00,0.0013
2501.00,0.0013
2500.00,0.0013
2499.00,0.0014
2498.00,0.0014
2497.00,0.0015
2496.00,0.0015
2495.00,0.0014
2494.00,0.0013
2493.00,0.0012
2492.00,0.0012
2491.00,0.0013
2490.00,0.0014
2489.00,0.0014
2488.00,0.0015
2487.00,0.0014
2486.00,0.0014
2485.00,0.0014
2484.00,0.0014
2483.00,0.0014
2482.00,0.0013
2481.00,0.0013
2480.00,0.0012
2479.00,0.0012
2478.00,0.0012
2477.00,0.0012
2476.00,0.0012
2475.00,0.0012
2474.00,0.0013
2473.00,0.0013
2472.00,0.0013
2471.00,0.0013
2470.00,0.0013
2469.00,0.0013
2468.00,0.0013
2467.00,0.0013
2466.00,0.0013
2465.00,0.0013
2464.00,0.0013
2463.00,0.0013
2462.00,0.0013
2461.00,0.0012
2460.00,0.0012
2459.00,0.0012
2458.00,0.0012
2457.00,0.0013
2456.00,0.0014
2455.00,0.0014
2454.00,0.0014
2453.00,0.0013
2452.00,0.0013
2451.00,0.0012
2450.00,0.0013
2449.00,0.0013
2448.00,0.0014
2447.00,0.0014
2446.00,0.0013
2445.00,0.0013
2444.00,0.0012
2443.00,0.0012
2442.00,0.0012
2441.00,0.0012
2440.00,0.0012
2439.00,0.0013
2438.00,0.0013
2437.00,0.0013
2436.00,0.0013
2435.00,0.0014
2434.00,0.0014
2433.00,0.0014
2432.00,0.0014
2431.00,0.0014
2430.00,0.0014
2429.00,0.0014
2428.00,0.0014
2427.00,0.0014
2426.00,0.0013
2425.00,0.0013
2424.00,0.0013
2423.00,0.0013
2422.00,0.0013
2421.00,0.0013
2420.00,0.0012
2419.00,0.0012
2418.00,0.0011
2417.00,0.0012
2416.00,0.0012
2415.00,0.0013
2414.00,0.0013
2413.00,0.0013
2412.00,0.0013
2411.00,0.0014
2410.00,0.0014
2409.00,0.0014
2408.00,0.0013
2407.00,0.0013
2406.00,0.0012
2405.00,0.0012
2404.00,0.0011
2403.00,0.0011
2402.00,0.0010
2401.00,0.0010
2400.00,0.0010
2399.00,0.0010
2398.00,0.0009
2397.00,0.0009
2396.00,0.0009
2395.00,0.0009
2394.00,0.0010
2393.00,0.0010
2392.00,0.0011
2391.00,0.0011
2390.00,0.0011
2389.00,0.0010
2388.00,0.0010
2387.00,0.0010
2386.00,0.0009
2385.00,0.0008
2384.00,0.0007
2383.00,0.0006
2382.00,0.0005
2381.00,0.0005
2380.00,0.0004
2379.00,0.0005
2378.00,0.0005
2377.00,0.0006
2376.00,0.0006
2375.00,0.0007
2374.00,0.0007
2373.00,0.0007
2372.00,0.0007
2371.00,0.0007
2370.00,0.0007
2369.00,0.0007
2368.00,0.0007
2367.00,0.0006
2366.00,0.0006
2365.00,0.0006
2364.00,0.0006
2363.00,0.0007
2362.00,0.0007
2361.00,0.0008
2360.00,0.0009
2359.00,0.0009
2358.00,0.0009
2357.00,0.0008
2356.00,0.0008
2355.00,0.0007
2354.00,0.0007
2353.00,0.0006
2352.00,0.0007
2351.00,0.0007
2350.00,0.0008
2349.00,0.0008
2348.00,0.0009
2347.00,0.0009
2346.00,0.0009
2345.00,0.0009
2344.00,0.0010
2343.00,0.0010
2342.00,0.0010
2341.00,0.0010
2340.00,0.0011
2339.00,0.0011
2338.00,0.0010
2337.00,0.0010
2336.00,0.0010
2335.00,0.0010
2334.00,0.0009
2333.00,0.0009
2332.00,0.0009
2331.00,0.0010
2330.00,0.0010
2329.00,0.0011
2328.00,0.0013
2327.00,0.0016
2326.00,0.0019
2325.00,0.0022
2324.00,0.0023
2323.00,0.0022
2322.00,0.0020
2321.00,0.0018
2320.00,0.0017
2319.00,0.0017
2318.00,0.0016
2317.00,0.0016
2316.00,0.0016
2315.00,0.0015
2314.00,0.0014
2313.00,0.0013
2312.00,0.0012
2311.00,0.0011
2310.00,0.0011
2309.00,0.0011
2308.00,0.0011
2307.00,0.0011
2306.00,0.0011
2305.00,0.0012
2304.00,0.0012
2303.00,0.0012
2302.00,0.0013
2301.00,0.0013
2300.00,0.0014
2299.00,0.0014
2298.00,0.0014
2297.00,0.0015
2296.00,0.0016
2295.00,0.0016
2294.00,0.0017
2293.00,0.0018
2292.00,0.0019
2291.00,0.0019
2290.00,0.0020
2289.00,0.0020
2288.00,0.0021
2287.00,0.0021
2286.00,0.0021
2285.00,0.0020
2284.00,0.0020
2283.00,0.0019
2282.00,0.0018
2281.00,0.0018
2280.00,0.0017
2279.00,0.0016
2278.00,0.0016
2277.00,0.0016
2276.00,0.0016
2275.00,0.0016
2274.00,0.0016
2273.00,0.0015
2272.00,0.0014
2271.00,0.0014
2270.00,0.0014
2269.00,0.0015
2268.00,0.0015
2267.00,0.0014
2266.00,0.0013
2265.00,0.0013
2264.00,0.0013
2263.00,0.0014
2262.00,0.0014
2261.00,0.0014
2260.00,0.0014
2259.00,0.0013
2258.00,0.0014
2257.00,0.0014
2256.00,0.0015
2255.00,0.0015
2254.00,0.0014
2253.00,0.0014
2252.00,0.0014
2251.00,0.0013
2250.00,0.0012
2249.00,0.0011
2248.00,0.0012
2247.00,0.0012
2246.00,0.0014
2245.00,0.0014
2244.00,0.0014
2243.00,0.0014
2242.00,0.0013
2241.00,0.0013
2240.00,0.0012
2239.00,0.0011
2238.00,0.0010
2237.00,0.0010
2236.00,0.0010
2235.00,0.0011
2234.00,0.0011
2233.00,0.0012
2232.00,0.0013
2231.00,0.0013
2230.00,0.0013
2229.00,0.0014
2228.00,0.0014
2227.00,0.0014
2226.00,0.0014
2225.00,0.0014
2224.00,0.0014
2223.00,0.0013
2222.00,0.0011
2221.00,0.0009
2220.00,0.0008
2219.00,0.0008
2218.00,0.0009
2217.00,0.0009
2216.00,0.0009
2215.00,0.0008
2214.00,0.0007
2213.00,0.0006
2212.00,0.0006
2211.00,0.0007
2210.00,0.0009
2209.00,0.0012
2208.00,0.0013
2207.00,0.0012
2206.00,0.0011
2205.00,0.0011
2204.00,0.0010
2203.00,0.0010
2202.00,0.0010
2201.00,0.0011
2200.00,0.0013
2199.00,0.0014
2198.00,0.0014
2197.00,0.0014
2196.00,0.0014
2195.00,0.0014
2194.00,0.0013
2193.00,0.0011
2192.00,0.0010
2191.00,0.0009
2190.00,0.0010
2189.00,0.0011
2188.00,0.0012
2187.00,0.0013
2186.00,0.0014
2185.00,0.0015
2184.00,0.0015
2183.00,0.0014
2182.00,0.0012
2181.00,0.0009
2180.00,0.0008
2179.00,0.0008
2178.00,0.0008
2177.00,0.0006
2176.00,0.0002
2175.00,-0.0001
2174.00,-0.0002
2173.00,0.0001
2172.00,0.0005
2171.00,0.0010
2170.00,0.0013
2169.00,0.0016
2168.00,0.0018
2167.00,0.0020
2166.00,0.0022
2165.00,0.0024
2164.00,0.0026
2163.00,0.0026
2162.00,0.0024
2161.00,0.0018
2160.00,0.0007
2159.00,-0.0008
2158.00,-0.0021
2157.00,-0.0027
2156.00,-0.0026
2155.00,-0.0022
2154.00,-0.0019
2153.00,-0.0017
2152.00,-0.0014
2151.00,-0.0011
2150.00,-0.0008
2149.00,-0.0005
2148.00,-0.0003
2147.00,-0.0003
2146.00,-0.0004
2145.00,-0.0005
2144.00,-0.0006
2143.00,-0.0007
2142.00,-0.0009
2141.00,-0.0010
2140.00,-0.0009
2139.00,-0.0008
2138.00,-0.0006
2137.00,-0.0005
2136.00,-0.0006
2135.00,-0.0008
2134.00,-0.0009
2133.00,-0.0010
2132.00,-0.0008
2131.00,-0.0007
2130.00,-0.0005
2129.00,-0.0004
2128.00,-0.0003
2127.00,-0.0003
2126.00,-0.0002
2125.00,-0.0002
2124.00,-0.0001
2123.00,-0.0001
2122.00,-0.0000
2121.00,0.0000
2120.00,0.0000
2119.00,0.0000
2118.00,0.0001
2117.00,0.0002
2116.00,0.0004
2115.00,0.0005
2114.00,0.0006
2113.00,0.0007
2112.00,0.0007
2111.00,0.0007
2110.00,0.0006
2109.00,0.0005
2108.00,0.0005
2107.00,0.0004
2106.00,0.0003
2105.00,0.0004
2104.00,0.0004
2103.00,0.0004
2102.00,0.0004
2101.00,0.0004
2100.00,0.0004
2099.00,0.0003
2098.00,0.0003
2097.00,0.0002
2096.00,0.0001
2095.00,0.0000
2094.00,-0.0000
2093.00,0.0000
2092.00,0.0001
2091.00,0.0002
2090.00,0.0002
2089.00,0.0002
2088.00,0.0002
2087.00,0.0003
2086.00,0.0003
2085.00,0.0004
2084.00,0.0005
2083.00,0.0006
2082.00,0.0008
2081.00,0.0009
2080.00,0.0010
2079.00,0.0010
2078.00,0.0008
2077.00,0.0007
2076.00,0.0006
2075.00,0.0004
2074.00,0.0003
2073.00,0.0003
2072.00,0.0003
2071.00,0.0003
2070.00,0.0004
2069.00,0.0004
2068.00,0.0003
2067.00,0.0002
2066.00,0.0001
2065.00,0.0000
2064.00,0.0000
2063.00,0.0001
2062.00,0.0003
2061.00,0.0005
2060.00,0.0007
2059.00,0.0007
2058.00,0.0007
2057.00,0.0007
2056.00,0.0007
2055.00,0.0007
2054.00,0.0007
2053.00,0.0009
2052.00,0.0012
2051.00,0.0015
2050.00,0.0014
2049.00,0.0011
2048.00,0.0008
2047.00,0.0006
2046.00,0.0007
2045.00,0.0009
2044.00,0.0011
2043.00,0.0012
2042.00,0.0012
2041.00,0.0010
2040.00,0.0008
2039.00,0.0006
2038.00,0.0004
2037.00,0.0004
2036.00,0.0005
2035.00,0.0004
2034.00,0.0003
2033.00,0.0001
2032.00,-0.0001
2031.00,-0.0003
2030.00,-0.0005
2029.00,-0.0005
2028.00,-0.0005
2027.00,-0.0005
2026.00,-0.0007
2025.00,-0.0008
2024.00,-0.0009
2023.00,-0.0012
2022.00,-0.0015
2021.00,-0.0017
2020.00,-0.0016
2019.00,-0.0014
2018.00,-0.0011
2017.00,-0.0009
2016.00,-0.0008
2015.00,-0.0006
2014.00,-0.0005
2013.00,-0.0003
2012.00,-0.0000
2011.00,0.0001
2010.00,0.0001
2009.00,-0.0001
2008.00,-0.0006
2007.00,-0.0011
2006.00,-0.0013
2005.00,-0.0012
2004.00,-0.0010
2003.00,-0.0009
2002.00,-0.0009
2001.00,-0.0010
2000.00,-0.0009
1999.00,-0.0007
1998.00,-0.0006
1997.00,-0.0005
1996.00,-0.0005
1995.00,-0.0006
1994.00,-0.0007
1993.00,-0.0007
1992.00,-0.0005
1991.00,-0.0005
1990.00,-0.0006
1989.00,-0.0006
1988.00,-0.0006
1987.00,-0.0005
1986.00,-0.0002
1985.00,0.0001
1984.00,0.0004
1983.00,0.0007
1982.00,0.0010
1981.00,0.0012
1980.00,0.0012
1979.00,0.0009
1978.00,0.0003
1977.00,-0.0003
1976.00,-0.0007
1975.00,-0.0009
1974.00,-0.0009
1973.00,-0.0009
1972.00,-0.0009
1971.00,-0.0009
1970.00,-0.0010
1969.00,-0.0010
1968.00,-0.0011
1967.00,-0.0012
1966.00,-0.0014
1965.00,-0.0015
1964.00,-0.0015
1963.00,-0.0014
1962.00,-0.0014
1961.00,-0.0014
1960.00,-0.0013
1959.00,-0.0012
1958.00,-0.0010
1957.00,-0.0009
1956.00,-0.0007
1955.00,-0.0008
1954.00,-0.0009
1953.00,-0.0011
1952.00,-0.0012
1951.00,-0.0013
1950.00,-0.0013
1949.00,-0.0012
1948.00,-0.0011
1947.00,-0.0009
1946.00,-0.0008
1945.00,-0.0007
1944.00,-0.0006
1943.00,-0.0005
1942.00,-0.0005
1941.00,-0.0005
1940.00,-0.0004
1939.00,-0.0004
1938.00,-0.0005
1937.00,-0.0005
1936.00,-0.0005
1935.00,-0.0005
1934.00,-0.0005
1933.00,-0.0006
1932.00,-0.0006
1931.00,-0.0006
1930.00,-0.0006
1929.00,-0.0006
1928.00,-0.0005
1927.00,-0.0005
1926.00,-0.0004
1925.00,-0.0003
1924.00,-0.0003
1923.00,-0.0002
1922.00,-0.0002
1921.00,-0.0002
1920.00,-0.0002
1919.00,-0.0002
1918.00,-0.0002
1917.00,-0.0001
1916.00,0.0000
1915.00,0.0001
1914.00,0.0001
1913.00,0.0001
1912.00,0.0001
1911.00,0.0002
1910.00,0.0003
1909.00,0.0004
1908.00,0.0004
1907.00,0.0002
1906.00,0.0001
1905.00,-0.0001
1904.00,-0.0001
1903.00,-0.0000
1902.00,0.0001
1901.00,0.0002
1900.00,0.0003
1899.00,0.0003
1898.00,0.0003
1897.00,0.0003
1896.00,0.0004
1895.00,0.0005
1894.00,0.0005
1893.00,0.0004
1892.00,0.0002
1891.00,0.0001
1890.00,0.0001
1889.00,0.0001
1888.00,0.0002
1887.00,0.0002
1886.00,0.0001
1885.00,0.0001
1884.00,0.0001
1883.00,0.0001
1882.00,0.0000
1881.00,0.0000
1880.00,0.0000
1879.00,0.0000
1878.00,0.0000
1877.00,0.0000
1876.00,0.0000
1875.00,0.0001
1874.00,0.0001
1873.00,0.0002
1872.00,0.0002
1871.00,0.0001
1870.00,0.0001
1869.00,0.0002
1868.00,0.0003
1867.00,0.0003
1866.00,0.0003
1865.00,0.0003
1864.00,0.0002
1863.00,0.0002
1862.00,0.0003
1861.00,0.0003
1860.00,0.0004
1859.00,0.0004
1858.00,0.0004
1857.00,0.0005
1856.00,0.0005
1855.00,0.0005
1854.00,0.0006
1853.00,0.0006
1852.00,0.0006
1851.00,0.0006
1850.00,0.0006
1849.00,0.0006
1848.00,0.0006
1847.00,0.0005
1846.00,0.0005
1845.00,0.0005
1844.00,0.0005
1843.00,0.0006
1842.00,0.0005
1841.00,0.0004
1840.00,0.0004
1839.00,0.0004
1838.00,0.0004
1837.00,0.0005
1836.00,0.0006
1835.00,0.0007
1834.00,0.0007
1833.00,0.0006
1832.00,0.0006
1831.00,0.0005
1830.00,0.0006
1829.00,0.0007
1828.00,0.0007
1827.00,0.0007
1826.00,0.0007
1825.00,0.0007
1824.00,0.0008
1823.00,0.0008
1822.00,0.0007
1821.00,0.0006
1820.00,0.0005
1819.00,0.0004
1818.00,0.0003
1817.00,0.0003
1816.00,0.0003
1815.00,0.0003
1814.00,0.0003
1813.00,0.0004
1812.00,0.0004
1811.00,0.0005
1810.00,0.0006
1809.00,0.0007
1808.00,0.0008
1807.00,0.0008
1806.00,0.0008
1805.00,0.0008
1804.00,0.0008
1803.00,0.0008
1802.00,0.0007
1801.00,0.0007
1800.00,0.0008
1799.00,0.0008
1798.00,0.0009
1797.00,0.0009
1796.00,0.0009
1795.00,0.0008
1794.00,0.0008
1793.00,0.0008
1792.00,0.0009
1791.00,0.0009
1790.00,0.0009
1789.00,0.0009
1788.00,0.0010
1787.00,0.0010
1786.00,0.0011
1785.00,0.0011
1784.00,0.0012
1783.00,0.0011
1782.00,0.0012
1781.00,0.0012
1780.00,0.0012
1779.00,0.0012
1778.00,0.0012
1777.00,0.0011
1776.00,0.0011
1775.00,0.0011
1774.00,0.0010
1773.00,0.0011
1772.00,0.0013
1771.00,0.0014
1770.00,0.0014
1769.00,0.0014
1768.00,0.0013
1767.00,0.0013
1766.00,0.0013
1765.00,0.0014
1764.00,0.0014
1763.00,0.0015
1762.00,0.0015
1761.00,0.0016
1760.00,0.0016
1759.00,0.0017
1758.00,0.0017
1757.00,0.0018
1756.00,0.0019
1755.00,0.0020
1754.00,0.0020
1753.00,0.0021
1752.00,0.0022
1751.00,0.0023
1750.00,0.0023
1749.00,0.0024
1748.00,0.0025
1747.00,0.0026
1746.00,0.0027
1745.00,0.0028
1744.00,0.0029
1743.00,0.0029
1742.00,0.0030
1741.00,0.0030
1740.00,0.0031
1739.00,0.0031
1738.00,0.0031
1737.00,0.0031
1736.00,0.0031
1735.00,0.0032
1734.00,0.0033
1733.00,0.0034
1732.00,0.0034
1731.00,0.0034
1730.00,0.0034
1729.00,0.0034
1728.00,0.0034
1727.00,0.0033
1726.00,0.0033
1725.00,0.0034
1724.00,0.0034
1723.00,0.0035
1722.00,0.0035
1721.00,0.0034
1720.00,0.0034
1719.00,0.0034
1718.00,0.0033
1717.00,0.0033
1716.00,0.0033
1715.00,0.0034
1714.00,0.0034
1713.00,0.0034
1712.00,0.0034
1711.00,0.0034
1710.00,0.0033
1709.00,0.0034
1708.00,0.0034
1707.00,0.0034
1706.00,0.0034
1705.00,0.0035
1704.00,0.0035
1703.00,0.0035
1702.00,0.0036
1701.00,0.0037
1700.00,0.0039
1699.00,0.0040
1698.00,0.0042
1697.00,0.0044
1696.00,0.0047
1695.00,0.0050
1694.00,0.0052
1693.00,0.0053
1692.00,0.0056
1691.00,0.0058
1690.00,0.0060
1689.00,0.0063
1688.00,0.0065
1687.00,0.0067
1686.00,0.0068
1685.00,0.0071
1684.00,0.0074
1683.00,0.0076
1682.00,0.0078
1681.00,0.0079
1680.00,0.0081
1679.00,0.0083
1678.00,0.0085
1677.00,0.0086
1676.00,0.0089
1675.00,0.0091
1674.00,0.0092
1673.00,0.0094
1672.00,0.0096
1671.00,0.0098
1670.00,0.0100
1669.00,0.0101
1668.00,0.0102
1667.00,0.0103
1666.00,0.0103
1665.00,0.0104
1664.00,0.0104
1663.00,0.0106
1662.00,0.0107
1661.00,0.0108
1660.00,0.0110
1659.00,0.0111
1658.00,0.0111
1657.00,0.0112
1656.00,0.0113
1655.00,0.0114
1654.00,0.0115
1653.00,0.0116
1652.00,0.0117
1651.00,0.0117
1650.00,0.0119
1649.00,0.0120
1648.00,0.0122
1647.00,0.0123
1646.00,0.0124
1645.00,0.0124
1644.00,0.0124
1643.00,0.0124
1642.00,0.0125
1641.00,0.0125
1640.00,0.0125
1639.00,0.0125
1638.00,0.0126
1637.00,0.0127
1636.00,0.0127
1635.00,0.0126
1634.00,0.0125
1633.00,0.0124
1632.00,0.0124
1631.00,0.0123
1630.00,0.0123
1629.00,0.0123
1628.00,0.0122
1627.00,0.0122
1626.00,0.0121
1625.00,0.0120
1624.00,0.0120
1623.00,0.0119
1622.00,0.0118
1621.00,0.0117
1620.00,0.0117
1619.00,0.0116
1618.00,0.0115
1617.00,0.0115
1616.00,0.0114
1615.00,0.0114
1614.00,0.0114
1613.00,0.0114
1612.00,0.0114
1611.00,0.0114
1610.00,0.0114
1609.00,0.0114
1608.00,0.0113
1607.00,0.0113
1606.00,0.0112
1605.00,0.0112
1604.00,0.0112
1603.00,0.0112
1602.00,0.0112
1601.00,0.0112
1600.00,0.0113
1599.00,0.0113
1598.00,0.0113
1597.00,0.0113
1596.00,0.0113
1595.00,0.0113
1594.00,0.0113
1593.00,0.0114
1592.00,0.0114
1591.00,0.0114
1590.00,0.0115
1589.00,0.0116
1588.00,0.0118
1587.00,0.0120
1586.00,0.0122
1585.00,0.0125
1584.00,0.0129
1583.00,0.0133
1582.00,0.0138
1581.00,0.0143
1580.00,0.0147
1579.00,0.0151
1578.00,0.0153
1577.00,0.0154
1576.00,0.0153
1575.00,0.0151
1574.00,0.0149
1573.00,0.0146
1572.00,0.0144
1571.00,0.0141
1570.00,0.0137
1569.00,0.0133
1568.00,0.0131
1567.00,0.0130
1566.00,0.0128
1565.00,0.0127
1564.00,0.0126
1563.00,0.0125
1562.00,0.0125
1561.00,0.0126
1560.00,0.0126
1559.00,0.0126
1558.00,0.0126
1557.00,0.0127
1556.00,0.0128
1555.00,0.0130
1554.00,0.0131
1553.00,0.0133
1552.00,0.0136
1551.00,0.0138
1550.00,0.0141
1549.00,0.0144
1548.00,0.0147
1547.00,0.0151
1546.00,0.0155
1545.00,0.0159
1544.00,0.0164
1543.00,0.0168
1542.00,0.0170
1541.00,0.0171
1540.00,0.0169
1539.00,0.0162
1538.00,0.0155
1537.00,0.0150
1536.00,0.0144
1535.00,0.0138
1534.00,0.0130
1533.00,0.0122
1532.00,0.0117
1531.00,0.0113
1530.00,0.0111
1529.00,0.0108
1528.00,0.0106
1527.00,0.0103
1526.00,0.0100
1525.00,0.0098
1524.00,0.0098
1523.00,0.0097
1522.00,0.0096
1521.00,0.0095
1520.00,0.0094
1519.00,0.0094
1518.00,0.0094
1517.00,0.0094
1516.00,0.0094
1515.00,0.0093
1514.00,0.0092
1513.00,0.0092
1512.00,0.0093
1511.00,0.0093
1510.00,0.0093
1509.00,0.0094
1508.00,0.0094
1507.00,0.0092
1506.00,0.0091
1505.00,0.0093
1504.00,0.0095
1503.00,0.0097
1502.00,0.0099
1501.00,0.0102
1500.00,0.0104
1499.00,0.0107
1498.00,0.0109
1497.00,0.0112
1496.00,0.0117
1495.00,0.0120
1494.00,0.0123
1493.00,0.0127
1492.00,0.0132
1491.00,0.0137
1490.00,0.0142
1489.00,0.0148
1488.00,0.0154
1487.00,0.0160
1486.00,0.0166
1485.00,0.0173
1484.00,0.0182
1483.00,0.0192
1482.00,0.0203
1481.00,0.0216
1480.00,0.0229
1479.00,0.0243
1478.00,0.0258
1477.00,0.0279
1476.00,0.0303
1475.00,0.0332
1474.00,0.0370
1473.00,0.0426
1472.00,0.0492
1471.00,0.0557
1470.00,0.0619
1469.00,0.0685
1468.00,0.0755
1467.00,0.0832
1466.00,0.0918
1465.00,0.1011
1464.00,0.1090
1463.00,0.1143
1462.00,0.1175
1461.00,0.1194
1460.00,0.1206
1459.00,0.1211
1458.00,0.1212
1457.00,0.1209
1456.00,0.1200
1455.00,0.1185
1454.00,0.1169
1453.00,0.1147
1452.00,0.1116
1451.00,0.1074
1450.00,0.1020
1449.00,0.0949
1448.00,0.0861
1447.00,0.0772
1446.00,0.0693
1445.00,0.0627
1444.00,0.0572
1443.00,0.0527
1442.00,0.0493
1441.00,0.0471
1440.00,0.0458
1439.00,0.0455
1438.00,0.0460
1437.00,0.0466
1436.00,0.0460
1435.00,0.0439
1434.00,0.0405
1433.00,0.0363
1432.00,0.0319
1431.00,0.0278
1430.00,0.0246
1429.00,0.0223
1428.00,0.0207
1427.00,0.0198
1426.00,0.0192
1425.00,0.0187
1424.00,0.0182
1423.00,0.0179
1422.00,0.0177
1421.00,0.0175
1420.00,0.0171
1419.00,0.0167
1418.00,0.0163
1417.00,0.0159
1416.00,0.0156
1415.00,0.0153
1414.00,0.0151
1413.00,0.0148
1412.00,0.0145
1411.00,0.0142
1410.00,0.0140
1409.00,0.0138
1408.00,0.0136
1407.00,0.0134
1406.00,0.0133
1405.00,0.0130
1404.00,0.0128
1403.00,0.0126
1402.00,0.0126
1401.00,0.0126
1400.00,0.0125
1399.00,0.0124
1398.00,0.0124
1397.00,0.0124
1396.00,0.0123
1395.00,0.0125
1394.00,0.0128
1393.00,0.0132
1392.00,0.0136
1391.00,0.0144
1390.00,0.0154
1389.00,0.0166
1388.00,0.0185
1387.00,0.0213
1386.00,0.0251
1385.00,0.0303
1384.00,0.0375
1383.00,0.0481
1382.00,0.0628
1381.00,0.0824
1380.00,0.1073
1379.00,0.1361
1378.00,0.1644
1377.00,0.1855
1376.00,0.1931
1375.00,0.1838
1374.00,0.1605
1373.00,0.1322
1372.00,0.1062
1371.00,0.0850
1370.00,0.0682
1369.00,0.0556
1368.00,0.0470
1367.00,0.0417
1366.00,0.0388
1365.00,0.0377
1364.00,0.0379
1363.00,0.0394
1362.00,0.0416
1361.00,0.0440
1360.00,0.0459
1359.00,0.0466
1358.00,0.0457
1357.00,0.0433
1356.00,0.0397
1355.00,0.0356
1354.00,0.0317
1353.00,0.0284
1352.00,0.0257
1351.00,0.0236
1350.00,0.0218
1349.00,0.0204
1348.00,0.0192
1347.00,0.0182
1346.00,0.0173
1345.00,0.0166
1344.00,0.0160
1343.00,0.0154
1342.00,0.0149
1341.00,0.0145
1340.00,0.0141
1339.00,0.0139
1338.00,0.0138
1337.00,0.0137
1336.00,0.0138
1335.00,0.0141
1334.00,0.0144
1333.00,0.0149
1332.00,0.0154
1331.00,0.0158
1330.00,0.0159
1329.00,0.0158
1328.00,0.0154
1327.00,0.0149
1326.00,0.0143
1325.00,0.0137
1324.00,0.0131
1323.00,0.0126
1322.00,0.0122
1321.00,0.0120
1320.00,0.0118
1319.00,0.0117
1318.00,0.0115
1317.00,0.0114
1316.00,0.0113
1315.00,0.0112
1314.00,0.0111
1313.00,0.0111
1312.00,0.0111
1311.00,0.0112
1310.00,0.0115
1309.00,0.0119
1308.00,0.0126
1307.00,0.0133
1306.00,0.0141
1305.00,0.0146
1304.00,0.0148
1303.00,0.0148
1302.00,0.0146
1301.00,0.0145
1300.00,0.0145
1299.00,0.0146
1298.00,0.0147
1297.00,0.0149
1296.00,0.0149
1295.00,0.0147
1294.00,0.0144
1293.00,0.0138
1292.00,0.0133
1291.00,0.0128
1290.00,0.0123
1289.00,0.0119
1288.00,0.0115
1287.00,0.0111
1286.00,0.0109
1285.00,0.0107
1284.00,0.0105
1283.00,0.0103
1282.00,0.0101
1281.00,0.0100
1280.00,0.0098
1279.00,0.0097
1278.00,0.0096
1277.00,0.0095
1276.00,0.0094
1275.00,0.0093
1274.00,0.0092
1273.00,0.0091
1272.00,0.0090
1271.00,0.0089
1270.00,0.0090
1269.00,0.0090
1268.00,0.0092
1267.00,0.0094
1266.00,0.0096
1265.00,0.0099
1264.00,0.0102
1263.00,0.0104
1262.00,0.0107
1261.00,0.0110
1260.00,0.0113
1259.00,0.0116
1258.00,0.0119
1257.00,0.0121
1256.00,0.0121
1255.00,0.0118
1254.00,0.0113
1253.00,0.0107
1252.00,0.0101
1251.00,0.0097
1250.00,0.0095
1249.00,0.0093
1248.00,0.0092
1247.00,0.0092
1246.00,0.0091
1245.00,0.0090
1244.00,0.0089
1243.00,0.0088
1242.00,0.0087
1241.00,0.0086
1240.00,0.0086
1239.00,0.0086
1238.00,0.0086
1237.00,0.0087
1236.00,0.0087
1235.00,0.0089
1234.00,0.0090
1233.00,0.0092
1232.00,0.0094
1231.00,0.0096
1230.00,0.0098
1229.00,0.0100
1228.00,0.0102
1227.00,0.0105
1226.00,0.0109
1225.00,0.0113
1224.00,0.0118
1223.00,0.0123
1222.00,0.0127
1221.00,0.0130
1220.00,0.0133
1219.00,0.0135
1218.00,0.0134
1217.00,0.0133
1216.00,0.0129
1215.00,0.0126
1214.00,0.0122
1213.00,0.0119
1212.00,0.0116
1211.00,0.0113
1210.00,0.0111
1209.00,0.0109
1208.00,0.0108
1207.00,0.0107
1206.00,0.0106
1205.00,0.0105
1204.00,0.0105
1203.00,0.0105
1202.00,0.0106
1201.00,0.0107
1200.00,0.0107
1199.00,0.0107
1198.00,0.0106
1197.00,0.0106
1196.00,0.0105
1195.00,0.0105
1194.00,0.0105
1193.00,0.0105
1192.00,0.0104
1191.00,0.0104
1190.00,0.0103
1189.00,0.0102
1188.00,0.0101
1187.00,0.0100
1186.00,0.0099
1185.00,0.0097
1184.00,0.0096
1183.00,0.0095
1182.00,0.0095
1181.00,0.0096
1180.00,0.0098
1179.00,0.0100
1178.00,0.0104
1177.00,0.0108
1176.00,0.0114
1175.00,0.0123
1174.00,0.0135
1173.00,0.0151
1172.00,0.0169
1171.00,0.0189
1170.00,0.0208
1169.00,0.0223
1168.00,0.0231
1167.00,0.0233
1166.00,0.0228
1165.00,0.0220
1164.00,0.0211
1163.00,0.0203
1162.00,0.0195
1161.00,0.0189
1160.00,0.0183
1159.00,0.0179
1158.00,0.0177
1157.00,0.0176
1156.00,0.0176
1155.00,0.0177
1154.00,0.0178
1153.00,0.0178
1152.00,0.0177
1151.00,0.0173
1150.00,0.0167
1149.00,0.0159
1148.00,0.0151
1147.00,0.0143
1146.00,0.0137
1145.00,0.0131
1144.00,0.0126
1143.00,0.0122
1142.00,0.0117
1141.00,0.0114
1140.00,0.0111
1139.00,0.0109
1138.00,0.0107
1137.00,0.0106
1136.00,0.0104
1135.00,0.0103
1134.00,0.0102
1133.00,0.0102
1132.00,0.0102
1131.00,0.0103
1130.00,0.0105
1129.00,0.0108
1128.00,0.0111
1127.00,0.0114
1126.00,0.0117
1125.00,0.0120
1124.00,0.0122
1123.00,0.0125
1122.00,0.0127
1121.00,0.0129
1120.00,0.0130
1119.00,0.0132
1118.00,0.0134
1117.00,0.0135
1116.00,0.0137
1115.00,0.0140
1114.00,0.0142
1113.00,0.0145
1112.00,0.0147
1111.00,0.0149
1110.00,0.0151
1109.00,0.0154
1108.00,0.0159
1107.00,0.0165
1106.00,0.0171
1105.00,0.0177
1104.00,0.0181
1103.00,0.0183
1102.00,0.0182
1101.00,0.0177
1100.00,0.0170
1099.00,0.0162
1098.00,0.0154
1097.00,0.0148
1096.00,0.0142
1095.00,0.0137
1094.00,0.0132
1093.00,0.0127
1092.00,0.0123
1091.00,0.0119
1090.00,0.0116
1089.00,0.0114
1088.00,0.0113
1087.00,0.0112
1086.00,0.0112
1085.00,0.0112
1084.00,0.0111
1083.00,0.0110
1082.00,0.0108
1081.00,0.0107
1080.00,0.0105
1079.00,0.0104
1078.00,0.0102
1077.00,0.0100
1076.00,0.0098
1075.00,0.0097
1074.00,0.0095
1073.00,0.0095
1072.00,0.0094
1071.00,0.0094
1070.00,0.0094
1069.00,0.0094
1068.00,0.0094
1067.00,0.0096
1066.00,0.0097
1065.00,0.0098
1064.00,0.0099
1063.00,0.0100
1062.00,0.0101
1061.00,0.0103
1060.00,0.0104
1059.00,0.0105
1058.00,0.0105
1057.00,0.0106
1056.00,0.0107
1055.00,0.0109
1054.00,0.0112
1053.00,0.0116
1052.00,0.0120
1051.00,0.0124
1050.00,0.0129
1049.00,0.0134
1048.00,0.0138
1047.00,0.0143
1046.00,0.0146
1045.00,0.0150
1044.00,0.0152
1043.00,0.0153
1042.00,0.0152
1041.00,0.0152
1040.00,0.0152
1039.00,0.0153
1038.00,0.0155
1037.00,0.0156
1036.00,0.0157
1035.00,0.0157
1034.00,0.0156
1033.00,0.0154
1032.00,0.0151
1031.00,0.0149
1030.00,0.0148
1029.00,0.0148
1028.00,0.0149
1027.00,0.0149
1026.00,0.0150
1025.00,0.0151
1024.00,0.0153
1023.00,0.0154
1022.00,0.0157
1021.00,0.0159
1020.00,0.0161
1019.00,0.0162
1018.00,0.0162
1017.00,0.0161
1016.00,0.0161
1015.00,0.0160
1014.00,0.0159
1013.00,0.0158
1012.00,0.0158
1011.00,0.0157
1010.00,0.0156
1009.00,0.0155
1008.00,0.0154
1007.00,0.0155
1006.00,0.0159
1005.00,0.0164
1004.00,0.0173
1003.00,0.0186
1002.00,0.0205
1001.00,0.0227
1000.00,0.0249
999.00,0.0267
998.00,0.0274
997.00,0.0268
996.00,0.0249
995.00,0.0224
994.00,0.0198
993.00,0.0175
992.00,0.0157
991.00,0.0144
990.00,0.0136
989.00,0.0130
988.00,0.0125
987.00,0.0123
986.00,0.0122
985.00,0.0122
984.00,0.0124
983.00,0.0128
982.00,0.0136
981.00,0.0147
980.00,0.0163
979.00,0.0183
978.00,0.0208
977.00,0.0236
976.00,0.0265
975.00,0.0290
974.00,0.0306
973.00,0.0308
972.00,0.0292
971.00,0.0263
970.00,0.0227
969.00,0.0192
968.00,0.0162
967.00,0.0139
966.00,0.0123
965.00,0.0111
964.00,0.0103
963.00,0.0096
962.00,0.0091
961.00,0.0086
960.00,0.0082
959.00,0.0078
958.00,0.0073
957.00,0.0070
956.00,0.0068
955.00,0.0066
954.00,0.0065
953.00,0.0064
952.00,0.0063
951.00,0.0063
950.00,0.0063
949.00,0.0064
948.00,0.0064
947.00,0.0066
946.00,0.0068
945.00,0.0071
944.00,0.0075
943.00,0.0080
942.00,0.0084
941.00,0.0087
940.00,0.0088
939.00,0.0086
938.00,0.0082
937.00,0.0077
936.00,0.0073
935.00,0.0071
934.00,0.0070
933.00,0.0070
932.00,0.0069
931.00,0.0069
930.00,0.0069
929.00,0.0069
928.00,0.0069
927.00,0.0070
926.00,0.0070
925.00,0.0072
924.00,0.0073
923.00,0.0074
922.00,0.0075
921.00,0.0076
920.00,0.0076
919.00,0.0076
918.00,0.0077
917.00,0.0078
916.00,0.0079
915.00,0.0080
914.00,0.0081
913.00,0.0082
912.00,0.0082
911.00,0.0084
910.00,0.0086
909.00,0.0089
908.00,0.0092
907.00,0.0097
906.00,0.0105
905.00,0.0116
904.00,0.0132
903.00,0.0151
902.00,0.0172
901.00,0.0190
900.00,0.0202
899.00,0.0203
898.00,0.0194
897.00,0.0178
896.00,0.0158
895.00,0.0139
894.00,0.0123
893.00,0.0111
892.00,0.0103
891.00,0.0097
890.00,0.0094
889.00,0.0091
888.00,0.0090
887.00,0.0089
886.00,0.0089
885.00,0.0089
884.00,0.0089
883.00,0.0089
882.00,0.0089
881.00,0.0090
880.00,0.0091
879.00,0.0092
878.00,0.0092
877.00,0.0093
876.00,0.0093
875.00,0.0094
874.00,0.0094
873.00,0.0094
872.00,0.0092
871.00,0.0091
870.00,0.0089
869.00,0.0089
868.00,0.0088
867.00,0.0088
866.00,0.0090
865.00,0.0091
864.00,0.0093
863.00,0.0094
862.00,0.0095
861.00,0.0095
860.00,0.0096
859.00,0.0096
858.00,0.0098
857.00,0.0099
856.00,0.0100
855.00,0.0101
854.00,0.0101
853.00,0.0102
852.00,0.0104
851.00,0.0106
850.00,0.0108
849.00,0.0111
848.00,0.0116
847.00,0.0124
846.00,0.0137
845.00,0.0158
844.00,0.0186
843.00,0.0216
842.00,0.0240
841.00,0.0246
840.00,0.0232
839.00,0.0204
838.00,0.0173
837.00,0.0148
836.00,0.0131
835.00,0.0120
834.00,0.0114
833.00,0.0111
832.00,0.0109
831.00,0.0107
830.00,0.0105
829.00,0.0103
828.00,0.0102
827.00,0.0102
826.00,0.0103
825.00,0.0104
824.00,0.0105
823.00,0.0106
822.00,0.0107
821.00,0.0108
820.00,0.0111
819.00,0.0115
818.00,0.0121
817.00,0.0128
816.00,0.0136
815.00,0.0147
814.00,0.0163
813.00,0.0183
812.00,0.0206
811.00,0.0227
810.00,0.0244
809.00,0.0251
808.00,0.0247
807.00,0.0233
806.00,0.0213
805.00,0.0193
804.00,0.0174
803.00,0.0159
802.00,0.0148
801.00,0.0139
800.00,0.0131
799.00,0.0125
798.00,0.0121
797.00,0.0118
796.00,0.0116
795.00,0.0114
794.00,0.0111
793.00,0.0107
792.00,0.0103
791.00,0.0100
790.00,0.0098
789.00,0.0096
788.00,0.0095
787.00,0.0093
786.00,0.0093
785.00,0.0092
784.00,0.0092
783.00,0.0091
782.00,0.0091
781.00,0.0090
780.00,0.0089
779.00,0.0087
778.00,0.0085
777.00,0.0084
776.00,0.0083
775.00,0.0083
774.00,0.0083
773.00,0.0083
772.00,0.0084
771.00,0.0086
770.00,0.0088
769.00,0.0089
768.00,0.0089
767.00,0.0090
766.00,0.0090
765.00,0.0090
764.00,0.0090
763.00,0.0089
762.00,0.0088
761.00,0.0087
760.00,0.0086
759.00,0.0087
758.00,0.0089
757.00,0.0093
756.00,0.0095
755.00,0.0097
754.00,0.0097
753.00,0.0097
752.00,0.0097
751.00,0.0097
750.00,0.0098
749.00,0.0099
748.00,0.0101
747.00,0.0103
746.00,0.0106
745.00,0.0110
744.00,0.0114
743.00,0.0117
742.00,0.0121
741.00,0.0126
740.00,0.0130
739.00,0.0134
738.00,0.0138
737.00,0.0142
736.00,0.0147
735.00,0.0152
734.00,0.0156
733.00,0.0161
732.00,0.0167
731.00,0.0174
730.00,0.0180
729.00,0.0184
728.00,0.0187
727.00,0.0190
726.00,0.0193
725.00,0.0197
724.00,0.0203
723.00,0.0208
722.00,0.0213
721.00,0.0216
720.00,0.0215
719.00,0.0208
718.00,0.0195
717.00,0.0181
716.00,0.0167
715.00,0.0156
714.00,0.0148
713.00,0.0142
712.00,0.0139
711.00,0.0137
710.00,0.0137
709.00,0.0136
708.00,0.0136
707.00,0.0136
706.00,0.0136
705.00,0.0136
704.00,0.0135
703.00,0.0133
702.00,0.0131
701.00,0.0128
700.00,0.0126
699.00,0.0124
698.00,0.0125
697.00,0.0126
696.00,0.0125
695.00,0.0124
694.00,0.0122
693.00,0.0122
692.00,0.0123
691.00,0.0124
690.00,0.0125
689.00,0.0125
688.00,0.0124
687.00,0.0124
686.00,0.0123
685.00,0.0122
684.00,0.0121
683.00,0.0121
682.00,0.0121
681.00,0.0122
680.00,0.0122
679.00,0.0122
678.00,0.0123
677.00,0.0124
676.00,0.0125
675.00,0.0127
674.00,0.0129
673.00,0.0132
672.00,0.0136
671.00,0.0139
670.00,0.0141
669.00,0.0140
668.00,0.0137
667.00,0.0134
666.00,0.0131
665.00,0.0128
664.00,0.0125
663.00,0.0122
662.00,0.0121
661.00,0.0122
660.00,0.0123
659.00,0.0121
658.00,0.0117
657.00,0.0113
656.00,0.0112
655.00,0.0113
654.00,0.0115
653.00,0.0115
652.00,0.0114
651.00,0.0111
650.00,0.0108
649.00,0.0107
648.00,0.0109
647.00,0.0112
646.00,0.0115
645.00,0.0117
644.00,0.0117
643.00,0.0117
642.00,0.0115
641.00,0.0112
640.00,0.0109
639.00,0.0108
638.00,0.0108
637.00,0.0109
636.00,0.0109
635.00,0.0109
634.00,0.0110
633.00,0.0112
632.00,0.0114
631.00,0.0114
630.00,0.0113
629.00,0.0110
628.00,0.0109
627.00,0.0110
626.00,0.0112
625.00,0.0114
624.00,0.0116
623.00,0.0116
622.00,0.0117
621.00,0.0116
620.00,0.0115
619.00,0.0113
618.00,0.0113
617.00,0.0113
616.00,0.0113
615.00,0.0112
614.00,0.0112
613.00,0.0113
612.00,0.0113
611.00,0.0112
610.00,0.0112
609.00,0.0112
608.00,0.0113
607.00,0.0113
606.00,0.0112
605.00,0.0110
604.00,0.0109
603.00,0.0110
602.00,0.0112
601.00,0.0112
600.00,0.0111
599.00,0.0108
598.00,0.0106
597.00,0.0106
596.00,0.0107
595.00,0.0109
594.00,0.0111
593.00,0.0110
592.00,0.0108
591.00,0.0107
590.00,0.0109
589.00,0.0111
588.00,0.0111
587.00,0.0110
586.00,0.0108
585.00,0.0107
584.00,0.0108
583.00,0.0111
582.00,0.0114
581.00,0.0116
580.00,0.0116
579.00,0.0117
578.00,0.0117
577.00,0.0115
576.00,0.0110
575.00,0.0106
574.00,0.0104
573.00,0.0104
572.00,0.0104
571.00,0.0104
570.00,0.0104
569.00,0.0106
568.00,0.0111
567.00,0.0116
566.00,0.0118
565.00,0.0116
564.00,0.0111
563.00,0.0106
562.00,0.0103
561.00,0.0103
560.00,0.0106
559.00,0.0109
558.00,0.0112
557.00,0.0113
556.00,0.0112
555.00,0.0111
554.00,0.0110
553.00,0.0110
552.00,0.0108
551.00,0.0105
550.00,0.0102
549.00,0.0101
548.00,0.0104
547.00,0.0109
546.00,0.0115
545.00,0.0117
544.00,0.0117
543.00,0.0115
542.00,0.0115
541.00,0.0117
540.00,0.0121
539.00,0.0126
538.00,0.0132
537.00,0.0135
536.00,0.0135
535.00,0.0133
534.00,0.0133
533.00,0.0134
532.00,0.0135
531.00,0.0136
530.00,0.0135
529.00,0.0134
528.00,0.0133
527.00,0.0131
526.00,0.0126
525.00,0.0121
524.00,0.0117
523.00,0.0116
522.00,0.0116
521.00,0.0116
520.00,0.0117
519.00,0.0118
518.00,0.0120
517.00,0.0120
516.00,0.0116
515.00,0.0109
514.00,0.0103
513.00,0.0101
512.00,0.0100
511.00,0.0101
510.00,0.0101
509.00,0.0103
508.00,0.0108
507.00,0.0113
506.00,0.0118
505.00,0.0120
504.00,0.0120
503.00,0.0118
502.00,0.0115
501.00,0.0108
500.00,0.0100
499.00,0.0096
498.00,0.0096
497.00,0.0101
496.00,0.0106
495.00,0.0107
494.00,0.0105
493.00,0.0101
492.00,0.0101
491.00,0.0104
490.00,0.0109
489.00,0.0112
488.00,0.0112
487.00,0.0110
486.00,0.0108
485.00,0.0107
484.00,0.0109
483.00,0.0114
482.00,0.0119
481.00,0.0121
480.00,0.0120
479.00,0.0119
478.00,0.0119
477.00,0.0120
476.00,0.0120
475.00,0.0120
474.00,0.0122
473.00,0.0130
472.00,0.0140
471.00,0.0151
470.00,0.0160
469.00,0.0168
468.00,0.0177
467.00,0.0185
466.00,0.0190
465.00,0.0188
464.00,0.0181
463.00,0.0176
462.00,0.0182
461.00,0.0200
460.00,0.0220
459.00,0.0232
458.00,0.0226
457.00,0.0210
456.00,0.0197
455.00,0.0194
454.00,0.0195
453.00,0.0192
452.00,0.0186
451.00,0.0183
450.00,0.0184
