Created as New Dataset,Sample 043 By Administrator Date Friday, September 05 2025
cm-1,A
4000.00,0.0009
3999.00,0.0009
3998.00,0.0009
3997.00,0.0009
3996.00,0.0009
3995.00,0.0009
3994.00,0.0009
3993.00,0.0010
3992.00,0.0010
3991.00,0.0010
3990.00,0.0010
3989.00,0.0010
3988.00,0.0010
3987.00,0.0010
3986.00,0.0010
3985.00,0.0009
3984.00,0.0009
3983.00,0.0009
3982.00,0.0009
3981.00,0.0009
3980.00,0.0009
3979.00,0.0009
3978.00,0.0009
3977.00,0.0008
3976.00,0.0008
3975.00,0.0008
3974.00,0.0008
3973.00,0.0008
3972.00,0.0009
3971.00,0.0009
3970.00,0.0009
3969.00,0.0008
3968.00,0.0008
3967.00,0.0008
3966.00,0.0007
3965.00,0.0007
3964.00,0.0007
3963.00,0.0007
3962.00,0.0007
3961.00,0.0008
3960.00,0.0008
3959.00,0.0008
3958.00,0.0007
3957.00,0.0007
3956.00,0.0007
3955.00,0.0007
3954.00,0.0007
3953.00,0.0008
3952.00,0.0008
3951.00,0.0008
3950.00,0.0008
3949.00,0.0008
3948.00,0.0007
3947.00,0.0007
3946.00,0.0007
3945.00,0.0008
3944.00,0.0008
3943.00,0.0008
3942.00,0.0008
3941.00,0.0008
3940.00,0.0008
3939.00,0.0008
3938.00,0.0008
3937.00,0.0008
3936.00,0.0008
3935.00,0.0008
3934.00,0.0008
3933.00,0.0008
3932.00,0.0008
3931.00,0.0008
3930.00,0.0009
3929.00,0.0008
3928.00,0.0008
3927.00,0.0008
3926.00,0.0008
3925.00,0.0008
3924.00,0.0008
3923.00,0.0008
3922.00,0.0009
3921.00,0.0009
3920.00,0.0009
3919.00,0.0009
3918.00,0.0008
3917.00,0.0009
3916.00,0.0009
3915.00,0.0009
3914.00,0.0009
3913.00,0.0009
3912.00,0.0008
3911.00,0.0008
3910.00,0.0008
3909.00,0.0009
3908.00,0.0009
3907.00,0.0008
3906.00,0.0008
3905.00,0.0008
3904.00,0.0008
3903.00,0.0008
3902.00,0.0008
3901.00,0.0008
3900.00,0.0008
3899.00,0.0008
3898.00,0.0008
3897.00,0.0009
3896.00,0.0009
3895.00,0.0009
3894.00,0.0009
3893.00,0.0008
3892.00,0.0008
3891.00,0.0008
3890.00,0.0008
3889.00,0.0008
3888.00,0.0008
3887.00,0.0008
3886.00,0.0008
3885.00,0.0008
3884.00,0.0008
3883.00,0.0008
3882.00,0.0008
3881.00,0.0008
3880.00,0.0008
3879.00,0.0009
3878.00,0.0008
3877.00,0.0008
3876.00,0.0008
3875.00,0.0007
3874.00,0.0008
3873.00,0.0008
3872.00,0.0008
3871.00,0.0008
3870.00,0.0008
3869.00,0.0008
3868.00,0.0008
3867.00,0.0008
3866.00,0.0008
3865.00,0.0008
3864.00,0.0008
3863.00,0.0008
3862.00,0.0008
3861.00,0.0007
3860.00,0.0007
3859.00,0.0008
3858.00,0.0008
3857.00,0.0008
3856.00,0.0008
3855.00,0.0008
3854.00,0.0008
3853.00,0.0009
3852.00,0.0009
3851.00,0.0009
3850.00,0.0008
3849.00,0.0008
3848.00,0.0008
3847.00,0.0008
3846.00,0.0008
3845.00,0.0008
3844.00,0.0008
3843.00,0.0009
3842.00,0.0009
3841.00,0.0009
3840.00,0.0008
3839.00,0.0008
3838.00,0.0008
3837.00,0.0008
3836.00,0.0007
3835.00,0.0007
3834.00,0.0007
3833.00,0.0007
3832.00,0.0007
3831.00,0.0007
3830.00,0.0007
3829.00,0.0007
3828.00,0.0007
3827.00,0.0008
3826.00,0.0008
3825.00,0.0008
3824.00,0.0008
3823.00,0.0008
3822.00,0.0008
3821.00,0.0008
3820.00,0.0009
3819.00,0.0008
3818.00,0.0008
3817.00,0.0008
3816.00,0.0008
3815.00,0.0008
3814.00,0.0008
3813.00,0.0008
3812.00,0.0008
3811.00,0.0009
3810.00,0.0009
3809.00,0.0009
3808.00,0.0009
3807.00,0.0009
3806.00,0.0008
3805.00,0.0008
3804.00,0.0008
3803.00,0.0008
3802.00,0.0008
3801.00,0.0008
3800.00,0.0008
3799.00,0.0008
3798.00,0.0008
3797.00,0.0008
3796.00,0.0008
3795.00,0.0008
3794.00,0.0008
3793.00,0.0008
3792.00,0.0008
3791.00,0.0008
3790.00,0.0008
3789.00,0.0008
3788.00,0.0008
3787.00,0.0009
3786.00,0.0009
3785.00,0.0009
3784.00,0.0009
3783.00,0.0008
3782.00,0.0008
3781.00,0.0008
3780.00,0.0007
3779.00,0.0008
3778.00,0.0008
3777.00,0.0008
3776.00,0.0008
3775.00,0.0008
3774.00,0.0009
3773.00,0.0008
3772.00,0.0008
3771.00,0.0008
3770.00,0.0007
3769.00,0.0007
3768.00,0.0007
3767.00,0.0007
3766.00,0.0007
3765.00,0.0007
3764.00,0.0007
3763.00,0.0007
3762.00,0.0008
3761.00,0.0008
3760.00,0.0008
3759.00,0.0009
3758.00,0.0009
3757.00,0.0009
3756.00,0.0009
3755.00,0.0010
3754.00,0.0010
3753.00,0.0010
3752.00,0.0010
3751.00,0.0009
3750.00,0.0009
3749.00,0.0009
3748.00,0.0009
3747.00,0.0009
3746.00,0.0008
3745.00,0.0008
3744.00,0.0008
3743.00,0.0009
3742.00,0.0009
3741.00,0.0009
3740.00,0.0009
3739.00,0.0009
3738.00,0.0009
3737.00,0.0008
3736.00,0.0008
3735.00,0.0008
3734.00,0.0008
3733.00,0.0007
3732.00,0.0007
3731.00,0.0007
3730.00,0.0007
3729.00,0.0007
3728.00,0.0007
3727.00,0.0007
3726.00,0.0007
3725.00,0.0007
3724.00,0.0007
3723.00,0.0007
3722.00,0.0007
3721.00,0.0007
3720.00,0.0007
3719.00,0.0007
3718.00,0.0006
3717.00,0.0006
3716.00,0.0007
3715.00,0.0007
3714.00,0.0007
3713.00,0.0007
3712.00,0.0008
3711.00,0.0007
3710.00,0.0007
3709.00,0.0007
3708.00,0.0007
3707.00,0.0007
3706.00,0.0007
3705.00,0.0007
3704.00,0.0007
3703.00,0.0007
3702.00,0.0007
3701.00,0.0007
3700.00,0.0007
3699.00,0.0007
3698.00,0.0007
3697.00,0.0007
3696.00,0.0007
3695.00,0.0008
3694.00,0.0008
3693.00,0.0007
3692.00,0.0007
3691.00,0.0007
3690.00,0.0007
3689.00,0.0008
3688.00,0.0008
3687.00,0.0008
3686.00,0.0008
3685.00,0.0007
3684.00,0.0007
3683.00,0.0006
3682.00,0.0006
3681.00,0.0006
3680.00,0.0006
3679.00,0.0007
3678.00,0.0008
3677.00,0.0009
3676.00,0.0009
3675.00,0.0008
3674.00,0.0007
3673.00,0.0006
3672.00,0.0006
3671.00,0.0006
3670.00,0.0006
3669.00,0.0006
3668.00,0.0005
3667.00,0.0005
3666.00,0.0005
3665.00,0.0005
3664.00,0.0006
3663.00,0.0006
3662.00,0.0005
3661.00,0.0005
3660.00,0.0004
3659.00,0.0004
3658.00,0.0004
3657.00,0.0004
3656.00,0.0005
3655.00,0.0006
3654.00,0.0006
3653.00,0.0006
3652.00,0.0006
3651.00,0.0006
3650.00,0.0006
3649.00,0.0006
3648.00,0.0006
3647.00,0.0007
3646.00,0.0007
3645.00,0.0007
3644.00,0.0007
3643.00,0.0007
3642.00,0.0007
3641.00,0.0006
3640.00,0.0006
3639.00,0.0006
3638.00,0.0007
3637.00,0.0007
3636.00,0.0007
3635.00,0.0007
3634.00,0.0007
3633.00,0.0007
3632.00,0.0007
3631.00,0.0007
3630.00,0.0007
3629.00,0.0008
3628.00,0.0008
3627.00,0.0008
3626.00,0.0009
3625.00,0.0009
3624.00,0.0010
3623.00,0.0010
3622.00,0.0011
3621.00,0.0011
3620.00,0.0011
3619.00,0.0011
3618.00,0.0011
3617.00,0.0010
3616.00,0.0010
3615.00,0.0011
3614.00,0.0011
3613.00,0.0011
3612.00,0.0012
3611.00,0.0012
3610.00,0.0012
3609.00,0.0013
3608.00,0.0013
3607.00,0.0013
3606.00,0.0013
3605.00,0.0012
3604.00,0.0012
3603.00,0.0013
3602.00,0.0013
3601.00,0.0014
3600.00,0.0014
3599.00,0.0014
3598.00,0.0014
3597.00,0.0014
3596.00,0.0014
3595.00,0.0015
3594.00,0.0015
3593.00,0.0015
3592.00,0.0015
3591.00,0.0015
3590.00,0.0015
3589.00,0.0015
3588.00,0.0015
3587.00,0.0015
3586.00,0.0016
3585.00,0.0016
3584.00,0.0017
3583.00,0.0017
3582.00,0.0016
3581.00,0.0016
3580.00,0.0016
3579.00,0.0016
3578.00,0.0016
3577.00,0.0016
3576.00,0.0017
3575.00,0.0017
3574.00,0.0017
3573.00,0.0018
3572.00,0.0019
3571.00,0.0020
3570.00,0.0020
3569.00,0.0020
3568.00,0.0021
3567.00,0.0021
3566.00,0.0021
3565.00,0.0021
3564.00,0.0021
3563.00,0.0021
3562.00,0.0021
3561.00,0.0021
3560.00,0.0021
3559.00,0.0022
3558.00,0.0022
3557.00,0.0022
3556.00,0.0022
3555.00,0.0023
3554.00,0.0023
3553.00,0.0023
3552.00,0.0024
3551.00,0.0024
3550.00,0.0024
3549.00,0.0025
3548.00,0.0025
3547.00,0.0025
3546.00,0.0025
3545.00,0.0026
3544.00,0.0026
3543.00,0.0026
3542.00,0.0026
3541.00,0.0026
3540.00,0.0026
3539.00,0.0026
3538.00,0.0027
3537.00,0.0027
3536.00,0.0028
3535.00,0.0028
3534.00,0.0028
3533.00,0.0028
3532.00,0.0029
3531.00,0.0029
3530.00,0.0029
3529.00,0.0029
3528.00,0.0030
3527.00,0.0030
3526.00,0.0030
3525.00,0.0030
3524.00,0.0030
3523.00,0.0030
3522.00,0.0030
3521.00,0.0030
3520.00,0.0030
3519.00,0.0030
3518.00,0.0031
3517.00,0.0031
3516.00,0.0031
3515.00,0.0032
3514.00,0.0032
3513.00,0.0032
3512.00,0.0032
3511.00,0.0032
3510.00,0.0032
3509.00,0.0033
3508.00,0.0033
3507.00,0.0033
3506.00,0.0033
3505.00,0.0034
3504.00,0.0034
3503.00,0.0034
3502.00,0.0034
3501.00,0.0034
3500.00,0.0035
3499.00,0.0035
3498.00,0.0035
3497.00,0.0036
3496.00,0.0036
3495.00,0.0037
3494.00,0.0037
3493.00,0.0037
3492.00,0.0037
3491.00,0.0037
3490.00,0.0037
3489.00,0.0038
3488.00,0.0038
3487.00,0.0038
3486.00,0.0038
3485.00,0.0039
3484.00,0.0039
3483.00,0.0039
3482.00,0.0039
3481.00,0.0039
3480.00,0.0039
3479.00,0.0040
3478.00,0.0040
3477.00,0.0040
3476.00,0.0040
3475.00,0.0041
3474.00,0.0041
3473.00,0.0041
3472.00,0.0042
3471.00,0.0042
3470.00,0.0042
3469.00,0.0042
3468.00,0.0041
3467.00,0.0041
3466.00,0.0041
3465.00,0.0041
3464.00,0.0041
3463.00,0.0042
3462.00,0.0042
3461.00,0.0043
3460.00,0.0043
3459.00,0.0043
3458.00,0.0043
3457.00,0.0043
3456.00,0.0044
3455.00,0.0044
3454.00,0.0044
3453.00,0.0044
3452.00,0.0044
3451.00,0.0044
3450.00,0.0045
3449.00,0.0045
3448.00,0.0045
3447.00,0.0046
3446.00,0.0046
3445.00,0.0046
3444.00,0.0046
3443.00,0.0046
3442.00,0.0046
3441.00,0.0046
3440.00,0.0047
3439.00,0.0047
3438.00,0.0047
3437.00,0.0047
3436.00,0.0048
3435.00,0.0048
3434.00,0.0048
3433.00,0.0048
3432.00,0.0049
3431.00,0.0049
3430.00,0.0049
3429.00,0.0049
3428.00,0.0050
3427.00,0.0050
3426.00,0.0050
3425.00,0.0050
3424.00,0.0051
3423.00,0.0052
3422.00,0.0052
3421.00,0.0052
3420.00,0.0052
3419.00,0.0051
3418.00,0.0051
3417.00,0.0051
3416.00,0.0051
3415.00,0.0052
3414.00,0.0052
3413.00,0.0052
3412.00,0.0053
3411.00,0.0053
3410.00,0.0053
3409.00,0.0052
3408.00,0.0052
3407.00,0.0052
3406.00,0.0052
3405.00,0.0052
3404.00,0.0053
3403.00,0.0053
3402.00,0.0053
3401.00,0.0053
3400.00,0.0054
3399.00,0.0054
3398.00,0.0054
3397.00,0.0054
3396.00,0.0054
3395.00,0.0054
3394.00,0.0054
3393.00,0.0054
3392.00,0.0054
3391.00,0.0053
3390.00,0.0053
3389.00,0.0053
3388.00,0.0053
3387.00,0.0053
3386.00,0.0053
3385.00,0.0054
3384.00,0.0054
3383.00,0.0054
3382.00,0.0055
3381.00,0.0055
3380.00,0.0055
3379.00,0.0055
3378.00,0.0055
3377.00,0.0055
3376.00,0.0055
3375.00,0.0055
3374.00,0.0055
3373.00,0.0055
3372.00,0.0055
3371.00,0.0055
3370.00,0.0055
3369.00,0.0055
3368.00,0.0055
3367.00,0.0055
3366.00,0.0055
3365.00,0.0055
3364.00,0.0056
3363.00,0.0056
3362.00,0.0056
3361.00,0.0056
3360.00,0.0056
3359.00,0.0056
3358.00,0.0056
3357.00,0.0056
3356.00,0.0056
3355.00,0.0056
3354.00,0.0056
3353.00,0.0056
3352.00,0.0057
3351.00,0.0057
3350.00,0.0056
3349.00,0.0056
3348.00,0.0056
3347.00,0.0056
3346.00,0.0056
3345.00,0.0056
3344.00,0.0056
3343.00,0.0056
3342.00,0.0056
3341.00,0.0056
3340.00,0.0056
3339.00,0.0056
3338.00,0.0056
3337.00,0.0056
3336.00,0.0056
3335.00,0.0056
3334.00,0.0055
3333.00,0.0055
3332.00,0.0054
3331.00,0.0054
3330.00,0.0054
3329.00,0.0054
3328.00,0.0053
3327.00,0.0053
3326.00,0.0053
3325.00,0.0053
3324.00,0.0053
3323.00,0.0053
3322.00,0.0053
3321.00,0.0054
3320.00,0.0053
3319.00,0.0053
3318.00,0.0053
3317.00,0.0053
3316.00,0.0053
3315.00,0.0053
3314.00,0.0053
3313.00,0.0053
3312.00,0.0053
3311.00,0.0054
3310.00,0.0054
3309.00,0.0054
3308.00,0.0054
3307.00,0.0054
3306.00,0.0055
3305.00,0.0055
3304.00,0.0055
3303.00,0.0055
3302.00,0.0055
3301.00,0.0055
3300.00,0.0054
3299.00,0.0054
3298.00,0.0053
3297.00,0.0053
3296.00,0.0052
3295.00,0.0052
3294.00,0.0052
3293.00,0.0051
3292.00,0.0051
3291.00,0.0051
3290.00,0.0051
3289.00,0.0051
3288.00,0.0051
3287.00,0.0050
3286.00,0.0050
3285.00,0.0050
3284.00,0.0050
3283.00,0.0050
3282.00,0.0050
3281.00,0.0050
3280.00,0.0049
3279.00,0.0049
3278.00,0.0049
3277.00,0.0049
3276.00,0.0049
3275.00,0.0049
3274.00,0.0049
3273.00,0.0049
3272.00,0.0049
3271.00,0.0049
3270.00,0.0048
3269.00,0.0048
3268.00,0.0048
3267.00,0.0048
3266.00,0.0047
3265.00,0.0047
3264.00,0.0047
3263.00,0.0047
3262.00,0.0047
3261.00,0.0046
3260.00,0.0046
3259.00,0.0046
3258.00,0.0045
3257.00,0.0045
3256.00,0.0045
3255.00,0.0044
3254.00,0.0044
3253.00,0.0044
3252.00,0.0043
3251.00,0.0043
3250.00,0.0043
3249.00,0.0043
3248.00,0.0043
3247.00,0.0043
3246.00,0.0043
3245.00,0.0043
3244.00,0.0043
3243.00,0.0042
3242.00,0.0042
3241.00,0.0042
3240.00,0.0042
3239.00,0.0042
3238.00,0.0042
3237.00,0.0042
3236.00,0.0043
3235.00,0.0043
3234.00,0.0043
3233.00,0.0043
3232.00,0.0043
3231.00,0.0043
3230.00,0.0043
3229.00,0.0043
3228.00,0.0043
3227.00,0.0043
3226.00,0.0043
3225.00,0.0043
3224.00,0.0043
3223.00,0.0043
3222.00,0.0043
3221.00,0.0043
3220.00,0.0043
3219.00,0.0044
3218.00,0.0044
3217.00,0.0045
3216.00,0.0045
3215.00,0.0046
3214.00,0.0046
3213.00,0.0047
3212.00,0.0047
3211.00,0.0047
3210.00,0.0047
3209.00,0.0047
3208.00,0.0046
3207.00,0.0046
3206.00,0.0046
3205.00,0.0046
3204.00,0.0046
3203.00,0.0046
3202.00,0.0046
3201.00,0.0046
3200.00,0.0046
3199.00,0.0047
3198.00,0.0047
3197.00,0.0047
3196.00,0.0046
3195.00,0.0046
3194.00,0.0045
3193.00,0.0045
3192.00,0.0045
3191.00,0.0045
3190.00,0.0045
3189.00,0.0045
3188.00,0.0045
3187.00,0.0045
3186.00,0.0046
3185.00,0.0045
3184.00,0.0045
3183.00,0.0045
3182.00,0.0044
3181.00,0.0044
3180.00,0.0043
3179.00,0.0043
3178.00,0.0043
3177.00,0.0043
3176.00,0.0043
3175.00,0.0042
3174.00,0.0042
3173.00,0.0042
3172.00,0.0042
3171.00,0.0042
3170.00,0.0042
3169.00,0.0042
3168.00,0.0042
3167.00,0.0041
3166.00,0.0041
3165.00,0.0041
3164.00,0.0041
3163.00,0.0041
3162.00,0.0041
3161.00,0.0040
3160.00,0.0040
3159.00,0.0040
3158.00,0.0040
3157.00,0.0040
3156.00,0.0040
3155.00,0.0040
3154.00,0.0040
3153.00,0.0040
3152.00,0.0040
3151.00,0.0041
3150.00,0.0041
3149.00,0.0041
3148.00,0.0041
3147.00,0.0040
3146.00,0.0040
3145.00,0.0039
3144.00,0.0039
3143.00,0.0039
3142.00,0.0039
3141.00,0.0039
3140.00,0.0039
3139.00,0.0039
3138.00,0.0039
3137.00,0.0039
3136.00,0.0039
3135.00,0.0039
3134.00,0.0038
3133.00,0.0038
3132.00,0.0037
3131.00,0.0037
3130.00,0.0037
3129.00,0.0037
3128.00,0.0037
3127.00,0.0036
3126.00,0.0036
3125.00,0.0036
3124.00,0.0035
3123.00,0.0035
3122.00,0.0034
3121.00,0.0034
3120.00,0.0034
3119.00,0.0033
3118.00,0.0033
3117.00,0.0033
3116.00,0.0033
3115.00,0.0033
3114.00,0.0033
3113.00,0.0033
3112.00,0.0033
3111.00,0.0033
3110.00,0.0033
3109.00,0.0032
3108.00,0.0032
3107.00,0.0033
3106.00,0.0033
3105.00,0.0033
3104.00,0.0032
3103.00,0.0032
3102.00,0.0032
3101.00,0.0032
3100.00,0.0032
3099.00,0.0032
3098.00,0.0032
3097.00,0.0032
3096.00,0.0032
3095.00,0.0032
3094.00,0.0032
3093.00,0.0032
3092.00,0.0032
3091.00,0.0032
3090.00,0.0031
3089.00,0.0031
3088.00,0.0031
3087.00,0.0031
3086.00,0.0031
3085.00,0.0030
3084.00,0.0030
3083.00,0.0031
3082.00,0.0031
3081.00,0.0031
3080.00,0.0031
3079.00,0.0031
3078.00,0.0031
3077.00,0.0031
3076.00,0.0031
3075.00,0.0031
3074.00,0.0031
3073.00,0.0031
3072.00,0.0031
3071.00,0.0032
3070.00,0.0032
3069.00,0.0032
3068.00,0.0032
3067.00,0.0032
3066.00,0.0032
3065.00,0.0032
3064.00,0.0032
3063.00,0.0032
3062.00,0.0032
3061.00,0.0033
3060.00,0.0033
3059.00,0.0033
3058.00,0.0033
3057.00,0.0033
3056.00,0.0033
3055.00,0.0034
3054.00,0.0034
3053.00,0.0034
3052.00,0.0034
3051.00,0.0035
3050.00,0.0035
3049.00,0.0035
3048.00,0.0035
3047.00,0.0035
3046.00,0.0035
3045.00,0.0035
3044.00,0.0035
3043.00,0.0035
3042.00,0.0035
3041.00,0.0036
3040.00,0.0036
3039.00,0.0037
3038.00,0.0037
3037.00,0.0038
3036.00,0.0038
3035.00,0.0038
3034.00,0.0039
3033.00,0.0039
3032.00,0.0040
3031.00,0.0040
3030.00,0.0040
3029.00,0.0040
3028.00,0.0041
3027.00,0.0041
3026.00,0.0042
3025.00,0.0042
3024.00,0.0043
3023.00,0.0043
3022.00,0.0044
3021.00,0.0044
3020.00,0.0045
3019.00,0.0046
3018.00,0.0046
3017.00,0.0047
3016.00,0.0048
3015.00,0.0049
3014.00,0.0049
3013.00,0.0050
3012.00,0.0050
3011.00,0.0051
3010.00,0.0052
3009.00,0.0053
3008.00,0.0054
3007.00,0.0055
3006.00,0.0057
3005.00,0.0058
3004.00,0.0059
3003.00,0.0060
3002.00,0.0062
3001.00,0.0064
3000.00,0.0066
2999.00,0.0068
2998.00,0.0071
2997.00,0.0074
2996.00,0.0077
2995.00,0.0081
2994.00,0.0085
2993.00,0.0089
2992.00,0.0094
2991.00,0.0099
2990.00,0.0105
2989.00,0.0112
2988.00,0.0119
2987.00,0.0127
2986.00,0.0136
2985.00,0.0145
2984.00,0.0156
2983.00,0.0168
2982.00,0.0182
2981.00,0.0199
2980.00,0.0219
2979.00,0.0242
2978.00,0.0269
2977.00,0.0299
2976.00,0.0333
2975.00,0.0372
2974.00,0.0416
2973.00,0.0466
2972.00,0.0523
2971.00,0.0587
2970.00,0.0659
2969.00,0.0738
2968.00,0.0825
2967.00,0.0918
2966.00,0.1017
2965.00,0.1119
2964.00,0.1221
2963.00,0.1318
2962.00,0.1405
2961.00,0.1477
2960.00,0.1532
2959.00,0.1573
2958.00,0.1604
2957.00,0.1633
2956.00,0.1666
2955.00,0.1706
2954.00,0.1753
2953.00,0.1802
2952.00,0.1845
2951.00,0.1869
2950.00,0.1866
2949.00,0.1829
2948.00,0.1758
2947.00,0.1659
2946.00,0.1542
2945.00,0.1421
2944.00,0.1307
2943.00,0.1210
2942.00,0.1135
2941.00,0.1083
2940.00,0.1055
2939.00,0.1048
2938.00,0.1060
2937.00,0.1090
2936.00,0.1134
2935.00,0.1192
2934.00,0.1264
2933.00,0.1347
2932.00,0.1441
2931.00,0.1543
2930.00,0.1650
2929.00,0.1760
2928.00,0.1870
2927.00,0.1977
2926.00,0.2080
2925.00,0.2179
2924.00,0.2274
2923.00,0.2367
2922.00,0.2457
2921.00,0.2542
2920.00,0.2615
2919.00,0.2668
2918.00,0.2691
2917.00,0.2678
2916.00,0.2629
2915.00,0.2551
2914.00,0.2455
2913.00,0.2352
2912.00,0.2253
2911.00,0.2164
2910.00,0.2085
2909.00,0.2016
2908.00,0.1954
2907.00,0.1894
2906.00,0.1834
2905.00,0.1773
2904.00,0.1709
2903.00,0.1644
2902.00,0.1579
2901.00,0.1514
2900.00,0.1451
2899.00,0.1390
2898.00,0.1333
2897.00,0.1280
2896.00,0.1232
2895.00,0.1190
2894.00,0.1154
2893.00,0.1125
2892.00,0.1100
2891.00,0.1081
2890.00,0.1067
2889.00,0.1057
2888.00,0.1051
2887.00,0.1048
2886.00,0.1049
2885.00,0.1054
2884.00,0.1062
2883.00,0.1074
2882.00,0.1090
2881.00,0.1108
2880.00,0.1126
2879.00,0.1141
2878.00,0.1149
2877.00,0.1150
2876.00,0.1146
2875.00,0.1139
2874.00,0.1134
2873.00,0.1135
2872.00,0.1143
2871.00,0.1157
2870.00,0.1175
2869.00,0.1191
2868.00,0.1200
2867.00,0.1195
2866.00,0.1171
2865.00,0.1127
2864.00,0.1067
2863.00,0.0999
2862.00,0.0932
2861.00,0.0874
2860.00,0.0830
2859.00,0.0801
2858.00,0.0786
2857.00,0.0782
2856.00,0.0788
2855.00,0.0802
2854.00,0.0821
2853.00,0.0843
2852.00,0.0865
2851.00,0.0885
2850.00,0.0900
2849.00,0.0911
2848.00,0.0919
2847.00,0.0930
2846.00,0.0949
2845.00,0.0978
2844.00,0.1018
2843.00,0.1067
2842.00,0.1119
2841.00,0.1168
2840.00,0.1205
2839.00,0.1223
2838.00,0.1216
2837.00,0.1178
2836.00,0.1112
2835.00,0.1023
2834.00,0.0920
2833.00,0.0813
2832.00,0.0713
2831.00,0.0624
2830.00,0.0549
2829.00,0.0487
2828.00,0.0436
2827.00,0.0395
2826.00,0.0361
2825.00,0.0333
2824.00,0.0310
2823.00,0.0290
2822.00,0.0273
2821.00,0.0258
2820.00,0.0246
2819.00,0.0235
2818.00,0.0225
2817.00,0.0216
2816.00,0.0208
2815.00,0.0202
2814.00,0.0196
2813.00,0.0190
2812.00,0.0185
2811.00,0.0180
2810.00,0.0174
2809.00,0.0169
2808.00,0.0163
2807.00,0.0157
2806.00,0.0150
2805.00,0.0144
2804.00,0.0138
2803.00,0.0132
2802.00,0.0127
2801.00,0.0122
2800.00,0.0119
2799.00,0.0116
2798.00,0.0113
2797.00,0.0111
2796.00,0.0109
2795.00,0.0106
2794.00,0.0104
2793.00,0.0101
2792.00,0.0098
2791.00,0.0094
2790.00,0.0091
2789.00,0.0088
2788.00,0.0085
2787.00,0.0082
2786.00,0.0079
2785.00,0.0076
2784.00,0.0074
2783.00,0.0072
2782.00,0.0069
2781.00,0.0068
2780.00,0.0066
2779.00,0.0065
2778.00,0.0064
2777.00,0.0062
2776.00,0.0061
2775.00,0.0059
2774.00,0.0058
2773.00,0.0058
2772.00,0.0057
2771.00,0.0056
2770.00,0.0056
2769.00,0.0055
2768.00,0.0055
2767.00,0.0055
2766.00,0.0055
2765.00,0.0054
2764.00,0.0054
2763.00,0.0053
2762.00,0.0052
2761.00,0.0052
2760.00,0.0052
2759.00,0.0051
2758.00,0.0052
2757.00,0.0052
2756.00,0.0052
2755.00,0.0052
2754.00,0.0052
2753.00,0.0051
2752.00,0.0051
2751.00,0.0050
2750.00,0.0050
2749.00,0.0050
2748.00,0.0050
2747.00,0.0050
2746.00,0.0051
2745.00,0.0052
2744.00,0.0053
2743.00,0.0053
2742.00,0.0054
2741.00,0.0055
2740.00,0.0056
2739.00,0.0057
2738.00,0.0058
2737.00,0.0060
2736.00,0.0061
2735.00,0.0062
2734.00,0.0063
2733.00,0.0065
2732.00,0.0067
2731.00,0.0069
2730.00,0.0071
2729.00,0.0073
2728.00,0.0076
2727.00,0.0078
2726.00,0.0081
2725.00,0.0083
2724.00,0.0085
2723.00,0.0085
2722.00,0.0084
2721.00,0.0083
2720.00,0.0080
2719.00,0.0077
2718.00,0.0074
2717.00,0.0071
2716.00,0.0068
2715.00,0.0066
2714.00,0.0063
2713.00,0.0061
2712.00,0.0059
2711.00,0.0057
2710.00,0.0056
2709.00,0.0054
2708.00,0.0053
2707.00,0.0052
2706.00,0.0051
2705.00,0.0050
2704.00,0.0049
2703.00,0.0048
2702.00,0.0047
2701.00,0.0047
2700.00,0.0046
2699.00,0.0046
2698.00,0.0045
2697.00,0.0044
2696.00,0.0044
2695.00,0.0044
2694.00,0.0044
2693.00,0.0044
2692.00,0.0044
2691.00,0.0045
2690.00,0.0045
2689.00,0.0045
2688.00,0.0045
2687.00,0.0045
2686.00,0.0045
2685.00,0.0045
2684.00,0.0045
2683.00,0.0045
2682.00,0.0045
2681.00,0.0045
2680.00,0.0045
2679.00,0.0045
2678.00,0.0045
2677.00,0.0045
2676.00,0.0045
2675.00,0.0045
2674.00,0.0045
2673.00,0.0044
2672.00,0.0044
2671.00,0.0044
2670.00,0.0044
2669.00,0.0043
2668.00,0.0044
2667.00,0.0044
2666.00,0.0044
2665.00,0.0045
2664.00,0.0045
2663.00,0.0046
2662.00,0.0046
2661.00,0.0047
2660.00,0.0047
2659.00,0.0047
2658.00,0.0047
2657.00,0.0047
2656.00,0.0047
2655.00,0.0047
2654.00,0.0046
2653.00,0.0045
2652.00,0.0044
2651.00,0.0044
2650.00,0.0044
2649.00,0.0043
2648.00,0.0043
2647.00,0.0042
2646.00,0.0042
2645.00,0.0042
2644.00,0.0041
2643.00,0.0041
2642.00,0.0040
2641.00,0.0040
2640.00,0.0039
2639.00,0.0038
2638.00,0.0037
2637.00,0.0037
2636.00,0.0037
2635.00,0.0038
2634.00,0.0038
2633.00,0.0039
2632.00,0.0039
2631.00,0.0039
2630.00,0.0039
2629.00,0.0039
2628.00,0.0039
2627.00,0.0039
2626.00,0.0039
2625.00,0.0039
2624.00,0.0039
2623.00,0.0039
2622.00,0.0039
2621.00,0.0039
2620.00,0.0039
2619.00,0.0038
2618.00,0.0039
2617.00,0.0039
2616.00,0.0039
2615.00,0.0039
2614.00,0.0039
2613.00,0.0039
2612.00,0.0038
2611.00,0.0038
2610.00,0.0038
2609.00,0.0037
2608.00,0.0036
2607.00,0.0035
2606.00,0.0034
2605.00,0.0034
2604.00,0.0033
2603.00,0.0033
2602.00,0.0032
2601.00,0.0032
2600.00,0.0031
2599.00,0.0030
2598.00,0.0030
2597.00,0.0030
2596.00,0.0030
2595.00,0.0030
2594.00,0.0030
2593.00,0.0031
2592.00,0.0031
2591.00,0.0031
2590.00,0.0031
2589.00,0.0032
2588.00,0.0033
2587.00,0.0034
2586.00,0.0035
2585.00,0.0037
2584.00,0.0037
2583.00,0.0038
2582.00,0.0037
2581.00,0.0037
2580.00,0.0036
2579.00,0.0036
2578.00,0.0035
2577.00,0.0034
2576.00,0.0033
2575.00,0.0032
2574.00,0.0030
2573.00,0.0029
2572.00,0.0028
2571.00,0.0027
2570.00,0.0026
2569.00,0.0026
2568.00,0.0025
2567.00,0.0025
2566.00,0.0025
2565.00,0.0024
2564.00,0.0024
2563.00,0.0023
2562.00,0.0022
2561.00,0.0022
2560.00,0.0021
2559.00,0.0021
2558.00,0.0021
2557.00,0.0021
2556.00,0.0021
2555.00,0.0021
2554.00,0.0021
2553.00,0.0020
2552.00,0.0019
2551.00,0.0019
2550.00,0.0018
2549.00,0.0017
2548.00,0.0017
2547.00,0.0017
2546.00,0.0017
2545.00,0.0017
2544.00,0.0016
2543.00,0.0017
2542.00,0.0017
2541.00,0.0017
2540.00,0.0017
2539.00,0.0016
2538.00,0.0016
2537.00,0.0015
2536.00,0.0015
2535.00,0.0015
2534.00,0.0015
2533.00,0.0015
2532.00,0.0015
2531.00,0.0016
2530.00,0.0016
2529.00,0.0016
2528.00,0.0016
2527.00,0.0016
2526.00,0.0015
2525.00,0.0015
2524.00,0.0014
2523.00,0.0013
2522.00,0.0013
2521.00,0.0013
2520.00,0.0013
2519.00,0.0013
2518.00,0.0013
2517.00,0.0013
2516.00,0.0012
2515.00,0.0011
2514.00,0.0010
2513.00,0.0010
2512.00,0.0011
2511.00,0.0011
2510.00,0.0012
2509.00,0.0012
2508.00,0.0011
2507.00,0.0011
2506.00,0.0010
2505.00,0.0010
2504.00,0.0010
2503.00,0.0010
2502.00,0.0011
2501.00,0.0011
2500.00,0.0010
2499.00,0.0010
2498.00,0.0010
2497.00,0.0010
2496.00,0.0011
2495.00,0.0011
2494.00,0.0011
2493.00,0.0011
2492.00,0.0011
2491.00,0.0010
2490.00,0.0010
2489.00,0.0010
2488.00,0.0010
2487.00,0.0010
2486.00,0.0011
2485.00,0.0010
2484.00,0.0010
2483.00,0.0009
2482.00,0.0009
2481.00,0.0009
2480.00,0.0009
2479.00,0.0010
2478.00,0.0010
2477.00,0.0009
2476.00,0.0009
2475.00,0.0008
2474.00,0.0008
2473.00,0.0008
2472.00,0.0008
2471.00,0.0008
2470.00,0.0009
2469.00,0.0009
2468.00,0.0008
2467.00,0.0008
2466.00,0.0008
2465.00,0.0008
2464.00,0.0008
2463.00,0.0009
2462.00,0.0009
2461.00,0.0009
2460.00,0.0010
2459.00,0.0010
2458.00,0.0010
2457.00,0.0011
2456.00,0.0011
2455.00,0.0011
2454.00,0.0011
2453.00,0.0011
2452.00,0.0011
2451.00,0.0011
2450.00,0.0011
2449.00,0.0011
2448.00,0.0010
2447.00,0.0010
2446.00,0.0010
2445.00,0.0010
2444.00,0.0011
2443.00,0.0011
2442.00,0.0011
2441.00,0.0011
2440.00,0.0011
2439.00,0.0011
2438.00,0.0012
2437.00,0.0011
2436.00,0.0011
2435.00,0.0011
2434.00,0.0011
2433.00,0.0011
2432.00,0.0011
2431.00,0.0011
2430.00,0.0011
2429.00,0.0011
2428.00,0.0011
2427.00,0.0011
2426.00,0.0011
2425.00,0.0011
2424.00,0.0012
2423.00,0.0011
2422.00,0.0011
2421.00,0.0010
2420.00,0.0009
2419.00,0.0009
2418.00,0.0009
2417.00,0.0009
2416.00,0.0009
2415.00,0.0008
2414.00,0.0008
2413.00,0.0008
2412.00,0.0008
2411.00,0.0008
2410.00,0.0008
2409.00,0.0008
2408.00,0.0007
2407.00,0.0007
2406.00,0.0007
2405.00,0.0007
2404.00,0.0007
2403.00,0.0008
2402.00,0.0009
2401.00,0.0009
2400.00,0.0009
2399.00,0.0009
2398.00,0.0009
2397.00,0.0008
2396.00,0.0008
2395.00,0.0008
2394.00,0.0008
2393.00,0.0008
2392.00,0.0008
2391.00,0.0008
2390.00,0.0008
2389.00,0.0008
2388.00,0.0007
2387.00,0.0007
2386.00,0.0007
2385.00,0.0006
2384.00,0.0006
2383.00,0.0005
2382.00,0.0005
2381.00,0.0005
2380.00,0.0005
2379.00,0.0005
2378.00,0.0005
2377.00,0.0005
2376.00,0.0005
2375.00,0.0005
2374.00,0.0005
2373.00,0.0004
2372.00,0.0004
2371.00,0.0004
2370.00,0.0004
2369.00,0.0004
2368.00,0.0003
2367.00,0.0003
2366.00,0.0004
2365.00,0.0004
2364.00,0.0004
2363.00,0.0004
2362.00,0.0005
2361.00,0.0005
2360.00,0.0005
2359.00,0.0005
2358.00,0.0006
2357.00,0.0006
2356.00,0.0006
2355.00,0.0006
2354.00,0.0005
2353.00,0.0005
2352.00,0.0005
2351.00,0.0005
2350.00,0.0005
2349.00,0.0006
2348.00,0.0006
2347.00,0.0006
2346.00,0.0007
2345.00,0.0006
2344.00,0.0006
2343.00,0.0006
2342.00,0.0007
2341.00,0.0008
2340.00,0.0009
2339.00,0.0009
2338.00,0.0010
2337.00,0.0009
2336.00,0.0009
2335.00,0.0008
2334.00,0.0008
2333.00,0.0007
2332.00,0.0007
2331.00,0.0007
2330.00,0.0007
2329.00,0.0008
2328.00,0.0010
2327.00,0.0013
2326.00,0.0017
2325.00,0.0021
2324.00,0.0023
2323.00,0.0022
2322.00,0.0020
2321.00,0.0018
2320.00,0.0016
2319.00,0.0014
2318.00,0.0013
2317.00,0.0013
2316.00,0.0013
2315.00,0.0013
2314.00,0.0012
2313.00,0.0012
2312.00,0.0011
2311.00,0.0009
2310.00,0.0008
2309.00,0.0007
2308.00,0.0007
2307.00,0.0008
2306.00,0.0009
2305.00,0.0010
2304.00,0.0010
2303.00,0.0011
2302.00,0.0011
2301.00,0.0011
2300.00,0.0011
2299.00,0.0011
2298.00,0.0011
2297.00,0.0012
2296.00,0.0013
2295.00,0.0013
2294.00,0.0014
2293.00,0.0015
2292.00,0.0016
2291.00,0.0017
2290.00,0.0017
2289.00,0.0018
2288.00,0.0018
2287.00,0.0019
2286.00,0.0019
2285.00,0.0018
2284.00,0.0018
2283.00,0.0017
2282.00,0.0016
2281.00,0.0016
2280.00,0.0015
2279.00,0.0014
2278.00,0.0013
2277.00,0.0012
2276.00,0.0012
2275.00,0.0012
2274.00,0.0012
2273.00,0.0013
2272.00,0.0014
2271.00,0.0015
2270.00,0.0015
2269.00,0.0014
2268.00,0.0012
2267.00,0.0010
2266.00,0.0010
2265.00,0.0010
2264.00,0.0010
2263.00,0.0010
2262.00,0.0011
2261.00,0.0011
2260.00,0.0013
2259.00,0.0014
2258.00,0.0014
2257.00,0.0014
2256.00,0.0013
2255.00,0.0011
2254.00,0.0009
2253.00,0.0009
2252.00,0.0010
2251.00,0.0009
2250.00,0.0009
2249.00,0.0008
2248.00,0.0008
2247.00,0.0009
2246.00,0.0009
2245.00,0.0009
2244.00,0.0008
2243.00,0.0009
2242.00,0.0009
2241.00,0.0010
2240.00,0.0011
2239.00,0.0011
2238.00,0.0012
2237.00,0.0011
2236.00,0.0010
2235.00,0.0008
2234.00,0.0006
2233.00,0.0006
2232.00,0.0008
2231.00,0.0010
2230.00,0.0011
2229.00,0.0010
2228.00,0.0008
2227.00,0.0006
2226.00,0.0005
2225.00,0.0005
2224.00,0.0006
2223.00,0.0007
2222.00,0.0008
2221.00,0.0008
2220.00,0.0006
2219.00,0.0005
2218.00,0.0005
2217.00,0.0006
2216.00,0.0007
2215.00,0.0008
2214.00,0.0008
2213.00,0.0008
2212.00,0.0008
2211.00,0.0006
2210.00,0.0005
2209.00,0.0003
2208.00,0.0003
2207.00,0.0003
2206.00,0.0003
2205.00,0.0004
2204.00,0.0005
2203.00,0.0005
2202.00,0.0004
2201.00,0.0004
2200.00,0.0005
2199.00,0.0005
2198.00,0.0006
2197.00,0.0006
2196.00,0.0007
2195.00,0.0008
2194.00,0.0008
2193.00,0.0008
2192.00,0.0008
2191.00,0.0007
2190.00,0.0006
2189.00,0.0007
2188.00,0.0008
2187.00,0.0009
2186.00,0.0010
2185.00,0.0010
2184.00,0.0011
2183.00,0.0010
2182.00,0.0009
2181.00,0.0008
2180.00,0.0006
2179.00,0.0004
2178.00,0.0002
2177.00,0.0001
2176.00,0.0002
2175.00,0.0003
2174.00,0.0006
2173.00,0.0008
2172.00,0.0011
2171.00,0.0012
2170.00,0.0014
2169.00,0.0016
2168.00,0.0018
2167.00,0.0018
2166.00,0.0017
2165.00,0.0016
2164.00,0.0014
2163.00,0.0012
2162.00,0.0010
2161.00,0.0006
2160.00,-0.0005
2159.00,-0.0019
2158.00,-0.0031
2157.00,-0.0034
2156.00,-0.0032
2155.00,-0.0029
2154.00,-0.0025
2153.00,-0.0021
2152.00,-0.0017
2151.00,-0.0014
2150.00,-0.0013
2149.00,-0.0013
2148.00,-0.0013
2147.00,-0.0014
2146.00,-0.0015
2145.00,-0.0015
2144.00,-0.0015
2143.00,-0.0014
2142.00,-0.0014
2141.00,-0.0014
2140.00,-0.0015
2139.00,-0.0014
2138.00,-0.0013
2137.00,-0.0010
2136.00,-0.0009
2135.00,-0.0009
2134.00,-0.0011
2133.00,-0.0013
2132.00,-0.0014
2131.00,-0.0014
2130.00,-0.0013
2129.00,-0.0011
2128.00,-0.0010
2127.00,-0.0009
2126.00,-0.0008
2125.00,-0.0007
2124.00,-0.0006
2123.00,-0.0004
2122.00,-0.0003
2121.00,-0.0002
2120.00,-0.0002
2119.00,-0.0001
2118.00,0.0000
2117.00,0.0002
2116.00,0.0003
2115.00,0.0004
2114.00,0.0004
2113.00,0.0003
2112.00,0.0003
2111.00,0.0002
2110.00,0.0002
2109.00,0.0002
2108.00,0.0002
2107.00,0.0002
2106.00,0.0002
2105.00,0.0003
2104.00,0.0004
2103.00,0.0004
2102.00,0.0005
2101.00,0.0004
2100.00,0.0004
2099.00,0.0002
2098.00,-0.0000
2097.00,-0.0002
2096.00,-0.0004
2095.00,-0.0005
2094.00,-0.0006
2093.00,-0.0006
2092.00,-0.0005
2091.00,-0.0003
2090.00,-0.0000
2089.00,0.0002
2088.00,0.0003
2087.00,0.0003
2086.00,0.0003
2085.00,0.0004
2084.00,0.0005
2083.00,0.0004
2082.00,0.0004
2081.00,0.0004
2080.00,0.0004
2079.00,0.0005
2078.00,0.0005
2077.00,0.0004
2076.00,0.0003
2075.00,0.0002
2074.00,0.0002
2073.00,0.0002
2072.00,0.0001
2071.00,0.0000
2070.00,0.0000
2069.00,0.0001
2068.00,0.0002
2067.00,0.0002
2066.00,0.0002
2065.00,0.0001
2064.00,0.0001
2063.00,0.0001
2062.00,0.0001
2061.00,0.0002
2060.00,0.0003
2059.00,0.0004
2058.00,0.0004
2057.00,0.0003
2056.00,0.0002
2055.00,0.0001
2054.00,0.0002
2053.00,0.0005
2052.00,0.0009
2051.00,0.0012
2050.00,0.0012
2049.00,0.0009
2048.00,0.0006
2047.00,0.0004
2046.00,0.0004
2045.00,0.0004
2044.00,0.0004
2043.00,0.0002
2042.00,-0.0002
2041.00,-0.0005
2040.00,-0.0005
2039.00,-0.0003
2038.00,-0.0000
2037.00,0.0002
2036.00,0.0003
2035.00,0.0003
2034.00,0.0002
2033.00,0.0001
2032.00,0.0000
2031.00,-0.0002
2030.00,-0.0005
2029.00,-0.0009
2028.00,-0.0014
2027.00,-0.0018
2026.00,-0.0019
2025.00,-0.0017
2024.00,-0.0014
2023.00,-0.0012
2022.00,-0.0011
2021.00,-0.0009
2020.00,-0.0007
2019.00,-0.0005
2018.00,-0.0006
2017.00,-0.0010
2016.00,-0.0014
2015.00,-0.0016
2014.00,-0.0016
2013.00,-0.0014
2012.00,-0.0011
2011.00,-0.0010
2010.00,-0.0012
2009.00,-0.0014
2008.00,-0.0016
2007.00,-0.0018
2006.00,-0.0019
2005.00,-0.0020
2004.00,-0.0021
2003.00,-0.0021
2002.00,-0.0020
2001.00,-0.0018
2000.00,-0.0016
1999.00,-0.0016
1998.00,-0.0016
1997.00,-0.0015
1996.00,-0.0014
1995.00,-0.0014
1994.00,-0.0013
1993.00,-0.0012
1992.00,-0.0009
1991.00,-0.0006
1990.00,-0.0004
1989.00,-0.0002
1988.00,-0.0002
1987.00,-0.0001
1986.00,0.0000
1985.00,0.0002
1984.00,0.0005
1983.00,0.0007
1982.00,0.0009
1981.00,0.0010
1980.00,0.0009
1979.00,0.0005
1978.00,-0.0001
1977.00,-0.0006
1976.00,-0.0009
1975.00,-0.0011
1974.00,-0.0011
1973.00,-0.0012
1972.00,-0.0014
1971.00,-0.0017
1970.00,-0.0019
1969.00,-0.0019
1968.00,-0.0018
1967.00,-0.0017
1966.00,-0.0017
1965.00,-0.0017
1964.00,-0.0015
1963.00,-0.0014
1962.00,-0.0014
1961.00,-0.0014
1960.00,-0.0014
1959.00,-0.0014
1958.00,-0.0014
1957.00,-0.0012
1956.00,-0.0011
1955.00,-0.0011
1954.00,-0.0012
1953.00,-0.0013
1952.00,-0.0013
1951.00,-0.0012
1950.00,-0.0011
1949.00,-0.0010
1948.00,-0.0011
1947.00,-0.0013
1946.00,-0.0016
1945.00,-0.0018
1944.00,-0.0019
1943.00,-0.0019
1942.00,-0.0016
1941.00,-0.0013
1940.00,-0.0011
1939.00,-0.0010
1938.00,-0.0009
1937.00,-0.0008
1936.00,-0.0007
1935.00,-0.0007
1934.00,-0.0007
1933.00,-0.0007
1932.00,-0.0007
1931.00,-0.0007
1930.00,-0.0007
1929.00,-0.0007
1928.00,-0.0007
1927.00,-0.0006
1926.00,-0.0006
1925.00,-0.0006
1924.00,-0.0006
1923.00,-0.0005
1922.00,-0.0004
1921.00,-0.0003
1920.00,-0.0002
1919.00,-0.0001
1918.00,-0.0001
1917.00,-0.0001
1916.00,-0.0001
1915.00,-0.0001
1914.00,-0.0001
1913.00,-0.0001
1912.00,-0.0001
1911.00,-0.0002
1910.00,-0.0002
1909.00,-0.0002
1908.00,-0.0001
1907.00,-0.0001
1906.00,-0.0000
1905.00,0.0000
1904.00,0.0000
1903.00,-0.0001
1902.00,-0.0001
1901.00,-0.0001
1900.00,-0.0001
1899.00,-0.0000
1898.00,0.0000
1897.00,0.0000
1896.00,-0.0000
1895.00,-0.0000
1894.00,0.0000
1893.00,0.0001
1892.00,0.0002
1891.00,0.0002
1890.00,0.0002
1889.00,0.0001
1888.00,0.0001
1887.00,0.0001
1886.00,0.0001
1885.00,0.0001
1884.00,0.0001
1883.00,0.0000
1882.00,-0.0000
1881.00,-0.0001
1880.00,-0.0001
1879.00,-0.0001
1878.00,-0.0001
1877.00,-0.0000
1876.00,0.0000
1875.00,0.0001
1874.00,0.0002
1873.00,0.0003
1872.00,0.0003
1871.00,0.0003
1870.00,0.0002
1869.00,0.0001
1868.00,-0.0000
1867.00,-0.0002
1866.00,-0.0002
1865.00,-0.0003
1864.00,-0.0003
1863.00,-0.0003
1862.00,-0.0002
1861.00,-0.0001
1860.00,-0.0000
1859.00,0.0001
1858.00,0.0001
1857.00,0.0002
1856.00,0.0002
1855.00,0.0002
1854.00,0.0002
1853.00,0.0002
1852.00,0.0002
1851.00,0.0002
1850.00,0.0002
1849.00,0.0002
1848.00,0.0002
1847.00,0.0002
1846.00,0.0001
1845.00,0.0001
1844.00,0.0001
1843.00,0.0001
1842.00,0.0002
1841.00,0.0002
1840.00,0.0002
1839.00,0.0003
1838.00,0.0003
1837.00,0.0003
1836.00,0.0003
1835.00,0.0003
1834.00,0.0003
1833.00,0.0004
1832.00,0.0004
1831.00,0.0003
1830.00,0.0003
1829.00,0.0003
1828.00,0.0003
1827.00,0.0003
1826.00,0.0003
1825.00,0.0004
1824.00,0.0004
1823.00,0.0004
1822.00,0.0004
1821.00,0.0003
1820.00,0.0003
1819.00,0.0002
1818.00,0.0001
1817.00,0.0000
1816.00,0.0000
1815.00,0.0001
1814.00,0.0002
1813.00,0.0003
1812.00,0.0004
1811.00,0.0004
1810.00,0.0004
1809.00,0.0004
1808.00,0.0004
1807.00,0.0004
1806.00,0.0004
1805.00,0.0004
1804.00,0.0004
1803.00,0.0005
1802.00,0.0005
1801.00,0.0006
1800.00,0.0006
1799.00,0.0005
1798.00,0.0005
1797.00,0.0005
1796.00,0.0006
1795.00,0.0006
1794.00,0.0007
1793.00,0.0007
1792.00,0.0006
1791.00,0.0006
1790.00,0.0007
1789.00,0.0007
1788.00,0.0007
1787.00,0.0008
1786.00,0.0007
1785.00,0.0007
1784.00,0.0007
1783.00,0.0007
1782.00,0.0007
1781.00,0.0008
1780.00,0.0008
1779.00,0.0009
1778.00,0.0008
1777.00,0.0008
1776.00,0.0008
1775.00,0.0008
1774.00,0.0009
1773.00,0.0009
1772.00,0.0010
1771.00,0.0010
1770.00,0.0009
1769.00,0.0010
1768.00,0.0010
1767.00,0.0010
1766.00,0.0010
1765.00,0.0010
1764.00,0.0011
1763.00,0.0011
1762.00,0.0012
1761.00,0.0012
1760.00,0.0012
1759.00,0.0012
1758.00,0.0011
1757.00,0.0012
1756.00,0.0012
1755.00,0.0013
1754.00,0.0013
1753.00,0.0014
1752.00,0.0016
1751.00,0.0016
1750.00,0.0017
1749.00,0.0018
1748.00,0.0018
1747.00,0.0019
1746.00,0.0019
1745.00,0.0019
1744.00,0.0020
1743.00,0.0020
1742.00,0.0021
1741.00,0.0021
1740.00,0.0022
1739.00,0.0022
1738.00,0.0022
1737.00,0.0023
1736.00,0.0024
1735.00,0.0025
1734.00,0.0025
1733.00,0.0026
1732.00,0.0026
1731.00,0.0026
1730.00,0.0026
1729.00,0.0026
1728.00,0.0026
1727.00,0.0026
1726.00,0.0026
1725.00,0.0026
1724.00,0.0026
1723.00,0.0027
1722.00,0.0026
1721.00,0.0026
1720.00,0.0026
1719.00,0.0025
1718.00,0.0025
1717.00,0.0025
1716.00,0.0025
1715.00,0.0025
1714.00,0.0025
1713.00,0.0024
1712.00,0.0024
1711.00,0.0024
1710.00,0.0024
1709.00,0.0024
1708.00,0.0024
1707.00,0.0024
1706.00,0.0024
1705.00,0.0024
1704.00,0.0025
1703.00,0.0026
1702.00,0.0028
1701.00,0.0029
1700.00,0.0030
1699.00,0.0030
1698.00,0.0030
1697.00,0.0030
1696.00,0.0031
1695.00,0.0032
1694.00,0.0032
1693.00,0.0033
1692.00,0.0034
1691.00,0.0035
1690.00,0.0036
1689.00,0.0037
1688.00,0.0038
1687.00,0.0038
1686.00,0.0039
1685.00,0.0040
1684.00,0.0042
1683.00,0.0044
1682.00,0.0045
1681.00,0.0047
1680.00,0.0049
1679.00,0.0050
1678.00,0.0051
1677.00,0.0053
1676.00,0.0054
1675.00,0.0055
1674.00,0.0056
1673.00,0.0057
1672.00,0.0057
1671.00,0.0058
1670.00,0.0059
1669.00,0.0060
1668.00,0.0060
1667.00,0.0061
1666.00,0.0061
1665.00,0.0061
1664.00,0.0062
1663.00,0.0063
1662.00,0.0064
1661.00,0.0064
1660.00,0.0064
1659.00,0.0064
1658.00,0.0064
1657.00,0.0065
1656.00,0.0065
1655.00,0.0065
1654.00,0.0065
1653.00,0.0065
1652.00,0.0066
1651.00,0.0066
1650.00,0.0066
1649.00,0.0066
1648.00,0.0067
1647.00,0.0067
1646.00,0.0067
1645.00,0.0068
1644.00,0.0068
1643.00,0.0068
1642.00,0.0069
1641.00,0.0069
1640.00,0.0069
1639.00,0.0070
1638.00,0.0070
1637.00,0.0070
1636.00,0.0070
1635.00,0.0071
1634.00,0.0070
1633.00,0.0070
1632.00,0.0070
1631.00,0.0069
1630.00,0.0069
1629.00,0.0068
1628.00,0.0068
1627.00,0.0067
1626.00,0.0066
1625.00,0.0066
1624.00,0.0065
1623.00,0.0064
1622.00,0.0064
1621.00,0.0063
1620.00,0.0063
1619.00,0.0062
1618.00,0.0061
1617.00,0.0061
1616.00,0.0062
1615.00,0.0062
1614.00,0.0062
1613.00,0.0063
1612.00,0.0063
1611.00,0.0062
1610.00,0.0062
1609.00,0.0062
1608.00,0.0061
1607.00,0.0061
1606.00,0.0061
1605.00,0.0062
1604.00,0.0062
1603.00,0.0062
1602.00,0.0062
1601.00,0.0063
1600.00,0.0063
1599.00,0.0063
1598.00,0.0062
1597.00,0.0062
1596.00,0.0062
1595.00,0.0063
1594.00,0.0063
1593.00,0.0064
1592.00,0.0064
1591.00,0.0065
1590.00,0.0066
1589.00,0.0067
1588.00,0.0068
1587.00,0.0070
1586.00,0.0071
1585.00,0.0074
1584.00,0.0077
1583.00,0.0080
1582.00,0.0084
1581.00,0.0087
1580.00,0.0091
1579.00,0.0094
1578.00,0.0095
1577.00,0.0096
1576.00,0.0096
1575.00,0.0095
1574.00,0.0093
1573.00,0.0092
1572.00,0.0090
1571.00,0.0088
1570.00,0.0086
1569.00,0.0083
1568.00,0.0082
1567.00,0.0080
1566.00,0.0079
1565.00,0.0078
1564.00,0.0077
1563.00,0.0076
1562.00,0.0076
1561.00,0.0076
1560.00,0.0076
1559.00,0.0076
1558.00,0.0076
1557.00,0.0077
1556.00,0.0078
1555.00,0.0080
1554.00,0.0081
1553.00,0.0082
1552.00,0.0083
1551.00,0.0085
1550.00,0.0087
1549.00,0.0089
1548.00,0.0091
1547.00,0.0093
1546.00,0.0095
1545.00,0.0099
1544.00,0.0103
1543.00,0.0106
1542.00,0.0108
1541.00,0.0109
1540.00,0.0106
1539.00,0.0102
1538.00,0.0098
1537.00,0.0095
1536.00,0.0092
1535.00,0.0087
1534.00,0.0081
1533.00,0.0076
1532.00,0.0072
1531.00,0.0070
1530.00,0.0068
1529.00,0.0067
1528.00,0.0066
1527.00,0.0065
1526.00,0.0064
1525.00,0.0063
1524.00,0.0063
1523.00,0.0063
1522.00,0.0062
1521.00,0.0063
1520.00,0.0063
1519.00,0.0064
1518.00,0.0063
1517.00,0.0064
1516.00,0.0064
1515.00,0.0064
1514.00,0.0064
1513.00,0.0065
1512.00,0.0066
1511.00,0.0066
1510.00,0.0067
1509.00,0.0068
1508.00,0.0069
1507.00,0.0070
1506.00,0.0069
1505.00,0.0071
1504.00,0.0072
1503.00,0.0074
1502.00,0.0076
1501.00,0.0078
1500.00,0.0082
1499.00,0.0085
1498.00,0.0087
1497.00,0.0091
1496.00,0.0094
1495.00,0.0096
1494.00,0.0099
1493.00,0.0102
1492.00,0.0106
1491.00,0.0111
1490.00,0.0115
1489.00,0.0121
1488.00,0.0126
1487.00,0.0131
1486.00,0.0136
1485.00,0.0143
1484.00,0.0151
1483.00,0.0160
1482.00,0.0171
1481.00,0.0184
1480.00,0.0198
1479.00,0.0212
1478.00,0.0228
1477.00,0.0250
1476.00,0.0276
1475.00,0.0305
1474.00,0.0344
1473.00,0.0401
1472.00,0.0468
1471.00,0.0531
1470.00,0.0591
1469.00,0.0654
1468.00,0.0723
1467.00,0.0798
1466.00,0.0882
1465.00,0.0973
1464.00,0.1052
1463.00,0.1106
1462.00,0.1141
1461.00,0.1165
1460.00,0.1182
1459.00,0.1193
1458.00,0.1203
1457.00,0.1211
1456.00,0.1211
1455.00,0.1203
1454.00,0.1192
1453.00,0.1176
1452.00,0.1151
1451.00,0.1114
1450.00,0.1064
1449.00,0.0994
1448.00,0.0905
1447.00,0.0811
1446.00,0.0727
1445.00,0.0655
1444.00,0.0592
1443.00,0.0541
1442.00,0.0502
1441.00,0.0474
1440.00,0.0457
1439.00,0.0449
1438.00,0.0448
1437.00,0.0447
1436.00,0.0436
1435.00,0.0411
1434.00,0.0377
1433.00,0.0337
1432.00,0.0294
1431.00,0.0256
1430.00,0.0226
1429.00,0.0204
1428.00,0.0188
1427.00,0.0179
1426.00,0.0173
1425.00,0.0167
1424.00,0.0162
1423.00,0.0158
1422.00,0.0155
1421.00,0.0153
1420.00,0.0149
1419.00,0.0146
1418.00,0.0143
1417.00,0.0139
1416.00,0.0135
1415.00,0.0132
1414.00,0.0131
1413.00,0.0128
1412.00,0.0125
1411.00,0.0124
1410.00,0.0123
1409.00,0.0121
1408.00,0.0120
1407.00,0.0119
1406.00,0.0119
1405.00,0.0119
1404.00,0.0117
1403.00,0.0117
1402.00,0.0118
1401.00,0.0118
1400.00,0.0118
1399.00,0.0119
1398.00,0.0121
1397.00,0.0122
1396.00,0.0123
1395.00,0.0125
1394.00,0.0129
1393.00,0.0134
1392.00,0.0138
1391.00,0.0145
1390.00,0.0155
1389.00,0.0169
1388.00,0.0189
1387.00,0.0221
1386.00,0.0263
1385.00,0.0319
1384.00,0.0395
1383.00,0.0502
1382.00,0.0646
1381.00,0.0830
1380.00,0.1056
1379.00,0.1309
1378.00,0.1550
1377.00,0.1721
1376.00,0.1772
1375.00,0.1676
1374.00,0.1460
1373.00,0.1206
1372.00,0.0976
1371.00,0.0787
1370.00,0.0638
1369.00,0.0523
1368.00,0.0444
1367.00,0.0395
1366.00,0.0368
1365.00,0.0357
1364.00,0.0359
1363.00,0.0371
1362.00,0.0389
1361.00,0.0409
1360.00,0.0424
1359.00,0.0429
1358.00,0.0419
1357.00,0.0397
1356.00,0.0364
1355.00,0.0327
1354.00,0.0291
1353.00,0.0260
1352.00,0.0235
1351.00,0.0215
1350.00,0.0198
1349.00,0.0184
1348.00,0.0172
1347.00,0.0162
1346.00,0.0154
1345.00,0.0147
1344.00,0.0141
1343.00,0.0136
1342.00,0.0132
1341.00,0.0129
1340.00,0.0126
1339.00,0.0124
1338.00,0.0123
1337.00,0.0122
1336.00,0.0123
1335.00,0.0124
1334.00,0.0127
1333.00,0.0130
1332.00,0.0134
1331.00,0.0137
1330.00,0.0138
1329.00,0.0137
1328.00,0.0135
1327.00,0.0131
1326.00,0.0126
1325.00,0.0121
1324.00,0.0116
1323.00,0.0111
1322.00,0.0107
1321.00,0.0105
1320.00,0.0103
1319.00,0.0102
1318.00,0.0100
1317.00,0.0099
1316.00,0.0098
1315.00,0.0097
1314.00,0.0097
1313.00,0.0097
1312.00,0.0098
1311.00,0.0100
1310.00,0.0104
1309.00,0.0110
1308.00,0.0120
1307.00,0.0132
1306.00,0.0144
1305.00,0.0152
1304.00,0.0155
1303.00,0.0152
1302.00,0.0146
1301.00,0.0141
1300.00,0.0138
1299.00,0.0136
1298.00,0.0136
1297.00,0.0135
1296.00,0.0133
1295.00,0.0131
1294.00,0.0128
1293.00,0.0124
1292.00,0.0120
1291.00,0.0115
1290.00,0.0111
1289.00,0.0107
1288.00,0.0103
1287.00,0.0101
1286.00,0.0098
1285.00,0.0096
1284.00,0.0094
1283.00,0.0092
1282.00,0.0091
1281.00,0.0090
1280.00,0.0089
1279.00,0.0089
1278.00,0.0088
1277.00,0.0088
1276.00,0.0087
1275.00,0.0087
1274.00,0.0087
1273.00,0.0087
1272.00,0.0087
1271.00,0.0088
1270.00,0.0090
1269.00,0.0093
1268.00,0.0095
1267.00,0.0099
1266.00,0.0103
1265.00,0.0107
1264.00,0.0110
1263.00,0.0113
1262.00,0.0117
1261.00,0.0121
1260.00,0.0126
1259.00,0.0132
1258.00,0.0138
1257.00,0.0143
1256.00,0.0144
1255.00,0.0141
1254.00,0.0134
1253.00,0.0124
1252.00,0.0114
1251.00,0.0106
1250.00,0.0100
1249.00,0.0096
1248.00,0.0092
1247.00,0.0089
1246.00,0.0087
1245.00,0.0085
1244.00,0.0084
1243.00,0.0084
1242.00,0.0083
1241.00,0.0082
1240.00,0.0082
1239.00,0.0081
1238.00,0.0080
1237.00,0.0080
1236.00,0.0081
1235.00,0.0081
1234.00,0.0081
1233.00,0.0081
1232.00,0.0081
1231.00,0.0082
1230.00,0.0083
1229.00,0.0084
1228.00,0.0086
1227.00,0.0088
1226.00,0.0091
1225.00,0.0094
1224.00,0.0098
1223.00,0.0101
1222.00,0.0105
1221.00,0.0107
1220.00,0.0109
1219.00,0.0110
1218.00,0.0110
1217.00,0.0109
1216.00,0.0106
1215.00,0.0103
1214.00,0.0100
1213.00,0.0097
1212.00,0.0095
1211.00,0.0094
1210.00,0.0093
1209.00,0.0092
1208.00,0.0091
1207.00,0.0090
1206.00,0.0089
1205.00,0.0088
1204.00,0.0087
1203.00,0.0087
1202.00,0.0087
1201.00,0.0086
1200.00,0.0086
1199.00,0.0086
1198.00,0.0086
1197.00,0.0086
1196.00,0.0086
1195.00,0.0087
1194.00,0.0088
1193.00,0.0088
1192.00,0.0088
1191.00,0.0088
1190.00,0.0088
1189.00,0.0088
1188.00,0.0089
1187.00,0.0089
1186.00,0.0089
1185.00,0.0089
1184.00,0.0090
1183.00,0.0091
1182.00,0.0092
1181.00,0.0094
1180.00,0.0098
1179.00,0.0103
1178.00,0.0110
1177.00,0.0119
1176.00,0.0130
1175.00,0.0145
1174.00,0.0166
1173.00,0.0193
1172.00,0.0225
1171.00,0.0260
1170.00,0.0294
1169.00,0.0321
1168.00,0.0336
1167.00,0.0338
1166.00,0.0328
1165.00,0.0311
1164.00,0.0290
1163.00,0.0271
1162.00,0.0253
1161.00,0.0239
1160.00,0.0228
1159.00,0.0220
1158.00,0.0214
1157.00,0.0210
1156.00,0.0207
1155.00,0.0205
1154.00,0.0203
1153.00,0.0200
1152.00,0.0196
1151.00,0.0190
1150.00,0.0181
1149.00,0.0172
1148.00,0.0161
1147.00,0.0152
1146.00,0.0143
1145.00,0.0136
1144.00,0.0129
1143.00,0.0123
1142.00,0.0118
1141.00,0.0113
1140.00,0.0108
1139.00,0.0104
1138.00,0.0101
1137.00,0.0098
1136.00,0.0096
1135.00,0.0094
1134.00,0.0093
1133.00,0.0092
1132.00,0.0092
1131.00,0.0091
1130.00,0.0092
1129.00,0.0092
1128.00,0.0094
1127.00,0.0096
1126.00,0.0097
1125.00,0.0098
1124.00,0.0099
1123.00,0.0100
1122.00,0.0101
1121.00,0.0101
1120.00,0.0102
1119.00,0.0103
1118.00,0.0104
1117.00,0.0105
1116.00,0.0107
1115.00,0.0109
1114.00,0.0111
1113.00,0.0113
1112.00,0.0116
1111.00,0.0119
1110.00,0.0123
1109.00,0.0127
1108.00,0.0132
1107.00,0.0138
1106.00,0.0144
1105.00,0.0150
1104.00,0.0154
1103.00,0.0156
1102.00,0.0155
1101.00,0.0151
1100.00,0.0146
1099.00,0.0140
1098.00,0.0133
1097.00,0.0127
1096.00,0.0122
1095.00,0.0119
1094.00,0.0116
1093.00,0.0113
1092.00,0.0111
1091.00,0.0108
1090.00,0.0106
1089.00,0.0104
1088.00,0.0103
1087.00,0.0103
1086.00,0.0104
1085.00,0.0103
1084.00,0.0103
1083.00,0.0102
1082.00,0.0101
1081.00,0.0100
1080.00,0.0099
1079.00,0.0097
1078.00,0.0096
1077.00,0.0095
1076.00,0.0094
1075.00,0.0094
1074.00,0.0093
1073.00,0.0093
1072.00,0.0093
1071.00,0.0093
1070.00,0.0093
1069.00,0.0093
1068.00,0.0092
1067.00,0.0091
1066.00,0.0092
1065.00,0.0094
1064.00,0.0095
1063.00,0.0096
1062.00,0.0097
1061.00,0.0097
1060.00,0.0098
1059.00,0.0099
1058.00,0.0102
1057.00,0.0104
1056.00,0.0107
1055.00,0.0109
1054.00,0.0111
1053.00,0.0113
1052.00,0.0117
1051.00,0.0122
1050.00,0.0128
1049.00,0.0133
1048.00,0.0139
1047.00,0.0144
1046.00,0.0150
1045.00,0.0154
1044.00,0.0155
1043.00,0.0154
1042.00,0.0152
1041.00,0.0149
1040.00,0.0147
1039.00,0.0146
1038.00,0.0146
1037.00,0.0147
1036.00,0.0147
1035.00,0.0146
1034.00,0.0145
1033.00,0.0144
1032.00,0.0142
1031.00,0.0140
1030.00,0.0139
1029.00,0.0139
1028.00,0.0139
1027.00,0.0141
1026.00,0.0143
1025.00,0.0146
1024.00,0.0149
1023.00,0.0152
1022.00,0.0154
1021.00,0.0156
1020.00,0.0157
1019.00,0.0159
1018.00,0.0160
1017.00,0.0161
1016.00,0.0162
1015.00,0.0163
1014.00,0.0163
1013.00,0.0162
1012.00,0.0161
1011.00,0.0161
1010.00,0.0160
1009.00,0.0160
1008.00,0.0161
1007.00,0.0165
1006.00,0.0172
1005.00,0.0182
1004.00,0.0197
1003.00,0.0220
1002.00,0.0252
1001.00,0.0292
1000.00,0.0336
999.00,0.0373
998.00,0.0391
997.00,0.0384
996.00,0.0353
995.00,0.0308
994.00,0.0262
993.00,0.0222
992.00,0.0191
991.00,0.0168
990.00,0.0153
989.00,0.0142
988.00,0.0135
987.00,0.0132
986.00,0.0130
985.00,0.0131
984.00,0.0135
983.00,0.0141
982.00,0.0152
981.00,0.0167
980.00,0.0189
979.00,0.0218
978.00,0.0257
977.00,0.0302
976.00,0.0351
975.00,0.0397
974.00,0.0432
973.00,0.0444
972.00,0.0429
971.00,0.0388
970.00,0.0333
969.00,0.0276
968.00,0.0227
967.00,0.0190
966.00,0.0163
965.00,0.0143
964.00,0.0129
963.00,0.0119
962.00,0.0111
961.00,0.0105
960.00,0.0100
959.00,0.0096
958.00,0.0093
957.00,0.0090
956.00,0.0087
955.00,0.0084
954.00,0.0082
953.00,0.0080
952.00,0.0079
951.00,0.0078
950.00,0.0078
949.00,0.0078
948.00,0.0078
947.00,0.0078
946.00,0.0079
945.00,0.0081
944.00,0.0084
943.00,0.0086
942.00,0.0089
941.00,0.0091
940.00,0.0093
939.00,0.0092
938.00,0.0089
937.00,0.0084
936.00,0.0079
935.00,0.0074
934.00,0.0071
933.00,0.0069
932.00,0.0067
931.00,0.0066
930.00,0.0066
929.00,0.0067
928.00,0.0068
927.00,0.0068
926.00,0.0067
925.00,0.0066
924.00,0.0066
923.00,0.0066
922.00,0.0066
921.00,0.0065
920.00,0.0065
919.00,0.0065
918.00,0.0066
917.00,0.0068
916.00,0.0070
915.00,0.0070
914.00,0.0071
913.00,0.0072
912.00,0.0074
911.00,0.0076
910.00,0.0077
909.00,0.0078
908.00,0.0079
907.00,0.0082
906.00,0.0088
905.00,0.0098
904.00,0.0111
903.00,0.0127
902.00,0.0145
901.00,0.0160
900.00,0.0171
899.00,0.0174
898.00,0.0168
897.00,0.0154
896.00,0.0137
895.00,0.0120
894.00,0.0106
893.00,0.0096
892.00,0.0089
891.00,0.0085
890.00,0.0083
889.00,0.0081
888.00,0.0080
887.00,0.0080
886.00,0.0079
885.00,0.0077
884.00,0.0076
883.00,0.0075
882.00,0.0075
881.00,0.0076
880.00,0.0077
879.00,0.0078
878.00,0.0079
877.00,0.0081
876.00,0.0083
875.00,0.0086
874.00,0.0087
873.00,0.0087
872.00,0.0086
871.00,0.0084
870.00,0.0083
869.00,0.0081
868.00,0.0080
867.00,0.0081
866.00,0.0082
865.00,0.0084
864.00,0.0085
863.00,0.0087
862.00,0.0088
861.00,0.0089
860.00,0.0089
859.00,0.0090
858.00,0.0091
857.00,0.0091
856.00,0.0092
855.00,0.0093
854.00,0.0096
853.00,0.0100
852.00,0.0104
851.00,0.0109
850.00,0.0114
849.00,0.0121
848.00,0.0130
847.00,0.0144
846.00,0.0166
845.00,0.0200
844.00,0.0250
843.00,0.0309
842.00,0.0358
841.00,0.0376
840.00,0.0354
839.00,0.0301
838.00,0.0242
837.00,0.0194
836.00,0.0162
835.00,0.0143
834.00,0.0132
833.00,0.0126
832.00,0.0123
831.00,0.0119
830.00,0.0116
829.00,0.0113
828.00,0.0110
827.00,0.0108
826.00,0.0107
825.00,0.0106
824.00,0.0106
823.00,0.0107
822.00,0.0110
821.00,0.0113
820.00,0.0116
819.00,0.0118
818.00,0.0122
817.00,0.0127
816.00,0.0136
815.00,0.0147
814.00,0.0161
813.00,0.0177
812.00,0.0194
811.00,0.0210
810.00,0.0221
809.00,0.0227
808.00,0.0224
807.00,0.0215
806.00,0.0199
805.00,0.0182
804.00,0.0167
803.00,0.0153
802.00,0.0143
801.00,0.0135
800.00,0.0129
799.00,0.0125
798.00,0.0121
797.00,0.0117
796.00,0.0114
795.00,0.0110
794.00,0.0108
793.00,0.0105
792.00,0.0101
791.00,0.0097
790.00,0.0093
789.00,0.0088
788.00,0.0084
787.00,0.0080
786.00,0.0077
785.00,0.0075
784.00,0.0075
783.00,0.0074
782.00,0.0073
781.00,0.0072
780.00,0.0070
779.00,0.0069
778.00,0.0068
777.00,0.0068
776.00,0.0068
775.00,0.0068
774.00,0.0070
773.00,0.0072
772.00,0.0072
771.00,0.0073
770.00,0.0073
769.00,0.0073
768.00,0.0073
767.00,0.0072
766.00,0.0071
765.00,0.0071
764.00,0.0071
763.00,0.0071
762.00,0.0072
761.00,0.0073
760.00,0.0075
759.00,0.0077
758.00,0.0078
757.00,0.0078
756.00,0.0079
755.00,0.0079
754.00,0.0079
753.00,0.0080
752.00,0.0080
751.00,0.0081
750.00,0.0082
749.00,0.0084
748.00,0.0085
747.00,0.0086
746.00,0.0088
745.00,0.0089
744.00,0.0092
743.00,0.0095
742.00,0.0099
741.00,0.0103
740.00,0.0106
739.00,0.0109
738.00,0.0112
737.00,0.0116
736.00,0.0121
735.00,0.0126
734.00,0.0132
733.00,0.0138
732.00,0.0144
731.00,0.0150
730.00,0.0156
729.00,0.0160
728.00,0.0162
727.00,0.0163
726.00,0.0165
725.00,0.0169
724.00,0.0174
723.00,0.0181
722.00,0.0186
721.00,0.0189
720.00,0.0187
719.00,0.0179
718.00,0.0166
717.00,0.0153
716.00,0.0141
715.00,0.0134
714.00,0.0130
713.00,0.0126
712.00,0.0122
711.00,0.0119
710.00,0.0117
709.00,0.0115
708.00,0.0113
707.00,0.0112
706.00,0.0110
705.00,0.0109
704.00,0.0109
703.00,0.0109
702.00,0.0108
701.00,0.0106
700.00,0.0104
699.00,0.0102
698.00,0.0102
697.00,0.0102
696.00,0.0102
695.00,0.0101
694.00,0.0100
693.00,0.0098
692.00,0.0097
691.00,0.0096
690.00,0.0097
689.00,0.0100
688.00,0.0104
687.00,0.0107
686.00,0.0108
685.00,0.0107
684.00,0.0105
683.00,0.0103
682.00,0.0102
681.00,0.0103
680.00,0.0106
679.00,0.0107
678.00,0.0107
677.00,0.0106
676.00,0.0105
675.00,0.0106
674.00,0.0108
673.00,0.0110
672.00,0.0114
671.00,0.0117
670.00,0.0121
669.00,0.0121
668.00,0.0119
667.00,0.0115
666.00,0.0110
665.00,0.0105
664.00,0.0102
663.00,0.0100
662.00,0.0099
661.00,0.0100
660.00,0.0100
659.00,0.0099
658.00,0.0097
657.00,0.0096
656.00,0.0095
655.00,0.0094
654.00,0.0095
653.00,0.0095
652.00,0.0095
651.00,0.0096
650.00,0.0096
649.00,0.0096
648.00,0.0095
647.00,0.0094
646.00,0.0094
645.00,0.0095
644.00,0.0095
643.00,0.0095
642.00,0.0095
641.00,0.0095
640.00,0.0096
639.00,0.0097
638.00,0.0097
637.00,0.0097
636.00,0.0097
635.00,0.0098
634.00,0.0098
633.00,0.0098
632.00,0.0096
631.00,0.0094
630.00,0.0093
629.00,0.0093
628.00,0.0093
627.00,0.0093
626.00,0.0093
625.00,0.0094
624.00,0.0096
623.00,0.0097
622.00,0.0097
621.00,0.0095
620.00,0.0092
619.00,0.0090
618.00,0.0088
617.00,0.0086
616.00,0.0086
615.00,0.0086
614.00,0.0086
613.00,0.0086
612.00,0.0088
611.00,0.0091
610.00,0.0094
609.00,0.0096
608.00,0.0097
607.00,0.0097
606.00,0.0095
605.00,0.0093
604.00,0.0091
603.00,0.0092
602.00,0.0093
601.00,0.0094
600.00,0.0093
599.00,0.0092
598.00,0.0091
597.00,0.0090
596.00,0.0089
595.00,0.0089
594.00,0.0088
593.00,0.0087
592.00,0.0086
591.00,0.0086
590.00,0.0086
589.00,0.0086
588.00,0.0086
587.00,0.0087
586.00,0.0088
585.00,0.0089
584.00,0.0090
583.00,0.0091
582.00,0.0091
581.00,0.0091
580.00,0.0091
579.00,0.0093
578.00,0.0095
577.00,0.0098
576.00,0.0099
575.00,0.0097
574.00,0.0093
573.00,0.0091
572.00,0.0091
571.00,0.0093
570.00,0.0095
569.00,0.0097
568.00,0.0098
567.00,0.0098
566.00,0.0098
565.00,0.0097
564.00,0.0095
563.00,0.0094
562.00,0.0093
561.00,0.0093
560.00,0.0094
559.00,0.0096
558.00,0.0097
557.00,0.0097
556.00,0.0095
555.00,0.0093
554.00,0.0091
553.00,0.0090
552.00,0.0092
551.00,0.0096
550.00,0.0100
549.00,0.0102
548.00,0.0102
547.00,0.0100
546.00,0.0098
545.00,0.0098
544.00,0.0100
543.00,0.0104
542.00,0.0108
541.00,0.0112
540.00,0.0115
539.00,0.0119
538.00,0.0124
537.00,0.0127
536.00,0.0126
535.00,0.0122
534.00,0.0120
533.00,0.0120
532.00,0.0122
531.00,0.0124
530.00,0.0125
529.00,0.0127
528.00,0.0127
527.00,0.0127
526.00,0.0124
525.00,0.0118
524.00,0.0113
523.00,0.0109
522.00,0.0109
521.00,0.0112
520.00,0.0115
519.00,0.0116
518.00,0.0113
517.00,0.0106
516.00,0.0098
515.00,0.0090
514.00,0.0087
513.00,0.0085
512.00,0.0083
511.00,0.0080
510.00,0.0077
509.00,0.0078
508.00,0.0084
507.00,0.0093
506.00,0.0101
505.00,0.0105
504.00,0.0105
503.00,0.0103
502.00,0.0101
501.00,0.0098
500.00,0.0094
499.00,0.0089
498.00,0.0086
497.00,0.0084
496.00,0.0081
495.00,0.0076
494.00,0.0073
493.00,0.0073
492.00,0.0078
491.00,0.0086
490.00,0.0092
489.00,0.0094
488.00,0.0096
487.00,0.0097
486.00,0.0099
485.00,0.0098
484.00,0.0096
483.00,0.0094
482.00,0.0096
481.00,0.0100
480.00,0.0102
479.00,0.0100
478.00,0.0097
477.00,0.0095
476.00,0.0094
475.00,0.0095
474.00,0.0098
473.00,0.0105
472.00,0.0116
471.00,0.0127
470.00,0.0137
469.00,0.0144
468.00,0.0152
467.00,0.0161
466.00,0.0171
465.00,0.0179
464.00,0.0185
463.00,0.0190
462.00,0.0196
461.00,0.0205
460.00,0.0213
459.00,0.0215
458.00,0.0212
457.00,0.0207
456.00,0.0206
455.00,0.0207
454.00,0.0208
453.00,0.0206
452.00,0.0199
451.00,0.0186
450.00,0.0172
