Created as New Dataset,Sample 002 By Administrator Date Wednesday, September 03 2025
cm-1,A
4000.00,0.0011
3999.00,0.0011
3998.00,0.0012
3997.00,0.0012
3996.00,0.0012
3995.00,0.0012
3994.00,0.0012
3993.00,0.0011
3992.00,0.0011
3991.00,0.0011
3990.00,0.0011
3989.00,0.0011
3988.00,0.0011
3987.00,0.0011
3986.00,0.0011
3985.00,0.0010
3984.00,0.0010
3983.00,0.0010
3982.00,0.0010
3981.00,0.0009
3980.00,0.0009
3979.00,0.0010
3978.00,0.0010
3977.00,0.0010
3976.00,0.0011
3975.00,0.0011
3974.00,0.0010
3973.00,0.0010
3972.00,0.0010
3971.00,0.0010
3970.00,0.0010
3969.00,0.0010
3968.00,0.0010
3967.00,0.0010
3966.00,0.0010
3965.00,0.0010
3964.00,0.0010
3963.00,0.0010
3962.00,0.0010
3961.00,0.0011
3960.00,0.0011
3959.00,0.0011
3958.00,0.0010
3957.00,0.0010
3956.00,0.0010
3955.00,0.0010
3954.00,0.0010
3953.00,0.0010
3952.00,0.0011
3951.00,0.0011
3950.00,0.0011
3949.00,0.0010
3948.00,0.0010
3947.00,0.0009
3946.00,0.0009
3945.00,0.0009
3944.00,0.0010
3943.00,0.0010
3942.00,0.0010
3941.00,0.0010
3940.00,0.0009
3939.00,0.0009
3938.00,0.0010
3937.00,0.0010
3936.00,0.0010
3935.00,0.0010
3934.00,0.0010
3933.00,0.0010
3932.00,0.0010
3931.00,0.0010
3930.00,0.0010
3929.00,0.0010
3928.00,0.0011
3927.00,0.0011
3926.00,0.0011
3925.00,0.0011
3924.00,0.0011
3923.00,0.0011
3922.00,0.0011
3921.00,0.0011
3920.00,0.0011
3919.00,0.0011
3918.00,0.0012
3917.00,0.0012
3916.00,0.0012
3915.00,0.0012
3914.00,0.0011
3913.00,0.0011
3912.00,0.0010
3911.00,0.0010
3910.00,0.0010
3909.00,0.0010
3908.00,0.0010
3907.00,0.0010
3906.00,0.0011
3905.00,0.0011
3904.00,0.0011
3903.00,0.0011
3902.00,0.0012
3901.00,0.0012
3900.00,0.0012
3899.00,0.0012
3898.00,0.0011
3897.00,0.0011
3896.00,0.0011
3895.00,0.0011
3894.00,0.0010
3893.00,0.0010
3892.00,0.0010
3891.00,0.0010
3890.00,0.0010
3889.00,0.0011
3888.00,0.0011
3887.00,0.0012
3886.00,0.0012
3885.00,0.0011
3884.00,0.0011
3883.00,0.0011
3882.00,0.0010
3881.00,0.0010
3880.00,0.0010
3879.00,0.0010
3878.00,0.0010
3877.00,0.0010
3876.00,0.0010
3875.00,0.0010
3874.00,0.0010
3873.00,0.0011
3872.00,0.0011
3871.00,0.0010
3870.00,0.0010
3869.00,0.0010
3868.00,0.0009
3867.00,0.0009
3866.00,0.0009
3865.00,0.0009
3864.00,0.0009
3863.00,0.0009
3862.00,0.0009
3861.00,0.0009
3860.00,0.0009
3859.00,0.0009
3858.00,0.0009
3857.00,0.0009
3856.00,0.0009
3855.00,0.0009
3854.00,0.0008
3853.00,0.0008
3852.00,0.0008
3851.00,0.0008
3850.00,0.0009
3849.00,0.0008
3848.00,0.0008
3847.00,0.0008
3846.00,0.0008
3845.00,0.0008
3844.00,0.0008
3843.00,0.0008
3842.00,0.0008
3841.00,0.0008
3840.00,0.0008
3839.00,0.0008
3838.00,0.0009
3837.00,0.0008
3836.00,0.0008
3835.00,0.0008
3834.00,0.0008
3833.00,0.0009
3832.00,0.0009
3831.00,0.0009
3830.00,0.0009
3829.00,0.0009
3828.00,0.0008
3827.00,0.0008
3826.00,0.0007
3825.00,0.0007
3824.00,0.0008
3823.00,0.0008
3822.00,0.0008
3821.00,0.0008
3820.00,0.0008
3819.00,0.0008
3818.00,0.0008
3817.00,0.0009
3816.00,0.0009
3815.00,0.0008
3814.00,0.0008
3813.00,0.0008
3812.00,0.0008
3811.00,0.0009
3810.00,0.0008
3809.00,0.0008
3808.00,0.0008
3807.00,0.0008
3806.00,0.0008
3805.00,0.0008
3804.00,0.0008
3803.00,0.0008
3802.00,0.0008
3801.00,0.0008
3800.00,0.0008
3799.00,0.0009
3798.00,0.0009
3797.00,0.0009
3796.00,0.0009
3795.00,0.0008
3794.00,0.0008
3793.00,0.0009
3792.00,0.0009
3791.00,0.0009
3790.00,0.0009
3789.00,0.0009
3788.00,0.0009
3787.00,0.0009
3786.00,0.0008
3785.00,0.0008
3784.00,0.0008
3783.00,0.0008
3782.00,0.0008
3781.00,0.0008
3780.00,0.0008
3779.00,0.0009
3778.00,0.0009
3777.00,0.0010
3776.00,0.0010
3775.00,0.0010
3774.00,0.0010
3773.00,0.0010
3772.00,0.0010
3771.00,0.0010
3770.00,0.0009
3769.00,0.0009
3768.00,0.0010
3767.00,0.0010
3766.00,0.0010
3765.00,0.0010
3764.00,0.0010
3763.00,0.0010
3762.00,0.0010
3761.00,0.0010
3760.00,0.0010
3759.00,0.0009
3758.00,0.0009
3757.00,0.0008
3756.00,0.0008
3755.00,0.0008
3754.00,0.0008
3753.00,0.0008
3752.00,0.0008
3751.00,0.0007
3750.00,0.0007
3749.00,0.0007
3748.00,0.0008
3747.00,0.0009
3746.00,0.0010
3745.00,0.0010
3744.00,0.0010
3743.00,0.0009
3742.00,0.0009
3741.00,0.0008
3740.00,0.0008
3739.00,0.0007
3738.00,0.0007
3737.00,0.0007
3736.00,0.0008
3735.00,0.0008
3734.00,0.0008
3733.00,0.0009
3732.00,0.0009
3731.00,0.0009
3730.00,0.0009
3729.00,0.0009
3728.00,0.0009
3727.00,0.0009
3726.00,0.0009
3725.00,0.0009
3724.00,0.0009
3723.00,0.0009
3722.00,0.0009
3721.00,0.0009
3720.00,0.0009
3719.00,0.0008
3718.00,0.0008
3717.00,0.0008
3716.00,0.0007
3715.00,0.0007
3714.00,0.0007
3713.00,0.0006
3712.00,0.0006
3711.00,0.0006
3710.00,0.0006
3709.00,0.0007
3708.00,0.0008
3707.00,0.0008
3706.00,0.0008
3705.00,0.0008
3704.00,0.0008
3703.00,0.0008
3702.00,0.0008
3701.00,0.0008
3700.00,0.0009
3699.00,0.0009
3698.00,0.0008
3697.00,0.0008
3696.00,0.0008
3695.00,0.0008
3694.00,0.0007
3693.00,0.0007
3692.00,0.0006
3691.00,0.0006
3690.00,0.0005
3689.00,0.0006
3688.00,0.0006
3687.00,0.0007
3686.00,0.0007
3685.00,0.0007
3684.00,0.0006
3683.00,0.0006
3682.00,0.0006
3681.00,0.0005
3680.00,0.0005
3679.00,0.0006
3678.00,0.0006
3677.00,0.0006
3676.00,0.0005
3675.00,0.0004
3674.00,0.0003
3673.00,0.0003
3672.00,0.0002
3671.00,0.0001
3670.00,0.0000
3669.00,0.0000
3668.00,0.0001
3667.00,0.0001
3666.00,0.0001
3665.00,0.0001
3664.00,0.0001
3663.00,0.0000
3662.00,-0.0000
3661.00,-0.0000
3660.00,-0.0000
3659.00,0.0000
3658.00,0.0000
3657.00,0.0000
3656.00,0.0000
3655.00,-0.0000
3654.00,-0.0000
3653.00,0.0000
3652.00,0.0001
3651.00,0.0001
3650.00,0.0002
3649.00,0.0003
3648.00,0.0003
3647.00,0.0004
3646.00,0.0005
3645.00,0.0005
3644.00,0.0005
3643.00,0.0005
3642.00,0.0005
3641.00,0.0005
3640.00,0.0005
3639.00,0.0005
3638.00,0.0005
3637.00,0.0006
3636.00,0.0006
3635.00,0.0008
3634.00,0.0009
3633.00,0.0010
3632.00,0.0011
3631.00,0.0013
3630.00,0.0014
3629.00,0.0014
3628.00,0.0015
3627.00,0.0015
3626.00,0.0015
3625.00,0.0015
3624.00,0.0014
3623.00,0.0014
3622.00,0.0014
3621.00,0.0015
3620.00,0.0015
3619.00,0.0015
3618.00,0.0015
3617.00,0.0015
3616.00,0.0016
3615.00,0.0016
3614.00,0.0017
3613.00,0.0017
3612.00,0.0017
3611.00,0.0017
3610.00,0.0017
3609.00,0.0017
3608.00,0.0017
3607.00,0.0018
3606.00,0.0018
3605.00,0.0019
3604.00,0.0020
3603.00,0.0020
3602.00,0.0020
3601.00,0.0020
3600.00,0.0021
3599.00,0.0021
3598.00,0.0021
3597.00,0.0021
3596.00,0.0021
3595.00,0.0022
3594.00,0.0022
3593.00,0.0022
3592.00,0.0023
3591.00,0.0024
3590.00,0.0024
3589.00,0.0025
3588.00,0.0025
3587.00,0.0025
3586.00,0.0026
3585.00,0.0026
3584.00,0.0026
3583.00,0.0026
3582.00,0.0026
3581.00,0.0026
3580.00,0.0026
3579.00,0.0026
3578.00,0.0026
3577.00,0.0026
3576.00,0.0027
3575.00,0.0027
3574.00,0.0027
3573.00,0.0028
3572.00,0.0028
3571.00,0.0029
3570.00,0.0030
3569.00,0.0031
3568.00,0.0032
3567.00,0.0032
3566.00,0.0032
3565.00,0.0032
3564.00,0.0032
3563.00,0.0032
3562.00,0.0032
3561.00,0.0032
3560.00,0.0032
3559.00,0.0032
3558.00,0.0033
3557.00,0.0033
3556.00,0.0034
3555.00,0.0034
3554.00,0.0035
3553.00,0.0035
3552.00,0.0035
3551.00,0.0035
3550.00,0.0036
3549.00,0.0036
3548.00,0.0037
3547.00,0.0038
3546.00,0.0038
3545.00,0.0038
3544.00,0.0038
3543.00,0.0038
3542.00,0.0038
3541.00,0.0039
3540.00,0.0039
3539.00,0.0040
3538.00,0.0040
3537.00,0.0041
3536.00,0.0041
3535.00,0.0041
3534.00,0.0042
3533.00,0.0042
3532.00,0.0042
3531.00,0.0042
3530.00,0.0043
3529.00,0.0043
3528.00,0.0043
3527.00,0.0044
3526.00,0.0044
3525.00,0.0045
3524.00,0.0046
3523.00,0.0046
3522.00,0.0047
3521.00,0.0047
3520.00,0.0047
3519.00,0.0047
3518.00,0.0047
3517.00,0.0048
3516.00,0.0048
3515.00,0.0049
3514.00,0.0049
3513.00,0.0049
3512.00,0.0049
3511.00,0.0049
3510.00,0.0050
3509.00,0.0050
3508.00,0.0050
3507.00,0.0051
3506.00,0.0051
3505.00,0.0052
3504.00,0.0052
3503.00,0.0053
3502.00,0.0053
3501.00,0.0054
3500.00,0.0054
3499.00,0.0054
3498.00,0.0055
3497.00,0.0055
3496.00,0.0055
3495.00,0.0055
3494.00,0.0056
3493.00,0.0056
3492.00,0.0056
3491.00,0.0057
3490.00,0.0057
3489.00,0.0058
3488.00,0.0058
3487.00,0.0058
3486.00,0.0059
3485.00,0.0059
3484.00,0.0059
3483.00,0.0060
3482.00,0.0060
3481.00,0.0060
3480.00,0.0060
3479.00,0.0060
3478.00,0.0061
3477.00,0.0061
3476.00,0.0062
3475.00,0.0062
3474.00,0.0062
3473.00,0.0063
3472.00,0.0064
3471.00,0.0064
3470.00,0.0065
3469.00,0.0065
3468.00,0.0065
3467.00,0.0065
3466.00,0.0066
3465.00,0.0066
3464.00,0.0066
3463.00,0.0067
3462.00,0.0067
3461.00,0.0067
3460.00,0.0067
3459.00,0.0067
3458.00,0.0067
3457.00,0.0067
3456.00,0.0068
3455.00,0.0068
3454.00,0.0068
3453.00,0.0068
3452.00,0.0068
3451.00,0.0068
3450.00,0.0069
3449.00,0.0070
3448.00,0.0070
3447.00,0.0071
3446.00,0.0071
3445.00,0.0072
3444.00,0.0072
3443.00,0.0072
3442.00,0.0073
3441.00,0.0073
3440.00,0.0074
3439.00,0.0074
3438.00,0.0074
3437.00,0.0074
3436.00,0.0074
3435.00,0.0074
3434.00,0.0075
3433.00,0.0075
3432.00,0.0076
3431.00,0.0076
3430.00,0.0076
3429.00,0.0076
3428.00,0.0076
3427.00,0.0077
3426.00,0.0077
3425.00,0.0078
3424.00,0.0078
3423.00,0.0078
3422.00,0.0079
3421.00,0.0079
3420.00,0.0079
3419.00,0.0079
3418.00,0.0080
3417.00,0.0080
3416.00,0.0080
3415.00,0.0080
3414.00,0.0081
3413.00,0.0081
3412.00,0.0082
3411.00,0.0082
3410.00,0.0082
3409.00,0.0082
3408.00,0.0082
3407.00,0.0083
3406.00,0.0083
3405.00,0.0083
3404.00,0.0083
3403.00,0.0083
3402.00,0.0083
3401.00,0.0083
3400.00,0.0084
3399.00,0.0084
3398.00,0.0084
3397.00,0.0084
3396.00,0.0084
3395.00,0.0084
3394.00,0.0085
3393.00,0.0085
3392.00,0.0085
3391.00,0.0085
3390.00,0.0085
3389.00,0.0085
3388.00,0.0085
3387.00,0.0085
3386.00,0.0085
3385.00,0.0086
3384.00,0.0086
3383.00,0.0086
3382.00,0.0086
3381.00,0.0086
3380.00,0.0086
3379.00,0.0086
3378.00,0.0087
3377.00,0.0087
3376.00,0.0087
3375.00,0.0087
3374.00,0.0087
3373.00,0.0087
3372.00,0.0087
3371.00,0.0088
3370.00,0.0088
3369.00,0.0088
3368.00,0.0088
3367.00,0.0088
3366.00,0.0088
3365.00,0.0088
3364.00,0.0088
3363.00,0.0088
3362.00,0.0088
3361.00,0.0088
3360.00,0.0089
3359.00,0.0089
3358.00,0.0089
3357.00,0.0090
3356.00,0.0090
3355.00,0.0090
3354.00,0.0090
3353.00,0.0090
3352.00,0.0090
3351.00,0.0090
3350.00,0.0090
3349.00,0.0090
3348.00,0.0090
3347.00,0.0090
3346.00,0.0090
3345.00,0.0090
3344.00,0.0090
3343.00,0.0090
3342.00,0.0090
3341.00,0.0090
3340.00,0.0090
3339.00,0.0090
3338.00,0.0090
3337.00,0.0090
3336.00,0.0090
3335.00,0.0090
3334.00,0.0090
3333.00,0.0089
3332.00,0.0089
3331.00,0.0090
3330.00,0.0090
3329.00,0.0090
3328.00,0.0090
3327.00,0.0090
3326.00,0.0090
3325.00,0.0090
3324.00,0.0089
3323.00,0.0089
3322.00,0.0089
3321.00,0.0089
3320.00,0.0089
3319.00,0.0089
3318.00,0.0089
3317.00,0.0089
3316.00,0.0089
3315.00,0.0089
3314.00,0.0089
3313.00,0.0089
3312.00,0.0089
3311.00,0.0089
3310.00,0.0089
3309.00,0.0089
3308.00,0.0089
3307.00,0.0089
3306.00,0.0090
3305.00,0.0089
3304.00,0.0089
3303.00,0.0089
3302.00,0.0089
3301.00,0.0089
3300.00,0.0089
3299.00,0.0089
3298.00,0.0089
3297.00,0.0089
3296.00,0.0088
3295.00,0.0087
3294.00,0.0087
3293.00,0.0087
3292.00,0.0086
3291.00,0.0086
3290.00,0.0086
3289.00,0.0085
3288.00,0.0085
3287.00,0.0085
3286.00,0.0084
3285.00,0.0084
3284.00,0.0084
3283.00,0.0084
3282.00,0.0084
3281.00,0.0083
3280.00,0.0083
3279.00,0.0083
3278.00,0.0082
3277.00,0.0082
3276.00,0.0082
3275.00,0.0081
3274.00,0.0081
3273.00,0.0081
3272.00,0.0081
3271.00,0.0081
3270.00,0.0081
3269.00,0.0080
3268.00,0.0080
3267.00,0.0079
3266.00,0.0079
3265.00,0.0079
3264.00,0.0079
3263.00,0.0079
3262.00,0.0078
3261.00,0.0077
3260.00,0.0077
3259.00,0.0076
3258.00,0.0076
3257.00,0.0075
3256.00,0.0075
3255.00,0.0075
3254.00,0.0074
3253.00,0.0074
3252.00,0.0074
3251.00,0.0074
3250.00,0.0074
3249.00,0.0074
3248.00,0.0073
3247.00,0.0073
3246.00,0.0073
3245.00,0.0073
3244.00,0.0073
3243.00,0.0073
3242.00,0.0073
3241.00,0.0072
3240.00,0.0072
3239.00,0.0072
3238.00,0.0071
3237.00,0.0071
3236.00,0.0071
3235.00,0.0071
3234.00,0.0070
3233.00,0.0070
3232.00,0.0070
3231.00,0.0070
3230.00,0.0070
3229.00,0.0070
3228.00,0.0070
3227.00,0.0070
3226.00,0.0071
3225.00,0.0071
3224.00,0.0071
3223.00,0.0071
3222.00,0.0071
3221.00,0.0071
3220.00,0.0071
3219.00,0.0071
3218.00,0.0071
3217.00,0.0071
3216.00,0.0071
3215.00,0.0071
3214.00,0.0071
3213.00,0.0071
3212.00,0.0071
3211.00,0.0071
3210.00,0.0071
3209.00,0.0071
3208.00,0.0071
3207.00,0.0071
3206.00,0.0071
3205.00,0.0070
3204.00,0.0070
3203.00,0.0070
3202.00,0.0070
3201.00,0.0070
3200.00,0.0070
3199.00,0.0070
3198.00,0.0070
3197.00,0.0070
3196.00,0.0070
3195.00,0.0069
3194.00,0.0069
3193.00,0.0069
3192.00,0.0069
3191.00,0.0069
3190.00,0.0068
3189.00,0.0068
3188.00,0.0068
3187.00,0.0068
3186.00,0.0068
3185.00,0.0068
3184.00,0.0068
3183.00,0.0068
3182.00,0.0067
3181.00,0.0067
3180.00,0.0066
3179.00,0.0066
3178.00,0.0066
3177.00,0.0065
3176.00,0.0065
3175.00,0.0065
3174.00,0.0065
3173.00,0.0065
3172.00,0.0065
3171.00,0.0064
3170.00,0.0064
3169.00,0.0063
3168.00,0.0063
3167.00,0.0063
3166.00,0.0062
3165.00,0.0062
3164.00,0.0062
3163.00,0.0062
3162.00,0.0062
3161.00,0.0062
3160.00,0.0062
3159.00,0.0061
3158.00,0.0061
3157.00,0.0061
3156.00,0.0061
3155.00,0.0061
3154.00,0.0061
3153.00,0.0061
3152.00,0.0061
3151.00,0.0061
3150.00,0.0061
3149.00,0.0061
3148.00,0.0061
3147.00,0.0061
3146.00,0.0060
3145.00,0.0060
3144.00,0.0059
3143.00,0.0059
3142.00,0.0058
3141.00,0.0058
3140.00,0.0058
3139.00,0.0058
3138.00,0.0058
3137.00,0.0058
3136.00,0.0058
3135.00,0.0058
3134.00,0.0057
3133.00,0.0057
3132.00,0.0056
3131.00,0.0056
3130.00,0.0055
3129.00,0.0055
3128.00,0.0055
3127.00,0.0055
3126.00,0.0054
3125.00,0.0054
3124.00,0.0054
3123.00,0.0053
3122.00,0.0053
3121.00,0.0053
3120.00,0.0053
3119.00,0.0052
3118.00,0.0052
3117.00,0.0051
3116.00,0.0051
3115.00,0.0050
3114.00,0.0050
3113.00,0.0050
3112.00,0.0050
3111.00,0.0050
3110.00,0.0050
3109.00,0.0050
3108.00,0.0050
3107.00,0.0049
3106.00,0.0049
3105.00,0.0049
3104.00,0.0048
3103.00,0.0048
3102.00,0.0048
3101.00,0.0048
3100.00,0.0048
3099.00,0.0048
3098.00,0.0048
3097.00,0.0048
3096.00,0.0048
3095.00,0.0048
3094.00,0.0047
3093.00,0.0047
3092.00,0.0047
3091.00,0.0047
3090.00,0.0047
3089.00,0.0048
3088.00,0.0048
3087.00,0.0048
3086.00,0.0048
3085.00,0.0048
3084.00,0.0048
3083.00,0.0047
3082.00,0.0047
3081.00,0.0046
3080.00,0.0046
3079.00,0.0046
3078.00,0.0046
3077.00,0.0046
3076.00,0.0046
3075.00,0.0046
3074.00,0.0047
3073.00,0.0047
3072.00,0.0047
3071.00,0.0047
3070.00,0.0047
3069.00,0.0048
3068.00,0.0048
3067.00,0.0048
3066.00,0.0049
3065.00,0.0049
3064.00,0.0049
3063.00,0.0049
3062.00,0.0049
3061.00,0.0049
3060.00,0.0049
3059.00,0.0049
3058.00,0.0049
3057.00,0.0048
3056.00,0.0048
3055.00,0.0048
3054.00,0.0048
3053.00,0.0048
3052.00,0.0049
3051.00,0.0049
3050.00,0.0049
3049.00,0.0049
3048.00,0.0050
3047.00,0.0050
3046.00,0.0050
3045.00,0.0050
3044.00,0.0050
3043.00,0.0050
3042.00,0.0050
3041.00,0.0050
3040.00,0.0051
3039.00,0.0051
3038.00,0.0052
3037.00,0.0052
3036.00,0.0053
3035.00,0.0053
3034.00,0.0053
3033.00,0.0053
3032.00,0.0054
3031.00,0.0054
3030.00,0.0054
3029.00,0.0054
3028.00,0.0055
3027.00,0.0055
3026.00,0.0055
3025.00,0.0056
3024.00,0.0056
3023.00,0.0056
3022.00,0.0056
3021.00,0.0056
3020.00,0.0056
3019.00,0.0057
3018.00,0.0057
3017.00,0.0057
3016.00,0.0057
3015.00,0.0056
3014.00,0.0056
3013.00,0.0056
3012.00,0.0055
3011.00,0.0054
3010.00,0.0053
3009.00,0.0052
3008.00,0.0051
3007.00,0.0049
3006.00,0.0048
3005.00,0.0046
3004.00,0.0045
3003.00,0.0044
3002.00,0.0044
3001.00,0.0043
3000.00,0.0043
2999.00,0.0043
2998.00,0.0044
2997.00,0.0045
2996.00,0.0046
2995.00,0.0048
2994.00,0.0051
2993.00,0.0053
2992.00,0.0056
2991.00,0.0060
2990.00,0.0064
2989.00,0.0069
2988.00,0.0074
2987.00,0.0078
2986.00,0.0082
2985.00,0.0084
2984.00,0.0086
2983.00,0.0089
2982.00,0.0097
2981.00,0.0111
2980.00,0.0131
2979.00,0.0155
2978.00,0.0182
2977.00,0.0211
2976.00,0.0241
2975.00,0.0274
2974.00,0.0310
2973.00,0.0351
2972.00,0.0398
2971.00,0.0453
2970.00,0.0516
2969.00,0.0584
2968.00,0.0658
2967.00,0.0736
2966.00,0.0816
2965.00,0.0897
2964.00,0.0976
2963.00,0.1050
2962.00,0.1115
2961.00,0.1170
2960.00,0.1215
2959.00,0.1254
2958.00,0.1290
2957.00,0.1328
2956.00,0.1372
2955.00,0.1424
2954.00,0.1482
2953.00,0.1542
2952.00,0.1596
2951.00,0.1634
2950.00,0.1646
2949.00,0.1628
2948.00,0.1576
2947.00,0.1496
2946.00,0.1398
2945.00,0.1293
2944.00,0.1194
2943.00,0.1111
2942.00,0.1048
2941.00,0.1006
2940.00,0.0986
2939.00,0.0985
2938.00,0.1001
2937.00,0.1033
2936.00,0.1078
2935.00,0.1137
2934.00,0.1207
2933.00,0.1288
2932.00,0.1379
2931.00,0.1477
2930.00,0.1581
2929.00,0.1687
2928.00,0.1792
2927.00,0.1896
2926.00,0.1995
2925.00,0.2089
2924.00,0.2181
2923.00,0.2270
2922.00,0.2357
2921.00,0.2440
2920.00,0.2513
2919.00,0.2566
2918.00,0.2593
2917.00,0.2585
2916.00,0.2541
2915.00,0.2466
2914.00,0.2371
2913.00,0.2266
2912.00,0.2162
2911.00,0.2064
2910.00,0.1976
2909.00,0.1896
2908.00,0.1824
2907.00,0.1757
2906.00,0.1692
2905.00,0.1628
2904.00,0.1564
2903.00,0.1502
2902.00,0.1440
2901.00,0.1379
2900.00,0.1321
2899.00,0.1265
2898.00,0.1214
2897.00,0.1166
2896.00,0.1124
2895.00,0.1086
2894.00,0.1053
2893.00,0.1026
2892.00,0.1004
2891.00,0.0986
2890.00,0.0974
2889.00,0.0966
2888.00,0.0962
2887.00,0.0960
2886.00,0.0962
2885.00,0.0968
2884.00,0.0978
2883.00,0.0994
2882.00,0.1014
2881.00,0.1037
2880.00,0.1061
2879.00,0.1082
2878.00,0.1097
2877.00,0.1104
2876.00,0.1103
2875.00,0.1098
2874.00,0.1093
2873.00,0.1093
2872.00,0.1098
2871.00,0.1111
2870.00,0.1127
2869.00,0.1143
2868.00,0.1154
2867.00,0.1152
2866.00,0.1133
2865.00,0.1094
2864.00,0.1041
2863.00,0.0980
2862.00,0.0920
2861.00,0.0868
2860.00,0.0830
2859.00,0.0806
2858.00,0.0796
2857.00,0.0796
2856.00,0.0804
2855.00,0.0818
2854.00,0.0835
2853.00,0.0853
2852.00,0.0870
2851.00,0.0882
2850.00,0.0888
2849.00,0.0887
2848.00,0.0884
2847.00,0.0884
2846.00,0.0892
2845.00,0.0910
2844.00,0.0940
2843.00,0.0978
2842.00,0.1021
2841.00,0.1063
2840.00,0.1098
2839.00,0.1116
2838.00,0.1112
2837.00,0.1082
2836.00,0.1025
2835.00,0.0946
2834.00,0.0853
2833.00,0.0756
2832.00,0.0664
2831.00,0.0582
2830.00,0.0512
2829.00,0.0454
2828.00,0.0408
2827.00,0.0370
2826.00,0.0339
2825.00,0.0314
2824.00,0.0293
2823.00,0.0275
2822.00,0.0260
2821.00,0.0246
2820.00,0.0235
2819.00,0.0225
2818.00,0.0216
2817.00,0.0208
2816.00,0.0201
2815.00,0.0195
2814.00,0.0189
2813.00,0.0184
2812.00,0.0179
2811.00,0.0174
2810.00,0.0169
2809.00,0.0163
2808.00,0.0158
2807.00,0.0152
2806.00,0.0146
2805.00,0.0141
2804.00,0.0135
2803.00,0.0130
2802.00,0.0125
2801.00,0.0120
2800.00,0.0117
2799.00,0.0113
2798.00,0.0111
2797.00,0.0108
2796.00,0.0106
2795.00,0.0104
2794.00,0.0102
2793.00,0.0099
2792.00,0.0096
2791.00,0.0093
2790.00,0.0091
2789.00,0.0088
2788.00,0.0085
2787.00,0.0083
2786.00,0.0080
2785.00,0.0078
2784.00,0.0076
2783.00,0.0074
2782.00,0.0072
2781.00,0.0070
2780.00,0.0069
2779.00,0.0067
2778.00,0.0065
2777.00,0.0064
2776.00,0.0063
2775.00,0.0062
2774.00,0.0061
2773.00,0.0060
2772.00,0.0060
2771.00,0.0060
2770.00,0.0060
2769.00,0.0059
2768.00,0.0059
2767.00,0.0059
2766.00,0.0058
2765.00,0.0058
2764.00,0.0057
2763.00,0.0057
2762.00,0.0057
2761.00,0.0056
2760.00,0.0056
2759.00,0.0055
2758.00,0.0055
2757.00,0.0055
2756.00,0.0055
2755.00,0.0055
2754.00,0.0055
2753.00,0.0055
2752.00,0.0055
2751.00,0.0054
2750.00,0.0054
2749.00,0.0054
2748.00,0.0054
2747.00,0.0054
2746.00,0.0054
2745.00,0.0055
2744.00,0.0055
2743.00,0.0056
2742.00,0.0056
2741.00,0.0057
2740.00,0.0059
2739.00,0.0060
2738.00,0.0061
2737.00,0.0062
2736.00,0.0064
2735.00,0.0065
2734.00,0.0066
2733.00,0.0067
2732.00,0.0069
2731.00,0.0071
2730.00,0.0073
2729.00,0.0075
2728.00,0.0077
2727.00,0.0080
2726.00,0.0082
2725.00,0.0084
2724.00,0.0086
2723.00,0.0086
2722.00,0.0085
2721.00,0.0083
2720.00,0.0081
2719.00,0.0078
2718.00,0.0075
2717.00,0.0072
2716.00,0.0070
2715.00,0.0068
2714.00,0.0066
2713.00,0.0064
2712.00,0.0062
2711.00,0.0060
2710.00,0.0059
2709.00,0.0057
2708.00,0.0056
2707.00,0.0055
2706.00,0.0053
2705.00,0.0052
2704.00,0.0051
2703.00,0.0050
2702.00,0.0049
2701.00,0.0049
2700.00,0.0048
2699.00,0.0048
2698.00,0.0047
2697.00,0.0047
2696.00,0.0046
2695.00,0.0046
2694.00,0.0047
2693.00,0.0047
2692.00,0.0047
2691.00,0.0047
2690.00,0.0047
2689.00,0.0047
2688.00,0.0047
2687.00,0.0047
2686.00,0.0046
2685.00,0.0046
2684.00,0.0046
2683.00,0.0046
2682.00,0.0047
2681.00,0.0047
2680.00,0.0047
2679.00,0.0047
2678.00,0.0047
2677.00,0.0046
2676.00,0.0046
2675.00,0.0046
2674.00,0.0046
2673.00,0.0046
2672.00,0.0046
2671.00,0.0046
2670.00,0.0045
2669.00,0.0045
2668.00,0.0046
2667.00,0.0046
2666.00,0.0047
2665.00,0.0048
2664.00,0.0048
2663.00,0.0048
2662.00,0.0048
2661.00,0.0048
2660.00,0.0048
2659.00,0.0048
2658.00,0.0049
2657.00,0.0049
2656.00,0.0048
2655.00,0.0048
2654.00,0.0047
2653.00,0.0047
2652.00,0.0046
2651.00,0.0046
2650.00,0.0045
2649.00,0.0045
2648.00,0.0044
2647.00,0.0044
2646.00,0.0043
2645.00,0.0043
2644.00,0.0042
2643.00,0.0042
2642.00,0.0041
2641.00,0.0041
2640.00,0.0041
2639.00,0.0041
2638.00,0.0040
2637.00,0.0040
2636.00,0.0040
2635.00,0.0041
2634.00,0.0041
2633.00,0.0041
2632.00,0.0041
2631.00,0.0041
2630.00,0.0041
2629.00,0.0041
2628.00,0.0041
2627.00,0.0041
2626.00,0.0041
2625.00,0.0041
2624.00,0.0041
2623.00,0.0042
2622.00,0.0042
2621.00,0.0042
2620.00,0.0042
2619.00,0.0042
2618.00,0.0042
2617.00,0.0042
2616.00,0.0042
2615.00,0.0041
2614.00,0.0041
2613.00,0.0041
2612.00,0.0041
2611.00,0.0041
2610.00,0.0041
2609.00,0.0040
2608.00,0.0039
2607.00,0.0038
2606.00,0.0037
2605.00,0.0036
2604.00,0.0035
2603.00,0.0035
2602.00,0.0034
2601.00,0.0034
2600.00,0.0033
2599.00,0.0033
2598.00,0.0034
2597.00,0.0034
2596.00,0.0034
2595.00,0.0034
2594.00,0.0034
2593.00,0.0035
2592.00,0.0036
2591.00,0.0037
2590.00,0.0038
2589.00,0.0038
2588.00,0.0038
2587.00,0.0038
2586.00,0.0039
2585.00,0.0039
2584.00,0.0040
2583.00,0.0041
2582.00,0.0041
2581.00,0.0040
2580.00,0.0039
2579.00,0.0038
2578.00,0.0036
2577.00,0.0035
2576.00,0.0035
2575.00,0.0034
2574.00,0.0034
2573.00,0.0033
2572.00,0.0032
2571.00,0.0031
2570.00,0.0030
2569.00,0.0030
2568.00,0.0029
2567.00,0.0029
2566.00,0.0028
2565.00,0.0027
2564.00,0.0027
2563.00,0.0027
2562.00,0.0026
2561.00,0.0026
2560.00,0.0025
2559.00,0.0025
2558.00,0.0024
2557.00,0.0024
2556.00,0.0024
2555.00,0.0023
2554.00,0.0023
2553.00,0.0022
2552.00,0.0022
2551.00,0.0022
2550.00,0.0022
2549.00,0.0022
2548.00,0.0022
2547.00,0.0021
2546.00,0.0021
2545.00,0.0021
2544.00,0.0021
2543.00,0.0021
2542.00,0.0021
2541.00,0.0021
2540.00,0.0021
2539.00,0.0020
2538.00,0.0020
2537.00,0.0020
2536.00,0.0020
2535.00,0.0020
2534.00,0.0019
2533.00,0.0019
2532.00,0.0018
2531.00,0.0018
2530.00,0.0018
2529.00,0.0018
2528.00,0.0018
2527.00,0.0018
2526.00,0.0017
2525.00,0.0017
2524.00,0.0018
2523.00,0.0018
2522.00,0.0017
2521.00,0.0017
2520.00,0.0017
2519.00,0.0016
2518.00,0.0016
2517.00,0.0016
2516.00,0.0016
2515.00,0.0016
2514.00,0.0015
2513.00,0.0015
2512.00,0.0014
2511.00,0.0014
2510.00,0.0014
2509.00,0.0014
2508.00,0.0014
2507.00,0.0014
2506.00,0.0013
2505.00,0.0013
2504.00,0.0013
2503.00,0.0013
2502.00,0.0013
2501.00,0.0014
2500.00,0.0014
2499.00,0.0014
2498.00,0.0015
2497.00,0.0015
2496.00,0.0016
2495.00,0.0015
2494.00,0.0015
2493.00,0.0014
2492.00,0.0014
2491.00,0.0014
2490.00,0.0014
2489.00,0.0014
2488.00,0.0014
2487.00,0.0014
2486.00,0.0014
2485.00,0.0014
2484.00,0.0013
2483.00,0.0013
2482.00,0.0014
2481.00,0.0014
2480.00,0.0014
2479.00,0.0014
2478.00,0.0014
2477.00,0.0014
2476.00,0.0013
2475.00,0.0013
2474.00,0.0012
2473.00,0.0012
2472.00,0.0012
2471.00,0.0012
2470.00,0.0012
2469.00,0.0012
2468.00,0.0012
2467.00,0.0012
2466.00,0.0013
2465.00,0.0013
2464.00,0.0014
2463.00,0.0013
2462.00,0.0013
2461.00,0.0012
2460.00,0.0012
2459.00,0.0012
2458.00,0.0013
2457.00,0.0014
2456.00,0.0014
2455.00,0.0015
2454.00,0.0015
2453.00,0.0014
2452.00,0.0013
2451.00,0.0012
2450.00,0.0012
2449.00,0.0012
2448.00,0.0013
2447.00,0.0013
2446.00,0.0014
2445.00,0.0013
2444.00,0.0013
2443.00,0.0012
2442.00,0.0012
2441.00,0.0013
2440.00,0.0013
2439.00,0.0013
2438.00,0.0013
2437.00,0.0013
2436.00,0.0012
2435.00,0.0012
2434.00,0.0012
2433.00,0.0013
2432.00,0.0014
2431.00,0.0014
2430.00,0.0014
2429.00,0.0014
2428.00,0.0014
2427.00,0.0014
2426.00,0.0014
2425.00,0.0014
2424.00,0.0014
2423.00,0.0013
2422.00,0.0013
2421.00,0.0012
2420.00,0.0012
2419.00,0.0012
2418.00,0.0012
2417.00,0.0012
2416.00,0.0013
2415.00,0.0013
2414.00,0.0013
2413.00,0.0013
2412.00,0.0013
2411.00,0.0013
2410.00,0.0013
2409.00,0.0014
2408.00,0.0014
2407.00,0.0013
2406.00,0.0012
2405.00,0.0011
2404.00,0.0011
2403.00,0.0010
2402.00,0.0010
2401.00,0.0011
2400.00,0.0011
2399.00,0.0010
2398.00,0.0010
2397.00,0.0010
2396.00,0.0010
2395.00,0.0010
2394.00,0.0011
2393.00,0.0011
2392.00,0.0012
2391.00,0.0012
2390.00,0.0012
2389.00,0.0011
2388.00,0.0011
2387.00,0.0010
2386.00,0.0009
2385.00,0.0009
2384.00,0.0008
2383.00,0.0007
2382.00,0.0006
2381.00,0.0006
2380.00,0.0005
2379.00,0.0005
2378.00,0.0005
2377.00,0.0005
2376.00,0.0006
2375.00,0.0007
2374.00,0.0007
2373.00,0.0007
2372.00,0.0007
2371.00,0.0007
2370.00,0.0007
2369.00,0.0007
2368.00,0.0007
2367.00,0.0007
2366.00,0.0007
2365.00,0.0007
2364.00,0.0007
2363.00,0.0007
2362.00,0.0007
2361.00,0.0008
2360.00,0.0008
2359.00,0.0008
2358.00,0.0009
2357.00,0.0009
2356.00,0.0009
2355.00,0.0009
2354.00,0.0009
2353.00,0.0008
2352.00,0.0008
2351.00,0.0009
2350.00,0.0009
2349.00,0.0009
2348.00,0.0009
2347.00,0.0009
2346.00,0.0009
2345.00,0.0009
2344.00,0.0010
2343.00,0.0011
2342.00,0.0012
2341.00,0.0012
2340.00,0.0013
2339.00,0.0013
2338.00,0.0012
2337.00,0.0012
2336.00,0.0012
2335.00,0.0011
2334.00,0.0011
2333.00,0.0011
2332.00,0.0010
2331.00,0.0011
2330.00,0.0011
2329.00,0.0012
2328.00,0.0014
2327.00,0.0016
2326.00,0.0019
2325.00,0.0022
2324.00,0.0023
2323.00,0.0023
2322.00,0.0021
2321.00,0.0019
2320.00,0.0017
2319.00,0.0016
2318.00,0.0016
2317.00,0.0016
2316.00,0.0016
2315.00,0.0016
2314.00,0.0015
2313.00,0.0014
2312.00,0.0013
2311.00,0.0013
2310.00,0.0012
2309.00,0.0012
2308.00,0.0012
2307.00,0.0012
2306.00,0.0012
2305.00,0.0013
2304.00,0.0013
2303.00,0.0013
2302.00,0.0013
2301.00,0.0014
2300.00,0.0014
2299.00,0.0014
2298.00,0.0014
2297.00,0.0014
2296.00,0.0015
2295.00,0.0016
2294.00,0.0017
2293.00,0.0017
2292.00,0.0018
2291.00,0.0019
2290.00,0.0019
2289.00,0.0020
2288.00,0.0020
2287.00,0.0021
2286.00,0.0021
2285.00,0.0021
2284.00,0.0021
2283.00,0.0020
2282.00,0.0019
2281.00,0.0018
2280.00,0.0017
2279.00,0.0016
2278.00,0.0015
2277.00,0.0015
2276.00,0.0016
2275.00,0.0016
2274.00,0.0016
2273.00,0.0015
2272.00,0.0014
2271.00,0.0013
2270.00,0.0012
2269.00,0.0012
2268.00,0.0012
2267.00,0.0012
2266.00,0.0013
2265.00,0.0014
2264.00,0.0016
2263.00,0.0017
2262.00,0.0018
2261.00,0.0018
2260.00,0.0017
2259.00,0.0016
2258.00,0.0016
2257.00,0.0015
2256.00,0.0014
2255.00,0.0013
2254.00,0.0013
2253.00,0.0013
2252.00,0.0012
2251.00,0.0011
2250.00,0.0010
2249.00,0.0010
2248.00,0.0010
2247.00,0.0012
2246.00,0.0013
2245.00,0.0013
2244.00,0.0014
2243.00,0.0014
2242.00,0.0015
2241.00,0.0015
2240.00,0.0014
2239.00,0.0014
2238.00,0.0013
2237.00,0.0012
2236.00,0.0012
2235.00,0.0012
2234.00,0.0013
2233.00,0.0013
2232.00,0.0015
2231.00,0.0016
2230.00,0.0018
2229.00,0.0019
2228.00,0.0018
2227.00,0.0015
2226.00,0.0012
2225.00,0.0011
2224.00,0.0010
2223.00,0.0009
2222.00,0.0009
2221.00,0.0008
2220.00,0.0007
2219.00,0.0007
2218.00,0.0006
2217.00,0.0006
2216.00,0.0006
2215.00,0.0006
2214.00,0.0005
2213.00,0.0005
2212.00,0.0005
2211.00,0.0006
2210.00,0.0009
2209.00,0.0011
2208.00,0.0012
2207.00,0.0011
2206.00,0.0010
2205.00,0.0009
2204.00,0.0008
2203.00,0.0008
2202.00,0.0009
2201.00,0.0012
2200.00,0.0015
2199.00,0.0016
2198.00,0.0015
2197.00,0.0014
2196.00,0.0014
2195.00,0.0013
2194.00,0.0012
2193.00,0.0012
2192.00,0.0011
2191.00,0.0009
2190.00,0.0007
2189.00,0.0006
2188.00,0.0005
2187.00,0.0006
2186.00,0.0008
2185.00,0.0012
2184.00,0.0016
2183.00,0.0017
2182.00,0.0015
2181.00,0.0012
2180.00,0.0011
2179.00,0.0012
2178.00,0.0013
2177.00,0.0013
2176.00,0.0010
2175.00,0.0007
2174.00,0.0005
2173.00,0.0005
2172.00,0.0008
2171.00,0.0012
2170.00,0.0016
2169.00,0.0020
2168.00,0.0022
2167.00,0.0022
2166.00,0.0022
2165.00,0.0024
2164.00,0.0027
2163.00,0.0030
2162.00,0.0032
2161.00,0.0027
2160.00,0.0017
2159.00,0.0002
2158.00,-0.0011
2157.00,-0.0018
2156.00,-0.0019
2155.00,-0.0017
2154.00,-0.0014
2153.00,-0.0011
2152.00,-0.0008
2151.00,-0.0006
2150.00,-0.0004
2149.00,-0.0003
2148.00,-0.0004
2147.00,-0.0005
2146.00,-0.0005
2145.00,-0.0004
2144.00,-0.0005
2143.00,-0.0006
2142.00,-0.0008
2141.00,-0.0008
2140.00,-0.0006
2139.00,-0.0004
2138.00,-0.0002
2137.00,-0.0003
2136.00,-0.0005
2135.00,-0.0008
2134.00,-0.0010
2133.00,-0.0011
2132.00,-0.0010
2131.00,-0.0008
2130.00,-0.0006
2129.00,-0.0003
2128.00,-0.0002
2127.00,-0.0000
2126.00,0.0000
2125.00,0.0001
2124.00,0.0002
2123.00,0.0002
2122.00,0.0002
2121.00,0.0001
2120.00,0.0001
2119.00,0.0001
2118.00,0.0002
2117.00,0.0002
2116.00,0.0003
2115.00,0.0005
2114.00,0.0006
2113.00,0.0008
2112.00,0.0009
2111.00,0.0009
2110.00,0.0008
2109.00,0.0007
2108.00,0.0006
2107.00,0.0005
2106.00,0.0004
2105.00,0.0004
2104.00,0.0004
2103.00,0.0005
2102.00,0.0007
2101.00,0.0008
2100.00,0.0009
2099.00,0.0009
2098.00,0.0008
2097.00,0.0006
2096.00,0.0004
2095.00,0.0002
2094.00,0.0002
2093.00,0.0004
2092.00,0.0005
2091.00,0.0007
2090.00,0.0007
2089.00,0.0006
2088.00,0.0006
2087.00,0.0005
2086.00,0.0005
2085.00,0.0005
2084.00,0.0005
2083.00,0.0005
2082.00,0.0006
2081.00,0.0006
2080.00,0.0007
2079.00,0.0007
2078.00,0.0008
2077.00,0.0008
2076.00,0.0008
2075.00,0.0007
2074.00,0.0006
2073.00,0.0005
2072.00,0.0005
2071.00,0.0004
2070.00,0.0004
2069.00,0.0004
2068.00,0.0003
2067.00,0.0001
2066.00,-0.0000
2065.00,-0.0001
2064.00,-0.0001
2063.00,0.0001
2062.00,0.0003
2061.00,0.0004
2060.00,0.0005
2059.00,0.0005
2058.00,0.0005
2057.00,0.0006
2056.00,0.0006
2055.00,0.0007
2054.00,0.0008
2053.00,0.0011
2052.00,0.0016
2051.00,0.0019
2050.00,0.0018
2049.00,0.0012
2048.00,0.0006
2047.00,0.0004
2046.00,0.0005
2045.00,0.0007
2044.00,0.0009
2043.00,0.0010
2042.00,0.0010
2041.00,0.0009
2040.00,0.0007
2039.00,0.0005
2038.00,0.0005
2037.00,0.0005
2036.00,0.0005
2035.00,0.0004
2034.00,0.0001
2033.00,-0.0001
2032.00,-0.0003
2031.00,-0.0005
2030.00,-0.0005
2029.00,-0.0004
2028.00,-0.0004
2027.00,-0.0004
2026.00,-0.0005
2025.00,-0.0005
2024.00,-0.0006
2023.00,-0.0008
2022.00,-0.0010
2021.00,-0.0011
2020.00,-0.0009
2019.00,-0.0006
2018.00,-0.0004
2017.00,-0.0001
2016.00,0.0001
2015.00,0.0001
2014.00,0.0000
2013.00,-0.0001
2012.00,-0.0001
2011.00,0.0000
2010.00,0.0002
2009.00,0.0001
2008.00,-0.0004
2007.00,-0.0009
2006.00,-0.0012
2005.00,-0.0010
2004.00,-0.0007
2003.00,-0.0005
2002.00,-0.0006
2001.00,-0.0007
2000.00,-0.0009
1999.00,-0.0009
1998.00,-0.0008
1997.00,-0.0007
1996.00,-0.0007
1995.00,-0.0007
1994.00,-0.0007
1993.00,-0.0005
1992.00,-0.0003
1991.00,-0.0003
1990.00,-0.0004
1989.00,-0.0005
1988.00,-0.0004
1987.00,-0.0003
1986.00,-0.0000
1985.00,0.0002
1984.00,0.0003
1983.00,0.0003
1982.00,0.0004
1981.00,0.0005
1980.00,0.0006
1979.00,0.0004
1978.00,-0.0001
1977.00,-0.0005
1976.00,-0.0007
1975.00,-0.0006
1974.00,-0.0005
1973.00,-0.0004
1972.00,-0.0005
1971.00,-0.0006
1970.00,-0.0007
1969.00,-0.0007
1968.00,-0.0009
1967.00,-0.0012
1966.00,-0.0015
1965.00,-0.0017
1964.00,-0.0015
1963.00,-0.0013
1962.00,-0.0010
1961.00,-0.0008
1960.00,-0.0008
1959.00,-0.0011
1958.00,-0.0014
1957.00,-0.0015
1956.00,-0.0015
1955.00,-0.0013
1954.00,-0.0012
1953.00,-0.0010
1952.00,-0.0009
1951.00,-0.0009
1950.00,-0.0008
1949.00,-0.0007
1948.00,-0.0007
1947.00,-0.0007
1946.00,-0.0007
1945.00,-0.0007
1944.00,-0.0007
1943.00,-0.0007
1942.00,-0.0006
1941.00,-0.0006
1940.00,-0.0005
1939.00,-0.0006
1938.00,-0.0007
1937.00,-0.0007
1936.00,-0.0007
1935.00,-0.0005
1934.00,-0.0004
1933.00,-0.0004
1932.00,-0.0003
1931.00,-0.0003
1930.00,-0.0003
1929.00,-0.0002
1928.00,-0.0002
1927.00,-0.0002
1926.00,-0.0003
1925.00,-0.0004
1924.00,-0.0005
1923.00,-0.0004
1922.00,-0.0003
1921.00,-0.0003
1920.00,-0.0002
1919.00,-0.0002
1918.00,-0.0001
1917.00,0.0000
1916.00,0.0002
1915.00,0.0002
1914.00,0.0002
1913.00,0.0001
1912.00,0.0002
1911.00,0.0002
1910.00,0.0002
1909.00,0.0002
1908.00,0.0002
1907.00,0.0002
1906.00,0.0001
1905.00,0.0001
1904.00,0.0001
1903.00,0.0001
1902.00,0.0002
1901.00,0.0003
1900.00,0.0004
1899.00,0.0004
1898.00,0.0004
1897.00,0.0005
1896.00,0.0006
1895.00,0.0006
1894.00,0.0006
1893.00,0.0005
1892.00,0.0003
1891.00,0.0002
1890.00,0.0002
1889.00,0.0003
1888.00,0.0003
1887.00,0.0004
1886.00,0.0003
1885.00,0.0002
1884.00,0.0002
1883.00,0.0001
1882.00,0.0001
1881.00,0.0001
1880.00,0.0002
1879.00,0.0002
1878.00,0.0003
1877.00,0.0003
1876.00,0.0003
1875.00,0.0003
1874.00,0.0003
1873.00,0.0003
1872.00,0.0003
1871.00,0.0003
1870.00,0.0003
1869.00,0.0003
1868.00,0.0004
1867.00,0.0005
1866.00,0.0005
1865.00,0.0005
1864.00,0.0004
1863.00,0.0004
1862.00,0.0004
1861.00,0.0004
1860.00,0.0005
1859.00,0.0005
1858.00,0.0006
1857.00,0.0006
1856.00,0.0006
1855.00,0.0006
1854.00,0.0006
1853.00,0.0006
1852.00,0.0006
1851.00,0.0006
1850.00,0.0005
1849.00,0.0005
1848.00,0.0006
1847.00,0.0006
1846.00,0.0006
1845.00,0.0006
1844.00,0.0006
1843.00,0.0006
1842.00,0.0006
1841.00,0.0005
1840.00,0.0005
1839.00,0.0005
1838.00,0.0006
1837.00,0.0006
1836.00,0.0007
1835.00,0.0007
1834.00,0.0007
1833.00,0.0007
1832.00,0.0006
1831.00,0.0006
1830.00,0.0006
1829.00,0.0006
1828.00,0.0007
1827.00,0.0008
1826.00,0.0008
1825.00,0.0008
1824.00,0.0009
1823.00,0.0008
1822.00,0.0008
1821.00,0.0007
1820.00,0.0006
1819.00,0.0004
1818.00,0.0003
1817.00,0.0003
1816.00,0.0003
1815.00,0.0003
1814.00,0.0004
1813.00,0.0005
1812.00,0.0006
1811.00,0.0006
1810.00,0.0006
1809.00,0.0007
1808.00,0.0008
1807.00,0.0008
1806.00,0.0008
1805.00,0.0008
1804.00,0.0008
1803.00,0.0008
1802.00,0.0008
1801.00,0.0008
1800.00,0.0008
1799.00,0.0008
1798.00,0.0008
1797.00,0.0009
1796.00,0.0009
1795.00,0.0009
1794.00,0.0008
1793.00,0.0009
1792.00,0.0010
1791.00,0.0010
1790.00,0.0011
1789.00,0.0011
1788.00,0.0011
1787.00,0.0012
1786.00,0.0012
1785.00,0.0012
1784.00,0.0012
1783.00,0.0012
1782.00,0.0011
1781.00,0.0011
1780.00,0.0011
1779.00,0.0011
1778.00,0.0011
1777.00,0.0011
1776.00,0.0011
1775.00,0.0011
1774.00,0.0011
1773.00,0.0012
1772.00,0.0013
1771.00,0.0014
1770.00,0.0014
1769.00,0.0014
1768.00,0.0014
1767.00,0.0013
1766.00,0.0013
1765.00,0.0014
1764.00,0.0014
1763.00,0.0015
1762.00,0.0016
1761.00,0.0016
1760.00,0.0016
1759.00,0.0016
1758.00,0.0017
1757.00,0.0018
1756.00,0.0019
1755.00,0.0020
1754.00,0.0020
1753.00,0.0020
1752.00,0.0020
1751.00,0.0021
1750.00,0.0021
1749.00,0.0023
1748.00,0.0024
1747.00,0.0026
1746.00,0.0027
1745.00,0.0027
1744.00,0.0028
1743.00,0.0028
1742.00,0.0029
1741.00,0.0029
1740.00,0.0030
1739.00,0.0031
1738.00,0.0031
1737.00,0.0030
1736.00,0.0030
1735.00,0.0031
1734.00,0.0031
1733.00,0.0032
1732.00,0.0032
1731.00,0.0032
1730.00,0.0032
1729.00,0.0032
1728.00,0.0033
1727.00,0.0033
1726.00,0.0033
1725.00,0.0033
1724.00,0.0033
1723.00,0.0033
1722.00,0.0033
1721.00,0.0033
1720.00,0.0033
1719.00,0.0031
1718.00,0.0030
1717.00,0.0029
1716.00,0.0030
1715.00,0.0031
1714.00,0.0031
1713.00,0.0031
1712.00,0.0031
1711.00,0.0031
1710.00,0.0031
1709.00,0.0031
1708.00,0.0032
1707.00,0.0032
1706.00,0.0033
1705.00,0.0033
1704.00,0.0033
1703.00,0.0033
1702.00,0.0034
1701.00,0.0034
1700.00,0.0036
1699.00,0.0036
1698.00,0.0037
1697.00,0.0038
1696.00,0.0041
1695.00,0.0045
1694.00,0.0047
1693.00,0.0049
1692.00,0.0051
1691.00,0.0052
1690.00,0.0055
1689.00,0.0057
1688.00,0.0059
1687.00,0.0061
1686.00,0.0062
1685.00,0.0064
1684.00,0.0068
1683.00,0.0070
1682.00,0.0072
1681.00,0.0074
1680.00,0.0075
1679.00,0.0077
1678.00,0.0078
1677.00,0.0080
1676.00,0.0082
1675.00,0.0084
1674.00,0.0085
1673.00,0.0087
1672.00,0.0088
1671.00,0.0089
1670.00,0.0091
1669.00,0.0093
1668.00,0.0094
1667.00,0.0095
1666.00,0.0095
1665.00,0.0095
1664.00,0.0095
1663.00,0.0096
1662.00,0.0097
1661.00,0.0099
1660.00,0.0100
1659.00,0.0101
1658.00,0.0102
1657.00,0.0102
1656.00,0.0103
1655.00,0.0103
1654.00,0.0104
1653.00,0.0105
1652.00,0.0106
1651.00,0.0107
1650.00,0.0108
1649.00,0.0109
1648.00,0.0110
1647.00,0.0111
1646.00,0.0112
1645.00,0.0112
1644.00,0.0112
1643.00,0.0112
1642.00,0.0113
1641.00,0.0113
1640.00,0.0114
1639.00,0.0114
1638.00,0.0115
1637.00,0.0115
1636.00,0.0115
1635.00,0.0115
1634.00,0.0114
1633.00,0.0114
1632.00,0.0113
1631.00,0.0113
1630.00,0.0112
1629.00,0.0112
1628.00,0.0111
1627.00,0.0111
1626.00,0.0110
1625.00,0.0110
1624.00,0.0109
1623.00,0.0109
1622.00,0.0108
1621.00,0.0107
1620.00,0.0106
1619.00,0.0105
1618.00,0.0104
1617.00,0.0104
1616.00,0.0104
1615.00,0.0104
1614.00,0.0104
1613.00,0.0104
1612.00,0.0104
1611.00,0.0104
1610.00,0.0104
1609.00,0.0104
1608.00,0.0104
1607.00,0.0104
1606.00,0.0103
1605.00,0.0103
1604.00,0.0103
1603.00,0.0102
1602.00,0.0102
1601.00,0.0102
1600.00,0.0102
1599.00,0.0102
1598.00,0.0102
1597.00,0.0102
1596.00,0.0102
1595.00,0.0102
1594.00,0.0102
1593.00,0.0102
1592.00,0.0102
1591.00,0.0102
1590.00,0.0102
1589.00,0.0103
1588.00,0.0104
1587.00,0.0106
1586.00,0.0107
1585.00,0.0109
1584.00,0.0111
1583.00,0.0113
1582.00,0.0116
1581.00,0.0118
1580.00,0.0121
1579.00,0.0123
1578.00,0.0124
1577.00,0.0124
1576.00,0.0124
1575.00,0.0123
1574.00,0.0122
1573.00,0.0121
1572.00,0.0119
1571.00,0.0117
1570.00,0.0115
1569.00,0.0114
1568.00,0.0113
1567.00,0.0113
1566.00,0.0112
1565.00,0.0112
1564.00,0.0112
1563.00,0.0112
1562.00,0.0112
1561.00,0.0113
1560.00,0.0114
1559.00,0.0113
1558.00,0.0114
1557.00,0.0115
1556.00,0.0116
1555.00,0.0117
1554.00,0.0118
1553.00,0.0120
1552.00,0.0122
1551.00,0.0123
1550.00,0.0125
1549.00,0.0127
1548.00,0.0129
1547.00,0.0131
1546.00,0.0134
1545.00,0.0136
1544.00,0.0139
1543.00,0.0141
1542.00,0.0142
1541.00,0.0141
1540.00,0.0138
1539.00,0.0133
1538.00,0.0129
1537.00,0.0125
1536.00,0.0122
1535.00,0.0118
1534.00,0.0112
1533.00,0.0107
1532.00,0.0104
1531.00,0.0101
1530.00,0.0099
1529.00,0.0097
1528.00,0.0096
1527.00,0.0093
1526.00,0.0091
1525.00,0.0090
1524.00,0.0089
1523.00,0.0088
1522.00,0.0088
1521.00,0.0088
1520.00,0.0088
1519.00,0.0088
1518.00,0.0087
1517.00,0.0087
1516.00,0.0087
1515.00,0.0086
1514.00,0.0086
1513.00,0.0086
1512.00,0.0087
1511.00,0.0088
1510.00,0.0088
1509.00,0.0088
1508.00,0.0088
1507.00,0.0086
1506.00,0.0086
1505.00,0.0087
1504.00,0.0089
1503.00,0.0091
1502.00,0.0093
1501.00,0.0096
1500.00,0.0099
1499.00,0.0101
1498.00,0.0103
1497.00,0.0106
1496.00,0.0110
1495.00,0.0113
1494.00,0.0116
1493.00,0.0120
1492.00,0.0124
1491.00,0.0128
1490.00,0.0132
1489.00,0.0137
1488.00,0.0143
1487.00,0.0148
1486.00,0.0153
1485.00,0.0159
1484.00,0.0167
1483.00,0.0175
1482.00,0.0184
1481.00,0.0196
1480.00,0.0208
1479.00,0.0220
1478.00,0.0235
1477.00,0.0255
1476.00,0.0279
1475.00,0.0307
1474.00,0.0345
1473.00,0.0400
1472.00,0.0465
1471.00,0.0528
1470.00,0.0588
1469.00,0.0650
1468.00,0.0716
1467.00,0.0788
1466.00,0.0869
1465.00,0.0957
1464.00,0.1032
1463.00,0.1083
1462.00,0.1114
1461.00,0.1132
1460.00,0.1143
1459.00,0.1149
1458.00,0.1156
1457.00,0.1162
1456.00,0.1162
1455.00,0.1154
1454.00,0.1140
1453.00,0.1121
1452.00,0.1094
1451.00,0.1057
1450.00,0.1007
1449.00,0.0939
1448.00,0.0855
1447.00,0.0767
1446.00,0.0688
1445.00,0.0621
1444.00,0.0565
1443.00,0.0518
1442.00,0.0483
1441.00,0.0460
1440.00,0.0446
1439.00,0.0440
1438.00,0.0442
1437.00,0.0445
1436.00,0.0437
1435.00,0.0415
1434.00,0.0382
1433.00,0.0342
1432.00,0.0300
1431.00,0.0262
1430.00,0.0232
1429.00,0.0210
1428.00,0.0194
1427.00,0.0185
1426.00,0.0180
1425.00,0.0174
1424.00,0.0170
1423.00,0.0167
1422.00,0.0164
1421.00,0.0161
1420.00,0.0158
1419.00,0.0155
1418.00,0.0152
1417.00,0.0149
1416.00,0.0145
1415.00,0.0143
1414.00,0.0141
1413.00,0.0139
1412.00,0.0136
1411.00,0.0134
1410.00,0.0132
1409.00,0.0130
1408.00,0.0128
1407.00,0.0127
1406.00,0.0126
1405.00,0.0124
1404.00,0.0121
1403.00,0.0120
1402.00,0.0120
1401.00,0.0120
1400.00,0.0118
1399.00,0.0118
1398.00,0.0118
1397.00,0.0118
1396.00,0.0117
1395.00,0.0119
1394.00,0.0122
1393.00,0.0126
1392.00,0.0130
1391.00,0.0137
1390.00,0.0146
1389.00,0.0159
1388.00,0.0178
1387.00,0.0207
1386.00,0.0245
1385.00,0.0296
1384.00,0.0367
1383.00,0.0470
1382.00,0.0611
1381.00,0.0797
1380.00,0.1029
1379.00,0.1291
1378.00,0.1540
1377.00,0.1716
1376.00,0.1769
1375.00,0.1671
1374.00,0.1455
1373.00,0.1198
1372.00,0.0966
1371.00,0.0776
1370.00,0.0627
1369.00,0.0514
1368.00,0.0437
1367.00,0.0389
1366.00,0.0363
1365.00,0.0353
1364.00,0.0356
1363.00,0.0369
1362.00,0.0389
1361.00,0.0411
1360.00,0.0428
1359.00,0.0433
1358.00,0.0424
1357.00,0.0402
1356.00,0.0369
1355.00,0.0332
1354.00,0.0297
1353.00,0.0267
1352.00,0.0242
1351.00,0.0223
1350.00,0.0206
1349.00,0.0193
1348.00,0.0182
1347.00,0.0172
1346.00,0.0165
1345.00,0.0158
1344.00,0.0152
1343.00,0.0147
1342.00,0.0142
1341.00,0.0138
1340.00,0.0135
1339.00,0.0132
1338.00,0.0131
1337.00,0.0131
1336.00,0.0132
1335.00,0.0134
1334.00,0.0137
1333.00,0.0141
1332.00,0.0146
1331.00,0.0149
1330.00,0.0150
1329.00,0.0149
1328.00,0.0146
1327.00,0.0141
1326.00,0.0136
1325.00,0.0130
1324.00,0.0125
1323.00,0.0120
1322.00,0.0117
1321.00,0.0115
1320.00,0.0113
1319.00,0.0111
1318.00,0.0110
1317.00,0.0109
1316.00,0.0108
1315.00,0.0107
1314.00,0.0107
1313.00,0.0107
1312.00,0.0108
1311.00,0.0110
1310.00,0.0113
1309.00,0.0119
1308.00,0.0127
1307.00,0.0137
1306.00,0.0146
1305.00,0.0152
1304.00,0.0153
1303.00,0.0151
1302.00,0.0147
1301.00,0.0143
1300.00,0.0142
1299.00,0.0142
1298.00,0.0143
1297.00,0.0143
1296.00,0.0142
1295.00,0.0140
1294.00,0.0136
1293.00,0.0131
1292.00,0.0126
1291.00,0.0122
1290.00,0.0117
1289.00,0.0113
1288.00,0.0110
1287.00,0.0107
1286.00,0.0104
1285.00,0.0102
1284.00,0.0100
1283.00,0.0098
1282.00,0.0097
1281.00,0.0096
1280.00,0.0095
1279.00,0.0094
1278.00,0.0093
1277.00,0.0092
1276.00,0.0091
1275.00,0.0090
1274.00,0.0089
1273.00,0.0088
1272.00,0.0088
1271.00,0.0088
1270.00,0.0088
1269.00,0.0089
1268.00,0.0090
1267.00,0.0092
1266.00,0.0095
1265.00,0.0097
1264.00,0.0100
1263.00,0.0102
1262.00,0.0105
1261.00,0.0108
1260.00,0.0113
1259.00,0.0118
1258.00,0.0124
1257.00,0.0127
1256.00,0.0128
1255.00,0.0125
1254.00,0.0118
1253.00,0.0110
1252.00,0.0103
1251.00,0.0097
1250.00,0.0094
1249.00,0.0092
1248.00,0.0090
1247.00,0.0088
1246.00,0.0087
1245.00,0.0085
1244.00,0.0084
1243.00,0.0083
1242.00,0.0083
1241.00,0.0083
1240.00,0.0082
1239.00,0.0082
1238.00,0.0081
1237.00,0.0081
1236.00,0.0082
1235.00,0.0083
1234.00,0.0084
1233.00,0.0086
1232.00,0.0087
1231.00,0.0089
1230.00,0.0091
1229.00,0.0092
1228.00,0.0095
1227.00,0.0098
1226.00,0.0101
1225.00,0.0105
1224.00,0.0108
1223.00,0.0112
1222.00,0.0116
1221.00,0.0120
1220.00,0.0122
1219.00,0.0123
1218.00,0.0123
1217.00,0.0122
1216.00,0.0119
1215.00,0.0116
1214.00,0.0113
1213.00,0.0109
1212.00,0.0106
1211.00,0.0104
1210.00,0.0102
1209.00,0.0101
1208.00,0.0101
1207.00,0.0100
1206.00,0.0099
1205.00,0.0098
1204.00,0.0098
1203.00,0.0098
1202.00,0.0098
1201.00,0.0099
1200.00,0.0099
1199.00,0.0099
1198.00,0.0098
1197.00,0.0098
1196.00,0.0097
1195.00,0.0097
1194.00,0.0098
1193.00,0.0098
1192.00,0.0098
1191.00,0.0097
1190.00,0.0097
1189.00,0.0096
1188.00,0.0096
1187.00,0.0095
1186.00,0.0095
1185.00,0.0094
1184.00,0.0094
1183.00,0.0094
1182.00,0.0095
1181.00,0.0096
1180.00,0.0098
1179.00,0.0101
1178.00,0.0105
1177.00,0.0111
1176.00,0.0119
1175.00,0.0131
1174.00,0.0146
1173.00,0.0167
1172.00,0.0191
1171.00,0.0217
1170.00,0.0242
1169.00,0.0261
1168.00,0.0272
1167.00,0.0272
1166.00,0.0265
1165.00,0.0252
1164.00,0.0239
1163.00,0.0226
1162.00,0.0214
1161.00,0.0205
1160.00,0.0196
1159.00,0.0190
1158.00,0.0185
1157.00,0.0182
1156.00,0.0181
1155.00,0.0181
1154.00,0.0181
1153.00,0.0179
1152.00,0.0176
1151.00,0.0172
1150.00,0.0165
1149.00,0.0158
1148.00,0.0150
1147.00,0.0143
1146.00,0.0136
1145.00,0.0131
1144.00,0.0126
1143.00,0.0121
1142.00,0.0117
1141.00,0.0114
1140.00,0.0110
1139.00,0.0108
1138.00,0.0106
1137.00,0.0103
1136.00,0.0102
1135.00,0.0101
1134.00,0.0100
1133.00,0.0101
1132.00,0.0101
1131.00,0.0101
1130.00,0.0101
1129.00,0.0102
1128.00,0.0104
1127.00,0.0107
1126.00,0.0109
1125.00,0.0112
1124.00,0.0114
1123.00,0.0116
1122.00,0.0118
1121.00,0.0119
1120.00,0.0120
1119.00,0.0122
1118.00,0.0125
1117.00,0.0127
1116.00,0.0129
1115.00,0.0131
1114.00,0.0134
1113.00,0.0136
1112.00,0.0138
1111.00,0.0140
1110.00,0.0142
1109.00,0.0146
1108.00,0.0150
1107.00,0.0156
1106.00,0.0161
1105.00,0.0166
1104.00,0.0170
1103.00,0.0172
1102.00,0.0170
1101.00,0.0166
1100.00,0.0159
1099.00,0.0152
1098.00,0.0145
1097.00,0.0140
1096.00,0.0135
1095.00,0.0130
1094.00,0.0126
1093.00,0.0121
1092.00,0.0116
1091.00,0.0112
1090.00,0.0110
1089.00,0.0108
1088.00,0.0108
1087.00,0.0109
1086.00,0.0110
1085.00,0.0110
1084.00,0.0109
1083.00,0.0107
1082.00,0.0105
1081.00,0.0102
1080.00,0.0100
1079.00,0.0099
1078.00,0.0097
1077.00,0.0095
1076.00,0.0093
1075.00,0.0092
1074.00,0.0091
1073.00,0.0091
1072.00,0.0091
1071.00,0.0091
1070.00,0.0091
1069.00,0.0091
1068.00,0.0091
1067.00,0.0091
1066.00,0.0091
1065.00,0.0092
1064.00,0.0093
1063.00,0.0094
1062.00,0.0094
1061.00,0.0096
1060.00,0.0098
1059.00,0.0099
1058.00,0.0101
1057.00,0.0102
1056.00,0.0103
1055.00,0.0105
1054.00,0.0107
1053.00,0.0111
1052.00,0.0115
1051.00,0.0120
1050.00,0.0126
1049.00,0.0131
1048.00,0.0137
1047.00,0.0142
1046.00,0.0146
1045.00,0.0149
1044.00,0.0150
1043.00,0.0150
1042.00,0.0149
1041.00,0.0147
1040.00,0.0146
1039.00,0.0146
1038.00,0.0146
1037.00,0.0147
1036.00,0.0147
1035.00,0.0147
1034.00,0.0145
1033.00,0.0143
1032.00,0.0140
1031.00,0.0139
1030.00,0.0139
1029.00,0.0139
1028.00,0.0141
1027.00,0.0142
1026.00,0.0142
1025.00,0.0143
1024.00,0.0145
1023.00,0.0147
1022.00,0.0149
1021.00,0.0150
1020.00,0.0151
1019.00,0.0152
1018.00,0.0153
1017.00,0.0153
1016.00,0.0153
1015.00,0.0152
1014.00,0.0152
1013.00,0.0152
1012.00,0.0152
1011.00,0.0152
1010.00,0.0152
1009.00,0.0152
1008.00,0.0154
1007.00,0.0157
1006.00,0.0162
1005.00,0.0170
1004.00,0.0181
1003.00,0.0199
1002.00,0.0224
1001.00,0.0255
1000.00,0.0288
999.00,0.0315
998.00,0.0327
997.00,0.0321
996.00,0.0297
995.00,0.0262
994.00,0.0227
993.00,0.0196
992.00,0.0172
991.00,0.0155
990.00,0.0144
989.00,0.0136
988.00,0.0131
987.00,0.0127
986.00,0.0125
985.00,0.0125
984.00,0.0128
983.00,0.0133
982.00,0.0141
981.00,0.0153
980.00,0.0171
979.00,0.0195
978.00,0.0225
977.00,0.0260
976.00,0.0297
975.00,0.0331
974.00,0.0354
973.00,0.0361
972.00,0.0345
971.00,0.0311
970.00,0.0266
969.00,0.0221
968.00,0.0182
967.00,0.0153
966.00,0.0133
965.00,0.0118
964.00,0.0107
963.00,0.0099
962.00,0.0093
961.00,0.0088
960.00,0.0084
959.00,0.0079
958.00,0.0074
957.00,0.0070
956.00,0.0068
955.00,0.0067
954.00,0.0065
953.00,0.0064
952.00,0.0063
951.00,0.0063
950.00,0.0064
949.00,0.0065
948.00,0.0066
947.00,0.0067
946.00,0.0069
945.00,0.0072
944.00,0.0075
943.00,0.0079
942.00,0.0083
941.00,0.0086
940.00,0.0086
939.00,0.0085
938.00,0.0082
937.00,0.0077
936.00,0.0073
935.00,0.0071
934.00,0.0070
933.00,0.0069
932.00,0.0069
931.00,0.0069
930.00,0.0070
929.00,0.0070
928.00,0.0070
927.00,0.0070
926.00,0.0071
925.00,0.0072
924.00,0.0073
923.00,0.0074
922.00,0.0074
921.00,0.0075
920.00,0.0074
919.00,0.0074
918.00,0.0074
917.00,0.0075
916.00,0.0077
915.00,0.0079
914.00,0.0080
913.00,0.0081
912.00,0.0081
911.00,0.0082
910.00,0.0084
909.00,0.0087
908.00,0.0090
907.00,0.0094
906.00,0.0101
905.00,0.0111
904.00,0.0125
903.00,0.0143
902.00,0.0163
901.00,0.0180
900.00,0.0191
899.00,0.0192
898.00,0.0184
897.00,0.0168
896.00,0.0150
895.00,0.0133
894.00,0.0119
893.00,0.0109
892.00,0.0102
891.00,0.0097
890.00,0.0093
889.00,0.0091
888.00,0.0089
887.00,0.0088
886.00,0.0088
885.00,0.0087
884.00,0.0086
883.00,0.0086
882.00,0.0087
881.00,0.0088
880.00,0.0090
879.00,0.0091
878.00,0.0092
877.00,0.0092
876.00,0.0092
875.00,0.0093
874.00,0.0094
873.00,0.0094
872.00,0.0093
871.00,0.0092
870.00,0.0090
869.00,0.0089
868.00,0.0088
867.00,0.0088
866.00,0.0089
865.00,0.0091
864.00,0.0092
863.00,0.0094
862.00,0.0095
861.00,0.0096
860.00,0.0096
859.00,0.0096
858.00,0.0097
857.00,0.0098
856.00,0.0100
855.00,0.0101
854.00,0.0103
853.00,0.0104
852.00,0.0106
851.00,0.0108
850.00,0.0112
849.00,0.0117
848.00,0.0124
847.00,0.0136
846.00,0.0153
845.00,0.0180
844.00,0.0219
843.00,0.0263
842.00,0.0299
841.00,0.0311
840.00,0.0293
839.00,0.0253
838.00,0.0207
837.00,0.0170
836.00,0.0145
835.00,0.0130
834.00,0.0122
833.00,0.0117
832.00,0.0113
831.00,0.0109
830.00,0.0106
829.00,0.0105
828.00,0.0105
827.00,0.0105
826.00,0.0105
825.00,0.0105
824.00,0.0104
823.00,0.0104
822.00,0.0104
821.00,0.0105
820.00,0.0107
819.00,0.0111
818.00,0.0116
817.00,0.0122
816.00,0.0131
815.00,0.0143
814.00,0.0157
813.00,0.0175
812.00,0.0194
811.00,0.0213
810.00,0.0228
809.00,0.0233
808.00,0.0230
807.00,0.0218
806.00,0.0201
805.00,0.0183
804.00,0.0166
803.00,0.0153
802.00,0.0142
801.00,0.0134
800.00,0.0127
799.00,0.0122
798.00,0.0119
797.00,0.0116
796.00,0.0114
795.00,0.0111
794.00,0.0108
793.00,0.0104
792.00,0.0102
791.00,0.0100
790.00,0.0098
789.00,0.0096
788.00,0.0092
787.00,0.0089
786.00,0.0086
785.00,0.0085
784.00,0.0084
783.00,0.0084
782.00,0.0084
781.00,0.0085
780.00,0.0085
779.00,0.0085
778.00,0.0085
777.00,0.0084
776.00,0.0084
775.00,0.0083
774.00,0.0082
773.00,0.0082
772.00,0.0082
771.00,0.0083
770.00,0.0084
769.00,0.0084
768.00,0.0084
767.00,0.0085
766.00,0.0086
765.00,0.0087
764.00,0.0087
763.00,0.0086
762.00,0.0084
761.00,0.0082
760.00,0.0081
759.00,0.0081
758.00,0.0083
757.00,0.0086
756.00,0.0089
755.00,0.0091
754.00,0.0092
753.00,0.0092
752.00,0.0093
751.00,0.0094
750.00,0.0096
749.00,0.0097
748.00,0.0099
747.00,0.0102
746.00,0.0104
745.00,0.0106
744.00,0.0109
743.00,0.0111
742.00,0.0114
741.00,0.0117
740.00,0.0120
739.00,0.0124
738.00,0.0128
737.00,0.0132
736.00,0.0137
735.00,0.0143
734.00,0.0148
733.00,0.0155
732.00,0.0163
731.00,0.0170
730.00,0.0176
729.00,0.0180
728.00,0.0182
727.00,0.0183
726.00,0.0186
725.00,0.0189
724.00,0.0194
723.00,0.0198
722.00,0.0202
721.00,0.0205
720.00,0.0203
719.00,0.0196
718.00,0.0185
717.00,0.0172
716.00,0.0161
715.00,0.0152
714.00,0.0145
713.00,0.0139
712.00,0.0135
711.00,0.0132
710.00,0.0131
709.00,0.0130
708.00,0.0129
707.00,0.0128
706.00,0.0127
705.00,0.0126
704.00,0.0125
703.00,0.0124
702.00,0.0124
701.00,0.0123
700.00,0.0122
699.00,0.0120
698.00,0.0118
697.00,0.0118
696.00,0.0118
695.00,0.0118
694.00,0.0118
693.00,0.0118
692.00,0.0118
691.00,0.0118
690.00,0.0119
689.00,0.0119
688.00,0.0118
687.00,0.0116
686.00,0.0113
685.00,0.0112
684.00,0.0113
683.00,0.0114
682.00,0.0116
681.00,0.0118
680.00,0.0119
679.00,0.0120
678.00,0.0122
677.00,0.0123
676.00,0.0124
675.00,0.0124
674.00,0.0124
673.00,0.0123
672.00,0.0124
671.00,0.0124
670.00,0.0124
669.00,0.0123
668.00,0.0123
667.00,0.0124
666.00,0.0124
665.00,0.0123
664.00,0.0121
663.00,0.0118
662.00,0.0117
661.00,0.0117
660.00,0.0117
659.00,0.0114
658.00,0.0110
657.00,0.0108
656.00,0.0108
655.00,0.0109
654.00,0.0109
653.00,0.0107
652.00,0.0105
651.00,0.0103
650.00,0.0104
649.00,0.0105
648.00,0.0106
647.00,0.0107
646.00,0.0107
645.00,0.0108
644.00,0.0110
643.00,0.0112
642.00,0.0113
641.00,0.0113
640.00,0.0112
639.00,0.0110
638.00,0.0108
637.00,0.0106
636.00,0.0103
635.00,0.0101
634.00,0.0100
633.00,0.0103
632.00,0.0107
631.00,0.0110
630.00,0.0110
629.00,0.0108
628.00,0.0106
627.00,0.0107
626.00,0.0108
625.00,0.0109
624.00,0.0110
623.00,0.0111
622.00,0.0113
621.00,0.0115
620.00,0.0114
619.00,0.0114
618.00,0.0113
617.00,0.0112
616.00,0.0111
615.00,0.0110
614.00,0.0109
613.00,0.0109
612.00,0.0109
611.00,0.0107
610.00,0.0107
609.00,0.0107
608.00,0.0107
607.00,0.0108
606.00,0.0108
605.00,0.0108
604.00,0.0109
603.00,0.0111
602.00,0.0114
601.00,0.0116
600.00,0.0115
599.00,0.0113
598.00,0.0110
597.00,0.0108
596.00,0.0108
595.00,0.0109
594.00,0.0110
593.00,0.0109
592.00,0.0106
591.00,0.0104
590.00,0.0103
589.00,0.0104
588.00,0.0104
587.00,0.0103
586.00,0.0101
585.00,0.0102
584.00,0.0107
583.00,0.0112
582.00,0.0117
581.00,0.0117
580.00,0.0113
579.00,0.0107
578.00,0.0102
577.00,0.0100
576.00,0.0099
575.00,0.0100
574.00,0.0101
573.00,0.0102
572.00,0.0103
571.00,0.0106
570.00,0.0109
569.00,0.0112
568.00,0.0114
567.00,0.0115
566.00,0.0114
565.00,0.0111
564.00,0.0107
563.00,0.0104
562.00,0.0102
561.00,0.0103
560.00,0.0105
559.00,0.0106
558.00,0.0107
557.00,0.0109
556.00,0.0110
555.00,0.0111
554.00,0.0112
553.00,0.0111
552.00,0.0110
551.00,0.0109
550.00,0.0107
549.00,0.0105
548.00,0.0103
547.00,0.0104
546.00,0.0106
545.00,0.0107
544.00,0.0107
543.00,0.0106
542.00,0.0107
541.00,0.0111
540.00,0.0116
539.00,0.0123
538.00,0.0129
537.00,0.0134
536.00,0.0137
535.00,0.0139
534.00,0.0144
533.00,0.0149
532.00,0.0151
531.00,0.0148
530.00,0.0142
529.00,0.0135
528.00,0.0128
527.00,0.0125
526.00,0.0123
525.00,0.0122
524.00,0.0120
523.00,0.0117
522.00,0.0114
521.00,0.0113
520.00,0.0115
519.00,0.0116
518.00,0.0115
517.00,0.0111
516.00,0.0106
515.00,0.0101
514.00,0.0098
513.00,0.0098
512.00,0.0100
511.00,0.0104
510.00,0.0107
509.00,0.0109
508.00,0.0110
507.00,0.0110
506.00,0.0110
505.00,0.0112
504.00,0.0114
503.00,0.0116
502.00,0.0117
501.00,0.0115
500.00,0.0111
499.00,0.0106
498.00,0.0103
497.00,0.0103
496.00,0.0105
495.00,0.0105
494.00,0.0102
493.00,0.0099
492.00,0.0098
491.00,0.0102
490.00,0.0107
489.00,0.0109
488.00,0.0108
487.00,0.0105
486.00,0.0104
485.00,0.0106
484.00,0.0112
483.00,0.0118
482.00,0.0120
481.00,0.0120
480.00,0.0119
479.00,0.0120
478.00,0.0123
477.00,0.0128
476.00,0.0133
475.00,0.0134
474.00,0.0131
473.00,0.0130
472.00,0.0139
471.00,0.0157
470.00,0.0176
469.00,0.0188
468.00,0.0191
467.00,0.0189
466.00,0.0186
465.00,0.0184
464.00,0.0183
463.00,0.0186
462.00,0.0195
461.00,0.0210
460.00,0.0227
459.00,0.0238
458.00,0.0233
457.00,0.0215
456.00,0.0198
455.00,0.0193
454.00,0.0198
453.00,0.0206
452.00,0.0212
451.00,0.0214
450.00,0.0210
