Created as New Dataset,Sample 091 By Administrator Date Thursday, September 04 2025
cm-1,A
4000.00,0.0010
3999.00,0.0010
3998.00,0.0010
3997.00,0.0010
3996.00,0.0010
3995.00,0.0010
3994.00,0.0010
3993.00,0.0010
3992.00,0.0010
3991.00,0.0010
3990.00,0.0010
3989.00,0.0009
3988.00,0.0009
3987.00,0.0009
3986.00,0.0009
3985.00,0.0009
3984.00,0.0009
3983.00,0.0009
3982.00,0.0008
3981.00,0.0008
3980.00,0.0008
3979.00,0.0008
3978.00,0.0008
3977.00,0.0008
3976.00,0.0008
3975.00,0.0008
3974.00,0.0008
3973.00,0.0008
3972.00,0.0008
3971.00,0.0008
3970.00,0.0008
3969.00,0.0009
3968.00,0.0009
3967.00,0.0009
3966.00,0.0008
3965.00,0.0008
3964.00,0.0008
3963.00,0.0008
3962.00,0.0008
3961.00,0.0008
3960.00,0.0008
3959.00,0.0008
3958.00,0.0008
3957.00,0.0008
3956.00,0.0007
3955.00,0.0007
3954.00,0.0007
3953.00,0.0007
3952.00,0.0007
3951.00,0.0007
3950.00,0.0007
3949.00,0.0007
3948.00,0.0008
3947.00,0.0008
3946.00,0.0008
3945.00,0.0008
3944.00,0.0008
3943.00,0.0008
3942.00,0.0007
3941.00,0.0007
3940.00,0.0007
3939.00,0.0007
3938.00,0.0007
3937.00,0.0008
3936.00,0.0007
3935.00,0.0007
3934.00,0.0007
3933.00,0.0007
3932.00,0.0007
3931.00,0.0008
3930.00,0.0008
3929.00,0.0008
3928.00,0.0008
3927.00,0.0008
3926.00,0.0008
3925.00,0.0008
3924.00,0.0008
3923.00,0.0007
3922.00,0.0007
3921.00,0.0007
3920.00,0.0007
3919.00,0.0008
3918.00,0.0008
3917.00,0.0008
3916.00,0.0008
3915.00,0.0008
3914.00,0.0008
3913.00,0.0008
3912.00,0.0009
3911.00,0.0009
3910.00,0.0009
3909.00,0.0009
3908.00,0.0008
3907.00,0.0008
3906.00,0.0008
3905.00,0.0008
3904.00,0.0007
3903.00,0.0007
3902.00,0.0006
3901.00,0.0006
3900.00,0.0006
3899.00,0.0006
3898.00,0.0006
3897.00,0.0006
3896.00,0.0006
3895.00,0.0006
3894.00,0.0006
3893.00,0.0006
3892.00,0.0006
3891.00,0.0006
3890.00,0.0006
3889.00,0.0006
3888.00,0.0007
3887.00,0.0007
3886.00,0.0007
3885.00,0.0007
3884.00,0.0007
3883.00,0.0006
3882.00,0.0006
3881.00,0.0006
3880.00,0.0006
3879.00,0.0006
3878.00,0.0006
3877.00,0.0006
3876.00,0.0007
3875.00,0.0007
3874.00,0.0007
3873.00,0.0007
3872.00,0.0006
3871.00,0.0006
3870.00,0.0006
3869.00,0.0006
3868.00,0.0006
3867.00,0.0006
3866.00,0.0006
3865.00,0.0007
3864.00,0.0008
3863.00,0.0008
3862.00,0.0008
3861.00,0.0008
3860.00,0.0007
3859.00,0.0007
3858.00,0.0007
3857.00,0.0007
3856.00,0.0006
3855.00,0.0005
3854.00,0.0004
3853.00,0.0004
3852.00,0.0004
3851.00,0.0004
3850.00,0.0005
3849.00,0.0006
3848.00,0.0007
3847.00,0.0007
3846.00,0.0007
3845.00,0.0007
3844.00,0.0007
3843.00,0.0007
3842.00,0.0006
3841.00,0.0006
3840.00,0.0006
3839.00,0.0005
3838.00,0.0005
3837.00,0.0005
3836.00,0.0005
3835.00,0.0005
3834.00,0.0006
3833.00,0.0006
3832.00,0.0006
3831.00,0.0006
3830.00,0.0006
3829.00,0.0007
3828.00,0.0007
3827.00,0.0007
3826.00,0.0007
3825.00,0.0006
3824.00,0.0006
3823.00,0.0006
3822.00,0.0006
3821.00,0.0007
3820.00,0.0006
3819.00,0.0006
3818.00,0.0007
3817.00,0.0007
3816.00,0.0007
3815.00,0.0007
3814.00,0.0007
3813.00,0.0007
3812.00,0.0007
3811.00,0.0007
3810.00,0.0007
3809.00,0.0006
3808.00,0.0006
3807.00,0.0006
3806.00,0.0006
3805.00,0.0006
3804.00,0.0006
3803.00,0.0006
3802.00,0.0006
3801.00,0.0006
3800.00,0.0006
3799.00,0.0006
3798.00,0.0006
3797.00,0.0007
3796.00,0.0007
3795.00,0.0006
3794.00,0.0006
3793.00,0.0006
3792.00,0.0007
3791.00,0.0007
3790.00,0.0007
3789.00,0.0007
3788.00,0.0008
3787.00,0.0007
3786.00,0.0007
3785.00,0.0007
3784.00,0.0007
3783.00,0.0007
3782.00,0.0007
3781.00,0.0008
3780.00,0.0008
3779.00,0.0008
3778.00,0.0007
3777.00,0.0007
3776.00,0.0007
3775.00,0.0007
3774.00,0.0007
3773.00,0.0007
3772.00,0.0007
3771.00,0.0007
3770.00,0.0007
3769.00,0.0006
3768.00,0.0006
3767.00,0.0007
3766.00,0.0007
3765.00,0.0007
3764.00,0.0007
3763.00,0.0007
3762.00,0.0007
3761.00,0.0007
3760.00,0.0007
3759.00,0.0007
3758.00,0.0007
3757.00,0.0006
3756.00,0.0006
3755.00,0.0006
3754.00,0.0005
3753.00,0.0005
3752.00,0.0004
3751.00,0.0004
3750.00,0.0004
3749.00,0.0004
3748.00,0.0004
3747.00,0.0004
3746.00,0.0005
3745.00,0.0005
3744.00,0.0005
3743.00,0.0004
3742.00,0.0004
3741.00,0.0004
3740.00,0.0004
3739.00,0.0004
3738.00,0.0004
3737.00,0.0004
3736.00,0.0004
3735.00,0.0004
3734.00,0.0004
3733.00,0.0005
3732.00,0.0005
3731.00,0.0005
3730.00,0.0005
3729.00,0.0005
3728.00,0.0005
3727.00,0.0005
3726.00,0.0005
3725.00,0.0006
3724.00,0.0006
3723.00,0.0006
3722.00,0.0006
3721.00,0.0007
3720.00,0.0007
3719.00,0.0007
3718.00,0.0007
3717.00,0.0006
3716.00,0.0006
3715.00,0.0005
3714.00,0.0005
3713.00,0.0005
3712.00,0.0005
3711.00,0.0004
3710.00,0.0004
3709.00,0.0004
3708.00,0.0005
3707.00,0.0005
3706.00,0.0006
3705.00,0.0006
3704.00,0.0006
3703.00,0.0007
3702.00,0.0007
3701.00,0.0007
3700.00,0.0006
3699.00,0.0006
3698.00,0.0006
3697.00,0.0006
3696.00,0.0006
3695.00,0.0006
3694.00,0.0006
3693.00,0.0006
3692.00,0.0005
3691.00,0.0005
3690.00,0.0005
3689.00,0.0005
3688.00,0.0005
3687.00,0.0005
3686.00,0.0005
3685.00,0.0006
3684.00,0.0006
3683.00,0.0006
3682.00,0.0006
3681.00,0.0007
3680.00,0.0007
3679.00,0.0008
3678.00,0.0008
3677.00,0.0009
3676.00,0.0009
3675.00,0.0008
3674.00,0.0008
3673.00,0.0007
3672.00,0.0007
3671.00,0.0008
3670.00,0.0008
3669.00,0.0008
3668.00,0.0008
3667.00,0.0008
3666.00,0.0008
3665.00,0.0008
3664.00,0.0008
3663.00,0.0008
3662.00,0.0008
3661.00,0.0008
3660.00,0.0008
3659.00,0.0009
3658.00,0.0009
3657.00,0.0009
3656.00,0.0009
3655.00,0.0009
3654.00,0.0009
3653.00,0.0008
3652.00,0.0008
3651.00,0.0008
3650.00,0.0008
3649.00,0.0008
3648.00,0.0008
3647.00,0.0008
3646.00,0.0007
3645.00,0.0007
3644.00,0.0007
3643.00,0.0008
3642.00,0.0008
3641.00,0.0009
3640.00,0.0009
3639.00,0.0009
3638.00,0.0009
3637.00,0.0008
3636.00,0.0007
3635.00,0.0007
3634.00,0.0007
3633.00,0.0006
3632.00,0.0006
3631.00,0.0005
3630.00,0.0005
3629.00,0.0005
3628.00,0.0006
3627.00,0.0006
3626.00,0.0006
3625.00,0.0006
3624.00,0.0006
3623.00,0.0006
3622.00,0.0006
3621.00,0.0007
3620.00,0.0007
3619.00,0.0007
3618.00,0.0007
3617.00,0.0007
3616.00,0.0007
3615.00,0.0007
3614.00,0.0007
3613.00,0.0007
3612.00,0.0007
3611.00,0.0007
3610.00,0.0007
3609.00,0.0007
3608.00,0.0007
3607.00,0.0007
3606.00,0.0007
3605.00,0.0007
3604.00,0.0007
3603.00,0.0008
3602.00,0.0008
3601.00,0.0008
3600.00,0.0008
3599.00,0.0008
3598.00,0.0008
3597.00,0.0007
3596.00,0.0007
3595.00,0.0007
3594.00,0.0008
3593.00,0.0009
3592.00,0.0009
3591.00,0.0009
3590.00,0.0009
3589.00,0.0009
3588.00,0.0009
3587.00,0.0009
3586.00,0.0009
3585.00,0.0010
3584.00,0.0010
3583.00,0.0010
3582.00,0.0010
3581.00,0.0010
3580.00,0.0010
3579.00,0.0010
3578.00,0.0011
3577.00,0.0011
3576.00,0.0012
3575.00,0.0012
3574.00,0.0012
3573.00,0.0012
3572.00,0.0012
3571.00,0.0012
3570.00,0.0012
3569.00,0.0012
3568.00,0.0012
3567.00,0.0012
3566.00,0.0012
3565.00,0.0012
3564.00,0.0012
3563.00,0.0012
3562.00,0.0012
3561.00,0.0013
3560.00,0.0013
3559.00,0.0014
3558.00,0.0015
3557.00,0.0015
3556.00,0.0015
3555.00,0.0015
3554.00,0.0014
3553.00,0.0014
3552.00,0.0014
3551.00,0.0014
3550.00,0.0014
3549.00,0.0014
3548.00,0.0014
3547.00,0.0015
3546.00,0.0015
3545.00,0.0015
3544.00,0.0015
3543.00,0.0015
3542.00,0.0016
3541.00,0.0016
3540.00,0.0016
3539.00,0.0016
3538.00,0.0017
3537.00,0.0017
3536.00,0.0017
3535.00,0.0018
3534.00,0.0018
3533.00,0.0017
3532.00,0.0017
3531.00,0.0017
3530.00,0.0017
3529.00,0.0018
3528.00,0.0017
3527.00,0.0017
3526.00,0.0017
3525.00,0.0017
3524.00,0.0017
3523.00,0.0017
3522.00,0.0018
3521.00,0.0018
3520.00,0.0018
3519.00,0.0018
3518.00,0.0019
3517.00,0.0019
3516.00,0.0019
3515.00,0.0019
3514.00,0.0020
3513.00,0.0020
3512.00,0.0021
3511.00,0.0021
3510.00,0.0021
3509.00,0.0021
3508.00,0.0021
3507.00,0.0021
3506.00,0.0021
3505.00,0.0021
3504.00,0.0022
3503.00,0.0022
3502.00,0.0022
3501.00,0.0022
3500.00,0.0022
3499.00,0.0022
3498.00,0.0022
3497.00,0.0022
3496.00,0.0022
3495.00,0.0022
3494.00,0.0023
3493.00,0.0023
3492.00,0.0023
3491.00,0.0023
3490.00,0.0023
3489.00,0.0023
3488.00,0.0024
3487.00,0.0024
3486.00,0.0024
3485.00,0.0024
3484.00,0.0025
3483.00,0.0025
3482.00,0.0026
3481.00,0.0026
3480.00,0.0026
3479.00,0.0026
3478.00,0.0025
3477.00,0.0025
3476.00,0.0025
3475.00,0.0025
3474.00,0.0026
3473.00,0.0026
3472.00,0.0026
3471.00,0.0027
3470.00,0.0027
3469.00,0.0027
3468.00,0.0027
3467.00,0.0027
3466.00,0.0027
3465.00,0.0027
3464.00,0.0027
3463.00,0.0028
3462.00,0.0028
3461.00,0.0029
3460.00,0.0029
3459.00,0.0029
3458.00,0.0029
3457.00,0.0029
3456.00,0.0029
3455.00,0.0029
3454.00,0.0029
3453.00,0.0029
3452.00,0.0029
3451.00,0.0030
3450.00,0.0030
3449.00,0.0030
3448.00,0.0030
3447.00,0.0030
3446.00,0.0030
3445.00,0.0031
3444.00,0.0031
3443.00,0.0031
3442.00,0.0032
3441.00,0.0032
3440.00,0.0033
3439.00,0.0033
3438.00,0.0033
3437.00,0.0032
3436.00,0.0032
3435.00,0.0032
3434.00,0.0032
3433.00,0.0032
3432.00,0.0033
3431.00,0.0033
3430.00,0.0033
3429.00,0.0034
3428.00,0.0034
3427.00,0.0034
3426.00,0.0034
3425.00,0.0034
3424.00,0.0034
3423.00,0.0034
3422.00,0.0035
3421.00,0.0035
3420.00,0.0036
3419.00,0.0036
3418.00,0.0036
3417.00,0.0036
3416.00,0.0035
3415.00,0.0035
3414.00,0.0035
3413.00,0.0036
3412.00,0.0036
3411.00,0.0036
3410.00,0.0037
3409.00,0.0037
3408.00,0.0037
3407.00,0.0037
3406.00,0.0037
3405.00,0.0037
3404.00,0.0037
3403.00,0.0037
3402.00,0.0037
3401.00,0.0037
3400.00,0.0037
3399.00,0.0037
3398.00,0.0037
3397.00,0.0037
3396.00,0.0037
3395.00,0.0038
3394.00,0.0038
3393.00,0.0038
3392.00,0.0038
3391.00,0.0038
3390.00,0.0038
3389.00,0.0038
3388.00,0.0037
3387.00,0.0037
3386.00,0.0037
3385.00,0.0038
3384.00,0.0038
3383.00,0.0039
3382.00,0.0039
3381.00,0.0039
3380.00,0.0039
3379.00,0.0039
3378.00,0.0038
3377.00,0.0038
3376.00,0.0039
3375.00,0.0039
3374.00,0.0039
3373.00,0.0040
3372.00,0.0040
3371.00,0.0039
3370.00,0.0040
3369.00,0.0040
3368.00,0.0040
3367.00,0.0040
3366.00,0.0040
3365.00,0.0041
3364.00,0.0041
3363.00,0.0041
3362.00,0.0041
3361.00,0.0040
3360.00,0.0040
3359.00,0.0040
3358.00,0.0041
3357.00,0.0041
3356.00,0.0041
3355.00,0.0041
3354.00,0.0041
3353.00,0.0041
3352.00,0.0041
3351.00,0.0041
3350.00,0.0041
3349.00,0.0042
3348.00,0.0042
3347.00,0.0042
3346.00,0.0041
3345.00,0.0042
3344.00,0.0042
3343.00,0.0043
3342.00,0.0043
3341.00,0.0043
3340.00,0.0042
3339.00,0.0042
3338.00,0.0041
3337.00,0.0041
3336.00,0.0041
3335.00,0.0041
3334.00,0.0041
3333.00,0.0041
3332.00,0.0041
3331.00,0.0041
3330.00,0.0041
3329.00,0.0041
3328.00,0.0041
3327.00,0.0041
3326.00,0.0041
3325.00,0.0041
3324.00,0.0041
3323.00,0.0041
3322.00,0.0041
3321.00,0.0042
3320.00,0.0042
3319.00,0.0042
3318.00,0.0042
3317.00,0.0042
3316.00,0.0042
3315.00,0.0042
3314.00,0.0042
3313.00,0.0042
3312.00,0.0042
3311.00,0.0042
3310.00,0.0042
3309.00,0.0043
3308.00,0.0043
3307.00,0.0044
3306.00,0.0044
3305.00,0.0044
3304.00,0.0044
3303.00,0.0045
3302.00,0.0045
3301.00,0.0045
3300.00,0.0045
3299.00,0.0044
3298.00,0.0044
3297.00,0.0043
3296.00,0.0042
3295.00,0.0042
3294.00,0.0042
3293.00,0.0042
3292.00,0.0042
3291.00,0.0041
3290.00,0.0041
3289.00,0.0041
3288.00,0.0041
3287.00,0.0041
3286.00,0.0041
3285.00,0.0040
3284.00,0.0040
3283.00,0.0039
3282.00,0.0039
3281.00,0.0039
3280.00,0.0039
3279.00,0.0039
3278.00,0.0038
3277.00,0.0038
3276.00,0.0038
3275.00,0.0038
3274.00,0.0038
3273.00,0.0038
3272.00,0.0038
3271.00,0.0038
3270.00,0.0038
3269.00,0.0038
3268.00,0.0038
3267.00,0.0038
3266.00,0.0037
3265.00,0.0037
3264.00,0.0037
3263.00,0.0036
3262.00,0.0037
3261.00,0.0037
3260.00,0.0037
3259.00,0.0037
3258.00,0.0037
3257.00,0.0036
3256.00,0.0036
3255.00,0.0036
3254.00,0.0035
3253.00,0.0035
3252.00,0.0036
3251.00,0.0036
3250.00,0.0036
3249.00,0.0036
3248.00,0.0036
3247.00,0.0036
3246.00,0.0036
3245.00,0.0035
3244.00,0.0035
3243.00,0.0035
3242.00,0.0034
3241.00,0.0034
3240.00,0.0035
3239.00,0.0035
3238.00,0.0035
3237.00,0.0035
3236.00,0.0035
3235.00,0.0035
3234.00,0.0035
3233.00,0.0034
3232.00,0.0034
3231.00,0.0034
3230.00,0.0034
3229.00,0.0035
3228.00,0.0035
3227.00,0.0036
3226.00,0.0036
3225.00,0.0036
3224.00,0.0036
3223.00,0.0036
3222.00,0.0036
3221.00,0.0037
3220.00,0.0037
3219.00,0.0038
3218.00,0.0038
3217.00,0.0038
3216.00,0.0038
3215.00,0.0038
3214.00,0.0038
3213.00,0.0038
3212.00,0.0039
3211.00,0.0039
3210.00,0.0039
3209.00,0.0039
3208.00,0.0039
3207.00,0.0039
3206.00,0.0039
3205.00,0.0040
3204.00,0.0040
3203.00,0.0040
3202.00,0.0040
3201.00,0.0040
3200.00,0.0040
3199.00,0.0040
3198.00,0.0040
3197.00,0.0040
3196.00,0.0040
3195.00,0.0040
3194.00,0.0040
3193.00,0.0041
3192.00,0.0041
3191.00,0.0041
3190.00,0.0041
3189.00,0.0041
3188.00,0.0041
3187.00,0.0041
3186.00,0.0040
3185.00,0.0040
3184.00,0.0040
3183.00,0.0039
3182.00,0.0039
3181.00,0.0038
3180.00,0.0038
3179.00,0.0038
3178.00,0.0038
3177.00,0.0038
3176.00,0.0037
3175.00,0.0037
3174.00,0.0037
3173.00,0.0037
3172.00,0.0036
3171.00,0.0036
3170.00,0.0036
3169.00,0.0036
3168.00,0.0036
3167.00,0.0035
3166.00,0.0036
3165.00,0.0036
3164.00,0.0036
3163.00,0.0036
3162.00,0.0036
3161.00,0.0036
3160.00,0.0035
3159.00,0.0035
3158.00,0.0035
3157.00,0.0036
3156.00,0.0036
3155.00,0.0036
3154.00,0.0036
3153.00,0.0036
3152.00,0.0036
3151.00,0.0036
3150.00,0.0036
3149.00,0.0036
3148.00,0.0035
3147.00,0.0035
3146.00,0.0035
3145.00,0.0035
3144.00,0.0035
3143.00,0.0035
3142.00,0.0035
3141.00,0.0035
3140.00,0.0035
3139.00,0.0035
3138.00,0.0035
3137.00,0.0034
3136.00,0.0034
3135.00,0.0033
3134.00,0.0033
3133.00,0.0033
3132.00,0.0032
3131.00,0.0032
3130.00,0.0032
3129.00,0.0032
3128.00,0.0033
3127.00,0.0033
3126.00,0.0032
3125.00,0.0032
3124.00,0.0031
3123.00,0.0031
3122.00,0.0031
3121.00,0.0031
3120.00,0.0031
3119.00,0.0031
3118.00,0.0031
3117.00,0.0031
3116.00,0.0031
3115.00,0.0030
3114.00,0.0030
3113.00,0.0030
3112.00,0.0030
3111.00,0.0030
3110.00,0.0030
3109.00,0.0030
3108.00,0.0030
3107.00,0.0030
3106.00,0.0030
3105.00,0.0030
3104.00,0.0030
3103.00,0.0030
3102.00,0.0030
3101.00,0.0029
3100.00,0.0029
3099.00,0.0029
3098.00,0.0029
3097.00,0.0029
3096.00,0.0029
3095.00,0.0029
3094.00,0.0029
3093.00,0.0029
3092.00,0.0028
3091.00,0.0029
3090.00,0.0029
3089.00,0.0029
3088.00,0.0029
3087.00,0.0029
3086.00,0.0029
3085.00,0.0029
3084.00,0.0029
3083.00,0.0028
3082.00,0.0028
3081.00,0.0028
3080.00,0.0028
3079.00,0.0028
3078.00,0.0029
3077.00,0.0029
3076.00,0.0029
3075.00,0.0029
3074.00,0.0029
3073.00,0.0029
3072.00,0.0029
3071.00,0.0029
3070.00,0.0029
3069.00,0.0029
3068.00,0.0029
3067.00,0.0029
3066.00,0.0029
3065.00,0.0030
3064.00,0.0030
3063.00,0.0030
3062.00,0.0031
3061.00,0.0031
3060.00,0.0031
3059.00,0.0030
3058.00,0.0030
3057.00,0.0030
3056.00,0.0030
3055.00,0.0031
3054.00,0.0031
3053.00,0.0032
3052.00,0.0032
3051.00,0.0032
3050.00,0.0033
3049.00,0.0033
3048.00,0.0033
3047.00,0.0033
3046.00,0.0032
3045.00,0.0032
3044.00,0.0032
3043.00,0.0033
3042.00,0.0033
3041.00,0.0034
3040.00,0.0034
3039.00,0.0035
3038.00,0.0035
3037.00,0.0036
3036.00,0.0036
3035.00,0.0036
3034.00,0.0036
3033.00,0.0036
3032.00,0.0036
3031.00,0.0037
3030.00,0.0038
3029.00,0.0039
3028.00,0.0040
3027.00,0.0040
3026.00,0.0041
3025.00,0.0042
3024.00,0.0043
3023.00,0.0043
3022.00,0.0044
3021.00,0.0044
3020.00,0.0045
3019.00,0.0045
3018.00,0.0046
3017.00,0.0047
3016.00,0.0049
3015.00,0.0050
3014.00,0.0052
3013.00,0.0054
3012.00,0.0056
3011.00,0.0057
3010.00,0.0059
3009.00,0.0061
3008.00,0.0064
3007.00,0.0066
3006.00,0.0069
3005.00,0.0072
3004.00,0.0075
3003.00,0.0078
3002.00,0.0081
3001.00,0.0084
3000.00,0.0088
2999.00,0.0091
2998.00,0.0095
2997.00,0.0099
2996.00,0.0103
2995.00,0.0107
2994.00,0.0112
2993.00,0.0117
2992.00,0.0123
2991.00,0.0129
2990.00,0.0136
2989.00,0.0144
2988.00,0.0152
2987.00,0.0162
2986.00,0.0173
2985.00,0.0187
2984.00,0.0202
2983.00,0.0219
2982.00,0.0236
2981.00,0.0254
2980.00,0.0273
2979.00,0.0294
2978.00,0.0317
2977.00,0.0345
2976.00,0.0378
2975.00,0.0416
2974.00,0.0461
2973.00,0.0512
2972.00,0.0569
2971.00,0.0634
2970.00,0.0706
2969.00,0.0785
2968.00,0.0872
2967.00,0.0967
2966.00,0.1068
2965.00,0.1172
2964.00,0.1276
2963.00,0.1373
2962.00,0.1458
2961.00,0.1526
2960.00,0.1575
2959.00,0.1609
2958.00,0.1635
2957.00,0.1659
2956.00,0.1691
2955.00,0.1734
2954.00,0.1788
2953.00,0.1847
2952.00,0.1899
2951.00,0.1932
2950.00,0.1932
2949.00,0.1895
2948.00,0.1818
2947.00,0.1711
2946.00,0.1585
2945.00,0.1456
2944.00,0.1335
2943.00,0.1232
2942.00,0.1153
2941.00,0.1098
2940.00,0.1067
2939.00,0.1057
2938.00,0.1067
2937.00,0.1094
2936.00,0.1137
2935.00,0.1194
2934.00,0.1265
2933.00,0.1348
2932.00,0.1442
2931.00,0.1545
2930.00,0.1655
2929.00,0.1768
2928.00,0.1881
2927.00,0.1992
2926.00,0.2100
2925.00,0.2203
2924.00,0.2304
2923.00,0.2404
2922.00,0.2502
2921.00,0.2594
2920.00,0.2675
2919.00,0.2733
2918.00,0.2759
2917.00,0.2746
2916.00,0.2694
2915.00,0.2611
2914.00,0.2508
2913.00,0.2400
2912.00,0.2296
2911.00,0.2204
2910.00,0.2124
2909.00,0.2055
2908.00,0.1993
2907.00,0.1933
2906.00,0.1872
2905.00,0.1809
2904.00,0.1744
2903.00,0.1676
2902.00,0.1609
2901.00,0.1542
2900.00,0.1477
2899.00,0.1415
2898.00,0.1356
2897.00,0.1302
2896.00,0.1254
2895.00,0.1211
2894.00,0.1175
2893.00,0.1146
2892.00,0.1122
2891.00,0.1104
2890.00,0.1091
2889.00,0.1083
2888.00,0.1077
2887.00,0.1075
2886.00,0.1076
2885.00,0.1080
2884.00,0.1088
2883.00,0.1099
2882.00,0.1113
2881.00,0.1129
2880.00,0.1144
2879.00,0.1155
2878.00,0.1161
2877.00,0.1159
2876.00,0.1153
2875.00,0.1145
2874.00,0.1140
2873.00,0.1142
2872.00,0.1152
2871.00,0.1168
2870.00,0.1189
2869.00,0.1208
2868.00,0.1219
2867.00,0.1216
2866.00,0.1193
2865.00,0.1148
2864.00,0.1085
2863.00,0.1014
2862.00,0.0943
2861.00,0.0882
2860.00,0.0834
2859.00,0.0801
2858.00,0.0784
2857.00,0.0779
2856.00,0.0783
2855.00,0.0796
2854.00,0.0814
2853.00,0.0835
2852.00,0.0857
2851.00,0.0877
2850.00,0.0893
2849.00,0.0906
2848.00,0.0918
2847.00,0.0933
2846.00,0.0957
2845.00,0.0991
2844.00,0.1036
2843.00,0.1088
2842.00,0.1143
2841.00,0.1192
2840.00,0.1229
2839.00,0.1243
2838.00,0.1230
2837.00,0.1186
2836.00,0.1115
2835.00,0.1022
2834.00,0.0917
2833.00,0.0810
2832.00,0.0710
2831.00,0.0623
2830.00,0.0549
2829.00,0.0488
2828.00,0.0438
2827.00,0.0397
2826.00,0.0364
2825.00,0.0337
2824.00,0.0314
2823.00,0.0294
2822.00,0.0277
2821.00,0.0262
2820.00,0.0250
2819.00,0.0238
2818.00,0.0228
2817.00,0.0219
2816.00,0.0212
2815.00,0.0205
2814.00,0.0198
2813.00,0.0192
2812.00,0.0187
2811.00,0.0182
2810.00,0.0176
2809.00,0.0171
2808.00,0.0165
2807.00,0.0159
2806.00,0.0153
2805.00,0.0147
2804.00,0.0140
2803.00,0.0134
2802.00,0.0129
2801.00,0.0125
2800.00,0.0121
2799.00,0.0118
2798.00,0.0115
2797.00,0.0113
2796.00,0.0110
2795.00,0.0108
2794.00,0.0106
2793.00,0.0103
2792.00,0.0100
2791.00,0.0096
2790.00,0.0093
2789.00,0.0090
2788.00,0.0087
2787.00,0.0084
2786.00,0.0081
2785.00,0.0078
2784.00,0.0076
2783.00,0.0074
2782.00,0.0072
2781.00,0.0070
2780.00,0.0068
2779.00,0.0066
2778.00,0.0065
2777.00,0.0063
2776.00,0.0062
2775.00,0.0060
2774.00,0.0059
2773.00,0.0058
2772.00,0.0057
2771.00,0.0057
2770.00,0.0057
2769.00,0.0056
2768.00,0.0056
2767.00,0.0055
2766.00,0.0055
2765.00,0.0055
2764.00,0.0055
2763.00,0.0054
2762.00,0.0054
2761.00,0.0054
2760.00,0.0054
2759.00,0.0054
2758.00,0.0053
2757.00,0.0053
2756.00,0.0053
2755.00,0.0052
2754.00,0.0052
2753.00,0.0052
2752.00,0.0052
2751.00,0.0051
2750.00,0.0051
2749.00,0.0051
2748.00,0.0051
2747.00,0.0052
2746.00,0.0053
2745.00,0.0053
2744.00,0.0054
2743.00,0.0054
2742.00,0.0055
2741.00,0.0056
2740.00,0.0057
2739.00,0.0058
2738.00,0.0060
2737.00,0.0061
2736.00,0.0062
2735.00,0.0064
2734.00,0.0065
2733.00,0.0066
2732.00,0.0068
2731.00,0.0069
2730.00,0.0071
2729.00,0.0073
2728.00,0.0076
2727.00,0.0079
2726.00,0.0082
2725.00,0.0085
2724.00,0.0086
2723.00,0.0087
2722.00,0.0086
2721.00,0.0084
2720.00,0.0082
2719.00,0.0078
2718.00,0.0075
2717.00,0.0072
2716.00,0.0069
2715.00,0.0066
2714.00,0.0064
2713.00,0.0062
2712.00,0.0060
2711.00,0.0058
2710.00,0.0056
2709.00,0.0055
2708.00,0.0053
2707.00,0.0053
2706.00,0.0052
2705.00,0.0051
2704.00,0.0050
2703.00,0.0049
2702.00,0.0048
2701.00,0.0047
2700.00,0.0047
2699.00,0.0046
2698.00,0.0045
2697.00,0.0045
2696.00,0.0045
2695.00,0.0045
2694.00,0.0045
2693.00,0.0045
2692.00,0.0045
2691.00,0.0045
2690.00,0.0045
2689.00,0.0045
2688.00,0.0045
2687.00,0.0045
2686.00,0.0045
2685.00,0.0045
2684.00,0.0045
2683.00,0.0045
2682.00,0.0045
2681.00,0.0045
2680.00,0.0045
2679.00,0.0045
2678.00,0.0046
2677.00,0.0046
2676.00,0.0046
2675.00,0.0045
2674.00,0.0045
2673.00,0.0045
2672.00,0.0045
2671.00,0.0045
2670.00,0.0045
2669.00,0.0045
2668.00,0.0045
2667.00,0.0045
2666.00,0.0046
2665.00,0.0046
2664.00,0.0047
2663.00,0.0048
2662.00,0.0048
2661.00,0.0048
2660.00,0.0048
2659.00,0.0048
2658.00,0.0048
2657.00,0.0048
2656.00,0.0048
2655.00,0.0047
2654.00,0.0047
2653.00,0.0047
2652.00,0.0046
2651.00,0.0045
2650.00,0.0045
2649.00,0.0044
2648.00,0.0044
2647.00,0.0043
2646.00,0.0043
2645.00,0.0042
2644.00,0.0042
2643.00,0.0042
2642.00,0.0042
2641.00,0.0041
2640.00,0.0041
2639.00,0.0040
2638.00,0.0040
2637.00,0.0039
2636.00,0.0039
2635.00,0.0039
2634.00,0.0039
2633.00,0.0039
2632.00,0.0039
2631.00,0.0039
2630.00,0.0039
2629.00,0.0039
2628.00,0.0039
2627.00,0.0040
2626.00,0.0040
2625.00,0.0040
2624.00,0.0040
2623.00,0.0040
2622.00,0.0040
2621.00,0.0040
2620.00,0.0040
2619.00,0.0040
2618.00,0.0040
2617.00,0.0040
2616.00,0.0040
2615.00,0.0040
2614.00,0.0039
2613.00,0.0038
2612.00,0.0038
2611.00,0.0037
2610.00,0.0036
2609.00,0.0036
2608.00,0.0035
2607.00,0.0034
2606.00,0.0033
2605.00,0.0032
2604.00,0.0032
2603.00,0.0031
2602.00,0.0031
2601.00,0.0031
2600.00,0.0031
2599.00,0.0031
2598.00,0.0031
2597.00,0.0031
2596.00,0.0031
2595.00,0.0032
2594.00,0.0032
2593.00,0.0032
2592.00,0.0033
2591.00,0.0033
2590.00,0.0034
2589.00,0.0034
2588.00,0.0035
2587.00,0.0036
2586.00,0.0036
2585.00,0.0037
2584.00,0.0038
2583.00,0.0038
2582.00,0.0039
2581.00,0.0038
2580.00,0.0037
2579.00,0.0036
2578.00,0.0035
2577.00,0.0034
2576.00,0.0033
2575.00,0.0032
2574.00,0.0031
2573.00,0.0030
2572.00,0.0029
2571.00,0.0028
2570.00,0.0027
2569.00,0.0027
2568.00,0.0027
2567.00,0.0026
2566.00,0.0026
2565.00,0.0025
2564.00,0.0025
2563.00,0.0025
2562.00,0.0024
2561.00,0.0024
2560.00,0.0023
2559.00,0.0023
2558.00,0.0023
2557.00,0.0023
2556.00,0.0023
2555.00,0.0023
2554.00,0.0023
2553.00,0.0022
2552.00,0.0021
2551.00,0.0020
2550.00,0.0019
2549.00,0.0019
2548.00,0.0018
2547.00,0.0018
2546.00,0.0018
2545.00,0.0018
2544.00,0.0018
2543.00,0.0018
2542.00,0.0018
2541.00,0.0019
2540.00,0.0019
2539.00,0.0018
2538.00,0.0018
2537.00,0.0017
2536.00,0.0017
2535.00,0.0016
2534.00,0.0016
2533.00,0.0016
2532.00,0.0016
2531.00,0.0015
2530.00,0.0015
2529.00,0.0014
2528.00,0.0014
2527.00,0.0015
2526.00,0.0015
2525.00,0.0015
2524.00,0.0015
2523.00,0.0014
2522.00,0.0014
2521.00,0.0013
2520.00,0.0013
2519.00,0.0012
2518.00,0.0012
2517.00,0.0011
2516.00,0.0011
2515.00,0.0010
2514.00,0.0010
2513.00,0.0011
2512.00,0.0011
2511.00,0.0011
2510.00,0.0011
2509.00,0.0011
2508.00,0.0010
2507.00,0.0010
2506.00,0.0011
2505.00,0.0011
2504.00,0.0010
2503.00,0.0010
2502.00,0.0010
2501.00,0.0011
2500.00,0.0011
2499.00,0.0011
2498.00,0.0011
2497.00,0.0011
2496.00,0.0012
2495.00,0.0012
2494.00,0.0012
2493.00,0.0012
2492.00,0.0012
2491.00,0.0011
2490.00,0.0011
2489.00,0.0011
2488.00,0.0011
2487.00,0.0011
2486.00,0.0011
2485.00,0.0011
2484.00,0.0011
2483.00,0.0011
2482.00,0.0012
2481.00,0.0011
2480.00,0.0010
2479.00,0.0009
2478.00,0.0009
2477.00,0.0009
2476.00,0.0009
2475.00,0.0009
2474.00,0.0008
2473.00,0.0008
2472.00,0.0008
2471.00,0.0009
2470.00,0.0009
2469.00,0.0009
2468.00,0.0009
2467.00,0.0009
2466.00,0.0009
2465.00,0.0009
2464.00,0.0009
2463.00,0.0010
2462.00,0.0010
2461.00,0.0010
2460.00,0.0010
2459.00,0.0009
2458.00,0.0009
2457.00,0.0009
2456.00,0.0009
2455.00,0.0010
2454.00,0.0010
2453.00,0.0011
2452.00,0.0011
2451.00,0.0011
2450.00,0.0011
2449.00,0.0010
2448.00,0.0010
2447.00,0.0010
2446.00,0.0010
2445.00,0.0010
2444.00,0.0009
2443.00,0.0009
2442.00,0.0009
2441.00,0.0009
2440.00,0.0010
2439.00,0.0010
2438.00,0.0011
2437.00,0.0012
2436.00,0.0012
2435.00,0.0012
2434.00,0.0012
2433.00,0.0012
2432.00,0.0012
2431.00,0.0012
2430.00,0.0011
2429.00,0.0011
2428.00,0.0010
2427.00,0.0010
2426.00,0.0011
2425.00,0.0011
2424.00,0.0012
2423.00,0.0012
2422.00,0.0013
2421.00,0.0012
2420.00,0.0012
2419.00,0.0012
2418.00,0.0011
2417.00,0.0011
2416.00,0.0011
2415.00,0.0010
2414.00,0.0010
2413.00,0.0009
2412.00,0.0009
2411.00,0.0009
2410.00,0.0009
2409.00,0.0009
2408.00,0.0009
2407.00,0.0008
2406.00,0.0008
2405.00,0.0007
2404.00,0.0007
2403.00,0.0007
2402.00,0.0007
2401.00,0.0007
2400.00,0.0007
2399.00,0.0007
2398.00,0.0008
2397.00,0.0008
2396.00,0.0009
2395.00,0.0009
2394.00,0.0008
2393.00,0.0008
2392.00,0.0008
2391.00,0.0007
2390.00,0.0007
2389.00,0.0007
2388.00,0.0007
2387.00,0.0007
2386.00,0.0007
2385.00,0.0006
2384.00,0.0006
2383.00,0.0005
2382.00,0.0005
2381.00,0.0005
2380.00,0.0004
2379.00,0.0005
2378.00,0.0005
2377.00,0.0005
2376.00,0.0006
2375.00,0.0006
2374.00,0.0007
2373.00,0.0007
2372.00,0.0007
2371.00,0.0007
2370.00,0.0006
2369.00,0.0006
2368.00,0.0006
2367.00,0.0006
2366.00,0.0007
2365.00,0.0007
2364.00,0.0007
2363.00,0.0007
2362.00,0.0007
2361.00,0.0008
2360.00,0.0008
2359.00,0.0008
2358.00,0.0008
2357.00,0.0008
2356.00,0.0008
2355.00,0.0008
2354.00,0.0009
2353.00,0.0009
2352.00,0.0008
2351.00,0.0008
2350.00,0.0008
2349.00,0.0009
2348.00,0.0009
2347.00,0.0009
2346.00,0.0009
2345.00,0.0010
2344.00,0.0011
2343.00,0.0011
2342.00,0.0012
2341.00,0.0011
2340.00,0.0011
2339.00,0.0011
2338.00,0.0011
2337.00,0.0011
2336.00,0.0011
2335.00,0.0011
2334.00,0.0010
2333.00,0.0010
2332.00,0.0010
2331.00,0.0010
2330.00,0.0009
2329.00,0.0010
2328.00,0.0011
2327.00,0.0015
2326.00,0.0019
2325.00,0.0022
2324.00,0.0023
2323.00,0.0022
2322.00,0.0020
2321.00,0.0019
2320.00,0.0018
2319.00,0.0017
2318.00,0.0016
2317.00,0.0016
2316.00,0.0015
2315.00,0.0014
2314.00,0.0013
2313.00,0.0012
2312.00,0.0011
2311.00,0.0010
2310.00,0.0009
2309.00,0.0008
2308.00,0.0009
2307.00,0.0009
2306.00,0.0010
2305.00,0.0011
2304.00,0.0011
2303.00,0.0011
2302.00,0.0011
2301.00,0.0011
2300.00,0.0012
2299.00,0.0012
2298.00,0.0012
2297.00,0.0013
2296.00,0.0013
2295.00,0.0014
2294.00,0.0014
2293.00,0.0016
2292.00,0.0017
2291.00,0.0017
2290.00,0.0017
2289.00,0.0018
2288.00,0.0018
2287.00,0.0018
2286.00,0.0017
2285.00,0.0017
2284.00,0.0016
2283.00,0.0016
2282.00,0.0015
2281.00,0.0015
2280.00,0.0015
2279.00,0.0016
2278.00,0.0016
2277.00,0.0016
2276.00,0.0015
2275.00,0.0014
2274.00,0.0014
2273.00,0.0013
2272.00,0.0013
2271.00,0.0013
2270.00,0.0012
2269.00,0.0012
2268.00,0.0011
2267.00,0.0011
2266.00,0.0012
2265.00,0.0012
2264.00,0.0012
2263.00,0.0012
2262.00,0.0012
2261.00,0.0012
2260.00,0.0012
2259.00,0.0013
2258.00,0.0013
2257.00,0.0013
2256.00,0.0013
2255.00,0.0012
2254.00,0.0010
2253.00,0.0010
2252.00,0.0009
2251.00,0.0009
2250.00,0.0010
2249.00,0.0010
2248.00,0.0010
2247.00,0.0009
2246.00,0.0009
2245.00,0.0008
2244.00,0.0008
2243.00,0.0007
2242.00,0.0007
2241.00,0.0007
2240.00,0.0008
2239.00,0.0008
2238.00,0.0009
2237.00,0.0010
2236.00,0.0011
2235.00,0.0012
2234.00,0.0011
2233.00,0.0010
2232.00,0.0009
2231.00,0.0007
2230.00,0.0007
2229.00,0.0007
2228.00,0.0008
2227.00,0.0008
2226.00,0.0007
2225.00,0.0006
2224.00,0.0006
2223.00,0.0006
2222.00,0.0006
2221.00,0.0005
2220.00,0.0003
2219.00,0.0001
2218.00,0.0001
2217.00,0.0002
2216.00,0.0004
2215.00,0.0005
2214.00,0.0005
2213.00,0.0006
2212.00,0.0006
2211.00,0.0007
2210.00,0.0008
2209.00,0.0008
2208.00,0.0007
2207.00,0.0005
2206.00,0.0003
2205.00,0.0002
2204.00,0.0001
2203.00,0.0001
2202.00,0.0002
2201.00,0.0003
2200.00,0.0005
2199.00,0.0007
2198.00,0.0007
2197.00,0.0006
2196.00,0.0005
2195.00,0.0004
2194.00,0.0005
2193.00,0.0007
2192.00,0.0010
2191.00,0.0010
2190.00,0.0010
2189.00,0.0011
2188.00,0.0013
2187.00,0.0014
2186.00,0.0014
2185.00,0.0012
2184.00,0.0009
2183.00,0.0005
2182.00,0.0002
2181.00,0.0001
2180.00,0.0002
2179.00,0.0004
2178.00,0.0005
2177.00,0.0004
2176.00,0.0003
2175.00,0.0001
2174.00,0.0001
2173.00,0.0002
2172.00,0.0004
2171.00,0.0004
2170.00,0.0005
2169.00,0.0007
2168.00,0.0010
2167.00,0.0012
2166.00,0.0013
2165.00,0.0013
2164.00,0.0013
2163.00,0.0014
2162.00,0.0015
2161.00,0.0012
2160.00,0.0004
2159.00,-0.0009
2158.00,-0.0022
2157.00,-0.0029
2156.00,-0.0030
2155.00,-0.0027
2154.00,-0.0024
2153.00,-0.0021
2152.00,-0.0021
2151.00,-0.0021
2150.00,-0.0022
2149.00,-0.0021
2148.00,-0.0021
2147.00,-0.0021
2146.00,-0.0020
2145.00,-0.0018
2144.00,-0.0015
2143.00,-0.0012
2142.00,-0.0011
2141.00,-0.0010
2140.00,-0.0010
2139.00,-0.0009
2138.00,-0.0008
2137.00,-0.0010
2136.00,-0.0012
2135.00,-0.0015
2134.00,-0.0017
2133.00,-0.0018
2132.00,-0.0016
2131.00,-0.0015
2130.00,-0.0014
2129.00,-0.0013
2128.00,-0.0012
2127.00,-0.0011
2126.00,-0.0009
2125.00,-0.0008
2124.00,-0.0007
2123.00,-0.0006
2122.00,-0.0006
2121.00,-0.0005
2120.00,-0.0003
2119.00,-0.0001
2118.00,0.0001
2117.00,0.0003
2116.00,0.0005
2115.00,0.0005
2114.00,0.0005
2113.00,0.0004
2112.00,0.0004
2111.00,0.0003
2110.00,0.0003
2109.00,0.0003
2108.00,0.0002
2107.00,0.0002
2106.00,0.0002
2105.00,0.0002
2104.00,0.0002
2103.00,0.0003
2102.00,0.0003
2101.00,0.0004
2100.00,0.0004
2099.00,0.0003
2098.00,0.0002
2097.00,0.0001
2096.00,-0.0001
2095.00,-0.0003
2094.00,-0.0005
2093.00,-0.0006
2092.00,-0.0007
2091.00,-0.0006
2090.00,-0.0005
2089.00,-0.0003
2088.00,-0.0001
2087.00,-0.0000
2086.00,0.0000
2085.00,0.0000
2084.00,0.0000
2083.00,-0.0000
2082.00,-0.0001
2081.00,-0.0001
2080.00,0.0000
2079.00,0.0001
2078.00,0.0001
2077.00,0.0002
2076.00,0.0002
2075.00,0.0003
2074.00,0.0003
2073.00,0.0002
2072.00,0.0001
2071.00,0.0001
2070.00,0.0001
2069.00,0.0002
2068.00,0.0003
2067.00,0.0004
2066.00,0.0003
2065.00,0.0001
2064.00,-0.0001
2063.00,-0.0002
2062.00,-0.0002
2061.00,-0.0002
2060.00,-0.0001
2059.00,0.0000
2058.00,0.0001
2057.00,0.0001
2056.00,-0.0000
2055.00,-0.0003
2054.00,-0.0003
2053.00,0.0000
2052.00,0.0005
2051.00,0.0009
2050.00,0.0009
2049.00,0.0006
2048.00,0.0003
2047.00,0.0001
2046.00,-0.0001
2045.00,-0.0002
2044.00,-0.0001
2043.00,-0.0001
2042.00,0.0000
2041.00,0.0001
2040.00,0.0002
2039.00,0.0003
2038.00,0.0004
2037.00,0.0005
2036.00,0.0005
2035.00,0.0002
2034.00,-0.0003
2033.00,-0.0008
2032.00,-0.0011
2031.00,-0.0011
2030.00,-0.0009
2029.00,-0.0009
2028.00,-0.0011
2027.00,-0.0015
2026.00,-0.0017
2025.00,-0.0017
2024.00,-0.0015
2023.00,-0.0012
2022.00,-0.0010
2021.00,-0.0008
2020.00,-0.0009
2019.00,-0.0011
2018.00,-0.0013
2017.00,-0.0013
2016.00,-0.0011
2015.00,-0.0011
2014.00,-0.0011
2013.00,-0.0011
2012.00,-0.0009
2011.00,-0.0008
2010.00,-0.0008
2009.00,-0.0013
2008.00,-0.0019
2007.00,-0.0023
2006.00,-0.0025
2005.00,-0.0023
2004.00,-0.0020
2003.00,-0.0019
2002.00,-0.0018
2001.00,-0.0016
2000.00,-0.0014
1999.00,-0.0013
1998.00,-0.0011
1997.00,-0.0010
1996.00,-0.0009
1995.00,-0.0008
1994.00,-0.0008
1993.00,-0.0009
1992.00,-0.0008
1991.00,-0.0008
1990.00,-0.0007
1989.00,-0.0007
1988.00,-0.0006
1987.00,-0.0006
1986.00,-0.0006
1985.00,-0.0004
1984.00,-0.0000
1983.00,0.0004
1982.00,0.0009
1981.00,0.0012
1980.00,0.0013
1979.00,0.0009
1978.00,0.0002
1977.00,-0.0006
1976.00,-0.0009
1975.00,-0.0009
1974.00,-0.0008
1973.00,-0.0009
1972.00,-0.0012
1971.00,-0.0016
1970.00,-0.0019
1969.00,-0.0021
1968.00,-0.0022
1967.00,-0.0021
1966.00,-0.0020
1965.00,-0.0018
1964.00,-0.0017
1963.00,-0.0015
1962.00,-0.0015
1961.00,-0.0015
1960.00,-0.0015
1959.00,-0.0016
1958.00,-0.0016
1957.00,-0.0016
1956.00,-0.0016
1955.00,-0.0017
1954.00,-0.0018
1953.00,-0.0018
1952.00,-0.0016
1951.00,-0.0014
1950.00,-0.0013
1949.00,-0.0013
1948.00,-0.0014
1947.00,-0.0015
1946.00,-0.0015
1945.00,-0.0015
1944.00,-0.0014
1943.00,-0.0014
1942.00,-0.0014
1941.00,-0.0013
1940.00,-0.0012
1939.00,-0.0010
1938.00,-0.0009
1937.00,-0.0008
1936.00,-0.0009
1935.00,-0.0010
1934.00,-0.0012
1933.00,-0.0012
1932.00,-0.0011
1931.00,-0.0009
1930.00,-0.0007
1929.00,-0.0007
1928.00,-0.0007
1927.00,-0.0008
1926.00,-0.0009
1925.00,-0.0009
1924.00,-0.0008
1923.00,-0.0008
1922.00,-0.0007
1921.00,-0.0006
1920.00,-0.0006
1919.00,-0.0005
1918.00,-0.0005
1917.00,-0.0005
1916.00,-0.0006
1915.00,-0.0006
1914.00,-0.0006
1913.00,-0.0006
1912.00,-0.0005
1911.00,-0.0004
1910.00,-0.0004
1909.00,-0.0004
1908.00,-0.0003
1907.00,-0.0003
1906.00,-0.0002
1905.00,-0.0002
1904.00,-0.0001
1903.00,-0.0002
1902.00,-0.0002
1901.00,-0.0001
1900.00,-0.0001
1899.00,-0.0001
1898.00,-0.0001
1897.00,-0.0001
1896.00,-0.0001
1895.00,-0.0001
1894.00,-0.0002
1893.00,-0.0002
1892.00,-0.0002
1891.00,-0.0002
1890.00,-0.0002
1889.00,-0.0002
1888.00,-0.0001
1887.00,-0.0001
1886.00,-0.0001
1885.00,-0.0000
1884.00,0.0000
1883.00,0.0000
1882.00,-0.0000
1881.00,-0.0001
1880.00,-0.0001
1879.00,-0.0001
1878.00,-0.0001
1877.00,-0.0000
1876.00,0.0001
1875.00,0.0001
1874.00,0.0000
1873.00,-0.0000
1872.00,-0.0001
1871.00,-0.0002
1870.00,-0.0003
1869.00,-0.0003
1868.00,-0.0002
1867.00,-0.0001
1866.00,-0.0000
1865.00,-0.0000
1864.00,-0.0001
1863.00,-0.0001
1862.00,-0.0002
1861.00,-0.0002
1860.00,-0.0003
1859.00,-0.0003
1858.00,-0.0002
1857.00,-0.0002
1856.00,-0.0001
1855.00,-0.0000
1854.00,-0.0000
1853.00,-0.0000
1852.00,-0.0000
1851.00,-0.0001
1850.00,-0.0001
1849.00,-0.0001
1848.00,-0.0001
1847.00,0.0000
1846.00,0.0001
1845.00,0.0002
1844.00,0.0003
1843.00,0.0002
1842.00,0.0001
1841.00,0.0001
1840.00,0.0001
1839.00,0.0002
1838.00,0.0002
1837.00,0.0003
1836.00,0.0003
1835.00,0.0003
1834.00,0.0003
1833.00,0.0002
1832.00,0.0002
1831.00,0.0002
1830.00,0.0002
1829.00,0.0002
1828.00,0.0003
1827.00,0.0004
1826.00,0.0004
1825.00,0.0004
1824.00,0.0003
1823.00,0.0003
1822.00,0.0002
1821.00,0.0002
1820.00,0.0001
1819.00,0.0001
1818.00,0.0000
1817.00,0.0000
1816.00,0.0000
1815.00,0.0001
1814.00,0.0001
1813.00,0.0001
1812.00,0.0002
1811.00,0.0002
1810.00,0.0003
1809.00,0.0003
1808.00,0.0003
1807.00,0.0003
1806.00,0.0003
1805.00,0.0004
1804.00,0.0005
1803.00,0.0005
1802.00,0.0005
1801.00,0.0004
1800.00,0.0004
1799.00,0.0004
1798.00,0.0005
1797.00,0.0005
1796.00,0.0006
1795.00,0.0006
1794.00,0.0006
1793.00,0.0006
1792.00,0.0006
1791.00,0.0006
1790.00,0.0006
1789.00,0.0006
1788.00,0.0006
1787.00,0.0006
1786.00,0.0007
1785.00,0.0007
1784.00,0.0007
1783.00,0.0008
1782.00,0.0008
1781.00,0.0009
1780.00,0.0009
1779.00,0.0009
1778.00,0.0010
1777.00,0.0009
1776.00,0.0009
1775.00,0.0009
1774.00,0.0009
1773.00,0.0009
1772.00,0.0010
1771.00,0.0010
1770.00,0.0010
1769.00,0.0010
1768.00,0.0010
1767.00,0.0010
1766.00,0.0010
1765.00,0.0010
1764.00,0.0010
1763.00,0.0010
1762.00,0.0010
1761.00,0.0011
1760.00,0.0011
1759.00,0.0012
1758.00,0.0012
1757.00,0.0013
1756.00,0.0014
1755.00,0.0014
1754.00,0.0015
1753.00,0.0015
1752.00,0.0015
1751.00,0.0015
1750.00,0.0015
1749.00,0.0016
1748.00,0.0016
1747.00,0.0017
1746.00,0.0018
1745.00,0.0019
1744.00,0.0020
1743.00,0.0020
1742.00,0.0020
1741.00,0.0021
1740.00,0.0022
1739.00,0.0022
1738.00,0.0023
1737.00,0.0024
1736.00,0.0024
1735.00,0.0024
1734.00,0.0024
1733.00,0.0024
1732.00,0.0024
1731.00,0.0024
1730.00,0.0025
1729.00,0.0025
1728.00,0.0025
1727.00,0.0024
1726.00,0.0024
1725.00,0.0024
1724.00,0.0024
1723.00,0.0025
1722.00,0.0025
1721.00,0.0025
1720.00,0.0026
1719.00,0.0026
1718.00,0.0025
1717.00,0.0024
1716.00,0.0024
1715.00,0.0023
1714.00,0.0023
1713.00,0.0023
1712.00,0.0023
1711.00,0.0023
1710.00,0.0023
1709.00,0.0022
1708.00,0.0022
1707.00,0.0022
1706.00,0.0023
1705.00,0.0023
1704.00,0.0024
1703.00,0.0025
1702.00,0.0025
1701.00,0.0025
1700.00,0.0026
1699.00,0.0026
1698.00,0.0026
1697.00,0.0026
1696.00,0.0027
1695.00,0.0027
1694.00,0.0028
1693.00,0.0028
1692.00,0.0029
1691.00,0.0029
1690.00,0.0029
1689.00,0.0030
1688.00,0.0031
1687.00,0.0031
1686.00,0.0030
1685.00,0.0030
1684.00,0.0031
1683.00,0.0032
1682.00,0.0034
1681.00,0.0034
1680.00,0.0035
1679.00,0.0035
1678.00,0.0036
1677.00,0.0036
1676.00,0.0037
1675.00,0.0037
1674.00,0.0038
1673.00,0.0039
1672.00,0.0040
1671.00,0.0041
1670.00,0.0042
1669.00,0.0043
1668.00,0.0043
1667.00,0.0043
1666.00,0.0042
1665.00,0.0042
1664.00,0.0042
1663.00,0.0042
1662.00,0.0043
1661.00,0.0044
1660.00,0.0045
1659.00,0.0046
1658.00,0.0047
1657.00,0.0048
1656.00,0.0049
1655.00,0.0050
1654.00,0.0050
1653.00,0.0051
1652.00,0.0052
1651.00,0.0052
1650.00,0.0052
1649.00,0.0052
1648.00,0.0054
1647.00,0.0055
1646.00,0.0056
1645.00,0.0057
1644.00,0.0057
1643.00,0.0057
1642.00,0.0058
1641.00,0.0059
1640.00,0.0061
1639.00,0.0062
1638.00,0.0064
1637.00,0.0065
1636.00,0.0065
1635.00,0.0064
1634.00,0.0063
1633.00,0.0062
1632.00,0.0061
1631.00,0.0060
1630.00,0.0059
1629.00,0.0059
1628.00,0.0058
1627.00,0.0058
1626.00,0.0058
1625.00,0.0058
1624.00,0.0058
1623.00,0.0058
1622.00,0.0057
1621.00,0.0057
1620.00,0.0057
1619.00,0.0056
1618.00,0.0055
1617.00,0.0054
1616.00,0.0054
1615.00,0.0055
1614.00,0.0055
1613.00,0.0055
1612.00,0.0055
1611.00,0.0055
1610.00,0.0056
1609.00,0.0056
1608.00,0.0057
1607.00,0.0057
1606.00,0.0057
1605.00,0.0057
1604.00,0.0057
1603.00,0.0057
1602.00,0.0057
1601.00,0.0057
1600.00,0.0056
1599.00,0.0056
1598.00,0.0056
1597.00,0.0055
1596.00,0.0055
1595.00,0.0056
1594.00,0.0056
1593.00,0.0056
1592.00,0.0057
1591.00,0.0058
1590.00,0.0058
1589.00,0.0059
1588.00,0.0060
1587.00,0.0061
1586.00,0.0063
1585.00,0.0065
1584.00,0.0067
1583.00,0.0070
1582.00,0.0072
1581.00,0.0075
1580.00,0.0078
1579.00,0.0080
1578.00,0.0081
1577.00,0.0081
1576.00,0.0081
1575.00,0.0080
1574.00,0.0079
1573.00,0.0078
1572.00,0.0077
1571.00,0.0076
1570.00,0.0073
1569.00,0.0072
1568.00,0.0071
1567.00,0.0070
1566.00,0.0070
1565.00,0.0069
1564.00,0.0068
1563.00,0.0068
1562.00,0.0068
1561.00,0.0068
1560.00,0.0067
1559.00,0.0066
1558.00,0.0066
1557.00,0.0067
1556.00,0.0068
1555.00,0.0068
1554.00,0.0068
1553.00,0.0069
1552.00,0.0070
1551.00,0.0072
1550.00,0.0073
1549.00,0.0075
1548.00,0.0077
1547.00,0.0078
1546.00,0.0080
1545.00,0.0083
1544.00,0.0086
1543.00,0.0089
1542.00,0.0091
1541.00,0.0091
1540.00,0.0090
1539.00,0.0086
1538.00,0.0082
1537.00,0.0079
1536.00,0.0077
1535.00,0.0075
1534.00,0.0071
1533.00,0.0068
1532.00,0.0065
1531.00,0.0063
1530.00,0.0061
1529.00,0.0060
1528.00,0.0059
1527.00,0.0059
1526.00,0.0058
1525.00,0.0058
1524.00,0.0058
1523.00,0.0058
1522.00,0.0058
1521.00,0.0058
1520.00,0.0058
1519.00,0.0058
1518.00,0.0058
1517.00,0.0058
1516.00,0.0059
1515.00,0.0059
1514.00,0.0059
1513.00,0.0059
1512.00,0.0060
1511.00,0.0061
1510.00,0.0061
1509.00,0.0062
1508.00,0.0063
1507.00,0.0063
1506.00,0.0064
1505.00,0.0064
1504.00,0.0065
1503.00,0.0067
1502.00,0.0068
1501.00,0.0071
1500.00,0.0073
1499.00,0.0075
1498.00,0.0077
1497.00,0.0080
1496.00,0.0084
1495.00,0.0087
1494.00,0.0089
1493.00,0.0092
1492.00,0.0097
1491.00,0.0101
1490.00,0.0105
1489.00,0.0110
1488.00,0.0115
1487.00,0.0120
1486.00,0.0125
1485.00,0.0132
1484.00,0.0140
1483.00,0.0148
1482.00,0.0158
1481.00,0.0171
1480.00,0.0184
1479.00,0.0197
1478.00,0.0213
1477.00,0.0234
1476.00,0.0261
1475.00,0.0291
1474.00,0.0332
1473.00,0.0387
1472.00,0.0451
1471.00,0.0513
1470.00,0.0573
1469.00,0.0638
1468.00,0.0708
1467.00,0.0785
1466.00,0.0871
1465.00,0.0963
1464.00,0.1043
1463.00,0.1099
1462.00,0.1134
1461.00,0.1159
1460.00,0.1176
1459.00,0.1188
1458.00,0.1197
1457.00,0.1204
1456.00,0.1203
1455.00,0.1195
1454.00,0.1184
1453.00,0.1169
1452.00,0.1145
1451.00,0.1110
1450.00,0.1062
1449.00,0.0994
1448.00,0.0906
1447.00,0.0811
1446.00,0.0724
1445.00,0.0648
1444.00,0.0583
1443.00,0.0528
1442.00,0.0487
1441.00,0.0458
1440.00,0.0440
1439.00,0.0432
1438.00,0.0431
1437.00,0.0431
1436.00,0.0421
1435.00,0.0397
1434.00,0.0363
1433.00,0.0322
1432.00,0.0278
1431.00,0.0240
1430.00,0.0210
1429.00,0.0188
1428.00,0.0171
1427.00,0.0161
1426.00,0.0155
1425.00,0.0149
1424.00,0.0144
1423.00,0.0142
1422.00,0.0140
1421.00,0.0138
1420.00,0.0135
1419.00,0.0132
1418.00,0.0129
1417.00,0.0126
1416.00,0.0123
1415.00,0.0121
1414.00,0.0121
1413.00,0.0120
1412.00,0.0118
1411.00,0.0118
1410.00,0.0118
1409.00,0.0117
1408.00,0.0116
1407.00,0.0116
1406.00,0.0117
1405.00,0.0118
1404.00,0.0118
1403.00,0.0119
1402.00,0.0120
1401.00,0.0121
1400.00,0.0122
1399.00,0.0125
1398.00,0.0128
1397.00,0.0130
1396.00,0.0133
1395.00,0.0137
1394.00,0.0143
1393.00,0.0148
1392.00,0.0153
1391.00,0.0160
1390.00,0.0170
1389.00,0.0184
1388.00,0.0204
1387.00,0.0234
1386.00,0.0276
1385.00,0.0330
1384.00,0.0405
1383.00,0.0511
1382.00,0.0652
1381.00,0.0833
1380.00,0.1056
1379.00,0.1310
1378.00,0.1558
1377.00,0.1742
1376.00,0.1805
1375.00,0.1718
1374.00,0.1505
1373.00,0.1247
1372.00,0.1010
1371.00,0.0814
1370.00,0.0657
1369.00,0.0539
1368.00,0.0456
1367.00,0.0405
1366.00,0.0377
1365.00,0.0365
1364.00,0.0367
1363.00,0.0379
1362.00,0.0398
1361.00,0.0419
1360.00,0.0435
1359.00,0.0440
1358.00,0.0430
1357.00,0.0405
1356.00,0.0371
1355.00,0.0333
1354.00,0.0296
1353.00,0.0264
1352.00,0.0239
1351.00,0.0218
1350.00,0.0200
1349.00,0.0186
1348.00,0.0174
1347.00,0.0164
1346.00,0.0155
1345.00,0.0148
1344.00,0.0141
1343.00,0.0136
1342.00,0.0132
1341.00,0.0129
1340.00,0.0126
1339.00,0.0124
1338.00,0.0123
1337.00,0.0123
1336.00,0.0123
1335.00,0.0124
1334.00,0.0126
1333.00,0.0129
1332.00,0.0133
1331.00,0.0136
1330.00,0.0137
1329.00,0.0136
1328.00,0.0134
1327.00,0.0130
1326.00,0.0125
1325.00,0.0119
1324.00,0.0114
1323.00,0.0109
1322.00,0.0105
1321.00,0.0102
1320.00,0.0100
1319.00,0.0098
1318.00,0.0096
1317.00,0.0095
1316.00,0.0094
1315.00,0.0093
1314.00,0.0093
1313.00,0.0094
1312.00,0.0095
1311.00,0.0097
1310.00,0.0101
1309.00,0.0107
1308.00,0.0117
1307.00,0.0130
1306.00,0.0142
1305.00,0.0150
1304.00,0.0152
1303.00,0.0148
1302.00,0.0141
1301.00,0.0134
1300.00,0.0130
1299.00,0.0128
1298.00,0.0128
1297.00,0.0128
1296.00,0.0128
1295.00,0.0126
1294.00,0.0122
1293.00,0.0118
1292.00,0.0113
1291.00,0.0108
1290.00,0.0104
1289.00,0.0100
1288.00,0.0097
1287.00,0.0095
1286.00,0.0093
1285.00,0.0092
1284.00,0.0090
1283.00,0.0089
1282.00,0.0088
1281.00,0.0086
1280.00,0.0085
1279.00,0.0085
1278.00,0.0085
1277.00,0.0085
1276.00,0.0085
1275.00,0.0085
1274.00,0.0086
1273.00,0.0087
1272.00,0.0089
1271.00,0.0091
1270.00,0.0093
1269.00,0.0096
1268.00,0.0099
1267.00,0.0103
1266.00,0.0108
1265.00,0.0112
1264.00,0.0116
1263.00,0.0120
1262.00,0.0123
1261.00,0.0127
1260.00,0.0132
1259.00,0.0138
1258.00,0.0145
1257.00,0.0150
1256.00,0.0152
1255.00,0.0150
1254.00,0.0143
1253.00,0.0133
1252.00,0.0123
1251.00,0.0114
1250.00,0.0108
1249.00,0.0103
1248.00,0.0100
1247.00,0.0097
1246.00,0.0094
1245.00,0.0092
1244.00,0.0091
1243.00,0.0089
1242.00,0.0088
1241.00,0.0087
1240.00,0.0086
1239.00,0.0086
1238.00,0.0086
1237.00,0.0086
1236.00,0.0085
1235.00,0.0085
1234.00,0.0085
1233.00,0.0085
1232.00,0.0086
1231.00,0.0087
1230.00,0.0087
1229.00,0.0088
1228.00,0.0089
1227.00,0.0090
1226.00,0.0092
1225.00,0.0095
1224.00,0.0098
1223.00,0.0101
1222.00,0.0105
1221.00,0.0107
1220.00,0.0109
1219.00,0.0109
1218.00,0.0108
1217.00,0.0106
1216.00,0.0103
1215.00,0.0101
1214.00,0.0098
1213.00,0.0095
1212.00,0.0093
1211.00,0.0091
1210.00,0.0089
1209.00,0.0087
1208.00,0.0086
1207.00,0.0085
1206.00,0.0085
1205.00,0.0085
1204.00,0.0085
1203.00,0.0084
1202.00,0.0084
1201.00,0.0084
1200.00,0.0084
1199.00,0.0084
1198.00,0.0085
1197.00,0.0085
1196.00,0.0085
1195.00,0.0086
1194.00,0.0087
1193.00,0.0087
1192.00,0.0087
1191.00,0.0086
1190.00,0.0086
1189.00,0.0086
1188.00,0.0086
1187.00,0.0087
1186.00,0.0088
1185.00,0.0089
1184.00,0.0091
1183.00,0.0093
1182.00,0.0096
1181.00,0.0099
1180.00,0.0104
1179.00,0.0109
1178.00,0.0117
1177.00,0.0126
1176.00,0.0138
1175.00,0.0153
1174.00,0.0174
1173.00,0.0201
1172.00,0.0233
1171.00,0.0270
1170.00,0.0306
1169.00,0.0335
1168.00,0.0354
1167.00,0.0357
1166.00,0.0348
1165.00,0.0330
1164.00,0.0309
1163.00,0.0289
1162.00,0.0271
1161.00,0.0256
1160.00,0.0243
1159.00,0.0234
1158.00,0.0227
1157.00,0.0222
1156.00,0.0219
1155.00,0.0217
1154.00,0.0216
1153.00,0.0214
1152.00,0.0209
1151.00,0.0202
1150.00,0.0193
1149.00,0.0183
1148.00,0.0173
1147.00,0.0164
1146.00,0.0155
1145.00,0.0146
1144.00,0.0139
1143.00,0.0132
1142.00,0.0126
1141.00,0.0120
1140.00,0.0115
1139.00,0.0110
1138.00,0.0106
1137.00,0.0103
1136.00,0.0100
1135.00,0.0097
1134.00,0.0096
1133.00,0.0095
1132.00,0.0095
1131.00,0.0096
1130.00,0.0097
1129.00,0.0098
1128.00,0.0099
1127.00,0.0099
1126.00,0.0099
1125.00,0.0099
1124.00,0.0098
1123.00,0.0097
1122.00,0.0097
1121.00,0.0098
1120.00,0.0099
1119.00,0.0100
1118.00,0.0102
1117.00,0.0104
1116.00,0.0105
1115.00,0.0107
1114.00,0.0108
1113.00,0.0110
1112.00,0.0112
1111.00,0.0115
1110.00,0.0118
1109.00,0.0122
1108.00,0.0127
1107.00,0.0132
1106.00,0.0137
1105.00,0.0143
1104.00,0.0148
1103.00,0.0151
1102.00,0.0151
1101.00,0.0147
1100.00,0.0142
1099.00,0.0135
1098.00,0.0130
1097.00,0.0125
1096.00,0.0122
1095.00,0.0119
1094.00,0.0117
1093.00,0.0115
1092.00,0.0113
1091.00,0.0111
1090.00,0.0110
1089.00,0.0108
1088.00,0.0107
1087.00,0.0106
1086.00,0.0106
1085.00,0.0106
1084.00,0.0107
1083.00,0.0107
1082.00,0.0107
1081.00,0.0107
1080.00,0.0107
1079.00,0.0106
1078.00,0.0105
1077.00,0.0104
1076.00,0.0103
1075.00,0.0103
1074.00,0.0103
1073.00,0.0102
1072.00,0.0102
1071.00,0.0102
1070.00,0.0101
1069.00,0.0100
1068.00,0.0099
1067.00,0.0098
1066.00,0.0098
1065.00,0.0099
1064.00,0.0100
1063.00,0.0101
1062.00,0.0101
1061.00,0.0101
1060.00,0.0102
1059.00,0.0103
1058.00,0.0105
1057.00,0.0107
1056.00,0.0108
1055.00,0.0110
1054.00,0.0111
1053.00,0.0113
1052.00,0.0115
1051.00,0.0119
1050.00,0.0124
1049.00,0.0129
1048.00,0.0134
1047.00,0.0138
1046.00,0.0141
1045.00,0.0143
1044.00,0.0143
1043.00,0.0141
1042.00,0.0140
1041.00,0.0138
1040.00,0.0137
1039.00,0.0136
1038.00,0.0136
1037.00,0.0136
1036.00,0.0136
1035.00,0.0135
1034.00,0.0133
1033.00,0.0131
1032.00,0.0130
1031.00,0.0129
1030.00,0.0129
1029.00,0.0128
1028.00,0.0128
1027.00,0.0129
1026.00,0.0130
1025.00,0.0132
1024.00,0.0134
1023.00,0.0137
1022.00,0.0140
1021.00,0.0142
1020.00,0.0144
1019.00,0.0146
1018.00,0.0147
1017.00,0.0147
1016.00,0.0146
1015.00,0.0146
1014.00,0.0146
1013.00,0.0146
1012.00,0.0147
1011.00,0.0147
1010.00,0.0149
1009.00,0.0150
1008.00,0.0153
1007.00,0.0157
1006.00,0.0164
1005.00,0.0174
1004.00,0.0190
1003.00,0.0214
1002.00,0.0248
1001.00,0.0290
1000.00,0.0335
999.00,0.0374
998.00,0.0394
997.00,0.0388
996.00,0.0358
995.00,0.0313
994.00,0.0267
993.00,0.0226
992.00,0.0194
991.00,0.0171
990.00,0.0154
989.00,0.0142
988.00,0.0135
987.00,0.0132
986.00,0.0131
985.00,0.0133
984.00,0.0136
983.00,0.0143
982.00,0.0154
981.00,0.0170
980.00,0.0193
979.00,0.0223
978.00,0.0261
977.00,0.0307
976.00,0.0357
975.00,0.0406
974.00,0.0444
973.00,0.0460
972.00,0.0447
971.00,0.0407
970.00,0.0352
969.00,0.0295
968.00,0.0245
967.00,0.0207
966.00,0.0179
965.00,0.0159
964.00,0.0145
963.00,0.0134
962.00,0.0126
961.00,0.0120
960.00,0.0114
959.00,0.0110
958.00,0.0107
957.00,0.0105
956.00,0.0102
955.00,0.0100
954.00,0.0098
953.00,0.0096
952.00,0.0095
951.00,0.0094
950.00,0.0093
949.00,0.0093
948.00,0.0092
947.00,0.0092
946.00,0.0093
945.00,0.0095
944.00,0.0098
943.00,0.0102
942.00,0.0105
941.00,0.0107
940.00,0.0106
939.00,0.0103
938.00,0.0098
937.00,0.0092
936.00,0.0086
935.00,0.0081
934.00,0.0077
933.00,0.0074
932.00,0.0072
931.00,0.0071
930.00,0.0071
929.00,0.0071
928.00,0.0069
927.00,0.0068
926.00,0.0067
925.00,0.0067
924.00,0.0066
923.00,0.0066
922.00,0.0067
921.00,0.0067
920.00,0.0067
919.00,0.0066
918.00,0.0066
917.00,0.0067
916.00,0.0068
915.00,0.0069
914.00,0.0070
913.00,0.0071
912.00,0.0071
911.00,0.0072
910.00,0.0073
909.00,0.0075
908.00,0.0078
907.00,0.0082
906.00,0.0088
905.00,0.0097
904.00,0.0110
903.00,0.0126
902.00,0.0144
901.00,0.0160
900.00,0.0171
899.00,0.0173
898.00,0.0166
897.00,0.0152
896.00,0.0133
895.00,0.0116
894.00,0.0102
893.00,0.0092
892.00,0.0087
891.00,0.0083
890.00,0.0081
889.00,0.0079
888.00,0.0077
887.00,0.0075
886.00,0.0074
885.00,0.0073
884.00,0.0073
883.00,0.0073
882.00,0.0073
881.00,0.0073
880.00,0.0074
879.00,0.0075
878.00,0.0075
877.00,0.0076
876.00,0.0076
875.00,0.0077
874.00,0.0077
873.00,0.0078
872.00,0.0079
871.00,0.0080
870.00,0.0080
869.00,0.0080
868.00,0.0080
867.00,0.0081
866.00,0.0082
865.00,0.0083
864.00,0.0084
863.00,0.0084
862.00,0.0085
861.00,0.0084
860.00,0.0085
859.00,0.0086
858.00,0.0089
857.00,0.0092
856.00,0.0096
855.00,0.0098
854.00,0.0099
853.00,0.0101
852.00,0.0103
851.00,0.0106
850.00,0.0112
849.00,0.0119
848.00,0.0128
847.00,0.0142
846.00,0.0163
845.00,0.0197
844.00,0.0248
843.00,0.0310
842.00,0.0363
841.00,0.0385
840.00,0.0363
839.00,0.0309
838.00,0.0248
837.00,0.0198
836.00,0.0164
835.00,0.0144
834.00,0.0131
833.00,0.0124
832.00,0.0120
831.00,0.0117
830.00,0.0115
829.00,0.0114
828.00,0.0113
827.00,0.0112
826.00,0.0111
825.00,0.0110
824.00,0.0111
823.00,0.0113
822.00,0.0114
821.00,0.0115
820.00,0.0116
819.00,0.0118
818.00,0.0121
817.00,0.0126
816.00,0.0134
815.00,0.0145
814.00,0.0160
813.00,0.0178
812.00,0.0197
811.00,0.0214
810.00,0.0225
809.00,0.0230
808.00,0.0226
807.00,0.0215
806.00,0.0199
805.00,0.0183
804.00,0.0167
803.00,0.0153
802.00,0.0143
801.00,0.0136
800.00,0.0131
799.00,0.0126
798.00,0.0121
797.00,0.0117
796.00,0.0114
795.00,0.0111
794.00,0.0108
793.00,0.0105
792.00,0.0101
791.00,0.0096
790.00,0.0092
789.00,0.0088
788.00,0.0085
787.00,0.0082
786.00,0.0078
785.00,0.0076
784.00,0.0074
783.00,0.0073
782.00,0.0071
781.00,0.0070
780.00,0.0068
779.00,0.0068
778.00,0.0069
777.00,0.0070
776.00,0.0070
775.00,0.0069
774.00,0.0069
773.00,0.0070
772.00,0.0071
771.00,0.0071
770.00,0.0071
769.00,0.0070
768.00,0.0069
767.00,0.0068
766.00,0.0067
765.00,0.0066
764.00,0.0067
763.00,0.0068
762.00,0.0070
761.00,0.0071
760.00,0.0071
759.00,0.0071
758.00,0.0071
757.00,0.0072
756.00,0.0073
755.00,0.0074
754.00,0.0074
753.00,0.0075
752.00,0.0078
751.00,0.0082
750.00,0.0083
749.00,0.0083
748.00,0.0083
747.00,0.0083
746.00,0.0085
745.00,0.0087
744.00,0.0089
743.00,0.0092
742.00,0.0095
741.00,0.0098
740.00,0.0101
739.00,0.0104
738.00,0.0107
737.00,0.0110
736.00,0.0114
735.00,0.0119
734.00,0.0125
733.00,0.0130
732.00,0.0136
731.00,0.0142
730.00,0.0147
729.00,0.0151
728.00,0.0154
727.00,0.0156
726.00,0.0158
725.00,0.0162
724.00,0.0166
723.00,0.0171
722.00,0.0176
721.00,0.0178
720.00,0.0176
719.00,0.0170
718.00,0.0160
717.00,0.0149
716.00,0.0139
715.00,0.0130
714.00,0.0124
713.00,0.0119
712.00,0.0116
711.00,0.0113
710.00,0.0111
709.00,0.0109
708.00,0.0107
707.00,0.0105
706.00,0.0105
705.00,0.0105
704.00,0.0105
703.00,0.0103
702.00,0.0101
701.00,0.0099
700.00,0.0097
699.00,0.0097
698.00,0.0097
697.00,0.0097
696.00,0.0098
695.00,0.0099
694.00,0.0101
693.00,0.0102
692.00,0.0103
691.00,0.0103
690.00,0.0103
689.00,0.0103
688.00,0.0104
687.00,0.0104
686.00,0.0104
685.00,0.0104
684.00,0.0103
683.00,0.0103
682.00,0.0102
681.00,0.0102
680.00,0.0100
679.00,0.0098
678.00,0.0098
677.00,0.0099
676.00,0.0100
675.00,0.0102
674.00,0.0103
673.00,0.0104
672.00,0.0105
671.00,0.0106
670.00,0.0108
669.00,0.0110
668.00,0.0112
667.00,0.0112
666.00,0.0108
665.00,0.0104
664.00,0.0101
663.00,0.0098
662.00,0.0096
661.00,0.0093
660.00,0.0092
659.00,0.0090
658.00,0.0090
657.00,0.0090
656.00,0.0090
655.00,0.0090
654.00,0.0090
653.00,0.0091
652.00,0.0090
651.00,0.0088
650.00,0.0086
649.00,0.0085
648.00,0.0085
647.00,0.0085
646.00,0.0086
645.00,0.0087
644.00,0.0088
643.00,0.0089
642.00,0.0089
641.00,0.0088
640.00,0.0087
639.00,0.0087
638.00,0.0088
637.00,0.0089
636.00,0.0088
635.00,0.0087
634.00,0.0087
633.00,0.0088
632.00,0.0090
631.00,0.0091
630.00,0.0092
629.00,0.0092
628.00,0.0091
627.00,0.0090
626.00,0.0090
625.00,0.0091
624.00,0.0091
623.00,0.0091
622.00,0.0090
621.00,0.0088
620.00,0.0086
619.00,0.0087
618.00,0.0088
617.00,0.0089
616.00,0.0090
615.00,0.0089
614.00,0.0088
613.00,0.0088
612.00,0.0088
611.00,0.0087
610.00,0.0087
609.00,0.0085
608.00,0.0084
607.00,0.0084
606.00,0.0083
605.00,0.0082
604.00,0.0081
603.00,0.0083
602.00,0.0086
601.00,0.0087
600.00,0.0087
599.00,0.0086
598.00,0.0085
597.00,0.0086
596.00,0.0088
595.00,0.0089
594.00,0.0090
593.00,0.0090
592.00,0.0089
591.00,0.0087
590.00,0.0085
589.00,0.0083
588.00,0.0082
587.00,0.0081
586.00,0.0081
585.00,0.0081
584.00,0.0082
583.00,0.0083
582.00,0.0085
581.00,0.0086
580.00,0.0088
579.00,0.0090
578.00,0.0092
577.00,0.0093
576.00,0.0092
575.00,0.0090
574.00,0.0089
573.00,0.0088
572.00,0.0090
571.00,0.0093
570.00,0.0095
569.00,0.0096
568.00,0.0095
567.00,0.0094
566.00,0.0094
565.00,0.0094
564.00,0.0092
563.00,0.0089
562.00,0.0086
561.00,0.0084
560.00,0.0085
559.00,0.0086
558.00,0.0090
557.00,0.0094
556.00,0.0097
555.00,0.0098
554.00,0.0098
553.00,0.0098
552.00,0.0098
551.00,0.0099
550.00,0.0100
549.00,0.0099
548.00,0.0096
547.00,0.0093
546.00,0.0091
545.00,0.0092
544.00,0.0096
543.00,0.0100
542.00,0.0104
541.00,0.0106
540.00,0.0106
539.00,0.0106
538.00,0.0108
537.00,0.0109
536.00,0.0110
535.00,0.0111
534.00,0.0113
533.00,0.0118
532.00,0.0122
531.00,0.0122
530.00,0.0117
529.00,0.0111
528.00,0.0107
527.00,0.0108
526.00,0.0109
525.00,0.0107
524.00,0.0103
523.00,0.0099
522.00,0.0097
521.00,0.0096
520.00,0.0096
519.00,0.0096
518.00,0.0095
517.00,0.0094
516.00,0.0093
515.00,0.0092
514.00,0.0090
513.00,0.0091
512.00,0.0093
511.00,0.0095
510.00,0.0096
509.00,0.0095
508.00,0.0092
507.00,0.0091
506.00,0.0096
505.00,0.0104
504.00,0.0109
503.00,0.0108
502.00,0.0106
501.00,0.0105
500.00,0.0106
499.00,0.0106
498.00,0.0101
497.00,0.0095
496.00,0.0090
495.00,0.0089
494.00,0.0092
493.00,0.0095
492.00,0.0096
491.00,0.0093
490.00,0.0092
489.00,0.0094
488.00,0.0100
487.00,0.0101
486.00,0.0096
485.00,0.0087
484.00,0.0081
483.00,0.0082
482.00,0.0088
481.00,0.0095
480.00,0.0102
479.00,0.0110
478.00,0.0120
477.00,0.0129
476.00,0.0136
475.00,0.0140
474.00,0.0142
473.00,0.0146
472.00,0.0151
471.00,0.0153
470.00,0.0150
469.00,0.0146
468.00,0.0148
467.00,0.0159
466.00,0.0174
465.00,0.0183
464.00,0.0185
463.00,0.0185
462.00,0.0190
461.00,0.0199
460.00,0.0208
459.00,0.0214
458.00,0.0214
457.00,0.0211
456.00,0.0206
455.00,0.0200
454.00,0.0193
453.00,0.0184
452.00,0.0173
451.00,0.0164
450.00,0.0157
