Created as New Dataset,Sample 053 By Administrator Date Thursday, September 04 2025
cm-1,A
4000.00,0.0011
3999.00,0.0011
3998.00,0.0011
3997.00,0.0011
3996.00,0.0011
3995.00,0.0011
3994.00,0.0011
3993.00,0.0011
3992.00,0.0010
3991.00,0.0010
3990.00,0.0010
3989.00,0.0009
3988.00,0.0009
3987.00,0.0009
3986.00,0.0009
3985.00,0.0009
3984.00,0.0009
3983.00,0.0009
3982.00,0.0009
3981.00,0.0009
3980.00,0.0009
3979.00,0.0008
3978.00,0.0008
3977.00,0.0008
3976.00,0.0008
3975.00,0.0008
3974.00,0.0008
3973.00,0.0008
3972.00,0.0008
3971.00,0.0008
3970.00,0.0008
3969.00,0.0008
3968.00,0.0008
3967.00,0.0008
3966.00,0.0009
3965.00,0.0009
3964.00,0.0009
3963.00,0.0009
3962.00,0.0009
3961.00,0.0009
3960.00,0.0009
3959.00,0.0009
3958.00,0.0009
3957.00,0.0009
3956.00,0.0009
3955.00,0.0008
3954.00,0.0008
3953.00,0.0008
3952.00,0.0008
3951.00,0.0008
3950.00,0.0008
3949.00,0.0008
3948.00,0.0009
3947.00,0.0009
3946.00,0.0009
3945.00,0.0008
3944.00,0.0008
3943.00,0.0008
3942.00,0.0008
3941.00,0.0009
3940.00,0.0009
3939.00,0.0009
3938.00,0.0009
3937.00,0.0009
3936.00,0.0009
3935.00,0.0009
3934.00,0.0009
3933.00,0.0009
3932.00,0.0009
3931.00,0.0009
3930.00,0.0009
3929.00,0.0009
3928.00,0.0009
3927.00,0.0009
3926.00,0.0009
3925.00,0.0009
3924.00,0.0009
3923.00,0.0009
3922.00,0.0009
3921.00,0.0009
3920.00,0.0009
3919.00,0.0009
3918.00,0.0009
3917.00,0.0009
3916.00,0.0009
3915.00,0.0009
3914.00,0.0008
3913.00,0.0008
3912.00,0.0008
3911.00,0.0008
3910.00,0.0009
3909.00,0.0009
3908.00,0.0009
3907.00,0.0009
3906.00,0.0009
3905.00,0.0009
3904.00,0.0009
3903.00,0.0009
3902.00,0.0009
3901.00,0.0009
3900.00,0.0009
3899.00,0.0009
3898.00,0.0008
3897.00,0.0008
3896.00,0.0008
3895.00,0.0008
3894.00,0.0008
3893.00,0.0008
3892.00,0.0008
3891.00,0.0008
3890.00,0.0008
3889.00,0.0008
3888.00,0.0008
3887.00,0.0008
3886.00,0.0008
3885.00,0.0008
3884.00,0.0008
3883.00,0.0008
3882.00,0.0008
3881.00,0.0008
3880.00,0.0008
3879.00,0.0008
3878.00,0.0008
3877.00,0.0008
3876.00,0.0008
3875.00,0.0008
3874.00,0.0008
3873.00,0.0008
3872.00,0.0008
3871.00,0.0007
3870.00,0.0008
3869.00,0.0008
3868.00,0.0008
3867.00,0.0008
3866.00,0.0008
3865.00,0.0008
3864.00,0.0008
3863.00,0.0008
3862.00,0.0008
3861.00,0.0008
3860.00,0.0008
3859.00,0.0007
3858.00,0.0006
3857.00,0.0006
3856.00,0.0006
3855.00,0.0006
3854.00,0.0007
3853.00,0.0007
3852.00,0.0007
3851.00,0.0008
3850.00,0.0008
3849.00,0.0008
3848.00,0.0008
3847.00,0.0008
3846.00,0.0008
3845.00,0.0007
3844.00,0.0007
3843.00,0.0007
3842.00,0.0007
3841.00,0.0007
3840.00,0.0007
3839.00,0.0008
3838.00,0.0008
3837.00,0.0008
3836.00,0.0008
3835.00,0.0008
3834.00,0.0008
3833.00,0.0008
3832.00,0.0008
3831.00,0.0008
3830.00,0.0008
3829.00,0.0007
3828.00,0.0007
3827.00,0.0007
3826.00,0.0007
3825.00,0.0007
3824.00,0.0007
3823.00,0.0007
3822.00,0.0007
3821.00,0.0007
3820.00,0.0008
3819.00,0.0008
3818.00,0.0008
3817.00,0.0008
3816.00,0.0008
3815.00,0.0008
3814.00,0.0008
3813.00,0.0008
3812.00,0.0008
3811.00,0.0008
3810.00,0.0008
3809.00,0.0008
3808.00,0.0008
3807.00,0.0008
3806.00,0.0008
3805.00,0.0008
3804.00,0.0008
3803.00,0.0008
3802.00,0.0008
3801.00,0.0008
3800.00,0.0008
3799.00,0.0008
3798.00,0.0008
3797.00,0.0008
3796.00,0.0008
3795.00,0.0008
3794.00,0.0008
3793.00,0.0008
3792.00,0.0008
3791.00,0.0008
3790.00,0.0008
3789.00,0.0008
3788.00,0.0008
3787.00,0.0007
3786.00,0.0007
3785.00,0.0007
3784.00,0.0007
3783.00,0.0007
3782.00,0.0007
3781.00,0.0007
3780.00,0.0007
3779.00,0.0007
3778.00,0.0007
3777.00,0.0007
3776.00,0.0007
3775.00,0.0008
3774.00,0.0008
3773.00,0.0008
3772.00,0.0009
3771.00,0.0009
3770.00,0.0009
3769.00,0.0008
3768.00,0.0008
3767.00,0.0008
3766.00,0.0008
3765.00,0.0008
3764.00,0.0008
3763.00,0.0009
3762.00,0.0009
3761.00,0.0009
3760.00,0.0009
3759.00,0.0009
3758.00,0.0008
3757.00,0.0008
3756.00,0.0008
3755.00,0.0008
3754.00,0.0007
3753.00,0.0007
3752.00,0.0006
3751.00,0.0006
3750.00,0.0007
3749.00,0.0007
3748.00,0.0008
3747.00,0.0008
3746.00,0.0009
3745.00,0.0009
3744.00,0.0009
3743.00,0.0009
3742.00,0.0009
3741.00,0.0009
3740.00,0.0008
3739.00,0.0008
3738.00,0.0007
3737.00,0.0007
3736.00,0.0006
3735.00,0.0007
3734.00,0.0007
3733.00,0.0007
3732.00,0.0006
3731.00,0.0006
3730.00,0.0006
3729.00,0.0006
3728.00,0.0006
3727.00,0.0006
3726.00,0.0006
3725.00,0.0006
3724.00,0.0006
3723.00,0.0006
3722.00,0.0006
3721.00,0.0006
3720.00,0.0006
3719.00,0.0006
3718.00,0.0006
3717.00,0.0006
3716.00,0.0006
3715.00,0.0006
3714.00,0.0006
3713.00,0.0007
3712.00,0.0007
3711.00,0.0007
3710.00,0.0006
3709.00,0.0006
3708.00,0.0005
3707.00,0.0006
3706.00,0.0006
3705.00,0.0006
3704.00,0.0007
3703.00,0.0007
3702.00,0.0006
3701.00,0.0006
3700.00,0.0007
3699.00,0.0007
3698.00,0.0007
3697.00,0.0007
3696.00,0.0006
3695.00,0.0006
3694.00,0.0006
3693.00,0.0006
3692.00,0.0006
3691.00,0.0006
3690.00,0.0007
3689.00,0.0007
3688.00,0.0007
3687.00,0.0008
3686.00,0.0008
3685.00,0.0008
3684.00,0.0008
3683.00,0.0008
3682.00,0.0008
3681.00,0.0008
3680.00,0.0009
3679.00,0.0009
3678.00,0.0010
3677.00,0.0010
3676.00,0.0009
3675.00,0.0009
3674.00,0.0009
3673.00,0.0010
3672.00,0.0010
3671.00,0.0010
3670.00,0.0010
3669.00,0.0009
3668.00,0.0009
3667.00,0.0010
3666.00,0.0010
3665.00,0.0009
3664.00,0.0009
3663.00,0.0010
3662.00,0.0010
3661.00,0.0010
3660.00,0.0010
3659.00,0.0010
3658.00,0.0010
3657.00,0.0010
3656.00,0.0010
3655.00,0.0009
3654.00,0.0009
3653.00,0.0009
3652.00,0.0010
3651.00,0.0010
3650.00,0.0011
3649.00,0.0012
3648.00,0.0012
3647.00,0.0012
3646.00,0.0012
3645.00,0.0012
3644.00,0.0012
3643.00,0.0012
3642.00,0.0012
3641.00,0.0011
3640.00,0.0012
3639.00,0.0012
3638.00,0.0012
3637.00,0.0012
3636.00,0.0012
3635.00,0.0012
3634.00,0.0011
3633.00,0.0011
3632.00,0.0012
3631.00,0.0012
3630.00,0.0013
3629.00,0.0013
3628.00,0.0013
3627.00,0.0013
3626.00,0.0013
3625.00,0.0013
3624.00,0.0013
3623.00,0.0013
3622.00,0.0013
3621.00,0.0014
3620.00,0.0014
3619.00,0.0014
3618.00,0.0014
3617.00,0.0015
3616.00,0.0015
3615.00,0.0016
3614.00,0.0016
3613.00,0.0016
3612.00,0.0016
3611.00,0.0016
3610.00,0.0016
3609.00,0.0016
3608.00,0.0017
3607.00,0.0018
3606.00,0.0018
3605.00,0.0018
3604.00,0.0018
3603.00,0.0017
3602.00,0.0017
3601.00,0.0018
3600.00,0.0018
3599.00,0.0018
3598.00,0.0018
3597.00,0.0018
3596.00,0.0017
3595.00,0.0017
3594.00,0.0018
3593.00,0.0019
3592.00,0.0020
3591.00,0.0021
3590.00,0.0021
3589.00,0.0021
3588.00,0.0021
3587.00,0.0021
3586.00,0.0021
3585.00,0.0022
3584.00,0.0022
3583.00,0.0022
3582.00,0.0023
3581.00,0.0023
3580.00,0.0024
3579.00,0.0024
3578.00,0.0025
3577.00,0.0025
3576.00,0.0025
3575.00,0.0025
3574.00,0.0025
3573.00,0.0025
3572.00,0.0026
3571.00,0.0026
3570.00,0.0026
3569.00,0.0027
3568.00,0.0027
3567.00,0.0027
3566.00,0.0027
3565.00,0.0027
3564.00,0.0027
3563.00,0.0028
3562.00,0.0028
3561.00,0.0029
3560.00,0.0030
3559.00,0.0030
3558.00,0.0030
3557.00,0.0030
3556.00,0.0030
3555.00,0.0031
3554.00,0.0031
3553.00,0.0031
3552.00,0.0031
3551.00,0.0032
3550.00,0.0033
3549.00,0.0033
3548.00,0.0034
3547.00,0.0034
3546.00,0.0034
3545.00,0.0034
3544.00,0.0034
3543.00,0.0034
3542.00,0.0034
3541.00,0.0035
3540.00,0.0035
3539.00,0.0036
3538.00,0.0036
3537.00,0.0036
3536.00,0.0036
3535.00,0.0037
3534.00,0.0037
3533.00,0.0037
3532.00,0.0037
3531.00,0.0036
3530.00,0.0036
3529.00,0.0037
3528.00,0.0037
3527.00,0.0038
3526.00,0.0039
3525.00,0.0039
3524.00,0.0040
3523.00,0.0040
3522.00,0.0040
3521.00,0.0040
3520.00,0.0040
3519.00,0.0040
3518.00,0.0041
3517.00,0.0041
3516.00,0.0042
3515.00,0.0042
3514.00,0.0043
3513.00,0.0043
3512.00,0.0043
3511.00,0.0044
3510.00,0.0044
3509.00,0.0045
3508.00,0.0045
3507.00,0.0046
3506.00,0.0046
3505.00,0.0046
3504.00,0.0046
3503.00,0.0046
3502.00,0.0046
3501.00,0.0046
3500.00,0.0046
3499.00,0.0046
3498.00,0.0046
3497.00,0.0047
3496.00,0.0047
3495.00,0.0048
3494.00,0.0048
3493.00,0.0049
3492.00,0.0049
3491.00,0.0050
3490.00,0.0050
3489.00,0.0051
3488.00,0.0051
3487.00,0.0051
3486.00,0.0051
3485.00,0.0051
3484.00,0.0052
3483.00,0.0052
3482.00,0.0052
3481.00,0.0053
3480.00,0.0053
3479.00,0.0053
3478.00,0.0053
3477.00,0.0054
3476.00,0.0054
3475.00,0.0055
3474.00,0.0055
3473.00,0.0056
3472.00,0.0056
3471.00,0.0056
3470.00,0.0056
3469.00,0.0056
3468.00,0.0057
3467.00,0.0057
3466.00,0.0057
3465.00,0.0057
3464.00,0.0057
3463.00,0.0057
3462.00,0.0058
3461.00,0.0058
3460.00,0.0058
3459.00,0.0059
3458.00,0.0059
3457.00,0.0059
3456.00,0.0059
3455.00,0.0059
3454.00,0.0060
3453.00,0.0060
3452.00,0.0060
3451.00,0.0060
3450.00,0.0061
3449.00,0.0061
3448.00,0.0062
3447.00,0.0062
3446.00,0.0062
3445.00,0.0062
3444.00,0.0063
3443.00,0.0063
3442.00,0.0064
3441.00,0.0064
3440.00,0.0064
3439.00,0.0064
3438.00,0.0065
3437.00,0.0065
3436.00,0.0066
3435.00,0.0066
3434.00,0.0066
3433.00,0.0067
3432.00,0.0067
3431.00,0.0067
3430.00,0.0067
3429.00,0.0067
3428.00,0.0068
3427.00,0.0068
3426.00,0.0068
3425.00,0.0068
3424.00,0.0068
3423.00,0.0068
3422.00,0.0068
3421.00,0.0069
3420.00,0.0069
3419.00,0.0069
3418.00,0.0070
3417.00,0.0070
3416.00,0.0070
3415.00,0.0071
3414.00,0.0071
3413.00,0.0071
3412.00,0.0071
3411.00,0.0072
3410.00,0.0072
3409.00,0.0072
3408.00,0.0072
3407.00,0.0073
3406.00,0.0073
3405.00,0.0074
3404.00,0.0074
3403.00,0.0074
3402.00,0.0074
3401.00,0.0074
3400.00,0.0074
3399.00,0.0075
3398.00,0.0075
3397.00,0.0075
3396.00,0.0075
3395.00,0.0075
3394.00,0.0075
3393.00,0.0075
3392.00,0.0076
3391.00,0.0076
3390.00,0.0076
3389.00,0.0076
3388.00,0.0076
3387.00,0.0076
3386.00,0.0075
3385.00,0.0075
3384.00,0.0075
3383.00,0.0075
3382.00,0.0076
3381.00,0.0076
3380.00,0.0076
3379.00,0.0077
3378.00,0.0077
3377.00,0.0077
3376.00,0.0078
3375.00,0.0078
3374.00,0.0078
3373.00,0.0078
3372.00,0.0078
3371.00,0.0078
3370.00,0.0078
3369.00,0.0078
3368.00,0.0079
3367.00,0.0079
3366.00,0.0079
3365.00,0.0079
3364.00,0.0079
3363.00,0.0079
3362.00,0.0079
3361.00,0.0079
3360.00,0.0079
3359.00,0.0079
3358.00,0.0079
3357.00,0.0079
3356.00,0.0079
3355.00,0.0079
3354.00,0.0079
3353.00,0.0080
3352.00,0.0080
3351.00,0.0080
3350.00,0.0080
3349.00,0.0080
3348.00,0.0080
3347.00,0.0081
3346.00,0.0081
3345.00,0.0081
3344.00,0.0080
3343.00,0.0080
3342.00,0.0080
3341.00,0.0080
3340.00,0.0080
3339.00,0.0080
3338.00,0.0079
3337.00,0.0079
3336.00,0.0079
3335.00,0.0079
3334.00,0.0079
3333.00,0.0080
3332.00,0.0080
3331.00,0.0080
3330.00,0.0080
3329.00,0.0080
3328.00,0.0079
3327.00,0.0079
3326.00,0.0078
3325.00,0.0078
3324.00,0.0078
3323.00,0.0078
3322.00,0.0078
3321.00,0.0078
3320.00,0.0078
3319.00,0.0078
3318.00,0.0078
3317.00,0.0077
3316.00,0.0077
3315.00,0.0077
3314.00,0.0077
3313.00,0.0078
3312.00,0.0078
3311.00,0.0078
3310.00,0.0079
3309.00,0.0079
3308.00,0.0079
3307.00,0.0080
3306.00,0.0080
3305.00,0.0080
3304.00,0.0081
3303.00,0.0080
3302.00,0.0080
3301.00,0.0079
3300.00,0.0079
3299.00,0.0079
3298.00,0.0079
3297.00,0.0079
3296.00,0.0078
3295.00,0.0078
3294.00,0.0077
3293.00,0.0077
3292.00,0.0076
3291.00,0.0076
3290.00,0.0076
3289.00,0.0075
3288.00,0.0075
3287.00,0.0075
3286.00,0.0074
3285.00,0.0074
3284.00,0.0073
3283.00,0.0072
3282.00,0.0072
3281.00,0.0071
3280.00,0.0071
3279.00,0.0071
3278.00,0.0071
3277.00,0.0071
3276.00,0.0071
3275.00,0.0070
3274.00,0.0070
3273.00,0.0070
3272.00,0.0069
3271.00,0.0069
3270.00,0.0069
3269.00,0.0069
3268.00,0.0069
3267.00,0.0068
3266.00,0.0068
3265.00,0.0068
3264.00,0.0068
3263.00,0.0067
3262.00,0.0067
3261.00,0.0067
3260.00,0.0067
3259.00,0.0066
3258.00,0.0066
3257.00,0.0066
3256.00,0.0066
3255.00,0.0065
3254.00,0.0065
3253.00,0.0065
3252.00,0.0064
3251.00,0.0064
3250.00,0.0064
3249.00,0.0063
3248.00,0.0063
3247.00,0.0063
3246.00,0.0063
3245.00,0.0063
3244.00,0.0063
3243.00,0.0063
3242.00,0.0063
3241.00,0.0063
3240.00,0.0063
3239.00,0.0063
3238.00,0.0063
3237.00,0.0063
3236.00,0.0063
3235.00,0.0063
3234.00,0.0062
3233.00,0.0062
3232.00,0.0062
3231.00,0.0062
3230.00,0.0063
3229.00,0.0062
3228.00,0.0062
3227.00,0.0062
3226.00,0.0062
3225.00,0.0062
3224.00,0.0063
3223.00,0.0063
3222.00,0.0063
3221.00,0.0063
3220.00,0.0063
3219.00,0.0063
3218.00,0.0063
3217.00,0.0063
3216.00,0.0063
3215.00,0.0063
3214.00,0.0063
3213.00,0.0063
3212.00,0.0063
3211.00,0.0063
3210.00,0.0063
3209.00,0.0064
3208.00,0.0064
3207.00,0.0064
3206.00,0.0064
3205.00,0.0064
3204.00,0.0064
3203.00,0.0064
3202.00,0.0064
3201.00,0.0065
3200.00,0.0065
3199.00,0.0065
3198.00,0.0065
3197.00,0.0065
3196.00,0.0064
3195.00,0.0064
3194.00,0.0064
3193.00,0.0064
3192.00,0.0064
3191.00,0.0064
3190.00,0.0064
3189.00,0.0064
3188.00,0.0063
3187.00,0.0063
3186.00,0.0062
3185.00,0.0062
3184.00,0.0062
3183.00,0.0062
3182.00,0.0062
3181.00,0.0062
3180.00,0.0061
3179.00,0.0061
3178.00,0.0061
3177.00,0.0060
3176.00,0.0060
3175.00,0.0060
3174.00,0.0060
3173.00,0.0060
3172.00,0.0059
3171.00,0.0059
3170.00,0.0059
3169.00,0.0059
3168.00,0.0058
3167.00,0.0058
3166.00,0.0058
3165.00,0.0058
3164.00,0.0058
3163.00,0.0057
3162.00,0.0057
3161.00,0.0056
3160.00,0.0056
3159.00,0.0055
3158.00,0.0055
3157.00,0.0055
3156.00,0.0055
3155.00,0.0055
3154.00,0.0055
3153.00,0.0055
3152.00,0.0055
3151.00,0.0055
3150.00,0.0055
3149.00,0.0055
3148.00,0.0055
3147.00,0.0055
3146.00,0.0055
3145.00,0.0055
3144.00,0.0055
3143.00,0.0054
3142.00,0.0054
3141.00,0.0053
3140.00,0.0053
3139.00,0.0053
3138.00,0.0052
3137.00,0.0052
3136.00,0.0052
3135.00,0.0051
3134.00,0.0051
3133.00,0.0050
3132.00,0.0050
3131.00,0.0050
3130.00,0.0050
3129.00,0.0050
3128.00,0.0049
3127.00,0.0049
3126.00,0.0048
3125.00,0.0048
3124.00,0.0047
3123.00,0.0048
3122.00,0.0048
3121.00,0.0048
3120.00,0.0047
3119.00,0.0047
3118.00,0.0046
3117.00,0.0046
3116.00,0.0046
3115.00,0.0045
3114.00,0.0045
3113.00,0.0045
3112.00,0.0045
3111.00,0.0044
3110.00,0.0044
3109.00,0.0044
3108.00,0.0044
3107.00,0.0044
3106.00,0.0044
3105.00,0.0043
3104.00,0.0043
3103.00,0.0043
3102.00,0.0043
3101.00,0.0043
3100.00,0.0043
3099.00,0.0043
3098.00,0.0043
3097.00,0.0043
3096.00,0.0043
3095.00,0.0043
3094.00,0.0042
3093.00,0.0042
3092.00,0.0042
3091.00,0.0042
3090.00,0.0042
3089.00,0.0042
3088.00,0.0042
3087.00,0.0042
3086.00,0.0042
3085.00,0.0042
3084.00,0.0041
3083.00,0.0041
3082.00,0.0041
3081.00,0.0041
3080.00,0.0041
3079.00,0.0040
3078.00,0.0040
3077.00,0.0041
3076.00,0.0041
3075.00,0.0042
3074.00,0.0042
3073.00,0.0042
3072.00,0.0042
3071.00,0.0042
3070.00,0.0042
3069.00,0.0042
3068.00,0.0041
3067.00,0.0041
3066.00,0.0041
3065.00,0.0041
3064.00,0.0041
3063.00,0.0041
3062.00,0.0041
3061.00,0.0041
3060.00,0.0042
3059.00,0.0042
3058.00,0.0042
3057.00,0.0043
3056.00,0.0043
3055.00,0.0043
3054.00,0.0043
3053.00,0.0043
3052.00,0.0043
3051.00,0.0043
3050.00,0.0044
3049.00,0.0044
3048.00,0.0044
3047.00,0.0044
3046.00,0.0044
3045.00,0.0044
3044.00,0.0044
3043.00,0.0044
3042.00,0.0044
3041.00,0.0045
3040.00,0.0046
3039.00,0.0046
3038.00,0.0046
3037.00,0.0047
3036.00,0.0047
3035.00,0.0047
3034.00,0.0047
3033.00,0.0047
3032.00,0.0048
3031.00,0.0048
3030.00,0.0049
3029.00,0.0049
3028.00,0.0050
3027.00,0.0050
3026.00,0.0051
3025.00,0.0051
3024.00,0.0052
3023.00,0.0053
3022.00,0.0053
3021.00,0.0054
3020.00,0.0055
3019.00,0.0056
3018.00,0.0057
3017.00,0.0057
3016.00,0.0058
3015.00,0.0059
3014.00,0.0060
3013.00,0.0062
3012.00,0.0064
3011.00,0.0065
3010.00,0.0067
3009.00,0.0068
3008.00,0.0070
3007.00,0.0072
3006.00,0.0074
3005.00,0.0076
3004.00,0.0078
3003.00,0.0081
3002.00,0.0083
3001.00,0.0086
3000.00,0.0089
2999.00,0.0092
2998.00,0.0096
2997.00,0.0100
2996.00,0.0104
2995.00,0.0108
2994.00,0.0112
2993.00,0.0116
2992.00,0.0121
2991.00,0.0127
2990.00,0.0134
2989.00,0.0141
2988.00,0.0149
2987.00,0.0158
2986.00,0.0168
2985.00,0.0180
2984.00,0.0193
2983.00,0.0207
2982.00,0.0223
2981.00,0.0240
2980.00,0.0259
2979.00,0.0280
2978.00,0.0303
2977.00,0.0331
2976.00,0.0363
2975.00,0.0400
2974.00,0.0442
2973.00,0.0491
2972.00,0.0547
2971.00,0.0610
2970.00,0.0680
2969.00,0.0758
2968.00,0.0843
2967.00,0.0936
2966.00,0.1035
2965.00,0.1137
2964.00,0.1241
2963.00,0.1339
2962.00,0.1427
2961.00,0.1499
2960.00,0.1552
2959.00,0.1588
2958.00,0.1613
2957.00,0.1633
2956.00,0.1657
2955.00,0.1689
2954.00,0.1731
2953.00,0.1776
2952.00,0.1816
2951.00,0.1839
2950.00,0.1833
2949.00,0.1794
2948.00,0.1722
2947.00,0.1623
2946.00,0.1510
2945.00,0.1393
2944.00,0.1285
2943.00,0.1194
2942.00,0.1124
2941.00,0.1077
2940.00,0.1051
2939.00,0.1046
2938.00,0.1059
2937.00,0.1087
2936.00,0.1129
2935.00,0.1185
2934.00,0.1253
2933.00,0.1333
2932.00,0.1424
2931.00,0.1523
2930.00,0.1629
2929.00,0.1739
2928.00,0.1850
2927.00,0.1960
2926.00,0.2067
2925.00,0.2172
2924.00,0.2274
2923.00,0.2374
2922.00,0.2472
2921.00,0.2565
2920.00,0.2646
2919.00,0.2705
2918.00,0.2732
2917.00,0.2718
2916.00,0.2664
2915.00,0.2576
2914.00,0.2468
2913.00,0.2354
2912.00,0.2246
2911.00,0.2151
2910.00,0.2071
2909.00,0.2003
2908.00,0.1942
2907.00,0.1884
2906.00,0.1826
2905.00,0.1767
2904.00,0.1704
2903.00,0.1641
2902.00,0.1576
2901.00,0.1512
2900.00,0.1449
2899.00,0.1389
2898.00,0.1332
2897.00,0.1279
2896.00,0.1232
2895.00,0.1190
2894.00,0.1154
2893.00,0.1124
2892.00,0.1100
2891.00,0.1081
2890.00,0.1066
2889.00,0.1056
2888.00,0.1049
2887.00,0.1045
2886.00,0.1043
2885.00,0.1045
2884.00,0.1050
2883.00,0.1059
2882.00,0.1070
2881.00,0.1083
2880.00,0.1096
2879.00,0.1105
2878.00,0.1109
2877.00,0.1108
2876.00,0.1102
2875.00,0.1096
2874.00,0.1093
2873.00,0.1096
2872.00,0.1105
2871.00,0.1120
2870.00,0.1138
2869.00,0.1156
2868.00,0.1167
2867.00,0.1166
2866.00,0.1147
2865.00,0.1110
2864.00,0.1057
2863.00,0.0996
2862.00,0.0937
2861.00,0.0886
2860.00,0.0848
2859.00,0.0824
2858.00,0.0815
2857.00,0.0817
2856.00,0.0829
2855.00,0.0848
2854.00,0.0875
2853.00,0.0905
2852.00,0.0935
2851.00,0.0962
2850.00,0.0980
2849.00,0.0988
2848.00,0.0988
2847.00,0.0989
2846.00,0.0996
2845.00,0.1014
2844.00,0.1045
2843.00,0.1084
2842.00,0.1127
2841.00,0.1167
2840.00,0.1194
2839.00,0.1202
2838.00,0.1184
2837.00,0.1140
2836.00,0.1069
2835.00,0.0980
2834.00,0.0881
2833.00,0.0781
2832.00,0.0687
2831.00,0.0604
2830.00,0.0535
2829.00,0.0477
2828.00,0.0430
2827.00,0.0392
2826.00,0.0361
2825.00,0.0334
2824.00,0.0312
2823.00,0.0293
2822.00,0.0277
2821.00,0.0262
2820.00,0.0250
2819.00,0.0239
2818.00,0.0229
2817.00,0.0220
2816.00,0.0212
2815.00,0.0205
2814.00,0.0198
2813.00,0.0193
2812.00,0.0188
2811.00,0.0183
2810.00,0.0178
2809.00,0.0172
2808.00,0.0167
2807.00,0.0161
2806.00,0.0155
2805.00,0.0148
2804.00,0.0142
2803.00,0.0137
2802.00,0.0132
2801.00,0.0128
2800.00,0.0125
2799.00,0.0122
2798.00,0.0119
2797.00,0.0116
2796.00,0.0114
2795.00,0.0111
2794.00,0.0109
2793.00,0.0106
2792.00,0.0103
2791.00,0.0100
2790.00,0.0097
2789.00,0.0093
2788.00,0.0090
2787.00,0.0087
2786.00,0.0085
2785.00,0.0082
2784.00,0.0080
2783.00,0.0077
2782.00,0.0075
2781.00,0.0073
2780.00,0.0071
2779.00,0.0069
2778.00,0.0068
2777.00,0.0067
2776.00,0.0065
2775.00,0.0064
2774.00,0.0063
2773.00,0.0062
2772.00,0.0061
2771.00,0.0061
2770.00,0.0060
2769.00,0.0060
2768.00,0.0060
2767.00,0.0059
2766.00,0.0059
2765.00,0.0059
2764.00,0.0059
2763.00,0.0058
2762.00,0.0058
2761.00,0.0057
2760.00,0.0057
2759.00,0.0056
2758.00,0.0056
2757.00,0.0056
2756.00,0.0056
2755.00,0.0056
2754.00,0.0056
2753.00,0.0056
2752.00,0.0055
2751.00,0.0055
2750.00,0.0055
2749.00,0.0055
2748.00,0.0055
2747.00,0.0055
2746.00,0.0055
2745.00,0.0055
2744.00,0.0056
2743.00,0.0057
2742.00,0.0058
2741.00,0.0059
2740.00,0.0060
2739.00,0.0061
2738.00,0.0062
2737.00,0.0063
2736.00,0.0065
2735.00,0.0066
2734.00,0.0067
2733.00,0.0068
2732.00,0.0070
2731.00,0.0071
2730.00,0.0073
2729.00,0.0075
2728.00,0.0078
2727.00,0.0080
2726.00,0.0082
2725.00,0.0084
2724.00,0.0086
2723.00,0.0086
2722.00,0.0086
2721.00,0.0084
2720.00,0.0082
2719.00,0.0079
2718.00,0.0076
2717.00,0.0073
2716.00,0.0070
2715.00,0.0068
2714.00,0.0065
2713.00,0.0063
2712.00,0.0061
2711.00,0.0060
2710.00,0.0058
2709.00,0.0057
2708.00,0.0055
2707.00,0.0054
2706.00,0.0053
2705.00,0.0052
2704.00,0.0051
2703.00,0.0051
2702.00,0.0050
2701.00,0.0049
2700.00,0.0048
2699.00,0.0048
2698.00,0.0047
2697.00,0.0047
2696.00,0.0048
2695.00,0.0048
2694.00,0.0048
2693.00,0.0048
2692.00,0.0048
2691.00,0.0048
2690.00,0.0048
2689.00,0.0048
2688.00,0.0048
2687.00,0.0048
2686.00,0.0048
2685.00,0.0048
2684.00,0.0048
2683.00,0.0048
2682.00,0.0048
2681.00,0.0048
2680.00,0.0048
2679.00,0.0048
2678.00,0.0049
2677.00,0.0049
2676.00,0.0048
2675.00,0.0048
2674.00,0.0047
2673.00,0.0047
2672.00,0.0047
2671.00,0.0047
2670.00,0.0047
2669.00,0.0047
2668.00,0.0047
2667.00,0.0048
2666.00,0.0048
2665.00,0.0048
2664.00,0.0049
2663.00,0.0049
2662.00,0.0049
2661.00,0.0050
2660.00,0.0050
2659.00,0.0050
2658.00,0.0050
2657.00,0.0050
2656.00,0.0050
2655.00,0.0049
2654.00,0.0048
2653.00,0.0048
2652.00,0.0047
2651.00,0.0047
2650.00,0.0046
2649.00,0.0046
2648.00,0.0045
2647.00,0.0045
2646.00,0.0044
2645.00,0.0044
2644.00,0.0044
2643.00,0.0043
2642.00,0.0043
2641.00,0.0043
2640.00,0.0042
2639.00,0.0042
2638.00,0.0042
2637.00,0.0041
2636.00,0.0041
2635.00,0.0041
2634.00,0.0041
2633.00,0.0041
2632.00,0.0041
2631.00,0.0041
2630.00,0.0041
2629.00,0.0041
2628.00,0.0041
2627.00,0.0042
2626.00,0.0042
2625.00,0.0042
2624.00,0.0043
2623.00,0.0043
2622.00,0.0043
2621.00,0.0042
2620.00,0.0042
2619.00,0.0041
2618.00,0.0041
2617.00,0.0041
2616.00,0.0041
2615.00,0.0040
2614.00,0.0040
2613.00,0.0040
2612.00,0.0040
2611.00,0.0039
2610.00,0.0039
2609.00,0.0038
2608.00,0.0038
2607.00,0.0037
2606.00,0.0036
2605.00,0.0035
2604.00,0.0034
2603.00,0.0033
2602.00,0.0033
2601.00,0.0033
2600.00,0.0033
2599.00,0.0033
2598.00,0.0033
2597.00,0.0033
2596.00,0.0033
2595.00,0.0032
2594.00,0.0032
2593.00,0.0033
2592.00,0.0034
2591.00,0.0034
2590.00,0.0035
2589.00,0.0035
2588.00,0.0036
2587.00,0.0037
2586.00,0.0038
2585.00,0.0039
2584.00,0.0040
2583.00,0.0040
2582.00,0.0039
2581.00,0.0039
2580.00,0.0038
2579.00,0.0037
2578.00,0.0036
2577.00,0.0035
2576.00,0.0034
2575.00,0.0032
2574.00,0.0031
2573.00,0.0030
2572.00,0.0030
2571.00,0.0029
2570.00,0.0028
2569.00,0.0028
2568.00,0.0027
2567.00,0.0027
2566.00,0.0027
2565.00,0.0027
2564.00,0.0027
2563.00,0.0027
2562.00,0.0026
2561.00,0.0026
2560.00,0.0026
2559.00,0.0026
2558.00,0.0025
2557.00,0.0025
2556.00,0.0025
2555.00,0.0024
2554.00,0.0024
2553.00,0.0023
2552.00,0.0022
2551.00,0.0021
2550.00,0.0021
2549.00,0.0020
2548.00,0.0020
2547.00,0.0020
2546.00,0.0020
2545.00,0.0020
2544.00,0.0020
2543.00,0.0020
2542.00,0.0019
2541.00,0.0019
2540.00,0.0019
2539.00,0.0019
2538.00,0.0019
2537.00,0.0019
2536.00,0.0019
2535.00,0.0019
2534.00,0.0019
2533.00,0.0019
2532.00,0.0018
2531.00,0.0018
2530.00,0.0018
2529.00,0.0017
2528.00,0.0017
2527.00,0.0016
2526.00,0.0016
2525.00,0.0015
2524.00,0.0016
2523.00,0.0016
2522.00,0.0015
2521.00,0.0015
2520.00,0.0014
2519.00,0.0014
2518.00,0.0014
2517.00,0.0014
2516.00,0.0015
2515.00,0.0015
2514.00,0.0015
2513.00,0.0014
2512.00,0.0012
2511.00,0.0012
2510.00,0.0012
2509.00,0.0012
2508.00,0.0013
2507.00,0.0013
2506.00,0.0013
2505.00,0.0013
2504.00,0.0012
2503.00,0.0012
2502.00,0.0012
2501.00,0.0012
2500.00,0.0012
2499.00,0.0012
2498.00,0.0012
2497.00,0.0012
2496.00,0.0012
2495.00,0.0012
2494.00,0.0012
2493.00,0.0012
2492.00,0.0011
2491.00,0.0011
2490.00,0.0011
2489.00,0.0011
2488.00,0.0011
2487.00,0.0011
2486.00,0.0011
2485.00,0.0011
2484.00,0.0011
2483.00,0.0012
2482.00,0.0012
2481.00,0.0012
2480.00,0.0012
2479.00,0.0012
2478.00,0.0011
2477.00,0.0011
2476.00,0.0010
2475.00,0.0010
2474.00,0.0010
2473.00,0.0010
2472.00,0.0010
2471.00,0.0010
2470.00,0.0010
2469.00,0.0010
2468.00,0.0010
2467.00,0.0010
2466.00,0.0010
2465.00,0.0010
2464.00,0.0010
2463.00,0.0010
2462.00,0.0010
2461.00,0.0011
2460.00,0.0011
2459.00,0.0011
2458.00,0.0011
2457.00,0.0011
2456.00,0.0011
2455.00,0.0012
2454.00,0.0012
2453.00,0.0012
2452.00,0.0012
2451.00,0.0013
2450.00,0.0013
2449.00,0.0013
2448.00,0.0013
2447.00,0.0013
2446.00,0.0014
2445.00,0.0014
2444.00,0.0015
2443.00,0.0015
2442.00,0.0014
2441.00,0.0013
2440.00,0.0013
2439.00,0.0012
2438.00,0.0012
2437.00,0.0013
2436.00,0.0013
2435.00,0.0013
2434.00,0.0013
2433.00,0.0013
2432.00,0.0013
2431.00,0.0013
2430.00,0.0013
2429.00,0.0013
2428.00,0.0013
2427.00,0.0013
2426.00,0.0013
2425.00,0.0012
2424.00,0.0012
2423.00,0.0013
2422.00,0.0013
2421.00,0.0013
2420.00,0.0013
2419.00,0.0012
2418.00,0.0012
2417.00,0.0011
2416.00,0.0011
2415.00,0.0011
2414.00,0.0010
2413.00,0.0010
2412.00,0.0011
2411.00,0.0011
2410.00,0.0012
2409.00,0.0012
2408.00,0.0011
2407.00,0.0011
2406.00,0.0010
2405.00,0.0009
2404.00,0.0009
2403.00,0.0009
2402.00,0.0010
2401.00,0.0010
2400.00,0.0010
2399.00,0.0010
2398.00,0.0010
2397.00,0.0009
2396.00,0.0010
2395.00,0.0010
2394.00,0.0010
2393.00,0.0010
2392.00,0.0009
2391.00,0.0009
2390.00,0.0009
2389.00,0.0009
2388.00,0.0009
2387.00,0.0009
2386.00,0.0009
2385.00,0.0009
2384.00,0.0008
2383.00,0.0008
2382.00,0.0007
2381.00,0.0007
2380.00,0.0007
2379.00,0.0007
2378.00,0.0007
2377.00,0.0007
2376.00,0.0007
2375.00,0.0007
2374.00,0.0007
2373.00,0.0006
2372.00,0.0006
2371.00,0.0006
2370.00,0.0006
2369.00,0.0006
2368.00,0.0006
2367.00,0.0005
2366.00,0.0005
2365.00,0.0004
2364.00,0.0005
2363.00,0.0005
2362.00,0.0006
2361.00,0.0006
2360.00,0.0007
2359.00,0.0008
2358.00,0.0008
2357.00,0.0008
2356.00,0.0008
2355.00,0.0007
2354.00,0.0007
2353.00,0.0007
2352.00,0.0007
2351.00,0.0007
2350.00,0.0007
2349.00,0.0007
2348.00,0.0008
2347.00,0.0008
2346.00,0.0008
2345.00,0.0007
2344.00,0.0007
2343.00,0.0007
2342.00,0.0008
2341.00,0.0009
2340.00,0.0010
2339.00,0.0011
2338.00,0.0011
2337.00,0.0011
2336.00,0.0010
2335.00,0.0010
2334.00,0.0009
2333.00,0.0009
2332.00,0.0009
2331.00,0.0009
2330.00,0.0010
2329.00,0.0010
2328.00,0.0011
2327.00,0.0015
2326.00,0.0019
2325.00,0.0024
2324.00,0.0026
2323.00,0.0025
2322.00,0.0023
2321.00,0.0022
2320.00,0.0021
2319.00,0.0020
2318.00,0.0019
2317.00,0.0018
2316.00,0.0017
2315.00,0.0016
2314.00,0.0015
2313.00,0.0014
2312.00,0.0013
2311.00,0.0013
2310.00,0.0013
2309.00,0.0013
2308.00,0.0012
2307.00,0.0012
2306.00,0.0011
2305.00,0.0012
2304.00,0.0012
2303.00,0.0013
2302.00,0.0013
2301.00,0.0014
2300.00,0.0014
2299.00,0.0015
2298.00,0.0015
2297.00,0.0015
2296.00,0.0016
2295.00,0.0016
2294.00,0.0016
2293.00,0.0016
2292.00,0.0017
2291.00,0.0017
2290.00,0.0017
2289.00,0.0018
2288.00,0.0019
2287.00,0.0021
2286.00,0.0021
2285.00,0.0021
2284.00,0.0020
2283.00,0.0018
2282.00,0.0017
2281.00,0.0015
2280.00,0.0014
2279.00,0.0014
2278.00,0.0014
2277.00,0.0013
2276.00,0.0013
2275.00,0.0013
2274.00,0.0013
2273.00,0.0013
2272.00,0.0013
2271.00,0.0013
2270.00,0.0013
2269.00,0.0012
2268.00,0.0010
2267.00,0.0009
2266.00,0.0009
2265.00,0.0009
2264.00,0.0011
2263.00,0.0011
2262.00,0.0011
2261.00,0.0012
2260.00,0.0012
2259.00,0.0013
2258.00,0.0014
2257.00,0.0015
2256.00,0.0014
2255.00,0.0013
2254.00,0.0011
2253.00,0.0010
2252.00,0.0009
2251.00,0.0008
2250.00,0.0008
2249.00,0.0008
2248.00,0.0009
2247.00,0.0010
2246.00,0.0011
2245.00,0.0011
2244.00,0.0011
2243.00,0.0010
2242.00,0.0008
2241.00,0.0007
2240.00,0.0006
2239.00,0.0006
2238.00,0.0006
2237.00,0.0008
2236.00,0.0009
2235.00,0.0009
2234.00,0.0010
2233.00,0.0010
2232.00,0.0010
2231.00,0.0011
2230.00,0.0011
2229.00,0.0012
2228.00,0.0012
2227.00,0.0012
2226.00,0.0012
2225.00,0.0011
2224.00,0.0009
2223.00,0.0008
2222.00,0.0007
2221.00,0.0007
2220.00,0.0008
2219.00,0.0008
2218.00,0.0008
2217.00,0.0007
2216.00,0.0006
2215.00,0.0006
2214.00,0.0006
2213.00,0.0006
2212.00,0.0007
2211.00,0.0008
2210.00,0.0009
2209.00,0.0009
2208.00,0.0009
2207.00,0.0009
2206.00,0.0009
2205.00,0.0009
2204.00,0.0008
2203.00,0.0008
2202.00,0.0007
2201.00,0.0007
2200.00,0.0006
2199.00,0.0006
2198.00,0.0006
2197.00,0.0006
2196.00,0.0006
2195.00,0.0007
2194.00,0.0008
2193.00,0.0009
2192.00,0.0010
2191.00,0.0010
2190.00,0.0009
2189.00,0.0008
2188.00,0.0007
2187.00,0.0007
2186.00,0.0009
2185.00,0.0012
2184.00,0.0014
2183.00,0.0013
2182.00,0.0010
2181.00,0.0006
2180.00,0.0003
2179.00,0.0003
2178.00,0.0005
2177.00,0.0007
2176.00,0.0009
2175.00,0.0009
2174.00,0.0009
2173.00,0.0010
2172.00,0.0011
2171.00,0.0013
2170.00,0.0014
2169.00,0.0016
2168.00,0.0018
2167.00,0.0019
2166.00,0.0018
2165.00,0.0017
2164.00,0.0015
2163.00,0.0014
2162.00,0.0014
2161.00,0.0010
2160.00,0.0003
2159.00,-0.0009
2158.00,-0.0019
2157.00,-0.0024
2156.00,-0.0024
2155.00,-0.0021
2154.00,-0.0017
2153.00,-0.0014
2152.00,-0.0011
2151.00,-0.0010
2150.00,-0.0010
2149.00,-0.0011
2148.00,-0.0013
2147.00,-0.0016
2146.00,-0.0017
2145.00,-0.0016
2144.00,-0.0014
2143.00,-0.0012
2142.00,-0.0011
2141.00,-0.0012
2140.00,-0.0013
2139.00,-0.0013
2138.00,-0.0013
2137.00,-0.0013
2136.00,-0.0014
2135.00,-0.0015
2134.00,-0.0015
2133.00,-0.0015
2132.00,-0.0012
2131.00,-0.0010
2130.00,-0.0009
2129.00,-0.0009
2128.00,-0.0009
2127.00,-0.0009
2126.00,-0.0008
2125.00,-0.0007
2124.00,-0.0005
2123.00,-0.0004
2122.00,-0.0003
2121.00,-0.0003
2120.00,-0.0002
2119.00,-0.0002
2118.00,-0.0001
2117.00,0.0001
2116.00,0.0002
2115.00,0.0004
2114.00,0.0004
2113.00,0.0004
2112.00,0.0004
2111.00,0.0004
2110.00,0.0003
2109.00,0.0002
2108.00,0.0001
2107.00,0.0000
2106.00,-0.0001
2105.00,-0.0001
2104.00,-0.0001
2103.00,-0.0000
2102.00,0.0001
2101.00,0.0003
2100.00,0.0003
2099.00,0.0004
2098.00,0.0003
2097.00,0.0002
2096.00,0.0001
2095.00,-0.0001
2094.00,-0.0002
2093.00,-0.0002
2092.00,-0.0002
2091.00,-0.0001
2090.00,-0.0000
2089.00,0.0001
2088.00,0.0001
2087.00,0.0002
2086.00,0.0003
2085.00,0.0004
2084.00,0.0005
2083.00,0.0005
2082.00,0.0004
2081.00,0.0003
2080.00,0.0002
2079.00,0.0002
2078.00,0.0002
2077.00,0.0003
2076.00,0.0004
2075.00,0.0004
2074.00,0.0003
2073.00,0.0002
2072.00,0.0001
2071.00,0.0001
2070.00,0.0002
2069.00,0.0002
2068.00,0.0003
2067.00,0.0003
2066.00,0.0003
2065.00,0.0002
2064.00,-0.0000
2063.00,-0.0002
2062.00,-0.0003
2061.00,-0.0003
2060.00,-0.0003
2059.00,-0.0002
2058.00,-0.0001
2057.00,-0.0000
2056.00,-0.0000
2055.00,-0.0001
2054.00,-0.0001
2053.00,0.0003
2052.00,0.0008
2051.00,0.0012
2050.00,0.0013
2049.00,0.0010
2048.00,0.0006
2047.00,0.0003
2046.00,0.0002
2045.00,0.0002
2044.00,0.0003
2043.00,0.0004
2042.00,0.0004
2041.00,0.0004
2040.00,0.0004
2039.00,0.0007
2038.00,0.0009
2037.00,0.0010
2036.00,0.0009
2035.00,0.0006
2034.00,0.0004
2033.00,0.0003
2032.00,0.0003
2031.00,0.0002
2030.00,0.0002
2029.00,0.0002
2028.00,0.0000
2027.00,-0.0002
2026.00,-0.0004
2025.00,-0.0005
2024.00,-0.0005
2023.00,-0.0004
2022.00,-0.0004
2021.00,-0.0005
2020.00,-0.0007
2019.00,-0.0009
2018.00,-0.0009
2017.00,-0.0007
2016.00,-0.0005
2015.00,-0.0006
2014.00,-0.0007
2013.00,-0.0008
2012.00,-0.0008
2011.00,-0.0009
2010.00,-0.0010
2009.00,-0.0012
2008.00,-0.0013
2007.00,-0.0015
2006.00,-0.0015
2005.00,-0.0015
2004.00,-0.0015
2003.00,-0.0015
2002.00,-0.0014
2001.00,-0.0013
2000.00,-0.0012
1999.00,-0.0010
1998.00,-0.0009
1997.00,-0.0008
1996.00,-0.0008
1995.00,-0.0008
1994.00,-0.0009
1993.00,-0.0009
1992.00,-0.0008
1991.00,-0.0008
1990.00,-0.0009
1989.00,-0.0008
1988.00,-0.0006
1987.00,-0.0002
1986.00,0.0002
1985.00,0.0006
1984.00,0.0007
1983.00,0.0006
1982.00,0.0005
1981.00,0.0006
1980.00,0.0006
1979.00,0.0003
1978.00,-0.0003
1977.00,-0.0009
1976.00,-0.0012
1975.00,-0.0013
1974.00,-0.0014
1973.00,-0.0016
1972.00,-0.0018
1971.00,-0.0017
1970.00,-0.0015
1969.00,-0.0012
1968.00,-0.0010
1967.00,-0.0008
1966.00,-0.0006
1965.00,-0.0003
1964.00,-0.0002
1963.00,-0.0002
1962.00,-0.0004
1961.00,-0.0007
1960.00,-0.0010
1959.00,-0.0014
1958.00,-0.0016
1957.00,-0.0017
1956.00,-0.0017
1955.00,-0.0016
1954.00,-0.0014
1953.00,-0.0013
1952.00,-0.0013
1951.00,-0.0014
1950.00,-0.0014
1949.00,-0.0014
1948.00,-0.0013
1947.00,-0.0012
1946.00,-0.0012
1945.00,-0.0012
1944.00,-0.0013
1943.00,-0.0014
1942.00,-0.0014
1941.00,-0.0012
1940.00,-0.0010
1939.00,-0.0009
1938.00,-0.0009
1937.00,-0.0009
1936.00,-0.0010
1935.00,-0.0011
1934.00,-0.0011
1933.00,-0.0011
1932.00,-0.0009
1931.00,-0.0008
1930.00,-0.0007
1929.00,-0.0007
1928.00,-0.0006
1927.00,-0.0007
1926.00,-0.0007
1925.00,-0.0007
1924.00,-0.0007
1923.00,-0.0006
1922.00,-0.0005
1921.00,-0.0004
1920.00,-0.0003
1919.00,-0.0003
1918.00,-0.0002
1917.00,-0.0002
1916.00,-0.0002
1915.00,-0.0002
1914.00,-0.0002
1913.00,-0.0001
1912.00,-0.0001
1911.00,-0.0002
1910.00,-0.0003
1909.00,-0.0003
1908.00,-0.0003
1907.00,-0.0003
1906.00,-0.0002
1905.00,-0.0001
1904.00,-0.0000
1903.00,-0.0000
1902.00,-0.0000
1901.00,-0.0000
1900.00,-0.0000
1899.00,0.0000
1898.00,0.0001
1897.00,0.0001
1896.00,0.0001
1895.00,-0.0000
1894.00,-0.0001
1893.00,-0.0001
1892.00,-0.0000
1891.00,0.0000
1890.00,0.0001
1889.00,0.0002
1888.00,0.0002
1887.00,0.0002
1886.00,0.0002
1885.00,0.0003
1884.00,0.0003
1883.00,0.0003
1882.00,0.0002
1881.00,0.0001
1880.00,0.0000
1879.00,-0.0000
1878.00,-0.0001
1877.00,-0.0001
1876.00,-0.0001
1875.00,-0.0000
1874.00,0.0000
1873.00,0.0001
1872.00,0.0002
1871.00,0.0002
1870.00,0.0002
1869.00,0.0002
1868.00,0.0002
1867.00,0.0002
1866.00,0.0002
1865.00,0.0002
1864.00,0.0002
1863.00,0.0002
1862.00,0.0000
1861.00,-0.0001
1860.00,-0.0001
1859.00,-0.0001
1858.00,0.0000
1857.00,0.0001
1856.00,0.0002
1855.00,0.0003
1854.00,0.0003
1853.00,0.0003
1852.00,0.0004
1851.00,0.0004
1850.00,0.0005
1849.00,0.0005
1848.00,0.0005
1847.00,0.0004
1846.00,0.0003
1845.00,0.0003
1844.00,0.0004
1843.00,0.0004
1842.00,0.0005
1841.00,0.0005
1840.00,0.0004
1839.00,0.0003
1838.00,0.0003
1837.00,0.0003
1836.00,0.0004
1835.00,0.0004
1834.00,0.0005
1833.00,0.0005
1832.00,0.0005
1831.00,0.0005
1830.00,0.0004
1829.00,0.0004
1828.00,0.0004
1827.00,0.0004
1826.00,0.0005
1825.00,0.0006
1824.00,0.0006
1823.00,0.0006
1822.00,0.0005
1821.00,0.0005
1820.00,0.0004
1819.00,0.0004
1818.00,0.0003
1817.00,0.0003
1816.00,0.0003
1815.00,0.0003
1814.00,0.0003
1813.00,0.0004
1812.00,0.0005
1811.00,0.0006
1810.00,0.0007
1809.00,0.0006
1808.00,0.0006
1807.00,0.0006
1806.00,0.0006
1805.00,0.0006
1804.00,0.0006
1803.00,0.0006
1802.00,0.0007
1801.00,0.0008
1800.00,0.0008
1799.00,0.0008
1798.00,0.0008
1797.00,0.0009
1796.00,0.0009
1795.00,0.0009
1794.00,0.0010
1793.00,0.0010
1792.00,0.0011
1791.00,0.0011
1790.00,0.0011
1789.00,0.0011
1788.00,0.0011
1787.00,0.0010
1786.00,0.0010
1785.00,0.0009
1784.00,0.0009
1783.00,0.0010
1782.00,0.0010
1781.00,0.0011
1780.00,0.0011
1779.00,0.0011
1778.00,0.0010
1777.00,0.0010
1776.00,0.0010
1775.00,0.0011
1774.00,0.0011
1773.00,0.0011
1772.00,0.0011
1771.00,0.0012
1770.00,0.0013
1769.00,0.0014
1768.00,0.0015
1767.00,0.0015
1766.00,0.0014
1765.00,0.0014
1764.00,0.0014
1763.00,0.0014
1762.00,0.0015
1761.00,0.0015
1760.00,0.0016
1759.00,0.0017
1758.00,0.0017
1757.00,0.0019
1756.00,0.0020
1755.00,0.0020
1754.00,0.0021
1753.00,0.0022
1752.00,0.0023
1751.00,0.0024
1750.00,0.0025
1749.00,0.0026
1748.00,0.0027
1747.00,0.0027
1746.00,0.0028
1745.00,0.0029
1744.00,0.0031
1743.00,0.0032
1742.00,0.0033
1741.00,0.0034
1740.00,0.0035
1739.00,0.0035
1738.00,0.0036
1737.00,0.0037
1736.00,0.0037
1735.00,0.0036
1734.00,0.0036
1733.00,0.0036
1732.00,0.0036
1731.00,0.0037
1730.00,0.0036
1729.00,0.0036
1728.00,0.0035
1727.00,0.0035
1726.00,0.0035
1725.00,0.0034
1724.00,0.0034
1723.00,0.0034
1722.00,0.0034
1721.00,0.0034
1720.00,0.0034
1719.00,0.0033
1718.00,0.0033
1717.00,0.0033
1716.00,0.0034
1715.00,0.0033
1714.00,0.0033
1713.00,0.0032
1712.00,0.0032
1711.00,0.0031
1710.00,0.0031
1709.00,0.0031
1708.00,0.0031
1707.00,0.0032
1706.00,0.0032
1705.00,0.0033
1704.00,0.0034
1703.00,0.0035
1702.00,0.0035
1701.00,0.0035
1700.00,0.0036
1699.00,0.0036
1698.00,0.0037
1697.00,0.0037
1696.00,0.0037
1695.00,0.0038
1694.00,0.0039
1693.00,0.0040
1692.00,0.0041
1691.00,0.0043
1690.00,0.0044
1689.00,0.0045
1688.00,0.0046
1687.00,0.0047
1686.00,0.0047
1685.00,0.0048
1684.00,0.0051
1683.00,0.0052
1682.00,0.0053
1681.00,0.0055
1680.00,0.0056
1679.00,0.0057
1678.00,0.0058
1677.00,0.0060
1676.00,0.0061
1675.00,0.0062
1674.00,0.0064
1673.00,0.0066
1672.00,0.0068
1671.00,0.0070
1670.00,0.0071
1669.00,0.0071
1668.00,0.0071
1667.00,0.0071
1666.00,0.0071
1665.00,0.0073
1664.00,0.0074
1663.00,0.0075
1662.00,0.0075
1661.00,0.0076
1660.00,0.0077
1659.00,0.0078
1658.00,0.0079
1657.00,0.0081
1656.00,0.0083
1655.00,0.0084
1654.00,0.0085
1653.00,0.0086
1652.00,0.0086
1651.00,0.0087
1650.00,0.0090
1649.00,0.0091
1648.00,0.0093
1647.00,0.0095
1646.00,0.0095
1645.00,0.0096
1644.00,0.0096
1643.00,0.0097
1642.00,0.0097
1641.00,0.0098
1640.00,0.0100
1639.00,0.0102
1638.00,0.0103
1637.00,0.0105
1636.00,0.0105
1635.00,0.0105
1634.00,0.0104
1633.00,0.0103
1632.00,0.0103
1631.00,0.0103
1630.00,0.0103
1629.00,0.0102
1628.00,0.0102
1627.00,0.0102
1626.00,0.0101
1625.00,0.0101
1624.00,0.0100
1623.00,0.0099
1622.00,0.0098
1621.00,0.0098
1620.00,0.0099
1619.00,0.0099
1618.00,0.0098
1617.00,0.0098
1616.00,0.0098
1615.00,0.0098
1614.00,0.0098
1613.00,0.0097
1612.00,0.0097
1611.00,0.0097
1610.00,0.0097
1609.00,0.0097
1608.00,0.0098
1607.00,0.0098
1606.00,0.0098
1605.00,0.0099
1604.00,0.0099
1603.00,0.0099
1602.00,0.0099
1601.00,0.0100
1600.00,0.0100
1599.00,0.0101
1598.00,0.0101
1597.00,0.0101
1596.00,0.0101
1595.00,0.0102
1594.00,0.0103
1593.00,0.0105
1592.00,0.0108
1591.00,0.0110
1590.00,0.0112
1589.00,0.0115
1588.00,0.0119
1587.00,0.0123
1586.00,0.0129
1585.00,0.0136
1584.00,0.0144
1583.00,0.0153
1582.00,0.0161
1581.00,0.0170
1580.00,0.0178
1579.00,0.0184
1578.00,0.0187
1577.00,0.0188
1576.00,0.0187
1575.00,0.0183
1574.00,0.0178
1573.00,0.0172
1572.00,0.0167
1571.00,0.0160
1570.00,0.0153
1569.00,0.0146
1568.00,0.0140
1567.00,0.0136
1566.00,0.0132
1565.00,0.0129
1564.00,0.0127
1563.00,0.0125
1562.00,0.0124
1561.00,0.0123
1560.00,0.0123
1559.00,0.0124
1558.00,0.0125
1557.00,0.0126
1556.00,0.0127
1555.00,0.0129
1554.00,0.0131
1553.00,0.0134
1552.00,0.0138
1551.00,0.0142
1550.00,0.0148
1549.00,0.0154
1548.00,0.0161
1547.00,0.0169
1546.00,0.0178
1545.00,0.0188
1544.00,0.0198
1543.00,0.0205
1542.00,0.0211
1541.00,0.0213
1540.00,0.0209
1539.00,0.0198
1538.00,0.0187
1537.00,0.0178
1536.00,0.0169
1535.00,0.0158
1534.00,0.0145
1533.00,0.0133
1532.00,0.0125
1531.00,0.0119
1530.00,0.0114
1529.00,0.0111
1528.00,0.0107
1527.00,0.0104
1526.00,0.0101
1525.00,0.0099
1524.00,0.0098
1523.00,0.0097
1522.00,0.0095
1521.00,0.0094
1520.00,0.0093
1519.00,0.0093
1518.00,0.0094
1517.00,0.0094
1516.00,0.0094
1515.00,0.0093
1514.00,0.0091
1513.00,0.0091
1512.00,0.0091
1511.00,0.0091
1510.00,0.0091
1509.00,0.0092
1508.00,0.0094
1507.00,0.0094
1506.00,0.0094
1505.00,0.0094
1504.00,0.0095
1503.00,0.0097
1502.00,0.0099
1501.00,0.0102
1500.00,0.0105
1499.00,0.0107
1498.00,0.0110
1497.00,0.0113
1496.00,0.0117
1495.00,0.0120
1494.00,0.0123
1493.00,0.0127
1492.00,0.0132
1491.00,0.0136
1490.00,0.0142
1489.00,0.0149
1488.00,0.0156
1487.00,0.0162
1486.00,0.0170
1485.00,0.0179
1484.00,0.0190
1483.00,0.0202
1482.00,0.0216
1481.00,0.0233
1480.00,0.0250
1479.00,0.0267
1478.00,0.0286
1477.00,0.0310
1476.00,0.0339
1475.00,0.0372
1474.00,0.0413
1473.00,0.0469
1472.00,0.0532
1471.00,0.0591
1470.00,0.0647
1469.00,0.0707
1468.00,0.0771
1467.00,0.0841
1466.00,0.0920
1465.00,0.1004
1464.00,0.1077
1463.00,0.1126
1462.00,0.1157
1461.00,0.1177
1460.00,0.1191
1459.00,0.1201
1458.00,0.1210
1457.00,0.1217
1456.00,0.1216
1455.00,0.1209
1454.00,0.1200
1453.00,0.1186
1452.00,0.1164
1451.00,0.1131
1450.00,0.1085
1449.00,0.1020
1448.00,0.0936
1447.00,0.0844
1446.00,0.0758
1445.00,0.0684
1444.00,0.0620
1443.00,0.0567
1442.00,0.0526
1441.00,0.0498
1440.00,0.0480
1439.00,0.0473
1438.00,0.0472
1437.00,0.0473
1436.00,0.0463
1435.00,0.0441
1434.00,0.0408
1433.00,0.0368
1432.00,0.0326
1431.00,0.0288
1430.00,0.0258
1429.00,0.0235
1428.00,0.0220
1427.00,0.0211
1426.00,0.0206
1425.00,0.0201
1424.00,0.0197
1423.00,0.0195
1422.00,0.0194
1421.00,0.0192
1420.00,0.0189
1419.00,0.0186
1418.00,0.0183
1417.00,0.0179
1416.00,0.0174
1415.00,0.0171
1414.00,0.0168
1413.00,0.0165
1412.00,0.0162
1411.00,0.0160
1410.00,0.0158
1409.00,0.0156
1408.00,0.0154
1407.00,0.0153
1406.00,0.0153
1405.00,0.0151
1404.00,0.0149
1403.00,0.0149
1402.00,0.0149
1401.00,0.0150
1400.00,0.0150
1399.00,0.0151
1398.00,0.0153
1397.00,0.0154
1396.00,0.0156
1395.00,0.0159
1394.00,0.0162
1393.00,0.0165
1392.00,0.0169
1391.00,0.0176
1390.00,0.0185
1389.00,0.0198
1388.00,0.0217
1387.00,0.0245
1386.00,0.0285
1385.00,0.0337
1384.00,0.0409
1383.00,0.0509
1382.00,0.0642
1381.00,0.0812
1380.00,0.1020
1379.00,0.1258
1378.00,0.1489
1377.00,0.1660
1376.00,0.1719
1375.00,0.1637
1374.00,0.1439
1373.00,0.1198
1372.00,0.0977
1371.00,0.0794
1370.00,0.0648
1369.00,0.0537
1368.00,0.0459
1367.00,0.0411
1366.00,0.0384
1365.00,0.0373
1364.00,0.0374
1363.00,0.0385
1362.00,0.0403
1361.00,0.0423
1360.00,0.0438
1359.00,0.0442
1358.00,0.0433
1357.00,0.0410
1356.00,0.0378
1355.00,0.0342
1354.00,0.0307
1353.00,0.0278
1352.00,0.0254
1351.00,0.0234
1350.00,0.0218
1349.00,0.0204
1348.00,0.0192
1347.00,0.0182
1346.00,0.0173
1345.00,0.0166
1344.00,0.0160
1343.00,0.0156
1342.00,0.0152
1341.00,0.0149
1340.00,0.0146
1339.00,0.0144
1338.00,0.0142
1337.00,0.0140
1336.00,0.0140
1335.00,0.0141
1334.00,0.0143
1333.00,0.0146
1332.00,0.0149
1331.00,0.0152
1330.00,0.0154
1329.00,0.0153
1328.00,0.0150
1327.00,0.0145
1326.00,0.0140
1325.00,0.0135
1324.00,0.0131
1323.00,0.0127
1322.00,0.0123
1321.00,0.0121
1320.00,0.0119
1319.00,0.0117
1318.00,0.0115
1317.00,0.0113
1316.00,0.0112
1315.00,0.0111
1314.00,0.0110
1313.00,0.0111
1312.00,0.0112
1311.00,0.0114
1310.00,0.0118
1309.00,0.0125
1308.00,0.0136
1307.00,0.0149
1306.00,0.0162
1305.00,0.0171
1304.00,0.0173
1303.00,0.0170
1302.00,0.0162
1301.00,0.0155
1300.00,0.0150
1299.00,0.0147
1298.00,0.0145
1297.00,0.0144
1296.00,0.0143
1295.00,0.0140
1294.00,0.0137
1293.00,0.0134
1292.00,0.0130
1291.00,0.0125
1290.00,0.0122
1289.00,0.0118
1288.00,0.0115
1287.00,0.0112
1286.00,0.0110
1285.00,0.0108
1284.00,0.0106
1283.00,0.0105
1282.00,0.0104
1281.00,0.0103
1280.00,0.0103
1279.00,0.0102
1278.00,0.0102
1277.00,0.0101
1276.00,0.0101
1275.00,0.0100
1274.00,0.0101
1273.00,0.0101
1272.00,0.0102
1271.00,0.0104
1270.00,0.0106
1269.00,0.0108
1268.00,0.0111
1267.00,0.0115
1266.00,0.0119
1265.00,0.0123
1264.00,0.0127
1263.00,0.0131
1262.00,0.0135
1261.00,0.0140
1260.00,0.0146
1259.00,0.0153
1258.00,0.0161
1257.00,0.0167
1256.00,0.0169
1255.00,0.0166
1254.00,0.0158
1253.00,0.0148
1252.00,0.0138
1251.00,0.0130
1250.00,0.0124
1249.00,0.0120
1248.00,0.0116
1247.00,0.0114
1246.00,0.0112
1245.00,0.0110
1244.00,0.0109
1243.00,0.0107
1242.00,0.0106
1241.00,0.0105
1240.00,0.0104
1239.00,0.0104
1238.00,0.0105
1237.00,0.0106
1236.00,0.0106
1235.00,0.0106
1234.00,0.0107
1233.00,0.0107
1232.00,0.0108
1231.00,0.0108
1230.00,0.0109
1229.00,0.0111
1228.00,0.0112
1227.00,0.0114
1226.00,0.0116
1225.00,0.0118
1224.00,0.0121
1223.00,0.0124
1222.00,0.0126
1221.00,0.0128
1220.00,0.0129
1219.00,0.0129
1218.00,0.0128
1217.00,0.0128
1216.00,0.0126
1215.00,0.0124
1214.00,0.0122
1213.00,0.0120
1212.00,0.0118
1211.00,0.0116
1210.00,0.0114
1209.00,0.0112
1208.00,0.0111
1207.00,0.0110
1206.00,0.0110
1205.00,0.0110
1204.00,0.0110
1203.00,0.0110
1202.00,0.0110
1201.00,0.0111
1200.00,0.0111
1199.00,0.0112
1198.00,0.0112
1197.00,0.0113
1196.00,0.0114
1195.00,0.0115
1194.00,0.0116
1193.00,0.0117
1192.00,0.0117
1191.00,0.0117
1190.00,0.0117
1189.00,0.0117
1188.00,0.0117
1187.00,0.0118
1186.00,0.0118
1185.00,0.0119
1184.00,0.0119
1183.00,0.0121
1182.00,0.0123
1181.00,0.0126
1180.00,0.0130
1179.00,0.0135
1178.00,0.0141
1177.00,0.0150
1176.00,0.0161
1175.00,0.0177
1174.00,0.0199
1173.00,0.0226
1172.00,0.0259
1171.00,0.0297
1170.00,0.0334
1169.00,0.0365
1168.00,0.0383
1167.00,0.0387
1166.00,0.0377
1165.00,0.0357
1164.00,0.0334
1163.00,0.0311
1162.00,0.0291
1161.00,0.0275
1160.00,0.0262
1159.00,0.0253
1158.00,0.0246
1157.00,0.0241
1156.00,0.0237
1155.00,0.0234
1154.00,0.0231
1153.00,0.0227
1152.00,0.0222
1151.00,0.0215
1150.00,0.0208
1149.00,0.0199
1148.00,0.0190
1147.00,0.0181
1146.00,0.0173
1145.00,0.0165
1144.00,0.0158
1143.00,0.0152
1142.00,0.0147
1141.00,0.0142
1140.00,0.0138
1139.00,0.0135
1138.00,0.0132
1137.00,0.0130
1136.00,0.0129
1135.00,0.0127
1134.00,0.0127
1133.00,0.0126
1132.00,0.0127
1131.00,0.0127
1130.00,0.0128
1129.00,0.0129
1128.00,0.0130
1127.00,0.0131
1126.00,0.0132
1125.00,0.0133
1124.00,0.0133
1123.00,0.0133
1122.00,0.0133
1121.00,0.0134
1120.00,0.0134
1119.00,0.0134
1118.00,0.0135
1117.00,0.0137
1116.00,0.0139
1115.00,0.0141
1114.00,0.0142
1113.00,0.0143
1112.00,0.0145
1111.00,0.0146
1110.00,0.0147
1109.00,0.0149
1108.00,0.0153
1107.00,0.0157
1106.00,0.0163
1105.00,0.0168
1104.00,0.0172
1103.00,0.0174
1102.00,0.0174
1101.00,0.0172
1100.00,0.0167
1099.00,0.0161
1098.00,0.0155
1097.00,0.0150
1096.00,0.0146
1095.00,0.0142
1094.00,0.0140
1093.00,0.0138
1092.00,0.0136
1091.00,0.0134
1090.00,0.0132
1089.00,0.0130
1088.00,0.0128
1087.00,0.0126
1086.00,0.0125
1085.00,0.0124
1084.00,0.0124
1083.00,0.0124
1082.00,0.0123
1081.00,0.0122
1080.00,0.0119
1079.00,0.0118
1078.00,0.0117
1077.00,0.0116
1076.00,0.0116
1075.00,0.0115
1074.00,0.0114
1073.00,0.0113
1072.00,0.0113
1071.00,0.0113
1070.00,0.0113
1069.00,0.0114
1068.00,0.0114
1067.00,0.0114
1066.00,0.0115
1065.00,0.0115
1064.00,0.0116
1063.00,0.0117
1062.00,0.0117
1061.00,0.0118
1060.00,0.0119
1059.00,0.0120
1058.00,0.0123
1057.00,0.0125
1056.00,0.0127
1055.00,0.0129
1054.00,0.0131
1053.00,0.0133
1052.00,0.0137
1051.00,0.0141
1050.00,0.0145
1049.00,0.0150
1048.00,0.0155
1047.00,0.0161
1046.00,0.0165
1045.00,0.0168
1044.00,0.0169
1043.00,0.0168
1042.00,0.0166
1041.00,0.0163
1040.00,0.0161
1039.00,0.0160
1038.00,0.0160
1037.00,0.0160
1036.00,0.0160
1035.00,0.0159
1034.00,0.0157
1033.00,0.0153
1032.00,0.0149
1031.00,0.0146
1030.00,0.0144
1029.00,0.0142
1028.00,0.0142
1027.00,0.0143
1026.00,0.0144
1025.00,0.0145
1024.00,0.0147
1023.00,0.0149
1022.00,0.0151
1021.00,0.0154
1020.00,0.0156
1019.00,0.0159
1018.00,0.0161
1017.00,0.0163
1016.00,0.0165
1015.00,0.0167
1014.00,0.0168
1013.00,0.0170
1012.00,0.0170
1011.00,0.0170
1010.00,0.0169
1009.00,0.0169
1008.00,0.0170
1007.00,0.0174
1006.00,0.0180
1005.00,0.0190
1004.00,0.0206
1003.00,0.0230
1002.00,0.0265
1001.00,0.0309
1000.00,0.0358
999.00,0.0399
998.00,0.0420
997.00,0.0413
996.00,0.0381
995.00,0.0334
994.00,0.0285
993.00,0.0243
992.00,0.0210
991.00,0.0185
990.00,0.0168
989.00,0.0155
988.00,0.0147
987.00,0.0141
986.00,0.0139
985.00,0.0141
984.00,0.0145
983.00,0.0152
982.00,0.0162
981.00,0.0176
980.00,0.0197
979.00,0.0227
978.00,0.0264
977.00,0.0310
976.00,0.0361
975.00,0.0412
974.00,0.0453
973.00,0.0473
972.00,0.0462
971.00,0.0422
970.00,0.0364
969.00,0.0303
968.00,0.0251
967.00,0.0210
966.00,0.0182
965.00,0.0161
964.00,0.0147
963.00,0.0137
962.00,0.0129
961.00,0.0123
960.00,0.0119
959.00,0.0115
958.00,0.0112
957.00,0.0109
956.00,0.0106
955.00,0.0104
954.00,0.0102
953.00,0.0101
952.00,0.0100
951.00,0.0099
950.00,0.0098
949.00,0.0096
948.00,0.0094
947.00,0.0094
946.00,0.0095
945.00,0.0097
944.00,0.0099
943.00,0.0101
942.00,0.0104
941.00,0.0106
940.00,0.0107
939.00,0.0106
938.00,0.0102
937.00,0.0097
936.00,0.0093
935.00,0.0089
934.00,0.0086
933.00,0.0083
932.00,0.0081
931.00,0.0080
930.00,0.0078
929.00,0.0077
928.00,0.0076
927.00,0.0075
926.00,0.0075
925.00,0.0074
924.00,0.0074
923.00,0.0073
922.00,0.0073
921.00,0.0074
920.00,0.0074
919.00,0.0074
918.00,0.0074
917.00,0.0074
916.00,0.0074
915.00,0.0075
914.00,0.0076
913.00,0.0077
912.00,0.0078
911.00,0.0078
910.00,0.0079
909.00,0.0080
908.00,0.0082
907.00,0.0086
906.00,0.0092
905.00,0.0100
904.00,0.0112
903.00,0.0128
902.00,0.0147
901.00,0.0163
900.00,0.0174
899.00,0.0177
898.00,0.0171
897.00,0.0158
896.00,0.0142
895.00,0.0126
894.00,0.0112
893.00,0.0102
892.00,0.0095
891.00,0.0092
890.00,0.0090
889.00,0.0089
888.00,0.0088
887.00,0.0087
886.00,0.0087
885.00,0.0086
884.00,0.0086
883.00,0.0087
882.00,0.0088
881.00,0.0088
880.00,0.0089
879.00,0.0090
878.00,0.0092
877.00,0.0093
876.00,0.0094
875.00,0.0094
874.00,0.0094
873.00,0.0094
872.00,0.0092
871.00,0.0091
870.00,0.0089
869.00,0.0087
868.00,0.0086
867.00,0.0085
866.00,0.0087
865.00,0.0088
864.00,0.0090
863.00,0.0091
862.00,0.0092
861.00,0.0093
860.00,0.0095
859.00,0.0097
858.00,0.0099
857.00,0.0100
856.00,0.0102
855.00,0.0105
854.00,0.0108
853.00,0.0110
852.00,0.0113
851.00,0.0116
850.00,0.0121
849.00,0.0129
848.00,0.0139
847.00,0.0154
846.00,0.0177
845.00,0.0213
844.00,0.0265
843.00,0.0331
842.00,0.0389
841.00,0.0415
840.00,0.0394
839.00,0.0338
838.00,0.0273
837.00,0.0220
836.00,0.0186
835.00,0.0166
834.00,0.0154
833.00,0.0145
832.00,0.0138
831.00,0.0132
830.00,0.0127
829.00,0.0123
828.00,0.0121
827.00,0.0119
826.00,0.0117
825.00,0.0116
824.00,0.0116
823.00,0.0117
822.00,0.0119
821.00,0.0121
820.00,0.0123
819.00,0.0125
818.00,0.0127
817.00,0.0131
816.00,0.0137
815.00,0.0147
814.00,0.0160
813.00,0.0177
812.00,0.0195
811.00,0.0212
810.00,0.0225
809.00,0.0230
808.00,0.0227
807.00,0.0215
806.00,0.0200
805.00,0.0183
804.00,0.0170
803.00,0.0159
802.00,0.0150
801.00,0.0143
800.00,0.0137
799.00,0.0130
798.00,0.0125
797.00,0.0120
796.00,0.0117
795.00,0.0114
794.00,0.0111
793.00,0.0108
792.00,0.0104
791.00,0.0100
790.00,0.0097
789.00,0.0094
788.00,0.0093
787.00,0.0091
786.00,0.0090
785.00,0.0089
784.00,0.0087
783.00,0.0086
782.00,0.0083
781.00,0.0082
780.00,0.0081
779.00,0.0080
778.00,0.0081
777.00,0.0081
776.00,0.0081
775.00,0.0081
774.00,0.0081
773.00,0.0082
772.00,0.0082
771.00,0.0082
770.00,0.0082
769.00,0.0082
768.00,0.0082
767.00,0.0083
766.00,0.0083
765.00,0.0083
764.00,0.0082
763.00,0.0082
762.00,0.0082
761.00,0.0082
760.00,0.0082
759.00,0.0083
758.00,0.0085
757.00,0.0087
756.00,0.0088
755.00,0.0090
754.00,0.0092
753.00,0.0094
752.00,0.0095
751.00,0.0094
750.00,0.0094
749.00,0.0095
748.00,0.0097
747.00,0.0100
746.00,0.0103
745.00,0.0106
744.00,0.0109
743.00,0.0112
742.00,0.0115
741.00,0.0118
740.00,0.0120
739.00,0.0124
738.00,0.0127
737.00,0.0132
736.00,0.0137
735.00,0.0141
734.00,0.0146
733.00,0.0151
732.00,0.0159
731.00,0.0168
730.00,0.0177
729.00,0.0183
728.00,0.0185
727.00,0.0186
726.00,0.0186
725.00,0.0190
724.00,0.0195
723.00,0.0202
722.00,0.0209
721.00,0.0214
720.00,0.0212
719.00,0.0204
718.00,0.0190
717.00,0.0174
716.00,0.0161
715.00,0.0151
714.00,0.0145
713.00,0.0140
712.00,0.0135
711.00,0.0132
710.00,0.0129
709.00,0.0127
708.00,0.0127
707.00,0.0127
706.00,0.0128
705.00,0.0128
704.00,0.0127
703.00,0.0126
702.00,0.0125
701.00,0.0123
700.00,0.0121
699.00,0.0121
698.00,0.0121
697.00,0.0122
696.00,0.0124
695.00,0.0125
694.00,0.0126
693.00,0.0126
692.00,0.0125
691.00,0.0124
690.00,0.0123
689.00,0.0123
688.00,0.0123
687.00,0.0123
686.00,0.0123
685.00,0.0122
684.00,0.0122
683.00,0.0123
682.00,0.0123
681.00,0.0122
680.00,0.0120
679.00,0.0119
678.00,0.0120
677.00,0.0124
676.00,0.0128
675.00,0.0131
674.00,0.0132
673.00,0.0133
672.00,0.0134
671.00,0.0137
670.00,0.0140
669.00,0.0143
668.00,0.0141
667.00,0.0137
666.00,0.0131
665.00,0.0127
664.00,0.0124
663.00,0.0122
662.00,0.0120
661.00,0.0118
660.00,0.0116
659.00,0.0114
658.00,0.0111
657.00,0.0110
656.00,0.0109
655.00,0.0110
654.00,0.0111
653.00,0.0112
652.00,0.0111
651.00,0.0111
650.00,0.0110
649.00,0.0109
648.00,0.0108
647.00,0.0107
646.00,0.0107
645.00,0.0107
644.00,0.0107
643.00,0.0107
642.00,0.0107
641.00,0.0108
640.00,0.0108
639.00,0.0108
638.00,0.0108
637.00,0.0108
636.00,0.0108
635.00,0.0108
634.00,0.0107
633.00,0.0108
632.00,0.0109
631.00,0.0110
630.00,0.0112
629.00,0.0114
628.00,0.0114
627.00,0.0113
626.00,0.0111
625.00,0.0110
624.00,0.0109
623.00,0.0111
622.00,0.0115
621.00,0.0118
620.00,0.0120
619.00,0.0119
618.00,0.0116
617.00,0.0114
616.00,0.0114
615.00,0.0116
614.00,0.0118
613.00,0.0117
612.00,0.0115
611.00,0.0113
610.00,0.0111
609.00,0.0109
608.00,0.0108
607.00,0.0108
606.00,0.0109
605.00,0.0108
604.00,0.0107
603.00,0.0106
602.00,0.0106
601.00,0.0107
600.00,0.0110
599.00,0.0112
598.00,0.0115
597.00,0.0116
596.00,0.0115
595.00,0.0114
594.00,0.0111
593.00,0.0109
592.00,0.0108
591.00,0.0108
590.00,0.0109
589.00,0.0111
588.00,0.0112
587.00,0.0114
586.00,0.0114
585.00,0.0114
584.00,0.0112
583.00,0.0111
582.00,0.0111
581.00,0.0111
580.00,0.0113
579.00,0.0114
578.00,0.0116
577.00,0.0119
576.00,0.0122
575.00,0.0123
574.00,0.0122
573.00,0.0119
572.00,0.0117
571.00,0.0116
570.00,0.0116
569.00,0.0117
568.00,0.0116
567.00,0.0115
566.00,0.0113
565.00,0.0112
564.00,0.0112
563.00,0.0113
562.00,0.0113
561.00,0.0112
560.00,0.0111
559.00,0.0111
558.00,0.0115
557.00,0.0122
556.00,0.0128
555.00,0.0132
554.00,0.0131
553.00,0.0127
552.00,0.0120
551.00,0.0116
550.00,0.0114
549.00,0.0115
548.00,0.0117
547.00,0.0118
546.00,0.0117
545.00,0.0115
544.00,0.0112
543.00,0.0110
542.00,0.0110
541.00,0.0112
540.00,0.0115
539.00,0.0118
538.00,0.0121
537.00,0.0126
536.00,0.0133
535.00,0.0141
534.00,0.0146
533.00,0.0147
532.00,0.0145
531.00,0.0143
530.00,0.0144
529.00,0.0144
528.00,0.0141
527.00,0.0135
526.00,0.0129
525.00,0.0125
524.00,0.0121
523.00,0.0120
522.00,0.0121
521.00,0.0122
520.00,0.0121
519.00,0.0117
518.00,0.0110
517.00,0.0107
516.00,0.0105
515.00,0.0105
514.00,0.0103
513.00,0.0103
512.00,0.0104
511.00,0.0105
510.00,0.0104
509.00,0.0103
508.00,0.0101
507.00,0.0101
506.00,0.0105
505.00,0.0110
504.00,0.0115
503.00,0.0117
502.00,0.0115
501.00,0.0110
500.00,0.0104
499.00,0.0099
498.00,0.0095
497.00,0.0094
496.00,0.0095
495.00,0.0097
494.00,0.0098
493.00,0.0098
492.00,0.0101
491.00,0.0109
490.00,0.0116
489.00,0.0118
488.00,0.0117
487.00,0.0117
486.00,0.0120
485.00,0.0122
484.00,0.0123
483.00,0.0127
482.00,0.0134
481.00,0.0139
480.00,0.0141
479.00,0.0142
478.00,0.0144
477.00,0.0146
476.00,0.0144
475.00,0.0141
474.00,0.0138
473.00,0.0136
472.00,0.0131
471.00,0.0130
470.00,0.0138
469.00,0.0157
468.00,0.0179
467.00,0.0198
466.00,0.0211
465.00,0.0218
464.00,0.0220
463.00,0.0214
462.00,0.0204
461.00,0.0195
460.00,0.0188
459.00,0.0183
458.00,0.0183
457.00,0.0187
456.00,0.0197
455.00,0.0207
454.00,0.0214
453.00,0.0214
452.00,0.0206
451.00,0.0190
450.00,0.0172
