Created as New Dataset,Sample 011 By Administrator Date Thursday, September 04 2025
cm-1,A
4000.00,0.0010
3999.00,0.0010
3998.00,0.0010
3997.00,0.0010
3996.00,0.0010
3995.00,0.0010
3994.00,0.0010
3993.00,0.0010
3992.00,0.0010
3991.00,0.0010
3990.00,0.0010
3989.00,0.0010
3988.00,0.0010
3987.00,0.0010
3986.00,0.0010
3985.00,0.0010
3984.00,0.0009
3983.00,0.0009
3982.00,0.0009
3981.00,0.0008
3980.00,0.0008
3979.00,0.0008
3978.00,0.0008
3977.00,0.0008
3976.00,0.0007
3975.00,0.0007
3974.00,0.0007
3973.00,0.0007
3972.00,0.0008
3971.00,0.0008
3970.00,0.0008
3969.00,0.0008
3968.00,0.0008
3967.00,0.0008
3966.00,0.0008
3965.00,0.0008
3964.00,0.0008
3963.00,0.0008
3962.00,0.0008
3961.00,0.0007
3960.00,0.0007
3959.00,0.0007
3958.00,0.0007
3957.00,0.0007
3956.00,0.0007
3955.00,0.0007
3954.00,0.0007
3953.00,0.0007
3952.00,0.0007
3951.00,0.0007
3950.00,0.0007
3949.00,0.0007
3948.00,0.0007
3947.00,0.0007
3946.00,0.0007
3945.00,0.0007
3944.00,0.0007
3943.00,0.0007
3942.00,0.0007
3941.00,0.0007
3940.00,0.0007
3939.00,0.0008
3938.00,0.0008
3937.00,0.0008
3936.00,0.0009
3935.00,0.0009
3934.00,0.0009
3933.00,0.0009
3932.00,0.0008
3931.00,0.0008
3930.00,0.0007
3929.00,0.0007
3928.00,0.0007
3927.00,0.0007
3926.00,0.0008
3925.00,0.0008
3924.00,0.0008
3923.00,0.0008
3922.00,0.0008
3921.00,0.0008
3920.00,0.0008
3919.00,0.0008
3918.00,0.0009
3917.00,0.0008
3916.00,0.0008
3915.00,0.0008
3914.00,0.0007
3913.00,0.0007
3912.00,0.0008
3911.00,0.0008
3910.00,0.0008
3909.00,0.0008
3908.00,0.0008
3907.00,0.0008
3906.00,0.0008
3905.00,0.0008
3904.00,0.0007
3903.00,0.0007
3902.00,0.0006
3901.00,0.0006
3900.00,0.0006
3899.00,0.0006
3898.00,0.0006
3897.00,0.0006
3896.00,0.0006
3895.00,0.0006
3894.00,0.0006
3893.00,0.0007
3892.00,0.0007
3891.00,0.0007
3890.00,0.0006
3889.00,0.0006
3888.00,0.0006
3887.00,0.0006
3886.00,0.0006
3885.00,0.0006
3884.00,0.0006
3883.00,0.0006
3882.00,0.0006
3881.00,0.0007
3880.00,0.0007
3879.00,0.0007
3878.00,0.0007
3877.00,0.0007
3876.00,0.0007
3875.00,0.0007
3874.00,0.0007
3873.00,0.0006
3872.00,0.0006
3871.00,0.0007
3870.00,0.0007
3869.00,0.0007
3868.00,0.0006
3867.00,0.0006
3866.00,0.0006
3865.00,0.0006
3864.00,0.0005
3863.00,0.0005
3862.00,0.0005
3861.00,0.0006
3860.00,0.0006
3859.00,0.0006
3858.00,0.0006
3857.00,0.0006
3856.00,0.0005
3855.00,0.0005
3854.00,0.0005
3853.00,0.0005
3852.00,0.0005
3851.00,0.0005
3850.00,0.0005
3849.00,0.0006
3848.00,0.0006
3847.00,0.0007
3846.00,0.0007
3845.00,0.0007
3844.00,0.0008
3843.00,0.0008
3842.00,0.0007
3841.00,0.0007
3840.00,0.0006
3839.00,0.0006
3838.00,0.0006
3837.00,0.0005
3836.00,0.0005
3835.00,0.0005
3834.00,0.0005
3833.00,0.0006
3832.00,0.0006
3831.00,0.0007
3830.00,0.0007
3829.00,0.0007
3828.00,0.0007
3827.00,0.0007
3826.00,0.0007
3825.00,0.0006
3824.00,0.0006
3823.00,0.0006
3822.00,0.0007
3821.00,0.0007
3820.00,0.0006
3819.00,0.0006
3818.00,0.0005
3817.00,0.0006
3816.00,0.0006
3815.00,0.0007
3814.00,0.0007
3813.00,0.0007
3812.00,0.0007
3811.00,0.0007
3810.00,0.0007
3809.00,0.0007
3808.00,0.0007
3807.00,0.0007
3806.00,0.0006
3805.00,0.0006
3804.00,0.0005
3803.00,0.0006
3802.00,0.0006
3801.00,0.0006
3800.00,0.0006
3799.00,0.0006
3798.00,0.0006
3797.00,0.0007
3796.00,0.0007
3795.00,0.0007
3794.00,0.0007
3793.00,0.0007
3792.00,0.0007
3791.00,0.0007
3790.00,0.0007
3789.00,0.0007
3788.00,0.0007
3787.00,0.0008
3786.00,0.0008
3785.00,0.0007
3784.00,0.0007
3783.00,0.0006
3782.00,0.0006
3781.00,0.0006
3780.00,0.0007
3779.00,0.0007
3778.00,0.0008
3777.00,0.0008
3776.00,0.0008
3775.00,0.0008
3774.00,0.0008
3773.00,0.0008
3772.00,0.0008
3771.00,0.0008
3770.00,0.0008
3769.00,0.0008
3768.00,0.0008
3767.00,0.0008
3766.00,0.0008
3765.00,0.0008
3764.00,0.0008
3763.00,0.0008
3762.00,0.0008
3761.00,0.0008
3760.00,0.0008
3759.00,0.0008
3758.00,0.0007
3757.00,0.0007
3756.00,0.0007
3755.00,0.0007
3754.00,0.0007
3753.00,0.0007
3752.00,0.0006
3751.00,0.0006
3750.00,0.0005
3749.00,0.0005
3748.00,0.0004
3747.00,0.0004
3746.00,0.0004
3745.00,0.0005
3744.00,0.0005
3743.00,0.0005
3742.00,0.0005
3741.00,0.0005
3740.00,0.0006
3739.00,0.0006
3738.00,0.0006
3737.00,0.0005
3736.00,0.0005
3735.00,0.0005
3734.00,0.0005
3733.00,0.0005
3732.00,0.0006
3731.00,0.0006
3730.00,0.0006
3729.00,0.0006
3728.00,0.0006
3727.00,0.0006
3726.00,0.0006
3725.00,0.0005
3724.00,0.0005
3723.00,0.0005
3722.00,0.0005
3721.00,0.0005
3720.00,0.0005
3719.00,0.0005
3718.00,0.0005
3717.00,0.0006
3716.00,0.0006
3715.00,0.0006
3714.00,0.0006
3713.00,0.0006
3712.00,0.0006
3711.00,0.0006
3710.00,0.0006
3709.00,0.0005
3708.00,0.0005
3707.00,0.0005
3706.00,0.0004
3705.00,0.0004
3704.00,0.0005
3703.00,0.0005
3702.00,0.0005
3701.00,0.0005
3700.00,0.0005
3699.00,0.0005
3698.00,0.0005
3697.00,0.0005
3696.00,0.0005
3695.00,0.0005
3694.00,0.0004
3693.00,0.0004
3692.00,0.0004
3691.00,0.0004
3690.00,0.0004
3689.00,0.0004
3688.00,0.0004
3687.00,0.0004
3686.00,0.0004
3685.00,0.0005
3684.00,0.0005
3683.00,0.0006
3682.00,0.0006
3681.00,0.0007
3680.00,0.0007
3679.00,0.0008
3678.00,0.0007
3677.00,0.0007
3676.00,0.0006
3675.00,0.0005
3674.00,0.0004
3673.00,0.0003
3672.00,0.0002
3671.00,0.0002
3670.00,0.0003
3669.00,0.0003
3668.00,0.0003
3667.00,0.0003
3666.00,0.0003
3665.00,0.0003
3664.00,0.0004
3663.00,0.0004
3662.00,0.0004
3661.00,0.0004
3660.00,0.0004
3659.00,0.0004
3658.00,0.0004
3657.00,0.0005
3656.00,0.0005
3655.00,0.0005
3654.00,0.0005
3653.00,0.0005
3652.00,0.0005
3651.00,0.0005
3650.00,0.0005
3649.00,0.0004
3648.00,0.0003
3647.00,0.0003
3646.00,0.0003
3645.00,0.0004
3644.00,0.0004
3643.00,0.0004
3642.00,0.0004
3641.00,0.0004
3640.00,0.0003
3639.00,0.0003
3638.00,0.0004
3637.00,0.0004
3636.00,0.0005
3635.00,0.0005
3634.00,0.0005
3633.00,0.0005
3632.00,0.0004
3631.00,0.0004
3630.00,0.0003
3629.00,0.0003
3628.00,0.0004
3627.00,0.0004
3626.00,0.0004
3625.00,0.0004
3624.00,0.0004
3623.00,0.0004
3622.00,0.0004
3621.00,0.0004
3620.00,0.0004
3619.00,0.0004
3618.00,0.0004
3617.00,0.0004
3616.00,0.0004
3615.00,0.0005
3614.00,0.0005
3613.00,0.0005
3612.00,0.0004
3611.00,0.0004
3610.00,0.0004
3609.00,0.0004
3608.00,0.0004
3607.00,0.0005
3606.00,0.0005
3605.00,0.0005
3604.00,0.0005
3603.00,0.0005
3602.00,0.0005
3601.00,0.0005
3600.00,0.0006
3599.00,0.0006
3598.00,0.0006
3597.00,0.0006
3596.00,0.0006
3595.00,0.0006
3594.00,0.0005
3593.00,0.0005
3592.00,0.0006
3591.00,0.0006
3590.00,0.0006
3589.00,0.0006
3588.00,0.0006
3587.00,0.0006
3586.00,0.0005
3585.00,0.0005
3584.00,0.0005
3583.00,0.0006
3582.00,0.0006
3581.00,0.0006
3580.00,0.0007
3579.00,0.0007
3578.00,0.0007
3577.00,0.0006
3576.00,0.0006
3575.00,0.0006
3574.00,0.0007
3573.00,0.0007
3572.00,0.0007
3571.00,0.0007
3570.00,0.0007
3569.00,0.0007
3568.00,0.0007
3567.00,0.0006
3566.00,0.0006
3565.00,0.0007
3564.00,0.0007
3563.00,0.0007
3562.00,0.0007
3561.00,0.0007
3560.00,0.0007
3559.00,0.0007
3558.00,0.0007
3557.00,0.0007
3556.00,0.0007
3555.00,0.0007
3554.00,0.0008
3553.00,0.0008
3552.00,0.0008
3551.00,0.0008
3550.00,0.0008
3549.00,0.0008
3548.00,0.0009
3547.00,0.0009
3546.00,0.0009
3545.00,0.0009
3544.00,0.0009
3543.00,0.0009
3542.00,0.0010
3541.00,0.0010
3540.00,0.0010
3539.00,0.0010
3538.00,0.0010
3537.00,0.0010
3536.00,0.0010
3535.00,0.0011
3534.00,0.0011
3533.00,0.0012
3532.00,0.0012
3531.00,0.0011
3530.00,0.0011
3529.00,0.0011
3528.00,0.0011
3527.00,0.0012
3526.00,0.0012
3525.00,0.0012
3524.00,0.0012
3523.00,0.0011
3522.00,0.0011
3521.00,0.0012
3520.00,0.0012
3519.00,0.0012
3518.00,0.0012
3517.00,0.0013
3516.00,0.0013
3515.00,0.0013
3514.00,0.0013
3513.00,0.0013
3512.00,0.0013
3511.00,0.0013
3510.00,0.0013
3509.00,0.0014
3508.00,0.0014
3507.00,0.0014
3506.00,0.0014
3505.00,0.0014
3504.00,0.0014
3503.00,0.0014
3502.00,0.0014
3501.00,0.0014
3500.00,0.0014
3499.00,0.0014
3498.00,0.0015
3497.00,0.0015
3496.00,0.0015
3495.00,0.0015
3494.00,0.0014
3493.00,0.0014
3492.00,0.0014
3491.00,0.0014
3490.00,0.0014
3489.00,0.0015
3488.00,0.0015
3487.00,0.0015
3486.00,0.0016
3485.00,0.0016
3484.00,0.0016
3483.00,0.0016
3482.00,0.0016
3481.00,0.0016
3480.00,0.0017
3479.00,0.0017
3478.00,0.0017
3477.00,0.0017
3476.00,0.0017
3475.00,0.0017
3474.00,0.0018
3473.00,0.0018
3472.00,0.0018
3471.00,0.0018
3470.00,0.0018
3469.00,0.0018
3468.00,0.0018
3467.00,0.0018
3466.00,0.0018
3465.00,0.0018
3464.00,0.0018
3463.00,0.0018
3462.00,0.0018
3461.00,0.0018
3460.00,0.0018
3459.00,0.0018
3458.00,0.0018
3457.00,0.0018
3456.00,0.0019
3455.00,0.0019
3454.00,0.0019
3453.00,0.0020
3452.00,0.0020
3451.00,0.0020
3450.00,0.0020
3449.00,0.0020
3448.00,0.0020
3447.00,0.0020
3446.00,0.0020
3445.00,0.0020
3444.00,0.0020
3443.00,0.0020
3442.00,0.0020
3441.00,0.0020
3440.00,0.0020
3439.00,0.0021
3438.00,0.0021
3437.00,0.0021
3436.00,0.0021
3435.00,0.0021
3434.00,0.0021
3433.00,0.0021
3432.00,0.0021
3431.00,0.0022
3430.00,0.0022
3429.00,0.0023
3428.00,0.0023
3427.00,0.0023
3426.00,0.0023
3425.00,0.0023
3424.00,0.0023
3423.00,0.0023
3422.00,0.0023
3421.00,0.0024
3420.00,0.0024
3419.00,0.0024
3418.00,0.0024
3417.00,0.0024
3416.00,0.0024
3415.00,0.0024
3414.00,0.0024
3413.00,0.0024
3412.00,0.0024
3411.00,0.0024
3410.00,0.0024
3409.00,0.0024
3408.00,0.0024
3407.00,0.0024
3406.00,0.0024
3405.00,0.0024
3404.00,0.0024
3403.00,0.0025
3402.00,0.0025
3401.00,0.0024
3400.00,0.0024
3399.00,0.0024
3398.00,0.0024
3397.00,0.0024
3396.00,0.0024
3395.00,0.0024
3394.00,0.0024
3393.00,0.0024
3392.00,0.0025
3391.00,0.0025
3390.00,0.0025
3389.00,0.0024
3388.00,0.0024
3387.00,0.0024
3386.00,0.0024
3385.00,0.0025
3384.00,0.0025
3383.00,0.0025
3382.00,0.0025
3381.00,0.0025
3380.00,0.0025
3379.00,0.0024
3378.00,0.0024
3377.00,0.0024
3376.00,0.0025
3375.00,0.0025
3374.00,0.0025
3373.00,0.0025
3372.00,0.0025
3371.00,0.0025
3370.00,0.0025
3369.00,0.0026
3368.00,0.0026
3367.00,0.0026
3366.00,0.0026
3365.00,0.0026
3364.00,0.0026
3363.00,0.0026
3362.00,0.0026
3361.00,0.0026
3360.00,0.0026
3359.00,0.0026
3358.00,0.0027
3357.00,0.0027
3356.00,0.0027
3355.00,0.0027
3354.00,0.0027
3353.00,0.0027
3352.00,0.0027
3351.00,0.0027
3350.00,0.0027
3349.00,0.0027
3348.00,0.0027
3347.00,0.0027
3346.00,0.0028
3345.00,0.0027
3344.00,0.0027
3343.00,0.0027
3342.00,0.0026
3341.00,0.0026
3340.00,0.0027
3339.00,0.0027
3338.00,0.0027
3337.00,0.0027
3336.00,0.0026
3335.00,0.0026
3334.00,0.0026
3333.00,0.0026
3332.00,0.0026
3331.00,0.0026
3330.00,0.0026
3329.00,0.0026
3328.00,0.0026
3327.00,0.0026
3326.00,0.0026
3325.00,0.0026
3324.00,0.0025
3323.00,0.0025
3322.00,0.0026
3321.00,0.0026
3320.00,0.0026
3319.00,0.0026
3318.00,0.0026
3317.00,0.0026
3316.00,0.0027
3315.00,0.0027
3314.00,0.0027
3313.00,0.0027
3312.00,0.0027
3311.00,0.0027
3310.00,0.0027
3309.00,0.0027
3308.00,0.0027
3307.00,0.0028
3306.00,0.0028
3305.00,0.0028
3304.00,0.0029
3303.00,0.0029
3302.00,0.0029
3301.00,0.0029
3300.00,0.0030
3299.00,0.0029
3298.00,0.0029
3297.00,0.0028
3296.00,0.0027
3295.00,0.0026
3294.00,0.0026
3293.00,0.0026
3292.00,0.0026
3291.00,0.0026
3290.00,0.0026
3289.00,0.0026
3288.00,0.0025
3287.00,0.0025
3286.00,0.0025
3285.00,0.0025
3284.00,0.0025
3283.00,0.0025
3282.00,0.0025
3281.00,0.0025
3280.00,0.0025
3279.00,0.0026
3278.00,0.0026
3277.00,0.0026
3276.00,0.0025
3275.00,0.0024
3274.00,0.0024
3273.00,0.0024
3272.00,0.0024
3271.00,0.0025
3270.00,0.0025
3269.00,0.0024
3268.00,0.0024
3267.00,0.0024
3266.00,0.0024
3265.00,0.0024
3264.00,0.0024
3263.00,0.0024
3262.00,0.0024
3261.00,0.0024
3260.00,0.0024
3259.00,0.0024
3258.00,0.0024
3257.00,0.0024
3256.00,0.0023
3255.00,0.0023
3254.00,0.0023
3253.00,0.0023
3252.00,0.0023
3251.00,0.0023
3250.00,0.0023
3249.00,0.0022
3248.00,0.0022
3247.00,0.0022
3246.00,0.0021
3245.00,0.0022
3244.00,0.0022
3243.00,0.0023
3242.00,0.0023
3241.00,0.0024
3240.00,0.0024
3239.00,0.0024
3238.00,0.0024
3237.00,0.0024
3236.00,0.0023
3235.00,0.0023
3234.00,0.0023
3233.00,0.0023
3232.00,0.0024
3231.00,0.0024
3230.00,0.0024
3229.00,0.0024
3228.00,0.0024
3227.00,0.0024
3226.00,0.0025
3225.00,0.0025
3224.00,0.0025
3223.00,0.0025
3222.00,0.0026
3221.00,0.0026
3220.00,0.0026
3219.00,0.0026
3218.00,0.0026
3217.00,0.0026
3216.00,0.0026
3215.00,0.0026
3214.00,0.0026
3213.00,0.0027
3212.00,0.0027
3211.00,0.0028
3210.00,0.0028
3209.00,0.0028
3208.00,0.0029
3207.00,0.0029
3206.00,0.0029
3205.00,0.0029
3204.00,0.0029
3203.00,0.0029
3202.00,0.0029
3201.00,0.0029
3200.00,0.0029
3199.00,0.0029
3198.00,0.0029
3197.00,0.0029
3196.00,0.0029
3195.00,0.0029
3194.00,0.0029
3193.00,0.0029
3192.00,0.0029
3191.00,0.0028
3190.00,0.0028
3189.00,0.0028
3188.00,0.0027
3187.00,0.0027
3186.00,0.0027
3185.00,0.0027
3184.00,0.0027
3183.00,0.0027
3182.00,0.0027
3181.00,0.0027
3180.00,0.0027
3179.00,0.0027
3178.00,0.0027
3177.00,0.0027
3176.00,0.0027
3175.00,0.0027
3174.00,0.0027
3173.00,0.0026
3172.00,0.0026
3171.00,0.0026
3170.00,0.0026
3169.00,0.0026
3168.00,0.0026
3167.00,0.0026
3166.00,0.0026
3165.00,0.0026
3164.00,0.0026
3163.00,0.0026
3162.00,0.0025
3161.00,0.0026
3160.00,0.0026
3159.00,0.0026
3158.00,0.0026
3157.00,0.0026
3156.00,0.0025
3155.00,0.0025
3154.00,0.0025
3153.00,0.0026
3152.00,0.0026
3151.00,0.0026
3150.00,0.0025
3149.00,0.0025
3148.00,0.0025
3147.00,0.0025
3146.00,0.0025
3145.00,0.0026
3144.00,0.0026
3143.00,0.0026
3142.00,0.0026
3141.00,0.0026
3140.00,0.0026
3139.00,0.0026
3138.00,0.0026
3137.00,0.0025
3136.00,0.0025
3135.00,0.0025
3134.00,0.0025
3133.00,0.0025
3132.00,0.0024
3131.00,0.0023
3130.00,0.0023
3129.00,0.0023
3128.00,0.0024
3127.00,0.0024
3126.00,0.0024
3125.00,0.0024
3124.00,0.0024
3123.00,0.0023
3122.00,0.0023
3121.00,0.0023
3120.00,0.0022
3119.00,0.0022
3118.00,0.0022
3117.00,0.0022
3116.00,0.0022
3115.00,0.0023
3114.00,0.0023
3113.00,0.0022
3112.00,0.0022
3111.00,0.0022
3110.00,0.0022
3109.00,0.0022
3108.00,0.0022
3107.00,0.0022
3106.00,0.0022
3105.00,0.0022
3104.00,0.0021
3103.00,0.0021
3102.00,0.0021
3101.00,0.0022
3100.00,0.0022
3099.00,0.0022
3098.00,0.0022
3097.00,0.0022
3096.00,0.0021
3095.00,0.0021
3094.00,0.0021
3093.00,0.0021
3092.00,0.0021
3091.00,0.0021
3090.00,0.0021
3089.00,0.0021
3088.00,0.0021
3087.00,0.0021
3086.00,0.0021
3085.00,0.0021
3084.00,0.0021
3083.00,0.0021
3082.00,0.0021
3081.00,0.0021
3080.00,0.0022
3079.00,0.0022
3078.00,0.0022
3077.00,0.0022
3076.00,0.0022
3075.00,0.0023
3074.00,0.0023
3073.00,0.0023
3072.00,0.0023
3071.00,0.0023
3070.00,0.0023
3069.00,0.0023
3068.00,0.0023
3067.00,0.0024
3066.00,0.0024
3065.00,0.0024
3064.00,0.0024
3063.00,0.0025
3062.00,0.0025
3061.00,0.0025
3060.00,0.0025
3059.00,0.0025
3058.00,0.0025
3057.00,0.0025
3056.00,0.0025
3055.00,0.0025
3054.00,0.0025
3053.00,0.0025
3052.00,0.0025
3051.00,0.0025
3050.00,0.0026
3049.00,0.0026
3048.00,0.0026
3047.00,0.0027
3046.00,0.0027
3045.00,0.0027
3044.00,0.0027
3043.00,0.0027
3042.00,0.0027
3041.00,0.0028
3040.00,0.0028
3039.00,0.0028
3038.00,0.0029
3037.00,0.0029
3036.00,0.0029
3035.00,0.0030
3034.00,0.0030
3033.00,0.0030
3032.00,0.0031
3031.00,0.0032
3030.00,0.0032
3029.00,0.0033
3028.00,0.0033
3027.00,0.0034
3026.00,0.0034
3025.00,0.0034
3024.00,0.0035
3023.00,0.0036
3022.00,0.0037
3021.00,0.0037
3020.00,0.0038
3019.00,0.0039
3018.00,0.0040
3017.00,0.0041
3016.00,0.0042
3015.00,0.0043
3014.00,0.0044
3013.00,0.0045
3012.00,0.0046
3011.00,0.0047
3010.00,0.0049
3009.00,0.0051
3008.00,0.0053
3007.00,0.0055
3006.00,0.0057
3005.00,0.0058
3004.00,0.0060
3003.00,0.0061
3002.00,0.0063
3001.00,0.0066
3000.00,0.0069
2999.00,0.0072
2998.00,0.0075
2997.00,0.0078
2996.00,0.0082
2995.00,0.0086
2994.00,0.0090
2993.00,0.0094
2992.00,0.0099
2991.00,0.0104
2990.00,0.0110
2989.00,0.0117
2988.00,0.0125
2987.00,0.0133
2986.00,0.0142
2985.00,0.0153
2984.00,0.0165
2983.00,0.0178
2982.00,0.0192
2981.00,0.0208
2980.00,0.0227
2979.00,0.0247
2978.00,0.0271
2977.00,0.0299
2976.00,0.0330
2975.00,0.0366
2974.00,0.0406
2973.00,0.0453
2972.00,0.0506
2971.00,0.0564
2970.00,0.0629
2969.00,0.0698
2968.00,0.0772
2967.00,0.0850
2966.00,0.0929
2965.00,0.1008
2964.00,0.1081
2963.00,0.1147
2962.00,0.1200
2961.00,0.1243
2960.00,0.1278
2959.00,0.1311
2958.00,0.1351
2957.00,0.1404
2956.00,0.1477
2955.00,0.1570
2954.00,0.1680
2953.00,0.1798
2952.00,0.1908
2951.00,0.1992
2950.00,0.2033
2949.00,0.2020
2948.00,0.1951
2947.00,0.1838
2946.00,0.1697
2945.00,0.1547
2944.00,0.1407
2943.00,0.1286
2942.00,0.1192
2941.00,0.1126
2940.00,0.1087
2939.00,0.1071
2938.00,0.1078
2937.00,0.1104
2936.00,0.1148
2935.00,0.1208
2934.00,0.1284
2933.00,0.1375
2932.00,0.1478
2931.00,0.1594
2930.00,0.1720
2929.00,0.1852
2928.00,0.1987
2927.00,0.2123
2926.00,0.2258
2925.00,0.2392
2924.00,0.2527
2923.00,0.2664
2922.00,0.2803
2921.00,0.2942
2920.00,0.3068
2919.00,0.3167
2918.00,0.3221
2917.00,0.3217
2916.00,0.3153
2915.00,0.3038
2914.00,0.2893
2913.00,0.2736
2912.00,0.2585
2911.00,0.2448
2910.00,0.2329
2909.00,0.2224
2908.00,0.2129
2907.00,0.2042
2906.00,0.1957
2905.00,0.1875
2904.00,0.1794
2903.00,0.1716
2902.00,0.1641
2901.00,0.1568
2900.00,0.1500
2899.00,0.1435
2898.00,0.1375
2897.00,0.1320
2896.00,0.1271
2895.00,0.1229
2894.00,0.1195
2893.00,0.1167
2892.00,0.1146
2891.00,0.1132
2890.00,0.1123
2889.00,0.1119
2888.00,0.1118
2887.00,0.1120
2886.00,0.1126
2885.00,0.1135
2884.00,0.1148
2883.00,0.1167
2882.00,0.1189
2881.00,0.1213
2880.00,0.1236
2879.00,0.1254
2878.00,0.1264
2877.00,0.1264
2876.00,0.1257
2875.00,0.1249
2874.00,0.1244
2873.00,0.1246
2872.00,0.1258
2871.00,0.1279
2870.00,0.1305
2869.00,0.1332
2868.00,0.1350
2867.00,0.1352
2866.00,0.1329
2865.00,0.1277
2864.00,0.1202
2863.00,0.1114
2862.00,0.1024
2861.00,0.0944
2860.00,0.0879
2859.00,0.0832
2858.00,0.0803
2857.00,0.0788
2856.00,0.0786
2855.00,0.0793
2854.00,0.0807
2853.00,0.0826
2852.00,0.0847
2851.00,0.0868
2850.00,0.0886
2849.00,0.0901
2848.00,0.0916
2847.00,0.0936
2846.00,0.0963
2845.00,0.1000
2844.00,0.1048
2843.00,0.1102
2842.00,0.1158
2841.00,0.1207
2840.00,0.1242
2839.00,0.1254
2838.00,0.1237
2837.00,0.1191
2836.00,0.1117
2835.00,0.1022
2834.00,0.0916
2833.00,0.0808
2832.00,0.0708
2831.00,0.0620
2830.00,0.0545
2829.00,0.0484
2828.00,0.0435
2827.00,0.0394
2826.00,0.0362
2825.00,0.0334
2824.00,0.0311
2823.00,0.0292
2822.00,0.0276
2821.00,0.0262
2820.00,0.0249
2819.00,0.0238
2818.00,0.0229
2817.00,0.0220
2816.00,0.0213
2815.00,0.0206
2814.00,0.0200
2813.00,0.0194
2812.00,0.0188
2811.00,0.0182
2810.00,0.0176
2809.00,0.0169
2808.00,0.0163
2807.00,0.0156
2806.00,0.0149
2805.00,0.0142
2804.00,0.0136
2803.00,0.0130
2802.00,0.0125
2801.00,0.0120
2800.00,0.0116
2799.00,0.0113
2798.00,0.0110
2797.00,0.0108
2796.00,0.0106
2795.00,0.0103
2794.00,0.0100
2793.00,0.0098
2792.00,0.0094
2791.00,0.0091
2790.00,0.0088
2789.00,0.0085
2788.00,0.0082
2787.00,0.0079
2786.00,0.0077
2785.00,0.0074
2784.00,0.0072
2783.00,0.0070
2782.00,0.0069
2781.00,0.0067
2780.00,0.0065
2779.00,0.0063
2778.00,0.0062
2777.00,0.0061
2776.00,0.0059
2775.00,0.0058
2774.00,0.0057
2773.00,0.0056
2772.00,0.0056
2771.00,0.0055
2770.00,0.0055
2769.00,0.0054
2768.00,0.0054
2767.00,0.0054
2766.00,0.0054
2765.00,0.0053
2764.00,0.0053
2763.00,0.0052
2762.00,0.0052
2761.00,0.0051
2760.00,0.0051
2759.00,0.0051
2758.00,0.0051
2757.00,0.0051
2756.00,0.0051
2755.00,0.0051
2754.00,0.0051
2753.00,0.0050
2752.00,0.0050
2751.00,0.0050
2750.00,0.0050
2749.00,0.0050
2748.00,0.0050
2747.00,0.0050
2746.00,0.0051
2745.00,0.0051
2744.00,0.0052
2743.00,0.0053
2742.00,0.0054
2741.00,0.0055
2740.00,0.0056
2739.00,0.0058
2738.00,0.0059
2737.00,0.0060
2736.00,0.0061
2735.00,0.0063
2734.00,0.0064
2733.00,0.0066
2732.00,0.0068
2731.00,0.0069
2730.00,0.0072
2729.00,0.0075
2728.00,0.0078
2727.00,0.0081
2726.00,0.0084
2725.00,0.0086
2724.00,0.0088
2723.00,0.0089
2722.00,0.0089
2721.00,0.0087
2720.00,0.0084
2719.00,0.0081
2718.00,0.0077
2717.00,0.0074
2716.00,0.0071
2715.00,0.0068
2714.00,0.0065
2713.00,0.0063
2712.00,0.0060
2711.00,0.0058
2710.00,0.0056
2709.00,0.0055
2708.00,0.0053
2707.00,0.0052
2706.00,0.0051
2705.00,0.0049
2704.00,0.0048
2703.00,0.0047
2702.00,0.0047
2701.00,0.0046
2700.00,0.0045
2699.00,0.0045
2698.00,0.0044
2697.00,0.0044
2696.00,0.0044
2695.00,0.0044
2694.00,0.0044
2693.00,0.0044
2692.00,0.0044
2691.00,0.0044
2690.00,0.0044
2689.00,0.0044
2688.00,0.0044
2687.00,0.0043
2686.00,0.0043
2685.00,0.0043
2684.00,0.0043
2683.00,0.0043
2682.00,0.0043
2681.00,0.0044
2680.00,0.0044
2679.00,0.0044
2678.00,0.0045
2677.00,0.0045
2676.00,0.0045
2675.00,0.0045
2674.00,0.0044
2673.00,0.0044
2672.00,0.0044
2671.00,0.0044
2670.00,0.0044
2669.00,0.0044
2668.00,0.0045
2667.00,0.0045
2666.00,0.0045
2665.00,0.0046
2664.00,0.0046
2663.00,0.0047
2662.00,0.0047
2661.00,0.0048
2660.00,0.0048
2659.00,0.0048
2658.00,0.0048
2657.00,0.0047
2656.00,0.0047
2655.00,0.0046
2654.00,0.0046
2653.00,0.0045
2652.00,0.0045
2651.00,0.0044
2650.00,0.0044
2649.00,0.0044
2648.00,0.0043
2647.00,0.0042
2646.00,0.0042
2645.00,0.0041
2644.00,0.0041
2643.00,0.0041
2642.00,0.0040
2641.00,0.0040
2640.00,0.0039
2639.00,0.0038
2638.00,0.0038
2637.00,0.0037
2636.00,0.0038
2635.00,0.0038
2634.00,0.0038
2633.00,0.0039
2632.00,0.0039
2631.00,0.0039
2630.00,0.0039
2629.00,0.0040
2628.00,0.0040
2627.00,0.0040
2626.00,0.0039
2625.00,0.0039
2624.00,0.0039
2623.00,0.0039
2622.00,0.0039
2621.00,0.0040
2620.00,0.0040
2619.00,0.0040
2618.00,0.0040
2617.00,0.0040
2616.00,0.0040
2615.00,0.0040
2614.00,0.0040
2613.00,0.0040
2612.00,0.0039
2611.00,0.0038
2610.00,0.0037
2609.00,0.0036
2608.00,0.0035
2607.00,0.0034
2606.00,0.0034
2605.00,0.0034
2604.00,0.0033
2603.00,0.0032
2602.00,0.0032
2601.00,0.0032
2600.00,0.0032
2599.00,0.0032
2598.00,0.0033
2597.00,0.0033
2596.00,0.0033
2595.00,0.0033
2594.00,0.0033
2593.00,0.0033
2592.00,0.0033
2591.00,0.0033
2590.00,0.0033
2589.00,0.0034
2588.00,0.0035
2587.00,0.0037
2586.00,0.0038
2585.00,0.0039
2584.00,0.0040
2583.00,0.0040
2582.00,0.0040
2581.00,0.0040
2580.00,0.0039
2579.00,0.0038
2578.00,0.0037
2577.00,0.0036
2576.00,0.0035
2575.00,0.0034
2574.00,0.0033
2573.00,0.0032
2572.00,0.0030
2571.00,0.0029
2570.00,0.0029
2569.00,0.0028
2568.00,0.0027
2567.00,0.0026
2566.00,0.0024
2565.00,0.0023
2564.00,0.0023
2563.00,0.0023
2562.00,0.0023
2561.00,0.0023
2560.00,0.0023
2559.00,0.0023
2558.00,0.0023
2557.00,0.0023
2556.00,0.0024
2555.00,0.0024
2554.00,0.0024
2553.00,0.0023
2552.00,0.0022
2551.00,0.0022
2550.00,0.0021
2549.00,0.0020
2548.00,0.0019
2547.00,0.0018
2546.00,0.0018
2545.00,0.0018
2544.00,0.0018
2543.00,0.0018
2542.00,0.0018
2541.00,0.0018
2540.00,0.0017
2539.00,0.0017
2538.00,0.0016
2537.00,0.0016
2536.00,0.0016
2535.00,0.0016
2534.00,0.0015
2533.00,0.0015
2532.00,0.0015
2531.00,0.0015
2530.00,0.0015
2529.00,0.0015
2528.00,0.0014
2527.00,0.0014
2526.00,0.0013
2525.00,0.0013
2524.00,0.0013
2523.00,0.0013
2522.00,0.0013
2521.00,0.0013
2520.00,0.0013
2519.00,0.0012
2518.00,0.0012
2517.00,0.0011
2516.00,0.0010
2515.00,0.0009
2514.00,0.0009
2513.00,0.0009
2512.00,0.0010
2511.00,0.0010
2510.00,0.0009
2509.00,0.0008
2508.00,0.0008
2507.00,0.0008
2506.00,0.0008
2505.00,0.0009
2504.00,0.0009
2503.00,0.0010
2502.00,0.0010
2501.00,0.0010
2500.00,0.0010
2499.00,0.0010
2498.00,0.0011
2497.00,0.0011
2496.00,0.0010
2495.00,0.0010
2494.00,0.0009
2493.00,0.0009
2492.00,0.0008
2491.00,0.0008
2490.00,0.0008
2489.00,0.0009
2488.00,0.0010
2487.00,0.0011
2486.00,0.0011
2485.00,0.0011
2484.00,0.0010
2483.00,0.0010
2482.00,0.0009
2481.00,0.0009
2480.00,0.0008
2479.00,0.0008
2478.00,0.0009
2477.00,0.0009
2476.00,0.0010
2475.00,0.0011
2474.00,0.0011
2473.00,0.0010
2472.00,0.0010
2471.00,0.0009
2470.00,0.0008
2469.00,0.0008
2468.00,0.0008
2467.00,0.0008
2466.00,0.0009
2465.00,0.0009
2464.00,0.0009
2463.00,0.0010
2462.00,0.0010
2461.00,0.0010
2460.00,0.0010
2459.00,0.0010
2458.00,0.0010
2457.00,0.0010
2456.00,0.0010
2455.00,0.0010
2454.00,0.0010
2453.00,0.0010
2452.00,0.0011
2451.00,0.0011
2450.00,0.0011
2449.00,0.0011
2448.00,0.0010
2447.00,0.0010
2446.00,0.0010
2445.00,0.0010
2444.00,0.0010
2443.00,0.0010
2442.00,0.0011
2441.00,0.0011
2440.00,0.0012
2439.00,0.0012
2438.00,0.0011
2437.00,0.0011
2436.00,0.0011
2435.00,0.0011
2434.00,0.0011
2433.00,0.0011
2432.00,0.0011
2431.00,0.0010
2430.00,0.0010
2429.00,0.0010
2428.00,0.0011
2427.00,0.0012
2426.00,0.0012
2425.00,0.0012
2424.00,0.0011
2423.00,0.0010
2422.00,0.0010
2421.00,0.0010
2420.00,0.0010
2419.00,0.0010
2418.00,0.0010
2417.00,0.0010
2416.00,0.0010
2415.00,0.0010
2414.00,0.0010
2413.00,0.0010
2412.00,0.0010
2411.00,0.0010
2410.00,0.0010
2409.00,0.0010
2408.00,0.0009
2407.00,0.0009
2406.00,0.0009
2405.00,0.0008
2404.00,0.0008
2403.00,0.0008
2402.00,0.0007
2401.00,0.0007
2400.00,0.0007
2399.00,0.0007
2398.00,0.0007
2397.00,0.0007
2396.00,0.0006
2395.00,0.0006
2394.00,0.0005
2393.00,0.0005
2392.00,0.0005
2391.00,0.0005
2390.00,0.0005
2389.00,0.0005
2388.00,0.0004
2387.00,0.0004
2386.00,0.0004
2385.00,0.0004
2384.00,0.0003
2383.00,0.0003
2382.00,0.0003
2381.00,0.0003
2380.00,0.0003
2379.00,0.0003
2378.00,0.0003
2377.00,0.0003
2376.00,0.0003
2375.00,0.0002
2374.00,0.0002
2373.00,0.0002
2372.00,0.0002
2371.00,0.0001
2370.00,0.0001
2369.00,0.0001
2368.00,0.0000
2367.00,0.0000
2366.00,0.0001
2365.00,0.0002
2364.00,0.0003
2363.00,0.0003
2362.00,0.0003
2361.00,0.0003
2360.00,0.0003
2359.00,0.0002
2358.00,0.0002
2357.00,0.0002
2356.00,0.0003
2355.00,0.0003
2354.00,0.0003
2353.00,0.0003
2352.00,0.0002
2351.00,0.0003
2350.00,0.0003
2349.00,0.0003
2348.00,0.0003
2347.00,0.0003
2346.00,0.0004
2345.00,0.0004
2344.00,0.0005
2343.00,0.0005
2342.00,0.0006
2341.00,0.0006
2340.00,0.0005
2339.00,0.0005
2338.00,0.0005
2337.00,0.0006
2336.00,0.0006
2335.00,0.0006
2334.00,0.0005
2333.00,0.0004
2332.00,0.0004
2331.00,0.0003
2330.00,0.0004
2329.00,0.0005
2328.00,0.0007
2327.00,0.0011
2326.00,0.0015
2325.00,0.0018
2324.00,0.0020
2323.00,0.0019
2322.00,0.0016
2321.00,0.0014
2320.00,0.0012
2319.00,0.0011
2318.00,0.0011
2317.00,0.0011
2316.00,0.0010
2315.00,0.0009
2314.00,0.0008
2313.00,0.0008
2312.00,0.0008
2311.00,0.0008
2310.00,0.0008
2309.00,0.0008
2308.00,0.0008
2307.00,0.0009
2306.00,0.0009
2305.00,0.0010
2304.00,0.0010
2303.00,0.0011
2302.00,0.0011
2301.00,0.0011
2300.00,0.0011
2299.00,0.0011
2298.00,0.0011
2297.00,0.0011
2296.00,0.0012
2295.00,0.0014
2294.00,0.0015
2293.00,0.0017
2292.00,0.0017
2291.00,0.0018
2290.00,0.0018
2289.00,0.0019
2288.00,0.0019
2287.00,0.0018
2286.00,0.0018
2285.00,0.0017
2284.00,0.0017
2283.00,0.0017
2282.00,0.0016
2281.00,0.0015
2280.00,0.0015
2279.00,0.0015
2278.00,0.0015
2277.00,0.0015
2276.00,0.0015
2275.00,0.0015
2274.00,0.0015
2273.00,0.0015
2272.00,0.0014
2271.00,0.0013
2270.00,0.0013
2269.00,0.0012
2268.00,0.0012
2267.00,0.0012
2266.00,0.0011
2265.00,0.0010
2264.00,0.0009
2263.00,0.0010
2262.00,0.0010
2261.00,0.0011
2260.00,0.0011
2259.00,0.0011
2258.00,0.0011
2257.00,0.0011
2256.00,0.0009
2255.00,0.0009
2254.00,0.0009
2253.00,0.0010
2252.00,0.0011
2251.00,0.0011
2250.00,0.0010
2249.00,0.0008
2248.00,0.0007
2247.00,0.0007
2246.00,0.0007
2245.00,0.0009
2244.00,0.0010
2243.00,0.0010
2242.00,0.0010
2241.00,0.0009
2240.00,0.0008
2239.00,0.0008
2238.00,0.0007
2237.00,0.0007
2236.00,0.0007
2235.00,0.0007
2234.00,0.0007
2233.00,0.0007
2232.00,0.0008
2231.00,0.0008
2230.00,0.0009
2229.00,0.0010
2228.00,0.0010
2227.00,0.0009
2226.00,0.0008
2225.00,0.0007
2224.00,0.0007
2223.00,0.0007
2222.00,0.0006
2221.00,0.0005
2220.00,0.0004
2219.00,0.0005
2218.00,0.0007
2217.00,0.0009
2216.00,0.0009
2215.00,0.0008
2214.00,0.0006
2213.00,0.0005
2212.00,0.0005
2211.00,0.0005
2210.00,0.0005
2209.00,0.0004
2208.00,0.0002
2207.00,0.0001
2206.00,-0.0000
2205.00,-0.0000
2204.00,0.0001
2203.00,0.0002
2202.00,0.0002
2201.00,0.0003
2200.00,0.0003
2199.00,0.0003
2198.00,0.0004
2197.00,0.0005
2196.00,0.0006
2195.00,0.0007
2194.00,0.0007
2193.00,0.0007
2192.00,0.0006
2191.00,0.0006
2190.00,0.0006
2189.00,0.0007
2188.00,0.0009
2187.00,0.0011
2186.00,0.0012
2185.00,0.0012
2184.00,0.0010
2183.00,0.0007
2182.00,0.0003
2181.00,0.0002
2180.00,0.0003
2179.00,0.0004
2178.00,0.0003
2177.00,0.0001
2176.00,-0.0001
2175.00,-0.0001
2174.00,0.0003
2173.00,0.0008
2172.00,0.0012
2171.00,0.0013
2170.00,0.0014
2169.00,0.0015
2168.00,0.0016
2167.00,0.0015
2166.00,0.0014
2165.00,0.0012
2164.00,0.0011
2163.00,0.0010
2162.00,0.0008
2161.00,0.0003
2160.00,-0.0006
2159.00,-0.0018
2158.00,-0.0029
2157.00,-0.0035
2156.00,-0.0037
2155.00,-0.0035
2154.00,-0.0031
2153.00,-0.0027
2152.00,-0.0024
2151.00,-0.0021
2150.00,-0.0019
2149.00,-0.0016
2148.00,-0.0014
2147.00,-0.0013
2146.00,-0.0013
2145.00,-0.0013
2144.00,-0.0012
2143.00,-0.0011
2142.00,-0.0011
2141.00,-0.0011
2140.00,-0.0012
2139.00,-0.0013
2138.00,-0.0013
2137.00,-0.0015
2136.00,-0.0017
2135.00,-0.0020
2134.00,-0.0022
2133.00,-0.0022
2132.00,-0.0019
2131.00,-0.0016
2130.00,-0.0013
2129.00,-0.0011
2128.00,-0.0011
2127.00,-0.0011
2126.00,-0.0011
2125.00,-0.0010
2124.00,-0.0009
2123.00,-0.0009
2122.00,-0.0008
2121.00,-0.0008
2120.00,-0.0007
2119.00,-0.0006
2118.00,-0.0004
2117.00,-0.0002
2116.00,-0.0000
2115.00,0.0001
2114.00,0.0001
2113.00,0.0002
2112.00,0.0002
2111.00,0.0001
2110.00,-0.0001
2109.00,-0.0002
2108.00,-0.0003
2107.00,-0.0002
2106.00,-0.0001
2105.00,0.0001
2104.00,0.0003
2103.00,0.0003
2102.00,0.0003
2101.00,0.0002
2100.00,0.0001
2099.00,-0.0000
2098.00,-0.0000
2097.00,-0.0001
2096.00,-0.0002
2095.00,-0.0004
2094.00,-0.0007
2093.00,-0.0008
2092.00,-0.0007
2091.00,-0.0005
2090.00,-0.0003
2089.00,-0.0002
2088.00,-0.0002
2087.00,-0.0002
2086.00,-0.0002
2085.00,-0.0001
2084.00,-0.0001
2083.00,-0.0002
2082.00,-0.0002
2081.00,-0.0002
2080.00,-0.0001
2079.00,0.0000
2078.00,0.0001
2077.00,0.0002
2076.00,0.0001
2075.00,-0.0000
2074.00,-0.0001
2073.00,-0.0001
2072.00,-0.0001
2071.00,-0.0001
2070.00,-0.0002
2069.00,-0.0003
2068.00,-0.0004
2067.00,-0.0005
2066.00,-0.0005
2065.00,-0.0004
2064.00,-0.0003
2063.00,-0.0002
2062.00,-0.0001
2061.00,-0.0001
2060.00,-0.0001
2059.00,-0.0002
2058.00,-0.0002
2057.00,-0.0003
2056.00,-0.0003
2055.00,-0.0003
2054.00,-0.0002
2053.00,0.0002
2052.00,0.0007
2051.00,0.0012
2050.00,0.0012
2049.00,0.0009
2048.00,0.0004
2047.00,-0.0000
2046.00,-0.0003
2045.00,-0.0005
2044.00,-0.0005
2043.00,-0.0006
2042.00,-0.0006
2041.00,-0.0006
2040.00,-0.0007
2039.00,-0.0007
2038.00,-0.0005
2037.00,-0.0002
2036.00,0.0000
2035.00,0.0000
2034.00,-0.0001
2033.00,-0.0001
2032.00,-0.0000
2031.00,-0.0002
2030.00,-0.0006
2029.00,-0.0009
2028.00,-0.0011
2027.00,-0.0011
2026.00,-0.0009
2025.00,-0.0009
2024.00,-0.0009
2023.00,-0.0012
2022.00,-0.0014
2021.00,-0.0016
2020.00,-0.0016
2019.00,-0.0016
2018.00,-0.0015
2017.00,-0.0013
2016.00,-0.0010
2015.00,-0.0007
2014.00,-0.0006
2013.00,-0.0005
2012.00,-0.0004
2011.00,-0.0004
2010.00,-0.0006
2009.00,-0.0009
2008.00,-0.0012
2007.00,-0.0015
2006.00,-0.0018
2005.00,-0.0020
2004.00,-0.0020
2003.00,-0.0019
2002.00,-0.0016
2001.00,-0.0013
2000.00,-0.0011
1999.00,-0.0011
1998.00,-0.0012
1997.00,-0.0014
1996.00,-0.0016
1995.00,-0.0017
1994.00,-0.0018
1993.00,-0.0016
1992.00,-0.0013
1991.00,-0.0010
1990.00,-0.0008
1989.00,-0.0006
1988.00,-0.0004
1987.00,-0.0002
1986.00,0.0000
1985.00,0.0002
1984.00,0.0004
1983.00,0.0006
1982.00,0.0009
1981.00,0.0012
1980.00,0.0013
1979.00,0.0009
1978.00,0.0000
1977.00,-0.0007
1976.00,-0.0012
1975.00,-0.0014
1974.00,-0.0014
1973.00,-0.0015
1972.00,-0.0015
1971.00,-0.0015
1970.00,-0.0017
1969.00,-0.0019
1968.00,-0.0021
1967.00,-0.0022
1966.00,-0.0023
1965.00,-0.0024
1964.00,-0.0025
1963.00,-0.0026
1962.00,-0.0026
1961.00,-0.0025
1960.00,-0.0024
1959.00,-0.0024
1958.00,-0.0023
1957.00,-0.0022
1956.00,-0.0020
1955.00,-0.0019
1954.00,-0.0018
1953.00,-0.0017
1952.00,-0.0016
1951.00,-0.0015
1950.00,-0.0015
1949.00,-0.0014
1948.00,-0.0013
1947.00,-0.0012
1946.00,-0.0013
1945.00,-0.0014
1944.00,-0.0016
1943.00,-0.0018
1942.00,-0.0019
1941.00,-0.0017
1940.00,-0.0015
1939.00,-0.0013
1938.00,-0.0011
1937.00,-0.0009
1936.00,-0.0009
1935.00,-0.0009
1934.00,-0.0010
1933.00,-0.0010
1932.00,-0.0009
1931.00,-0.0009
1930.00,-0.0009
1929.00,-0.0009
1928.00,-0.0009
1927.00,-0.0009
1926.00,-0.0007
1925.00,-0.0006
1924.00,-0.0004
1923.00,-0.0004
1922.00,-0.0004
1921.00,-0.0004
1920.00,-0.0005
1919.00,-0.0006
1918.00,-0.0006
1917.00,-0.0006
1916.00,-0.0006
1915.00,-0.0005
1914.00,-0.0005
1913.00,-0.0005
1912.00,-0.0006
1911.00,-0.0006
1910.00,-0.0007
1909.00,-0.0007
1908.00,-0.0007
1907.00,-0.0008
1906.00,-0.0008
1905.00,-0.0007
1904.00,-0.0006
1903.00,-0.0005
1902.00,-0.0004
1901.00,-0.0003
1900.00,-0.0001
1899.00,-0.0000
1898.00,0.0001
1897.00,0.0001
1896.00,0.0000
1895.00,-0.0001
1894.00,-0.0002
1893.00,-0.0003
1892.00,-0.0002
1891.00,-0.0002
1890.00,-0.0001
1889.00,-0.0001
1888.00,-0.0001
1887.00,-0.0001
1886.00,-0.0002
1885.00,-0.0003
1884.00,-0.0003
1883.00,-0.0003
1882.00,-0.0002
1881.00,-0.0002
1880.00,-0.0002
1879.00,-0.0002
1878.00,-0.0002
1877.00,-0.0002
1876.00,-0.0002
1875.00,-0.0003
1874.00,-0.0003
1873.00,-0.0002
1872.00,-0.0002
1871.00,-0.0001
1870.00,-0.0002
1869.00,-0.0002
1868.00,-0.0003
1867.00,-0.0002
1866.00,-0.0002
1865.00,-0.0002
1864.00,-0.0002
1863.00,-0.0002
1862.00,-0.0002
1861.00,-0.0002
1860.00,-0.0002
1859.00,-0.0001
1858.00,-0.0000
1857.00,0.0000
1856.00,0.0001
1855.00,0.0001
1854.00,0.0000
1853.00,-0.0000
1852.00,-0.0001
1851.00,-0.0001
1850.00,-0.0001
1849.00,-0.0001
1848.00,-0.0001
1847.00,-0.0002
1846.00,-0.0002
1845.00,-0.0002
1844.00,-0.0001
1843.00,-0.0000
1842.00,0.0001
1841.00,0.0001
1840.00,0.0002
1839.00,0.0002
1838.00,0.0002
1837.00,0.0002
1836.00,0.0002
1835.00,0.0002
1834.00,0.0002
1833.00,0.0002
1832.00,0.0002
1831.00,0.0003
1830.00,0.0003
1829.00,0.0002
1828.00,0.0002
1827.00,0.0001
1826.00,0.0001
1825.00,0.0002
1824.00,0.0002
1823.00,0.0002
1822.00,0.0002
1821.00,0.0001
1820.00,0.0001
1819.00,-0.0000
1818.00,-0.0001
1817.00,-0.0002
1816.00,-0.0001
1815.00,-0.0001
1814.00,0.0000
1813.00,0.0001
1812.00,0.0002
1811.00,0.0002
1810.00,0.0002
1809.00,0.0001
1808.00,0.0001
1807.00,0.0000
1806.00,0.0000
1805.00,0.0001
1804.00,0.0001
1803.00,0.0002
1802.00,0.0002
1801.00,0.0002
1800.00,0.0002
1799.00,0.0002
1798.00,0.0003
1797.00,0.0003
1796.00,0.0004
1795.00,0.0004
1794.00,0.0004
1793.00,0.0005
1792.00,0.0005
1791.00,0.0006
1790.00,0.0006
1789.00,0.0006
1788.00,0.0006
1787.00,0.0007
1786.00,0.0007
1785.00,0.0007
1784.00,0.0006
1783.00,0.0006
1782.00,0.0005
1781.00,0.0005
1780.00,0.0005
1779.00,0.0005
1778.00,0.0005
1777.00,0.0006
1776.00,0.0007
1775.00,0.0007
1774.00,0.0007
1773.00,0.0007
1772.00,0.0007
1771.00,0.0007
1770.00,0.0007
1769.00,0.0007
1768.00,0.0007
1767.00,0.0008
1766.00,0.0009
1765.00,0.0009
1764.00,0.0009
1763.00,0.0009
1762.00,0.0009
1761.00,0.0010
1760.00,0.0010
1759.00,0.0010
1758.00,0.0011
1757.00,0.0011
1756.00,0.0012
1755.00,0.0012
1754.00,0.0012
1753.00,0.0013
1752.00,0.0014
1751.00,0.0015
1750.00,0.0015
1749.00,0.0016
1748.00,0.0016
1747.00,0.0017
1746.00,0.0017
1745.00,0.0017
1744.00,0.0018
1743.00,0.0018
1742.00,0.0018
1741.00,0.0019
1740.00,0.0020
1739.00,0.0020
1738.00,0.0021
1737.00,0.0021
1736.00,0.0021
1735.00,0.0021
1734.00,0.0021
1733.00,0.0020
1732.00,0.0020
1731.00,0.0020
1730.00,0.0020
1729.00,0.0021
1728.00,0.0021
1727.00,0.0021
1726.00,0.0021
1725.00,0.0021
1724.00,0.0021
1723.00,0.0022
1722.00,0.0023
1721.00,0.0023
1720.00,0.0023
1719.00,0.0023
1718.00,0.0023
1717.00,0.0022
1716.00,0.0020
1715.00,0.0019
1714.00,0.0019
1713.00,0.0018
1712.00,0.0019
1711.00,0.0019
1710.00,0.0020
1709.00,0.0020
1708.00,0.0021
1707.00,0.0021
1706.00,0.0021
1705.00,0.0021
1704.00,0.0021
1703.00,0.0022
1702.00,0.0022
1701.00,0.0022
1700.00,0.0022
1699.00,0.0022
1698.00,0.0022
1697.00,0.0022
1696.00,0.0023
1695.00,0.0023
1694.00,0.0023
1693.00,0.0023
1692.00,0.0023
1691.00,0.0024
1690.00,0.0024
1689.00,0.0025
1688.00,0.0025
1687.00,0.0025
1686.00,0.0024
1685.00,0.0024
1684.00,0.0024
1683.00,0.0025
1682.00,0.0026
1681.00,0.0026
1680.00,0.0026
1679.00,0.0026
1678.00,0.0026
1677.00,0.0026
1676.00,0.0027
1675.00,0.0027
1674.00,0.0027
1673.00,0.0027
1672.00,0.0027
1671.00,0.0027
1670.00,0.0028
1669.00,0.0028
1668.00,0.0028
1667.00,0.0028
1666.00,0.0029
1665.00,0.0029
1664.00,0.0030
1663.00,0.0031
1662.00,0.0031
1661.00,0.0031
1660.00,0.0031
1659.00,0.0031
1658.00,0.0031
1657.00,0.0032
1656.00,0.0032
1655.00,0.0033
1654.00,0.0033
1653.00,0.0034
1652.00,0.0035
1651.00,0.0036
1650.00,0.0036
1649.00,0.0036
1648.00,0.0037
1647.00,0.0037
1646.00,0.0037
1645.00,0.0038
1644.00,0.0039
1643.00,0.0040
1642.00,0.0041
1641.00,0.0042
1640.00,0.0044
1639.00,0.0045
1638.00,0.0046
1637.00,0.0047
1636.00,0.0046
1635.00,0.0046
1634.00,0.0045
1633.00,0.0044
1632.00,0.0044
1631.00,0.0043
1630.00,0.0042
1629.00,0.0042
1628.00,0.0042
1627.00,0.0041
1626.00,0.0041
1625.00,0.0041
1624.00,0.0041
1623.00,0.0040
1622.00,0.0039
1621.00,0.0039
1620.00,0.0040
1619.00,0.0040
1618.00,0.0040
1617.00,0.0040
1616.00,0.0040
1615.00,0.0040
1614.00,0.0041
1613.00,0.0041
1612.00,0.0041
1611.00,0.0041
1610.00,0.0041
1609.00,0.0040
1608.00,0.0040
1607.00,0.0040
1606.00,0.0040
1605.00,0.0040
1604.00,0.0040
1603.00,0.0040
1602.00,0.0040
1601.00,0.0040
1600.00,0.0040
1599.00,0.0039
1598.00,0.0039
1597.00,0.0039
1596.00,0.0040
1595.00,0.0040
1594.00,0.0040
1593.00,0.0040
1592.00,0.0040
1591.00,0.0040
1590.00,0.0040
1589.00,0.0040
1588.00,0.0041
1587.00,0.0041
1586.00,0.0042
1585.00,0.0043
1584.00,0.0045
1583.00,0.0046
1582.00,0.0047
1581.00,0.0049
1580.00,0.0050
1579.00,0.0051
1578.00,0.0053
1577.00,0.0054
1576.00,0.0054
1575.00,0.0054
1574.00,0.0053
1573.00,0.0052
1572.00,0.0052
1571.00,0.0052
1570.00,0.0051
1569.00,0.0050
1568.00,0.0050
1567.00,0.0049
1566.00,0.0048
1565.00,0.0048
1564.00,0.0048
1563.00,0.0048
1562.00,0.0048
1561.00,0.0048
1560.00,0.0047
1559.00,0.0046
1558.00,0.0045
1557.00,0.0046
1556.00,0.0047
1555.00,0.0047
1554.00,0.0047
1553.00,0.0048
1552.00,0.0048
1551.00,0.0049
1550.00,0.0049
1549.00,0.0050
1548.00,0.0051
1547.00,0.0052
1546.00,0.0054
1545.00,0.0055
1544.00,0.0057
1543.00,0.0059
1542.00,0.0059
1541.00,0.0059
1540.00,0.0057
1539.00,0.0055
1538.00,0.0054
1537.00,0.0053
1536.00,0.0052
1535.00,0.0051
1534.00,0.0049
1533.00,0.0047
1532.00,0.0046
1531.00,0.0046
1530.00,0.0045
1529.00,0.0045
1528.00,0.0045
1527.00,0.0045
1526.00,0.0045
1525.00,0.0045
1524.00,0.0046
1523.00,0.0046
1522.00,0.0045
1521.00,0.0046
1520.00,0.0046
1519.00,0.0046
1518.00,0.0046
1517.00,0.0047
1516.00,0.0048
1515.00,0.0048
1514.00,0.0049
1513.00,0.0049
1512.00,0.0050
1511.00,0.0051
1510.00,0.0051
1509.00,0.0052
1508.00,0.0054
1507.00,0.0054
1506.00,0.0054
1505.00,0.0056
1504.00,0.0057
1503.00,0.0059
1502.00,0.0061
1501.00,0.0063
1500.00,0.0066
1499.00,0.0068
1498.00,0.0069
1497.00,0.0071
1496.00,0.0074
1495.00,0.0076
1494.00,0.0078
1493.00,0.0081
1492.00,0.0084
1491.00,0.0088
1490.00,0.0092
1489.00,0.0097
1488.00,0.0102
1487.00,0.0107
1486.00,0.0111
1485.00,0.0118
1484.00,0.0125
1483.00,0.0132
1482.00,0.0141
1481.00,0.0152
1480.00,0.0164
1479.00,0.0177
1478.00,0.0193
1477.00,0.0215
1476.00,0.0242
1475.00,0.0273
1474.00,0.0314
1473.00,0.0373
1472.00,0.0441
1471.00,0.0509
1470.00,0.0575
1469.00,0.0645
1468.00,0.0720
1467.00,0.0803
1466.00,0.0898
1465.00,0.0998
1464.00,0.1085
1463.00,0.1145
1462.00,0.1181
1461.00,0.1204
1460.00,0.1219
1459.00,0.1226
1458.00,0.1228
1457.00,0.1224
1456.00,0.1213
1455.00,0.1198
1454.00,0.1181
1453.00,0.1159
1452.00,0.1129
1451.00,0.1089
1450.00,0.1035
1449.00,0.0963
1448.00,0.0872
1447.00,0.0776
1446.00,0.0690
1445.00,0.0617
1444.00,0.0555
1443.00,0.0504
1442.00,0.0467
1441.00,0.0441
1440.00,0.0426
1439.00,0.0422
1438.00,0.0427
1437.00,0.0433
1436.00,0.0427
1435.00,0.0404
1434.00,0.0367
1433.00,0.0322
1432.00,0.0274
1431.00,0.0232
1430.00,0.0200
1429.00,0.0176
1428.00,0.0160
1427.00,0.0150
1426.00,0.0143
1425.00,0.0136
1424.00,0.0130
1423.00,0.0126
1422.00,0.0124
1421.00,0.0122
1420.00,0.0118
1419.00,0.0115
1418.00,0.0113
1417.00,0.0111
1416.00,0.0108
1415.00,0.0107
1414.00,0.0107
1413.00,0.0106
1412.00,0.0104
1411.00,0.0103
1410.00,0.0103
1409.00,0.0102
1408.00,0.0101
1407.00,0.0102
1406.00,0.0102
1405.00,0.0102
1404.00,0.0102
1403.00,0.0102
1402.00,0.0104
1401.00,0.0104
1400.00,0.0105
1399.00,0.0107
1398.00,0.0109
1397.00,0.0112
1396.00,0.0114
1395.00,0.0118
1394.00,0.0124
1393.00,0.0128
1392.00,0.0133
1391.00,0.0141
1390.00,0.0151
1389.00,0.0164
1388.00,0.0184
1387.00,0.0215
1386.00,0.0257
1385.00,0.0312
1384.00,0.0387
1383.00,0.0495
1382.00,0.0641
1381.00,0.0834
1380.00,0.1082
1379.00,0.1378
1378.00,0.1685
1377.00,0.1934
1376.00,0.2049
1375.00,0.1978
1374.00,0.1744
1373.00,0.1440
1372.00,0.1153
1371.00,0.0912
1370.00,0.0721
1369.00,0.0578
1368.00,0.0481
1367.00,0.0421
1366.00,0.0390
1365.00,0.0378
1364.00,0.0381
1363.00,0.0396
1362.00,0.0421
1361.00,0.0447
1360.00,0.0467
1359.00,0.0474
1358.00,0.0462
1357.00,0.0434
1356.00,0.0393
1355.00,0.0348
1354.00,0.0305
1353.00,0.0269
1352.00,0.0239
1351.00,0.0216
1350.00,0.0196
1349.00,0.0180
1348.00,0.0167
1347.00,0.0155
1346.00,0.0146
1345.00,0.0138
1344.00,0.0132
1343.00,0.0127
1342.00,0.0123
1341.00,0.0119
1340.00,0.0116
1339.00,0.0114
1338.00,0.0112
1337.00,0.0112
1336.00,0.0113
1335.00,0.0115
1334.00,0.0118
1333.00,0.0122
1332.00,0.0127
1331.00,0.0131
1330.00,0.0132
1329.00,0.0131
1328.00,0.0127
1327.00,0.0122
1326.00,0.0116
1325.00,0.0110
1324.00,0.0104
1323.00,0.0099
1322.00,0.0095
1321.00,0.0092
1320.00,0.0090
1319.00,0.0088
1318.00,0.0086
1317.00,0.0084
1316.00,0.0083
1315.00,0.0082
1314.00,0.0082
1313.00,0.0083
1312.00,0.0084
1311.00,0.0085
1310.00,0.0088
1309.00,0.0092
1308.00,0.0098
1307.00,0.0107
1306.00,0.0115
1305.00,0.0121
1304.00,0.0123
1303.00,0.0122
1302.00,0.0120
1301.00,0.0118
1300.00,0.0117
1299.00,0.0118
1298.00,0.0119
1297.00,0.0120
1296.00,0.0120
1295.00,0.0119
1294.00,0.0116
1293.00,0.0112
1292.00,0.0106
1291.00,0.0101
1290.00,0.0096
1289.00,0.0092
1288.00,0.0088
1287.00,0.0085
1286.00,0.0083
1285.00,0.0081
1284.00,0.0079
1283.00,0.0077
1282.00,0.0076
1281.00,0.0075
1280.00,0.0075
1279.00,0.0075
1278.00,0.0075
1277.00,0.0075
1276.00,0.0074
1275.00,0.0074
1274.00,0.0074
1273.00,0.0074
1272.00,0.0075
1271.00,0.0076
1270.00,0.0076
1269.00,0.0077
1268.00,0.0079
1267.00,0.0081
1266.00,0.0083
1265.00,0.0085
1264.00,0.0087
1263.00,0.0089
1262.00,0.0091
1261.00,0.0094
1260.00,0.0099
1259.00,0.0103
1258.00,0.0108
1257.00,0.0111
1256.00,0.0112
1255.00,0.0111
1254.00,0.0106
1253.00,0.0100
1252.00,0.0094
1251.00,0.0089
1250.00,0.0086
1249.00,0.0083
1248.00,0.0080
1247.00,0.0078
1246.00,0.0076
1245.00,0.0075
1244.00,0.0074
1243.00,0.0073
1242.00,0.0073
1241.00,0.0072
1240.00,0.0072
1239.00,0.0071
1238.00,0.0070
1237.00,0.0070
1236.00,0.0070
1235.00,0.0071
1234.00,0.0071
1233.00,0.0072
1232.00,0.0072
1231.00,0.0073
1230.00,0.0074
1229.00,0.0075
1228.00,0.0076
1227.00,0.0078
1226.00,0.0080
1225.00,0.0082
1224.00,0.0086
1223.00,0.0090
1222.00,0.0094
1221.00,0.0097
1220.00,0.0099
1219.00,0.0099
1218.00,0.0097
1217.00,0.0095
1216.00,0.0092
1215.00,0.0089
1214.00,0.0086
1213.00,0.0084
1212.00,0.0081
1211.00,0.0079
1210.00,0.0077
1209.00,0.0075
1208.00,0.0073
1207.00,0.0072
1206.00,0.0071
1205.00,0.0070
1204.00,0.0070
1203.00,0.0070
1202.00,0.0070
1201.00,0.0070
1200.00,0.0071
1199.00,0.0071
1198.00,0.0071
1197.00,0.0071
1196.00,0.0071
1195.00,0.0072
1194.00,0.0072
1193.00,0.0072
1192.00,0.0071
1191.00,0.0071
1190.00,0.0071
1189.00,0.0070
1188.00,0.0070
1187.00,0.0070
1186.00,0.0070
1185.00,0.0071
1184.00,0.0072
1183.00,0.0074
1182.00,0.0076
1181.00,0.0078
1180.00,0.0081
1179.00,0.0084
1178.00,0.0089
1177.00,0.0095
1176.00,0.0102
1175.00,0.0113
1174.00,0.0128
1173.00,0.0146
1172.00,0.0169
1171.00,0.0194
1170.00,0.0219
1169.00,0.0238
1168.00,0.0250
1167.00,0.0253
1166.00,0.0248
1165.00,0.0238
1164.00,0.0227
1163.00,0.0215
1162.00,0.0206
1161.00,0.0198
1160.00,0.0192
1159.00,0.0188
1158.00,0.0185
1157.00,0.0184
1156.00,0.0183
1155.00,0.0184
1154.00,0.0184
1153.00,0.0182
1152.00,0.0179
1151.00,0.0173
1150.00,0.0165
1149.00,0.0155
1148.00,0.0145
1147.00,0.0136
1146.00,0.0128
1145.00,0.0121
1144.00,0.0114
1143.00,0.0107
1142.00,0.0101
1141.00,0.0095
1140.00,0.0090
1139.00,0.0086
1138.00,0.0083
1137.00,0.0081
1136.00,0.0079
1135.00,0.0076
1134.00,0.0074
1133.00,0.0072
1132.00,0.0071
1131.00,0.0070
1130.00,0.0070
1129.00,0.0070
1128.00,0.0070
1127.00,0.0071
1126.00,0.0072
1125.00,0.0073
1124.00,0.0073
1123.00,0.0073
1122.00,0.0073
1121.00,0.0073
1120.00,0.0073
1119.00,0.0072
1118.00,0.0073
1117.00,0.0074
1116.00,0.0076
1115.00,0.0078
1114.00,0.0079
1113.00,0.0081
1112.00,0.0083
1111.00,0.0085
1110.00,0.0088
1109.00,0.0093
1108.00,0.0098
1107.00,0.0104
1106.00,0.0111
1105.00,0.0117
1104.00,0.0123
1103.00,0.0125
1102.00,0.0125
1101.00,0.0122
1100.00,0.0116
1099.00,0.0110
1098.00,0.0103
1097.00,0.0097
1096.00,0.0092
1095.00,0.0088
1094.00,0.0085
1093.00,0.0084
1092.00,0.0083
1091.00,0.0082
1090.00,0.0080
1089.00,0.0078
1088.00,0.0076
1087.00,0.0075
1086.00,0.0075
1085.00,0.0074
1084.00,0.0074
1083.00,0.0073
1082.00,0.0072
1081.00,0.0072
1080.00,0.0071
1079.00,0.0071
1078.00,0.0070
1077.00,0.0070
1076.00,0.0070
1075.00,0.0070
1074.00,0.0070
1073.00,0.0070
1072.00,0.0070
1071.00,0.0070
1070.00,0.0070
1069.00,0.0070
1068.00,0.0071
1067.00,0.0072
1066.00,0.0072
1065.00,0.0072
1064.00,0.0073
1063.00,0.0073
1062.00,0.0073
1061.00,0.0073
1060.00,0.0074
1059.00,0.0075
1058.00,0.0076
1057.00,0.0078
1056.00,0.0079
1055.00,0.0081
1054.00,0.0083
1053.00,0.0086
1052.00,0.0088
1051.00,0.0092
1050.00,0.0095
1049.00,0.0099
1048.00,0.0103
1047.00,0.0107
1046.00,0.0110
1045.00,0.0112
1044.00,0.0113
1043.00,0.0112
1042.00,0.0112
1041.00,0.0112
1040.00,0.0111
1039.00,0.0112
1038.00,0.0112
1037.00,0.0111
1036.00,0.0110
1035.00,0.0108
1034.00,0.0106
1033.00,0.0105
1032.00,0.0104
1031.00,0.0104
1030.00,0.0104
1029.00,0.0105
1028.00,0.0106
1027.00,0.0107
1026.00,0.0109
1025.00,0.0112
1024.00,0.0114
1023.00,0.0116
1022.00,0.0118
1021.00,0.0119
1020.00,0.0120
1019.00,0.0122
1018.00,0.0123
1017.00,0.0124
1016.00,0.0124
1015.00,0.0123
1014.00,0.0123
1013.00,0.0123
1012.00,0.0122
1011.00,0.0121
1010.00,0.0121
1009.00,0.0121
1008.00,0.0122
1007.00,0.0125
1006.00,0.0129
1005.00,0.0137
1004.00,0.0148
1003.00,0.0164
1002.00,0.0186
1001.00,0.0213
1000.00,0.0240
999.00,0.0262
998.00,0.0271
997.00,0.0264
996.00,0.0244
995.00,0.0215
994.00,0.0186
993.00,0.0161
992.00,0.0141
991.00,0.0127
990.00,0.0117
989.00,0.0111
988.00,0.0106
987.00,0.0104
986.00,0.0104
985.00,0.0105
984.00,0.0109
983.00,0.0116
982.00,0.0125
981.00,0.0139
980.00,0.0158
979.00,0.0182
978.00,0.0211
977.00,0.0243
976.00,0.0277
975.00,0.0307
974.00,0.0328
973.00,0.0333
972.00,0.0320
971.00,0.0291
970.00,0.0253
969.00,0.0214
968.00,0.0181
967.00,0.0156
966.00,0.0137
965.00,0.0123
964.00,0.0114
963.00,0.0107
962.00,0.0102
961.00,0.0098
960.00,0.0094
959.00,0.0090
958.00,0.0087
957.00,0.0085
956.00,0.0083
955.00,0.0081
954.00,0.0080
953.00,0.0079
952.00,0.0078
951.00,0.0077
950.00,0.0076
949.00,0.0075
948.00,0.0075
947.00,0.0076
946.00,0.0078
945.00,0.0081
944.00,0.0085
943.00,0.0088
942.00,0.0091
941.00,0.0093
940.00,0.0093
939.00,0.0091
938.00,0.0088
937.00,0.0082
936.00,0.0076
935.00,0.0071
934.00,0.0066
933.00,0.0063
932.00,0.0062
931.00,0.0061
930.00,0.0061
929.00,0.0060
928.00,0.0059
927.00,0.0059
926.00,0.0059
925.00,0.0060
924.00,0.0060
923.00,0.0060
922.00,0.0059
921.00,0.0059
920.00,0.0058
919.00,0.0057
918.00,0.0057
917.00,0.0057
916.00,0.0057
915.00,0.0059
914.00,0.0060
913.00,0.0062
912.00,0.0064
911.00,0.0067
910.00,0.0069
909.00,0.0073
908.00,0.0076
907.00,0.0081
906.00,0.0088
905.00,0.0098
904.00,0.0112
903.00,0.0131
902.00,0.0152
901.00,0.0172
900.00,0.0185
899.00,0.0188
898.00,0.0179
897.00,0.0162
896.00,0.0140
895.00,0.0119
894.00,0.0103
893.00,0.0091
892.00,0.0083
891.00,0.0078
890.00,0.0075
889.00,0.0073
888.00,0.0071
887.00,0.0070
886.00,0.0068
885.00,0.0067
884.00,0.0066
883.00,0.0065
882.00,0.0066
881.00,0.0067
880.00,0.0068
879.00,0.0068
878.00,0.0069
877.00,0.0068
876.00,0.0068
875.00,0.0069
874.00,0.0070
873.00,0.0071
872.00,0.0071
871.00,0.0071
870.00,0.0071
869.00,0.0071
868.00,0.0072
867.00,0.0072
866.00,0.0072
865.00,0.0072
864.00,0.0072
863.00,0.0073
862.00,0.0074
861.00,0.0075
860.00,0.0078
859.00,0.0080
858.00,0.0082
857.00,0.0083
856.00,0.0084
855.00,0.0084
854.00,0.0085
853.00,0.0087
852.00,0.0090
851.00,0.0093
850.00,0.0096
849.00,0.0101
848.00,0.0106
847.00,0.0114
846.00,0.0128
845.00,0.0149
844.00,0.0180
843.00,0.0216
842.00,0.0245
841.00,0.0255
840.00,0.0239
839.00,0.0207
838.00,0.0171
837.00,0.0143
836.00,0.0125
835.00,0.0115
834.00,0.0108
833.00,0.0104
832.00,0.0100
831.00,0.0098
830.00,0.0096
829.00,0.0095
828.00,0.0094
827.00,0.0094
826.00,0.0094
825.00,0.0093
824.00,0.0092
823.00,0.0092
822.00,0.0094
821.00,0.0097
820.00,0.0100
819.00,0.0104
818.00,0.0108
817.00,0.0114
816.00,0.0122
815.00,0.0134
814.00,0.0150
813.00,0.0170
812.00,0.0191
811.00,0.0212
810.00,0.0228
809.00,0.0234
808.00,0.0230
807.00,0.0215
806.00,0.0195
805.00,0.0175
804.00,0.0157
803.00,0.0142
802.00,0.0131
801.00,0.0123
800.00,0.0116
799.00,0.0111
798.00,0.0107
797.00,0.0103
796.00,0.0099
795.00,0.0094
794.00,0.0089
793.00,0.0085
792.00,0.0082
791.00,0.0080
790.00,0.0078
789.00,0.0076
788.00,0.0074
787.00,0.0072
786.00,0.0070
785.00,0.0069
784.00,0.0068
783.00,0.0067
782.00,0.0067
781.00,0.0065
780.00,0.0063
779.00,0.0061
778.00,0.0060
777.00,0.0060
776.00,0.0060
775.00,0.0059
774.00,0.0060
773.00,0.0060
772.00,0.0059
771.00,0.0059
770.00,0.0058
769.00,0.0057
768.00,0.0057
767.00,0.0058
766.00,0.0060
765.00,0.0061
764.00,0.0062
763.00,0.0063
762.00,0.0064
761.00,0.0064
760.00,0.0064
759.00,0.0063
758.00,0.0062
757.00,0.0063
756.00,0.0065
755.00,0.0068
754.00,0.0071
753.00,0.0072
752.00,0.0072
751.00,0.0074
750.00,0.0075
749.00,0.0077
748.00,0.0079
747.00,0.0079
746.00,0.0080
745.00,0.0080
744.00,0.0081
743.00,0.0082
742.00,0.0083
741.00,0.0085
740.00,0.0089
739.00,0.0094
738.00,0.0099
737.00,0.0103
736.00,0.0107
735.00,0.0110
734.00,0.0114
733.00,0.0119
732.00,0.0127
731.00,0.0134
730.00,0.0139
729.00,0.0142
728.00,0.0143
727.00,0.0143
726.00,0.0145
725.00,0.0150
724.00,0.0156
723.00,0.0164
722.00,0.0169
721.00,0.0172
720.00,0.0170
719.00,0.0163
718.00,0.0152
717.00,0.0140
716.00,0.0131
715.00,0.0124
714.00,0.0118
713.00,0.0112
712.00,0.0107
711.00,0.0105
710.00,0.0103
709.00,0.0102
708.00,0.0101
707.00,0.0100
706.00,0.0099
705.00,0.0098
704.00,0.0095
703.00,0.0092
702.00,0.0088
701.00,0.0086
700.00,0.0085
699.00,0.0086
698.00,0.0088
697.00,0.0089
696.00,0.0090
695.00,0.0090
694.00,0.0090
693.00,0.0090
692.00,0.0091
691.00,0.0093
690.00,0.0093
689.00,0.0092
688.00,0.0092
687.00,0.0093
686.00,0.0094
685.00,0.0094
684.00,0.0093
683.00,0.0092
682.00,0.0092
681.00,0.0091
680.00,0.0090
679.00,0.0089
678.00,0.0088
677.00,0.0088
676.00,0.0090
675.00,0.0092
674.00,0.0094
673.00,0.0094
672.00,0.0095
671.00,0.0096
670.00,0.0097
669.00,0.0096
668.00,0.0094
667.00,0.0092
666.00,0.0089
665.00,0.0087
664.00,0.0085
663.00,0.0087
662.00,0.0089
661.00,0.0089
660.00,0.0087
659.00,0.0085
658.00,0.0082
657.00,0.0080
656.00,0.0078
655.00,0.0076
654.00,0.0074
653.00,0.0073
652.00,0.0073
651.00,0.0074
650.00,0.0077
649.00,0.0079
648.00,0.0081
647.00,0.0080
646.00,0.0079
645.00,0.0077
644.00,0.0075
643.00,0.0073
642.00,0.0071
641.00,0.0071
640.00,0.0072
639.00,0.0074
638.00,0.0077
637.00,0.0079
636.00,0.0079
635.00,0.0078
634.00,0.0077
633.00,0.0077
632.00,0.0077
631.00,0.0078
630.00,0.0079
629.00,0.0078
628.00,0.0075
627.00,0.0074
626.00,0.0074
625.00,0.0075
624.00,0.0076
623.00,0.0077
622.00,0.0076
621.00,0.0074
620.00,0.0072
619.00,0.0070
618.00,0.0071
617.00,0.0072
616.00,0.0072
615.00,0.0073
614.00,0.0074
613.00,0.0075
612.00,0.0075
611.00,0.0075
610.00,0.0074
609.00,0.0073
608.00,0.0071
607.00,0.0068
606.00,0.0067
605.00,0.0067
604.00,0.0067
603.00,0.0068
602.00,0.0069
601.00,0.0069
600.00,0.0068
599.00,0.0068
598.00,0.0070
597.00,0.0074
596.00,0.0079
595.00,0.0083
594.00,0.0083
593.00,0.0081
592.00,0.0077
591.00,0.0073
590.00,0.0070
589.00,0.0069
588.00,0.0068
587.00,0.0068
586.00,0.0070
585.00,0.0071
584.00,0.0072
583.00,0.0073
582.00,0.0073
581.00,0.0075
580.00,0.0076
579.00,0.0077
578.00,0.0077
577.00,0.0075
576.00,0.0073
575.00,0.0072
574.00,0.0072
573.00,0.0074
572.00,0.0074
571.00,0.0073
570.00,0.0071
569.00,0.0072
568.00,0.0074
567.00,0.0076
566.00,0.0077
565.00,0.0076
564.00,0.0075
563.00,0.0075
562.00,0.0077
561.00,0.0079
560.00,0.0079
559.00,0.0076
558.00,0.0074
557.00,0.0073
556.00,0.0073
555.00,0.0074
554.00,0.0075
553.00,0.0076
552.00,0.0077
551.00,0.0079
550.00,0.0080
549.00,0.0080
548.00,0.0081
547.00,0.0082
546.00,0.0083
545.00,0.0083
544.00,0.0082
543.00,0.0083
542.00,0.0087
541.00,0.0092
540.00,0.0095
539.00,0.0093
538.00,0.0090
537.00,0.0091
536.00,0.0096
535.00,0.0101
534.00,0.0101
533.00,0.0098
532.00,0.0096
531.00,0.0097
530.00,0.0101
529.00,0.0105
528.00,0.0106
527.00,0.0103
526.00,0.0097
525.00,0.0090
524.00,0.0083
523.00,0.0079
522.00,0.0078
521.00,0.0080
520.00,0.0082
519.00,0.0081
518.00,0.0077
517.00,0.0073
516.00,0.0071
515.00,0.0070
514.00,0.0072
513.00,0.0071
512.00,0.0068
511.00,0.0063
510.00,0.0061
509.00,0.0065
508.00,0.0074
507.00,0.0083
506.00,0.0088
505.00,0.0089
504.00,0.0089
503.00,0.0089
502.00,0.0092
501.00,0.0093
500.00,0.0093
499.00,0.0089
498.00,0.0083
497.00,0.0078
496.00,0.0074
495.00,0.0072
494.00,0.0072
493.00,0.0074
492.00,0.0077
491.00,0.0081
490.00,0.0085
489.00,0.0088
488.00,0.0090
487.00,0.0087
486.00,0.0080
485.00,0.0072
484.00,0.0068
483.00,0.0071
482.00,0.0077
481.00,0.0082
480.00,0.0083
479.00,0.0081
478.00,0.0082
477.00,0.0090
476.00,0.0103
475.00,0.0118
474.00,0.0130
473.00,0.0138
472.00,0.0141
471.00,0.0139
470.00,0.0139
469.00,0.0140
468.00,0.0144
467.00,0.0148
466.00,0.0152
465.00,0.0156
464.00,0.0164
463.00,0.0177
462.00,0.0193
461.00,0.0207
460.00,0.0215
459.00,0.0213
458.00,0.0205
457.00,0.0197
456.00,0.0193
455.00,0.0191
454.00,0.0188
453.00,0.0182
452.00,0.0172
451.00,0.0158
450.00,0.0144
