Created as New Dataset,Sample 069 By Administrator Date Thursday, September 04 2025
cm-1,A
4000.00,0.0009
3999.00,0.0009
3998.00,0.0009
3997.00,0.0010
3996.00,0.0009
3995.00,0.0009
3994.00,0.0009
3993.00,0.0009
3992.00,0.0009
3991.00,0.0009
3990.00,0.0009
3989.00,0.0009
3988.00,0.0008
3987.00,0.0008
3986.00,0.0008
3985.00,0.0008
3984.00,0.0009
3983.00,0.0009
3982.00,0.0009
3981.00,0.0009
3980.00,0.0008
3979.00,0.0008
3978.00,0.0008
3977.00,0.0007
3976.00,0.0007
3975.00,0.0007
3974.00,0.0007
3973.00,0.0007
3972.00,0.0007
3971.00,0.0007
3970.00,0.0007
3969.00,0.0007
3968.00,0.0007
3967.00,0.0007
3966.00,0.0007
3965.00,0.0007
3964.00,0.0007
3963.00,0.0007
3962.00,0.0007
3961.00,0.0007
3960.00,0.0007
3959.00,0.0007
3958.00,0.0007
3957.00,0.0007
3956.00,0.0007
3955.00,0.0007
3954.00,0.0007
3953.00,0.0007
3952.00,0.0007
3951.00,0.0007
3950.00,0.0007
3949.00,0.0007
3948.00,0.0006
3947.00,0.0006
3946.00,0.0006
3945.00,0.0007
3944.00,0.0007
3943.00,0.0007
3942.00,0.0008
3941.00,0.0008
3940.00,0.0008
3939.00,0.0008
3938.00,0.0007
3937.00,0.0007
3936.00,0.0007
3935.00,0.0007
3934.00,0.0007
3933.00,0.0007
3932.00,0.0007
3931.00,0.0008
3930.00,0.0008
3929.00,0.0009
3928.00,0.0009
3927.00,0.0008
3926.00,0.0008
3925.00,0.0008
3924.00,0.0008
3923.00,0.0008
3922.00,0.0007
3921.00,0.0007
3920.00,0.0006
3919.00,0.0006
3918.00,0.0006
3917.00,0.0006
3916.00,0.0007
3915.00,0.0007
3914.00,0.0007
3913.00,0.0007
3912.00,0.0007
3911.00,0.0007
3910.00,0.0007
3909.00,0.0007
3908.00,0.0007
3907.00,0.0007
3906.00,0.0006
3905.00,0.0006
3904.00,0.0006
3903.00,0.0006
3902.00,0.0006
3901.00,0.0007
3900.00,0.0007
3899.00,0.0007
3898.00,0.0007
3897.00,0.0007
3896.00,0.0008
3895.00,0.0008
3894.00,0.0008
3893.00,0.0008
3892.00,0.0007
3891.00,0.0007
3890.00,0.0007
3889.00,0.0008
3888.00,0.0007
3887.00,0.0007
3886.00,0.0006
3885.00,0.0006
3884.00,0.0006
3883.00,0.0006
3882.00,0.0006
3881.00,0.0006
3880.00,0.0007
3879.00,0.0007
3878.00,0.0007
3877.00,0.0007
3876.00,0.0007
3875.00,0.0007
3874.00,0.0008
3873.00,0.0008
3872.00,0.0007
3871.00,0.0007
3870.00,0.0007
3869.00,0.0008
3868.00,0.0008
3867.00,0.0008
3866.00,0.0007
3865.00,0.0007
3864.00,0.0007
3863.00,0.0007
3862.00,0.0007
3861.00,0.0007
3860.00,0.0007
3859.00,0.0007
3858.00,0.0007
3857.00,0.0007
3856.00,0.0007
3855.00,0.0007
3854.00,0.0007
3853.00,0.0007
3852.00,0.0007
3851.00,0.0007
3850.00,0.0007
3849.00,0.0006
3848.00,0.0006
3847.00,0.0006
3846.00,0.0006
3845.00,0.0007
3844.00,0.0007
3843.00,0.0007
3842.00,0.0008
3841.00,0.0008
3840.00,0.0009
3839.00,0.0009
3838.00,0.0009
3837.00,0.0009
3836.00,0.0008
3835.00,0.0008
3834.00,0.0008
3833.00,0.0007
3832.00,0.0007
3831.00,0.0007
3830.00,0.0007
3829.00,0.0007
3828.00,0.0007
3827.00,0.0007
3826.00,0.0007
3825.00,0.0008
3824.00,0.0008
3823.00,0.0008
3822.00,0.0008
3821.00,0.0008
3820.00,0.0009
3819.00,0.0009
3818.00,0.0009
3817.00,0.0009
3816.00,0.0009
3815.00,0.0009
3814.00,0.0009
3813.00,0.0008
3812.00,0.0008
3811.00,0.0008
3810.00,0.0008
3809.00,0.0009
3808.00,0.0008
3807.00,0.0008
3806.00,0.0008
3805.00,0.0008
3804.00,0.0008
3803.00,0.0008
3802.00,0.0008
3801.00,0.0008
3800.00,0.0008
3799.00,0.0008
3798.00,0.0007
3797.00,0.0007
3796.00,0.0007
3795.00,0.0007
3794.00,0.0006
3793.00,0.0006
3792.00,0.0006
3791.00,0.0006
3790.00,0.0006
3789.00,0.0006
3788.00,0.0007
3787.00,0.0007
3786.00,0.0007
3785.00,0.0007
3784.00,0.0007
3783.00,0.0007
3782.00,0.0007
3781.00,0.0007
3780.00,0.0007
3779.00,0.0007
3778.00,0.0007
3777.00,0.0007
3776.00,0.0007
3775.00,0.0007
3774.00,0.0007
3773.00,0.0007
3772.00,0.0007
3771.00,0.0007
3770.00,0.0007
3769.00,0.0008
3768.00,0.0008
3767.00,0.0008
3766.00,0.0008
3765.00,0.0008
3764.00,0.0009
3763.00,0.0009
3762.00,0.0008
3761.00,0.0008
3760.00,0.0008
3759.00,0.0008
3758.00,0.0008
3757.00,0.0008
3756.00,0.0008
3755.00,0.0008
3754.00,0.0008
3753.00,0.0008
3752.00,0.0008
3751.00,0.0008
3750.00,0.0007
3749.00,0.0008
3748.00,0.0009
3747.00,0.0009
3746.00,0.0009
3745.00,0.0009
3744.00,0.0008
3743.00,0.0008
3742.00,0.0007
3741.00,0.0007
3740.00,0.0006
3739.00,0.0006
3738.00,0.0006
3737.00,0.0006
3736.00,0.0006
3735.00,0.0006
3734.00,0.0006
3733.00,0.0006
3732.00,0.0006
3731.00,0.0006
3730.00,0.0006
3729.00,0.0006
3728.00,0.0006
3727.00,0.0006
3726.00,0.0006
3725.00,0.0007
3724.00,0.0007
3723.00,0.0006
3722.00,0.0006
3721.00,0.0006
3720.00,0.0007
3719.00,0.0007
3718.00,0.0007
3717.00,0.0007
3716.00,0.0006
3715.00,0.0006
3714.00,0.0006
3713.00,0.0006
3712.00,0.0006
3711.00,0.0006
3710.00,0.0006
3709.00,0.0006
3708.00,0.0005
3707.00,0.0006
3706.00,0.0006
3705.00,0.0006
3704.00,0.0006
3703.00,0.0006
3702.00,0.0006
3701.00,0.0006
3700.00,0.0006
3699.00,0.0006
3698.00,0.0006
3697.00,0.0005
3696.00,0.0005
3695.00,0.0005
3694.00,0.0005
3693.00,0.0005
3692.00,0.0005
3691.00,0.0006
3690.00,0.0006
3689.00,0.0006
3688.00,0.0006
3687.00,0.0006
3686.00,0.0006
3685.00,0.0006
3684.00,0.0005
3683.00,0.0005
3682.00,0.0005
3681.00,0.0005
3680.00,0.0006
3679.00,0.0007
3678.00,0.0008
3677.00,0.0008
3676.00,0.0007
3675.00,0.0008
3674.00,0.0008
3673.00,0.0007
3672.00,0.0006
3671.00,0.0005
3670.00,0.0005
3669.00,0.0005
3668.00,0.0005
3667.00,0.0005
3666.00,0.0005
3665.00,0.0004
3664.00,0.0004
3663.00,0.0004
3662.00,0.0005
3661.00,0.0005
3660.00,0.0005
3659.00,0.0004
3658.00,0.0003
3657.00,0.0003
3656.00,0.0003
3655.00,0.0004
3654.00,0.0004
3653.00,0.0004
3652.00,0.0004
3651.00,0.0005
3650.00,0.0005
3649.00,0.0006
3648.00,0.0006
3647.00,0.0006
3646.00,0.0006
3645.00,0.0005
3644.00,0.0005
3643.00,0.0005
3642.00,0.0005
3641.00,0.0006
3640.00,0.0006
3639.00,0.0006
3638.00,0.0006
3637.00,0.0006
3636.00,0.0006
3635.00,0.0006
3634.00,0.0006
3633.00,0.0007
3632.00,0.0007
3631.00,0.0006
3630.00,0.0006
3629.00,0.0006
3628.00,0.0006
3627.00,0.0007
3626.00,0.0007
3625.00,0.0007
3624.00,0.0008
3623.00,0.0008
3622.00,0.0007
3621.00,0.0007
3620.00,0.0007
3619.00,0.0007
3618.00,0.0007
3617.00,0.0008
3616.00,0.0008
3615.00,0.0008
3614.00,0.0009
3613.00,0.0009
3612.00,0.0009
3611.00,0.0008
3610.00,0.0008
3609.00,0.0007
3608.00,0.0008
3607.00,0.0008
3606.00,0.0008
3605.00,0.0008
3604.00,0.0008
3603.00,0.0008
3602.00,0.0009
3601.00,0.0009
3600.00,0.0010
3599.00,0.0010
3598.00,0.0010
3597.00,0.0009
3596.00,0.0009
3595.00,0.0009
3594.00,0.0010
3593.00,0.0010
3592.00,0.0010
3591.00,0.0010
3590.00,0.0010
3589.00,0.0010
3588.00,0.0010
3587.00,0.0010
3586.00,0.0011
3585.00,0.0012
3584.00,0.0012
3583.00,0.0012
3582.00,0.0012
3581.00,0.0012
3580.00,0.0012
3579.00,0.0012
3578.00,0.0012
3577.00,0.0012
3576.00,0.0013
3575.00,0.0013
3574.00,0.0013
3573.00,0.0013
3572.00,0.0013
3571.00,0.0012
3570.00,0.0012
3569.00,0.0012
3568.00,0.0013
3567.00,0.0013
3566.00,0.0014
3565.00,0.0015
3564.00,0.0015
3563.00,0.0015
3562.00,0.0015
3561.00,0.0015
3560.00,0.0015
3559.00,0.0015
3558.00,0.0015
3557.00,0.0016
3556.00,0.0016
3555.00,0.0017
3554.00,0.0017
3553.00,0.0018
3552.00,0.0018
3551.00,0.0018
3550.00,0.0017
3549.00,0.0017
3548.00,0.0017
3547.00,0.0017
3546.00,0.0017
3545.00,0.0018
3544.00,0.0018
3543.00,0.0018
3542.00,0.0019
3541.00,0.0019
3540.00,0.0019
3539.00,0.0020
3538.00,0.0020
3537.00,0.0020
3536.00,0.0020
3535.00,0.0021
3534.00,0.0021
3533.00,0.0021
3532.00,0.0021
3531.00,0.0021
3530.00,0.0021
3529.00,0.0022
3528.00,0.0022
3527.00,0.0023
3526.00,0.0023
3525.00,0.0023
3524.00,0.0023
3523.00,0.0023
3522.00,0.0023
3521.00,0.0023
3520.00,0.0023
3519.00,0.0024
3518.00,0.0024
3517.00,0.0024
3516.00,0.0024
3515.00,0.0024
3514.00,0.0024
3513.00,0.0025
3512.00,0.0026
3511.00,0.0026
3510.00,0.0027
3509.00,0.0027
3508.00,0.0027
3507.00,0.0026
3506.00,0.0026
3505.00,0.0026
3504.00,0.0026
3503.00,0.0027
3502.00,0.0027
3501.00,0.0028
3500.00,0.0028
3499.00,0.0028
3498.00,0.0029
3497.00,0.0029
3496.00,0.0030
3495.00,0.0030
3494.00,0.0030
3493.00,0.0031
3492.00,0.0031
3491.00,0.0031
3490.00,0.0031
3489.00,0.0031
3488.00,0.0032
3487.00,0.0032
3486.00,0.0033
3485.00,0.0033
3484.00,0.0033
3483.00,0.0033
3482.00,0.0033
3481.00,0.0033
3480.00,0.0033
3479.00,0.0033
3478.00,0.0033
3477.00,0.0034
3476.00,0.0034
3475.00,0.0034
3474.00,0.0034
3473.00,0.0035
3472.00,0.0035
3471.00,0.0035
3470.00,0.0035
3469.00,0.0035
3468.00,0.0035
3467.00,0.0036
3466.00,0.0036
3465.00,0.0036
3464.00,0.0036
3463.00,0.0036
3462.00,0.0037
3461.00,0.0037
3460.00,0.0038
3459.00,0.0038
3458.00,0.0039
3457.00,0.0039
3456.00,0.0039
3455.00,0.0039
3454.00,0.0038
3453.00,0.0038
3452.00,0.0039
3451.00,0.0039
3450.00,0.0039
3449.00,0.0039
3448.00,0.0039
3447.00,0.0040
3446.00,0.0040
3445.00,0.0040
3444.00,0.0041
3443.00,0.0041
3442.00,0.0041
3441.00,0.0042
3440.00,0.0042
3439.00,0.0042
3438.00,0.0042
3437.00,0.0042
3436.00,0.0043
3435.00,0.0043
3434.00,0.0043
3433.00,0.0043
3432.00,0.0044
3431.00,0.0044
3430.00,0.0045
3429.00,0.0045
3428.00,0.0046
3427.00,0.0046
3426.00,0.0046
3425.00,0.0046
3424.00,0.0046
3423.00,0.0046
3422.00,0.0046
3421.00,0.0046
3420.00,0.0047
3419.00,0.0047
3418.00,0.0048
3417.00,0.0048
3416.00,0.0048
3415.00,0.0048
3414.00,0.0048
3413.00,0.0048
3412.00,0.0048
3411.00,0.0048
3410.00,0.0048
3409.00,0.0048
3408.00,0.0048
3407.00,0.0049
3406.00,0.0049
3405.00,0.0050
3404.00,0.0050
3403.00,0.0051
3402.00,0.0051
3401.00,0.0051
3400.00,0.0051
3399.00,0.0052
3398.00,0.0052
3397.00,0.0052
3396.00,0.0052
3395.00,0.0052
3394.00,0.0052
3393.00,0.0052
3392.00,0.0052
3391.00,0.0053
3390.00,0.0053
3389.00,0.0053
3388.00,0.0052
3387.00,0.0052
3386.00,0.0052
3385.00,0.0053
3384.00,0.0053
3383.00,0.0053
3382.00,0.0054
3381.00,0.0054
3380.00,0.0054
3379.00,0.0054
3378.00,0.0054
3377.00,0.0054
3376.00,0.0054
3375.00,0.0054
3374.00,0.0054
3373.00,0.0055
3372.00,0.0055
3371.00,0.0055
3370.00,0.0055
3369.00,0.0055
3368.00,0.0055
3367.00,0.0055
3366.00,0.0055
3365.00,0.0055
3364.00,0.0055
3363.00,0.0055
3362.00,0.0055
3361.00,0.0055
3360.00,0.0056
3359.00,0.0056
3358.00,0.0056
3357.00,0.0056
3356.00,0.0056
3355.00,0.0056
3354.00,0.0056
3353.00,0.0056
3352.00,0.0056
3351.00,0.0056
3350.00,0.0056
3349.00,0.0056
3348.00,0.0056
3347.00,0.0056
3346.00,0.0057
3345.00,0.0057
3344.00,0.0057
3343.00,0.0057
3342.00,0.0057
3341.00,0.0057
3340.00,0.0057
3339.00,0.0057
3338.00,0.0057
3337.00,0.0057
3336.00,0.0057
3335.00,0.0057
3334.00,0.0057
3333.00,0.0057
3332.00,0.0057
3331.00,0.0056
3330.00,0.0056
3329.00,0.0056
3328.00,0.0056
3327.00,0.0056
3326.00,0.0055
3325.00,0.0055
3324.00,0.0055
3323.00,0.0055
3322.00,0.0055
3321.00,0.0056
3320.00,0.0057
3319.00,0.0057
3318.00,0.0057
3317.00,0.0057
3316.00,0.0057
3315.00,0.0056
3314.00,0.0056
3313.00,0.0056
3312.00,0.0057
3311.00,0.0057
3310.00,0.0057
3309.00,0.0057
3308.00,0.0058
3307.00,0.0059
3306.00,0.0059
3305.00,0.0060
3304.00,0.0060
3303.00,0.0060
3302.00,0.0060
3301.00,0.0060
3300.00,0.0059
3299.00,0.0059
3298.00,0.0059
3297.00,0.0058
3296.00,0.0058
3295.00,0.0058
3294.00,0.0057
3293.00,0.0057
3292.00,0.0056
3291.00,0.0056
3290.00,0.0056
3289.00,0.0055
3288.00,0.0055
3287.00,0.0055
3286.00,0.0055
3285.00,0.0055
3284.00,0.0054
3283.00,0.0054
3282.00,0.0054
3281.00,0.0054
3280.00,0.0054
3279.00,0.0053
3278.00,0.0053
3277.00,0.0053
3276.00,0.0052
3275.00,0.0052
3274.00,0.0052
3273.00,0.0052
3272.00,0.0051
3271.00,0.0051
3270.00,0.0051
3269.00,0.0051
3268.00,0.0051
3267.00,0.0051
3266.00,0.0050
3265.00,0.0050
3264.00,0.0050
3263.00,0.0050
3262.00,0.0049
3261.00,0.0049
3260.00,0.0048
3259.00,0.0048
3258.00,0.0047
3257.00,0.0047
3256.00,0.0048
3255.00,0.0048
3254.00,0.0048
3253.00,0.0047
3252.00,0.0047
3251.00,0.0047
3250.00,0.0047
3249.00,0.0047
3248.00,0.0046
3247.00,0.0047
3246.00,0.0047
3245.00,0.0046
3244.00,0.0046
3243.00,0.0046
3242.00,0.0046
3241.00,0.0046
3240.00,0.0046
3239.00,0.0047
3238.00,0.0047
3237.00,0.0047
3236.00,0.0047
3235.00,0.0047
3234.00,0.0047
3233.00,0.0047
3232.00,0.0047
3231.00,0.0047
3230.00,0.0046
3229.00,0.0046
3228.00,0.0046
3227.00,0.0046
3226.00,0.0047
3225.00,0.0047
3224.00,0.0048
3223.00,0.0048
3222.00,0.0049
3221.00,0.0049
3220.00,0.0049
3219.00,0.0048
3218.00,0.0048
3217.00,0.0048
3216.00,0.0048
3215.00,0.0048
3214.00,0.0048
3213.00,0.0048
3212.00,0.0048
3211.00,0.0049
3210.00,0.0049
3209.00,0.0049
3208.00,0.0049
3207.00,0.0049
3206.00,0.0049
3205.00,0.0049
3204.00,0.0049
3203.00,0.0049
3202.00,0.0049
3201.00,0.0049
3200.00,0.0049
3199.00,0.0049
3198.00,0.0049
3197.00,0.0049
3196.00,0.0049
3195.00,0.0049
3194.00,0.0049
3193.00,0.0049
3192.00,0.0049
3191.00,0.0049
3190.00,0.0049
3189.00,0.0049
3188.00,0.0049
3187.00,0.0048
3186.00,0.0048
3185.00,0.0048
3184.00,0.0048
3183.00,0.0048
3182.00,0.0048
3181.00,0.0048
3180.00,0.0047
3179.00,0.0047
3178.00,0.0047
3177.00,0.0047
3176.00,0.0046
3175.00,0.0046
3174.00,0.0046
3173.00,0.0045
3172.00,0.0045
3171.00,0.0045
3170.00,0.0045
3169.00,0.0046
3168.00,0.0046
3167.00,0.0045
3166.00,0.0045
3165.00,0.0045
3164.00,0.0044
3163.00,0.0044
3162.00,0.0044
3161.00,0.0044
3160.00,0.0044
3159.00,0.0043
3158.00,0.0043
3157.00,0.0043
3156.00,0.0043
3155.00,0.0043
3154.00,0.0043
3153.00,0.0043
3152.00,0.0043
3151.00,0.0044
3150.00,0.0044
3149.00,0.0044
3148.00,0.0044
3147.00,0.0043
3146.00,0.0043
3145.00,0.0043
3144.00,0.0042
3143.00,0.0042
3142.00,0.0041
3141.00,0.0041
3140.00,0.0041
3139.00,0.0041
3138.00,0.0041
3137.00,0.0041
3136.00,0.0041
3135.00,0.0041
3134.00,0.0040
3133.00,0.0040
3132.00,0.0040
3131.00,0.0040
3130.00,0.0039
3129.00,0.0039
3128.00,0.0039
3127.00,0.0038
3126.00,0.0038
3125.00,0.0038
3124.00,0.0037
3123.00,0.0037
3122.00,0.0037
3121.00,0.0037
3120.00,0.0036
3119.00,0.0036
3118.00,0.0036
3117.00,0.0036
3116.00,0.0036
3115.00,0.0036
3114.00,0.0036
3113.00,0.0036
3112.00,0.0036
3111.00,0.0036
3110.00,0.0035
3109.00,0.0035
3108.00,0.0035
3107.00,0.0035
3106.00,0.0035
3105.00,0.0035
3104.00,0.0035
3103.00,0.0035
3102.00,0.0035
3101.00,0.0035
3100.00,0.0034
3099.00,0.0034
3098.00,0.0034
3097.00,0.0033
3096.00,0.0033
3095.00,0.0033
3094.00,0.0033
3093.00,0.0033
3092.00,0.0033
3091.00,0.0033
3090.00,0.0033
3089.00,0.0034
3088.00,0.0033
3087.00,0.0033
3086.00,0.0033
3085.00,0.0033
3084.00,0.0033
3083.00,0.0032
3082.00,0.0032
3081.00,0.0032
3080.00,0.0032
3079.00,0.0032
3078.00,0.0032
3077.00,0.0032
3076.00,0.0033
3075.00,0.0033
3074.00,0.0033
3073.00,0.0033
3072.00,0.0033
3071.00,0.0033
3070.00,0.0033
3069.00,0.0033
3068.00,0.0033
3067.00,0.0034
3066.00,0.0034
3065.00,0.0035
3064.00,0.0035
3063.00,0.0035
3062.00,0.0034
3061.00,0.0034
3060.00,0.0034
3059.00,0.0034
3058.00,0.0034
3057.00,0.0035
3056.00,0.0035
3055.00,0.0035
3054.00,0.0035
3053.00,0.0036
3052.00,0.0036
3051.00,0.0036
3050.00,0.0037
3049.00,0.0037
3048.00,0.0037
3047.00,0.0037
3046.00,0.0037
3045.00,0.0037
3044.00,0.0037
3043.00,0.0037
3042.00,0.0037
3041.00,0.0037
3040.00,0.0037
3039.00,0.0038
3038.00,0.0038
3037.00,0.0038
3036.00,0.0039
3035.00,0.0039
3034.00,0.0039
3033.00,0.0040
3032.00,0.0041
3031.00,0.0041
3030.00,0.0042
3029.00,0.0042
3028.00,0.0042
3027.00,0.0043
3026.00,0.0043
3025.00,0.0044
3024.00,0.0045
3023.00,0.0045
3022.00,0.0046
3021.00,0.0047
3020.00,0.0047
3019.00,0.0048
3018.00,0.0049
3017.00,0.0050
3016.00,0.0051
3015.00,0.0052
3014.00,0.0053
3013.00,0.0054
3012.00,0.0055
3011.00,0.0056
3010.00,0.0057
3009.00,0.0058
3008.00,0.0059
3007.00,0.0060
3006.00,0.0062
3005.00,0.0063
3004.00,0.0065
3003.00,0.0066
3002.00,0.0068
3001.00,0.0070
3000.00,0.0072
2999.00,0.0075
2998.00,0.0078
2997.00,0.0081
2996.00,0.0084
2995.00,0.0088
2994.00,0.0092
2993.00,0.0097
2992.00,0.0102
2991.00,0.0107
2990.00,0.0113
2989.00,0.0119
2988.00,0.0126
2987.00,0.0134
2986.00,0.0142
2985.00,0.0151
2984.00,0.0162
2983.00,0.0174
2982.00,0.0188
2981.00,0.0203
2980.00,0.0222
2979.00,0.0242
2978.00,0.0266
2977.00,0.0292
2976.00,0.0322
2975.00,0.0357
2974.00,0.0396
2973.00,0.0441
2972.00,0.0492
2971.00,0.0548
2970.00,0.0610
2969.00,0.0677
2968.00,0.0749
2967.00,0.0824
2966.00,0.0901
2965.00,0.0977
2964.00,0.1048
2963.00,0.1111
2962.00,0.1163
2961.00,0.1204
2960.00,0.1237
2959.00,0.1269
2958.00,0.1306
2957.00,0.1356
2956.00,0.1424
2955.00,0.1511
2954.00,0.1614
2953.00,0.1725
2952.00,0.1828
2951.00,0.1908
2950.00,0.1947
2949.00,0.1936
2948.00,0.1873
2947.00,0.1767
2946.00,0.1636
2945.00,0.1498
2944.00,0.1367
2943.00,0.1256
2942.00,0.1170
2941.00,0.1110
2940.00,0.1075
2939.00,0.1063
2938.00,0.1072
2937.00,0.1098
2936.00,0.1141
2935.00,0.1200
2934.00,0.1273
2933.00,0.1361
2932.00,0.1461
2931.00,0.1573
2930.00,0.1694
2929.00,0.1822
2928.00,0.1953
2927.00,0.2084
2926.00,0.2213
2925.00,0.2340
2924.00,0.2468
2923.00,0.2598
2922.00,0.2730
2921.00,0.2860
2920.00,0.2978
2919.00,0.3070
2918.00,0.3118
2917.00,0.3112
2916.00,0.3049
2915.00,0.2940
2914.00,0.2801
2913.00,0.2653
2912.00,0.2508
2911.00,0.2378
2910.00,0.2263
2909.00,0.2163
2908.00,0.2072
2907.00,0.1988
2906.00,0.1908
2905.00,0.1829
2904.00,0.1752
2903.00,0.1677
2902.00,0.1604
2901.00,0.1535
2900.00,0.1469
2899.00,0.1407
2898.00,0.1349
2897.00,0.1296
2896.00,0.1248
2895.00,0.1207
2894.00,0.1172
2893.00,0.1144
2892.00,0.1122
2891.00,0.1107
2890.00,0.1097
2889.00,0.1092
2888.00,0.1090
2887.00,0.1091
2886.00,0.1095
2885.00,0.1103
2884.00,0.1115
2883.00,0.1132
2882.00,0.1152
2881.00,0.1175
2880.00,0.1197
2879.00,0.1214
2878.00,0.1223
2877.00,0.1224
2876.00,0.1218
2875.00,0.1211
2874.00,0.1207
2873.00,0.1210
2872.00,0.1222
2871.00,0.1242
2870.00,0.1268
2869.00,0.1293
2868.00,0.1312
2867.00,0.1315
2866.00,0.1295
2865.00,0.1249
2864.00,0.1182
2863.00,0.1101
2862.00,0.1020
2861.00,0.0947
2860.00,0.0889
2859.00,0.0849
2858.00,0.0825
2857.00,0.0814
2856.00,0.0814
2855.00,0.0822
2854.00,0.0835
2853.00,0.0853
2852.00,0.0871
2851.00,0.0888
2850.00,0.0902
2849.00,0.0912
2848.00,0.0922
2847.00,0.0935
2846.00,0.0956
2845.00,0.0988
2844.00,0.1029
2843.00,0.1078
2842.00,0.1128
2841.00,0.1172
2840.00,0.1202
2839.00,0.1212
2838.00,0.1196
2837.00,0.1150
2836.00,0.1079
2835.00,0.0988
2834.00,0.0886
2833.00,0.0784
2832.00,0.0689
2831.00,0.0604
2830.00,0.0533
2829.00,0.0475
2828.00,0.0427
2827.00,0.0389
2826.00,0.0357
2825.00,0.0331
2824.00,0.0309
2823.00,0.0290
2822.00,0.0274
2821.00,0.0260
2820.00,0.0248
2819.00,0.0237
2818.00,0.0227
2817.00,0.0219
2816.00,0.0211
2815.00,0.0205
2814.00,0.0199
2813.00,0.0193
2812.00,0.0187
2811.00,0.0181
2810.00,0.0175
2809.00,0.0169
2808.00,0.0163
2807.00,0.0157
2806.00,0.0150
2805.00,0.0144
2804.00,0.0137
2803.00,0.0131
2802.00,0.0126
2801.00,0.0122
2800.00,0.0118
2799.00,0.0115
2798.00,0.0112
2797.00,0.0110
2796.00,0.0107
2795.00,0.0105
2794.00,0.0102
2793.00,0.0099
2792.00,0.0096
2791.00,0.0093
2790.00,0.0090
2789.00,0.0088
2788.00,0.0085
2787.00,0.0083
2786.00,0.0080
2785.00,0.0078
2784.00,0.0076
2783.00,0.0073
2782.00,0.0071
2781.00,0.0070
2780.00,0.0068
2779.00,0.0066
2778.00,0.0064
2777.00,0.0063
2776.00,0.0061
2775.00,0.0061
2774.00,0.0060
2773.00,0.0059
2772.00,0.0059
2771.00,0.0058
2770.00,0.0058
2769.00,0.0058
2768.00,0.0057
2767.00,0.0057
2766.00,0.0057
2765.00,0.0056
2764.00,0.0055
2763.00,0.0055
2762.00,0.0055
2761.00,0.0055
2760.00,0.0054
2759.00,0.0054
2758.00,0.0054
2757.00,0.0053
2756.00,0.0053
2755.00,0.0053
2754.00,0.0053
2753.00,0.0053
2752.00,0.0053
2751.00,0.0052
2750.00,0.0052
2749.00,0.0052
2748.00,0.0052
2747.00,0.0052
2746.00,0.0053
2745.00,0.0054
2744.00,0.0054
2743.00,0.0055
2742.00,0.0056
2741.00,0.0057
2740.00,0.0058
2739.00,0.0059
2738.00,0.0061
2737.00,0.0062
2736.00,0.0064
2735.00,0.0065
2734.00,0.0067
2733.00,0.0068
2732.00,0.0070
2731.00,0.0072
2730.00,0.0074
2729.00,0.0076
2728.00,0.0079
2727.00,0.0081
2726.00,0.0084
2725.00,0.0086
2724.00,0.0088
2723.00,0.0089
2722.00,0.0089
2721.00,0.0087
2720.00,0.0084
2719.00,0.0081
2718.00,0.0078
2717.00,0.0075
2716.00,0.0072
2715.00,0.0069
2714.00,0.0066
2713.00,0.0063
2712.00,0.0061
2711.00,0.0059
2710.00,0.0057
2709.00,0.0056
2708.00,0.0054
2707.00,0.0052
2706.00,0.0051
2705.00,0.0050
2704.00,0.0049
2703.00,0.0048
2702.00,0.0048
2701.00,0.0047
2700.00,0.0046
2699.00,0.0046
2698.00,0.0046
2697.00,0.0045
2696.00,0.0045
2695.00,0.0045
2694.00,0.0045
2693.00,0.0045
2692.00,0.0045
2691.00,0.0045
2690.00,0.0045
2689.00,0.0045
2688.00,0.0045
2687.00,0.0045
2686.00,0.0045
2685.00,0.0045
2684.00,0.0045
2683.00,0.0045
2682.00,0.0045
2681.00,0.0046
2680.00,0.0046
2679.00,0.0046
2678.00,0.0047
2677.00,0.0047
2676.00,0.0046
2675.00,0.0046
2674.00,0.0046
2673.00,0.0045
2672.00,0.0045
2671.00,0.0045
2670.00,0.0045
2669.00,0.0045
2668.00,0.0045
2667.00,0.0045
2666.00,0.0046
2665.00,0.0046
2664.00,0.0047
2663.00,0.0047
2662.00,0.0048
2661.00,0.0049
2660.00,0.0049
2659.00,0.0049
2658.00,0.0049
2657.00,0.0048
2656.00,0.0048
2655.00,0.0047
2654.00,0.0046
2653.00,0.0046
2652.00,0.0045
2651.00,0.0044
2650.00,0.0044
2649.00,0.0043
2648.00,0.0043
2647.00,0.0043
2646.00,0.0043
2645.00,0.0043
2644.00,0.0042
2643.00,0.0041
2642.00,0.0040
2641.00,0.0040
2640.00,0.0039
2639.00,0.0039
2638.00,0.0040
2637.00,0.0040
2636.00,0.0040
2635.00,0.0040
2634.00,0.0039
2633.00,0.0039
2632.00,0.0039
2631.00,0.0039
2630.00,0.0039
2629.00,0.0039
2628.00,0.0039
2627.00,0.0039
2626.00,0.0039
2625.00,0.0039
2624.00,0.0039
2623.00,0.0039
2622.00,0.0040
2621.00,0.0040
2620.00,0.0040
2619.00,0.0040
2618.00,0.0040
2617.00,0.0041
2616.00,0.0041
2615.00,0.0041
2614.00,0.0041
2613.00,0.0040
2612.00,0.0039
2611.00,0.0039
2610.00,0.0038
2609.00,0.0037
2608.00,0.0036
2607.00,0.0035
2606.00,0.0035
2605.00,0.0034
2604.00,0.0034
2603.00,0.0034
2602.00,0.0034
2601.00,0.0033
2600.00,0.0033
2599.00,0.0033
2598.00,0.0033
2597.00,0.0033
2596.00,0.0034
2595.00,0.0034
2594.00,0.0034
2593.00,0.0034
2592.00,0.0034
2591.00,0.0034
2590.00,0.0035
2589.00,0.0036
2588.00,0.0036
2587.00,0.0037
2586.00,0.0038
2585.00,0.0039
2584.00,0.0040
2583.00,0.0041
2582.00,0.0041
2581.00,0.0041
2580.00,0.0040
2579.00,0.0039
2578.00,0.0038
2577.00,0.0037
2576.00,0.0036
2575.00,0.0034
2574.00,0.0033
2573.00,0.0032
2572.00,0.0031
2571.00,0.0030
2570.00,0.0029
2569.00,0.0028
2568.00,0.0028
2567.00,0.0027
2566.00,0.0026
2565.00,0.0026
2564.00,0.0026
2563.00,0.0025
2562.00,0.0025
2561.00,0.0024
2560.00,0.0024
2559.00,0.0025
2558.00,0.0025
2557.00,0.0024
2556.00,0.0024
2555.00,0.0023
2554.00,0.0023
2553.00,0.0023
2552.00,0.0023
2551.00,0.0022
2550.00,0.0022
2549.00,0.0021
2548.00,0.0020
2547.00,0.0020
2546.00,0.0019
2545.00,0.0019
2544.00,0.0018
2543.00,0.0018
2542.00,0.0018
2541.00,0.0018
2540.00,0.0017
2539.00,0.0017
2538.00,0.0018
2537.00,0.0018
2536.00,0.0019
2535.00,0.0019
2534.00,0.0019
2533.00,0.0018
2532.00,0.0018
2531.00,0.0017
2530.00,0.0016
2529.00,0.0015
2528.00,0.0015
2527.00,0.0015
2526.00,0.0015
2525.00,0.0015
2524.00,0.0014
2523.00,0.0014
2522.00,0.0014
2521.00,0.0013
2520.00,0.0013
2519.00,0.0013
2518.00,0.0013
2517.00,0.0012
2516.00,0.0012
2515.00,0.0012
2514.00,0.0012
2513.00,0.0012
2512.00,0.0012
2511.00,0.0011
2510.00,0.0011
2509.00,0.0012
2508.00,0.0012
2507.00,0.0012
2506.00,0.0012
2505.00,0.0012
2504.00,0.0012
2503.00,0.0011
2502.00,0.0011
2501.00,0.0011
2500.00,0.0011
2499.00,0.0011
2498.00,0.0011
2497.00,0.0010
2496.00,0.0010
2495.00,0.0011
2494.00,0.0011
2493.00,0.0012
2492.00,0.0012
2491.00,0.0012
2490.00,0.0012
2489.00,0.0012
2488.00,0.0011
2487.00,0.0011
2486.00,0.0011
2485.00,0.0011
2484.00,0.0010
2483.00,0.0010
2482.00,0.0010
2481.00,0.0009
2480.00,0.0009
2479.00,0.0009
2478.00,0.0009
2477.00,0.0008
2476.00,0.0008
2475.00,0.0009
2474.00,0.0009
2473.00,0.0009
2472.00,0.0009
2471.00,0.0008
2470.00,0.0008
2469.00,0.0007
2468.00,0.0008
2467.00,0.0009
2466.00,0.0010
2465.00,0.0011
2464.00,0.0011
2463.00,0.0012
2462.00,0.0012
2461.00,0.0012
2460.00,0.0012
2459.00,0.0011
2458.00,0.0011
2457.00,0.0011
2456.00,0.0011
2455.00,0.0011
2454.00,0.0011
2453.00,0.0011
2452.00,0.0011
2451.00,0.0011
2450.00,0.0012
2449.00,0.0013
2448.00,0.0013
2447.00,0.0013
2446.00,0.0013
2445.00,0.0013
2444.00,0.0012
2443.00,0.0012
2442.00,0.0011
2441.00,0.0010
2440.00,0.0010
2439.00,0.0010
2438.00,0.0010
2437.00,0.0010
2436.00,0.0011
2435.00,0.0011
2434.00,0.0011
2433.00,0.0011
2432.00,0.0011
2431.00,0.0011
2430.00,0.0011
2429.00,0.0011
2428.00,0.0011
2427.00,0.0011
2426.00,0.0012
2425.00,0.0012
2424.00,0.0011
2423.00,0.0011
2422.00,0.0010
2421.00,0.0010
2420.00,0.0010
2419.00,0.0010
2418.00,0.0010
2417.00,0.0010
2416.00,0.0010
2415.00,0.0010
2414.00,0.0011
2413.00,0.0011
2412.00,0.0011
2411.00,0.0011
2410.00,0.0010
2409.00,0.0010
2408.00,0.0009
2407.00,0.0009
2406.00,0.0008
2405.00,0.0008
2404.00,0.0008
2403.00,0.0008
2402.00,0.0008
2401.00,0.0008
2400.00,0.0008
2399.00,0.0008
2398.00,0.0008
2397.00,0.0009
2396.00,0.0009
2395.00,0.0009
2394.00,0.0009
2393.00,0.0009
2392.00,0.0008
2391.00,0.0008
2390.00,0.0007
2389.00,0.0007
2388.00,0.0007
2387.00,0.0007
2386.00,0.0007
2385.00,0.0007
2384.00,0.0006
2383.00,0.0006
2382.00,0.0006
2381.00,0.0006
2380.00,0.0007
2379.00,0.0007
2378.00,0.0007
2377.00,0.0006
2376.00,0.0006
2375.00,0.0005
2374.00,0.0005
2373.00,0.0005
2372.00,0.0005
2371.00,0.0005
2370.00,0.0004
2369.00,0.0004
2368.00,0.0004
2367.00,0.0004
2366.00,0.0006
2365.00,0.0007
2364.00,0.0007
2363.00,0.0007
2362.00,0.0007
2361.00,0.0007
2360.00,0.0007
2359.00,0.0007
2358.00,0.0007
2357.00,0.0007
2356.00,0.0007
2355.00,0.0007
2354.00,0.0008
2353.00,0.0008
2352.00,0.0008
2351.00,0.0008
2350.00,0.0008
2349.00,0.0008
2348.00,0.0008
2347.00,0.0008
2346.00,0.0008
2345.00,0.0008
2344.00,0.0009
2343.00,0.0010
2342.00,0.0011
2341.00,0.0011
2340.00,0.0012
2339.00,0.0011
2338.00,0.0011
2337.00,0.0011
2336.00,0.0011
2335.00,0.0012
2334.00,0.0012
2333.00,0.0011
2332.00,0.0011
2331.00,0.0010
2330.00,0.0009
2329.00,0.0009
2328.00,0.0011
2327.00,0.0014
2326.00,0.0018
2325.00,0.0022
2324.00,0.0024
2323.00,0.0023
2322.00,0.0021
2321.00,0.0019
2320.00,0.0017
2319.00,0.0016
2318.00,0.0015
2317.00,0.0014
2316.00,0.0014
2315.00,0.0013
2314.00,0.0013
2313.00,0.0012
2312.00,0.0012
2311.00,0.0012
2310.00,0.0011
2309.00,0.0011
2308.00,0.0011
2307.00,0.0011
2306.00,0.0011
2305.00,0.0011
2304.00,0.0011
2303.00,0.0011
2302.00,0.0011
2301.00,0.0011
2300.00,0.0011
2299.00,0.0011
2298.00,0.0011
2297.00,0.0011
2296.00,0.0012
2295.00,0.0013
2294.00,0.0014
2293.00,0.0014
2292.00,0.0015
2291.00,0.0016
2290.00,0.0017
2289.00,0.0018
2288.00,0.0018
2287.00,0.0018
2286.00,0.0018
2285.00,0.0018
2284.00,0.0018
2283.00,0.0018
2282.00,0.0018
2281.00,0.0017
2280.00,0.0016
2279.00,0.0014
2278.00,0.0013
2277.00,0.0013
2276.00,0.0013
2275.00,0.0014
2274.00,0.0015
2273.00,0.0015
2272.00,0.0015
2271.00,0.0014
2270.00,0.0014
2269.00,0.0014
2268.00,0.0014
2267.00,0.0013
2266.00,0.0012
2265.00,0.0011
2264.00,0.0011
2263.00,0.0011
2262.00,0.0012
2261.00,0.0013
2260.00,0.0013
2259.00,0.0013
2258.00,0.0013
2257.00,0.0012
2256.00,0.0011
2255.00,0.0010
2254.00,0.0009
2253.00,0.0008
2252.00,0.0009
2251.00,0.0009
2250.00,0.0010
2249.00,0.0011
2248.00,0.0011
2247.00,0.0010
2246.00,0.0009
2245.00,0.0007
2244.00,0.0007
2243.00,0.0007
2242.00,0.0008
2241.00,0.0008
2240.00,0.0008
2239.00,0.0007
2238.00,0.0007
2237.00,0.0008
2236.00,0.0008
2235.00,0.0009
2234.00,0.0009
2233.00,0.0008
2232.00,0.0006
2231.00,0.0005
2230.00,0.0004
2229.00,0.0004
2228.00,0.0005
2227.00,0.0006
2226.00,0.0007
2225.00,0.0008
2224.00,0.0008
2223.00,0.0007
2222.00,0.0006
2221.00,0.0005
2220.00,0.0006
2219.00,0.0008
2218.00,0.0010
2217.00,0.0011
2216.00,0.0011
2215.00,0.0010
2214.00,0.0009
2213.00,0.0009
2212.00,0.0009
2211.00,0.0009
2210.00,0.0008
2209.00,0.0006
2208.00,0.0006
2207.00,0.0006
2206.00,0.0006
2205.00,0.0007
2204.00,0.0007
2203.00,0.0007
2202.00,0.0007
2201.00,0.0007
2200.00,0.0007
2199.00,0.0007
2198.00,0.0007
2197.00,0.0008
2196.00,0.0008
2195.00,0.0008
2194.00,0.0008
2193.00,0.0008
2192.00,0.0008
2191.00,0.0009
2190.00,0.0010
2189.00,0.0010
2188.00,0.0010
2187.00,0.0011
2186.00,0.0011
2185.00,0.0010
2184.00,0.0008
2183.00,0.0006
2182.00,0.0004
2181.00,0.0005
2180.00,0.0006
2179.00,0.0007
2178.00,0.0006
2177.00,0.0004
2176.00,0.0002
2175.00,0.0000
2174.00,0.0000
2173.00,0.0002
2172.00,0.0005
2171.00,0.0006
2170.00,0.0006
2169.00,0.0008
2168.00,0.0011
2167.00,0.0015
2166.00,0.0019
2165.00,0.0022
2164.00,0.0023
2163.00,0.0024
2162.00,0.0021
2161.00,0.0015
2160.00,0.0005
2159.00,-0.0008
2158.00,-0.0018
2157.00,-0.0022
2156.00,-0.0022
2155.00,-0.0019
2154.00,-0.0017
2153.00,-0.0015
2152.00,-0.0015
2151.00,-0.0015
2150.00,-0.0016
2149.00,-0.0015
2148.00,-0.0014
2147.00,-0.0014
2146.00,-0.0013
2145.00,-0.0012
2144.00,-0.0012
2143.00,-0.0013
2142.00,-0.0013
2141.00,-0.0013
2140.00,-0.0013
2139.00,-0.0012
2138.00,-0.0011
2137.00,-0.0009
2136.00,-0.0008
2135.00,-0.0010
2134.00,-0.0012
2133.00,-0.0014
2132.00,-0.0015
2131.00,-0.0014
2130.00,-0.0013
2129.00,-0.0012
2128.00,-0.0010
2127.00,-0.0009
2126.00,-0.0008
2125.00,-0.0008
2124.00,-0.0009
2123.00,-0.0009
2122.00,-0.0008
2121.00,-0.0007
2120.00,-0.0005
2119.00,-0.0003
2118.00,-0.0002
2117.00,0.0000
2116.00,0.0002
2115.00,0.0003
2114.00,0.0003
2113.00,0.0003
2112.00,0.0002
2111.00,0.0003
2110.00,0.0003
2109.00,0.0004
2108.00,0.0003
2107.00,0.0002
2106.00,0.0000
2105.00,0.0000
2104.00,0.0001
2103.00,0.0001
2102.00,0.0001
2101.00,0.0000
2100.00,0.0000
2099.00,0.0000
2098.00,-0.0000
2097.00,-0.0001
2096.00,-0.0003
2095.00,-0.0004
2094.00,-0.0005
2093.00,-0.0004
2092.00,-0.0002
2091.00,-0.0001
2090.00,0.0000
2089.00,0.0001
2088.00,0.0002
2087.00,0.0003
2086.00,0.0004
2085.00,0.0004
2084.00,0.0004
2083.00,0.0003
2082.00,0.0001
2081.00,-0.0000
2080.00,-0.0001
2079.00,-0.0001
2078.00,-0.0001
2077.00,0.0001
2076.00,0.0002
2075.00,0.0003
2074.00,0.0003
2073.00,0.0003
2072.00,0.0003
2071.00,0.0003
2070.00,0.0001
2069.00,0.0000
2068.00,-0.0001
2067.00,-0.0002
2066.00,-0.0002
2065.00,-0.0003
2064.00,-0.0002
2063.00,-0.0001
2062.00,0.0001
2061.00,0.0002
2060.00,0.0003
2059.00,0.0002
2058.00,0.0001
2057.00,-0.0001
2056.00,-0.0002
2055.00,-0.0003
2054.00,-0.0003
2053.00,-0.0001
2052.00,0.0004
2051.00,0.0009
2050.00,0.0012
2049.00,0.0012
2048.00,0.0009
2047.00,0.0007
2046.00,0.0004
2045.00,0.0003
2044.00,0.0002
2043.00,0.0002
2042.00,0.0002
2041.00,0.0002
2040.00,0.0003
2039.00,0.0004
2038.00,0.0004
2037.00,0.0002
2036.00,-0.0001
2035.00,-0.0005
2034.00,-0.0006
2033.00,-0.0004
2032.00,-0.0001
2031.00,0.0000
2030.00,-0.0002
2029.00,-0.0006
2028.00,-0.0008
2027.00,-0.0008
2026.00,-0.0007
2025.00,-0.0007
2024.00,-0.0009
2023.00,-0.0012
2022.00,-0.0016
2021.00,-0.0018
2020.00,-0.0019
2019.00,-0.0019
2018.00,-0.0017
2017.00,-0.0014
2016.00,-0.0011
2015.00,-0.0010
2014.00,-0.0010
2013.00,-0.0009
2012.00,-0.0009
2011.00,-0.0010
2010.00,-0.0012
2009.00,-0.0015
2008.00,-0.0018
2007.00,-0.0019
2006.00,-0.0019
2005.00,-0.0016
2004.00,-0.0012
2003.00,-0.0010
2002.00,-0.0010
2001.00,-0.0012
2000.00,-0.0014
1999.00,-0.0014
1998.00,-0.0013
1997.00,-0.0011
1996.00,-0.0009
1995.00,-0.0009
1994.00,-0.0009
1993.00,-0.0009
1992.00,-0.0008
1991.00,-0.0006
1990.00,-0.0003
1989.00,0.0001
1988.00,0.0004
1987.00,0.0005
1986.00,0.0005
1985.00,0.0003
1984.00,0.0003
1983.00,0.0004
1982.00,0.0006
1981.00,0.0007
1980.00,0.0006
1979.00,0.0002
1978.00,-0.0003
1977.00,-0.0009
1976.00,-0.0014
1975.00,-0.0016
1974.00,-0.0017
1973.00,-0.0015
1972.00,-0.0015
1971.00,-0.0017
1970.00,-0.0019
1969.00,-0.0020
1968.00,-0.0020
1967.00,-0.0019
1966.00,-0.0019
1965.00,-0.0018
1964.00,-0.0017
1963.00,-0.0016
1962.00,-0.0016
1961.00,-0.0017
1960.00,-0.0018
1959.00,-0.0020
1958.00,-0.0020
1957.00,-0.0020
1956.00,-0.0018
1955.00,-0.0017
1954.00,-0.0017
1953.00,-0.0017
1952.00,-0.0016
1951.00,-0.0017
1950.00,-0.0017
1949.00,-0.0017
1948.00,-0.0016
1947.00,-0.0015
1946.00,-0.0014
1945.00,-0.0013
1944.00,-0.0012
1943.00,-0.0011
1942.00,-0.0011
1941.00,-0.0010
1940.00,-0.0009
1939.00,-0.0008
1938.00,-0.0008
1937.00,-0.0008
1936.00,-0.0009
1935.00,-0.0008
1934.00,-0.0008
1933.00,-0.0007
1932.00,-0.0006
1931.00,-0.0006
1930.00,-0.0006
1929.00,-0.0006
1928.00,-0.0006
1927.00,-0.0006
1926.00,-0.0007
1925.00,-0.0007
1924.00,-0.0007
1923.00,-0.0006
1922.00,-0.0006
1921.00,-0.0005
1920.00,-0.0004
1919.00,-0.0003
1918.00,-0.0003
1917.00,-0.0003
1916.00,-0.0002
1915.00,-0.0002
1914.00,-0.0001
1913.00,-0.0001
1912.00,-0.0002
1911.00,-0.0003
1910.00,-0.0003
1909.00,-0.0003
1908.00,-0.0003
1907.00,-0.0003
1906.00,-0.0003
1905.00,-0.0003
1904.00,-0.0002
1903.00,-0.0001
1902.00,-0.0001
1901.00,-0.0000
1900.00,-0.0000
1899.00,-0.0001
1898.00,-0.0002
1897.00,-0.0002
1896.00,-0.0001
1895.00,0.0001
1894.00,0.0002
1893.00,0.0002
1892.00,0.0003
1891.00,0.0002
1890.00,0.0001
1889.00,0.0000
1888.00,0.0000
1887.00,0.0000
1886.00,-0.0000
1885.00,-0.0001
1884.00,-0.0002
1883.00,-0.0002
1882.00,-0.0002
1881.00,-0.0002
1880.00,-0.0001
1879.00,-0.0001
1878.00,-0.0001
1877.00,-0.0002
1876.00,-0.0002
1875.00,-0.0002
1874.00,-0.0002
1873.00,-0.0002
1872.00,-0.0001
1871.00,-0.0001
1870.00,-0.0000
1869.00,-0.0000
1868.00,0.0000
1867.00,-0.0000
1866.00,-0.0000
1865.00,-0.0001
1864.00,-0.0000
1863.00,0.0000
1862.00,0.0001
1861.00,0.0002
1860.00,0.0001
1859.00,0.0001
1858.00,0.0000
1857.00,0.0000
1856.00,-0.0000
1855.00,-0.0001
1854.00,-0.0001
1853.00,-0.0001
1852.00,-0.0001
1851.00,0.0000
1850.00,0.0000
1849.00,0.0000
1848.00,0.0000
1847.00,0.0001
1846.00,0.0001
1845.00,0.0001
1844.00,0.0001
1843.00,0.0001
1842.00,0.0001
1841.00,0.0001
1840.00,0.0001
1839.00,0.0001
1838.00,0.0001
1837.00,0.0002
1836.00,0.0003
1835.00,0.0003
1834.00,0.0003
1833.00,0.0003
1832.00,0.0003
1831.00,0.0003
1830.00,0.0003
1829.00,0.0004
1828.00,0.0004
1827.00,0.0005
1826.00,0.0005
1825.00,0.0005
1824.00,0.0004
1823.00,0.0004
1822.00,0.0004
1821.00,0.0004
1820.00,0.0003
1819.00,0.0002
1818.00,0.0000
1817.00,-0.0000
1816.00,0.0000
1815.00,0.0001
1814.00,0.0002
1813.00,0.0002
1812.00,0.0003
1811.00,0.0003
1810.00,0.0003
1809.00,0.0003
1808.00,0.0003
1807.00,0.0004
1806.00,0.0004
1805.00,0.0005
1804.00,0.0005
1803.00,0.0005
1802.00,0.0005
1801.00,0.0005
1800.00,0.0005
1799.00,0.0005
1798.00,0.0005
1797.00,0.0005
1796.00,0.0005
1795.00,0.0005
1794.00,0.0005
1793.00,0.0005
1792.00,0.0006
1791.00,0.0006
1790.00,0.0007
1789.00,0.0007
1788.00,0.0007
1787.00,0.0008
1786.00,0.0008
1785.00,0.0007
1784.00,0.0007
1783.00,0.0007
1782.00,0.0007
1781.00,0.0008
1780.00,0.0008
1779.00,0.0008
1778.00,0.0008
1777.00,0.0008
1776.00,0.0008
1775.00,0.0007
1774.00,0.0006
1773.00,0.0006
1772.00,0.0007
1771.00,0.0008
1770.00,0.0010
1769.00,0.0011
1768.00,0.0012
1767.00,0.0011
1766.00,0.0011
1765.00,0.0011
1764.00,0.0011
1763.00,0.0011
1762.00,0.0012
1761.00,0.0012
1760.00,0.0012
1759.00,0.0013
1758.00,0.0014
1757.00,0.0015
1756.00,0.0015
1755.00,0.0015
1754.00,0.0015
1753.00,0.0015
1752.00,0.0015
1751.00,0.0017
1750.00,0.0018
1749.00,0.0019
1748.00,0.0020
1747.00,0.0021
1746.00,0.0022
1745.00,0.0023
1744.00,0.0024
1743.00,0.0024
1742.00,0.0024
1741.00,0.0025
1740.00,0.0025
1739.00,0.0025
1738.00,0.0026
1737.00,0.0026
1736.00,0.0026
1735.00,0.0026
1734.00,0.0026
1733.00,0.0027
1732.00,0.0027
1731.00,0.0027
1730.00,0.0027
1729.00,0.0027
1728.00,0.0027
1727.00,0.0027
1726.00,0.0026
1725.00,0.0026
1724.00,0.0026
1723.00,0.0026
1722.00,0.0027
1721.00,0.0027
1720.00,0.0027
1719.00,0.0027
1718.00,0.0027
1717.00,0.0026
1716.00,0.0026
1715.00,0.0025
1714.00,0.0025
1713.00,0.0025
1712.00,0.0025
1711.00,0.0025
1710.00,0.0025
1709.00,0.0026
1708.00,0.0026
1707.00,0.0026
1706.00,0.0026
1705.00,0.0026
1704.00,0.0027
1703.00,0.0027
1702.00,0.0027
1701.00,0.0028
1700.00,0.0030
1699.00,0.0030
1698.00,0.0031
1697.00,0.0031
1696.00,0.0031
1695.00,0.0032
1694.00,0.0032
1693.00,0.0033
1692.00,0.0034
1691.00,0.0034
1690.00,0.0034
1689.00,0.0035
1688.00,0.0036
1687.00,0.0036
1686.00,0.0036
1685.00,0.0037
1684.00,0.0039
1683.00,0.0041
1682.00,0.0041
1681.00,0.0042
1680.00,0.0043
1679.00,0.0044
1678.00,0.0045
1677.00,0.0046
1676.00,0.0047
1675.00,0.0049
1674.00,0.0050
1673.00,0.0051
1672.00,0.0051
1671.00,0.0051
1670.00,0.0052
1669.00,0.0052
1668.00,0.0053
1667.00,0.0054
1666.00,0.0055
1665.00,0.0055
1664.00,0.0056
1663.00,0.0057
1662.00,0.0057
1661.00,0.0057
1660.00,0.0057
1659.00,0.0057
1658.00,0.0057
1657.00,0.0058
1656.00,0.0058
1655.00,0.0058
1654.00,0.0059
1653.00,0.0062
1652.00,0.0064
1651.00,0.0065
1650.00,0.0066
1649.00,0.0067
1648.00,0.0069
1647.00,0.0071
1646.00,0.0072
1645.00,0.0073
1644.00,0.0073
1643.00,0.0074
1642.00,0.0074
1641.00,0.0075
1640.00,0.0075
1639.00,0.0076
1638.00,0.0076
1637.00,0.0077
1636.00,0.0077
1635.00,0.0077
1634.00,0.0076
1633.00,0.0075
1632.00,0.0074
1631.00,0.0074
1630.00,0.0073
1629.00,0.0072
1628.00,0.0072
1627.00,0.0071
1626.00,0.0071
1625.00,0.0070
1624.00,0.0069
1623.00,0.0068
1622.00,0.0068
1621.00,0.0068
1620.00,0.0068
1619.00,0.0067
1618.00,0.0067
1617.00,0.0066
1616.00,0.0066
1615.00,0.0066
1614.00,0.0066
1613.00,0.0066
1612.00,0.0066
1611.00,0.0066
1610.00,0.0066
1609.00,0.0066
1608.00,0.0066
1607.00,0.0067
1606.00,0.0067
1605.00,0.0067
1604.00,0.0067
1603.00,0.0067
1602.00,0.0067
1601.00,0.0067
1600.00,0.0067
1599.00,0.0066
1598.00,0.0066
1597.00,0.0065
1596.00,0.0065
1595.00,0.0064
1594.00,0.0064
1593.00,0.0064
1592.00,0.0065
1591.00,0.0064
1590.00,0.0064
1589.00,0.0064
1588.00,0.0065
1587.00,0.0065
1586.00,0.0066
1585.00,0.0066
1584.00,0.0067
1583.00,0.0067
1582.00,0.0067
1581.00,0.0068
1580.00,0.0069
1579.00,0.0070
1578.00,0.0071
1577.00,0.0071
1576.00,0.0071
1575.00,0.0071
1574.00,0.0071
1573.00,0.0070
1572.00,0.0070
1571.00,0.0070
1570.00,0.0070
1569.00,0.0071
1568.00,0.0072
1567.00,0.0072
1566.00,0.0072
1565.00,0.0072
1564.00,0.0072
1563.00,0.0073
1562.00,0.0073
1561.00,0.0074
1560.00,0.0074
1559.00,0.0073
1558.00,0.0073
1557.00,0.0073
1556.00,0.0074
1555.00,0.0075
1554.00,0.0076
1553.00,0.0077
1552.00,0.0079
1551.00,0.0079
1550.00,0.0080
1549.00,0.0080
1548.00,0.0081
1547.00,0.0081
1546.00,0.0082
1545.00,0.0083
1544.00,0.0084
1543.00,0.0084
1542.00,0.0083
1541.00,0.0081
1540.00,0.0080
1539.00,0.0078
1538.00,0.0077
1537.00,0.0076
1536.00,0.0075
1535.00,0.0074
1534.00,0.0071
1533.00,0.0069
1532.00,0.0067
1531.00,0.0066
1530.00,0.0065
1529.00,0.0064
1528.00,0.0064
1527.00,0.0063
1526.00,0.0062
1525.00,0.0061
1524.00,0.0062
1523.00,0.0062
1522.00,0.0061
1521.00,0.0062
1520.00,0.0062
1519.00,0.0061
1518.00,0.0060
1517.00,0.0060
1516.00,0.0061
1515.00,0.0061
1514.00,0.0060
1513.00,0.0061
1512.00,0.0062
1511.00,0.0064
1510.00,0.0065
1509.00,0.0066
1508.00,0.0068
1507.00,0.0069
1506.00,0.0069
1505.00,0.0070
1504.00,0.0071
1503.00,0.0072
1502.00,0.0074
1501.00,0.0076
1500.00,0.0079
1499.00,0.0081
1498.00,0.0084
1497.00,0.0087
1496.00,0.0091
1495.00,0.0094
1494.00,0.0096
1493.00,0.0099
1492.00,0.0103
1491.00,0.0107
1490.00,0.0111
1489.00,0.0117
1488.00,0.0122
1487.00,0.0126
1486.00,0.0131
1485.00,0.0136
1484.00,0.0143
1483.00,0.0150
1482.00,0.0158
1481.00,0.0169
1480.00,0.0181
1479.00,0.0194
1478.00,0.0210
1477.00,0.0231
1476.00,0.0257
1475.00,0.0287
1474.00,0.0328
1473.00,0.0386
1472.00,0.0455
1471.00,0.0523
1470.00,0.0587
1469.00,0.0656
1468.00,0.0729
1467.00,0.0810
1466.00,0.0902
1465.00,0.0999
1464.00,0.1084
1463.00,0.1142
1462.00,0.1178
1461.00,0.1201
1460.00,0.1215
1459.00,0.1222
1458.00,0.1224
1457.00,0.1222
1456.00,0.1211
1455.00,0.1196
1454.00,0.1178
1453.00,0.1156
1452.00,0.1126
1451.00,0.1086
1450.00,0.1034
1449.00,0.0963
1448.00,0.0875
1447.00,0.0783
1446.00,0.0699
1445.00,0.0628
1444.00,0.0567
1443.00,0.0518
1442.00,0.0481
1441.00,0.0456
1440.00,0.0442
1439.00,0.0437
1438.00,0.0441
1437.00,0.0446
1436.00,0.0440
1435.00,0.0417
1434.00,0.0381
1433.00,0.0338
1432.00,0.0292
1431.00,0.0251
1430.00,0.0219
1429.00,0.0196
1428.00,0.0179
1427.00,0.0169
1426.00,0.0162
1425.00,0.0156
1424.00,0.0150
1423.00,0.0147
1422.00,0.0145
1421.00,0.0143
1420.00,0.0140
1419.00,0.0138
1418.00,0.0136
1417.00,0.0133
1416.00,0.0130
1415.00,0.0129
1414.00,0.0128
1413.00,0.0126
1412.00,0.0124
1411.00,0.0123
1410.00,0.0122
1409.00,0.0121
1408.00,0.0119
1407.00,0.0119
1406.00,0.0119
1405.00,0.0119
1404.00,0.0119
1403.00,0.0120
1402.00,0.0121
1401.00,0.0122
1400.00,0.0123
1399.00,0.0124
1398.00,0.0127
1397.00,0.0128
1396.00,0.0130
1395.00,0.0133
1394.00,0.0138
1393.00,0.0142
1392.00,0.0146
1391.00,0.0154
1390.00,0.0164
1389.00,0.0177
1388.00,0.0196
1387.00,0.0225
1386.00,0.0266
1385.00,0.0319
1384.00,0.0393
1383.00,0.0497
1382.00,0.0639
1381.00,0.0825
1380.00,0.1065
1379.00,0.1352
1378.00,0.1648
1377.00,0.1889
1376.00,0.2001
1375.00,0.1936
1374.00,0.1712
1373.00,0.1419
1372.00,0.1141
1371.00,0.0908
1370.00,0.0723
1369.00,0.0583
1368.00,0.0488
1367.00,0.0431
1366.00,0.0399
1365.00,0.0387
1364.00,0.0390
1363.00,0.0405
1362.00,0.0428
1361.00,0.0453
1360.00,0.0472
1359.00,0.0478
1358.00,0.0467
1357.00,0.0440
1356.00,0.0400
1355.00,0.0357
1354.00,0.0315
1353.00,0.0279
1352.00,0.0251
1351.00,0.0227
1350.00,0.0208
1349.00,0.0192
1348.00,0.0179
1347.00,0.0168
1346.00,0.0159
1345.00,0.0151
1344.00,0.0144
1343.00,0.0139
1342.00,0.0135
1341.00,0.0132
1340.00,0.0129
1339.00,0.0127
1338.00,0.0125
1337.00,0.0125
1336.00,0.0125
1335.00,0.0127
1334.00,0.0129
1333.00,0.0133
1332.00,0.0137
1331.00,0.0140
1330.00,0.0141
1329.00,0.0140
1328.00,0.0137
1327.00,0.0132
1326.00,0.0126
1325.00,0.0120
1324.00,0.0115
1323.00,0.0110
1322.00,0.0106
1321.00,0.0103
1320.00,0.0100
1319.00,0.0099
1318.00,0.0097
1317.00,0.0096
1316.00,0.0095
1315.00,0.0094
1314.00,0.0093
1313.00,0.0093
1312.00,0.0094
1311.00,0.0095
1310.00,0.0098
1309.00,0.0102
1308.00,0.0108
1307.00,0.0116
1306.00,0.0124
1305.00,0.0130
1304.00,0.0132
1303.00,0.0131
1302.00,0.0128
1301.00,0.0126
1300.00,0.0126
1299.00,0.0127
1298.00,0.0129
1297.00,0.0130
1296.00,0.0130
1295.00,0.0128
1294.00,0.0124
1293.00,0.0119
1292.00,0.0114
1291.00,0.0108
1290.00,0.0103
1289.00,0.0099
1288.00,0.0096
1287.00,0.0093
1286.00,0.0091
1285.00,0.0089
1284.00,0.0088
1283.00,0.0087
1282.00,0.0085
1281.00,0.0084
1280.00,0.0084
1279.00,0.0083
1278.00,0.0082
1277.00,0.0082
1276.00,0.0082
1275.00,0.0082
1274.00,0.0082
1273.00,0.0082
1272.00,0.0083
1271.00,0.0083
1270.00,0.0084
1269.00,0.0086
1268.00,0.0088
1267.00,0.0091
1266.00,0.0094
1265.00,0.0097
1264.00,0.0100
1263.00,0.0103
1262.00,0.0106
1261.00,0.0109
1260.00,0.0112
1259.00,0.0116
1258.00,0.0120
1257.00,0.0123
1256.00,0.0123
1255.00,0.0121
1254.00,0.0117
1253.00,0.0111
1252.00,0.0105
1251.00,0.0100
1250.00,0.0097
1249.00,0.0094
1248.00,0.0092
1247.00,0.0090
1246.00,0.0088
1245.00,0.0086
1244.00,0.0084
1243.00,0.0083
1242.00,0.0082
1241.00,0.0081
1240.00,0.0081
1239.00,0.0080
1238.00,0.0079
1237.00,0.0078
1236.00,0.0078
1235.00,0.0079
1234.00,0.0080
1233.00,0.0081
1232.00,0.0081
1231.00,0.0082
1230.00,0.0083
1229.00,0.0083
1228.00,0.0084
1227.00,0.0086
1226.00,0.0089
1225.00,0.0093
1224.00,0.0097
1223.00,0.0101
1222.00,0.0105
1221.00,0.0107
1220.00,0.0109
1219.00,0.0109
1218.00,0.0108
1217.00,0.0106
1216.00,0.0102
1215.00,0.0099
1214.00,0.0095
1213.00,0.0092
1212.00,0.0090
1211.00,0.0088
1210.00,0.0086
1209.00,0.0085
1208.00,0.0084
1207.00,0.0084
1206.00,0.0083
1205.00,0.0083
1204.00,0.0083
1203.00,0.0083
1202.00,0.0083
1201.00,0.0083
1200.00,0.0083
1199.00,0.0083
1198.00,0.0083
1197.00,0.0083
1196.00,0.0083
1195.00,0.0083
1194.00,0.0083
1193.00,0.0082
1192.00,0.0082
1191.00,0.0082
1190.00,0.0083
1189.00,0.0083
1188.00,0.0083
1187.00,0.0083
1186.00,0.0084
1185.00,0.0084
1184.00,0.0085
1183.00,0.0086
1182.00,0.0088
1181.00,0.0089
1180.00,0.0091
1179.00,0.0095
1178.00,0.0099
1177.00,0.0105
1176.00,0.0113
1175.00,0.0123
1174.00,0.0137
1173.00,0.0155
1172.00,0.0176
1171.00,0.0199
1170.00,0.0222
1169.00,0.0241
1168.00,0.0253
1167.00,0.0257
1166.00,0.0253
1165.00,0.0244
1164.00,0.0233
1163.00,0.0223
1162.00,0.0214
1161.00,0.0207
1160.00,0.0201
1159.00,0.0198
1158.00,0.0196
1157.00,0.0194
1156.00,0.0193
1155.00,0.0193
1154.00,0.0193
1153.00,0.0191
1152.00,0.0188
1151.00,0.0182
1150.00,0.0175
1149.00,0.0166
1148.00,0.0157
1147.00,0.0149
1146.00,0.0142
1145.00,0.0135
1144.00,0.0128
1143.00,0.0122
1142.00,0.0116
1141.00,0.0111
1140.00,0.0107
1139.00,0.0102
1138.00,0.0098
1137.00,0.0095
1136.00,0.0092
1135.00,0.0091
1134.00,0.0091
1133.00,0.0091
1132.00,0.0090
1131.00,0.0090
1130.00,0.0089
1129.00,0.0088
1128.00,0.0089
1127.00,0.0090
1126.00,0.0091
1125.00,0.0092
1124.00,0.0094
1123.00,0.0095
1122.00,0.0097
1121.00,0.0099
1120.00,0.0099
1119.00,0.0100
1118.00,0.0101
1117.00,0.0103
1116.00,0.0103
1115.00,0.0104
1114.00,0.0106
1113.00,0.0108
1112.00,0.0110
1111.00,0.0113
1110.00,0.0115
1109.00,0.0119
1108.00,0.0123
1107.00,0.0129
1106.00,0.0135
1105.00,0.0142
1104.00,0.0148
1103.00,0.0152
1102.00,0.0152
1101.00,0.0149
1100.00,0.0143
1099.00,0.0137
1098.00,0.0130
1097.00,0.0124
1096.00,0.0119
1095.00,0.0115
1094.00,0.0111
1093.00,0.0108
1092.00,0.0106
1091.00,0.0104
1090.00,0.0103
1089.00,0.0101
1088.00,0.0100
1087.00,0.0099
1086.00,0.0099
1085.00,0.0099
1084.00,0.0099
1083.00,0.0099
1082.00,0.0099
1081.00,0.0099
1080.00,0.0098
1079.00,0.0097
1078.00,0.0095
1077.00,0.0093
1076.00,0.0091
1075.00,0.0090
1074.00,0.0089
1073.00,0.0089
1072.00,0.0091
1071.00,0.0092
1070.00,0.0092
1069.00,0.0092
1068.00,0.0091
1067.00,0.0092
1066.00,0.0093
1065.00,0.0094
1064.00,0.0095
1063.00,0.0095
1062.00,0.0096
1061.00,0.0097
1060.00,0.0098
1059.00,0.0099
1058.00,0.0100
1057.00,0.0100
1056.00,0.0101
1055.00,0.0102
1054.00,0.0104
1053.00,0.0106
1052.00,0.0109
1051.00,0.0113
1050.00,0.0117
1049.00,0.0121
1048.00,0.0125
1047.00,0.0129
1046.00,0.0132
1045.00,0.0134
1044.00,0.0135
1043.00,0.0135
1042.00,0.0134
1041.00,0.0132
1040.00,0.0131
1039.00,0.0130
1038.00,0.0129
1037.00,0.0129
1036.00,0.0129
1035.00,0.0130
1034.00,0.0129
1033.00,0.0128
1032.00,0.0127
1031.00,0.0126
1030.00,0.0126
1029.00,0.0127
1028.00,0.0128
1027.00,0.0130
1026.00,0.0132
1025.00,0.0133
1024.00,0.0135
1023.00,0.0138
1022.00,0.0140
1021.00,0.0142
1020.00,0.0144
1019.00,0.0145
1018.00,0.0145
1017.00,0.0145
1016.00,0.0144
1015.00,0.0143
1014.00,0.0141
1013.00,0.0139
1012.00,0.0137
1011.00,0.0135
1010.00,0.0135
1009.00,0.0135
1008.00,0.0137
1007.00,0.0140
1006.00,0.0145
1005.00,0.0152
1004.00,0.0162
1003.00,0.0177
1002.00,0.0197
1001.00,0.0222
1000.00,0.0249
999.00,0.0270
998.00,0.0279
997.00,0.0272
996.00,0.0251
995.00,0.0223
994.00,0.0193
993.00,0.0168
992.00,0.0150
991.00,0.0136
990.00,0.0126
989.00,0.0120
988.00,0.0115
987.00,0.0112
986.00,0.0112
985.00,0.0114
984.00,0.0117
983.00,0.0123
982.00,0.0132
981.00,0.0145
980.00,0.0162
979.00,0.0186
978.00,0.0215
977.00,0.0248
976.00,0.0283
975.00,0.0313
974.00,0.0334
973.00,0.0340
972.00,0.0326
971.00,0.0296
970.00,0.0256
969.00,0.0217
968.00,0.0184
967.00,0.0158
966.00,0.0141
965.00,0.0128
964.00,0.0119
963.00,0.0113
962.00,0.0107
961.00,0.0102
960.00,0.0098
959.00,0.0094
958.00,0.0091
957.00,0.0089
956.00,0.0087
955.00,0.0086
954.00,0.0085
953.00,0.0084
952.00,0.0083
951.00,0.0081
950.00,0.0079
949.00,0.0078
948.00,0.0078
947.00,0.0079
946.00,0.0082
945.00,0.0085
944.00,0.0089
943.00,0.0094
942.00,0.0098
941.00,0.0101
940.00,0.0102
939.00,0.0099
938.00,0.0095
937.00,0.0088
936.00,0.0082
935.00,0.0077
934.00,0.0073
933.00,0.0070
932.00,0.0068
931.00,0.0067
930.00,0.0067
929.00,0.0066
928.00,0.0066
927.00,0.0066
926.00,0.0065
925.00,0.0065
924.00,0.0066
923.00,0.0066
922.00,0.0066
921.00,0.0066
920.00,0.0066
919.00,0.0066
918.00,0.0067
917.00,0.0068
916.00,0.0069
915.00,0.0070
914.00,0.0072
913.00,0.0074
912.00,0.0075
911.00,0.0075
910.00,0.0076
909.00,0.0079
908.00,0.0082
907.00,0.0087
906.00,0.0095
905.00,0.0105
904.00,0.0120
903.00,0.0139
902.00,0.0161
901.00,0.0182
900.00,0.0195
899.00,0.0197
898.00,0.0187
897.00,0.0169
896.00,0.0147
895.00,0.0126
894.00,0.0110
893.00,0.0098
892.00,0.0090
891.00,0.0086
890.00,0.0083
889.00,0.0080
888.00,0.0079
887.00,0.0077
886.00,0.0077
885.00,0.0076
884.00,0.0076
883.00,0.0077
882.00,0.0077
881.00,0.0077
880.00,0.0077
879.00,0.0078
878.00,0.0079
877.00,0.0080
876.00,0.0082
875.00,0.0084
874.00,0.0085
873.00,0.0085
872.00,0.0085
871.00,0.0084
870.00,0.0083
869.00,0.0082
868.00,0.0080
867.00,0.0080
866.00,0.0081
865.00,0.0082
864.00,0.0084
863.00,0.0085
862.00,0.0085
861.00,0.0086
860.00,0.0087
859.00,0.0089
858.00,0.0090
857.00,0.0091
856.00,0.0091
855.00,0.0092
854.00,0.0094
853.00,0.0095
852.00,0.0096
851.00,0.0098
850.00,0.0100
849.00,0.0104
848.00,0.0109
847.00,0.0117
846.00,0.0131
845.00,0.0151
844.00,0.0181
843.00,0.0215
842.00,0.0243
841.00,0.0253
840.00,0.0238
839.00,0.0207
838.00,0.0172
837.00,0.0144
836.00,0.0126
835.00,0.0115
834.00,0.0110
833.00,0.0107
832.00,0.0107
831.00,0.0108
830.00,0.0108
829.00,0.0107
828.00,0.0106
827.00,0.0105
826.00,0.0105
825.00,0.0105
824.00,0.0105
823.00,0.0104
822.00,0.0105
821.00,0.0107
820.00,0.0110
819.00,0.0114
818.00,0.0118
817.00,0.0123
816.00,0.0130
815.00,0.0141
814.00,0.0157
813.00,0.0177
812.00,0.0200
811.00,0.0222
810.00,0.0238
809.00,0.0244
808.00,0.0239
807.00,0.0224
806.00,0.0204
805.00,0.0184
804.00,0.0166
803.00,0.0151
802.00,0.0140
801.00,0.0132
800.00,0.0126
799.00,0.0121
798.00,0.0117
797.00,0.0112
796.00,0.0108
795.00,0.0105
794.00,0.0102
793.00,0.0101
792.00,0.0099
791.00,0.0096
790.00,0.0093
789.00,0.0089
788.00,0.0084
787.00,0.0080
786.00,0.0076
785.00,0.0073
784.00,0.0072
783.00,0.0071
782.00,0.0071
781.00,0.0071
780.00,0.0071
779.00,0.0071
778.00,0.0070
777.00,0.0069
776.00,0.0068
775.00,0.0067
774.00,0.0067
773.00,0.0068
772.00,0.0069
771.00,0.0069
770.00,0.0070
769.00,0.0070
768.00,0.0069
767.00,0.0069
766.00,0.0069
765.00,0.0070
764.00,0.0071
763.00,0.0071
762.00,0.0072
761.00,0.0073
760.00,0.0074
759.00,0.0075
758.00,0.0075
757.00,0.0075
756.00,0.0077
755.00,0.0080
754.00,0.0083
753.00,0.0085
752.00,0.0085
751.00,0.0084
750.00,0.0084
749.00,0.0084
748.00,0.0084
747.00,0.0085
746.00,0.0086
745.00,0.0088
744.00,0.0090
743.00,0.0094
742.00,0.0098
741.00,0.0101
740.00,0.0104
739.00,0.0106
738.00,0.0110
737.00,0.0114
736.00,0.0120
735.00,0.0126
734.00,0.0132
733.00,0.0137
732.00,0.0142
731.00,0.0148
730.00,0.0153
729.00,0.0157
728.00,0.0160
727.00,0.0161
726.00,0.0163
725.00,0.0166
724.00,0.0172
723.00,0.0178
722.00,0.0185
721.00,0.0189
720.00,0.0188
719.00,0.0181
718.00,0.0169
717.00,0.0156
716.00,0.0144
715.00,0.0135
714.00,0.0128
713.00,0.0123
712.00,0.0120
711.00,0.0117
710.00,0.0116
709.00,0.0114
708.00,0.0113
707.00,0.0112
706.00,0.0111
705.00,0.0111
704.00,0.0109
703.00,0.0108
702.00,0.0106
701.00,0.0104
700.00,0.0102
699.00,0.0101
698.00,0.0100
697.00,0.0099
696.00,0.0100
695.00,0.0101
694.00,0.0103
693.00,0.0104
692.00,0.0104
691.00,0.0103
690.00,0.0102
689.00,0.0102
688.00,0.0102
687.00,0.0103
686.00,0.0102
685.00,0.0101
684.00,0.0099
683.00,0.0098
682.00,0.0098
681.00,0.0099
680.00,0.0100
679.00,0.0100
678.00,0.0101
677.00,0.0103
676.00,0.0105
675.00,0.0107
674.00,0.0110
673.00,0.0113
672.00,0.0116
671.00,0.0120
670.00,0.0122
669.00,0.0123
668.00,0.0122
667.00,0.0118
666.00,0.0112
665.00,0.0108
664.00,0.0103
663.00,0.0100
662.00,0.0097
661.00,0.0095
660.00,0.0094
659.00,0.0095
658.00,0.0096
657.00,0.0096
656.00,0.0096
655.00,0.0097
654.00,0.0097
653.00,0.0097
652.00,0.0096
651.00,0.0095
650.00,0.0093
649.00,0.0092
648.00,0.0091
647.00,0.0090
646.00,0.0090
645.00,0.0089
644.00,0.0089
643.00,0.0090
642.00,0.0091
641.00,0.0092
640.00,0.0093
639.00,0.0094
638.00,0.0094
637.00,0.0094
636.00,0.0094
635.00,0.0093
634.00,0.0093
633.00,0.0093
632.00,0.0093
631.00,0.0093
630.00,0.0093
629.00,0.0094
628.00,0.0094
627.00,0.0093
626.00,0.0091
625.00,0.0090
624.00,0.0090
623.00,0.0091
622.00,0.0092
621.00,0.0092
620.00,0.0091
619.00,0.0090
618.00,0.0091
617.00,0.0091
616.00,0.0089
615.00,0.0086
614.00,0.0083
613.00,0.0083
612.00,0.0082
611.00,0.0081
610.00,0.0081
609.00,0.0081
608.00,0.0084
607.00,0.0088
606.00,0.0091
605.00,0.0093
604.00,0.0092
603.00,0.0089
602.00,0.0087
601.00,0.0086
600.00,0.0086
599.00,0.0086
598.00,0.0086
597.00,0.0088
596.00,0.0090
595.00,0.0090
594.00,0.0089
593.00,0.0089
592.00,0.0089
591.00,0.0089
590.00,0.0089
589.00,0.0088
588.00,0.0087
587.00,0.0085
586.00,0.0084
585.00,0.0083
584.00,0.0085
583.00,0.0087
582.00,0.0088
581.00,0.0088
580.00,0.0087
579.00,0.0088
578.00,0.0090
577.00,0.0091
576.00,0.0092
575.00,0.0092
574.00,0.0090
573.00,0.0087
572.00,0.0084
571.00,0.0083
570.00,0.0084
569.00,0.0086
568.00,0.0087
567.00,0.0089
566.00,0.0091
565.00,0.0091
564.00,0.0088
563.00,0.0084
562.00,0.0081
561.00,0.0081
560.00,0.0082
559.00,0.0082
558.00,0.0080
557.00,0.0078
556.00,0.0077
555.00,0.0078
554.00,0.0082
553.00,0.0086
552.00,0.0089
551.00,0.0093
550.00,0.0096
549.00,0.0095
548.00,0.0092
547.00,0.0090
546.00,0.0090
545.00,0.0095
544.00,0.0101
543.00,0.0107
542.00,0.0113
541.00,0.0117
540.00,0.0119
539.00,0.0118
538.00,0.0115
537.00,0.0113
536.00,0.0111
535.00,0.0112
534.00,0.0114
533.00,0.0115
532.00,0.0114
531.00,0.0111
530.00,0.0110
529.00,0.0111
528.00,0.0114
527.00,0.0117
526.00,0.0117
525.00,0.0112
524.00,0.0103
523.00,0.0095
522.00,0.0091
521.00,0.0089
520.00,0.0087
519.00,0.0084
518.00,0.0081
517.00,0.0079
516.00,0.0079
515.00,0.0080
514.00,0.0084
513.00,0.0089
512.00,0.0094
511.00,0.0097
510.00,0.0098
509.00,0.0098
508.00,0.0097
507.00,0.0095
506.00,0.0095
505.00,0.0097
504.00,0.0102
503.00,0.0106
502.00,0.0109
501.00,0.0108
500.00,0.0105
499.00,0.0101
498.00,0.0098
497.00,0.0098
496.00,0.0098
495.00,0.0100
494.00,0.0100
493.00,0.0099
492.00,0.0094
491.00,0.0087
490.00,0.0085
489.00,0.0088
488.00,0.0095
487.00,0.0098
486.00,0.0097
485.00,0.0096
484.00,0.0099
483.00,0.0105
482.00,0.0109
481.00,0.0108
480.00,0.0106
479.00,0.0105
478.00,0.0110
477.00,0.0121
476.00,0.0132
475.00,0.0142
474.00,0.0150
473.00,0.0158
472.00,0.0166
471.00,0.0171
470.00,0.0170
469.00,0.0165
468.00,0.0162
467.00,0.0164
466.00,0.0175
465.00,0.0187
464.00,0.0196
463.00,0.0198
462.00,0.0199
461.00,0.0201
460.00,0.0206
459.00,0.0211
458.00,0.0211
457.00,0.0206
456.00,0.0199
455.00,0.0191
454.00,0.0186
453.00,0.0184
452.00,0.0185
451.00,0.0183
450.00,0.0177
