Created as New Dataset,Sample 007 By Administrator Date Thursday, September 04 2025
cm-1,A
4000.00,0.0012
3999.00,0.0012
3998.00,0.0012
3997.00,0.0012
3996.00,0.0012
3995.00,0.0012
3994.00,0.0012
3993.00,0.0012
3992.00,0.0012
3991.00,0.0012
3990.00,0.0012
3989.00,0.0012
3988.00,0.0012
3987.00,0.0012
3986.00,0.0012
3985.00,0.0012
3984.00,0.0011
3983.00,0.0011
3982.00,0.0011
3981.00,0.0011
3980.00,0.0010
3979.00,0.0010
3978.00,0.0010
3977.00,0.0010
3976.00,0.0009
3975.00,0.0009
3974.00,0.0009
3973.00,0.0010
3972.00,0.0010
3971.00,0.0010
3970.00,0.0010
3969.00,0.0010
3968.00,0.0010
3967.00,0.0010
3966.00,0.0010
3965.00,0.0010
3964.00,0.0010
3963.00,0.0009
3962.00,0.0009
3961.00,0.0009
3960.00,0.0009
3959.00,0.0009
3958.00,0.0009
3957.00,0.0009
3956.00,0.0009
3955.00,0.0009
3954.00,0.0009
3953.00,0.0009
3952.00,0.0009
3951.00,0.0009
3950.00,0.0009
3949.00,0.0009
3948.00,0.0009
3947.00,0.0009
3946.00,0.0009
3945.00,0.0009
3944.00,0.0009
3943.00,0.0009
3942.00,0.0010
3941.00,0.0010
3940.00,0.0010
3939.00,0.0010
3938.00,0.0010
3937.00,0.0010
3936.00,0.0010
3935.00,0.0010
3934.00,0.0010
3933.00,0.0010
3932.00,0.0009
3931.00,0.0009
3930.00,0.0009
3929.00,0.0009
3928.00,0.0009
3927.00,0.0009
3926.00,0.0009
3925.00,0.0009
3924.00,0.0009
3923.00,0.0009
3922.00,0.0009
3921.00,0.0009
3920.00,0.0010
3919.00,0.0010
3918.00,0.0010
3917.00,0.0010
3916.00,0.0010
3915.00,0.0010
3914.00,0.0010
3913.00,0.0010
3912.00,0.0010
3911.00,0.0010
3910.00,0.0010
3909.00,0.0010
3908.00,0.0010
3907.00,0.0009
3906.00,0.0009
3905.00,0.0008
3904.00,0.0008
3903.00,0.0008
3902.00,0.0008
3901.00,0.0008
3900.00,0.0008
3899.00,0.0008
3898.00,0.0008
3897.00,0.0008
3896.00,0.0008
3895.00,0.0008
3894.00,0.0008
3893.00,0.0008
3892.00,0.0008
3891.00,0.0008
3890.00,0.0008
3889.00,0.0007
3888.00,0.0007
3887.00,0.0007
3886.00,0.0007
3885.00,0.0007
3884.00,0.0007
3883.00,0.0007
3882.00,0.0007
3881.00,0.0007
3880.00,0.0007
3879.00,0.0008
3878.00,0.0008
3877.00,0.0008
3876.00,0.0008
3875.00,0.0008
3874.00,0.0008
3873.00,0.0007
3872.00,0.0007
3871.00,0.0007
3870.00,0.0007
3869.00,0.0007
3868.00,0.0006
3867.00,0.0006
3866.00,0.0006
3865.00,0.0006
3864.00,0.0007
3863.00,0.0007
3862.00,0.0007
3861.00,0.0008
3860.00,0.0008
3859.00,0.0008
3858.00,0.0008
3857.00,0.0007
3856.00,0.0007
3855.00,0.0007
3854.00,0.0007
3853.00,0.0006
3852.00,0.0006
3851.00,0.0006
3850.00,0.0007
3849.00,0.0007
3848.00,0.0008
3847.00,0.0008
3846.00,0.0008
3845.00,0.0009
3844.00,0.0009
3843.00,0.0008
3842.00,0.0008
3841.00,0.0008
3840.00,0.0007
3839.00,0.0006
3838.00,0.0006
3837.00,0.0006
3836.00,0.0006
3835.00,0.0006
3834.00,0.0007
3833.00,0.0007
3832.00,0.0008
3831.00,0.0008
3830.00,0.0009
3829.00,0.0009
3828.00,0.0009
3827.00,0.0008
3826.00,0.0008
3825.00,0.0008
3824.00,0.0008
3823.00,0.0007
3822.00,0.0007
3821.00,0.0007
3820.00,0.0007
3819.00,0.0007
3818.00,0.0007
3817.00,0.0008
3816.00,0.0008
3815.00,0.0008
3814.00,0.0008
3813.00,0.0009
3812.00,0.0009
3811.00,0.0009
3810.00,0.0009
3809.00,0.0009
3808.00,0.0009
3807.00,0.0009
3806.00,0.0008
3805.00,0.0008
3804.00,0.0008
3803.00,0.0007
3802.00,0.0007
3801.00,0.0007
3800.00,0.0007
3799.00,0.0007
3798.00,0.0008
3797.00,0.0008
3796.00,0.0009
3795.00,0.0009
3794.00,0.0008
3793.00,0.0008
3792.00,0.0008
3791.00,0.0009
3790.00,0.0009
3789.00,0.0009
3788.00,0.0009
3787.00,0.0009
3786.00,0.0009
3785.00,0.0009
3784.00,0.0009
3783.00,0.0009
3782.00,0.0009
3781.00,0.0009
3780.00,0.0009
3779.00,0.0009
3778.00,0.0009
3777.00,0.0010
3776.00,0.0010
3775.00,0.0010
3774.00,0.0010
3773.00,0.0010
3772.00,0.0009
3771.00,0.0009
3770.00,0.0008
3769.00,0.0008
3768.00,0.0008
3767.00,0.0009
3766.00,0.0009
3765.00,0.0009
3764.00,0.0009
3763.00,0.0009
3762.00,0.0009
3761.00,0.0009
3760.00,0.0009
3759.00,0.0008
3758.00,0.0008
3757.00,0.0008
3756.00,0.0008
3755.00,0.0008
3754.00,0.0007
3753.00,0.0007
3752.00,0.0006
3751.00,0.0006
3750.00,0.0006
3749.00,0.0005
3748.00,0.0006
3747.00,0.0006
3746.00,0.0007
3745.00,0.0007
3744.00,0.0007
3743.00,0.0007
3742.00,0.0007
3741.00,0.0007
3740.00,0.0007
3739.00,0.0007
3738.00,0.0006
3737.00,0.0006
3736.00,0.0006
3735.00,0.0006
3734.00,0.0006
3733.00,0.0005
3732.00,0.0005
3731.00,0.0006
3730.00,0.0006
3729.00,0.0006
3728.00,0.0006
3727.00,0.0006
3726.00,0.0006
3725.00,0.0006
3724.00,0.0006
3723.00,0.0006
3722.00,0.0006
3721.00,0.0007
3720.00,0.0007
3719.00,0.0007
3718.00,0.0007
3717.00,0.0007
3716.00,0.0007
3715.00,0.0007
3714.00,0.0007
3713.00,0.0007
3712.00,0.0007
3711.00,0.0007
3710.00,0.0007
3709.00,0.0007
3708.00,0.0006
3707.00,0.0006
3706.00,0.0006
3705.00,0.0006
3704.00,0.0006
3703.00,0.0006
3702.00,0.0006
3701.00,0.0006
3700.00,0.0005
3699.00,0.0005
3698.00,0.0006
3697.00,0.0006
3696.00,0.0006
3695.00,0.0006
3694.00,0.0006
3693.00,0.0006
3692.00,0.0006
3691.00,0.0006
3690.00,0.0006
3689.00,0.0006
3688.00,0.0006
3687.00,0.0006
3686.00,0.0006
3685.00,0.0006
3684.00,0.0006
3683.00,0.0007
3682.00,0.0007
3681.00,0.0007
3680.00,0.0008
3679.00,0.0008
3678.00,0.0008
3677.00,0.0008
3676.00,0.0008
3675.00,0.0006
3674.00,0.0005
3673.00,0.0004
3672.00,0.0004
3671.00,0.0003
3670.00,0.0004
3669.00,0.0004
3668.00,0.0005
3667.00,0.0006
3666.00,0.0006
3665.00,0.0006
3664.00,0.0006
3663.00,0.0006
3662.00,0.0006
3661.00,0.0006
3660.00,0.0006
3659.00,0.0006
3658.00,0.0005
3657.00,0.0005
3656.00,0.0005
3655.00,0.0005
3654.00,0.0005
3653.00,0.0005
3652.00,0.0004
3651.00,0.0004
3650.00,0.0003
3649.00,0.0003
3648.00,0.0003
3647.00,0.0003
3646.00,0.0004
3645.00,0.0005
3644.00,0.0006
3643.00,0.0006
3642.00,0.0007
3641.00,0.0007
3640.00,0.0006
3639.00,0.0006
3638.00,0.0006
3637.00,0.0006
3636.00,0.0006
3635.00,0.0006
3634.00,0.0006
3633.00,0.0006
3632.00,0.0005
3631.00,0.0005
3630.00,0.0004
3629.00,0.0004
3628.00,0.0004
3627.00,0.0004
3626.00,0.0005
3625.00,0.0005
3624.00,0.0005
3623.00,0.0005
3622.00,0.0005
3621.00,0.0005
3620.00,0.0005
3619.00,0.0005
3618.00,0.0005
3617.00,0.0005
3616.00,0.0005
3615.00,0.0005
3614.00,0.0005
3613.00,0.0005
3612.00,0.0004
3611.00,0.0004
3610.00,0.0004
3609.00,0.0004
3608.00,0.0004
3607.00,0.0005
3606.00,0.0005
3605.00,0.0006
3604.00,0.0006
3603.00,0.0006
3602.00,0.0006
3601.00,0.0006
3600.00,0.0006
3599.00,0.0006
3598.00,0.0007
3597.00,0.0007
3596.00,0.0007
3595.00,0.0006
3594.00,0.0006
3593.00,0.0006
3592.00,0.0006
3591.00,0.0006
3590.00,0.0006
3589.00,0.0006
3588.00,0.0006
3587.00,0.0006
3586.00,0.0006
3585.00,0.0006
3584.00,0.0007
3583.00,0.0007
3582.00,0.0007
3581.00,0.0007
3580.00,0.0007
3579.00,0.0007
3578.00,0.0008
3577.00,0.0008
3576.00,0.0008
3575.00,0.0008
3574.00,0.0009
3573.00,0.0009
3572.00,0.0009
3571.00,0.0009
3570.00,0.0008
3569.00,0.0008
3568.00,0.0007
3567.00,0.0007
3566.00,0.0008
3565.00,0.0008
3564.00,0.0008
3563.00,0.0008
3562.00,0.0008
3561.00,0.0008
3560.00,0.0008
3559.00,0.0008
3558.00,0.0009
3557.00,0.0009
3556.00,0.0009
3555.00,0.0009
3554.00,0.0009
3553.00,0.0009
3552.00,0.0009
3551.00,0.0009
3550.00,0.0009
3549.00,0.0009
3548.00,0.0009
3547.00,0.0009
3546.00,0.0010
3545.00,0.0010
3544.00,0.0010
3543.00,0.0011
3542.00,0.0011
3541.00,0.0012
3540.00,0.0012
3539.00,0.0011
3538.00,0.0011
3537.00,0.0011
3536.00,0.0012
3535.00,0.0012
3534.00,0.0012
3533.00,0.0013
3532.00,0.0012
3531.00,0.0012
3530.00,0.0012
3529.00,0.0012
3528.00,0.0012
3527.00,0.0012
3526.00,0.0012
3525.00,0.0012
3524.00,0.0012
3523.00,0.0013
3522.00,0.0013
3521.00,0.0014
3520.00,0.0014
3519.00,0.0014
3518.00,0.0013
3517.00,0.0013
3516.00,0.0013
3515.00,0.0013
3514.00,0.0013
3513.00,0.0013
3512.00,0.0014
3511.00,0.0014
3510.00,0.0015
3509.00,0.0015
3508.00,0.0015
3507.00,0.0015
3506.00,0.0015
3505.00,0.0014
3504.00,0.0014
3503.00,0.0014
3502.00,0.0014
3501.00,0.0015
3500.00,0.0015
3499.00,0.0016
3498.00,0.0016
3497.00,0.0016
3496.00,0.0015
3495.00,0.0015
3494.00,0.0015
3493.00,0.0015
3492.00,0.0015
3491.00,0.0015
3490.00,0.0015
3489.00,0.0016
3488.00,0.0016
3487.00,0.0016
3486.00,0.0017
3485.00,0.0017
3484.00,0.0017
3483.00,0.0017
3482.00,0.0017
3481.00,0.0017
3480.00,0.0017
3479.00,0.0017
3478.00,0.0018
3477.00,0.0018
3476.00,0.0019
3475.00,0.0019
3474.00,0.0020
3473.00,0.0019
3472.00,0.0019
3471.00,0.0019
3470.00,0.0019
3469.00,0.0019
3468.00,0.0019
3467.00,0.0019
3466.00,0.0019
3465.00,0.0019
3464.00,0.0019
3463.00,0.0020
3462.00,0.0020
3461.00,0.0020
3460.00,0.0020
3459.00,0.0020
3458.00,0.0020
3457.00,0.0020
3456.00,0.0020
3455.00,0.0020
3454.00,0.0020
3453.00,0.0020
3452.00,0.0020
3451.00,0.0020
3450.00,0.0020
3449.00,0.0020
3448.00,0.0021
3447.00,0.0021
3446.00,0.0021
3445.00,0.0021
3444.00,0.0021
3443.00,0.0021
3442.00,0.0021
3441.00,0.0021
3440.00,0.0021
3439.00,0.0022
3438.00,0.0022
3437.00,0.0022
3436.00,0.0022
3435.00,0.0022
3434.00,0.0022
3433.00,0.0022
3432.00,0.0023
3431.00,0.0023
3430.00,0.0024
3429.00,0.0024
3428.00,0.0024
3427.00,0.0024
3426.00,0.0023
3425.00,0.0023
3424.00,0.0023
3423.00,0.0023
3422.00,0.0024
3421.00,0.0024
3420.00,0.0025
3419.00,0.0025
3418.00,0.0025
3417.00,0.0025
3416.00,0.0025
3415.00,0.0025
3414.00,0.0025
3413.00,0.0025
3412.00,0.0025
3411.00,0.0025
3410.00,0.0025
3409.00,0.0025
3408.00,0.0025
3407.00,0.0024
3406.00,0.0024
3405.00,0.0024
3404.00,0.0025
3403.00,0.0025
3402.00,0.0025
3401.00,0.0025
3400.00,0.0025
3399.00,0.0025
3398.00,0.0025
3397.00,0.0025
3396.00,0.0025
3395.00,0.0025
3394.00,0.0025
3393.00,0.0025
3392.00,0.0026
3391.00,0.0026
3390.00,0.0026
3389.00,0.0026
3388.00,0.0026
3387.00,0.0026
3386.00,0.0026
3385.00,0.0026
3384.00,0.0026
3383.00,0.0026
3382.00,0.0026
3381.00,0.0026
3380.00,0.0026
3379.00,0.0025
3378.00,0.0025
3377.00,0.0025
3376.00,0.0025
3375.00,0.0025
3374.00,0.0025
3373.00,0.0025
3372.00,0.0025
3371.00,0.0025
3370.00,0.0025
3369.00,0.0026
3368.00,0.0026
3367.00,0.0027
3366.00,0.0027
3365.00,0.0027
3364.00,0.0027
3363.00,0.0027
3362.00,0.0027
3361.00,0.0026
3360.00,0.0026
3359.00,0.0026
3358.00,0.0026
3357.00,0.0027
3356.00,0.0027
3355.00,0.0026
3354.00,0.0026
3353.00,0.0026
3352.00,0.0026
3351.00,0.0027
3350.00,0.0027
3349.00,0.0027
3348.00,0.0028
3347.00,0.0028
3346.00,0.0028
3345.00,0.0028
3344.00,0.0028
3343.00,0.0027
3342.00,0.0027
3341.00,0.0027
3340.00,0.0028
3339.00,0.0028
3338.00,0.0028
3337.00,0.0028
3336.00,0.0027
3335.00,0.0027
3334.00,0.0027
3333.00,0.0026
3332.00,0.0026
3331.00,0.0027
3330.00,0.0027
3329.00,0.0027
3328.00,0.0027
3327.00,0.0026
3326.00,0.0026
3325.00,0.0025
3324.00,0.0025
3323.00,0.0025
3322.00,0.0025
3321.00,0.0025
3320.00,0.0025
3319.00,0.0025
3318.00,0.0026
3317.00,0.0026
3316.00,0.0026
3315.00,0.0026
3314.00,0.0026
3313.00,0.0026
3312.00,0.0026
3311.00,0.0026
3310.00,0.0027
3309.00,0.0027
3308.00,0.0027
3307.00,0.0027
3306.00,0.0028
3305.00,0.0028
3304.00,0.0028
3303.00,0.0028
3302.00,0.0028
3301.00,0.0028
3300.00,0.0028
3299.00,0.0028
3298.00,0.0028
3297.00,0.0027
3296.00,0.0027
3295.00,0.0027
3294.00,0.0026
3293.00,0.0026
3292.00,0.0026
3291.00,0.0025
3290.00,0.0025
3289.00,0.0025
3288.00,0.0025
3287.00,0.0025
3286.00,0.0025
3285.00,0.0025
3284.00,0.0025
3283.00,0.0025
3282.00,0.0025
3281.00,0.0025
3280.00,0.0025
3279.00,0.0025
3278.00,0.0025
3277.00,0.0025
3276.00,0.0025
3275.00,0.0025
3274.00,0.0025
3273.00,0.0024
3272.00,0.0024
3271.00,0.0024
3270.00,0.0024
3269.00,0.0024
3268.00,0.0024
3267.00,0.0024
3266.00,0.0024
3265.00,0.0024
3264.00,0.0024
3263.00,0.0024
3262.00,0.0023
3261.00,0.0023
3260.00,0.0024
3259.00,0.0024
3258.00,0.0024
3257.00,0.0024
3256.00,0.0023
3255.00,0.0023
3254.00,0.0023
3253.00,0.0023
3252.00,0.0023
3251.00,0.0023
3250.00,0.0023
3249.00,0.0023
3248.00,0.0022
3247.00,0.0022
3246.00,0.0022
3245.00,0.0022
3244.00,0.0022
3243.00,0.0023
3242.00,0.0023
3241.00,0.0023
3240.00,0.0023
3239.00,0.0023
3238.00,0.0023
3237.00,0.0023
3236.00,0.0023
3235.00,0.0023
3234.00,0.0023
3233.00,0.0023
3232.00,0.0023
3231.00,0.0023
3230.00,0.0024
3229.00,0.0024
3228.00,0.0024
3227.00,0.0024
3226.00,0.0024
3225.00,0.0025
3224.00,0.0025
3223.00,0.0025
3222.00,0.0025
3221.00,0.0025
3220.00,0.0025
3219.00,0.0025
3218.00,0.0024
3217.00,0.0024
3216.00,0.0025
3215.00,0.0025
3214.00,0.0026
3213.00,0.0026
3212.00,0.0027
3211.00,0.0027
3210.00,0.0028
3209.00,0.0028
3208.00,0.0028
3207.00,0.0028
3206.00,0.0028
3205.00,0.0028
3204.00,0.0028
3203.00,0.0028
3202.00,0.0028
3201.00,0.0029
3200.00,0.0029
3199.00,0.0029
3198.00,0.0029
3197.00,0.0029
3196.00,0.0029
3195.00,0.0028
3194.00,0.0028
3193.00,0.0028
3192.00,0.0028
3191.00,0.0028
3190.00,0.0028
3189.00,0.0028
3188.00,0.0028
3187.00,0.0027
3186.00,0.0027
3185.00,0.0027
3184.00,0.0027
3183.00,0.0027
3182.00,0.0027
3181.00,0.0027
3180.00,0.0027
3179.00,0.0027
3178.00,0.0027
3177.00,0.0027
3176.00,0.0027
3175.00,0.0027
3174.00,0.0027
3173.00,0.0027
3172.00,0.0027
3171.00,0.0027
3170.00,0.0027
3169.00,0.0027
3168.00,0.0027
3167.00,0.0027
3166.00,0.0026
3165.00,0.0026
3164.00,0.0026
3163.00,0.0026
3162.00,0.0026
3161.00,0.0026
3160.00,0.0026
3159.00,0.0026
3158.00,0.0026
3157.00,0.0026
3156.00,0.0026
3155.00,0.0026
3154.00,0.0026
3153.00,0.0027
3152.00,0.0026
3151.00,0.0026
3150.00,0.0026
3149.00,0.0025
3148.00,0.0025
3147.00,0.0026
3146.00,0.0026
3145.00,0.0026
3144.00,0.0026
3143.00,0.0026
3142.00,0.0026
3141.00,0.0025
3140.00,0.0026
3139.00,0.0026
3138.00,0.0025
3137.00,0.0025
3136.00,0.0025
3135.00,0.0025
3134.00,0.0025
3133.00,0.0025
3132.00,0.0025
3131.00,0.0024
3130.00,0.0024
3129.00,0.0024
3128.00,0.0024
3127.00,0.0024
3126.00,0.0024
3125.00,0.0024
3124.00,0.0023
3123.00,0.0023
3122.00,0.0023
3121.00,0.0023
3120.00,0.0023
3119.00,0.0023
3118.00,0.0023
3117.00,0.0023
3116.00,0.0023
3115.00,0.0023
3114.00,0.0022
3113.00,0.0022
3112.00,0.0022
3111.00,0.0021
3110.00,0.0021
3109.00,0.0021
3108.00,0.0021
3107.00,0.0022
3106.00,0.0022
3105.00,0.0022
3104.00,0.0022
3103.00,0.0022
3102.00,0.0022
3101.00,0.0022
3100.00,0.0022
3099.00,0.0022
3098.00,0.0022
3097.00,0.0022
3096.00,0.0022
3095.00,0.0022
3094.00,0.0022
3093.00,0.0022
3092.00,0.0022
3091.00,0.0022
3090.00,0.0022
3089.00,0.0022
3088.00,0.0022
3087.00,0.0022
3086.00,0.0022
3085.00,0.0021
3084.00,0.0022
3083.00,0.0022
3082.00,0.0022
3081.00,0.0022
3080.00,0.0022
3079.00,0.0022
3078.00,0.0022
3077.00,0.0023
3076.00,0.0023
3075.00,0.0024
3074.00,0.0024
3073.00,0.0024
3072.00,0.0024
3071.00,0.0024
3070.00,0.0023
3069.00,0.0023
3068.00,0.0023
3067.00,0.0023
3066.00,0.0024
3065.00,0.0024
3064.00,0.0024
3063.00,0.0024
3062.00,0.0025
3061.00,0.0024
3060.00,0.0024
3059.00,0.0024
3058.00,0.0024
3057.00,0.0024
3056.00,0.0025
3055.00,0.0025
3054.00,0.0025
3053.00,0.0026
3052.00,0.0026
3051.00,0.0026
3050.00,0.0026
3049.00,0.0027
3048.00,0.0027
3047.00,0.0027
3046.00,0.0027
3045.00,0.0027
3044.00,0.0027
3043.00,0.0027
3042.00,0.0027
3041.00,0.0028
3040.00,0.0028
3039.00,0.0029
3038.00,0.0029
3037.00,0.0030
3036.00,0.0030
3035.00,0.0030
3034.00,0.0030
3033.00,0.0031
3032.00,0.0031
3031.00,0.0032
3030.00,0.0032
3029.00,0.0032
3028.00,0.0033
3027.00,0.0033
3026.00,0.0034
3025.00,0.0035
3024.00,0.0036
3023.00,0.0036
3022.00,0.0037
3021.00,0.0038
3020.00,0.0039
3019.00,0.0040
3018.00,0.0041
3017.00,0.0043
3016.00,0.0044
3015.00,0.0044
3014.00,0.0045
3013.00,0.0046
3012.00,0.0047
3011.00,0.0048
3010.00,0.0050
3009.00,0.0052
3008.00,0.0053
3007.00,0.0055
3006.00,0.0057
3005.00,0.0058
3004.00,0.0060
3003.00,0.0062
3002.00,0.0064
3001.00,0.0066
3000.00,0.0069
2999.00,0.0072
2998.00,0.0075
2997.00,0.0079
2996.00,0.0082
2995.00,0.0086
2994.00,0.0090
2993.00,0.0094
2992.00,0.0099
2991.00,0.0105
2990.00,0.0111
2989.00,0.0118
2988.00,0.0125
2987.00,0.0134
2986.00,0.0143
2985.00,0.0153
2984.00,0.0165
2983.00,0.0178
2982.00,0.0193
2981.00,0.0209
2980.00,0.0228
2979.00,0.0249
2978.00,0.0273
2977.00,0.0300
2976.00,0.0332
2975.00,0.0368
2974.00,0.0410
2973.00,0.0457
2972.00,0.0510
2971.00,0.0569
2970.00,0.0634
2969.00,0.0705
2968.00,0.0780
2967.00,0.0860
2966.00,0.0942
2965.00,0.1023
2964.00,0.1100
2963.00,0.1169
2962.00,0.1226
2961.00,0.1271
2960.00,0.1308
2959.00,0.1343
2958.00,0.1382
2957.00,0.1433
2956.00,0.1501
2955.00,0.1587
2954.00,0.1689
2953.00,0.1798
2952.00,0.1898
2951.00,0.1975
2950.00,0.2011
2949.00,0.1995
2948.00,0.1928
2947.00,0.1819
2946.00,0.1682
2945.00,0.1537
2944.00,0.1399
2943.00,0.1281
2942.00,0.1189
2941.00,0.1124
2940.00,0.1085
2939.00,0.1071
2938.00,0.1078
2937.00,0.1104
2936.00,0.1147
2935.00,0.1207
2934.00,0.1282
2933.00,0.1372
2932.00,0.1474
2931.00,0.1588
2930.00,0.1711
2929.00,0.1840
2928.00,0.1971
2927.00,0.2102
2926.00,0.2231
2925.00,0.2358
2924.00,0.2485
2923.00,0.2613
2922.00,0.2744
2921.00,0.2872
2920.00,0.2989
2919.00,0.3080
2918.00,0.3128
2917.00,0.3123
2916.00,0.3063
2915.00,0.2958
2914.00,0.2823
2913.00,0.2679
2912.00,0.2538
2911.00,0.2409
2910.00,0.2296
2909.00,0.2196
2908.00,0.2106
2907.00,0.2022
2906.00,0.1941
2905.00,0.1862
2904.00,0.1783
2903.00,0.1707
2902.00,0.1633
2901.00,0.1562
2900.00,0.1494
2899.00,0.1430
2898.00,0.1370
2897.00,0.1316
2896.00,0.1268
2895.00,0.1226
2894.00,0.1191
2893.00,0.1163
2892.00,0.1142
2891.00,0.1127
2890.00,0.1117
2889.00,0.1112
2888.00,0.1111
2887.00,0.1113
2886.00,0.1118
2885.00,0.1127
2884.00,0.1140
2883.00,0.1157
2882.00,0.1179
2881.00,0.1203
2880.00,0.1227
2879.00,0.1245
2878.00,0.1255
2877.00,0.1256
2876.00,0.1250
2875.00,0.1241
2874.00,0.1236
2873.00,0.1238
2872.00,0.1249
2871.00,0.1268
2870.00,0.1292
2869.00,0.1317
2868.00,0.1333
2867.00,0.1333
2866.00,0.1309
2865.00,0.1258
2864.00,0.1183
2863.00,0.1097
2862.00,0.1009
2861.00,0.0930
2860.00,0.0868
2859.00,0.0823
2858.00,0.0794
2857.00,0.0781
2856.00,0.0779
2855.00,0.0786
2854.00,0.0799
2853.00,0.0817
2852.00,0.0837
2851.00,0.0857
2850.00,0.0874
2849.00,0.0890
2848.00,0.0905
2847.00,0.0925
2846.00,0.0953
2845.00,0.0992
2844.00,0.1040
2843.00,0.1095
2842.00,0.1151
2841.00,0.1201
2840.00,0.1236
2839.00,0.1250
2838.00,0.1236
2837.00,0.1193
2836.00,0.1121
2835.00,0.1027
2834.00,0.0921
2833.00,0.0813
2832.00,0.0712
2831.00,0.0623
2830.00,0.0548
2829.00,0.0486
2828.00,0.0436
2827.00,0.0396
2826.00,0.0363
2825.00,0.0336
2824.00,0.0313
2823.00,0.0293
2822.00,0.0277
2821.00,0.0262
2820.00,0.0249
2819.00,0.0238
2818.00,0.0229
2817.00,0.0220
2816.00,0.0213
2815.00,0.0206
2814.00,0.0200
2813.00,0.0194
2812.00,0.0188
2811.00,0.0182
2810.00,0.0176
2809.00,0.0170
2808.00,0.0164
2807.00,0.0157
2806.00,0.0151
2805.00,0.0144
2804.00,0.0137
2803.00,0.0131
2802.00,0.0126
2801.00,0.0121
2800.00,0.0117
2799.00,0.0114
2798.00,0.0111
2797.00,0.0109
2796.00,0.0107
2795.00,0.0105
2794.00,0.0102
2793.00,0.0099
2792.00,0.0096
2791.00,0.0093
2790.00,0.0090
2789.00,0.0086
2788.00,0.0084
2787.00,0.0081
2786.00,0.0079
2785.00,0.0077
2784.00,0.0074
2783.00,0.0072
2782.00,0.0070
2781.00,0.0068
2780.00,0.0066
2779.00,0.0064
2778.00,0.0063
2777.00,0.0062
2776.00,0.0061
2775.00,0.0060
2774.00,0.0059
2773.00,0.0058
2772.00,0.0057
2771.00,0.0057
2770.00,0.0057
2769.00,0.0056
2768.00,0.0056
2767.00,0.0056
2766.00,0.0056
2765.00,0.0055
2764.00,0.0054
2763.00,0.0054
2762.00,0.0053
2761.00,0.0053
2760.00,0.0053
2759.00,0.0053
2758.00,0.0053
2757.00,0.0053
2756.00,0.0053
2755.00,0.0053
2754.00,0.0053
2753.00,0.0053
2752.00,0.0052
2751.00,0.0052
2750.00,0.0052
2749.00,0.0051
2748.00,0.0052
2747.00,0.0052
2746.00,0.0052
2745.00,0.0053
2744.00,0.0053
2743.00,0.0054
2742.00,0.0055
2741.00,0.0056
2740.00,0.0057
2739.00,0.0059
2738.00,0.0060
2737.00,0.0061
2736.00,0.0062
2735.00,0.0064
2734.00,0.0065
2733.00,0.0067
2732.00,0.0069
2731.00,0.0071
2730.00,0.0073
2729.00,0.0076
2728.00,0.0078
2727.00,0.0082
2726.00,0.0085
2725.00,0.0087
2724.00,0.0089
2723.00,0.0090
2722.00,0.0090
2721.00,0.0088
2720.00,0.0085
2719.00,0.0081
2718.00,0.0078
2717.00,0.0074
2716.00,0.0071
2715.00,0.0069
2714.00,0.0066
2713.00,0.0064
2712.00,0.0062
2711.00,0.0059
2710.00,0.0057
2709.00,0.0056
2708.00,0.0054
2707.00,0.0053
2706.00,0.0052
2705.00,0.0050
2704.00,0.0049
2703.00,0.0048
2702.00,0.0047
2701.00,0.0047
2700.00,0.0046
2699.00,0.0046
2698.00,0.0046
2697.00,0.0046
2696.00,0.0045
2695.00,0.0045
2694.00,0.0045
2693.00,0.0045
2692.00,0.0045
2691.00,0.0045
2690.00,0.0045
2689.00,0.0046
2688.00,0.0046
2687.00,0.0046
2686.00,0.0045
2685.00,0.0045
2684.00,0.0045
2683.00,0.0045
2682.00,0.0045
2681.00,0.0045
2680.00,0.0046
2679.00,0.0046
2678.00,0.0046
2677.00,0.0046
2676.00,0.0046
2675.00,0.0046
2674.00,0.0046
2673.00,0.0045
2672.00,0.0045
2671.00,0.0045
2670.00,0.0045
2669.00,0.0045
2668.00,0.0045
2667.00,0.0046
2666.00,0.0046
2665.00,0.0046
2664.00,0.0046
2663.00,0.0047
2662.00,0.0048
2661.00,0.0048
2660.00,0.0049
2659.00,0.0049
2658.00,0.0049
2657.00,0.0049
2656.00,0.0048
2655.00,0.0048
2654.00,0.0047
2653.00,0.0047
2652.00,0.0046
2651.00,0.0046
2650.00,0.0045
2649.00,0.0045
2648.00,0.0044
2647.00,0.0044
2646.00,0.0043
2645.00,0.0043
2644.00,0.0042
2643.00,0.0042
2642.00,0.0042
2641.00,0.0041
2640.00,0.0041
2639.00,0.0040
2638.00,0.0039
2637.00,0.0039
2636.00,0.0039
2635.00,0.0039
2634.00,0.0040
2633.00,0.0040
2632.00,0.0040
2631.00,0.0040
2630.00,0.0040
2629.00,0.0040
2628.00,0.0041
2627.00,0.0041
2626.00,0.0041
2625.00,0.0041
2624.00,0.0041
2623.00,0.0041
2622.00,0.0041
2621.00,0.0041
2620.00,0.0041
2619.00,0.0041
2618.00,0.0041
2617.00,0.0042
2616.00,0.0042
2615.00,0.0042
2614.00,0.0042
2613.00,0.0041
2612.00,0.0041
2611.00,0.0040
2610.00,0.0038
2609.00,0.0037
2608.00,0.0036
2607.00,0.0036
2606.00,0.0036
2605.00,0.0036
2604.00,0.0035
2603.00,0.0034
2602.00,0.0033
2601.00,0.0033
2600.00,0.0033
2599.00,0.0033
2598.00,0.0033
2597.00,0.0033
2596.00,0.0033
2595.00,0.0033
2594.00,0.0033
2593.00,0.0033
2592.00,0.0034
2591.00,0.0034
2590.00,0.0035
2589.00,0.0035
2588.00,0.0036
2587.00,0.0038
2586.00,0.0039
2585.00,0.0041
2584.00,0.0041
2583.00,0.0042
2582.00,0.0042
2581.00,0.0042
2580.00,0.0041
2579.00,0.0040
2578.00,0.0039
2577.00,0.0037
2576.00,0.0036
2575.00,0.0035
2574.00,0.0034
2573.00,0.0033
2572.00,0.0032
2571.00,0.0031
2570.00,0.0029
2569.00,0.0028
2568.00,0.0027
2567.00,0.0027
2566.00,0.0026
2565.00,0.0025
2564.00,0.0025
2563.00,0.0025
2562.00,0.0025
2561.00,0.0025
2560.00,0.0025
2559.00,0.0025
2558.00,0.0024
2557.00,0.0024
2556.00,0.0024
2555.00,0.0024
2554.00,0.0024
2553.00,0.0024
2552.00,0.0024
2551.00,0.0023
2550.00,0.0021
2549.00,0.0020
2548.00,0.0019
2547.00,0.0018
2546.00,0.0018
2545.00,0.0019
2544.00,0.0019
2543.00,0.0019
2542.00,0.0018
2541.00,0.0018
2540.00,0.0018
2539.00,0.0018
2538.00,0.0017
2537.00,0.0017
2536.00,0.0017
2535.00,0.0017
2534.00,0.0017
2533.00,0.0017
2532.00,0.0017
2531.00,0.0017
2530.00,0.0016
2529.00,0.0016
2528.00,0.0016
2527.00,0.0016
2526.00,0.0015
2525.00,0.0015
2524.00,0.0015
2523.00,0.0016
2522.00,0.0015
2521.00,0.0015
2520.00,0.0014
2519.00,0.0014
2518.00,0.0013
2517.00,0.0013
2516.00,0.0012
2515.00,0.0012
2514.00,0.0012
2513.00,0.0011
2512.00,0.0011
2511.00,0.0011
2510.00,0.0011
2509.00,0.0010
2508.00,0.0010
2507.00,0.0009
2506.00,0.0009
2505.00,0.0010
2504.00,0.0011
2503.00,0.0012
2502.00,0.0012
2501.00,0.0012
2500.00,0.0011
2499.00,0.0011
2498.00,0.0011
2497.00,0.0011
2496.00,0.0011
2495.00,0.0012
2494.00,0.0012
2493.00,0.0011
2492.00,0.0011
2491.00,0.0010
2490.00,0.0010
2489.00,0.0010
2488.00,0.0011
2487.00,0.0011
2486.00,0.0010
2485.00,0.0010
2484.00,0.0010
2483.00,0.0011
2482.00,0.0011
2481.00,0.0011
2480.00,0.0011
2479.00,0.0010
2478.00,0.0010
2477.00,0.0010
2476.00,0.0010
2475.00,0.0010
2474.00,0.0010
2473.00,0.0010
2472.00,0.0009
2471.00,0.0008
2470.00,0.0008
2469.00,0.0008
2468.00,0.0008
2467.00,0.0008
2466.00,0.0008
2465.00,0.0009
2464.00,0.0009
2463.00,0.0010
2462.00,0.0010
2461.00,0.0011
2460.00,0.0011
2459.00,0.0011
2458.00,0.0012
2457.00,0.0012
2456.00,0.0013
2455.00,0.0012
2454.00,0.0012
2453.00,0.0012
2452.00,0.0011
2451.00,0.0011
2450.00,0.0011
2449.00,0.0012
2448.00,0.0012
2447.00,0.0011
2446.00,0.0011
2445.00,0.0011
2444.00,0.0010
2443.00,0.0010
2442.00,0.0011
2441.00,0.0011
2440.00,0.0012
2439.00,0.0012
2438.00,0.0012
2437.00,0.0011
2436.00,0.0011
2435.00,0.0011
2434.00,0.0011
2433.00,0.0012
2432.00,0.0013
2431.00,0.0013
2430.00,0.0013
2429.00,0.0012
2428.00,0.0012
2427.00,0.0012
2426.00,0.0012
2425.00,0.0011
2424.00,0.0011
2423.00,0.0011
2422.00,0.0011
2421.00,0.0011
2420.00,0.0011
2419.00,0.0011
2418.00,0.0012
2417.00,0.0012
2416.00,0.0012
2415.00,0.0011
2414.00,0.0011
2413.00,0.0011
2412.00,0.0011
2411.00,0.0011
2410.00,0.0011
2409.00,0.0011
2408.00,0.0011
2407.00,0.0011
2406.00,0.0010
2405.00,0.0009
2404.00,0.0009
2403.00,0.0009
2402.00,0.0009
2401.00,0.0009
2400.00,0.0009
2399.00,0.0009
2398.00,0.0009
2397.00,0.0009
2396.00,0.0009
2395.00,0.0009
2394.00,0.0009
2393.00,0.0008
2392.00,0.0008
2391.00,0.0007
2390.00,0.0007
2389.00,0.0007
2388.00,0.0007
2387.00,0.0007
2386.00,0.0007
2385.00,0.0006
2384.00,0.0006
2383.00,0.0006
2382.00,0.0006
2381.00,0.0006
2380.00,0.0005
2379.00,0.0005
2378.00,0.0005
2377.00,0.0005
2376.00,0.0005
2375.00,0.0005
2374.00,0.0005
2373.00,0.0005
2372.00,0.0005
2371.00,0.0005
2370.00,0.0004
2369.00,0.0004
2368.00,0.0003
2367.00,0.0003
2366.00,0.0003
2365.00,0.0004
2364.00,0.0004
2363.00,0.0005
2362.00,0.0005
2361.00,0.0005
2360.00,0.0005
2359.00,0.0005
2358.00,0.0004
2357.00,0.0004
2356.00,0.0004
2355.00,0.0005
2354.00,0.0005
2353.00,0.0005
2352.00,0.0005
2351.00,0.0005
2350.00,0.0004
2349.00,0.0004
2348.00,0.0003
2347.00,0.0002
2346.00,0.0003
2345.00,0.0004
2344.00,0.0006
2343.00,0.0006
2342.00,0.0007
2341.00,0.0007
2340.00,0.0008
2339.00,0.0008
2338.00,0.0008
2337.00,0.0007
2336.00,0.0007
2335.00,0.0006
2334.00,0.0006
2333.00,0.0005
2332.00,0.0005
2331.00,0.0006
2330.00,0.0007
2329.00,0.0009
2328.00,0.0011
2327.00,0.0014
2326.00,0.0017
2325.00,0.0021
2324.00,0.0022
2323.00,0.0022
2322.00,0.0020
2321.00,0.0018
2320.00,0.0016
2319.00,0.0015
2318.00,0.0014
2317.00,0.0014
2316.00,0.0013
2315.00,0.0012
2314.00,0.0012
2313.00,0.0012
2312.00,0.0012
2311.00,0.0012
2310.00,0.0012
2309.00,0.0012
2308.00,0.0012
2307.00,0.0012
2306.00,0.0013
2305.00,0.0013
2304.00,0.0014
2303.00,0.0014
2302.00,0.0014
2301.00,0.0014
2300.00,0.0014
2299.00,0.0014
2298.00,0.0014
2297.00,0.0015
2296.00,0.0015
2295.00,0.0015
2294.00,0.0016
2293.00,0.0017
2292.00,0.0017
2291.00,0.0018
2290.00,0.0018
2289.00,0.0020
2288.00,0.0020
2287.00,0.0021
2286.00,0.0020
2285.00,0.0020
2284.00,0.0020
2283.00,0.0019
2282.00,0.0017
2281.00,0.0015
2280.00,0.0014
2279.00,0.0014
2278.00,0.0015
2277.00,0.0016
2276.00,0.0016
2275.00,0.0016
2274.00,0.0016
2273.00,0.0016
2272.00,0.0015
2271.00,0.0015
2270.00,0.0014
2269.00,0.0013
2268.00,0.0013
2267.00,0.0013
2266.00,0.0012
2265.00,0.0012
2264.00,0.0012
2263.00,0.0012
2262.00,0.0011
2261.00,0.0011
2260.00,0.0010
2259.00,0.0010
2258.00,0.0010
2257.00,0.0010
2256.00,0.0010
2255.00,0.0009
2254.00,0.0009
2253.00,0.0009
2252.00,0.0009
2251.00,0.0009
2250.00,0.0009
2249.00,0.0008
2248.00,0.0009
2247.00,0.0009
2246.00,0.0011
2245.00,0.0012
2244.00,0.0013
2243.00,0.0013
2242.00,0.0012
2241.00,0.0012
2240.00,0.0011
2239.00,0.0011
2238.00,0.0011
2237.00,0.0011
2236.00,0.0010
2235.00,0.0009
2234.00,0.0009
2233.00,0.0007
2232.00,0.0006
2231.00,0.0006
2230.00,0.0006
2229.00,0.0007
2228.00,0.0007
2227.00,0.0007
2226.00,0.0007
2225.00,0.0008
2224.00,0.0009
2223.00,0.0010
2222.00,0.0011
2221.00,0.0010
2220.00,0.0010
2219.00,0.0009
2218.00,0.0009
2217.00,0.0009
2216.00,0.0009
2215.00,0.0007
2214.00,0.0006
2213.00,0.0006
2212.00,0.0005
2211.00,0.0005
2210.00,0.0004
2209.00,0.0003
2208.00,0.0003
2207.00,0.0003
2206.00,0.0003
2205.00,0.0003
2204.00,0.0003
2203.00,0.0004
2202.00,0.0006
2201.00,0.0008
2200.00,0.0010
2199.00,0.0010
2198.00,0.0009
2197.00,0.0008
2196.00,0.0007
2195.00,0.0007
2194.00,0.0007
2193.00,0.0007
2192.00,0.0007
2191.00,0.0007
2190.00,0.0008
2189.00,0.0010
2188.00,0.0012
2187.00,0.0013
2186.00,0.0014
2185.00,0.0012
2184.00,0.0009
2183.00,0.0005
2182.00,0.0002
2181.00,0.0001
2180.00,0.0002
2179.00,0.0004
2178.00,0.0004
2177.00,0.0002
2176.00,0.0000
2175.00,0.0001
2174.00,0.0004
2173.00,0.0008
2172.00,0.0012
2171.00,0.0014
2170.00,0.0015
2169.00,0.0015
2168.00,0.0016
2167.00,0.0016
2166.00,0.0016
2165.00,0.0016
2164.00,0.0016
2163.00,0.0018
2162.00,0.0019
2161.00,0.0015
2160.00,0.0006
2159.00,-0.0008
2158.00,-0.0021
2157.00,-0.0028
2156.00,-0.0029
2155.00,-0.0028
2154.00,-0.0025
2153.00,-0.0022
2152.00,-0.0021
2151.00,-0.0021
2150.00,-0.0020
2149.00,-0.0018
2148.00,-0.0016
2147.00,-0.0015
2146.00,-0.0015
2145.00,-0.0015
2144.00,-0.0013
2143.00,-0.0011
2142.00,-0.0010
2141.00,-0.0010
2140.00,-0.0010
2139.00,-0.0009
2138.00,-0.0009
2137.00,-0.0009
2136.00,-0.0012
2135.00,-0.0015
2134.00,-0.0017
2133.00,-0.0016
2132.00,-0.0015
2131.00,-0.0013
2130.00,-0.0011
2129.00,-0.0010
2128.00,-0.0009
2127.00,-0.0009
2126.00,-0.0008
2125.00,-0.0007
2124.00,-0.0006
2123.00,-0.0005
2122.00,-0.0005
2121.00,-0.0004
2120.00,-0.0003
2119.00,-0.0001
2118.00,0.0000
2117.00,0.0002
2116.00,0.0003
2115.00,0.0003
2114.00,0.0003
2113.00,0.0002
2112.00,0.0002
2111.00,0.0001
2110.00,0.0001
2109.00,0.0001
2108.00,0.0002
2107.00,0.0003
2106.00,0.0003
2105.00,0.0002
2104.00,0.0002
2103.00,0.0002
2102.00,0.0002
2101.00,0.0001
2100.00,0.0000
2099.00,-0.0001
2098.00,-0.0002
2097.00,-0.0003
2096.00,-0.0004
2095.00,-0.0005
2094.00,-0.0005
2093.00,-0.0004
2092.00,-0.0003
2091.00,-0.0001
2090.00,-0.0001
2089.00,-0.0001
2088.00,-0.0001
2087.00,-0.0001
2086.00,-0.0001
2085.00,0.0000
2084.00,0.0002
2083.00,0.0002
2082.00,0.0002
2081.00,0.0001
2080.00,-0.0000
2079.00,-0.0000
2078.00,0.0001
2077.00,0.0003
2076.00,0.0004
2075.00,0.0003
2074.00,0.0002
2073.00,-0.0000
2072.00,-0.0002
2071.00,-0.0003
2070.00,-0.0003
2069.00,-0.0003
2068.00,-0.0002
2067.00,-0.0001
2066.00,0.0000
2065.00,0.0001
2064.00,0.0001
2063.00,0.0001
2062.00,0.0000
2061.00,-0.0000
2060.00,-0.0000
2059.00,-0.0000
2058.00,0.0000
2057.00,-0.0000
2056.00,-0.0002
2055.00,-0.0003
2054.00,-0.0002
2053.00,0.0002
2052.00,0.0009
2051.00,0.0014
2050.00,0.0014
2049.00,0.0011
2048.00,0.0006
2047.00,0.0002
2046.00,-0.0001
2045.00,-0.0003
2044.00,-0.0005
2043.00,-0.0006
2042.00,-0.0007
2041.00,-0.0006
2040.00,-0.0004
2039.00,-0.0002
2038.00,-0.0001
2037.00,0.0001
2036.00,0.0002
2035.00,0.0001
2034.00,-0.0002
2033.00,-0.0005
2032.00,-0.0007
2031.00,-0.0009
2030.00,-0.0010
2029.00,-0.0011
2028.00,-0.0012
2027.00,-0.0012
2026.00,-0.0010
2025.00,-0.0009
2024.00,-0.0008
2023.00,-0.0008
2022.00,-0.0009
2021.00,-0.0009
2020.00,-0.0010
2019.00,-0.0010
2018.00,-0.0010
2017.00,-0.0008
2016.00,-0.0006
2015.00,-0.0003
2014.00,-0.0002
2013.00,-0.0002
2012.00,-0.0001
2011.00,-0.0002
2010.00,-0.0003
2009.00,-0.0004
2008.00,-0.0005
2007.00,-0.0008
2006.00,-0.0011
2005.00,-0.0015
2004.00,-0.0016
2003.00,-0.0015
2002.00,-0.0013
2001.00,-0.0011
2000.00,-0.0010
1999.00,-0.0011
1998.00,-0.0010
1997.00,-0.0010
1996.00,-0.0010
1995.00,-0.0012
1994.00,-0.0014
1993.00,-0.0014
1992.00,-0.0013
1991.00,-0.0010
1990.00,-0.0007
1989.00,-0.0006
1988.00,-0.0005
1987.00,-0.0003
1986.00,-0.0001
1985.00,0.0003
1984.00,0.0006
1983.00,0.0008
1982.00,0.0010
1981.00,0.0012
1980.00,0.0012
1979.00,0.0009
1978.00,0.0003
1977.00,-0.0003
1976.00,-0.0006
1975.00,-0.0006
1974.00,-0.0006
1973.00,-0.0006
1972.00,-0.0008
1971.00,-0.0011
1970.00,-0.0014
1969.00,-0.0016
1968.00,-0.0020
1967.00,-0.0023
1966.00,-0.0026
1965.00,-0.0027
1964.00,-0.0027
1963.00,-0.0025
1962.00,-0.0023
1961.00,-0.0022
1960.00,-0.0022
1959.00,-0.0022
1958.00,-0.0023
1957.00,-0.0023
1956.00,-0.0022
1955.00,-0.0021
1954.00,-0.0019
1953.00,-0.0017
1952.00,-0.0016
1951.00,-0.0015
1950.00,-0.0015
1949.00,-0.0015
1948.00,-0.0015
1947.00,-0.0016
1946.00,-0.0016
1945.00,-0.0016
1944.00,-0.0016
1943.00,-0.0015
1942.00,-0.0014
1941.00,-0.0012
1940.00,-0.0011
1939.00,-0.0010
1938.00,-0.0009
1937.00,-0.0008
1936.00,-0.0008
1935.00,-0.0007
1934.00,-0.0007
1933.00,-0.0006
1932.00,-0.0006
1931.00,-0.0007
1930.00,-0.0009
1929.00,-0.0010
1928.00,-0.0010
1927.00,-0.0008
1926.00,-0.0007
1925.00,-0.0005
1924.00,-0.0004
1923.00,-0.0005
1922.00,-0.0005
1921.00,-0.0005
1920.00,-0.0005
1919.00,-0.0005
1918.00,-0.0005
1917.00,-0.0005
1916.00,-0.0005
1915.00,-0.0004
1914.00,-0.0004
1913.00,-0.0003
1912.00,-0.0003
1911.00,-0.0002
1910.00,-0.0002
1909.00,-0.0003
1908.00,-0.0004
1907.00,-0.0006
1906.00,-0.0006
1905.00,-0.0005
1904.00,-0.0003
1903.00,-0.0002
1902.00,-0.0002
1901.00,-0.0001
1900.00,-0.0001
1899.00,-0.0001
1898.00,-0.0002
1897.00,-0.0001
1896.00,-0.0001
1895.00,-0.0002
1894.00,-0.0002
1893.00,-0.0002
1892.00,-0.0001
1891.00,-0.0000
1890.00,0.0000
1889.00,0.0000
1888.00,0.0000
1887.00,0.0000
1886.00,-0.0000
1885.00,-0.0001
1884.00,-0.0001
1883.00,-0.0002
1882.00,-0.0002
1881.00,-0.0002
1880.00,-0.0002
1879.00,-0.0001
1878.00,-0.0001
1877.00,-0.0001
1876.00,-0.0001
1875.00,-0.0001
1874.00,-0.0001
1873.00,-0.0001
1872.00,-0.0001
1871.00,-0.0001
1870.00,-0.0001
1869.00,-0.0001
1868.00,-0.0001
1867.00,-0.0002
1866.00,-0.0002
1865.00,-0.0002
1864.00,-0.0002
1863.00,-0.0002
1862.00,-0.0002
1861.00,-0.0001
1860.00,-0.0000
1859.00,0.0001
1858.00,0.0001
1857.00,0.0002
1856.00,0.0002
1855.00,0.0002
1854.00,0.0001
1853.00,0.0001
1852.00,0.0000
1851.00,-0.0000
1850.00,-0.0001
1849.00,-0.0001
1848.00,-0.0001
1847.00,-0.0002
1846.00,-0.0003
1845.00,-0.0002
1844.00,-0.0001
1843.00,0.0001
1842.00,0.0002
1841.00,0.0003
1840.00,0.0003
1839.00,0.0003
1838.00,0.0002
1837.00,0.0002
1836.00,0.0003
1835.00,0.0003
1834.00,0.0003
1833.00,0.0003
1832.00,0.0003
1831.00,0.0003
1830.00,0.0003
1829.00,0.0003
1828.00,0.0003
1827.00,0.0003
1826.00,0.0003
1825.00,0.0003
1824.00,0.0003
1823.00,0.0002
1822.00,0.0002
1821.00,0.0002
1820.00,0.0002
1819.00,0.0002
1818.00,0.0001
1817.00,0.0000
1816.00,0.0000
1815.00,0.0000
1814.00,0.0001
1813.00,0.0001
1812.00,0.0002
1811.00,0.0002
1810.00,0.0002
1809.00,0.0001
1808.00,0.0001
1807.00,0.0001
1806.00,0.0001
1805.00,0.0002
1804.00,0.0003
1803.00,0.0003
1802.00,0.0004
1801.00,0.0003
1800.00,0.0003
1799.00,0.0003
1798.00,0.0003
1797.00,0.0003
1796.00,0.0003
1795.00,0.0004
1794.00,0.0004
1793.00,0.0005
1792.00,0.0006
1791.00,0.0007
1790.00,0.0007
1789.00,0.0007
1788.00,0.0008
1787.00,0.0008
1786.00,0.0008
1785.00,0.0007
1784.00,0.0007
1783.00,0.0006
1782.00,0.0006
1781.00,0.0006
1780.00,0.0006
1779.00,0.0006
1778.00,0.0006
1777.00,0.0007
1776.00,0.0007
1775.00,0.0007
1774.00,0.0007
1773.00,0.0007
1772.00,0.0007
1771.00,0.0007
1770.00,0.0007
1769.00,0.0008
1768.00,0.0008
1767.00,0.0008
1766.00,0.0008
1765.00,0.0009
1764.00,0.0009
1763.00,0.0009
1762.00,0.0009
1761.00,0.0010
1760.00,0.0010
1759.00,0.0010
1758.00,0.0011
1757.00,0.0011
1756.00,0.0011
1755.00,0.0011
1754.00,0.0011
1753.00,0.0011
1752.00,0.0012
1751.00,0.0013
1750.00,0.0013
1749.00,0.0013
1748.00,0.0014
1747.00,0.0015
1746.00,0.0015
1745.00,0.0016
1744.00,0.0016
1743.00,0.0016
1742.00,0.0017
1741.00,0.0018
1740.00,0.0019
1739.00,0.0020
1738.00,0.0020
1737.00,0.0020
1736.00,0.0019
1735.00,0.0019
1734.00,0.0018
1733.00,0.0018
1732.00,0.0018
1731.00,0.0018
1730.00,0.0018
1729.00,0.0019
1728.00,0.0020
1727.00,0.0020
1726.00,0.0020
1725.00,0.0021
1724.00,0.0021
1723.00,0.0022
1722.00,0.0022
1721.00,0.0022
1720.00,0.0021
1719.00,0.0021
1718.00,0.0019
1717.00,0.0019
1716.00,0.0019
1715.00,0.0019
1714.00,0.0018
1713.00,0.0018
1712.00,0.0019
1711.00,0.0019
1710.00,0.0020
1709.00,0.0020
1708.00,0.0020
1707.00,0.0020
1706.00,0.0020
1705.00,0.0021
1704.00,0.0021
1703.00,0.0021
1702.00,0.0021
1701.00,0.0020
1700.00,0.0020
1699.00,0.0020
1698.00,0.0020
1697.00,0.0021
1696.00,0.0022
1695.00,0.0023
1694.00,0.0023
1693.00,0.0023
1692.00,0.0023
1691.00,0.0023
1690.00,0.0023
1689.00,0.0023
1688.00,0.0023
1687.00,0.0023
1686.00,0.0022
1685.00,0.0021
1684.00,0.0022
1683.00,0.0023
1682.00,0.0024
1681.00,0.0025
1680.00,0.0025
1679.00,0.0025
1678.00,0.0025
1677.00,0.0025
1676.00,0.0026
1675.00,0.0026
1674.00,0.0026
1673.00,0.0026
1672.00,0.0026
1671.00,0.0025
1670.00,0.0026
1669.00,0.0026
1668.00,0.0027
1667.00,0.0027
1666.00,0.0028
1665.00,0.0028
1664.00,0.0029
1663.00,0.0030
1662.00,0.0029
1661.00,0.0029
1660.00,0.0029
1659.00,0.0029
1658.00,0.0029
1657.00,0.0029
1656.00,0.0029
1655.00,0.0029
1654.00,0.0029
1653.00,0.0030
1652.00,0.0031
1651.00,0.0031
1650.00,0.0032
1649.00,0.0032
1648.00,0.0033
1647.00,0.0034
1646.00,0.0035
1645.00,0.0036
1644.00,0.0036
1643.00,0.0037
1642.00,0.0038
1641.00,0.0039
1640.00,0.0040
1639.00,0.0040
1638.00,0.0040
1637.00,0.0040
1636.00,0.0040
1635.00,0.0040
1634.00,0.0039
1633.00,0.0039
1632.00,0.0039
1631.00,0.0038
1630.00,0.0038
1629.00,0.0037
1628.00,0.0037
1627.00,0.0037
1626.00,0.0036
1625.00,0.0036
1624.00,0.0035
1623.00,0.0035
1622.00,0.0034
1621.00,0.0034
1620.00,0.0034
1619.00,0.0034
1618.00,0.0034
1617.00,0.0034
1616.00,0.0034
1615.00,0.0034
1614.00,0.0034
1613.00,0.0034
1612.00,0.0035
1611.00,0.0035
1610.00,0.0034
1609.00,0.0034
1608.00,0.0033
1607.00,0.0033
1606.00,0.0033
1605.00,0.0033
1604.00,0.0034
1603.00,0.0034
1602.00,0.0034
1601.00,0.0034
1600.00,0.0034
1599.00,0.0034
1598.00,0.0033
1597.00,0.0033
1596.00,0.0033
1595.00,0.0033
1594.00,0.0033
1593.00,0.0033
1592.00,0.0034
1591.00,0.0034
1590.00,0.0033
1589.00,0.0033
1588.00,0.0033
1587.00,0.0033
1586.00,0.0034
1585.00,0.0035
1584.00,0.0036
1583.00,0.0036
1582.00,0.0037
1581.00,0.0038
1580.00,0.0039
1579.00,0.0039
1578.00,0.0040
1577.00,0.0040
1576.00,0.0041
1575.00,0.0041
1574.00,0.0041
1573.00,0.0041
1572.00,0.0041
1571.00,0.0041
1570.00,0.0041
1569.00,0.0042
1568.00,0.0042
1567.00,0.0041
1566.00,0.0041
1565.00,0.0041
1564.00,0.0041
1563.00,0.0041
1562.00,0.0041
1561.00,0.0042
1560.00,0.0042
1559.00,0.0041
1558.00,0.0040
1557.00,0.0040
1556.00,0.0041
1555.00,0.0041
1554.00,0.0041
1553.00,0.0042
1552.00,0.0043
1551.00,0.0044
1550.00,0.0044
1549.00,0.0044
1548.00,0.0045
1547.00,0.0045
1546.00,0.0045
1545.00,0.0046
1544.00,0.0046
1543.00,0.0047
1542.00,0.0047
1541.00,0.0047
1540.00,0.0047
1539.00,0.0047
1538.00,0.0046
1537.00,0.0045
1536.00,0.0045
1535.00,0.0045
1534.00,0.0044
1533.00,0.0043
1532.00,0.0043
1531.00,0.0042
1530.00,0.0042
1529.00,0.0042
1528.00,0.0042
1527.00,0.0042
1526.00,0.0042
1525.00,0.0042
1524.00,0.0043
1523.00,0.0043
1522.00,0.0043
1521.00,0.0044
1520.00,0.0045
1519.00,0.0045
1518.00,0.0045
1517.00,0.0046
1516.00,0.0047
1515.00,0.0048
1514.00,0.0048
1513.00,0.0049
1512.00,0.0051
1511.00,0.0052
1510.00,0.0053
1509.00,0.0054
1508.00,0.0055
1507.00,0.0055
1506.00,0.0056
1505.00,0.0057
1504.00,0.0059
1503.00,0.0060
1502.00,0.0061
1501.00,0.0064
1500.00,0.0066
1499.00,0.0068
1498.00,0.0070
1497.00,0.0072
1496.00,0.0076
1495.00,0.0078
1494.00,0.0081
1493.00,0.0083
1492.00,0.0087
1491.00,0.0090
1490.00,0.0094
1489.00,0.0099
1488.00,0.0104
1487.00,0.0108
1486.00,0.0113
1485.00,0.0119
1484.00,0.0126
1483.00,0.0133
1482.00,0.0141
1481.00,0.0152
1480.00,0.0164
1479.00,0.0177
1478.00,0.0193
1477.00,0.0214
1476.00,0.0240
1475.00,0.0270
1474.00,0.0311
1473.00,0.0369
1472.00,0.0438
1471.00,0.0506
1470.00,0.0572
1469.00,0.0642
1468.00,0.0718
1467.00,0.0800
1466.00,0.0894
1465.00,0.0994
1464.00,0.1081
1463.00,0.1141
1462.00,0.1178
1461.00,0.1201
1460.00,0.1216
1459.00,0.1224
1458.00,0.1227
1457.00,0.1225
1456.00,0.1216
1455.00,0.1201
1454.00,0.1184
1453.00,0.1162
1452.00,0.1132
1451.00,0.1092
1450.00,0.1039
1449.00,0.0967
1448.00,0.0877
1447.00,0.0782
1446.00,0.0696
1445.00,0.0624
1444.00,0.0562
1443.00,0.0512
1442.00,0.0474
1441.00,0.0448
1440.00,0.0433
1439.00,0.0428
1438.00,0.0432
1437.00,0.0437
1436.00,0.0430
1435.00,0.0407
1434.00,0.0370
1433.00,0.0325
1432.00,0.0278
1431.00,0.0237
1430.00,0.0204
1429.00,0.0181
1428.00,0.0165
1427.00,0.0155
1426.00,0.0147
1425.00,0.0140
1424.00,0.0133
1423.00,0.0129
1422.00,0.0127
1421.00,0.0125
1420.00,0.0122
1419.00,0.0119
1418.00,0.0117
1417.00,0.0114
1416.00,0.0112
1415.00,0.0110
1414.00,0.0110
1413.00,0.0108
1412.00,0.0107
1411.00,0.0106
1410.00,0.0105
1409.00,0.0104
1408.00,0.0103
1407.00,0.0104
1406.00,0.0105
1405.00,0.0105
1404.00,0.0104
1403.00,0.0105
1402.00,0.0106
1401.00,0.0106
1400.00,0.0107
1399.00,0.0108
1398.00,0.0110
1397.00,0.0111
1396.00,0.0113
1395.00,0.0118
1394.00,0.0123
1393.00,0.0129
1392.00,0.0134
1391.00,0.0141
1390.00,0.0151
1389.00,0.0165
1388.00,0.0185
1387.00,0.0215
1386.00,0.0257
1385.00,0.0313
1384.00,0.0390
1383.00,0.0499
1382.00,0.0647
1381.00,0.0841
1380.00,0.1087
1379.00,0.1379
1378.00,0.1678
1377.00,0.1915
1376.00,0.2019
1375.00,0.1943
1374.00,0.1709
1373.00,0.1410
1372.00,0.1129
1371.00,0.0895
1370.00,0.0710
1369.00,0.0570
1368.00,0.0475
1367.00,0.0417
1366.00,0.0386
1365.00,0.0374
1364.00,0.0377
1363.00,0.0393
1362.00,0.0416
1361.00,0.0441
1360.00,0.0461
1359.00,0.0467
1358.00,0.0455
1357.00,0.0428
1356.00,0.0388
1355.00,0.0344
1354.00,0.0302
1353.00,0.0265
1352.00,0.0236
1351.00,0.0213
1350.00,0.0193
1349.00,0.0178
1348.00,0.0165
1347.00,0.0154
1346.00,0.0144
1345.00,0.0136
1344.00,0.0130
1343.00,0.0125
1342.00,0.0121
1341.00,0.0117
1340.00,0.0115
1339.00,0.0113
1338.00,0.0111
1337.00,0.0111
1336.00,0.0112
1335.00,0.0114
1334.00,0.0118
1333.00,0.0122
1332.00,0.0127
1331.00,0.0131
1330.00,0.0132
1329.00,0.0131
1328.00,0.0127
1327.00,0.0122
1326.00,0.0116
1325.00,0.0110
1324.00,0.0104
1323.00,0.0099
1322.00,0.0095
1321.00,0.0092
1320.00,0.0090
1319.00,0.0088
1318.00,0.0086
1317.00,0.0084
1316.00,0.0083
1315.00,0.0082
1314.00,0.0081
1313.00,0.0082
1312.00,0.0083
1311.00,0.0084
1310.00,0.0087
1309.00,0.0092
1308.00,0.0099
1307.00,0.0108
1306.00,0.0116
1305.00,0.0122
1304.00,0.0123
1303.00,0.0122
1302.00,0.0120
1301.00,0.0118
1300.00,0.0118
1299.00,0.0119
1298.00,0.0120
1297.00,0.0120
1296.00,0.0120
1295.00,0.0118
1294.00,0.0114
1293.00,0.0110
1292.00,0.0105
1291.00,0.0100
1290.00,0.0095
1289.00,0.0091
1288.00,0.0088
1287.00,0.0085
1286.00,0.0083
1285.00,0.0082
1284.00,0.0080
1283.00,0.0078
1282.00,0.0077
1281.00,0.0075
1280.00,0.0075
1279.00,0.0074
1278.00,0.0074
1277.00,0.0074
1276.00,0.0073
1275.00,0.0073
1274.00,0.0073
1273.00,0.0073
1272.00,0.0074
1271.00,0.0074
1270.00,0.0075
1269.00,0.0076
1268.00,0.0078
1267.00,0.0081
1266.00,0.0083
1265.00,0.0085
1264.00,0.0088
1263.00,0.0090
1262.00,0.0093
1261.00,0.0096
1260.00,0.0100
1259.00,0.0105
1258.00,0.0110
1257.00,0.0113
1256.00,0.0114
1255.00,0.0112
1254.00,0.0107
1253.00,0.0101
1252.00,0.0095
1251.00,0.0090
1250.00,0.0086
1249.00,0.0083
1248.00,0.0081
1247.00,0.0079
1246.00,0.0077
1245.00,0.0075
1244.00,0.0074
1243.00,0.0073
1242.00,0.0072
1241.00,0.0071
1240.00,0.0071
1239.00,0.0070
1238.00,0.0070
1237.00,0.0070
1236.00,0.0070
1235.00,0.0070
1234.00,0.0070
1233.00,0.0071
1232.00,0.0071
1231.00,0.0072
1230.00,0.0073
1229.00,0.0074
1228.00,0.0075
1227.00,0.0077
1226.00,0.0079
1225.00,0.0082
1224.00,0.0085
1223.00,0.0089
1222.00,0.0093
1221.00,0.0096
1220.00,0.0098
1219.00,0.0098
1218.00,0.0097
1217.00,0.0095
1216.00,0.0092
1215.00,0.0088
1214.00,0.0085
1213.00,0.0083
1212.00,0.0080
1211.00,0.0078
1210.00,0.0077
1209.00,0.0075
1208.00,0.0074
1207.00,0.0073
1206.00,0.0072
1205.00,0.0072
1204.00,0.0071
1203.00,0.0071
1202.00,0.0071
1201.00,0.0071
1200.00,0.0071
1199.00,0.0071
1198.00,0.0071
1197.00,0.0071
1196.00,0.0072
1195.00,0.0072
1194.00,0.0072
1193.00,0.0073
1192.00,0.0073
1191.00,0.0073
1190.00,0.0072
1189.00,0.0072
1188.00,0.0072
1187.00,0.0071
1186.00,0.0072
1185.00,0.0072
1184.00,0.0073
1183.00,0.0074
1182.00,0.0076
1181.00,0.0078
1180.00,0.0082
1179.00,0.0086
1178.00,0.0090
1177.00,0.0096
1176.00,0.0104
1175.00,0.0114
1174.00,0.0129
1173.00,0.0149
1172.00,0.0173
1171.00,0.0199
1170.00,0.0224
1169.00,0.0243
1168.00,0.0255
1167.00,0.0258
1166.00,0.0253
1165.00,0.0243
1164.00,0.0231
1163.00,0.0219
1162.00,0.0210
1161.00,0.0202
1160.00,0.0197
1159.00,0.0193
1158.00,0.0190
1157.00,0.0187
1156.00,0.0186
1155.00,0.0185
1154.00,0.0184
1153.00,0.0183
1152.00,0.0179
1151.00,0.0173
1150.00,0.0164
1149.00,0.0154
1148.00,0.0144
1147.00,0.0135
1146.00,0.0128
1145.00,0.0122
1144.00,0.0115
1143.00,0.0109
1142.00,0.0103
1141.00,0.0097
1140.00,0.0092
1139.00,0.0088
1138.00,0.0085
1137.00,0.0082
1136.00,0.0080
1135.00,0.0078
1134.00,0.0075
1133.00,0.0073
1132.00,0.0072
1131.00,0.0071
1130.00,0.0071
1129.00,0.0071
1128.00,0.0071
1127.00,0.0072
1126.00,0.0073
1125.00,0.0074
1124.00,0.0074
1123.00,0.0075
1122.00,0.0075
1121.00,0.0075
1120.00,0.0074
1119.00,0.0074
1118.00,0.0074
1117.00,0.0074
1116.00,0.0076
1115.00,0.0077
1114.00,0.0079
1113.00,0.0081
1112.00,0.0084
1111.00,0.0087
1110.00,0.0090
1109.00,0.0095
1108.00,0.0100
1107.00,0.0105
1106.00,0.0112
1105.00,0.0118
1104.00,0.0123
1103.00,0.0126
1102.00,0.0127
1101.00,0.0124
1100.00,0.0119
1099.00,0.0112
1098.00,0.0105
1097.00,0.0099
1096.00,0.0094
1095.00,0.0090
1094.00,0.0088
1093.00,0.0086
1092.00,0.0084
1091.00,0.0082
1090.00,0.0080
1089.00,0.0078
1088.00,0.0077
1087.00,0.0076
1086.00,0.0076
1085.00,0.0076
1084.00,0.0076
1083.00,0.0076
1082.00,0.0076
1081.00,0.0075
1080.00,0.0075
1079.00,0.0075
1078.00,0.0074
1077.00,0.0074
1076.00,0.0073
1075.00,0.0073
1074.00,0.0072
1073.00,0.0072
1072.00,0.0072
1071.00,0.0072
1070.00,0.0072
1069.00,0.0072
1068.00,0.0072
1067.00,0.0073
1066.00,0.0073
1065.00,0.0074
1064.00,0.0075
1063.00,0.0076
1062.00,0.0076
1061.00,0.0076
1060.00,0.0075
1059.00,0.0076
1058.00,0.0078
1057.00,0.0080
1056.00,0.0082
1055.00,0.0083
1054.00,0.0085
1053.00,0.0087
1052.00,0.0089
1051.00,0.0092
1050.00,0.0095
1049.00,0.0098
1048.00,0.0102
1047.00,0.0105
1046.00,0.0109
1045.00,0.0111
1044.00,0.0113
1043.00,0.0113
1042.00,0.0113
1041.00,0.0113
1040.00,0.0112
1039.00,0.0112
1038.00,0.0112
1037.00,0.0111
1036.00,0.0110
1035.00,0.0108
1034.00,0.0107
1033.00,0.0106
1032.00,0.0106
1031.00,0.0105
1030.00,0.0105
1029.00,0.0105
1028.00,0.0105
1027.00,0.0107
1026.00,0.0109
1025.00,0.0113
1024.00,0.0115
1023.00,0.0118
1022.00,0.0119
1021.00,0.0120
1020.00,0.0121
1019.00,0.0123
1018.00,0.0124
1017.00,0.0125
1016.00,0.0125
1015.00,0.0124
1014.00,0.0124
1013.00,0.0123
1012.00,0.0123
1011.00,0.0122
1010.00,0.0122
1009.00,0.0123
1008.00,0.0125
1007.00,0.0128
1006.00,0.0133
1005.00,0.0141
1004.00,0.0153
1003.00,0.0170
1002.00,0.0192
1001.00,0.0219
1000.00,0.0247
999.00,0.0270
998.00,0.0280
997.00,0.0273
996.00,0.0252
995.00,0.0222
994.00,0.0192
993.00,0.0166
992.00,0.0146
991.00,0.0131
990.00,0.0121
989.00,0.0113
988.00,0.0108
987.00,0.0106
986.00,0.0106
985.00,0.0108
984.00,0.0112
983.00,0.0119
982.00,0.0128
981.00,0.0142
980.00,0.0160
979.00,0.0185
978.00,0.0215
977.00,0.0249
976.00,0.0285
975.00,0.0317
974.00,0.0340
973.00,0.0345
972.00,0.0331
971.00,0.0299
970.00,0.0259
969.00,0.0219
968.00,0.0186
967.00,0.0160
966.00,0.0141
965.00,0.0126
964.00,0.0116
963.00,0.0108
962.00,0.0102
961.00,0.0097
960.00,0.0093
959.00,0.0089
958.00,0.0086
957.00,0.0083
956.00,0.0081
955.00,0.0080
954.00,0.0079
953.00,0.0078
952.00,0.0078
951.00,0.0077
950.00,0.0076
949.00,0.0075
948.00,0.0075
947.00,0.0077
946.00,0.0079
945.00,0.0082
944.00,0.0085
943.00,0.0088
942.00,0.0091
941.00,0.0094
940.00,0.0095
939.00,0.0093
938.00,0.0088
937.00,0.0082
936.00,0.0076
935.00,0.0071
934.00,0.0067
933.00,0.0065
932.00,0.0063
931.00,0.0062
930.00,0.0060
929.00,0.0059
928.00,0.0057
927.00,0.0057
926.00,0.0057
925.00,0.0058
924.00,0.0059
923.00,0.0059
922.00,0.0059
921.00,0.0059
920.00,0.0058
919.00,0.0058
918.00,0.0058
917.00,0.0059
916.00,0.0060
915.00,0.0061
914.00,0.0063
913.00,0.0065
912.00,0.0067
911.00,0.0069
910.00,0.0071
909.00,0.0073
908.00,0.0076
907.00,0.0081
906.00,0.0088
905.00,0.0098
904.00,0.0113
903.00,0.0131
902.00,0.0153
901.00,0.0172
900.00,0.0184
899.00,0.0186
898.00,0.0176
897.00,0.0159
896.00,0.0137
895.00,0.0117
894.00,0.0102
893.00,0.0091
892.00,0.0084
891.00,0.0080
890.00,0.0077
889.00,0.0074
888.00,0.0072
887.00,0.0069
886.00,0.0068
885.00,0.0066
884.00,0.0065
883.00,0.0066
882.00,0.0067
881.00,0.0069
880.00,0.0070
879.00,0.0071
878.00,0.0072
877.00,0.0072
876.00,0.0073
875.00,0.0073
874.00,0.0074
873.00,0.0075
872.00,0.0074
871.00,0.0073
870.00,0.0072
869.00,0.0072
868.00,0.0072
867.00,0.0072
866.00,0.0073
865.00,0.0074
864.00,0.0075
863.00,0.0076
862.00,0.0077
861.00,0.0078
860.00,0.0079
859.00,0.0079
858.00,0.0080
857.00,0.0081
856.00,0.0082
855.00,0.0084
854.00,0.0085
853.00,0.0087
852.00,0.0089
851.00,0.0093
850.00,0.0097
849.00,0.0102
848.00,0.0108
847.00,0.0117
846.00,0.0131
845.00,0.0153
844.00,0.0184
843.00,0.0221
842.00,0.0250
841.00,0.0259
840.00,0.0243
839.00,0.0209
838.00,0.0173
837.00,0.0145
836.00,0.0127
835.00,0.0116
834.00,0.0110
833.00,0.0105
832.00,0.0102
831.00,0.0099
830.00,0.0096
829.00,0.0095
828.00,0.0095
827.00,0.0095
826.00,0.0095
825.00,0.0095
824.00,0.0095
823.00,0.0096
822.00,0.0097
821.00,0.0099
820.00,0.0102
819.00,0.0105
818.00,0.0109
817.00,0.0115
816.00,0.0124
815.00,0.0136
814.00,0.0153
813.00,0.0172
812.00,0.0193
811.00,0.0213
810.00,0.0227
809.00,0.0233
808.00,0.0228
807.00,0.0214
806.00,0.0196
805.00,0.0176
804.00,0.0159
803.00,0.0144
802.00,0.0132
801.00,0.0123
800.00,0.0117
799.00,0.0112
798.00,0.0107
797.00,0.0103
796.00,0.0099
795.00,0.0095
794.00,0.0092
793.00,0.0088
792.00,0.0084
791.00,0.0082
790.00,0.0079
789.00,0.0077
788.00,0.0074
787.00,0.0071
786.00,0.0069
785.00,0.0066
784.00,0.0064
783.00,0.0062
782.00,0.0062
781.00,0.0062
780.00,0.0062
779.00,0.0062
778.00,0.0061
777.00,0.0061
776.00,0.0060
775.00,0.0060
774.00,0.0060
773.00,0.0060
772.00,0.0060
771.00,0.0059
770.00,0.0057
769.00,0.0057
768.00,0.0057
767.00,0.0057
766.00,0.0058
765.00,0.0059
764.00,0.0059
763.00,0.0060
762.00,0.0061
761.00,0.0062
760.00,0.0062
759.00,0.0062
758.00,0.0062
757.00,0.0063
756.00,0.0065
755.00,0.0068
754.00,0.0070
753.00,0.0070
752.00,0.0070
751.00,0.0070
750.00,0.0072
749.00,0.0074
748.00,0.0076
747.00,0.0077
746.00,0.0077
745.00,0.0079
744.00,0.0081
743.00,0.0084
742.00,0.0087
741.00,0.0090
740.00,0.0094
739.00,0.0097
738.00,0.0101
737.00,0.0103
736.00,0.0106
735.00,0.0108
734.00,0.0111
733.00,0.0116
732.00,0.0123
731.00,0.0131
730.00,0.0136
729.00,0.0139
728.00,0.0142
727.00,0.0144
726.00,0.0148
725.00,0.0152
724.00,0.0157
723.00,0.0163
722.00,0.0169
721.00,0.0172
720.00,0.0170
719.00,0.0163
718.00,0.0152
717.00,0.0140
716.00,0.0131
715.00,0.0124
714.00,0.0118
713.00,0.0113
712.00,0.0108
711.00,0.0105
710.00,0.0103
709.00,0.0102
708.00,0.0099
707.00,0.0097
706.00,0.0096
705.00,0.0095
704.00,0.0094
703.00,0.0092
702.00,0.0089
701.00,0.0087
700.00,0.0087
699.00,0.0087
698.00,0.0086
697.00,0.0086
696.00,0.0086
695.00,0.0085
694.00,0.0085
693.00,0.0085
692.00,0.0086
691.00,0.0088
690.00,0.0090
689.00,0.0092
688.00,0.0094
687.00,0.0096
686.00,0.0096
685.00,0.0094
684.00,0.0091
683.00,0.0089
682.00,0.0087
681.00,0.0086
680.00,0.0086
679.00,0.0085
678.00,0.0083
677.00,0.0083
676.00,0.0084
675.00,0.0087
674.00,0.0090
673.00,0.0093
672.00,0.0096
671.00,0.0099
670.00,0.0100
669.00,0.0099
668.00,0.0096
667.00,0.0092
666.00,0.0090
665.00,0.0089
664.00,0.0089
663.00,0.0089
662.00,0.0088
661.00,0.0085
660.00,0.0082
659.00,0.0080
658.00,0.0079
657.00,0.0079
656.00,0.0078
655.00,0.0076
654.00,0.0076
653.00,0.0075
652.00,0.0075
651.00,0.0076
650.00,0.0077
649.00,0.0078
648.00,0.0078
647.00,0.0077
646.00,0.0075
645.00,0.0073
644.00,0.0071
643.00,0.0070
642.00,0.0070
641.00,0.0071
640.00,0.0072
639.00,0.0073
638.00,0.0076
637.00,0.0079
636.00,0.0080
635.00,0.0079
634.00,0.0076
633.00,0.0073
632.00,0.0073
631.00,0.0074
630.00,0.0076
629.00,0.0078
628.00,0.0078
627.00,0.0076
626.00,0.0074
625.00,0.0073
624.00,0.0073
623.00,0.0074
622.00,0.0074
621.00,0.0073
620.00,0.0070
619.00,0.0068
618.00,0.0069
617.00,0.0072
616.00,0.0074
615.00,0.0076
614.00,0.0077
613.00,0.0078
612.00,0.0078
611.00,0.0078
610.00,0.0078
609.00,0.0076
608.00,0.0072
607.00,0.0066
606.00,0.0063
605.00,0.0062
604.00,0.0064
603.00,0.0065
602.00,0.0066
601.00,0.0066
600.00,0.0067
599.00,0.0068
598.00,0.0069
597.00,0.0071
596.00,0.0073
595.00,0.0074
594.00,0.0075
593.00,0.0074
592.00,0.0073
591.00,0.0071
590.00,0.0070
589.00,0.0071
588.00,0.0073
587.00,0.0075
586.00,0.0077
585.00,0.0078
584.00,0.0077
583.00,0.0077
582.00,0.0077
581.00,0.0078
580.00,0.0078
579.00,0.0078
578.00,0.0080
577.00,0.0082
576.00,0.0081
575.00,0.0079
574.00,0.0076
573.00,0.0075
572.00,0.0073
571.00,0.0071
570.00,0.0070
569.00,0.0070
568.00,0.0071
567.00,0.0071
566.00,0.0069
565.00,0.0070
564.00,0.0073
563.00,0.0077
562.00,0.0079
561.00,0.0079
560.00,0.0077
559.00,0.0073
558.00,0.0069
557.00,0.0068
556.00,0.0068
555.00,0.0068
554.00,0.0068
553.00,0.0069
552.00,0.0069
551.00,0.0071
550.00,0.0073
549.00,0.0075
548.00,0.0076
547.00,0.0077
546.00,0.0078
545.00,0.0079
544.00,0.0080
543.00,0.0081
542.00,0.0085
541.00,0.0088
540.00,0.0090
539.00,0.0088
538.00,0.0087
537.00,0.0089
536.00,0.0093
535.00,0.0098
534.00,0.0100
533.00,0.0099
532.00,0.0098
531.00,0.0099
530.00,0.0100
529.00,0.0102
528.00,0.0103
527.00,0.0101
526.00,0.0095
525.00,0.0090
524.00,0.0084
523.00,0.0079
522.00,0.0073
521.00,0.0070
520.00,0.0070
519.00,0.0072
518.00,0.0071
517.00,0.0068
516.00,0.0068
515.00,0.0070
514.00,0.0074
513.00,0.0075
512.00,0.0073
511.00,0.0071
510.00,0.0071
509.00,0.0073
508.00,0.0076
507.00,0.0080
506.00,0.0084
505.00,0.0087
504.00,0.0088
503.00,0.0088
502.00,0.0088
501.00,0.0089
500.00,0.0092
499.00,0.0093
498.00,0.0092
497.00,0.0088
496.00,0.0084
495.00,0.0081
494.00,0.0080
493.00,0.0081
492.00,0.0083
491.00,0.0082
490.00,0.0076
489.00,0.0067
488.00,0.0059
487.00,0.0057
486.00,0.0061
485.00,0.0067
484.00,0.0076
483.00,0.0086
482.00,0.0096
481.00,0.0101
480.00,0.0099
479.00,0.0093
478.00,0.0088
477.00,0.0087
476.00,0.0091
475.00,0.0099
474.00,0.0112
473.00,0.0124
472.00,0.0132
471.00,0.0131
470.00,0.0128
469.00,0.0129
468.00,0.0137
467.00,0.0145
466.00,0.0147
465.00,0.0145
464.00,0.0149
463.00,0.0165
462.00,0.0191
461.00,0.0218
460.00,0.0235
459.00,0.0235
458.00,0.0219
457.00,0.0196
456.00,0.0181
455.00,0.0173
454.00,0.0167
453.00,0.0158
452.00,0.0148
451.00,0.0139
450.00,0.0133
