Created as New Dataset,Sample 064 By Administrator Date Thursday, September 04 2025
cm-1,A
4000.00,0.0010
3999.00,0.0010
3998.00,0.0010
3997.00,0.0010
3996.00,0.0010
3995.00,0.0010
3994.00,0.0010
3993.00,0.0010
3992.00,0.0009
3991.00,0.0009
3990.00,0.0009
3989.00,0.0008
3988.00,0.0008
3987.00,0.0008
3986.00,0.0008
3985.00,0.0008
3984.00,0.0008
3983.00,0.0008
3982.00,0.0008
3981.00,0.0009
3980.00,0.0009
3979.00,0.0008
3978.00,0.0008
3977.00,0.0007
3976.00,0.0007
3975.00,0.0007
3974.00,0.0007
3973.00,0.0007
3972.00,0.0007
3971.00,0.0007
3970.00,0.0007
3969.00,0.0007
3968.00,0.0007
3967.00,0.0007
3966.00,0.0007
3965.00,0.0007
3964.00,0.0007
3963.00,0.0006
3962.00,0.0006
3961.00,0.0007
3960.00,0.0007
3959.00,0.0007
3958.00,0.0007
3957.00,0.0007
3956.00,0.0006
3955.00,0.0006
3954.00,0.0006
3953.00,0.0006
3952.00,0.0007
3951.00,0.0007
3950.00,0.0007
3949.00,0.0006
3948.00,0.0006
3947.00,0.0006
3946.00,0.0006
3945.00,0.0006
3944.00,0.0007
3943.00,0.0007
3942.00,0.0007
3941.00,0.0008
3940.00,0.0008
3939.00,0.0007
3938.00,0.0007
3937.00,0.0007
3936.00,0.0007
3935.00,0.0007
3934.00,0.0007
3933.00,0.0007
3932.00,0.0007
3931.00,0.0007
3930.00,0.0007
3929.00,0.0007
3928.00,0.0008
3927.00,0.0008
3926.00,0.0008
3925.00,0.0008
3924.00,0.0008
3923.00,0.0008
3922.00,0.0008
3921.00,0.0008
3920.00,0.0007
3919.00,0.0007
3918.00,0.0007
3917.00,0.0007
3916.00,0.0007
3915.00,0.0007
3914.00,0.0007
3913.00,0.0007
3912.00,0.0008
3911.00,0.0008
3910.00,0.0008
3909.00,0.0008
3908.00,0.0008
3907.00,0.0007
3906.00,0.0007
3905.00,0.0007
3904.00,0.0007
3903.00,0.0008
3902.00,0.0008
3901.00,0.0008
3900.00,0.0008
3899.00,0.0007
3898.00,0.0007
3897.00,0.0008
3896.00,0.0008
3895.00,0.0008
3894.00,0.0008
3893.00,0.0008
3892.00,0.0007
3891.00,0.0007
3890.00,0.0007
3889.00,0.0007
3888.00,0.0008
3887.00,0.0007
3886.00,0.0007
3885.00,0.0007
3884.00,0.0008
3883.00,0.0008
3882.00,0.0008
3881.00,0.0008
3880.00,0.0008
3879.00,0.0008
3878.00,0.0008
3877.00,0.0008
3876.00,0.0007
3875.00,0.0007
3874.00,0.0007
3873.00,0.0008
3872.00,0.0008
3871.00,0.0008
3870.00,0.0008
3869.00,0.0008
3868.00,0.0008
3867.00,0.0008
3866.00,0.0007
3865.00,0.0006
3864.00,0.0006
3863.00,0.0006
3862.00,0.0006
3861.00,0.0006
3860.00,0.0006
3859.00,0.0007
3858.00,0.0007
3857.00,0.0008
3856.00,0.0009
3855.00,0.0008
3854.00,0.0008
3853.00,0.0007
3852.00,0.0007
3851.00,0.0007
3850.00,0.0007
3849.00,0.0006
3848.00,0.0006
3847.00,0.0006
3846.00,0.0006
3845.00,0.0006
3844.00,0.0007
3843.00,0.0007
3842.00,0.0007
3841.00,0.0008
3840.00,0.0008
3839.00,0.0009
3838.00,0.0009
3837.00,0.0009
3836.00,0.0009
3835.00,0.0008
3834.00,0.0008
3833.00,0.0007
3832.00,0.0007
3831.00,0.0007
3830.00,0.0007
3829.00,0.0007
3828.00,0.0007
3827.00,0.0007
3826.00,0.0007
3825.00,0.0008
3824.00,0.0008
3823.00,0.0009
3822.00,0.0009
3821.00,0.0009
3820.00,0.0009
3819.00,0.0009
3818.00,0.0009
3817.00,0.0008
3816.00,0.0008
3815.00,0.0007
3814.00,0.0008
3813.00,0.0008
3812.00,0.0008
3811.00,0.0008
3810.00,0.0008
3809.00,0.0008
3808.00,0.0008
3807.00,0.0007
3806.00,0.0007
3805.00,0.0008
3804.00,0.0008
3803.00,0.0008
3802.00,0.0008
3801.00,0.0008
3800.00,0.0007
3799.00,0.0007
3798.00,0.0007
3797.00,0.0006
3796.00,0.0006
3795.00,0.0006
3794.00,0.0006
3793.00,0.0006
3792.00,0.0006
3791.00,0.0006
3790.00,0.0006
3789.00,0.0006
3788.00,0.0006
3787.00,0.0007
3786.00,0.0007
3785.00,0.0007
3784.00,0.0007
3783.00,0.0007
3782.00,0.0007
3781.00,0.0007
3780.00,0.0008
3779.00,0.0008
3778.00,0.0008
3777.00,0.0008
3776.00,0.0007
3775.00,0.0007
3774.00,0.0007
3773.00,0.0007
3772.00,0.0007
3771.00,0.0007
3770.00,0.0007
3769.00,0.0008
3768.00,0.0008
3767.00,0.0008
3766.00,0.0008
3765.00,0.0009
3764.00,0.0009
3763.00,0.0009
3762.00,0.0009
3761.00,0.0008
3760.00,0.0008
3759.00,0.0008
3758.00,0.0008
3757.00,0.0008
3756.00,0.0008
3755.00,0.0008
3754.00,0.0008
3753.00,0.0008
3752.00,0.0009
3751.00,0.0009
3750.00,0.0009
3749.00,0.0009
3748.00,0.0010
3747.00,0.0010
3746.00,0.0010
3745.00,0.0009
3744.00,0.0009
3743.00,0.0008
3742.00,0.0008
3741.00,0.0007
3740.00,0.0007
3739.00,0.0007
3738.00,0.0007
3737.00,0.0007
3736.00,0.0008
3735.00,0.0008
3734.00,0.0008
3733.00,0.0008
3732.00,0.0008
3731.00,0.0008
3730.00,0.0008
3729.00,0.0007
3728.00,0.0007
3727.00,0.0007
3726.00,0.0007
3725.00,0.0006
3724.00,0.0006
3723.00,0.0006
3722.00,0.0006
3721.00,0.0006
3720.00,0.0006
3719.00,0.0006
3718.00,0.0006
3717.00,0.0006
3716.00,0.0006
3715.00,0.0006
3714.00,0.0006
3713.00,0.0006
3712.00,0.0007
3711.00,0.0007
3710.00,0.0007
3709.00,0.0007
3708.00,0.0006
3707.00,0.0006
3706.00,0.0006
3705.00,0.0006
3704.00,0.0006
3703.00,0.0006
3702.00,0.0006
3701.00,0.0006
3700.00,0.0006
3699.00,0.0006
3698.00,0.0006
3697.00,0.0006
3696.00,0.0006
3695.00,0.0006
3694.00,0.0006
3693.00,0.0006
3692.00,0.0006
3691.00,0.0006
3690.00,0.0006
3689.00,0.0006
3688.00,0.0006
3687.00,0.0006
3686.00,0.0006
3685.00,0.0006
3684.00,0.0005
3683.00,0.0005
3682.00,0.0005
3681.00,0.0005
3680.00,0.0005
3679.00,0.0006
3678.00,0.0007
3677.00,0.0008
3676.00,0.0008
3675.00,0.0009
3674.00,0.0009
3673.00,0.0009
3672.00,0.0008
3671.00,0.0007
3670.00,0.0007
3669.00,0.0007
3668.00,0.0007
3667.00,0.0006
3666.00,0.0005
3665.00,0.0005
3664.00,0.0004
3663.00,0.0004
3662.00,0.0005
3661.00,0.0005
3660.00,0.0005
3659.00,0.0004
3658.00,0.0004
3657.00,0.0004
3656.00,0.0004
3655.00,0.0004
3654.00,0.0004
3653.00,0.0004
3652.00,0.0004
3651.00,0.0005
3650.00,0.0006
3649.00,0.0006
3648.00,0.0007
3647.00,0.0006
3646.00,0.0006
3645.00,0.0005
3644.00,0.0005
3643.00,0.0005
3642.00,0.0005
3641.00,0.0005
3640.00,0.0006
3639.00,0.0007
3638.00,0.0007
3637.00,0.0007
3636.00,0.0006
3635.00,0.0006
3634.00,0.0007
3633.00,0.0007
3632.00,0.0007
3631.00,0.0007
3630.00,0.0006
3629.00,0.0006
3628.00,0.0006
3627.00,0.0006
3626.00,0.0006
3625.00,0.0006
3624.00,0.0006
3623.00,0.0007
3622.00,0.0007
3621.00,0.0007
3620.00,0.0007
3619.00,0.0007
3618.00,0.0007
3617.00,0.0008
3616.00,0.0007
3615.00,0.0007
3614.00,0.0007
3613.00,0.0008
3612.00,0.0008
3611.00,0.0008
3610.00,0.0007
3609.00,0.0007
3608.00,0.0007
3607.00,0.0008
3606.00,0.0008
3605.00,0.0007
3604.00,0.0007
3603.00,0.0007
3602.00,0.0007
3601.00,0.0008
3600.00,0.0008
3599.00,0.0009
3598.00,0.0009
3597.00,0.0008
3596.00,0.0008
3595.00,0.0009
3594.00,0.0009
3593.00,0.0010
3592.00,0.0010
3591.00,0.0010
3590.00,0.0010
3589.00,0.0010
3588.00,0.0010
3587.00,0.0010
3586.00,0.0010
3585.00,0.0011
3584.00,0.0010
3583.00,0.0011
3582.00,0.0011
3581.00,0.0011
3580.00,0.0011
3579.00,0.0011
3578.00,0.0011
3577.00,0.0011
3576.00,0.0011
3575.00,0.0011
3574.00,0.0011
3573.00,0.0011
3572.00,0.0012
3571.00,0.0012
3570.00,0.0012
3569.00,0.0012
3568.00,0.0012
3567.00,0.0012
3566.00,0.0013
3565.00,0.0013
3564.00,0.0013
3563.00,0.0013
3562.00,0.0013
3561.00,0.0014
3560.00,0.0014
3559.00,0.0015
3558.00,0.0015
3557.00,0.0016
3556.00,0.0016
3555.00,0.0016
3554.00,0.0016
3553.00,0.0016
3552.00,0.0016
3551.00,0.0016
3550.00,0.0016
3549.00,0.0016
3548.00,0.0016
3547.00,0.0016
3546.00,0.0016
3545.00,0.0016
3544.00,0.0016
3543.00,0.0017
3542.00,0.0017
3541.00,0.0017
3540.00,0.0018
3539.00,0.0018
3538.00,0.0018
3537.00,0.0018
3536.00,0.0018
3535.00,0.0019
3534.00,0.0019
3533.00,0.0019
3532.00,0.0019
3531.00,0.0018
3530.00,0.0018
3529.00,0.0019
3528.00,0.0019
3527.00,0.0019
3526.00,0.0020
3525.00,0.0020
3524.00,0.0020
3523.00,0.0021
3522.00,0.0021
3521.00,0.0021
3520.00,0.0021
3519.00,0.0021
3518.00,0.0021
3517.00,0.0021
3516.00,0.0022
3515.00,0.0022
3514.00,0.0023
3513.00,0.0023
3512.00,0.0024
3511.00,0.0024
3510.00,0.0024
3509.00,0.0024
3508.00,0.0024
3507.00,0.0023
3506.00,0.0023
3505.00,0.0023
3504.00,0.0023
3503.00,0.0024
3502.00,0.0024
3501.00,0.0025
3500.00,0.0025
3499.00,0.0025
3498.00,0.0025
3497.00,0.0025
3496.00,0.0025
3495.00,0.0026
3494.00,0.0026
3493.00,0.0026
3492.00,0.0026
3491.00,0.0026
3490.00,0.0026
3489.00,0.0027
3488.00,0.0027
3487.00,0.0028
3486.00,0.0028
3485.00,0.0028
3484.00,0.0028
3483.00,0.0028
3482.00,0.0028
3481.00,0.0028
3480.00,0.0028
3479.00,0.0028
3478.00,0.0029
3477.00,0.0029
3476.00,0.0029
3475.00,0.0029
3474.00,0.0029
3473.00,0.0029
3472.00,0.0030
3471.00,0.0030
3470.00,0.0030
3469.00,0.0031
3468.00,0.0031
3467.00,0.0031
3466.00,0.0031
3465.00,0.0031
3464.00,0.0031
3463.00,0.0031
3462.00,0.0031
3461.00,0.0031
3460.00,0.0032
3459.00,0.0032
3458.00,0.0032
3457.00,0.0032
3456.00,0.0032
3455.00,0.0032
3454.00,0.0033
3453.00,0.0033
3452.00,0.0033
3451.00,0.0033
3450.00,0.0033
3449.00,0.0033
3448.00,0.0033
3447.00,0.0033
3446.00,0.0033
3445.00,0.0033
3444.00,0.0034
3443.00,0.0034
3442.00,0.0035
3441.00,0.0035
3440.00,0.0036
3439.00,0.0036
3438.00,0.0036
3437.00,0.0036
3436.00,0.0036
3435.00,0.0036
3434.00,0.0037
3433.00,0.0037
3432.00,0.0037
3431.00,0.0038
3430.00,0.0038
3429.00,0.0038
3428.00,0.0039
3427.00,0.0039
3426.00,0.0038
3425.00,0.0038
3424.00,0.0039
3423.00,0.0039
3422.00,0.0039
3421.00,0.0040
3420.00,0.0040
3419.00,0.0041
3418.00,0.0041
3417.00,0.0042
3416.00,0.0041
3415.00,0.0041
3414.00,0.0041
3413.00,0.0040
3412.00,0.0040
3411.00,0.0041
3410.00,0.0041
3409.00,0.0041
3408.00,0.0041
3407.00,0.0042
3406.00,0.0042
3405.00,0.0042
3404.00,0.0043
3403.00,0.0043
3402.00,0.0043
3401.00,0.0043
3400.00,0.0043
3399.00,0.0043
3398.00,0.0043
3397.00,0.0043
3396.00,0.0043
3395.00,0.0043
3394.00,0.0043
3393.00,0.0043
3392.00,0.0044
3391.00,0.0044
3390.00,0.0044
3389.00,0.0044
3388.00,0.0044
3387.00,0.0044
3386.00,0.0044
3385.00,0.0044
3384.00,0.0044
3383.00,0.0044
3382.00,0.0044
3381.00,0.0045
3380.00,0.0045
3379.00,0.0045
3378.00,0.0046
3377.00,0.0045
3376.00,0.0045
3375.00,0.0045
3374.00,0.0045
3373.00,0.0045
3372.00,0.0045
3371.00,0.0046
3370.00,0.0045
3369.00,0.0045
3368.00,0.0045
3367.00,0.0045
3366.00,0.0045
3365.00,0.0045
3364.00,0.0046
3363.00,0.0046
3362.00,0.0046
3361.00,0.0046
3360.00,0.0046
3359.00,0.0046
3358.00,0.0047
3357.00,0.0047
3356.00,0.0047
3355.00,0.0047
3354.00,0.0047
3353.00,0.0047
3352.00,0.0047
3351.00,0.0047
3350.00,0.0048
3349.00,0.0048
3348.00,0.0048
3347.00,0.0048
3346.00,0.0048
3345.00,0.0048
3344.00,0.0048
3343.00,0.0048
3342.00,0.0048
3341.00,0.0048
3340.00,0.0048
3339.00,0.0047
3338.00,0.0047
3337.00,0.0047
3336.00,0.0047
3335.00,0.0048
3334.00,0.0048
3333.00,0.0048
3332.00,0.0048
3331.00,0.0047
3330.00,0.0047
3329.00,0.0047
3328.00,0.0047
3327.00,0.0047
3326.00,0.0046
3325.00,0.0046
3324.00,0.0046
3323.00,0.0046
3322.00,0.0046
3321.00,0.0046
3320.00,0.0046
3319.00,0.0047
3318.00,0.0047
3317.00,0.0047
3316.00,0.0047
3315.00,0.0046
3314.00,0.0046
3313.00,0.0046
3312.00,0.0047
3311.00,0.0047
3310.00,0.0048
3309.00,0.0048
3308.00,0.0048
3307.00,0.0049
3306.00,0.0049
3305.00,0.0049
3304.00,0.0050
3303.00,0.0050
3302.00,0.0050
3301.00,0.0050
3300.00,0.0050
3299.00,0.0049
3298.00,0.0049
3297.00,0.0048
3296.00,0.0048
3295.00,0.0047
3294.00,0.0047
3293.00,0.0047
3292.00,0.0046
3291.00,0.0046
3290.00,0.0046
3289.00,0.0045
3288.00,0.0045
3287.00,0.0045
3286.00,0.0045
3285.00,0.0045
3284.00,0.0045
3283.00,0.0044
3282.00,0.0044
3281.00,0.0044
3280.00,0.0045
3279.00,0.0045
3278.00,0.0044
3277.00,0.0044
3276.00,0.0044
3275.00,0.0043
3274.00,0.0043
3273.00,0.0043
3272.00,0.0043
3271.00,0.0043
3270.00,0.0043
3269.00,0.0042
3268.00,0.0042
3267.00,0.0041
3266.00,0.0041
3265.00,0.0041
3264.00,0.0041
3263.00,0.0041
3262.00,0.0041
3261.00,0.0040
3260.00,0.0040
3259.00,0.0040
3258.00,0.0040
3257.00,0.0040
3256.00,0.0040
3255.00,0.0040
3254.00,0.0040
3253.00,0.0040
3252.00,0.0040
3251.00,0.0040
3250.00,0.0040
3249.00,0.0039
3248.00,0.0039
3247.00,0.0039
3246.00,0.0039
3245.00,0.0039
3244.00,0.0039
3243.00,0.0039
3242.00,0.0039
3241.00,0.0039
3240.00,0.0039
3239.00,0.0039
3238.00,0.0039
3237.00,0.0039
3236.00,0.0039
3235.00,0.0039
3234.00,0.0039
3233.00,0.0039
3232.00,0.0039
3231.00,0.0039
3230.00,0.0039
3229.00,0.0039
3228.00,0.0039
3227.00,0.0039
3226.00,0.0040
3225.00,0.0040
3224.00,0.0041
3223.00,0.0041
3222.00,0.0041
3221.00,0.0041
3220.00,0.0041
3219.00,0.0041
3218.00,0.0041
3217.00,0.0041
3216.00,0.0041
3215.00,0.0041
3214.00,0.0042
3213.00,0.0042
3212.00,0.0042
3211.00,0.0042
3210.00,0.0042
3209.00,0.0042
3208.00,0.0043
3207.00,0.0043
3206.00,0.0043
3205.00,0.0043
3204.00,0.0042
3203.00,0.0042
3202.00,0.0042
3201.00,0.0043
3200.00,0.0043
3199.00,0.0043
3198.00,0.0043
3197.00,0.0043
3196.00,0.0043
3195.00,0.0043
3194.00,0.0043
3193.00,0.0042
3192.00,0.0042
3191.00,0.0042
3190.00,0.0042
3189.00,0.0042
3188.00,0.0042
3187.00,0.0042
3186.00,0.0042
3185.00,0.0043
3184.00,0.0043
3183.00,0.0042
3182.00,0.0042
3181.00,0.0042
3180.00,0.0041
3179.00,0.0041
3178.00,0.0040
3177.00,0.0040
3176.00,0.0040
3175.00,0.0040
3174.00,0.0040
3173.00,0.0040
3172.00,0.0039
3171.00,0.0039
3170.00,0.0039
3169.00,0.0039
3168.00,0.0039
3167.00,0.0039
3166.00,0.0039
3165.00,0.0039
3164.00,0.0039
3163.00,0.0039
3162.00,0.0039
3161.00,0.0038
3160.00,0.0039
3159.00,0.0039
3158.00,0.0039
3157.00,0.0039
3156.00,0.0039
3155.00,0.0039
3154.00,0.0038
3153.00,0.0038
3152.00,0.0038
3151.00,0.0038
3150.00,0.0038
3149.00,0.0038
3148.00,0.0038
3147.00,0.0038
3146.00,0.0037
3145.00,0.0037
3144.00,0.0037
3143.00,0.0037
3142.00,0.0037
3141.00,0.0037
3140.00,0.0037
3139.00,0.0037
3138.00,0.0037
3137.00,0.0036
3136.00,0.0036
3135.00,0.0036
3134.00,0.0035
3133.00,0.0035
3132.00,0.0035
3131.00,0.0035
3130.00,0.0035
3129.00,0.0035
3128.00,0.0034
3127.00,0.0034
3126.00,0.0034
3125.00,0.0033
3124.00,0.0033
3123.00,0.0033
3122.00,0.0032
3121.00,0.0032
3120.00,0.0032
3119.00,0.0032
3118.00,0.0032
3117.00,0.0032
3116.00,0.0031
3115.00,0.0031
3114.00,0.0031
3113.00,0.0031
3112.00,0.0031
3111.00,0.0031
3110.00,0.0031
3109.00,0.0031
3108.00,0.0031
3107.00,0.0031
3106.00,0.0031
3105.00,0.0031
3104.00,0.0031
3103.00,0.0031
3102.00,0.0031
3101.00,0.0031
3100.00,0.0030
3099.00,0.0030
3098.00,0.0030
3097.00,0.0030
3096.00,0.0030
3095.00,0.0030
3094.00,0.0030
3093.00,0.0030
3092.00,0.0030
3091.00,0.0030
3090.00,0.0030
3089.00,0.0030
3088.00,0.0030
3087.00,0.0030
3086.00,0.0029
3085.00,0.0029
3084.00,0.0029
3083.00,0.0029
3082.00,0.0029
3081.00,0.0029
3080.00,0.0029
3079.00,0.0029
3078.00,0.0029
3077.00,0.0030
3076.00,0.0030
3075.00,0.0031
3074.00,0.0031
3073.00,0.0031
3072.00,0.0031
3071.00,0.0031
3070.00,0.0031
3069.00,0.0031
3068.00,0.0031
3067.00,0.0031
3066.00,0.0031
3065.00,0.0032
3064.00,0.0031
3063.00,0.0031
3062.00,0.0031
3061.00,0.0031
3060.00,0.0031
3059.00,0.0031
3058.00,0.0031
3057.00,0.0031
3056.00,0.0032
3055.00,0.0032
3054.00,0.0033
3053.00,0.0033
3052.00,0.0033
3051.00,0.0033
3050.00,0.0033
3049.00,0.0033
3048.00,0.0034
3047.00,0.0034
3046.00,0.0035
3045.00,0.0035
3044.00,0.0035
3043.00,0.0035
3042.00,0.0035
3041.00,0.0035
3040.00,0.0035
3039.00,0.0036
3038.00,0.0036
3037.00,0.0036
3036.00,0.0036
3035.00,0.0036
3034.00,0.0037
3033.00,0.0037
3032.00,0.0038
3031.00,0.0038
3030.00,0.0039
3029.00,0.0039
3028.00,0.0040
3027.00,0.0041
3026.00,0.0041
3025.00,0.0042
3024.00,0.0043
3023.00,0.0044
3022.00,0.0045
3021.00,0.0045
3020.00,0.0046
3019.00,0.0047
3018.00,0.0047
3017.00,0.0048
3016.00,0.0049
3015.00,0.0049
3014.00,0.0050
3013.00,0.0051
3012.00,0.0052
3011.00,0.0053
3010.00,0.0055
3009.00,0.0056
3008.00,0.0058
3007.00,0.0059
3006.00,0.0061
3005.00,0.0062
3004.00,0.0064
3003.00,0.0066
3002.00,0.0067
3001.00,0.0069
3000.00,0.0072
2999.00,0.0074
2998.00,0.0077
2997.00,0.0080
2996.00,0.0084
2995.00,0.0088
2994.00,0.0092
2993.00,0.0097
2992.00,0.0102
2991.00,0.0107
2990.00,0.0113
2989.00,0.0120
2988.00,0.0127
2987.00,0.0135
2986.00,0.0143
2985.00,0.0153
2984.00,0.0164
2983.00,0.0176
2982.00,0.0191
2981.00,0.0207
2980.00,0.0226
2979.00,0.0247
2978.00,0.0271
2977.00,0.0299
2976.00,0.0331
2975.00,0.0367
2974.00,0.0409
2973.00,0.0456
2972.00,0.0509
2971.00,0.0569
2970.00,0.0636
2969.00,0.0709
2968.00,0.0788
2967.00,0.0872
2966.00,0.0959
2965.00,0.1046
2964.00,0.1129
2963.00,0.1203
2962.00,0.1264
2961.00,0.1310
2960.00,0.1345
2959.00,0.1373
2958.00,0.1403
2957.00,0.1442
2956.00,0.1498
2955.00,0.1572
2954.00,0.1662
2953.00,0.1760
2952.00,0.1850
2951.00,0.1917
2950.00,0.1945
2949.00,0.1925
2948.00,0.1856
2947.00,0.1749
2946.00,0.1618
2945.00,0.1481
2944.00,0.1353
2943.00,0.1244
2942.00,0.1159
2941.00,0.1100
2940.00,0.1066
2939.00,0.1055
2938.00,0.1064
2937.00,0.1091
2936.00,0.1134
2935.00,0.1192
2934.00,0.1264
2933.00,0.1350
2932.00,0.1449
2931.00,0.1558
2930.00,0.1677
2929.00,0.1802
2928.00,0.1928
2927.00,0.2055
2926.00,0.2179
2925.00,0.2301
2924.00,0.2423
2923.00,0.2545
2922.00,0.2669
2921.00,0.2790
2920.00,0.2898
2919.00,0.2980
2918.00,0.3021
2917.00,0.3011
2916.00,0.2949
2915.00,0.2844
2914.00,0.2714
2913.00,0.2576
2912.00,0.2443
2911.00,0.2323
2910.00,0.2219
2909.00,0.2129
2908.00,0.2047
2907.00,0.1971
2906.00,0.1897
2905.00,0.1823
2904.00,0.1749
2903.00,0.1676
2902.00,0.1605
2901.00,0.1535
2900.00,0.1469
2899.00,0.1407
2898.00,0.1349
2897.00,0.1295
2896.00,0.1247
2895.00,0.1205
2894.00,0.1170
2893.00,0.1141
2892.00,0.1119
2891.00,0.1102
2890.00,0.1091
2889.00,0.1085
2888.00,0.1082
2887.00,0.1083
2886.00,0.1086
2885.00,0.1092
2884.00,0.1103
2883.00,0.1117
2882.00,0.1135
2881.00,0.1156
2880.00,0.1175
2879.00,0.1190
2878.00,0.1197
2877.00,0.1196
2876.00,0.1190
2875.00,0.1183
2874.00,0.1179
2873.00,0.1182
2872.00,0.1193
2871.00,0.1212
2870.00,0.1236
2869.00,0.1260
2868.00,0.1277
2867.00,0.1279
2866.00,0.1258
2865.00,0.1213
2864.00,0.1146
2863.00,0.1069
2862.00,0.0991
2861.00,0.0922
2860.00,0.0868
2859.00,0.0831
2858.00,0.0809
2857.00,0.0801
2856.00,0.0802
2855.00,0.0812
2854.00,0.0828
2853.00,0.0848
2852.00,0.0870
2851.00,0.0890
2850.00,0.0906
2849.00,0.0918
2848.00,0.0929
2847.00,0.0942
2846.00,0.0963
2845.00,0.0995
2844.00,0.1038
2843.00,0.1087
2842.00,0.1138
2841.00,0.1182
2840.00,0.1214
2839.00,0.1224
2838.00,0.1207
2837.00,0.1162
2836.00,0.1089
2835.00,0.0996
2834.00,0.0893
2833.00,0.0789
2832.00,0.0692
2831.00,0.0608
2830.00,0.0536
2829.00,0.0477
2828.00,0.0429
2827.00,0.0390
2826.00,0.0358
2825.00,0.0332
2824.00,0.0310
2823.00,0.0291
2822.00,0.0275
2821.00,0.0260
2820.00,0.0247
2819.00,0.0236
2818.00,0.0227
2817.00,0.0218
2816.00,0.0211
2815.00,0.0204
2814.00,0.0198
2813.00,0.0192
2812.00,0.0186
2811.00,0.0181
2810.00,0.0175
2809.00,0.0169
2808.00,0.0163
2807.00,0.0157
2806.00,0.0150
2805.00,0.0144
2804.00,0.0138
2803.00,0.0132
2802.00,0.0126
2801.00,0.0122
2800.00,0.0118
2799.00,0.0115
2798.00,0.0112
2797.00,0.0110
2796.00,0.0108
2795.00,0.0105
2794.00,0.0103
2793.00,0.0100
2792.00,0.0097
2791.00,0.0094
2790.00,0.0091
2789.00,0.0088
2788.00,0.0085
2787.00,0.0082
2786.00,0.0079
2785.00,0.0077
2784.00,0.0075
2783.00,0.0072
2782.00,0.0070
2781.00,0.0068
2780.00,0.0066
2779.00,0.0065
2778.00,0.0063
2777.00,0.0062
2776.00,0.0061
2775.00,0.0059
2774.00,0.0059
2773.00,0.0058
2772.00,0.0058
2771.00,0.0058
2770.00,0.0057
2769.00,0.0056
2768.00,0.0056
2767.00,0.0056
2766.00,0.0055
2765.00,0.0055
2764.00,0.0055
2763.00,0.0054
2762.00,0.0054
2761.00,0.0054
2760.00,0.0054
2759.00,0.0053
2758.00,0.0053
2757.00,0.0052
2756.00,0.0052
2755.00,0.0052
2754.00,0.0052
2753.00,0.0051
2752.00,0.0051
2751.00,0.0051
2750.00,0.0051
2749.00,0.0051
2748.00,0.0051
2747.00,0.0052
2746.00,0.0052
2745.00,0.0053
2744.00,0.0054
2743.00,0.0055
2742.00,0.0056
2741.00,0.0057
2740.00,0.0058
2739.00,0.0059
2738.00,0.0060
2737.00,0.0062
2736.00,0.0063
2735.00,0.0064
2734.00,0.0066
2733.00,0.0067
2732.00,0.0069
2731.00,0.0071
2730.00,0.0073
2729.00,0.0075
2728.00,0.0078
2727.00,0.0080
2726.00,0.0083
2725.00,0.0085
2724.00,0.0087
2723.00,0.0088
2722.00,0.0087
2721.00,0.0086
2720.00,0.0083
2719.00,0.0080
2718.00,0.0077
2717.00,0.0073
2716.00,0.0070
2715.00,0.0067
2714.00,0.0064
2713.00,0.0062
2712.00,0.0060
2711.00,0.0058
2710.00,0.0056
2709.00,0.0054
2708.00,0.0053
2707.00,0.0051
2706.00,0.0050
2705.00,0.0049
2704.00,0.0049
2703.00,0.0048
2702.00,0.0048
2701.00,0.0047
2700.00,0.0046
2699.00,0.0046
2698.00,0.0045
2697.00,0.0045
2696.00,0.0045
2695.00,0.0045
2694.00,0.0045
2693.00,0.0045
2692.00,0.0045
2691.00,0.0045
2690.00,0.0045
2689.00,0.0045
2688.00,0.0045
2687.00,0.0044
2686.00,0.0044
2685.00,0.0044
2684.00,0.0044
2683.00,0.0045
2682.00,0.0045
2681.00,0.0046
2680.00,0.0046
2679.00,0.0046
2678.00,0.0046
2677.00,0.0046
2676.00,0.0046
2675.00,0.0046
2674.00,0.0045
2673.00,0.0045
2672.00,0.0044
2671.00,0.0044
2670.00,0.0044
2669.00,0.0044
2668.00,0.0044
2667.00,0.0044
2666.00,0.0045
2665.00,0.0046
2664.00,0.0046
2663.00,0.0047
2662.00,0.0048
2661.00,0.0049
2660.00,0.0049
2659.00,0.0049
2658.00,0.0049
2657.00,0.0048
2656.00,0.0048
2655.00,0.0047
2654.00,0.0046
2653.00,0.0046
2652.00,0.0045
2651.00,0.0044
2650.00,0.0043
2649.00,0.0043
2648.00,0.0042
2647.00,0.0042
2646.00,0.0042
2645.00,0.0042
2644.00,0.0042
2643.00,0.0042
2642.00,0.0041
2641.00,0.0040
2640.00,0.0040
2639.00,0.0040
2638.00,0.0039
2637.00,0.0039
2636.00,0.0039
2635.00,0.0039
2634.00,0.0039
2633.00,0.0039
2632.00,0.0039
2631.00,0.0039
2630.00,0.0039
2629.00,0.0039
2628.00,0.0039
2627.00,0.0039
2626.00,0.0039
2625.00,0.0040
2624.00,0.0040
2623.00,0.0040
2622.00,0.0040
2621.00,0.0040
2620.00,0.0040
2619.00,0.0040
2618.00,0.0040
2617.00,0.0040
2616.00,0.0041
2615.00,0.0041
2614.00,0.0040
2613.00,0.0040
2612.00,0.0039
2611.00,0.0038
2610.00,0.0037
2609.00,0.0037
2608.00,0.0036
2607.00,0.0035
2606.00,0.0035
2605.00,0.0034
2604.00,0.0033
2603.00,0.0033
2602.00,0.0032
2601.00,0.0032
2600.00,0.0032
2599.00,0.0032
2598.00,0.0032
2597.00,0.0032
2596.00,0.0032
2595.00,0.0032
2594.00,0.0032
2593.00,0.0032
2592.00,0.0032
2591.00,0.0033
2590.00,0.0034
2589.00,0.0034
2588.00,0.0035
2587.00,0.0036
2586.00,0.0037
2585.00,0.0038
2584.00,0.0039
2583.00,0.0040
2582.00,0.0040
2581.00,0.0040
2580.00,0.0040
2579.00,0.0039
2578.00,0.0038
2577.00,0.0037
2576.00,0.0036
2575.00,0.0035
2574.00,0.0033
2573.00,0.0032
2572.00,0.0030
2571.00,0.0029
2570.00,0.0028
2569.00,0.0027
2568.00,0.0026
2567.00,0.0025
2566.00,0.0025
2565.00,0.0025
2564.00,0.0026
2563.00,0.0025
2562.00,0.0025
2561.00,0.0024
2560.00,0.0024
2559.00,0.0025
2558.00,0.0025
2557.00,0.0024
2556.00,0.0024
2555.00,0.0024
2554.00,0.0023
2553.00,0.0023
2552.00,0.0022
2551.00,0.0021
2550.00,0.0021
2549.00,0.0020
2548.00,0.0020
2547.00,0.0019
2546.00,0.0019
2545.00,0.0019
2544.00,0.0018
2543.00,0.0018
2542.00,0.0018
2541.00,0.0018
2540.00,0.0018
2539.00,0.0018
2538.00,0.0018
2537.00,0.0018
2536.00,0.0018
2535.00,0.0018
2534.00,0.0017
2533.00,0.0017
2532.00,0.0017
2531.00,0.0016
2530.00,0.0016
2529.00,0.0015
2528.00,0.0014
2527.00,0.0014
2526.00,0.0014
2525.00,0.0014
2524.00,0.0014
2523.00,0.0014
2522.00,0.0014
2521.00,0.0014
2520.00,0.0014
2519.00,0.0013
2518.00,0.0013
2517.00,0.0012
2516.00,0.0012
2515.00,0.0011
2514.00,0.0011
2513.00,0.0011
2512.00,0.0011
2511.00,0.0011
2510.00,0.0011
2509.00,0.0011
2508.00,0.0010
2507.00,0.0010
2506.00,0.0010
2505.00,0.0010
2504.00,0.0011
2503.00,0.0011
2502.00,0.0011
2501.00,0.0011
2500.00,0.0010
2499.00,0.0010
2498.00,0.0009
2497.00,0.0008
2496.00,0.0008
2495.00,0.0009
2494.00,0.0010
2493.00,0.0010
2492.00,0.0011
2491.00,0.0011
2490.00,0.0011
2489.00,0.0010
2488.00,0.0010
2487.00,0.0009
2486.00,0.0009
2485.00,0.0010
2484.00,0.0010
2483.00,0.0010
2482.00,0.0010
2481.00,0.0010
2480.00,0.0010
2479.00,0.0009
2478.00,0.0009
2477.00,0.0009
2476.00,0.0009
2475.00,0.0009
2474.00,0.0008
2473.00,0.0008
2472.00,0.0008
2471.00,0.0008
2470.00,0.0007
2469.00,0.0007
2468.00,0.0008
2467.00,0.0008
2466.00,0.0009
2465.00,0.0010
2464.00,0.0010
2463.00,0.0010
2462.00,0.0010
2461.00,0.0011
2460.00,0.0011
2459.00,0.0011
2458.00,0.0011
2457.00,0.0011
2456.00,0.0011
2455.00,0.0010
2454.00,0.0010
2453.00,0.0010
2452.00,0.0011
2451.00,0.0011
2450.00,0.0012
2449.00,0.0013
2448.00,0.0012
2447.00,0.0012
2446.00,0.0012
2445.00,0.0011
2444.00,0.0011
2443.00,0.0011
2442.00,0.0011
2441.00,0.0011
2440.00,0.0011
2439.00,0.0011
2438.00,0.0011
2437.00,0.0011
2436.00,0.0011
2435.00,0.0012
2434.00,0.0012
2433.00,0.0012
2432.00,0.0012
2431.00,0.0012
2430.00,0.0012
2429.00,0.0011
2428.00,0.0011
2427.00,0.0011
2426.00,0.0011
2425.00,0.0011
2424.00,0.0011
2423.00,0.0010
2422.00,0.0009
2421.00,0.0009
2420.00,0.0009
2419.00,0.0009
2418.00,0.0009
2417.00,0.0009
2416.00,0.0009
2415.00,0.0009
2414.00,0.0009
2413.00,0.0009
2412.00,0.0009
2411.00,0.0010
2410.00,0.0010
2409.00,0.0010
2408.00,0.0010
2407.00,0.0009
2406.00,0.0008
2405.00,0.0007
2404.00,0.0007
2403.00,0.0008
2402.00,0.0008
2401.00,0.0009
2400.00,0.0009
2399.00,0.0009
2398.00,0.0009
2397.00,0.0008
2396.00,0.0008
2395.00,0.0008
2394.00,0.0008
2393.00,0.0009
2392.00,0.0009
2391.00,0.0008
2390.00,0.0008
2389.00,0.0008
2388.00,0.0007
2387.00,0.0007
2386.00,0.0006
2385.00,0.0005
2384.00,0.0005
2383.00,0.0005
2382.00,0.0005
2381.00,0.0005
2380.00,0.0006
2379.00,0.0005
2378.00,0.0004
2377.00,0.0003
2376.00,0.0002
2375.00,0.0002
2374.00,0.0001
2373.00,0.0001
2372.00,0.0001
2371.00,0.0001
2370.00,0.0001
2369.00,0.0001
2368.00,0.0001
2367.00,0.0001
2366.00,0.0001
2365.00,0.0001
2364.00,0.0002
2363.00,0.0003
2362.00,0.0003
2361.00,0.0003
2360.00,0.0003
2359.00,0.0003
2358.00,0.0004
2357.00,0.0004
2356.00,0.0004
2355.00,0.0004
2354.00,0.0004
2353.00,0.0004
2352.00,0.0004
2351.00,0.0004
2350.00,0.0004
2349.00,0.0004
2348.00,0.0005
2347.00,0.0005
2346.00,0.0005
2345.00,0.0005
2344.00,0.0005
2343.00,0.0006
2342.00,0.0007
2341.00,0.0008
2340.00,0.0007
2339.00,0.0007
2338.00,0.0008
2337.00,0.0008
2336.00,0.0008
2335.00,0.0008
2334.00,0.0007
2333.00,0.0006
2332.00,0.0006
2331.00,0.0006
2330.00,0.0006
2329.00,0.0006
2328.00,0.0007
2327.00,0.0010
2326.00,0.0015
2325.00,0.0018
2324.00,0.0020
2323.00,0.0019
2322.00,0.0017
2321.00,0.0015
2320.00,0.0014
2319.00,0.0014
2318.00,0.0013
2317.00,0.0013
2316.00,0.0012
2315.00,0.0011
2314.00,0.0010
2313.00,0.0010
2312.00,0.0010
2311.00,0.0010
2310.00,0.0010
2309.00,0.0010
2308.00,0.0010
2307.00,0.0010
2306.00,0.0010
2305.00,0.0010
2304.00,0.0011
2303.00,0.0011
2302.00,0.0012
2301.00,0.0011
2300.00,0.0011
2299.00,0.0010
2298.00,0.0010
2297.00,0.0010
2296.00,0.0011
2295.00,0.0012
2294.00,0.0013
2293.00,0.0013
2292.00,0.0014
2291.00,0.0015
2290.00,0.0015
2289.00,0.0016
2288.00,0.0016
2287.00,0.0017
2286.00,0.0017
2285.00,0.0017
2284.00,0.0017
2283.00,0.0017
2282.00,0.0016
2281.00,0.0015
2280.00,0.0014
2279.00,0.0013
2278.00,0.0013
2277.00,0.0012
2276.00,0.0012
2275.00,0.0013
2274.00,0.0014
2273.00,0.0014
2272.00,0.0014
2271.00,0.0013
2270.00,0.0013
2269.00,0.0012
2268.00,0.0012
2267.00,0.0011
2266.00,0.0010
2265.00,0.0010
2264.00,0.0010
2263.00,0.0011
2262.00,0.0012
2261.00,0.0013
2260.00,0.0013
2259.00,0.0012
2258.00,0.0011
2257.00,0.0009
2256.00,0.0007
2255.00,0.0005
2254.00,0.0005
2253.00,0.0006
2252.00,0.0008
2251.00,0.0009
2250.00,0.0010
2249.00,0.0011
2248.00,0.0012
2247.00,0.0012
2246.00,0.0011
2245.00,0.0009
2244.00,0.0007
2243.00,0.0007
2242.00,0.0008
2241.00,0.0008
2240.00,0.0009
2239.00,0.0009
2238.00,0.0010
2237.00,0.0011
2236.00,0.0011
2235.00,0.0010
2234.00,0.0008
2233.00,0.0007
2232.00,0.0005
2231.00,0.0005
2230.00,0.0005
2229.00,0.0006
2228.00,0.0006
2227.00,0.0007
2226.00,0.0007
2225.00,0.0008
2224.00,0.0008
2223.00,0.0007
2222.00,0.0006
2221.00,0.0006
2220.00,0.0006
2219.00,0.0006
2218.00,0.0006
2217.00,0.0006
2216.00,0.0006
2215.00,0.0005
2214.00,0.0005
2213.00,0.0006
2212.00,0.0007
2211.00,0.0007
2210.00,0.0006
2209.00,0.0005
2208.00,0.0004
2207.00,0.0003
2206.00,0.0002
2205.00,0.0001
2204.00,0.0001
2203.00,0.0001
2202.00,0.0003
2201.00,0.0005
2200.00,0.0007
2199.00,0.0008
2198.00,0.0008
2197.00,0.0009
2196.00,0.0009
2195.00,0.0008
2194.00,0.0007
2193.00,0.0006
2192.00,0.0006
2191.00,0.0007
2190.00,0.0009
2189.00,0.0010
2188.00,0.0012
2187.00,0.0014
2186.00,0.0014
2185.00,0.0014
2184.00,0.0012
2183.00,0.0009
2182.00,0.0007
2181.00,0.0007
2180.00,0.0009
2179.00,0.0010
2178.00,0.0010
2177.00,0.0007
2176.00,0.0003
2175.00,-0.0001
2174.00,-0.0002
2173.00,-0.0000
2172.00,0.0002
2171.00,0.0004
2170.00,0.0005
2169.00,0.0006
2168.00,0.0008
2167.00,0.0010
2166.00,0.0013
2165.00,0.0016
2164.00,0.0020
2163.00,0.0025
2162.00,0.0027
2161.00,0.0023
2160.00,0.0011
2159.00,-0.0006
2158.00,-0.0020
2157.00,-0.0026
2156.00,-0.0026
2155.00,-0.0024
2154.00,-0.0021
2153.00,-0.0018
2152.00,-0.0014
2151.00,-0.0011
2150.00,-0.0010
2149.00,-0.0011
2148.00,-0.0013
2147.00,-0.0014
2146.00,-0.0014
2145.00,-0.0013
2144.00,-0.0013
2143.00,-0.0013
2142.00,-0.0013
2141.00,-0.0013
2140.00,-0.0012
2139.00,-0.0012
2138.00,-0.0011
2137.00,-0.0011
2136.00,-0.0011
2135.00,-0.0014
2134.00,-0.0016
2133.00,-0.0016
2132.00,-0.0016
2131.00,-0.0014
2130.00,-0.0013
2129.00,-0.0011
2128.00,-0.0009
2127.00,-0.0008
2126.00,-0.0008
2125.00,-0.0008
2124.00,-0.0008
2123.00,-0.0008
2122.00,-0.0006
2121.00,-0.0004
2120.00,-0.0002
2119.00,-0.0001
2118.00,0.0000
2117.00,0.0002
2116.00,0.0004
2115.00,0.0005
2114.00,0.0005
2113.00,0.0004
2112.00,0.0004
2111.00,0.0003
2110.00,0.0003
2109.00,0.0003
2108.00,0.0002
2107.00,0.0001
2106.00,0.0000
2105.00,-0.0001
2104.00,-0.0001
2103.00,-0.0001
2102.00,0.0000
2101.00,0.0001
2100.00,0.0001
2099.00,0.0001
2098.00,0.0000
2097.00,-0.0001
2096.00,-0.0004
2095.00,-0.0006
2094.00,-0.0007
2093.00,-0.0006
2092.00,-0.0004
2091.00,-0.0002
2090.00,-0.0001
2089.00,0.0000
2088.00,0.0001
2087.00,0.0001
2086.00,0.0001
2085.00,0.0001
2084.00,0.0001
2083.00,0.0001
2082.00,0.0001
2081.00,0.0001
2080.00,0.0001
2079.00,0.0001
2078.00,0.0002
2077.00,0.0003
2076.00,0.0003
2075.00,0.0003
2074.00,0.0002
2073.00,0.0002
2072.00,0.0001
2071.00,0.0001
2070.00,0.0000
2069.00,0.0000
2068.00,-0.0000
2067.00,-0.0001
2066.00,-0.0001
2065.00,-0.0001
2064.00,-0.0000
2063.00,0.0001
2062.00,0.0002
2061.00,0.0003
2060.00,0.0003
2059.00,0.0003
2058.00,0.0003
2057.00,0.0002
2056.00,0.0001
2055.00,-0.0000
2054.00,0.0000
2053.00,0.0003
2052.00,0.0009
2051.00,0.0013
2050.00,0.0013
2049.00,0.0010
2048.00,0.0006
2047.00,0.0003
2046.00,0.0002
2045.00,0.0002
2044.00,0.0003
2043.00,0.0004
2042.00,0.0004
2041.00,0.0003
2040.00,0.0001
2039.00,-0.0002
2038.00,-0.0004
2037.00,-0.0004
2036.00,-0.0004
2035.00,-0.0004
2034.00,-0.0004
2033.00,-0.0002
2032.00,-0.0000
2031.00,-0.0000
2030.00,-0.0002
2029.00,-0.0004
2028.00,-0.0005
2027.00,-0.0005
2026.00,-0.0005
2025.00,-0.0007
2024.00,-0.0010
2023.00,-0.0012
2022.00,-0.0013
2021.00,-0.0012
2020.00,-0.0011
2019.00,-0.0010
2018.00,-0.0011
2017.00,-0.0010
2016.00,-0.0009
2015.00,-0.0009
2014.00,-0.0010
2013.00,-0.0011
2012.00,-0.0011
2011.00,-0.0012
2010.00,-0.0013
2009.00,-0.0017
2008.00,-0.0020
2007.00,-0.0022
2006.00,-0.0022
2005.00,-0.0018
2004.00,-0.0014
2003.00,-0.0011
2002.00,-0.0010
2001.00,-0.0011
2000.00,-0.0010
1999.00,-0.0009
1998.00,-0.0008
1997.00,-0.0007
1996.00,-0.0006
1995.00,-0.0007
1994.00,-0.0007
1993.00,-0.0006
1992.00,-0.0005
1991.00,-0.0004
1990.00,-0.0003
1989.00,-0.0000
1988.00,0.0003
1987.00,0.0004
1986.00,0.0003
1985.00,0.0002
1984.00,0.0001
1983.00,0.0002
1982.00,0.0004
1981.00,0.0006
1980.00,0.0007
1979.00,0.0006
1978.00,0.0002
1977.00,-0.0003
1976.00,-0.0008
1975.00,-0.0012
1974.00,-0.0012
1973.00,-0.0011
1972.00,-0.0010
1971.00,-0.0011
1970.00,-0.0014
1969.00,-0.0017
1968.00,-0.0018
1967.00,-0.0018
1966.00,-0.0017
1965.00,-0.0016
1964.00,-0.0015
1963.00,-0.0014
1962.00,-0.0014
1961.00,-0.0014
1960.00,-0.0016
1959.00,-0.0019
1958.00,-0.0020
1957.00,-0.0019
1956.00,-0.0017
1955.00,-0.0015
1954.00,-0.0014
1953.00,-0.0014
1952.00,-0.0014
1951.00,-0.0014
1950.00,-0.0015
1949.00,-0.0015
1948.00,-0.0015
1947.00,-0.0015
1946.00,-0.0016
1945.00,-0.0016
1944.00,-0.0016
1943.00,-0.0016
1942.00,-0.0015
1941.00,-0.0014
1940.00,-0.0013
1939.00,-0.0012
1938.00,-0.0011
1937.00,-0.0011
1936.00,-0.0011
1935.00,-0.0011
1934.00,-0.0010
1933.00,-0.0009
1932.00,-0.0007
1931.00,-0.0006
1930.00,-0.0006
1929.00,-0.0007
1928.00,-0.0008
1927.00,-0.0009
1926.00,-0.0010
1925.00,-0.0009
1924.00,-0.0009
1923.00,-0.0008
1922.00,-0.0006
1921.00,-0.0005
1920.00,-0.0004
1919.00,-0.0003
1918.00,-0.0003
1917.00,-0.0002
1916.00,-0.0002
1915.00,-0.0001
1914.00,-0.0001
1913.00,-0.0002
1912.00,-0.0002
1911.00,-0.0002
1910.00,-0.0001
1909.00,-0.0000
1908.00,0.0000
1907.00,-0.0000
1906.00,-0.0002
1905.00,-0.0002
1904.00,-0.0001
1903.00,0.0001
1902.00,0.0003
1901.00,0.0003
1900.00,0.0003
1899.00,0.0001
1898.00,-0.0001
1897.00,-0.0003
1896.00,-0.0003
1895.00,-0.0002
1894.00,0.0000
1893.00,0.0002
1892.00,0.0002
1891.00,0.0002
1890.00,0.0001
1889.00,0.0000
1888.00,0.0000
1887.00,0.0000
1886.00,-0.0000
1885.00,-0.0001
1884.00,-0.0002
1883.00,-0.0002
1882.00,-0.0002
1881.00,-0.0002
1880.00,-0.0001
1879.00,-0.0001
1878.00,-0.0001
1877.00,-0.0002
1876.00,-0.0002
1875.00,-0.0003
1874.00,-0.0003
1873.00,-0.0003
1872.00,-0.0003
1871.00,-0.0002
1870.00,-0.0002
1869.00,-0.0002
1868.00,-0.0001
1867.00,-0.0001
1866.00,-0.0000
1865.00,0.0000
1864.00,0.0001
1863.00,0.0002
1862.00,0.0002
1861.00,0.0002
1860.00,0.0001
1859.00,-0.0001
1858.00,-0.0002
1857.00,-0.0002
1856.00,-0.0001
1855.00,-0.0001
1854.00,-0.0001
1853.00,-0.0001
1852.00,-0.0000
1851.00,0.0000
1850.00,0.0000
1849.00,0.0001
1848.00,0.0001
1847.00,0.0001
1846.00,0.0001
1845.00,0.0002
1844.00,0.0002
1843.00,0.0002
1842.00,0.0002
1841.00,0.0002
1840.00,0.0002
1839.00,0.0002
1838.00,0.0002
1837.00,0.0002
1836.00,0.0003
1835.00,0.0003
1834.00,0.0003
1833.00,0.0003
1832.00,0.0003
1831.00,0.0003
1830.00,0.0004
1829.00,0.0004
1828.00,0.0005
1827.00,0.0005
1826.00,0.0005
1825.00,0.0004
1824.00,0.0004
1823.00,0.0003
1822.00,0.0003
1821.00,0.0003
1820.00,0.0002
1819.00,0.0001
1818.00,0.0000
1817.00,-0.0000
1816.00,0.0000
1815.00,0.0001
1814.00,0.0002
1813.00,0.0002
1812.00,0.0002
1811.00,0.0002
1810.00,0.0002
1809.00,0.0002
1808.00,0.0002
1807.00,0.0002
1806.00,0.0003
1805.00,0.0003
1804.00,0.0004
1803.00,0.0004
1802.00,0.0004
1801.00,0.0004
1800.00,0.0005
1799.00,0.0005
1798.00,0.0005
1797.00,0.0005
1796.00,0.0004
1795.00,0.0004
1794.00,0.0003
1793.00,0.0003
1792.00,0.0004
1791.00,0.0005
1790.00,0.0006
1789.00,0.0006
1788.00,0.0007
1787.00,0.0008
1786.00,0.0008
1785.00,0.0008
1784.00,0.0008
1783.00,0.0008
1782.00,0.0008
1781.00,0.0008
1780.00,0.0008
1779.00,0.0008
1778.00,0.0007
1777.00,0.0007
1776.00,0.0007
1775.00,0.0006
1774.00,0.0006
1773.00,0.0006
1772.00,0.0007
1771.00,0.0008
1770.00,0.0008
1769.00,0.0009
1768.00,0.0010
1767.00,0.0010
1766.00,0.0011
1765.00,0.0011
1764.00,0.0012
1763.00,0.0012
1762.00,0.0012
1761.00,0.0012
1760.00,0.0013
1759.00,0.0013
1758.00,0.0014
1757.00,0.0015
1756.00,0.0015
1755.00,0.0015
1754.00,0.0015
1753.00,0.0016
1752.00,0.0017
1751.00,0.0018
1750.00,0.0019
1749.00,0.0020
1748.00,0.0021
1747.00,0.0022
1746.00,0.0023
1745.00,0.0024
1744.00,0.0024
1743.00,0.0025
1742.00,0.0024
1741.00,0.0024
1740.00,0.0024
1739.00,0.0023
1738.00,0.0023
1737.00,0.0023
1736.00,0.0023
1735.00,0.0023
1734.00,0.0023
1733.00,0.0023
1732.00,0.0023
1731.00,0.0023
1730.00,0.0024
1729.00,0.0024
1728.00,0.0024
1727.00,0.0024
1726.00,0.0023
1725.00,0.0023
1724.00,0.0024
1723.00,0.0024
1722.00,0.0024
1721.00,0.0025
1720.00,0.0025
1719.00,0.0025
1718.00,0.0024
1717.00,0.0024
1716.00,0.0024
1715.00,0.0024
1714.00,0.0023
1713.00,0.0024
1712.00,0.0024
1711.00,0.0024
1710.00,0.0024
1709.00,0.0024
1708.00,0.0024
1707.00,0.0024
1706.00,0.0024
1705.00,0.0024
1704.00,0.0025
1703.00,0.0025
1702.00,0.0025
1701.00,0.0026
1700.00,0.0027
1699.00,0.0028
1698.00,0.0028
1697.00,0.0028
1696.00,0.0028
1695.00,0.0028
1694.00,0.0029
1693.00,0.0029
1692.00,0.0029
1691.00,0.0029
1690.00,0.0029
1689.00,0.0030
1688.00,0.0031
1687.00,0.0031
1686.00,0.0031
1685.00,0.0032
1684.00,0.0033
1683.00,0.0034
1682.00,0.0035
1681.00,0.0036
1680.00,0.0037
1679.00,0.0038
1678.00,0.0038
1677.00,0.0038
1676.00,0.0038
1675.00,0.0039
1674.00,0.0040
1673.00,0.0042
1672.00,0.0042
1671.00,0.0043
1670.00,0.0043
1669.00,0.0043
1668.00,0.0044
1667.00,0.0044
1666.00,0.0045
1665.00,0.0046
1664.00,0.0047
1663.00,0.0047
1662.00,0.0047
1661.00,0.0048
1660.00,0.0048
1659.00,0.0048
1658.00,0.0049
1657.00,0.0049
1656.00,0.0050
1655.00,0.0051
1654.00,0.0051
1653.00,0.0052
1652.00,0.0052
1651.00,0.0053
1650.00,0.0053
1649.00,0.0054
1648.00,0.0056
1647.00,0.0057
1646.00,0.0059
1645.00,0.0060
1644.00,0.0060
1643.00,0.0061
1642.00,0.0062
1641.00,0.0063
1640.00,0.0064
1639.00,0.0064
1638.00,0.0065
1637.00,0.0065
1636.00,0.0065
1635.00,0.0066
1634.00,0.0066
1633.00,0.0066
1632.00,0.0066
1631.00,0.0065
1630.00,0.0064
1629.00,0.0064
1628.00,0.0063
1627.00,0.0063
1626.00,0.0062
1625.00,0.0061
1624.00,0.0061
1623.00,0.0060
1622.00,0.0060
1621.00,0.0060
1620.00,0.0060
1619.00,0.0060
1618.00,0.0059
1617.00,0.0058
1616.00,0.0058
1615.00,0.0058
1614.00,0.0058
1613.00,0.0059
1612.00,0.0060
1611.00,0.0060
1610.00,0.0059
1609.00,0.0059
1608.00,0.0059
1607.00,0.0059
1606.00,0.0059
1605.00,0.0060
1604.00,0.0060
1603.00,0.0059
1602.00,0.0059
1601.00,0.0059
1600.00,0.0060
1599.00,0.0059
1598.00,0.0059
1597.00,0.0058
1596.00,0.0058
1595.00,0.0058
1594.00,0.0059
1593.00,0.0059
1592.00,0.0060
1591.00,0.0060
1590.00,0.0061
1589.00,0.0062
1588.00,0.0063
1587.00,0.0064
1586.00,0.0066
1585.00,0.0068
1584.00,0.0070
1583.00,0.0073
1582.00,0.0075
1581.00,0.0078
1580.00,0.0080
1579.00,0.0083
1578.00,0.0084
1577.00,0.0085
1576.00,0.0085
1575.00,0.0084
1574.00,0.0082
1573.00,0.0081
1572.00,0.0079
1571.00,0.0078
1570.00,0.0076
1569.00,0.0074
1568.00,0.0074
1567.00,0.0073
1566.00,0.0072
1565.00,0.0071
1564.00,0.0070
1563.00,0.0069
1562.00,0.0069
1561.00,0.0069
1560.00,0.0069
1559.00,0.0069
1558.00,0.0069
1557.00,0.0069
1556.00,0.0069
1555.00,0.0069
1554.00,0.0070
1553.00,0.0072
1552.00,0.0074
1551.00,0.0076
1550.00,0.0077
1549.00,0.0079
1548.00,0.0080
1547.00,0.0082
1546.00,0.0084
1545.00,0.0087
1544.00,0.0090
1543.00,0.0092
1542.00,0.0092
1541.00,0.0092
1540.00,0.0090
1539.00,0.0087
1538.00,0.0085
1537.00,0.0084
1536.00,0.0082
1535.00,0.0079
1534.00,0.0075
1533.00,0.0070
1532.00,0.0067
1531.00,0.0064
1530.00,0.0062
1529.00,0.0061
1528.00,0.0061
1527.00,0.0060
1526.00,0.0059
1525.00,0.0057
1524.00,0.0057
1523.00,0.0056
1522.00,0.0055
1521.00,0.0056
1520.00,0.0056
1519.00,0.0056
1518.00,0.0056
1517.00,0.0057
1516.00,0.0057
1515.00,0.0057
1514.00,0.0057
1513.00,0.0058
1512.00,0.0059
1511.00,0.0060
1510.00,0.0060
1509.00,0.0062
1508.00,0.0063
1507.00,0.0064
1506.00,0.0064
1505.00,0.0065
1504.00,0.0066
1503.00,0.0068
1502.00,0.0069
1501.00,0.0071
1500.00,0.0074
1499.00,0.0076
1498.00,0.0078
1497.00,0.0081
1496.00,0.0085
1495.00,0.0088
1494.00,0.0090
1493.00,0.0093
1492.00,0.0097
1491.00,0.0101
1490.00,0.0106
1489.00,0.0112
1488.00,0.0118
1487.00,0.0123
1486.00,0.0128
1485.00,0.0135
1484.00,0.0142
1483.00,0.0150
1482.00,0.0160
1481.00,0.0173
1480.00,0.0186
1479.00,0.0200
1478.00,0.0216
1477.00,0.0237
1476.00,0.0263
1475.00,0.0293
1474.00,0.0333
1473.00,0.0390
1472.00,0.0457
1471.00,0.0522
1470.00,0.0584
1469.00,0.0651
1468.00,0.0723
1467.00,0.0802
1466.00,0.0891
1465.00,0.0986
1464.00,0.1069
1463.00,0.1125
1462.00,0.1160
1461.00,0.1182
1460.00,0.1196
1459.00,0.1204
1458.00,0.1208
1457.00,0.1209
1456.00,0.1202
1455.00,0.1191
1454.00,0.1177
1453.00,0.1158
1452.00,0.1130
1451.00,0.1093
1450.00,0.1043
1449.00,0.0974
1448.00,0.0885
1447.00,0.0791
1446.00,0.0705
1445.00,0.0632
1444.00,0.0569
1443.00,0.0518
1442.00,0.0480
1441.00,0.0453
1440.00,0.0437
1439.00,0.0431
1438.00,0.0433
1437.00,0.0437
1436.00,0.0430
1435.00,0.0407
1434.00,0.0372
1433.00,0.0329
1432.00,0.0284
1431.00,0.0244
1430.00,0.0212
1429.00,0.0189
1428.00,0.0173
1427.00,0.0163
1426.00,0.0157
1425.00,0.0150
1424.00,0.0145
1423.00,0.0141
1422.00,0.0139
1421.00,0.0137
1420.00,0.0133
1419.00,0.0131
1418.00,0.0129
1417.00,0.0126
1416.00,0.0123
1415.00,0.0121
1414.00,0.0120
1413.00,0.0119
1412.00,0.0117
1411.00,0.0116
1410.00,0.0115
1409.00,0.0114
1408.00,0.0112
1407.00,0.0112
1406.00,0.0113
1405.00,0.0112
1404.00,0.0112
1403.00,0.0112
1402.00,0.0113
1401.00,0.0114
1400.00,0.0114
1399.00,0.0116
1398.00,0.0118
1397.00,0.0119
1396.00,0.0121
1395.00,0.0124
1394.00,0.0129
1393.00,0.0133
1392.00,0.0138
1391.00,0.0146
1390.00,0.0156
1389.00,0.0170
1388.00,0.0189
1387.00,0.0219
1386.00,0.0260
1385.00,0.0314
1384.00,0.0388
1383.00,0.0492
1382.00,0.0633
1381.00,0.0816
1380.00,0.1050
1379.00,0.1326
1378.00,0.1608
1377.00,0.1832
1376.00,0.1929
1375.00,0.1856
1374.00,0.1635
1373.00,0.1354
1372.00,0.1089
1371.00,0.0868
1370.00,0.0693
1369.00,0.0561
1368.00,0.0470
1367.00,0.0415
1366.00,0.0386
1365.00,0.0374
1364.00,0.0376
1363.00,0.0390
1362.00,0.0412
1361.00,0.0436
1360.00,0.0454
1359.00,0.0460
1358.00,0.0450
1357.00,0.0424
1356.00,0.0386
1355.00,0.0344
1354.00,0.0304
1353.00,0.0270
1352.00,0.0242
1351.00,0.0219
1350.00,0.0201
1349.00,0.0185
1348.00,0.0173
1347.00,0.0162
1346.00,0.0154
1345.00,0.0146
1344.00,0.0140
1343.00,0.0135
1342.00,0.0130
1341.00,0.0127
1340.00,0.0124
1339.00,0.0122
1338.00,0.0121
1337.00,0.0120
1336.00,0.0121
1335.00,0.0123
1334.00,0.0125
1333.00,0.0129
1332.00,0.0133
1331.00,0.0136
1330.00,0.0138
1329.00,0.0137
1328.00,0.0133
1327.00,0.0129
1326.00,0.0123
1325.00,0.0117
1324.00,0.0112
1323.00,0.0107
1322.00,0.0103
1321.00,0.0100
1320.00,0.0098
1319.00,0.0096
1318.00,0.0095
1317.00,0.0093
1316.00,0.0091
1315.00,0.0090
1314.00,0.0090
1313.00,0.0091
1312.00,0.0092
1311.00,0.0094
1310.00,0.0097
1309.00,0.0102
1308.00,0.0110
1307.00,0.0119
1306.00,0.0129
1305.00,0.0135
1304.00,0.0138
1303.00,0.0136
1302.00,0.0132
1301.00,0.0128
1300.00,0.0126
1299.00,0.0126
1298.00,0.0127
1297.00,0.0127
1296.00,0.0126
1295.00,0.0123
1294.00,0.0119
1293.00,0.0114
1292.00,0.0109
1291.00,0.0104
1290.00,0.0100
1289.00,0.0096
1288.00,0.0093
1287.00,0.0091
1286.00,0.0088
1285.00,0.0087
1284.00,0.0085
1283.00,0.0084
1282.00,0.0082
1281.00,0.0081
1280.00,0.0080
1279.00,0.0080
1278.00,0.0079
1277.00,0.0079
1276.00,0.0079
1275.00,0.0079
1274.00,0.0079
1273.00,0.0079
1272.00,0.0079
1271.00,0.0080
1270.00,0.0082
1269.00,0.0084
1268.00,0.0087
1267.00,0.0090
1266.00,0.0094
1265.00,0.0097
1264.00,0.0100
1263.00,0.0104
1262.00,0.0107
1261.00,0.0110
1260.00,0.0114
1259.00,0.0119
1258.00,0.0124
1257.00,0.0128
1256.00,0.0130
1255.00,0.0127
1254.00,0.0122
1253.00,0.0114
1252.00,0.0107
1251.00,0.0101
1250.00,0.0097
1249.00,0.0093
1248.00,0.0090
1247.00,0.0088
1246.00,0.0086
1245.00,0.0084
1244.00,0.0082
1243.00,0.0080
1242.00,0.0080
1241.00,0.0079
1240.00,0.0079
1239.00,0.0079
1238.00,0.0079
1237.00,0.0078
1236.00,0.0078
1235.00,0.0079
1234.00,0.0079
1233.00,0.0080
1232.00,0.0080
1231.00,0.0080
1230.00,0.0081
1229.00,0.0081
1228.00,0.0082
1227.00,0.0084
1226.00,0.0087
1225.00,0.0091
1224.00,0.0095
1223.00,0.0099
1222.00,0.0102
1221.00,0.0104
1220.00,0.0106
1219.00,0.0106
1218.00,0.0105
1217.00,0.0103
1216.00,0.0101
1215.00,0.0098
1214.00,0.0095
1213.00,0.0092
1212.00,0.0089
1211.00,0.0087
1210.00,0.0085
1209.00,0.0084
1208.00,0.0082
1207.00,0.0082
1206.00,0.0081
1205.00,0.0081
1204.00,0.0081
1203.00,0.0081
1202.00,0.0082
1201.00,0.0082
1200.00,0.0082
1199.00,0.0082
1198.00,0.0082
1197.00,0.0082
1196.00,0.0081
1195.00,0.0081
1194.00,0.0081
1193.00,0.0081
1192.00,0.0081
1191.00,0.0082
1190.00,0.0083
1189.00,0.0084
1188.00,0.0084
1187.00,0.0084
1186.00,0.0083
1185.00,0.0084
1184.00,0.0085
1183.00,0.0086
1182.00,0.0088
1181.00,0.0090
1180.00,0.0093
1179.00,0.0096
1178.00,0.0101
1177.00,0.0108
1176.00,0.0118
1175.00,0.0131
1174.00,0.0148
1173.00,0.0169
1172.00,0.0194
1171.00,0.0223
1170.00,0.0251
1169.00,0.0274
1168.00,0.0288
1167.00,0.0292
1166.00,0.0286
1165.00,0.0273
1164.00,0.0258
1163.00,0.0243
1162.00,0.0230
1161.00,0.0219
1160.00,0.0212
1159.00,0.0206
1158.00,0.0202
1157.00,0.0199
1156.00,0.0197
1155.00,0.0195
1154.00,0.0194
1153.00,0.0192
1152.00,0.0189
1151.00,0.0183
1150.00,0.0176
1149.00,0.0167
1148.00,0.0158
1147.00,0.0149
1146.00,0.0141
1145.00,0.0133
1144.00,0.0126
1143.00,0.0119
1142.00,0.0113
1141.00,0.0108
1140.00,0.0104
1139.00,0.0100
1138.00,0.0096
1137.00,0.0092
1136.00,0.0089
1135.00,0.0086
1134.00,0.0084
1133.00,0.0084
1132.00,0.0084
1131.00,0.0085
1130.00,0.0085
1129.00,0.0086
1128.00,0.0086
1127.00,0.0087
1126.00,0.0087
1125.00,0.0087
1124.00,0.0088
1123.00,0.0089
1122.00,0.0090
1121.00,0.0092
1120.00,0.0094
1119.00,0.0095
1118.00,0.0097
1117.00,0.0098
1116.00,0.0099
1115.00,0.0100
1114.00,0.0102
1113.00,0.0105
1112.00,0.0107
1111.00,0.0109
1110.00,0.0111
1109.00,0.0114
1108.00,0.0119
1107.00,0.0125
1106.00,0.0131
1105.00,0.0138
1104.00,0.0143
1103.00,0.0146
1102.00,0.0146
1101.00,0.0142
1100.00,0.0136
1099.00,0.0130
1098.00,0.0124
1097.00,0.0119
1096.00,0.0114
1095.00,0.0111
1094.00,0.0108
1093.00,0.0105
1092.00,0.0103
1091.00,0.0101
1090.00,0.0099
1089.00,0.0098
1088.00,0.0097
1087.00,0.0096
1086.00,0.0095
1085.00,0.0095
1084.00,0.0094
1083.00,0.0094
1082.00,0.0094
1081.00,0.0093
1080.00,0.0092
1079.00,0.0091
1078.00,0.0090
1077.00,0.0089
1076.00,0.0088
1075.00,0.0087
1074.00,0.0086
1073.00,0.0087
1072.00,0.0087
1071.00,0.0088
1070.00,0.0088
1069.00,0.0088
1068.00,0.0088
1067.00,0.0089
1066.00,0.0091
1065.00,0.0091
1064.00,0.0091
1063.00,0.0091
1062.00,0.0091
1061.00,0.0092
1060.00,0.0093
1059.00,0.0094
1058.00,0.0095
1057.00,0.0096
1056.00,0.0097
1055.00,0.0100
1054.00,0.0102
1053.00,0.0104
1052.00,0.0106
1051.00,0.0108
1050.00,0.0112
1049.00,0.0117
1048.00,0.0122
1047.00,0.0127
1046.00,0.0131
1045.00,0.0134
1044.00,0.0135
1043.00,0.0134
1042.00,0.0132
1041.00,0.0130
1040.00,0.0128
1039.00,0.0127
1038.00,0.0127
1037.00,0.0127
1036.00,0.0128
1035.00,0.0128
1034.00,0.0127
1033.00,0.0126
1032.00,0.0124
1031.00,0.0123
1030.00,0.0123
1029.00,0.0124
1028.00,0.0125
1027.00,0.0127
1026.00,0.0128
1025.00,0.0130
1024.00,0.0132
1023.00,0.0134
1022.00,0.0137
1021.00,0.0139
1020.00,0.0141
1019.00,0.0142
1018.00,0.0142
1017.00,0.0142
1016.00,0.0142
1015.00,0.0142
1014.00,0.0142
1013.00,0.0142
1012.00,0.0141
1011.00,0.0139
1010.00,0.0139
1009.00,0.0139
1008.00,0.0141
1007.00,0.0144
1006.00,0.0150
1005.00,0.0159
1004.00,0.0173
1003.00,0.0192
1002.00,0.0218
1001.00,0.0250
1000.00,0.0284
999.00,0.0313
998.00,0.0326
997.00,0.0318
996.00,0.0292
995.00,0.0256
994.00,0.0219
993.00,0.0188
992.00,0.0165
991.00,0.0148
990.00,0.0137
989.00,0.0129
988.00,0.0123
987.00,0.0120
986.00,0.0119
985.00,0.0120
984.00,0.0124
983.00,0.0130
982.00,0.0139
981.00,0.0152
980.00,0.0171
979.00,0.0197
978.00,0.0230
977.00,0.0268
976.00,0.0308
975.00,0.0346
974.00,0.0373
973.00,0.0383
972.00,0.0369
971.00,0.0335
970.00,0.0289
969.00,0.0243
968.00,0.0203
967.00,0.0173
966.00,0.0151
965.00,0.0136
964.00,0.0125
963.00,0.0117
962.00,0.0110
961.00,0.0104
960.00,0.0100
959.00,0.0097
958.00,0.0095
957.00,0.0092
956.00,0.0089
955.00,0.0087
954.00,0.0084
953.00,0.0082
952.00,0.0080
951.00,0.0079
950.00,0.0079
949.00,0.0079
948.00,0.0080
947.00,0.0081
946.00,0.0083
945.00,0.0086
944.00,0.0090
943.00,0.0094
942.00,0.0098
941.00,0.0100
940.00,0.0100
939.00,0.0098
938.00,0.0093
937.00,0.0087
936.00,0.0082
935.00,0.0077
934.00,0.0073
933.00,0.0070
932.00,0.0068
931.00,0.0067
930.00,0.0067
929.00,0.0067
928.00,0.0067
927.00,0.0067
926.00,0.0067
925.00,0.0067
924.00,0.0067
923.00,0.0068
922.00,0.0068
921.00,0.0067
920.00,0.0066
919.00,0.0066
918.00,0.0066
917.00,0.0067
916.00,0.0067
915.00,0.0068
914.00,0.0070
913.00,0.0071
912.00,0.0072
911.00,0.0073
910.00,0.0074
909.00,0.0076
908.00,0.0079
907.00,0.0083
906.00,0.0090
905.00,0.0101
904.00,0.0115
903.00,0.0133
902.00,0.0154
901.00,0.0173
900.00,0.0186
899.00,0.0188
898.00,0.0181
897.00,0.0165
896.00,0.0145
895.00,0.0126
894.00,0.0110
893.00,0.0099
892.00,0.0091
891.00,0.0086
890.00,0.0083
889.00,0.0080
888.00,0.0078
887.00,0.0077
886.00,0.0075
885.00,0.0075
884.00,0.0074
883.00,0.0075
882.00,0.0075
881.00,0.0074
880.00,0.0074
879.00,0.0075
878.00,0.0077
877.00,0.0079
876.00,0.0082
875.00,0.0083
874.00,0.0083
873.00,0.0082
872.00,0.0082
871.00,0.0081
870.00,0.0081
869.00,0.0080
868.00,0.0079
867.00,0.0078
866.00,0.0079
865.00,0.0081
864.00,0.0083
863.00,0.0085
862.00,0.0086
861.00,0.0087
860.00,0.0087
859.00,0.0088
858.00,0.0089
857.00,0.0089
856.00,0.0090
855.00,0.0091
854.00,0.0094
853.00,0.0096
852.00,0.0099
851.00,0.0102
850.00,0.0105
849.00,0.0110
848.00,0.0117
847.00,0.0128
846.00,0.0144
845.00,0.0169
844.00,0.0207
843.00,0.0252
842.00,0.0290
841.00,0.0305
840.00,0.0288
839.00,0.0248
838.00,0.0202
837.00,0.0164
836.00,0.0139
835.00,0.0124
834.00,0.0116
833.00,0.0111
832.00,0.0108
831.00,0.0106
830.00,0.0105
829.00,0.0104
828.00,0.0103
827.00,0.0103
826.00,0.0103
825.00,0.0104
824.00,0.0105
823.00,0.0106
822.00,0.0108
821.00,0.0109
820.00,0.0111
819.00,0.0113
818.00,0.0116
817.00,0.0122
816.00,0.0130
815.00,0.0142
814.00,0.0158
813.00,0.0177
812.00,0.0198
811.00,0.0217
810.00,0.0232
809.00,0.0238
808.00,0.0234
807.00,0.0221
806.00,0.0202
805.00,0.0182
804.00,0.0164
803.00,0.0149
802.00,0.0139
801.00,0.0131
800.00,0.0125
799.00,0.0120
798.00,0.0116
797.00,0.0111
796.00,0.0107
795.00,0.0102
794.00,0.0099
793.00,0.0097
792.00,0.0094
791.00,0.0092
790.00,0.0089
789.00,0.0086
788.00,0.0084
787.00,0.0082
786.00,0.0079
785.00,0.0076
784.00,0.0073
783.00,0.0071
782.00,0.0070
781.00,0.0071
780.00,0.0072
779.00,0.0072
778.00,0.0071
777.00,0.0069
776.00,0.0067
775.00,0.0066
774.00,0.0065
773.00,0.0065
772.00,0.0066
771.00,0.0067
770.00,0.0068
769.00,0.0068
768.00,0.0068
767.00,0.0068
766.00,0.0069
765.00,0.0069
764.00,0.0068
763.00,0.0068
762.00,0.0068
761.00,0.0070
760.00,0.0072
759.00,0.0073
758.00,0.0074
757.00,0.0074
756.00,0.0075
755.00,0.0077
754.00,0.0078
753.00,0.0080
752.00,0.0080
751.00,0.0081
750.00,0.0081
749.00,0.0082
748.00,0.0083
747.00,0.0085
746.00,0.0086
745.00,0.0087
744.00,0.0089
743.00,0.0091
742.00,0.0093
741.00,0.0096
740.00,0.0099
739.00,0.0103
738.00,0.0106
737.00,0.0111
736.00,0.0116
735.00,0.0122
734.00,0.0129
733.00,0.0136
732.00,0.0143
731.00,0.0149
730.00,0.0155
729.00,0.0158
728.00,0.0158
727.00,0.0158
726.00,0.0158
725.00,0.0161
724.00,0.0167
723.00,0.0175
722.00,0.0183
721.00,0.0188
720.00,0.0188
719.00,0.0181
718.00,0.0169
717.00,0.0155
716.00,0.0142
715.00,0.0131
714.00,0.0123
713.00,0.0118
712.00,0.0115
711.00,0.0114
710.00,0.0113
709.00,0.0112
708.00,0.0111
707.00,0.0109
706.00,0.0107
705.00,0.0105
704.00,0.0103
703.00,0.0102
702.00,0.0102
701.00,0.0102
700.00,0.0102
699.00,0.0101
698.00,0.0100
697.00,0.0101
696.00,0.0102
695.00,0.0103
694.00,0.0102
693.00,0.0100
692.00,0.0099
691.00,0.0100
690.00,0.0101
689.00,0.0103
688.00,0.0104
687.00,0.0104
686.00,0.0103
685.00,0.0102
684.00,0.0101
683.00,0.0102
682.00,0.0103
681.00,0.0103
680.00,0.0103
679.00,0.0102
678.00,0.0101
677.00,0.0101
676.00,0.0101
675.00,0.0102
674.00,0.0105
673.00,0.0109
672.00,0.0112
671.00,0.0115
670.00,0.0117
669.00,0.0117
668.00,0.0116
667.00,0.0112
666.00,0.0108
665.00,0.0105
664.00,0.0102
663.00,0.0099
662.00,0.0096
661.00,0.0093
660.00,0.0092
659.00,0.0091
658.00,0.0092
657.00,0.0093
656.00,0.0095
655.00,0.0096
654.00,0.0096
653.00,0.0094
652.00,0.0092
651.00,0.0092
650.00,0.0092
649.00,0.0091
648.00,0.0089
647.00,0.0086
646.00,0.0086
645.00,0.0087
644.00,0.0089
643.00,0.0091
642.00,0.0091
641.00,0.0090
640.00,0.0088
639.00,0.0088
638.00,0.0089
637.00,0.0090
636.00,0.0090
635.00,0.0089
634.00,0.0086
633.00,0.0086
632.00,0.0088
631.00,0.0090
630.00,0.0092
629.00,0.0091
628.00,0.0089
627.00,0.0087
626.00,0.0085
625.00,0.0085
624.00,0.0086
623.00,0.0087
622.00,0.0088
621.00,0.0087
620.00,0.0087
619.00,0.0088
618.00,0.0089
617.00,0.0089
616.00,0.0087
615.00,0.0085
614.00,0.0085
613.00,0.0085
612.00,0.0085
611.00,0.0084
610.00,0.0083
609.00,0.0083
608.00,0.0083
607.00,0.0084
606.00,0.0084
605.00,0.0084
604.00,0.0083
603.00,0.0083
602.00,0.0083
601.00,0.0083
600.00,0.0084
599.00,0.0085
598.00,0.0085
597.00,0.0086
596.00,0.0086
595.00,0.0087
594.00,0.0088
593.00,0.0089
592.00,0.0088
591.00,0.0088
590.00,0.0088
589.00,0.0088
588.00,0.0088
587.00,0.0087
586.00,0.0084
585.00,0.0082
584.00,0.0083
583.00,0.0086
582.00,0.0088
581.00,0.0088
580.00,0.0087
579.00,0.0086
578.00,0.0086
577.00,0.0086
576.00,0.0086
575.00,0.0086
574.00,0.0084
573.00,0.0082
572.00,0.0081
571.00,0.0082
570.00,0.0084
569.00,0.0085
568.00,0.0085
567.00,0.0086
566.00,0.0087
565.00,0.0088
564.00,0.0089
563.00,0.0089
562.00,0.0088
561.00,0.0088
560.00,0.0086
559.00,0.0084
558.00,0.0081
557.00,0.0079
556.00,0.0079
555.00,0.0081
554.00,0.0085
553.00,0.0087
552.00,0.0088
551.00,0.0089
550.00,0.0091
549.00,0.0094
548.00,0.0096
547.00,0.0097
546.00,0.0098
545.00,0.0099
544.00,0.0100
543.00,0.0101
542.00,0.0104
541.00,0.0108
540.00,0.0113
539.00,0.0115
538.00,0.0114
537.00,0.0112
536.00,0.0111
535.00,0.0113
534.00,0.0117
533.00,0.0120
532.00,0.0120
531.00,0.0118
530.00,0.0117
529.00,0.0119
528.00,0.0122
527.00,0.0122
526.00,0.0118
525.00,0.0112
524.00,0.0106
523.00,0.0103
522.00,0.0101
521.00,0.0100
520.00,0.0097
519.00,0.0094
518.00,0.0090
517.00,0.0086
516.00,0.0085
515.00,0.0085
514.00,0.0085
513.00,0.0084
512.00,0.0085
511.00,0.0089
510.00,0.0095
509.00,0.0096
508.00,0.0091
507.00,0.0082
506.00,0.0076
505.00,0.0077
504.00,0.0085
503.00,0.0095
502.00,0.0103
501.00,0.0104
500.00,0.0096
499.00,0.0085
498.00,0.0078
497.00,0.0079
496.00,0.0086
495.00,0.0094
494.00,0.0099
493.00,0.0100
492.00,0.0096
491.00,0.0089
490.00,0.0085
489.00,0.0086
488.00,0.0091
487.00,0.0092
486.00,0.0087
485.00,0.0079
484.00,0.0078
483.00,0.0084
482.00,0.0092
481.00,0.0092
480.00,0.0085
479.00,0.0082
478.00,0.0090
477.00,0.0107
476.00,0.0123
475.00,0.0132
474.00,0.0135
473.00,0.0141
472.00,0.0153
471.00,0.0165
470.00,0.0166
469.00,0.0159
468.00,0.0151
467.00,0.0152
466.00,0.0164
465.00,0.0178
464.00,0.0185
463.00,0.0185
462.00,0.0182
461.00,0.0181
460.00,0.0185
459.00,0.0191
458.00,0.0195
457.00,0.0194
456.00,0.0185
455.00,0.0181
454.00,0.0181
453.00,0.0183
452.00,0.0182
451.00,0.0176
450.00,0.0170
