Created as New Dataset,Sample 016 By Administrator Date Thursday, September 04 2025
cm-1,A
4000.00,0.0010
3999.00,0.0010
3998.00,0.0010
3997.00,0.0010
3996.00,0.0010
3995.00,0.0010
3994.00,0.0010
3993.00,0.0010
3992.00,0.0010
3991.00,0.0010
3990.00,0.0010
3989.00,0.0010
3988.00,0.0010
3987.00,0.0010
3986.00,0.0010
3985.00,0.0010
3984.00,0.0010
3983.00,0.0010
3982.00,0.0010
3981.00,0.0009
3980.00,0.0009
3979.00,0.0009
3978.00,0.0008
3977.00,0.0008
3976.00,0.0007
3975.00,0.0007
3974.00,0.0007
3973.00,0.0007
3972.00,0.0008
3971.00,0.0008
3970.00,0.0008
3969.00,0.0009
3968.00,0.0009
3967.00,0.0009
3966.00,0.0009
3965.00,0.0009
3964.00,0.0009
3963.00,0.0008
3962.00,0.0008
3961.00,0.0008
3960.00,0.0008
3959.00,0.0007
3958.00,0.0007
3957.00,0.0007
3956.00,0.0008
3955.00,0.0008
3954.00,0.0008
3953.00,0.0008
3952.00,0.0008
3951.00,0.0008
3950.00,0.0008
3949.00,0.0009
3948.00,0.0008
3947.00,0.0008
3946.00,0.0007
3945.00,0.0007
3944.00,0.0007
3943.00,0.0007
3942.00,0.0008
3941.00,0.0008
3940.00,0.0008
3939.00,0.0008
3938.00,0.0009
3937.00,0.0009
3936.00,0.0009
3935.00,0.0009
3934.00,0.0009
3933.00,0.0009
3932.00,0.0008
3931.00,0.0008
3930.00,0.0008
3929.00,0.0008
3928.00,0.0007
3927.00,0.0007
3926.00,0.0008
3925.00,0.0008
3924.00,0.0009
3923.00,0.0009
3922.00,0.0009
3921.00,0.0009
3920.00,0.0009
3919.00,0.0009
3918.00,0.0009
3917.00,0.0009
3916.00,0.0009
3915.00,0.0009
3914.00,0.0009
3913.00,0.0009
3912.00,0.0009
3911.00,0.0009
3910.00,0.0009
3909.00,0.0009
3908.00,0.0008
3907.00,0.0008
3906.00,0.0008
3905.00,0.0008
3904.00,0.0008
3903.00,0.0008
3902.00,0.0007
3901.00,0.0007
3900.00,0.0007
3899.00,0.0007
3898.00,0.0007
3897.00,0.0007
3896.00,0.0008
3895.00,0.0008
3894.00,0.0008
3893.00,0.0008
3892.00,0.0008
3891.00,0.0008
3890.00,0.0008
3889.00,0.0008
3888.00,0.0007
3887.00,0.0007
3886.00,0.0007
3885.00,0.0007
3884.00,0.0006
3883.00,0.0006
3882.00,0.0005
3881.00,0.0006
3880.00,0.0007
3879.00,0.0008
3878.00,0.0007
3877.00,0.0007
3876.00,0.0007
3875.00,0.0007
3874.00,0.0007
3873.00,0.0007
3872.00,0.0006
3871.00,0.0007
3870.00,0.0008
3869.00,0.0008
3868.00,0.0007
3867.00,0.0006
3866.00,0.0006
3865.00,0.0006
3864.00,0.0006
3863.00,0.0007
3862.00,0.0007
3861.00,0.0007
3860.00,0.0008
3859.00,0.0008
3858.00,0.0009
3857.00,0.0009
3856.00,0.0009
3855.00,0.0009
3854.00,0.0008
3853.00,0.0008
3852.00,0.0007
3851.00,0.0006
3850.00,0.0006
3849.00,0.0006
3848.00,0.0007
3847.00,0.0007
3846.00,0.0007
3845.00,0.0007
3844.00,0.0008
3843.00,0.0008
3842.00,0.0008
3841.00,0.0008
3840.00,0.0008
3839.00,0.0007
3838.00,0.0007
3837.00,0.0007
3836.00,0.0006
3835.00,0.0006
3834.00,0.0007
3833.00,0.0007
3832.00,0.0008
3831.00,0.0008
3830.00,0.0008
3829.00,0.0007
3828.00,0.0007
3827.00,0.0007
3826.00,0.0008
3825.00,0.0008
3824.00,0.0007
3823.00,0.0007
3822.00,0.0008
3821.00,0.0009
3820.00,0.0009
3819.00,0.0008
3818.00,0.0008
3817.00,0.0008
3816.00,0.0008
3815.00,0.0008
3814.00,0.0008
3813.00,0.0008
3812.00,0.0008
3811.00,0.0008
3810.00,0.0008
3809.00,0.0008
3808.00,0.0009
3807.00,0.0009
3806.00,0.0009
3805.00,0.0009
3804.00,0.0008
3803.00,0.0007
3802.00,0.0007
3801.00,0.0007
3800.00,0.0006
3799.00,0.0006
3798.00,0.0006
3797.00,0.0006
3796.00,0.0007
3795.00,0.0007
3794.00,0.0007
3793.00,0.0007
3792.00,0.0007
3791.00,0.0007
3790.00,0.0008
3789.00,0.0008
3788.00,0.0008
3787.00,0.0008
3786.00,0.0008
3785.00,0.0008
3784.00,0.0008
3783.00,0.0007
3782.00,0.0006
3781.00,0.0006
3780.00,0.0006
3779.00,0.0007
3778.00,0.0008
3777.00,0.0008
3776.00,0.0008
3775.00,0.0008
3774.00,0.0009
3773.00,0.0008
3772.00,0.0008
3771.00,0.0008
3770.00,0.0008
3769.00,0.0008
3768.00,0.0008
3767.00,0.0008
3766.00,0.0008
3765.00,0.0008
3764.00,0.0008
3763.00,0.0007
3762.00,0.0007
3761.00,0.0008
3760.00,0.0008
3759.00,0.0008
3758.00,0.0008
3757.00,0.0009
3756.00,0.0009
3755.00,0.0009
3754.00,0.0009
3753.00,0.0010
3752.00,0.0010
3751.00,0.0010
3750.00,0.0010
3749.00,0.0010
3748.00,0.0010
3747.00,0.0009
3746.00,0.0009
3745.00,0.0009
3744.00,0.0008
3743.00,0.0007
3742.00,0.0007
3741.00,0.0007
3740.00,0.0007
3739.00,0.0007
3738.00,0.0007
3737.00,0.0007
3736.00,0.0007
3735.00,0.0007
3734.00,0.0007
3733.00,0.0007
3732.00,0.0007
3731.00,0.0007
3730.00,0.0006
3729.00,0.0006
3728.00,0.0006
3727.00,0.0006
3726.00,0.0006
3725.00,0.0005
3724.00,0.0005
3723.00,0.0005
3722.00,0.0006
3721.00,0.0006
3720.00,0.0006
3719.00,0.0006
3718.00,0.0006
3717.00,0.0007
3716.00,0.0007
3715.00,0.0007
3714.00,0.0007
3713.00,0.0007
3712.00,0.0007
3711.00,0.0007
3710.00,0.0006
3709.00,0.0005
3708.00,0.0005
3707.00,0.0004
3706.00,0.0004
3705.00,0.0004
3704.00,0.0005
3703.00,0.0005
3702.00,0.0005
3701.00,0.0005
3700.00,0.0005
3699.00,0.0004
3698.00,0.0004
3697.00,0.0004
3696.00,0.0005
3695.00,0.0005
3694.00,0.0006
3693.00,0.0006
3692.00,0.0006
3691.00,0.0006
3690.00,0.0006
3689.00,0.0006
3688.00,0.0006
3687.00,0.0005
3686.00,0.0005
3685.00,0.0005
3684.00,0.0005
3683.00,0.0006
3682.00,0.0006
3681.00,0.0007
3680.00,0.0008
3679.00,0.0008
3678.00,0.0008
3677.00,0.0008
3676.00,0.0008
3675.00,0.0008
3674.00,0.0007
3673.00,0.0006
3672.00,0.0005
3671.00,0.0005
3670.00,0.0005
3669.00,0.0005
3668.00,0.0005
3667.00,0.0005
3666.00,0.0005
3665.00,0.0005
3664.00,0.0004
3663.00,0.0004
3662.00,0.0004
3661.00,0.0005
3660.00,0.0005
3659.00,0.0005
3658.00,0.0005
3657.00,0.0006
3656.00,0.0006
3655.00,0.0007
3654.00,0.0006
3653.00,0.0006
3652.00,0.0005
3651.00,0.0005
3650.00,0.0005
3649.00,0.0005
3648.00,0.0004
3647.00,0.0004
3646.00,0.0004
3645.00,0.0005
3644.00,0.0005
3643.00,0.0005
3642.00,0.0005
3641.00,0.0005
3640.00,0.0005
3639.00,0.0005
3638.00,0.0005
3637.00,0.0005
3636.00,0.0006
3635.00,0.0006
3634.00,0.0006
3633.00,0.0006
3632.00,0.0006
3631.00,0.0005
3630.00,0.0004
3629.00,0.0005
3628.00,0.0005
3627.00,0.0005
3626.00,0.0005
3625.00,0.0005
3624.00,0.0005
3623.00,0.0004
3622.00,0.0004
3621.00,0.0004
3620.00,0.0004
3619.00,0.0005
3618.00,0.0005
3617.00,0.0005
3616.00,0.0005
3615.00,0.0006
3614.00,0.0006
3613.00,0.0006
3612.00,0.0006
3611.00,0.0005
3610.00,0.0005
3609.00,0.0005
3608.00,0.0005
3607.00,0.0005
3606.00,0.0005
3605.00,0.0005
3604.00,0.0005
3603.00,0.0005
3602.00,0.0005
3601.00,0.0005
3600.00,0.0005
3599.00,0.0005
3598.00,0.0005
3597.00,0.0006
3596.00,0.0006
3595.00,0.0006
3594.00,0.0007
3593.00,0.0007
3592.00,0.0007
3591.00,0.0006
3590.00,0.0006
3589.00,0.0006
3588.00,0.0006
3587.00,0.0006
3586.00,0.0006
3585.00,0.0006
3584.00,0.0006
3583.00,0.0006
3582.00,0.0007
3581.00,0.0007
3580.00,0.0007
3579.00,0.0007
3578.00,0.0007
3577.00,0.0007
3576.00,0.0007
3575.00,0.0007
3574.00,0.0007
3573.00,0.0008
3572.00,0.0008
3571.00,0.0007
3570.00,0.0007
3569.00,0.0006
3568.00,0.0006
3567.00,0.0006
3566.00,0.0007
3565.00,0.0007
3564.00,0.0008
3563.00,0.0008
3562.00,0.0008
3561.00,0.0008
3560.00,0.0008
3559.00,0.0008
3558.00,0.0008
3557.00,0.0008
3556.00,0.0008
3555.00,0.0009
3554.00,0.0009
3553.00,0.0009
3552.00,0.0009
3551.00,0.0009
3550.00,0.0009
3549.00,0.0009
3548.00,0.0009
3547.00,0.0009
3546.00,0.0009
3545.00,0.0009
3544.00,0.0010
3543.00,0.0010
3542.00,0.0011
3541.00,0.0011
3540.00,0.0011
3539.00,0.0011
3538.00,0.0011
3537.00,0.0011
3536.00,0.0011
3535.00,0.0012
3534.00,0.0012
3533.00,0.0012
3532.00,0.0012
3531.00,0.0011
3530.00,0.0011
3529.00,0.0011
3528.00,0.0011
3527.00,0.0012
3526.00,0.0012
3525.00,0.0012
3524.00,0.0012
3523.00,0.0013
3522.00,0.0013
3521.00,0.0013
3520.00,0.0013
3519.00,0.0013
3518.00,0.0013
3517.00,0.0013
3516.00,0.0013
3515.00,0.0013
3514.00,0.0013
3513.00,0.0014
3512.00,0.0014
3511.00,0.0014
3510.00,0.0015
3509.00,0.0015
3508.00,0.0015
3507.00,0.0015
3506.00,0.0014
3505.00,0.0014
3504.00,0.0014
3503.00,0.0014
3502.00,0.0015
3501.00,0.0015
3500.00,0.0015
3499.00,0.0015
3498.00,0.0016
3497.00,0.0016
3496.00,0.0016
3495.00,0.0016
3494.00,0.0016
3493.00,0.0016
3492.00,0.0016
3491.00,0.0016
3490.00,0.0016
3489.00,0.0016
3488.00,0.0016
3487.00,0.0016
3486.00,0.0016
3485.00,0.0016
3484.00,0.0016
3483.00,0.0017
3482.00,0.0017
3481.00,0.0018
3480.00,0.0018
3479.00,0.0018
3478.00,0.0018
3477.00,0.0018
3476.00,0.0019
3475.00,0.0019
3474.00,0.0019
3473.00,0.0019
3472.00,0.0019
3471.00,0.0019
3470.00,0.0018
3469.00,0.0018
3468.00,0.0018
3467.00,0.0019
3466.00,0.0019
3465.00,0.0020
3464.00,0.0020
3463.00,0.0020
3462.00,0.0020
3461.00,0.0019
3460.00,0.0019
3459.00,0.0019
3458.00,0.0019
3457.00,0.0020
3456.00,0.0020
3455.00,0.0021
3454.00,0.0021
3453.00,0.0021
3452.00,0.0022
3451.00,0.0022
3450.00,0.0021
3449.00,0.0021
3448.00,0.0022
3447.00,0.0022
3446.00,0.0022
3445.00,0.0022
3444.00,0.0022
3443.00,0.0022
3442.00,0.0023
3441.00,0.0023
3440.00,0.0023
3439.00,0.0023
3438.00,0.0023
3437.00,0.0023
3436.00,0.0023
3435.00,0.0023
3434.00,0.0023
3433.00,0.0023
3432.00,0.0024
3431.00,0.0024
3430.00,0.0025
3429.00,0.0025
3428.00,0.0025
3427.00,0.0025
3426.00,0.0025
3425.00,0.0025
3424.00,0.0025
3423.00,0.0025
3422.00,0.0025
3421.00,0.0026
3420.00,0.0026
3419.00,0.0026
3418.00,0.0027
3417.00,0.0027
3416.00,0.0027
3415.00,0.0026
3414.00,0.0026
3413.00,0.0026
3412.00,0.0026
3411.00,0.0026
3410.00,0.0026
3409.00,0.0026
3408.00,0.0026
3407.00,0.0026
3406.00,0.0026
3405.00,0.0027
3404.00,0.0027
3403.00,0.0028
3402.00,0.0028
3401.00,0.0028
3400.00,0.0027
3399.00,0.0027
3398.00,0.0027
3397.00,0.0027
3396.00,0.0027
3395.00,0.0027
3394.00,0.0027
3393.00,0.0027
3392.00,0.0027
3391.00,0.0027
3390.00,0.0027
3389.00,0.0027
3388.00,0.0027
3387.00,0.0027
3386.00,0.0028
3385.00,0.0028
3384.00,0.0028
3383.00,0.0028
3382.00,0.0028
3381.00,0.0028
3380.00,0.0028
3379.00,0.0028
3378.00,0.0028
3377.00,0.0028
3376.00,0.0028
3375.00,0.0028
3374.00,0.0028
3373.00,0.0028
3372.00,0.0028
3371.00,0.0028
3370.00,0.0028
3369.00,0.0028
3368.00,0.0028
3367.00,0.0028
3366.00,0.0029
3365.00,0.0029
3364.00,0.0029
3363.00,0.0029
3362.00,0.0028
3361.00,0.0028
3360.00,0.0028
3359.00,0.0029
3358.00,0.0029
3357.00,0.0029
3356.00,0.0029
3355.00,0.0029
3354.00,0.0029
3353.00,0.0029
3352.00,0.0029
3351.00,0.0030
3350.00,0.0030
3349.00,0.0030
3348.00,0.0030
3347.00,0.0030
3346.00,0.0030
3345.00,0.0030
3344.00,0.0030
3343.00,0.0030
3342.00,0.0029
3341.00,0.0029
3340.00,0.0029
3339.00,0.0030
3338.00,0.0030
3337.00,0.0030
3336.00,0.0030
3335.00,0.0029
3334.00,0.0029
3333.00,0.0029
3332.00,0.0029
3331.00,0.0029
3330.00,0.0029
3329.00,0.0029
3328.00,0.0029
3327.00,0.0029
3326.00,0.0029
3325.00,0.0028
3324.00,0.0028
3323.00,0.0028
3322.00,0.0028
3321.00,0.0029
3320.00,0.0029
3319.00,0.0029
3318.00,0.0029
3317.00,0.0029
3316.00,0.0029
3315.00,0.0029
3314.00,0.0030
3313.00,0.0030
3312.00,0.0030
3311.00,0.0031
3310.00,0.0031
3309.00,0.0031
3308.00,0.0031
3307.00,0.0031
3306.00,0.0031
3305.00,0.0032
3304.00,0.0032
3303.00,0.0032
3302.00,0.0032
3301.00,0.0032
3300.00,0.0032
3299.00,0.0032
3298.00,0.0031
3297.00,0.0031
3296.00,0.0031
3295.00,0.0030
3294.00,0.0030
3293.00,0.0030
3292.00,0.0029
3291.00,0.0029
3290.00,0.0029
3289.00,0.0028
3288.00,0.0028
3287.00,0.0028
3286.00,0.0028
3285.00,0.0028
3284.00,0.0028
3283.00,0.0028
3282.00,0.0028
3281.00,0.0028
3280.00,0.0028
3279.00,0.0028
3278.00,0.0028
3277.00,0.0028
3276.00,0.0027
3275.00,0.0027
3274.00,0.0027
3273.00,0.0027
3272.00,0.0027
3271.00,0.0027
3270.00,0.0027
3269.00,0.0027
3268.00,0.0027
3267.00,0.0026
3266.00,0.0026
3265.00,0.0026
3264.00,0.0026
3263.00,0.0026
3262.00,0.0026
3261.00,0.0026
3260.00,0.0026
3259.00,0.0026
3258.00,0.0026
3257.00,0.0026
3256.00,0.0026
3255.00,0.0025
3254.00,0.0025
3253.00,0.0025
3252.00,0.0025
3251.00,0.0026
3250.00,0.0026
3249.00,0.0025
3248.00,0.0025
3247.00,0.0025
3246.00,0.0024
3245.00,0.0025
3244.00,0.0025
3243.00,0.0025
3242.00,0.0025
3241.00,0.0025
3240.00,0.0026
3239.00,0.0026
3238.00,0.0026
3237.00,0.0027
3236.00,0.0027
3235.00,0.0027
3234.00,0.0027
3233.00,0.0026
3232.00,0.0026
3231.00,0.0026
3230.00,0.0026
3229.00,0.0026
3228.00,0.0026
3227.00,0.0026
3226.00,0.0027
3225.00,0.0027
3224.00,0.0028
3223.00,0.0028
3222.00,0.0028
3221.00,0.0028
3220.00,0.0028
3219.00,0.0027
3218.00,0.0028
3217.00,0.0028
3216.00,0.0028
3215.00,0.0029
3214.00,0.0029
3213.00,0.0029
3212.00,0.0029
3211.00,0.0030
3210.00,0.0030
3209.00,0.0031
3208.00,0.0031
3207.00,0.0031
3206.00,0.0031
3205.00,0.0031
3204.00,0.0031
3203.00,0.0031
3202.00,0.0031
3201.00,0.0031
3200.00,0.0031
3199.00,0.0031
3198.00,0.0032
3197.00,0.0032
3196.00,0.0031
3195.00,0.0031
3194.00,0.0031
3193.00,0.0032
3192.00,0.0032
3191.00,0.0031
3190.00,0.0031
3189.00,0.0031
3188.00,0.0030
3187.00,0.0030
3186.00,0.0030
3185.00,0.0030
3184.00,0.0030
3183.00,0.0030
3182.00,0.0030
3181.00,0.0029
3180.00,0.0029
3179.00,0.0029
3178.00,0.0029
3177.00,0.0029
3176.00,0.0029
3175.00,0.0029
3174.00,0.0029
3173.00,0.0029
3172.00,0.0029
3171.00,0.0029
3170.00,0.0029
3169.00,0.0029
3168.00,0.0028
3167.00,0.0028
3166.00,0.0029
3165.00,0.0029
3164.00,0.0029
3163.00,0.0029
3162.00,0.0028
3161.00,0.0028
3160.00,0.0027
3159.00,0.0027
3158.00,0.0027
3157.00,0.0027
3156.00,0.0028
3155.00,0.0028
3154.00,0.0029
3153.00,0.0029
3152.00,0.0029
3151.00,0.0029
3150.00,0.0028
3149.00,0.0028
3148.00,0.0028
3147.00,0.0028
3146.00,0.0028
3145.00,0.0028
3144.00,0.0028
3143.00,0.0028
3142.00,0.0028
3141.00,0.0028
3140.00,0.0028
3139.00,0.0028
3138.00,0.0028
3137.00,0.0028
3136.00,0.0028
3135.00,0.0028
3134.00,0.0027
3133.00,0.0027
3132.00,0.0027
3131.00,0.0026
3130.00,0.0026
3129.00,0.0026
3128.00,0.0026
3127.00,0.0026
3126.00,0.0026
3125.00,0.0026
3124.00,0.0025
3123.00,0.0025
3122.00,0.0025
3121.00,0.0025
3120.00,0.0025
3119.00,0.0025
3118.00,0.0025
3117.00,0.0025
3116.00,0.0025
3115.00,0.0025
3114.00,0.0024
3113.00,0.0024
3112.00,0.0023
3111.00,0.0023
3110.00,0.0023
3109.00,0.0023
3108.00,0.0023
3107.00,0.0024
3106.00,0.0024
3105.00,0.0024
3104.00,0.0023
3103.00,0.0023
3102.00,0.0023
3101.00,0.0023
3100.00,0.0023
3099.00,0.0023
3098.00,0.0023
3097.00,0.0023
3096.00,0.0023
3095.00,0.0023
3094.00,0.0023
3093.00,0.0023
3092.00,0.0023
3091.00,0.0024
3090.00,0.0024
3089.00,0.0023
3088.00,0.0023
3087.00,0.0023
3086.00,0.0023
3085.00,0.0023
3084.00,0.0023
3083.00,0.0023
3082.00,0.0024
3081.00,0.0024
3080.00,0.0024
3079.00,0.0024
3078.00,0.0024
3077.00,0.0024
3076.00,0.0024
3075.00,0.0024
3074.00,0.0024
3073.00,0.0025
3072.00,0.0025
3071.00,0.0024
3070.00,0.0024
3069.00,0.0024
3068.00,0.0024
3067.00,0.0024
3066.00,0.0025
3065.00,0.0025
3064.00,0.0025
3063.00,0.0025
3062.00,0.0025
3061.00,0.0026
3060.00,0.0026
3059.00,0.0026
3058.00,0.0026
3057.00,0.0026
3056.00,0.0026
3055.00,0.0027
3054.00,0.0027
3053.00,0.0027
3052.00,0.0027
3051.00,0.0027
3050.00,0.0027
3049.00,0.0027
3048.00,0.0027
3047.00,0.0027
3046.00,0.0027
3045.00,0.0027
3044.00,0.0028
3043.00,0.0028
3042.00,0.0028
3041.00,0.0029
3040.00,0.0029
3039.00,0.0030
3038.00,0.0030
3037.00,0.0031
3036.00,0.0031
3035.00,0.0031
3034.00,0.0032
3033.00,0.0032
3032.00,0.0032
3031.00,0.0033
3030.00,0.0033
3029.00,0.0033
3028.00,0.0033
3027.00,0.0033
3026.00,0.0034
3025.00,0.0035
3024.00,0.0036
3023.00,0.0037
3022.00,0.0039
3021.00,0.0040
3020.00,0.0040
3019.00,0.0041
3018.00,0.0042
3017.00,0.0043
3016.00,0.0044
3015.00,0.0045
3014.00,0.0046
3013.00,0.0047
3012.00,0.0048
3011.00,0.0049
3010.00,0.0051
3009.00,0.0052
3008.00,0.0054
3007.00,0.0056
3006.00,0.0057
3005.00,0.0059
3004.00,0.0061
3003.00,0.0063
3002.00,0.0065
3001.00,0.0068
3000.00,0.0070
2999.00,0.0073
2998.00,0.0077
2997.00,0.0080
2996.00,0.0084
2995.00,0.0088
2994.00,0.0093
2993.00,0.0097
2992.00,0.0103
2991.00,0.0108
2990.00,0.0115
2989.00,0.0122
2988.00,0.0130
2987.00,0.0138
2986.00,0.0147
2985.00,0.0158
2984.00,0.0169
2983.00,0.0183
2982.00,0.0199
2981.00,0.0216
2980.00,0.0236
2979.00,0.0258
2978.00,0.0284
2977.00,0.0313
2976.00,0.0347
2975.00,0.0386
2974.00,0.0430
2973.00,0.0481
2972.00,0.0538
2971.00,0.0602
2970.00,0.0673
2969.00,0.0751
2968.00,0.0835
2967.00,0.0925
2966.00,0.1019
2965.00,0.1115
2964.00,0.1208
2963.00,0.1291
2962.00,0.1362
2961.00,0.1416
2960.00,0.1456
2959.00,0.1487
2958.00,0.1517
2957.00,0.1553
2956.00,0.1603
2955.00,0.1670
2954.00,0.1751
2953.00,0.1838
2952.00,0.1918
2951.00,0.1974
2950.00,0.1992
2949.00,0.1964
2948.00,0.1888
2947.00,0.1776
2946.00,0.1641
2945.00,0.1502
2944.00,0.1371
2943.00,0.1259
2942.00,0.1172
2941.00,0.1112
2940.00,0.1076
2939.00,0.1064
2938.00,0.1073
2937.00,0.1099
2936.00,0.1143
2935.00,0.1201
2934.00,0.1275
2933.00,0.1361
2932.00,0.1460
2931.00,0.1569
2930.00,0.1686
2929.00,0.1808
2928.00,0.1931
2927.00,0.2054
2926.00,0.2173
2925.00,0.2289
2924.00,0.2404
2923.00,0.2519
2922.00,0.2634
2921.00,0.2745
2920.00,0.2844
2919.00,0.2917
2918.00,0.2953
2917.00,0.2941
2916.00,0.2883
2915.00,0.2787
2914.00,0.2669
2913.00,0.2543
2912.00,0.2423
2911.00,0.2314
2910.00,0.2220
2909.00,0.2138
2908.00,0.2063
2907.00,0.1992
2906.00,0.1922
2905.00,0.1850
2904.00,0.1778
2903.00,0.1706
2902.00,0.1634
2901.00,0.1564
2900.00,0.1497
2899.00,0.1434
2898.00,0.1374
2897.00,0.1319
2896.00,0.1270
2895.00,0.1227
2894.00,0.1191
2893.00,0.1161
2892.00,0.1138
2891.00,0.1121
2890.00,0.1110
2889.00,0.1103
2888.00,0.1100
2887.00,0.1100
2886.00,0.1103
2885.00,0.1109
2884.00,0.1119
2883.00,0.1134
2882.00,0.1152
2881.00,0.1171
2880.00,0.1190
2879.00,0.1204
2878.00,0.1211
2877.00,0.1210
2876.00,0.1203
2875.00,0.1195
2874.00,0.1190
2873.00,0.1193
2872.00,0.1203
2871.00,0.1221
2870.00,0.1244
2869.00,0.1265
2868.00,0.1279
2867.00,0.1277
2866.00,0.1252
2865.00,0.1203
2864.00,0.1133
2863.00,0.1053
2862.00,0.0972
2861.00,0.0901
2860.00,0.0845
2859.00,0.0806
2858.00,0.0783
2857.00,0.0773
2856.00,0.0774
2855.00,0.0783
2854.00,0.0798
2853.00,0.0818
2852.00,0.0838
2851.00,0.0858
2850.00,0.0876
2849.00,0.0891
2848.00,0.0907
2847.00,0.0927
2846.00,0.0956
2845.00,0.0995
2844.00,0.1045
2843.00,0.1102
2842.00,0.1159
2841.00,0.1210
2840.00,0.1245
2839.00,0.1259
2838.00,0.1244
2837.00,0.1198
2836.00,0.1124
2835.00,0.1029
2834.00,0.0923
2833.00,0.0815
2832.00,0.0714
2831.00,0.0625
2830.00,0.0549
2829.00,0.0488
2828.00,0.0438
2827.00,0.0398
2826.00,0.0364
2825.00,0.0337
2824.00,0.0314
2823.00,0.0294
2822.00,0.0277
2821.00,0.0262
2820.00,0.0250
2819.00,0.0238
2818.00,0.0229
2817.00,0.0220
2816.00,0.0213
2815.00,0.0206
2814.00,0.0200
2813.00,0.0194
2812.00,0.0188
2811.00,0.0182
2810.00,0.0176
2809.00,0.0170
2808.00,0.0164
2807.00,0.0157
2806.00,0.0151
2805.00,0.0144
2804.00,0.0138
2803.00,0.0132
2802.00,0.0126
2801.00,0.0122
2800.00,0.0118
2799.00,0.0115
2798.00,0.0113
2797.00,0.0111
2796.00,0.0109
2795.00,0.0106
2794.00,0.0103
2793.00,0.0101
2792.00,0.0098
2791.00,0.0094
2790.00,0.0091
2789.00,0.0088
2788.00,0.0085
2787.00,0.0082
2786.00,0.0079
2785.00,0.0076
2784.00,0.0074
2783.00,0.0072
2782.00,0.0069
2781.00,0.0067
2780.00,0.0066
2779.00,0.0064
2778.00,0.0063
2777.00,0.0061
2776.00,0.0060
2775.00,0.0059
2774.00,0.0058
2773.00,0.0057
2772.00,0.0057
2771.00,0.0056
2770.00,0.0056
2769.00,0.0055
2768.00,0.0055
2767.00,0.0054
2766.00,0.0054
2765.00,0.0054
2764.00,0.0054
2763.00,0.0053
2762.00,0.0052
2761.00,0.0052
2760.00,0.0052
2759.00,0.0052
2758.00,0.0052
2757.00,0.0052
2756.00,0.0052
2755.00,0.0051
2754.00,0.0051
2753.00,0.0051
2752.00,0.0051
2751.00,0.0051
2750.00,0.0051
2749.00,0.0050
2748.00,0.0050
2747.00,0.0051
2746.00,0.0051
2745.00,0.0052
2744.00,0.0052
2743.00,0.0053
2742.00,0.0054
2741.00,0.0056
2740.00,0.0057
2739.00,0.0058
2738.00,0.0059
2737.00,0.0060
2736.00,0.0061
2735.00,0.0063
2734.00,0.0064
2733.00,0.0066
2732.00,0.0068
2731.00,0.0070
2730.00,0.0072
2729.00,0.0075
2728.00,0.0077
2727.00,0.0080
2726.00,0.0083
2725.00,0.0085
2724.00,0.0087
2723.00,0.0088
2722.00,0.0087
2721.00,0.0086
2720.00,0.0083
2719.00,0.0080
2718.00,0.0077
2717.00,0.0074
2716.00,0.0071
2715.00,0.0068
2714.00,0.0066
2713.00,0.0063
2712.00,0.0061
2711.00,0.0059
2710.00,0.0057
2709.00,0.0055
2708.00,0.0054
2707.00,0.0052
2706.00,0.0051
2705.00,0.0050
2704.00,0.0049
2703.00,0.0048
2702.00,0.0047
2701.00,0.0047
2700.00,0.0046
2699.00,0.0045
2698.00,0.0045
2697.00,0.0044
2696.00,0.0044
2695.00,0.0044
2694.00,0.0044
2693.00,0.0044
2692.00,0.0044
2691.00,0.0045
2690.00,0.0045
2689.00,0.0045
2688.00,0.0045
2687.00,0.0045
2686.00,0.0045
2685.00,0.0044
2684.00,0.0044
2683.00,0.0044
2682.00,0.0045
2681.00,0.0045
2680.00,0.0045
2679.00,0.0046
2678.00,0.0046
2677.00,0.0046
2676.00,0.0046
2675.00,0.0046
2674.00,0.0046
2673.00,0.0045
2672.00,0.0045
2671.00,0.0045
2670.00,0.0045
2669.00,0.0045
2668.00,0.0045
2667.00,0.0045
2666.00,0.0045
2665.00,0.0046
2664.00,0.0046
2663.00,0.0047
2662.00,0.0048
2661.00,0.0048
2660.00,0.0048
2659.00,0.0048
2658.00,0.0048
2657.00,0.0048
2656.00,0.0048
2655.00,0.0047
2654.00,0.0047
2653.00,0.0046
2652.00,0.0045
2651.00,0.0045
2650.00,0.0044
2649.00,0.0044
2648.00,0.0043
2647.00,0.0043
2646.00,0.0042
2645.00,0.0042
2644.00,0.0041
2643.00,0.0041
2642.00,0.0041
2641.00,0.0040
2640.00,0.0040
2639.00,0.0039
2638.00,0.0039
2637.00,0.0039
2636.00,0.0039
2635.00,0.0039
2634.00,0.0039
2633.00,0.0039
2632.00,0.0039
2631.00,0.0039
2630.00,0.0040
2629.00,0.0040
2628.00,0.0040
2627.00,0.0040
2626.00,0.0040
2625.00,0.0040
2624.00,0.0040
2623.00,0.0040
2622.00,0.0040
2621.00,0.0040
2620.00,0.0040
2619.00,0.0040
2618.00,0.0041
2617.00,0.0041
2616.00,0.0041
2615.00,0.0040
2614.00,0.0040
2613.00,0.0040
2612.00,0.0039
2611.00,0.0039
2610.00,0.0038
2609.00,0.0037
2608.00,0.0036
2607.00,0.0036
2606.00,0.0035
2605.00,0.0034
2604.00,0.0034
2603.00,0.0033
2602.00,0.0032
2601.00,0.0032
2600.00,0.0032
2599.00,0.0032
2598.00,0.0032
2597.00,0.0032
2596.00,0.0033
2595.00,0.0033
2594.00,0.0033
2593.00,0.0033
2592.00,0.0033
2591.00,0.0033
2590.00,0.0034
2589.00,0.0034
2588.00,0.0035
2587.00,0.0036
2586.00,0.0037
2585.00,0.0038
2584.00,0.0039
2583.00,0.0039
2582.00,0.0040
2581.00,0.0040
2580.00,0.0039
2579.00,0.0038
2578.00,0.0037
2577.00,0.0036
2576.00,0.0035
2575.00,0.0034
2574.00,0.0034
2573.00,0.0033
2572.00,0.0032
2571.00,0.0031
2570.00,0.0030
2569.00,0.0028
2568.00,0.0027
2567.00,0.0026
2566.00,0.0026
2565.00,0.0026
2564.00,0.0025
2563.00,0.0025
2562.00,0.0024
2561.00,0.0024
2560.00,0.0024
2559.00,0.0024
2558.00,0.0024
2557.00,0.0023
2556.00,0.0023
2555.00,0.0023
2554.00,0.0023
2553.00,0.0023
2552.00,0.0022
2551.00,0.0022
2550.00,0.0021
2549.00,0.0020
2548.00,0.0019
2547.00,0.0018
2546.00,0.0018
2545.00,0.0018
2544.00,0.0018
2543.00,0.0018
2542.00,0.0018
2541.00,0.0018
2540.00,0.0017
2539.00,0.0016
2538.00,0.0016
2537.00,0.0016
2536.00,0.0016
2535.00,0.0016
2534.00,0.0016
2533.00,0.0016
2532.00,0.0016
2531.00,0.0016
2530.00,0.0015
2529.00,0.0015
2528.00,0.0014
2527.00,0.0014
2526.00,0.0014
2525.00,0.0014
2524.00,0.0015
2523.00,0.0015
2522.00,0.0015
2521.00,0.0014
2520.00,0.0013
2519.00,0.0013
2518.00,0.0013
2517.00,0.0013
2516.00,0.0013
2515.00,0.0012
2514.00,0.0012
2513.00,0.0012
2512.00,0.0012
2511.00,0.0012
2510.00,0.0011
2509.00,0.0010
2508.00,0.0009
2507.00,0.0009
2506.00,0.0009
2505.00,0.0009
2504.00,0.0010
2503.00,0.0011
2502.00,0.0011
2501.00,0.0011
2500.00,0.0011
2499.00,0.0011
2498.00,0.0011
2497.00,0.0011
2496.00,0.0011
2495.00,0.0010
2494.00,0.0010
2493.00,0.0010
2492.00,0.0009
2491.00,0.0009
2490.00,0.0009
2489.00,0.0009
2488.00,0.0010
2487.00,0.0011
2486.00,0.0010
2485.00,0.0010
2484.00,0.0009
2483.00,0.0008
2482.00,0.0008
2481.00,0.0009
2480.00,0.0009
2479.00,0.0009
2478.00,0.0009
2477.00,0.0009
2476.00,0.0009
2475.00,0.0010
2474.00,0.0010
2473.00,0.0010
2472.00,0.0009
2471.00,0.0008
2470.00,0.0008
2469.00,0.0007
2468.00,0.0007
2467.00,0.0008
2466.00,0.0008
2465.00,0.0008
2464.00,0.0008
2463.00,0.0009
2462.00,0.0009
2461.00,0.0010
2460.00,0.0010
2459.00,0.0010
2458.00,0.0010
2457.00,0.0010
2456.00,0.0010
2455.00,0.0010
2454.00,0.0010
2453.00,0.0011
2452.00,0.0011
2451.00,0.0011
2450.00,0.0012
2449.00,0.0012
2448.00,0.0012
2447.00,0.0012
2446.00,0.0011
2445.00,0.0010
2444.00,0.0009
2443.00,0.0009
2442.00,0.0009
2441.00,0.0010
2440.00,0.0010
2439.00,0.0011
2438.00,0.0011
2437.00,0.0011
2436.00,0.0011
2435.00,0.0011
2434.00,0.0011
2433.00,0.0010
2432.00,0.0010
2431.00,0.0010
2430.00,0.0010
2429.00,0.0010
2428.00,0.0011
2427.00,0.0012
2426.00,0.0012
2425.00,0.0012
2424.00,0.0012
2423.00,0.0011
2422.00,0.0011
2421.00,0.0010
2420.00,0.0010
2419.00,0.0009
2418.00,0.0009
2417.00,0.0009
2416.00,0.0009
2415.00,0.0010
2414.00,0.0010
2413.00,0.0011
2412.00,0.0011
2411.00,0.0011
2410.00,0.0010
2409.00,0.0010
2408.00,0.0009
2407.00,0.0009
2406.00,0.0008
2405.00,0.0008
2404.00,0.0008
2403.00,0.0008
2402.00,0.0007
2401.00,0.0007
2400.00,0.0007
2399.00,0.0007
2398.00,0.0007
2397.00,0.0007
2396.00,0.0007
2395.00,0.0007
2394.00,0.0007
2393.00,0.0007
2392.00,0.0007
2391.00,0.0007
2390.00,0.0006
2389.00,0.0006
2388.00,0.0005
2387.00,0.0005
2386.00,0.0005
2385.00,0.0005
2384.00,0.0005
2383.00,0.0005
2382.00,0.0004
2381.00,0.0004
2380.00,0.0003
2379.00,0.0003
2378.00,0.0003
2377.00,0.0003
2376.00,0.0004
2375.00,0.0005
2374.00,0.0005
2373.00,0.0004
2372.00,0.0004
2371.00,0.0003
2370.00,0.0003
2369.00,0.0003
2368.00,0.0003
2367.00,0.0004
2366.00,0.0004
2365.00,0.0005
2364.00,0.0005
2363.00,0.0005
2362.00,0.0004
2361.00,0.0004
2360.00,0.0004
2359.00,0.0004
2358.00,0.0004
2357.00,0.0004
2356.00,0.0004
2355.00,0.0004
2354.00,0.0003
2353.00,0.0003
2352.00,0.0004
2351.00,0.0005
2350.00,0.0005
2349.00,0.0005
2348.00,0.0005
2347.00,0.0005
2346.00,0.0005
2345.00,0.0006
2344.00,0.0006
2343.00,0.0006
2342.00,0.0006
2341.00,0.0006
2340.00,0.0006
2339.00,0.0007
2338.00,0.0007
2337.00,0.0007
2336.00,0.0006
2335.00,0.0005
2334.00,0.0004
2333.00,0.0004
2332.00,0.0004
2331.00,0.0005
2330.00,0.0006
2329.00,0.0007
2328.00,0.0009
2327.00,0.0012
2326.00,0.0016
2325.00,0.0019
2324.00,0.0021
2323.00,0.0020
2322.00,0.0018
2321.00,0.0016
2320.00,0.0014
2319.00,0.0013
2318.00,0.0013
2317.00,0.0012
2316.00,0.0011
2315.00,0.0010
2314.00,0.0010
2313.00,0.0009
2312.00,0.0009
2311.00,0.0009
2310.00,0.0009
2309.00,0.0010
2308.00,0.0011
2307.00,0.0011
2306.00,0.0011
2305.00,0.0011
2304.00,0.0011
2303.00,0.0010
2302.00,0.0010
2301.00,0.0010
2300.00,0.0011
2299.00,0.0011
2298.00,0.0012
2297.00,0.0012
2296.00,0.0013
2295.00,0.0014
2294.00,0.0014
2293.00,0.0015
2292.00,0.0016
2291.00,0.0016
2290.00,0.0017
2289.00,0.0018
2288.00,0.0020
2287.00,0.0020
2286.00,0.0019
2285.00,0.0018
2284.00,0.0017
2283.00,0.0016
2282.00,0.0016
2281.00,0.0015
2280.00,0.0015
2279.00,0.0015
2278.00,0.0016
2277.00,0.0016
2276.00,0.0016
2275.00,0.0016
2274.00,0.0016
2273.00,0.0016
2272.00,0.0016
2271.00,0.0015
2270.00,0.0015
2269.00,0.0014
2268.00,0.0013
2267.00,0.0012
2266.00,0.0011
2265.00,0.0011
2264.00,0.0011
2263.00,0.0011
2262.00,0.0012
2261.00,0.0012
2260.00,0.0012
2259.00,0.0012
2258.00,0.0011
2257.00,0.0010
2256.00,0.0010
2255.00,0.0009
2254.00,0.0009
2253.00,0.0010
2252.00,0.0011
2251.00,0.0011
2250.00,0.0011
2249.00,0.0010
2248.00,0.0010
2247.00,0.0010
2246.00,0.0010
2245.00,0.0010
2244.00,0.0011
2243.00,0.0010
2242.00,0.0010
2241.00,0.0009
2240.00,0.0009
2239.00,0.0009
2238.00,0.0010
2237.00,0.0010
2236.00,0.0010
2235.00,0.0010
2234.00,0.0009
2233.00,0.0008
2232.00,0.0007
2231.00,0.0007
2230.00,0.0009
2229.00,0.0010
2228.00,0.0011
2227.00,0.0010
2226.00,0.0009
2225.00,0.0008
2224.00,0.0008
2223.00,0.0009
2222.00,0.0009
2221.00,0.0008
2220.00,0.0007
2219.00,0.0007
2218.00,0.0008
2217.00,0.0010
2216.00,0.0011
2215.00,0.0009
2214.00,0.0008
2213.00,0.0008
2212.00,0.0008
2211.00,0.0008
2210.00,0.0008
2209.00,0.0006
2208.00,0.0004
2207.00,0.0003
2206.00,0.0003
2205.00,0.0003
2204.00,0.0005
2203.00,0.0006
2202.00,0.0006
2201.00,0.0006
2200.00,0.0005
2199.00,0.0004
2198.00,0.0005
2197.00,0.0006
2196.00,0.0007
2195.00,0.0008
2194.00,0.0007
2193.00,0.0006
2192.00,0.0006
2191.00,0.0007
2190.00,0.0009
2189.00,0.0011
2188.00,0.0013
2187.00,0.0013
2186.00,0.0013
2185.00,0.0012
2184.00,0.0010
2183.00,0.0008
2182.00,0.0006
2181.00,0.0005
2180.00,0.0005
2179.00,0.0004
2178.00,0.0003
2177.00,0.0001
2176.00,0.0000
2175.00,0.0001
2174.00,0.0004
2173.00,0.0008
2172.00,0.0010
2171.00,0.0011
2170.00,0.0012
2169.00,0.0014
2168.00,0.0017
2167.00,0.0018
2166.00,0.0017
2165.00,0.0015
2164.00,0.0013
2163.00,0.0014
2162.00,0.0014
2161.00,0.0009
2160.00,-0.0001
2159.00,-0.0015
2158.00,-0.0028
2157.00,-0.0035
2156.00,-0.0035
2155.00,-0.0032
2154.00,-0.0029
2153.00,-0.0026
2152.00,-0.0023
2151.00,-0.0020
2150.00,-0.0018
2149.00,-0.0016
2148.00,-0.0015
2147.00,-0.0016
2146.00,-0.0016
2145.00,-0.0016
2144.00,-0.0014
2143.00,-0.0011
2142.00,-0.0010
2141.00,-0.0011
2140.00,-0.0012
2139.00,-0.0013
2138.00,-0.0013
2137.00,-0.0014
2136.00,-0.0016
2135.00,-0.0018
2134.00,-0.0019
2133.00,-0.0019
2132.00,-0.0017
2131.00,-0.0015
2130.00,-0.0013
2129.00,-0.0011
2128.00,-0.0010
2127.00,-0.0009
2126.00,-0.0009
2125.00,-0.0009
2124.00,-0.0008
2123.00,-0.0008
2122.00,-0.0007
2121.00,-0.0006
2120.00,-0.0005
2119.00,-0.0004
2118.00,-0.0002
2117.00,-0.0000
2116.00,0.0002
2115.00,0.0002
2114.00,0.0003
2113.00,0.0003
2112.00,0.0003
2111.00,0.0003
2110.00,0.0002
2109.00,0.0002
2108.00,0.0001
2107.00,0.0001
2106.00,0.0001
2105.00,0.0001
2104.00,0.0002
2103.00,0.0003
2102.00,0.0004
2101.00,0.0005
2100.00,0.0004
2099.00,0.0003
2098.00,0.0001
2097.00,-0.0001
2096.00,-0.0003
2095.00,-0.0005
2094.00,-0.0007
2093.00,-0.0008
2092.00,-0.0006
2091.00,-0.0004
2090.00,-0.0002
2089.00,-0.0002
2088.00,-0.0002
2087.00,-0.0002
2086.00,-0.0001
2085.00,-0.0001
2084.00,-0.0000
2083.00,-0.0001
2082.00,-0.0000
2081.00,0.0000
2080.00,0.0001
2079.00,0.0002
2078.00,0.0002
2077.00,0.0001
2076.00,0.0001
2075.00,0.0001
2074.00,0.0001
2073.00,0.0000
2072.00,0.0001
2071.00,0.0001
2070.00,0.0001
2069.00,0.0001
2068.00,0.0001
2067.00,0.0001
2066.00,-0.0000
2065.00,-0.0001
2064.00,-0.0001
2063.00,-0.0001
2062.00,0.0000
2061.00,0.0001
2060.00,0.0002
2059.00,0.0003
2058.00,0.0003
2057.00,0.0002
2056.00,-0.0000
2055.00,-0.0003
2054.00,-0.0003
2053.00,0.0000
2052.00,0.0006
2051.00,0.0011
2050.00,0.0013
2049.00,0.0012
2048.00,0.0008
2047.00,0.0004
2046.00,0.0000
2045.00,-0.0002
2044.00,-0.0004
2043.00,-0.0005
2042.00,-0.0006
2041.00,-0.0005
2040.00,-0.0004
2039.00,-0.0003
2038.00,-0.0002
2037.00,-0.0000
2036.00,-0.0001
2035.00,-0.0004
2034.00,-0.0008
2033.00,-0.0010
2032.00,-0.0010
2031.00,-0.0010
2030.00,-0.0012
2029.00,-0.0013
2028.00,-0.0014
2027.00,-0.0012
2026.00,-0.0011
2025.00,-0.0010
2024.00,-0.0010
2023.00,-0.0012
2022.00,-0.0014
2021.00,-0.0014
2020.00,-0.0013
2019.00,-0.0012
2018.00,-0.0011
2017.00,-0.0010
2016.00,-0.0008
2015.00,-0.0006
2014.00,-0.0006
2013.00,-0.0006
2012.00,-0.0005
2011.00,-0.0005
2010.00,-0.0006
2009.00,-0.0008
2008.00,-0.0010
2007.00,-0.0014
2006.00,-0.0016
2005.00,-0.0017
2004.00,-0.0016
2003.00,-0.0015
2002.00,-0.0014
2001.00,-0.0013
2000.00,-0.0013
1999.00,-0.0012
1998.00,-0.0013
1997.00,-0.0014
1996.00,-0.0015
1995.00,-0.0015
1994.00,-0.0013
1993.00,-0.0011
1992.00,-0.0009
1991.00,-0.0008
1990.00,-0.0008
1989.00,-0.0007
1988.00,-0.0006
1987.00,-0.0005
1986.00,-0.0002
1985.00,0.0001
1984.00,0.0004
1983.00,0.0006
1982.00,0.0009
1981.00,0.0011
1980.00,0.0011
1979.00,0.0007
1978.00,0.0001
1977.00,-0.0005
1976.00,-0.0010
1975.00,-0.0014
1974.00,-0.0017
1973.00,-0.0019
1972.00,-0.0020
1971.00,-0.0019
1970.00,-0.0018
1969.00,-0.0018
1968.00,-0.0018
1967.00,-0.0020
1966.00,-0.0021
1965.00,-0.0021
1964.00,-0.0022
1963.00,-0.0024
1962.00,-0.0025
1961.00,-0.0024
1960.00,-0.0024
1959.00,-0.0025
1958.00,-0.0026
1957.00,-0.0026
1956.00,-0.0025
1955.00,-0.0023
1954.00,-0.0022
1953.00,-0.0021
1952.00,-0.0019
1951.00,-0.0019
1950.00,-0.0018
1949.00,-0.0017
1948.00,-0.0015
1947.00,-0.0015
1946.00,-0.0015
1945.00,-0.0016
1944.00,-0.0017
1943.00,-0.0019
1942.00,-0.0018
1941.00,-0.0017
1940.00,-0.0015
1939.00,-0.0013
1938.00,-0.0012
1937.00,-0.0011
1936.00,-0.0011
1935.00,-0.0011
1934.00,-0.0010
1933.00,-0.0009
1932.00,-0.0007
1931.00,-0.0007
1930.00,-0.0007
1929.00,-0.0009
1928.00,-0.0009
1927.00,-0.0009
1926.00,-0.0009
1925.00,-0.0008
1924.00,-0.0007
1923.00,-0.0007
1922.00,-0.0006
1921.00,-0.0004
1920.00,-0.0004
1919.00,-0.0005
1918.00,-0.0007
1917.00,-0.0007
1916.00,-0.0006
1915.00,-0.0005
1914.00,-0.0005
1913.00,-0.0004
1912.00,-0.0004
1911.00,-0.0004
1910.00,-0.0004
1909.00,-0.0005
1908.00,-0.0006
1907.00,-0.0007
1906.00,-0.0008
1905.00,-0.0008
1904.00,-0.0007
1903.00,-0.0006
1902.00,-0.0005
1901.00,-0.0004
1900.00,-0.0003
1899.00,-0.0002
1898.00,-0.0001
1897.00,-0.0001
1896.00,-0.0001
1895.00,-0.0001
1894.00,-0.0001
1893.00,-0.0001
1892.00,-0.0001
1891.00,-0.0001
1890.00,-0.0001
1889.00,-0.0001
1888.00,-0.0001
1887.00,-0.0002
1886.00,-0.0003
1885.00,-0.0003
1884.00,-0.0003
1883.00,-0.0003
1882.00,-0.0003
1881.00,-0.0002
1880.00,-0.0002
1879.00,-0.0002
1878.00,-0.0002
1877.00,-0.0003
1876.00,-0.0003
1875.00,-0.0003
1874.00,-0.0002
1873.00,-0.0001
1872.00,-0.0000
1871.00,-0.0000
1870.00,-0.0000
1869.00,-0.0001
1868.00,-0.0001
1867.00,-0.0002
1866.00,-0.0002
1865.00,-0.0002
1864.00,-0.0001
1863.00,-0.0001
1862.00,-0.0001
1861.00,-0.0001
1860.00,-0.0001
1859.00,-0.0000
1858.00,-0.0000
1857.00,-0.0000
1856.00,-0.0001
1855.00,-0.0001
1854.00,-0.0001
1853.00,-0.0002
1852.00,-0.0001
1851.00,-0.0001
1850.00,-0.0001
1849.00,-0.0001
1848.00,-0.0000
1847.00,-0.0000
1846.00,-0.0000
1845.00,0.0000
1844.00,0.0000
1843.00,0.0000
1842.00,0.0000
1841.00,0.0001
1840.00,0.0001
1839.00,0.0001
1838.00,0.0001
1837.00,0.0001
1836.00,0.0001
1835.00,0.0001
1834.00,0.0002
1833.00,0.0002
1832.00,0.0002
1831.00,0.0003
1830.00,0.0003
1829.00,0.0002
1828.00,0.0002
1827.00,0.0002
1826.00,0.0003
1825.00,0.0003
1824.00,0.0003
1823.00,0.0003
1822.00,0.0003
1821.00,0.0003
1820.00,0.0003
1819.00,0.0002
1818.00,0.0002
1817.00,0.0001
1816.00,0.0001
1815.00,0.0000
1814.00,0.0000
1813.00,-0.0000
1812.00,0.0000
1811.00,0.0001
1810.00,0.0002
1809.00,0.0003
1808.00,0.0002
1807.00,0.0002
1806.00,0.0002
1805.00,0.0002
1804.00,0.0003
1803.00,0.0003
1802.00,0.0004
1801.00,0.0003
1800.00,0.0003
1799.00,0.0003
1798.00,0.0004
1797.00,0.0004
1796.00,0.0004
1795.00,0.0005
1794.00,0.0005
1793.00,0.0005
1792.00,0.0005
1791.00,0.0006
1790.00,0.0006
1789.00,0.0006
1788.00,0.0006
1787.00,0.0006
1786.00,0.0006
1785.00,0.0006
1784.00,0.0006
1783.00,0.0006
1782.00,0.0006
1781.00,0.0006
1780.00,0.0006
1779.00,0.0006
1778.00,0.0006
1777.00,0.0006
1776.00,0.0007
1775.00,0.0007
1774.00,0.0007
1773.00,0.0007
1772.00,0.0007
1771.00,0.0007
1770.00,0.0008
1769.00,0.0008
1768.00,0.0009
1767.00,0.0009
1766.00,0.0009
1765.00,0.0009
1764.00,0.0010
1763.00,0.0010
1762.00,0.0010
1761.00,0.0011
1760.00,0.0011
1759.00,0.0011
1758.00,0.0011
1757.00,0.0011
1756.00,0.0011
1755.00,0.0010
1754.00,0.0010
1753.00,0.0011
1752.00,0.0012
1751.00,0.0012
1750.00,0.0013
1749.00,0.0013
1748.00,0.0013
1747.00,0.0014
1746.00,0.0015
1745.00,0.0016
1744.00,0.0016
1743.00,0.0017
1742.00,0.0017
1741.00,0.0018
1740.00,0.0019
1739.00,0.0019
1738.00,0.0019
1737.00,0.0019
1736.00,0.0019
1735.00,0.0019
1734.00,0.0019
1733.00,0.0019
1732.00,0.0019
1731.00,0.0020
1730.00,0.0020
1729.00,0.0020
1728.00,0.0020
1727.00,0.0021
1726.00,0.0021
1725.00,0.0022
1724.00,0.0023
1723.00,0.0023
1722.00,0.0023
1721.00,0.0023
1720.00,0.0023
1719.00,0.0023
1718.00,0.0022
1717.00,0.0021
1716.00,0.0020
1715.00,0.0020
1714.00,0.0020
1713.00,0.0019
1712.00,0.0020
1711.00,0.0020
1710.00,0.0020
1709.00,0.0021
1708.00,0.0021
1707.00,0.0021
1706.00,0.0021
1705.00,0.0021
1704.00,0.0022
1703.00,0.0022
1702.00,0.0022
1701.00,0.0022
1700.00,0.0022
1699.00,0.0022
1698.00,0.0022
1697.00,0.0022
1696.00,0.0023
1695.00,0.0024
1694.00,0.0024
1693.00,0.0024
1692.00,0.0024
1691.00,0.0025
1690.00,0.0025
1689.00,0.0026
1688.00,0.0026
1687.00,0.0025
1686.00,0.0025
1685.00,0.0025
1684.00,0.0026
1683.00,0.0026
1682.00,0.0027
1681.00,0.0028
1680.00,0.0028
1679.00,0.0028
1678.00,0.0028
1677.00,0.0029
1676.00,0.0030
1675.00,0.0030
1674.00,0.0030
1673.00,0.0030
1672.00,0.0030
1671.00,0.0030
1670.00,0.0030
1669.00,0.0031
1668.00,0.0032
1667.00,0.0032
1666.00,0.0032
1665.00,0.0032
1664.00,0.0033
1663.00,0.0033
1662.00,0.0033
1661.00,0.0033
1660.00,0.0034
1659.00,0.0035
1658.00,0.0035
1657.00,0.0036
1656.00,0.0036
1655.00,0.0036
1654.00,0.0037
1653.00,0.0037
1652.00,0.0038
1651.00,0.0038
1650.00,0.0038
1649.00,0.0039
1648.00,0.0040
1647.00,0.0041
1646.00,0.0042
1645.00,0.0043
1644.00,0.0044
1643.00,0.0045
1642.00,0.0046
1641.00,0.0047
1640.00,0.0048
1639.00,0.0048
1638.00,0.0049
1637.00,0.0049
1636.00,0.0049
1635.00,0.0049
1634.00,0.0048
1633.00,0.0047
1632.00,0.0047
1631.00,0.0046
1630.00,0.0045
1629.00,0.0045
1628.00,0.0044
1627.00,0.0044
1626.00,0.0044
1625.00,0.0044
1624.00,0.0043
1623.00,0.0043
1622.00,0.0043
1621.00,0.0043
1620.00,0.0043
1619.00,0.0042
1618.00,0.0042
1617.00,0.0042
1616.00,0.0042
1615.00,0.0042
1614.00,0.0042
1613.00,0.0042
1612.00,0.0043
1611.00,0.0043
1610.00,0.0043
1609.00,0.0043
1608.00,0.0043
1607.00,0.0042
1606.00,0.0042
1605.00,0.0042
1604.00,0.0042
1603.00,0.0042
1602.00,0.0042
1601.00,0.0042
1600.00,0.0042
1599.00,0.0042
1598.00,0.0042
1597.00,0.0042
1596.00,0.0042
1595.00,0.0043
1594.00,0.0043
1593.00,0.0043
1592.00,0.0043
1591.00,0.0043
1590.00,0.0042
1589.00,0.0043
1588.00,0.0043
1587.00,0.0043
1586.00,0.0044
1585.00,0.0044
1584.00,0.0045
1583.00,0.0046
1582.00,0.0046
1581.00,0.0047
1580.00,0.0048
1579.00,0.0049
1578.00,0.0050
1577.00,0.0051
1576.00,0.0052
1575.00,0.0051
1574.00,0.0051
1573.00,0.0050
1572.00,0.0050
1571.00,0.0050
1570.00,0.0050
1569.00,0.0050
1568.00,0.0050
1567.00,0.0050
1566.00,0.0050
1565.00,0.0050
1564.00,0.0050
1563.00,0.0050
1562.00,0.0050
1561.00,0.0050
1560.00,0.0050
1559.00,0.0050
1558.00,0.0050
1557.00,0.0050
1556.00,0.0050
1555.00,0.0050
1554.00,0.0051
1553.00,0.0051
1552.00,0.0052
1551.00,0.0053
1550.00,0.0053
1549.00,0.0054
1548.00,0.0055
1547.00,0.0055
1546.00,0.0056
1545.00,0.0057
1544.00,0.0058
1543.00,0.0058
1542.00,0.0059
1541.00,0.0059
1540.00,0.0059
1539.00,0.0058
1538.00,0.0056
1537.00,0.0056
1536.00,0.0055
1535.00,0.0054
1534.00,0.0053
1533.00,0.0052
1532.00,0.0051
1531.00,0.0050
1530.00,0.0050
1529.00,0.0049
1528.00,0.0050
1527.00,0.0050
1526.00,0.0050
1525.00,0.0050
1524.00,0.0050
1523.00,0.0050
1522.00,0.0050
1521.00,0.0051
1520.00,0.0052
1519.00,0.0052
1518.00,0.0052
1517.00,0.0054
1516.00,0.0055
1515.00,0.0056
1514.00,0.0057
1513.00,0.0058
1512.00,0.0060
1511.00,0.0061
1510.00,0.0062
1509.00,0.0063
1508.00,0.0065
1507.00,0.0065
1506.00,0.0064
1505.00,0.0065
1504.00,0.0067
1503.00,0.0068
1502.00,0.0070
1501.00,0.0073
1500.00,0.0075
1499.00,0.0077
1498.00,0.0080
1497.00,0.0083
1496.00,0.0086
1495.00,0.0088
1494.00,0.0090
1493.00,0.0093
1492.00,0.0097
1491.00,0.0100
1490.00,0.0105
1489.00,0.0110
1488.00,0.0116
1487.00,0.0120
1486.00,0.0125
1485.00,0.0132
1484.00,0.0139
1483.00,0.0147
1482.00,0.0156
1481.00,0.0168
1480.00,0.0180
1479.00,0.0193
1478.00,0.0209
1477.00,0.0230
1476.00,0.0256
1475.00,0.0287
1474.00,0.0328
1473.00,0.0385
1472.00,0.0453
1471.00,0.0519
1470.00,0.0584
1469.00,0.0651
1468.00,0.0724
1467.00,0.0804
1466.00,0.0895
1465.00,0.0992
1464.00,0.1077
1463.00,0.1135
1462.00,0.1172
1461.00,0.1196
1460.00,0.1212
1459.00,0.1223
1458.00,0.1230
1457.00,0.1235
1456.00,0.1231
1455.00,0.1221
1454.00,0.1209
1453.00,0.1191
1452.00,0.1165
1451.00,0.1129
1450.00,0.1079
1449.00,0.1010
1448.00,0.0920
1447.00,0.0825
1446.00,0.0738
1445.00,0.0664
1444.00,0.0600
1443.00,0.0548
1442.00,0.0508
1441.00,0.0480
1440.00,0.0463
1439.00,0.0456
1438.00,0.0457
1437.00,0.0459
1436.00,0.0450
1435.00,0.0426
1434.00,0.0391
1433.00,0.0348
1432.00,0.0303
1431.00,0.0262
1430.00,0.0231
1429.00,0.0208
1428.00,0.0192
1427.00,0.0182
1426.00,0.0175
1425.00,0.0168
1424.00,0.0161
1423.00,0.0156
1422.00,0.0154
1421.00,0.0151
1420.00,0.0147
1419.00,0.0144
1418.00,0.0141
1417.00,0.0137
1416.00,0.0134
1415.00,0.0132
1414.00,0.0131
1413.00,0.0129
1412.00,0.0126
1411.00,0.0124
1410.00,0.0123
1409.00,0.0122
1408.00,0.0121
1407.00,0.0120
1406.00,0.0121
1405.00,0.0120
1404.00,0.0118
1403.00,0.0118
1402.00,0.0119
1401.00,0.0119
1400.00,0.0119
1399.00,0.0121
1398.00,0.0123
1397.00,0.0125
1396.00,0.0127
1395.00,0.0131
1394.00,0.0135
1393.00,0.0139
1392.00,0.0144
1391.00,0.0151
1390.00,0.0161
1389.00,0.0175
1388.00,0.0195
1387.00,0.0225
1386.00,0.0266
1385.00,0.0321
1384.00,0.0397
1383.00,0.0505
1382.00,0.0650
1381.00,0.0838
1380.00,0.1075
1379.00,0.1351
1378.00,0.1626
1377.00,0.1839
1376.00,0.1924
1375.00,0.1841
1374.00,0.1616
1373.00,0.1336
1372.00,0.1075
1371.00,0.0858
1370.00,0.0686
1369.00,0.0556
1368.00,0.0467
1367.00,0.0412
1366.00,0.0382
1365.00,0.0370
1364.00,0.0372
1363.00,0.0386
1362.00,0.0407
1361.00,0.0430
1360.00,0.0448
1359.00,0.0454
1358.00,0.0443
1357.00,0.0416
1356.00,0.0379
1355.00,0.0337
1354.00,0.0297
1353.00,0.0263
1352.00,0.0236
1351.00,0.0214
1350.00,0.0196
1349.00,0.0181
1348.00,0.0168
1347.00,0.0157
1346.00,0.0148
1345.00,0.0140
1344.00,0.0134
1343.00,0.0129
1342.00,0.0125
1341.00,0.0122
1340.00,0.0120
1339.00,0.0118
1338.00,0.0116
1337.00,0.0116
1336.00,0.0116
1335.00,0.0118
1334.00,0.0121
1333.00,0.0125
1332.00,0.0129
1331.00,0.0133
1330.00,0.0134
1329.00,0.0132
1328.00,0.0129
1327.00,0.0125
1326.00,0.0119
1325.00,0.0114
1324.00,0.0108
1323.00,0.0103
1322.00,0.0098
1321.00,0.0095
1320.00,0.0093
1319.00,0.0092
1318.00,0.0090
1317.00,0.0088
1316.00,0.0087
1315.00,0.0086
1314.00,0.0086
1313.00,0.0086
1312.00,0.0088
1311.00,0.0090
1310.00,0.0093
1309.00,0.0099
1308.00,0.0108
1307.00,0.0118
1306.00,0.0129
1305.00,0.0136
1304.00,0.0138
1303.00,0.0135
1302.00,0.0130
1301.00,0.0126
1300.00,0.0124
1299.00,0.0123
1298.00,0.0123
1297.00,0.0123
1296.00,0.0122
1295.00,0.0120
1294.00,0.0117
1293.00,0.0112
1292.00,0.0107
1291.00,0.0103
1290.00,0.0098
1289.00,0.0094
1288.00,0.0091
1287.00,0.0089
1286.00,0.0086
1285.00,0.0085
1284.00,0.0083
1283.00,0.0081
1282.00,0.0080
1281.00,0.0079
1280.00,0.0078
1279.00,0.0078
1278.00,0.0078
1277.00,0.0077
1276.00,0.0077
1275.00,0.0076
1274.00,0.0076
1273.00,0.0076
1272.00,0.0077
1271.00,0.0078
1270.00,0.0079
1269.00,0.0080
1268.00,0.0081
1267.00,0.0083
1266.00,0.0086
1265.00,0.0088
1264.00,0.0091
1263.00,0.0094
1262.00,0.0097
1261.00,0.0101
1260.00,0.0106
1259.00,0.0112
1258.00,0.0119
1257.00,0.0124
1256.00,0.0126
1255.00,0.0124
1254.00,0.0118
1253.00,0.0110
1252.00,0.0102
1251.00,0.0095
1250.00,0.0091
1249.00,0.0087
1248.00,0.0085
1247.00,0.0083
1246.00,0.0081
1245.00,0.0079
1244.00,0.0077
1243.00,0.0076
1242.00,0.0074
1241.00,0.0073
1240.00,0.0073
1239.00,0.0072
1238.00,0.0071
1237.00,0.0071
1236.00,0.0071
1235.00,0.0071
1234.00,0.0072
1233.00,0.0072
1232.00,0.0072
1231.00,0.0072
1230.00,0.0073
1229.00,0.0074
1228.00,0.0075
1227.00,0.0077
1226.00,0.0079
1225.00,0.0081
1224.00,0.0085
1223.00,0.0088
1222.00,0.0092
1221.00,0.0095
1220.00,0.0096
1219.00,0.0096
1218.00,0.0095
1217.00,0.0093
1216.00,0.0090
1215.00,0.0087
1214.00,0.0084
1213.00,0.0082
1212.00,0.0080
1211.00,0.0078
1210.00,0.0076
1209.00,0.0075
1208.00,0.0074
1207.00,0.0073
1206.00,0.0072
1205.00,0.0071
1204.00,0.0071
1203.00,0.0070
1202.00,0.0071
1201.00,0.0071
1200.00,0.0071
1199.00,0.0071
1198.00,0.0071
1197.00,0.0071
1196.00,0.0071
1195.00,0.0072
1194.00,0.0072
1193.00,0.0072
1192.00,0.0072
1191.00,0.0072
1190.00,0.0073
1189.00,0.0073
1188.00,0.0073
1187.00,0.0073
1186.00,0.0073
1185.00,0.0074
1184.00,0.0075
1183.00,0.0077
1182.00,0.0079
1181.00,0.0081
1180.00,0.0085
1179.00,0.0089
1178.00,0.0094
1177.00,0.0102
1176.00,0.0112
1175.00,0.0126
1174.00,0.0145
1173.00,0.0169
1172.00,0.0198
1171.00,0.0231
1170.00,0.0262
1169.00,0.0287
1168.00,0.0302
1167.00,0.0305
1166.00,0.0297
1165.00,0.0282
1164.00,0.0265
1163.00,0.0249
1162.00,0.0234
1161.00,0.0223
1160.00,0.0214
1159.00,0.0207
1158.00,0.0202
1157.00,0.0199
1156.00,0.0196
1155.00,0.0194
1154.00,0.0192
1153.00,0.0190
1152.00,0.0186
1151.00,0.0179
1150.00,0.0170
1149.00,0.0160
1148.00,0.0150
1147.00,0.0141
1146.00,0.0134
1145.00,0.0127
1144.00,0.0120
1143.00,0.0113
1142.00,0.0106
1141.00,0.0100
1140.00,0.0095
1139.00,0.0091
1138.00,0.0087
1137.00,0.0085
1136.00,0.0082
1135.00,0.0079
1134.00,0.0077
1133.00,0.0076
1132.00,0.0074
1131.00,0.0073
1130.00,0.0073
1129.00,0.0073
1128.00,0.0074
1127.00,0.0074
1126.00,0.0075
1125.00,0.0075
1124.00,0.0075
1123.00,0.0076
1122.00,0.0076
1121.00,0.0076
1120.00,0.0076
1119.00,0.0076
1118.00,0.0077
1117.00,0.0077
1116.00,0.0079
1115.00,0.0080
1114.00,0.0082
1113.00,0.0084
1112.00,0.0086
1111.00,0.0088
1110.00,0.0091
1109.00,0.0094
1108.00,0.0099
1107.00,0.0105
1106.00,0.0112
1105.00,0.0118
1104.00,0.0123
1103.00,0.0126
1102.00,0.0126
1101.00,0.0123
1100.00,0.0118
1099.00,0.0111
1098.00,0.0105
1097.00,0.0099
1096.00,0.0094
1095.00,0.0091
1094.00,0.0089
1093.00,0.0087
1092.00,0.0085
1091.00,0.0083
1090.00,0.0081
1089.00,0.0079
1088.00,0.0078
1087.00,0.0077
1086.00,0.0078
1085.00,0.0079
1084.00,0.0079
1083.00,0.0079
1082.00,0.0078
1081.00,0.0078
1080.00,0.0077
1079.00,0.0076
1078.00,0.0075
1077.00,0.0075
1076.00,0.0075
1075.00,0.0075
1074.00,0.0074
1073.00,0.0074
1072.00,0.0074
1071.00,0.0074
1070.00,0.0075
1069.00,0.0075
1068.00,0.0076
1067.00,0.0076
1066.00,0.0077
1065.00,0.0078
1064.00,0.0078
1063.00,0.0078
1062.00,0.0079
1061.00,0.0079
1060.00,0.0079
1059.00,0.0080
1058.00,0.0081
1057.00,0.0083
1056.00,0.0085
1055.00,0.0087
1054.00,0.0089
1053.00,0.0091
1052.00,0.0094
1051.00,0.0098
1050.00,0.0102
1049.00,0.0106
1048.00,0.0111
1047.00,0.0116
1046.00,0.0120
1045.00,0.0122
1044.00,0.0123
1043.00,0.0123
1042.00,0.0121
1041.00,0.0119
1040.00,0.0117
1039.00,0.0116
1038.00,0.0115
1037.00,0.0114
1036.00,0.0113
1035.00,0.0111
1034.00,0.0110
1033.00,0.0110
1032.00,0.0109
1031.00,0.0109
1030.00,0.0108
1029.00,0.0107
1028.00,0.0108
1027.00,0.0110
1026.00,0.0113
1025.00,0.0116
1024.00,0.0118
1023.00,0.0120
1022.00,0.0122
1021.00,0.0123
1020.00,0.0125
1019.00,0.0127
1018.00,0.0129
1017.00,0.0130
1016.00,0.0130
1015.00,0.0130
1014.00,0.0129
1013.00,0.0128
1012.00,0.0128
1011.00,0.0127
1010.00,0.0127
1009.00,0.0128
1008.00,0.0131
1007.00,0.0135
1006.00,0.0143
1005.00,0.0153
1004.00,0.0169
1003.00,0.0191
1002.00,0.0221
1001.00,0.0257
1000.00,0.0296
999.00,0.0327
998.00,0.0342
997.00,0.0334
996.00,0.0306
995.00,0.0268
994.00,0.0228
993.00,0.0194
992.00,0.0167
991.00,0.0148
990.00,0.0135
989.00,0.0125
988.00,0.0119
987.00,0.0116
986.00,0.0115
985.00,0.0117
984.00,0.0121
983.00,0.0127
982.00,0.0137
981.00,0.0152
980.00,0.0172
979.00,0.0200
978.00,0.0235
977.00,0.0276
976.00,0.0320
975.00,0.0361
974.00,0.0392
973.00,0.0403
972.00,0.0388
971.00,0.0351
970.00,0.0302
969.00,0.0251
968.00,0.0208
967.00,0.0176
966.00,0.0152
965.00,0.0134
964.00,0.0122
963.00,0.0113
962.00,0.0106
961.00,0.0101
960.00,0.0096
959.00,0.0092
958.00,0.0089
957.00,0.0086
956.00,0.0085
955.00,0.0084
954.00,0.0083
953.00,0.0082
952.00,0.0081
951.00,0.0079
950.00,0.0078
949.00,0.0078
948.00,0.0079
947.00,0.0080
946.00,0.0081
945.00,0.0082
944.00,0.0085
943.00,0.0088
942.00,0.0091
941.00,0.0094
940.00,0.0095
939.00,0.0093
938.00,0.0089
937.00,0.0083
936.00,0.0076
935.00,0.0070
934.00,0.0066
933.00,0.0064
932.00,0.0062
931.00,0.0061
930.00,0.0061
929.00,0.0059
928.00,0.0058
927.00,0.0058
926.00,0.0058
925.00,0.0060
924.00,0.0061
923.00,0.0060
922.00,0.0060
921.00,0.0059
920.00,0.0058
919.00,0.0058
918.00,0.0057
917.00,0.0058
916.00,0.0058
915.00,0.0060
914.00,0.0062
913.00,0.0064
912.00,0.0066
911.00,0.0067
910.00,0.0069
909.00,0.0071
908.00,0.0074
907.00,0.0078
906.00,0.0085
905.00,0.0094
904.00,0.0108
903.00,0.0126
902.00,0.0145
901.00,0.0162
900.00,0.0174
899.00,0.0177
898.00,0.0169
897.00,0.0154
896.00,0.0135
895.00,0.0116
894.00,0.0102
893.00,0.0091
892.00,0.0083
891.00,0.0079
890.00,0.0076
889.00,0.0075
888.00,0.0074
887.00,0.0072
886.00,0.0071
885.00,0.0069
884.00,0.0069
883.00,0.0069
882.00,0.0070
881.00,0.0071
880.00,0.0073
879.00,0.0075
878.00,0.0077
877.00,0.0079
876.00,0.0081
875.00,0.0082
874.00,0.0083
873.00,0.0082
872.00,0.0081
871.00,0.0080
870.00,0.0078
869.00,0.0077
868.00,0.0076
867.00,0.0077
866.00,0.0078
865.00,0.0079
864.00,0.0080
863.00,0.0080
862.00,0.0080
861.00,0.0080
860.00,0.0081
859.00,0.0083
858.00,0.0085
857.00,0.0087
856.00,0.0088
855.00,0.0089
854.00,0.0091
853.00,0.0093
852.00,0.0096
851.00,0.0100
850.00,0.0104
849.00,0.0110
848.00,0.0118
847.00,0.0130
846.00,0.0148
845.00,0.0176
844.00,0.0218
843.00,0.0268
842.00,0.0311
841.00,0.0327
840.00,0.0308
839.00,0.0262
838.00,0.0212
837.00,0.0171
836.00,0.0145
835.00,0.0130
834.00,0.0119
833.00,0.0112
832.00,0.0108
831.00,0.0106
830.00,0.0105
829.00,0.0104
828.00,0.0104
827.00,0.0103
826.00,0.0101
825.00,0.0099
824.00,0.0097
823.00,0.0096
822.00,0.0097
821.00,0.0099
820.00,0.0101
819.00,0.0105
818.00,0.0111
817.00,0.0117
816.00,0.0125
815.00,0.0135
814.00,0.0149
813.00,0.0166
812.00,0.0185
811.00,0.0203
810.00,0.0217
809.00,0.0223
808.00,0.0219
807.00,0.0206
806.00,0.0189
805.00,0.0171
804.00,0.0155
803.00,0.0143
802.00,0.0133
801.00,0.0125
800.00,0.0117
799.00,0.0112
798.00,0.0107
797.00,0.0104
796.00,0.0099
795.00,0.0095
794.00,0.0090
793.00,0.0087
792.00,0.0083
791.00,0.0080
790.00,0.0078
789.00,0.0076
788.00,0.0074
787.00,0.0072
786.00,0.0070
785.00,0.0069
784.00,0.0068
783.00,0.0067
782.00,0.0065
781.00,0.0064
780.00,0.0062
779.00,0.0062
778.00,0.0062
777.00,0.0062
776.00,0.0062
775.00,0.0063
774.00,0.0064
773.00,0.0064
772.00,0.0063
771.00,0.0061
770.00,0.0060
769.00,0.0060
768.00,0.0060
767.00,0.0060
766.00,0.0061
765.00,0.0061
764.00,0.0060
763.00,0.0060
762.00,0.0061
761.00,0.0061
760.00,0.0062
759.00,0.0062
758.00,0.0063
757.00,0.0064
756.00,0.0066
755.00,0.0068
754.00,0.0070
753.00,0.0072
752.00,0.0073
751.00,0.0074
750.00,0.0075
749.00,0.0077
748.00,0.0078
747.00,0.0079
746.00,0.0081
745.00,0.0082
744.00,0.0084
743.00,0.0085
742.00,0.0087
741.00,0.0090
740.00,0.0094
739.00,0.0097
738.00,0.0100
737.00,0.0102
736.00,0.0105
735.00,0.0108
734.00,0.0113
733.00,0.0118
732.00,0.0126
731.00,0.0135
730.00,0.0141
729.00,0.0145
728.00,0.0147
727.00,0.0148
726.00,0.0149
725.00,0.0152
724.00,0.0157
723.00,0.0162
722.00,0.0167
721.00,0.0169
720.00,0.0166
719.00,0.0159
718.00,0.0148
717.00,0.0138
716.00,0.0130
715.00,0.0125
714.00,0.0121
713.00,0.0116
712.00,0.0111
711.00,0.0107
710.00,0.0103
709.00,0.0101
708.00,0.0099
707.00,0.0098
706.00,0.0097
705.00,0.0096
704.00,0.0094
703.00,0.0090
702.00,0.0087
701.00,0.0086
700.00,0.0086
699.00,0.0087
698.00,0.0088
697.00,0.0088
696.00,0.0089
695.00,0.0088
694.00,0.0088
693.00,0.0088
692.00,0.0088
691.00,0.0088
690.00,0.0089
689.00,0.0090
688.00,0.0091
687.00,0.0092
686.00,0.0093
685.00,0.0092
684.00,0.0090
683.00,0.0088
682.00,0.0087
681.00,0.0087
680.00,0.0087
679.00,0.0087
678.00,0.0086
677.00,0.0086
676.00,0.0087
675.00,0.0089
674.00,0.0092
673.00,0.0095
672.00,0.0097
671.00,0.0098
670.00,0.0096
669.00,0.0092
668.00,0.0089
667.00,0.0088
666.00,0.0089
665.00,0.0091
664.00,0.0092
663.00,0.0092
662.00,0.0092
661.00,0.0090
660.00,0.0088
659.00,0.0086
658.00,0.0085
657.00,0.0084
656.00,0.0084
655.00,0.0083
654.00,0.0082
653.00,0.0082
652.00,0.0082
651.00,0.0083
650.00,0.0084
649.00,0.0084
648.00,0.0083
647.00,0.0080
646.00,0.0077
645.00,0.0074
644.00,0.0072
643.00,0.0070
642.00,0.0071
641.00,0.0072
640.00,0.0075
639.00,0.0078
638.00,0.0080
637.00,0.0081
636.00,0.0081
635.00,0.0080
634.00,0.0078
633.00,0.0077
632.00,0.0078
631.00,0.0079
630.00,0.0081
629.00,0.0081
628.00,0.0079
627.00,0.0077
626.00,0.0075
625.00,0.0075
624.00,0.0076
623.00,0.0076
622.00,0.0076
621.00,0.0075
620.00,0.0074
619.00,0.0074
618.00,0.0076
617.00,0.0079
616.00,0.0081
615.00,0.0082
614.00,0.0082
613.00,0.0082
612.00,0.0081
611.00,0.0079
610.00,0.0077
609.00,0.0075
608.00,0.0073
607.00,0.0072
606.00,0.0073
605.00,0.0074
604.00,0.0075
603.00,0.0075
602.00,0.0075
601.00,0.0075
600.00,0.0075
599.00,0.0076
598.00,0.0077
597.00,0.0079
596.00,0.0080
595.00,0.0081
594.00,0.0079
593.00,0.0077
592.00,0.0074
591.00,0.0072
590.00,0.0071
589.00,0.0073
588.00,0.0074
587.00,0.0076
586.00,0.0076
585.00,0.0077
584.00,0.0077
583.00,0.0077
582.00,0.0077
581.00,0.0078
580.00,0.0079
579.00,0.0080
578.00,0.0080
577.00,0.0079
576.00,0.0079
575.00,0.0079
574.00,0.0078
573.00,0.0077
572.00,0.0075
571.00,0.0073
570.00,0.0073
569.00,0.0075
568.00,0.0078
567.00,0.0080
566.00,0.0079
565.00,0.0077
564.00,0.0076
563.00,0.0078
562.00,0.0082
561.00,0.0084
560.00,0.0084
559.00,0.0082
558.00,0.0079
557.00,0.0080
556.00,0.0082
555.00,0.0085
554.00,0.0085
553.00,0.0082
552.00,0.0077
551.00,0.0074
550.00,0.0073
549.00,0.0074
548.00,0.0078
547.00,0.0083
546.00,0.0088
545.00,0.0089
544.00,0.0089
543.00,0.0089
542.00,0.0091
541.00,0.0093
540.00,0.0094
539.00,0.0092
538.00,0.0089
537.00,0.0088
536.00,0.0089
535.00,0.0092
534.00,0.0095
533.00,0.0097
532.00,0.0099
531.00,0.0102
530.00,0.0105
529.00,0.0106
528.00,0.0106
527.00,0.0105
526.00,0.0103
525.00,0.0100
524.00,0.0096
523.00,0.0091
522.00,0.0085
521.00,0.0082
520.00,0.0083
519.00,0.0085
518.00,0.0087
517.00,0.0087
516.00,0.0088
515.00,0.0089
514.00,0.0090
513.00,0.0086
512.00,0.0080
511.00,0.0074
510.00,0.0073
509.00,0.0077
508.00,0.0083
507.00,0.0087
506.00,0.0089
505.00,0.0090
504.00,0.0092
503.00,0.0095
502.00,0.0098
501.00,0.0101
500.00,0.0103
499.00,0.0102
498.00,0.0100
497.00,0.0097
496.00,0.0091
495.00,0.0084
494.00,0.0079
493.00,0.0077
492.00,0.0078
491.00,0.0078
490.00,0.0076
489.00,0.0074
488.00,0.0075
487.00,0.0078
486.00,0.0082
485.00,0.0086
484.00,0.0093
483.00,0.0101
482.00,0.0108
481.00,0.0109
480.00,0.0107
479.00,0.0105
478.00,0.0107
477.00,0.0112
476.00,0.0118
475.00,0.0124
474.00,0.0128
473.00,0.0130
472.00,0.0130
471.00,0.0129
470.00,0.0130
469.00,0.0133
468.00,0.0139
467.00,0.0143
466.00,0.0143
465.00,0.0143
464.00,0.0149
463.00,0.0166
462.00,0.0191
461.00,0.0211
460.00,0.0217
459.00,0.0210
458.00,0.0197
457.00,0.0185
456.00,0.0178
455.00,0.0171
454.00,0.0164
453.00,0.0156
452.00,0.0149
451.00,0.0142
450.00,0.0136
