Created as New Dataset,Sample 038 By Administrator Date Friday, September 05 2025
cm-1,A
4000.00,0.0010
3999.00,0.0010
3998.00,0.0010
3997.00,0.0010
3996.00,0.0010
3995.00,0.0010
3994.00,0.0011
3993.00,0.0011
3992.00,0.0011
3991.00,0.0011
3990.00,0.0011
3989.00,0.0010
3988.00,0.0010
3987.00,0.0010
3986.00,0.0010
3985.00,0.0010
3984.00,0.0010
3983.00,0.0010
3982.00,0.0010
3981.00,0.0010
3980.00,0.0010
3979.00,0.0010
3978.00,0.0009
3977.00,0.0009
3976.00,0.0009
3975.00,0.0009
3974.00,0.0009
3973.00,0.0009
3972.00,0.0009
3971.00,0.0009
3970.00,0.0009
3969.00,0.0009
3968.00,0.0009
3967.00,0.0009
3966.00,0.0009
3965.00,0.0009
3964.00,0.0009
3963.00,0.0009
3962.00,0.0009
3961.00,0.0009
3960.00,0.0009
3959.00,0.0009
3958.00,0.0008
3957.00,0.0008
3956.00,0.0008
3955.00,0.0008
3954.00,0.0009
3953.00,0.0009
3952.00,0.0009
3951.00,0.0009
3950.00,0.0009
3949.00,0.0009
3948.00,0.0009
3947.00,0.0009
3946.00,0.0009
3945.00,0.0009
3944.00,0.0009
3943.00,0.0009
3942.00,0.0009
3941.00,0.0009
3940.00,0.0009
3939.00,0.0009
3938.00,0.0009
3937.00,0.0009
3936.00,0.0009
3935.00,0.0009
3934.00,0.0009
3933.00,0.0009
3932.00,0.0009
3931.00,0.0009
3930.00,0.0009
3929.00,0.0009
3928.00,0.0009
3927.00,0.0009
3926.00,0.0009
3925.00,0.0008
3924.00,0.0008
3923.00,0.0008
3922.00,0.0009
3921.00,0.0009
3920.00,0.0009
3919.00,0.0009
3918.00,0.0009
3917.00,0.0009
3916.00,0.0009
3915.00,0.0009
3914.00,0.0009
3913.00,0.0009
3912.00,0.0009
3911.00,0.0009
3910.00,0.0009
3909.00,0.0009
3908.00,0.0009
3907.00,0.0010
3906.00,0.0010
3905.00,0.0009
3904.00,0.0009
3903.00,0.0009
3902.00,0.0009
3901.00,0.0009
3900.00,0.0009
3899.00,0.0009
3898.00,0.0009
3897.00,0.0009
3896.00,0.0009
3895.00,0.0009
3894.00,0.0009
3893.00,0.0009
3892.00,0.0009
3891.00,0.0009
3890.00,0.0009
3889.00,0.0009
3888.00,0.0009
3887.00,0.0008
3886.00,0.0008
3885.00,0.0008
3884.00,0.0009
3883.00,0.0009
3882.00,0.0009
3881.00,0.0009
3880.00,0.0009
3879.00,0.0009
3878.00,0.0009
3877.00,0.0009
3876.00,0.0009
3875.00,0.0008
3874.00,0.0008
3873.00,0.0008
3872.00,0.0008
3871.00,0.0008
3870.00,0.0008
3869.00,0.0008
3868.00,0.0008
3867.00,0.0008
3866.00,0.0008
3865.00,0.0008
3864.00,0.0008
3863.00,0.0008
3862.00,0.0008
3861.00,0.0008
3860.00,0.0008
3859.00,0.0008
3858.00,0.0008
3857.00,0.0008
3856.00,0.0008
3855.00,0.0008
3854.00,0.0008
3853.00,0.0008
3852.00,0.0008
3851.00,0.0008
3850.00,0.0008
3849.00,0.0008
3848.00,0.0008
3847.00,0.0008
3846.00,0.0008
3845.00,0.0008
3844.00,0.0008
3843.00,0.0008
3842.00,0.0008
3841.00,0.0008
3840.00,0.0008
3839.00,0.0007
3838.00,0.0007
3837.00,0.0006
3836.00,0.0006
3835.00,0.0007
3834.00,0.0007
3833.00,0.0007
3832.00,0.0007
3831.00,0.0008
3830.00,0.0008
3829.00,0.0008
3828.00,0.0009
3827.00,0.0009
3826.00,0.0009
3825.00,0.0009
3824.00,0.0008
3823.00,0.0008
3822.00,0.0008
3821.00,0.0007
3820.00,0.0008
3819.00,0.0008
3818.00,0.0009
3817.00,0.0008
3816.00,0.0008
3815.00,0.0008
3814.00,0.0008
3813.00,0.0008
3812.00,0.0008
3811.00,0.0008
3810.00,0.0008
3809.00,0.0008
3808.00,0.0008
3807.00,0.0008
3806.00,0.0008
3805.00,0.0008
3804.00,0.0008
3803.00,0.0007
3802.00,0.0007
3801.00,0.0007
3800.00,0.0007
3799.00,0.0008
3798.00,0.0008
3797.00,0.0008
3796.00,0.0008
3795.00,0.0008
3794.00,0.0009
3793.00,0.0009
3792.00,0.0008
3791.00,0.0008
3790.00,0.0008
3789.00,0.0008
3788.00,0.0008
3787.00,0.0009
3786.00,0.0009
3785.00,0.0008
3784.00,0.0008
3783.00,0.0008
3782.00,0.0008
3781.00,0.0008
3780.00,0.0008
3779.00,0.0008
3778.00,0.0008
3777.00,0.0009
3776.00,0.0009
3775.00,0.0009
3774.00,0.0008
3773.00,0.0008
3772.00,0.0007
3771.00,0.0007
3770.00,0.0007
3769.00,0.0007
3768.00,0.0008
3767.00,0.0008
3766.00,0.0008
3765.00,0.0008
3764.00,0.0008
3763.00,0.0008
3762.00,0.0008
3761.00,0.0008
3760.00,0.0008
3759.00,0.0009
3758.00,0.0009
3757.00,0.0009
3756.00,0.0008
3755.00,0.0008
3754.00,0.0008
3753.00,0.0008
3752.00,0.0008
3751.00,0.0008
3750.00,0.0008
3749.00,0.0007
3748.00,0.0007
3747.00,0.0007
3746.00,0.0007
3745.00,0.0007
3744.00,0.0008
3743.00,0.0008
3742.00,0.0009
3741.00,0.0009
3740.00,0.0009
3739.00,0.0009
3738.00,0.0009
3737.00,0.0009
3736.00,0.0008
3735.00,0.0008
3734.00,0.0008
3733.00,0.0007
3732.00,0.0007
3731.00,0.0007
3730.00,0.0007
3729.00,0.0007
3728.00,0.0007
3727.00,0.0007
3726.00,0.0007
3725.00,0.0007
3724.00,0.0007
3723.00,0.0007
3722.00,0.0007
3721.00,0.0007
3720.00,0.0007
3719.00,0.0007
3718.00,0.0007
3717.00,0.0007
3716.00,0.0007
3715.00,0.0007
3714.00,0.0006
3713.00,0.0006
3712.00,0.0006
3711.00,0.0006
3710.00,0.0006
3709.00,0.0006
3708.00,0.0006
3707.00,0.0007
3706.00,0.0007
3705.00,0.0007
3704.00,0.0007
3703.00,0.0007
3702.00,0.0007
3701.00,0.0007
3700.00,0.0007
3699.00,0.0008
3698.00,0.0008
3697.00,0.0008
3696.00,0.0007
3695.00,0.0007
3694.00,0.0007
3693.00,0.0006
3692.00,0.0005
3691.00,0.0005
3690.00,0.0005
3689.00,0.0006
3688.00,0.0007
3687.00,0.0008
3686.00,0.0008
3685.00,0.0008
3684.00,0.0007
3683.00,0.0007
3682.00,0.0006
3681.00,0.0006
3680.00,0.0006
3679.00,0.0007
3678.00,0.0007
3677.00,0.0008
3676.00,0.0008
3675.00,0.0007
3674.00,0.0006
3673.00,0.0006
3672.00,0.0006
3671.00,0.0006
3670.00,0.0006
3669.00,0.0006
3668.00,0.0006
3667.00,0.0006
3666.00,0.0006
3665.00,0.0006
3664.00,0.0006
3663.00,0.0006
3662.00,0.0006
3661.00,0.0006
3660.00,0.0006
3659.00,0.0005
3658.00,0.0005
3657.00,0.0005
3656.00,0.0005
3655.00,0.0006
3654.00,0.0006
3653.00,0.0006
3652.00,0.0006
3651.00,0.0006
3650.00,0.0006
3649.00,0.0007
3648.00,0.0007
3647.00,0.0006
3646.00,0.0006
3645.00,0.0006
3644.00,0.0007
3643.00,0.0007
3642.00,0.0007
3641.00,0.0007
3640.00,0.0007
3639.00,0.0007
3638.00,0.0007
3637.00,0.0008
3636.00,0.0008
3635.00,0.0008
3634.00,0.0008
3633.00,0.0008
3632.00,0.0008
3631.00,0.0009
3630.00,0.0009
3629.00,0.0010
3628.00,0.0010
3627.00,0.0010
3626.00,0.0010
3625.00,0.0010
3624.00,0.0010
3623.00,0.0010
3622.00,0.0011
3621.00,0.0011
3620.00,0.0011
3619.00,0.0011
3618.00,0.0011
3617.00,0.0011
3616.00,0.0011
3615.00,0.0012
3614.00,0.0012
3613.00,0.0013
3612.00,0.0013
3611.00,0.0013
3610.00,0.0013
3609.00,0.0013
3608.00,0.0013
3607.00,0.0013
3606.00,0.0012
3605.00,0.0012
3604.00,0.0013
3603.00,0.0013
3602.00,0.0014
3601.00,0.0014
3600.00,0.0014
3599.00,0.0014
3598.00,0.0014
3597.00,0.0015
3596.00,0.0016
3595.00,0.0016
3594.00,0.0016
3593.00,0.0016
3592.00,0.0016
3591.00,0.0016
3590.00,0.0016
3589.00,0.0016
3588.00,0.0016
3587.00,0.0016
3586.00,0.0016
3585.00,0.0016
3584.00,0.0016
3583.00,0.0017
3582.00,0.0017
3581.00,0.0016
3580.00,0.0016
3579.00,0.0016
3578.00,0.0016
3577.00,0.0016
3576.00,0.0017
3575.00,0.0017
3574.00,0.0018
3573.00,0.0018
3572.00,0.0019
3571.00,0.0019
3570.00,0.0020
3569.00,0.0021
3568.00,0.0022
3567.00,0.0022
3566.00,0.0022
3565.00,0.0021
3564.00,0.0021
3563.00,0.0021
3562.00,0.0021
3561.00,0.0021
3560.00,0.0021
3559.00,0.0021
3558.00,0.0022
3557.00,0.0023
3556.00,0.0023
3555.00,0.0023
3554.00,0.0023
3553.00,0.0023
3552.00,0.0023
3551.00,0.0023
3550.00,0.0024
3549.00,0.0024
3548.00,0.0025
3547.00,0.0025
3546.00,0.0026
3545.00,0.0026
3544.00,0.0026
3543.00,0.0026
3542.00,0.0026
3541.00,0.0026
3540.00,0.0027
3539.00,0.0027
3538.00,0.0028
3537.00,0.0028
3536.00,0.0028
3535.00,0.0028
3534.00,0.0028
3533.00,0.0029
3532.00,0.0029
3531.00,0.0030
3530.00,0.0030
3529.00,0.0031
3528.00,0.0031
3527.00,0.0031
3526.00,0.0031
3525.00,0.0030
3524.00,0.0030
3523.00,0.0030
3522.00,0.0030
3521.00,0.0030
3520.00,0.0030
3519.00,0.0031
3518.00,0.0031
3517.00,0.0031
3516.00,0.0032
3515.00,0.0032
3514.00,0.0033
3513.00,0.0033
3512.00,0.0033
3511.00,0.0034
3510.00,0.0034
3509.00,0.0034
3508.00,0.0034
3507.00,0.0034
3506.00,0.0034
3505.00,0.0035
3504.00,0.0035
3503.00,0.0035
3502.00,0.0035
3501.00,0.0035
3500.00,0.0035
3499.00,0.0036
3498.00,0.0036
3497.00,0.0037
3496.00,0.0037
3495.00,0.0037
3494.00,0.0038
3493.00,0.0038
3492.00,0.0038
3491.00,0.0038
3490.00,0.0039
3489.00,0.0039
3488.00,0.0039
3487.00,0.0040
3486.00,0.0040
3485.00,0.0040
3484.00,0.0040
3483.00,0.0040
3482.00,0.0040
3481.00,0.0040
3480.00,0.0040
3479.00,0.0040
3478.00,0.0041
3477.00,0.0041
3476.00,0.0042
3475.00,0.0042
3474.00,0.0043
3473.00,0.0043
3472.00,0.0043
3471.00,0.0043
3470.00,0.0043
3469.00,0.0043
3468.00,0.0043
3467.00,0.0043
3466.00,0.0043
3465.00,0.0043
3464.00,0.0043
3463.00,0.0044
3462.00,0.0044
3461.00,0.0044
3460.00,0.0045
3459.00,0.0045
3458.00,0.0045
3457.00,0.0046
3456.00,0.0046
3455.00,0.0046
3454.00,0.0046
3453.00,0.0046
3452.00,0.0046
3451.00,0.0046
3450.00,0.0047
3449.00,0.0047
3448.00,0.0048
3447.00,0.0048
3446.00,0.0048
3445.00,0.0049
3444.00,0.0049
3443.00,0.0049
3442.00,0.0049
3441.00,0.0049
3440.00,0.0049
3439.00,0.0049
3438.00,0.0049
3437.00,0.0049
3436.00,0.0049
3435.00,0.0049
3434.00,0.0050
3433.00,0.0050
3432.00,0.0051
3431.00,0.0051
3430.00,0.0051
3429.00,0.0051
3428.00,0.0052
3427.00,0.0052
3426.00,0.0052
3425.00,0.0052
3424.00,0.0052
3423.00,0.0053
3422.00,0.0053
3421.00,0.0054
3420.00,0.0054
3419.00,0.0054
3418.00,0.0054
3417.00,0.0054
3416.00,0.0054
3415.00,0.0054
3414.00,0.0054
3413.00,0.0054
3412.00,0.0054
3411.00,0.0054
3410.00,0.0053
3409.00,0.0053
3408.00,0.0053
3407.00,0.0053
3406.00,0.0053
3405.00,0.0053
3404.00,0.0054
3403.00,0.0054
3402.00,0.0055
3401.00,0.0055
3400.00,0.0056
3399.00,0.0056
3398.00,0.0056
3397.00,0.0056
3396.00,0.0056
3395.00,0.0057
3394.00,0.0057
3393.00,0.0056
3392.00,0.0056
3391.00,0.0056
3390.00,0.0056
3389.00,0.0055
3388.00,0.0055
3387.00,0.0055
3386.00,0.0056
3385.00,0.0056
3384.00,0.0056
3383.00,0.0057
3382.00,0.0057
3381.00,0.0057
3380.00,0.0057
3379.00,0.0057
3378.00,0.0057
3377.00,0.0057
3376.00,0.0056
3375.00,0.0056
3374.00,0.0057
3373.00,0.0057
3372.00,0.0057
3371.00,0.0057
3370.00,0.0057
3369.00,0.0057
3368.00,0.0057
3367.00,0.0057
3366.00,0.0057
3365.00,0.0057
3364.00,0.0058
3363.00,0.0058
3362.00,0.0058
3361.00,0.0058
3360.00,0.0058
3359.00,0.0058
3358.00,0.0058
3357.00,0.0058
3356.00,0.0059
3355.00,0.0059
3354.00,0.0059
3353.00,0.0059
3352.00,0.0059
3351.00,0.0058
3350.00,0.0058
3349.00,0.0058
3348.00,0.0058
3347.00,0.0058
3346.00,0.0058
3345.00,0.0058
3344.00,0.0058
3343.00,0.0058
3342.00,0.0058
3341.00,0.0058
3340.00,0.0058
3339.00,0.0059
3338.00,0.0059
3337.00,0.0059
3336.00,0.0058
3335.00,0.0058
3334.00,0.0058
3333.00,0.0057
3332.00,0.0057
3331.00,0.0057
3330.00,0.0056
3329.00,0.0056
3328.00,0.0056
3327.00,0.0056
3326.00,0.0056
3325.00,0.0056
3324.00,0.0056
3323.00,0.0056
3322.00,0.0057
3321.00,0.0057
3320.00,0.0057
3319.00,0.0056
3318.00,0.0056
3317.00,0.0056
3316.00,0.0056
3315.00,0.0056
3314.00,0.0056
3313.00,0.0057
3312.00,0.0057
3311.00,0.0057
3310.00,0.0057
3309.00,0.0057
3308.00,0.0056
3307.00,0.0056
3306.00,0.0056
3305.00,0.0056
3304.00,0.0056
3303.00,0.0057
3302.00,0.0057
3301.00,0.0057
3300.00,0.0057
3299.00,0.0056
3298.00,0.0056
3297.00,0.0056
3296.00,0.0056
3295.00,0.0055
3294.00,0.0055
3293.00,0.0055
3292.00,0.0055
3291.00,0.0055
3290.00,0.0055
3289.00,0.0054
3288.00,0.0053
3287.00,0.0053
3286.00,0.0053
3285.00,0.0053
3284.00,0.0053
3283.00,0.0053
3282.00,0.0053
3281.00,0.0053
3280.00,0.0053
3279.00,0.0053
3278.00,0.0052
3277.00,0.0052
3276.00,0.0052
3275.00,0.0052
3274.00,0.0052
3273.00,0.0052
3272.00,0.0052
3271.00,0.0051
3270.00,0.0051
3269.00,0.0051
3268.00,0.0051
3267.00,0.0051
3266.00,0.0050
3265.00,0.0050
3264.00,0.0049
3263.00,0.0049
3262.00,0.0049
3261.00,0.0048
3260.00,0.0048
3259.00,0.0048
3258.00,0.0048
3257.00,0.0048
3256.00,0.0047
3255.00,0.0047
3254.00,0.0047
3253.00,0.0047
3252.00,0.0047
3251.00,0.0047
3250.00,0.0046
3249.00,0.0046
3248.00,0.0046
3247.00,0.0045
3246.00,0.0045
3245.00,0.0045
3244.00,0.0045
3243.00,0.0045
3242.00,0.0045
3241.00,0.0045
3240.00,0.0045
3239.00,0.0045
3238.00,0.0045
3237.00,0.0045
3236.00,0.0045
3235.00,0.0045
3234.00,0.0045
3233.00,0.0045
3232.00,0.0045
3231.00,0.0045
3230.00,0.0045
3229.00,0.0045
3228.00,0.0045
3227.00,0.0045
3226.00,0.0045
3225.00,0.0045
3224.00,0.0045
3223.00,0.0045
3222.00,0.0045
3221.00,0.0045
3220.00,0.0045
3219.00,0.0045
3218.00,0.0046
3217.00,0.0047
3216.00,0.0048
3215.00,0.0048
3214.00,0.0049
3213.00,0.0049
3212.00,0.0049
3211.00,0.0049
3210.00,0.0048
3209.00,0.0048
3208.00,0.0048
3207.00,0.0047
3206.00,0.0047
3205.00,0.0047
3204.00,0.0047
3203.00,0.0048
3202.00,0.0048
3201.00,0.0049
3200.00,0.0049
3199.00,0.0049
3198.00,0.0048
3197.00,0.0048
3196.00,0.0048
3195.00,0.0048
3194.00,0.0048
3193.00,0.0048
3192.00,0.0048
3191.00,0.0048
3190.00,0.0047
3189.00,0.0047
3188.00,0.0047
3187.00,0.0047
3186.00,0.0047
3185.00,0.0047
3184.00,0.0047
3183.00,0.0047
3182.00,0.0046
3181.00,0.0046
3180.00,0.0045
3179.00,0.0045
3178.00,0.0044
3177.00,0.0044
3176.00,0.0044
3175.00,0.0044
3174.00,0.0044
3173.00,0.0044
3172.00,0.0044
3171.00,0.0044
3170.00,0.0044
3169.00,0.0044
3168.00,0.0044
3167.00,0.0043
3166.00,0.0043
3165.00,0.0043
3164.00,0.0043
3163.00,0.0042
3162.00,0.0042
3161.00,0.0042
3160.00,0.0041
3159.00,0.0041
3158.00,0.0042
3157.00,0.0042
3156.00,0.0042
3155.00,0.0042
3154.00,0.0041
3153.00,0.0041
3152.00,0.0041
3151.00,0.0041
3150.00,0.0042
3149.00,0.0042
3148.00,0.0042
3147.00,0.0041
3146.00,0.0041
3145.00,0.0041
3144.00,0.0040
3143.00,0.0041
3142.00,0.0041
3141.00,0.0041
3140.00,0.0041
3139.00,0.0041
3138.00,0.0041
3137.00,0.0040
3136.00,0.0040
3135.00,0.0040
3134.00,0.0040
3133.00,0.0040
3132.00,0.0040
3131.00,0.0039
3130.00,0.0039
3129.00,0.0038
3128.00,0.0038
3127.00,0.0038
3126.00,0.0038
3125.00,0.0038
3124.00,0.0037
3123.00,0.0037
3122.00,0.0036
3121.00,0.0036
3120.00,0.0036
3119.00,0.0035
3118.00,0.0035
3117.00,0.0034
3116.00,0.0034
3115.00,0.0034
3114.00,0.0034
3113.00,0.0034
3112.00,0.0035
3111.00,0.0035
3110.00,0.0034
3109.00,0.0034
3108.00,0.0034
3107.00,0.0034
3106.00,0.0034
3105.00,0.0034
3104.00,0.0033
3103.00,0.0033
3102.00,0.0033
3101.00,0.0032
3100.00,0.0032
3099.00,0.0032
3098.00,0.0033
3097.00,0.0033
3096.00,0.0033
3095.00,0.0033
3094.00,0.0033
3093.00,0.0033
3092.00,0.0033
3091.00,0.0033
3090.00,0.0033
3089.00,0.0033
3088.00,0.0033
3087.00,0.0033
3086.00,0.0032
3085.00,0.0032
3084.00,0.0032
3083.00,0.0032
3082.00,0.0032
3081.00,0.0032
3080.00,0.0032
3079.00,0.0032
3078.00,0.0032
3077.00,0.0032
3076.00,0.0032
3075.00,0.0032
3074.00,0.0032
3073.00,0.0032
3072.00,0.0032
3071.00,0.0032
3070.00,0.0033
3069.00,0.0033
3068.00,0.0033
3067.00,0.0033
3066.00,0.0033
3065.00,0.0033
3064.00,0.0033
3063.00,0.0033
3062.00,0.0034
3061.00,0.0034
3060.00,0.0034
3059.00,0.0034
3058.00,0.0034
3057.00,0.0034
3056.00,0.0034
3055.00,0.0035
3054.00,0.0035
3053.00,0.0035
3052.00,0.0035
3051.00,0.0035
3050.00,0.0036
3049.00,0.0036
3048.00,0.0036
3047.00,0.0037
3046.00,0.0037
3045.00,0.0037
3044.00,0.0036
3043.00,0.0037
3042.00,0.0037
3041.00,0.0037
3040.00,0.0038
3039.00,0.0038
3038.00,0.0039
3037.00,0.0040
3036.00,0.0040
3035.00,0.0041
3034.00,0.0041
3033.00,0.0041
3032.00,0.0042
3031.00,0.0042
3030.00,0.0042
3029.00,0.0042
3028.00,0.0042
3027.00,0.0043
3026.00,0.0043
3025.00,0.0044
3024.00,0.0044
3023.00,0.0045
3022.00,0.0045
3021.00,0.0046
3020.00,0.0046
3019.00,0.0047
3018.00,0.0048
3017.00,0.0048
3016.00,0.0049
3015.00,0.0050
3014.00,0.0051
3013.00,0.0052
3012.00,0.0053
3011.00,0.0054
3010.00,0.0055
3009.00,0.0056
3008.00,0.0057
3007.00,0.0059
3006.00,0.0060
3005.00,0.0061
3004.00,0.0063
3003.00,0.0065
3002.00,0.0067
3001.00,0.0068
3000.00,0.0071
2999.00,0.0073
2998.00,0.0076
2997.00,0.0079
2996.00,0.0083
2995.00,0.0086
2994.00,0.0090
2993.00,0.0094
2992.00,0.0099
2991.00,0.0104
2990.00,0.0110
2989.00,0.0118
2988.00,0.0126
2987.00,0.0134
2986.00,0.0144
2985.00,0.0154
2984.00,0.0165
2983.00,0.0178
2982.00,0.0193
2981.00,0.0211
2980.00,0.0232
2979.00,0.0255
2978.00,0.0281
2977.00,0.0311
2976.00,0.0346
2975.00,0.0386
2974.00,0.0431
2973.00,0.0483
2972.00,0.0541
2971.00,0.0608
2970.00,0.0683
2969.00,0.0766
2968.00,0.0857
2967.00,0.0956
2966.00,0.1061
2965.00,0.1172
2964.00,0.1285
2963.00,0.1394
2962.00,0.1495
2961.00,0.1580
2960.00,0.1648
2959.00,0.1697
2958.00,0.1731
2957.00,0.1756
2956.00,0.1778
2955.00,0.1801
2954.00,0.1829
2953.00,0.1857
2952.00,0.1879
2951.00,0.1885
2950.00,0.1867
2949.00,0.1819
2948.00,0.1741
2947.00,0.1639
2946.00,0.1523
2945.00,0.1405
2944.00,0.1294
2943.00,0.1201
2942.00,0.1129
2941.00,0.1080
2940.00,0.1053
2939.00,0.1046
2938.00,0.1059
2937.00,0.1087
2936.00,0.1131
2935.00,0.1187
2934.00,0.1257
2933.00,0.1337
2932.00,0.1426
2931.00,0.1523
2930.00,0.1625
2929.00,0.1729
2928.00,0.1831
2927.00,0.1930
2926.00,0.2024
2925.00,0.2113
2924.00,0.2198
2923.00,0.2278
2922.00,0.2355
2921.00,0.2427
2920.00,0.2487
2919.00,0.2529
2918.00,0.2546
2917.00,0.2532
2916.00,0.2489
2915.00,0.2422
2914.00,0.2340
2913.00,0.2253
2912.00,0.2170
2911.00,0.2095
2910.00,0.2030
2909.00,0.1973
2908.00,0.1921
2907.00,0.1870
2906.00,0.1818
2905.00,0.1763
2904.00,0.1704
2903.00,0.1642
2902.00,0.1578
2901.00,0.1514
2900.00,0.1451
2899.00,0.1390
2898.00,0.1332
2897.00,0.1279
2896.00,0.1231
2895.00,0.1188
2894.00,0.1152
2893.00,0.1122
2892.00,0.1097
2891.00,0.1078
2890.00,0.1063
2889.00,0.1052
2888.00,0.1045
2887.00,0.1041
2886.00,0.1040
2885.00,0.1043
2884.00,0.1049
2883.00,0.1059
2882.00,0.1073
2881.00,0.1088
2880.00,0.1102
2879.00,0.1114
2878.00,0.1119
2877.00,0.1118
2876.00,0.1113
2875.00,0.1106
2874.00,0.1102
2873.00,0.1103
2872.00,0.1111
2871.00,0.1125
2870.00,0.1142
2869.00,0.1157
2868.00,0.1165
2867.00,0.1159
2866.00,0.1135
2865.00,0.1093
2864.00,0.1035
2863.00,0.0971
2862.00,0.0909
2861.00,0.0855
2860.00,0.0814
2859.00,0.0788
2858.00,0.0775
2857.00,0.0773
2856.00,0.0780
2855.00,0.0793
2854.00,0.0812
2853.00,0.0832
2852.00,0.0852
2851.00,0.0870
2850.00,0.0885
2849.00,0.0896
2848.00,0.0905
2847.00,0.0919
2846.00,0.0941
2845.00,0.0974
2844.00,0.1017
2843.00,0.1069
2842.00,0.1124
2841.00,0.1175
2840.00,0.1214
2839.00,0.1233
2838.00,0.1225
2837.00,0.1187
2836.00,0.1120
2835.00,0.1029
2834.00,0.0925
2833.00,0.0818
2832.00,0.0717
2831.00,0.0628
2830.00,0.0552
2829.00,0.0491
2828.00,0.0440
2827.00,0.0399
2826.00,0.0365
2825.00,0.0337
2824.00,0.0314
2823.00,0.0294
2822.00,0.0277
2821.00,0.0262
2820.00,0.0249
2819.00,0.0237
2818.00,0.0227
2817.00,0.0218
2816.00,0.0210
2815.00,0.0203
2814.00,0.0197
2813.00,0.0192
2812.00,0.0186
2811.00,0.0181
2810.00,0.0176
2809.00,0.0171
2808.00,0.0165
2807.00,0.0159
2806.00,0.0152
2805.00,0.0146
2804.00,0.0140
2803.00,0.0134
2802.00,0.0129
2801.00,0.0125
2800.00,0.0121
2799.00,0.0118
2798.00,0.0116
2797.00,0.0113
2796.00,0.0111
2795.00,0.0109
2794.00,0.0106
2793.00,0.0104
2792.00,0.0100
2791.00,0.0097
2790.00,0.0094
2789.00,0.0091
2788.00,0.0087
2787.00,0.0084
2786.00,0.0081
2785.00,0.0078
2784.00,0.0075
2783.00,0.0073
2782.00,0.0071
2781.00,0.0069
2780.00,0.0067
2779.00,0.0066
2778.00,0.0064
2777.00,0.0063
2776.00,0.0061
2775.00,0.0060
2774.00,0.0059
2773.00,0.0058
2772.00,0.0057
2771.00,0.0057
2770.00,0.0057
2769.00,0.0056
2768.00,0.0056
2767.00,0.0055
2766.00,0.0055
2765.00,0.0055
2764.00,0.0054
2763.00,0.0054
2762.00,0.0053
2761.00,0.0053
2760.00,0.0052
2759.00,0.0052
2758.00,0.0052
2757.00,0.0053
2756.00,0.0053
2755.00,0.0053
2754.00,0.0052
2753.00,0.0052
2752.00,0.0052
2751.00,0.0051
2750.00,0.0051
2749.00,0.0051
2748.00,0.0051
2747.00,0.0052
2746.00,0.0052
2745.00,0.0053
2744.00,0.0053
2743.00,0.0054
2742.00,0.0055
2741.00,0.0056
2740.00,0.0057
2739.00,0.0058
2738.00,0.0059
2737.00,0.0061
2736.00,0.0062
2735.00,0.0063
2734.00,0.0064
2733.00,0.0066
2732.00,0.0067
2731.00,0.0069
2730.00,0.0071
2729.00,0.0073
2728.00,0.0075
2727.00,0.0078
2726.00,0.0081
2725.00,0.0083
2724.00,0.0085
2723.00,0.0085
2722.00,0.0085
2721.00,0.0083
2720.00,0.0080
2719.00,0.0077
2718.00,0.0074
2717.00,0.0071
2716.00,0.0069
2715.00,0.0066
2714.00,0.0064
2713.00,0.0062
2712.00,0.0060
2711.00,0.0058
2710.00,0.0057
2709.00,0.0055
2708.00,0.0054
2707.00,0.0053
2706.00,0.0052
2705.00,0.0051
2704.00,0.0050
2703.00,0.0049
2702.00,0.0049
2701.00,0.0048
2700.00,0.0047
2699.00,0.0046
2698.00,0.0046
2697.00,0.0045
2696.00,0.0045
2695.00,0.0045
2694.00,0.0045
2693.00,0.0045
2692.00,0.0045
2691.00,0.0045
2690.00,0.0046
2689.00,0.0046
2688.00,0.0046
2687.00,0.0046
2686.00,0.0046
2685.00,0.0045
2684.00,0.0045
2683.00,0.0046
2682.00,0.0046
2681.00,0.0046
2680.00,0.0046
2679.00,0.0045
2678.00,0.0045
2677.00,0.0045
2676.00,0.0045
2675.00,0.0045
2674.00,0.0045
2673.00,0.0045
2672.00,0.0045
2671.00,0.0045
2670.00,0.0045
2669.00,0.0045
2668.00,0.0045
2667.00,0.0045
2666.00,0.0046
2665.00,0.0046
2664.00,0.0046
2663.00,0.0047
2662.00,0.0047
2661.00,0.0047
2660.00,0.0048
2659.00,0.0048
2658.00,0.0048
2657.00,0.0048
2656.00,0.0048
2655.00,0.0048
2654.00,0.0047
2653.00,0.0046
2652.00,0.0046
2651.00,0.0045
2650.00,0.0045
2649.00,0.0044
2648.00,0.0044
2647.00,0.0044
2646.00,0.0043
2645.00,0.0043
2644.00,0.0042
2643.00,0.0042
2642.00,0.0041
2641.00,0.0041
2640.00,0.0040
2639.00,0.0039
2638.00,0.0039
2637.00,0.0038
2636.00,0.0039
2635.00,0.0039
2634.00,0.0039
2633.00,0.0039
2632.00,0.0039
2631.00,0.0039
2630.00,0.0039
2629.00,0.0039
2628.00,0.0039
2627.00,0.0039
2626.00,0.0039
2625.00,0.0039
2624.00,0.0039
2623.00,0.0039
2622.00,0.0039
2621.00,0.0039
2620.00,0.0040
2619.00,0.0040
2618.00,0.0040
2617.00,0.0040
2616.00,0.0040
2615.00,0.0039
2614.00,0.0039
2613.00,0.0038
2612.00,0.0038
2611.00,0.0037
2610.00,0.0037
2609.00,0.0037
2608.00,0.0036
2607.00,0.0035
2606.00,0.0034
2605.00,0.0033
2604.00,0.0033
2603.00,0.0032
2602.00,0.0032
2601.00,0.0031
2600.00,0.0031
2599.00,0.0031
2598.00,0.0031
2597.00,0.0030
2596.00,0.0030
2595.00,0.0031
2594.00,0.0031
2593.00,0.0031
2592.00,0.0032
2591.00,0.0032
2590.00,0.0033
2589.00,0.0033
2588.00,0.0034
2587.00,0.0035
2586.00,0.0036
2585.00,0.0036
2584.00,0.0037
2583.00,0.0036
2582.00,0.0036
2581.00,0.0035
2580.00,0.0035
2579.00,0.0034
2578.00,0.0034
2577.00,0.0034
2576.00,0.0033
2575.00,0.0032
2574.00,0.0031
2573.00,0.0030
2572.00,0.0029
2571.00,0.0028
2570.00,0.0027
2569.00,0.0027
2568.00,0.0026
2567.00,0.0026
2566.00,0.0025
2565.00,0.0024
2564.00,0.0024
2563.00,0.0023
2562.00,0.0023
2561.00,0.0023
2560.00,0.0023
2559.00,0.0023
2558.00,0.0023
2557.00,0.0023
2556.00,0.0023
2555.00,0.0023
2554.00,0.0022
2553.00,0.0021
2552.00,0.0021
2551.00,0.0020
2550.00,0.0019
2549.00,0.0019
2548.00,0.0019
2547.00,0.0019
2546.00,0.0019
2545.00,0.0018
2544.00,0.0018
2543.00,0.0018
2542.00,0.0018
2541.00,0.0017
2540.00,0.0017
2539.00,0.0017
2538.00,0.0017
2537.00,0.0016
2536.00,0.0016
2535.00,0.0016
2534.00,0.0016
2533.00,0.0015
2532.00,0.0015
2531.00,0.0015
2530.00,0.0015
2529.00,0.0015
2528.00,0.0015
2527.00,0.0015
2526.00,0.0015
2525.00,0.0015
2524.00,0.0015
2523.00,0.0015
2522.00,0.0014
2521.00,0.0014
2520.00,0.0014
2519.00,0.0014
2518.00,0.0014
2517.00,0.0014
2516.00,0.0013
2515.00,0.0012
2514.00,0.0011
2513.00,0.0011
2512.00,0.0011
2511.00,0.0012
2510.00,0.0012
2509.00,0.0012
2508.00,0.0012
2507.00,0.0011
2506.00,0.0011
2505.00,0.0010
2504.00,0.0010
2503.00,0.0010
2502.00,0.0011
2501.00,0.0012
2500.00,0.0012
2499.00,0.0011
2498.00,0.0010
2497.00,0.0010
2496.00,0.0010
2495.00,0.0011
2494.00,0.0012
2493.00,0.0012
2492.00,0.0012
2491.00,0.0011
2490.00,0.0010
2489.00,0.0009
2488.00,0.0010
2487.00,0.0010
2486.00,0.0010
2485.00,0.0010
2484.00,0.0009
2483.00,0.0009
2482.00,0.0010
2481.00,0.0010
2480.00,0.0010
2479.00,0.0010
2478.00,0.0010
2477.00,0.0010
2476.00,0.0010
2475.00,0.0009
2474.00,0.0009
2473.00,0.0008
2472.00,0.0008
2471.00,0.0008
2470.00,0.0009
2469.00,0.0009
2468.00,0.0009
2467.00,0.0009
2466.00,0.0009
2465.00,0.0009
2464.00,0.0009
2463.00,0.0009
2462.00,0.0009
2461.00,0.0010
2460.00,0.0011
2459.00,0.0011
2458.00,0.0011
2457.00,0.0012
2456.00,0.0012
2455.00,0.0012
2454.00,0.0012
2453.00,0.0012
2452.00,0.0012
2451.00,0.0012
2450.00,0.0012
2449.00,0.0012
2448.00,0.0012
2447.00,0.0012
2446.00,0.0012
2445.00,0.0012
2444.00,0.0013
2443.00,0.0012
2442.00,0.0012
2441.00,0.0011
2440.00,0.0011
2439.00,0.0011
2438.00,0.0011
2437.00,0.0012
2436.00,0.0012
2435.00,0.0012
2434.00,0.0013
2433.00,0.0013
2432.00,0.0013
2431.00,0.0013
2430.00,0.0013
2429.00,0.0012
2428.00,0.0011
2427.00,0.0011
2426.00,0.0011
2425.00,0.0011
2424.00,0.0012
2423.00,0.0012
2422.00,0.0012
2421.00,0.0011
2420.00,0.0011
2419.00,0.0011
2418.00,0.0011
2417.00,0.0010
2416.00,0.0010
2415.00,0.0009
2414.00,0.0009
2413.00,0.0008
2412.00,0.0008
2411.00,0.0008
2410.00,0.0008
2409.00,0.0008
2408.00,0.0008
2407.00,0.0008
2406.00,0.0007
2405.00,0.0007
2404.00,0.0007
2403.00,0.0008
2402.00,0.0009
2401.00,0.0009
2400.00,0.0009
2399.00,0.0009
2398.00,0.0009
2397.00,0.0009
2396.00,0.0008
2395.00,0.0008
2394.00,0.0007
2393.00,0.0007
2392.00,0.0008
2391.00,0.0008
2390.00,0.0009
2389.00,0.0009
2388.00,0.0008
2387.00,0.0007
2386.00,0.0007
2385.00,0.0006
2384.00,0.0006
2383.00,0.0006
2382.00,0.0006
2381.00,0.0006
2380.00,0.0005
2379.00,0.0005
2378.00,0.0004
2377.00,0.0004
2376.00,0.0004
2375.00,0.0005
2374.00,0.0005
2373.00,0.0006
2372.00,0.0006
2371.00,0.0006
2370.00,0.0006
2369.00,0.0005
2368.00,0.0005
2367.00,0.0004
2366.00,0.0004
2365.00,0.0004
2364.00,0.0004
2363.00,0.0004
2362.00,0.0005
2361.00,0.0006
2360.00,0.0007
2359.00,0.0008
2358.00,0.0008
2357.00,0.0008
2356.00,0.0008
2355.00,0.0007
2354.00,0.0007
2353.00,0.0006
2352.00,0.0006
2351.00,0.0007
2350.00,0.0007
2349.00,0.0008
2348.00,0.0008
2347.00,0.0008
2346.00,0.0008
2345.00,0.0009
2344.00,0.0009
2343.00,0.0010
2342.00,0.0010
2341.00,0.0010
2340.00,0.0010
2339.00,0.0010
2338.00,0.0011
2337.00,0.0011
2336.00,0.0011
2335.00,0.0011
2334.00,0.0010
2333.00,0.0009
2332.00,0.0009
2331.00,0.0008
2330.00,0.0008
2329.00,0.0009
2328.00,0.0011
2327.00,0.0015
2326.00,0.0019
2325.00,0.0022
2324.00,0.0023
2323.00,0.0022
2322.00,0.0019
2321.00,0.0017
2320.00,0.0016
2319.00,0.0015
2318.00,0.0015
2317.00,0.0014
2316.00,0.0014
2315.00,0.0014
2314.00,0.0013
2313.00,0.0012
2312.00,0.0011
2311.00,0.0010
2310.00,0.0009
2309.00,0.0008
2308.00,0.0008
2307.00,0.0009
2306.00,0.0010
2305.00,0.0010
2304.00,0.0011
2303.00,0.0011
2302.00,0.0011
2301.00,0.0012
2300.00,0.0012
2299.00,0.0013
2298.00,0.0013
2297.00,0.0013
2296.00,0.0014
2295.00,0.0015
2294.00,0.0016
2293.00,0.0017
2292.00,0.0018
2291.00,0.0018
2290.00,0.0018
2289.00,0.0018
2288.00,0.0018
2287.00,0.0019
2286.00,0.0019
2285.00,0.0019
2284.00,0.0018
2283.00,0.0017
2282.00,0.0016
2281.00,0.0016
2280.00,0.0015
2279.00,0.0015
2278.00,0.0014
2277.00,0.0014
2276.00,0.0013
2275.00,0.0013
2274.00,0.0013
2273.00,0.0014
2272.00,0.0014
2271.00,0.0013
2270.00,0.0013
2269.00,0.0012
2268.00,0.0011
2267.00,0.0011
2266.00,0.0010
2265.00,0.0010
2264.00,0.0010
2263.00,0.0010
2262.00,0.0010
2261.00,0.0011
2260.00,0.0012
2259.00,0.0013
2258.00,0.0014
2257.00,0.0014
2256.00,0.0012
2255.00,0.0010
2254.00,0.0009
2253.00,0.0009
2252.00,0.0010
2251.00,0.0010
2250.00,0.0011
2249.00,0.0010
2248.00,0.0009
2247.00,0.0009
2246.00,0.0009
2245.00,0.0009
2244.00,0.0008
2243.00,0.0008
2242.00,0.0009
2241.00,0.0009
2240.00,0.0010
2239.00,0.0011
2238.00,0.0011
2237.00,0.0011
2236.00,0.0011
2235.00,0.0010
2234.00,0.0008
2233.00,0.0007
2232.00,0.0007
2231.00,0.0008
2230.00,0.0010
2229.00,0.0012
2228.00,0.0012
2227.00,0.0011
2226.00,0.0009
2225.00,0.0007
2224.00,0.0007
2223.00,0.0007
2222.00,0.0007
2221.00,0.0007
2220.00,0.0006
2219.00,0.0006
2218.00,0.0006
2217.00,0.0006
2216.00,0.0006
2215.00,0.0006
2214.00,0.0007
2213.00,0.0007
2212.00,0.0006
2211.00,0.0005
2210.00,0.0004
2209.00,0.0004
2208.00,0.0003
2207.00,0.0003
2206.00,0.0003
2205.00,0.0003
2204.00,0.0004
2203.00,0.0004
2202.00,0.0004
2201.00,0.0005
2200.00,0.0006
2199.00,0.0006
2198.00,0.0006
2197.00,0.0006
2196.00,0.0005
2195.00,0.0006
2194.00,0.0007
2193.00,0.0008
2192.00,0.0009
2191.00,0.0008
2190.00,0.0008
2189.00,0.0008
2188.00,0.0008
2187.00,0.0007
2186.00,0.0006
2185.00,0.0005
2184.00,0.0004
2183.00,0.0004
2182.00,0.0004
2181.00,0.0005
2180.00,0.0005
2179.00,0.0004
2178.00,0.0002
2177.00,0.0000
2176.00,-0.0001
2175.00,-0.0001
2174.00,0.0001
2173.00,0.0005
2172.00,0.0010
2171.00,0.0014
2170.00,0.0017
2169.00,0.0019
2168.00,0.0021
2167.00,0.0021
2166.00,0.0021
2165.00,0.0019
2164.00,0.0016
2163.00,0.0012
2162.00,0.0009
2161.00,0.0006
2160.00,-0.0001
2159.00,-0.0013
2158.00,-0.0024
2157.00,-0.0031
2156.00,-0.0031
2155.00,-0.0029
2154.00,-0.0025
2153.00,-0.0020
2152.00,-0.0016
2151.00,-0.0014
2150.00,-0.0014
2149.00,-0.0013
2148.00,-0.0014
2147.00,-0.0014
2146.00,-0.0015
2145.00,-0.0014
2144.00,-0.0011
2143.00,-0.0009
2142.00,-0.0008
2141.00,-0.0008
2140.00,-0.0009
2139.00,-0.0010
2138.00,-0.0010
2137.00,-0.0009
2136.00,-0.0010
2135.00,-0.0012
2134.00,-0.0014
2133.00,-0.0015
2132.00,-0.0015
2131.00,-0.0014
2130.00,-0.0014
2129.00,-0.0013
2128.00,-0.0011
2127.00,-0.0009
2126.00,-0.0008
2125.00,-0.0007
2124.00,-0.0005
2123.00,-0.0004
2122.00,-0.0003
2121.00,-0.0002
2120.00,-0.0001
2119.00,0.0000
2118.00,0.0001
2117.00,0.0003
2116.00,0.0004
2115.00,0.0005
2114.00,0.0004
2113.00,0.0004
2112.00,0.0003
2111.00,0.0003
2110.00,0.0002
2109.00,0.0002
2108.00,0.0002
2107.00,0.0002
2106.00,0.0002
2105.00,0.0002
2104.00,0.0002
2103.00,0.0002
2102.00,0.0002
2101.00,0.0002
2100.00,0.0002
2099.00,0.0001
2098.00,-0.0001
2097.00,-0.0003
2096.00,-0.0004
2095.00,-0.0004
2094.00,-0.0004
2093.00,-0.0003
2092.00,-0.0001
2091.00,0.0000
2090.00,0.0002
2089.00,0.0003
2088.00,0.0003
2087.00,0.0003
2086.00,0.0004
2085.00,0.0005
2084.00,0.0005
2083.00,0.0004
2082.00,0.0004
2081.00,0.0004
2080.00,0.0004
2079.00,0.0003
2078.00,0.0002
2077.00,0.0002
2076.00,0.0002
2075.00,0.0002
2074.00,0.0003
2073.00,0.0005
2072.00,0.0005
2071.00,0.0005
2070.00,0.0004
2069.00,0.0003
2068.00,0.0003
2067.00,0.0002
2066.00,0.0001
2065.00,0.0000
2064.00,0.0000
2063.00,-0.0000
2062.00,-0.0001
2061.00,-0.0000
2060.00,0.0000
2059.00,0.0001
2058.00,0.0001
2057.00,0.0001
2056.00,0.0001
2055.00,0.0002
2054.00,0.0003
2053.00,0.0006
2052.00,0.0010
2051.00,0.0011
2050.00,0.0009
2049.00,0.0005
2048.00,0.0002
2047.00,-0.0000
2046.00,-0.0001
2045.00,-0.0002
2044.00,-0.0002
2043.00,-0.0003
2042.00,-0.0003
2041.00,-0.0002
2040.00,-0.0000
2039.00,0.0002
2038.00,0.0003
2037.00,0.0005
2036.00,0.0005
2035.00,0.0003
2034.00,-0.0001
2033.00,-0.0005
2032.00,-0.0008
2031.00,-0.0008
2030.00,-0.0006
2029.00,-0.0004
2028.00,-0.0005
2027.00,-0.0010
2026.00,-0.0016
2025.00,-0.0019
2024.00,-0.0018
2023.00,-0.0015
2022.00,-0.0010
2021.00,-0.0006
2020.00,-0.0003
2019.00,-0.0002
2018.00,-0.0002
2017.00,-0.0004
2016.00,-0.0005
2015.00,-0.0006
2014.00,-0.0007
2013.00,-0.0008
2012.00,-0.0009
2011.00,-0.0009
2010.00,-0.0010
2009.00,-0.0012
2008.00,-0.0015
2007.00,-0.0019
2006.00,-0.0022
2005.00,-0.0023
2004.00,-0.0024
2003.00,-0.0023
2002.00,-0.0022
2001.00,-0.0020
2000.00,-0.0017
1999.00,-0.0014
1998.00,-0.0011
1997.00,-0.0008
1996.00,-0.0007
1995.00,-0.0007
1994.00,-0.0008
1993.00,-0.0009
1992.00,-0.0008
1991.00,-0.0006
1990.00,-0.0005
1989.00,-0.0005
1988.00,-0.0005
1987.00,-0.0004
1986.00,-0.0002
1985.00,0.0002
1984.00,0.0006
1983.00,0.0008
1982.00,0.0010
1981.00,0.0012
1980.00,0.0011
1979.00,0.0007
1978.00,0.0000
1977.00,-0.0009
1976.00,-0.0016
1975.00,-0.0021
1974.00,-0.0023
1973.00,-0.0022
1972.00,-0.0020
1971.00,-0.0019
1970.00,-0.0018
1969.00,-0.0017
1968.00,-0.0016
1967.00,-0.0014
1966.00,-0.0012
1965.00,-0.0011
1964.00,-0.0009
1963.00,-0.0010
1962.00,-0.0011
1961.00,-0.0013
1960.00,-0.0015
1959.00,-0.0016
1958.00,-0.0017
1957.00,-0.0018
1956.00,-0.0017
1955.00,-0.0016
1954.00,-0.0014
1953.00,-0.0012
1952.00,-0.0011
1951.00,-0.0011
1950.00,-0.0012
1949.00,-0.0012
1948.00,-0.0012
1947.00,-0.0012
1946.00,-0.0014
1945.00,-0.0015
1944.00,-0.0017
1943.00,-0.0017
1942.00,-0.0016
1941.00,-0.0014
1940.00,-0.0013
1939.00,-0.0012
1938.00,-0.0011
1937.00,-0.0010
1936.00,-0.0009
1935.00,-0.0008
1934.00,-0.0008
1933.00,-0.0008
1932.00,-0.0008
1931.00,-0.0008
1930.00,-0.0008
1929.00,-0.0008
1928.00,-0.0007
1927.00,-0.0007
1926.00,-0.0007
1925.00,-0.0006
1924.00,-0.0006
1923.00,-0.0005
1922.00,-0.0005
1921.00,-0.0004
1920.00,-0.0003
1919.00,-0.0003
1918.00,-0.0002
1917.00,-0.0002
1916.00,-0.0002
1915.00,-0.0003
1914.00,-0.0004
1913.00,-0.0004
1912.00,-0.0003
1911.00,-0.0002
1910.00,-0.0002
1909.00,-0.0002
1908.00,-0.0003
1907.00,-0.0003
1906.00,-0.0002
1905.00,-0.0002
1904.00,-0.0002
1903.00,-0.0002
1902.00,-0.0002
1901.00,-0.0002
1900.00,-0.0001
1899.00,0.0000
1898.00,0.0001
1897.00,0.0001
1896.00,0.0000
1895.00,-0.0001
1894.00,-0.0001
1893.00,-0.0001
1892.00,-0.0000
1891.00,0.0000
1890.00,0.0000
1889.00,-0.0000
1888.00,-0.0001
1887.00,-0.0001
1886.00,-0.0001
1885.00,-0.0001
1884.00,-0.0000
1883.00,-0.0000
1882.00,-0.0001
1881.00,-0.0001
1880.00,-0.0001
1879.00,-0.0001
1878.00,-0.0001
1877.00,-0.0001
1876.00,-0.0000
1875.00,0.0000
1874.00,0.0001
1873.00,0.0003
1872.00,0.0004
1871.00,0.0004
1870.00,0.0004
1869.00,0.0003
1868.00,0.0001
1867.00,-0.0001
1866.00,-0.0002
1865.00,-0.0002
1864.00,-0.0001
1863.00,-0.0001
1862.00,-0.0000
1861.00,0.0000
1860.00,0.0001
1859.00,0.0002
1858.00,0.0002
1857.00,0.0003
1856.00,0.0002
1855.00,0.0002
1854.00,0.0001
1853.00,0.0001
1852.00,0.0001
1851.00,0.0002
1850.00,0.0002
1849.00,0.0002
1848.00,0.0002
1847.00,0.0002
1846.00,0.0002
1845.00,0.0003
1844.00,0.0003
1843.00,0.0003
1842.00,0.0002
1841.00,0.0003
1840.00,0.0003
1839.00,0.0003
1838.00,0.0003
1837.00,0.0003
1836.00,0.0002
1835.00,0.0002
1834.00,0.0002
1833.00,0.0002
1832.00,0.0002
1831.00,0.0002
1830.00,0.0002
1829.00,0.0003
1828.00,0.0003
1827.00,0.0003
1826.00,0.0003
1825.00,0.0003
1824.00,0.0004
1823.00,0.0004
1822.00,0.0004
1821.00,0.0003
1820.00,0.0002
1819.00,0.0001
1818.00,0.0001
1817.00,0.0000
1816.00,0.0000
1815.00,0.0001
1814.00,0.0002
1813.00,0.0003
1812.00,0.0004
1811.00,0.0005
1810.00,0.0004
1809.00,0.0004
1808.00,0.0005
1807.00,0.0005
1806.00,0.0005
1805.00,0.0004
1804.00,0.0005
1803.00,0.0005
1802.00,0.0006
1801.00,0.0006
1800.00,0.0006
1799.00,0.0006
1798.00,0.0006
1797.00,0.0006
1796.00,0.0006
1795.00,0.0007
1794.00,0.0007
1793.00,0.0007
1792.00,0.0008
1791.00,0.0008
1790.00,0.0008
1789.00,0.0009
1788.00,0.0009
1787.00,0.0009
1786.00,0.0008
1785.00,0.0008
1784.00,0.0008
1783.00,0.0008
1782.00,0.0009
1781.00,0.0009
1780.00,0.0009
1779.00,0.0008
1778.00,0.0008
1777.00,0.0007
1776.00,0.0008
1775.00,0.0008
1774.00,0.0008
1773.00,0.0009
1772.00,0.0009
1771.00,0.0010
1770.00,0.0011
1769.00,0.0011
1768.00,0.0012
1767.00,0.0012
1766.00,0.0012
1765.00,0.0012
1764.00,0.0012
1763.00,0.0012
1762.00,0.0013
1761.00,0.0013
1760.00,0.0012
1759.00,0.0012
1758.00,0.0012
1757.00,0.0013
1756.00,0.0014
1755.00,0.0014
1754.00,0.0015
1753.00,0.0015
1752.00,0.0016
1751.00,0.0017
1750.00,0.0018
1749.00,0.0019
1748.00,0.0020
1747.00,0.0021
1746.00,0.0021
1745.00,0.0021
1744.00,0.0021
1743.00,0.0021
1742.00,0.0022
1741.00,0.0023
1740.00,0.0024
1739.00,0.0024
1738.00,0.0025
1737.00,0.0025
1736.00,0.0026
1735.00,0.0026
1734.00,0.0026
1733.00,0.0026
1732.00,0.0026
1731.00,0.0026
1730.00,0.0026
1729.00,0.0025
1728.00,0.0025
1727.00,0.0026
1726.00,0.0026
1725.00,0.0027
1724.00,0.0027
1723.00,0.0027
1722.00,0.0027
1721.00,0.0027
1720.00,0.0027
1719.00,0.0027
1718.00,0.0027
1717.00,0.0027
1716.00,0.0026
1715.00,0.0026
1714.00,0.0025
1713.00,0.0024
1712.00,0.0024
1711.00,0.0025
1710.00,0.0025
1709.00,0.0026
1708.00,0.0026
1707.00,0.0026
1706.00,0.0026
1705.00,0.0027
1704.00,0.0027
1703.00,0.0028
1702.00,0.0028
1701.00,0.0029
1700.00,0.0030
1699.00,0.0032
1698.00,0.0033
1697.00,0.0033
1696.00,0.0033
1695.00,0.0034
1694.00,0.0034
1693.00,0.0035
1692.00,0.0035
1691.00,0.0036
1690.00,0.0037
1689.00,0.0038
1688.00,0.0039
1687.00,0.0040
1686.00,0.0040
1685.00,0.0041
1684.00,0.0043
1683.00,0.0046
1682.00,0.0048
1681.00,0.0050
1680.00,0.0051
1679.00,0.0052
1678.00,0.0052
1677.00,0.0053
1676.00,0.0054
1675.00,0.0055
1674.00,0.0056
1673.00,0.0058
1672.00,0.0059
1671.00,0.0060
1670.00,0.0060
1669.00,0.0061
1668.00,0.0062
1667.00,0.0063
1666.00,0.0063
1665.00,0.0063
1664.00,0.0064
1663.00,0.0064
1662.00,0.0065
1661.00,0.0065
1660.00,0.0066
1659.00,0.0066
1658.00,0.0066
1657.00,0.0066
1656.00,0.0067
1655.00,0.0066
1654.00,0.0067
1653.00,0.0068
1652.00,0.0070
1651.00,0.0072
1650.00,0.0072
1649.00,0.0072
1648.00,0.0072
1647.00,0.0072
1646.00,0.0072
1645.00,0.0072
1644.00,0.0073
1643.00,0.0073
1642.00,0.0074
1641.00,0.0074
1640.00,0.0075
1639.00,0.0075
1638.00,0.0075
1637.00,0.0075
1636.00,0.0074
1635.00,0.0074
1634.00,0.0074
1633.00,0.0074
1632.00,0.0074
1631.00,0.0073
1630.00,0.0072
1629.00,0.0072
1628.00,0.0071
1627.00,0.0070
1626.00,0.0069
1625.00,0.0069
1624.00,0.0068
1623.00,0.0067
1622.00,0.0066
1621.00,0.0066
1620.00,0.0066
1619.00,0.0065
1618.00,0.0065
1617.00,0.0064
1616.00,0.0064
1615.00,0.0064
1614.00,0.0064
1613.00,0.0064
1612.00,0.0064
1611.00,0.0064
1610.00,0.0064
1609.00,0.0063
1608.00,0.0063
1607.00,0.0062
1606.00,0.0062
1605.00,0.0062
1604.00,0.0062
1603.00,0.0062
1602.00,0.0062
1601.00,0.0062
1600.00,0.0062
1599.00,0.0061
1598.00,0.0061
1597.00,0.0061
1596.00,0.0061
1595.00,0.0061
1594.00,0.0061
1593.00,0.0061
1592.00,0.0061
1591.00,0.0062
1590.00,0.0062
1589.00,0.0063
1588.00,0.0065
1587.00,0.0066
1586.00,0.0067
1585.00,0.0068
1584.00,0.0070
1583.00,0.0073
1582.00,0.0075
1581.00,0.0078
1580.00,0.0081
1579.00,0.0083
1578.00,0.0084
1577.00,0.0084
1576.00,0.0084
1575.00,0.0084
1574.00,0.0083
1573.00,0.0083
1572.00,0.0082
1571.00,0.0080
1570.00,0.0079
1569.00,0.0078
1568.00,0.0077
1567.00,0.0076
1566.00,0.0075
1565.00,0.0075
1564.00,0.0075
1563.00,0.0075
1562.00,0.0075
1561.00,0.0075
1560.00,0.0076
1559.00,0.0077
1558.00,0.0077
1557.00,0.0079
1556.00,0.0080
1555.00,0.0080
1554.00,0.0081
1553.00,0.0081
1552.00,0.0082
1551.00,0.0083
1550.00,0.0084
1549.00,0.0086
1548.00,0.0087
1547.00,0.0089
1546.00,0.0091
1545.00,0.0093
1544.00,0.0096
1543.00,0.0098
1542.00,0.0099
1541.00,0.0099
1540.00,0.0097
1539.00,0.0094
1538.00,0.0092
1537.00,0.0089
1536.00,0.0087
1535.00,0.0083
1534.00,0.0079
1533.00,0.0075
1532.00,0.0072
1531.00,0.0071
1530.00,0.0069
1529.00,0.0069
1528.00,0.0068
1527.00,0.0067
1526.00,0.0066
1525.00,0.0066
1524.00,0.0066
1523.00,0.0065
1522.00,0.0065
1521.00,0.0065
1520.00,0.0066
1519.00,0.0066
1518.00,0.0066
1517.00,0.0066
1516.00,0.0067
1515.00,0.0067
1514.00,0.0067
1513.00,0.0068
1512.00,0.0069
1511.00,0.0069
1510.00,0.0070
1509.00,0.0071
1508.00,0.0072
1507.00,0.0072
1506.00,0.0072
1505.00,0.0073
1504.00,0.0075
1503.00,0.0076
1502.00,0.0077
1501.00,0.0080
1500.00,0.0083
1499.00,0.0086
1498.00,0.0088
1497.00,0.0091
1496.00,0.0095
1495.00,0.0097
1494.00,0.0099
1493.00,0.0102
1492.00,0.0106
1491.00,0.0110
1490.00,0.0115
1489.00,0.0121
1488.00,0.0127
1487.00,0.0132
1486.00,0.0137
1485.00,0.0143
1484.00,0.0150
1483.00,0.0158
1482.00,0.0167
1481.00,0.0179
1480.00,0.0192
1479.00,0.0205
1478.00,0.0221
1477.00,0.0242
1476.00,0.0268
1475.00,0.0296
1474.00,0.0335
1473.00,0.0390
1472.00,0.0456
1471.00,0.0519
1470.00,0.0579
1469.00,0.0642
1468.00,0.0709
1467.00,0.0782
1466.00,0.0864
1465.00,0.0953
1464.00,0.1031
1463.00,0.1085
1462.00,0.1120
1461.00,0.1145
1460.00,0.1163
1459.00,0.1177
1458.00,0.1191
1457.00,0.1203
1456.00,0.1206
1455.00,0.1202
1454.00,0.1193
1453.00,0.1179
1452.00,0.1157
1451.00,0.1124
1450.00,0.1076
1449.00,0.1008
1448.00,0.0920
1447.00,0.0826
1446.00,0.0740
1445.00,0.0666
1444.00,0.0602
1443.00,0.0548
1442.00,0.0507
1441.00,0.0477
1440.00,0.0458
1439.00,0.0447
1438.00,0.0443
1437.00,0.0439
1436.00,0.0426
1435.00,0.0402
1434.00,0.0369
1433.00,0.0329
1432.00,0.0288
1431.00,0.0251
1430.00,0.0222
1429.00,0.0200
1428.00,0.0185
1427.00,0.0175
1426.00,0.0169
1425.00,0.0163
1424.00,0.0158
1423.00,0.0154
1422.00,0.0153
1421.00,0.0150
1420.00,0.0146
1419.00,0.0143
1418.00,0.0140
1417.00,0.0137
1416.00,0.0134
1415.00,0.0131
1414.00,0.0130
1413.00,0.0127
1412.00,0.0124
1411.00,0.0123
1410.00,0.0122
1409.00,0.0121
1408.00,0.0120
1407.00,0.0119
1406.00,0.0119
1405.00,0.0119
1404.00,0.0118
1403.00,0.0118
1402.00,0.0119
1401.00,0.0119
1400.00,0.0120
1399.00,0.0121
1398.00,0.0123
1397.00,0.0124
1396.00,0.0125
1395.00,0.0128
1394.00,0.0132
1393.00,0.0137
1392.00,0.0142
1391.00,0.0149
1390.00,0.0158
1389.00,0.0172
1388.00,0.0193
1387.00,0.0225
1386.00,0.0268
1385.00,0.0323
1384.00,0.0399
1383.00,0.0504
1382.00,0.0645
1381.00,0.0824
1380.00,0.1038
1379.00,0.1275
1378.00,0.1494
1377.00,0.1646
1376.00,0.1686
1375.00,0.1590
1374.00,0.1386
1373.00,0.1148
1372.00,0.0933
1371.00,0.0758
1370.00,0.0617
1369.00,0.0510
1368.00,0.0435
1367.00,0.0388
1366.00,0.0362
1365.00,0.0351
1364.00,0.0352
1363.00,0.0363
1362.00,0.0380
1361.00,0.0399
1360.00,0.0413
1359.00,0.0416
1358.00,0.0407
1357.00,0.0386
1356.00,0.0355
1355.00,0.0320
1354.00,0.0286
1353.00,0.0257
1352.00,0.0233
1351.00,0.0214
1350.00,0.0198
1349.00,0.0184
1348.00,0.0173
1347.00,0.0164
1346.00,0.0156
1345.00,0.0149
1344.00,0.0143
1343.00,0.0138
1342.00,0.0134
1341.00,0.0130
1340.00,0.0127
1339.00,0.0125
1338.00,0.0124
1337.00,0.0123
1336.00,0.0124
1335.00,0.0126
1334.00,0.0128
1333.00,0.0131
1332.00,0.0135
1331.00,0.0137
1330.00,0.0138
1329.00,0.0137
1328.00,0.0135
1327.00,0.0131
1326.00,0.0126
1325.00,0.0121
1324.00,0.0117
1323.00,0.0112
1322.00,0.0109
1321.00,0.0106
1320.00,0.0104
1319.00,0.0102
1318.00,0.0101
1317.00,0.0099
1316.00,0.0098
1315.00,0.0098
1314.00,0.0098
1313.00,0.0098
1312.00,0.0099
1311.00,0.0102
1310.00,0.0107
1309.00,0.0115
1308.00,0.0126
1307.00,0.0139
1306.00,0.0153
1305.00,0.0161
1304.00,0.0164
1303.00,0.0160
1302.00,0.0153
1301.00,0.0146
1300.00,0.0141
1299.00,0.0139
1298.00,0.0138
1297.00,0.0137
1296.00,0.0135
1295.00,0.0132
1294.00,0.0129
1293.00,0.0125
1292.00,0.0120
1291.00,0.0116
1290.00,0.0112
1289.00,0.0108
1288.00,0.0105
1287.00,0.0102
1286.00,0.0099
1285.00,0.0097
1284.00,0.0095
1283.00,0.0093
1282.00,0.0092
1281.00,0.0091
1280.00,0.0091
1279.00,0.0090
1278.00,0.0089
1277.00,0.0088
1276.00,0.0088
1275.00,0.0087
1274.00,0.0088
1273.00,0.0088
1272.00,0.0089
1271.00,0.0090
1270.00,0.0092
1269.00,0.0094
1268.00,0.0097
1267.00,0.0100
1266.00,0.0104
1265.00,0.0107
1264.00,0.0111
1263.00,0.0115
1262.00,0.0118
1261.00,0.0123
1260.00,0.0129
1259.00,0.0136
1258.00,0.0144
1257.00,0.0151
1256.00,0.0154
1255.00,0.0151
1254.00,0.0143
1253.00,0.0133
1252.00,0.0122
1251.00,0.0113
1250.00,0.0106
1249.00,0.0101
1248.00,0.0097
1247.00,0.0093
1246.00,0.0090
1245.00,0.0088
1244.00,0.0087
1243.00,0.0086
1242.00,0.0086
1241.00,0.0085
1240.00,0.0084
1239.00,0.0083
1238.00,0.0082
1237.00,0.0082
1236.00,0.0082
1235.00,0.0082
1234.00,0.0082
1233.00,0.0083
1232.00,0.0084
1231.00,0.0084
1230.00,0.0085
1229.00,0.0085
1228.00,0.0086
1227.00,0.0087
1226.00,0.0089
1225.00,0.0092
1224.00,0.0095
1223.00,0.0098
1222.00,0.0102
1221.00,0.0104
1220.00,0.0106
1219.00,0.0106
1218.00,0.0106
1217.00,0.0104
1216.00,0.0102
1215.00,0.0100
1214.00,0.0097
1213.00,0.0094
1212.00,0.0092
1211.00,0.0090
1210.00,0.0088
1209.00,0.0087
1208.00,0.0087
1207.00,0.0086
1206.00,0.0086
1205.00,0.0086
1204.00,0.0086
1203.00,0.0086
1202.00,0.0086
1201.00,0.0086
1200.00,0.0085
1199.00,0.0085
1198.00,0.0084
1197.00,0.0084
1196.00,0.0085
1195.00,0.0085
1194.00,0.0086
1193.00,0.0086
1192.00,0.0085
1191.00,0.0085
1190.00,0.0085
1189.00,0.0086
1188.00,0.0086
1187.00,0.0087
1186.00,0.0087
1185.00,0.0088
1184.00,0.0089
1183.00,0.0091
1182.00,0.0093
1181.00,0.0096
1180.00,0.0101
1179.00,0.0106
1178.00,0.0114
1177.00,0.0123
1176.00,0.0135
1175.00,0.0153
1174.00,0.0176
1173.00,0.0206
1172.00,0.0243
1171.00,0.0282
1170.00,0.0321
1169.00,0.0352
1168.00,0.0370
1167.00,0.0373
1166.00,0.0361
1165.00,0.0341
1164.00,0.0316
1163.00,0.0293
1162.00,0.0272
1161.00,0.0255
1160.00,0.0242
1159.00,0.0233
1158.00,0.0225
1157.00,0.0220
1156.00,0.0216
1155.00,0.0213
1154.00,0.0210
1153.00,0.0206
1152.00,0.0201
1151.00,0.0194
1150.00,0.0186
1149.00,0.0176
1148.00,0.0165
1147.00,0.0155
1146.00,0.0146
1145.00,0.0138
1144.00,0.0132
1143.00,0.0126
1142.00,0.0121
1141.00,0.0115
1140.00,0.0110
1139.00,0.0105
1138.00,0.0101
1137.00,0.0097
1136.00,0.0095
1135.00,0.0094
1134.00,0.0093
1133.00,0.0092
1132.00,0.0092
1131.00,0.0092
1130.00,0.0092
1129.00,0.0092
1128.00,0.0092
1127.00,0.0093
1126.00,0.0093
1125.00,0.0094
1124.00,0.0095
1123.00,0.0096
1122.00,0.0097
1121.00,0.0098
1120.00,0.0099
1119.00,0.0099
1118.00,0.0100
1117.00,0.0101
1116.00,0.0103
1115.00,0.0106
1114.00,0.0108
1113.00,0.0110
1112.00,0.0112
1111.00,0.0115
1110.00,0.0118
1109.00,0.0121
1108.00,0.0125
1107.00,0.0130
1106.00,0.0136
1105.00,0.0141
1104.00,0.0145
1103.00,0.0148
1102.00,0.0147
1101.00,0.0144
1100.00,0.0139
1099.00,0.0134
1098.00,0.0129
1097.00,0.0124
1096.00,0.0119
1095.00,0.0115
1094.00,0.0112
1093.00,0.0109
1092.00,0.0107
1091.00,0.0105
1090.00,0.0103
1089.00,0.0102
1088.00,0.0102
1087.00,0.0101
1086.00,0.0101
1085.00,0.0100
1084.00,0.0100
1083.00,0.0099
1082.00,0.0098
1081.00,0.0097
1080.00,0.0095
1079.00,0.0094
1078.00,0.0093
1077.00,0.0092
1076.00,0.0091
1075.00,0.0091
1074.00,0.0090
1073.00,0.0090
1072.00,0.0090
1071.00,0.0090
1070.00,0.0091
1069.00,0.0090
1068.00,0.0089
1067.00,0.0089
1066.00,0.0090
1065.00,0.0091
1064.00,0.0093
1063.00,0.0094
1062.00,0.0094
1061.00,0.0095
1060.00,0.0096
1059.00,0.0097
1058.00,0.0099
1057.00,0.0101
1056.00,0.0103
1055.00,0.0104
1054.00,0.0105
1053.00,0.0107
1052.00,0.0111
1051.00,0.0117
1050.00,0.0123
1049.00,0.0129
1048.00,0.0135
1047.00,0.0140
1046.00,0.0145
1045.00,0.0148
1044.00,0.0149
1043.00,0.0148
1042.00,0.0145
1041.00,0.0141
1040.00,0.0138
1039.00,0.0137
1038.00,0.0137
1037.00,0.0137
1036.00,0.0137
1035.00,0.0136
1034.00,0.0135
1033.00,0.0133
1032.00,0.0131
1031.00,0.0130
1030.00,0.0129
1029.00,0.0130
1028.00,0.0131
1027.00,0.0132
1026.00,0.0134
1025.00,0.0137
1024.00,0.0139
1023.00,0.0141
1022.00,0.0142
1021.00,0.0144
1020.00,0.0146
1019.00,0.0148
1018.00,0.0150
1017.00,0.0152
1016.00,0.0154
1015.00,0.0155
1014.00,0.0155
1013.00,0.0154
1012.00,0.0153
1011.00,0.0153
1010.00,0.0154
1009.00,0.0156
1008.00,0.0159
1007.00,0.0164
1006.00,0.0172
1005.00,0.0185
1004.00,0.0204
1003.00,0.0231
1002.00,0.0267
1001.00,0.0313
1000.00,0.0362
999.00,0.0405
998.00,0.0428
997.00,0.0423
996.00,0.0390
995.00,0.0342
994.00,0.0290
993.00,0.0244
992.00,0.0208
991.00,0.0182
990.00,0.0163
989.00,0.0151
988.00,0.0143
987.00,0.0138
986.00,0.0136
985.00,0.0136
984.00,0.0140
983.00,0.0147
982.00,0.0158
981.00,0.0174
980.00,0.0197
979.00,0.0229
978.00,0.0269
977.00,0.0319
976.00,0.0373
975.00,0.0427
974.00,0.0469
973.00,0.0487
972.00,0.0474
971.00,0.0430
970.00,0.0369
969.00,0.0306
968.00,0.0251
967.00,0.0208
966.00,0.0176
965.00,0.0152
964.00,0.0136
963.00,0.0124
962.00,0.0116
961.00,0.0109
960.00,0.0104
959.00,0.0100
958.00,0.0097
957.00,0.0094
956.00,0.0091
955.00,0.0088
954.00,0.0085
953.00,0.0083
952.00,0.0083
951.00,0.0082
950.00,0.0082
949.00,0.0081
948.00,0.0080
947.00,0.0080
946.00,0.0080
945.00,0.0082
944.00,0.0084
943.00,0.0088
942.00,0.0091
941.00,0.0094
940.00,0.0095
939.00,0.0093
938.00,0.0089
937.00,0.0084
936.00,0.0079
935.00,0.0075
934.00,0.0073
933.00,0.0071
932.00,0.0070
931.00,0.0069
930.00,0.0068
929.00,0.0067
928.00,0.0067
927.00,0.0067
926.00,0.0068
925.00,0.0068
924.00,0.0067
923.00,0.0067
922.00,0.0066
921.00,0.0066
920.00,0.0066
919.00,0.0067
918.00,0.0068
917.00,0.0069
916.00,0.0070
915.00,0.0071
914.00,0.0072
913.00,0.0074
912.00,0.0075
911.00,0.0077
910.00,0.0079
909.00,0.0080
908.00,0.0081
907.00,0.0084
906.00,0.0090
905.00,0.0098
904.00,0.0110
903.00,0.0126
902.00,0.0142
901.00,0.0157
900.00,0.0167
899.00,0.0169
898.00,0.0162
897.00,0.0149
896.00,0.0134
895.00,0.0119
894.00,0.0106
893.00,0.0097
892.00,0.0090
891.00,0.0086
890.00,0.0084
889.00,0.0083
888.00,0.0082
887.00,0.0081
886.00,0.0079
885.00,0.0077
884.00,0.0076
883.00,0.0077
882.00,0.0077
881.00,0.0078
880.00,0.0079
879.00,0.0080
878.00,0.0081
877.00,0.0083
876.00,0.0084
875.00,0.0085
874.00,0.0086
873.00,0.0085
872.00,0.0085
871.00,0.0085
870.00,0.0085
869.00,0.0084
868.00,0.0084
867.00,0.0085
866.00,0.0086
865.00,0.0087
864.00,0.0088
863.00,0.0089
862.00,0.0090
861.00,0.0090
860.00,0.0090
859.00,0.0090
858.00,0.0091
857.00,0.0092
856.00,0.0094
855.00,0.0097
854.00,0.0100
853.00,0.0104
852.00,0.0108
851.00,0.0114
850.00,0.0121
849.00,0.0128
848.00,0.0138
847.00,0.0153
846.00,0.0177
845.00,0.0217
844.00,0.0274
843.00,0.0343
842.00,0.0403
841.00,0.0426
840.00,0.0402
839.00,0.0342
838.00,0.0273
837.00,0.0216
836.00,0.0179
835.00,0.0156
834.00,0.0142
833.00,0.0133
832.00,0.0126
831.00,0.0122
830.00,0.0118
829.00,0.0116
828.00,0.0113
827.00,0.0111
826.00,0.0110
825.00,0.0108
824.00,0.0107
823.00,0.0107
822.00,0.0109
821.00,0.0112
820.00,0.0116
819.00,0.0119
818.00,0.0123
817.00,0.0128
816.00,0.0135
815.00,0.0144
814.00,0.0155
813.00,0.0170
812.00,0.0186
811.00,0.0201
810.00,0.0212
809.00,0.0217
808.00,0.0215
807.00,0.0206
806.00,0.0193
805.00,0.0177
804.00,0.0162
803.00,0.0149
802.00,0.0139
801.00,0.0132
800.00,0.0126
799.00,0.0122
798.00,0.0118
797.00,0.0114
796.00,0.0110
795.00,0.0108
794.00,0.0106
793.00,0.0103
792.00,0.0100
791.00,0.0096
790.00,0.0092
789.00,0.0088
788.00,0.0085
787.00,0.0082
786.00,0.0080
785.00,0.0078
784.00,0.0075
783.00,0.0074
782.00,0.0073
781.00,0.0073
780.00,0.0073
779.00,0.0072
778.00,0.0071
777.00,0.0070
776.00,0.0070
775.00,0.0071
774.00,0.0072
773.00,0.0072
772.00,0.0073
771.00,0.0072
770.00,0.0071
769.00,0.0070
768.00,0.0069
767.00,0.0068
766.00,0.0069
765.00,0.0070
764.00,0.0071
763.00,0.0072
762.00,0.0073
761.00,0.0074
760.00,0.0074
759.00,0.0074
758.00,0.0075
757.00,0.0076
756.00,0.0078
755.00,0.0079
754.00,0.0080
753.00,0.0081
752.00,0.0082
751.00,0.0083
750.00,0.0084
749.00,0.0085
748.00,0.0086
747.00,0.0088
746.00,0.0090
745.00,0.0092
744.00,0.0094
743.00,0.0095
742.00,0.0098
741.00,0.0103
740.00,0.0108
739.00,0.0112
738.00,0.0116
737.00,0.0118
736.00,0.0122
735.00,0.0126
734.00,0.0131
733.00,0.0137
732.00,0.0145
731.00,0.0152
730.00,0.0158
729.00,0.0161
728.00,0.0161
727.00,0.0161
726.00,0.0163
725.00,0.0166
724.00,0.0171
723.00,0.0177
722.00,0.0181
721.00,0.0183
720.00,0.0181
719.00,0.0174
718.00,0.0162
717.00,0.0149
716.00,0.0138
715.00,0.0131
714.00,0.0126
713.00,0.0122
712.00,0.0119
711.00,0.0117
710.00,0.0115
709.00,0.0114
708.00,0.0112
707.00,0.0111
706.00,0.0112
705.00,0.0112
704.00,0.0113
703.00,0.0113
702.00,0.0111
701.00,0.0109
700.00,0.0106
699.00,0.0104
698.00,0.0102
697.00,0.0101
696.00,0.0101
695.00,0.0101
694.00,0.0102
693.00,0.0101
692.00,0.0101
691.00,0.0099
690.00,0.0099
689.00,0.0099
688.00,0.0101
687.00,0.0102
686.00,0.0103
685.00,0.0102
684.00,0.0101
683.00,0.0101
682.00,0.0102
681.00,0.0103
680.00,0.0105
679.00,0.0106
678.00,0.0106
677.00,0.0105
676.00,0.0104
675.00,0.0106
674.00,0.0108
673.00,0.0110
672.00,0.0111
671.00,0.0113
670.00,0.0114
669.00,0.0114
668.00,0.0112
667.00,0.0108
666.00,0.0105
665.00,0.0103
664.00,0.0101
663.00,0.0100
662.00,0.0099
661.00,0.0097
660.00,0.0096
659.00,0.0093
658.00,0.0090
657.00,0.0088
656.00,0.0087
655.00,0.0089
654.00,0.0091
653.00,0.0092
652.00,0.0093
651.00,0.0094
650.00,0.0094
649.00,0.0095
648.00,0.0096
647.00,0.0097
646.00,0.0098
645.00,0.0098
644.00,0.0097
643.00,0.0096
642.00,0.0094
641.00,0.0093
640.00,0.0093
639.00,0.0094
638.00,0.0095
637.00,0.0096
636.00,0.0096
635.00,0.0097
634.00,0.0098
633.00,0.0098
632.00,0.0097
631.00,0.0096
630.00,0.0095
629.00,0.0095
628.00,0.0096
627.00,0.0097
626.00,0.0096
625.00,0.0096
624.00,0.0096
623.00,0.0097
622.00,0.0098
621.00,0.0100
620.00,0.0100
619.00,0.0099
618.00,0.0097
617.00,0.0093
616.00,0.0089
615.00,0.0088
614.00,0.0088
613.00,0.0089
612.00,0.0090
611.00,0.0093
610.00,0.0096
609.00,0.0098
608.00,0.0099
607.00,0.0099
606.00,0.0097
605.00,0.0094
604.00,0.0091
603.00,0.0090
602.00,0.0092
601.00,0.0094
600.00,0.0094
599.00,0.0093
598.00,0.0092
597.00,0.0091
596.00,0.0090
595.00,0.0090
594.00,0.0090
593.00,0.0090
592.00,0.0089
591.00,0.0088
590.00,0.0086
589.00,0.0083
588.00,0.0081
587.00,0.0083
586.00,0.0088
585.00,0.0093
584.00,0.0096
583.00,0.0099
582.00,0.0101
581.00,0.0101
580.00,0.0100
579.00,0.0100
578.00,0.0101
577.00,0.0100
576.00,0.0095
575.00,0.0089
574.00,0.0086
573.00,0.0086
572.00,0.0087
571.00,0.0088
570.00,0.0089
569.00,0.0090
568.00,0.0092
567.00,0.0095
566.00,0.0096
565.00,0.0097
564.00,0.0096
563.00,0.0095
562.00,0.0096
561.00,0.0096
560.00,0.0096
559.00,0.0094
558.00,0.0091
557.00,0.0089
556.00,0.0088
555.00,0.0091
554.00,0.0097
553.00,0.0101
552.00,0.0102
551.00,0.0101
550.00,0.0102
549.00,0.0106
548.00,0.0110
547.00,0.0112
546.00,0.0113
545.00,0.0113
544.00,0.0113
543.00,0.0114
542.00,0.0116
541.00,0.0116
540.00,0.0116
539.00,0.0117
538.00,0.0119
537.00,0.0121
536.00,0.0122
535.00,0.0121
534.00,0.0122
533.00,0.0124
532.00,0.0124
531.00,0.0122
530.00,0.0120
529.00,0.0119
528.00,0.0120
527.00,0.0123
526.00,0.0123
525.00,0.0120
524.00,0.0114
523.00,0.0110
522.00,0.0108
521.00,0.0108
520.00,0.0108
519.00,0.0108
518.00,0.0107
517.00,0.0106
516.00,0.0103
515.00,0.0097
514.00,0.0092
513.00,0.0089
512.00,0.0089
511.00,0.0090
510.00,0.0092
509.00,0.0095
508.00,0.0100
507.00,0.0105
506.00,0.0106
505.00,0.0106
504.00,0.0105
503.00,0.0103
502.00,0.0099
501.00,0.0092
500.00,0.0086
499.00,0.0083
498.00,0.0083
497.00,0.0086
496.00,0.0087
495.00,0.0088
494.00,0.0087
493.00,0.0087
492.00,0.0087
491.00,0.0087
490.00,0.0087
489.00,0.0086
488.00,0.0086
487.00,0.0088
486.00,0.0089
485.00,0.0087
484.00,0.0084
483.00,0.0082
482.00,0.0081
481.00,0.0080
480.00,0.0078
479.00,0.0078
478.00,0.0085
477.00,0.0097
476.00,0.0107
475.00,0.0110
474.00,0.0108
473.00,0.0107
472.00,0.0110
471.00,0.0117
470.00,0.0126
469.00,0.0135
468.00,0.0143
467.00,0.0152
466.00,0.0161
465.00,0.0165
464.00,0.0165
463.00,0.0167
462.00,0.0174
461.00,0.0184
460.00,0.0192
459.00,0.0197
458.00,0.0201
457.00,0.0206
456.00,0.0209
455.00,0.0206
454.00,0.0193
453.00,0.0174
452.00,0.0157
451.00,0.0149
450.00,0.0149
