Created as New Dataset,Sample 008 By Administrator Date Friday, September 05 2025
cm-1,A
4000.00,0.0009
3999.00,0.0009
3998.00,0.0009
3997.00,0.0009
3996.00,0.0008
3995.00,0.0008
3994.00,0.0008
3993.00,0.0008
3992.00,0.0008
3991.00,0.0009
3990.00,0.0009
3989.00,0.0009
3988.00,0.0008
3987.00,0.0008
3986.00,0.0008
3985.00,0.0008
3984.00,0.0008
3983.00,0.0008
3982.00,0.0008
3981.00,0.0008
3980.00,0.0008
3979.00,0.0008
3978.00,0.0008
3977.00,0.0008
3976.00,0.0008
3975.00,0.0008
3974.00,0.0008
3973.00,0.0008
3972.00,0.0007
3971.00,0.0007
3970.00,0.0007
3969.00,0.0006
3968.00,0.0006
3967.00,0.0007
3966.00,0.0007
3965.00,0.0007
3964.00,0.0008
3963.00,0.0007
3962.00,0.0007
3961.00,0.0007
3960.00,0.0007
3959.00,0.0007
3958.00,0.0006
3957.00,0.0006
3956.00,0.0006
3955.00,0.0006
3954.00,0.0006
3953.00,0.0007
3952.00,0.0007
3951.00,0.0007
3950.00,0.0007
3949.00,0.0007
3948.00,0.0007
3947.00,0.0006
3946.00,0.0006
3945.00,0.0006
3944.00,0.0006
3943.00,0.0007
3942.00,0.0007
3941.00,0.0007
3940.00,0.0007
3939.00,0.0007
3938.00,0.0007
3937.00,0.0007
3936.00,0.0007
3935.00,0.0008
3934.00,0.0008
3933.00,0.0008
3932.00,0.0008
3931.00,0.0007
3930.00,0.0007
3929.00,0.0007
3928.00,0.0007
3927.00,0.0007
3926.00,0.0008
3925.00,0.0008
3924.00,0.0008
3923.00,0.0008
3922.00,0.0008
3921.00,0.0007
3920.00,0.0007
3919.00,0.0006
3918.00,0.0006
3917.00,0.0007
3916.00,0.0007
3915.00,0.0007
3914.00,0.0007
3913.00,0.0007
3912.00,0.0007
3911.00,0.0007
3910.00,0.0007
3909.00,0.0008
3908.00,0.0008
3907.00,0.0008
3906.00,0.0008
3905.00,0.0008
3904.00,0.0008
3903.00,0.0008
3902.00,0.0007
3901.00,0.0007
3900.00,0.0007
3899.00,0.0007
3898.00,0.0007
3897.00,0.0007
3896.00,0.0007
3895.00,0.0007
3894.00,0.0008
3893.00,0.0008
3892.00,0.0008
3891.00,0.0008
3890.00,0.0008
3889.00,0.0007
3888.00,0.0007
3887.00,0.0007
3886.00,0.0008
3885.00,0.0008
3884.00,0.0008
3883.00,0.0008
3882.00,0.0008
3881.00,0.0008
3880.00,0.0008
3879.00,0.0008
3878.00,0.0008
3877.00,0.0008
3876.00,0.0008
3875.00,0.0008
3874.00,0.0008
3873.00,0.0008
3872.00,0.0007
3871.00,0.0007
3870.00,0.0008
3869.00,0.0008
3868.00,0.0007
3867.00,0.0007
3866.00,0.0006
3865.00,0.0006
3864.00,0.0007
3863.00,0.0007
3862.00,0.0007
3861.00,0.0007
3860.00,0.0007
3859.00,0.0008
3858.00,0.0008
3857.00,0.0008
3856.00,0.0008
3855.00,0.0008
3854.00,0.0007
3853.00,0.0006
3852.00,0.0006
3851.00,0.0005
3850.00,0.0006
3849.00,0.0006
3848.00,0.0007
3847.00,0.0007
3846.00,0.0007
3845.00,0.0007
3844.00,0.0007
3843.00,0.0007
3842.00,0.0007
3841.00,0.0007
3840.00,0.0007
3839.00,0.0007
3838.00,0.0007
3837.00,0.0007
3836.00,0.0006
3835.00,0.0006
3834.00,0.0006
3833.00,0.0006
3832.00,0.0006
3831.00,0.0006
3830.00,0.0006
3829.00,0.0006
3828.00,0.0007
3827.00,0.0007
3826.00,0.0007
3825.00,0.0008
3824.00,0.0007
3823.00,0.0007
3822.00,0.0007
3821.00,0.0007
3820.00,0.0007
3819.00,0.0007
3818.00,0.0007
3817.00,0.0007
3816.00,0.0007
3815.00,0.0007
3814.00,0.0007
3813.00,0.0007
3812.00,0.0007
3811.00,0.0008
3810.00,0.0008
3809.00,0.0008
3808.00,0.0008
3807.00,0.0008
3806.00,0.0008
3805.00,0.0008
3804.00,0.0007
3803.00,0.0007
3802.00,0.0007
3801.00,0.0007
3800.00,0.0006
3799.00,0.0006
3798.00,0.0006
3797.00,0.0006
3796.00,0.0007
3795.00,0.0007
3794.00,0.0007
3793.00,0.0007
3792.00,0.0007
3791.00,0.0007
3790.00,0.0007
3789.00,0.0007
3788.00,0.0007
3787.00,0.0007
3786.00,0.0006
3785.00,0.0006
3784.00,0.0006
3783.00,0.0006
3782.00,0.0006
3781.00,0.0006
3780.00,0.0006
3779.00,0.0007
3778.00,0.0007
3777.00,0.0007
3776.00,0.0007
3775.00,0.0007
3774.00,0.0007
3773.00,0.0007
3772.00,0.0007
3771.00,0.0007
3770.00,0.0008
3769.00,0.0007
3768.00,0.0007
3767.00,0.0007
3766.00,0.0008
3765.00,0.0008
3764.00,0.0008
3763.00,0.0007
3762.00,0.0007
3761.00,0.0007
3760.00,0.0007
3759.00,0.0007
3758.00,0.0007
3757.00,0.0008
3756.00,0.0008
3755.00,0.0008
3754.00,0.0008
3753.00,0.0008
3752.00,0.0008
3751.00,0.0008
3750.00,0.0008
3749.00,0.0008
3748.00,0.0008
3747.00,0.0007
3746.00,0.0006
3745.00,0.0006
3744.00,0.0006
3743.00,0.0006
3742.00,0.0006
3741.00,0.0006
3740.00,0.0006
3739.00,0.0007
3738.00,0.0007
3737.00,0.0007
3736.00,0.0007
3735.00,0.0006
3734.00,0.0005
3733.00,0.0005
3732.00,0.0005
3731.00,0.0005
3730.00,0.0005
3729.00,0.0005
3728.00,0.0005
3727.00,0.0005
3726.00,0.0005
3725.00,0.0005
3724.00,0.0005
3723.00,0.0005
3722.00,0.0005
3721.00,0.0005
3720.00,0.0005
3719.00,0.0005
3718.00,0.0005
3717.00,0.0005
3716.00,0.0005
3715.00,0.0005
3714.00,0.0005
3713.00,0.0005
3712.00,0.0005
3711.00,0.0004
3710.00,0.0004
3709.00,0.0003
3708.00,0.0003
3707.00,0.0004
3706.00,0.0004
3705.00,0.0004
3704.00,0.0004
3703.00,0.0004
3702.00,0.0004
3701.00,0.0004
3700.00,0.0004
3699.00,0.0005
3698.00,0.0005
3697.00,0.0005
3696.00,0.0005
3695.00,0.0005
3694.00,0.0005
3693.00,0.0005
3692.00,0.0005
3691.00,0.0004
3690.00,0.0004
3689.00,0.0004
3688.00,0.0004
3687.00,0.0004
3686.00,0.0004
3685.00,0.0004
3684.00,0.0004
3683.00,0.0005
3682.00,0.0005
3681.00,0.0006
3680.00,0.0006
3679.00,0.0007
3678.00,0.0007
3677.00,0.0007
3676.00,0.0007
3675.00,0.0007
3674.00,0.0006
3673.00,0.0006
3672.00,0.0005
3671.00,0.0005
3670.00,0.0005
3669.00,0.0005
3668.00,0.0005
3667.00,0.0004
3666.00,0.0004
3665.00,0.0004
3664.00,0.0004
3663.00,0.0004
3662.00,0.0004
3661.00,0.0005
3660.00,0.0005
3659.00,0.0005
3658.00,0.0005
3657.00,0.0005
3656.00,0.0005
3655.00,0.0005
3654.00,0.0005
3653.00,0.0005
3652.00,0.0005
3651.00,0.0006
3650.00,0.0006
3649.00,0.0005
3648.00,0.0005
3647.00,0.0004
3646.00,0.0004
3645.00,0.0004
3644.00,0.0004
3643.00,0.0004
3642.00,0.0005
3641.00,0.0005
3640.00,0.0006
3639.00,0.0006
3638.00,0.0006
3637.00,0.0005
3636.00,0.0005
3635.00,0.0005
3634.00,0.0005
3633.00,0.0005
3632.00,0.0005
3631.00,0.0004
3630.00,0.0004
3629.00,0.0005
3628.00,0.0005
3627.00,0.0005
3626.00,0.0005
3625.00,0.0005
3624.00,0.0005
3623.00,0.0004
3622.00,0.0004
3621.00,0.0004
3620.00,0.0005
3619.00,0.0005
3618.00,0.0005
3617.00,0.0005
3616.00,0.0005
3615.00,0.0005
3614.00,0.0005
3613.00,0.0005
3612.00,0.0005
3611.00,0.0005
3610.00,0.0005
3609.00,0.0005
3608.00,0.0006
3607.00,0.0006
3606.00,0.0006
3605.00,0.0006
3604.00,0.0006
3603.00,0.0006
3602.00,0.0006
3601.00,0.0005
3600.00,0.0005
3599.00,0.0005
3598.00,0.0005
3597.00,0.0005
3596.00,0.0005
3595.00,0.0006
3594.00,0.0007
3593.00,0.0007
3592.00,0.0007
3591.00,0.0007
3590.00,0.0006
3589.00,0.0006
3588.00,0.0006
3587.00,0.0006
3586.00,0.0006
3585.00,0.0007
3584.00,0.0007
3583.00,0.0008
3582.00,0.0008
3581.00,0.0007
3580.00,0.0007
3579.00,0.0007
3578.00,0.0007
3577.00,0.0007
3576.00,0.0008
3575.00,0.0008
3574.00,0.0009
3573.00,0.0009
3572.00,0.0010
3571.00,0.0010
3570.00,0.0010
3569.00,0.0009
3568.00,0.0010
3567.00,0.0010
3566.00,0.0010
3565.00,0.0009
3564.00,0.0009
3563.00,0.0008
3562.00,0.0008
3561.00,0.0008
3560.00,0.0009
3559.00,0.0009
3558.00,0.0010
3557.00,0.0010
3556.00,0.0011
3555.00,0.0011
3554.00,0.0011
3553.00,0.0012
3552.00,0.0012
3551.00,0.0012
3550.00,0.0012
3549.00,0.0012
3548.00,0.0012
3547.00,0.0012
3546.00,0.0012
3545.00,0.0012
3544.00,0.0012
3543.00,0.0012
3542.00,0.0012
3541.00,0.0012
3540.00,0.0012
3539.00,0.0012
3538.00,0.0013
3537.00,0.0013
3536.00,0.0014
3535.00,0.0014
3534.00,0.0014
3533.00,0.0014
3532.00,0.0014
3531.00,0.0014
3530.00,0.0014
3529.00,0.0014
3528.00,0.0015
3527.00,0.0015
3526.00,0.0015
3525.00,0.0014
3524.00,0.0014
3523.00,0.0014
3522.00,0.0014
3521.00,0.0015
3520.00,0.0015
3519.00,0.0015
3518.00,0.0015
3517.00,0.0015
3516.00,0.0015
3515.00,0.0016
3514.00,0.0016
3513.00,0.0015
3512.00,0.0015
3511.00,0.0015
3510.00,0.0015
3509.00,0.0016
3508.00,0.0016
3507.00,0.0016
3506.00,0.0017
3505.00,0.0017
3504.00,0.0017
3503.00,0.0017
3502.00,0.0017
3501.00,0.0017
3500.00,0.0017
3499.00,0.0018
3498.00,0.0018
3497.00,0.0018
3496.00,0.0018
3495.00,0.0018
3494.00,0.0018
3493.00,0.0018
3492.00,0.0018
3491.00,0.0018
3490.00,0.0018
3489.00,0.0018
3488.00,0.0018
3487.00,0.0018
3486.00,0.0019
3485.00,0.0019
3484.00,0.0019
3483.00,0.0019
3482.00,0.0019
3481.00,0.0019
3480.00,0.0020
3479.00,0.0020
3478.00,0.0020
3477.00,0.0020
3476.00,0.0021
3475.00,0.0021
3474.00,0.0021
3473.00,0.0021
3472.00,0.0020
3471.00,0.0020
3470.00,0.0020
3469.00,0.0021
3468.00,0.0021
3467.00,0.0022
3466.00,0.0022
3465.00,0.0022
3464.00,0.0022
3463.00,0.0022
3462.00,0.0023
3461.00,0.0023
3460.00,0.0023
3459.00,0.0023
3458.00,0.0023
3457.00,0.0023
3456.00,0.0023
3455.00,0.0022
3454.00,0.0022
3453.00,0.0022
3452.00,0.0023
3451.00,0.0023
3450.00,0.0023
3449.00,0.0024
3448.00,0.0024
3447.00,0.0024
3446.00,0.0024
3445.00,0.0024
3444.00,0.0025
3443.00,0.0025
3442.00,0.0025
3441.00,0.0025
3440.00,0.0025
3439.00,0.0025
3438.00,0.0025
3437.00,0.0026
3436.00,0.0026
3435.00,0.0027
3434.00,0.0027
3433.00,0.0027
3432.00,0.0027
3431.00,0.0027
3430.00,0.0026
3429.00,0.0026
3428.00,0.0027
3427.00,0.0027
3426.00,0.0027
3425.00,0.0027
3424.00,0.0027
3423.00,0.0027
3422.00,0.0027
3421.00,0.0027
3420.00,0.0027
3419.00,0.0028
3418.00,0.0028
3417.00,0.0028
3416.00,0.0028
3415.00,0.0028
3414.00,0.0028
3413.00,0.0028
3412.00,0.0029
3411.00,0.0029
3410.00,0.0030
3409.00,0.0030
3408.00,0.0030
3407.00,0.0029
3406.00,0.0029
3405.00,0.0029
3404.00,0.0028
3403.00,0.0029
3402.00,0.0029
3401.00,0.0029
3400.00,0.0029
3399.00,0.0029
3398.00,0.0029
3397.00,0.0029
3396.00,0.0029
3395.00,0.0029
3394.00,0.0029
3393.00,0.0029
3392.00,0.0029
3391.00,0.0029
3390.00,0.0029
3389.00,0.0029
3388.00,0.0029
3387.00,0.0029
3386.00,0.0029
3385.00,0.0029
3384.00,0.0029
3383.00,0.0029
3382.00,0.0029
3381.00,0.0029
3380.00,0.0029
3379.00,0.0029
3378.00,0.0029
3377.00,0.0029
3376.00,0.0029
3375.00,0.0030
3374.00,0.0030
3373.00,0.0030
3372.00,0.0030
3371.00,0.0030
3370.00,0.0029
3369.00,0.0030
3368.00,0.0030
3367.00,0.0030
3366.00,0.0031
3365.00,0.0031
3364.00,0.0031
3363.00,0.0031
3362.00,0.0031
3361.00,0.0031
3360.00,0.0031
3359.00,0.0031
3358.00,0.0031
3357.00,0.0031
3356.00,0.0031
3355.00,0.0030
3354.00,0.0030
3353.00,0.0030
3352.00,0.0030
3351.00,0.0031
3350.00,0.0031
3349.00,0.0031
3348.00,0.0031
3347.00,0.0031
3346.00,0.0031
3345.00,0.0030
3344.00,0.0030
3343.00,0.0030
3342.00,0.0030
3341.00,0.0030
3340.00,0.0030
3339.00,0.0030
3338.00,0.0030
3337.00,0.0030
3336.00,0.0030
3335.00,0.0030
3334.00,0.0030
3333.00,0.0030
3332.00,0.0029
3331.00,0.0029
3330.00,0.0029
3329.00,0.0029
3328.00,0.0029
3327.00,0.0029
3326.00,0.0029
3325.00,0.0029
3324.00,0.0029
3323.00,0.0029
3322.00,0.0029
3321.00,0.0029
3320.00,0.0029
3319.00,0.0029
3318.00,0.0029
3317.00,0.0030
3316.00,0.0030
3315.00,0.0029
3314.00,0.0029
3313.00,0.0029
3312.00,0.0028
3311.00,0.0028
3310.00,0.0029
3309.00,0.0029
3308.00,0.0029
3307.00,0.0030
3306.00,0.0030
3305.00,0.0031
3304.00,0.0032
3303.00,0.0032
3302.00,0.0032
3301.00,0.0032
3300.00,0.0031
3299.00,0.0031
3298.00,0.0031
3297.00,0.0031
3296.00,0.0030
3295.00,0.0030
3294.00,0.0029
3293.00,0.0029
3292.00,0.0029
3291.00,0.0028
3290.00,0.0028
3289.00,0.0027
3288.00,0.0027
3287.00,0.0027
3286.00,0.0027
3285.00,0.0027
3284.00,0.0027
3283.00,0.0027
3282.00,0.0027
3281.00,0.0026
3280.00,0.0026
3279.00,0.0026
3278.00,0.0026
3277.00,0.0025
3276.00,0.0025
3275.00,0.0025
3274.00,0.0025
3273.00,0.0026
3272.00,0.0026
3271.00,0.0026
3270.00,0.0026
3269.00,0.0026
3268.00,0.0026
3267.00,0.0026
3266.00,0.0026
3265.00,0.0025
3264.00,0.0025
3263.00,0.0025
3262.00,0.0025
3261.00,0.0025
3260.00,0.0025
3259.00,0.0025
3258.00,0.0025
3257.00,0.0025
3256.00,0.0024
3255.00,0.0024
3254.00,0.0023
3253.00,0.0023
3252.00,0.0023
3251.00,0.0024
3250.00,0.0024
3249.00,0.0025
3248.00,0.0025
3247.00,0.0025
3246.00,0.0025
3245.00,0.0024
3244.00,0.0024
3243.00,0.0024
3242.00,0.0024
3241.00,0.0025
3240.00,0.0025
3239.00,0.0025
3238.00,0.0025
3237.00,0.0025
3236.00,0.0024
3235.00,0.0024
3234.00,0.0024
3233.00,0.0024
3232.00,0.0024
3231.00,0.0024
3230.00,0.0025
3229.00,0.0025
3228.00,0.0025
3227.00,0.0025
3226.00,0.0025
3225.00,0.0025
3224.00,0.0025
3223.00,0.0025
3222.00,0.0025
3221.00,0.0025
3220.00,0.0025
3219.00,0.0026
3218.00,0.0026
3217.00,0.0027
3216.00,0.0028
3215.00,0.0029
3214.00,0.0029
3213.00,0.0029
3212.00,0.0029
3211.00,0.0029
3210.00,0.0028
3209.00,0.0028
3208.00,0.0029
3207.00,0.0029
3206.00,0.0030
3205.00,0.0030
3204.00,0.0030
3203.00,0.0030
3202.00,0.0029
3201.00,0.0029
3200.00,0.0029
3199.00,0.0029
3198.00,0.0030
3197.00,0.0030
3196.00,0.0030
3195.00,0.0030
3194.00,0.0030
3193.00,0.0029
3192.00,0.0030
3191.00,0.0030
3190.00,0.0030
3189.00,0.0030
3188.00,0.0030
3187.00,0.0030
3186.00,0.0029
3185.00,0.0029
3184.00,0.0028
3183.00,0.0028
3182.00,0.0028
3181.00,0.0028
3180.00,0.0027
3179.00,0.0027
3178.00,0.0027
3177.00,0.0027
3176.00,0.0027
3175.00,0.0027
3174.00,0.0027
3173.00,0.0027
3172.00,0.0027
3171.00,0.0027
3170.00,0.0026
3169.00,0.0026
3168.00,0.0025
3167.00,0.0025
3166.00,0.0025
3165.00,0.0025
3164.00,0.0025
3163.00,0.0025
3162.00,0.0026
3161.00,0.0026
3160.00,0.0026
3159.00,0.0026
3158.00,0.0026
3157.00,0.0026
3156.00,0.0026
3155.00,0.0026
3154.00,0.0027
3153.00,0.0027
3152.00,0.0027
3151.00,0.0027
3150.00,0.0027
3149.00,0.0026
3148.00,0.0026
3147.00,0.0026
3146.00,0.0026
3145.00,0.0026
3144.00,0.0026
3143.00,0.0026
3142.00,0.0026
3141.00,0.0026
3140.00,0.0025
3139.00,0.0025
3138.00,0.0025
3137.00,0.0025
3136.00,0.0025
3135.00,0.0024
3134.00,0.0024
3133.00,0.0024
3132.00,0.0024
3131.00,0.0024
3130.00,0.0024
3129.00,0.0024
3128.00,0.0024
3127.00,0.0024
3126.00,0.0024
3125.00,0.0024
3124.00,0.0024
3123.00,0.0024
3122.00,0.0024
3121.00,0.0023
3120.00,0.0023
3119.00,0.0023
3118.00,0.0022
3117.00,0.0022
3116.00,0.0022
3115.00,0.0022
3114.00,0.0022
3113.00,0.0021
3112.00,0.0021
3111.00,0.0021
3110.00,0.0021
3109.00,0.0021
3108.00,0.0021
3107.00,0.0021
3106.00,0.0021
3105.00,0.0021
3104.00,0.0022
3103.00,0.0021
3102.00,0.0021
3101.00,0.0021
3100.00,0.0021
3099.00,0.0021
3098.00,0.0021
3097.00,0.0021
3096.00,0.0022
3095.00,0.0022
3094.00,0.0021
3093.00,0.0021
3092.00,0.0021
3091.00,0.0021
3090.00,0.0021
3089.00,0.0021
3088.00,0.0021
3087.00,0.0021
3086.00,0.0021
3085.00,0.0021
3084.00,0.0020
3083.00,0.0020
3082.00,0.0020
3081.00,0.0021
3080.00,0.0021
3079.00,0.0021
3078.00,0.0021
3077.00,0.0021
3076.00,0.0021
3075.00,0.0022
3074.00,0.0022
3073.00,0.0022
3072.00,0.0022
3071.00,0.0022
3070.00,0.0022
3069.00,0.0022
3068.00,0.0022
3067.00,0.0022
3066.00,0.0022
3065.00,0.0023
3064.00,0.0023
3063.00,0.0024
3062.00,0.0024
3061.00,0.0024
3060.00,0.0024
3059.00,0.0024
3058.00,0.0024
3057.00,0.0024
3056.00,0.0024
3055.00,0.0024
3054.00,0.0025
3053.00,0.0025
3052.00,0.0026
3051.00,0.0026
3050.00,0.0026
3049.00,0.0027
3048.00,0.0027
3047.00,0.0027
3046.00,0.0027
3045.00,0.0027
3044.00,0.0027
3043.00,0.0027
3042.00,0.0028
3041.00,0.0028
3040.00,0.0029
3039.00,0.0029
3038.00,0.0030
3037.00,0.0030
3036.00,0.0030
3035.00,0.0030
3034.00,0.0030
3033.00,0.0030
3032.00,0.0030
3031.00,0.0030
3030.00,0.0031
3029.00,0.0032
3028.00,0.0032
3027.00,0.0033
3026.00,0.0033
3025.00,0.0034
3024.00,0.0034
3023.00,0.0035
3022.00,0.0036
3021.00,0.0037
3020.00,0.0038
3019.00,0.0039
3018.00,0.0040
3017.00,0.0041
3016.00,0.0041
3015.00,0.0042
3014.00,0.0043
3013.00,0.0044
3012.00,0.0045
3011.00,0.0047
3010.00,0.0048
3009.00,0.0050
3008.00,0.0051
3007.00,0.0052
3006.00,0.0054
3005.00,0.0056
3004.00,0.0058
3003.00,0.0060
3002.00,0.0062
3001.00,0.0064
3000.00,0.0067
2999.00,0.0069
2998.00,0.0072
2997.00,0.0075
2996.00,0.0079
2995.00,0.0083
2994.00,0.0087
2993.00,0.0092
2992.00,0.0097
2991.00,0.0103
2990.00,0.0110
2989.00,0.0117
2988.00,0.0125
2987.00,0.0134
2986.00,0.0143
2985.00,0.0154
2984.00,0.0166
2983.00,0.0180
2982.00,0.0196
2981.00,0.0214
2980.00,0.0235
2979.00,0.0259
2978.00,0.0286
2977.00,0.0317
2976.00,0.0353
2975.00,0.0394
2974.00,0.0441
2973.00,0.0494
2972.00,0.0556
2971.00,0.0626
2970.00,0.0705
2969.00,0.0793
2968.00,0.0889
2967.00,0.0994
2966.00,0.1105
2965.00,0.1222
2964.00,0.1340
2963.00,0.1453
2962.00,0.1554
2961.00,0.1635
2960.00,0.1693
2959.00,0.1731
2958.00,0.1754
2957.00,0.1771
2956.00,0.1791
2955.00,0.1821
2954.00,0.1861
2953.00,0.1905
2952.00,0.1944
2951.00,0.1963
2950.00,0.1952
2949.00,0.1904
2948.00,0.1820
2947.00,0.1707
2946.00,0.1578
2945.00,0.1446
2944.00,0.1324
2943.00,0.1221
2942.00,0.1140
2941.00,0.1085
2940.00,0.1053
2939.00,0.1043
2938.00,0.1051
2937.00,0.1077
2936.00,0.1118
2935.00,0.1174
2934.00,0.1243
2933.00,0.1324
2932.00,0.1415
2931.00,0.1515
2930.00,0.1621
2929.00,0.1730
2928.00,0.1839
2927.00,0.1946
2926.00,0.2048
2925.00,0.2145
2924.00,0.2240
2923.00,0.2332
2922.00,0.2421
2921.00,0.2505
2920.00,0.2576
2919.00,0.2627
2918.00,0.2648
2917.00,0.2634
2916.00,0.2585
2915.00,0.2509
2914.00,0.2418
2913.00,0.2322
2912.00,0.2233
2911.00,0.2154
2910.00,0.2086
2909.00,0.2028
2908.00,0.1975
2907.00,0.1923
2906.00,0.1868
2905.00,0.1809
2904.00,0.1746
2903.00,0.1679
2902.00,0.1611
2901.00,0.1544
2900.00,0.1478
2899.00,0.1415
2898.00,0.1355
2897.00,0.1300
2896.00,0.1251
2895.00,0.1208
2894.00,0.1171
2893.00,0.1141
2892.00,0.1116
2891.00,0.1097
2890.00,0.1083
2889.00,0.1073
2888.00,0.1067
2887.00,0.1064
2886.00,0.1064
2885.00,0.1067
2884.00,0.1073
2883.00,0.1083
2882.00,0.1095
2881.00,0.1108
2880.00,0.1120
2879.00,0.1128
2878.00,0.1131
2877.00,0.1126
2876.00,0.1118
2875.00,0.1110
2874.00,0.1106
2873.00,0.1109
2872.00,0.1120
2871.00,0.1137
2870.00,0.1158
2869.00,0.1177
2868.00,0.1189
2867.00,0.1185
2866.00,0.1161
2865.00,0.1116
2864.00,0.1053
2863.00,0.0983
2862.00,0.0914
2861.00,0.0854
2860.00,0.0808
2859.00,0.0777
2858.00,0.0760
2857.00,0.0755
2856.00,0.0759
2855.00,0.0771
2854.00,0.0787
2853.00,0.0807
2852.00,0.0827
2851.00,0.0847
2850.00,0.0864
2849.00,0.0880
2848.00,0.0897
2847.00,0.0920
2846.00,0.0952
2845.00,0.0994
2844.00,0.1047
2843.00,0.1106
2842.00,0.1166
2841.00,0.1218
2840.00,0.1255
2839.00,0.1268
2838.00,0.1251
2837.00,0.1203
2836.00,0.1126
2835.00,0.1029
2834.00,0.0921
2833.00,0.0812
2832.00,0.0712
2831.00,0.0624
2830.00,0.0549
2829.00,0.0489
2828.00,0.0439
2827.00,0.0399
2826.00,0.0366
2825.00,0.0338
2824.00,0.0315
2823.00,0.0294
2822.00,0.0277
2821.00,0.0262
2820.00,0.0248
2819.00,0.0237
2818.00,0.0226
2817.00,0.0217
2816.00,0.0209
2815.00,0.0203
2814.00,0.0197
2813.00,0.0191
2812.00,0.0186
2811.00,0.0181
2810.00,0.0175
2809.00,0.0170
2808.00,0.0163
2807.00,0.0157
2806.00,0.0151
2805.00,0.0145
2804.00,0.0139
2803.00,0.0133
2802.00,0.0128
2801.00,0.0124
2800.00,0.0120
2799.00,0.0117
2798.00,0.0115
2797.00,0.0113
2796.00,0.0110
2795.00,0.0108
2794.00,0.0105
2793.00,0.0102
2792.00,0.0099
2791.00,0.0095
2790.00,0.0092
2789.00,0.0088
2788.00,0.0085
2787.00,0.0081
2786.00,0.0078
2785.00,0.0075
2784.00,0.0072
2783.00,0.0070
2782.00,0.0068
2781.00,0.0066
2780.00,0.0065
2779.00,0.0063
2778.00,0.0062
2777.00,0.0060
2776.00,0.0059
2775.00,0.0057
2774.00,0.0056
2773.00,0.0055
2772.00,0.0055
2771.00,0.0054
2770.00,0.0054
2769.00,0.0054
2768.00,0.0053
2767.00,0.0053
2766.00,0.0052
2765.00,0.0052
2764.00,0.0051
2763.00,0.0051
2762.00,0.0051
2761.00,0.0051
2760.00,0.0051
2759.00,0.0050
2758.00,0.0050
2757.00,0.0050
2756.00,0.0050
2755.00,0.0050
2754.00,0.0050
2753.00,0.0050
2752.00,0.0049
2751.00,0.0049
2750.00,0.0048
2749.00,0.0048
2748.00,0.0048
2747.00,0.0048
2746.00,0.0049
2745.00,0.0050
2744.00,0.0051
2743.00,0.0052
2742.00,0.0052
2741.00,0.0053
2740.00,0.0054
2739.00,0.0055
2738.00,0.0057
2737.00,0.0058
2736.00,0.0059
2735.00,0.0061
2734.00,0.0063
2733.00,0.0064
2732.00,0.0066
2731.00,0.0068
2730.00,0.0070
2729.00,0.0072
2728.00,0.0074
2727.00,0.0076
2726.00,0.0079
2725.00,0.0081
2724.00,0.0083
2723.00,0.0083
2722.00,0.0083
2721.00,0.0082
2720.00,0.0079
2719.00,0.0076
2718.00,0.0073
2717.00,0.0070
2716.00,0.0067
2715.00,0.0065
2714.00,0.0062
2713.00,0.0060
2712.00,0.0058
2711.00,0.0056
2710.00,0.0055
2709.00,0.0054
2708.00,0.0053
2707.00,0.0051
2706.00,0.0050
2705.00,0.0049
2704.00,0.0048
2703.00,0.0047
2702.00,0.0046
2701.00,0.0045
2700.00,0.0044
2699.00,0.0044
2698.00,0.0044
2697.00,0.0044
2696.00,0.0044
2695.00,0.0045
2694.00,0.0045
2693.00,0.0044
2692.00,0.0044
2691.00,0.0044
2690.00,0.0044
2689.00,0.0044
2688.00,0.0044
2687.00,0.0044
2686.00,0.0044
2685.00,0.0044
2684.00,0.0044
2683.00,0.0043
2682.00,0.0043
2681.00,0.0043
2680.00,0.0044
2679.00,0.0044
2678.00,0.0044
2677.00,0.0044
2676.00,0.0044
2675.00,0.0044
2674.00,0.0044
2673.00,0.0043
2672.00,0.0043
2671.00,0.0043
2670.00,0.0042
2669.00,0.0042
2668.00,0.0042
2667.00,0.0042
2666.00,0.0043
2665.00,0.0044
2664.00,0.0044
2663.00,0.0045
2662.00,0.0046
2661.00,0.0046
2660.00,0.0047
2659.00,0.0047
2658.00,0.0047
2657.00,0.0046
2656.00,0.0046
2655.00,0.0045
2654.00,0.0045
2653.00,0.0044
2652.00,0.0044
2651.00,0.0043
2650.00,0.0043
2649.00,0.0042
2648.00,0.0042
2647.00,0.0041
2646.00,0.0041
2645.00,0.0041
2644.00,0.0040
2643.00,0.0040
2642.00,0.0039
2641.00,0.0039
2640.00,0.0038
2639.00,0.0038
2638.00,0.0038
2637.00,0.0038
2636.00,0.0038
2635.00,0.0038
2634.00,0.0038
2633.00,0.0038
2632.00,0.0038
2631.00,0.0038
2630.00,0.0038
2629.00,0.0038
2628.00,0.0038
2627.00,0.0039
2626.00,0.0039
2625.00,0.0040
2624.00,0.0040
2623.00,0.0040
2622.00,0.0040
2621.00,0.0040
2620.00,0.0040
2619.00,0.0040
2618.00,0.0040
2617.00,0.0040
2616.00,0.0040
2615.00,0.0040
2614.00,0.0040
2613.00,0.0039
2612.00,0.0038
2611.00,0.0037
2610.00,0.0036
2609.00,0.0035
2608.00,0.0034
2607.00,0.0033
2606.00,0.0033
2605.00,0.0033
2604.00,0.0032
2603.00,0.0032
2602.00,0.0031
2601.00,0.0031
2600.00,0.0030
2599.00,0.0030
2598.00,0.0029
2597.00,0.0029
2596.00,0.0029
2595.00,0.0028
2594.00,0.0028
2593.00,0.0029
2592.00,0.0030
2591.00,0.0031
2590.00,0.0032
2589.00,0.0033
2588.00,0.0034
2587.00,0.0034
2586.00,0.0035
2585.00,0.0035
2584.00,0.0036
2583.00,0.0036
2582.00,0.0036
2581.00,0.0036
2580.00,0.0036
2579.00,0.0035
2578.00,0.0035
2577.00,0.0034
2576.00,0.0032
2575.00,0.0031
2574.00,0.0030
2573.00,0.0029
2572.00,0.0028
2571.00,0.0028
2570.00,0.0027
2569.00,0.0026
2568.00,0.0026
2567.00,0.0025
2566.00,0.0025
2565.00,0.0025
2564.00,0.0025
2563.00,0.0024
2562.00,0.0023
2561.00,0.0023
2560.00,0.0022
2559.00,0.0021
2558.00,0.0021
2557.00,0.0022
2556.00,0.0022
2555.00,0.0022
2554.00,0.0021
2553.00,0.0020
2552.00,0.0020
2551.00,0.0020
2550.00,0.0020
2549.00,0.0020
2548.00,0.0020
2547.00,0.0019
2546.00,0.0018
2545.00,0.0017
2544.00,0.0017
2543.00,0.0016
2542.00,0.0015
2541.00,0.0015
2540.00,0.0015
2539.00,0.0016
2538.00,0.0016
2537.00,0.0016
2536.00,0.0016
2535.00,0.0016
2534.00,0.0015
2533.00,0.0015
2532.00,0.0015
2531.00,0.0015
2530.00,0.0015
2529.00,0.0014
2528.00,0.0014
2527.00,0.0014
2526.00,0.0014
2525.00,0.0014
2524.00,0.0013
2523.00,0.0013
2522.00,0.0012
2521.00,0.0012
2520.00,0.0012
2519.00,0.0011
2518.00,0.0011
2517.00,0.0010
2516.00,0.0010
2515.00,0.0009
2514.00,0.0009
2513.00,0.0010
2512.00,0.0010
2511.00,0.0011
2510.00,0.0011
2509.00,0.0011
2508.00,0.0011
2507.00,0.0010
2506.00,0.0010
2505.00,0.0009
2504.00,0.0009
2503.00,0.0008
2502.00,0.0008
2501.00,0.0008
2500.00,0.0008
2499.00,0.0009
2498.00,0.0010
2497.00,0.0011
2496.00,0.0011
2495.00,0.0011
2494.00,0.0010
2493.00,0.0010
2492.00,0.0009
2491.00,0.0009
2490.00,0.0009
2489.00,0.0009
2488.00,0.0009
2487.00,0.0009
2486.00,0.0009
2485.00,0.0009
2484.00,0.0009
2483.00,0.0009
2482.00,0.0009
2481.00,0.0009
2480.00,0.0008
2479.00,0.0008
2478.00,0.0008
2477.00,0.0008
2476.00,0.0008
2475.00,0.0008
2474.00,0.0009
2473.00,0.0009
2472.00,0.0009
2471.00,0.0009
2470.00,0.0008
2469.00,0.0007
2468.00,0.0007
2467.00,0.0007
2466.00,0.0007
2465.00,0.0008
2464.00,0.0008
2463.00,0.0009
2462.00,0.0009
2461.00,0.0009
2460.00,0.0009
2459.00,0.0009
2458.00,0.0009
2457.00,0.0009
2456.00,0.0009
2455.00,0.0009
2454.00,0.0010
2453.00,0.0010
2452.00,0.0010
2451.00,0.0010
2450.00,0.0009
2449.00,0.0009
2448.00,0.0009
2447.00,0.0009
2446.00,0.0010
2445.00,0.0010
2444.00,0.0011
2443.00,0.0011
2442.00,0.0011
2441.00,0.0010
2440.00,0.0010
2439.00,0.0009
2438.00,0.0010
2437.00,0.0010
2436.00,0.0010
2435.00,0.0011
2434.00,0.0011
2433.00,0.0012
2432.00,0.0012
2431.00,0.0012
2430.00,0.0012
2429.00,0.0012
2428.00,0.0011
2427.00,0.0011
2426.00,0.0011
2425.00,0.0011
2424.00,0.0010
2423.00,0.0010
2422.00,0.0009
2421.00,0.0009
2420.00,0.0009
2419.00,0.0009
2418.00,0.0009
2417.00,0.0008
2416.00,0.0008
2415.00,0.0008
2414.00,0.0009
2413.00,0.0009
2412.00,0.0010
2411.00,0.0009
2410.00,0.0009
2409.00,0.0008
2408.00,0.0008
2407.00,0.0008
2406.00,0.0008
2405.00,0.0007
2404.00,0.0007
2403.00,0.0007
2402.00,0.0007
2401.00,0.0008
2400.00,0.0008
2399.00,0.0009
2398.00,0.0009
2397.00,0.0008
2396.00,0.0008
2395.00,0.0007
2394.00,0.0007
2393.00,0.0006
2392.00,0.0007
2391.00,0.0007
2390.00,0.0007
2389.00,0.0007
2388.00,0.0007
2387.00,0.0007
2386.00,0.0006
2385.00,0.0006
2384.00,0.0005
2383.00,0.0004
2382.00,0.0003
2381.00,0.0002
2380.00,0.0001
2379.00,0.0001
2378.00,0.0001
2377.00,0.0001
2376.00,0.0002
2375.00,0.0003
2374.00,0.0003
2373.00,0.0003
2372.00,0.0003
2371.00,0.0002
2370.00,0.0001
2369.00,0.0001
2368.00,0.0002
2367.00,0.0003
2366.00,0.0003
2365.00,0.0003
2364.00,0.0002
2363.00,0.0002
2362.00,0.0001
2361.00,0.0002
2360.00,0.0003
2359.00,0.0003
2358.00,0.0004
2357.00,0.0004
2356.00,0.0004
2355.00,0.0004
2354.00,0.0004
2353.00,0.0003
2352.00,0.0003
2351.00,0.0003
2350.00,0.0004
2349.00,0.0004
2348.00,0.0004
2347.00,0.0003
2346.00,0.0003
2345.00,0.0003
2344.00,0.0004
2343.00,0.0005
2342.00,0.0006
2341.00,0.0006
2340.00,0.0007
2339.00,0.0007
2338.00,0.0007
2337.00,0.0007
2336.00,0.0007
2335.00,0.0007
2334.00,0.0006
2333.00,0.0006
2332.00,0.0006
2331.00,0.0006
2330.00,0.0007
2329.00,0.0008
2328.00,0.0010
2327.00,0.0013
2326.00,0.0016
2325.00,0.0018
2324.00,0.0019
2323.00,0.0018
2322.00,0.0016
2321.00,0.0014
2320.00,0.0012
2319.00,0.0012
2318.00,0.0012
2317.00,0.0012
2316.00,0.0012
2315.00,0.0011
2314.00,0.0010
2313.00,0.0009
2312.00,0.0008
2311.00,0.0008
2310.00,0.0008
2309.00,0.0008
2308.00,0.0009
2307.00,0.0010
2306.00,0.0010
2305.00,0.0010
2304.00,0.0010
2303.00,0.0010
2302.00,0.0010
2301.00,0.0011
2300.00,0.0011
2299.00,0.0011
2298.00,0.0012
2297.00,0.0012
2296.00,0.0012
2295.00,0.0012
2294.00,0.0012
2293.00,0.0012
2292.00,0.0013
2291.00,0.0014
2290.00,0.0015
2289.00,0.0017
2288.00,0.0018
2287.00,0.0018
2286.00,0.0019
2285.00,0.0018
2284.00,0.0018
2283.00,0.0017
2282.00,0.0017
2281.00,0.0016
2280.00,0.0014
2279.00,0.0013
2278.00,0.0012
2277.00,0.0011
2276.00,0.0012
2275.00,0.0012
2274.00,0.0013
2273.00,0.0014
2272.00,0.0014
2271.00,0.0014
2270.00,0.0014
2269.00,0.0014
2268.00,0.0015
2267.00,0.0015
2266.00,0.0014
2265.00,0.0014
2264.00,0.0013
2263.00,0.0014
2262.00,0.0014
2261.00,0.0014
2260.00,0.0014
2259.00,0.0015
2258.00,0.0015
2257.00,0.0014
2256.00,0.0012
2255.00,0.0009
2254.00,0.0007
2253.00,0.0006
2252.00,0.0007
2251.00,0.0008
2250.00,0.0009
2249.00,0.0010
2248.00,0.0010
2247.00,0.0009
2246.00,0.0008
2245.00,0.0007
2244.00,0.0006
2243.00,0.0006
2242.00,0.0006
2241.00,0.0006
2240.00,0.0006
2239.00,0.0006
2238.00,0.0006
2237.00,0.0007
2236.00,0.0009
2235.00,0.0010
2234.00,0.0010
2233.00,0.0009
2232.00,0.0008
2231.00,0.0007
2230.00,0.0006
2229.00,0.0006
2228.00,0.0007
2227.00,0.0007
2226.00,0.0008
2225.00,0.0009
2224.00,0.0010
2223.00,0.0010
2222.00,0.0009
2221.00,0.0006
2220.00,0.0003
2219.00,0.0002
2218.00,0.0002
2217.00,0.0004
2216.00,0.0005
2215.00,0.0004
2214.00,0.0003
2213.00,0.0003
2212.00,0.0003
2211.00,0.0003
2210.00,0.0003
2209.00,0.0003
2208.00,0.0003
2207.00,0.0002
2206.00,0.0002
2205.00,0.0003
2204.00,0.0005
2203.00,0.0006
2202.00,0.0007
2201.00,0.0005
2200.00,0.0004
2199.00,0.0003
2198.00,0.0004
2197.00,0.0006
2196.00,0.0008
2195.00,0.0010
2194.00,0.0011
2193.00,0.0009
2192.00,0.0007
2191.00,0.0005
2190.00,0.0005
2189.00,0.0008
2188.00,0.0012
2187.00,0.0014
2186.00,0.0014
2185.00,0.0011
2184.00,0.0007
2183.00,0.0005
2182.00,0.0004
2181.00,0.0005
2180.00,0.0006
2179.00,0.0006
2178.00,0.0005
2177.00,0.0005
2176.00,0.0004
2175.00,0.0003
2174.00,0.0003
2173.00,0.0004
2172.00,0.0006
2171.00,0.0007
2170.00,0.0007
2169.00,0.0008
2168.00,0.0010
2167.00,0.0013
2166.00,0.0016
2165.00,0.0019
2164.00,0.0021
2163.00,0.0021
2162.00,0.0019
2161.00,0.0013
2160.00,0.0001
2159.00,-0.0013
2158.00,-0.0026
2157.00,-0.0034
2156.00,-0.0037
2155.00,-0.0036
2154.00,-0.0032
2153.00,-0.0025
2152.00,-0.0019
2151.00,-0.0014
2150.00,-0.0011
2149.00,-0.0010
2148.00,-0.0008
2147.00,-0.0008
2146.00,-0.0009
2145.00,-0.0011
2144.00,-0.0012
2143.00,-0.0012
2142.00,-0.0012
2141.00,-0.0011
2140.00,-0.0011
2139.00,-0.0012
2138.00,-0.0014
2137.00,-0.0016
2136.00,-0.0018
2135.00,-0.0020
2134.00,-0.0020
2133.00,-0.0019
2132.00,-0.0017
2131.00,-0.0014
2130.00,-0.0012
2129.00,-0.0011
2128.00,-0.0010
2127.00,-0.0009
2126.00,-0.0008
2125.00,-0.0006
2124.00,-0.0005
2123.00,-0.0004
2122.00,-0.0004
2121.00,-0.0004
2120.00,-0.0003
2119.00,-0.0002
2118.00,-0.0001
2117.00,-0.0001
2116.00,0.0000
2115.00,0.0001
2114.00,0.0001
2113.00,0.0001
2112.00,0.0000
2111.00,-0.0001
2110.00,-0.0002
2109.00,-0.0003
2108.00,-0.0003
2107.00,-0.0002
2106.00,-0.0002
2105.00,-0.0001
2104.00,-0.0001
2103.00,-0.0001
2102.00,-0.0000
2101.00,0.0000
2100.00,0.0000
2099.00,-0.0000
2098.00,-0.0001
2097.00,-0.0003
2096.00,-0.0004
2095.00,-0.0005
2094.00,-0.0005
2093.00,-0.0004
2092.00,-0.0003
2091.00,-0.0002
2090.00,-0.0002
2089.00,-0.0001
2088.00,-0.0001
2087.00,-0.0001
2086.00,-0.0001
2085.00,0.0000
2084.00,0.0002
2083.00,0.0002
2082.00,0.0002
2081.00,0.0001
2080.00,0.0001
2079.00,0.0001
2078.00,0.0002
2077.00,0.0001
2076.00,0.0001
2075.00,0.0000
2074.00,-0.0000
2073.00,-0.0000
2072.00,0.0000
2071.00,0.0001
2070.00,0.0000
2069.00,-0.0000
2068.00,-0.0000
2067.00,-0.0000
2066.00,-0.0000
2065.00,-0.0000
2064.00,-0.0000
2063.00,-0.0000
2062.00,-0.0000
2061.00,0.0000
2060.00,0.0000
2059.00,-0.0000
2058.00,-0.0001
2057.00,0.0001
2056.00,0.0003
2055.00,0.0006
2054.00,0.0008
2053.00,0.0011
2052.00,0.0013
2051.00,0.0013
2050.00,0.0009
2049.00,0.0004
2048.00,0.0001
2047.00,0.0000
2046.00,0.0001
2045.00,0.0002
2044.00,0.0001
2043.00,-0.0001
2042.00,-0.0002
2041.00,-0.0002
2040.00,-0.0001
2039.00,-0.0000
2038.00,0.0000
2037.00,0.0000
2036.00,-0.0001
2035.00,-0.0004
2034.00,-0.0008
2033.00,-0.0011
2032.00,-0.0013
2031.00,-0.0014
2030.00,-0.0012
2029.00,-0.0009
2028.00,-0.0006
2027.00,-0.0007
2026.00,-0.0010
2025.00,-0.0013
2024.00,-0.0014
2023.00,-0.0014
2022.00,-0.0014
2021.00,-0.0012
2020.00,-0.0010
2019.00,-0.0009
2018.00,-0.0008
2017.00,-0.0009
2016.00,-0.0009
2015.00,-0.0010
2014.00,-0.0009
2013.00,-0.0008
2012.00,-0.0006
2011.00,-0.0005
2010.00,-0.0006
2009.00,-0.0009
2008.00,-0.0013
2007.00,-0.0015
2006.00,-0.0016
2005.00,-0.0015
2004.00,-0.0014
2003.00,-0.0013
2002.00,-0.0014
2001.00,-0.0013
2000.00,-0.0012
1999.00,-0.0012
1998.00,-0.0013
1997.00,-0.0014
1996.00,-0.0014
1995.00,-0.0013
1994.00,-0.0012
1993.00,-0.0010
1992.00,-0.0009
1991.00,-0.0010
1990.00,-0.0012
1989.00,-0.0013
1988.00,-0.0012
1987.00,-0.0009
1986.00,-0.0005
1985.00,-0.0002
1984.00,-0.0000
1983.00,0.0002
1982.00,0.0005
1981.00,0.0008
1980.00,0.0009
1979.00,0.0006
1978.00,-0.0001
1977.00,-0.0009
1976.00,-0.0014
1975.00,-0.0016
1974.00,-0.0015
1973.00,-0.0014
1972.00,-0.0013
1971.00,-0.0013
1970.00,-0.0014
1969.00,-0.0015
1968.00,-0.0016
1967.00,-0.0017
1966.00,-0.0018
1965.00,-0.0018
1964.00,-0.0019
1963.00,-0.0019
1962.00,-0.0020
1961.00,-0.0020
1960.00,-0.0020
1959.00,-0.0019
1958.00,-0.0018
1957.00,-0.0016
1956.00,-0.0014
1955.00,-0.0014
1954.00,-0.0016
1953.00,-0.0018
1952.00,-0.0020
1951.00,-0.0020
1950.00,-0.0018
1949.00,-0.0016
1948.00,-0.0015
1947.00,-0.0015
1946.00,-0.0016
1945.00,-0.0016
1944.00,-0.0015
1943.00,-0.0014
1942.00,-0.0013
1941.00,-0.0013
1940.00,-0.0013
1939.00,-0.0013
1938.00,-0.0013
1937.00,-0.0013
1936.00,-0.0012
1935.00,-0.0013
1934.00,-0.0013
1933.00,-0.0013
1932.00,-0.0012
1931.00,-0.0012
1930.00,-0.0011
1929.00,-0.0011
1928.00,-0.0010
1927.00,-0.0008
1926.00,-0.0007
1925.00,-0.0006
1924.00,-0.0005
1923.00,-0.0005
1922.00,-0.0005
1921.00,-0.0005
1920.00,-0.0005
1919.00,-0.0005
1918.00,-0.0004
1917.00,-0.0005
1916.00,-0.0006
1915.00,-0.0007
1914.00,-0.0008
1913.00,-0.0007
1912.00,-0.0006
1911.00,-0.0004
1910.00,-0.0003
1909.00,-0.0002
1908.00,-0.0002
1907.00,-0.0002
1906.00,-0.0002
1905.00,-0.0001
1904.00,-0.0001
1903.00,-0.0000
1902.00,-0.0000
1901.00,-0.0001
1900.00,-0.0001
1899.00,-0.0002
1898.00,-0.0002
1897.00,-0.0002
1896.00,-0.0001
1895.00,-0.0001
1894.00,-0.0002
1893.00,-0.0002
1892.00,-0.0003
1891.00,-0.0003
1890.00,-0.0003
1889.00,-0.0004
1888.00,-0.0003
1887.00,-0.0003
1886.00,-0.0003
1885.00,-0.0003
1884.00,-0.0003
1883.00,-0.0003
1882.00,-0.0003
1881.00,-0.0002
1880.00,-0.0002
1879.00,-0.0002
1878.00,-0.0003
1877.00,-0.0003
1876.00,-0.0002
1875.00,-0.0002
1874.00,-0.0001
1873.00,-0.0001
1872.00,-0.0001
1871.00,-0.0001
1870.00,-0.0001
1869.00,-0.0000
1868.00,0.0000
1867.00,-0.0000
1866.00,-0.0001
1865.00,-0.0002
1864.00,-0.0002
1863.00,-0.0002
1862.00,-0.0001
1861.00,-0.0001
1860.00,-0.0001
1859.00,-0.0001
1858.00,-0.0000
1857.00,-0.0000
1856.00,0.0000
1855.00,0.0000
1854.00,0.0000
1853.00,0.0001
1852.00,0.0001
1851.00,0.0001
1850.00,0.0001
1849.00,0.0000
1848.00,-0.0000
1847.00,-0.0001
1846.00,-0.0001
1845.00,-0.0001
1844.00,-0.0000
1843.00,0.0000
1842.00,0.0000
1841.00,-0.0000
1840.00,-0.0000
1839.00,-0.0001
1838.00,-0.0000
1837.00,0.0000
1836.00,0.0001
1835.00,0.0001
1834.00,0.0001
1833.00,0.0002
1832.00,0.0002
1831.00,0.0003
1830.00,0.0003
1829.00,0.0003
1828.00,0.0003
1827.00,0.0002
1826.00,0.0002
1825.00,0.0003
1824.00,0.0003
1823.00,0.0003
1822.00,0.0002
1821.00,0.0001
1820.00,0.0001
1819.00,-0.0000
1818.00,-0.0001
1817.00,-0.0001
1816.00,-0.0001
1815.00,-0.0001
1814.00,-0.0000
1813.00,-0.0000
1812.00,0.0000
1811.00,0.0001
1810.00,0.0002
1809.00,0.0002
1808.00,0.0002
1807.00,0.0002
1806.00,0.0002
1805.00,0.0003
1804.00,0.0003
1803.00,0.0004
1802.00,0.0004
1801.00,0.0004
1800.00,0.0003
1799.00,0.0003
1798.00,0.0003
1797.00,0.0004
1796.00,0.0004
1795.00,0.0005
1794.00,0.0005
1793.00,0.0005
1792.00,0.0006
1791.00,0.0006
1790.00,0.0006
1789.00,0.0006
1788.00,0.0006
1787.00,0.0006
1786.00,0.0006
1785.00,0.0006
1784.00,0.0007
1783.00,0.0007
1782.00,0.0007
1781.00,0.0007
1780.00,0.0007
1779.00,0.0007
1778.00,0.0007
1777.00,0.0007
1776.00,0.0007
1775.00,0.0007
1774.00,0.0007
1773.00,0.0006
1772.00,0.0007
1771.00,0.0007
1770.00,0.0007
1769.00,0.0008
1768.00,0.0008
1767.00,0.0008
1766.00,0.0008
1765.00,0.0008
1764.00,0.0008
1763.00,0.0009
1762.00,0.0010
1761.00,0.0011
1760.00,0.0011
1759.00,0.0011
1758.00,0.0011
1757.00,0.0011
1756.00,0.0012
1755.00,0.0011
1754.00,0.0012
1753.00,0.0012
1752.00,0.0014
1751.00,0.0015
1750.00,0.0015
1749.00,0.0016
1748.00,0.0016
1747.00,0.0017
1746.00,0.0018
1745.00,0.0019
1744.00,0.0019
1743.00,0.0020
1742.00,0.0020
1741.00,0.0020
1740.00,0.0021
1739.00,0.0021
1738.00,0.0022
1737.00,0.0022
1736.00,0.0021
1735.00,0.0021
1734.00,0.0020
1733.00,0.0021
1732.00,0.0021
1731.00,0.0022
1730.00,0.0023
1729.00,0.0023
1728.00,0.0023
1727.00,0.0023
1726.00,0.0023
1725.00,0.0023
1724.00,0.0023
1723.00,0.0022
1722.00,0.0022
1721.00,0.0022
1720.00,0.0022
1719.00,0.0022
1718.00,0.0022
1717.00,0.0021
1716.00,0.0021
1715.00,0.0020
1714.00,0.0020
1713.00,0.0020
1712.00,0.0020
1711.00,0.0020
1710.00,0.0020
1709.00,0.0020
1708.00,0.0020
1707.00,0.0020
1706.00,0.0020
1705.00,0.0020
1704.00,0.0020
1703.00,0.0020
1702.00,0.0020
1701.00,0.0021
1700.00,0.0021
1699.00,0.0021
1698.00,0.0021
1697.00,0.0021
1696.00,0.0022
1695.00,0.0023
1694.00,0.0023
1693.00,0.0023
1692.00,0.0023
1691.00,0.0023
1690.00,0.0023
1689.00,0.0023
1688.00,0.0023
1687.00,0.0024
1686.00,0.0024
1685.00,0.0025
1684.00,0.0025
1683.00,0.0025
1682.00,0.0025
1681.00,0.0025
1680.00,0.0026
1679.00,0.0027
1678.00,0.0027
1677.00,0.0027
1676.00,0.0027
1675.00,0.0027
1674.00,0.0027
1673.00,0.0027
1672.00,0.0028
1671.00,0.0028
1670.00,0.0029
1669.00,0.0029
1668.00,0.0029
1667.00,0.0030
1666.00,0.0030
1665.00,0.0031
1664.00,0.0031
1663.00,0.0031
1662.00,0.0031
1661.00,0.0031
1660.00,0.0031
1659.00,0.0032
1658.00,0.0032
1657.00,0.0032
1656.00,0.0032
1655.00,0.0032
1654.00,0.0032
1653.00,0.0033
1652.00,0.0034
1651.00,0.0034
1650.00,0.0035
1649.00,0.0035
1648.00,0.0035
1647.00,0.0035
1646.00,0.0036
1645.00,0.0036
1644.00,0.0037
1643.00,0.0037
1642.00,0.0038
1641.00,0.0039
1640.00,0.0040
1639.00,0.0040
1638.00,0.0041
1637.00,0.0041
1636.00,0.0042
1635.00,0.0041
1634.00,0.0041
1633.00,0.0040
1632.00,0.0039
1631.00,0.0038
1630.00,0.0038
1629.00,0.0037
1628.00,0.0037
1627.00,0.0037
1626.00,0.0036
1625.00,0.0036
1624.00,0.0035
1623.00,0.0034
1622.00,0.0034
1621.00,0.0034
1620.00,0.0034
1619.00,0.0034
1618.00,0.0034
1617.00,0.0033
1616.00,0.0033
1615.00,0.0032
1614.00,0.0032
1613.00,0.0033
1612.00,0.0033
1611.00,0.0033
1610.00,0.0032
1609.00,0.0032
1608.00,0.0032
1607.00,0.0031
1606.00,0.0031
1605.00,0.0031
1604.00,0.0032
1603.00,0.0032
1602.00,0.0032
1601.00,0.0032
1600.00,0.0032
1599.00,0.0031
1598.00,0.0031
1597.00,0.0030
1596.00,0.0030
1595.00,0.0030
1594.00,0.0030
1593.00,0.0031
1592.00,0.0031
1591.00,0.0031
1590.00,0.0032
1589.00,0.0032
1588.00,0.0033
1587.00,0.0033
1586.00,0.0034
1585.00,0.0035
1584.00,0.0036
1583.00,0.0036
1582.00,0.0037
1581.00,0.0038
1580.00,0.0039
1579.00,0.0039
1578.00,0.0040
1577.00,0.0041
1576.00,0.0041
1575.00,0.0041
1574.00,0.0041
1573.00,0.0041
1572.00,0.0041
1571.00,0.0041
1570.00,0.0041
1569.00,0.0041
1568.00,0.0041
1567.00,0.0041
1566.00,0.0041
1565.00,0.0041
1564.00,0.0041
1563.00,0.0040
1562.00,0.0040
1561.00,0.0039
1560.00,0.0038
1559.00,0.0037
1558.00,0.0037
1557.00,0.0038
1556.00,0.0040
1555.00,0.0041
1554.00,0.0042
1553.00,0.0042
1552.00,0.0042
1551.00,0.0042
1550.00,0.0041
1549.00,0.0042
1548.00,0.0042
1547.00,0.0043
1546.00,0.0044
1545.00,0.0046
1544.00,0.0047
1543.00,0.0048
1542.00,0.0049
1541.00,0.0049
1540.00,0.0048
1539.00,0.0047
1538.00,0.0046
1537.00,0.0045
1536.00,0.0044
1535.00,0.0043
1534.00,0.0042
1533.00,0.0042
1532.00,0.0041
1531.00,0.0041
1530.00,0.0041
1529.00,0.0041
1528.00,0.0041
1527.00,0.0041
1526.00,0.0041
1525.00,0.0041
1524.00,0.0041
1523.00,0.0042
1522.00,0.0042
1521.00,0.0043
1520.00,0.0044
1519.00,0.0044
1518.00,0.0044
1517.00,0.0044
1516.00,0.0045
1515.00,0.0045
1514.00,0.0045
1513.00,0.0046
1512.00,0.0047
1511.00,0.0048
1510.00,0.0049
1509.00,0.0050
1508.00,0.0051
1507.00,0.0051
1506.00,0.0051
1505.00,0.0053
1504.00,0.0055
1503.00,0.0056
1502.00,0.0057
1501.00,0.0059
1500.00,0.0061
1499.00,0.0063
1498.00,0.0065
1497.00,0.0068
1496.00,0.0071
1495.00,0.0073
1494.00,0.0075
1493.00,0.0078
1492.00,0.0081
1491.00,0.0085
1490.00,0.0089
1489.00,0.0094
1488.00,0.0099
1487.00,0.0104
1486.00,0.0108
1485.00,0.0114
1484.00,0.0120
1483.00,0.0127
1482.00,0.0135
1481.00,0.0146
1480.00,0.0158
1479.00,0.0170
1478.00,0.0185
1477.00,0.0205
1476.00,0.0230
1475.00,0.0259
1474.00,0.0299
1473.00,0.0355
1472.00,0.0422
1471.00,0.0485
1470.00,0.0546
1469.00,0.0611
1468.00,0.0679
1467.00,0.0754
1466.00,0.0839
1465.00,0.0932
1464.00,0.1012
1463.00,0.1069
1462.00,0.1105
1461.00,0.1130
1460.00,0.1148
1459.00,0.1161
1458.00,0.1174
1457.00,0.1186
1456.00,0.1191
1455.00,0.1188
1454.00,0.1181
1453.00,0.1170
1452.00,0.1150
1451.00,0.1118
1450.00,0.1072
1449.00,0.1004
1448.00,0.0915
1447.00,0.0817
1446.00,0.0727
1445.00,0.0649
1444.00,0.0581
1443.00,0.0524
1442.00,0.0481
1441.00,0.0449
1440.00,0.0429
1439.00,0.0418
1438.00,0.0414
1437.00,0.0410
1436.00,0.0397
1435.00,0.0373
1434.00,0.0340
1433.00,0.0300
1432.00,0.0258
1431.00,0.0220
1430.00,0.0190
1429.00,0.0168
1428.00,0.0152
1427.00,0.0142
1426.00,0.0136
1425.00,0.0129
1424.00,0.0124
1423.00,0.0120
1422.00,0.0118
1421.00,0.0116
1420.00,0.0112
1419.00,0.0110
1418.00,0.0108
1417.00,0.0106
1416.00,0.0104
1415.00,0.0103
1414.00,0.0103
1413.00,0.0101
1412.00,0.0099
1411.00,0.0098
1410.00,0.0098
1409.00,0.0097
1408.00,0.0096
1407.00,0.0096
1406.00,0.0097
1405.00,0.0096
1404.00,0.0096
1403.00,0.0097
1402.00,0.0099
1401.00,0.0100
1400.00,0.0101
1399.00,0.0103
1398.00,0.0105
1397.00,0.0107
1396.00,0.0108
1395.00,0.0112
1394.00,0.0117
1393.00,0.0122
1392.00,0.0127
1391.00,0.0134
1390.00,0.0145
1389.00,0.0159
1388.00,0.0180
1387.00,0.0211
1386.00,0.0253
1385.00,0.0307
1384.00,0.0381
1383.00,0.0485
1382.00,0.0624
1381.00,0.0801
1380.00,0.1018
1379.00,0.1263
1378.00,0.1501
1377.00,0.1675
1376.00,0.1732
1375.00,0.1643
1374.00,0.1435
1373.00,0.1186
1372.00,0.0960
1371.00,0.0774
1370.00,0.0625
1369.00,0.0510
1368.00,0.0431
1367.00,0.0382
1366.00,0.0355
1365.00,0.0344
1364.00,0.0346
1363.00,0.0359
1362.00,0.0378
1361.00,0.0398
1360.00,0.0414
1359.00,0.0418
1358.00,0.0408
1357.00,0.0384
1356.00,0.0351
1355.00,0.0313
1354.00,0.0277
1353.00,0.0247
1352.00,0.0222
1351.00,0.0202
1350.00,0.0186
1349.00,0.0172
1348.00,0.0161
1347.00,0.0151
1346.00,0.0142
1345.00,0.0135
1344.00,0.0129
1343.00,0.0124
1342.00,0.0120
1341.00,0.0116
1340.00,0.0113
1339.00,0.0111
1338.00,0.0110
1337.00,0.0110
1336.00,0.0111
1335.00,0.0112
1334.00,0.0115
1333.00,0.0118
1332.00,0.0122
1331.00,0.0125
1330.00,0.0126
1329.00,0.0126
1328.00,0.0123
1327.00,0.0120
1326.00,0.0116
1325.00,0.0111
1324.00,0.0105
1323.00,0.0100
1322.00,0.0095
1321.00,0.0092
1320.00,0.0090
1319.00,0.0089
1318.00,0.0087
1317.00,0.0086
1316.00,0.0085
1315.00,0.0084
1314.00,0.0085
1313.00,0.0085
1312.00,0.0087
1311.00,0.0090
1310.00,0.0095
1309.00,0.0103
1308.00,0.0114
1307.00,0.0128
1306.00,0.0142
1305.00,0.0151
1304.00,0.0153
1303.00,0.0148
1302.00,0.0140
1301.00,0.0132
1300.00,0.0127
1299.00,0.0124
1298.00,0.0123
1297.00,0.0122
1296.00,0.0121
1295.00,0.0119
1294.00,0.0115
1293.00,0.0111
1292.00,0.0106
1291.00,0.0101
1290.00,0.0097
1289.00,0.0094
1288.00,0.0091
1287.00,0.0088
1286.00,0.0086
1285.00,0.0084
1284.00,0.0082
1283.00,0.0081
1282.00,0.0080
1281.00,0.0079
1280.00,0.0078
1279.00,0.0078
1278.00,0.0077
1277.00,0.0077
1276.00,0.0077
1275.00,0.0077
1274.00,0.0077
1273.00,0.0078
1272.00,0.0078
1271.00,0.0079
1270.00,0.0081
1269.00,0.0084
1268.00,0.0087
1267.00,0.0090
1266.00,0.0094
1265.00,0.0097
1264.00,0.0101
1263.00,0.0105
1262.00,0.0109
1261.00,0.0113
1260.00,0.0119
1259.00,0.0126
1258.00,0.0135
1257.00,0.0141
1256.00,0.0144
1255.00,0.0141
1254.00,0.0132
1253.00,0.0121
1252.00,0.0110
1251.00,0.0101
1250.00,0.0094
1249.00,0.0088
1248.00,0.0084
1247.00,0.0081
1246.00,0.0079
1245.00,0.0077
1244.00,0.0075
1243.00,0.0074
1242.00,0.0074
1241.00,0.0073
1240.00,0.0072
1239.00,0.0071
1238.00,0.0071
1237.00,0.0071
1236.00,0.0070
1235.00,0.0070
1234.00,0.0070
1233.00,0.0070
1232.00,0.0070
1231.00,0.0070
1230.00,0.0071
1229.00,0.0071
1228.00,0.0072
1227.00,0.0074
1226.00,0.0077
1225.00,0.0079
1224.00,0.0082
1223.00,0.0085
1222.00,0.0088
1221.00,0.0090
1220.00,0.0092
1219.00,0.0093
1218.00,0.0092
1217.00,0.0091
1216.00,0.0088
1215.00,0.0085
1214.00,0.0082
1213.00,0.0080
1212.00,0.0078
1211.00,0.0077
1210.00,0.0076
1209.00,0.0075
1208.00,0.0074
1207.00,0.0074
1206.00,0.0073
1205.00,0.0073
1204.00,0.0072
1203.00,0.0072
1202.00,0.0071
1201.00,0.0071
1200.00,0.0071
1199.00,0.0071
1198.00,0.0071
1197.00,0.0072
1196.00,0.0072
1195.00,0.0073
1194.00,0.0073
1193.00,0.0073
1192.00,0.0074
1191.00,0.0074
1190.00,0.0075
1189.00,0.0075
1188.00,0.0075
1187.00,0.0075
1186.00,0.0076
1185.00,0.0077
1184.00,0.0078
1183.00,0.0080
1182.00,0.0082
1181.00,0.0085
1180.00,0.0089
1179.00,0.0095
1178.00,0.0103
1177.00,0.0113
1176.00,0.0126
1175.00,0.0144
1174.00,0.0167
1173.00,0.0197
1172.00,0.0234
1171.00,0.0275
1170.00,0.0316
1169.00,0.0351
1168.00,0.0372
1167.00,0.0377
1166.00,0.0365
1165.00,0.0343
1164.00,0.0316
1163.00,0.0290
1162.00,0.0269
1161.00,0.0251
1160.00,0.0237
1159.00,0.0226
1158.00,0.0217
1157.00,0.0210
1156.00,0.0206
1155.00,0.0202
1154.00,0.0199
1153.00,0.0195
1152.00,0.0189
1151.00,0.0182
1150.00,0.0173
1149.00,0.0163
1148.00,0.0152
1147.00,0.0142
1146.00,0.0133
1145.00,0.0126
1144.00,0.0119
1143.00,0.0112
1142.00,0.0106
1141.00,0.0100
1140.00,0.0094
1139.00,0.0089
1138.00,0.0085
1137.00,0.0082
1136.00,0.0079
1135.00,0.0076
1134.00,0.0074
1133.00,0.0073
1132.00,0.0072
1131.00,0.0072
1130.00,0.0072
1129.00,0.0073
1128.00,0.0073
1127.00,0.0073
1126.00,0.0073
1125.00,0.0073
1124.00,0.0074
1123.00,0.0074
1122.00,0.0075
1121.00,0.0076
1120.00,0.0077
1119.00,0.0078
1118.00,0.0080
1117.00,0.0081
1116.00,0.0082
1115.00,0.0083
1114.00,0.0084
1113.00,0.0085
1112.00,0.0088
1111.00,0.0091
1110.00,0.0094
1109.00,0.0098
1108.00,0.0102
1107.00,0.0107
1106.00,0.0112
1105.00,0.0118
1104.00,0.0122
1103.00,0.0125
1102.00,0.0125
1101.00,0.0123
1100.00,0.0118
1099.00,0.0113
1098.00,0.0108
1097.00,0.0104
1096.00,0.0099
1095.00,0.0095
1094.00,0.0092
1093.00,0.0090
1092.00,0.0089
1091.00,0.0088
1090.00,0.0086
1089.00,0.0084
1088.00,0.0082
1087.00,0.0081
1086.00,0.0080
1085.00,0.0081
1084.00,0.0082
1083.00,0.0082
1082.00,0.0082
1081.00,0.0081
1080.00,0.0080
1079.00,0.0080
1078.00,0.0080
1077.00,0.0080
1076.00,0.0080
1075.00,0.0080
1074.00,0.0080
1073.00,0.0079
1072.00,0.0078
1071.00,0.0077
1070.00,0.0077
1069.00,0.0077
1068.00,0.0077
1067.00,0.0077
1066.00,0.0078
1065.00,0.0079
1064.00,0.0080
1063.00,0.0082
1062.00,0.0083
1061.00,0.0084
1060.00,0.0085
1059.00,0.0086
1058.00,0.0087
1057.00,0.0088
1056.00,0.0090
1055.00,0.0092
1054.00,0.0095
1053.00,0.0098
1052.00,0.0101
1051.00,0.0104
1050.00,0.0109
1049.00,0.0114
1048.00,0.0120
1047.00,0.0127
1046.00,0.0133
1045.00,0.0137
1044.00,0.0137
1043.00,0.0135
1042.00,0.0131
1041.00,0.0127
1040.00,0.0123
1039.00,0.0121
1038.00,0.0121
1037.00,0.0121
1036.00,0.0120
1035.00,0.0119
1034.00,0.0117
1033.00,0.0116
1032.00,0.0115
1031.00,0.0115
1030.00,0.0115
1029.00,0.0117
1028.00,0.0118
1027.00,0.0120
1026.00,0.0122
1025.00,0.0124
1024.00,0.0126
1023.00,0.0127
1022.00,0.0129
1021.00,0.0132
1020.00,0.0134
1019.00,0.0136
1018.00,0.0138
1017.00,0.0139
1016.00,0.0139
1015.00,0.0138
1014.00,0.0138
1013.00,0.0137
1012.00,0.0137
1011.00,0.0138
1010.00,0.0139
1009.00,0.0142
1008.00,0.0146
1007.00,0.0152
1006.00,0.0161
1005.00,0.0174
1004.00,0.0193
1003.00,0.0221
1002.00,0.0259
1001.00,0.0308
1000.00,0.0361
999.00,0.0407
998.00,0.0432
997.00,0.0426
996.00,0.0393
995.00,0.0342
994.00,0.0288
993.00,0.0240
992.00,0.0204
991.00,0.0177
990.00,0.0158
989.00,0.0145
988.00,0.0136
987.00,0.0131
986.00,0.0129
985.00,0.0130
984.00,0.0133
983.00,0.0140
982.00,0.0151
981.00,0.0167
980.00,0.0190
979.00,0.0222
978.00,0.0263
977.00,0.0312
976.00,0.0366
975.00,0.0421
974.00,0.0466
973.00,0.0487
972.00,0.0477
971.00,0.0434
970.00,0.0372
969.00,0.0306
968.00,0.0249
967.00,0.0204
966.00,0.0172
965.00,0.0149
964.00,0.0133
963.00,0.0122
962.00,0.0113
961.00,0.0106
960.00,0.0101
959.00,0.0096
958.00,0.0092
957.00,0.0088
956.00,0.0085
955.00,0.0083
954.00,0.0081
953.00,0.0079
952.00,0.0078
951.00,0.0077
950.00,0.0076
949.00,0.0076
948.00,0.0076
947.00,0.0076
946.00,0.0077
945.00,0.0079
944.00,0.0081
943.00,0.0085
942.00,0.0088
941.00,0.0091
940.00,0.0091
939.00,0.0089
938.00,0.0085
937.00,0.0080
936.00,0.0075
935.00,0.0070
934.00,0.0067
933.00,0.0065
932.00,0.0063
931.00,0.0063
930.00,0.0062
929.00,0.0062
928.00,0.0061
927.00,0.0061
926.00,0.0060
925.00,0.0060
924.00,0.0060
923.00,0.0060
922.00,0.0060
921.00,0.0060
920.00,0.0060
919.00,0.0060
918.00,0.0060
917.00,0.0061
916.00,0.0062
915.00,0.0063
914.00,0.0065
913.00,0.0065
912.00,0.0066
911.00,0.0067
910.00,0.0068
909.00,0.0070
908.00,0.0072
907.00,0.0075
906.00,0.0080
905.00,0.0089
904.00,0.0102
903.00,0.0118
902.00,0.0135
901.00,0.0151
900.00,0.0163
899.00,0.0166
898.00,0.0159
897.00,0.0146
896.00,0.0129
895.00,0.0113
894.00,0.0101
893.00,0.0091
892.00,0.0085
891.00,0.0081
890.00,0.0077
889.00,0.0075
888.00,0.0073
887.00,0.0073
886.00,0.0072
885.00,0.0071
884.00,0.0070
883.00,0.0069
882.00,0.0068
881.00,0.0069
880.00,0.0070
879.00,0.0071
878.00,0.0072
877.00,0.0072
876.00,0.0072
875.00,0.0073
874.00,0.0073
873.00,0.0074
872.00,0.0074
871.00,0.0075
870.00,0.0076
869.00,0.0076
868.00,0.0076
867.00,0.0077
866.00,0.0079
865.00,0.0080
864.00,0.0081
863.00,0.0082
862.00,0.0082
861.00,0.0083
860.00,0.0083
859.00,0.0085
858.00,0.0086
857.00,0.0088
856.00,0.0090
855.00,0.0092
854.00,0.0095
853.00,0.0098
852.00,0.0102
851.00,0.0106
850.00,0.0111
849.00,0.0119
848.00,0.0131
847.00,0.0148
846.00,0.0173
845.00,0.0211
844.00,0.0268
843.00,0.0339
842.00,0.0403
841.00,0.0431
840.00,0.0409
839.00,0.0347
838.00,0.0274
837.00,0.0213
836.00,0.0173
835.00,0.0149
834.00,0.0134
833.00,0.0124
832.00,0.0118
831.00,0.0113
830.00,0.0109
829.00,0.0107
828.00,0.0105
827.00,0.0105
826.00,0.0104
825.00,0.0105
824.00,0.0105
823.00,0.0106
822.00,0.0107
821.00,0.0108
820.00,0.0109
819.00,0.0111
818.00,0.0113
817.00,0.0118
816.00,0.0125
815.00,0.0136
814.00,0.0149
813.00,0.0165
812.00,0.0182
811.00,0.0199
810.00,0.0212
809.00,0.0217
808.00,0.0215
807.00,0.0204
806.00,0.0187
805.00,0.0170
804.00,0.0154
803.00,0.0142
802.00,0.0133
801.00,0.0127
800.00,0.0121
799.00,0.0117
798.00,0.0113
797.00,0.0109
796.00,0.0105
795.00,0.0101
794.00,0.0096
793.00,0.0092
792.00,0.0089
791.00,0.0087
790.00,0.0084
789.00,0.0081
788.00,0.0076
787.00,0.0072
786.00,0.0069
785.00,0.0067
784.00,0.0067
783.00,0.0066
782.00,0.0065
781.00,0.0064
780.00,0.0062
779.00,0.0061
778.00,0.0060
777.00,0.0059
776.00,0.0059
775.00,0.0060
774.00,0.0062
773.00,0.0063
772.00,0.0064
771.00,0.0063
770.00,0.0062
769.00,0.0061
768.00,0.0061
767.00,0.0061
766.00,0.0062
765.00,0.0063
764.00,0.0064
763.00,0.0064
762.00,0.0064
761.00,0.0063
760.00,0.0062
759.00,0.0063
758.00,0.0064
757.00,0.0066
756.00,0.0067
755.00,0.0068
754.00,0.0069
753.00,0.0070
752.00,0.0070
751.00,0.0070
750.00,0.0071
749.00,0.0072
748.00,0.0075
747.00,0.0077
746.00,0.0079
745.00,0.0080
744.00,0.0081
743.00,0.0082
742.00,0.0085
741.00,0.0088
740.00,0.0092
739.00,0.0095
738.00,0.0099
737.00,0.0102
736.00,0.0105
735.00,0.0109
734.00,0.0114
733.00,0.0120
732.00,0.0128
731.00,0.0135
730.00,0.0141
729.00,0.0143
728.00,0.0144
727.00,0.0144
726.00,0.0146
725.00,0.0149
724.00,0.0153
723.00,0.0157
722.00,0.0161
721.00,0.0163
720.00,0.0161
719.00,0.0155
718.00,0.0146
717.00,0.0136
716.00,0.0126
715.00,0.0119
714.00,0.0114
713.00,0.0111
712.00,0.0109
711.00,0.0106
710.00,0.0103
709.00,0.0100
708.00,0.0097
707.00,0.0094
706.00,0.0093
705.00,0.0094
704.00,0.0096
703.00,0.0097
702.00,0.0097
701.00,0.0095
700.00,0.0091
699.00,0.0088
698.00,0.0085
697.00,0.0085
696.00,0.0084
695.00,0.0084
694.00,0.0083
693.00,0.0083
692.00,0.0083
691.00,0.0084
690.00,0.0085
689.00,0.0084
688.00,0.0083
687.00,0.0083
686.00,0.0083
685.00,0.0084
684.00,0.0084
683.00,0.0085
682.00,0.0085
681.00,0.0084
680.00,0.0085
679.00,0.0085
678.00,0.0086
677.00,0.0087
676.00,0.0087
675.00,0.0087
674.00,0.0088
673.00,0.0089
672.00,0.0091
671.00,0.0094
670.00,0.0097
669.00,0.0097
668.00,0.0095
667.00,0.0091
666.00,0.0088
665.00,0.0086
664.00,0.0086
663.00,0.0085
662.00,0.0083
661.00,0.0080
660.00,0.0078
659.00,0.0076
658.00,0.0076
657.00,0.0075
656.00,0.0075
655.00,0.0075
654.00,0.0076
653.00,0.0076
652.00,0.0074
651.00,0.0073
650.00,0.0071
649.00,0.0070
648.00,0.0070
647.00,0.0072
646.00,0.0076
645.00,0.0079
644.00,0.0081
643.00,0.0081
642.00,0.0079
641.00,0.0076
640.00,0.0075
639.00,0.0075
638.00,0.0077
637.00,0.0079
636.00,0.0080
635.00,0.0081
634.00,0.0081
633.00,0.0080
632.00,0.0079
631.00,0.0079
630.00,0.0079
629.00,0.0078
628.00,0.0077
627.00,0.0078
626.00,0.0080
625.00,0.0082
624.00,0.0083
623.00,0.0082
622.00,0.0080
621.00,0.0077
620.00,0.0075
619.00,0.0075
618.00,0.0076
617.00,0.0077
616.00,0.0077
615.00,0.0077
614.00,0.0077
613.00,0.0076
612.00,0.0075
611.00,0.0075
610.00,0.0076
609.00,0.0079
608.00,0.0082
607.00,0.0083
606.00,0.0083
605.00,0.0082
604.00,0.0080
603.00,0.0077
602.00,0.0075
601.00,0.0075
600.00,0.0075
599.00,0.0076
598.00,0.0077
597.00,0.0078
596.00,0.0078
595.00,0.0079
594.00,0.0079
593.00,0.0079
592.00,0.0078
591.00,0.0078
590.00,0.0076
589.00,0.0075
588.00,0.0076
587.00,0.0079
586.00,0.0083
585.00,0.0084
584.00,0.0083
583.00,0.0081
582.00,0.0079
581.00,0.0077
580.00,0.0076
579.00,0.0075
578.00,0.0076
577.00,0.0077
576.00,0.0079
575.00,0.0081
574.00,0.0084
573.00,0.0085
572.00,0.0084
571.00,0.0083
570.00,0.0082
569.00,0.0081
568.00,0.0080
567.00,0.0081
566.00,0.0082
565.00,0.0082
564.00,0.0083
563.00,0.0084
562.00,0.0086
561.00,0.0086
560.00,0.0084
559.00,0.0082
558.00,0.0080
557.00,0.0078
556.00,0.0076
555.00,0.0074
554.00,0.0075
553.00,0.0078
552.00,0.0082
551.00,0.0084
550.00,0.0086
549.00,0.0085
548.00,0.0084
547.00,0.0084
546.00,0.0085
545.00,0.0089
544.00,0.0093
543.00,0.0098
542.00,0.0102
541.00,0.0104
540.00,0.0104
539.00,0.0105
538.00,0.0106
537.00,0.0108
536.00,0.0108
535.00,0.0108
534.00,0.0108
533.00,0.0110
532.00,0.0112
531.00,0.0115
530.00,0.0117
529.00,0.0118
528.00,0.0116
527.00,0.0110
526.00,0.0103
525.00,0.0096
524.00,0.0090
523.00,0.0086
522.00,0.0085
521.00,0.0086
520.00,0.0089
519.00,0.0090
518.00,0.0088
517.00,0.0085
516.00,0.0082
515.00,0.0081
514.00,0.0080
513.00,0.0080
512.00,0.0079
511.00,0.0079
510.00,0.0079
509.00,0.0077
508.00,0.0073
507.00,0.0068
506.00,0.0066
505.00,0.0067
504.00,0.0071
503.00,0.0074
502.00,0.0076
501.00,0.0076
500.00,0.0077
499.00,0.0078
498.00,0.0080
497.00,0.0078
496.00,0.0075
495.00,0.0072
494.00,0.0071
493.00,0.0074
492.00,0.0079
491.00,0.0085
490.00,0.0089
489.00,0.0089
488.00,0.0089
487.00,0.0089
486.00,0.0089
485.00,0.0087
484.00,0.0086
483.00,0.0090
482.00,0.0098
481.00,0.0104
480.00,0.0106
479.00,0.0104
478.00,0.0103
477.00,0.0101
476.00,0.0099
475.00,0.0095
474.00,0.0095
473.00,0.0102
472.00,0.0116
471.00,0.0129
470.00,0.0139
469.00,0.0146
468.00,0.0156
467.00,0.0169
466.00,0.0181
465.00,0.0186
464.00,0.0183
463.00,0.0178
462.00,0.0176
461.00,0.0179
460.00,0.0183
459.00,0.0185
458.00,0.0185
457.00,0.0183
456.00,0.0181
455.00,0.0181
454.00,0.0179
453.00,0.0171
452.00,0.0159
451.00,0.0150
450.00,0.0144
