Created as New Dataset,Sample 004 By Administrator Date Thursday, September 04 2025
cm-1,A
4000.00,0.0026
3999.00,0.0026
3998.00,0.0026
3997.00,0.0027
3996.00,0.0027
3995.00,0.0027
3994.00,0.0027
3993.00,0.0027
3992.00,0.0026
3991.00,0.0026
3990.00,0.0026
3989.00,0.0026
3988.00,0.0026
3987.00,0.0026
3986.00,0.0026
3985.00,0.0025
3984.00,0.0025
3983.00,0.0025
3982.00,0.0024
3981.00,0.0024
3980.00,0.0024
3979.00,0.0025
3978.00,0.0025
3977.00,0.0025
3976.00,0.0025
3975.00,0.0025
3974.00,0.0025
3973.00,0.0025
3972.00,0.0025
3971.00,0.0025
3970.00,0.0025
3969.00,0.0024
3968.00,0.0024
3967.00,0.0024
3966.00,0.0024
3965.00,0.0024
3964.00,0.0024
3963.00,0.0025
3962.00,0.0025
3961.00,0.0025
3960.00,0.0024
3959.00,0.0024
3958.00,0.0024
3957.00,0.0024
3956.00,0.0024
3955.00,0.0024
3954.00,0.0024
3953.00,0.0024
3952.00,0.0024
3951.00,0.0024
3950.00,0.0023
3949.00,0.0023
3948.00,0.0023
3947.00,0.0023
3946.00,0.0023
3945.00,0.0023
3944.00,0.0023
3943.00,0.0024
3942.00,0.0024
3941.00,0.0025
3940.00,0.0024
3939.00,0.0024
3938.00,0.0024
3937.00,0.0024
3936.00,0.0024
3935.00,0.0024
3934.00,0.0024
3933.00,0.0024
3932.00,0.0024
3931.00,0.0024
3930.00,0.0024
3929.00,0.0024
3928.00,0.0024
3927.00,0.0024
3926.00,0.0024
3925.00,0.0024
3924.00,0.0024
3923.00,0.0024
3922.00,0.0024
3921.00,0.0023
3920.00,0.0023
3919.00,0.0023
3918.00,0.0023
3917.00,0.0023
3916.00,0.0023
3915.00,0.0023
3914.00,0.0023
3913.00,0.0024
3912.00,0.0024
3911.00,0.0024
3910.00,0.0024
3909.00,0.0023
3908.00,0.0023
3907.00,0.0023
3906.00,0.0023
3905.00,0.0023
3904.00,0.0023
3903.00,0.0023
3902.00,0.0023
3901.00,0.0023
3900.00,0.0023
3899.00,0.0023
3898.00,0.0023
3897.00,0.0024
3896.00,0.0024
3895.00,0.0024
3894.00,0.0024
3893.00,0.0024
3892.00,0.0024
3891.00,0.0024
3890.00,0.0024
3889.00,0.0023
3888.00,0.0023
3887.00,0.0023
3886.00,0.0023
3885.00,0.0023
3884.00,0.0023
3883.00,0.0022
3882.00,0.0022
3881.00,0.0022
3880.00,0.0022
3879.00,0.0022
3878.00,0.0022
3877.00,0.0023
3876.00,0.0023
3875.00,0.0023
3874.00,0.0023
3873.00,0.0023
3872.00,0.0022
3871.00,0.0022
3870.00,0.0022
3869.00,0.0022
3868.00,0.0022
3867.00,0.0022
3866.00,0.0022
3865.00,0.0022
3864.00,0.0022
3863.00,0.0022
3862.00,0.0022
3861.00,0.0022
3860.00,0.0022
3859.00,0.0022
3858.00,0.0022
3857.00,0.0022
3856.00,0.0022
3855.00,0.0022
3854.00,0.0023
3853.00,0.0023
3852.00,0.0023
3851.00,0.0023
3850.00,0.0023
3849.00,0.0023
3848.00,0.0022
3847.00,0.0022
3846.00,0.0022
3845.00,0.0022
3844.00,0.0023
3843.00,0.0023
3842.00,0.0023
3841.00,0.0023
3840.00,0.0024
3839.00,0.0024
3838.00,0.0024
3837.00,0.0024
3836.00,0.0023
3835.00,0.0023
3834.00,0.0023
3833.00,0.0022
3832.00,0.0022
3831.00,0.0022
3830.00,0.0022
3829.00,0.0023
3828.00,0.0023
3827.00,0.0023
3826.00,0.0023
3825.00,0.0023
3824.00,0.0022
3823.00,0.0022
3822.00,0.0023
3821.00,0.0023
3820.00,0.0023
3819.00,0.0023
3818.00,0.0023
3817.00,0.0023
3816.00,0.0024
3815.00,0.0024
3814.00,0.0024
3813.00,0.0024
3812.00,0.0024
3811.00,0.0023
3810.00,0.0023
3809.00,0.0022
3808.00,0.0022
3807.00,0.0022
3806.00,0.0022
3805.00,0.0022
3804.00,0.0022
3803.00,0.0023
3802.00,0.0024
3801.00,0.0023
3800.00,0.0023
3799.00,0.0023
3798.00,0.0023
3797.00,0.0023
3796.00,0.0022
3795.00,0.0022
3794.00,0.0022
3793.00,0.0022
3792.00,0.0022
3791.00,0.0022
3790.00,0.0022
3789.00,0.0022
3788.00,0.0022
3787.00,0.0022
3786.00,0.0022
3785.00,0.0022
3784.00,0.0022
3783.00,0.0022
3782.00,0.0022
3781.00,0.0022
3780.00,0.0023
3779.00,0.0023
3778.00,0.0022
3777.00,0.0023
3776.00,0.0023
3775.00,0.0023
3774.00,0.0023
3773.00,0.0024
3772.00,0.0024
3771.00,0.0024
3770.00,0.0023
3769.00,0.0023
3768.00,0.0023
3767.00,0.0023
3766.00,0.0023
3765.00,0.0023
3764.00,0.0022
3763.00,0.0023
3762.00,0.0023
3761.00,0.0023
3760.00,0.0023
3759.00,0.0023
3758.00,0.0023
3757.00,0.0023
3756.00,0.0023
3755.00,0.0023
3754.00,0.0022
3753.00,0.0022
3752.00,0.0021
3751.00,0.0021
3750.00,0.0020
3749.00,0.0020
3748.00,0.0020
3747.00,0.0020
3746.00,0.0020
3745.00,0.0020
3744.00,0.0019
3743.00,0.0020
3742.00,0.0020
3741.00,0.0021
3740.00,0.0021
3739.00,0.0021
3738.00,0.0021
3737.00,0.0021
3736.00,0.0021
3735.00,0.0020
3734.00,0.0019
3733.00,0.0018
3732.00,0.0018
3731.00,0.0017
3730.00,0.0018
3729.00,0.0018
3728.00,0.0018
3727.00,0.0018
3726.00,0.0018
3725.00,0.0018
3724.00,0.0018
3723.00,0.0019
3722.00,0.0019
3721.00,0.0019
3720.00,0.0019
3719.00,0.0020
3718.00,0.0020
3717.00,0.0020
3716.00,0.0019
3715.00,0.0019
3714.00,0.0019
3713.00,0.0019
3712.00,0.0020
3711.00,0.0020
3710.00,0.0020
3709.00,0.0020
3708.00,0.0020
3707.00,0.0020
3706.00,0.0020
3705.00,0.0020
3704.00,0.0020
3703.00,0.0020
3702.00,0.0020
3701.00,0.0019
3700.00,0.0019
3699.00,0.0019
3698.00,0.0019
3697.00,0.0019
3696.00,0.0019
3695.00,0.0019
3694.00,0.0019
3693.00,0.0018
3692.00,0.0018
3691.00,0.0018
3690.00,0.0018
3689.00,0.0019
3688.00,0.0019
3687.00,0.0019
3686.00,0.0020
3685.00,0.0020
3684.00,0.0020
3683.00,0.0020
3682.00,0.0020
3681.00,0.0020
3680.00,0.0021
3679.00,0.0021
3678.00,0.0021
3677.00,0.0021
3676.00,0.0020
3675.00,0.0020
3674.00,0.0019
3673.00,0.0019
3672.00,0.0019
3671.00,0.0019
3670.00,0.0018
3669.00,0.0018
3668.00,0.0018
3667.00,0.0018
3666.00,0.0018
3665.00,0.0019
3664.00,0.0020
3663.00,0.0020
3662.00,0.0020
3661.00,0.0020
3660.00,0.0019
3659.00,0.0019
3658.00,0.0019
3657.00,0.0019
3656.00,0.0018
3655.00,0.0018
3654.00,0.0018
3653.00,0.0018
3652.00,0.0018
3651.00,0.0019
3650.00,0.0019
3649.00,0.0020
3648.00,0.0020
3647.00,0.0020
3646.00,0.0019
3645.00,0.0019
3644.00,0.0019
3643.00,0.0019
3642.00,0.0019
3641.00,0.0019
3640.00,0.0019
3639.00,0.0019
3638.00,0.0019
3637.00,0.0019
3636.00,0.0019
3635.00,0.0019
3634.00,0.0019
3633.00,0.0018
3632.00,0.0018
3631.00,0.0018
3630.00,0.0018
3629.00,0.0019
3628.00,0.0019
3627.00,0.0019
3626.00,0.0019
3625.00,0.0019
3624.00,0.0019
3623.00,0.0019
3622.00,0.0019
3621.00,0.0019
3620.00,0.0019
3619.00,0.0018
3618.00,0.0018
3617.00,0.0019
3616.00,0.0019
3615.00,0.0020
3614.00,0.0020
3613.00,0.0020
3612.00,0.0020
3611.00,0.0020
3610.00,0.0020
3609.00,0.0020
3608.00,0.0020
3607.00,0.0021
3606.00,0.0021
3605.00,0.0021
3604.00,0.0022
3603.00,0.0022
3602.00,0.0022
3601.00,0.0022
3600.00,0.0022
3599.00,0.0022
3598.00,0.0022
3597.00,0.0023
3596.00,0.0023
3595.00,0.0023
3594.00,0.0023
3593.00,0.0023
3592.00,0.0022
3591.00,0.0022
3590.00,0.0022
3589.00,0.0022
3588.00,0.0022
3587.00,0.0023
3586.00,0.0023
3585.00,0.0024
3584.00,0.0024
3583.00,0.0025
3582.00,0.0025
3581.00,0.0025
3580.00,0.0025
3579.00,0.0025
3578.00,0.0025
3577.00,0.0026
3576.00,0.0026
3575.00,0.0026
3574.00,0.0026
3573.00,0.0026
3572.00,0.0026
3571.00,0.0025
3570.00,0.0025
3569.00,0.0025
3568.00,0.0025
3567.00,0.0025
3566.00,0.0026
3565.00,0.0027
3564.00,0.0027
3563.00,0.0027
3562.00,0.0027
3561.00,0.0027
3560.00,0.0027
3559.00,0.0027
3558.00,0.0028
3557.00,0.0028
3556.00,0.0028
3555.00,0.0028
3554.00,0.0028
3553.00,0.0028
3552.00,0.0028
3551.00,0.0028
3550.00,0.0028
3549.00,0.0028
3548.00,0.0028
3547.00,0.0028
3546.00,0.0029
3545.00,0.0029
3544.00,0.0030
3543.00,0.0030
3542.00,0.0030
3541.00,0.0030
3540.00,0.0031
3539.00,0.0031
3538.00,0.0031
3537.00,0.0031
3536.00,0.0031
3535.00,0.0031
3534.00,0.0031
3533.00,0.0031
3532.00,0.0031
3531.00,0.0031
3530.00,0.0031
3529.00,0.0031
3528.00,0.0031
3527.00,0.0031
3526.00,0.0031
3525.00,0.0032
3524.00,0.0032
3523.00,0.0033
3522.00,0.0033
3521.00,0.0033
3520.00,0.0032
3519.00,0.0032
3518.00,0.0032
3517.00,0.0032
3516.00,0.0032
3515.00,0.0033
3514.00,0.0033
3513.00,0.0033
3512.00,0.0033
3511.00,0.0033
3510.00,0.0034
3509.00,0.0034
3508.00,0.0034
3507.00,0.0034
3506.00,0.0033
3505.00,0.0033
3504.00,0.0033
3503.00,0.0034
3502.00,0.0034
3501.00,0.0034
3500.00,0.0034
3499.00,0.0035
3498.00,0.0035
3497.00,0.0035
3496.00,0.0035
3495.00,0.0036
3494.00,0.0036
3493.00,0.0036
3492.00,0.0036
3491.00,0.0036
3490.00,0.0036
3489.00,0.0037
3488.00,0.0036
3487.00,0.0036
3486.00,0.0036
3485.00,0.0035
3484.00,0.0035
3483.00,0.0035
3482.00,0.0036
3481.00,0.0036
3480.00,0.0037
3479.00,0.0037
3478.00,0.0038
3477.00,0.0038
3476.00,0.0037
3475.00,0.0037
3474.00,0.0037
3473.00,0.0038
3472.00,0.0038
3471.00,0.0039
3470.00,0.0039
3469.00,0.0039
3468.00,0.0039
3467.00,0.0038
3466.00,0.0038
3465.00,0.0038
3464.00,0.0038
3463.00,0.0038
3462.00,0.0038
3461.00,0.0038
3460.00,0.0039
3459.00,0.0040
3458.00,0.0040
3457.00,0.0041
3456.00,0.0041
3455.00,0.0041
3454.00,0.0040
3453.00,0.0040
3452.00,0.0040
3451.00,0.0040
3450.00,0.0040
3449.00,0.0040
3448.00,0.0040
3447.00,0.0041
3446.00,0.0041
3445.00,0.0042
3444.00,0.0042
3443.00,0.0042
3442.00,0.0042
3441.00,0.0042
3440.00,0.0041
3439.00,0.0041
3438.00,0.0042
3437.00,0.0042
3436.00,0.0043
3435.00,0.0043
3434.00,0.0043
3433.00,0.0043
3432.00,0.0043
3431.00,0.0043
3430.00,0.0044
3429.00,0.0044
3428.00,0.0044
3427.00,0.0044
3426.00,0.0044
3425.00,0.0044
3424.00,0.0044
3423.00,0.0044
3422.00,0.0044
3421.00,0.0045
3420.00,0.0045
3419.00,0.0045
3418.00,0.0046
3417.00,0.0046
3416.00,0.0046
3415.00,0.0046
3414.00,0.0047
3413.00,0.0046
3412.00,0.0046
3411.00,0.0047
3410.00,0.0046
3409.00,0.0046
3408.00,0.0046
3407.00,0.0046
3406.00,0.0046
3405.00,0.0046
3404.00,0.0046
3403.00,0.0047
3402.00,0.0047
3401.00,0.0047
3400.00,0.0047
3399.00,0.0046
3398.00,0.0046
3397.00,0.0045
3396.00,0.0045
3395.00,0.0046
3394.00,0.0046
3393.00,0.0047
3392.00,0.0047
3391.00,0.0046
3390.00,0.0046
3389.00,0.0046
3388.00,0.0046
3387.00,0.0047
3386.00,0.0047
3385.00,0.0047
3384.00,0.0047
3383.00,0.0047
3382.00,0.0047
3381.00,0.0047
3380.00,0.0047
3379.00,0.0047
3378.00,0.0047
3377.00,0.0047
3376.00,0.0047
3375.00,0.0047
3374.00,0.0047
3373.00,0.0048
3372.00,0.0048
3371.00,0.0048
3370.00,0.0048
3369.00,0.0048
3368.00,0.0048
3367.00,0.0048
3366.00,0.0048
3365.00,0.0048
3364.00,0.0048
3363.00,0.0048
3362.00,0.0048
3361.00,0.0048
3360.00,0.0048
3359.00,0.0048
3358.00,0.0049
3357.00,0.0049
3356.00,0.0049
3355.00,0.0049
3354.00,0.0049
3353.00,0.0050
3352.00,0.0050
3351.00,0.0049
3350.00,0.0049
3349.00,0.0049
3348.00,0.0049
3347.00,0.0049
3346.00,0.0049
3345.00,0.0049
3344.00,0.0049
3343.00,0.0049
3342.00,0.0049
3341.00,0.0049
3340.00,0.0049
3339.00,0.0049
3338.00,0.0049
3337.00,0.0050
3336.00,0.0049
3335.00,0.0049
3334.00,0.0048
3333.00,0.0048
3332.00,0.0047
3331.00,0.0047
3330.00,0.0047
3329.00,0.0047
3328.00,0.0047
3327.00,0.0047
3326.00,0.0047
3325.00,0.0047
3324.00,0.0047
3323.00,0.0047
3322.00,0.0047
3321.00,0.0046
3320.00,0.0046
3319.00,0.0046
3318.00,0.0046
3317.00,0.0047
3316.00,0.0047
3315.00,0.0047
3314.00,0.0047
3313.00,0.0047
3312.00,0.0047
3311.00,0.0047
3310.00,0.0047
3309.00,0.0048
3308.00,0.0048
3307.00,0.0048
3306.00,0.0048
3305.00,0.0048
3304.00,0.0047
3303.00,0.0047
3302.00,0.0047
3301.00,0.0048
3300.00,0.0048
3299.00,0.0048
3298.00,0.0048
3297.00,0.0048
3296.00,0.0048
3295.00,0.0047
3294.00,0.0046
3293.00,0.0046
3292.00,0.0045
3291.00,0.0045
3290.00,0.0045
3289.00,0.0045
3288.00,0.0044
3287.00,0.0044
3286.00,0.0044
3285.00,0.0044
3284.00,0.0044
3283.00,0.0044
3282.00,0.0043
3281.00,0.0044
3280.00,0.0044
3279.00,0.0044
3278.00,0.0044
3277.00,0.0044
3276.00,0.0044
3275.00,0.0044
3274.00,0.0044
3273.00,0.0044
3272.00,0.0043
3271.00,0.0043
3270.00,0.0043
3269.00,0.0043
3268.00,0.0043
3267.00,0.0043
3266.00,0.0043
3265.00,0.0043
3264.00,0.0043
3263.00,0.0042
3262.00,0.0042
3261.00,0.0041
3260.00,0.0041
3259.00,0.0040
3258.00,0.0040
3257.00,0.0041
3256.00,0.0041
3255.00,0.0041
3254.00,0.0041
3253.00,0.0041
3252.00,0.0041
3251.00,0.0040
3250.00,0.0040
3249.00,0.0041
3248.00,0.0041
3247.00,0.0041
3246.00,0.0041
3245.00,0.0041
3244.00,0.0041
3243.00,0.0040
3242.00,0.0040
3241.00,0.0040
3240.00,0.0040
3239.00,0.0040
3238.00,0.0040
3237.00,0.0041
3236.00,0.0041
3235.00,0.0040
3234.00,0.0040
3233.00,0.0040
3232.00,0.0040
3231.00,0.0040
3230.00,0.0040
3229.00,0.0040
3228.00,0.0040
3227.00,0.0041
3226.00,0.0041
3225.00,0.0041
3224.00,0.0041
3223.00,0.0042
3222.00,0.0042
3221.00,0.0042
3220.00,0.0043
3219.00,0.0042
3218.00,0.0042
3217.00,0.0042
3216.00,0.0042
3215.00,0.0042
3214.00,0.0042
3213.00,0.0042
3212.00,0.0042
3211.00,0.0042
3210.00,0.0042
3209.00,0.0043
3208.00,0.0043
3207.00,0.0044
3206.00,0.0044
3205.00,0.0044
3204.00,0.0044
3203.00,0.0044
3202.00,0.0044
3201.00,0.0044
3200.00,0.0044
3199.00,0.0044
3198.00,0.0044
3197.00,0.0044
3196.00,0.0044
3195.00,0.0044
3194.00,0.0044
3193.00,0.0044
3192.00,0.0044
3191.00,0.0044
3190.00,0.0045
3189.00,0.0044
3188.00,0.0044
3187.00,0.0043
3186.00,0.0043
3185.00,0.0043
3184.00,0.0043
3183.00,0.0042
3182.00,0.0042
3181.00,0.0042
3180.00,0.0042
3179.00,0.0041
3178.00,0.0041
3177.00,0.0041
3176.00,0.0041
3175.00,0.0041
3174.00,0.0041
3173.00,0.0041
3172.00,0.0041
3171.00,0.0041
3170.00,0.0041
3169.00,0.0041
3168.00,0.0041
3167.00,0.0041
3166.00,0.0041
3165.00,0.0041
3164.00,0.0041
3163.00,0.0040
3162.00,0.0040
3161.00,0.0040
3160.00,0.0040
3159.00,0.0040
3158.00,0.0040
3157.00,0.0040
3156.00,0.0041
3155.00,0.0041
3154.00,0.0041
3153.00,0.0040
3152.00,0.0040
3151.00,0.0040
3150.00,0.0040
3149.00,0.0041
3148.00,0.0041
3147.00,0.0041
3146.00,0.0040
3145.00,0.0040
3144.00,0.0040
3143.00,0.0039
3142.00,0.0039
3141.00,0.0039
3140.00,0.0039
3139.00,0.0039
3138.00,0.0039
3137.00,0.0039
3136.00,0.0039
3135.00,0.0039
3134.00,0.0039
3133.00,0.0039
3132.00,0.0038
3131.00,0.0038
3130.00,0.0038
3129.00,0.0038
3128.00,0.0038
3127.00,0.0038
3126.00,0.0037
3125.00,0.0037
3124.00,0.0036
3123.00,0.0036
3122.00,0.0035
3121.00,0.0035
3120.00,0.0035
3119.00,0.0035
3118.00,0.0035
3117.00,0.0034
3116.00,0.0034
3115.00,0.0034
3114.00,0.0035
3113.00,0.0035
3112.00,0.0035
3111.00,0.0035
3110.00,0.0035
3109.00,0.0034
3108.00,0.0034
3107.00,0.0034
3106.00,0.0034
3105.00,0.0034
3104.00,0.0034
3103.00,0.0034
3102.00,0.0034
3101.00,0.0034
3100.00,0.0035
3099.00,0.0035
3098.00,0.0034
3097.00,0.0034
3096.00,0.0034
3095.00,0.0034
3094.00,0.0034
3093.00,0.0033
3092.00,0.0034
3091.00,0.0034
3090.00,0.0035
3089.00,0.0035
3088.00,0.0035
3087.00,0.0035
3086.00,0.0035
3085.00,0.0035
3084.00,0.0035
3083.00,0.0035
3082.00,0.0035
3081.00,0.0036
3080.00,0.0036
3079.00,0.0036
3078.00,0.0035
3077.00,0.0035
3076.00,0.0035
3075.00,0.0035
3074.00,0.0035
3073.00,0.0036
3072.00,0.0036
3071.00,0.0036
3070.00,0.0036
3069.00,0.0036
3068.00,0.0036
3067.00,0.0036
3066.00,0.0036
3065.00,0.0036
3064.00,0.0036
3063.00,0.0036
3062.00,0.0036
3061.00,0.0036
3060.00,0.0036
3059.00,0.0036
3058.00,0.0036
3057.00,0.0037
3056.00,0.0037
3055.00,0.0037
3054.00,0.0037
3053.00,0.0038
3052.00,0.0038
3051.00,0.0038
3050.00,0.0038
3049.00,0.0038
3048.00,0.0038
3047.00,0.0039
3046.00,0.0039
3045.00,0.0040
3044.00,0.0040
3043.00,0.0040
3042.00,0.0041
3041.00,0.0041
3040.00,0.0042
3039.00,0.0042
3038.00,0.0043
3037.00,0.0043
3036.00,0.0043
3035.00,0.0043
3034.00,0.0043
3033.00,0.0044
3032.00,0.0044
3031.00,0.0044
3030.00,0.0044
3029.00,0.0045
3028.00,0.0045
3027.00,0.0045
3026.00,0.0046
3025.00,0.0046
3024.00,0.0047
3023.00,0.0048
3022.00,0.0049
3021.00,0.0050
3020.00,0.0051
3019.00,0.0052
3018.00,0.0053
3017.00,0.0053
3016.00,0.0054
3015.00,0.0055
3014.00,0.0056
3013.00,0.0058
3012.00,0.0059
3011.00,0.0061
3010.00,0.0062
3009.00,0.0063
3008.00,0.0065
3007.00,0.0066
3006.00,0.0068
3005.00,0.0069
3004.00,0.0071
3003.00,0.0073
3002.00,0.0075
3001.00,0.0077
3000.00,0.0080
2999.00,0.0083
2998.00,0.0087
2997.00,0.0090
2996.00,0.0094
2995.00,0.0098
2994.00,0.0102
2993.00,0.0107
2992.00,0.0112
2991.00,0.0117
2990.00,0.0123
2989.00,0.0129
2988.00,0.0137
2987.00,0.0145
2986.00,0.0155
2985.00,0.0166
2984.00,0.0178
2983.00,0.0192
2982.00,0.0206
2981.00,0.0223
2980.00,0.0241
2979.00,0.0262
2978.00,0.0285
2977.00,0.0313
2976.00,0.0344
2975.00,0.0381
2974.00,0.0422
2973.00,0.0469
2972.00,0.0523
2971.00,0.0583
2970.00,0.0649
2969.00,0.0722
2968.00,0.0801
2967.00,0.0885
2966.00,0.0973
2965.00,0.1062
2964.00,0.1149
2963.00,0.1227
2962.00,0.1294
2961.00,0.1347
2960.00,0.1387
2959.00,0.1419
2958.00,0.1449
2957.00,0.1486
2956.00,0.1535
2955.00,0.1599
2954.00,0.1676
2953.00,0.1758
2952.00,0.1834
2951.00,0.1889
2950.00,0.1909
2949.00,0.1886
2948.00,0.1820
2947.00,0.1718
2946.00,0.1594
2945.00,0.1465
2944.00,0.1343
2943.00,0.1239
2942.00,0.1157
2941.00,0.1101
2940.00,0.1069
2939.00,0.1058
2938.00,0.1068
2937.00,0.1096
2936.00,0.1141
2935.00,0.1200
2934.00,0.1273
2933.00,0.1360
2932.00,0.1458
2931.00,0.1566
2930.00,0.1682
2929.00,0.1803
2928.00,0.1927
2927.00,0.2051
2926.00,0.2172
2925.00,0.2292
2924.00,0.2412
2923.00,0.2532
2922.00,0.2653
2921.00,0.2771
2920.00,0.2877
2919.00,0.2959
2918.00,0.3000
2917.00,0.2992
2916.00,0.2933
2915.00,0.2831
2914.00,0.2703
2913.00,0.2565
2912.00,0.2432
2911.00,0.2312
2910.00,0.2208
2909.00,0.2118
2908.00,0.2038
2907.00,0.1964
2906.00,0.1892
2905.00,0.1821
2904.00,0.1749
2903.00,0.1677
2902.00,0.1607
2901.00,0.1538
2900.00,0.1473
2899.00,0.1411
2898.00,0.1353
2897.00,0.1300
2896.00,0.1252
2895.00,0.1210
2894.00,0.1174
2893.00,0.1144
2892.00,0.1121
2891.00,0.1105
2890.00,0.1093
2889.00,0.1085
2888.00,0.1081
2887.00,0.1080
2886.00,0.1081
2885.00,0.1087
2884.00,0.1096
2883.00,0.1110
2882.00,0.1128
2881.00,0.1148
2880.00,0.1168
2879.00,0.1183
2878.00,0.1191
2877.00,0.1192
2876.00,0.1187
2875.00,0.1180
2874.00,0.1175
2873.00,0.1177
2872.00,0.1186
2871.00,0.1202
2870.00,0.1223
2869.00,0.1245
2868.00,0.1259
2867.00,0.1258
2866.00,0.1236
2865.00,0.1192
2864.00,0.1129
2863.00,0.1055
2862.00,0.0982
2861.00,0.0917
2860.00,0.0867
2859.00,0.0834
2858.00,0.0816
2857.00,0.0812
2856.00,0.0819
2855.00,0.0835
2854.00,0.0859
2853.00,0.0887
2852.00,0.0917
2851.00,0.0943
2850.00,0.0962
2849.00,0.0972
2848.00,0.0977
2847.00,0.0982
2846.00,0.0993
2845.00,0.1016
2844.00,0.1050
2843.00,0.1093
2842.00,0.1139
2841.00,0.1182
2840.00,0.1213
2839.00,0.1224
2838.00,0.1210
2837.00,0.1167
2836.00,0.1097
2835.00,0.1006
2834.00,0.0904
2833.00,0.0800
2832.00,0.0702
2831.00,0.0616
2830.00,0.0543
2829.00,0.0483
2828.00,0.0434
2827.00,0.0395
2826.00,0.0363
2825.00,0.0336
2824.00,0.0314
2823.00,0.0295
2822.00,0.0279
2821.00,0.0264
2820.00,0.0252
2819.00,0.0241
2818.00,0.0231
2817.00,0.0222
2816.00,0.0215
2815.00,0.0208
2814.00,0.0202
2813.00,0.0196
2812.00,0.0191
2811.00,0.0185
2810.00,0.0180
2809.00,0.0174
2808.00,0.0168
2807.00,0.0161
2806.00,0.0155
2805.00,0.0149
2804.00,0.0143
2803.00,0.0137
2802.00,0.0132
2801.00,0.0128
2800.00,0.0124
2799.00,0.0121
2798.00,0.0118
2797.00,0.0116
2796.00,0.0113
2795.00,0.0111
2794.00,0.0108
2793.00,0.0105
2792.00,0.0103
2791.00,0.0100
2790.00,0.0097
2789.00,0.0093
2788.00,0.0090
2787.00,0.0087
2786.00,0.0085
2785.00,0.0082
2784.00,0.0080
2783.00,0.0078
2782.00,0.0075
2781.00,0.0073
2780.00,0.0072
2779.00,0.0070
2778.00,0.0068
2777.00,0.0067
2776.00,0.0066
2775.00,0.0065
2774.00,0.0065
2773.00,0.0064
2772.00,0.0064
2771.00,0.0063
2770.00,0.0062
2769.00,0.0061
2768.00,0.0061
2767.00,0.0061
2766.00,0.0061
2765.00,0.0060
2764.00,0.0060
2763.00,0.0060
2762.00,0.0060
2761.00,0.0059
2760.00,0.0059
2759.00,0.0059
2758.00,0.0059
2757.00,0.0058
2756.00,0.0058
2755.00,0.0058
2754.00,0.0058
2753.00,0.0058
2752.00,0.0058
2751.00,0.0057
2750.00,0.0057
2749.00,0.0057
2748.00,0.0057
2747.00,0.0057
2746.00,0.0058
2745.00,0.0058
2744.00,0.0059
2743.00,0.0060
2742.00,0.0061
2741.00,0.0062
2740.00,0.0063
2739.00,0.0065
2738.00,0.0066
2737.00,0.0067
2736.00,0.0068
2735.00,0.0069
2734.00,0.0071
2733.00,0.0072
2732.00,0.0074
2731.00,0.0076
2730.00,0.0078
2729.00,0.0081
2728.00,0.0083
2727.00,0.0086
2726.00,0.0088
2725.00,0.0090
2724.00,0.0092
2723.00,0.0093
2722.00,0.0092
2721.00,0.0091
2720.00,0.0088
2719.00,0.0085
2718.00,0.0082
2717.00,0.0078
2716.00,0.0075
2715.00,0.0072
2714.00,0.0070
2713.00,0.0068
2712.00,0.0066
2711.00,0.0064
2710.00,0.0063
2709.00,0.0061
2708.00,0.0060
2707.00,0.0059
2706.00,0.0057
2705.00,0.0056
2704.00,0.0055
2703.00,0.0054
2702.00,0.0053
2701.00,0.0053
2700.00,0.0052
2699.00,0.0051
2698.00,0.0051
2697.00,0.0051
2696.00,0.0051
2695.00,0.0051
2694.00,0.0050
2693.00,0.0050
2692.00,0.0050
2691.00,0.0050
2690.00,0.0050
2689.00,0.0050
2688.00,0.0051
2687.00,0.0051
2686.00,0.0051
2685.00,0.0051
2684.00,0.0051
2683.00,0.0051
2682.00,0.0051
2681.00,0.0051
2680.00,0.0051
2679.00,0.0052
2678.00,0.0052
2677.00,0.0052
2676.00,0.0052
2675.00,0.0052
2674.00,0.0052
2673.00,0.0051
2672.00,0.0051
2671.00,0.0051
2670.00,0.0051
2669.00,0.0051
2668.00,0.0051
2667.00,0.0051
2666.00,0.0051
2665.00,0.0051
2664.00,0.0052
2663.00,0.0052
2662.00,0.0053
2661.00,0.0054
2660.00,0.0055
2659.00,0.0055
2658.00,0.0054
2657.00,0.0054
2656.00,0.0053
2655.00,0.0053
2654.00,0.0053
2653.00,0.0053
2652.00,0.0052
2651.00,0.0052
2650.00,0.0051
2649.00,0.0050
2648.00,0.0050
2647.00,0.0049
2646.00,0.0048
2645.00,0.0048
2644.00,0.0047
2643.00,0.0047
2642.00,0.0046
2641.00,0.0046
2640.00,0.0046
2639.00,0.0046
2638.00,0.0046
2637.00,0.0046
2636.00,0.0046
2635.00,0.0045
2634.00,0.0045
2633.00,0.0045
2632.00,0.0045
2631.00,0.0045
2630.00,0.0045
2629.00,0.0045
2628.00,0.0046
2627.00,0.0046
2626.00,0.0046
2625.00,0.0046
2624.00,0.0046
2623.00,0.0046
2622.00,0.0046
2621.00,0.0046
2620.00,0.0046
2619.00,0.0046
2618.00,0.0047
2617.00,0.0047
2616.00,0.0047
2615.00,0.0047
2614.00,0.0046
2613.00,0.0045
2612.00,0.0044
2611.00,0.0044
2610.00,0.0043
2609.00,0.0042
2608.00,0.0041
2607.00,0.0040
2606.00,0.0039
2605.00,0.0039
2604.00,0.0038
2603.00,0.0038
2602.00,0.0038
2601.00,0.0037
2600.00,0.0037
2599.00,0.0037
2598.00,0.0036
2597.00,0.0036
2596.00,0.0036
2595.00,0.0036
2594.00,0.0037
2593.00,0.0038
2592.00,0.0039
2591.00,0.0039
2590.00,0.0039
2589.00,0.0040
2588.00,0.0040
2587.00,0.0041
2586.00,0.0042
2585.00,0.0043
2584.00,0.0044
2583.00,0.0045
2582.00,0.0046
2581.00,0.0046
2580.00,0.0045
2579.00,0.0044
2578.00,0.0042
2577.00,0.0040
2576.00,0.0038
2575.00,0.0037
2574.00,0.0036
2573.00,0.0036
2572.00,0.0035
2571.00,0.0034
2570.00,0.0033
2569.00,0.0032
2568.00,0.0032
2567.00,0.0032
2566.00,0.0032
2565.00,0.0031
2564.00,0.0030
2563.00,0.0029
2562.00,0.0029
2561.00,0.0028
2560.00,0.0028
2559.00,0.0029
2558.00,0.0029
2557.00,0.0029
2556.00,0.0029
2555.00,0.0028
2554.00,0.0028
2553.00,0.0027
2552.00,0.0027
2551.00,0.0026
2550.00,0.0026
2549.00,0.0026
2548.00,0.0025
2547.00,0.0024
2546.00,0.0024
2545.00,0.0023
2544.00,0.0023
2543.00,0.0023
2542.00,0.0023
2541.00,0.0023
2540.00,0.0023
2539.00,0.0022
2538.00,0.0021
2537.00,0.0021
2536.00,0.0020
2535.00,0.0020
2534.00,0.0020
2533.00,0.0020
2532.00,0.0020
2531.00,0.0021
2530.00,0.0021
2529.00,0.0021
2528.00,0.0020
2527.00,0.0020
2526.00,0.0020
2525.00,0.0020
2524.00,0.0019
2523.00,0.0019
2522.00,0.0019
2521.00,0.0019
2520.00,0.0019
2519.00,0.0019
2518.00,0.0018
2517.00,0.0017
2516.00,0.0017
2515.00,0.0017
2514.00,0.0016
2513.00,0.0016
2512.00,0.0016
2511.00,0.0017
2510.00,0.0017
2509.00,0.0017
2508.00,0.0017
2507.00,0.0016
2506.00,0.0015
2505.00,0.0015
2504.00,0.0014
2503.00,0.0015
2502.00,0.0015
2501.00,0.0015
2500.00,0.0016
2499.00,0.0016
2498.00,0.0016
2497.00,0.0016
2496.00,0.0016
2495.00,0.0016
2494.00,0.0016
2493.00,0.0015
2492.00,0.0015
2491.00,0.0015
2490.00,0.0015
2489.00,0.0015
2488.00,0.0015
2487.00,0.0015
2486.00,0.0015
2485.00,0.0014
2484.00,0.0014
2483.00,0.0013
2482.00,0.0013
2481.00,0.0012
2480.00,0.0012
2479.00,0.0012
2478.00,0.0012
2477.00,0.0013
2476.00,0.0013
2475.00,0.0014
2474.00,0.0014
2473.00,0.0013
2472.00,0.0013
2471.00,0.0013
2470.00,0.0013
2469.00,0.0013
2468.00,0.0013
2467.00,0.0013
2466.00,0.0013
2465.00,0.0014
2464.00,0.0015
2463.00,0.0015
2462.00,0.0016
2461.00,0.0015
2460.00,0.0015
2459.00,0.0015
2458.00,0.0015
2457.00,0.0015
2456.00,0.0014
2455.00,0.0014
2454.00,0.0014
2453.00,0.0013
2452.00,0.0014
2451.00,0.0014
2450.00,0.0015
2449.00,0.0015
2448.00,0.0015
2447.00,0.0016
2446.00,0.0015
2445.00,0.0015
2444.00,0.0014
2443.00,0.0014
2442.00,0.0015
2441.00,0.0015
2440.00,0.0015
2439.00,0.0015
2438.00,0.0015
2437.00,0.0014
2436.00,0.0014
2435.00,0.0014
2434.00,0.0014
2433.00,0.0014
2432.00,0.0014
2431.00,0.0014
2430.00,0.0015
2429.00,0.0016
2428.00,0.0016
2427.00,0.0016
2426.00,0.0015
2425.00,0.0014
2424.00,0.0014
2423.00,0.0014
2422.00,0.0014
2421.00,0.0014
2420.00,0.0014
2419.00,0.0014
2418.00,0.0013
2417.00,0.0013
2416.00,0.0013
2415.00,0.0012
2414.00,0.0012
2413.00,0.0013
2412.00,0.0013
2411.00,0.0013
2410.00,0.0013
2409.00,0.0013
2408.00,0.0012
2407.00,0.0012
2406.00,0.0011
2405.00,0.0012
2404.00,0.0012
2403.00,0.0013
2402.00,0.0013
2401.00,0.0013
2400.00,0.0012
2399.00,0.0012
2398.00,0.0011
2397.00,0.0010
2396.00,0.0010
2395.00,0.0010
2394.00,0.0011
2393.00,0.0011
2392.00,0.0011
2391.00,0.0010
2390.00,0.0010
2389.00,0.0011
2388.00,0.0011
2387.00,0.0010
2386.00,0.0009
2385.00,0.0008
2384.00,0.0007
2383.00,0.0007
2382.00,0.0006
2381.00,0.0006
2380.00,0.0006
2379.00,0.0006
2378.00,0.0006
2377.00,0.0005
2376.00,0.0004
2375.00,0.0004
2374.00,0.0004
2373.00,0.0004
2372.00,0.0005
2371.00,0.0005
2370.00,0.0005
2369.00,0.0004
2368.00,0.0003
2367.00,0.0003
2366.00,0.0003
2365.00,0.0004
2364.00,0.0004
2363.00,0.0004
2362.00,0.0004
2361.00,0.0004
2360.00,0.0004
2359.00,0.0004
2358.00,0.0004
2357.00,0.0004
2356.00,0.0005
2355.00,0.0005
2354.00,0.0005
2353.00,0.0005
2352.00,0.0005
2351.00,0.0005
2350.00,0.0005
2349.00,0.0005
2348.00,0.0005
2347.00,0.0004
2346.00,0.0004
2345.00,0.0005
2344.00,0.0005
2343.00,0.0006
2342.00,0.0007
2341.00,0.0008
2340.00,0.0008
2339.00,0.0008
2338.00,0.0008
2337.00,0.0009
2336.00,0.0009
2335.00,0.0009
2334.00,0.0009
2333.00,0.0009
2332.00,0.0008
2331.00,0.0009
2330.00,0.0009
2329.00,0.0010
2328.00,0.0012
2327.00,0.0014
2326.00,0.0018
2325.00,0.0021
2324.00,0.0023
2323.00,0.0023
2322.00,0.0021
2321.00,0.0018
2320.00,0.0016
2319.00,0.0014
2318.00,0.0013
2317.00,0.0013
2316.00,0.0012
2315.00,0.0012
2314.00,0.0011
2313.00,0.0011
2312.00,0.0010
2311.00,0.0010
2310.00,0.0010
2309.00,0.0010
2308.00,0.0010
2307.00,0.0010
2306.00,0.0011
2305.00,0.0011
2304.00,0.0011
2303.00,0.0011
2302.00,0.0012
2301.00,0.0013
2300.00,0.0014
2299.00,0.0014
2298.00,0.0015
2297.00,0.0015
2296.00,0.0016
2295.00,0.0017
2294.00,0.0017
2293.00,0.0017
2292.00,0.0018
2291.00,0.0018
2290.00,0.0018
2289.00,0.0019
2288.00,0.0019
2287.00,0.0019
2286.00,0.0020
2285.00,0.0020
2284.00,0.0019
2283.00,0.0018
2282.00,0.0018
2281.00,0.0017
2280.00,0.0017
2279.00,0.0018
2278.00,0.0017
2277.00,0.0017
2276.00,0.0016
2275.00,0.0016
2274.00,0.0016
2273.00,0.0016
2272.00,0.0016
2271.00,0.0016
2270.00,0.0015
2269.00,0.0013
2268.00,0.0012
2267.00,0.0011
2266.00,0.0011
2265.00,0.0011
2264.00,0.0011
2263.00,0.0011
2262.00,0.0012
2261.00,0.0012
2260.00,0.0013
2259.00,0.0013
2258.00,0.0013
2257.00,0.0013
2256.00,0.0013
2255.00,0.0012
2254.00,0.0012
2253.00,0.0012
2252.00,0.0011
2251.00,0.0011
2250.00,0.0010
2249.00,0.0010
2248.00,0.0009
2247.00,0.0009
2246.00,0.0009
2245.00,0.0010
2244.00,0.0011
2243.00,0.0011
2242.00,0.0012
2241.00,0.0011
2240.00,0.0011
2239.00,0.0010
2238.00,0.0010
2237.00,0.0009
2236.00,0.0009
2235.00,0.0008
2234.00,0.0007
2233.00,0.0007
2232.00,0.0007
2231.00,0.0007
2230.00,0.0007
2229.00,0.0008
2228.00,0.0008
2227.00,0.0008
2226.00,0.0008
2225.00,0.0007
2224.00,0.0008
2223.00,0.0009
2222.00,0.0010
2221.00,0.0010
2220.00,0.0011
2219.00,0.0010
2218.00,0.0009
2217.00,0.0008
2216.00,0.0007
2215.00,0.0007
2214.00,0.0008
2213.00,0.0009
2212.00,0.0010
2211.00,0.0010
2210.00,0.0009
2209.00,0.0007
2208.00,0.0006
2207.00,0.0006
2206.00,0.0007
2205.00,0.0009
2204.00,0.0011
2203.00,0.0011
2202.00,0.0010
2201.00,0.0008
2200.00,0.0007
2199.00,0.0007
2198.00,0.0008
2197.00,0.0009
2196.00,0.0011
2195.00,0.0012
2194.00,0.0012
2193.00,0.0010
2192.00,0.0008
2191.00,0.0008
2190.00,0.0009
2189.00,0.0011
2188.00,0.0012
2187.00,0.0012
2186.00,0.0011
2185.00,0.0009
2184.00,0.0007
2183.00,0.0005
2182.00,0.0003
2181.00,0.0002
2180.00,0.0002
2179.00,0.0003
2178.00,0.0004
2177.00,0.0003
2176.00,0.0002
2175.00,0.0000
2174.00,0.0000
2173.00,0.0002
2172.00,0.0005
2171.00,0.0009
2170.00,0.0013
2169.00,0.0017
2168.00,0.0019
2167.00,0.0021
2166.00,0.0021
2165.00,0.0022
2164.00,0.0021
2163.00,0.0019
2162.00,0.0015
2161.00,0.0008
2160.00,-0.0003
2159.00,-0.0016
2158.00,-0.0027
2157.00,-0.0032
2156.00,-0.0033
2155.00,-0.0030
2154.00,-0.0026
2153.00,-0.0022
2152.00,-0.0017
2151.00,-0.0012
2150.00,-0.0009
2149.00,-0.0009
2148.00,-0.0011
2147.00,-0.0014
2146.00,-0.0015
2145.00,-0.0015
2144.00,-0.0012
2143.00,-0.0009
2142.00,-0.0008
2141.00,-0.0007
2140.00,-0.0006
2139.00,-0.0007
2138.00,-0.0008
2137.00,-0.0009
2136.00,-0.0010
2135.00,-0.0012
2134.00,-0.0015
2133.00,-0.0017
2132.00,-0.0018
2131.00,-0.0017
2130.00,-0.0016
2129.00,-0.0013
2128.00,-0.0011
2127.00,-0.0007
2126.00,-0.0004
2125.00,-0.0002
2124.00,0.0000
2123.00,0.0000
2122.00,-0.0001
2121.00,-0.0002
2120.00,-0.0002
2119.00,-0.0002
2118.00,0.0000
2117.00,0.0002
2116.00,0.0004
2115.00,0.0005
2114.00,0.0005
2113.00,0.0004
2112.00,0.0004
2111.00,0.0005
2110.00,0.0005
2109.00,0.0006
2108.00,0.0006
2107.00,0.0006
2106.00,0.0005
2105.00,0.0005
2104.00,0.0005
2103.00,0.0004
2102.00,0.0004
2101.00,0.0004
2100.00,0.0004
2099.00,0.0005
2098.00,0.0004
2097.00,0.0003
2096.00,0.0002
2095.00,0.0001
2094.00,0.0000
2093.00,-0.0000
2092.00,-0.0000
2091.00,-0.0001
2090.00,0.0000
2089.00,0.0001
2088.00,0.0002
2087.00,0.0002
2086.00,0.0002
2085.00,0.0003
2084.00,0.0003
2083.00,0.0004
2082.00,0.0004
2081.00,0.0004
2080.00,0.0005
2079.00,0.0006
2078.00,0.0007
2077.00,0.0007
2076.00,0.0008
2075.00,0.0008
2074.00,0.0008
2073.00,0.0007
2072.00,0.0005
2071.00,0.0003
2070.00,0.0002
2069.00,0.0002
2068.00,0.0003
2067.00,0.0003
2066.00,0.0003
2065.00,0.0003
2064.00,0.0004
2063.00,0.0006
2062.00,0.0006
2061.00,0.0006
2060.00,0.0005
2059.00,0.0004
2058.00,0.0005
2057.00,0.0006
2056.00,0.0006
2055.00,0.0004
2054.00,0.0002
2053.00,0.0005
2052.00,0.0010
2051.00,0.0015
2050.00,0.0017
2049.00,0.0015
2048.00,0.0011
2047.00,0.0007
2046.00,0.0005
2045.00,0.0003
2044.00,0.0002
2043.00,0.0002
2042.00,0.0002
2041.00,0.0001
2040.00,0.0000
2039.00,0.0000
2038.00,0.0001
2037.00,0.0002
2036.00,0.0002
2035.00,0.0001
2034.00,0.0000
2033.00,-0.0000
2032.00,-0.0001
2031.00,-0.0002
2030.00,-0.0004
2029.00,-0.0007
2028.00,-0.0009
2027.00,-0.0011
2026.00,-0.0011
2025.00,-0.0011
2024.00,-0.0010
2023.00,-0.0009
2022.00,-0.0007
2021.00,-0.0004
2020.00,-0.0003
2019.00,-0.0003
2018.00,-0.0003
2017.00,-0.0002
2016.00,-0.0001
2015.00,-0.0000
2014.00,-0.0001
2013.00,-0.0003
2012.00,-0.0004
2011.00,-0.0007
2010.00,-0.0008
2009.00,-0.0009
2008.00,-0.0008
2007.00,-0.0007
2006.00,-0.0006
2005.00,-0.0007
2004.00,-0.0010
2003.00,-0.0012
2002.00,-0.0013
2001.00,-0.0012
2000.00,-0.0011
1999.00,-0.0011
1998.00,-0.0010
1997.00,-0.0009
1996.00,-0.0009
1995.00,-0.0010
1994.00,-0.0011
1993.00,-0.0010
1992.00,-0.0009
1991.00,-0.0008
1990.00,-0.0008
1989.00,-0.0007
1988.00,-0.0004
1987.00,0.0001
1986.00,0.0004
1985.00,0.0006
1984.00,0.0007
1983.00,0.0007
1982.00,0.0008
1981.00,0.0010
1980.00,0.0010
1979.00,0.0006
1978.00,-0.0001
1977.00,-0.0006
1976.00,-0.0009
1975.00,-0.0011
1974.00,-0.0012
1973.00,-0.0015
1972.00,-0.0018
1971.00,-0.0019
1970.00,-0.0019
1969.00,-0.0016
1968.00,-0.0012
1967.00,-0.0008
1966.00,-0.0006
1965.00,-0.0005
1964.00,-0.0006
1963.00,-0.0008
1962.00,-0.0009
1961.00,-0.0010
1960.00,-0.0011
1959.00,-0.0012
1958.00,-0.0013
1957.00,-0.0013
1956.00,-0.0011
1955.00,-0.0010
1954.00,-0.0010
1953.00,-0.0010
1952.00,-0.0011
1951.00,-0.0012
1950.00,-0.0012
1949.00,-0.0011
1948.00,-0.0011
1947.00,-0.0011
1946.00,-0.0012
1945.00,-0.0013
1944.00,-0.0013
1943.00,-0.0012
1942.00,-0.0011
1941.00,-0.0009
1940.00,-0.0008
1939.00,-0.0006
1938.00,-0.0005
1937.00,-0.0005
1936.00,-0.0006
1935.00,-0.0007
1934.00,-0.0008
1933.00,-0.0008
1932.00,-0.0008
1931.00,-0.0009
1930.00,-0.0009
1929.00,-0.0009
1928.00,-0.0008
1927.00,-0.0007
1926.00,-0.0005
1925.00,-0.0004
1924.00,-0.0002
1923.00,-0.0002
1922.00,-0.0001
1921.00,-0.0001
1920.00,-0.0002
1919.00,-0.0002
1918.00,-0.0002
1917.00,-0.0002
1916.00,-0.0001
1915.00,0.0000
1914.00,0.0000
1913.00,0.0000
1912.00,0.0000
1911.00,-0.0000
1910.00,0.0000
1909.00,0.0000
1908.00,0.0001
1907.00,0.0000
1906.00,-0.0001
1905.00,-0.0001
1904.00,-0.0000
1903.00,0.0000
1902.00,0.0001
1901.00,0.0002
1900.00,0.0002
1899.00,0.0002
1898.00,0.0002
1897.00,0.0002
1896.00,0.0002
1895.00,0.0001
1894.00,0.0001
1893.00,0.0001
1892.00,0.0001
1891.00,0.0001
1890.00,0.0001
1889.00,0.0001
1888.00,0.0002
1887.00,0.0002
1886.00,0.0002
1885.00,0.0002
1884.00,0.0002
1883.00,0.0002
1882.00,0.0002
1881.00,0.0002
1880.00,0.0003
1879.00,0.0003
1878.00,0.0004
1877.00,0.0005
1876.00,0.0005
1875.00,0.0004
1874.00,0.0003
1873.00,0.0003
1872.00,0.0003
1871.00,0.0003
1870.00,0.0003
1869.00,0.0003
1868.00,0.0004
1867.00,0.0004
1866.00,0.0003
1865.00,0.0003
1864.00,0.0003
1863.00,0.0003
1862.00,0.0003
1861.00,0.0003
1860.00,0.0003
1859.00,0.0003
1858.00,0.0003
1857.00,0.0003
1856.00,0.0003
1855.00,0.0003
1854.00,0.0003
1853.00,0.0003
1852.00,0.0003
1851.00,0.0002
1850.00,0.0002
1849.00,0.0002
1848.00,0.0002
1847.00,0.0004
1846.00,0.0005
1845.00,0.0006
1844.00,0.0006
1843.00,0.0005
1842.00,0.0005
1841.00,0.0005
1840.00,0.0005
1839.00,0.0006
1838.00,0.0005
1837.00,0.0005
1836.00,0.0004
1835.00,0.0003
1834.00,0.0003
1833.00,0.0004
1832.00,0.0004
1831.00,0.0004
1830.00,0.0004
1829.00,0.0005
1828.00,0.0005
1827.00,0.0005
1826.00,0.0005
1825.00,0.0005
1824.00,0.0005
1823.00,0.0005
1822.00,0.0006
1821.00,0.0005
1820.00,0.0005
1819.00,0.0004
1818.00,0.0002
1817.00,0.0002
1816.00,0.0002
1815.00,0.0002
1814.00,0.0003
1813.00,0.0004
1812.00,0.0005
1811.00,0.0005
1810.00,0.0006
1809.00,0.0006
1808.00,0.0007
1807.00,0.0007
1806.00,0.0006
1805.00,0.0006
1804.00,0.0006
1803.00,0.0006
1802.00,0.0006
1801.00,0.0007
1800.00,0.0007
1799.00,0.0007
1798.00,0.0007
1797.00,0.0007
1796.00,0.0007
1795.00,0.0007
1794.00,0.0007
1793.00,0.0008
1792.00,0.0008
1791.00,0.0009
1790.00,0.0010
1789.00,0.0010
1788.00,0.0010
1787.00,0.0010
1786.00,0.0010
1785.00,0.0010
1784.00,0.0010
1783.00,0.0011
1782.00,0.0011
1781.00,0.0011
1780.00,0.0010
1779.00,0.0010
1778.00,0.0010
1777.00,0.0010
1776.00,0.0010
1775.00,0.0011
1774.00,0.0011
1773.00,0.0012
1772.00,0.0013
1771.00,0.0013
1770.00,0.0013
1769.00,0.0013
1768.00,0.0013
1767.00,0.0012
1766.00,0.0013
1765.00,0.0013
1764.00,0.0013
1763.00,0.0013
1762.00,0.0014
1761.00,0.0014
1760.00,0.0015
1759.00,0.0016
1758.00,0.0017
1757.00,0.0018
1756.00,0.0018
1755.00,0.0018
1754.00,0.0018
1753.00,0.0018
1752.00,0.0019
1751.00,0.0020
1750.00,0.0020
1749.00,0.0021
1748.00,0.0022
1747.00,0.0023
1746.00,0.0024
1745.00,0.0024
1744.00,0.0025
1743.00,0.0024
1742.00,0.0024
1741.00,0.0024
1740.00,0.0025
1739.00,0.0025
1738.00,0.0025
1737.00,0.0026
1736.00,0.0026
1735.00,0.0026
1734.00,0.0026
1733.00,0.0026
1732.00,0.0025
1731.00,0.0024
1730.00,0.0024
1729.00,0.0025
1728.00,0.0025
1727.00,0.0026
1726.00,0.0026
1725.00,0.0026
1724.00,0.0027
1723.00,0.0027
1722.00,0.0027
1721.00,0.0027
1720.00,0.0028
1719.00,0.0028
1718.00,0.0028
1717.00,0.0027
1716.00,0.0026
1715.00,0.0025
1714.00,0.0024
1713.00,0.0023
1712.00,0.0023
1711.00,0.0023
1710.00,0.0023
1709.00,0.0023
1708.00,0.0023
1707.00,0.0023
1706.00,0.0023
1705.00,0.0024
1704.00,0.0025
1703.00,0.0026
1702.00,0.0026
1701.00,0.0026
1700.00,0.0027
1699.00,0.0027
1698.00,0.0027
1697.00,0.0027
1696.00,0.0028
1695.00,0.0029
1694.00,0.0029
1693.00,0.0030
1692.00,0.0030
1691.00,0.0031
1690.00,0.0031
1689.00,0.0031
1688.00,0.0031
1687.00,0.0031
1686.00,0.0032
1685.00,0.0033
1684.00,0.0033
1683.00,0.0033
1682.00,0.0032
1681.00,0.0032
1680.00,0.0032
1679.00,0.0033
1678.00,0.0034
1677.00,0.0035
1676.00,0.0036
1675.00,0.0036
1674.00,0.0036
1673.00,0.0036
1672.00,0.0036
1671.00,0.0036
1670.00,0.0036
1669.00,0.0037
1668.00,0.0038
1667.00,0.0039
1666.00,0.0039
1665.00,0.0040
1664.00,0.0041
1663.00,0.0041
1662.00,0.0041
1661.00,0.0041
1660.00,0.0041
1659.00,0.0041
1658.00,0.0042
1657.00,0.0044
1656.00,0.0045
1655.00,0.0045
1654.00,0.0045
1653.00,0.0046
1652.00,0.0047
1651.00,0.0048
1650.00,0.0049
1649.00,0.0049
1648.00,0.0050
1647.00,0.0051
1646.00,0.0051
1645.00,0.0052
1644.00,0.0052
1643.00,0.0053
1642.00,0.0054
1641.00,0.0055
1640.00,0.0056
1639.00,0.0057
1638.00,0.0058
1637.00,0.0059
1636.00,0.0061
1635.00,0.0061
1634.00,0.0060
1633.00,0.0059
1632.00,0.0059
1631.00,0.0058
1630.00,0.0058
1629.00,0.0058
1628.00,0.0058
1627.00,0.0058
1626.00,0.0058
1625.00,0.0058
1624.00,0.0058
1623.00,0.0058
1622.00,0.0057
1621.00,0.0057
1620.00,0.0057
1619.00,0.0057
1618.00,0.0057
1617.00,0.0057
1616.00,0.0057
1615.00,0.0056
1614.00,0.0056
1613.00,0.0055
1612.00,0.0055
1611.00,0.0055
1610.00,0.0054
1609.00,0.0055
1608.00,0.0055
1607.00,0.0055
1606.00,0.0055
1605.00,0.0056
1604.00,0.0056
1603.00,0.0056
1602.00,0.0056
1601.00,0.0057
1600.00,0.0057
1599.00,0.0058
1598.00,0.0058
1597.00,0.0059
1596.00,0.0060
1595.00,0.0061
1594.00,0.0063
1593.00,0.0064
1592.00,0.0066
1591.00,0.0068
1590.00,0.0070
1589.00,0.0073
1588.00,0.0077
1587.00,0.0082
1586.00,0.0087
1585.00,0.0093
1584.00,0.0101
1583.00,0.0109
1582.00,0.0117
1581.00,0.0125
1580.00,0.0133
1579.00,0.0138
1578.00,0.0142
1577.00,0.0143
1576.00,0.0141
1575.00,0.0137
1574.00,0.0132
1573.00,0.0128
1572.00,0.0124
1571.00,0.0118
1570.00,0.0111
1569.00,0.0105
1568.00,0.0099
1567.00,0.0095
1566.00,0.0092
1565.00,0.0089
1564.00,0.0087
1563.00,0.0085
1562.00,0.0084
1561.00,0.0083
1560.00,0.0083
1559.00,0.0083
1558.00,0.0083
1557.00,0.0083
1556.00,0.0084
1555.00,0.0086
1554.00,0.0088
1553.00,0.0090
1552.00,0.0094
1551.00,0.0098
1550.00,0.0103
1549.00,0.0109
1548.00,0.0116
1547.00,0.0123
1546.00,0.0131
1545.00,0.0142
1544.00,0.0152
1543.00,0.0161
1542.00,0.0167
1541.00,0.0169
1540.00,0.0164
1539.00,0.0155
1538.00,0.0146
1537.00,0.0139
1536.00,0.0132
1535.00,0.0124
1534.00,0.0114
1533.00,0.0104
1532.00,0.0096
1531.00,0.0091
1530.00,0.0086
1529.00,0.0083
1528.00,0.0081
1527.00,0.0078
1526.00,0.0075
1525.00,0.0074
1524.00,0.0073
1523.00,0.0073
1522.00,0.0072
1521.00,0.0072
1520.00,0.0072
1519.00,0.0072
1518.00,0.0071
1517.00,0.0071
1516.00,0.0072
1515.00,0.0072
1514.00,0.0071
1513.00,0.0072
1512.00,0.0072
1511.00,0.0073
1510.00,0.0073
1509.00,0.0074
1508.00,0.0075
1507.00,0.0075
1506.00,0.0075
1505.00,0.0076
1504.00,0.0077
1503.00,0.0078
1502.00,0.0080
1501.00,0.0082
1500.00,0.0085
1499.00,0.0087
1498.00,0.0090
1497.00,0.0094
1496.00,0.0098
1495.00,0.0101
1494.00,0.0104
1493.00,0.0107
1492.00,0.0112
1491.00,0.0116
1490.00,0.0121
1489.00,0.0128
1488.00,0.0134
1487.00,0.0141
1486.00,0.0148
1485.00,0.0157
1484.00,0.0168
1483.00,0.0180
1482.00,0.0194
1481.00,0.0210
1480.00,0.0226
1479.00,0.0242
1478.00,0.0261
1477.00,0.0285
1476.00,0.0314
1475.00,0.0347
1474.00,0.0388
1473.00,0.0445
1472.00,0.0510
1471.00,0.0572
1470.00,0.0632
1469.00,0.0695
1468.00,0.0764
1467.00,0.0841
1466.00,0.0927
1465.00,0.1019
1464.00,0.1097
1463.00,0.1150
1462.00,0.1182
1461.00,0.1202
1460.00,0.1215
1459.00,0.1222
1458.00,0.1225
1457.00,0.1225
1456.00,0.1217
1455.00,0.1205
1454.00,0.1191
1453.00,0.1171
1452.00,0.1143
1451.00,0.1104
1450.00,0.1053
1449.00,0.0983
1448.00,0.0895
1447.00,0.0802
1446.00,0.0718
1445.00,0.0645
1444.00,0.0583
1443.00,0.0533
1442.00,0.0495
1441.00,0.0470
1440.00,0.0455
1439.00,0.0450
1438.00,0.0454
1437.00,0.0458
1436.00,0.0451
1435.00,0.0428
1434.00,0.0393
1433.00,0.0351
1432.00,0.0306
1431.00,0.0267
1430.00,0.0235
1429.00,0.0212
1428.00,0.0196
1427.00,0.0187
1426.00,0.0181
1425.00,0.0175
1424.00,0.0170
1423.00,0.0168
1422.00,0.0166
1421.00,0.0163
1420.00,0.0160
1419.00,0.0156
1418.00,0.0153
1417.00,0.0149
1416.00,0.0145
1415.00,0.0142
1414.00,0.0140
1413.00,0.0138
1412.00,0.0135
1411.00,0.0133
1410.00,0.0132
1409.00,0.0130
1408.00,0.0128
1407.00,0.0127
1406.00,0.0127
1405.00,0.0126
1404.00,0.0124
1403.00,0.0124
1402.00,0.0124
1401.00,0.0124
1400.00,0.0124
1399.00,0.0125
1398.00,0.0127
1397.00,0.0129
1396.00,0.0130
1395.00,0.0134
1394.00,0.0139
1393.00,0.0143
1392.00,0.0148
1391.00,0.0155
1390.00,0.0164
1389.00,0.0177
1388.00,0.0197
1387.00,0.0226
1386.00,0.0267
1385.00,0.0321
1384.00,0.0395
1383.00,0.0500
1382.00,0.0642
1381.00,0.0827
1380.00,0.1059
1379.00,0.1329
1378.00,0.1599
1377.00,0.1806
1376.00,0.1888
1375.00,0.1806
1374.00,0.1586
1373.00,0.1311
1372.00,0.1055
1371.00,0.0844
1370.00,0.0676
1369.00,0.0549
1368.00,0.0463
1367.00,0.0410
1366.00,0.0381
1365.00,0.0370
1364.00,0.0372
1363.00,0.0386
1362.00,0.0407
1361.00,0.0429
1360.00,0.0446
1359.00,0.0451
1358.00,0.0441
1357.00,0.0416
1356.00,0.0380
1355.00,0.0340
1354.00,0.0301
1353.00,0.0268
1352.00,0.0241
1351.00,0.0220
1350.00,0.0202
1349.00,0.0187
1348.00,0.0175
1347.00,0.0165
1346.00,0.0156
1345.00,0.0149
1344.00,0.0142
1343.00,0.0137
1342.00,0.0133
1341.00,0.0130
1340.00,0.0128
1339.00,0.0126
1338.00,0.0125
1337.00,0.0125
1336.00,0.0125
1335.00,0.0127
1334.00,0.0129
1333.00,0.0132
1332.00,0.0136
1331.00,0.0139
1330.00,0.0140
1329.00,0.0139
1328.00,0.0136
1327.00,0.0131
1326.00,0.0125
1325.00,0.0120
1324.00,0.0115
1323.00,0.0111
1322.00,0.0108
1321.00,0.0105
1320.00,0.0103
1319.00,0.0101
1318.00,0.0099
1317.00,0.0097
1316.00,0.0096
1315.00,0.0095
1314.00,0.0094
1313.00,0.0093
1312.00,0.0094
1311.00,0.0096
1310.00,0.0100
1309.00,0.0106
1308.00,0.0114
1307.00,0.0124
1306.00,0.0134
1305.00,0.0141
1304.00,0.0143
1303.00,0.0141
1302.00,0.0137
1301.00,0.0133
1300.00,0.0131
1299.00,0.0131
1298.00,0.0131
1297.00,0.0131
1296.00,0.0130
1295.00,0.0128
1294.00,0.0124
1293.00,0.0119
1292.00,0.0114
1291.00,0.0110
1290.00,0.0106
1289.00,0.0102
1288.00,0.0099
1287.00,0.0096
1286.00,0.0094
1285.00,0.0091
1284.00,0.0089
1283.00,0.0088
1282.00,0.0087
1281.00,0.0087
1280.00,0.0086
1279.00,0.0086
1278.00,0.0086
1277.00,0.0086
1276.00,0.0086
1275.00,0.0085
1274.00,0.0085
1273.00,0.0085
1272.00,0.0086
1271.00,0.0087
1270.00,0.0089
1269.00,0.0091
1268.00,0.0094
1267.00,0.0097
1266.00,0.0101
1265.00,0.0106
1264.00,0.0110
1263.00,0.0114
1262.00,0.0117
1261.00,0.0121
1260.00,0.0124
1259.00,0.0129
1258.00,0.0134
1257.00,0.0138
1256.00,0.0139
1255.00,0.0137
1254.00,0.0131
1253.00,0.0123
1252.00,0.0115
1251.00,0.0109
1250.00,0.0104
1249.00,0.0099
1248.00,0.0096
1247.00,0.0093
1246.00,0.0092
1245.00,0.0091
1244.00,0.0090
1243.00,0.0090
1242.00,0.0089
1241.00,0.0088
1240.00,0.0087
1239.00,0.0087
1238.00,0.0087
1237.00,0.0088
1236.00,0.0089
1235.00,0.0090
1234.00,0.0091
1233.00,0.0092
1232.00,0.0092
1231.00,0.0093
1230.00,0.0093
1229.00,0.0094
1228.00,0.0095
1227.00,0.0098
1226.00,0.0101
1225.00,0.0105
1224.00,0.0108
1223.00,0.0112
1222.00,0.0115
1221.00,0.0117
1220.00,0.0118
1219.00,0.0118
1218.00,0.0117
1217.00,0.0116
1216.00,0.0113
1215.00,0.0111
1214.00,0.0109
1213.00,0.0106
1212.00,0.0104
1211.00,0.0102
1210.00,0.0100
1209.00,0.0098
1208.00,0.0097
1207.00,0.0095
1206.00,0.0095
1205.00,0.0095
1204.00,0.0096
1203.00,0.0096
1202.00,0.0096
1201.00,0.0096
1200.00,0.0095
1199.00,0.0095
1198.00,0.0095
1197.00,0.0095
1196.00,0.0095
1195.00,0.0096
1194.00,0.0097
1193.00,0.0098
1192.00,0.0099
1191.00,0.0099
1190.00,0.0099
1189.00,0.0099
1188.00,0.0098
1187.00,0.0098
1186.00,0.0098
1185.00,0.0099
1184.00,0.0100
1183.00,0.0101
1182.00,0.0102
1181.00,0.0103
1180.00,0.0105
1179.00,0.0108
1178.00,0.0113
1177.00,0.0120
1176.00,0.0130
1175.00,0.0142
1174.00,0.0159
1173.00,0.0181
1172.00,0.0208
1171.00,0.0237
1170.00,0.0267
1169.00,0.0290
1168.00,0.0304
1167.00,0.0306
1166.00,0.0298
1165.00,0.0283
1164.00,0.0267
1163.00,0.0251
1162.00,0.0237
1161.00,0.0226
1160.00,0.0217
1159.00,0.0211
1158.00,0.0206
1157.00,0.0203
1156.00,0.0201
1155.00,0.0199
1154.00,0.0198
1153.00,0.0195
1152.00,0.0191
1151.00,0.0185
1150.00,0.0176
1149.00,0.0166
1148.00,0.0156
1147.00,0.0147
1146.00,0.0140
1145.00,0.0133
1144.00,0.0127
1143.00,0.0121
1142.00,0.0116
1141.00,0.0112
1140.00,0.0108
1139.00,0.0104
1138.00,0.0102
1137.00,0.0099
1136.00,0.0097
1135.00,0.0096
1134.00,0.0095
1133.00,0.0095
1132.00,0.0094
1131.00,0.0094
1130.00,0.0094
1129.00,0.0094
1128.00,0.0094
1127.00,0.0094
1126.00,0.0095
1125.00,0.0095
1124.00,0.0094
1123.00,0.0094
1122.00,0.0093
1121.00,0.0094
1120.00,0.0095
1119.00,0.0096
1118.00,0.0098
1117.00,0.0100
1116.00,0.0102
1115.00,0.0104
1114.00,0.0105
1113.00,0.0107
1112.00,0.0108
1111.00,0.0111
1110.00,0.0113
1109.00,0.0117
1108.00,0.0121
1107.00,0.0126
1106.00,0.0131
1105.00,0.0137
1104.00,0.0142
1103.00,0.0145
1102.00,0.0145
1101.00,0.0141
1100.00,0.0136
1099.00,0.0129
1098.00,0.0123
1097.00,0.0118
1096.00,0.0114
1095.00,0.0110
1094.00,0.0107
1093.00,0.0104
1092.00,0.0101
1091.00,0.0100
1090.00,0.0099
1089.00,0.0098
1088.00,0.0098
1087.00,0.0097
1086.00,0.0097
1085.00,0.0095
1084.00,0.0094
1083.00,0.0094
1082.00,0.0093
1081.00,0.0092
1080.00,0.0091
1079.00,0.0090
1078.00,0.0089
1077.00,0.0088
1076.00,0.0088
1075.00,0.0088
1074.00,0.0088
1073.00,0.0088
1072.00,0.0086
1071.00,0.0084
1070.00,0.0083
1069.00,0.0083
1068.00,0.0083
1067.00,0.0084
1066.00,0.0086
1065.00,0.0087
1064.00,0.0088
1063.00,0.0089
1062.00,0.0090
1061.00,0.0091
1060.00,0.0093
1059.00,0.0094
1058.00,0.0096
1057.00,0.0098
1056.00,0.0099
1055.00,0.0101
1054.00,0.0104
1053.00,0.0106
1052.00,0.0110
1051.00,0.0114
1050.00,0.0119
1049.00,0.0123
1048.00,0.0127
1047.00,0.0131
1046.00,0.0134
1045.00,0.0136
1044.00,0.0136
1043.00,0.0135
1042.00,0.0133
1041.00,0.0132
1040.00,0.0130
1039.00,0.0130
1038.00,0.0131
1037.00,0.0132
1036.00,0.0133
1035.00,0.0132
1034.00,0.0129
1033.00,0.0126
1032.00,0.0123
1031.00,0.0122
1030.00,0.0122
1029.00,0.0122
1028.00,0.0123
1027.00,0.0123
1026.00,0.0124
1025.00,0.0125
1024.00,0.0126
1023.00,0.0128
1022.00,0.0130
1021.00,0.0132
1020.00,0.0134
1019.00,0.0136
1018.00,0.0139
1017.00,0.0141
1016.00,0.0144
1015.00,0.0146
1014.00,0.0147
1013.00,0.0148
1012.00,0.0149
1011.00,0.0148
1010.00,0.0148
1009.00,0.0147
1008.00,0.0148
1007.00,0.0150
1006.00,0.0154
1005.00,0.0162
1004.00,0.0174
1003.00,0.0193
1002.00,0.0218
1001.00,0.0251
1000.00,0.0286
999.00,0.0315
998.00,0.0329
997.00,0.0322
996.00,0.0296
995.00,0.0260
994.00,0.0222
993.00,0.0190
992.00,0.0165
991.00,0.0148
990.00,0.0136
989.00,0.0128
988.00,0.0122
987.00,0.0119
986.00,0.0118
985.00,0.0120
984.00,0.0123
983.00,0.0129
982.00,0.0139
981.00,0.0153
980.00,0.0173
979.00,0.0199
978.00,0.0233
977.00,0.0272
976.00,0.0315
975.00,0.0356
974.00,0.0385
973.00,0.0395
972.00,0.0381
971.00,0.0345
970.00,0.0298
969.00,0.0250
968.00,0.0210
967.00,0.0179
966.00,0.0156
965.00,0.0140
964.00,0.0128
963.00,0.0119
962.00,0.0112
961.00,0.0107
960.00,0.0103
959.00,0.0099
958.00,0.0096
957.00,0.0093
956.00,0.0091
955.00,0.0088
954.00,0.0086
953.00,0.0085
952.00,0.0084
951.00,0.0084
950.00,0.0084
949.00,0.0084
948.00,0.0084
947.00,0.0084
946.00,0.0084
945.00,0.0085
944.00,0.0088
943.00,0.0093
942.00,0.0097
941.00,0.0099
940.00,0.0099
939.00,0.0096
938.00,0.0092
937.00,0.0088
936.00,0.0083
935.00,0.0079
934.00,0.0076
933.00,0.0073
932.00,0.0071
931.00,0.0069
930.00,0.0069
929.00,0.0068
928.00,0.0066
927.00,0.0065
926.00,0.0065
925.00,0.0065
924.00,0.0065
923.00,0.0065
922.00,0.0065
921.00,0.0064
920.00,0.0064
919.00,0.0064
918.00,0.0065
917.00,0.0065
916.00,0.0065
915.00,0.0065
914.00,0.0065
913.00,0.0066
912.00,0.0068
911.00,0.0069
910.00,0.0072
909.00,0.0075
908.00,0.0079
907.00,0.0083
906.00,0.0089
905.00,0.0099
904.00,0.0112
903.00,0.0129
902.00,0.0149
901.00,0.0167
900.00,0.0178
899.00,0.0181
898.00,0.0173
897.00,0.0158
896.00,0.0140
895.00,0.0122
894.00,0.0108
893.00,0.0098
892.00,0.0091
891.00,0.0086
890.00,0.0083
889.00,0.0081
888.00,0.0079
887.00,0.0077
886.00,0.0075
885.00,0.0074
884.00,0.0074
883.00,0.0075
882.00,0.0077
881.00,0.0078
880.00,0.0078
879.00,0.0078
878.00,0.0078
877.00,0.0079
876.00,0.0079
875.00,0.0080
874.00,0.0080
873.00,0.0080
872.00,0.0080
871.00,0.0080
870.00,0.0080
869.00,0.0079
868.00,0.0079
867.00,0.0079
866.00,0.0080
865.00,0.0082
864.00,0.0083
863.00,0.0083
862.00,0.0083
861.00,0.0083
860.00,0.0084
859.00,0.0085
858.00,0.0087
857.00,0.0088
856.00,0.0090
855.00,0.0092
854.00,0.0095
853.00,0.0097
852.00,0.0100
851.00,0.0103
850.00,0.0108
849.00,0.0114
848.00,0.0122
847.00,0.0132
846.00,0.0149
845.00,0.0175
844.00,0.0214
843.00,0.0260
842.00,0.0300
841.00,0.0315
840.00,0.0298
839.00,0.0258
838.00,0.0212
837.00,0.0174
836.00,0.0150
835.00,0.0136
834.00,0.0128
833.00,0.0122
832.00,0.0118
831.00,0.0116
830.00,0.0113
829.00,0.0111
828.00,0.0109
827.00,0.0106
826.00,0.0104
825.00,0.0103
824.00,0.0103
823.00,0.0104
822.00,0.0107
821.00,0.0110
820.00,0.0113
819.00,0.0116
818.00,0.0120
817.00,0.0127
816.00,0.0137
815.00,0.0149
814.00,0.0165
813.00,0.0183
812.00,0.0202
811.00,0.0220
810.00,0.0233
809.00,0.0237
808.00,0.0233
807.00,0.0221
806.00,0.0203
805.00,0.0184
804.00,0.0168
803.00,0.0156
802.00,0.0147
801.00,0.0139
800.00,0.0132
799.00,0.0126
798.00,0.0121
797.00,0.0117
796.00,0.0113
795.00,0.0108
794.00,0.0102
793.00,0.0098
792.00,0.0095
791.00,0.0093
790.00,0.0092
789.00,0.0090
788.00,0.0087
787.00,0.0083
786.00,0.0081
785.00,0.0080
784.00,0.0079
783.00,0.0078
782.00,0.0077
781.00,0.0076
780.00,0.0074
779.00,0.0072
778.00,0.0071
777.00,0.0071
776.00,0.0072
775.00,0.0072
774.00,0.0072
773.00,0.0071
772.00,0.0071
771.00,0.0071
770.00,0.0071
769.00,0.0072
768.00,0.0071
767.00,0.0070
766.00,0.0069
765.00,0.0069
764.00,0.0070
763.00,0.0071
762.00,0.0073
761.00,0.0075
760.00,0.0075
759.00,0.0075
758.00,0.0075
757.00,0.0075
756.00,0.0075
755.00,0.0076
754.00,0.0078
753.00,0.0080
752.00,0.0082
751.00,0.0084
750.00,0.0085
749.00,0.0086
748.00,0.0085
747.00,0.0085
746.00,0.0087
745.00,0.0089
744.00,0.0092
743.00,0.0095
742.00,0.0098
741.00,0.0101
740.00,0.0105
739.00,0.0108
738.00,0.0111
737.00,0.0114
736.00,0.0118
735.00,0.0122
734.00,0.0128
733.00,0.0135
732.00,0.0142
731.00,0.0149
730.00,0.0155
729.00,0.0158
728.00,0.0159
727.00,0.0160
726.00,0.0163
725.00,0.0168
724.00,0.0174
723.00,0.0181
722.00,0.0188
721.00,0.0191
720.00,0.0189
719.00,0.0181
718.00,0.0169
717.00,0.0156
716.00,0.0144
715.00,0.0134
714.00,0.0127
713.00,0.0121
712.00,0.0116
711.00,0.0113
710.00,0.0112
709.00,0.0113
708.00,0.0113
707.00,0.0112
706.00,0.0109
705.00,0.0107
704.00,0.0106
703.00,0.0106
702.00,0.0107
701.00,0.0108
700.00,0.0108
699.00,0.0107
698.00,0.0107
697.00,0.0107
696.00,0.0108
695.00,0.0110
694.00,0.0112
693.00,0.0112
692.00,0.0112
691.00,0.0111
690.00,0.0110
689.00,0.0110
688.00,0.0110
687.00,0.0110
686.00,0.0109
685.00,0.0108
684.00,0.0107
683.00,0.0107
682.00,0.0108
681.00,0.0107
680.00,0.0107
679.00,0.0107
678.00,0.0108
677.00,0.0110
676.00,0.0111
675.00,0.0111
674.00,0.0112
673.00,0.0112
672.00,0.0114
671.00,0.0117
670.00,0.0120
669.00,0.0121
668.00,0.0120
667.00,0.0117
666.00,0.0112
665.00,0.0108
664.00,0.0105
663.00,0.0103
662.00,0.0101
661.00,0.0100
660.00,0.0100
659.00,0.0099
658.00,0.0096
657.00,0.0093
656.00,0.0091
655.00,0.0091
654.00,0.0091
653.00,0.0091
652.00,0.0090
651.00,0.0089
650.00,0.0089
649.00,0.0088
648.00,0.0088
647.00,0.0090
646.00,0.0092
645.00,0.0093
644.00,0.0093
643.00,0.0092
642.00,0.0092
641.00,0.0092
640.00,0.0092
639.00,0.0093
638.00,0.0094
637.00,0.0094
636.00,0.0093
635.00,0.0091
634.00,0.0088
633.00,0.0088
632.00,0.0090
631.00,0.0093
630.00,0.0093
629.00,0.0092
628.00,0.0090
627.00,0.0089
626.00,0.0091
625.00,0.0092
624.00,0.0092
623.00,0.0091
622.00,0.0089
621.00,0.0086
620.00,0.0085
619.00,0.0086
618.00,0.0088
617.00,0.0091
616.00,0.0095
615.00,0.0098
614.00,0.0101
613.00,0.0101
612.00,0.0099
611.00,0.0096
610.00,0.0094
609.00,0.0094
608.00,0.0094
607.00,0.0092
606.00,0.0090
605.00,0.0088
604.00,0.0087
603.00,0.0087
602.00,0.0089
601.00,0.0091
600.00,0.0092
599.00,0.0092
598.00,0.0092
597.00,0.0091
596.00,0.0091
595.00,0.0091
594.00,0.0090
593.00,0.0087
592.00,0.0084
591.00,0.0083
590.00,0.0086
589.00,0.0089
588.00,0.0091
587.00,0.0091
586.00,0.0092
585.00,0.0092
584.00,0.0093
583.00,0.0093
582.00,0.0091
581.00,0.0088
580.00,0.0086
579.00,0.0087
578.00,0.0090
577.00,0.0092
576.00,0.0093
575.00,0.0092
574.00,0.0092
573.00,0.0092
572.00,0.0091
571.00,0.0089
570.00,0.0087
569.00,0.0086
568.00,0.0084
567.00,0.0083
566.00,0.0083
565.00,0.0084
564.00,0.0085
563.00,0.0086
562.00,0.0087
561.00,0.0088
560.00,0.0088
559.00,0.0088
558.00,0.0088
557.00,0.0089
556.00,0.0090
555.00,0.0090
554.00,0.0090
553.00,0.0090
552.00,0.0090
551.00,0.0091
550.00,0.0091
549.00,0.0090
548.00,0.0090
547.00,0.0091
546.00,0.0093
545.00,0.0096
544.00,0.0097
543.00,0.0098
542.00,0.0101
541.00,0.0108
540.00,0.0116
539.00,0.0122
538.00,0.0124
537.00,0.0123
536.00,0.0120
535.00,0.0118
534.00,0.0119
533.00,0.0121
532.00,0.0123
531.00,0.0124
530.00,0.0126
529.00,0.0126
528.00,0.0123
527.00,0.0116
526.00,0.0108
525.00,0.0101
524.00,0.0097
523.00,0.0094
522.00,0.0092
521.00,0.0088
520.00,0.0084
519.00,0.0084
518.00,0.0086
517.00,0.0087
516.00,0.0085
515.00,0.0082
514.00,0.0081
513.00,0.0084
512.00,0.0087
511.00,0.0090
510.00,0.0091
509.00,0.0094
508.00,0.0098
507.00,0.0099
506.00,0.0097
505.00,0.0095
504.00,0.0094
503.00,0.0094
502.00,0.0094
501.00,0.0093
500.00,0.0093
499.00,0.0096
498.00,0.0102
497.00,0.0105
496.00,0.0104
495.00,0.0102
494.00,0.0101
493.00,0.0102
492.00,0.0104
491.00,0.0105
490.00,0.0105
489.00,0.0105
488.00,0.0105
487.00,0.0106
486.00,0.0106
485.00,0.0104
484.00,0.0100
483.00,0.0101
482.00,0.0108
481.00,0.0118
480.00,0.0124
479.00,0.0124
478.00,0.0122
477.00,0.0123
476.00,0.0127
475.00,0.0133
474.00,0.0137
473.00,0.0139
472.00,0.0138
471.00,0.0138
470.00,0.0142
469.00,0.0148
468.00,0.0157
467.00,0.0166
466.00,0.0173
465.00,0.0174
464.00,0.0175
463.00,0.0180
462.00,0.0193
461.00,0.0211
460.00,0.0225
459.00,0.0234
458.00,0.0234
457.00,0.0230
456.00,0.0225
455.00,0.0221
454.00,0.0218
453.00,0.0209
452.00,0.0194
451.00,0.0178
450.00,0.0167
