Created as New Dataset,Sample 035 By Administrator Date Thursday, September 04 2025
cm-1,A
4000.00,0.0010
3999.00,0.0010
3998.00,0.0010
3997.00,0.0010
3996.00,0.0010
3995.00,0.0010
3994.00,0.0011
3993.00,0.0010
3992.00,0.0010
3991.00,0.0010
3990.00,0.0010
3989.00,0.0010
3988.00,0.0010
3987.00,0.0010
3986.00,0.0009
3985.00,0.0009
3984.00,0.0009
3983.00,0.0009
3982.00,0.0009
3981.00,0.0008
3980.00,0.0008
3979.00,0.0008
3978.00,0.0008
3977.00,0.0008
3976.00,0.0008
3975.00,0.0008
3974.00,0.0008
3973.00,0.0008
3972.00,0.0008
3971.00,0.0008
3970.00,0.0007
3969.00,0.0007
3968.00,0.0007
3967.00,0.0008
3966.00,0.0008
3965.00,0.0008
3964.00,0.0008
3963.00,0.0008
3962.00,0.0008
3961.00,0.0008
3960.00,0.0008
3959.00,0.0008
3958.00,0.0009
3957.00,0.0009
3956.00,0.0009
3955.00,0.0009
3954.00,0.0009
3953.00,0.0008
3952.00,0.0008
3951.00,0.0007
3950.00,0.0007
3949.00,0.0008
3948.00,0.0008
3947.00,0.0008
3946.00,0.0008
3945.00,0.0008
3944.00,0.0008
3943.00,0.0008
3942.00,0.0009
3941.00,0.0009
3940.00,0.0009
3939.00,0.0009
3938.00,0.0009
3937.00,0.0009
3936.00,0.0009
3935.00,0.0009
3934.00,0.0009
3933.00,0.0008
3932.00,0.0008
3931.00,0.0008
3930.00,0.0008
3929.00,0.0009
3928.00,0.0009
3927.00,0.0009
3926.00,0.0009
3925.00,0.0009
3924.00,0.0008
3923.00,0.0008
3922.00,0.0008
3921.00,0.0008
3920.00,0.0009
3919.00,0.0009
3918.00,0.0009
3917.00,0.0008
3916.00,0.0008
3915.00,0.0008
3914.00,0.0008
3913.00,0.0008
3912.00,0.0008
3911.00,0.0008
3910.00,0.0008
3909.00,0.0008
3908.00,0.0008
3907.00,0.0008
3906.00,0.0007
3905.00,0.0007
3904.00,0.0007
3903.00,0.0007
3902.00,0.0007
3901.00,0.0008
3900.00,0.0008
3899.00,0.0008
3898.00,0.0008
3897.00,0.0009
3896.00,0.0009
3895.00,0.0009
3894.00,0.0008
3893.00,0.0008
3892.00,0.0007
3891.00,0.0007
3890.00,0.0008
3889.00,0.0008
3888.00,0.0008
3887.00,0.0008
3886.00,0.0008
3885.00,0.0008
3884.00,0.0008
3883.00,0.0008
3882.00,0.0008
3881.00,0.0007
3880.00,0.0007
3879.00,0.0007
3878.00,0.0007
3877.00,0.0007
3876.00,0.0007
3875.00,0.0008
3874.00,0.0008
3873.00,0.0008
3872.00,0.0007
3871.00,0.0007
3870.00,0.0008
3869.00,0.0008
3868.00,0.0008
3867.00,0.0008
3866.00,0.0008
3865.00,0.0007
3864.00,0.0007
3863.00,0.0007
3862.00,0.0007
3861.00,0.0007
3860.00,0.0007
3859.00,0.0007
3858.00,0.0007
3857.00,0.0006
3856.00,0.0006
3855.00,0.0006
3854.00,0.0007
3853.00,0.0008
3852.00,0.0008
3851.00,0.0008
3850.00,0.0008
3849.00,0.0008
3848.00,0.0008
3847.00,0.0007
3846.00,0.0007
3845.00,0.0007
3844.00,0.0007
3843.00,0.0007
3842.00,0.0007
3841.00,0.0007
3840.00,0.0007
3839.00,0.0008
3838.00,0.0008
3837.00,0.0008
3836.00,0.0008
3835.00,0.0008
3834.00,0.0008
3833.00,0.0008
3832.00,0.0008
3831.00,0.0008
3830.00,0.0008
3829.00,0.0007
3828.00,0.0007
3827.00,0.0007
3826.00,0.0008
3825.00,0.0008
3824.00,0.0008
3823.00,0.0007
3822.00,0.0007
3821.00,0.0008
3820.00,0.0008
3819.00,0.0008
3818.00,0.0008
3817.00,0.0008
3816.00,0.0008
3815.00,0.0009
3814.00,0.0009
3813.00,0.0009
3812.00,0.0009
3811.00,0.0009
3810.00,0.0009
3809.00,0.0008
3808.00,0.0008
3807.00,0.0008
3806.00,0.0008
3805.00,0.0008
3804.00,0.0008
3803.00,0.0008
3802.00,0.0008
3801.00,0.0008
3800.00,0.0008
3799.00,0.0008
3798.00,0.0007
3797.00,0.0007
3796.00,0.0007
3795.00,0.0008
3794.00,0.0007
3793.00,0.0007
3792.00,0.0007
3791.00,0.0008
3790.00,0.0008
3789.00,0.0008
3788.00,0.0007
3787.00,0.0007
3786.00,0.0007
3785.00,0.0007
3784.00,0.0007
3783.00,0.0007
3782.00,0.0007
3781.00,0.0007
3780.00,0.0007
3779.00,0.0007
3778.00,0.0008
3777.00,0.0008
3776.00,0.0008
3775.00,0.0008
3774.00,0.0008
3773.00,0.0008
3772.00,0.0008
3771.00,0.0008
3770.00,0.0008
3769.00,0.0008
3768.00,0.0008
3767.00,0.0007
3766.00,0.0007
3765.00,0.0007
3764.00,0.0008
3763.00,0.0008
3762.00,0.0008
3761.00,0.0008
3760.00,0.0008
3759.00,0.0008
3758.00,0.0008
3757.00,0.0008
3756.00,0.0008
3755.00,0.0008
3754.00,0.0008
3753.00,0.0008
3752.00,0.0008
3751.00,0.0009
3750.00,0.0009
3749.00,0.0009
3748.00,0.0009
3747.00,0.0009
3746.00,0.0009
3745.00,0.0009
3744.00,0.0008
3743.00,0.0008
3742.00,0.0007
3741.00,0.0006
3740.00,0.0006
3739.00,0.0005
3738.00,0.0005
3737.00,0.0005
3736.00,0.0005
3735.00,0.0005
3734.00,0.0005
3733.00,0.0005
3732.00,0.0005
3731.00,0.0005
3730.00,0.0005
3729.00,0.0004
3728.00,0.0004
3727.00,0.0004
3726.00,0.0003
3725.00,0.0003
3724.00,0.0004
3723.00,0.0004
3722.00,0.0004
3721.00,0.0005
3720.00,0.0005
3719.00,0.0006
3718.00,0.0006
3717.00,0.0006
3716.00,0.0006
3715.00,0.0006
3714.00,0.0006
3713.00,0.0006
3712.00,0.0006
3711.00,0.0006
3710.00,0.0005
3709.00,0.0005
3708.00,0.0005
3707.00,0.0005
3706.00,0.0006
3705.00,0.0006
3704.00,0.0006
3703.00,0.0005
3702.00,0.0005
3701.00,0.0005
3700.00,0.0006
3699.00,0.0006
3698.00,0.0006
3697.00,0.0006
3696.00,0.0005
3695.00,0.0005
3694.00,0.0005
3693.00,0.0004
3692.00,0.0004
3691.00,0.0005
3690.00,0.0006
3689.00,0.0006
3688.00,0.0007
3687.00,0.0007
3686.00,0.0007
3685.00,0.0008
3684.00,0.0008
3683.00,0.0008
3682.00,0.0008
3681.00,0.0009
3680.00,0.0010
3679.00,0.0011
3678.00,0.0012
3677.00,0.0013
3676.00,0.0012
3675.00,0.0012
3674.00,0.0011
3673.00,0.0011
3672.00,0.0011
3671.00,0.0010
3670.00,0.0010
3669.00,0.0010
3668.00,0.0010
3667.00,0.0010
3666.00,0.0010
3665.00,0.0010
3664.00,0.0010
3663.00,0.0011
3662.00,0.0011
3661.00,0.0011
3660.00,0.0012
3659.00,0.0011
3658.00,0.0011
3657.00,0.0011
3656.00,0.0010
3655.00,0.0010
3654.00,0.0010
3653.00,0.0010
3652.00,0.0010
3651.00,0.0010
3650.00,0.0011
3649.00,0.0011
3648.00,0.0011
3647.00,0.0011
3646.00,0.0011
3645.00,0.0011
3644.00,0.0011
3643.00,0.0011
3642.00,0.0010
3641.00,0.0010
3640.00,0.0010
3639.00,0.0010
3638.00,0.0010
3637.00,0.0010
3636.00,0.0010
3635.00,0.0010
3634.00,0.0010
3633.00,0.0010
3632.00,0.0010
3631.00,0.0009
3630.00,0.0009
3629.00,0.0009
3628.00,0.0009
3627.00,0.0009
3626.00,0.0009
3625.00,0.0008
3624.00,0.0009
3623.00,0.0009
3622.00,0.0009
3621.00,0.0009
3620.00,0.0009
3619.00,0.0009
3618.00,0.0009
3617.00,0.0010
3616.00,0.0010
3615.00,0.0010
3614.00,0.0010
3613.00,0.0010
3612.00,0.0010
3611.00,0.0010
3610.00,0.0010
3609.00,0.0011
3608.00,0.0011
3607.00,0.0011
3606.00,0.0012
3605.00,0.0012
3604.00,0.0012
3603.00,0.0011
3602.00,0.0011
3601.00,0.0011
3600.00,0.0011
3599.00,0.0011
3598.00,0.0011
3597.00,0.0010
3596.00,0.0010
3595.00,0.0011
3594.00,0.0011
3593.00,0.0012
3592.00,0.0013
3591.00,0.0013
3590.00,0.0013
3589.00,0.0012
3588.00,0.0012
3587.00,0.0011
3586.00,0.0012
3585.00,0.0012
3584.00,0.0013
3583.00,0.0013
3582.00,0.0014
3581.00,0.0014
3580.00,0.0015
3579.00,0.0015
3578.00,0.0015
3577.00,0.0016
3576.00,0.0016
3575.00,0.0016
3574.00,0.0015
3573.00,0.0016
3572.00,0.0016
3571.00,0.0016
3570.00,0.0016
3569.00,0.0016
3568.00,0.0016
3567.00,0.0016
3566.00,0.0016
3565.00,0.0016
3564.00,0.0016
3563.00,0.0017
3562.00,0.0017
3561.00,0.0018
3560.00,0.0019
3559.00,0.0019
3558.00,0.0019
3557.00,0.0020
3556.00,0.0019
3555.00,0.0019
3554.00,0.0019
3553.00,0.0019
3552.00,0.0020
3551.00,0.0020
3550.00,0.0021
3549.00,0.0021
3548.00,0.0022
3547.00,0.0022
3546.00,0.0022
3545.00,0.0022
3544.00,0.0022
3543.00,0.0022
3542.00,0.0022
3541.00,0.0022
3540.00,0.0023
3539.00,0.0023
3538.00,0.0024
3537.00,0.0024
3536.00,0.0024
3535.00,0.0024
3534.00,0.0024
3533.00,0.0024
3532.00,0.0024
3531.00,0.0024
3530.00,0.0024
3529.00,0.0025
3528.00,0.0025
3527.00,0.0025
3526.00,0.0026
3525.00,0.0026
3524.00,0.0026
3523.00,0.0026
3522.00,0.0027
3521.00,0.0027
3520.00,0.0027
3519.00,0.0028
3518.00,0.0028
3517.00,0.0028
3516.00,0.0028
3515.00,0.0029
3514.00,0.0029
3513.00,0.0030
3512.00,0.0030
3511.00,0.0030
3510.00,0.0030
3509.00,0.0031
3508.00,0.0031
3507.00,0.0032
3506.00,0.0032
3505.00,0.0032
3504.00,0.0032
3503.00,0.0032
3502.00,0.0032
3501.00,0.0033
3500.00,0.0033
3499.00,0.0033
3498.00,0.0033
3497.00,0.0033
3496.00,0.0033
3495.00,0.0033
3494.00,0.0033
3493.00,0.0033
3492.00,0.0034
3491.00,0.0034
3490.00,0.0035
3489.00,0.0035
3488.00,0.0036
3487.00,0.0036
3486.00,0.0036
3485.00,0.0036
3484.00,0.0036
3483.00,0.0037
3482.00,0.0037
3481.00,0.0037
3480.00,0.0038
3479.00,0.0038
3478.00,0.0038
3477.00,0.0038
3476.00,0.0039
3475.00,0.0039
3474.00,0.0040
3473.00,0.0040
3472.00,0.0041
3471.00,0.0041
3470.00,0.0041
3469.00,0.0041
3468.00,0.0041
3467.00,0.0040
3466.00,0.0040
3465.00,0.0040
3464.00,0.0040
3463.00,0.0040
3462.00,0.0041
3461.00,0.0041
3460.00,0.0041
3459.00,0.0042
3458.00,0.0043
3457.00,0.0043
3456.00,0.0043
3455.00,0.0043
3454.00,0.0042
3453.00,0.0042
3452.00,0.0042
3451.00,0.0043
3450.00,0.0043
3449.00,0.0043
3448.00,0.0044
3447.00,0.0044
3446.00,0.0044
3445.00,0.0044
3444.00,0.0044
3443.00,0.0045
3442.00,0.0045
3441.00,0.0045
3440.00,0.0045
3439.00,0.0046
3438.00,0.0046
3437.00,0.0046
3436.00,0.0047
3435.00,0.0047
3434.00,0.0048
3433.00,0.0048
3432.00,0.0048
3431.00,0.0048
3430.00,0.0048
3429.00,0.0048
3428.00,0.0047
3427.00,0.0047
3426.00,0.0048
3425.00,0.0048
3424.00,0.0049
3423.00,0.0049
3422.00,0.0050
3421.00,0.0050
3420.00,0.0050
3419.00,0.0050
3418.00,0.0050
3417.00,0.0051
3416.00,0.0051
3415.00,0.0051
3414.00,0.0051
3413.00,0.0051
3412.00,0.0051
3411.00,0.0051
3410.00,0.0051
3409.00,0.0052
3408.00,0.0052
3407.00,0.0053
3406.00,0.0053
3405.00,0.0053
3404.00,0.0054
3403.00,0.0054
3402.00,0.0054
3401.00,0.0053
3400.00,0.0053
3399.00,0.0054
3398.00,0.0054
3397.00,0.0054
3396.00,0.0054
3395.00,0.0054
3394.00,0.0054
3393.00,0.0054
3392.00,0.0054
3391.00,0.0054
3390.00,0.0054
3389.00,0.0055
3388.00,0.0055
3387.00,0.0055
3386.00,0.0055
3385.00,0.0055
3384.00,0.0055
3383.00,0.0055
3382.00,0.0055
3381.00,0.0054
3380.00,0.0054
3379.00,0.0054
3378.00,0.0055
3377.00,0.0055
3376.00,0.0056
3375.00,0.0056
3374.00,0.0056
3373.00,0.0056
3372.00,0.0056
3371.00,0.0056
3370.00,0.0056
3369.00,0.0056
3368.00,0.0056
3367.00,0.0056
3366.00,0.0056
3365.00,0.0056
3364.00,0.0055
3363.00,0.0055
3362.00,0.0055
3361.00,0.0055
3360.00,0.0055
3359.00,0.0055
3358.00,0.0054
3357.00,0.0055
3356.00,0.0055
3355.00,0.0055
3354.00,0.0055
3353.00,0.0055
3352.00,0.0055
3351.00,0.0055
3350.00,0.0055
3349.00,0.0055
3348.00,0.0056
3347.00,0.0056
3346.00,0.0056
3345.00,0.0056
3344.00,0.0056
3343.00,0.0055
3342.00,0.0055
3341.00,0.0055
3340.00,0.0055
3339.00,0.0054
3338.00,0.0054
3337.00,0.0054
3336.00,0.0054
3335.00,0.0054
3334.00,0.0054
3333.00,0.0054
3332.00,0.0054
3331.00,0.0055
3330.00,0.0055
3329.00,0.0055
3328.00,0.0054
3327.00,0.0054
3326.00,0.0053
3325.00,0.0053
3324.00,0.0053
3323.00,0.0053
3322.00,0.0053
3321.00,0.0053
3320.00,0.0053
3319.00,0.0053
3318.00,0.0053
3317.00,0.0053
3316.00,0.0053
3315.00,0.0053
3314.00,0.0053
3313.00,0.0053
3312.00,0.0053
3311.00,0.0054
3310.00,0.0054
3309.00,0.0054
3308.00,0.0054
3307.00,0.0054
3306.00,0.0054
3305.00,0.0054
3304.00,0.0054
3303.00,0.0054
3302.00,0.0054
3301.00,0.0054
3300.00,0.0053
3299.00,0.0053
3298.00,0.0053
3297.00,0.0053
3296.00,0.0052
3295.00,0.0052
3294.00,0.0051
3293.00,0.0051
3292.00,0.0051
3291.00,0.0050
3290.00,0.0050
3289.00,0.0050
3288.00,0.0049
3287.00,0.0049
3286.00,0.0049
3285.00,0.0049
3284.00,0.0049
3283.00,0.0049
3282.00,0.0048
3281.00,0.0048
3280.00,0.0047
3279.00,0.0047
3278.00,0.0047
3277.00,0.0047
3276.00,0.0047
3275.00,0.0047
3274.00,0.0047
3273.00,0.0047
3272.00,0.0046
3271.00,0.0046
3270.00,0.0046
3269.00,0.0046
3268.00,0.0046
3267.00,0.0046
3266.00,0.0046
3265.00,0.0046
3264.00,0.0046
3263.00,0.0045
3262.00,0.0045
3261.00,0.0044
3260.00,0.0044
3259.00,0.0044
3258.00,0.0044
3257.00,0.0044
3256.00,0.0044
3255.00,0.0044
3254.00,0.0044
3253.00,0.0043
3252.00,0.0043
3251.00,0.0043
3250.00,0.0042
3249.00,0.0042
3248.00,0.0042
3247.00,0.0042
3246.00,0.0042
3245.00,0.0042
3244.00,0.0042
3243.00,0.0041
3242.00,0.0041
3241.00,0.0041
3240.00,0.0042
3239.00,0.0042
3238.00,0.0042
3237.00,0.0042
3236.00,0.0042
3235.00,0.0042
3234.00,0.0042
3233.00,0.0042
3232.00,0.0042
3231.00,0.0042
3230.00,0.0042
3229.00,0.0042
3228.00,0.0042
3227.00,0.0042
3226.00,0.0042
3225.00,0.0043
3224.00,0.0043
3223.00,0.0043
3222.00,0.0043
3221.00,0.0043
3220.00,0.0044
3219.00,0.0044
3218.00,0.0044
3217.00,0.0044
3216.00,0.0043
3215.00,0.0043
3214.00,0.0043
3213.00,0.0044
3212.00,0.0044
3211.00,0.0045
3210.00,0.0045
3209.00,0.0045
3208.00,0.0046
3207.00,0.0046
3206.00,0.0046
3205.00,0.0046
3204.00,0.0046
3203.00,0.0046
3202.00,0.0046
3201.00,0.0046
3200.00,0.0046
3199.00,0.0046
3198.00,0.0046
3197.00,0.0046
3196.00,0.0046
3195.00,0.0046
3194.00,0.0046
3193.00,0.0046
3192.00,0.0046
3191.00,0.0046
3190.00,0.0046
3189.00,0.0046
3188.00,0.0045
3187.00,0.0045
3186.00,0.0045
3185.00,0.0045
3184.00,0.0045
3183.00,0.0045
3182.00,0.0044
3181.00,0.0044
3180.00,0.0044
3179.00,0.0043
3178.00,0.0043
3177.00,0.0043
3176.00,0.0042
3175.00,0.0042
3174.00,0.0042
3173.00,0.0042
3172.00,0.0042
3171.00,0.0042
3170.00,0.0042
3169.00,0.0042
3168.00,0.0041
3167.00,0.0041
3166.00,0.0041
3165.00,0.0041
3164.00,0.0040
3163.00,0.0040
3162.00,0.0040
3161.00,0.0040
3160.00,0.0040
3159.00,0.0039
3158.00,0.0039
3157.00,0.0039
3156.00,0.0039
3155.00,0.0039
3154.00,0.0039
3153.00,0.0039
3152.00,0.0039
3151.00,0.0039
3150.00,0.0039
3149.00,0.0039
3148.00,0.0040
3147.00,0.0040
3146.00,0.0040
3145.00,0.0040
3144.00,0.0039
3143.00,0.0039
3142.00,0.0039
3141.00,0.0038
3140.00,0.0038
3139.00,0.0038
3138.00,0.0038
3137.00,0.0038
3136.00,0.0037
3135.00,0.0037
3134.00,0.0037
3133.00,0.0036
3132.00,0.0036
3131.00,0.0036
3130.00,0.0036
3129.00,0.0036
3128.00,0.0036
3127.00,0.0035
3126.00,0.0034
3125.00,0.0034
3124.00,0.0034
3123.00,0.0034
3122.00,0.0034
3121.00,0.0035
3120.00,0.0034
3119.00,0.0034
3118.00,0.0034
3117.00,0.0033
3116.00,0.0033
3115.00,0.0033
3114.00,0.0033
3113.00,0.0032
3112.00,0.0032
3111.00,0.0032
3110.00,0.0032
3109.00,0.0032
3108.00,0.0032
3107.00,0.0032
3106.00,0.0032
3105.00,0.0032
3104.00,0.0031
3103.00,0.0031
3102.00,0.0031
3101.00,0.0031
3100.00,0.0031
3099.00,0.0031
3098.00,0.0032
3097.00,0.0032
3096.00,0.0031
3095.00,0.0031
3094.00,0.0030
3093.00,0.0030
3092.00,0.0030
3091.00,0.0030
3090.00,0.0030
3089.00,0.0030
3088.00,0.0029
3087.00,0.0029
3086.00,0.0029
3085.00,0.0030
3084.00,0.0029
3083.00,0.0029
3082.00,0.0029
3081.00,0.0029
3080.00,0.0029
3079.00,0.0029
3078.00,0.0029
3077.00,0.0029
3076.00,0.0030
3075.00,0.0030
3074.00,0.0031
3073.00,0.0031
3072.00,0.0031
3071.00,0.0031
3070.00,0.0031
3069.00,0.0031
3068.00,0.0031
3067.00,0.0031
3066.00,0.0031
3065.00,0.0031
3064.00,0.0032
3063.00,0.0032
3062.00,0.0032
3061.00,0.0033
3060.00,0.0032
3059.00,0.0032
3058.00,0.0032
3057.00,0.0032
3056.00,0.0032
3055.00,0.0032
3054.00,0.0033
3053.00,0.0033
3052.00,0.0033
3051.00,0.0034
3050.00,0.0034
3049.00,0.0034
3048.00,0.0034
3047.00,0.0034
3046.00,0.0035
3045.00,0.0035
3044.00,0.0035
3043.00,0.0035
3042.00,0.0036
3041.00,0.0036
3040.00,0.0036
3039.00,0.0036
3038.00,0.0037
3037.00,0.0037
3036.00,0.0037
3035.00,0.0038
3034.00,0.0038
3033.00,0.0039
3032.00,0.0039
3031.00,0.0040
3030.00,0.0041
3029.00,0.0041
3028.00,0.0042
3027.00,0.0042
3026.00,0.0043
3025.00,0.0043
3024.00,0.0044
3023.00,0.0044
3022.00,0.0045
3021.00,0.0046
3020.00,0.0047
3019.00,0.0048
3018.00,0.0050
3017.00,0.0051
3016.00,0.0052
3015.00,0.0054
3014.00,0.0055
3013.00,0.0057
3012.00,0.0059
3011.00,0.0061
3010.00,0.0064
3009.00,0.0066
3008.00,0.0069
3007.00,0.0071
3006.00,0.0074
3005.00,0.0077
3004.00,0.0081
3003.00,0.0084
3002.00,0.0088
3001.00,0.0092
3000.00,0.0096
2999.00,0.0100
2998.00,0.0104
2997.00,0.0108
2996.00,0.0112
2995.00,0.0117
2994.00,0.0122
2993.00,0.0127
2992.00,0.0133
2991.00,0.0139
2990.00,0.0146
2989.00,0.0154
2988.00,0.0163
2987.00,0.0173
2986.00,0.0185
2985.00,0.0199
2984.00,0.0215
2983.00,0.0233
2982.00,0.0251
2981.00,0.0270
2980.00,0.0289
2979.00,0.0309
2978.00,0.0333
2977.00,0.0361
2976.00,0.0394
2975.00,0.0433
2974.00,0.0479
2973.00,0.0532
2972.00,0.0592
2971.00,0.0659
2970.00,0.0734
2969.00,0.0816
2968.00,0.0907
2967.00,0.1006
2966.00,0.1112
2965.00,0.1223
2964.00,0.1336
2963.00,0.1443
2962.00,0.1539
2961.00,0.1617
2960.00,0.1674
2959.00,0.1712
2958.00,0.1735
2957.00,0.1752
2956.00,0.1771
2955.00,0.1798
2954.00,0.1834
2953.00,0.1874
2952.00,0.1908
2951.00,0.1925
2950.00,0.1912
2949.00,0.1865
2948.00,0.1783
2947.00,0.1676
2946.00,0.1554
2945.00,0.1430
2944.00,0.1316
2943.00,0.1220
2942.00,0.1146
2941.00,0.1095
2940.00,0.1066
2939.00,0.1058
2938.00,0.1069
2937.00,0.1096
2936.00,0.1138
2935.00,0.1193
2934.00,0.1262
2933.00,0.1342
2932.00,0.1432
2931.00,0.1531
2930.00,0.1635
2929.00,0.1743
2928.00,0.1850
2927.00,0.1955
2926.00,0.2055
2925.00,0.2151
2924.00,0.2243
2923.00,0.2333
2922.00,0.2421
2921.00,0.2503
2920.00,0.2572
2919.00,0.2621
2918.00,0.2640
2917.00,0.2624
2916.00,0.2573
2915.00,0.2496
2914.00,0.2402
2913.00,0.2305
2912.00,0.2213
2911.00,0.2133
2910.00,0.2065
2909.00,0.2007
2908.00,0.1954
2907.00,0.1902
2906.00,0.1848
2905.00,0.1790
2904.00,0.1728
2903.00,0.1664
2902.00,0.1598
2901.00,0.1532
2900.00,0.1468
2899.00,0.1407
2898.00,0.1349
2897.00,0.1296
2896.00,0.1248
2895.00,0.1206
2894.00,0.1170
2893.00,0.1141
2892.00,0.1117
2891.00,0.1098
2890.00,0.1084
2889.00,0.1075
2888.00,0.1068
2887.00,0.1065
2886.00,0.1064
2885.00,0.1066
2884.00,0.1071
2883.00,0.1080
2882.00,0.1091
2881.00,0.1103
2880.00,0.1114
2879.00,0.1121
2878.00,0.1123
2877.00,0.1119
2876.00,0.1111
2875.00,0.1104
2874.00,0.1101
2873.00,0.1105
2872.00,0.1115
2871.00,0.1131
2870.00,0.1151
2869.00,0.1169
2868.00,0.1180
2867.00,0.1177
2866.00,0.1155
2865.00,0.1114
2864.00,0.1057
2863.00,0.0992
2862.00,0.0929
2861.00,0.0874
2860.00,0.0832
2859.00,0.0805
2858.00,0.0791
2857.00,0.0788
2856.00,0.0794
2855.00,0.0806
2854.00,0.0824
2853.00,0.0844
2852.00,0.0865
2851.00,0.0885
2850.00,0.0901
2849.00,0.0913
2848.00,0.0925
2847.00,0.0940
2846.00,0.0963
2845.00,0.0998
2844.00,0.1043
2843.00,0.1096
2842.00,0.1150
2841.00,0.1196
2840.00,0.1229
2839.00,0.1239
2838.00,0.1221
2837.00,0.1175
2836.00,0.1101
2835.00,0.1008
2834.00,0.0903
2833.00,0.0799
2832.00,0.0701
2831.00,0.0616
2830.00,0.0544
2829.00,0.0485
2828.00,0.0436
2827.00,0.0397
2826.00,0.0365
2825.00,0.0338
2824.00,0.0315
2823.00,0.0295
2822.00,0.0278
2821.00,0.0264
2820.00,0.0251
2819.00,0.0240
2818.00,0.0229
2817.00,0.0220
2816.00,0.0212
2815.00,0.0205
2814.00,0.0198
2813.00,0.0193
2812.00,0.0187
2811.00,0.0182
2810.00,0.0177
2809.00,0.0172
2808.00,0.0166
2807.00,0.0160
2806.00,0.0154
2805.00,0.0147
2804.00,0.0141
2803.00,0.0136
2802.00,0.0131
2801.00,0.0127
2800.00,0.0124
2799.00,0.0121
2798.00,0.0118
2797.00,0.0115
2796.00,0.0113
2795.00,0.0110
2794.00,0.0108
2793.00,0.0105
2792.00,0.0102
2791.00,0.0099
2790.00,0.0095
2789.00,0.0092
2788.00,0.0089
2787.00,0.0086
2786.00,0.0083
2785.00,0.0080
2784.00,0.0077
2783.00,0.0074
2782.00,0.0072
2781.00,0.0070
2780.00,0.0068
2779.00,0.0067
2778.00,0.0065
2777.00,0.0064
2776.00,0.0062
2775.00,0.0061
2774.00,0.0060
2773.00,0.0059
2772.00,0.0059
2771.00,0.0058
2770.00,0.0058
2769.00,0.0057
2768.00,0.0057
2767.00,0.0057
2766.00,0.0057
2765.00,0.0056
2764.00,0.0056
2763.00,0.0055
2762.00,0.0055
2761.00,0.0054
2760.00,0.0054
2759.00,0.0053
2758.00,0.0053
2757.00,0.0053
2756.00,0.0053
2755.00,0.0053
2754.00,0.0053
2753.00,0.0053
2752.00,0.0052
2751.00,0.0052
2750.00,0.0052
2749.00,0.0052
2748.00,0.0052
2747.00,0.0053
2746.00,0.0053
2745.00,0.0053
2744.00,0.0054
2743.00,0.0054
2742.00,0.0055
2741.00,0.0057
2740.00,0.0058
2739.00,0.0059
2738.00,0.0060
2737.00,0.0061
2736.00,0.0062
2735.00,0.0064
2734.00,0.0065
2733.00,0.0066
2732.00,0.0067
2731.00,0.0069
2730.00,0.0071
2729.00,0.0073
2728.00,0.0076
2727.00,0.0078
2726.00,0.0081
2725.00,0.0083
2724.00,0.0084
2723.00,0.0085
2722.00,0.0084
2721.00,0.0083
2720.00,0.0080
2719.00,0.0077
2718.00,0.0074
2717.00,0.0071
2716.00,0.0069
2715.00,0.0066
2714.00,0.0064
2713.00,0.0061
2712.00,0.0059
2711.00,0.0058
2710.00,0.0056
2709.00,0.0055
2708.00,0.0054
2707.00,0.0053
2706.00,0.0052
2705.00,0.0051
2704.00,0.0050
2703.00,0.0049
2702.00,0.0048
2701.00,0.0047
2700.00,0.0047
2699.00,0.0046
2698.00,0.0046
2697.00,0.0045
2696.00,0.0045
2695.00,0.0046
2694.00,0.0046
2693.00,0.0046
2692.00,0.0046
2691.00,0.0047
2690.00,0.0047
2689.00,0.0047
2688.00,0.0047
2687.00,0.0047
2686.00,0.0047
2685.00,0.0047
2684.00,0.0047
2683.00,0.0047
2682.00,0.0047
2681.00,0.0047
2680.00,0.0047
2679.00,0.0047
2678.00,0.0046
2677.00,0.0046
2676.00,0.0046
2675.00,0.0046
2674.00,0.0046
2673.00,0.0045
2672.00,0.0045
2671.00,0.0045
2670.00,0.0045
2669.00,0.0045
2668.00,0.0046
2667.00,0.0046
2666.00,0.0046
2665.00,0.0046
2664.00,0.0047
2663.00,0.0047
2662.00,0.0048
2661.00,0.0048
2660.00,0.0048
2659.00,0.0049
2658.00,0.0049
2657.00,0.0049
2656.00,0.0048
2655.00,0.0048
2654.00,0.0047
2653.00,0.0047
2652.00,0.0047
2651.00,0.0046
2650.00,0.0046
2649.00,0.0045
2648.00,0.0045
2647.00,0.0044
2646.00,0.0044
2645.00,0.0043
2644.00,0.0043
2643.00,0.0043
2642.00,0.0042
2641.00,0.0042
2640.00,0.0041
2639.00,0.0040
2638.00,0.0040
2637.00,0.0039
2636.00,0.0039
2635.00,0.0039
2634.00,0.0039
2633.00,0.0039
2632.00,0.0040
2631.00,0.0040
2630.00,0.0040
2629.00,0.0040
2628.00,0.0040
2627.00,0.0040
2626.00,0.0040
2625.00,0.0041
2624.00,0.0041
2623.00,0.0041
2622.00,0.0042
2621.00,0.0041
2620.00,0.0041
2619.00,0.0040
2618.00,0.0040
2617.00,0.0040
2616.00,0.0040
2615.00,0.0040
2614.00,0.0040
2613.00,0.0040
2612.00,0.0039
2611.00,0.0038
2610.00,0.0037
2609.00,0.0036
2608.00,0.0036
2607.00,0.0036
2606.00,0.0035
2605.00,0.0034
2604.00,0.0034
2603.00,0.0033
2602.00,0.0033
2601.00,0.0032
2600.00,0.0032
2599.00,0.0032
2598.00,0.0031
2597.00,0.0031
2596.00,0.0031
2595.00,0.0031
2594.00,0.0032
2593.00,0.0032
2592.00,0.0033
2591.00,0.0033
2590.00,0.0034
2589.00,0.0034
2588.00,0.0034
2587.00,0.0035
2586.00,0.0036
2585.00,0.0037
2584.00,0.0038
2583.00,0.0039
2582.00,0.0039
2581.00,0.0038
2580.00,0.0037
2579.00,0.0036
2578.00,0.0035
2577.00,0.0033
2576.00,0.0032
2575.00,0.0031
2574.00,0.0030
2573.00,0.0029
2572.00,0.0028
2571.00,0.0028
2570.00,0.0027
2569.00,0.0027
2568.00,0.0026
2567.00,0.0026
2566.00,0.0025
2565.00,0.0025
2564.00,0.0025
2563.00,0.0025
2562.00,0.0025
2561.00,0.0025
2560.00,0.0025
2559.00,0.0025
2558.00,0.0025
2557.00,0.0025
2556.00,0.0024
2555.00,0.0024
2554.00,0.0022
2553.00,0.0021
2552.00,0.0020
2551.00,0.0020
2550.00,0.0019
2549.00,0.0019
2548.00,0.0020
2547.00,0.0020
2546.00,0.0020
2545.00,0.0020
2544.00,0.0019
2543.00,0.0018
2542.00,0.0018
2541.00,0.0018
2540.00,0.0018
2539.00,0.0018
2538.00,0.0018
2537.00,0.0018
2536.00,0.0018
2535.00,0.0018
2534.00,0.0018
2533.00,0.0017
2532.00,0.0016
2531.00,0.0016
2530.00,0.0015
2529.00,0.0015
2528.00,0.0015
2527.00,0.0015
2526.00,0.0014
2525.00,0.0013
2524.00,0.0013
2523.00,0.0013
2522.00,0.0013
2521.00,0.0013
2520.00,0.0012
2519.00,0.0012
2518.00,0.0012
2517.00,0.0012
2516.00,0.0012
2515.00,0.0011
2514.00,0.0011
2513.00,0.0011
2512.00,0.0011
2511.00,0.0011
2510.00,0.0010
2509.00,0.0010
2508.00,0.0010
2507.00,0.0010
2506.00,0.0010
2505.00,0.0010
2504.00,0.0010
2503.00,0.0010
2502.00,0.0010
2501.00,0.0010
2500.00,0.0010
2499.00,0.0010
2498.00,0.0010
2497.00,0.0010
2496.00,0.0010
2495.00,0.0010
2494.00,0.0010
2493.00,0.0011
2492.00,0.0011
2491.00,0.0011
2490.00,0.0011
2489.00,0.0011
2488.00,0.0011
2487.00,0.0010
2486.00,0.0010
2485.00,0.0010
2484.00,0.0009
2483.00,0.0009
2482.00,0.0009
2481.00,0.0009
2480.00,0.0009
2479.00,0.0009
2478.00,0.0009
2477.00,0.0009
2476.00,0.0009
2475.00,0.0008
2474.00,0.0008
2473.00,0.0009
2472.00,0.0009
2471.00,0.0008
2470.00,0.0008
2469.00,0.0008
2468.00,0.0008
2467.00,0.0008
2466.00,0.0008
2465.00,0.0009
2464.00,0.0009
2463.00,0.0010
2462.00,0.0010
2461.00,0.0011
2460.00,0.0011
2459.00,0.0011
2458.00,0.0011
2457.00,0.0011
2456.00,0.0011
2455.00,0.0011
2454.00,0.0011
2453.00,0.0011
2452.00,0.0011
2451.00,0.0011
2450.00,0.0011
2449.00,0.0011
2448.00,0.0012
2447.00,0.0012
2446.00,0.0013
2445.00,0.0014
2444.00,0.0014
2443.00,0.0013
2442.00,0.0012
2441.00,0.0012
2440.00,0.0011
2439.00,0.0011
2438.00,0.0010
2437.00,0.0011
2436.00,0.0011
2435.00,0.0012
2434.00,0.0012
2433.00,0.0013
2432.00,0.0012
2431.00,0.0012
2430.00,0.0011
2429.00,0.0011
2428.00,0.0011
2427.00,0.0011
2426.00,0.0011
2425.00,0.0011
2424.00,0.0010
2423.00,0.0010
2422.00,0.0010
2421.00,0.0010
2420.00,0.0010
2419.00,0.0010
2418.00,0.0009
2417.00,0.0009
2416.00,0.0009
2415.00,0.0009
2414.00,0.0010
2413.00,0.0010
2412.00,0.0011
2411.00,0.0011
2410.00,0.0011
2409.00,0.0011
2408.00,0.0010
2407.00,0.0009
2406.00,0.0009
2405.00,0.0008
2404.00,0.0008
2403.00,0.0008
2402.00,0.0008
2401.00,0.0008
2400.00,0.0008
2399.00,0.0008
2398.00,0.0008
2397.00,0.0008
2396.00,0.0008
2395.00,0.0008
2394.00,0.0009
2393.00,0.0009
2392.00,0.0008
2391.00,0.0008
2390.00,0.0007
2389.00,0.0007
2388.00,0.0007
2387.00,0.0007
2386.00,0.0007
2385.00,0.0006
2384.00,0.0005
2383.00,0.0003
2382.00,0.0002
2381.00,0.0002
2380.00,0.0002
2379.00,0.0002
2378.00,0.0003
2377.00,0.0003
2376.00,0.0004
2375.00,0.0004
2374.00,0.0003
2373.00,0.0003
2372.00,0.0003
2371.00,0.0003
2370.00,0.0003
2369.00,0.0003
2368.00,0.0002
2367.00,0.0001
2366.00,0.0001
2365.00,0.0002
2364.00,0.0003
2363.00,0.0003
2362.00,0.0003
2361.00,0.0003
2360.00,0.0002
2359.00,0.0003
2358.00,0.0003
2357.00,0.0003
2356.00,0.0003
2355.00,0.0003
2354.00,0.0003
2353.00,0.0003
2352.00,0.0003
2351.00,0.0003
2350.00,0.0003
2349.00,0.0004
2348.00,0.0004
2347.00,0.0005
2346.00,0.0005
2345.00,0.0005
2344.00,0.0005
2343.00,0.0005
2342.00,0.0005
2341.00,0.0005
2340.00,0.0006
2339.00,0.0006
2338.00,0.0007
2337.00,0.0007
2336.00,0.0007
2335.00,0.0007
2334.00,0.0006
2333.00,0.0005
2332.00,0.0005
2331.00,0.0005
2330.00,0.0005
2329.00,0.0006
2328.00,0.0008
2327.00,0.0011
2326.00,0.0015
2325.00,0.0019
2324.00,0.0021
2323.00,0.0021
2322.00,0.0019
2321.00,0.0017
2320.00,0.0015
2319.00,0.0015
2318.00,0.0014
2317.00,0.0014
2316.00,0.0013
2315.00,0.0012
2314.00,0.0010
2313.00,0.0009
2312.00,0.0008
2311.00,0.0008
2310.00,0.0007
2309.00,0.0007
2308.00,0.0007
2307.00,0.0006
2306.00,0.0007
2305.00,0.0007
2304.00,0.0008
2303.00,0.0009
2302.00,0.0010
2301.00,0.0011
2300.00,0.0012
2299.00,0.0013
2298.00,0.0013
2297.00,0.0013
2296.00,0.0013
2295.00,0.0014
2294.00,0.0014
2293.00,0.0014
2292.00,0.0015
2291.00,0.0015
2290.00,0.0016
2289.00,0.0017
2288.00,0.0017
2287.00,0.0018
2286.00,0.0019
2285.00,0.0019
2284.00,0.0018
2283.00,0.0017
2282.00,0.0016
2281.00,0.0016
2280.00,0.0016
2279.00,0.0016
2278.00,0.0015
2277.00,0.0014
2276.00,0.0013
2275.00,0.0012
2274.00,0.0012
2273.00,0.0012
2272.00,0.0012
2271.00,0.0012
2270.00,0.0012
2269.00,0.0011
2268.00,0.0010
2267.00,0.0010
2266.00,0.0010
2265.00,0.0011
2264.00,0.0012
2263.00,0.0013
2262.00,0.0012
2261.00,0.0012
2260.00,0.0012
2259.00,0.0013
2258.00,0.0013
2257.00,0.0013
2256.00,0.0013
2255.00,0.0012
2254.00,0.0011
2253.00,0.0010
2252.00,0.0009
2251.00,0.0008
2250.00,0.0008
2249.00,0.0008
2248.00,0.0008
2247.00,0.0008
2246.00,0.0008
2245.00,0.0008
2244.00,0.0009
2243.00,0.0009
2242.00,0.0009
2241.00,0.0008
2240.00,0.0007
2239.00,0.0007
2238.00,0.0007
2237.00,0.0008
2236.00,0.0008
2235.00,0.0008
2234.00,0.0007
2233.00,0.0007
2232.00,0.0007
2231.00,0.0007
2230.00,0.0006
2229.00,0.0006
2228.00,0.0007
2227.00,0.0007
2226.00,0.0008
2225.00,0.0008
2224.00,0.0008
2223.00,0.0007
2222.00,0.0006
2221.00,0.0006
2220.00,0.0006
2219.00,0.0007
2218.00,0.0008
2217.00,0.0008
2216.00,0.0007
2215.00,0.0006
2214.00,0.0005
2213.00,0.0005
2212.00,0.0005
2211.00,0.0006
2210.00,0.0008
2209.00,0.0009
2208.00,0.0009
2207.00,0.0007
2206.00,0.0005
2205.00,0.0004
2204.00,0.0004
2203.00,0.0004
2202.00,0.0005
2201.00,0.0006
2200.00,0.0006
2199.00,0.0007
2198.00,0.0008
2197.00,0.0009
2196.00,0.0009
2195.00,0.0010
2194.00,0.0010
2193.00,0.0011
2192.00,0.0011
2191.00,0.0010
2190.00,0.0009
2189.00,0.0008
2188.00,0.0008
2187.00,0.0008
2186.00,0.0009
2185.00,0.0009
2184.00,0.0010
2183.00,0.0010
2182.00,0.0008
2181.00,0.0006
2180.00,0.0004
2179.00,0.0003
2178.00,0.0005
2177.00,0.0007
2176.00,0.0008
2175.00,0.0008
2174.00,0.0007
2173.00,0.0008
2172.00,0.0009
2171.00,0.0010
2170.00,0.0012
2169.00,0.0016
2168.00,0.0019
2167.00,0.0020
2166.00,0.0019
2165.00,0.0017
2164.00,0.0017
2163.00,0.0018
2162.00,0.0018
2161.00,0.0015
2160.00,0.0004
2159.00,-0.0012
2158.00,-0.0027
2157.00,-0.0035
2156.00,-0.0034
2155.00,-0.0030
2154.00,-0.0024
2153.00,-0.0019
2152.00,-0.0015
2151.00,-0.0014
2150.00,-0.0014
2149.00,-0.0015
2148.00,-0.0016
2147.00,-0.0017
2146.00,-0.0018
2145.00,-0.0017
2144.00,-0.0015
2143.00,-0.0014
2142.00,-0.0014
2141.00,-0.0016
2140.00,-0.0017
2139.00,-0.0018
2138.00,-0.0017
2137.00,-0.0016
2136.00,-0.0016
2135.00,-0.0017
2134.00,-0.0018
2133.00,-0.0019
2132.00,-0.0018
2131.00,-0.0016
2130.00,-0.0015
2129.00,-0.0014
2128.00,-0.0013
2127.00,-0.0011
2126.00,-0.0010
2125.00,-0.0008
2124.00,-0.0007
2123.00,-0.0007
2122.00,-0.0006
2121.00,-0.0004
2120.00,-0.0002
2119.00,-0.0000
2118.00,0.0001
2117.00,0.0002
2116.00,0.0003
2115.00,0.0003
2114.00,0.0003
2113.00,0.0002
2112.00,0.0001
2111.00,0.0001
2110.00,0.0002
2109.00,0.0002
2108.00,0.0002
2107.00,0.0002
2106.00,0.0001
2105.00,0.0001
2104.00,0.0001
2103.00,0.0002
2102.00,0.0002
2101.00,0.0003
2100.00,0.0003
2099.00,0.0002
2098.00,0.0002
2097.00,0.0001
2096.00,-0.0000
2095.00,-0.0002
2094.00,-0.0004
2093.00,-0.0005
2092.00,-0.0005
2091.00,-0.0004
2090.00,-0.0003
2089.00,-0.0001
2088.00,0.0000
2087.00,0.0001
2086.00,0.0001
2085.00,0.0002
2084.00,0.0002
2083.00,0.0002
2082.00,0.0002
2081.00,0.0003
2080.00,0.0004
2079.00,0.0005
2078.00,0.0005
2077.00,0.0004
2076.00,0.0003
2075.00,0.0003
2074.00,0.0003
2073.00,0.0003
2072.00,0.0003
2071.00,0.0002
2070.00,0.0001
2069.00,0.0000
2068.00,0.0000
2067.00,0.0001
2066.00,0.0002
2065.00,0.0003
2064.00,0.0002
2063.00,-0.0001
2062.00,-0.0003
2061.00,-0.0005
2060.00,-0.0006
2059.00,-0.0006
2058.00,-0.0004
2057.00,-0.0002
2056.00,0.0000
2055.00,0.0000
2054.00,-0.0000
2053.00,0.0001
2052.00,0.0004
2051.00,0.0007
2050.00,0.0008
2049.00,0.0007
2048.00,0.0004
2047.00,0.0003
2046.00,0.0002
2045.00,0.0002
2044.00,0.0003
2043.00,0.0003
2042.00,0.0002
2041.00,0.0001
2040.00,0.0000
2039.00,0.0001
2038.00,0.0003
2037.00,0.0004
2036.00,0.0003
2035.00,0.0001
2034.00,-0.0001
2033.00,-0.0001
2032.00,0.0001
2031.00,0.0002
2030.00,0.0002
2029.00,0.0000
2028.00,-0.0002
2027.00,-0.0006
2026.00,-0.0010
2025.00,-0.0012
2024.00,-0.0013
2023.00,-0.0012
2022.00,-0.0011
2021.00,-0.0011
2020.00,-0.0011
2019.00,-0.0011
2018.00,-0.0011
2017.00,-0.0010
2016.00,-0.0008
2015.00,-0.0006
2014.00,-0.0005
2013.00,-0.0005
2012.00,-0.0007
2011.00,-0.0010
2010.00,-0.0012
2009.00,-0.0013
2008.00,-0.0015
2007.00,-0.0017
2006.00,-0.0020
2005.00,-0.0020
2004.00,-0.0019
2003.00,-0.0016
2002.00,-0.0013
2001.00,-0.0010
2000.00,-0.0009
1999.00,-0.0008
1998.00,-0.0008
1997.00,-0.0008
1996.00,-0.0007
1995.00,-0.0006
1994.00,-0.0006
1993.00,-0.0006
1992.00,-0.0007
1991.00,-0.0008
1990.00,-0.0009
1989.00,-0.0009
1988.00,-0.0007
1987.00,-0.0004
1986.00,-0.0000
1985.00,0.0003
1984.00,0.0004
1983.00,0.0004
1982.00,0.0004
1981.00,0.0004
1980.00,0.0003
1979.00,-0.0001
1978.00,-0.0009
1977.00,-0.0015
1976.00,-0.0019
1975.00,-0.0020
1974.00,-0.0021
1973.00,-0.0021
1972.00,-0.0021
1971.00,-0.0019
1970.00,-0.0014
1969.00,-0.0009
1968.00,-0.0006
1967.00,-0.0005
1966.00,-0.0004
1965.00,-0.0004
1964.00,-0.0004
1963.00,-0.0006
1962.00,-0.0008
1961.00,-0.0009
1960.00,-0.0011
1959.00,-0.0015
1958.00,-0.0018
1957.00,-0.0019
1956.00,-0.0018
1955.00,-0.0017
1954.00,-0.0017
1953.00,-0.0017
1952.00,-0.0017
1951.00,-0.0017
1950.00,-0.0016
1949.00,-0.0014
1948.00,-0.0014
1947.00,-0.0015
1946.00,-0.0017
1945.00,-0.0019
1944.00,-0.0021
1943.00,-0.0021
1942.00,-0.0020
1941.00,-0.0017
1940.00,-0.0013
1939.00,-0.0010
1938.00,-0.0009
1937.00,-0.0009
1936.00,-0.0010
1935.00,-0.0011
1934.00,-0.0012
1933.00,-0.0011
1932.00,-0.0009
1931.00,-0.0007
1930.00,-0.0006
1929.00,-0.0006
1928.00,-0.0005
1927.00,-0.0005
1926.00,-0.0005
1925.00,-0.0004
1924.00,-0.0005
1923.00,-0.0006
1922.00,-0.0006
1921.00,-0.0006
1920.00,-0.0007
1919.00,-0.0007
1918.00,-0.0007
1917.00,-0.0006
1916.00,-0.0006
1915.00,-0.0005
1914.00,-0.0004
1913.00,-0.0003
1912.00,-0.0002
1911.00,-0.0002
1910.00,-0.0003
1909.00,-0.0003
1908.00,-0.0003
1907.00,-0.0003
1906.00,-0.0002
1905.00,-0.0001
1904.00,-0.0000
1903.00,0.0000
1902.00,-0.0000
1901.00,-0.0001
1900.00,-0.0002
1899.00,-0.0003
1898.00,-0.0002
1897.00,-0.0001
1896.00,-0.0001
1895.00,-0.0000
1894.00,-0.0000
1893.00,0.0000
1892.00,0.0001
1891.00,0.0001
1890.00,0.0001
1889.00,0.0001
1888.00,0.0000
1887.00,0.0000
1886.00,0.0000
1885.00,0.0000
1884.00,0.0001
1883.00,0.0001
1882.00,0.0001
1881.00,-0.0000
1880.00,-0.0001
1879.00,-0.0002
1878.00,-0.0003
1877.00,-0.0002
1876.00,-0.0001
1875.00,0.0000
1874.00,0.0001
1873.00,0.0002
1872.00,0.0002
1871.00,0.0001
1870.00,0.0001
1869.00,0.0000
1868.00,0.0000
1867.00,0.0000
1866.00,0.0000
1865.00,0.0001
1864.00,0.0001
1863.00,0.0001
1862.00,0.0001
1861.00,-0.0000
1860.00,-0.0001
1859.00,-0.0001
1858.00,-0.0001
1857.00,0.0000
1856.00,0.0001
1855.00,0.0001
1854.00,0.0001
1853.00,0.0001
1852.00,0.0001
1851.00,0.0002
1850.00,0.0002
1849.00,0.0003
1848.00,0.0003
1847.00,0.0003
1846.00,0.0003
1845.00,0.0003
1844.00,0.0004
1843.00,0.0005
1842.00,0.0004
1841.00,0.0003
1840.00,0.0003
1839.00,0.0002
1838.00,0.0002
1837.00,0.0003
1836.00,0.0003
1835.00,0.0003
1834.00,0.0003
1833.00,0.0003
1832.00,0.0003
1831.00,0.0002
1830.00,0.0002
1829.00,0.0003
1828.00,0.0003
1827.00,0.0003
1826.00,0.0003
1825.00,0.0004
1824.00,0.0004
1823.00,0.0004
1822.00,0.0003
1821.00,0.0003
1820.00,0.0003
1819.00,0.0002
1818.00,0.0001
1817.00,0.0000
1816.00,0.0000
1815.00,0.0001
1814.00,0.0002
1813.00,0.0003
1812.00,0.0003
1811.00,0.0003
1810.00,0.0004
1809.00,0.0004
1808.00,0.0004
1807.00,0.0005
1806.00,0.0005
1805.00,0.0005
1804.00,0.0005
1803.00,0.0005
1802.00,0.0005
1801.00,0.0005
1800.00,0.0005
1799.00,0.0005
1798.00,0.0005
1797.00,0.0006
1796.00,0.0006
1795.00,0.0006
1794.00,0.0006
1793.00,0.0007
1792.00,0.0008
1791.00,0.0009
1790.00,0.0009
1789.00,0.0009
1788.00,0.0009
1787.00,0.0008
1786.00,0.0008
1785.00,0.0007
1784.00,0.0008
1783.00,0.0008
1782.00,0.0009
1781.00,0.0009
1780.00,0.0009
1779.00,0.0009
1778.00,0.0008
1777.00,0.0008
1776.00,0.0008
1775.00,0.0008
1774.00,0.0008
1773.00,0.0008
1772.00,0.0009
1771.00,0.0010
1770.00,0.0011
1769.00,0.0012
1768.00,0.0012
1767.00,0.0012
1766.00,0.0012
1765.00,0.0012
1764.00,0.0012
1763.00,0.0012
1762.00,0.0012
1761.00,0.0013
1760.00,0.0013
1759.00,0.0013
1758.00,0.0013
1757.00,0.0014
1756.00,0.0014
1755.00,0.0015
1754.00,0.0017
1753.00,0.0018
1752.00,0.0019
1751.00,0.0020
1750.00,0.0021
1749.00,0.0021
1748.00,0.0021
1747.00,0.0022
1746.00,0.0023
1745.00,0.0024
1744.00,0.0025
1743.00,0.0026
1742.00,0.0027
1741.00,0.0028
1740.00,0.0028
1739.00,0.0029
1738.00,0.0029
1737.00,0.0030
1736.00,0.0030
1735.00,0.0030
1734.00,0.0031
1733.00,0.0031
1732.00,0.0031
1731.00,0.0030
1730.00,0.0029
1729.00,0.0029
1728.00,0.0028
1727.00,0.0028
1726.00,0.0028
1725.00,0.0028
1724.00,0.0028
1723.00,0.0028
1722.00,0.0027
1721.00,0.0027
1720.00,0.0027
1719.00,0.0026
1718.00,0.0026
1717.00,0.0027
1716.00,0.0027
1715.00,0.0026
1714.00,0.0026
1713.00,0.0025
1712.00,0.0025
1711.00,0.0025
1710.00,0.0024
1709.00,0.0024
1708.00,0.0024
1707.00,0.0025
1706.00,0.0025
1705.00,0.0026
1704.00,0.0027
1703.00,0.0027
1702.00,0.0027
1701.00,0.0027
1700.00,0.0027
1699.00,0.0027
1698.00,0.0026
1697.00,0.0026
1696.00,0.0026
1695.00,0.0027
1694.00,0.0027
1693.00,0.0028
1692.00,0.0028
1691.00,0.0029
1690.00,0.0029
1689.00,0.0030
1688.00,0.0030
1687.00,0.0031
1686.00,0.0030
1685.00,0.0030
1684.00,0.0031
1683.00,0.0032
1682.00,0.0032
1681.00,0.0033
1680.00,0.0033
1679.00,0.0034
1678.00,0.0034
1677.00,0.0034
1676.00,0.0035
1675.00,0.0036
1674.00,0.0038
1673.00,0.0039
1672.00,0.0040
1671.00,0.0040
1670.00,0.0041
1669.00,0.0041
1668.00,0.0041
1667.00,0.0042
1666.00,0.0042
1665.00,0.0042
1664.00,0.0043
1663.00,0.0043
1662.00,0.0043
1661.00,0.0043
1660.00,0.0044
1659.00,0.0044
1658.00,0.0046
1657.00,0.0047
1656.00,0.0048
1655.00,0.0049
1654.00,0.0050
1653.00,0.0051
1652.00,0.0052
1651.00,0.0053
1650.00,0.0053
1649.00,0.0054
1648.00,0.0054
1647.00,0.0055
1646.00,0.0056
1645.00,0.0057
1644.00,0.0058
1643.00,0.0058
1642.00,0.0059
1641.00,0.0060
1640.00,0.0061
1639.00,0.0062
1638.00,0.0062
1637.00,0.0062
1636.00,0.0062
1635.00,0.0062
1634.00,0.0062
1633.00,0.0061
1632.00,0.0060
1631.00,0.0060
1630.00,0.0059
1629.00,0.0059
1628.00,0.0059
1627.00,0.0058
1626.00,0.0058
1625.00,0.0057
1624.00,0.0057
1623.00,0.0056
1622.00,0.0055
1621.00,0.0055
1620.00,0.0055
1619.00,0.0055
1618.00,0.0055
1617.00,0.0054
1616.00,0.0054
1615.00,0.0054
1614.00,0.0054
1613.00,0.0054
1612.00,0.0054
1611.00,0.0054
1610.00,0.0054
1609.00,0.0054
1608.00,0.0054
1607.00,0.0053
1606.00,0.0053
1605.00,0.0053
1604.00,0.0053
1603.00,0.0053
1602.00,0.0052
1601.00,0.0052
1600.00,0.0052
1599.00,0.0052
1598.00,0.0052
1597.00,0.0052
1596.00,0.0052
1595.00,0.0051
1594.00,0.0052
1593.00,0.0052
1592.00,0.0053
1591.00,0.0054
1590.00,0.0055
1589.00,0.0055
1588.00,0.0056
1587.00,0.0057
1586.00,0.0058
1585.00,0.0060
1584.00,0.0062
1583.00,0.0065
1582.00,0.0068
1581.00,0.0071
1580.00,0.0075
1579.00,0.0078
1578.00,0.0080
1577.00,0.0082
1576.00,0.0081
1575.00,0.0080
1574.00,0.0078
1573.00,0.0077
1572.00,0.0075
1571.00,0.0073
1570.00,0.0071
1569.00,0.0070
1568.00,0.0068
1567.00,0.0067
1566.00,0.0067
1565.00,0.0066
1564.00,0.0066
1563.00,0.0066
1562.00,0.0066
1561.00,0.0066
1560.00,0.0066
1559.00,0.0067
1558.00,0.0066
1557.00,0.0066
1556.00,0.0067
1555.00,0.0067
1554.00,0.0068
1553.00,0.0069
1552.00,0.0071
1551.00,0.0072
1550.00,0.0073
1549.00,0.0075
1548.00,0.0077
1547.00,0.0079
1546.00,0.0082
1545.00,0.0085
1544.00,0.0088
1543.00,0.0091
1542.00,0.0092
1541.00,0.0093
1540.00,0.0092
1539.00,0.0088
1538.00,0.0085
1537.00,0.0082
1536.00,0.0080
1535.00,0.0076
1534.00,0.0072
1533.00,0.0068
1532.00,0.0065
1531.00,0.0063
1530.00,0.0062
1529.00,0.0061
1528.00,0.0061
1527.00,0.0060
1526.00,0.0060
1525.00,0.0059
1524.00,0.0060
1523.00,0.0059
1522.00,0.0058
1521.00,0.0057
1520.00,0.0057
1519.00,0.0057
1518.00,0.0057
1517.00,0.0057
1516.00,0.0058
1515.00,0.0058
1514.00,0.0058
1513.00,0.0059
1512.00,0.0060
1511.00,0.0061
1510.00,0.0061
1509.00,0.0062
1508.00,0.0063
1507.00,0.0064
1506.00,0.0064
1505.00,0.0066
1504.00,0.0068
1503.00,0.0070
1502.00,0.0072
1501.00,0.0074
1500.00,0.0077
1499.00,0.0080
1498.00,0.0083
1497.00,0.0086
1496.00,0.0090
1495.00,0.0094
1494.00,0.0096
1493.00,0.0101
1492.00,0.0105
1491.00,0.0110
1490.00,0.0114
1489.00,0.0120
1488.00,0.0125
1487.00,0.0130
1486.00,0.0136
1485.00,0.0143
1484.00,0.0151
1483.00,0.0160
1482.00,0.0169
1481.00,0.0181
1480.00,0.0194
1479.00,0.0208
1478.00,0.0224
1477.00,0.0246
1476.00,0.0271
1475.00,0.0301
1474.00,0.0340
1473.00,0.0395
1472.00,0.0459
1471.00,0.0521
1470.00,0.0580
1469.00,0.0643
1468.00,0.0710
1467.00,0.0783
1466.00,0.0866
1465.00,0.0954
1464.00,0.1031
1463.00,0.1084
1462.00,0.1120
1461.00,0.1145
1460.00,0.1163
1459.00,0.1177
1458.00,0.1188
1457.00,0.1198
1456.00,0.1201
1455.00,0.1196
1454.00,0.1189
1453.00,0.1176
1452.00,0.1156
1451.00,0.1124
1450.00,0.1079
1449.00,0.1013
1448.00,0.0926
1447.00,0.0831
1446.00,0.0742
1445.00,0.0664
1444.00,0.0597
1443.00,0.0540
1442.00,0.0497
1441.00,0.0467
1440.00,0.0447
1439.00,0.0437
1438.00,0.0434
1437.00,0.0431
1436.00,0.0418
1435.00,0.0394
1434.00,0.0359
1433.00,0.0319
1432.00,0.0277
1431.00,0.0239
1430.00,0.0210
1429.00,0.0188
1428.00,0.0173
1427.00,0.0164
1426.00,0.0158
1425.00,0.0152
1424.00,0.0147
1423.00,0.0144
1422.00,0.0143
1421.00,0.0141
1420.00,0.0139
1419.00,0.0136
1418.00,0.0134
1417.00,0.0131
1416.00,0.0128
1415.00,0.0125
1414.00,0.0123
1413.00,0.0122
1412.00,0.0120
1411.00,0.0120
1410.00,0.0119
1409.00,0.0119
1408.00,0.0118
1407.00,0.0118
1406.00,0.0119
1405.00,0.0119
1404.00,0.0119
1403.00,0.0121
1402.00,0.0123
1401.00,0.0125
1400.00,0.0127
1399.00,0.0130
1398.00,0.0133
1397.00,0.0136
1396.00,0.0138
1395.00,0.0142
1394.00,0.0147
1393.00,0.0151
1392.00,0.0156
1391.00,0.0163
1390.00,0.0173
1389.00,0.0187
1388.00,0.0207
1387.00,0.0237
1386.00,0.0278
1385.00,0.0333
1384.00,0.0407
1383.00,0.0510
1382.00,0.0646
1381.00,0.0819
1380.00,0.1029
1379.00,0.1267
1378.00,0.1497
1377.00,0.1665
1376.00,0.1719
1375.00,0.1633
1374.00,0.1432
1373.00,0.1190
1372.00,0.0968
1371.00,0.0784
1370.00,0.0637
1369.00,0.0525
1368.00,0.0447
1367.00,0.0399
1366.00,0.0372
1365.00,0.0361
1364.00,0.0363
1363.00,0.0374
1362.00,0.0392
1361.00,0.0411
1360.00,0.0425
1359.00,0.0429
1358.00,0.0419
1357.00,0.0396
1356.00,0.0363
1355.00,0.0327
1354.00,0.0292
1353.00,0.0262
1352.00,0.0238
1351.00,0.0218
1350.00,0.0201
1349.00,0.0188
1348.00,0.0176
1347.00,0.0166
1346.00,0.0157
1345.00,0.0149
1344.00,0.0144
1343.00,0.0139
1342.00,0.0136
1341.00,0.0133
1340.00,0.0130
1339.00,0.0128
1338.00,0.0126
1337.00,0.0125
1336.00,0.0125
1335.00,0.0125
1334.00,0.0127
1333.00,0.0131
1332.00,0.0134
1331.00,0.0137
1330.00,0.0138
1329.00,0.0138
1328.00,0.0135
1327.00,0.0131
1326.00,0.0126
1325.00,0.0120
1324.00,0.0115
1323.00,0.0111
1322.00,0.0107
1321.00,0.0104
1320.00,0.0103
1319.00,0.0101
1318.00,0.0099
1317.00,0.0097
1316.00,0.0096
1315.00,0.0096
1314.00,0.0096
1313.00,0.0097
1312.00,0.0098
1311.00,0.0101
1310.00,0.0105
1309.00,0.0113
1308.00,0.0124
1307.00,0.0138
1306.00,0.0151
1305.00,0.0160
1304.00,0.0163
1303.00,0.0158
1302.00,0.0150
1301.00,0.0142
1300.00,0.0136
1299.00,0.0133
1298.00,0.0132
1297.00,0.0132
1296.00,0.0130
1295.00,0.0127
1294.00,0.0123
1293.00,0.0119
1292.00,0.0114
1291.00,0.0111
1290.00,0.0107
1289.00,0.0104
1288.00,0.0101
1287.00,0.0099
1286.00,0.0097
1285.00,0.0096
1284.00,0.0094
1283.00,0.0093
1282.00,0.0091
1281.00,0.0090
1280.00,0.0089
1279.00,0.0088
1278.00,0.0088
1277.00,0.0088
1276.00,0.0088
1275.00,0.0089
1274.00,0.0090
1273.00,0.0091
1272.00,0.0092
1271.00,0.0094
1270.00,0.0097
1269.00,0.0100
1268.00,0.0103
1267.00,0.0107
1266.00,0.0111
1265.00,0.0115
1264.00,0.0119
1263.00,0.0123
1262.00,0.0128
1261.00,0.0133
1260.00,0.0140
1259.00,0.0147
1258.00,0.0155
1257.00,0.0162
1256.00,0.0164
1255.00,0.0162
1254.00,0.0154
1253.00,0.0143
1252.00,0.0133
1251.00,0.0123
1250.00,0.0116
1249.00,0.0111
1248.00,0.0107
1247.00,0.0103
1246.00,0.0101
1245.00,0.0099
1244.00,0.0097
1243.00,0.0095
1242.00,0.0093
1241.00,0.0091
1240.00,0.0090
1239.00,0.0090
1238.00,0.0090
1237.00,0.0090
1236.00,0.0090
1235.00,0.0089
1234.00,0.0089
1233.00,0.0089
1232.00,0.0090
1231.00,0.0090
1230.00,0.0091
1229.00,0.0091
1228.00,0.0091
1227.00,0.0092
1226.00,0.0094
1225.00,0.0096
1224.00,0.0099
1223.00,0.0102
1222.00,0.0104
1221.00,0.0106
1220.00,0.0107
1219.00,0.0108
1218.00,0.0108
1217.00,0.0106
1216.00,0.0104
1215.00,0.0101
1214.00,0.0099
1213.00,0.0097
1212.00,0.0096
1211.00,0.0094
1210.00,0.0092
1209.00,0.0091
1208.00,0.0089
1207.00,0.0088
1206.00,0.0088
1205.00,0.0088
1204.00,0.0088
1203.00,0.0088
1202.00,0.0087
1201.00,0.0087
1200.00,0.0087
1199.00,0.0087
1198.00,0.0088
1197.00,0.0088
1196.00,0.0088
1195.00,0.0089
1194.00,0.0089
1193.00,0.0090
1192.00,0.0090
1191.00,0.0091
1190.00,0.0092
1189.00,0.0092
1188.00,0.0093
1187.00,0.0094
1186.00,0.0096
1185.00,0.0098
1184.00,0.0099
1183.00,0.0101
1182.00,0.0104
1181.00,0.0107
1180.00,0.0111
1179.00,0.0117
1178.00,0.0125
1177.00,0.0135
1176.00,0.0148
1175.00,0.0165
1174.00,0.0188
1173.00,0.0218
1172.00,0.0255
1171.00,0.0297
1170.00,0.0338
1169.00,0.0372
1168.00,0.0392
1167.00,0.0395
1166.00,0.0384
1165.00,0.0363
1164.00,0.0338
1163.00,0.0313
1162.00,0.0293
1161.00,0.0276
1160.00,0.0263
1159.00,0.0254
1158.00,0.0246
1157.00,0.0241
1156.00,0.0237
1155.00,0.0233
1154.00,0.0229
1153.00,0.0225
1152.00,0.0219
1151.00,0.0211
1150.00,0.0203
1149.00,0.0194
1148.00,0.0184
1147.00,0.0174
1146.00,0.0165
1145.00,0.0156
1144.00,0.0149
1143.00,0.0142
1142.00,0.0135
1141.00,0.0129
1140.00,0.0123
1139.00,0.0119
1138.00,0.0115
1137.00,0.0112
1136.00,0.0109
1135.00,0.0107
1134.00,0.0105
1133.00,0.0104
1132.00,0.0104
1131.00,0.0104
1130.00,0.0104
1129.00,0.0104
1128.00,0.0105
1127.00,0.0106
1126.00,0.0107
1125.00,0.0108
1124.00,0.0108
1123.00,0.0108
1122.00,0.0108
1121.00,0.0108
1120.00,0.0109
1119.00,0.0109
1118.00,0.0110
1117.00,0.0112
1116.00,0.0113
1115.00,0.0115
1114.00,0.0116
1113.00,0.0116
1112.00,0.0117
1111.00,0.0119
1110.00,0.0121
1109.00,0.0125
1108.00,0.0129
1107.00,0.0134
1106.00,0.0139
1105.00,0.0145
1104.00,0.0150
1103.00,0.0152
1102.00,0.0152
1101.00,0.0150
1100.00,0.0146
1099.00,0.0141
1098.00,0.0135
1097.00,0.0131
1096.00,0.0127
1095.00,0.0124
1094.00,0.0122
1093.00,0.0121
1092.00,0.0120
1091.00,0.0118
1090.00,0.0117
1089.00,0.0115
1088.00,0.0113
1087.00,0.0112
1086.00,0.0112
1085.00,0.0112
1084.00,0.0112
1083.00,0.0113
1082.00,0.0113
1081.00,0.0112
1080.00,0.0110
1079.00,0.0108
1078.00,0.0106
1077.00,0.0105
1076.00,0.0104
1075.00,0.0105
1074.00,0.0106
1073.00,0.0106
1072.00,0.0106
1071.00,0.0105
1070.00,0.0104
1069.00,0.0104
1068.00,0.0104
1067.00,0.0104
1066.00,0.0104
1065.00,0.0104
1064.00,0.0104
1063.00,0.0104
1062.00,0.0105
1061.00,0.0106
1060.00,0.0107
1059.00,0.0108
1058.00,0.0109
1057.00,0.0110
1056.00,0.0111
1055.00,0.0113
1054.00,0.0114
1053.00,0.0117
1052.00,0.0121
1051.00,0.0125
1050.00,0.0128
1049.00,0.0132
1048.00,0.0137
1047.00,0.0143
1046.00,0.0148
1045.00,0.0151
1044.00,0.0151
1043.00,0.0148
1042.00,0.0145
1041.00,0.0142
1040.00,0.0140
1039.00,0.0139
1038.00,0.0139
1037.00,0.0138
1036.00,0.0138
1035.00,0.0137
1034.00,0.0136
1033.00,0.0134
1032.00,0.0131
1031.00,0.0129
1030.00,0.0128
1029.00,0.0128
1028.00,0.0129
1027.00,0.0130
1026.00,0.0132
1025.00,0.0133
1024.00,0.0136
1023.00,0.0139
1022.00,0.0142
1021.00,0.0145
1020.00,0.0148
1019.00,0.0149
1018.00,0.0150
1017.00,0.0150
1016.00,0.0151
1015.00,0.0152
1014.00,0.0152
1013.00,0.0152
1012.00,0.0151
1011.00,0.0152
1010.00,0.0153
1009.00,0.0155
1008.00,0.0159
1007.00,0.0164
1006.00,0.0171
1005.00,0.0183
1004.00,0.0201
1003.00,0.0228
1002.00,0.0266
1001.00,0.0315
1000.00,0.0368
999.00,0.0414
998.00,0.0438
997.00,0.0431
996.00,0.0397
995.00,0.0345
994.00,0.0291
993.00,0.0245
992.00,0.0209
991.00,0.0183
990.00,0.0165
989.00,0.0153
988.00,0.0145
987.00,0.0141
986.00,0.0139
985.00,0.0140
984.00,0.0144
983.00,0.0152
982.00,0.0163
981.00,0.0179
980.00,0.0202
979.00,0.0233
978.00,0.0273
977.00,0.0322
976.00,0.0377
975.00,0.0433
974.00,0.0479
973.00,0.0501
972.00,0.0491
971.00,0.0449
970.00,0.0387
969.00,0.0322
968.00,0.0265
967.00,0.0222
966.00,0.0191
965.00,0.0170
964.00,0.0155
963.00,0.0144
962.00,0.0136
961.00,0.0130
960.00,0.0125
959.00,0.0122
958.00,0.0119
957.00,0.0116
956.00,0.0112
955.00,0.0109
954.00,0.0107
953.00,0.0106
952.00,0.0105
951.00,0.0103
950.00,0.0101
949.00,0.0099
948.00,0.0098
947.00,0.0098
946.00,0.0099
945.00,0.0101
944.00,0.0102
943.00,0.0105
942.00,0.0107
941.00,0.0109
940.00,0.0109
939.00,0.0107
938.00,0.0103
937.00,0.0097
936.00,0.0092
935.00,0.0087
934.00,0.0083
933.00,0.0081
932.00,0.0079
931.00,0.0077
930.00,0.0075
929.00,0.0074
928.00,0.0073
927.00,0.0072
926.00,0.0071
925.00,0.0070
924.00,0.0069
923.00,0.0068
922.00,0.0069
921.00,0.0069
920.00,0.0070
919.00,0.0070
918.00,0.0070
917.00,0.0070
916.00,0.0070
915.00,0.0070
914.00,0.0070
913.00,0.0072
912.00,0.0073
911.00,0.0074
910.00,0.0075
909.00,0.0076
908.00,0.0079
907.00,0.0084
906.00,0.0090
905.00,0.0098
904.00,0.0109
903.00,0.0124
902.00,0.0141
901.00,0.0156
900.00,0.0166
899.00,0.0169
898.00,0.0163
897.00,0.0151
896.00,0.0135
895.00,0.0119
894.00,0.0106
893.00,0.0097
892.00,0.0091
891.00,0.0087
890.00,0.0085
889.00,0.0083
888.00,0.0081
887.00,0.0080
886.00,0.0079
885.00,0.0079
884.00,0.0078
883.00,0.0078
882.00,0.0077
881.00,0.0078
880.00,0.0079
879.00,0.0081
878.00,0.0082
877.00,0.0082
876.00,0.0082
875.00,0.0082
874.00,0.0084
873.00,0.0085
872.00,0.0085
871.00,0.0085
870.00,0.0084
869.00,0.0082
868.00,0.0082
867.00,0.0083
866.00,0.0084
865.00,0.0085
864.00,0.0086
863.00,0.0086
862.00,0.0087
861.00,0.0087
860.00,0.0088
859.00,0.0089
858.00,0.0091
857.00,0.0093
856.00,0.0095
855.00,0.0099
854.00,0.0102
853.00,0.0105
852.00,0.0108
851.00,0.0112
850.00,0.0118
849.00,0.0125
848.00,0.0136
847.00,0.0151
846.00,0.0176
845.00,0.0214
844.00,0.0271
843.00,0.0341
842.00,0.0404
841.00,0.0432
840.00,0.0411
839.00,0.0351
838.00,0.0280
837.00,0.0221
836.00,0.0182
835.00,0.0158
834.00,0.0144
833.00,0.0134
832.00,0.0127
831.00,0.0122
830.00,0.0119
829.00,0.0118
828.00,0.0117
827.00,0.0117
826.00,0.0116
825.00,0.0115
824.00,0.0114
823.00,0.0113
822.00,0.0115
821.00,0.0117
820.00,0.0119
819.00,0.0122
818.00,0.0124
817.00,0.0129
816.00,0.0136
815.00,0.0147
814.00,0.0160
813.00,0.0177
812.00,0.0194
811.00,0.0210
810.00,0.0222
809.00,0.0227
808.00,0.0224
807.00,0.0213
806.00,0.0196
805.00,0.0178
804.00,0.0164
803.00,0.0153
802.00,0.0145
801.00,0.0139
800.00,0.0133
799.00,0.0128
798.00,0.0123
797.00,0.0117
796.00,0.0112
795.00,0.0107
794.00,0.0102
793.00,0.0099
792.00,0.0096
791.00,0.0093
790.00,0.0091
789.00,0.0088
788.00,0.0085
787.00,0.0083
786.00,0.0082
785.00,0.0081
784.00,0.0079
783.00,0.0076
782.00,0.0073
781.00,0.0071
780.00,0.0070
779.00,0.0069
778.00,0.0069
777.00,0.0070
776.00,0.0070
775.00,0.0070
774.00,0.0069
773.00,0.0069
772.00,0.0069
771.00,0.0069
770.00,0.0069
769.00,0.0070
768.00,0.0071
767.00,0.0072
766.00,0.0072
765.00,0.0071
764.00,0.0070
763.00,0.0070
762.00,0.0070
761.00,0.0070
760.00,0.0071
759.00,0.0073
758.00,0.0074
757.00,0.0075
756.00,0.0076
755.00,0.0078
754.00,0.0079
753.00,0.0081
752.00,0.0081
751.00,0.0081
750.00,0.0082
749.00,0.0083
748.00,0.0086
747.00,0.0089
746.00,0.0090
745.00,0.0092
744.00,0.0093
743.00,0.0096
742.00,0.0099
741.00,0.0103
740.00,0.0108
739.00,0.0113
738.00,0.0117
737.00,0.0121
736.00,0.0124
735.00,0.0127
734.00,0.0131
733.00,0.0136
732.00,0.0142
731.00,0.0149
730.00,0.0156
729.00,0.0161
728.00,0.0164
727.00,0.0165
726.00,0.0166
725.00,0.0168
724.00,0.0172
723.00,0.0177
722.00,0.0182
721.00,0.0185
720.00,0.0183
719.00,0.0176
718.00,0.0166
717.00,0.0155
716.00,0.0145
715.00,0.0136
714.00,0.0128
713.00,0.0123
712.00,0.0118
711.00,0.0114
710.00,0.0112
709.00,0.0111
708.00,0.0111
707.00,0.0113
706.00,0.0114
705.00,0.0114
704.00,0.0112
703.00,0.0110
702.00,0.0107
701.00,0.0104
700.00,0.0102
699.00,0.0101
698.00,0.0100
697.00,0.0100
696.00,0.0101
695.00,0.0102
694.00,0.0101
693.00,0.0100
692.00,0.0099
691.00,0.0099
690.00,0.0098
689.00,0.0097
688.00,0.0097
687.00,0.0098
686.00,0.0099
685.00,0.0100
684.00,0.0101
683.00,0.0102
682.00,0.0101
681.00,0.0098
680.00,0.0094
679.00,0.0092
678.00,0.0094
677.00,0.0097
676.00,0.0101
675.00,0.0102
674.00,0.0103
673.00,0.0103
672.00,0.0106
671.00,0.0110
670.00,0.0114
669.00,0.0117
668.00,0.0118
667.00,0.0116
666.00,0.0111
665.00,0.0105
664.00,0.0101
663.00,0.0097
662.00,0.0094
661.00,0.0092
660.00,0.0092
659.00,0.0093
658.00,0.0093
657.00,0.0092
656.00,0.0091
655.00,0.0091
654.00,0.0093
653.00,0.0096
652.00,0.0098
651.00,0.0098
650.00,0.0096
649.00,0.0093
648.00,0.0090
647.00,0.0088
646.00,0.0087
645.00,0.0088
644.00,0.0088
643.00,0.0088
642.00,0.0088
641.00,0.0088
640.00,0.0088
639.00,0.0088
638.00,0.0089
637.00,0.0090
636.00,0.0091
635.00,0.0091
634.00,0.0091
633.00,0.0091
632.00,0.0091
631.00,0.0092
630.00,0.0093
629.00,0.0093
628.00,0.0092
627.00,0.0091
626.00,0.0092
625.00,0.0092
624.00,0.0092
623.00,0.0092
622.00,0.0092
621.00,0.0092
620.00,0.0091
619.00,0.0089
618.00,0.0087
617.00,0.0086
616.00,0.0085
615.00,0.0084
614.00,0.0083
613.00,0.0083
612.00,0.0083
611.00,0.0085
610.00,0.0087
609.00,0.0090
608.00,0.0092
607.00,0.0093
606.00,0.0093
605.00,0.0092
604.00,0.0091
603.00,0.0090
602.00,0.0090
601.00,0.0092
600.00,0.0093
599.00,0.0094
598.00,0.0092
597.00,0.0091
596.00,0.0089
595.00,0.0087
594.00,0.0085
593.00,0.0084
592.00,0.0085
591.00,0.0088
590.00,0.0090
589.00,0.0091
588.00,0.0091
587.00,0.0093
586.00,0.0095
585.00,0.0096
584.00,0.0096
583.00,0.0095
582.00,0.0094
581.00,0.0092
580.00,0.0090
579.00,0.0092
578.00,0.0095
577.00,0.0097
576.00,0.0097
575.00,0.0096
574.00,0.0095
573.00,0.0095
572.00,0.0095
571.00,0.0095
570.00,0.0095
569.00,0.0094
568.00,0.0092
567.00,0.0092
566.00,0.0092
565.00,0.0093
564.00,0.0094
563.00,0.0096
562.00,0.0097
561.00,0.0095
560.00,0.0091
559.00,0.0089
558.00,0.0089
557.00,0.0093
556.00,0.0099
555.00,0.0105
554.00,0.0109
553.00,0.0108
552.00,0.0105
551.00,0.0101
550.00,0.0098
549.00,0.0096
548.00,0.0094
547.00,0.0093
546.00,0.0093
545.00,0.0096
544.00,0.0099
543.00,0.0102
542.00,0.0104
541.00,0.0107
540.00,0.0112
539.00,0.0117
538.00,0.0119
537.00,0.0118
536.00,0.0114
535.00,0.0110
534.00,0.0109
533.00,0.0108
532.00,0.0108
531.00,0.0109
530.00,0.0112
529.00,0.0115
528.00,0.0119
527.00,0.0123
526.00,0.0123
525.00,0.0118
524.00,0.0111
523.00,0.0106
522.00,0.0108
521.00,0.0115
520.00,0.0122
519.00,0.0123
518.00,0.0117
517.00,0.0108
516.00,0.0100
515.00,0.0093
514.00,0.0089
513.00,0.0085
512.00,0.0083
511.00,0.0084
510.00,0.0088
509.00,0.0092
508.00,0.0095
507.00,0.0096
506.00,0.0096
505.00,0.0100
504.00,0.0109
503.00,0.0117
502.00,0.0120
501.00,0.0114
500.00,0.0103
499.00,0.0093
498.00,0.0088
497.00,0.0091
496.00,0.0097
495.00,0.0104
494.00,0.0106
493.00,0.0105
492.00,0.0102
491.00,0.0100
490.00,0.0098
489.00,0.0097
488.00,0.0097
487.00,0.0098
486.00,0.0099
485.00,0.0097
484.00,0.0093
483.00,0.0093
482.00,0.0100
481.00,0.0115
480.00,0.0131
479.00,0.0143
478.00,0.0147
477.00,0.0143
476.00,0.0134
475.00,0.0128
474.00,0.0128
473.00,0.0134
472.00,0.0141
471.00,0.0148
470.00,0.0159
469.00,0.0175
468.00,0.0188
467.00,0.0194
466.00,0.0191
465.00,0.0186
464.00,0.0183
463.00,0.0184
462.00,0.0189
461.00,0.0194
460.00,0.0195
459.00,0.0191
458.00,0.0182
457.00,0.0180
456.00,0.0188
455.00,0.0203
454.00,0.0216
453.00,0.0221
452.00,0.0217
451.00,0.0207
450.00,0.0196
