Created as New Dataset,Sample 079 By Administrator Date Thursday, September 04 2025
cm-1,A
4000.00,0.0011
3999.00,0.0011
3998.00,0.0011
3997.00,0.0011
3996.00,0.0011
3995.00,0.0010
3994.00,0.0010
3993.00,0.0010
3992.00,0.0010
3991.00,0.0010
3990.00,0.0010
3989.00,0.0010
3988.00,0.0010
3987.00,0.0010
3986.00,0.0010
3985.00,0.0010
3984.00,0.0010
3983.00,0.0010
3982.00,0.0010
3981.00,0.0009
3980.00,0.0009
3979.00,0.0009
3978.00,0.0009
3977.00,0.0009
3976.00,0.0009
3975.00,0.0009
3974.00,0.0009
3973.00,0.0009
3972.00,0.0009
3971.00,0.0009
3970.00,0.0009
3969.00,0.0009
3968.00,0.0009
3967.00,0.0009
3966.00,0.0009
3965.00,0.0009
3964.00,0.0009
3963.00,0.0009
3962.00,0.0009
3961.00,0.0009
3960.00,0.0009
3959.00,0.0009
3958.00,0.0009
3957.00,0.0009
3956.00,0.0009
3955.00,0.0009
3954.00,0.0009
3953.00,0.0009
3952.00,0.0008
3951.00,0.0008
3950.00,0.0008
3949.00,0.0008
3948.00,0.0009
3947.00,0.0009
3946.00,0.0009
3945.00,0.0008
3944.00,0.0008
3943.00,0.0008
3942.00,0.0008
3941.00,0.0008
3940.00,0.0008
3939.00,0.0008
3938.00,0.0009
3937.00,0.0009
3936.00,0.0009
3935.00,0.0009
3934.00,0.0008
3933.00,0.0008
3932.00,0.0008
3931.00,0.0008
3930.00,0.0008
3929.00,0.0008
3928.00,0.0008
3927.00,0.0009
3926.00,0.0009
3925.00,0.0009
3924.00,0.0009
3923.00,0.0008
3922.00,0.0008
3921.00,0.0008
3920.00,0.0007
3919.00,0.0007
3918.00,0.0008
3917.00,0.0008
3916.00,0.0008
3915.00,0.0008
3914.00,0.0009
3913.00,0.0009
3912.00,0.0009
3911.00,0.0010
3910.00,0.0010
3909.00,0.0009
3908.00,0.0009
3907.00,0.0009
3906.00,0.0008
3905.00,0.0008
3904.00,0.0008
3903.00,0.0007
3902.00,0.0007
3901.00,0.0006
3900.00,0.0006
3899.00,0.0006
3898.00,0.0007
3897.00,0.0007
3896.00,0.0007
3895.00,0.0007
3894.00,0.0007
3893.00,0.0007
3892.00,0.0007
3891.00,0.0007
3890.00,0.0007
3889.00,0.0007
3888.00,0.0007
3887.00,0.0007
3886.00,0.0008
3885.00,0.0008
3884.00,0.0008
3883.00,0.0008
3882.00,0.0007
3881.00,0.0007
3880.00,0.0008
3879.00,0.0008
3878.00,0.0008
3877.00,0.0007
3876.00,0.0007
3875.00,0.0008
3874.00,0.0008
3873.00,0.0007
3872.00,0.0007
3871.00,0.0006
3870.00,0.0006
3869.00,0.0006
3868.00,0.0006
3867.00,0.0006
3866.00,0.0006
3865.00,0.0006
3864.00,0.0007
3863.00,0.0007
3862.00,0.0007
3861.00,0.0007
3860.00,0.0007
3859.00,0.0007
3858.00,0.0007
3857.00,0.0006
3856.00,0.0006
3855.00,0.0005
3854.00,0.0004
3853.00,0.0004
3852.00,0.0005
3851.00,0.0005
3850.00,0.0005
3849.00,0.0006
3848.00,0.0006
3847.00,0.0007
3846.00,0.0007
3845.00,0.0007
3844.00,0.0007
3843.00,0.0007
3842.00,0.0007
3841.00,0.0006
3840.00,0.0006
3839.00,0.0005
3838.00,0.0005
3837.00,0.0006
3836.00,0.0006
3835.00,0.0006
3834.00,0.0006
3833.00,0.0007
3832.00,0.0007
3831.00,0.0007
3830.00,0.0008
3829.00,0.0007
3828.00,0.0007
3827.00,0.0007
3826.00,0.0007
3825.00,0.0007
3824.00,0.0007
3823.00,0.0007
3822.00,0.0007
3821.00,0.0007
3820.00,0.0007
3819.00,0.0007
3818.00,0.0007
3817.00,0.0007
3816.00,0.0008
3815.00,0.0008
3814.00,0.0008
3813.00,0.0008
3812.00,0.0008
3811.00,0.0008
3810.00,0.0008
3809.00,0.0007
3808.00,0.0007
3807.00,0.0007
3806.00,0.0007
3805.00,0.0006
3804.00,0.0006
3803.00,0.0006
3802.00,0.0006
3801.00,0.0007
3800.00,0.0007
3799.00,0.0007
3798.00,0.0006
3797.00,0.0007
3796.00,0.0007
3795.00,0.0007
3794.00,0.0007
3793.00,0.0007
3792.00,0.0007
3791.00,0.0008
3790.00,0.0008
3789.00,0.0008
3788.00,0.0008
3787.00,0.0008
3786.00,0.0007
3785.00,0.0007
3784.00,0.0007
3783.00,0.0008
3782.00,0.0008
3781.00,0.0008
3780.00,0.0009
3779.00,0.0009
3778.00,0.0009
3777.00,0.0009
3776.00,0.0008
3775.00,0.0008
3774.00,0.0008
3773.00,0.0008
3772.00,0.0008
3771.00,0.0008
3770.00,0.0008
3769.00,0.0008
3768.00,0.0008
3767.00,0.0008
3766.00,0.0008
3765.00,0.0008
3764.00,0.0008
3763.00,0.0008
3762.00,0.0008
3761.00,0.0008
3760.00,0.0008
3759.00,0.0007
3758.00,0.0007
3757.00,0.0007
3756.00,0.0007
3755.00,0.0007
3754.00,0.0007
3753.00,0.0007
3752.00,0.0006
3751.00,0.0005
3750.00,0.0005
3749.00,0.0004
3748.00,0.0004
3747.00,0.0004
3746.00,0.0004
3745.00,0.0005
3744.00,0.0006
3743.00,0.0006
3742.00,0.0005
3741.00,0.0005
3740.00,0.0005
3739.00,0.0005
3738.00,0.0005
3737.00,0.0004
3736.00,0.0004
3735.00,0.0004
3734.00,0.0004
3733.00,0.0004
3732.00,0.0004
3731.00,0.0005
3730.00,0.0005
3729.00,0.0006
3728.00,0.0005
3727.00,0.0005
3726.00,0.0005
3725.00,0.0006
3724.00,0.0006
3723.00,0.0006
3722.00,0.0006
3721.00,0.0007
3720.00,0.0007
3719.00,0.0007
3718.00,0.0007
3717.00,0.0007
3716.00,0.0006
3715.00,0.0006
3714.00,0.0006
3713.00,0.0006
3712.00,0.0006
3711.00,0.0006
3710.00,0.0006
3709.00,0.0006
3708.00,0.0006
3707.00,0.0006
3706.00,0.0006
3705.00,0.0006
3704.00,0.0006
3703.00,0.0006
3702.00,0.0006
3701.00,0.0006
3700.00,0.0006
3699.00,0.0006
3698.00,0.0006
3697.00,0.0006
3696.00,0.0006
3695.00,0.0006
3694.00,0.0005
3693.00,0.0005
3692.00,0.0005
3691.00,0.0005
3690.00,0.0004
3689.00,0.0004
3688.00,0.0005
3687.00,0.0005
3686.00,0.0006
3685.00,0.0006
3684.00,0.0007
3683.00,0.0007
3682.00,0.0007
3681.00,0.0008
3680.00,0.0008
3679.00,0.0008
3678.00,0.0008
3677.00,0.0008
3676.00,0.0007
3675.00,0.0007
3674.00,0.0006
3673.00,0.0005
3672.00,0.0004
3671.00,0.0004
3670.00,0.0005
3669.00,0.0006
3668.00,0.0006
3667.00,0.0006
3666.00,0.0006
3665.00,0.0007
3664.00,0.0007
3663.00,0.0008
3662.00,0.0007
3661.00,0.0007
3660.00,0.0007
3659.00,0.0007
3658.00,0.0007
3657.00,0.0007
3656.00,0.0007
3655.00,0.0007
3654.00,0.0006
3653.00,0.0006
3652.00,0.0005
3651.00,0.0005
3650.00,0.0005
3649.00,0.0006
3648.00,0.0006
3647.00,0.0006
3646.00,0.0006
3645.00,0.0005
3644.00,0.0005
3643.00,0.0006
3642.00,0.0006
3641.00,0.0007
3640.00,0.0007
3639.00,0.0007
3638.00,0.0007
3637.00,0.0007
3636.00,0.0007
3635.00,0.0006
3634.00,0.0006
3633.00,0.0005
3632.00,0.0004
3631.00,0.0003
3630.00,0.0003
3629.00,0.0003
3628.00,0.0003
3627.00,0.0004
3626.00,0.0004
3625.00,0.0004
3624.00,0.0004
3623.00,0.0004
3622.00,0.0005
3621.00,0.0005
3620.00,0.0005
3619.00,0.0005
3618.00,0.0005
3617.00,0.0005
3616.00,0.0006
3615.00,0.0006
3614.00,0.0006
3613.00,0.0006
3612.00,0.0006
3611.00,0.0005
3610.00,0.0005
3609.00,0.0005
3608.00,0.0006
3607.00,0.0005
3606.00,0.0005
3605.00,0.0005
3604.00,0.0005
3603.00,0.0005
3602.00,0.0006
3601.00,0.0006
3600.00,0.0006
3599.00,0.0006
3598.00,0.0006
3597.00,0.0005
3596.00,0.0005
3595.00,0.0005
3594.00,0.0005
3593.00,0.0005
3592.00,0.0006
3591.00,0.0006
3590.00,0.0006
3589.00,0.0006
3588.00,0.0006
3587.00,0.0006
3586.00,0.0006
3585.00,0.0006
3584.00,0.0006
3583.00,0.0006
3582.00,0.0006
3581.00,0.0006
3580.00,0.0006
3579.00,0.0006
3578.00,0.0007
3577.00,0.0007
3576.00,0.0007
3575.00,0.0007
3574.00,0.0007
3573.00,0.0007
3572.00,0.0007
3571.00,0.0007
3570.00,0.0007
3569.00,0.0007
3568.00,0.0008
3567.00,0.0007
3566.00,0.0007
3565.00,0.0007
3564.00,0.0007
3563.00,0.0007
3562.00,0.0007
3561.00,0.0008
3560.00,0.0008
3559.00,0.0008
3558.00,0.0009
3557.00,0.0009
3556.00,0.0009
3555.00,0.0009
3554.00,0.0009
3553.00,0.0008
3552.00,0.0008
3551.00,0.0008
3550.00,0.0008
3549.00,0.0008
3548.00,0.0008
3547.00,0.0008
3546.00,0.0008
3545.00,0.0008
3544.00,0.0009
3543.00,0.0009
3542.00,0.0009
3541.00,0.0009
3540.00,0.0009
3539.00,0.0009
3538.00,0.0010
3537.00,0.0010
3536.00,0.0011
3535.00,0.0011
3534.00,0.0011
3533.00,0.0011
3532.00,0.0011
3531.00,0.0011
3530.00,0.0011
3529.00,0.0011
3528.00,0.0011
3527.00,0.0011
3526.00,0.0011
3525.00,0.0010
3524.00,0.0011
3523.00,0.0011
3522.00,0.0011
3521.00,0.0011
3520.00,0.0011
3519.00,0.0011
3518.00,0.0011
3517.00,0.0011
3516.00,0.0012
3515.00,0.0012
3514.00,0.0013
3513.00,0.0013
3512.00,0.0013
3511.00,0.0013
3510.00,0.0013
3509.00,0.0013
3508.00,0.0013
3507.00,0.0013
3506.00,0.0013
3505.00,0.0014
3504.00,0.0014
3503.00,0.0014
3502.00,0.0014
3501.00,0.0014
3500.00,0.0014
3499.00,0.0014
3498.00,0.0014
3497.00,0.0014
3496.00,0.0014
3495.00,0.0014
3494.00,0.0014
3493.00,0.0014
3492.00,0.0014
3491.00,0.0014
3490.00,0.0015
3489.00,0.0015
3488.00,0.0015
3487.00,0.0015
3486.00,0.0015
3485.00,0.0015
3484.00,0.0015
3483.00,0.0015
3482.00,0.0016
3481.00,0.0016
3480.00,0.0016
3479.00,0.0016
3478.00,0.0016
3477.00,0.0016
3476.00,0.0016
3475.00,0.0016
3474.00,0.0016
3473.00,0.0016
3472.00,0.0016
3471.00,0.0016
3470.00,0.0016
3469.00,0.0016
3468.00,0.0016
3467.00,0.0017
3466.00,0.0017
3465.00,0.0017
3464.00,0.0017
3463.00,0.0018
3462.00,0.0018
3461.00,0.0018
3460.00,0.0018
3459.00,0.0018
3458.00,0.0018
3457.00,0.0018
3456.00,0.0018
3455.00,0.0018
3454.00,0.0018
3453.00,0.0018
3452.00,0.0019
3451.00,0.0019
3450.00,0.0019
3449.00,0.0019
3448.00,0.0019
3447.00,0.0019
3446.00,0.0020
3445.00,0.0020
3444.00,0.0020
3443.00,0.0021
3442.00,0.0021
3441.00,0.0021
3440.00,0.0021
3439.00,0.0021
3438.00,0.0021
3437.00,0.0021
3436.00,0.0020
3435.00,0.0020
3434.00,0.0020
3433.00,0.0020
3432.00,0.0021
3431.00,0.0021
3430.00,0.0021
3429.00,0.0021
3428.00,0.0022
3427.00,0.0022
3426.00,0.0022
3425.00,0.0022
3424.00,0.0021
3423.00,0.0021
3422.00,0.0022
3421.00,0.0022
3420.00,0.0023
3419.00,0.0023
3418.00,0.0024
3417.00,0.0024
3416.00,0.0024
3415.00,0.0023
3414.00,0.0023
3413.00,0.0023
3412.00,0.0023
3411.00,0.0023
3410.00,0.0023
3409.00,0.0023
3408.00,0.0023
3407.00,0.0023
3406.00,0.0023
3405.00,0.0024
3404.00,0.0024
3403.00,0.0024
3402.00,0.0024
3401.00,0.0024
3400.00,0.0024
3399.00,0.0023
3398.00,0.0023
3397.00,0.0024
3396.00,0.0024
3395.00,0.0024
3394.00,0.0023
3393.00,0.0023
3392.00,0.0023
3391.00,0.0023
3390.00,0.0023
3389.00,0.0023
3388.00,0.0023
3387.00,0.0023
3386.00,0.0023
3385.00,0.0024
3384.00,0.0024
3383.00,0.0024
3382.00,0.0024
3381.00,0.0024
3380.00,0.0024
3379.00,0.0024
3378.00,0.0024
3377.00,0.0024
3376.00,0.0025
3375.00,0.0025
3374.00,0.0026
3373.00,0.0026
3372.00,0.0026
3371.00,0.0026
3370.00,0.0026
3369.00,0.0026
3368.00,0.0025
3367.00,0.0025
3366.00,0.0025
3365.00,0.0025
3364.00,0.0025
3363.00,0.0026
3362.00,0.0026
3361.00,0.0026
3360.00,0.0026
3359.00,0.0026
3358.00,0.0027
3357.00,0.0027
3356.00,0.0026
3355.00,0.0026
3354.00,0.0026
3353.00,0.0026
3352.00,0.0025
3351.00,0.0025
3350.00,0.0025
3349.00,0.0026
3348.00,0.0026
3347.00,0.0026
3346.00,0.0026
3345.00,0.0027
3344.00,0.0027
3343.00,0.0027
3342.00,0.0028
3341.00,0.0027
3340.00,0.0027
3339.00,0.0027
3338.00,0.0026
3337.00,0.0026
3336.00,0.0026
3335.00,0.0025
3334.00,0.0025
3333.00,0.0025
3332.00,0.0025
3331.00,0.0025
3330.00,0.0025
3329.00,0.0025
3328.00,0.0025
3327.00,0.0025
3326.00,0.0025
3325.00,0.0025
3324.00,0.0025
3323.00,0.0025
3322.00,0.0025
3321.00,0.0025
3320.00,0.0025
3319.00,0.0025
3318.00,0.0026
3317.00,0.0025
3316.00,0.0025
3315.00,0.0025
3314.00,0.0024
3313.00,0.0024
3312.00,0.0025
3311.00,0.0025
3310.00,0.0025
3309.00,0.0026
3308.00,0.0026
3307.00,0.0027
3306.00,0.0027
3305.00,0.0027
3304.00,0.0027
3303.00,0.0028
3302.00,0.0028
3301.00,0.0028
3300.00,0.0028
3299.00,0.0028
3298.00,0.0027
3297.00,0.0027
3296.00,0.0026
3295.00,0.0026
3294.00,0.0026
3293.00,0.0025
3292.00,0.0025
3291.00,0.0025
3290.00,0.0025
3289.00,0.0025
3288.00,0.0025
3287.00,0.0025
3286.00,0.0025
3285.00,0.0025
3284.00,0.0025
3283.00,0.0025
3282.00,0.0026
3281.00,0.0025
3280.00,0.0025
3279.00,0.0024
3278.00,0.0024
3277.00,0.0023
3276.00,0.0023
3275.00,0.0023
3274.00,0.0024
3273.00,0.0024
3272.00,0.0024
3271.00,0.0024
3270.00,0.0024
3269.00,0.0024
3268.00,0.0024
3267.00,0.0024
3266.00,0.0024
3265.00,0.0023
3264.00,0.0023
3263.00,0.0023
3262.00,0.0023
3261.00,0.0023
3260.00,0.0024
3259.00,0.0023
3258.00,0.0023
3257.00,0.0023
3256.00,0.0023
3255.00,0.0022
3254.00,0.0022
3253.00,0.0022
3252.00,0.0022
3251.00,0.0023
3250.00,0.0023
3249.00,0.0023
3248.00,0.0023
3247.00,0.0023
3246.00,0.0023
3245.00,0.0023
3244.00,0.0023
3243.00,0.0022
3242.00,0.0022
3241.00,0.0022
3240.00,0.0023
3239.00,0.0023
3238.00,0.0023
3237.00,0.0023
3236.00,0.0023
3235.00,0.0023
3234.00,0.0023
3233.00,0.0023
3232.00,0.0023
3231.00,0.0023
3230.00,0.0023
3229.00,0.0023
3228.00,0.0023
3227.00,0.0024
3226.00,0.0024
3225.00,0.0024
3224.00,0.0025
3223.00,0.0025
3222.00,0.0026
3221.00,0.0026
3220.00,0.0027
3219.00,0.0027
3218.00,0.0027
3217.00,0.0027
3216.00,0.0027
3215.00,0.0027
3214.00,0.0027
3213.00,0.0027
3212.00,0.0027
3211.00,0.0027
3210.00,0.0028
3209.00,0.0028
3208.00,0.0028
3207.00,0.0028
3206.00,0.0029
3205.00,0.0029
3204.00,0.0029
3203.00,0.0029
3202.00,0.0029
3201.00,0.0029
3200.00,0.0029
3199.00,0.0029
3198.00,0.0029
3197.00,0.0029
3196.00,0.0028
3195.00,0.0029
3194.00,0.0029
3193.00,0.0030
3192.00,0.0030
3191.00,0.0030
3190.00,0.0030
3189.00,0.0030
3188.00,0.0030
3187.00,0.0029
3186.00,0.0029
3185.00,0.0029
3184.00,0.0028
3183.00,0.0028
3182.00,0.0028
3181.00,0.0028
3180.00,0.0028
3179.00,0.0028
3178.00,0.0028
3177.00,0.0028
3176.00,0.0028
3175.00,0.0028
3174.00,0.0027
3173.00,0.0027
3172.00,0.0027
3171.00,0.0027
3170.00,0.0027
3169.00,0.0027
3168.00,0.0027
3167.00,0.0027
3166.00,0.0027
3165.00,0.0027
3164.00,0.0027
3163.00,0.0027
3162.00,0.0027
3161.00,0.0026
3160.00,0.0026
3159.00,0.0026
3158.00,0.0027
3157.00,0.0027
3156.00,0.0027
3155.00,0.0027
3154.00,0.0027
3153.00,0.0027
3152.00,0.0027
3151.00,0.0027
3150.00,0.0027
3149.00,0.0027
3148.00,0.0027
3147.00,0.0027
3146.00,0.0027
3145.00,0.0027
3144.00,0.0027
3143.00,0.0027
3142.00,0.0027
3141.00,0.0027
3140.00,0.0027
3139.00,0.0027
3138.00,0.0027
3137.00,0.0026
3136.00,0.0026
3135.00,0.0026
3134.00,0.0026
3133.00,0.0026
3132.00,0.0026
3131.00,0.0026
3130.00,0.0026
3129.00,0.0025
3128.00,0.0025
3127.00,0.0025
3126.00,0.0025
3125.00,0.0024
3124.00,0.0024
3123.00,0.0024
3122.00,0.0024
3121.00,0.0024
3120.00,0.0023
3119.00,0.0023
3118.00,0.0023
3117.00,0.0023
3116.00,0.0023
3115.00,0.0023
3114.00,0.0023
3113.00,0.0022
3112.00,0.0022
3111.00,0.0022
3110.00,0.0022
3109.00,0.0022
3108.00,0.0023
3107.00,0.0023
3106.00,0.0023
3105.00,0.0023
3104.00,0.0023
3103.00,0.0023
3102.00,0.0023
3101.00,0.0023
3100.00,0.0023
3099.00,0.0023
3098.00,0.0022
3097.00,0.0022
3096.00,0.0022
3095.00,0.0022
3094.00,0.0022
3093.00,0.0022
3092.00,0.0022
3091.00,0.0022
3090.00,0.0022
3089.00,0.0022
3088.00,0.0022
3087.00,0.0022
3086.00,0.0022
3085.00,0.0022
3084.00,0.0022
3083.00,0.0022
3082.00,0.0022
3081.00,0.0021
3080.00,0.0022
3079.00,0.0022
3078.00,0.0022
3077.00,0.0022
3076.00,0.0022
3075.00,0.0022
3074.00,0.0022
3073.00,0.0022
3072.00,0.0022
3071.00,0.0022
3070.00,0.0022
3069.00,0.0022
3068.00,0.0023
3067.00,0.0023
3066.00,0.0023
3065.00,0.0023
3064.00,0.0024
3063.00,0.0024
3062.00,0.0025
3061.00,0.0025
3060.00,0.0025
3059.00,0.0025
3058.00,0.0025
3057.00,0.0024
3056.00,0.0024
3055.00,0.0025
3054.00,0.0025
3053.00,0.0026
3052.00,0.0026
3051.00,0.0026
3050.00,0.0027
3049.00,0.0027
3048.00,0.0027
3047.00,0.0027
3046.00,0.0026
3045.00,0.0026
3044.00,0.0026
3043.00,0.0027
3042.00,0.0027
3041.00,0.0028
3040.00,0.0029
3039.00,0.0029
3038.00,0.0029
3037.00,0.0030
3036.00,0.0030
3035.00,0.0030
3034.00,0.0030
3033.00,0.0031
3032.00,0.0032
3031.00,0.0032
3030.00,0.0033
3029.00,0.0033
3028.00,0.0034
3027.00,0.0034
3026.00,0.0035
3025.00,0.0036
3024.00,0.0037
3023.00,0.0038
3022.00,0.0038
3021.00,0.0039
3020.00,0.0040
3019.00,0.0041
3018.00,0.0042
3017.00,0.0043
3016.00,0.0044
3015.00,0.0046
3014.00,0.0047
3013.00,0.0048
3012.00,0.0049
3011.00,0.0051
3010.00,0.0053
3009.00,0.0055
3008.00,0.0057
3007.00,0.0060
3006.00,0.0062
3005.00,0.0065
3004.00,0.0068
3003.00,0.0071
3002.00,0.0074
3001.00,0.0077
3000.00,0.0081
2999.00,0.0084
2998.00,0.0088
2997.00,0.0091
2996.00,0.0096
2995.00,0.0100
2994.00,0.0105
2993.00,0.0110
2992.00,0.0116
2991.00,0.0122
2990.00,0.0130
2989.00,0.0138
2988.00,0.0146
2987.00,0.0156
2986.00,0.0167
2985.00,0.0180
2984.00,0.0195
2983.00,0.0211
2982.00,0.0229
2981.00,0.0248
2980.00,0.0268
2979.00,0.0290
2978.00,0.0316
2977.00,0.0346
2976.00,0.0381
2975.00,0.0422
2974.00,0.0469
2973.00,0.0523
2972.00,0.0584
2971.00,0.0654
2970.00,0.0731
2969.00,0.0816
2968.00,0.0910
2967.00,0.1012
2966.00,0.1123
2965.00,0.1238
2964.00,0.1355
2963.00,0.1468
2962.00,0.1569
2961.00,0.1652
2960.00,0.1714
2959.00,0.1756
2958.00,0.1783
2957.00,0.1802
2956.00,0.1821
2955.00,0.1847
2954.00,0.1881
2953.00,0.1918
2952.00,0.1949
2951.00,0.1962
2950.00,0.1947
2949.00,0.1898
2948.00,0.1814
2947.00,0.1703
2946.00,0.1576
2945.00,0.1446
2944.00,0.1327
2943.00,0.1225
2942.00,0.1146
2941.00,0.1092
2940.00,0.1060
2939.00,0.1050
2938.00,0.1059
2937.00,0.1085
2936.00,0.1126
2935.00,0.1182
2934.00,0.1250
2933.00,0.1331
2932.00,0.1422
2931.00,0.1521
2930.00,0.1625
2929.00,0.1731
2928.00,0.1837
2927.00,0.1940
2926.00,0.2038
2925.00,0.2132
2924.00,0.2221
2923.00,0.2308
2922.00,0.2390
2921.00,0.2467
2920.00,0.2533
2919.00,0.2580
2918.00,0.2599
2917.00,0.2587
2916.00,0.2543
2915.00,0.2474
2914.00,0.2389
2913.00,0.2301
2912.00,0.2216
2911.00,0.2142
2910.00,0.2078
2909.00,0.2022
2908.00,0.1971
2907.00,0.1920
2906.00,0.1866
2905.00,0.1809
2904.00,0.1747
2903.00,0.1683
2902.00,0.1617
2901.00,0.1550
2900.00,0.1485
2899.00,0.1422
2898.00,0.1363
2897.00,0.1308
2896.00,0.1259
2895.00,0.1216
2894.00,0.1179
2893.00,0.1149
2892.00,0.1125
2891.00,0.1106
2890.00,0.1092
2889.00,0.1082
2888.00,0.1075
2887.00,0.1072
2886.00,0.1072
2885.00,0.1074
2884.00,0.1080
2883.00,0.1090
2882.00,0.1102
2881.00,0.1116
2880.00,0.1128
2879.00,0.1137
2878.00,0.1139
2877.00,0.1135
2876.00,0.1127
2875.00,0.1119
2874.00,0.1115
2873.00,0.1117
2872.00,0.1127
2871.00,0.1142
2870.00,0.1161
2869.00,0.1178
2868.00,0.1188
2867.00,0.1183
2866.00,0.1158
2865.00,0.1112
2864.00,0.1050
2863.00,0.0979
2862.00,0.0910
2861.00,0.0850
2860.00,0.0803
2859.00,0.0772
2858.00,0.0755
2857.00,0.0750
2856.00,0.0754
2855.00,0.0765
2854.00,0.0781
2853.00,0.0800
2852.00,0.0820
2851.00,0.0839
2850.00,0.0856
2849.00,0.0872
2848.00,0.0890
2847.00,0.0912
2846.00,0.0944
2845.00,0.0987
2844.00,0.1040
2843.00,0.1099
2842.00,0.1159
2841.00,0.1212
2840.00,0.1251
2839.00,0.1267
2838.00,0.1255
2837.00,0.1211
2836.00,0.1137
2835.00,0.1042
2834.00,0.0933
2833.00,0.0824
2832.00,0.0721
2831.00,0.0631
2830.00,0.0556
2829.00,0.0494
2828.00,0.0443
2827.00,0.0402
2826.00,0.0369
2825.00,0.0340
2824.00,0.0317
2823.00,0.0296
2822.00,0.0279
2821.00,0.0264
2820.00,0.0250
2819.00,0.0239
2818.00,0.0228
2817.00,0.0220
2816.00,0.0212
2815.00,0.0204
2814.00,0.0198
2813.00,0.0192
2812.00,0.0186
2811.00,0.0181
2810.00,0.0177
2809.00,0.0172
2808.00,0.0166
2807.00,0.0160
2806.00,0.0154
2805.00,0.0147
2804.00,0.0141
2803.00,0.0134
2802.00,0.0129
2801.00,0.0125
2800.00,0.0121
2799.00,0.0118
2798.00,0.0115
2797.00,0.0113
2796.00,0.0111
2795.00,0.0109
2794.00,0.0106
2793.00,0.0104
2792.00,0.0100
2791.00,0.0097
2790.00,0.0093
2789.00,0.0090
2788.00,0.0086
2787.00,0.0083
2786.00,0.0080
2785.00,0.0077
2784.00,0.0074
2783.00,0.0072
2782.00,0.0070
2781.00,0.0068
2780.00,0.0066
2779.00,0.0064
2778.00,0.0063
2777.00,0.0061
2776.00,0.0060
2775.00,0.0059
2774.00,0.0058
2773.00,0.0057
2772.00,0.0056
2771.00,0.0055
2770.00,0.0055
2769.00,0.0054
2768.00,0.0054
2767.00,0.0053
2766.00,0.0053
2765.00,0.0053
2764.00,0.0052
2763.00,0.0052
2762.00,0.0052
2761.00,0.0052
2760.00,0.0052
2759.00,0.0052
2758.00,0.0052
2757.00,0.0051
2756.00,0.0051
2755.00,0.0051
2754.00,0.0051
2753.00,0.0051
2752.00,0.0050
2751.00,0.0050
2750.00,0.0050
2749.00,0.0050
2748.00,0.0050
2747.00,0.0050
2746.00,0.0051
2745.00,0.0052
2744.00,0.0052
2743.00,0.0053
2742.00,0.0054
2741.00,0.0055
2740.00,0.0056
2739.00,0.0058
2738.00,0.0059
2737.00,0.0060
2736.00,0.0062
2735.00,0.0063
2734.00,0.0064
2733.00,0.0065
2732.00,0.0066
2731.00,0.0068
2730.00,0.0070
2729.00,0.0072
2728.00,0.0075
2727.00,0.0077
2726.00,0.0080
2725.00,0.0083
2724.00,0.0085
2723.00,0.0086
2722.00,0.0085
2721.00,0.0084
2720.00,0.0081
2719.00,0.0078
2718.00,0.0074
2717.00,0.0071
2716.00,0.0068
2715.00,0.0065
2714.00,0.0063
2713.00,0.0061
2712.00,0.0059
2711.00,0.0058
2710.00,0.0056
2709.00,0.0055
2708.00,0.0053
2707.00,0.0052
2706.00,0.0051
2705.00,0.0050
2704.00,0.0050
2703.00,0.0049
2702.00,0.0048
2701.00,0.0047
2700.00,0.0046
2699.00,0.0045
2698.00,0.0045
2697.00,0.0044
2696.00,0.0044
2695.00,0.0044
2694.00,0.0045
2693.00,0.0045
2692.00,0.0045
2691.00,0.0045
2690.00,0.0045
2689.00,0.0045
2688.00,0.0045
2687.00,0.0045
2686.00,0.0045
2685.00,0.0044
2684.00,0.0044
2683.00,0.0044
2682.00,0.0044
2681.00,0.0045
2680.00,0.0045
2679.00,0.0045
2678.00,0.0045
2677.00,0.0045
2676.00,0.0045
2675.00,0.0045
2674.00,0.0045
2673.00,0.0044
2672.00,0.0044
2671.00,0.0044
2670.00,0.0044
2669.00,0.0044
2668.00,0.0044
2667.00,0.0045
2666.00,0.0045
2665.00,0.0046
2664.00,0.0046
2663.00,0.0047
2662.00,0.0047
2661.00,0.0048
2660.00,0.0048
2659.00,0.0047
2658.00,0.0047
2657.00,0.0047
2656.00,0.0046
2655.00,0.0046
2654.00,0.0046
2653.00,0.0046
2652.00,0.0045
2651.00,0.0045
2650.00,0.0044
2649.00,0.0044
2648.00,0.0044
2647.00,0.0043
2646.00,0.0043
2645.00,0.0042
2644.00,0.0042
2643.00,0.0042
2642.00,0.0041
2641.00,0.0041
2640.00,0.0040
2639.00,0.0039
2638.00,0.0039
2637.00,0.0039
2636.00,0.0038
2635.00,0.0038
2634.00,0.0038
2633.00,0.0038
2632.00,0.0038
2631.00,0.0038
2630.00,0.0038
2629.00,0.0038
2628.00,0.0038
2627.00,0.0038
2626.00,0.0039
2625.00,0.0039
2624.00,0.0039
2623.00,0.0040
2622.00,0.0040
2621.00,0.0041
2620.00,0.0041
2619.00,0.0040
2618.00,0.0040
2617.00,0.0040
2616.00,0.0039
2615.00,0.0039
2614.00,0.0039
2613.00,0.0039
2612.00,0.0038
2611.00,0.0037
2610.00,0.0036
2609.00,0.0035
2608.00,0.0035
2607.00,0.0034
2606.00,0.0033
2605.00,0.0033
2604.00,0.0032
2603.00,0.0031
2602.00,0.0030
2601.00,0.0030
2600.00,0.0030
2599.00,0.0030
2598.00,0.0030
2597.00,0.0030
2596.00,0.0031
2595.00,0.0031
2594.00,0.0031
2593.00,0.0031
2592.00,0.0032
2591.00,0.0032
2590.00,0.0033
2589.00,0.0034
2588.00,0.0035
2587.00,0.0035
2586.00,0.0036
2585.00,0.0036
2584.00,0.0037
2583.00,0.0038
2582.00,0.0038
2581.00,0.0037
2580.00,0.0036
2579.00,0.0036
2578.00,0.0035
2577.00,0.0034
2576.00,0.0033
2575.00,0.0032
2574.00,0.0031
2573.00,0.0030
2572.00,0.0029
2571.00,0.0028
2570.00,0.0027
2569.00,0.0026
2568.00,0.0026
2567.00,0.0026
2566.00,0.0025
2565.00,0.0025
2564.00,0.0024
2563.00,0.0024
2562.00,0.0023
2561.00,0.0022
2560.00,0.0021
2559.00,0.0021
2558.00,0.0021
2557.00,0.0022
2556.00,0.0023
2555.00,0.0023
2554.00,0.0024
2553.00,0.0023
2552.00,0.0023
2551.00,0.0022
2550.00,0.0021
2549.00,0.0020
2548.00,0.0018
2547.00,0.0017
2546.00,0.0017
2545.00,0.0017
2544.00,0.0017
2543.00,0.0017
2542.00,0.0018
2541.00,0.0018
2540.00,0.0018
2539.00,0.0017
2538.00,0.0017
2537.00,0.0017
2536.00,0.0017
2535.00,0.0017
2534.00,0.0016
2533.00,0.0016
2532.00,0.0016
2531.00,0.0015
2530.00,0.0015
2529.00,0.0015
2528.00,0.0015
2527.00,0.0015
2526.00,0.0014
2525.00,0.0014
2524.00,0.0013
2523.00,0.0013
2522.00,0.0013
2521.00,0.0013
2520.00,0.0013
2519.00,0.0012
2518.00,0.0011
2517.00,0.0010
2516.00,0.0009
2515.00,0.0009
2514.00,0.0010
2513.00,0.0011
2512.00,0.0011
2511.00,0.0012
2510.00,0.0011
2509.00,0.0011
2508.00,0.0010
2507.00,0.0010
2506.00,0.0010
2505.00,0.0010
2504.00,0.0010
2503.00,0.0010
2502.00,0.0010
2501.00,0.0010
2500.00,0.0009
2499.00,0.0009
2498.00,0.0009
2497.00,0.0010
2496.00,0.0010
2495.00,0.0010
2494.00,0.0011
2493.00,0.0011
2492.00,0.0011
2491.00,0.0011
2490.00,0.0011
2489.00,0.0010
2488.00,0.0010
2487.00,0.0010
2486.00,0.0009
2485.00,0.0010
2484.00,0.0010
2483.00,0.0011
2482.00,0.0010
2481.00,0.0010
2480.00,0.0009
2479.00,0.0008
2478.00,0.0008
2477.00,0.0008
2476.00,0.0008
2475.00,0.0008
2474.00,0.0009
2473.00,0.0009
2472.00,0.0009
2471.00,0.0009
2470.00,0.0009
2469.00,0.0009
2468.00,0.0009
2467.00,0.0009
2466.00,0.0009
2465.00,0.0008
2464.00,0.0008
2463.00,0.0009
2462.00,0.0009
2461.00,0.0010
2460.00,0.0010
2459.00,0.0010
2458.00,0.0009
2457.00,0.0009
2456.00,0.0009
2455.00,0.0009
2454.00,0.0010
2453.00,0.0010
2452.00,0.0010
2451.00,0.0010
2450.00,0.0010
2449.00,0.0010
2448.00,0.0010
2447.00,0.0010
2446.00,0.0010
2445.00,0.0010
2444.00,0.0009
2443.00,0.0009
2442.00,0.0009
2441.00,0.0009
2440.00,0.0009
2439.00,0.0010
2438.00,0.0011
2437.00,0.0012
2436.00,0.0012
2435.00,0.0012
2434.00,0.0011
2433.00,0.0011
2432.00,0.0011
2431.00,0.0011
2430.00,0.0011
2429.00,0.0011
2428.00,0.0011
2427.00,0.0011
2426.00,0.0011
2425.00,0.0011
2424.00,0.0012
2423.00,0.0012
2422.00,0.0012
2421.00,0.0012
2420.00,0.0011
2419.00,0.0011
2418.00,0.0010
2417.00,0.0009
2416.00,0.0009
2415.00,0.0008
2414.00,0.0008
2413.00,0.0008
2412.00,0.0008
2411.00,0.0008
2410.00,0.0008
2409.00,0.0009
2408.00,0.0009
2407.00,0.0009
2406.00,0.0009
2405.00,0.0009
2404.00,0.0008
2403.00,0.0008
2402.00,0.0008
2401.00,0.0008
2400.00,0.0008
2399.00,0.0008
2398.00,0.0009
2397.00,0.0008
2396.00,0.0008
2395.00,0.0008
2394.00,0.0008
2393.00,0.0008
2392.00,0.0008
2391.00,0.0007
2390.00,0.0007
2389.00,0.0007
2388.00,0.0007
2387.00,0.0007
2386.00,0.0007
2385.00,0.0006
2384.00,0.0006
2383.00,0.0005
2382.00,0.0005
2381.00,0.0004
2380.00,0.0004
2379.00,0.0004
2378.00,0.0004
2377.00,0.0004
2376.00,0.0004
2375.00,0.0004
2374.00,0.0005
2373.00,0.0005
2372.00,0.0005
2371.00,0.0005
2370.00,0.0005
2369.00,0.0005
2368.00,0.0005
2367.00,0.0004
2366.00,0.0004
2365.00,0.0004
2364.00,0.0004
2363.00,0.0004
2362.00,0.0004
2361.00,0.0005
2360.00,0.0006
2359.00,0.0007
2358.00,0.0007
2357.00,0.0008
2356.00,0.0008
2355.00,0.0008
2354.00,0.0008
2353.00,0.0008
2352.00,0.0007
2351.00,0.0006
2350.00,0.0006
2349.00,0.0007
2348.00,0.0007
2347.00,0.0007
2346.00,0.0007
2345.00,0.0007
2344.00,0.0007
2343.00,0.0008
2342.00,0.0009
2341.00,0.0009
2340.00,0.0010
2339.00,0.0010
2338.00,0.0010
2337.00,0.0009
2336.00,0.0009
2335.00,0.0008
2334.00,0.0008
2333.00,0.0008
2332.00,0.0009
2331.00,0.0009
2330.00,0.0008
2329.00,0.0008
2328.00,0.0010
2327.00,0.0013
2326.00,0.0017
2325.00,0.0020
2324.00,0.0021
2323.00,0.0020
2322.00,0.0017
2321.00,0.0016
2320.00,0.0014
2319.00,0.0014
2318.00,0.0013
2317.00,0.0013
2316.00,0.0012
2315.00,0.0012
2314.00,0.0011
2313.00,0.0010
2312.00,0.0009
2311.00,0.0008
2310.00,0.0007
2309.00,0.0007
2308.00,0.0007
2307.00,0.0008
2306.00,0.0008
2305.00,0.0009
2304.00,0.0009
2303.00,0.0009
2302.00,0.0010
2301.00,0.0010
2300.00,0.0011
2299.00,0.0012
2298.00,0.0012
2297.00,0.0012
2296.00,0.0012
2295.00,0.0012
2294.00,0.0014
2293.00,0.0016
2292.00,0.0017
2291.00,0.0018
2290.00,0.0017
2289.00,0.0017
2288.00,0.0016
2287.00,0.0015
2286.00,0.0015
2285.00,0.0014
2284.00,0.0013
2283.00,0.0013
2282.00,0.0013
2281.00,0.0013
2280.00,0.0013
2279.00,0.0014
2278.00,0.0015
2277.00,0.0016
2276.00,0.0016
2275.00,0.0016
2274.00,0.0015
2273.00,0.0014
2272.00,0.0014
2271.00,0.0014
2270.00,0.0014
2269.00,0.0014
2268.00,0.0013
2267.00,0.0012
2266.00,0.0011
2265.00,0.0011
2264.00,0.0011
2263.00,0.0010
2262.00,0.0010
2261.00,0.0011
2260.00,0.0011
2259.00,0.0012
2258.00,0.0012
2257.00,0.0011
2256.00,0.0011
2255.00,0.0010
2254.00,0.0010
2253.00,0.0009
2252.00,0.0009
2251.00,0.0008
2250.00,0.0008
2249.00,0.0009
2248.00,0.0009
2247.00,0.0010
2246.00,0.0010
2245.00,0.0010
2244.00,0.0008
2243.00,0.0007
2242.00,0.0006
2241.00,0.0005
2240.00,0.0005
2239.00,0.0007
2238.00,0.0008
2237.00,0.0011
2236.00,0.0012
2235.00,0.0012
2234.00,0.0010
2233.00,0.0008
2232.00,0.0007
2231.00,0.0005
2230.00,0.0005
2229.00,0.0006
2228.00,0.0006
2227.00,0.0006
2226.00,0.0005
2225.00,0.0004
2224.00,0.0003
2223.00,0.0003
2222.00,0.0004
2221.00,0.0003
2220.00,0.0002
2219.00,-0.0000
2218.00,-0.0001
2217.00,-0.0000
2216.00,0.0001
2215.00,0.0002
2214.00,0.0002
2213.00,0.0003
2212.00,0.0005
2211.00,0.0007
2210.00,0.0008
2209.00,0.0008
2208.00,0.0007
2207.00,0.0006
2206.00,0.0005
2205.00,0.0005
2204.00,0.0004
2203.00,0.0003
2202.00,0.0003
2201.00,0.0004
2200.00,0.0005
2199.00,0.0007
2198.00,0.0007
2197.00,0.0006
2196.00,0.0004
2195.00,0.0001
2194.00,0.0000
2193.00,0.0001
2192.00,0.0003
2191.00,0.0005
2190.00,0.0006
2189.00,0.0007
2188.00,0.0007
2187.00,0.0009
2186.00,0.0010
2185.00,0.0010
2184.00,0.0009
2183.00,0.0005
2182.00,0.0001
2181.00,-0.0001
2180.00,-0.0001
2179.00,0.0000
2178.00,0.0002
2177.00,0.0002
2176.00,0.0000
2175.00,-0.0003
2174.00,-0.0004
2173.00,-0.0003
2172.00,-0.0000
2171.00,0.0003
2170.00,0.0005
2169.00,0.0009
2168.00,0.0012
2167.00,0.0015
2166.00,0.0016
2165.00,0.0017
2164.00,0.0017
2163.00,0.0018
2162.00,0.0019
2161.00,0.0015
2160.00,0.0005
2159.00,-0.0010
2158.00,-0.0022
2157.00,-0.0028
2156.00,-0.0028
2155.00,-0.0025
2154.00,-0.0022
2153.00,-0.0021
2152.00,-0.0021
2151.00,-0.0021
2150.00,-0.0020
2149.00,-0.0017
2148.00,-0.0015
2147.00,-0.0013
2146.00,-0.0013
2145.00,-0.0012
2144.00,-0.0011
2143.00,-0.0010
2142.00,-0.0010
2141.00,-0.0009
2140.00,-0.0009
2139.00,-0.0009
2138.00,-0.0010
2137.00,-0.0012
2136.00,-0.0015
2135.00,-0.0017
2134.00,-0.0018
2133.00,-0.0018
2132.00,-0.0017
2131.00,-0.0016
2130.00,-0.0014
2129.00,-0.0013
2128.00,-0.0011
2127.00,-0.0010
2126.00,-0.0009
2125.00,-0.0008
2124.00,-0.0007
2123.00,-0.0007
2122.00,-0.0007
2121.00,-0.0007
2120.00,-0.0006
2119.00,-0.0005
2118.00,-0.0003
2117.00,-0.0001
2116.00,0.0001
2115.00,0.0002
2114.00,0.0002
2113.00,0.0002
2112.00,0.0002
2111.00,0.0002
2110.00,0.0002
2109.00,0.0002
2108.00,0.0001
2107.00,0.0000
2106.00,0.0000
2105.00,0.0001
2104.00,0.0003
2103.00,0.0004
2102.00,0.0004
2101.00,0.0005
2100.00,0.0005
2099.00,0.0004
2098.00,0.0002
2097.00,-0.0000
2096.00,-0.0003
2095.00,-0.0005
2094.00,-0.0006
2093.00,-0.0005
2092.00,-0.0004
2091.00,-0.0003
2090.00,-0.0002
2089.00,-0.0002
2088.00,-0.0002
2087.00,-0.0001
2086.00,-0.0001
2085.00,0.0000
2084.00,0.0001
2083.00,0.0002
2082.00,0.0001
2081.00,-0.0001
2080.00,-0.0002
2079.00,-0.0003
2078.00,-0.0002
2077.00,-0.0001
2076.00,-0.0001
2075.00,-0.0001
2074.00,-0.0001
2073.00,-0.0001
2072.00,-0.0001
2071.00,-0.0001
2070.00,-0.0001
2069.00,-0.0001
2068.00,-0.0001
2067.00,-0.0001
2066.00,-0.0001
2065.00,-0.0001
2064.00,-0.0001
2063.00,-0.0002
2062.00,-0.0004
2061.00,-0.0004
2060.00,-0.0004
2059.00,-0.0003
2058.00,-0.0003
2057.00,-0.0002
2056.00,-0.0003
2055.00,-0.0003
2054.00,-0.0001
2053.00,0.0004
2052.00,0.0011
2051.00,0.0016
2050.00,0.0017
2049.00,0.0013
2048.00,0.0008
2047.00,0.0003
2046.00,0.0001
2045.00,0.0000
2044.00,0.0000
2043.00,-0.0000
2042.00,-0.0002
2041.00,-0.0003
2040.00,-0.0002
2039.00,0.0000
2038.00,0.0003
2037.00,0.0004
2036.00,0.0003
2035.00,0.0002
2034.00,-0.0002
2033.00,-0.0005
2032.00,-0.0008
2031.00,-0.0010
2030.00,-0.0011
2029.00,-0.0012
2028.00,-0.0014
2027.00,-0.0015
2026.00,-0.0015
2025.00,-0.0012
2024.00,-0.0009
2023.00,-0.0006
2022.00,-0.0005
2021.00,-0.0005
2020.00,-0.0007
2019.00,-0.0009
2018.00,-0.0012
2017.00,-0.0014
2016.00,-0.0013
2015.00,-0.0011
2014.00,-0.0009
2013.00,-0.0006
2012.00,-0.0005
2011.00,-0.0004
2010.00,-0.0006
2009.00,-0.0010
2008.00,-0.0016
2007.00,-0.0023
2006.00,-0.0027
2005.00,-0.0029
2004.00,-0.0027
2003.00,-0.0023
2002.00,-0.0019
2001.00,-0.0015
2000.00,-0.0012
1999.00,-0.0011
1998.00,-0.0011
1997.00,-0.0013
1996.00,-0.0013
1995.00,-0.0013
1994.00,-0.0011
1993.00,-0.0010
1992.00,-0.0009
1991.00,-0.0009
1990.00,-0.0010
1989.00,-0.0010
1988.00,-0.0010
1987.00,-0.0010
1986.00,-0.0009
1985.00,-0.0007
1984.00,-0.0003
1983.00,0.0002
1982.00,0.0008
1981.00,0.0012
1980.00,0.0012
1979.00,0.0007
1978.00,-0.0002
1977.00,-0.0010
1976.00,-0.0016
1975.00,-0.0018
1974.00,-0.0018
1973.00,-0.0017
1972.00,-0.0015
1971.00,-0.0015
1970.00,-0.0015
1969.00,-0.0017
1968.00,-0.0020
1967.00,-0.0023
1966.00,-0.0024
1965.00,-0.0022
1964.00,-0.0020
1963.00,-0.0018
1962.00,-0.0017
1961.00,-0.0016
1960.00,-0.0017
1959.00,-0.0018
1958.00,-0.0020
1957.00,-0.0021
1956.00,-0.0021
1955.00,-0.0021
1954.00,-0.0020
1953.00,-0.0018
1952.00,-0.0016
1951.00,-0.0014
1950.00,-0.0013
1949.00,-0.0013
1948.00,-0.0014
1947.00,-0.0016
1946.00,-0.0018
1945.00,-0.0019
1944.00,-0.0020
1943.00,-0.0019
1942.00,-0.0018
1941.00,-0.0017
1940.00,-0.0016
1939.00,-0.0015
1938.00,-0.0015
1937.00,-0.0015
1936.00,-0.0014
1935.00,-0.0013
1934.00,-0.0012
1933.00,-0.0010
1932.00,-0.0008
1931.00,-0.0007
1930.00,-0.0007
1929.00,-0.0008
1928.00,-0.0009
1927.00,-0.0010
1926.00,-0.0011
1925.00,-0.0013
1924.00,-0.0013
1923.00,-0.0013
1922.00,-0.0011
1921.00,-0.0009
1920.00,-0.0008
1919.00,-0.0006
1918.00,-0.0005
1917.00,-0.0005
1916.00,-0.0005
1915.00,-0.0006
1914.00,-0.0007
1913.00,-0.0008
1912.00,-0.0007
1911.00,-0.0006
1910.00,-0.0005
1909.00,-0.0004
1908.00,-0.0004
1907.00,-0.0003
1906.00,-0.0003
1905.00,-0.0003
1904.00,-0.0003
1903.00,-0.0003
1902.00,-0.0003
1901.00,-0.0003
1900.00,-0.0002
1899.00,-0.0002
1898.00,-0.0001
1897.00,-0.0001
1896.00,-0.0001
1895.00,-0.0002
1894.00,-0.0002
1893.00,-0.0003
1892.00,-0.0004
1891.00,-0.0004
1890.00,-0.0004
1889.00,-0.0003
1888.00,-0.0002
1887.00,-0.0002
1886.00,-0.0001
1885.00,-0.0001
1884.00,-0.0001
1883.00,-0.0002
1882.00,-0.0002
1881.00,-0.0002
1880.00,-0.0002
1879.00,-0.0001
1878.00,-0.0001
1877.00,-0.0001
1876.00,-0.0001
1875.00,-0.0000
1874.00,-0.0000
1873.00,-0.0001
1872.00,-0.0001
1871.00,-0.0002
1870.00,-0.0003
1869.00,-0.0003
1868.00,-0.0002
1867.00,-0.0001
1866.00,-0.0001
1865.00,-0.0001
1864.00,-0.0001
1863.00,-0.0001
1862.00,-0.0002
1861.00,-0.0002
1860.00,-0.0003
1859.00,-0.0003
1858.00,-0.0002
1857.00,-0.0002
1856.00,-0.0001
1855.00,-0.0001
1854.00,-0.0001
1853.00,-0.0001
1852.00,-0.0001
1851.00,-0.0000
1850.00,-0.0001
1849.00,-0.0001
1848.00,-0.0001
1847.00,-0.0000
1846.00,0.0000
1845.00,0.0001
1844.00,0.0002
1843.00,0.0002
1842.00,0.0001
1841.00,0.0000
1840.00,0.0000
1839.00,0.0000
1838.00,0.0001
1837.00,0.0001
1836.00,0.0002
1835.00,0.0002
1834.00,0.0002
1833.00,0.0001
1832.00,0.0001
1831.00,0.0001
1830.00,0.0001
1829.00,0.0002
1828.00,0.0002
1827.00,0.0003
1826.00,0.0002
1825.00,0.0003
1824.00,0.0003
1823.00,0.0003
1822.00,0.0003
1821.00,0.0002
1820.00,0.0001
1819.00,-0.0000
1818.00,-0.0002
1817.00,-0.0002
1816.00,-0.0002
1815.00,-0.0002
1814.00,-0.0001
1813.00,-0.0000
1812.00,-0.0000
1811.00,0.0000
1810.00,0.0000
1809.00,0.0001
1808.00,0.0001
1807.00,0.0001
1806.00,0.0002
1805.00,0.0003
1804.00,0.0004
1803.00,0.0005
1802.00,0.0005
1801.00,0.0005
1800.00,0.0004
1799.00,0.0004
1798.00,0.0004
1797.00,0.0004
1796.00,0.0005
1795.00,0.0005
1794.00,0.0006
1793.00,0.0005
1792.00,0.0005
1791.00,0.0005
1790.00,0.0005
1789.00,0.0005
1788.00,0.0005
1787.00,0.0005
1786.00,0.0005
1785.00,0.0005
1784.00,0.0006
1783.00,0.0006
1782.00,0.0007
1781.00,0.0007
1780.00,0.0007
1779.00,0.0007
1778.00,0.0007
1777.00,0.0007
1776.00,0.0007
1775.00,0.0007
1774.00,0.0007
1773.00,0.0007
1772.00,0.0007
1771.00,0.0008
1770.00,0.0008
1769.00,0.0008
1768.00,0.0008
1767.00,0.0008
1766.00,0.0008
1765.00,0.0008
1764.00,0.0008
1763.00,0.0008
1762.00,0.0008
1761.00,0.0009
1760.00,0.0009
1759.00,0.0010
1758.00,0.0010
1757.00,0.0011
1756.00,0.0011
1755.00,0.0011
1754.00,0.0012
1753.00,0.0012
1752.00,0.0012
1751.00,0.0013
1750.00,0.0013
1749.00,0.0014
1748.00,0.0014
1747.00,0.0014
1746.00,0.0014
1745.00,0.0014
1744.00,0.0014
1743.00,0.0015
1742.00,0.0015
1741.00,0.0016
1740.00,0.0017
1739.00,0.0017
1738.00,0.0017
1737.00,0.0017
1736.00,0.0017
1735.00,0.0017
1734.00,0.0017
1733.00,0.0017
1732.00,0.0017
1731.00,0.0017
1730.00,0.0018
1729.00,0.0018
1728.00,0.0018
1727.00,0.0018
1726.00,0.0018
1725.00,0.0019
1724.00,0.0019
1723.00,0.0019
1722.00,0.0020
1721.00,0.0020
1720.00,0.0020
1719.00,0.0020
1718.00,0.0020
1717.00,0.0020
1716.00,0.0020
1715.00,0.0019
1714.00,0.0019
1713.00,0.0019
1712.00,0.0019
1711.00,0.0018
1710.00,0.0018
1709.00,0.0018
1708.00,0.0018
1707.00,0.0019
1706.00,0.0019
1705.00,0.0020
1704.00,0.0020
1703.00,0.0020
1702.00,0.0020
1701.00,0.0020
1700.00,0.0020
1699.00,0.0020
1698.00,0.0020
1697.00,0.0021
1696.00,0.0021
1695.00,0.0022
1694.00,0.0022
1693.00,0.0023
1692.00,0.0023
1691.00,0.0023
1690.00,0.0023
1689.00,0.0023
1688.00,0.0023
1687.00,0.0023
1686.00,0.0022
1685.00,0.0022
1684.00,0.0022
1683.00,0.0022
1682.00,0.0023
1681.00,0.0024
1680.00,0.0024
1679.00,0.0025
1678.00,0.0025
1677.00,0.0026
1676.00,0.0026
1675.00,0.0026
1674.00,0.0026
1673.00,0.0026
1672.00,0.0026
1671.00,0.0026
1670.00,0.0027
1669.00,0.0028
1668.00,0.0028
1667.00,0.0028
1666.00,0.0028
1665.00,0.0028
1664.00,0.0028
1663.00,0.0029
1662.00,0.0029
1661.00,0.0029
1660.00,0.0030
1659.00,0.0030
1658.00,0.0030
1657.00,0.0031
1656.00,0.0032
1655.00,0.0032
1654.00,0.0033
1653.00,0.0033
1652.00,0.0034
1651.00,0.0035
1650.00,0.0035
1649.00,0.0035
1648.00,0.0036
1647.00,0.0036
1646.00,0.0037
1645.00,0.0037
1644.00,0.0037
1643.00,0.0038
1642.00,0.0038
1641.00,0.0039
1640.00,0.0040
1639.00,0.0041
1638.00,0.0043
1637.00,0.0044
1636.00,0.0044
1635.00,0.0043
1634.00,0.0042
1633.00,0.0041
1632.00,0.0040
1631.00,0.0039
1630.00,0.0039
1629.00,0.0038
1628.00,0.0038
1627.00,0.0038
1626.00,0.0038
1625.00,0.0038
1624.00,0.0038
1623.00,0.0038
1622.00,0.0037
1621.00,0.0036
1620.00,0.0036
1619.00,0.0035
1618.00,0.0035
1617.00,0.0035
1616.00,0.0035
1615.00,0.0035
1614.00,0.0035
1613.00,0.0035
1612.00,0.0036
1611.00,0.0036
1610.00,0.0036
1609.00,0.0036
1608.00,0.0036
1607.00,0.0036
1606.00,0.0036
1605.00,0.0037
1604.00,0.0037
1603.00,0.0037
1602.00,0.0037
1601.00,0.0036
1600.00,0.0036
1599.00,0.0035
1598.00,0.0035
1597.00,0.0034
1596.00,0.0034
1595.00,0.0035
1594.00,0.0035
1593.00,0.0035
1592.00,0.0035
1591.00,0.0035
1590.00,0.0035
1589.00,0.0035
1588.00,0.0036
1587.00,0.0036
1586.00,0.0037
1585.00,0.0037
1584.00,0.0038
1583.00,0.0038
1582.00,0.0039
1581.00,0.0039
1580.00,0.0040
1579.00,0.0040
1578.00,0.0040
1577.00,0.0040
1576.00,0.0041
1575.00,0.0041
1574.00,0.0041
1573.00,0.0041
1572.00,0.0042
1571.00,0.0042
1570.00,0.0042
1569.00,0.0042
1568.00,0.0042
1567.00,0.0042
1566.00,0.0042
1565.00,0.0042
1564.00,0.0043
1563.00,0.0042
1562.00,0.0042
1561.00,0.0043
1560.00,0.0043
1559.00,0.0043
1558.00,0.0043
1557.00,0.0044
1556.00,0.0045
1555.00,0.0045
1554.00,0.0045
1553.00,0.0045
1552.00,0.0046
1551.00,0.0046
1550.00,0.0047
1549.00,0.0048
1548.00,0.0049
1547.00,0.0049
1546.00,0.0049
1545.00,0.0050
1544.00,0.0050
1543.00,0.0051
1542.00,0.0051
1541.00,0.0052
1540.00,0.0052
1539.00,0.0050
1538.00,0.0049
1537.00,0.0048
1536.00,0.0048
1535.00,0.0048
1534.00,0.0047
1533.00,0.0047
1532.00,0.0047
1531.00,0.0047
1530.00,0.0046
1529.00,0.0047
1528.00,0.0047
1527.00,0.0047
1526.00,0.0047
1525.00,0.0048
1524.00,0.0050
1523.00,0.0050
1522.00,0.0051
1521.00,0.0052
1520.00,0.0052
1519.00,0.0052
1518.00,0.0052
1517.00,0.0052
1516.00,0.0053
1515.00,0.0053
1514.00,0.0054
1513.00,0.0054
1512.00,0.0055
1511.00,0.0056
1510.00,0.0056
1509.00,0.0057
1508.00,0.0059
1507.00,0.0060
1506.00,0.0061
1505.00,0.0063
1504.00,0.0064
1503.00,0.0066
1502.00,0.0067
1501.00,0.0070
1500.00,0.0073
1499.00,0.0075
1498.00,0.0077
1497.00,0.0080
1496.00,0.0083
1495.00,0.0085
1494.00,0.0087
1493.00,0.0091
1492.00,0.0095
1491.00,0.0098
1490.00,0.0101
1489.00,0.0105
1488.00,0.0110
1487.00,0.0115
1486.00,0.0120
1485.00,0.0126
1484.00,0.0132
1483.00,0.0139
1482.00,0.0148
1481.00,0.0158
1480.00,0.0170
1479.00,0.0182
1478.00,0.0197
1477.00,0.0218
1476.00,0.0243
1475.00,0.0273
1474.00,0.0312
1473.00,0.0368
1472.00,0.0433
1471.00,0.0497
1470.00,0.0558
1469.00,0.0623
1468.00,0.0693
1467.00,0.0770
1466.00,0.0856
1465.00,0.0947
1464.00,0.1028
1463.00,0.1085
1462.00,0.1122
1461.00,0.1149
1460.00,0.1168
1459.00,0.1183
1458.00,0.1197
1457.00,0.1210
1456.00,0.1215
1455.00,0.1212
1454.00,0.1204
1453.00,0.1191
1452.00,0.1169
1451.00,0.1136
1450.00,0.1089
1449.00,0.1023
1448.00,0.0936
1447.00,0.0840
1446.00,0.0751
1445.00,0.0673
1444.00,0.0606
1443.00,0.0549
1442.00,0.0506
1441.00,0.0475
1440.00,0.0455
1439.00,0.0445
1438.00,0.0441
1437.00,0.0438
1436.00,0.0425
1435.00,0.0400
1434.00,0.0366
1433.00,0.0326
1432.00,0.0284
1431.00,0.0247
1430.00,0.0218
1429.00,0.0195
1428.00,0.0179
1427.00,0.0169
1426.00,0.0161
1425.00,0.0155
1424.00,0.0150
1423.00,0.0146
1422.00,0.0144
1421.00,0.0141
1420.00,0.0137
1419.00,0.0134
1418.00,0.0131
1417.00,0.0128
1416.00,0.0126
1415.00,0.0124
1414.00,0.0123
1413.00,0.0121
1412.00,0.0119
1411.00,0.0119
1410.00,0.0118
1409.00,0.0117
1408.00,0.0117
1407.00,0.0117
1406.00,0.0117
1405.00,0.0117
1404.00,0.0116
1403.00,0.0117
1402.00,0.0118
1401.00,0.0118
1400.00,0.0119
1399.00,0.0121
1398.00,0.0124
1397.00,0.0126
1396.00,0.0129
1395.00,0.0134
1394.00,0.0139
1393.00,0.0144
1392.00,0.0149
1391.00,0.0155
1390.00,0.0165
1389.00,0.0178
1388.00,0.0199
1387.00,0.0229
1386.00,0.0272
1385.00,0.0328
1384.00,0.0405
1383.00,0.0511
1382.00,0.0652
1381.00,0.0831
1380.00,0.1047
1379.00,0.1290
1378.00,0.1521
1377.00,0.1686
1376.00,0.1734
1375.00,0.1642
1374.00,0.1435
1373.00,0.1189
1372.00,0.0964
1371.00,0.0778
1370.00,0.0631
1369.00,0.0518
1368.00,0.0440
1367.00,0.0391
1366.00,0.0364
1365.00,0.0352
1364.00,0.0353
1363.00,0.0364
1362.00,0.0383
1361.00,0.0402
1360.00,0.0417
1359.00,0.0421
1358.00,0.0411
1357.00,0.0387
1356.00,0.0354
1355.00,0.0317
1354.00,0.0282
1353.00,0.0252
1352.00,0.0227
1351.00,0.0207
1350.00,0.0190
1349.00,0.0176
1348.00,0.0165
1347.00,0.0155
1346.00,0.0146
1345.00,0.0139
1344.00,0.0133
1343.00,0.0128
1342.00,0.0123
1341.00,0.0120
1340.00,0.0117
1339.00,0.0116
1338.00,0.0115
1337.00,0.0114
1336.00,0.0114
1335.00,0.0116
1334.00,0.0118
1333.00,0.0121
1332.00,0.0125
1331.00,0.0128
1330.00,0.0129
1329.00,0.0128
1328.00,0.0125
1327.00,0.0121
1326.00,0.0116
1325.00,0.0111
1324.00,0.0106
1323.00,0.0102
1322.00,0.0098
1321.00,0.0095
1320.00,0.0092
1319.00,0.0091
1318.00,0.0089
1317.00,0.0088
1316.00,0.0087
1315.00,0.0087
1314.00,0.0086
1313.00,0.0087
1312.00,0.0088
1311.00,0.0091
1310.00,0.0096
1309.00,0.0104
1308.00,0.0115
1307.00,0.0129
1306.00,0.0142
1305.00,0.0151
1304.00,0.0153
1303.00,0.0148
1302.00,0.0140
1301.00,0.0132
1300.00,0.0126
1299.00,0.0124
1298.00,0.0123
1297.00,0.0122
1296.00,0.0120
1295.00,0.0118
1294.00,0.0114
1293.00,0.0110
1292.00,0.0105
1291.00,0.0101
1290.00,0.0097
1289.00,0.0093
1288.00,0.0090
1287.00,0.0088
1286.00,0.0087
1285.00,0.0085
1284.00,0.0084
1283.00,0.0082
1282.00,0.0081
1281.00,0.0080
1280.00,0.0079
1279.00,0.0078
1278.00,0.0078
1277.00,0.0077
1276.00,0.0077
1275.00,0.0077
1274.00,0.0078
1273.00,0.0079
1272.00,0.0080
1271.00,0.0082
1270.00,0.0084
1269.00,0.0086
1268.00,0.0088
1267.00,0.0091
1266.00,0.0094
1265.00,0.0098
1264.00,0.0101
1263.00,0.0105
1262.00,0.0109
1261.00,0.0114
1260.00,0.0120
1259.00,0.0129
1258.00,0.0138
1257.00,0.0145
1256.00,0.0148
1255.00,0.0145
1254.00,0.0138
1253.00,0.0127
1252.00,0.0115
1251.00,0.0106
1250.00,0.0099
1249.00,0.0093
1248.00,0.0090
1247.00,0.0087
1246.00,0.0084
1245.00,0.0082
1244.00,0.0081
1243.00,0.0079
1242.00,0.0078
1241.00,0.0077
1240.00,0.0076
1239.00,0.0075
1238.00,0.0075
1237.00,0.0074
1236.00,0.0074
1235.00,0.0074
1234.00,0.0074
1233.00,0.0075
1232.00,0.0075
1231.00,0.0075
1230.00,0.0076
1229.00,0.0076
1228.00,0.0076
1227.00,0.0077
1226.00,0.0079
1225.00,0.0082
1224.00,0.0084
1223.00,0.0087
1222.00,0.0090
1221.00,0.0092
1220.00,0.0093
1219.00,0.0093
1218.00,0.0092
1217.00,0.0090
1216.00,0.0087
1215.00,0.0084
1214.00,0.0082
1213.00,0.0080
1212.00,0.0078
1211.00,0.0077
1210.00,0.0076
1209.00,0.0075
1208.00,0.0074
1207.00,0.0074
1206.00,0.0074
1205.00,0.0073
1204.00,0.0073
1203.00,0.0072
1202.00,0.0071
1201.00,0.0071
1200.00,0.0071
1199.00,0.0071
1198.00,0.0071
1197.00,0.0071
1196.00,0.0071
1195.00,0.0072
1194.00,0.0073
1193.00,0.0073
1192.00,0.0073
1191.00,0.0073
1190.00,0.0073
1189.00,0.0073
1188.00,0.0074
1187.00,0.0075
1186.00,0.0076
1185.00,0.0078
1184.00,0.0079
1183.00,0.0081
1182.00,0.0084
1181.00,0.0088
1180.00,0.0093
1179.00,0.0099
1178.00,0.0107
1177.00,0.0118
1176.00,0.0131
1175.00,0.0149
1174.00,0.0173
1173.00,0.0203
1172.00,0.0240
1171.00,0.0281
1170.00,0.0322
1169.00,0.0355
1168.00,0.0375
1167.00,0.0379
1166.00,0.0368
1165.00,0.0347
1164.00,0.0322
1163.00,0.0298
1162.00,0.0276
1161.00,0.0258
1160.00,0.0244
1159.00,0.0233
1158.00,0.0226
1157.00,0.0220
1156.00,0.0216
1155.00,0.0212
1154.00,0.0210
1153.00,0.0206
1152.00,0.0201
1151.00,0.0194
1150.00,0.0185
1149.00,0.0175
1148.00,0.0165
1147.00,0.0155
1146.00,0.0145
1145.00,0.0136
1144.00,0.0128
1143.00,0.0121
1142.00,0.0115
1141.00,0.0108
1140.00,0.0102
1139.00,0.0097
1138.00,0.0093
1137.00,0.0089
1136.00,0.0086
1135.00,0.0083
1134.00,0.0081
1133.00,0.0079
1132.00,0.0079
1131.00,0.0079
1130.00,0.0079
1129.00,0.0079
1128.00,0.0079
1127.00,0.0079
1126.00,0.0079
1125.00,0.0079
1124.00,0.0078
1123.00,0.0078
1122.00,0.0079
1121.00,0.0080
1120.00,0.0081
1119.00,0.0083
1118.00,0.0084
1117.00,0.0084
1116.00,0.0085
1115.00,0.0086
1114.00,0.0088
1113.00,0.0090
1112.00,0.0092
1111.00,0.0094
1110.00,0.0097
1109.00,0.0100
1108.00,0.0104
1107.00,0.0109
1106.00,0.0114
1105.00,0.0120
1104.00,0.0126
1103.00,0.0128
1102.00,0.0128
1101.00,0.0125
1100.00,0.0120
1099.00,0.0114
1098.00,0.0109
1097.00,0.0104
1096.00,0.0101
1095.00,0.0098
1094.00,0.0097
1093.00,0.0096
1092.00,0.0095
1091.00,0.0094
1090.00,0.0092
1089.00,0.0091
1088.00,0.0089
1087.00,0.0088
1086.00,0.0087
1085.00,0.0087
1084.00,0.0086
1083.00,0.0087
1082.00,0.0087
1081.00,0.0088
1080.00,0.0088
1079.00,0.0087
1078.00,0.0086
1077.00,0.0085
1076.00,0.0085
1075.00,0.0085
1074.00,0.0085
1073.00,0.0085
1072.00,0.0084
1071.00,0.0083
1070.00,0.0082
1069.00,0.0082
1068.00,0.0082
1067.00,0.0082
1066.00,0.0082
1065.00,0.0083
1064.00,0.0084
1063.00,0.0084
1062.00,0.0084
1061.00,0.0084
1060.00,0.0086
1059.00,0.0087
1058.00,0.0090
1057.00,0.0092
1056.00,0.0094
1055.00,0.0096
1054.00,0.0097
1053.00,0.0099
1052.00,0.0101
1051.00,0.0105
1050.00,0.0110
1049.00,0.0115
1048.00,0.0120
1047.00,0.0125
1046.00,0.0128
1045.00,0.0130
1044.00,0.0130
1043.00,0.0129
1042.00,0.0127
1041.00,0.0124
1040.00,0.0121
1039.00,0.0119
1038.00,0.0118
1037.00,0.0116
1036.00,0.0115
1035.00,0.0113
1034.00,0.0112
1033.00,0.0111
1032.00,0.0110
1031.00,0.0110
1030.00,0.0110
1029.00,0.0111
1028.00,0.0112
1027.00,0.0114
1026.00,0.0116
1025.00,0.0118
1024.00,0.0121
1023.00,0.0123
1022.00,0.0126
1021.00,0.0128
1020.00,0.0130
1019.00,0.0132
1018.00,0.0133
1017.00,0.0133
1016.00,0.0133
1015.00,0.0132
1014.00,0.0132
1013.00,0.0132
1012.00,0.0133
1011.00,0.0134
1010.00,0.0136
1009.00,0.0139
1008.00,0.0143
1007.00,0.0149
1006.00,0.0158
1005.00,0.0171
1004.00,0.0190
1003.00,0.0218
1002.00,0.0256
1001.00,0.0305
1000.00,0.0358
999.00,0.0404
998.00,0.0429
997.00,0.0424
996.00,0.0390
995.00,0.0339
994.00,0.0286
993.00,0.0239
992.00,0.0203
991.00,0.0176
990.00,0.0157
989.00,0.0143
988.00,0.0135
987.00,0.0130
986.00,0.0129
985.00,0.0131
984.00,0.0135
983.00,0.0143
982.00,0.0154
981.00,0.0170
980.00,0.0194
979.00,0.0226
978.00,0.0267
977.00,0.0317
976.00,0.0373
975.00,0.0428
974.00,0.0472
973.00,0.0492
972.00,0.0480
971.00,0.0437
970.00,0.0376
969.00,0.0311
968.00,0.0254
967.00,0.0210
966.00,0.0178
965.00,0.0157
964.00,0.0141
963.00,0.0130
962.00,0.0121
961.00,0.0115
960.00,0.0110
959.00,0.0105
958.00,0.0102
957.00,0.0099
956.00,0.0096
955.00,0.0093
954.00,0.0091
953.00,0.0089
952.00,0.0088
951.00,0.0087
950.00,0.0086
949.00,0.0085
948.00,0.0084
947.00,0.0084
946.00,0.0085
945.00,0.0087
944.00,0.0090
943.00,0.0093
942.00,0.0096
941.00,0.0097
940.00,0.0097
939.00,0.0094
938.00,0.0090
937.00,0.0085
936.00,0.0079
935.00,0.0075
934.00,0.0071
933.00,0.0068
932.00,0.0066
931.00,0.0065
930.00,0.0064
929.00,0.0063
928.00,0.0062
927.00,0.0061
926.00,0.0061
925.00,0.0060
924.00,0.0060
923.00,0.0060
922.00,0.0061
921.00,0.0061
920.00,0.0061
919.00,0.0061
918.00,0.0061
917.00,0.0062
916.00,0.0062
915.00,0.0063
914.00,0.0064
913.00,0.0065
912.00,0.0065
911.00,0.0066
910.00,0.0067
909.00,0.0069
908.00,0.0072
907.00,0.0077
906.00,0.0083
905.00,0.0092
904.00,0.0103
903.00,0.0118
902.00,0.0135
901.00,0.0151
900.00,0.0161
899.00,0.0164
898.00,0.0157
897.00,0.0144
896.00,0.0128
895.00,0.0113
894.00,0.0101
893.00,0.0092
892.00,0.0085
891.00,0.0080
890.00,0.0076
889.00,0.0074
888.00,0.0072
887.00,0.0070
886.00,0.0069
885.00,0.0069
884.00,0.0069
883.00,0.0069
882.00,0.0070
881.00,0.0071
880.00,0.0073
879.00,0.0075
878.00,0.0077
877.00,0.0079
876.00,0.0081
875.00,0.0082
874.00,0.0084
873.00,0.0084
872.00,0.0084
871.00,0.0082
870.00,0.0080
869.00,0.0078
868.00,0.0077
867.00,0.0077
866.00,0.0079
865.00,0.0080
864.00,0.0081
863.00,0.0080
862.00,0.0079
861.00,0.0080
860.00,0.0081
859.00,0.0083
858.00,0.0086
857.00,0.0088
856.00,0.0091
855.00,0.0093
854.00,0.0096
853.00,0.0099
852.00,0.0103
851.00,0.0108
850.00,0.0115
849.00,0.0123
848.00,0.0133
847.00,0.0148
846.00,0.0171
845.00,0.0210
844.00,0.0267
843.00,0.0338
842.00,0.0400
841.00,0.0426
840.00,0.0403
839.00,0.0343
838.00,0.0272
837.00,0.0213
836.00,0.0173
835.00,0.0149
834.00,0.0135
833.00,0.0126
832.00,0.0121
831.00,0.0117
830.00,0.0114
829.00,0.0111
828.00,0.0108
827.00,0.0105
826.00,0.0104
825.00,0.0104
824.00,0.0105
823.00,0.0106
822.00,0.0107
821.00,0.0108
820.00,0.0109
819.00,0.0110
818.00,0.0113
817.00,0.0116
816.00,0.0122
815.00,0.0132
814.00,0.0146
813.00,0.0164
812.00,0.0182
811.00,0.0198
810.00,0.0208
809.00,0.0212
808.00,0.0208
807.00,0.0199
806.00,0.0184
805.00,0.0169
804.00,0.0154
803.00,0.0141
802.00,0.0132
801.00,0.0125
800.00,0.0121
799.00,0.0117
798.00,0.0113
797.00,0.0108
796.00,0.0104
795.00,0.0101
794.00,0.0098
793.00,0.0094
792.00,0.0089
791.00,0.0085
790.00,0.0081
789.00,0.0077
788.00,0.0075
787.00,0.0073
786.00,0.0071
785.00,0.0069
784.00,0.0067
783.00,0.0066
782.00,0.0064
781.00,0.0063
780.00,0.0061
779.00,0.0061
778.00,0.0060
777.00,0.0060
776.00,0.0060
775.00,0.0061
774.00,0.0063
773.00,0.0065
772.00,0.0066
771.00,0.0066
770.00,0.0064
769.00,0.0063
768.00,0.0062
767.00,0.0061
766.00,0.0060
765.00,0.0060
764.00,0.0060
763.00,0.0061
762.00,0.0063
761.00,0.0064
760.00,0.0065
759.00,0.0065
758.00,0.0065
757.00,0.0064
756.00,0.0064
755.00,0.0064
754.00,0.0065
753.00,0.0067
752.00,0.0069
751.00,0.0071
750.00,0.0072
749.00,0.0072
748.00,0.0072
747.00,0.0073
746.00,0.0076
745.00,0.0079
744.00,0.0081
743.00,0.0083
742.00,0.0085
741.00,0.0087
740.00,0.0090
739.00,0.0093
738.00,0.0097
737.00,0.0102
736.00,0.0106
735.00,0.0111
734.00,0.0115
733.00,0.0120
732.00,0.0125
731.00,0.0131
730.00,0.0137
729.00,0.0141
728.00,0.0143
727.00,0.0144
726.00,0.0146
725.00,0.0150
724.00,0.0155
723.00,0.0160
722.00,0.0166
721.00,0.0168
720.00,0.0166
719.00,0.0160
718.00,0.0150
717.00,0.0139
716.00,0.0129
715.00,0.0121
714.00,0.0115
713.00,0.0110
712.00,0.0107
711.00,0.0105
710.00,0.0104
709.00,0.0102
708.00,0.0100
707.00,0.0097
706.00,0.0095
705.00,0.0093
704.00,0.0092
703.00,0.0092
702.00,0.0092
701.00,0.0092
700.00,0.0091
699.00,0.0090
698.00,0.0090
697.00,0.0089
696.00,0.0088
695.00,0.0088
694.00,0.0088
693.00,0.0090
692.00,0.0091
691.00,0.0092
690.00,0.0092
689.00,0.0092
688.00,0.0092
687.00,0.0092
686.00,0.0091
685.00,0.0091
684.00,0.0089
683.00,0.0088
682.00,0.0087
681.00,0.0086
680.00,0.0085
679.00,0.0085
678.00,0.0085
677.00,0.0088
676.00,0.0090
675.00,0.0091
674.00,0.0091
673.00,0.0091
672.00,0.0092
671.00,0.0093
670.00,0.0094
669.00,0.0094
668.00,0.0094
667.00,0.0094
666.00,0.0091
665.00,0.0089
664.00,0.0087
663.00,0.0085
662.00,0.0085
661.00,0.0084
660.00,0.0083
659.00,0.0082
658.00,0.0080
657.00,0.0079
656.00,0.0077
655.00,0.0076
654.00,0.0076
653.00,0.0078
652.00,0.0079
651.00,0.0079
650.00,0.0077
649.00,0.0074
648.00,0.0072
647.00,0.0072
646.00,0.0073
645.00,0.0074
644.00,0.0074
643.00,0.0074
642.00,0.0073
641.00,0.0074
640.00,0.0075
639.00,0.0076
638.00,0.0076
637.00,0.0076
636.00,0.0076
635.00,0.0076
634.00,0.0076
633.00,0.0076
632.00,0.0077
631.00,0.0078
630.00,0.0079
629.00,0.0079
628.00,0.0079
627.00,0.0079
626.00,0.0079
625.00,0.0081
624.00,0.0082
623.00,0.0083
622.00,0.0082
621.00,0.0080
620.00,0.0079
619.00,0.0080
618.00,0.0080
617.00,0.0080
616.00,0.0079
615.00,0.0077
614.00,0.0077
613.00,0.0078
612.00,0.0079
611.00,0.0080
610.00,0.0079
609.00,0.0078
608.00,0.0076
607.00,0.0076
606.00,0.0075
605.00,0.0076
604.00,0.0077
603.00,0.0080
602.00,0.0083
601.00,0.0083
600.00,0.0082
599.00,0.0080
598.00,0.0080
597.00,0.0080
596.00,0.0080
595.00,0.0080
594.00,0.0080
593.00,0.0080
592.00,0.0080
591.00,0.0078
590.00,0.0075
589.00,0.0072
588.00,0.0071
587.00,0.0072
586.00,0.0074
585.00,0.0076
584.00,0.0077
583.00,0.0078
582.00,0.0079
581.00,0.0079
580.00,0.0079
579.00,0.0078
578.00,0.0078
577.00,0.0078
576.00,0.0077
575.00,0.0077
574.00,0.0078
573.00,0.0080
572.00,0.0082
571.00,0.0085
570.00,0.0087
569.00,0.0088
568.00,0.0088
567.00,0.0087
566.00,0.0088
565.00,0.0088
564.00,0.0087
563.00,0.0086
562.00,0.0085
561.00,0.0084
560.00,0.0083
559.00,0.0083
558.00,0.0084
557.00,0.0085
556.00,0.0087
555.00,0.0090
554.00,0.0093
553.00,0.0093
552.00,0.0090
551.00,0.0087
550.00,0.0084
549.00,0.0084
548.00,0.0085
547.00,0.0084
546.00,0.0084
545.00,0.0087
544.00,0.0093
543.00,0.0101
542.00,0.0107
541.00,0.0110
540.00,0.0110
539.00,0.0107
538.00,0.0104
537.00,0.0102
536.00,0.0102
535.00,0.0103
534.00,0.0107
533.00,0.0112
532.00,0.0114
531.00,0.0110
530.00,0.0103
529.00,0.0096
528.00,0.0095
527.00,0.0098
526.00,0.0102
525.00,0.0103
524.00,0.0102
523.00,0.0100
522.00,0.0097
521.00,0.0093
520.00,0.0089
519.00,0.0086
518.00,0.0085
517.00,0.0084
516.00,0.0082
515.00,0.0079
514.00,0.0078
513.00,0.0079
512.00,0.0080
511.00,0.0083
510.00,0.0085
509.00,0.0084
508.00,0.0079
507.00,0.0075
506.00,0.0077
505.00,0.0086
504.00,0.0097
503.00,0.0104
502.00,0.0103
501.00,0.0098
500.00,0.0092
499.00,0.0088
498.00,0.0084
497.00,0.0081
496.00,0.0079
495.00,0.0080
494.00,0.0085
493.00,0.0090
492.00,0.0092
491.00,0.0088
490.00,0.0083
489.00,0.0081
488.00,0.0081
487.00,0.0082
486.00,0.0082
485.00,0.0082
484.00,0.0083
483.00,0.0086
482.00,0.0090
481.00,0.0098
480.00,0.0106
479.00,0.0114
478.00,0.0121
477.00,0.0128
476.00,0.0133
475.00,0.0135
474.00,0.0134
473.00,0.0135
472.00,0.0139
471.00,0.0141
470.00,0.0141
469.00,0.0141
468.00,0.0146
467.00,0.0155
466.00,0.0164
465.00,0.0166
464.00,0.0165
463.00,0.0165
462.00,0.0172
461.00,0.0184
460.00,0.0198
459.00,0.0205
458.00,0.0202
457.00,0.0195
456.00,0.0190
455.00,0.0184
454.00,0.0173
453.00,0.0157
452.00,0.0145
451.00,0.0141
450.00,0.0143
