Created as New Dataset,Sample 038 By Administrator Date Wednesday, September 03 2025
cm-1,A
4000.00,0.0012
3999.00,0.0011
3998.00,0.0011
3997.00,0.0011
3996.00,0.0011
3995.00,0.0011
3994.00,0.0011
3993.00,0.0011
3992.00,0.0010
3991.00,0.0010
3990.00,0.0010
3989.00,0.0010
3988.00,0.0011
3987.00,0.0011
3986.00,0.0011
3985.00,0.0011
3984.00,0.0011
3983.00,0.0010
3982.00,0.0010
3981.00,0.0010
3980.00,0.0010
3979.00,0.0010
3978.00,0.0009
3977.00,0.0009
3976.00,0.0009
3975.00,0.0009
3974.00,0.0009
3973.00,0.0009
3972.00,0.0009
3971.00,0.0009
3970.00,0.0009
3969.00,0.0009
3968.00,0.0010
3967.00,0.0010
3966.00,0.0010
3965.00,0.0010
3964.00,0.0010
3963.00,0.0010
3962.00,0.0010
3961.00,0.0010
3960.00,0.0010
3959.00,0.0010
3958.00,0.0010
3957.00,0.0009
3956.00,0.0009
3955.00,0.0010
3954.00,0.0010
3953.00,0.0010
3952.00,0.0010
3951.00,0.0010
3950.00,0.0010
3949.00,0.0010
3948.00,0.0010
3947.00,0.0010
3946.00,0.0009
3945.00,0.0009
3944.00,0.0009
3943.00,0.0009
3942.00,0.0009
3941.00,0.0009
3940.00,0.0009
3939.00,0.0009
3938.00,0.0009
3937.00,0.0010
3936.00,0.0010
3935.00,0.0010
3934.00,0.0010
3933.00,0.0010
3932.00,0.0009
3931.00,0.0009
3930.00,0.0009
3929.00,0.0010
3928.00,0.0010
3927.00,0.0010
3926.00,0.0010
3925.00,0.0010
3924.00,0.0010
3923.00,0.0010
3922.00,0.0011
3921.00,0.0011
3920.00,0.0011
3919.00,0.0011
3918.00,0.0011
3917.00,0.0010
3916.00,0.0010
3915.00,0.0010
3914.00,0.0009
3913.00,0.0009
3912.00,0.0008
3911.00,0.0008
3910.00,0.0008
3909.00,0.0008
3908.00,0.0008
3907.00,0.0009
3906.00,0.0009
3905.00,0.0009
3904.00,0.0010
3903.00,0.0010
3902.00,0.0010
3901.00,0.0009
3900.00,0.0009
3899.00,0.0009
3898.00,0.0009
3897.00,0.0009
3896.00,0.0009
3895.00,0.0009
3894.00,0.0009
3893.00,0.0009
3892.00,0.0009
3891.00,0.0009
3890.00,0.0009
3889.00,0.0010
3888.00,0.0010
3887.00,0.0009
3886.00,0.0009
3885.00,0.0009
3884.00,0.0009
3883.00,0.0009
3882.00,0.0009
3881.00,0.0008
3880.00,0.0008
3879.00,0.0008
3878.00,0.0009
3877.00,0.0009
3876.00,0.0009
3875.00,0.0009
3874.00,0.0010
3873.00,0.0010
3872.00,0.0010
3871.00,0.0010
3870.00,0.0010
3869.00,0.0010
3868.00,0.0010
3867.00,0.0009
3866.00,0.0008
3865.00,0.0008
3864.00,0.0008
3863.00,0.0008
3862.00,0.0008
3861.00,0.0008
3860.00,0.0008
3859.00,0.0008
3858.00,0.0008
3857.00,0.0008
3856.00,0.0009
3855.00,0.0009
3854.00,0.0008
3853.00,0.0008
3852.00,0.0008
3851.00,0.0008
3850.00,0.0007
3849.00,0.0007
3848.00,0.0007
3847.00,0.0008
3846.00,0.0008
3845.00,0.0009
3844.00,0.0009
3843.00,0.0009
3842.00,0.0009
3841.00,0.0009
3840.00,0.0009
3839.00,0.0009
3838.00,0.0008
3837.00,0.0008
3836.00,0.0008
3835.00,0.0007
3834.00,0.0007
3833.00,0.0007
3832.00,0.0007
3831.00,0.0007
3830.00,0.0008
3829.00,0.0008
3828.00,0.0008
3827.00,0.0008
3826.00,0.0008
3825.00,0.0008
3824.00,0.0008
3823.00,0.0008
3822.00,0.0008
3821.00,0.0008
3820.00,0.0008
3819.00,0.0009
3818.00,0.0008
3817.00,0.0008
3816.00,0.0008
3815.00,0.0008
3814.00,0.0008
3813.00,0.0007
3812.00,0.0007
3811.00,0.0007
3810.00,0.0007
3809.00,0.0008
3808.00,0.0007
3807.00,0.0007
3806.00,0.0007
3805.00,0.0008
3804.00,0.0008
3803.00,0.0007
3802.00,0.0008
3801.00,0.0008
3800.00,0.0009
3799.00,0.0009
3798.00,0.0008
3797.00,0.0008
3796.00,0.0008
3795.00,0.0009
3794.00,0.0009
3793.00,0.0009
3792.00,0.0009
3791.00,0.0009
3790.00,0.0009
3789.00,0.0009
3788.00,0.0009
3787.00,0.0008
3786.00,0.0008
3785.00,0.0008
3784.00,0.0008
3783.00,0.0008
3782.00,0.0008
3781.00,0.0008
3780.00,0.0008
3779.00,0.0009
3778.00,0.0009
3777.00,0.0009
3776.00,0.0009
3775.00,0.0009
3774.00,0.0009
3773.00,0.0010
3772.00,0.0009
3771.00,0.0009
3770.00,0.0009
3769.00,0.0009
3768.00,0.0010
3767.00,0.0010
3766.00,0.0009
3765.00,0.0009
3764.00,0.0010
3763.00,0.0010
3762.00,0.0009
3761.00,0.0009
3760.00,0.0009
3759.00,0.0009
3758.00,0.0009
3757.00,0.0009
3756.00,0.0009
3755.00,0.0009
3754.00,0.0009
3753.00,0.0009
3752.00,0.0009
3751.00,0.0008
3750.00,0.0008
3749.00,0.0008
3748.00,0.0008
3747.00,0.0008
3746.00,0.0007
3745.00,0.0007
3744.00,0.0007
3743.00,0.0008
3742.00,0.0008
3741.00,0.0007
3740.00,0.0007
3739.00,0.0007
3738.00,0.0007
3737.00,0.0007
3736.00,0.0007
3735.00,0.0007
3734.00,0.0007
3733.00,0.0007
3732.00,0.0007
3731.00,0.0007
3730.00,0.0007
3729.00,0.0007
3728.00,0.0007
3727.00,0.0007
3726.00,0.0007
3725.00,0.0008
3724.00,0.0008
3723.00,0.0008
3722.00,0.0008
3721.00,0.0008
3720.00,0.0008
3719.00,0.0007
3718.00,0.0007
3717.00,0.0007
3716.00,0.0007
3715.00,0.0007
3714.00,0.0007
3713.00,0.0007
3712.00,0.0007
3711.00,0.0007
3710.00,0.0008
3709.00,0.0008
3708.00,0.0008
3707.00,0.0009
3706.00,0.0008
3705.00,0.0008
3704.00,0.0008
3703.00,0.0008
3702.00,0.0007
3701.00,0.0007
3700.00,0.0008
3699.00,0.0008
3698.00,0.0008
3697.00,0.0008
3696.00,0.0008
3695.00,0.0008
3694.00,0.0008
3693.00,0.0007
3692.00,0.0007
3691.00,0.0006
3690.00,0.0006
3689.00,0.0006
3688.00,0.0007
3687.00,0.0007
3686.00,0.0007
3685.00,0.0007
3684.00,0.0007
3683.00,0.0007
3682.00,0.0007
3681.00,0.0007
3680.00,0.0007
3679.00,0.0008
3678.00,0.0008
3677.00,0.0008
3676.00,0.0007
3675.00,0.0007
3674.00,0.0007
3673.00,0.0006
3672.00,0.0005
3671.00,0.0004
3670.00,0.0004
3669.00,0.0004
3668.00,0.0005
3667.00,0.0005
3666.00,0.0005
3665.00,0.0005
3664.00,0.0004
3663.00,0.0004
3662.00,0.0004
3661.00,0.0004
3660.00,0.0004
3659.00,0.0005
3658.00,0.0005
3657.00,0.0005
3656.00,0.0005
3655.00,0.0005
3654.00,0.0006
3653.00,0.0006
3652.00,0.0006
3651.00,0.0006
3650.00,0.0006
3649.00,0.0006
3648.00,0.0006
3647.00,0.0007
3646.00,0.0008
3645.00,0.0008
3644.00,0.0009
3643.00,0.0009
3642.00,0.0009
3641.00,0.0009
3640.00,0.0009
3639.00,0.0009
3638.00,0.0010
3637.00,0.0010
3636.00,0.0010
3635.00,0.0011
3634.00,0.0012
3633.00,0.0013
3632.00,0.0014
3631.00,0.0015
3630.00,0.0015
3629.00,0.0016
3628.00,0.0017
3627.00,0.0018
3626.00,0.0017
3625.00,0.0017
3624.00,0.0017
3623.00,0.0017
3622.00,0.0017
3621.00,0.0018
3620.00,0.0018
3619.00,0.0018
3618.00,0.0018
3617.00,0.0018
3616.00,0.0019
3615.00,0.0019
3614.00,0.0019
3613.00,0.0020
3612.00,0.0021
3611.00,0.0021
3610.00,0.0021
3609.00,0.0021
3608.00,0.0021
3607.00,0.0021
3606.00,0.0022
3605.00,0.0022
3604.00,0.0023
3603.00,0.0023
3602.00,0.0023
3601.00,0.0024
3600.00,0.0024
3599.00,0.0025
3598.00,0.0025
3597.00,0.0026
3596.00,0.0026
3595.00,0.0026
3594.00,0.0026
3593.00,0.0027
3592.00,0.0027
3591.00,0.0028
3590.00,0.0028
3589.00,0.0029
3588.00,0.0030
3587.00,0.0031
3586.00,0.0032
3585.00,0.0032
3584.00,0.0032
3583.00,0.0032
3582.00,0.0032
3581.00,0.0033
3580.00,0.0033
3579.00,0.0033
3578.00,0.0033
3577.00,0.0033
3576.00,0.0034
3575.00,0.0034
3574.00,0.0035
3573.00,0.0035
3572.00,0.0036
3571.00,0.0037
3570.00,0.0038
3569.00,0.0039
3568.00,0.0039
3567.00,0.0039
3566.00,0.0040
3565.00,0.0040
3564.00,0.0040
3563.00,0.0040
3562.00,0.0040
3561.00,0.0040
3560.00,0.0041
3559.00,0.0041
3558.00,0.0042
3557.00,0.0042
3556.00,0.0043
3555.00,0.0043
3554.00,0.0044
3553.00,0.0044
3552.00,0.0045
3551.00,0.0045
3550.00,0.0046
3549.00,0.0046
3548.00,0.0047
3547.00,0.0048
3546.00,0.0048
3545.00,0.0048
3544.00,0.0048
3543.00,0.0048
3542.00,0.0049
3541.00,0.0049
3540.00,0.0050
3539.00,0.0051
3538.00,0.0051
3537.00,0.0052
3536.00,0.0053
3535.00,0.0053
3534.00,0.0054
3533.00,0.0055
3532.00,0.0055
3531.00,0.0056
3530.00,0.0056
3529.00,0.0056
3528.00,0.0057
3527.00,0.0057
3526.00,0.0058
3525.00,0.0058
3524.00,0.0059
3523.00,0.0060
3522.00,0.0060
3521.00,0.0061
3520.00,0.0061
3519.00,0.0061
3518.00,0.0062
3517.00,0.0062
3516.00,0.0063
3515.00,0.0063
3514.00,0.0063
3513.00,0.0063
3512.00,0.0063
3511.00,0.0064
3510.00,0.0065
3509.00,0.0065
3508.00,0.0066
3507.00,0.0067
3506.00,0.0067
3505.00,0.0068
3504.00,0.0068
3503.00,0.0069
3502.00,0.0069
3501.00,0.0070
3500.00,0.0070
3499.00,0.0070
3498.00,0.0071
3497.00,0.0071
3496.00,0.0072
3495.00,0.0073
3494.00,0.0073
3493.00,0.0074
3492.00,0.0074
3491.00,0.0074
3490.00,0.0075
3489.00,0.0076
3488.00,0.0076
3487.00,0.0077
3486.00,0.0077
3485.00,0.0078
3484.00,0.0079
3483.00,0.0079
3482.00,0.0079
3481.00,0.0080
3480.00,0.0080
3479.00,0.0080
3478.00,0.0081
3477.00,0.0081
3476.00,0.0081
3475.00,0.0081
3474.00,0.0081
3473.00,0.0082
3472.00,0.0083
3471.00,0.0083
3470.00,0.0084
3469.00,0.0085
3468.00,0.0086
3467.00,0.0086
3466.00,0.0087
3465.00,0.0087
3464.00,0.0087
3463.00,0.0087
3462.00,0.0088
3461.00,0.0088
3460.00,0.0088
3459.00,0.0089
3458.00,0.0089
3457.00,0.0089
3456.00,0.0089
3455.00,0.0090
3454.00,0.0090
3453.00,0.0090
3452.00,0.0090
3451.00,0.0091
3450.00,0.0092
3449.00,0.0092
3448.00,0.0093
3447.00,0.0093
3446.00,0.0093
3445.00,0.0093
3444.00,0.0094
3443.00,0.0094
3442.00,0.0095
3441.00,0.0095
3440.00,0.0096
3439.00,0.0097
3438.00,0.0097
3437.00,0.0098
3436.00,0.0098
3435.00,0.0098
3434.00,0.0098
3433.00,0.0099
3432.00,0.0099
3431.00,0.0100
3430.00,0.0100
3429.00,0.0100
3428.00,0.0101
3427.00,0.0101
3426.00,0.0102
3425.00,0.0103
3424.00,0.0103
3423.00,0.0103
3422.00,0.0104
3421.00,0.0104
3420.00,0.0104
3419.00,0.0104
3418.00,0.0104
3417.00,0.0104
3416.00,0.0104
3415.00,0.0104
3414.00,0.0105
3413.00,0.0106
3412.00,0.0107
3411.00,0.0107
3410.00,0.0107
3409.00,0.0107
3408.00,0.0108
3407.00,0.0108
3406.00,0.0108
3405.00,0.0108
3404.00,0.0108
3403.00,0.0108
3402.00,0.0108
3401.00,0.0109
3400.00,0.0109
3399.00,0.0110
3398.00,0.0110
3397.00,0.0110
3396.00,0.0110
3395.00,0.0111
3394.00,0.0111
3393.00,0.0111
3392.00,0.0111
3391.00,0.0111
3390.00,0.0111
3389.00,0.0111
3388.00,0.0111
3387.00,0.0111
3386.00,0.0112
3385.00,0.0112
3384.00,0.0112
3383.00,0.0112
3382.00,0.0112
3381.00,0.0112
3380.00,0.0112
3379.00,0.0112
3378.00,0.0112
3377.00,0.0113
3376.00,0.0113
3375.00,0.0113
3374.00,0.0113
3373.00,0.0113
3372.00,0.0113
3371.00,0.0113
3370.00,0.0113
3369.00,0.0113
3368.00,0.0114
3367.00,0.0114
3366.00,0.0114
3365.00,0.0114
3364.00,0.0114
3363.00,0.0114
3362.00,0.0114
3361.00,0.0114
3360.00,0.0114
3359.00,0.0114
3358.00,0.0114
3357.00,0.0114
3356.00,0.0115
3355.00,0.0115
3354.00,0.0115
3353.00,0.0115
3352.00,0.0115
3351.00,0.0115
3350.00,0.0115
3349.00,0.0115
3348.00,0.0115
3347.00,0.0115
3346.00,0.0115
3345.00,0.0115
3344.00,0.0115
3343.00,0.0115
3342.00,0.0115
3341.00,0.0114
3340.00,0.0114
3339.00,0.0114
3338.00,0.0114
3337.00,0.0114
3336.00,0.0114
3335.00,0.0114
3334.00,0.0114
3333.00,0.0113
3332.00,0.0113
3331.00,0.0113
3330.00,0.0113
3329.00,0.0113
3328.00,0.0113
3327.00,0.0113
3326.00,0.0113
3325.00,0.0113
3324.00,0.0113
3323.00,0.0113
3322.00,0.0113
3321.00,0.0112
3320.00,0.0112
3319.00,0.0112
3318.00,0.0112
3317.00,0.0111
3316.00,0.0111
3315.00,0.0111
3314.00,0.0111
3313.00,0.0112
3312.00,0.0112
3311.00,0.0112
3310.00,0.0112
3309.00,0.0112
3308.00,0.0112
3307.00,0.0111
3306.00,0.0111
3305.00,0.0112
3304.00,0.0112
3303.00,0.0112
3302.00,0.0112
3301.00,0.0112
3300.00,0.0112
3299.00,0.0111
3298.00,0.0111
3297.00,0.0110
3296.00,0.0109
3295.00,0.0109
3294.00,0.0108
3293.00,0.0108
3292.00,0.0107
3291.00,0.0107
3290.00,0.0106
3289.00,0.0106
3288.00,0.0106
3287.00,0.0106
3286.00,0.0106
3285.00,0.0105
3284.00,0.0105
3283.00,0.0104
3282.00,0.0104
3281.00,0.0103
3280.00,0.0103
3279.00,0.0103
3278.00,0.0102
3277.00,0.0102
3276.00,0.0102
3275.00,0.0102
3274.00,0.0102
3273.00,0.0101
3272.00,0.0101
3271.00,0.0100
3270.00,0.0100
3269.00,0.0099
3268.00,0.0099
3267.00,0.0099
3266.00,0.0099
3265.00,0.0098
3264.00,0.0098
3263.00,0.0097
3262.00,0.0096
3261.00,0.0096
3260.00,0.0095
3259.00,0.0095
3258.00,0.0094
3257.00,0.0094
3256.00,0.0093
3255.00,0.0093
3254.00,0.0093
3253.00,0.0092
3252.00,0.0092
3251.00,0.0091
3250.00,0.0091
3249.00,0.0091
3248.00,0.0090
3247.00,0.0090
3246.00,0.0090
3245.00,0.0089
3244.00,0.0089
3243.00,0.0089
3242.00,0.0089
3241.00,0.0088
3240.00,0.0088
3239.00,0.0088
3238.00,0.0088
3237.00,0.0088
3236.00,0.0088
3235.00,0.0088
3234.00,0.0087
3233.00,0.0087
3232.00,0.0087
3231.00,0.0086
3230.00,0.0086
3229.00,0.0087
3228.00,0.0087
3227.00,0.0087
3226.00,0.0087
3225.00,0.0087
3224.00,0.0087
3223.00,0.0087
3222.00,0.0087
3221.00,0.0087
3220.00,0.0086
3219.00,0.0085
3218.00,0.0085
3217.00,0.0085
3216.00,0.0085
3215.00,0.0085
3214.00,0.0085
3213.00,0.0086
3212.00,0.0086
3211.00,0.0086
3210.00,0.0086
3209.00,0.0086
3208.00,0.0086
3207.00,0.0085
3206.00,0.0085
3205.00,0.0085
3204.00,0.0085
3203.00,0.0084
3202.00,0.0084
3201.00,0.0084
3200.00,0.0085
3199.00,0.0085
3198.00,0.0085
3197.00,0.0085
3196.00,0.0085
3195.00,0.0084
3194.00,0.0083
3193.00,0.0083
3192.00,0.0083
3191.00,0.0083
3190.00,0.0083
3189.00,0.0083
3188.00,0.0082
3187.00,0.0082
3186.00,0.0082
3185.00,0.0082
3184.00,0.0082
3183.00,0.0081
3182.00,0.0081
3181.00,0.0080
3180.00,0.0079
3179.00,0.0078
3178.00,0.0078
3177.00,0.0077
3176.00,0.0077
3175.00,0.0077
3174.00,0.0077
3173.00,0.0077
3172.00,0.0076
3171.00,0.0076
3170.00,0.0076
3169.00,0.0076
3168.00,0.0075
3167.00,0.0075
3166.00,0.0075
3165.00,0.0075
3164.00,0.0075
3163.00,0.0074
3162.00,0.0074
3161.00,0.0074
3160.00,0.0073
3159.00,0.0073
3158.00,0.0073
3157.00,0.0073
3156.00,0.0072
3155.00,0.0072
3154.00,0.0072
3153.00,0.0071
3152.00,0.0071
3151.00,0.0071
3150.00,0.0071
3149.00,0.0071
3148.00,0.0071
3147.00,0.0071
3146.00,0.0070
3145.00,0.0070
3144.00,0.0069
3143.00,0.0069
3142.00,0.0069
3141.00,0.0068
3140.00,0.0068
3139.00,0.0068
3138.00,0.0067
3137.00,0.0067
3136.00,0.0066
3135.00,0.0066
3134.00,0.0066
3133.00,0.0066
3132.00,0.0066
3131.00,0.0065
3130.00,0.0065
3129.00,0.0064
3128.00,0.0064
3127.00,0.0064
3126.00,0.0063
3125.00,0.0063
3124.00,0.0062
3123.00,0.0062
3122.00,0.0062
3121.00,0.0061
3120.00,0.0061
3119.00,0.0061
3118.00,0.0060
3117.00,0.0060
3116.00,0.0060
3115.00,0.0059
3114.00,0.0059
3113.00,0.0058
3112.00,0.0058
3111.00,0.0058
3110.00,0.0057
3109.00,0.0057
3108.00,0.0058
3107.00,0.0058
3106.00,0.0057
3105.00,0.0057
3104.00,0.0056
3103.00,0.0056
3102.00,0.0055
3101.00,0.0055
3100.00,0.0055
3099.00,0.0055
3098.00,0.0056
3097.00,0.0056
3096.00,0.0056
3095.00,0.0055
3094.00,0.0055
3093.00,0.0055
3092.00,0.0055
3091.00,0.0055
3090.00,0.0055
3089.00,0.0055
3088.00,0.0055
3087.00,0.0055
3086.00,0.0055
3085.00,0.0055
3084.00,0.0055
3083.00,0.0054
3082.00,0.0054
3081.00,0.0053
3080.00,0.0053
3079.00,0.0053
3078.00,0.0053
3077.00,0.0053
3076.00,0.0053
3075.00,0.0053
3074.00,0.0053
3073.00,0.0053
3072.00,0.0053
3071.00,0.0053
3070.00,0.0053
3069.00,0.0054
3068.00,0.0054
3067.00,0.0054
3066.00,0.0054
3065.00,0.0055
3064.00,0.0055
3063.00,0.0056
3062.00,0.0056
3061.00,0.0056
3060.00,0.0056
3059.00,0.0056
3058.00,0.0056
3057.00,0.0055
3056.00,0.0055
3055.00,0.0055
3054.00,0.0055
3053.00,0.0055
3052.00,0.0055
3051.00,0.0055
3050.00,0.0056
3049.00,0.0056
3048.00,0.0056
3047.00,0.0057
3046.00,0.0057
3045.00,0.0057
3044.00,0.0057
3043.00,0.0057
3042.00,0.0057
3041.00,0.0058
3040.00,0.0058
3039.00,0.0059
3038.00,0.0059
3037.00,0.0059
3036.00,0.0060
3035.00,0.0060
3034.00,0.0060
3033.00,0.0060
3032.00,0.0061
3031.00,0.0061
3030.00,0.0061
3029.00,0.0062
3028.00,0.0062
3027.00,0.0062
3026.00,0.0062
3025.00,0.0062
3024.00,0.0063
3023.00,0.0063
3022.00,0.0063
3021.00,0.0064
3020.00,0.0064
3019.00,0.0064
3018.00,0.0064
3017.00,0.0064
3016.00,0.0064
3015.00,0.0065
3014.00,0.0065
3013.00,0.0066
3012.00,0.0066
3011.00,0.0066
3010.00,0.0065
3009.00,0.0065
3008.00,0.0064
3007.00,0.0064
3006.00,0.0063
3005.00,0.0063
3004.00,0.0063
3003.00,0.0063
3002.00,0.0063
3001.00,0.0064
3000.00,0.0065
2999.00,0.0066
2998.00,0.0067
2997.00,0.0069
2996.00,0.0071
2995.00,0.0073
2994.00,0.0076
2993.00,0.0080
2992.00,0.0084
2991.00,0.0089
2990.00,0.0094
2989.00,0.0099
2988.00,0.0105
2987.00,0.0111
2986.00,0.0117
2985.00,0.0123
2984.00,0.0128
2983.00,0.0136
2982.00,0.0146
2981.00,0.0162
2980.00,0.0182
2979.00,0.0206
2978.00,0.0233
2977.00,0.0263
2976.00,0.0295
2975.00,0.0331
2974.00,0.0371
2973.00,0.0416
2972.00,0.0469
2971.00,0.0529
2970.00,0.0598
2969.00,0.0674
2968.00,0.0757
2967.00,0.0847
2966.00,0.0943
2965.00,0.1044
2964.00,0.1148
2963.00,0.1249
2962.00,0.1344
2961.00,0.1429
2960.00,0.1500
2959.00,0.1555
2958.00,0.1595
2957.00,0.1624
2956.00,0.1645
2955.00,0.1664
2954.00,0.1681
2953.00,0.1698
2952.00,0.1709
2951.00,0.1708
2950.00,0.1688
2949.00,0.1646
2948.00,0.1580
2947.00,0.1494
2946.00,0.1397
2945.00,0.1297
2944.00,0.1205
2943.00,0.1129
2942.00,0.1071
2941.00,0.1034
2940.00,0.1016
2939.00,0.1016
2938.00,0.1033
2937.00,0.1064
2936.00,0.1108
2935.00,0.1164
2934.00,0.1231
2933.00,0.1307
2932.00,0.1391
2931.00,0.1482
2930.00,0.1576
2929.00,0.1671
2928.00,0.1764
2927.00,0.1853
2926.00,0.1936
2925.00,0.2014
2924.00,0.2085
2923.00,0.2153
2922.00,0.2216
2921.00,0.2273
2920.00,0.2319
2919.00,0.2351
2918.00,0.2361
2917.00,0.2347
2916.00,0.2308
2915.00,0.2249
2914.00,0.2176
2913.00,0.2099
2912.00,0.2023
2911.00,0.1953
2910.00,0.1891
2909.00,0.1835
2908.00,0.1785
2907.00,0.1736
2906.00,0.1688
2905.00,0.1638
2904.00,0.1584
2903.00,0.1528
2902.00,0.1470
2901.00,0.1412
2900.00,0.1355
2899.00,0.1299
2898.00,0.1247
2897.00,0.1197
2896.00,0.1153
2895.00,0.1113
2894.00,0.1079
2893.00,0.1049
2892.00,0.1025
2891.00,0.1006
2890.00,0.0991
2889.00,0.0980
2888.00,0.0973
2887.00,0.0968
2886.00,0.0967
2885.00,0.0969
2884.00,0.0975
2883.00,0.0985
2882.00,0.1000
2881.00,0.1016
2880.00,0.1031
2879.00,0.1045
2878.00,0.1053
2877.00,0.1056
2876.00,0.1053
2875.00,0.1049
2874.00,0.1046
2873.00,0.1047
2872.00,0.1053
2871.00,0.1065
2870.00,0.1079
2869.00,0.1093
2868.00,0.1101
2867.00,0.1099
2866.00,0.1081
2865.00,0.1048
2864.00,0.1003
2863.00,0.0953
2862.00,0.0903
2861.00,0.0862
2860.00,0.0832
2859.00,0.0814
2858.00,0.0808
2857.00,0.0811
2856.00,0.0821
2855.00,0.0834
2854.00,0.0849
2853.00,0.0864
2852.00,0.0878
2851.00,0.0887
2850.00,0.0892
2849.00,0.0892
2848.00,0.0892
2847.00,0.0896
2846.00,0.0907
2845.00,0.0929
2844.00,0.0961
2843.00,0.1003
2842.00,0.1049
2841.00,0.1094
2840.00,0.1130
2839.00,0.1151
2838.00,0.1148
2837.00,0.1117
2836.00,0.1059
2835.00,0.0978
2834.00,0.0883
2833.00,0.0784
2832.00,0.0690
2831.00,0.0606
2830.00,0.0534
2829.00,0.0476
2828.00,0.0428
2827.00,0.0389
2826.00,0.0356
2825.00,0.0330
2824.00,0.0308
2823.00,0.0289
2822.00,0.0273
2821.00,0.0259
2820.00,0.0246
2819.00,0.0235
2818.00,0.0225
2817.00,0.0217
2816.00,0.0209
2815.00,0.0203
2814.00,0.0197
2813.00,0.0191
2812.00,0.0186
2811.00,0.0181
2810.00,0.0176
2809.00,0.0171
2808.00,0.0166
2807.00,0.0160
2806.00,0.0155
2805.00,0.0149
2804.00,0.0143
2803.00,0.0138
2802.00,0.0133
2801.00,0.0129
2800.00,0.0125
2799.00,0.0122
2798.00,0.0119
2797.00,0.0117
2796.00,0.0115
2795.00,0.0113
2794.00,0.0110
2793.00,0.0107
2792.00,0.0104
2791.00,0.0101
2790.00,0.0097
2789.00,0.0094
2788.00,0.0091
2787.00,0.0088
2786.00,0.0085
2785.00,0.0082
2784.00,0.0080
2783.00,0.0077
2782.00,0.0075
2781.00,0.0074
2780.00,0.0072
2779.00,0.0070
2778.00,0.0069
2777.00,0.0067
2776.00,0.0066
2775.00,0.0065
2774.00,0.0064
2773.00,0.0063
2772.00,0.0063
2771.00,0.0063
2770.00,0.0062
2769.00,0.0062
2768.00,0.0061
2767.00,0.0061
2766.00,0.0060
2765.00,0.0060
2764.00,0.0060
2763.00,0.0060
2762.00,0.0059
2761.00,0.0059
2760.00,0.0059
2759.00,0.0058
2758.00,0.0058
2757.00,0.0057
2756.00,0.0057
2755.00,0.0057
2754.00,0.0057
2753.00,0.0056
2752.00,0.0056
2751.00,0.0056
2750.00,0.0056
2749.00,0.0056
2748.00,0.0056
2747.00,0.0057
2746.00,0.0057
2745.00,0.0057
2744.00,0.0057
2743.00,0.0058
2742.00,0.0059
2741.00,0.0060
2740.00,0.0061
2739.00,0.0062
2738.00,0.0063
2737.00,0.0064
2736.00,0.0065
2735.00,0.0067
2734.00,0.0068
2733.00,0.0069
2732.00,0.0070
2731.00,0.0071
2730.00,0.0073
2729.00,0.0075
2728.00,0.0077
2727.00,0.0079
2726.00,0.0082
2725.00,0.0084
2724.00,0.0085
2723.00,0.0085
2722.00,0.0085
2721.00,0.0083
2720.00,0.0081
2719.00,0.0078
2718.00,0.0076
2717.00,0.0073
2716.00,0.0070
2715.00,0.0068
2714.00,0.0066
2713.00,0.0064
2712.00,0.0063
2711.00,0.0061
2710.00,0.0060
2709.00,0.0059
2708.00,0.0057
2707.00,0.0056
2706.00,0.0055
2705.00,0.0054
2704.00,0.0054
2703.00,0.0053
2702.00,0.0052
2701.00,0.0051
2700.00,0.0051
2699.00,0.0050
2698.00,0.0050
2697.00,0.0049
2696.00,0.0049
2695.00,0.0049
2694.00,0.0049
2693.00,0.0049
2692.00,0.0049
2691.00,0.0050
2690.00,0.0050
2689.00,0.0050
2688.00,0.0049
2687.00,0.0049
2686.00,0.0048
2685.00,0.0048
2684.00,0.0049
2683.00,0.0049
2682.00,0.0049
2681.00,0.0049
2680.00,0.0049
2679.00,0.0049
2678.00,0.0048
2677.00,0.0048
2676.00,0.0048
2675.00,0.0048
2674.00,0.0047
2673.00,0.0047
2672.00,0.0047
2671.00,0.0046
2670.00,0.0046
2669.00,0.0046
2668.00,0.0046
2667.00,0.0047
2666.00,0.0048
2665.00,0.0048
2664.00,0.0049
2663.00,0.0050
2662.00,0.0050
2661.00,0.0050
2660.00,0.0050
2659.00,0.0050
2658.00,0.0050
2657.00,0.0050
2656.00,0.0049
2655.00,0.0049
2654.00,0.0048
2653.00,0.0048
2652.00,0.0048
2651.00,0.0047
2650.00,0.0047
2649.00,0.0046
2648.00,0.0045
2647.00,0.0045
2646.00,0.0045
2645.00,0.0045
2644.00,0.0044
2643.00,0.0044
2642.00,0.0044
2641.00,0.0043
2640.00,0.0042
2639.00,0.0042
2638.00,0.0041
2637.00,0.0041
2636.00,0.0041
2635.00,0.0042
2634.00,0.0042
2633.00,0.0042
2632.00,0.0042
2631.00,0.0042
2630.00,0.0042
2629.00,0.0042
2628.00,0.0042
2627.00,0.0042
2626.00,0.0042
2625.00,0.0042
2624.00,0.0042
2623.00,0.0042
2622.00,0.0043
2621.00,0.0043
2620.00,0.0043
2619.00,0.0043
2618.00,0.0043
2617.00,0.0043
2616.00,0.0042
2615.00,0.0042
2614.00,0.0041
2613.00,0.0040
2612.00,0.0040
2611.00,0.0040
2610.00,0.0040
2609.00,0.0039
2608.00,0.0039
2607.00,0.0038
2606.00,0.0037
2605.00,0.0036
2604.00,0.0035
2603.00,0.0035
2602.00,0.0034
2601.00,0.0034
2600.00,0.0034
2599.00,0.0033
2598.00,0.0033
2597.00,0.0033
2596.00,0.0033
2595.00,0.0033
2594.00,0.0033
2593.00,0.0034
2592.00,0.0035
2591.00,0.0036
2590.00,0.0037
2589.00,0.0037
2588.00,0.0037
2587.00,0.0037
2586.00,0.0037
2585.00,0.0037
2584.00,0.0038
2583.00,0.0039
2582.00,0.0039
2581.00,0.0038
2580.00,0.0038
2579.00,0.0037
2578.00,0.0036
2577.00,0.0035
2576.00,0.0035
2575.00,0.0034
2574.00,0.0034
2573.00,0.0033
2572.00,0.0032
2571.00,0.0031
2570.00,0.0031
2569.00,0.0030
2568.00,0.0029
2567.00,0.0028
2566.00,0.0027
2565.00,0.0026
2564.00,0.0026
2563.00,0.0026
2562.00,0.0026
2561.00,0.0026
2560.00,0.0026
2559.00,0.0026
2558.00,0.0026
2557.00,0.0025
2556.00,0.0025
2555.00,0.0024
2554.00,0.0024
2553.00,0.0024
2552.00,0.0024
2551.00,0.0024
2550.00,0.0023
2549.00,0.0023
2548.00,0.0022
2547.00,0.0022
2546.00,0.0022
2545.00,0.0021
2544.00,0.0021
2543.00,0.0021
2542.00,0.0021
2541.00,0.0021
2540.00,0.0021
2539.00,0.0020
2538.00,0.0020
2537.00,0.0020
2536.00,0.0020
2535.00,0.0021
2534.00,0.0021
2533.00,0.0021
2532.00,0.0020
2531.00,0.0019
2530.00,0.0018
2529.00,0.0018
2528.00,0.0018
2527.00,0.0017
2526.00,0.0017
2525.00,0.0017
2524.00,0.0017
2523.00,0.0016
2522.00,0.0016
2521.00,0.0016
2520.00,0.0016
2519.00,0.0015
2518.00,0.0015
2517.00,0.0015
2516.00,0.0015
2515.00,0.0015
2514.00,0.0015
2513.00,0.0015
2512.00,0.0015
2511.00,0.0014
2510.00,0.0014
2509.00,0.0014
2508.00,0.0014
2507.00,0.0013
2506.00,0.0013
2505.00,0.0012
2504.00,0.0012
2503.00,0.0012
2502.00,0.0012
2501.00,0.0012
2500.00,0.0012
2499.00,0.0013
2498.00,0.0013
2497.00,0.0014
2496.00,0.0015
2495.00,0.0015
2494.00,0.0015
2493.00,0.0014
2492.00,0.0014
2491.00,0.0013
2490.00,0.0014
2489.00,0.0014
2488.00,0.0014
2487.00,0.0014
2486.00,0.0014
2485.00,0.0014
2484.00,0.0013
2483.00,0.0013
2482.00,0.0013
2481.00,0.0013
2480.00,0.0013
2479.00,0.0012
2478.00,0.0012
2477.00,0.0012
2476.00,0.0012
2475.00,0.0013
2474.00,0.0013
2473.00,0.0013
2472.00,0.0012
2471.00,0.0012
2470.00,0.0012
2469.00,0.0012
2468.00,0.0012
2467.00,0.0012
2466.00,0.0012
2465.00,0.0012
2464.00,0.0012
2463.00,0.0012
2462.00,0.0012
2461.00,0.0012
2460.00,0.0012
2459.00,0.0013
2458.00,0.0013
2457.00,0.0014
2456.00,0.0014
2455.00,0.0015
2454.00,0.0014
2453.00,0.0014
2452.00,0.0014
2451.00,0.0014
2450.00,0.0014
2449.00,0.0014
2448.00,0.0014
2447.00,0.0014
2446.00,0.0014
2445.00,0.0013
2444.00,0.0012
2443.00,0.0012
2442.00,0.0012
2441.00,0.0013
2440.00,0.0013
2439.00,0.0013
2438.00,0.0013
2437.00,0.0013
2436.00,0.0013
2435.00,0.0013
2434.00,0.0014
2433.00,0.0014
2432.00,0.0014
2431.00,0.0014
2430.00,0.0014
2429.00,0.0014
2428.00,0.0014
2427.00,0.0014
2426.00,0.0013
2425.00,0.0013
2424.00,0.0012
2423.00,0.0012
2422.00,0.0012
2421.00,0.0012
2420.00,0.0012
2419.00,0.0012
2418.00,0.0012
2417.00,0.0012
2416.00,0.0012
2415.00,0.0012
2414.00,0.0012
2413.00,0.0012
2412.00,0.0013
2411.00,0.0013
2410.00,0.0014
2409.00,0.0014
2408.00,0.0013
2407.00,0.0013
2406.00,0.0012
2405.00,0.0011
2404.00,0.0011
2403.00,0.0011
2402.00,0.0010
2401.00,0.0010
2400.00,0.0010
2399.00,0.0010
2398.00,0.0010
2397.00,0.0010
2396.00,0.0010
2395.00,0.0010
2394.00,0.0010
2393.00,0.0010
2392.00,0.0010
2391.00,0.0011
2390.00,0.0011
2389.00,0.0011
2388.00,0.0010
2387.00,0.0010
2386.00,0.0009
2385.00,0.0008
2384.00,0.0007
2383.00,0.0006
2382.00,0.0005
2381.00,0.0004
2380.00,0.0004
2379.00,0.0004
2378.00,0.0004
2377.00,0.0004
2376.00,0.0005
2375.00,0.0005
2374.00,0.0005
2373.00,0.0005
2372.00,0.0005
2371.00,0.0005
2370.00,0.0004
2369.00,0.0004
2368.00,0.0003
2367.00,0.0003
2366.00,0.0002
2365.00,0.0002
2364.00,0.0003
2363.00,0.0003
2362.00,0.0004
2361.00,0.0005
2360.00,0.0005
2359.00,0.0005
2358.00,0.0005
2357.00,0.0005
2356.00,0.0005
2355.00,0.0005
2354.00,0.0005
2353.00,0.0005
2352.00,0.0006
2351.00,0.0006
2350.00,0.0006
2349.00,0.0006
2348.00,0.0006
2347.00,0.0007
2346.00,0.0007
2345.00,0.0007
2344.00,0.0006
2343.00,0.0006
2342.00,0.0006
2341.00,0.0007
2340.00,0.0008
2339.00,0.0009
2338.00,0.0010
2337.00,0.0010
2336.00,0.0010
2335.00,0.0010
2334.00,0.0010
2333.00,0.0010
2332.00,0.0010
2331.00,0.0010
2330.00,0.0010
2329.00,0.0011
2328.00,0.0012
2327.00,0.0015
2326.00,0.0018
2325.00,0.0021
2324.00,0.0022
2323.00,0.0022
2322.00,0.0020
2321.00,0.0018
2320.00,0.0016
2319.00,0.0015
2318.00,0.0014
2317.00,0.0014
2316.00,0.0014
2315.00,0.0014
2314.00,0.0013
2313.00,0.0012
2312.00,0.0011
2311.00,0.0010
2310.00,0.0010
2309.00,0.0010
2308.00,0.0010
2307.00,0.0010
2306.00,0.0011
2305.00,0.0011
2304.00,0.0011
2303.00,0.0012
2302.00,0.0012
2301.00,0.0011
2300.00,0.0011
2299.00,0.0011
2298.00,0.0011
2297.00,0.0012
2296.00,0.0014
2295.00,0.0015
2294.00,0.0016
2293.00,0.0017
2292.00,0.0018
2291.00,0.0019
2290.00,0.0019
2289.00,0.0020
2288.00,0.0021
2287.00,0.0021
2286.00,0.0021
2285.00,0.0021
2284.00,0.0021
2283.00,0.0020
2282.00,0.0019
2281.00,0.0017
2280.00,0.0016
2279.00,0.0016
2278.00,0.0015
2277.00,0.0016
2276.00,0.0017
2275.00,0.0018
2274.00,0.0019
2273.00,0.0017
2272.00,0.0015
2271.00,0.0014
2270.00,0.0013
2269.00,0.0013
2268.00,0.0013
2267.00,0.0013
2266.00,0.0012
2265.00,0.0012
2264.00,0.0014
2263.00,0.0015
2262.00,0.0016
2261.00,0.0016
2260.00,0.0015
2259.00,0.0014
2258.00,0.0014
2257.00,0.0014
2256.00,0.0015
2255.00,0.0014
2254.00,0.0014
2253.00,0.0014
2252.00,0.0013
2251.00,0.0012
2250.00,0.0012
2249.00,0.0011
2248.00,0.0011
2247.00,0.0011
2246.00,0.0011
2245.00,0.0012
2244.00,0.0012
2243.00,0.0012
2242.00,0.0012
2241.00,0.0012
2240.00,0.0013
2239.00,0.0013
2238.00,0.0013
2237.00,0.0013
2236.00,0.0013
2235.00,0.0012
2234.00,0.0011
2233.00,0.0011
2232.00,0.0011
2231.00,0.0012
2230.00,0.0012
2229.00,0.0013
2228.00,0.0012
2227.00,0.0012
2226.00,0.0012
2225.00,0.0012
2224.00,0.0013
2223.00,0.0012
2222.00,0.0011
2221.00,0.0010
2220.00,0.0009
2219.00,0.0008
2218.00,0.0008
2217.00,0.0008
2216.00,0.0008
2215.00,0.0007
2214.00,0.0007
2213.00,0.0008
2212.00,0.0009
2211.00,0.0011
2210.00,0.0011
2209.00,0.0011
2208.00,0.0009
2207.00,0.0008
2206.00,0.0006
2205.00,0.0006
2204.00,0.0007
2203.00,0.0008
2202.00,0.0011
2201.00,0.0013
2200.00,0.0016
2199.00,0.0016
2198.00,0.0015
2197.00,0.0014
2196.00,0.0013
2195.00,0.0012
2194.00,0.0011
2193.00,0.0009
2192.00,0.0007
2191.00,0.0006
2190.00,0.0006
2189.00,0.0006
2188.00,0.0008
2187.00,0.0010
2186.00,0.0012
2185.00,0.0014
2184.00,0.0015
2183.00,0.0014
2182.00,0.0012
2181.00,0.0010
2180.00,0.0010
2179.00,0.0011
2178.00,0.0013
2177.00,0.0014
2176.00,0.0012
2175.00,0.0008
2174.00,0.0006
2173.00,0.0007
2172.00,0.0011
2171.00,0.0015
2170.00,0.0018
2169.00,0.0020
2168.00,0.0021
2167.00,0.0023
2166.00,0.0025
2165.00,0.0029
2164.00,0.0032
2163.00,0.0032
2162.00,0.0030
2161.00,0.0024
2160.00,0.0014
2159.00,-0.0001
2158.00,-0.0014
2157.00,-0.0021
2156.00,-0.0022
2155.00,-0.0019
2154.00,-0.0016
2153.00,-0.0014
2152.00,-0.0011
2151.00,-0.0008
2150.00,-0.0006
2149.00,-0.0005
2148.00,-0.0006
2147.00,-0.0008
2146.00,-0.0008
2145.00,-0.0007
2144.00,-0.0006
2143.00,-0.0006
2142.00,-0.0007
2141.00,-0.0009
2140.00,-0.0010
2139.00,-0.0010
2138.00,-0.0008
2137.00,-0.0007
2136.00,-0.0006
2135.00,-0.0008
2134.00,-0.0010
2133.00,-0.0010
2132.00,-0.0010
2131.00,-0.0008
2130.00,-0.0005
2129.00,-0.0003
2128.00,-0.0001
2127.00,-0.0001
2126.00,-0.0001
2125.00,-0.0001
2124.00,-0.0001
2123.00,-0.0000
2122.00,0.0000
2121.00,0.0000
2120.00,0.0001
2119.00,0.0001
2118.00,0.0002
2117.00,0.0003
2116.00,0.0004
2115.00,0.0005
2114.00,0.0007
2113.00,0.0009
2112.00,0.0010
2111.00,0.0010
2110.00,0.0008
2109.00,0.0007
2108.00,0.0006
2107.00,0.0005
2106.00,0.0005
2105.00,0.0005
2104.00,0.0006
2103.00,0.0006
2102.00,0.0005
2101.00,0.0006
2100.00,0.0007
2099.00,0.0007
2098.00,0.0007
2097.00,0.0005
2096.00,0.0003
2095.00,0.0001
2094.00,0.0001
2093.00,0.0002
2092.00,0.0004
2091.00,0.0006
2090.00,0.0007
2089.00,0.0007
2088.00,0.0006
2087.00,0.0006
2086.00,0.0005
2085.00,0.0005
2084.00,0.0006
2083.00,0.0007
2082.00,0.0007
2081.00,0.0008
2080.00,0.0008
2079.00,0.0008
2078.00,0.0008
2077.00,0.0009
2076.00,0.0009
2075.00,0.0008
2074.00,0.0007
2073.00,0.0006
2072.00,0.0006
2071.00,0.0007
2070.00,0.0007
2069.00,0.0007
2068.00,0.0005
2067.00,0.0003
2066.00,0.0002
2065.00,0.0001
2064.00,0.0001
2063.00,0.0001
2062.00,0.0002
2061.00,0.0004
2060.00,0.0005
2059.00,0.0006
2058.00,0.0007
2057.00,0.0007
2056.00,0.0007
2055.00,0.0006
2054.00,0.0007
2053.00,0.0009
2052.00,0.0013
2051.00,0.0016
2050.00,0.0016
2049.00,0.0013
2048.00,0.0009
2047.00,0.0007
2046.00,0.0006
2045.00,0.0006
2044.00,0.0007
2043.00,0.0009
2042.00,0.0009
2041.00,0.0008
2040.00,0.0005
2039.00,0.0003
2038.00,0.0001
2037.00,0.0000
2036.00,-0.0002
2035.00,-0.0004
2034.00,-0.0007
2033.00,-0.0009
2032.00,-0.0010
2031.00,-0.0010
2030.00,-0.0010
2029.00,-0.0008
2028.00,-0.0007
2027.00,-0.0006
2026.00,-0.0007
2025.00,-0.0007
2024.00,-0.0007
2023.00,-0.0008
2022.00,-0.0010
2021.00,-0.0012
2020.00,-0.0012
2019.00,-0.0010
2018.00,-0.0008
2017.00,-0.0007
2016.00,-0.0006
2015.00,-0.0007
2014.00,-0.0007
2013.00,-0.0007
2012.00,-0.0005
2011.00,-0.0003
2010.00,-0.0002
2009.00,-0.0002
2008.00,-0.0006
2007.00,-0.0011
2006.00,-0.0014
2005.00,-0.0014
2004.00,-0.0012
2003.00,-0.0010
2002.00,-0.0010
2001.00,-0.0011
2000.00,-0.0011
1999.00,-0.0010
1998.00,-0.0009
1997.00,-0.0009
1996.00,-0.0010
1995.00,-0.0013
1994.00,-0.0014
1993.00,-0.0012
1992.00,-0.0008
1991.00,-0.0005
1990.00,-0.0004
1989.00,-0.0005
1988.00,-0.0005
1987.00,-0.0006
1986.00,-0.0004
1985.00,-0.0001
1984.00,0.0003
1983.00,0.0008
1982.00,0.0013
1981.00,0.0016
1980.00,0.0017
1979.00,0.0014
1978.00,0.0008
1977.00,0.0002
1976.00,-0.0003
1975.00,-0.0006
1974.00,-0.0007
1973.00,-0.0008
1972.00,-0.0009
1971.00,-0.0009
1970.00,-0.0009
1969.00,-0.0007
1968.00,-0.0007
1967.00,-0.0008
1966.00,-0.0009
1965.00,-0.0010
1964.00,-0.0011
1963.00,-0.0012
1962.00,-0.0014
1961.00,-0.0015
1960.00,-0.0014
1959.00,-0.0014
1958.00,-0.0014
1957.00,-0.0013
1956.00,-0.0011
1955.00,-0.0009
1954.00,-0.0008
1953.00,-0.0008
1952.00,-0.0010
1951.00,-0.0012
1950.00,-0.0014
1949.00,-0.0015
1948.00,-0.0014
1947.00,-0.0014
1946.00,-0.0013
1945.00,-0.0012
1944.00,-0.0012
1943.00,-0.0012
1942.00,-0.0011
1941.00,-0.0010
1940.00,-0.0009
1939.00,-0.0008
1938.00,-0.0007
1937.00,-0.0006
1936.00,-0.0005
1935.00,-0.0005
1934.00,-0.0005
1933.00,-0.0005
1932.00,-0.0006
1931.00,-0.0006
1930.00,-0.0006
1929.00,-0.0005
1928.00,-0.0004
1927.00,-0.0004
1926.00,-0.0004
1925.00,-0.0004
1924.00,-0.0002
1923.00,-0.0001
1922.00,-0.0001
1921.00,-0.0001
1920.00,-0.0001
1919.00,-0.0002
1918.00,-0.0002
1917.00,-0.0002
1916.00,-0.0001
1915.00,-0.0001
1914.00,-0.0001
1913.00,-0.0000
1912.00,0.0001
1911.00,0.0002
1910.00,0.0003
1909.00,0.0004
1908.00,0.0003
1907.00,0.0001
1906.00,0.0000
1905.00,0.0000
1904.00,0.0002
1903.00,0.0003
1902.00,0.0003
1901.00,0.0003
1900.00,0.0003
1899.00,0.0003
1898.00,0.0004
1897.00,0.0004
1896.00,0.0005
1895.00,0.0004
1894.00,0.0003
1893.00,0.0002
1892.00,0.0002
1891.00,0.0001
1890.00,0.0001
1889.00,0.0002
1888.00,0.0002
1887.00,0.0002
1886.00,0.0002
1885.00,0.0001
1884.00,0.0001
1883.00,0.0000
1882.00,0.0000
1881.00,0.0001
1880.00,0.0001
1879.00,0.0002
1878.00,0.0002
1877.00,0.0002
1876.00,0.0002
1875.00,0.0002
1874.00,0.0002
1873.00,0.0002
1872.00,0.0002
1871.00,0.0002
1870.00,0.0002
1869.00,0.0002
1868.00,0.0003
1867.00,0.0003
1866.00,0.0003
1865.00,0.0002
1864.00,0.0002
1863.00,0.0002
1862.00,0.0002
1861.00,0.0002
1860.00,0.0003
1859.00,0.0004
1858.00,0.0005
1857.00,0.0006
1856.00,0.0006
1855.00,0.0005
1854.00,0.0005
1853.00,0.0004
1852.00,0.0004
1851.00,0.0004
1850.00,0.0005
1849.00,0.0005
1848.00,0.0006
1847.00,0.0005
1846.00,0.0005
1845.00,0.0005
1844.00,0.0006
1843.00,0.0005
1842.00,0.0004
1841.00,0.0004
1840.00,0.0004
1839.00,0.0004
1838.00,0.0005
1837.00,0.0006
1836.00,0.0007
1835.00,0.0007
1834.00,0.0007
1833.00,0.0007
1832.00,0.0007
1831.00,0.0007
1830.00,0.0007
1829.00,0.0007
1828.00,0.0008
1827.00,0.0008
1826.00,0.0008
1825.00,0.0008
1824.00,0.0008
1823.00,0.0008
1822.00,0.0008
1821.00,0.0007
1820.00,0.0006
1819.00,0.0005
1818.00,0.0003
1817.00,0.0002
1816.00,0.0002
1815.00,0.0003
1814.00,0.0004
1813.00,0.0005
1812.00,0.0007
1811.00,0.0008
1810.00,0.0008
1809.00,0.0009
1808.00,0.0009
1807.00,0.0009
1806.00,0.0009
1805.00,0.0009
1804.00,0.0009
1803.00,0.0009
1802.00,0.0008
1801.00,0.0008
1800.00,0.0008
1799.00,0.0008
1798.00,0.0009
1797.00,0.0009
1796.00,0.0010
1795.00,0.0010
1794.00,0.0010
1793.00,0.0010
1792.00,0.0011
1791.00,0.0011
1790.00,0.0011
1789.00,0.0011
1788.00,0.0011
1787.00,0.0012
1786.00,0.0012
1785.00,0.0012
1784.00,0.0012
1783.00,0.0013
1782.00,0.0013
1781.00,0.0013
1780.00,0.0012
1779.00,0.0012
1778.00,0.0012
1777.00,0.0012
1776.00,0.0012
1775.00,0.0013
1774.00,0.0013
1773.00,0.0013
1772.00,0.0014
1771.00,0.0014
1770.00,0.0015
1769.00,0.0015
1768.00,0.0015
1767.00,0.0015
1766.00,0.0015
1765.00,0.0015
1764.00,0.0016
1763.00,0.0016
1762.00,0.0017
1761.00,0.0018
1760.00,0.0018
1759.00,0.0019
1758.00,0.0019
1757.00,0.0020
1756.00,0.0020
1755.00,0.0021
1754.00,0.0022
1753.00,0.0022
1752.00,0.0023
1751.00,0.0024
1750.00,0.0024
1749.00,0.0025
1748.00,0.0027
1747.00,0.0028
1746.00,0.0030
1745.00,0.0031
1744.00,0.0032
1743.00,0.0033
1742.00,0.0033
1741.00,0.0033
1740.00,0.0034
1739.00,0.0035
1738.00,0.0035
1737.00,0.0035
1736.00,0.0035
1735.00,0.0036
1734.00,0.0036
1733.00,0.0037
1732.00,0.0037
1731.00,0.0037
1730.00,0.0037
1729.00,0.0037
1728.00,0.0038
1727.00,0.0038
1726.00,0.0037
1725.00,0.0038
1724.00,0.0038
1723.00,0.0038
1722.00,0.0038
1721.00,0.0038
1720.00,0.0037
1719.00,0.0036
1718.00,0.0035
1717.00,0.0034
1716.00,0.0035
1715.00,0.0035
1714.00,0.0036
1713.00,0.0036
1712.00,0.0036
1711.00,0.0036
1710.00,0.0037
1709.00,0.0037
1708.00,0.0037
1707.00,0.0037
1706.00,0.0037
1705.00,0.0037
1704.00,0.0037
1703.00,0.0037
1702.00,0.0038
1701.00,0.0039
1700.00,0.0042
1699.00,0.0043
1698.00,0.0043
1697.00,0.0044
1696.00,0.0047
1695.00,0.0050
1694.00,0.0053
1693.00,0.0055
1692.00,0.0057
1691.00,0.0059
1690.00,0.0061
1689.00,0.0064
1688.00,0.0066
1687.00,0.0067
1686.00,0.0069
1685.00,0.0071
1684.00,0.0074
1683.00,0.0077
1682.00,0.0079
1681.00,0.0081
1680.00,0.0083
1679.00,0.0085
1678.00,0.0087
1677.00,0.0089
1676.00,0.0091
1675.00,0.0094
1674.00,0.0095
1673.00,0.0096
1672.00,0.0097
1671.00,0.0099
1670.00,0.0102
1669.00,0.0105
1668.00,0.0107
1667.00,0.0108
1666.00,0.0108
1665.00,0.0108
1664.00,0.0109
1663.00,0.0110
1662.00,0.0112
1661.00,0.0114
1660.00,0.0115
1659.00,0.0116
1658.00,0.0117
1657.00,0.0118
1656.00,0.0119
1655.00,0.0119
1654.00,0.0120
1653.00,0.0122
1652.00,0.0123
1651.00,0.0124
1650.00,0.0125
1649.00,0.0126
1648.00,0.0127
1647.00,0.0128
1646.00,0.0129
1645.00,0.0129
1644.00,0.0130
1643.00,0.0131
1642.00,0.0131
1641.00,0.0132
1640.00,0.0132
1639.00,0.0133
1638.00,0.0133
1637.00,0.0134
1636.00,0.0134
1635.00,0.0133
1634.00,0.0132
1633.00,0.0132
1632.00,0.0131
1631.00,0.0130
1630.00,0.0129
1629.00,0.0129
1628.00,0.0128
1627.00,0.0127
1626.00,0.0126
1625.00,0.0126
1624.00,0.0126
1623.00,0.0125
1622.00,0.0123
1621.00,0.0122
1620.00,0.0121
1619.00,0.0120
1618.00,0.0118
1617.00,0.0117
1616.00,0.0117
1615.00,0.0117
1614.00,0.0116
1613.00,0.0116
1612.00,0.0116
1611.00,0.0116
1610.00,0.0116
1609.00,0.0116
1608.00,0.0115
1607.00,0.0115
1606.00,0.0114
1605.00,0.0114
1604.00,0.0114
1603.00,0.0113
1602.00,0.0113
1601.00,0.0113
1600.00,0.0113
1599.00,0.0112
1598.00,0.0112
1597.00,0.0112
1596.00,0.0112
1595.00,0.0112
1594.00,0.0112
1593.00,0.0112
1592.00,0.0112
1591.00,0.0111
1590.00,0.0111
1589.00,0.0112
1588.00,0.0112
1587.00,0.0113
1586.00,0.0114
1585.00,0.0115
1584.00,0.0117
1583.00,0.0119
1582.00,0.0121
1581.00,0.0124
1580.00,0.0126
1579.00,0.0127
1578.00,0.0128
1577.00,0.0129
1576.00,0.0129
1575.00,0.0129
1574.00,0.0128
1573.00,0.0128
1572.00,0.0127
1571.00,0.0126
1570.00,0.0124
1569.00,0.0124
1568.00,0.0124
1567.00,0.0124
1566.00,0.0123
1565.00,0.0124
1564.00,0.0124
1563.00,0.0124
1562.00,0.0125
1561.00,0.0126
1560.00,0.0127
1559.00,0.0127
1558.00,0.0128
1557.00,0.0129
1556.00,0.0130
1555.00,0.0132
1554.00,0.0133
1553.00,0.0135
1552.00,0.0137
1551.00,0.0139
1550.00,0.0140
1549.00,0.0142
1548.00,0.0144
1547.00,0.0146
1546.00,0.0147
1545.00,0.0149
1544.00,0.0150
1543.00,0.0151
1542.00,0.0150
1541.00,0.0148
1540.00,0.0145
1539.00,0.0140
1538.00,0.0136
1537.00,0.0133
1536.00,0.0131
1535.00,0.0127
1534.00,0.0122
1533.00,0.0118
1532.00,0.0114
1531.00,0.0111
1530.00,0.0109
1529.00,0.0107
1528.00,0.0105
1527.00,0.0103
1526.00,0.0101
1525.00,0.0099
1524.00,0.0099
1523.00,0.0098
1522.00,0.0096
1521.00,0.0096
1520.00,0.0096
1519.00,0.0096
1518.00,0.0096
1517.00,0.0096
1516.00,0.0096
1515.00,0.0095
1514.00,0.0095
1513.00,0.0095
1512.00,0.0095
1511.00,0.0095
1510.00,0.0095
1509.00,0.0096
1508.00,0.0096
1507.00,0.0094
1506.00,0.0094
1505.00,0.0096
1504.00,0.0098
1503.00,0.0100
1502.00,0.0103
1501.00,0.0105
1500.00,0.0109
1499.00,0.0112
1498.00,0.0115
1497.00,0.0119
1496.00,0.0123
1495.00,0.0127
1494.00,0.0130
1493.00,0.0134
1492.00,0.0139
1491.00,0.0144
1490.00,0.0150
1489.00,0.0156
1488.00,0.0162
1487.00,0.0167
1486.00,0.0172
1485.00,0.0178
1484.00,0.0185
1483.00,0.0193
1482.00,0.0201
1481.00,0.0211
1480.00,0.0223
1479.00,0.0235
1478.00,0.0249
1477.00,0.0269
1476.00,0.0292
1475.00,0.0320
1474.00,0.0357
1473.00,0.0411
1472.00,0.0476
1471.00,0.0539
1470.00,0.0599
1469.00,0.0660
1468.00,0.0724
1467.00,0.0793
1466.00,0.0870
1465.00,0.0951
1464.00,0.1022
1463.00,0.1071
1462.00,0.1103
1461.00,0.1127
1460.00,0.1144
1459.00,0.1157
1458.00,0.1170
1457.00,0.1182
1456.00,0.1188
1455.00,0.1185
1454.00,0.1178
1453.00,0.1166
1452.00,0.1145
1451.00,0.1113
1450.00,0.1068
1449.00,0.1003
1448.00,0.0918
1447.00,0.0828
1446.00,0.0745
1445.00,0.0673
1444.00,0.0611
1443.00,0.0560
1442.00,0.0520
1441.00,0.0491
1440.00,0.0473
1439.00,0.0463
1438.00,0.0459
1437.00,0.0455
1436.00,0.0443
1435.00,0.0418
1434.00,0.0386
1433.00,0.0347
1432.00,0.0307
1431.00,0.0271
1430.00,0.0243
1429.00,0.0222
1428.00,0.0207
1427.00,0.0198
1426.00,0.0192
1425.00,0.0187
1424.00,0.0182
1423.00,0.0179
1422.00,0.0177
1421.00,0.0175
1420.00,0.0171
1419.00,0.0168
1418.00,0.0165
1417.00,0.0162
1416.00,0.0159
1415.00,0.0156
1414.00,0.0154
1413.00,0.0152
1412.00,0.0149
1411.00,0.0147
1410.00,0.0145
1409.00,0.0143
1408.00,0.0142
1407.00,0.0141
1406.00,0.0141
1405.00,0.0140
1404.00,0.0139
1403.00,0.0138
1402.00,0.0139
1401.00,0.0138
1400.00,0.0138
1399.00,0.0138
1398.00,0.0139
1397.00,0.0139
1396.00,0.0140
1395.00,0.0142
1394.00,0.0145
1393.00,0.0149
1392.00,0.0153
1391.00,0.0160
1390.00,0.0169
1389.00,0.0182
1388.00,0.0202
1387.00,0.0230
1386.00,0.0269
1385.00,0.0321
1384.00,0.0392
1383.00,0.0493
1382.00,0.0629
1381.00,0.0801
1380.00,0.1008
1379.00,0.1232
1378.00,0.1434
1377.00,0.1569
1376.00,0.1597
1375.00,0.1503
1374.00,0.1314
1373.00,0.1095
1372.00,0.0896
1371.00,0.0734
1370.00,0.0604
1369.00,0.0504
1368.00,0.0435
1367.00,0.0391
1366.00,0.0367
1365.00,0.0356
1364.00,0.0357
1363.00,0.0367
1362.00,0.0384
1361.00,0.0401
1360.00,0.0414
1359.00,0.0419
1358.00,0.0411
1357.00,0.0391
1356.00,0.0362
1355.00,0.0330
1354.00,0.0299
1353.00,0.0272
1352.00,0.0250
1351.00,0.0232
1350.00,0.0216
1349.00,0.0203
1348.00,0.0193
1347.00,0.0184
1346.00,0.0177
1345.00,0.0171
1344.00,0.0165
1343.00,0.0160
1342.00,0.0155
1341.00,0.0151
1340.00,0.0147
1339.00,0.0145
1338.00,0.0143
1337.00,0.0142
1336.00,0.0143
1335.00,0.0144
1334.00,0.0146
1333.00,0.0149
1332.00,0.0153
1331.00,0.0155
1330.00,0.0156
1329.00,0.0156
1328.00,0.0154
1327.00,0.0150
1326.00,0.0145
1325.00,0.0140
1324.00,0.0135
1323.00,0.0130
1322.00,0.0127
1321.00,0.0124
1320.00,0.0123
1319.00,0.0121
1318.00,0.0120
1317.00,0.0119
1316.00,0.0118
1315.00,0.0118
1314.00,0.0118
1313.00,0.0119
1312.00,0.0120
1311.00,0.0123
1310.00,0.0128
1309.00,0.0136
1308.00,0.0147
1307.00,0.0161
1306.00,0.0174
1305.00,0.0182
1304.00,0.0184
1303.00,0.0179
1302.00,0.0172
1301.00,0.0165
1300.00,0.0159
1299.00,0.0156
1298.00,0.0154
1297.00,0.0153
1296.00,0.0151
1295.00,0.0149
1294.00,0.0145
1293.00,0.0141
1292.00,0.0136
1291.00,0.0132
1290.00,0.0128
1289.00,0.0123
1288.00,0.0120
1287.00,0.0117
1286.00,0.0115
1285.00,0.0113
1284.00,0.0111
1283.00,0.0110
1282.00,0.0108
1281.00,0.0107
1280.00,0.0106
1279.00,0.0105
1278.00,0.0105
1277.00,0.0104
1276.00,0.0103
1275.00,0.0102
1274.00,0.0102
1273.00,0.0102
1272.00,0.0103
1271.00,0.0103
1270.00,0.0104
1269.00,0.0105
1268.00,0.0107
1267.00,0.0110
1266.00,0.0113
1265.00,0.0116
1264.00,0.0120
1263.00,0.0125
1262.00,0.0129
1261.00,0.0135
1260.00,0.0141
1259.00,0.0149
1258.00,0.0157
1257.00,0.0163
1256.00,0.0165
1255.00,0.0161
1254.00,0.0153
1253.00,0.0142
1252.00,0.0132
1251.00,0.0123
1250.00,0.0117
1249.00,0.0113
1248.00,0.0111
1247.00,0.0109
1246.00,0.0107
1245.00,0.0105
1244.00,0.0104
1243.00,0.0103
1242.00,0.0102
1241.00,0.0101
1240.00,0.0100
1239.00,0.0099
1238.00,0.0098
1237.00,0.0098
1236.00,0.0098
1235.00,0.0099
1234.00,0.0100
1233.00,0.0101
1232.00,0.0102
1231.00,0.0104
1230.00,0.0105
1229.00,0.0107
1228.00,0.0108
1227.00,0.0111
1226.00,0.0113
1225.00,0.0116
1224.00,0.0120
1223.00,0.0123
1222.00,0.0127
1221.00,0.0130
1220.00,0.0132
1219.00,0.0133
1218.00,0.0133
1217.00,0.0132
1216.00,0.0129
1215.00,0.0126
1214.00,0.0122
1213.00,0.0118
1212.00,0.0116
1211.00,0.0114
1210.00,0.0112
1209.00,0.0111
1208.00,0.0110
1207.00,0.0110
1206.00,0.0110
1205.00,0.0109
1204.00,0.0109
1203.00,0.0109
1202.00,0.0110
1201.00,0.0110
1200.00,0.0110
1199.00,0.0109
1198.00,0.0108
1197.00,0.0108
1196.00,0.0108
1195.00,0.0109
1194.00,0.0109
1193.00,0.0110
1192.00,0.0110
1191.00,0.0110
1190.00,0.0110
1189.00,0.0110
1188.00,0.0110
1187.00,0.0110
1186.00,0.0110
1185.00,0.0110
1184.00,0.0110
1183.00,0.0110
1182.00,0.0112
1181.00,0.0115
1180.00,0.0119
1179.00,0.0125
1178.00,0.0131
1177.00,0.0140
1176.00,0.0152
1175.00,0.0168
1174.00,0.0191
1173.00,0.0220
1172.00,0.0254
1171.00,0.0291
1170.00,0.0328
1169.00,0.0358
1168.00,0.0375
1167.00,0.0377
1166.00,0.0366
1165.00,0.0346
1164.00,0.0323
1163.00,0.0301
1162.00,0.0282
1161.00,0.0266
1160.00,0.0253
1159.00,0.0242
1158.00,0.0234
1157.00,0.0228
1156.00,0.0224
1155.00,0.0221
1154.00,0.0219
1153.00,0.0216
1152.00,0.0212
1151.00,0.0207
1150.00,0.0200
1149.00,0.0193
1148.00,0.0185
1147.00,0.0177
1146.00,0.0170
1145.00,0.0163
1144.00,0.0158
1143.00,0.0152
1142.00,0.0147
1141.00,0.0142
1140.00,0.0138
1139.00,0.0135
1138.00,0.0133
1137.00,0.0131
1136.00,0.0129
1135.00,0.0127
1134.00,0.0126
1133.00,0.0126
1132.00,0.0126
1131.00,0.0127
1130.00,0.0128
1129.00,0.0129
1128.00,0.0131
1127.00,0.0133
1126.00,0.0135
1125.00,0.0137
1124.00,0.0140
1123.00,0.0143
1122.00,0.0145
1121.00,0.0147
1120.00,0.0149
1119.00,0.0151
1118.00,0.0153
1117.00,0.0155
1116.00,0.0156
1115.00,0.0158
1114.00,0.0160
1113.00,0.0161
1112.00,0.0163
1111.00,0.0164
1110.00,0.0167
1109.00,0.0170
1108.00,0.0175
1107.00,0.0180
1106.00,0.0184
1105.00,0.0188
1104.00,0.0191
1103.00,0.0193
1102.00,0.0192
1101.00,0.0189
1100.00,0.0182
1099.00,0.0175
1098.00,0.0169
1097.00,0.0163
1096.00,0.0158
1095.00,0.0153
1094.00,0.0149
1093.00,0.0145
1092.00,0.0141
1091.00,0.0137
1090.00,0.0134
1089.00,0.0133
1088.00,0.0133
1087.00,0.0133
1086.00,0.0133
1085.00,0.0132
1084.00,0.0131
1083.00,0.0128
1082.00,0.0126
1081.00,0.0124
1080.00,0.0123
1079.00,0.0121
1078.00,0.0120
1077.00,0.0118
1076.00,0.0116
1075.00,0.0115
1074.00,0.0114
1073.00,0.0113
1072.00,0.0113
1071.00,0.0112
1070.00,0.0112
1069.00,0.0112
1068.00,0.0112
1067.00,0.0113
1066.00,0.0114
1065.00,0.0115
1064.00,0.0116
1063.00,0.0116
1062.00,0.0117
1061.00,0.0118
1060.00,0.0119
1059.00,0.0120
1058.00,0.0121
1057.00,0.0121
1056.00,0.0122
1055.00,0.0124
1054.00,0.0127
1053.00,0.0131
1052.00,0.0135
1051.00,0.0139
1050.00,0.0143
1049.00,0.0149
1048.00,0.0155
1047.00,0.0161
1046.00,0.0167
1045.00,0.0171
1044.00,0.0172
1043.00,0.0171
1042.00,0.0168
1041.00,0.0165
1040.00,0.0164
1039.00,0.0163
1038.00,0.0163
1037.00,0.0163
1036.00,0.0162
1035.00,0.0160
1034.00,0.0159
1033.00,0.0157
1032.00,0.0156
1031.00,0.0154
1030.00,0.0154
1029.00,0.0154
1028.00,0.0155
1027.00,0.0156
1026.00,0.0157
1025.00,0.0157
1024.00,0.0158
1023.00,0.0160
1022.00,0.0162
1021.00,0.0164
1020.00,0.0166
1019.00,0.0167
1018.00,0.0169
1017.00,0.0169
1016.00,0.0169
1015.00,0.0169
1014.00,0.0169
1013.00,0.0169
1012.00,0.0169
1011.00,0.0169
1010.00,0.0170
1009.00,0.0171
1008.00,0.0174
1007.00,0.0179
1006.00,0.0186
1005.00,0.0198
1004.00,0.0217
1003.00,0.0243
1002.00,0.0280
1001.00,0.0325
1000.00,0.0374
999.00,0.0416
998.00,0.0438
997.00,0.0434
996.00,0.0402
995.00,0.0355
994.00,0.0303
993.00,0.0258
992.00,0.0223
991.00,0.0198
990.00,0.0180
989.00,0.0168
988.00,0.0159
987.00,0.0154
986.00,0.0152
985.00,0.0152
984.00,0.0155
983.00,0.0161
982.00,0.0171
981.00,0.0186
980.00,0.0208
979.00,0.0237
978.00,0.0275
977.00,0.0322
976.00,0.0374
975.00,0.0425
974.00,0.0466
973.00,0.0482
972.00,0.0468
971.00,0.0426
970.00,0.0365
969.00,0.0302
968.00,0.0248
967.00,0.0207
966.00,0.0177
965.00,0.0155
964.00,0.0140
963.00,0.0128
962.00,0.0120
961.00,0.0114
960.00,0.0108
959.00,0.0103
958.00,0.0098
957.00,0.0094
956.00,0.0090
955.00,0.0087
954.00,0.0084
953.00,0.0083
952.00,0.0082
951.00,0.0081
950.00,0.0081
949.00,0.0080
948.00,0.0080
947.00,0.0081
946.00,0.0083
945.00,0.0086
944.00,0.0089
943.00,0.0092
942.00,0.0095
941.00,0.0097
940.00,0.0098
939.00,0.0096
938.00,0.0093
937.00,0.0089
936.00,0.0086
935.00,0.0084
934.00,0.0082
933.00,0.0081
932.00,0.0081
931.00,0.0081
930.00,0.0081
929.00,0.0081
928.00,0.0080
927.00,0.0079
926.00,0.0079
925.00,0.0079
924.00,0.0080
923.00,0.0081
922.00,0.0082
921.00,0.0083
920.00,0.0083
919.00,0.0083
918.00,0.0083
917.00,0.0083
916.00,0.0084
915.00,0.0085
914.00,0.0087
913.00,0.0088
912.00,0.0088
911.00,0.0089
910.00,0.0090
909.00,0.0093
908.00,0.0097
907.00,0.0102
906.00,0.0108
905.00,0.0117
904.00,0.0129
903.00,0.0144
902.00,0.0160
901.00,0.0175
900.00,0.0184
899.00,0.0185
898.00,0.0178
897.00,0.0164
896.00,0.0148
895.00,0.0133
894.00,0.0121
893.00,0.0112
892.00,0.0107
891.00,0.0103
890.00,0.0101
889.00,0.0099
888.00,0.0097
887.00,0.0096
886.00,0.0096
885.00,0.0096
884.00,0.0096
883.00,0.0096
882.00,0.0097
881.00,0.0098
880.00,0.0099
879.00,0.0100
878.00,0.0101
877.00,0.0102
876.00,0.0104
875.00,0.0105
874.00,0.0106
873.00,0.0105
872.00,0.0103
871.00,0.0100
870.00,0.0098
869.00,0.0097
868.00,0.0097
867.00,0.0097
866.00,0.0099
865.00,0.0101
864.00,0.0102
863.00,0.0103
862.00,0.0103
861.00,0.0103
860.00,0.0103
859.00,0.0104
858.00,0.0105
857.00,0.0107
856.00,0.0110
855.00,0.0112
854.00,0.0115
853.00,0.0117
852.00,0.0119
851.00,0.0123
850.00,0.0129
849.00,0.0137
848.00,0.0148
847.00,0.0166
846.00,0.0192
845.00,0.0232
844.00,0.0289
843.00,0.0355
842.00,0.0413
841.00,0.0436
840.00,0.0414
839.00,0.0355
838.00,0.0285
837.00,0.0227
836.00,0.0188
835.00,0.0166
834.00,0.0153
833.00,0.0145
832.00,0.0138
831.00,0.0131
830.00,0.0125
829.00,0.0122
828.00,0.0120
827.00,0.0120
826.00,0.0120
825.00,0.0119
824.00,0.0118
823.00,0.0118
822.00,0.0119
821.00,0.0121
820.00,0.0123
819.00,0.0126
818.00,0.0130
817.00,0.0135
816.00,0.0142
815.00,0.0152
814.00,0.0165
813.00,0.0180
812.00,0.0197
811.00,0.0212
810.00,0.0223
809.00,0.0227
808.00,0.0223
807.00,0.0213
806.00,0.0200
805.00,0.0185
804.00,0.0172
803.00,0.0161
802.00,0.0153
801.00,0.0146
800.00,0.0140
799.00,0.0135
798.00,0.0130
797.00,0.0126
796.00,0.0122
795.00,0.0119
794.00,0.0117
793.00,0.0115
792.00,0.0113
791.00,0.0112
790.00,0.0109
789.00,0.0106
788.00,0.0103
787.00,0.0100
786.00,0.0097
785.00,0.0094
784.00,0.0092
783.00,0.0092
782.00,0.0093
781.00,0.0095
780.00,0.0096
779.00,0.0096
778.00,0.0095
777.00,0.0094
776.00,0.0093
775.00,0.0092
774.00,0.0091
773.00,0.0091
772.00,0.0091
771.00,0.0092
770.00,0.0093
769.00,0.0093
768.00,0.0093
767.00,0.0094
766.00,0.0095
765.00,0.0095
764.00,0.0094
763.00,0.0093
762.00,0.0092
761.00,0.0091
760.00,0.0090
759.00,0.0092
758.00,0.0094
757.00,0.0098
756.00,0.0100
755.00,0.0101
754.00,0.0101
753.00,0.0102
752.00,0.0102
751.00,0.0104
750.00,0.0106
749.00,0.0107
748.00,0.0108
747.00,0.0111
746.00,0.0114
745.00,0.0119
744.00,0.0123
743.00,0.0126
742.00,0.0128
741.00,0.0130
740.00,0.0134
739.00,0.0139
738.00,0.0145
737.00,0.0150
736.00,0.0155
735.00,0.0160
734.00,0.0165
733.00,0.0172
732.00,0.0179
731.00,0.0187
730.00,0.0192
729.00,0.0195
728.00,0.0196
727.00,0.0196
726.00,0.0198
725.00,0.0201
724.00,0.0206
723.00,0.0211
722.00,0.0214
721.00,0.0215
720.00,0.0212
719.00,0.0203
718.00,0.0192
717.00,0.0180
716.00,0.0169
715.00,0.0162
714.00,0.0156
713.00,0.0152
712.00,0.0148
711.00,0.0146
710.00,0.0144
709.00,0.0143
708.00,0.0143
707.00,0.0143
706.00,0.0144
705.00,0.0143
704.00,0.0141
703.00,0.0140
702.00,0.0139
701.00,0.0138
700.00,0.0137
699.00,0.0135
698.00,0.0133
697.00,0.0131
696.00,0.0129
695.00,0.0127
694.00,0.0125
693.00,0.0125
692.00,0.0125
691.00,0.0126
690.00,0.0126
689.00,0.0126
688.00,0.0125
687.00,0.0125
686.00,0.0124
685.00,0.0124
684.00,0.0124
683.00,0.0125
682.00,0.0126
681.00,0.0127
680.00,0.0127
679.00,0.0127
678.00,0.0128
677.00,0.0129
676.00,0.0130
675.00,0.0131
674.00,0.0132
673.00,0.0132
672.00,0.0133
671.00,0.0135
670.00,0.0137
669.00,0.0139
668.00,0.0140
667.00,0.0140
666.00,0.0137
665.00,0.0133
664.00,0.0130
663.00,0.0127
662.00,0.0126
661.00,0.0124
660.00,0.0123
659.00,0.0120
658.00,0.0117
657.00,0.0114
656.00,0.0114
655.00,0.0115
654.00,0.0117
653.00,0.0118
652.00,0.0118
651.00,0.0116
650.00,0.0115
649.00,0.0115
648.00,0.0116
647.00,0.0118
646.00,0.0118
645.00,0.0118
644.00,0.0118
643.00,0.0118
642.00,0.0117
641.00,0.0115
640.00,0.0113
639.00,0.0113
638.00,0.0115
637.00,0.0118
636.00,0.0120
635.00,0.0120
634.00,0.0119
633.00,0.0118
632.00,0.0118
631.00,0.0119
630.00,0.0119
629.00,0.0120
628.00,0.0121
627.00,0.0123
626.00,0.0125
625.00,0.0125
624.00,0.0125
623.00,0.0124
622.00,0.0124
621.00,0.0124
620.00,0.0124
619.00,0.0124
618.00,0.0123
617.00,0.0123
616.00,0.0124
615.00,0.0123
614.00,0.0122
613.00,0.0121
612.00,0.0120
611.00,0.0119
610.00,0.0119
609.00,0.0119
608.00,0.0119
607.00,0.0120
606.00,0.0121
605.00,0.0122
604.00,0.0123
603.00,0.0124
602.00,0.0124
601.00,0.0124
600.00,0.0122
599.00,0.0120
598.00,0.0119
597.00,0.0119
596.00,0.0122
595.00,0.0126
594.00,0.0128
593.00,0.0127
592.00,0.0124
591.00,0.0122
590.00,0.0122
589.00,0.0123
588.00,0.0124
587.00,0.0123
586.00,0.0121
585.00,0.0119
584.00,0.0120
583.00,0.0123
582.00,0.0126
581.00,0.0127
580.00,0.0125
579.00,0.0124
578.00,0.0122
577.00,0.0121
576.00,0.0119
575.00,0.0117
574.00,0.0118
573.00,0.0120
572.00,0.0122
571.00,0.0124
570.00,0.0125
569.00,0.0125
568.00,0.0126
567.00,0.0127
566.00,0.0127
565.00,0.0125
564.00,0.0122
563.00,0.0117
562.00,0.0113
561.00,0.0111
560.00,0.0114
559.00,0.0119
558.00,0.0123
557.00,0.0125
556.00,0.0123
555.00,0.0120
554.00,0.0118
553.00,0.0119
552.00,0.0120
551.00,0.0121
550.00,0.0121
549.00,0.0121
548.00,0.0121
547.00,0.0122
546.00,0.0123
545.00,0.0123
544.00,0.0123
543.00,0.0123
542.00,0.0124
541.00,0.0124
540.00,0.0124
539.00,0.0127
538.00,0.0133
537.00,0.0141
536.00,0.0147
535.00,0.0151
534.00,0.0151
533.00,0.0150
532.00,0.0147
531.00,0.0146
530.00,0.0146
529.00,0.0146
528.00,0.0146
527.00,0.0144
526.00,0.0140
525.00,0.0135
524.00,0.0131
523.00,0.0126
522.00,0.0121
521.00,0.0118
520.00,0.0118
519.00,0.0121
518.00,0.0125
517.00,0.0128
516.00,0.0127
515.00,0.0122
514.00,0.0116
513.00,0.0112
512.00,0.0112
511.00,0.0115
510.00,0.0119
509.00,0.0121
508.00,0.0121
507.00,0.0120
506.00,0.0121
505.00,0.0124
504.00,0.0126
503.00,0.0127
502.00,0.0125
501.00,0.0124
500.00,0.0124
499.00,0.0126
498.00,0.0126
497.00,0.0124
496.00,0.0120
495.00,0.0116
494.00,0.0113
493.00,0.0112
492.00,0.0113
491.00,0.0114
490.00,0.0118
489.00,0.0123
488.00,0.0126
487.00,0.0126
486.00,0.0123
485.00,0.0121
484.00,0.0121
483.00,0.0120
482.00,0.0118
481.00,0.0116
480.00,0.0118
479.00,0.0123
478.00,0.0127
477.00,0.0129
476.00,0.0132
475.00,0.0138
474.00,0.0146
473.00,0.0150
472.00,0.0154
471.00,0.0161
470.00,0.0175
469.00,0.0189
468.00,0.0199
467.00,0.0201
466.00,0.0194
465.00,0.0183
464.00,0.0173
463.00,0.0172
462.00,0.0185
461.00,0.0209
460.00,0.0235
459.00,0.0253
458.00,0.0253
457.00,0.0237
456.00,0.0219
455.00,0.0209
454.00,0.0206
453.00,0.0205
452.00,0.0204
451.00,0.0201
450.00,0.0194
