Created as New Dataset,Sample 067 By Administrator Date Thursday, September 04 2025
cm-1,A
4000.00,0.0009
3999.00,0.0010
3998.00,0.0010
3997.00,0.0010
3996.00,0.0010
3995.00,0.0010
3994.00,0.0010
3993.00,0.0010
3992.00,0.0010
3991.00,0.0010
3990.00,0.0009
3989.00,0.0009
3988.00,0.0009
3987.00,0.0008
3986.00,0.0008
3985.00,0.0008
3984.00,0.0008
3983.00,0.0009
3982.00,0.0009
3981.00,0.0009
3980.00,0.0009
3979.00,0.0009
3978.00,0.0009
3977.00,0.0008
3976.00,0.0008
3975.00,0.0008
3974.00,0.0007
3973.00,0.0008
3972.00,0.0008
3971.00,0.0008
3970.00,0.0008
3969.00,0.0008
3968.00,0.0008
3967.00,0.0008
3966.00,0.0008
3965.00,0.0008
3964.00,0.0008
3963.00,0.0008
3962.00,0.0007
3961.00,0.0007
3960.00,0.0007
3959.00,0.0007
3958.00,0.0007
3957.00,0.0007
3956.00,0.0007
3955.00,0.0007
3954.00,0.0007
3953.00,0.0008
3952.00,0.0008
3951.00,0.0008
3950.00,0.0008
3949.00,0.0008
3948.00,0.0007
3947.00,0.0008
3946.00,0.0008
3945.00,0.0008
3944.00,0.0008
3943.00,0.0008
3942.00,0.0008
3941.00,0.0008
3940.00,0.0008
3939.00,0.0008
3938.00,0.0008
3937.00,0.0008
3936.00,0.0008
3935.00,0.0007
3934.00,0.0007
3933.00,0.0008
3932.00,0.0008
3931.00,0.0009
3930.00,0.0009
3929.00,0.0009
3928.00,0.0009
3927.00,0.0008
3926.00,0.0008
3925.00,0.0008
3924.00,0.0009
3923.00,0.0009
3922.00,0.0008
3921.00,0.0008
3920.00,0.0008
3919.00,0.0007
3918.00,0.0007
3917.00,0.0007
3916.00,0.0007
3915.00,0.0008
3914.00,0.0008
3913.00,0.0008
3912.00,0.0008
3911.00,0.0008
3910.00,0.0008
3909.00,0.0008
3908.00,0.0008
3907.00,0.0008
3906.00,0.0008
3905.00,0.0008
3904.00,0.0008
3903.00,0.0008
3902.00,0.0008
3901.00,0.0008
3900.00,0.0008
3899.00,0.0008
3898.00,0.0008
3897.00,0.0008
3896.00,0.0008
3895.00,0.0008
3894.00,0.0008
3893.00,0.0008
3892.00,0.0007
3891.00,0.0007
3890.00,0.0007
3889.00,0.0007
3888.00,0.0007
3887.00,0.0007
3886.00,0.0007
3885.00,0.0007
3884.00,0.0007
3883.00,0.0007
3882.00,0.0007
3881.00,0.0007
3880.00,0.0007
3879.00,0.0007
3878.00,0.0007
3877.00,0.0007
3876.00,0.0007
3875.00,0.0007
3874.00,0.0008
3873.00,0.0008
3872.00,0.0008
3871.00,0.0007
3870.00,0.0007
3869.00,0.0007
3868.00,0.0008
3867.00,0.0007
3866.00,0.0007
3865.00,0.0007
3864.00,0.0007
3863.00,0.0007
3862.00,0.0007
3861.00,0.0007
3860.00,0.0007
3859.00,0.0007
3858.00,0.0007
3857.00,0.0008
3856.00,0.0008
3855.00,0.0007
3854.00,0.0006
3853.00,0.0006
3852.00,0.0006
3851.00,0.0006
3850.00,0.0005
3849.00,0.0005
3848.00,0.0006
3847.00,0.0006
3846.00,0.0006
3845.00,0.0007
3844.00,0.0007
3843.00,0.0008
3842.00,0.0008
3841.00,0.0008
3840.00,0.0008
3839.00,0.0008
3838.00,0.0008
3837.00,0.0008
3836.00,0.0008
3835.00,0.0008
3834.00,0.0008
3833.00,0.0008
3832.00,0.0007
3831.00,0.0007
3830.00,0.0007
3829.00,0.0007
3828.00,0.0007
3827.00,0.0007
3826.00,0.0008
3825.00,0.0008
3824.00,0.0008
3823.00,0.0008
3822.00,0.0008
3821.00,0.0008
3820.00,0.0008
3819.00,0.0008
3818.00,0.0008
3817.00,0.0008
3816.00,0.0007
3815.00,0.0007
3814.00,0.0008
3813.00,0.0008
3812.00,0.0008
3811.00,0.0009
3810.00,0.0009
3809.00,0.0008
3808.00,0.0008
3807.00,0.0007
3806.00,0.0007
3805.00,0.0007
3804.00,0.0008
3803.00,0.0008
3802.00,0.0008
3801.00,0.0008
3800.00,0.0008
3799.00,0.0008
3798.00,0.0008
3797.00,0.0007
3796.00,0.0007
3795.00,0.0007
3794.00,0.0007
3793.00,0.0006
3792.00,0.0006
3791.00,0.0006
3790.00,0.0006
3789.00,0.0007
3788.00,0.0007
3787.00,0.0007
3786.00,0.0007
3785.00,0.0007
3784.00,0.0007
3783.00,0.0007
3782.00,0.0007
3781.00,0.0007
3780.00,0.0007
3779.00,0.0008
3778.00,0.0008
3777.00,0.0007
3776.00,0.0007
3775.00,0.0007
3774.00,0.0008
3773.00,0.0008
3772.00,0.0008
3771.00,0.0007
3770.00,0.0008
3769.00,0.0008
3768.00,0.0009
3767.00,0.0009
3766.00,0.0009
3765.00,0.0009
3764.00,0.0009
3763.00,0.0009
3762.00,0.0008
3761.00,0.0008
3760.00,0.0009
3759.00,0.0009
3758.00,0.0009
3757.00,0.0009
3756.00,0.0008
3755.00,0.0008
3754.00,0.0008
3753.00,0.0008
3752.00,0.0008
3751.00,0.0008
3750.00,0.0008
3749.00,0.0008
3748.00,0.0008
3747.00,0.0009
3746.00,0.0009
3745.00,0.0008
3744.00,0.0008
3743.00,0.0007
3742.00,0.0007
3741.00,0.0006
3740.00,0.0006
3739.00,0.0005
3738.00,0.0005
3737.00,0.0006
3736.00,0.0006
3735.00,0.0006
3734.00,0.0006
3733.00,0.0006
3732.00,0.0006
3731.00,0.0007
3730.00,0.0007
3729.00,0.0007
3728.00,0.0006
3727.00,0.0006
3726.00,0.0006
3725.00,0.0006
3724.00,0.0006
3723.00,0.0006
3722.00,0.0006
3721.00,0.0006
3720.00,0.0006
3719.00,0.0006
3718.00,0.0007
3717.00,0.0007
3716.00,0.0007
3715.00,0.0006
3714.00,0.0006
3713.00,0.0006
3712.00,0.0006
3711.00,0.0006
3710.00,0.0006
3709.00,0.0006
3708.00,0.0006
3707.00,0.0006
3706.00,0.0006
3705.00,0.0007
3704.00,0.0007
3703.00,0.0007
3702.00,0.0007
3701.00,0.0006
3700.00,0.0006
3699.00,0.0006
3698.00,0.0006
3697.00,0.0006
3696.00,0.0006
3695.00,0.0006
3694.00,0.0006
3693.00,0.0006
3692.00,0.0005
3691.00,0.0005
3690.00,0.0006
3689.00,0.0006
3688.00,0.0006
3687.00,0.0006
3686.00,0.0006
3685.00,0.0006
3684.00,0.0005
3683.00,0.0005
3682.00,0.0005
3681.00,0.0006
3680.00,0.0006
3679.00,0.0007
3678.00,0.0008
3677.00,0.0007
3676.00,0.0007
3675.00,0.0007
3674.00,0.0007
3673.00,0.0007
3672.00,0.0006
3671.00,0.0006
3670.00,0.0006
3669.00,0.0006
3668.00,0.0006
3667.00,0.0006
3666.00,0.0005
3665.00,0.0005
3664.00,0.0005
3663.00,0.0005
3662.00,0.0005
3661.00,0.0005
3660.00,0.0004
3659.00,0.0004
3658.00,0.0004
3657.00,0.0004
3656.00,0.0004
3655.00,0.0004
3654.00,0.0005
3653.00,0.0005
3652.00,0.0005
3651.00,0.0005
3650.00,0.0006
3649.00,0.0007
3648.00,0.0007
3647.00,0.0006
3646.00,0.0006
3645.00,0.0005
3644.00,0.0005
3643.00,0.0005
3642.00,0.0006
3641.00,0.0007
3640.00,0.0007
3639.00,0.0007
3638.00,0.0007
3637.00,0.0007
3636.00,0.0006
3635.00,0.0006
3634.00,0.0006
3633.00,0.0006
3632.00,0.0006
3631.00,0.0006
3630.00,0.0005
3629.00,0.0005
3628.00,0.0005
3627.00,0.0006
3626.00,0.0006
3625.00,0.0007
3624.00,0.0007
3623.00,0.0007
3622.00,0.0008
3621.00,0.0008
3620.00,0.0008
3619.00,0.0009
3618.00,0.0009
3617.00,0.0010
3616.00,0.0010
3615.00,0.0010
3614.00,0.0010
3613.00,0.0009
3612.00,0.0009
3611.00,0.0009
3610.00,0.0008
3609.00,0.0008
3608.00,0.0008
3607.00,0.0009
3606.00,0.0009
3605.00,0.0009
3604.00,0.0009
3603.00,0.0009
3602.00,0.0010
3601.00,0.0010
3600.00,0.0011
3599.00,0.0010
3598.00,0.0010
3597.00,0.0010
3596.00,0.0010
3595.00,0.0010
3594.00,0.0011
3593.00,0.0011
3592.00,0.0011
3591.00,0.0011
3590.00,0.0011
3589.00,0.0010
3588.00,0.0011
3587.00,0.0012
3586.00,0.0012
3585.00,0.0013
3584.00,0.0013
3583.00,0.0013
3582.00,0.0013
3581.00,0.0013
3580.00,0.0013
3579.00,0.0013
3578.00,0.0013
3577.00,0.0013
3576.00,0.0013
3575.00,0.0013
3574.00,0.0013
3573.00,0.0013
3572.00,0.0013
3571.00,0.0014
3570.00,0.0014
3569.00,0.0014
3568.00,0.0015
3567.00,0.0016
3566.00,0.0016
3565.00,0.0016
3564.00,0.0016
3563.00,0.0016
3562.00,0.0016
3561.00,0.0016
3560.00,0.0016
3559.00,0.0017
3558.00,0.0017
3557.00,0.0017
3556.00,0.0017
3555.00,0.0018
3554.00,0.0018
3553.00,0.0018
3552.00,0.0018
3551.00,0.0018
3550.00,0.0019
3549.00,0.0019
3548.00,0.0019
3547.00,0.0019
3546.00,0.0020
3545.00,0.0020
3544.00,0.0020
3543.00,0.0020
3542.00,0.0021
3541.00,0.0021
3540.00,0.0021
3539.00,0.0021
3538.00,0.0021
3537.00,0.0022
3536.00,0.0022
3535.00,0.0022
3534.00,0.0022
3533.00,0.0021
3532.00,0.0021
3531.00,0.0021
3530.00,0.0022
3529.00,0.0022
3528.00,0.0023
3527.00,0.0023
3526.00,0.0023
3525.00,0.0024
3524.00,0.0024
3523.00,0.0024
3522.00,0.0024
3521.00,0.0025
3520.00,0.0025
3519.00,0.0025
3518.00,0.0025
3517.00,0.0025
3516.00,0.0025
3515.00,0.0026
3514.00,0.0026
3513.00,0.0026
3512.00,0.0027
3511.00,0.0027
3510.00,0.0028
3509.00,0.0028
3508.00,0.0028
3507.00,0.0028
3506.00,0.0028
3505.00,0.0028
3504.00,0.0028
3503.00,0.0029
3502.00,0.0029
3501.00,0.0029
3500.00,0.0029
3499.00,0.0030
3498.00,0.0030
3497.00,0.0030
3496.00,0.0031
3495.00,0.0031
3494.00,0.0031
3493.00,0.0032
3492.00,0.0031
3491.00,0.0031
3490.00,0.0031
3489.00,0.0031
3488.00,0.0031
3487.00,0.0032
3486.00,0.0032
3485.00,0.0033
3484.00,0.0033
3483.00,0.0034
3482.00,0.0034
3481.00,0.0034
3480.00,0.0034
3479.00,0.0034
3478.00,0.0034
3477.00,0.0035
3476.00,0.0035
3475.00,0.0035
3474.00,0.0035
3473.00,0.0035
3472.00,0.0036
3471.00,0.0036
3470.00,0.0036
3469.00,0.0036
3468.00,0.0036
3467.00,0.0036
3466.00,0.0036
3465.00,0.0036
3464.00,0.0037
3463.00,0.0037
3462.00,0.0038
3461.00,0.0038
3460.00,0.0039
3459.00,0.0039
3458.00,0.0039
3457.00,0.0039
3456.00,0.0039
3455.00,0.0039
3454.00,0.0039
3453.00,0.0039
3452.00,0.0040
3451.00,0.0040
3450.00,0.0041
3449.00,0.0041
3448.00,0.0041
3447.00,0.0042
3446.00,0.0042
3445.00,0.0042
3444.00,0.0043
3443.00,0.0043
3442.00,0.0043
3441.00,0.0043
3440.00,0.0043
3439.00,0.0044
3438.00,0.0044
3437.00,0.0044
3436.00,0.0045
3435.00,0.0045
3434.00,0.0045
3433.00,0.0046
3432.00,0.0046
3431.00,0.0047
3430.00,0.0047
3429.00,0.0047
3428.00,0.0047
3427.00,0.0048
3426.00,0.0048
3425.00,0.0048
3424.00,0.0048
3423.00,0.0048
3422.00,0.0049
3421.00,0.0050
3420.00,0.0050
3419.00,0.0050
3418.00,0.0051
3417.00,0.0051
3416.00,0.0051
3415.00,0.0051
3414.00,0.0051
3413.00,0.0051
3412.00,0.0051
3411.00,0.0052
3410.00,0.0052
3409.00,0.0052
3408.00,0.0053
3407.00,0.0054
3406.00,0.0055
3405.00,0.0056
3404.00,0.0057
3403.00,0.0059
3402.00,0.0059
3401.00,0.0060
3400.00,0.0061
3399.00,0.0062
3398.00,0.0062
3397.00,0.0062
3396.00,0.0062
3395.00,0.0062
3394.00,0.0062
3393.00,0.0062
3392.00,0.0062
3391.00,0.0062
3390.00,0.0062
3389.00,0.0061
3388.00,0.0060
3387.00,0.0060
3386.00,0.0060
3385.00,0.0060
3384.00,0.0060
3383.00,0.0060
3382.00,0.0059
3381.00,0.0059
3380.00,0.0059
3379.00,0.0058
3378.00,0.0058
3377.00,0.0058
3376.00,0.0058
3375.00,0.0057
3374.00,0.0058
3373.00,0.0058
3372.00,0.0058
3371.00,0.0058
3370.00,0.0058
3369.00,0.0058
3368.00,0.0058
3367.00,0.0057
3366.00,0.0057
3365.00,0.0057
3364.00,0.0057
3363.00,0.0057
3362.00,0.0058
3361.00,0.0058
3360.00,0.0058
3359.00,0.0058
3358.00,0.0059
3357.00,0.0059
3356.00,0.0059
3355.00,0.0059
3354.00,0.0059
3353.00,0.0059
3352.00,0.0059
3351.00,0.0059
3350.00,0.0059
3349.00,0.0059
3348.00,0.0059
3347.00,0.0059
3346.00,0.0058
3345.00,0.0058
3344.00,0.0058
3343.00,0.0058
3342.00,0.0058
3341.00,0.0058
3340.00,0.0058
3339.00,0.0058
3338.00,0.0058
3337.00,0.0058
3336.00,0.0058
3335.00,0.0058
3334.00,0.0058
3333.00,0.0058
3332.00,0.0058
3331.00,0.0058
3330.00,0.0058
3329.00,0.0058
3328.00,0.0058
3327.00,0.0058
3326.00,0.0058
3325.00,0.0058
3324.00,0.0058
3323.00,0.0058
3322.00,0.0058
3321.00,0.0058
3320.00,0.0059
3319.00,0.0059
3318.00,0.0059
3317.00,0.0059
3316.00,0.0059
3315.00,0.0058
3314.00,0.0058
3313.00,0.0059
3312.00,0.0059
3311.00,0.0059
3310.00,0.0060
3309.00,0.0060
3308.00,0.0061
3307.00,0.0061
3306.00,0.0062
3305.00,0.0063
3304.00,0.0063
3303.00,0.0063
3302.00,0.0063
3301.00,0.0063
3300.00,0.0063
3299.00,0.0062
3298.00,0.0061
3297.00,0.0061
3296.00,0.0061
3295.00,0.0060
3294.00,0.0060
3293.00,0.0059
3292.00,0.0058
3291.00,0.0058
3290.00,0.0057
3289.00,0.0057
3288.00,0.0057
3287.00,0.0057
3286.00,0.0057
3285.00,0.0057
3284.00,0.0056
3283.00,0.0056
3282.00,0.0055
3281.00,0.0055
3280.00,0.0054
3279.00,0.0054
3278.00,0.0054
3277.00,0.0054
3276.00,0.0054
3275.00,0.0053
3274.00,0.0053
3273.00,0.0053
3272.00,0.0053
3271.00,0.0053
3270.00,0.0053
3269.00,0.0053
3268.00,0.0052
3267.00,0.0052
3266.00,0.0052
3265.00,0.0051
3264.00,0.0051
3263.00,0.0051
3262.00,0.0051
3261.00,0.0051
3260.00,0.0050
3259.00,0.0050
3258.00,0.0050
3257.00,0.0050
3256.00,0.0050
3255.00,0.0050
3254.00,0.0050
3253.00,0.0050
3252.00,0.0049
3251.00,0.0049
3250.00,0.0049
3249.00,0.0049
3248.00,0.0048
3247.00,0.0048
3246.00,0.0048
3245.00,0.0048
3244.00,0.0049
3243.00,0.0049
3242.00,0.0049
3241.00,0.0049
3240.00,0.0049
3239.00,0.0049
3238.00,0.0049
3237.00,0.0049
3236.00,0.0049
3235.00,0.0049
3234.00,0.0049
3233.00,0.0049
3232.00,0.0049
3231.00,0.0048
3230.00,0.0048
3229.00,0.0048
3228.00,0.0048
3227.00,0.0049
3226.00,0.0050
3225.00,0.0050
3224.00,0.0051
3223.00,0.0052
3222.00,0.0052
3221.00,0.0052
3220.00,0.0052
3219.00,0.0052
3218.00,0.0052
3217.00,0.0052
3216.00,0.0052
3215.00,0.0052
3214.00,0.0052
3213.00,0.0052
3212.00,0.0053
3211.00,0.0053
3210.00,0.0054
3209.00,0.0054
3208.00,0.0055
3207.00,0.0055
3206.00,0.0055
3205.00,0.0056
3204.00,0.0056
3203.00,0.0056
3202.00,0.0056
3201.00,0.0056
3200.00,0.0056
3199.00,0.0056
3198.00,0.0057
3197.00,0.0057
3196.00,0.0057
3195.00,0.0057
3194.00,0.0057
3193.00,0.0058
3192.00,0.0058
3191.00,0.0058
3190.00,0.0058
3189.00,0.0058
3188.00,0.0057
3187.00,0.0057
3186.00,0.0057
3185.00,0.0057
3184.00,0.0057
3183.00,0.0057
3182.00,0.0056
3181.00,0.0056
3180.00,0.0055
3179.00,0.0054
3178.00,0.0054
3177.00,0.0053
3176.00,0.0053
3175.00,0.0052
3174.00,0.0052
3173.00,0.0051
3172.00,0.0051
3171.00,0.0051
3170.00,0.0050
3169.00,0.0050
3168.00,0.0050
3167.00,0.0050
3166.00,0.0050
3165.00,0.0049
3164.00,0.0049
3163.00,0.0049
3162.00,0.0048
3161.00,0.0048
3160.00,0.0048
3159.00,0.0048
3158.00,0.0048
3157.00,0.0048
3156.00,0.0048
3155.00,0.0048
3154.00,0.0047
3153.00,0.0047
3152.00,0.0047
3151.00,0.0047
3150.00,0.0047
3149.00,0.0047
3148.00,0.0047
3147.00,0.0047
3146.00,0.0046
3145.00,0.0046
3144.00,0.0046
3143.00,0.0046
3142.00,0.0046
3141.00,0.0046
3140.00,0.0045
3139.00,0.0045
3138.00,0.0045
3137.00,0.0044
3136.00,0.0044
3135.00,0.0043
3134.00,0.0043
3133.00,0.0043
3132.00,0.0042
3131.00,0.0042
3130.00,0.0042
3129.00,0.0042
3128.00,0.0042
3127.00,0.0041
3126.00,0.0041
3125.00,0.0040
3124.00,0.0040
3123.00,0.0039
3122.00,0.0039
3121.00,0.0039
3120.00,0.0039
3119.00,0.0039
3118.00,0.0039
3117.00,0.0039
3116.00,0.0039
3115.00,0.0038
3114.00,0.0038
3113.00,0.0037
3112.00,0.0037
3111.00,0.0037
3110.00,0.0036
3109.00,0.0036
3108.00,0.0036
3107.00,0.0037
3106.00,0.0037
3105.00,0.0037
3104.00,0.0037
3103.00,0.0037
3102.00,0.0037
3101.00,0.0036
3100.00,0.0036
3099.00,0.0036
3098.00,0.0036
3097.00,0.0036
3096.00,0.0036
3095.00,0.0035
3094.00,0.0035
3093.00,0.0035
3092.00,0.0035
3091.00,0.0035
3090.00,0.0035
3089.00,0.0035
3088.00,0.0035
3087.00,0.0035
3086.00,0.0034
3085.00,0.0034
3084.00,0.0034
3083.00,0.0034
3082.00,0.0034
3081.00,0.0034
3080.00,0.0034
3079.00,0.0034
3078.00,0.0034
3077.00,0.0034
3076.00,0.0034
3075.00,0.0035
3074.00,0.0035
3073.00,0.0035
3072.00,0.0035
3071.00,0.0035
3070.00,0.0035
3069.00,0.0035
3068.00,0.0036
3067.00,0.0036
3066.00,0.0036
3065.00,0.0036
3064.00,0.0036
3063.00,0.0036
3062.00,0.0036
3061.00,0.0036
3060.00,0.0036
3059.00,0.0035
3058.00,0.0035
3057.00,0.0035
3056.00,0.0036
3055.00,0.0036
3054.00,0.0037
3053.00,0.0037
3052.00,0.0038
3051.00,0.0038
3050.00,0.0038
3049.00,0.0038
3048.00,0.0038
3047.00,0.0038
3046.00,0.0038
3045.00,0.0038
3044.00,0.0038
3043.00,0.0038
3042.00,0.0039
3041.00,0.0039
3040.00,0.0039
3039.00,0.0039
3038.00,0.0040
3037.00,0.0040
3036.00,0.0040
3035.00,0.0040
3034.00,0.0041
3033.00,0.0041
3032.00,0.0042
3031.00,0.0043
3030.00,0.0044
3029.00,0.0044
3028.00,0.0045
3027.00,0.0045
3026.00,0.0045
3025.00,0.0046
3024.00,0.0047
3023.00,0.0047
3022.00,0.0048
3021.00,0.0049
3020.00,0.0050
3019.00,0.0051
3018.00,0.0052
3017.00,0.0053
3016.00,0.0054
3015.00,0.0054
3014.00,0.0055
3013.00,0.0057
3012.00,0.0058
3011.00,0.0059
3010.00,0.0060
3009.00,0.0061
3008.00,0.0062
3007.00,0.0063
3006.00,0.0064
3005.00,0.0066
3004.00,0.0068
3003.00,0.0070
3002.00,0.0072
3001.00,0.0074
3000.00,0.0076
2999.00,0.0079
2998.00,0.0081
2997.00,0.0084
2996.00,0.0088
2995.00,0.0092
2994.00,0.0096
2993.00,0.0100
2992.00,0.0106
2991.00,0.0111
2990.00,0.0117
2989.00,0.0124
2988.00,0.0132
2987.00,0.0140
2986.00,0.0150
2985.00,0.0160
2984.00,0.0171
2983.00,0.0184
2982.00,0.0199
2981.00,0.0216
2980.00,0.0236
2979.00,0.0258
2978.00,0.0284
2977.00,0.0313
2976.00,0.0346
2975.00,0.0385
2974.00,0.0430
2973.00,0.0481
2972.00,0.0540
2971.00,0.0607
2970.00,0.0680
2969.00,0.0762
2968.00,0.0852
2967.00,0.0950
2966.00,0.1055
2965.00,0.1165
2964.00,0.1277
2963.00,0.1384
2962.00,0.1480
2961.00,0.1560
2960.00,0.1620
2959.00,0.1662
2958.00,0.1690
2957.00,0.1713
2956.00,0.1738
2955.00,0.1770
2954.00,0.1810
2953.00,0.1853
2952.00,0.1888
2951.00,0.1905
2950.00,0.1893
2949.00,0.1847
2948.00,0.1768
2947.00,0.1662
2946.00,0.1542
2945.00,0.1419
2944.00,0.1305
2943.00,0.1209
2942.00,0.1134
2941.00,0.1083
2940.00,0.1054
2939.00,0.1046
2938.00,0.1056
2937.00,0.1084
2936.00,0.1126
2935.00,0.1181
2934.00,0.1250
2933.00,0.1330
2932.00,0.1420
2931.00,0.1519
2930.00,0.1625
2929.00,0.1733
2928.00,0.1842
2927.00,0.1948
2926.00,0.2051
2925.00,0.2149
2924.00,0.2244
2923.00,0.2336
2922.00,0.2425
2921.00,0.2507
2920.00,0.2576
2919.00,0.2624
2918.00,0.2641
2917.00,0.2623
2916.00,0.2571
2915.00,0.2492
2914.00,0.2398
2913.00,0.2299
2912.00,0.2206
2911.00,0.2124
2910.00,0.2054
2909.00,0.1993
2908.00,0.1938
2907.00,0.1885
2906.00,0.1829
2905.00,0.1771
2904.00,0.1709
2903.00,0.1644
2902.00,0.1578
2901.00,0.1512
2900.00,0.1448
2899.00,0.1386
2898.00,0.1328
2897.00,0.1274
2896.00,0.1226
2895.00,0.1184
2894.00,0.1148
2893.00,0.1118
2892.00,0.1095
2891.00,0.1077
2890.00,0.1063
2889.00,0.1054
2888.00,0.1048
2887.00,0.1045
2886.00,0.1045
2885.00,0.1048
2884.00,0.1054
2883.00,0.1064
2882.00,0.1077
2881.00,0.1092
2880.00,0.1106
2879.00,0.1116
2878.00,0.1120
2877.00,0.1118
2876.00,0.1112
2875.00,0.1106
2874.00,0.1103
2873.00,0.1105
2872.00,0.1115
2871.00,0.1130
2870.00,0.1150
2869.00,0.1168
2868.00,0.1179
2867.00,0.1176
2866.00,0.1155
2865.00,0.1114
2864.00,0.1057
2863.00,0.0991
2862.00,0.0927
2861.00,0.0870
2860.00,0.0826
2859.00,0.0797
2858.00,0.0781
2857.00,0.0776
2856.00,0.0781
2855.00,0.0792
2854.00,0.0808
2853.00,0.0828
2852.00,0.0850
2851.00,0.0870
2850.00,0.0887
2849.00,0.0900
2848.00,0.0912
2847.00,0.0927
2846.00,0.0950
2845.00,0.0983
2844.00,0.1028
2843.00,0.1080
2842.00,0.1134
2841.00,0.1183
2840.00,0.1219
2839.00,0.1234
2838.00,0.1221
2837.00,0.1178
2836.00,0.1108
2835.00,0.1016
2834.00,0.0913
2833.00,0.0809
2832.00,0.0710
2831.00,0.0624
2830.00,0.0550
2829.00,0.0490
2828.00,0.0441
2827.00,0.0401
2826.00,0.0368
2825.00,0.0341
2824.00,0.0318
2823.00,0.0299
2822.00,0.0281
2821.00,0.0266
2820.00,0.0253
2819.00,0.0241
2818.00,0.0231
2817.00,0.0222
2816.00,0.0214
2815.00,0.0207
2814.00,0.0200
2813.00,0.0194
2812.00,0.0189
2811.00,0.0183
2810.00,0.0178
2809.00,0.0173
2808.00,0.0167
2807.00,0.0161
2806.00,0.0155
2805.00,0.0149
2804.00,0.0143
2803.00,0.0137
2802.00,0.0131
2801.00,0.0127
2800.00,0.0123
2799.00,0.0120
2798.00,0.0118
2797.00,0.0116
2796.00,0.0114
2795.00,0.0111
2794.00,0.0108
2793.00,0.0105
2792.00,0.0102
2791.00,0.0099
2790.00,0.0095
2789.00,0.0092
2788.00,0.0088
2787.00,0.0085
2786.00,0.0083
2785.00,0.0080
2784.00,0.0077
2783.00,0.0075
2782.00,0.0073
2781.00,0.0071
2780.00,0.0069
2779.00,0.0068
2778.00,0.0066
2777.00,0.0064
2776.00,0.0063
2775.00,0.0062
2774.00,0.0061
2773.00,0.0060
2772.00,0.0060
2771.00,0.0059
2770.00,0.0059
2769.00,0.0058
2768.00,0.0058
2767.00,0.0057
2766.00,0.0057
2765.00,0.0056
2764.00,0.0056
2763.00,0.0055
2762.00,0.0055
2761.00,0.0055
2760.00,0.0054
2759.00,0.0054
2758.00,0.0054
2757.00,0.0054
2756.00,0.0053
2755.00,0.0053
2754.00,0.0053
2753.00,0.0053
2752.00,0.0053
2751.00,0.0052
2750.00,0.0052
2749.00,0.0052
2748.00,0.0053
2747.00,0.0053
2746.00,0.0054
2745.00,0.0054
2744.00,0.0055
2743.00,0.0056
2742.00,0.0056
2741.00,0.0057
2740.00,0.0059
2739.00,0.0060
2738.00,0.0061
2737.00,0.0062
2736.00,0.0063
2735.00,0.0064
2734.00,0.0066
2733.00,0.0067
2732.00,0.0068
2731.00,0.0070
2730.00,0.0072
2729.00,0.0074
2728.00,0.0077
2727.00,0.0079
2726.00,0.0082
2725.00,0.0084
2724.00,0.0086
2723.00,0.0086
2722.00,0.0086
2721.00,0.0084
2720.00,0.0081
2719.00,0.0078
2718.00,0.0075
2717.00,0.0072
2716.00,0.0069
2715.00,0.0067
2714.00,0.0064
2713.00,0.0062
2712.00,0.0060
2711.00,0.0058
2710.00,0.0057
2709.00,0.0056
2708.00,0.0054
2707.00,0.0053
2706.00,0.0052
2705.00,0.0051
2704.00,0.0050
2703.00,0.0049
2702.00,0.0048
2701.00,0.0048
2700.00,0.0047
2699.00,0.0046
2698.00,0.0046
2697.00,0.0046
2696.00,0.0046
2695.00,0.0046
2694.00,0.0046
2693.00,0.0046
2692.00,0.0046
2691.00,0.0047
2690.00,0.0047
2689.00,0.0046
2688.00,0.0046
2687.00,0.0046
2686.00,0.0046
2685.00,0.0046
2684.00,0.0046
2683.00,0.0047
2682.00,0.0047
2681.00,0.0047
2680.00,0.0047
2679.00,0.0047
2678.00,0.0047
2677.00,0.0047
2676.00,0.0047
2675.00,0.0047
2674.00,0.0046
2673.00,0.0046
2672.00,0.0045
2671.00,0.0045
2670.00,0.0046
2669.00,0.0046
2668.00,0.0046
2667.00,0.0046
2666.00,0.0047
2665.00,0.0047
2664.00,0.0047
2663.00,0.0047
2662.00,0.0048
2661.00,0.0048
2660.00,0.0049
2659.00,0.0049
2658.00,0.0049
2657.00,0.0049
2656.00,0.0048
2655.00,0.0047
2654.00,0.0047
2653.00,0.0046
2652.00,0.0046
2651.00,0.0045
2650.00,0.0045
2649.00,0.0044
2648.00,0.0043
2647.00,0.0043
2646.00,0.0043
2645.00,0.0043
2644.00,0.0043
2643.00,0.0042
2642.00,0.0041
2641.00,0.0041
2640.00,0.0041
2639.00,0.0041
2638.00,0.0041
2637.00,0.0041
2636.00,0.0041
2635.00,0.0041
2634.00,0.0041
2633.00,0.0040
2632.00,0.0040
2631.00,0.0040
2630.00,0.0039
2629.00,0.0039
2628.00,0.0040
2627.00,0.0040
2626.00,0.0040
2625.00,0.0040
2624.00,0.0041
2623.00,0.0041
2622.00,0.0041
2621.00,0.0041
2620.00,0.0041
2619.00,0.0041
2618.00,0.0041
2617.00,0.0041
2616.00,0.0041
2615.00,0.0041
2614.00,0.0041
2613.00,0.0040
2612.00,0.0040
2611.00,0.0039
2610.00,0.0038
2609.00,0.0037
2608.00,0.0036
2607.00,0.0035
2606.00,0.0035
2605.00,0.0034
2604.00,0.0034
2603.00,0.0033
2602.00,0.0033
2601.00,0.0032
2600.00,0.0032
2599.00,0.0032
2598.00,0.0033
2597.00,0.0033
2596.00,0.0033
2595.00,0.0034
2594.00,0.0034
2593.00,0.0035
2592.00,0.0035
2591.00,0.0035
2590.00,0.0035
2589.00,0.0035
2588.00,0.0035
2587.00,0.0035
2586.00,0.0036
2585.00,0.0037
2584.00,0.0038
2583.00,0.0038
2582.00,0.0038
2581.00,0.0038
2580.00,0.0038
2579.00,0.0037
2578.00,0.0036
2577.00,0.0035
2576.00,0.0034
2575.00,0.0033
2574.00,0.0032
2573.00,0.0031
2572.00,0.0030
2571.00,0.0029
2570.00,0.0029
2569.00,0.0028
2568.00,0.0027
2567.00,0.0026
2566.00,0.0026
2565.00,0.0026
2564.00,0.0026
2563.00,0.0026
2562.00,0.0025
2561.00,0.0024
2560.00,0.0024
2559.00,0.0024
2558.00,0.0024
2557.00,0.0024
2556.00,0.0023
2555.00,0.0023
2554.00,0.0023
2553.00,0.0023
2552.00,0.0023
2551.00,0.0023
2550.00,0.0022
2549.00,0.0022
2548.00,0.0021
2547.00,0.0020
2546.00,0.0020
2545.00,0.0019
2544.00,0.0019
2543.00,0.0019
2542.00,0.0019
2541.00,0.0018
2540.00,0.0018
2539.00,0.0018
2538.00,0.0018
2537.00,0.0018
2536.00,0.0018
2535.00,0.0019
2534.00,0.0019
2533.00,0.0019
2532.00,0.0018
2531.00,0.0018
2530.00,0.0017
2529.00,0.0017
2528.00,0.0017
2527.00,0.0016
2526.00,0.0016
2525.00,0.0016
2524.00,0.0015
2523.00,0.0015
2522.00,0.0015
2521.00,0.0015
2520.00,0.0014
2519.00,0.0013
2518.00,0.0013
2517.00,0.0012
2516.00,0.0012
2515.00,0.0012
2514.00,0.0012
2513.00,0.0012
2512.00,0.0012
2511.00,0.0012
2510.00,0.0012
2509.00,0.0011
2508.00,0.0011
2507.00,0.0011
2506.00,0.0011
2505.00,0.0012
2504.00,0.0012
2503.00,0.0012
2502.00,0.0012
2501.00,0.0012
2500.00,0.0011
2499.00,0.0011
2498.00,0.0010
2497.00,0.0010
2496.00,0.0010
2495.00,0.0010
2494.00,0.0011
2493.00,0.0011
2492.00,0.0011
2491.00,0.0012
2490.00,0.0012
2489.00,0.0012
2488.00,0.0011
2487.00,0.0011
2486.00,0.0011
2485.00,0.0011
2484.00,0.0011
2483.00,0.0011
2482.00,0.0010
2481.00,0.0010
2480.00,0.0009
2479.00,0.0009
2478.00,0.0009
2477.00,0.0009
2476.00,0.0009
2475.00,0.0009
2474.00,0.0009
2473.00,0.0009
2472.00,0.0008
2471.00,0.0008
2470.00,0.0008
2469.00,0.0008
2468.00,0.0009
2467.00,0.0009
2466.00,0.0010
2465.00,0.0011
2464.00,0.0011
2463.00,0.0012
2462.00,0.0012
2461.00,0.0012
2460.00,0.0012
2459.00,0.0011
2458.00,0.0011
2457.00,0.0011
2456.00,0.0011
2455.00,0.0011
2454.00,0.0011
2453.00,0.0011
2452.00,0.0012
2451.00,0.0012
2450.00,0.0012
2449.00,0.0013
2448.00,0.0013
2447.00,0.0013
2446.00,0.0012
2445.00,0.0012
2444.00,0.0012
2443.00,0.0012
2442.00,0.0012
2441.00,0.0012
2440.00,0.0012
2439.00,0.0012
2438.00,0.0012
2437.00,0.0012
2436.00,0.0011
2435.00,0.0011
2434.00,0.0012
2433.00,0.0012
2432.00,0.0012
2431.00,0.0012
2430.00,0.0012
2429.00,0.0012
2428.00,0.0012
2427.00,0.0011
2426.00,0.0010
2425.00,0.0010
2424.00,0.0009
2423.00,0.0009
2422.00,0.0009
2421.00,0.0009
2420.00,0.0009
2419.00,0.0009
2418.00,0.0010
2417.00,0.0010
2416.00,0.0010
2415.00,0.0010
2414.00,0.0010
2413.00,0.0010
2412.00,0.0010
2411.00,0.0010
2410.00,0.0011
2409.00,0.0011
2408.00,0.0010
2407.00,0.0010
2406.00,0.0009
2405.00,0.0008
2404.00,0.0008
2403.00,0.0008
2402.00,0.0008
2401.00,0.0008
2400.00,0.0008
2399.00,0.0008
2398.00,0.0008
2397.00,0.0009
2396.00,0.0009
2395.00,0.0009
2394.00,0.0009
2393.00,0.0008
2392.00,0.0008
2391.00,0.0008
2390.00,0.0007
2389.00,0.0007
2388.00,0.0007
2387.00,0.0006
2386.00,0.0006
2385.00,0.0006
2384.00,0.0006
2383.00,0.0006
2382.00,0.0006
2381.00,0.0006
2380.00,0.0006
2379.00,0.0005
2378.00,0.0005
2377.00,0.0005
2376.00,0.0005
2375.00,0.0005
2374.00,0.0005
2373.00,0.0005
2372.00,0.0005
2371.00,0.0004
2370.00,0.0003
2369.00,0.0003
2368.00,0.0004
2367.00,0.0004
2366.00,0.0005
2365.00,0.0006
2364.00,0.0006
2363.00,0.0005
2362.00,0.0005
2361.00,0.0005
2360.00,0.0005
2359.00,0.0006
2358.00,0.0006
2357.00,0.0006
2356.00,0.0006
2355.00,0.0006
2354.00,0.0006
2353.00,0.0006
2352.00,0.0006
2351.00,0.0006
2350.00,0.0006
2349.00,0.0007
2348.00,0.0007
2347.00,0.0008
2346.00,0.0007
2345.00,0.0008
2344.00,0.0008
2343.00,0.0008
2342.00,0.0009
2341.00,0.0009
2340.00,0.0009
2339.00,0.0009
2338.00,0.0010
2337.00,0.0010
2336.00,0.0010
2335.00,0.0010
2334.00,0.0009
2333.00,0.0008
2332.00,0.0008
2331.00,0.0008
2330.00,0.0008
2329.00,0.0009
2328.00,0.0011
2327.00,0.0014
2326.00,0.0018
2325.00,0.0022
2324.00,0.0023
2323.00,0.0022
2322.00,0.0020
2321.00,0.0018
2320.00,0.0017
2319.00,0.0016
2318.00,0.0015
2317.00,0.0014
2316.00,0.0013
2315.00,0.0012
2314.00,0.0012
2313.00,0.0012
2312.00,0.0012
2311.00,0.0011
2310.00,0.0011
2309.00,0.0010
2308.00,0.0010
2307.00,0.0010
2306.00,0.0011
2305.00,0.0011
2304.00,0.0010
2303.00,0.0010
2302.00,0.0010
2301.00,0.0010
2300.00,0.0010
2299.00,0.0010
2298.00,0.0011
2297.00,0.0012
2296.00,0.0013
2295.00,0.0013
2294.00,0.0014
2293.00,0.0015
2292.00,0.0016
2291.00,0.0017
2290.00,0.0017
2289.00,0.0017
2288.00,0.0017
2287.00,0.0017
2286.00,0.0018
2285.00,0.0018
2284.00,0.0018
2283.00,0.0018
2282.00,0.0017
2281.00,0.0017
2280.00,0.0016
2279.00,0.0015
2278.00,0.0014
2277.00,0.0014
2276.00,0.0014
2275.00,0.0014
2274.00,0.0014
2273.00,0.0014
2272.00,0.0014
2271.00,0.0014
2270.00,0.0014
2269.00,0.0015
2268.00,0.0015
2267.00,0.0014
2266.00,0.0012
2265.00,0.0011
2264.00,0.0011
2263.00,0.0011
2262.00,0.0012
2261.00,0.0012
2260.00,0.0012
2259.00,0.0012
2258.00,0.0012
2257.00,0.0011
2256.00,0.0011
2255.00,0.0010
2254.00,0.0010
2253.00,0.0011
2252.00,0.0012
2251.00,0.0013
2250.00,0.0013
2249.00,0.0013
2248.00,0.0012
2247.00,0.0010
2246.00,0.0007
2245.00,0.0006
2244.00,0.0006
2243.00,0.0007
2242.00,0.0008
2241.00,0.0009
2240.00,0.0010
2239.00,0.0010
2238.00,0.0010
2237.00,0.0010
2236.00,0.0010
2235.00,0.0009
2234.00,0.0008
2233.00,0.0007
2232.00,0.0007
2231.00,0.0008
2230.00,0.0008
2229.00,0.0008
2228.00,0.0008
2227.00,0.0007
2226.00,0.0006
2225.00,0.0006
2224.00,0.0005
2223.00,0.0005
2222.00,0.0004
2221.00,0.0005
2220.00,0.0006
2219.00,0.0007
2218.00,0.0008
2217.00,0.0008
2216.00,0.0008
2215.00,0.0008
2214.00,0.0009
2213.00,0.0008
2212.00,0.0008
2211.00,0.0007
2210.00,0.0006
2209.00,0.0005
2208.00,0.0004
2207.00,0.0005
2206.00,0.0006
2205.00,0.0006
2204.00,0.0005
2203.00,0.0003
2202.00,0.0001
2201.00,0.0001
2200.00,0.0003
2199.00,0.0006
2198.00,0.0008
2197.00,0.0008
2196.00,0.0007
2195.00,0.0006
2194.00,0.0007
2193.00,0.0009
2192.00,0.0010
2191.00,0.0011
2190.00,0.0011
2189.00,0.0011
2188.00,0.0011
2187.00,0.0010
2186.00,0.0010
2185.00,0.0009
2184.00,0.0009
2183.00,0.0008
2182.00,0.0008
2181.00,0.0008
2180.00,0.0008
2179.00,0.0009
2178.00,0.0009
2177.00,0.0009
2176.00,0.0007
2175.00,0.0005
2174.00,0.0004
2173.00,0.0004
2172.00,0.0005
2171.00,0.0006
2170.00,0.0007
2169.00,0.0009
2168.00,0.0011
2167.00,0.0012
2166.00,0.0012
2165.00,0.0013
2164.00,0.0015
2163.00,0.0018
2162.00,0.0019
2161.00,0.0014
2160.00,0.0003
2159.00,-0.0011
2158.00,-0.0023
2157.00,-0.0029
2156.00,-0.0028
2155.00,-0.0024
2154.00,-0.0019
2153.00,-0.0014
2152.00,-0.0011
2151.00,-0.0010
2150.00,-0.0012
2149.00,-0.0013
2148.00,-0.0013
2147.00,-0.0012
2146.00,-0.0011
2145.00,-0.0010
2144.00,-0.0011
2143.00,-0.0012
2142.00,-0.0014
2141.00,-0.0014
2140.00,-0.0014
2139.00,-0.0013
2138.00,-0.0012
2137.00,-0.0011
2136.00,-0.0012
2135.00,-0.0014
2134.00,-0.0016
2133.00,-0.0016
2132.00,-0.0016
2131.00,-0.0014
2130.00,-0.0011
2129.00,-0.0008
2128.00,-0.0007
2127.00,-0.0006
2126.00,-0.0006
2125.00,-0.0007
2124.00,-0.0007
2123.00,-0.0007
2122.00,-0.0007
2121.00,-0.0006
2120.00,-0.0004
2119.00,-0.0003
2118.00,-0.0001
2117.00,0.0000
2116.00,0.0002
2115.00,0.0003
2114.00,0.0003
2113.00,0.0004
2112.00,0.0004
2111.00,0.0005
2110.00,0.0006
2109.00,0.0006
2108.00,0.0006
2107.00,0.0004
2106.00,0.0002
2105.00,0.0000
2104.00,-0.0001
2103.00,-0.0003
2102.00,-0.0003
2101.00,-0.0002
2100.00,-0.0000
2099.00,0.0001
2098.00,0.0001
2097.00,0.0001
2096.00,-0.0000
2095.00,-0.0002
2094.00,-0.0003
2093.00,-0.0002
2092.00,-0.0000
2091.00,0.0001
2090.00,0.0001
2089.00,0.0001
2088.00,0.0001
2087.00,0.0002
2086.00,0.0003
2085.00,0.0003
2084.00,0.0002
2083.00,0.0000
2082.00,-0.0000
2081.00,0.0000
2080.00,0.0001
2079.00,0.0003
2078.00,0.0004
2077.00,0.0004
2076.00,0.0004
2075.00,0.0003
2074.00,0.0002
2073.00,0.0001
2072.00,0.0001
2071.00,-0.0000
2070.00,-0.0001
2069.00,-0.0001
2068.00,0.0000
2067.00,0.0001
2066.00,0.0000
2065.00,0.0000
2064.00,0.0001
2063.00,0.0001
2062.00,0.0002
2061.00,0.0003
2060.00,0.0003
2059.00,0.0002
2058.00,0.0002
2057.00,0.0000
2056.00,-0.0001
2055.00,-0.0003
2054.00,-0.0003
2053.00,0.0001
2052.00,0.0007
2051.00,0.0012
2050.00,0.0013
2049.00,0.0011
2048.00,0.0008
2047.00,0.0005
2046.00,0.0004
2045.00,0.0004
2044.00,0.0004
2043.00,0.0004
2042.00,0.0004
2041.00,0.0003
2040.00,0.0001
2039.00,-0.0001
2038.00,-0.0003
2037.00,-0.0004
2036.00,-0.0004
2035.00,-0.0003
2034.00,-0.0001
2033.00,0.0001
2032.00,0.0003
2031.00,0.0002
2030.00,-0.0001
2029.00,-0.0005
2028.00,-0.0009
2027.00,-0.0011
2026.00,-0.0011
2025.00,-0.0011
2024.00,-0.0012
2023.00,-0.0013
2022.00,-0.0015
2021.00,-0.0016
2020.00,-0.0018
2019.00,-0.0018
2018.00,-0.0018
2017.00,-0.0017
2016.00,-0.0016
2015.00,-0.0015
2014.00,-0.0015
2013.00,-0.0013
2012.00,-0.0011
2011.00,-0.0010
2010.00,-0.0010
2009.00,-0.0012
2008.00,-0.0015
2007.00,-0.0019
2006.00,-0.0022
2005.00,-0.0021
2004.00,-0.0016
2003.00,-0.0011
2002.00,-0.0009
2001.00,-0.0009
2000.00,-0.0010
1999.00,-0.0011
1998.00,-0.0010
1997.00,-0.0008
1996.00,-0.0007
1995.00,-0.0007
1994.00,-0.0008
1993.00,-0.0008
1992.00,-0.0009
1991.00,-0.0010
1990.00,-0.0010
1989.00,-0.0008
1988.00,-0.0003
1987.00,0.0001
1986.00,0.0003
1985.00,0.0002
1984.00,0.0001
1983.00,0.0001
1982.00,0.0001
1981.00,0.0002
1980.00,0.0003
1979.00,0.0001
1978.00,-0.0003
1977.00,-0.0006
1976.00,-0.0010
1975.00,-0.0014
1974.00,-0.0017
1973.00,-0.0018
1972.00,-0.0017
1971.00,-0.0017
1970.00,-0.0017
1969.00,-0.0017
1968.00,-0.0016
1967.00,-0.0017
1966.00,-0.0017
1965.00,-0.0017
1964.00,-0.0016
1963.00,-0.0013
1962.00,-0.0011
1961.00,-0.0011
1960.00,-0.0013
1959.00,-0.0018
1958.00,-0.0021
1957.00,-0.0021
1956.00,-0.0018
1955.00,-0.0015
1954.00,-0.0013
1953.00,-0.0013
1952.00,-0.0014
1951.00,-0.0017
1950.00,-0.0019
1949.00,-0.0019
1948.00,-0.0017
1947.00,-0.0016
1946.00,-0.0015
1945.00,-0.0014
1944.00,-0.0014
1943.00,-0.0013
1942.00,-0.0013
1941.00,-0.0012
1940.00,-0.0011
1939.00,-0.0011
1938.00,-0.0011
1937.00,-0.0011
1936.00,-0.0011
1935.00,-0.0011
1934.00,-0.0011
1933.00,-0.0010
1932.00,-0.0009
1931.00,-0.0009
1930.00,-0.0009
1929.00,-0.0008
1928.00,-0.0008
1927.00,-0.0007
1926.00,-0.0007
1925.00,-0.0007
1924.00,-0.0008
1923.00,-0.0008
1922.00,-0.0007
1921.00,-0.0006
1920.00,-0.0004
1919.00,-0.0003
1918.00,-0.0002
1917.00,-0.0002
1916.00,-0.0002
1915.00,-0.0002
1914.00,-0.0002
1913.00,-0.0003
1912.00,-0.0003
1911.00,-0.0003
1910.00,-0.0002
1909.00,-0.0002
1908.00,-0.0001
1907.00,-0.0000
1906.00,-0.0000
1905.00,-0.0000
1904.00,0.0000
1903.00,0.0001
1902.00,0.0001
1901.00,0.0002
1900.00,0.0001
1899.00,0.0000
1898.00,-0.0001
1897.00,-0.0001
1896.00,-0.0001
1895.00,-0.0000
1894.00,0.0000
1893.00,0.0001
1892.00,0.0001
1891.00,0.0001
1890.00,0.0001
1889.00,-0.0000
1888.00,-0.0000
1887.00,-0.0001
1886.00,-0.0001
1885.00,-0.0002
1884.00,-0.0002
1883.00,-0.0003
1882.00,-0.0003
1881.00,-0.0004
1880.00,-0.0004
1879.00,-0.0003
1878.00,-0.0002
1877.00,-0.0002
1876.00,-0.0001
1875.00,-0.0002
1874.00,-0.0002
1873.00,-0.0002
1872.00,-0.0002
1871.00,-0.0002
1870.00,-0.0002
1869.00,-0.0002
1868.00,-0.0001
1867.00,-0.0001
1866.00,-0.0000
1865.00,-0.0000
1864.00,0.0000
1863.00,0.0000
1862.00,-0.0000
1861.00,-0.0000
1860.00,-0.0001
1859.00,-0.0001
1858.00,-0.0001
1857.00,-0.0001
1856.00,-0.0001
1855.00,-0.0002
1854.00,-0.0002
1853.00,-0.0002
1852.00,-0.0001
1851.00,-0.0000
1850.00,0.0000
1849.00,0.0000
1848.00,-0.0000
1847.00,-0.0000
1846.00,-0.0000
1845.00,0.0001
1844.00,0.0001
1843.00,0.0002
1842.00,0.0002
1841.00,0.0002
1840.00,0.0002
1839.00,0.0002
1838.00,0.0002
1837.00,0.0003
1836.00,0.0003
1835.00,0.0004
1834.00,0.0004
1833.00,0.0004
1832.00,0.0004
1831.00,0.0004
1830.00,0.0004
1829.00,0.0004
1828.00,0.0005
1827.00,0.0005
1826.00,0.0005
1825.00,0.0004
1824.00,0.0004
1823.00,0.0004
1822.00,0.0004
1821.00,0.0004
1820.00,0.0004
1819.00,0.0003
1818.00,0.0001
1817.00,-0.0000
1816.00,-0.0000
1815.00,0.0001
1814.00,0.0001
1813.00,0.0002
1812.00,0.0002
1811.00,0.0002
1810.00,0.0003
1809.00,0.0003
1808.00,0.0004
1807.00,0.0005
1806.00,0.0005
1805.00,0.0005
1804.00,0.0005
1803.00,0.0005
1802.00,0.0005
1801.00,0.0005
1800.00,0.0006
1799.00,0.0006
1798.00,0.0005
1797.00,0.0005
1796.00,0.0005
1795.00,0.0005
1794.00,0.0005
1793.00,0.0005
1792.00,0.0006
1791.00,0.0006
1790.00,0.0007
1789.00,0.0007
1788.00,0.0008
1787.00,0.0008
1786.00,0.0008
1785.00,0.0008
1784.00,0.0008
1783.00,0.0008
1782.00,0.0008
1781.00,0.0008
1780.00,0.0008
1779.00,0.0009
1778.00,0.0009
1777.00,0.0009
1776.00,0.0009
1775.00,0.0008
1774.00,0.0008
1773.00,0.0008
1772.00,0.0009
1771.00,0.0010
1770.00,0.0011
1769.00,0.0011
1768.00,0.0011
1767.00,0.0011
1766.00,0.0011
1765.00,0.0012
1764.00,0.0012
1763.00,0.0012
1762.00,0.0012
1761.00,0.0012
1760.00,0.0013
1759.00,0.0014
1758.00,0.0014
1757.00,0.0015
1756.00,0.0016
1755.00,0.0015
1754.00,0.0015
1753.00,0.0015
1752.00,0.0015
1751.00,0.0016
1750.00,0.0017
1749.00,0.0019
1748.00,0.0020
1747.00,0.0021
1746.00,0.0021
1745.00,0.0022
1744.00,0.0023
1743.00,0.0023
1742.00,0.0023
1741.00,0.0024
1740.00,0.0024
1739.00,0.0024
1738.00,0.0024
1737.00,0.0024
1736.00,0.0025
1735.00,0.0024
1734.00,0.0024
1733.00,0.0024
1732.00,0.0024
1731.00,0.0024
1730.00,0.0025
1729.00,0.0025
1728.00,0.0025
1727.00,0.0024
1726.00,0.0024
1725.00,0.0024
1724.00,0.0024
1723.00,0.0025
1722.00,0.0025
1721.00,0.0026
1720.00,0.0027
1719.00,0.0027
1718.00,0.0026
1717.00,0.0025
1716.00,0.0024
1715.00,0.0024
1714.00,0.0024
1713.00,0.0025
1712.00,0.0026
1711.00,0.0026
1710.00,0.0026
1709.00,0.0025
1708.00,0.0025
1707.00,0.0026
1706.00,0.0026
1705.00,0.0027
1704.00,0.0028
1703.00,0.0029
1702.00,0.0030
1701.00,0.0030
1700.00,0.0030
1699.00,0.0031
1698.00,0.0031
1697.00,0.0032
1696.00,0.0033
1695.00,0.0033
1694.00,0.0033
1693.00,0.0033
1692.00,0.0034
1691.00,0.0034
1690.00,0.0035
1689.00,0.0035
1688.00,0.0037
1687.00,0.0037
1686.00,0.0037
1685.00,0.0038
1684.00,0.0040
1683.00,0.0042
1682.00,0.0043
1681.00,0.0044
1680.00,0.0046
1679.00,0.0047
1678.00,0.0048
1677.00,0.0049
1676.00,0.0051
1675.00,0.0052
1674.00,0.0053
1673.00,0.0054
1672.00,0.0054
1671.00,0.0055
1670.00,0.0056
1669.00,0.0057
1668.00,0.0058
1667.00,0.0058
1666.00,0.0058
1665.00,0.0059
1664.00,0.0059
1663.00,0.0060
1662.00,0.0061
1661.00,0.0062
1660.00,0.0062
1659.00,0.0063
1658.00,0.0063
1657.00,0.0064
1656.00,0.0066
1655.00,0.0067
1654.00,0.0070
1653.00,0.0076
1652.00,0.0080
1651.00,0.0081
1650.00,0.0084
1649.00,0.0088
1648.00,0.0094
1647.00,0.0100
1646.00,0.0102
1645.00,0.0101
1644.00,0.0098
1643.00,0.0094
1642.00,0.0092
1641.00,0.0090
1640.00,0.0090
1639.00,0.0089
1638.00,0.0089
1637.00,0.0089
1636.00,0.0088
1635.00,0.0087
1634.00,0.0086
1633.00,0.0085
1632.00,0.0084
1631.00,0.0084
1630.00,0.0083
1629.00,0.0083
1628.00,0.0082
1627.00,0.0081
1626.00,0.0080
1625.00,0.0078
1624.00,0.0076
1623.00,0.0075
1622.00,0.0073
1621.00,0.0072
1620.00,0.0072
1619.00,0.0071
1618.00,0.0070
1617.00,0.0070
1616.00,0.0069
1615.00,0.0069
1614.00,0.0069
1613.00,0.0069
1612.00,0.0069
1611.00,0.0068
1610.00,0.0068
1609.00,0.0068
1608.00,0.0068
1607.00,0.0068
1606.00,0.0069
1605.00,0.0069
1604.00,0.0069
1603.00,0.0069
1602.00,0.0068
1601.00,0.0068
1600.00,0.0067
1599.00,0.0067
1598.00,0.0067
1597.00,0.0066
1596.00,0.0066
1595.00,0.0066
1594.00,0.0066
1593.00,0.0066
1592.00,0.0066
1591.00,0.0066
1590.00,0.0067
1589.00,0.0067
1588.00,0.0068
1587.00,0.0069
1586.00,0.0069
1585.00,0.0070
1584.00,0.0071
1583.00,0.0073
1582.00,0.0074
1581.00,0.0077
1580.00,0.0079
1579.00,0.0080
1578.00,0.0081
1577.00,0.0082
1576.00,0.0082
1575.00,0.0081
1574.00,0.0080
1573.00,0.0080
1572.00,0.0079
1571.00,0.0079
1570.00,0.0078
1569.00,0.0077
1568.00,0.0077
1567.00,0.0076
1566.00,0.0076
1565.00,0.0076
1564.00,0.0076
1563.00,0.0076
1562.00,0.0076
1561.00,0.0076
1560.00,0.0077
1559.00,0.0077
1558.00,0.0078
1557.00,0.0077
1556.00,0.0076
1555.00,0.0077
1554.00,0.0078
1553.00,0.0079
1552.00,0.0080
1551.00,0.0081
1550.00,0.0082
1549.00,0.0083
1548.00,0.0084
1547.00,0.0085
1546.00,0.0087
1545.00,0.0089
1544.00,0.0091
1543.00,0.0093
1542.00,0.0094
1541.00,0.0094
1540.00,0.0092
1539.00,0.0090
1538.00,0.0086
1537.00,0.0084
1536.00,0.0082
1535.00,0.0080
1534.00,0.0077
1533.00,0.0073
1532.00,0.0071
1531.00,0.0068
1530.00,0.0066
1529.00,0.0065
1528.00,0.0064
1527.00,0.0064
1526.00,0.0063
1525.00,0.0063
1524.00,0.0063
1523.00,0.0063
1522.00,0.0063
1521.00,0.0063
1520.00,0.0063
1519.00,0.0062
1518.00,0.0061
1517.00,0.0061
1516.00,0.0061
1515.00,0.0061
1514.00,0.0061
1513.00,0.0062
1512.00,0.0062
1511.00,0.0062
1510.00,0.0062
1509.00,0.0063
1508.00,0.0064
1507.00,0.0066
1506.00,0.0068
1505.00,0.0068
1504.00,0.0069
1503.00,0.0070
1502.00,0.0072
1501.00,0.0075
1500.00,0.0078
1499.00,0.0081
1498.00,0.0083
1497.00,0.0086
1496.00,0.0089
1495.00,0.0092
1494.00,0.0095
1493.00,0.0098
1492.00,0.0103
1491.00,0.0107
1490.00,0.0111
1489.00,0.0117
1488.00,0.0123
1487.00,0.0127
1486.00,0.0132
1485.00,0.0138
1484.00,0.0144
1483.00,0.0151
1482.00,0.0160
1481.00,0.0172
1480.00,0.0184
1479.00,0.0197
1478.00,0.0212
1477.00,0.0233
1476.00,0.0258
1475.00,0.0288
1474.00,0.0327
1473.00,0.0383
1472.00,0.0450
1471.00,0.0514
1470.00,0.0575
1469.00,0.0638
1468.00,0.0705
1467.00,0.0777
1466.00,0.0858
1465.00,0.0945
1464.00,0.1022
1463.00,0.1076
1462.00,0.1111
1461.00,0.1136
1460.00,0.1155
1459.00,0.1168
1458.00,0.1181
1457.00,0.1193
1456.00,0.1197
1455.00,0.1194
1454.00,0.1187
1453.00,0.1176
1452.00,0.1157
1451.00,0.1127
1450.00,0.1082
1449.00,0.1017
1448.00,0.0930
1447.00,0.0835
1446.00,0.0746
1445.00,0.0668
1444.00,0.0599
1443.00,0.0543
1442.00,0.0499
1441.00,0.0468
1440.00,0.0449
1439.00,0.0439
1438.00,0.0436
1437.00,0.0433
1436.00,0.0423
1435.00,0.0399
1434.00,0.0365
1433.00,0.0325
1432.00,0.0283
1431.00,0.0245
1430.00,0.0215
1429.00,0.0193
1428.00,0.0178
1427.00,0.0169
1426.00,0.0163
1425.00,0.0157
1424.00,0.0152
1423.00,0.0150
1422.00,0.0149
1421.00,0.0147
1420.00,0.0144
1419.00,0.0141
1418.00,0.0139
1417.00,0.0136
1416.00,0.0132
1415.00,0.0129
1414.00,0.0128
1413.00,0.0125
1412.00,0.0123
1411.00,0.0121
1410.00,0.0120
1409.00,0.0119
1408.00,0.0117
1407.00,0.0117
1406.00,0.0117
1405.00,0.0117
1404.00,0.0117
1403.00,0.0117
1402.00,0.0118
1401.00,0.0118
1400.00,0.0119
1399.00,0.0120
1398.00,0.0123
1397.00,0.0125
1396.00,0.0127
1395.00,0.0130
1394.00,0.0134
1393.00,0.0138
1392.00,0.0143
1391.00,0.0150
1390.00,0.0160
1389.00,0.0174
1388.00,0.0194
1387.00,0.0224
1386.00,0.0265
1385.00,0.0319
1384.00,0.0394
1383.00,0.0498
1382.00,0.0636
1381.00,0.0811
1380.00,0.1025
1379.00,0.1266
1378.00,0.1498
1377.00,0.1667
1376.00,0.1722
1375.00,0.1639
1374.00,0.1440
1373.00,0.1200
1372.00,0.0978
1371.00,0.0793
1370.00,0.0644
1369.00,0.0529
1368.00,0.0450
1367.00,0.0400
1366.00,0.0373
1365.00,0.0362
1364.00,0.0363
1363.00,0.0374
1362.00,0.0392
1361.00,0.0413
1360.00,0.0428
1359.00,0.0433
1358.00,0.0424
1357.00,0.0401
1356.00,0.0368
1355.00,0.0331
1354.00,0.0295
1353.00,0.0264
1352.00,0.0238
1351.00,0.0216
1350.00,0.0199
1349.00,0.0185
1348.00,0.0173
1347.00,0.0163
1346.00,0.0155
1345.00,0.0148
1344.00,0.0142
1343.00,0.0137
1342.00,0.0133
1341.00,0.0129
1340.00,0.0126
1339.00,0.0124
1338.00,0.0123
1337.00,0.0122
1336.00,0.0123
1335.00,0.0124
1334.00,0.0127
1333.00,0.0130
1332.00,0.0134
1331.00,0.0137
1330.00,0.0139
1329.00,0.0138
1328.00,0.0136
1327.00,0.0132
1326.00,0.0127
1325.00,0.0122
1324.00,0.0117
1323.00,0.0112
1322.00,0.0107
1321.00,0.0104
1320.00,0.0102
1319.00,0.0100
1318.00,0.0099
1317.00,0.0097
1316.00,0.0096
1315.00,0.0095
1314.00,0.0095
1313.00,0.0095
1312.00,0.0097
1311.00,0.0100
1310.00,0.0105
1309.00,0.0112
1308.00,0.0123
1307.00,0.0137
1306.00,0.0151
1305.00,0.0161
1304.00,0.0163
1303.00,0.0158
1302.00,0.0150
1301.00,0.0142
1300.00,0.0137
1299.00,0.0134
1298.00,0.0133
1297.00,0.0132
1296.00,0.0130
1295.00,0.0127
1294.00,0.0122
1293.00,0.0117
1292.00,0.0112
1291.00,0.0107
1290.00,0.0102
1289.00,0.0099
1288.00,0.0095
1287.00,0.0093
1286.00,0.0091
1285.00,0.0090
1284.00,0.0088
1283.00,0.0087
1282.00,0.0086
1281.00,0.0084
1280.00,0.0083
1279.00,0.0083
1278.00,0.0082
1277.00,0.0082
1276.00,0.0082
1275.00,0.0082
1274.00,0.0083
1273.00,0.0083
1272.00,0.0084
1271.00,0.0084
1270.00,0.0085
1269.00,0.0087
1268.00,0.0090
1267.00,0.0094
1266.00,0.0097
1265.00,0.0101
1264.00,0.0104
1263.00,0.0108
1262.00,0.0113
1261.00,0.0118
1260.00,0.0125
1259.00,0.0132
1258.00,0.0141
1257.00,0.0148
1256.00,0.0152
1255.00,0.0149
1254.00,0.0141
1253.00,0.0131
1252.00,0.0120
1251.00,0.0112
1250.00,0.0105
1249.00,0.0101
1248.00,0.0098
1247.00,0.0095
1246.00,0.0093
1245.00,0.0091
1244.00,0.0088
1243.00,0.0086
1242.00,0.0085
1241.00,0.0084
1240.00,0.0084
1239.00,0.0083
1238.00,0.0082
1237.00,0.0082
1236.00,0.0082
1235.00,0.0083
1234.00,0.0083
1233.00,0.0084
1232.00,0.0084
1231.00,0.0084
1230.00,0.0085
1229.00,0.0086
1228.00,0.0087
1227.00,0.0089
1226.00,0.0091
1225.00,0.0094
1224.00,0.0098
1223.00,0.0101
1222.00,0.0104
1221.00,0.0107
1220.00,0.0109
1219.00,0.0110
1218.00,0.0109
1217.00,0.0108
1216.00,0.0105
1215.00,0.0102
1214.00,0.0099
1213.00,0.0097
1212.00,0.0094
1211.00,0.0092
1210.00,0.0091
1209.00,0.0090
1208.00,0.0089
1207.00,0.0088
1206.00,0.0088
1205.00,0.0088
1204.00,0.0088
1203.00,0.0088
1202.00,0.0088
1201.00,0.0088
1200.00,0.0088
1199.00,0.0089
1198.00,0.0089
1197.00,0.0088
1196.00,0.0088
1195.00,0.0088
1194.00,0.0088
1193.00,0.0089
1192.00,0.0089
1191.00,0.0090
1190.00,0.0091
1189.00,0.0092
1188.00,0.0092
1187.00,0.0092
1186.00,0.0092
1185.00,0.0092
1184.00,0.0093
1183.00,0.0095
1182.00,0.0098
1181.00,0.0101
1180.00,0.0104
1179.00,0.0109
1178.00,0.0115
1177.00,0.0125
1176.00,0.0138
1175.00,0.0156
1174.00,0.0179
1173.00,0.0208
1172.00,0.0244
1171.00,0.0283
1170.00,0.0323
1169.00,0.0357
1168.00,0.0378
1167.00,0.0383
1166.00,0.0372
1165.00,0.0352
1164.00,0.0327
1163.00,0.0302
1162.00,0.0281
1161.00,0.0263
1160.00,0.0249
1159.00,0.0238
1158.00,0.0230
1157.00,0.0223
1156.00,0.0218
1155.00,0.0214
1154.00,0.0210
1153.00,0.0206
1152.00,0.0201
1151.00,0.0194
1150.00,0.0185
1149.00,0.0175
1148.00,0.0166
1147.00,0.0157
1146.00,0.0149
1145.00,0.0140
1144.00,0.0132
1143.00,0.0125
1142.00,0.0119
1141.00,0.0114
1140.00,0.0110
1139.00,0.0105
1138.00,0.0101
1137.00,0.0098
1136.00,0.0095
1135.00,0.0093
1134.00,0.0091
1133.00,0.0090
1132.00,0.0090
1131.00,0.0089
1130.00,0.0089
1129.00,0.0090
1128.00,0.0091
1127.00,0.0093
1126.00,0.0094
1125.00,0.0095
1124.00,0.0095
1123.00,0.0096
1122.00,0.0097
1121.00,0.0098
1120.00,0.0099
1119.00,0.0101
1118.00,0.0102
1117.00,0.0103
1116.00,0.0104
1115.00,0.0105
1114.00,0.0106
1113.00,0.0108
1112.00,0.0110
1111.00,0.0113
1110.00,0.0116
1109.00,0.0120
1108.00,0.0124
1107.00,0.0129
1106.00,0.0134
1105.00,0.0139
1104.00,0.0144
1103.00,0.0147
1102.00,0.0147
1101.00,0.0144
1100.00,0.0139
1099.00,0.0134
1098.00,0.0128
1097.00,0.0123
1096.00,0.0119
1095.00,0.0115
1094.00,0.0111
1093.00,0.0109
1092.00,0.0106
1091.00,0.0104
1090.00,0.0103
1089.00,0.0102
1088.00,0.0100
1087.00,0.0099
1086.00,0.0099
1085.00,0.0099
1084.00,0.0099
1083.00,0.0099
1082.00,0.0099
1081.00,0.0099
1080.00,0.0098
1079.00,0.0096
1078.00,0.0094
1077.00,0.0093
1076.00,0.0091
1075.00,0.0090
1074.00,0.0090
1073.00,0.0090
1072.00,0.0090
1071.00,0.0091
1070.00,0.0091
1069.00,0.0091
1068.00,0.0092
1067.00,0.0093
1066.00,0.0094
1065.00,0.0095
1064.00,0.0096
1063.00,0.0096
1062.00,0.0097
1061.00,0.0098
1060.00,0.0099
1059.00,0.0100
1058.00,0.0102
1057.00,0.0103
1056.00,0.0105
1055.00,0.0107
1054.00,0.0109
1053.00,0.0112
1052.00,0.0116
1051.00,0.0121
1050.00,0.0126
1049.00,0.0131
1048.00,0.0137
1047.00,0.0143
1046.00,0.0149
1045.00,0.0153
1044.00,0.0154
1043.00,0.0152
1042.00,0.0149
1041.00,0.0145
1040.00,0.0142
1039.00,0.0140
1038.00,0.0139
1037.00,0.0140
1036.00,0.0140
1035.00,0.0140
1034.00,0.0138
1033.00,0.0136
1032.00,0.0134
1031.00,0.0132
1030.00,0.0132
1029.00,0.0132
1028.00,0.0133
1027.00,0.0135
1026.00,0.0137
1025.00,0.0139
1024.00,0.0142
1023.00,0.0144
1022.00,0.0147
1021.00,0.0149
1020.00,0.0151
1019.00,0.0153
1018.00,0.0155
1017.00,0.0156
1016.00,0.0157
1015.00,0.0157
1014.00,0.0157
1013.00,0.0158
1012.00,0.0158
1011.00,0.0158
1010.00,0.0158
1009.00,0.0159
1008.00,0.0161
1007.00,0.0166
1006.00,0.0175
1005.00,0.0188
1004.00,0.0206
1003.00,0.0234
1002.00,0.0271
1001.00,0.0318
1000.00,0.0371
999.00,0.0417
998.00,0.0442
997.00,0.0437
996.00,0.0404
995.00,0.0354
994.00,0.0300
993.00,0.0252
992.00,0.0215
991.00,0.0188
990.00,0.0169
989.00,0.0156
988.00,0.0148
987.00,0.0142
986.00,0.0139
985.00,0.0140
984.00,0.0144
983.00,0.0150
982.00,0.0161
981.00,0.0177
980.00,0.0199
979.00,0.0230
978.00,0.0270
977.00,0.0319
976.00,0.0374
975.00,0.0428
974.00,0.0473
973.00,0.0495
972.00,0.0485
971.00,0.0443
970.00,0.0380
969.00,0.0313
968.00,0.0254
967.00,0.0210
966.00,0.0179
965.00,0.0156
964.00,0.0141
963.00,0.0129
962.00,0.0120
961.00,0.0113
960.00,0.0107
959.00,0.0103
958.00,0.0100
957.00,0.0097
956.00,0.0094
955.00,0.0092
954.00,0.0089
953.00,0.0087
952.00,0.0085
951.00,0.0084
950.00,0.0082
949.00,0.0082
948.00,0.0082
947.00,0.0083
946.00,0.0084
945.00,0.0086
944.00,0.0090
943.00,0.0094
942.00,0.0097
941.00,0.0100
940.00,0.0100
939.00,0.0098
938.00,0.0094
937.00,0.0088
936.00,0.0083
935.00,0.0078
934.00,0.0074
933.00,0.0072
932.00,0.0070
931.00,0.0070
930.00,0.0070
929.00,0.0070
928.00,0.0069
927.00,0.0068
926.00,0.0068
925.00,0.0067
924.00,0.0067
923.00,0.0067
922.00,0.0067
921.00,0.0067
920.00,0.0067
919.00,0.0068
918.00,0.0069
917.00,0.0070
916.00,0.0070
915.00,0.0071
914.00,0.0072
913.00,0.0074
912.00,0.0075
911.00,0.0076
910.00,0.0077
909.00,0.0079
908.00,0.0083
907.00,0.0088
906.00,0.0094
905.00,0.0103
904.00,0.0115
903.00,0.0131
902.00,0.0150
901.00,0.0167
900.00,0.0177
899.00,0.0179
898.00,0.0171
897.00,0.0156
896.00,0.0139
895.00,0.0123
894.00,0.0109
893.00,0.0099
892.00,0.0091
891.00,0.0086
890.00,0.0083
889.00,0.0081
888.00,0.0080
887.00,0.0079
886.00,0.0079
885.00,0.0078
884.00,0.0077
883.00,0.0077
882.00,0.0077
881.00,0.0078
880.00,0.0078
879.00,0.0079
878.00,0.0080
877.00,0.0081
876.00,0.0082
875.00,0.0084
874.00,0.0084
873.00,0.0084
872.00,0.0083
871.00,0.0083
870.00,0.0084
869.00,0.0084
868.00,0.0085
867.00,0.0085
866.00,0.0086
865.00,0.0086
864.00,0.0087
863.00,0.0088
862.00,0.0089
861.00,0.0091
860.00,0.0092
859.00,0.0094
858.00,0.0096
857.00,0.0096
856.00,0.0097
855.00,0.0098
854.00,0.0100
853.00,0.0103
852.00,0.0106
851.00,0.0111
850.00,0.0118
849.00,0.0126
848.00,0.0137
847.00,0.0152
846.00,0.0176
845.00,0.0214
844.00,0.0272
843.00,0.0344
842.00,0.0409
841.00,0.0441
840.00,0.0421
839.00,0.0362
838.00,0.0288
837.00,0.0226
836.00,0.0183
835.00,0.0157
834.00,0.0141
833.00,0.0133
832.00,0.0127
831.00,0.0124
830.00,0.0121
829.00,0.0118
828.00,0.0115
827.00,0.0113
826.00,0.0112
825.00,0.0112
824.00,0.0112
823.00,0.0113
822.00,0.0114
821.00,0.0115
820.00,0.0116
819.00,0.0118
818.00,0.0121
817.00,0.0126
816.00,0.0133
815.00,0.0143
814.00,0.0157
813.00,0.0174
812.00,0.0193
811.00,0.0210
810.00,0.0223
809.00,0.0228
808.00,0.0223
807.00,0.0210
806.00,0.0193
805.00,0.0176
804.00,0.0161
803.00,0.0149
802.00,0.0140
801.00,0.0133
800.00,0.0128
799.00,0.0122
798.00,0.0116
797.00,0.0111
796.00,0.0107
795.00,0.0104
794.00,0.0102
793.00,0.0100
792.00,0.0099
791.00,0.0096
790.00,0.0093
789.00,0.0089
788.00,0.0087
787.00,0.0084
786.00,0.0082
785.00,0.0079
784.00,0.0077
783.00,0.0075
782.00,0.0074
781.00,0.0074
780.00,0.0074
779.00,0.0075
778.00,0.0074
777.00,0.0072
776.00,0.0070
775.00,0.0069
774.00,0.0069
773.00,0.0070
772.00,0.0071
771.00,0.0071
770.00,0.0071
769.00,0.0071
768.00,0.0071
767.00,0.0071
766.00,0.0071
765.00,0.0071
764.00,0.0071
763.00,0.0071
762.00,0.0071
761.00,0.0071
760.00,0.0071
759.00,0.0072
758.00,0.0074
757.00,0.0075
756.00,0.0076
755.00,0.0079
754.00,0.0081
753.00,0.0083
752.00,0.0084
751.00,0.0084
750.00,0.0084
749.00,0.0084
748.00,0.0085
747.00,0.0085
746.00,0.0086
745.00,0.0088
744.00,0.0090
743.00,0.0094
742.00,0.0098
741.00,0.0102
740.00,0.0105
739.00,0.0107
738.00,0.0109
737.00,0.0113
736.00,0.0117
735.00,0.0122
734.00,0.0128
733.00,0.0135
732.00,0.0142
731.00,0.0148
730.00,0.0153
729.00,0.0155
728.00,0.0155
727.00,0.0156
726.00,0.0157
725.00,0.0161
724.00,0.0167
723.00,0.0174
722.00,0.0180
721.00,0.0183
720.00,0.0181
719.00,0.0174
718.00,0.0162
717.00,0.0150
716.00,0.0140
715.00,0.0133
714.00,0.0127
713.00,0.0122
712.00,0.0119
711.00,0.0118
710.00,0.0117
709.00,0.0116
708.00,0.0114
707.00,0.0113
706.00,0.0112
705.00,0.0112
704.00,0.0112
703.00,0.0112
702.00,0.0111
701.00,0.0110
700.00,0.0109
699.00,0.0107
698.00,0.0106
697.00,0.0105
696.00,0.0105
695.00,0.0106
694.00,0.0106
693.00,0.0106
692.00,0.0106
691.00,0.0105
690.00,0.0104
689.00,0.0104
688.00,0.0104
687.00,0.0104
686.00,0.0104
685.00,0.0103
684.00,0.0102
683.00,0.0103
682.00,0.0105
681.00,0.0105
680.00,0.0106
679.00,0.0107
678.00,0.0108
677.00,0.0110
676.00,0.0112
675.00,0.0113
674.00,0.0114
673.00,0.0117
672.00,0.0120
671.00,0.0123
670.00,0.0127
669.00,0.0129
668.00,0.0128
667.00,0.0125
666.00,0.0119
665.00,0.0115
664.00,0.0111
663.00,0.0109
662.00,0.0107
661.00,0.0106
660.00,0.0105
659.00,0.0106
658.00,0.0106
657.00,0.0105
656.00,0.0104
655.00,0.0102
654.00,0.0100
653.00,0.0099
652.00,0.0099
651.00,0.0099
650.00,0.0100
649.00,0.0099
648.00,0.0097
647.00,0.0094
646.00,0.0093
645.00,0.0094
644.00,0.0095
643.00,0.0094
642.00,0.0094
641.00,0.0093
640.00,0.0094
639.00,0.0095
638.00,0.0097
637.00,0.0100
636.00,0.0100
635.00,0.0099
634.00,0.0097
633.00,0.0096
632.00,0.0097
631.00,0.0099
630.00,0.0101
629.00,0.0102
628.00,0.0103
627.00,0.0104
626.00,0.0104
625.00,0.0105
624.00,0.0105
623.00,0.0104
622.00,0.0103
621.00,0.0101
620.00,0.0101
619.00,0.0102
618.00,0.0103
617.00,0.0102
616.00,0.0099
615.00,0.0096
614.00,0.0094
613.00,0.0094
612.00,0.0095
611.00,0.0095
610.00,0.0093
609.00,0.0093
608.00,0.0094
607.00,0.0094
606.00,0.0093
605.00,0.0090
604.00,0.0086
603.00,0.0082
602.00,0.0079
601.00,0.0080
600.00,0.0083
599.00,0.0088
598.00,0.0091
597.00,0.0091
596.00,0.0090
595.00,0.0090
594.00,0.0091
593.00,0.0094
592.00,0.0096
591.00,0.0099
590.00,0.0102
589.00,0.0105
588.00,0.0107
587.00,0.0106
586.00,0.0103
585.00,0.0103
584.00,0.0106
583.00,0.0110
582.00,0.0112
581.00,0.0112
580.00,0.0109
579.00,0.0108
578.00,0.0108
577.00,0.0106
576.00,0.0105
575.00,0.0104
574.00,0.0103
573.00,0.0099
572.00,0.0094
571.00,0.0090
570.00,0.0088
569.00,0.0088
568.00,0.0089
567.00,0.0091
566.00,0.0093
565.00,0.0093
564.00,0.0091
563.00,0.0088
562.00,0.0086
561.00,0.0085
560.00,0.0085
559.00,0.0087
558.00,0.0088
557.00,0.0087
556.00,0.0086
555.00,0.0089
554.00,0.0094
553.00,0.0101
552.00,0.0108
551.00,0.0115
550.00,0.0121
549.00,0.0124
548.00,0.0123
547.00,0.0121
546.00,0.0121
545.00,0.0121
544.00,0.0122
543.00,0.0123
542.00,0.0126
541.00,0.0129
540.00,0.0131
539.00,0.0130
538.00,0.0129
537.00,0.0130
536.00,0.0133
535.00,0.0138
534.00,0.0142
533.00,0.0140
532.00,0.0132
531.00,0.0123
530.00,0.0117
529.00,0.0118
528.00,0.0121
527.00,0.0122
526.00,0.0117
525.00,0.0109
524.00,0.0101
523.00,0.0094
522.00,0.0091
521.00,0.0090
520.00,0.0090
519.00,0.0086
518.00,0.0079
517.00,0.0070
516.00,0.0065
515.00,0.0065
514.00,0.0070
513.00,0.0076
512.00,0.0084
511.00,0.0094
510.00,0.0107
509.00,0.0118
508.00,0.0124
507.00,0.0124
506.00,0.0122
505.00,0.0124
504.00,0.0131
503.00,0.0144
502.00,0.0156
501.00,0.0159
500.00,0.0151
499.00,0.0138
498.00,0.0128
497.00,0.0121
496.00,0.0116
495.00,0.0111
494.00,0.0107
493.00,0.0105
492.00,0.0102
491.00,0.0098
490.00,0.0095
489.00,0.0095
488.00,0.0095
487.00,0.0091
486.00,0.0083
485.00,0.0075
484.00,0.0073
483.00,0.0075
482.00,0.0081
481.00,0.0087
480.00,0.0089
479.00,0.0088
478.00,0.0088
477.00,0.0090
476.00,0.0097
475.00,0.0106
474.00,0.0118
473.00,0.0132
472.00,0.0149
471.00,0.0166
470.00,0.0179
469.00,0.0187
468.00,0.0193
467.00,0.0199
466.00,0.0210
465.00,0.0223
464.00,0.0233
463.00,0.0234
462.00,0.0225
461.00,0.0216
460.00,0.0214
459.00,0.0223
458.00,0.0238
457.00,0.0250
456.00,0.0254
455.00,0.0249
454.00,0.0237
453.00,0.0221
452.00,0.0203
451.00,0.0188
450.00,0.0182
