Created as New Dataset,Sample 045 By Administrator Date Thursday, September 04 2025
cm-1,A
4000.00,0.0010
3999.00,0.0010
3998.00,0.0010
3997.00,0.0010
3996.00,0.0010
3995.00,0.0010
3994.00,0.0010
3993.00,0.0010
3992.00,0.0010
3991.00,0.0010
3990.00,0.0009
3989.00,0.0009
3988.00,0.0009
3987.00,0.0009
3986.00,0.0010
3985.00,0.0010
3984.00,0.0009
3983.00,0.0009
3982.00,0.0009
3981.00,0.0009
3980.00,0.0009
3979.00,0.0009
3978.00,0.0009
3977.00,0.0009
3976.00,0.0009
3975.00,0.0008
3974.00,0.0008
3973.00,0.0008
3972.00,0.0008
3971.00,0.0008
3970.00,0.0008
3969.00,0.0008
3968.00,0.0008
3967.00,0.0008
3966.00,0.0008
3965.00,0.0008
3964.00,0.0008
3963.00,0.0008
3962.00,0.0008
3961.00,0.0009
3960.00,0.0009
3959.00,0.0009
3958.00,0.0009
3957.00,0.0009
3956.00,0.0008
3955.00,0.0008
3954.00,0.0007
3953.00,0.0007
3952.00,0.0007
3951.00,0.0007
3950.00,0.0007
3949.00,0.0008
3948.00,0.0008
3947.00,0.0009
3946.00,0.0009
3945.00,0.0009
3944.00,0.0009
3943.00,0.0008
3942.00,0.0008
3941.00,0.0008
3940.00,0.0008
3939.00,0.0008
3938.00,0.0008
3937.00,0.0008
3936.00,0.0008
3935.00,0.0009
3934.00,0.0009
3933.00,0.0009
3932.00,0.0008
3931.00,0.0008
3930.00,0.0008
3929.00,0.0009
3928.00,0.0009
3927.00,0.0009
3926.00,0.0009
3925.00,0.0009
3924.00,0.0009
3923.00,0.0009
3922.00,0.0009
3921.00,0.0009
3920.00,0.0009
3919.00,0.0009
3918.00,0.0008
3917.00,0.0008
3916.00,0.0008
3915.00,0.0008
3914.00,0.0008
3913.00,0.0008
3912.00,0.0008
3911.00,0.0008
3910.00,0.0008
3909.00,0.0008
3908.00,0.0008
3907.00,0.0008
3906.00,0.0008
3905.00,0.0008
3904.00,0.0008
3903.00,0.0008
3902.00,0.0008
3901.00,0.0009
3900.00,0.0009
3899.00,0.0009
3898.00,0.0009
3897.00,0.0010
3896.00,0.0009
3895.00,0.0009
3894.00,0.0009
3893.00,0.0008
3892.00,0.0008
3891.00,0.0008
3890.00,0.0009
3889.00,0.0008
3888.00,0.0008
3887.00,0.0008
3886.00,0.0008
3885.00,0.0008
3884.00,0.0008
3883.00,0.0008
3882.00,0.0008
3881.00,0.0008
3880.00,0.0008
3879.00,0.0008
3878.00,0.0008
3877.00,0.0008
3876.00,0.0008
3875.00,0.0008
3874.00,0.0008
3873.00,0.0008
3872.00,0.0008
3871.00,0.0008
3870.00,0.0008
3869.00,0.0007
3868.00,0.0007
3867.00,0.0007
3866.00,0.0007
3865.00,0.0007
3864.00,0.0007
3863.00,0.0007
3862.00,0.0007
3861.00,0.0007
3860.00,0.0006
3859.00,0.0006
3858.00,0.0006
3857.00,0.0005
3856.00,0.0004
3855.00,0.0004
3854.00,0.0004
3853.00,0.0005
3852.00,0.0006
3851.00,0.0006
3850.00,0.0007
3849.00,0.0007
3848.00,0.0007
3847.00,0.0007
3846.00,0.0007
3845.00,0.0007
3844.00,0.0007
3843.00,0.0007
3842.00,0.0007
3841.00,0.0007
3840.00,0.0006
3839.00,0.0006
3838.00,0.0006
3837.00,0.0007
3836.00,0.0007
3835.00,0.0007
3834.00,0.0007
3833.00,0.0008
3832.00,0.0008
3831.00,0.0008
3830.00,0.0008
3829.00,0.0007
3828.00,0.0007
3827.00,0.0007
3826.00,0.0006
3825.00,0.0006
3824.00,0.0006
3823.00,0.0006
3822.00,0.0006
3821.00,0.0006
3820.00,0.0006
3819.00,0.0006
3818.00,0.0007
3817.00,0.0007
3816.00,0.0007
3815.00,0.0008
3814.00,0.0008
3813.00,0.0008
3812.00,0.0008
3811.00,0.0007
3810.00,0.0007
3809.00,0.0007
3808.00,0.0007
3807.00,0.0006
3806.00,0.0006
3805.00,0.0006
3804.00,0.0006
3803.00,0.0007
3802.00,0.0007
3801.00,0.0007
3800.00,0.0007
3799.00,0.0007
3798.00,0.0007
3797.00,0.0007
3796.00,0.0007
3795.00,0.0008
3794.00,0.0008
3793.00,0.0008
3792.00,0.0008
3791.00,0.0008
3790.00,0.0008
3789.00,0.0008
3788.00,0.0007
3787.00,0.0007
3786.00,0.0007
3785.00,0.0008
3784.00,0.0008
3783.00,0.0008
3782.00,0.0008
3781.00,0.0007
3780.00,0.0007
3779.00,0.0007
3778.00,0.0007
3777.00,0.0007
3776.00,0.0007
3775.00,0.0008
3774.00,0.0008
3773.00,0.0008
3772.00,0.0009
3771.00,0.0009
3770.00,0.0009
3769.00,0.0008
3768.00,0.0008
3767.00,0.0008
3766.00,0.0008
3765.00,0.0008
3764.00,0.0008
3763.00,0.0008
3762.00,0.0008
3761.00,0.0008
3760.00,0.0007
3759.00,0.0007
3758.00,0.0007
3757.00,0.0007
3756.00,0.0006
3755.00,0.0006
3754.00,0.0006
3753.00,0.0006
3752.00,0.0006
3751.00,0.0006
3750.00,0.0006
3749.00,0.0007
3748.00,0.0007
3747.00,0.0007
3746.00,0.0008
3745.00,0.0008
3744.00,0.0008
3743.00,0.0007
3742.00,0.0007
3741.00,0.0007
3740.00,0.0007
3739.00,0.0006
3738.00,0.0006
3737.00,0.0006
3736.00,0.0005
3735.00,0.0005
3734.00,0.0005
3733.00,0.0005
3732.00,0.0005
3731.00,0.0005
3730.00,0.0005
3729.00,0.0005
3728.00,0.0004
3727.00,0.0004
3726.00,0.0005
3725.00,0.0005
3724.00,0.0005
3723.00,0.0005
3722.00,0.0005
3721.00,0.0006
3720.00,0.0006
3719.00,0.0006
3718.00,0.0006
3717.00,0.0006
3716.00,0.0006
3715.00,0.0006
3714.00,0.0006
3713.00,0.0006
3712.00,0.0006
3711.00,0.0006
3710.00,0.0006
3709.00,0.0006
3708.00,0.0006
3707.00,0.0006
3706.00,0.0006
3705.00,0.0006
3704.00,0.0006
3703.00,0.0005
3702.00,0.0005
3701.00,0.0005
3700.00,0.0006
3699.00,0.0006
3698.00,0.0007
3697.00,0.0007
3696.00,0.0007
3695.00,0.0006
3694.00,0.0006
3693.00,0.0006
3692.00,0.0006
3691.00,0.0006
3690.00,0.0006
3689.00,0.0007
3688.00,0.0007
3687.00,0.0007
3686.00,0.0007
3685.00,0.0007
3684.00,0.0007
3683.00,0.0007
3682.00,0.0007
3681.00,0.0008
3680.00,0.0008
3679.00,0.0008
3678.00,0.0008
3677.00,0.0008
3676.00,0.0008
3675.00,0.0008
3674.00,0.0008
3673.00,0.0009
3672.00,0.0009
3671.00,0.0009
3670.00,0.0008
3669.00,0.0008
3668.00,0.0008
3667.00,0.0009
3666.00,0.0009
3665.00,0.0009
3664.00,0.0010
3663.00,0.0010
3662.00,0.0010
3661.00,0.0011
3660.00,0.0011
3659.00,0.0010
3658.00,0.0010
3657.00,0.0010
3656.00,0.0009
3655.00,0.0009
3654.00,0.0009
3653.00,0.0009
3652.00,0.0009
3651.00,0.0010
3650.00,0.0010
3649.00,0.0010
3648.00,0.0010
3647.00,0.0010
3646.00,0.0010
3645.00,0.0011
3644.00,0.0011
3643.00,0.0010
3642.00,0.0010
3641.00,0.0010
3640.00,0.0010
3639.00,0.0010
3638.00,0.0010
3637.00,0.0010
3636.00,0.0009
3635.00,0.0009
3634.00,0.0009
3633.00,0.0009
3632.00,0.0009
3631.00,0.0009
3630.00,0.0009
3629.00,0.0009
3628.00,0.0009
3627.00,0.0009
3626.00,0.0009
3625.00,0.0009
3624.00,0.0009
3623.00,0.0009
3622.00,0.0009
3621.00,0.0009
3620.00,0.0010
3619.00,0.0010
3618.00,0.0010
3617.00,0.0010
3616.00,0.0010
3615.00,0.0011
3614.00,0.0011
3613.00,0.0011
3612.00,0.0011
3611.00,0.0011
3610.00,0.0011
3609.00,0.0011
3608.00,0.0012
3607.00,0.0012
3606.00,0.0012
3605.00,0.0013
3604.00,0.0013
3603.00,0.0013
3602.00,0.0013
3601.00,0.0013
3600.00,0.0013
3599.00,0.0013
3598.00,0.0012
3597.00,0.0012
3596.00,0.0012
3595.00,0.0012
3594.00,0.0013
3593.00,0.0014
3592.00,0.0015
3591.00,0.0015
3590.00,0.0015
3589.00,0.0015
3588.00,0.0015
3587.00,0.0015
3586.00,0.0015
3585.00,0.0015
3584.00,0.0015
3583.00,0.0015
3582.00,0.0016
3581.00,0.0016
3580.00,0.0017
3579.00,0.0017
3578.00,0.0017
3577.00,0.0018
3576.00,0.0018
3575.00,0.0018
3574.00,0.0018
3573.00,0.0018
3572.00,0.0018
3571.00,0.0018
3570.00,0.0018
3569.00,0.0018
3568.00,0.0018
3567.00,0.0018
3566.00,0.0019
3565.00,0.0019
3564.00,0.0020
3563.00,0.0020
3562.00,0.0020
3561.00,0.0021
3560.00,0.0021
3559.00,0.0022
3558.00,0.0022
3557.00,0.0022
3556.00,0.0022
3555.00,0.0022
3554.00,0.0022
3553.00,0.0022
3552.00,0.0023
3551.00,0.0023
3550.00,0.0024
3549.00,0.0024
3548.00,0.0025
3547.00,0.0025
3546.00,0.0026
3545.00,0.0026
3544.00,0.0025
3543.00,0.0025
3542.00,0.0025
3541.00,0.0026
3540.00,0.0026
3539.00,0.0026
3538.00,0.0026
3537.00,0.0026
3536.00,0.0026
3535.00,0.0027
3534.00,0.0027
3533.00,0.0028
3532.00,0.0028
3531.00,0.0028
3530.00,0.0028
3529.00,0.0028
3528.00,0.0029
3527.00,0.0029
3526.00,0.0030
3525.00,0.0030
3524.00,0.0030
3523.00,0.0030
3522.00,0.0031
3521.00,0.0031
3520.00,0.0031
3519.00,0.0032
3518.00,0.0032
3517.00,0.0032
3516.00,0.0032
3515.00,0.0033
3514.00,0.0033
3513.00,0.0034
3512.00,0.0034
3511.00,0.0034
3510.00,0.0034
3509.00,0.0034
3508.00,0.0035
3507.00,0.0035
3506.00,0.0036
3505.00,0.0036
3504.00,0.0036
3503.00,0.0036
3502.00,0.0036
3501.00,0.0036
3500.00,0.0036
3499.00,0.0037
3498.00,0.0037
3497.00,0.0038
3496.00,0.0038
3495.00,0.0039
3494.00,0.0039
3493.00,0.0039
3492.00,0.0039
3491.00,0.0039
3490.00,0.0040
3489.00,0.0040
3488.00,0.0041
3487.00,0.0041
3486.00,0.0041
3485.00,0.0042
3484.00,0.0042
3483.00,0.0042
3482.00,0.0042
3481.00,0.0042
3480.00,0.0043
3479.00,0.0043
3478.00,0.0043
3477.00,0.0043
3476.00,0.0044
3475.00,0.0044
3474.00,0.0045
3473.00,0.0046
3472.00,0.0046
3471.00,0.0047
3470.00,0.0047
3469.00,0.0047
3468.00,0.0046
3467.00,0.0046
3466.00,0.0047
3465.00,0.0047
3464.00,0.0047
3463.00,0.0047
3462.00,0.0047
3461.00,0.0047
3460.00,0.0048
3459.00,0.0048
3458.00,0.0048
3457.00,0.0048
3456.00,0.0049
3455.00,0.0049
3454.00,0.0049
3453.00,0.0049
3452.00,0.0049
3451.00,0.0050
3450.00,0.0050
3449.00,0.0051
3448.00,0.0051
3447.00,0.0051
3446.00,0.0051
3445.00,0.0051
3444.00,0.0051
3443.00,0.0052
3442.00,0.0052
3441.00,0.0052
3440.00,0.0052
3439.00,0.0053
3438.00,0.0053
3437.00,0.0053
3436.00,0.0054
3435.00,0.0054
3434.00,0.0054
3433.00,0.0055
3432.00,0.0055
3431.00,0.0055
3430.00,0.0055
3429.00,0.0055
3428.00,0.0055
3427.00,0.0055
3426.00,0.0056
3425.00,0.0056
3424.00,0.0057
3423.00,0.0057
3422.00,0.0057
3421.00,0.0057
3420.00,0.0057
3419.00,0.0057
3418.00,0.0058
3417.00,0.0058
3416.00,0.0058
3415.00,0.0058
3414.00,0.0058
3413.00,0.0058
3412.00,0.0059
3411.00,0.0059
3410.00,0.0059
3409.00,0.0059
3408.00,0.0059
3407.00,0.0060
3406.00,0.0060
3405.00,0.0061
3404.00,0.0061
3403.00,0.0060
3402.00,0.0060
3401.00,0.0060
3400.00,0.0060
3399.00,0.0061
3398.00,0.0061
3397.00,0.0061
3396.00,0.0061
3395.00,0.0061
3394.00,0.0061
3393.00,0.0061
3392.00,0.0062
3391.00,0.0062
3390.00,0.0062
3389.00,0.0062
3388.00,0.0063
3387.00,0.0063
3386.00,0.0062
3385.00,0.0062
3384.00,0.0062
3383.00,0.0062
3382.00,0.0062
3381.00,0.0062
3380.00,0.0062
3379.00,0.0063
3378.00,0.0063
3377.00,0.0063
3376.00,0.0063
3375.00,0.0064
3374.00,0.0064
3373.00,0.0064
3372.00,0.0064
3371.00,0.0064
3370.00,0.0064
3369.00,0.0064
3368.00,0.0064
3367.00,0.0065
3366.00,0.0065
3365.00,0.0065
3364.00,0.0065
3363.00,0.0065
3362.00,0.0065
3361.00,0.0065
3360.00,0.0065
3359.00,0.0064
3358.00,0.0064
3357.00,0.0064
3356.00,0.0064
3355.00,0.0064
3354.00,0.0064
3353.00,0.0065
3352.00,0.0065
3351.00,0.0065
3350.00,0.0065
3349.00,0.0066
3348.00,0.0066
3347.00,0.0066
3346.00,0.0066
3345.00,0.0066
3344.00,0.0066
3343.00,0.0065
3342.00,0.0066
3341.00,0.0066
3340.00,0.0065
3339.00,0.0065
3338.00,0.0065
3337.00,0.0065
3336.00,0.0065
3335.00,0.0064
3334.00,0.0064
3333.00,0.0064
3332.00,0.0065
3331.00,0.0065
3330.00,0.0065
3329.00,0.0065
3328.00,0.0064
3327.00,0.0064
3326.00,0.0063
3325.00,0.0063
3324.00,0.0063
3323.00,0.0063
3322.00,0.0063
3321.00,0.0063
3320.00,0.0063
3319.00,0.0064
3318.00,0.0064
3317.00,0.0064
3316.00,0.0064
3315.00,0.0064
3314.00,0.0064
3313.00,0.0064
3312.00,0.0064
3311.00,0.0065
3310.00,0.0065
3309.00,0.0065
3308.00,0.0066
3307.00,0.0066
3306.00,0.0067
3305.00,0.0067
3304.00,0.0067
3303.00,0.0067
3302.00,0.0067
3301.00,0.0067
3300.00,0.0066
3299.00,0.0066
3298.00,0.0065
3297.00,0.0065
3296.00,0.0065
3295.00,0.0064
3294.00,0.0064
3293.00,0.0063
3292.00,0.0063
3291.00,0.0063
3290.00,0.0062
3289.00,0.0062
3288.00,0.0061
3287.00,0.0061
3286.00,0.0061
3285.00,0.0060
3284.00,0.0060
3283.00,0.0060
3282.00,0.0060
3281.00,0.0059
3280.00,0.0058
3279.00,0.0058
3278.00,0.0058
3277.00,0.0058
3276.00,0.0058
3275.00,0.0057
3274.00,0.0057
3273.00,0.0057
3272.00,0.0057
3271.00,0.0057
3270.00,0.0057
3269.00,0.0057
3268.00,0.0056
3267.00,0.0056
3266.00,0.0056
3265.00,0.0056
3264.00,0.0055
3263.00,0.0055
3262.00,0.0055
3261.00,0.0055
3260.00,0.0055
3259.00,0.0055
3258.00,0.0054
3257.00,0.0054
3256.00,0.0054
3255.00,0.0054
3254.00,0.0053
3253.00,0.0053
3252.00,0.0053
3251.00,0.0052
3250.00,0.0052
3249.00,0.0051
3248.00,0.0051
3247.00,0.0051
3246.00,0.0051
3245.00,0.0051
3244.00,0.0051
3243.00,0.0051
3242.00,0.0050
3241.00,0.0050
3240.00,0.0050
3239.00,0.0050
3238.00,0.0051
3237.00,0.0051
3236.00,0.0051
3235.00,0.0051
3234.00,0.0051
3233.00,0.0050
3232.00,0.0051
3231.00,0.0051
3230.00,0.0051
3229.00,0.0051
3228.00,0.0051
3227.00,0.0051
3226.00,0.0051
3225.00,0.0051
3224.00,0.0051
3223.00,0.0051
3222.00,0.0052
3221.00,0.0052
3220.00,0.0052
3219.00,0.0052
3218.00,0.0052
3217.00,0.0052
3216.00,0.0052
3215.00,0.0052
3214.00,0.0052
3213.00,0.0052
3212.00,0.0052
3211.00,0.0052
3210.00,0.0052
3209.00,0.0052
3208.00,0.0052
3207.00,0.0052
3206.00,0.0053
3205.00,0.0053
3204.00,0.0053
3203.00,0.0054
3202.00,0.0054
3201.00,0.0054
3200.00,0.0054
3199.00,0.0054
3198.00,0.0054
3197.00,0.0054
3196.00,0.0054
3195.00,0.0054
3194.00,0.0053
3193.00,0.0053
3192.00,0.0053
3191.00,0.0053
3190.00,0.0053
3189.00,0.0052
3188.00,0.0052
3187.00,0.0052
3186.00,0.0052
3185.00,0.0052
3184.00,0.0052
3183.00,0.0051
3182.00,0.0051
3181.00,0.0051
3180.00,0.0051
3179.00,0.0050
3178.00,0.0050
3177.00,0.0050
3176.00,0.0050
3175.00,0.0050
3174.00,0.0050
3173.00,0.0050
3172.00,0.0049
3171.00,0.0049
3170.00,0.0048
3169.00,0.0048
3168.00,0.0048
3167.00,0.0048
3166.00,0.0048
3165.00,0.0048
3164.00,0.0047
3163.00,0.0047
3162.00,0.0047
3161.00,0.0046
3160.00,0.0046
3159.00,0.0046
3158.00,0.0046
3157.00,0.0046
3156.00,0.0046
3155.00,0.0046
3154.00,0.0046
3153.00,0.0046
3152.00,0.0046
3151.00,0.0046
3150.00,0.0046
3149.00,0.0046
3148.00,0.0046
3147.00,0.0046
3146.00,0.0046
3145.00,0.0046
3144.00,0.0046
3143.00,0.0045
3142.00,0.0045
3141.00,0.0045
3140.00,0.0045
3139.00,0.0045
3138.00,0.0045
3137.00,0.0044
3136.00,0.0044
3135.00,0.0044
3134.00,0.0043
3133.00,0.0043
3132.00,0.0043
3131.00,0.0043
3130.00,0.0043
3129.00,0.0043
3128.00,0.0042
3127.00,0.0042
3126.00,0.0041
3125.00,0.0040
3124.00,0.0040
3123.00,0.0040
3122.00,0.0040
3121.00,0.0040
3120.00,0.0040
3119.00,0.0040
3118.00,0.0040
3117.00,0.0040
3116.00,0.0040
3115.00,0.0039
3114.00,0.0039
3113.00,0.0038
3112.00,0.0038
3111.00,0.0038
3110.00,0.0038
3109.00,0.0038
3108.00,0.0038
3107.00,0.0038
3106.00,0.0037
3105.00,0.0037
3104.00,0.0036
3103.00,0.0036
3102.00,0.0036
3101.00,0.0036
3100.00,0.0036
3099.00,0.0036
3098.00,0.0036
3097.00,0.0036
3096.00,0.0036
3095.00,0.0036
3094.00,0.0036
3093.00,0.0036
3092.00,0.0036
3091.00,0.0036
3090.00,0.0036
3089.00,0.0036
3088.00,0.0035
3087.00,0.0035
3086.00,0.0035
3085.00,0.0035
3084.00,0.0036
3083.00,0.0036
3082.00,0.0036
3081.00,0.0035
3080.00,0.0035
3079.00,0.0035
3078.00,0.0035
3077.00,0.0035
3076.00,0.0035
3075.00,0.0035
3074.00,0.0035
3073.00,0.0035
3072.00,0.0035
3071.00,0.0035
3070.00,0.0035
3069.00,0.0036
3068.00,0.0036
3067.00,0.0035
3066.00,0.0035
3065.00,0.0035
3064.00,0.0036
3063.00,0.0036
3062.00,0.0036
3061.00,0.0036
3060.00,0.0036
3059.00,0.0036
3058.00,0.0036
3057.00,0.0036
3056.00,0.0037
3055.00,0.0037
3054.00,0.0038
3053.00,0.0038
3052.00,0.0038
3051.00,0.0038
3050.00,0.0038
3049.00,0.0039
3048.00,0.0039
3047.00,0.0039
3046.00,0.0039
3045.00,0.0039
3044.00,0.0039
3043.00,0.0039
3042.00,0.0039
3041.00,0.0039
3040.00,0.0040
3039.00,0.0041
3038.00,0.0041
3037.00,0.0041
3036.00,0.0041
3035.00,0.0042
3034.00,0.0042
3033.00,0.0042
3032.00,0.0043
3031.00,0.0043
3030.00,0.0043
3029.00,0.0044
3028.00,0.0045
3027.00,0.0046
3026.00,0.0046
3025.00,0.0047
3024.00,0.0047
3023.00,0.0048
3022.00,0.0048
3021.00,0.0049
3020.00,0.0050
3019.00,0.0051
3018.00,0.0052
3017.00,0.0054
3016.00,0.0055
3015.00,0.0056
3014.00,0.0058
3013.00,0.0059
3012.00,0.0061
3011.00,0.0062
3010.00,0.0064
3009.00,0.0066
3008.00,0.0068
3007.00,0.0070
3006.00,0.0072
3005.00,0.0075
3004.00,0.0078
3003.00,0.0081
3002.00,0.0085
3001.00,0.0088
3000.00,0.0091
2999.00,0.0094
2998.00,0.0098
2997.00,0.0102
2996.00,0.0106
2995.00,0.0110
2994.00,0.0114
2993.00,0.0119
2992.00,0.0124
2991.00,0.0130
2990.00,0.0136
2989.00,0.0144
2988.00,0.0152
2987.00,0.0161
2986.00,0.0172
2985.00,0.0184
2984.00,0.0198
2983.00,0.0214
2982.00,0.0231
2981.00,0.0248
2980.00,0.0267
2979.00,0.0287
2978.00,0.0310
2977.00,0.0337
2976.00,0.0368
2975.00,0.0405
2974.00,0.0448
2973.00,0.0497
2972.00,0.0552
2971.00,0.0614
2970.00,0.0683
2969.00,0.0758
2968.00,0.0840
2967.00,0.0929
2966.00,0.1021
2965.00,0.1116
2964.00,0.1207
2963.00,0.1290
2962.00,0.1360
2961.00,0.1414
2960.00,0.1452
2959.00,0.1480
2958.00,0.1504
2957.00,0.1535
2956.00,0.1577
2955.00,0.1636
2954.00,0.1710
2953.00,0.1789
2952.00,0.1862
2951.00,0.1912
2950.00,0.1927
2949.00,0.1899
2948.00,0.1828
2947.00,0.1722
2946.00,0.1596
2945.00,0.1465
2944.00,0.1343
2943.00,0.1239
2942.00,0.1159
2941.00,0.1104
2940.00,0.1073
2939.00,0.1064
2938.00,0.1075
2937.00,0.1103
2936.00,0.1146
2935.00,0.1203
2934.00,0.1274
2933.00,0.1358
2932.00,0.1454
2931.00,0.1560
2930.00,0.1674
2929.00,0.1792
2928.00,0.1911
2927.00,0.2029
2926.00,0.2144
2925.00,0.2255
2924.00,0.2365
2923.00,0.2473
2922.00,0.2582
2921.00,0.2685
2920.00,0.2776
2919.00,0.2843
2918.00,0.2872
2917.00,0.2857
2916.00,0.2797
2915.00,0.2702
2914.00,0.2586
2913.00,0.2464
2912.00,0.2349
2911.00,0.2246
2910.00,0.2157
2909.00,0.2080
2908.00,0.2010
2907.00,0.1944
2906.00,0.1878
2905.00,0.1810
2904.00,0.1741
2903.00,0.1672
2902.00,0.1603
2901.00,0.1536
2900.00,0.1472
2899.00,0.1410
2898.00,0.1352
2897.00,0.1299
2896.00,0.1251
2895.00,0.1210
2894.00,0.1175
2893.00,0.1146
2892.00,0.1123
2891.00,0.1106
2890.00,0.1094
2889.00,0.1086
2888.00,0.1082
2887.00,0.1081
2886.00,0.1083
2885.00,0.1088
2884.00,0.1096
2883.00,0.1108
2882.00,0.1124
2881.00,0.1141
2880.00,0.1157
2879.00,0.1170
2878.00,0.1175
2877.00,0.1174
2876.00,0.1168
2875.00,0.1160
2874.00,0.1157
2873.00,0.1160
2872.00,0.1171
2871.00,0.1189
2870.00,0.1211
2869.00,0.1233
2868.00,0.1247
2867.00,0.1247
2866.00,0.1226
2865.00,0.1183
2864.00,0.1121
2863.00,0.1049
2862.00,0.0978
2861.00,0.0915
2860.00,0.0866
2859.00,0.0833
2858.00,0.0814
2857.00,0.0808
2856.00,0.0811
2855.00,0.0821
2854.00,0.0836
2853.00,0.0854
2852.00,0.0873
2851.00,0.0890
2850.00,0.0904
2849.00,0.0914
2848.00,0.0924
2847.00,0.0938
2846.00,0.0960
2845.00,0.0992
2844.00,0.1035
2843.00,0.1085
2842.00,0.1136
2841.00,0.1181
2840.00,0.1212
2839.00,0.1222
2838.00,0.1206
2837.00,0.1160
2836.00,0.1088
2835.00,0.0996
2834.00,0.0894
2833.00,0.0791
2832.00,0.0695
2831.00,0.0611
2830.00,0.0539
2829.00,0.0481
2828.00,0.0433
2827.00,0.0394
2826.00,0.0362
2825.00,0.0335
2824.00,0.0312
2823.00,0.0293
2822.00,0.0277
2821.00,0.0263
2820.00,0.0251
2819.00,0.0240
2818.00,0.0230
2817.00,0.0221
2816.00,0.0213
2815.00,0.0206
2814.00,0.0199
2813.00,0.0194
2812.00,0.0188
2811.00,0.0183
2810.00,0.0177
2809.00,0.0172
2808.00,0.0166
2807.00,0.0160
2806.00,0.0153
2805.00,0.0147
2804.00,0.0140
2803.00,0.0135
2802.00,0.0130
2801.00,0.0125
2800.00,0.0122
2799.00,0.0118
2798.00,0.0116
2797.00,0.0113
2796.00,0.0111
2795.00,0.0108
2794.00,0.0106
2793.00,0.0103
2792.00,0.0101
2791.00,0.0098
2790.00,0.0095
2789.00,0.0092
2788.00,0.0089
2787.00,0.0086
2786.00,0.0083
2785.00,0.0081
2784.00,0.0078
2783.00,0.0076
2782.00,0.0073
2781.00,0.0071
2780.00,0.0069
2779.00,0.0067
2778.00,0.0066
2777.00,0.0064
2776.00,0.0063
2775.00,0.0062
2774.00,0.0061
2773.00,0.0061
2772.00,0.0060
2771.00,0.0059
2770.00,0.0059
2769.00,0.0058
2768.00,0.0058
2767.00,0.0058
2766.00,0.0058
2765.00,0.0057
2764.00,0.0057
2763.00,0.0056
2762.00,0.0056
2761.00,0.0055
2760.00,0.0055
2759.00,0.0055
2758.00,0.0055
2757.00,0.0055
2756.00,0.0055
2755.00,0.0054
2754.00,0.0054
2753.00,0.0054
2752.00,0.0054
2751.00,0.0054
2750.00,0.0054
2749.00,0.0053
2748.00,0.0053
2747.00,0.0054
2746.00,0.0054
2745.00,0.0054
2744.00,0.0055
2743.00,0.0056
2742.00,0.0057
2741.00,0.0058
2740.00,0.0059
2739.00,0.0061
2738.00,0.0062
2737.00,0.0063
2736.00,0.0064
2735.00,0.0065
2734.00,0.0066
2733.00,0.0068
2732.00,0.0069
2731.00,0.0071
2730.00,0.0073
2729.00,0.0076
2728.00,0.0078
2727.00,0.0081
2726.00,0.0084
2725.00,0.0086
2724.00,0.0087
2723.00,0.0088
2722.00,0.0088
2721.00,0.0086
2720.00,0.0083
2719.00,0.0080
2718.00,0.0077
2717.00,0.0074
2716.00,0.0071
2715.00,0.0068
2714.00,0.0065
2713.00,0.0063
2712.00,0.0061
2711.00,0.0060
2710.00,0.0058
2709.00,0.0056
2708.00,0.0055
2707.00,0.0054
2706.00,0.0053
2705.00,0.0052
2704.00,0.0051
2703.00,0.0050
2702.00,0.0049
2701.00,0.0048
2700.00,0.0047
2699.00,0.0047
2698.00,0.0047
2697.00,0.0046
2696.00,0.0047
2695.00,0.0047
2694.00,0.0047
2693.00,0.0047
2692.00,0.0047
2691.00,0.0047
2690.00,0.0047
2689.00,0.0048
2688.00,0.0048
2687.00,0.0048
2686.00,0.0047
2685.00,0.0047
2684.00,0.0047
2683.00,0.0047
2682.00,0.0047
2681.00,0.0047
2680.00,0.0047
2679.00,0.0047
2678.00,0.0048
2677.00,0.0048
2676.00,0.0048
2675.00,0.0047
2674.00,0.0047
2673.00,0.0047
2672.00,0.0047
2671.00,0.0046
2670.00,0.0046
2669.00,0.0046
2668.00,0.0046
2667.00,0.0046
2666.00,0.0046
2665.00,0.0047
2664.00,0.0048
2663.00,0.0048
2662.00,0.0049
2661.00,0.0049
2660.00,0.0049
2659.00,0.0049
2658.00,0.0050
2657.00,0.0050
2656.00,0.0050
2655.00,0.0049
2654.00,0.0048
2653.00,0.0048
2652.00,0.0047
2651.00,0.0046
2650.00,0.0046
2649.00,0.0045
2648.00,0.0045
2647.00,0.0044
2646.00,0.0044
2645.00,0.0044
2644.00,0.0044
2643.00,0.0044
2642.00,0.0043
2641.00,0.0042
2640.00,0.0041
2639.00,0.0041
2638.00,0.0040
2637.00,0.0040
2636.00,0.0040
2635.00,0.0040
2634.00,0.0040
2633.00,0.0040
2632.00,0.0040
2631.00,0.0041
2630.00,0.0041
2629.00,0.0040
2628.00,0.0040
2627.00,0.0040
2626.00,0.0040
2625.00,0.0040
2624.00,0.0041
2623.00,0.0041
2622.00,0.0041
2621.00,0.0041
2620.00,0.0041
2619.00,0.0041
2618.00,0.0041
2617.00,0.0041
2616.00,0.0041
2615.00,0.0040
2614.00,0.0039
2613.00,0.0039
2612.00,0.0038
2611.00,0.0038
2610.00,0.0037
2609.00,0.0037
2608.00,0.0036
2607.00,0.0036
2606.00,0.0036
2605.00,0.0035
2604.00,0.0034
2603.00,0.0033
2602.00,0.0033
2601.00,0.0033
2600.00,0.0033
2599.00,0.0033
2598.00,0.0033
2597.00,0.0033
2596.00,0.0033
2595.00,0.0033
2594.00,0.0034
2593.00,0.0034
2592.00,0.0034
2591.00,0.0035
2590.00,0.0035
2589.00,0.0036
2588.00,0.0036
2587.00,0.0037
2586.00,0.0038
2585.00,0.0039
2584.00,0.0039
2583.00,0.0040
2582.00,0.0040
2581.00,0.0040
2580.00,0.0039
2579.00,0.0038
2578.00,0.0037
2577.00,0.0036
2576.00,0.0035
2575.00,0.0033
2574.00,0.0032
2573.00,0.0031
2572.00,0.0030
2571.00,0.0029
2570.00,0.0028
2569.00,0.0028
2568.00,0.0027
2567.00,0.0027
2566.00,0.0027
2565.00,0.0027
2564.00,0.0027
2563.00,0.0026
2562.00,0.0026
2561.00,0.0026
2560.00,0.0025
2559.00,0.0025
2558.00,0.0024
2557.00,0.0024
2556.00,0.0024
2555.00,0.0024
2554.00,0.0023
2553.00,0.0022
2552.00,0.0021
2551.00,0.0021
2550.00,0.0020
2549.00,0.0020
2548.00,0.0020
2547.00,0.0020
2546.00,0.0020
2545.00,0.0020
2544.00,0.0020
2543.00,0.0020
2542.00,0.0019
2541.00,0.0019
2540.00,0.0019
2539.00,0.0019
2538.00,0.0019
2537.00,0.0019
2536.00,0.0018
2535.00,0.0018
2534.00,0.0018
2533.00,0.0017
2532.00,0.0017
2531.00,0.0016
2530.00,0.0016
2529.00,0.0016
2528.00,0.0016
2527.00,0.0015
2526.00,0.0015
2525.00,0.0014
2524.00,0.0014
2523.00,0.0015
2522.00,0.0015
2521.00,0.0015
2520.00,0.0015
2519.00,0.0014
2518.00,0.0014
2517.00,0.0014
2516.00,0.0014
2515.00,0.0013
2514.00,0.0013
2513.00,0.0012
2512.00,0.0011
2511.00,0.0010
2510.00,0.0011
2509.00,0.0011
2508.00,0.0012
2507.00,0.0012
2506.00,0.0012
2505.00,0.0012
2504.00,0.0012
2503.00,0.0012
2502.00,0.0012
2501.00,0.0011
2500.00,0.0011
2499.00,0.0010
2498.00,0.0011
2497.00,0.0011
2496.00,0.0012
2495.00,0.0012
2494.00,0.0012
2493.00,0.0011
2492.00,0.0011
2491.00,0.0011
2490.00,0.0011
2489.00,0.0011
2488.00,0.0011
2487.00,0.0011
2486.00,0.0011
2485.00,0.0010
2484.00,0.0010
2483.00,0.0010
2482.00,0.0010
2481.00,0.0011
2480.00,0.0011
2479.00,0.0011
2478.00,0.0010
2477.00,0.0010
2476.00,0.0009
2475.00,0.0009
2474.00,0.0009
2473.00,0.0009
2472.00,0.0009
2471.00,0.0009
2470.00,0.0009
2469.00,0.0009
2468.00,0.0009
2467.00,0.0010
2466.00,0.0009
2465.00,0.0009
2464.00,0.0009
2463.00,0.0009
2462.00,0.0009
2461.00,0.0010
2460.00,0.0011
2459.00,0.0011
2458.00,0.0011
2457.00,0.0011
2456.00,0.0011
2455.00,0.0012
2454.00,0.0012
2453.00,0.0013
2452.00,0.0013
2451.00,0.0013
2450.00,0.0012
2449.00,0.0012
2448.00,0.0012
2447.00,0.0012
2446.00,0.0013
2445.00,0.0013
2444.00,0.0014
2443.00,0.0014
2442.00,0.0014
2441.00,0.0014
2440.00,0.0014
2439.00,0.0013
2438.00,0.0013
2437.00,0.0013
2436.00,0.0013
2435.00,0.0013
2434.00,0.0013
2433.00,0.0013
2432.00,0.0013
2431.00,0.0012
2430.00,0.0012
2429.00,0.0012
2428.00,0.0012
2427.00,0.0013
2426.00,0.0013
2425.00,0.0013
2424.00,0.0012
2423.00,0.0012
2422.00,0.0012
2421.00,0.0012
2420.00,0.0012
2419.00,0.0011
2418.00,0.0010
2417.00,0.0010
2416.00,0.0010
2415.00,0.0010
2414.00,0.0010
2413.00,0.0011
2412.00,0.0011
2411.00,0.0012
2410.00,0.0011
2409.00,0.0011
2408.00,0.0010
2407.00,0.0010
2406.00,0.0009
2405.00,0.0009
2404.00,0.0009
2403.00,0.0009
2402.00,0.0009
2401.00,0.0009
2400.00,0.0010
2399.00,0.0009
2398.00,0.0009
2397.00,0.0009
2396.00,0.0009
2395.00,0.0009
2394.00,0.0009
2393.00,0.0009
2392.00,0.0009
2391.00,0.0009
2390.00,0.0009
2389.00,0.0009
2388.00,0.0009
2387.00,0.0009
2386.00,0.0008
2385.00,0.0007
2384.00,0.0007
2383.00,0.0006
2382.00,0.0005
2381.00,0.0005
2380.00,0.0005
2379.00,0.0005
2378.00,0.0005
2377.00,0.0005
2376.00,0.0005
2375.00,0.0004
2374.00,0.0004
2373.00,0.0004
2372.00,0.0004
2371.00,0.0004
2370.00,0.0005
2369.00,0.0004
2368.00,0.0003
2367.00,0.0003
2366.00,0.0002
2365.00,0.0002
2364.00,0.0002
2363.00,0.0003
2362.00,0.0003
2361.00,0.0003
2360.00,0.0004
2359.00,0.0004
2358.00,0.0004
2357.00,0.0005
2356.00,0.0005
2355.00,0.0005
2354.00,0.0004
2353.00,0.0004
2352.00,0.0004
2351.00,0.0004
2350.00,0.0004
2349.00,0.0004
2348.00,0.0004
2347.00,0.0005
2346.00,0.0005
2345.00,0.0005
2344.00,0.0005
2343.00,0.0005
2342.00,0.0006
2341.00,0.0006
2340.00,0.0007
2339.00,0.0007
2338.00,0.0007
2337.00,0.0007
2336.00,0.0007
2335.00,0.0006
2334.00,0.0006
2333.00,0.0006
2332.00,0.0006
2331.00,0.0006
2330.00,0.0007
2329.00,0.0007
2328.00,0.0009
2327.00,0.0012
2326.00,0.0016
2325.00,0.0020
2324.00,0.0021
2323.00,0.0021
2322.00,0.0019
2321.00,0.0017
2320.00,0.0016
2319.00,0.0015
2318.00,0.0014
2317.00,0.0013
2316.00,0.0012
2315.00,0.0012
2314.00,0.0011
2313.00,0.0010
2312.00,0.0010
2311.00,0.0010
2310.00,0.0011
2309.00,0.0011
2308.00,0.0011
2307.00,0.0010
2306.00,0.0010
2305.00,0.0010
2304.00,0.0010
2303.00,0.0011
2302.00,0.0011
2301.00,0.0011
2300.00,0.0012
2299.00,0.0013
2298.00,0.0014
2297.00,0.0014
2296.00,0.0014
2295.00,0.0014
2294.00,0.0014
2293.00,0.0015
2292.00,0.0016
2291.00,0.0017
2290.00,0.0017
2289.00,0.0018
2288.00,0.0018
2287.00,0.0019
2286.00,0.0019
2285.00,0.0019
2284.00,0.0018
2283.00,0.0017
2282.00,0.0017
2281.00,0.0017
2280.00,0.0016
2279.00,0.0016
2278.00,0.0015
2277.00,0.0015
2276.00,0.0015
2275.00,0.0015
2274.00,0.0015
2273.00,0.0015
2272.00,0.0014
2271.00,0.0013
2270.00,0.0013
2269.00,0.0012
2268.00,0.0011
2267.00,0.0010
2266.00,0.0009
2265.00,0.0009
2264.00,0.0009
2263.00,0.0010
2262.00,0.0011
2261.00,0.0013
2260.00,0.0014
2259.00,0.0014
2258.00,0.0015
2257.00,0.0015
2256.00,0.0014
2255.00,0.0013
2254.00,0.0011
2253.00,0.0009
2252.00,0.0007
2251.00,0.0007
2250.00,0.0007
2249.00,0.0008
2248.00,0.0009
2247.00,0.0010
2246.00,0.0009
2245.00,0.0008
2244.00,0.0008
2243.00,0.0008
2242.00,0.0008
2241.00,0.0009
2240.00,0.0009
2239.00,0.0010
2238.00,0.0010
2237.00,0.0010
2236.00,0.0011
2235.00,0.0010
2234.00,0.0010
2233.00,0.0009
2232.00,0.0008
2231.00,0.0007
2230.00,0.0007
2229.00,0.0007
2228.00,0.0008
2227.00,0.0008
2226.00,0.0008
2225.00,0.0008
2224.00,0.0008
2223.00,0.0007
2222.00,0.0007
2221.00,0.0008
2220.00,0.0009
2219.00,0.0010
2218.00,0.0010
2217.00,0.0010
2216.00,0.0010
2215.00,0.0010
2214.00,0.0009
2213.00,0.0009
2212.00,0.0009
2211.00,0.0008
2210.00,0.0008
2209.00,0.0008
2208.00,0.0009
2207.00,0.0009
2206.00,0.0009
2205.00,0.0008
2204.00,0.0008
2203.00,0.0009
2202.00,0.0009
2201.00,0.0008
2200.00,0.0008
2199.00,0.0007
2198.00,0.0007
2197.00,0.0006
2196.00,0.0006
2195.00,0.0006
2194.00,0.0006
2193.00,0.0006
2192.00,0.0007
2191.00,0.0007
2190.00,0.0007
2189.00,0.0007
2188.00,0.0009
2187.00,0.0011
2186.00,0.0014
2185.00,0.0016
2184.00,0.0015
2183.00,0.0012
2182.00,0.0008
2181.00,0.0005
2180.00,0.0003
2179.00,0.0003
2178.00,0.0005
2177.00,0.0006
2176.00,0.0006
2175.00,0.0006
2174.00,0.0008
2173.00,0.0010
2172.00,0.0012
2171.00,0.0013
2170.00,0.0014
2169.00,0.0015
2168.00,0.0017
2167.00,0.0018
2166.00,0.0017
2165.00,0.0016
2164.00,0.0015
2163.00,0.0015
2162.00,0.0014
2161.00,0.0012
2160.00,0.0005
2159.00,-0.0005
2158.00,-0.0016
2157.00,-0.0022
2156.00,-0.0022
2155.00,-0.0020
2154.00,-0.0018
2153.00,-0.0015
2152.00,-0.0013
2151.00,-0.0011
2150.00,-0.0010
2149.00,-0.0010
2148.00,-0.0010
2147.00,-0.0012
2146.00,-0.0013
2145.00,-0.0013
2144.00,-0.0013
2143.00,-0.0014
2142.00,-0.0015
2141.00,-0.0017
2140.00,-0.0018
2139.00,-0.0018
2138.00,-0.0017
2137.00,-0.0016
2136.00,-0.0015
2135.00,-0.0015
2134.00,-0.0016
2133.00,-0.0017
2132.00,-0.0017
2131.00,-0.0016
2130.00,-0.0015
2129.00,-0.0013
2128.00,-0.0011
2127.00,-0.0009
2126.00,-0.0007
2125.00,-0.0006
2124.00,-0.0005
2123.00,-0.0004
2122.00,-0.0003
2121.00,-0.0002
2120.00,-0.0002
2119.00,-0.0001
2118.00,-0.0000
2117.00,0.0001
2116.00,0.0003
2115.00,0.0004
2114.00,0.0004
2113.00,0.0005
2112.00,0.0006
2111.00,0.0006
2110.00,0.0006
2109.00,0.0005
2108.00,0.0005
2107.00,0.0005
2106.00,0.0005
2105.00,0.0004
2104.00,0.0003
2103.00,0.0002
2102.00,0.0002
2101.00,0.0001
2100.00,0.0001
2099.00,0.0001
2098.00,0.0001
2097.00,0.0000
2096.00,-0.0001
2095.00,-0.0002
2094.00,-0.0003
2093.00,-0.0003
2092.00,-0.0003
2091.00,-0.0001
2090.00,-0.0000
2089.00,0.0001
2088.00,0.0002
2087.00,0.0002
2086.00,0.0003
2085.00,0.0004
2084.00,0.0003
2083.00,0.0002
2082.00,0.0001
2081.00,0.0001
2080.00,0.0003
2079.00,0.0005
2078.00,0.0006
2077.00,0.0006
2076.00,0.0006
2075.00,0.0006
2074.00,0.0004
2073.00,0.0003
2072.00,0.0002
2071.00,0.0001
2070.00,0.0001
2069.00,0.0001
2068.00,0.0001
2067.00,0.0001
2066.00,0.0000
2065.00,-0.0001
2064.00,-0.0003
2063.00,-0.0005
2062.00,-0.0005
2061.00,-0.0005
2060.00,-0.0004
2059.00,-0.0003
2058.00,-0.0002
2057.00,-0.0000
2056.00,0.0001
2055.00,0.0002
2054.00,0.0004
2053.00,0.0006
2052.00,0.0010
2051.00,0.0012
2050.00,0.0012
2049.00,0.0009
2048.00,0.0005
2047.00,0.0004
2046.00,0.0005
2045.00,0.0006
2044.00,0.0008
2043.00,0.0008
2042.00,0.0008
2041.00,0.0007
2040.00,0.0006
2039.00,0.0006
2038.00,0.0007
2037.00,0.0008
2036.00,0.0007
2035.00,0.0004
2034.00,0.0003
2033.00,0.0002
2032.00,0.0002
2031.00,0.0002
2030.00,0.0001
2029.00,0.0001
2028.00,-0.0001
2027.00,-0.0004
2026.00,-0.0007
2025.00,-0.0007
2024.00,-0.0004
2023.00,-0.0002
2022.00,-0.0001
2021.00,-0.0002
2020.00,-0.0003
2019.00,-0.0004
2018.00,-0.0005
2017.00,-0.0005
2016.00,-0.0005
2015.00,-0.0007
2014.00,-0.0009
2013.00,-0.0011
2012.00,-0.0012
2011.00,-0.0013
2010.00,-0.0013
2009.00,-0.0013
2008.00,-0.0015
2007.00,-0.0017
2006.00,-0.0019
2005.00,-0.0019
2004.00,-0.0018
2003.00,-0.0017
2002.00,-0.0015
2001.00,-0.0014
2000.00,-0.0013
1999.00,-0.0012
1998.00,-0.0011
1997.00,-0.0009
1996.00,-0.0007
1995.00,-0.0005
1994.00,-0.0004
1993.00,-0.0003
1992.00,-0.0002
1991.00,-0.0003
1990.00,-0.0005
1989.00,-0.0006
1988.00,-0.0006
1987.00,-0.0004
1986.00,-0.0000
1985.00,0.0002
1984.00,0.0004
1983.00,0.0005
1982.00,0.0005
1981.00,0.0005
1980.00,0.0004
1979.00,0.0002
1978.00,-0.0003
1977.00,-0.0006
1976.00,-0.0009
1975.00,-0.0010
1974.00,-0.0011
1973.00,-0.0013
1972.00,-0.0014
1971.00,-0.0013
1970.00,-0.0012
1969.00,-0.0010
1968.00,-0.0008
1967.00,-0.0006
1966.00,-0.0006
1965.00,-0.0006
1964.00,-0.0006
1963.00,-0.0007
1962.00,-0.0007
1961.00,-0.0008
1960.00,-0.0009
1959.00,-0.0012
1958.00,-0.0015
1957.00,-0.0016
1956.00,-0.0015
1955.00,-0.0014
1954.00,-0.0014
1953.00,-0.0015
1952.00,-0.0016
1951.00,-0.0016
1950.00,-0.0016
1949.00,-0.0015
1948.00,-0.0014
1947.00,-0.0014
1946.00,-0.0014
1945.00,-0.0014
1944.00,-0.0015
1943.00,-0.0016
1942.00,-0.0016
1941.00,-0.0014
1940.00,-0.0012
1939.00,-0.0010
1938.00,-0.0009
1937.00,-0.0009
1936.00,-0.0010
1935.00,-0.0011
1934.00,-0.0012
1933.00,-0.0011
1932.00,-0.0010
1931.00,-0.0008
1930.00,-0.0007
1929.00,-0.0006
1928.00,-0.0005
1927.00,-0.0006
1926.00,-0.0006
1925.00,-0.0006
1924.00,-0.0006
1923.00,-0.0006
1922.00,-0.0006
1921.00,-0.0006
1920.00,-0.0006
1919.00,-0.0005
1918.00,-0.0005
1917.00,-0.0005
1916.00,-0.0006
1915.00,-0.0006
1914.00,-0.0005
1913.00,-0.0004
1912.00,-0.0004
1911.00,-0.0004
1910.00,-0.0004
1909.00,-0.0004
1908.00,-0.0003
1907.00,-0.0002
1906.00,-0.0001
1905.00,-0.0001
1904.00,-0.0000
1903.00,-0.0000
1902.00,-0.0000
1901.00,-0.0001
1900.00,-0.0001
1899.00,-0.0001
1898.00,-0.0000
1897.00,0.0000
1896.00,0.0000
1895.00,-0.0001
1894.00,-0.0001
1893.00,-0.0001
1892.00,-0.0001
1891.00,-0.0000
1890.00,0.0000
1889.00,0.0000
1888.00,-0.0000
1887.00,-0.0001
1886.00,-0.0001
1885.00,-0.0000
1884.00,0.0001
1883.00,0.0001
1882.00,0.0000
1881.00,-0.0001
1880.00,-0.0001
1879.00,-0.0001
1878.00,-0.0002
1877.00,-0.0001
1876.00,-0.0001
1875.00,-0.0000
1874.00,0.0001
1873.00,0.0002
1872.00,0.0002
1871.00,0.0002
1870.00,0.0001
1869.00,0.0000
1868.00,0.0000
1867.00,0.0000
1866.00,0.0001
1865.00,0.0001
1864.00,0.0001
1863.00,0.0001
1862.00,0.0001
1861.00,0.0001
1860.00,0.0001
1859.00,0.0001
1858.00,0.0001
1857.00,0.0002
1856.00,0.0002
1855.00,0.0002
1854.00,0.0001
1853.00,0.0001
1852.00,0.0001
1851.00,0.0002
1850.00,0.0002
1849.00,0.0002
1848.00,0.0002
1847.00,0.0002
1846.00,0.0002
1845.00,0.0002
1844.00,0.0003
1843.00,0.0003
1842.00,0.0003
1841.00,0.0003
1840.00,0.0003
1839.00,0.0003
1838.00,0.0003
1837.00,0.0003
1836.00,0.0003
1835.00,0.0004
1834.00,0.0005
1833.00,0.0005
1832.00,0.0005
1831.00,0.0004
1830.00,0.0004
1829.00,0.0004
1828.00,0.0004
1827.00,0.0003
1826.00,0.0003
1825.00,0.0003
1824.00,0.0004
1823.00,0.0004
1822.00,0.0004
1821.00,0.0003
1820.00,0.0002
1819.00,0.0001
1818.00,0.0000
1817.00,-0.0000
1816.00,0.0000
1815.00,0.0001
1814.00,0.0001
1813.00,0.0002
1812.00,0.0002
1811.00,0.0003
1810.00,0.0004
1809.00,0.0005
1808.00,0.0005
1807.00,0.0005
1806.00,0.0005
1805.00,0.0005
1804.00,0.0005
1803.00,0.0005
1802.00,0.0005
1801.00,0.0005
1800.00,0.0006
1799.00,0.0006
1798.00,0.0007
1797.00,0.0007
1796.00,0.0007
1795.00,0.0007
1794.00,0.0008
1793.00,0.0008
1792.00,0.0009
1791.00,0.0009
1790.00,0.0009
1789.00,0.0009
1788.00,0.0009
1787.00,0.0009
1786.00,0.0008
1785.00,0.0008
1784.00,0.0008
1783.00,0.0008
1782.00,0.0009
1781.00,0.0009
1780.00,0.0009
1779.00,0.0009
1778.00,0.0009
1777.00,0.0009
1776.00,0.0009
1775.00,0.0009
1774.00,0.0009
1773.00,0.0010
1772.00,0.0010
1771.00,0.0010
1770.00,0.0010
1769.00,0.0011
1768.00,0.0011
1767.00,0.0011
1766.00,0.0011
1765.00,0.0011
1764.00,0.0011
1763.00,0.0012
1762.00,0.0012
1761.00,0.0013
1760.00,0.0013
1759.00,0.0013
1758.00,0.0013
1757.00,0.0014
1756.00,0.0015
1755.00,0.0016
1754.00,0.0017
1753.00,0.0018
1752.00,0.0019
1751.00,0.0020
1750.00,0.0020
1749.00,0.0021
1748.00,0.0021
1747.00,0.0021
1746.00,0.0021
1745.00,0.0022
1744.00,0.0024
1743.00,0.0025
1742.00,0.0026
1741.00,0.0027
1740.00,0.0027
1739.00,0.0028
1738.00,0.0028
1737.00,0.0029
1736.00,0.0029
1735.00,0.0029
1734.00,0.0029
1733.00,0.0030
1732.00,0.0029
1731.00,0.0029
1730.00,0.0029
1729.00,0.0028
1728.00,0.0028
1727.00,0.0029
1726.00,0.0029
1725.00,0.0029
1724.00,0.0029
1723.00,0.0029
1722.00,0.0029
1721.00,0.0029
1720.00,0.0028
1719.00,0.0027
1718.00,0.0027
1717.00,0.0028
1716.00,0.0028
1715.00,0.0028
1714.00,0.0028
1713.00,0.0028
1712.00,0.0027
1711.00,0.0027
1710.00,0.0027
1709.00,0.0027
1708.00,0.0027
1707.00,0.0027
1706.00,0.0028
1705.00,0.0029
1704.00,0.0030
1703.00,0.0030
1702.00,0.0030
1701.00,0.0030
1700.00,0.0031
1699.00,0.0031
1698.00,0.0031
1697.00,0.0031
1696.00,0.0032
1695.00,0.0032
1694.00,0.0033
1693.00,0.0034
1692.00,0.0034
1691.00,0.0035
1690.00,0.0036
1689.00,0.0037
1688.00,0.0038
1687.00,0.0038
1686.00,0.0037
1685.00,0.0038
1684.00,0.0039
1683.00,0.0041
1682.00,0.0041
1681.00,0.0042
1680.00,0.0043
1679.00,0.0043
1678.00,0.0044
1677.00,0.0045
1676.00,0.0046
1675.00,0.0048
1674.00,0.0050
1673.00,0.0051
1672.00,0.0053
1671.00,0.0054
1670.00,0.0055
1669.00,0.0055
1668.00,0.0055
1667.00,0.0056
1666.00,0.0056
1665.00,0.0057
1664.00,0.0058
1663.00,0.0059
1662.00,0.0059
1661.00,0.0059
1660.00,0.0060
1659.00,0.0060
1658.00,0.0060
1657.00,0.0062
1656.00,0.0063
1655.00,0.0064
1654.00,0.0065
1653.00,0.0066
1652.00,0.0067
1651.00,0.0068
1650.00,0.0068
1649.00,0.0069
1648.00,0.0070
1647.00,0.0071
1646.00,0.0071
1645.00,0.0072
1644.00,0.0073
1643.00,0.0073
1642.00,0.0074
1641.00,0.0075
1640.00,0.0076
1639.00,0.0078
1638.00,0.0079
1637.00,0.0080
1636.00,0.0081
1635.00,0.0080
1634.00,0.0078
1633.00,0.0076
1632.00,0.0075
1631.00,0.0075
1630.00,0.0074
1629.00,0.0073
1628.00,0.0073
1627.00,0.0072
1626.00,0.0072
1625.00,0.0072
1624.00,0.0071
1623.00,0.0070
1622.00,0.0069
1621.00,0.0069
1620.00,0.0070
1619.00,0.0070
1618.00,0.0070
1617.00,0.0069
1616.00,0.0070
1615.00,0.0069
1614.00,0.0069
1613.00,0.0069
1612.00,0.0069
1611.00,0.0069
1610.00,0.0069
1609.00,0.0069
1608.00,0.0069
1607.00,0.0069
1606.00,0.0069
1605.00,0.0069
1604.00,0.0069
1603.00,0.0068
1602.00,0.0068
1601.00,0.0068
1600.00,0.0068
1599.00,0.0068
1598.00,0.0067
1597.00,0.0067
1596.00,0.0067
1595.00,0.0067
1594.00,0.0067
1593.00,0.0067
1592.00,0.0067
1591.00,0.0067
1590.00,0.0067
1589.00,0.0067
1588.00,0.0067
1587.00,0.0068
1586.00,0.0068
1585.00,0.0069
1584.00,0.0071
1583.00,0.0072
1582.00,0.0073
1581.00,0.0074
1580.00,0.0077
1579.00,0.0078
1578.00,0.0080
1577.00,0.0081
1576.00,0.0081
1575.00,0.0080
1574.00,0.0079
1573.00,0.0079
1572.00,0.0078
1571.00,0.0078
1570.00,0.0077
1569.00,0.0078
1568.00,0.0078
1567.00,0.0078
1566.00,0.0078
1565.00,0.0077
1564.00,0.0077
1563.00,0.0078
1562.00,0.0078
1561.00,0.0078
1560.00,0.0078
1559.00,0.0078
1558.00,0.0078
1557.00,0.0079
1556.00,0.0080
1555.00,0.0081
1554.00,0.0082
1553.00,0.0083
1552.00,0.0083
1551.00,0.0084
1550.00,0.0085
1549.00,0.0086
1548.00,0.0087
1547.00,0.0087
1546.00,0.0088
1545.00,0.0089
1544.00,0.0090
1543.00,0.0091
1542.00,0.0091
1541.00,0.0092
1540.00,0.0090
1539.00,0.0087
1538.00,0.0083
1537.00,0.0081
1536.00,0.0079
1535.00,0.0076
1534.00,0.0073
1533.00,0.0070
1532.00,0.0069
1531.00,0.0068
1530.00,0.0067
1529.00,0.0066
1528.00,0.0066
1527.00,0.0065
1526.00,0.0064
1525.00,0.0063
1524.00,0.0063
1523.00,0.0063
1522.00,0.0062
1521.00,0.0062
1520.00,0.0062
1519.00,0.0062
1518.00,0.0062
1517.00,0.0063
1516.00,0.0063
1515.00,0.0063
1514.00,0.0062
1513.00,0.0062
1512.00,0.0063
1511.00,0.0063
1510.00,0.0063
1509.00,0.0064
1508.00,0.0066
1507.00,0.0068
1506.00,0.0070
1505.00,0.0072
1504.00,0.0073
1503.00,0.0074
1502.00,0.0076
1501.00,0.0077
1500.00,0.0079
1499.00,0.0081
1498.00,0.0084
1497.00,0.0088
1496.00,0.0092
1495.00,0.0095
1494.00,0.0098
1493.00,0.0101
1492.00,0.0104
1491.00,0.0107
1490.00,0.0112
1489.00,0.0118
1488.00,0.0124
1487.00,0.0128
1486.00,0.0133
1485.00,0.0139
1484.00,0.0146
1483.00,0.0154
1482.00,0.0163
1481.00,0.0175
1480.00,0.0187
1479.00,0.0200
1478.00,0.0215
1477.00,0.0236
1476.00,0.0262
1475.00,0.0292
1474.00,0.0333
1473.00,0.0390
1472.00,0.0457
1471.00,0.0521
1470.00,0.0583
1469.00,0.0648
1468.00,0.0719
1467.00,0.0796
1466.00,0.0883
1465.00,0.0975
1464.00,0.1056
1463.00,0.1112
1462.00,0.1147
1461.00,0.1171
1460.00,0.1186
1459.00,0.1196
1458.00,0.1203
1457.00,0.1207
1456.00,0.1204
1455.00,0.1194
1454.00,0.1182
1453.00,0.1164
1452.00,0.1139
1451.00,0.1103
1450.00,0.1053
1449.00,0.0985
1448.00,0.0897
1447.00,0.0804
1446.00,0.0718
1445.00,0.0645
1444.00,0.0581
1443.00,0.0528
1442.00,0.0488
1441.00,0.0461
1440.00,0.0443
1439.00,0.0435
1438.00,0.0435
1437.00,0.0436
1436.00,0.0427
1435.00,0.0403
1434.00,0.0368
1433.00,0.0326
1432.00,0.0282
1431.00,0.0242
1430.00,0.0212
1429.00,0.0189
1428.00,0.0174
1427.00,0.0164
1426.00,0.0158
1425.00,0.0152
1424.00,0.0146
1423.00,0.0143
1422.00,0.0141
1421.00,0.0139
1420.00,0.0135
1419.00,0.0134
1418.00,0.0132
1417.00,0.0130
1416.00,0.0128
1415.00,0.0126
1414.00,0.0125
1413.00,0.0123
1412.00,0.0122
1411.00,0.0121
1410.00,0.0121
1409.00,0.0121
1408.00,0.0120
1407.00,0.0120
1406.00,0.0120
1405.00,0.0120
1404.00,0.0121
1403.00,0.0122
1402.00,0.0124
1401.00,0.0126
1400.00,0.0127
1399.00,0.0130
1398.00,0.0133
1397.00,0.0135
1396.00,0.0137
1395.00,0.0141
1394.00,0.0146
1393.00,0.0150
1392.00,0.0154
1391.00,0.0161
1390.00,0.0171
1389.00,0.0184
1388.00,0.0204
1387.00,0.0234
1386.00,0.0275
1385.00,0.0328
1384.00,0.0402
1383.00,0.0506
1382.00,0.0645
1381.00,0.0825
1380.00,0.1051
1379.00,0.1314
1378.00,0.1578
1377.00,0.1781
1376.00,0.1862
1375.00,0.1784
1374.00,0.1569
1373.00,0.1301
1372.00,0.1052
1371.00,0.0845
1370.00,0.0679
1369.00,0.0554
1368.00,0.0468
1367.00,0.0415
1366.00,0.0386
1365.00,0.0374
1364.00,0.0376
1363.00,0.0389
1362.00,0.0409
1361.00,0.0432
1360.00,0.0450
1359.00,0.0456
1358.00,0.0446
1357.00,0.0421
1356.00,0.0385
1355.00,0.0345
1354.00,0.0307
1353.00,0.0274
1352.00,0.0248
1351.00,0.0226
1350.00,0.0208
1349.00,0.0193
1348.00,0.0181
1347.00,0.0171
1346.00,0.0162
1345.00,0.0154
1344.00,0.0148
1343.00,0.0143
1342.00,0.0139
1341.00,0.0135
1340.00,0.0132
1339.00,0.0130
1338.00,0.0128
1337.00,0.0128
1336.00,0.0129
1335.00,0.0130
1334.00,0.0132
1333.00,0.0136
1332.00,0.0140
1331.00,0.0143
1330.00,0.0145
1329.00,0.0144
1328.00,0.0140
1327.00,0.0135
1326.00,0.0130
1325.00,0.0124
1324.00,0.0119
1323.00,0.0114
1322.00,0.0110
1321.00,0.0107
1320.00,0.0105
1319.00,0.0103
1318.00,0.0101
1317.00,0.0100
1316.00,0.0099
1315.00,0.0098
1314.00,0.0098
1313.00,0.0098
1312.00,0.0099
1311.00,0.0101
1310.00,0.0105
1309.00,0.0111
1308.00,0.0120
1307.00,0.0131
1306.00,0.0142
1305.00,0.0149
1304.00,0.0151
1303.00,0.0148
1302.00,0.0142
1301.00,0.0137
1300.00,0.0134
1299.00,0.0133
1298.00,0.0134
1297.00,0.0134
1296.00,0.0133
1295.00,0.0131
1294.00,0.0128
1293.00,0.0124
1292.00,0.0119
1291.00,0.0115
1290.00,0.0111
1289.00,0.0107
1288.00,0.0104
1287.00,0.0102
1286.00,0.0100
1285.00,0.0099
1284.00,0.0097
1283.00,0.0095
1282.00,0.0093
1281.00,0.0092
1280.00,0.0092
1279.00,0.0091
1278.00,0.0090
1277.00,0.0090
1276.00,0.0090
1275.00,0.0090
1274.00,0.0090
1273.00,0.0090
1272.00,0.0092
1271.00,0.0094
1270.00,0.0096
1269.00,0.0099
1268.00,0.0101
1267.00,0.0104
1266.00,0.0108
1265.00,0.0111
1264.00,0.0114
1263.00,0.0118
1262.00,0.0121
1261.00,0.0126
1260.00,0.0131
1259.00,0.0137
1258.00,0.0143
1257.00,0.0148
1256.00,0.0149
1255.00,0.0147
1254.00,0.0141
1253.00,0.0132
1252.00,0.0124
1251.00,0.0117
1250.00,0.0112
1249.00,0.0107
1248.00,0.0103
1247.00,0.0100
1246.00,0.0098
1245.00,0.0097
1244.00,0.0096
1243.00,0.0094
1242.00,0.0093
1241.00,0.0091
1240.00,0.0090
1239.00,0.0090
1238.00,0.0089
1237.00,0.0089
1236.00,0.0088
1235.00,0.0088
1234.00,0.0088
1233.00,0.0089
1232.00,0.0089
1231.00,0.0090
1230.00,0.0090
1229.00,0.0091
1228.00,0.0092
1227.00,0.0093
1226.00,0.0095
1225.00,0.0098
1224.00,0.0101
1223.00,0.0103
1222.00,0.0106
1221.00,0.0108
1220.00,0.0110
1219.00,0.0111
1218.00,0.0110
1217.00,0.0109
1216.00,0.0106
1215.00,0.0104
1214.00,0.0101
1213.00,0.0098
1212.00,0.0095
1211.00,0.0093
1210.00,0.0092
1209.00,0.0090
1208.00,0.0089
1207.00,0.0088
1206.00,0.0087
1205.00,0.0087
1204.00,0.0086
1203.00,0.0085
1202.00,0.0085
1201.00,0.0085
1200.00,0.0085
1199.00,0.0085
1198.00,0.0085
1197.00,0.0086
1196.00,0.0087
1195.00,0.0088
1194.00,0.0088
1193.00,0.0088
1192.00,0.0088
1191.00,0.0087
1190.00,0.0087
1189.00,0.0087
1188.00,0.0087
1187.00,0.0089
1186.00,0.0090
1185.00,0.0092
1184.00,0.0093
1183.00,0.0095
1182.00,0.0098
1181.00,0.0100
1180.00,0.0104
1179.00,0.0108
1178.00,0.0114
1177.00,0.0122
1176.00,0.0133
1175.00,0.0148
1174.00,0.0167
1173.00,0.0191
1172.00,0.0220
1171.00,0.0253
1170.00,0.0286
1169.00,0.0313
1168.00,0.0329
1167.00,0.0332
1166.00,0.0324
1165.00,0.0309
1164.00,0.0291
1163.00,0.0273
1162.00,0.0259
1161.00,0.0247
1160.00,0.0239
1159.00,0.0232
1158.00,0.0228
1157.00,0.0225
1156.00,0.0223
1155.00,0.0222
1154.00,0.0220
1153.00,0.0218
1152.00,0.0213
1151.00,0.0206
1150.00,0.0198
1149.00,0.0189
1148.00,0.0179
1147.00,0.0169
1146.00,0.0161
1145.00,0.0154
1144.00,0.0147
1143.00,0.0141
1142.00,0.0135
1141.00,0.0129
1140.00,0.0124
1139.00,0.0119
1138.00,0.0115
1137.00,0.0112
1136.00,0.0110
1135.00,0.0108
1134.00,0.0107
1133.00,0.0106
1132.00,0.0105
1131.00,0.0105
1130.00,0.0105
1129.00,0.0106
1128.00,0.0107
1127.00,0.0108
1126.00,0.0109
1125.00,0.0110
1124.00,0.0110
1123.00,0.0111
1122.00,0.0112
1121.00,0.0112
1120.00,0.0113
1119.00,0.0114
1118.00,0.0115
1117.00,0.0117
1116.00,0.0119
1115.00,0.0120
1114.00,0.0121
1113.00,0.0122
1112.00,0.0123
1111.00,0.0124
1110.00,0.0127
1109.00,0.0130
1108.00,0.0135
1107.00,0.0141
1106.00,0.0148
1105.00,0.0155
1104.00,0.0160
1103.00,0.0163
1102.00,0.0162
1101.00,0.0159
1100.00,0.0154
1099.00,0.0148
1098.00,0.0142
1097.00,0.0137
1096.00,0.0133
1095.00,0.0129
1094.00,0.0126
1093.00,0.0125
1092.00,0.0123
1091.00,0.0121
1090.00,0.0119
1089.00,0.0117
1088.00,0.0116
1087.00,0.0115
1086.00,0.0114
1085.00,0.0114
1084.00,0.0114
1083.00,0.0114
1082.00,0.0114
1081.00,0.0113
1080.00,0.0112
1079.00,0.0111
1078.00,0.0110
1077.00,0.0109
1076.00,0.0108
1075.00,0.0107
1074.00,0.0107
1073.00,0.0107
1072.00,0.0107
1071.00,0.0107
1070.00,0.0107
1069.00,0.0107
1068.00,0.0107
1067.00,0.0107
1066.00,0.0106
1065.00,0.0106
1064.00,0.0107
1063.00,0.0107
1062.00,0.0108
1061.00,0.0108
1060.00,0.0108
1059.00,0.0109
1058.00,0.0111
1057.00,0.0112
1056.00,0.0113
1055.00,0.0114
1054.00,0.0116
1053.00,0.0118
1052.00,0.0120
1051.00,0.0124
1050.00,0.0127
1049.00,0.0131
1048.00,0.0136
1047.00,0.0141
1046.00,0.0145
1045.00,0.0147
1044.00,0.0148
1043.00,0.0146
1042.00,0.0144
1041.00,0.0142
1040.00,0.0141
1039.00,0.0140
1038.00,0.0139
1037.00,0.0139
1036.00,0.0139
1035.00,0.0138
1034.00,0.0137
1033.00,0.0135
1032.00,0.0133
1031.00,0.0132
1030.00,0.0131
1029.00,0.0132
1028.00,0.0133
1027.00,0.0135
1026.00,0.0136
1025.00,0.0138
1024.00,0.0140
1023.00,0.0142
1022.00,0.0145
1021.00,0.0147
1020.00,0.0149
1019.00,0.0151
1018.00,0.0151
1017.00,0.0152
1016.00,0.0152
1015.00,0.0151
1014.00,0.0151
1013.00,0.0150
1012.00,0.0149
1011.00,0.0149
1010.00,0.0150
1009.00,0.0151
1008.00,0.0153
1007.00,0.0157
1006.00,0.0163
1005.00,0.0172
1004.00,0.0187
1003.00,0.0208
1002.00,0.0237
1001.00,0.0274
1000.00,0.0314
999.00,0.0347
998.00,0.0364
997.00,0.0356
996.00,0.0327
995.00,0.0286
994.00,0.0245
993.00,0.0209
992.00,0.0182
991.00,0.0163
990.00,0.0149
989.00,0.0140
988.00,0.0135
987.00,0.0131
986.00,0.0130
985.00,0.0132
984.00,0.0135
983.00,0.0142
982.00,0.0151
981.00,0.0166
980.00,0.0187
979.00,0.0214
978.00,0.0249
977.00,0.0290
976.00,0.0335
975.00,0.0377
974.00,0.0410
973.00,0.0423
972.00,0.0410
971.00,0.0374
970.00,0.0324
969.00,0.0273
968.00,0.0229
967.00,0.0197
966.00,0.0173
965.00,0.0156
964.00,0.0143
963.00,0.0133
962.00,0.0126
961.00,0.0121
960.00,0.0117
959.00,0.0114
958.00,0.0111
957.00,0.0107
956.00,0.0105
955.00,0.0102
954.00,0.0101
953.00,0.0101
952.00,0.0101
951.00,0.0100
950.00,0.0099
949.00,0.0097
948.00,0.0096
947.00,0.0096
946.00,0.0097
945.00,0.0099
944.00,0.0100
943.00,0.0102
942.00,0.0105
941.00,0.0108
940.00,0.0110
939.00,0.0108
938.00,0.0104
937.00,0.0097
936.00,0.0091
935.00,0.0085
934.00,0.0081
933.00,0.0079
932.00,0.0077
931.00,0.0076
930.00,0.0076
929.00,0.0075
928.00,0.0074
927.00,0.0073
926.00,0.0072
925.00,0.0071
924.00,0.0070
923.00,0.0069
922.00,0.0070
921.00,0.0070
920.00,0.0071
919.00,0.0072
918.00,0.0071
917.00,0.0071
916.00,0.0071
915.00,0.0071
914.00,0.0072
913.00,0.0074
912.00,0.0075
911.00,0.0077
910.00,0.0079
909.00,0.0080
908.00,0.0083
907.00,0.0088
906.00,0.0095
905.00,0.0104
904.00,0.0117
903.00,0.0134
902.00,0.0153
901.00,0.0171
900.00,0.0183
899.00,0.0185
898.00,0.0178
897.00,0.0163
896.00,0.0145
895.00,0.0126
894.00,0.0111
893.00,0.0100
892.00,0.0093
891.00,0.0089
890.00,0.0087
889.00,0.0086
888.00,0.0084
887.00,0.0082
886.00,0.0081
885.00,0.0079
884.00,0.0079
883.00,0.0079
882.00,0.0080
881.00,0.0080
880.00,0.0080
879.00,0.0080
878.00,0.0080
877.00,0.0080
876.00,0.0080
875.00,0.0080
874.00,0.0081
873.00,0.0081
872.00,0.0082
871.00,0.0082
870.00,0.0082
869.00,0.0082
868.00,0.0082
867.00,0.0083
866.00,0.0084
865.00,0.0084
864.00,0.0084
863.00,0.0085
862.00,0.0086
861.00,0.0087
860.00,0.0089
859.00,0.0090
858.00,0.0092
857.00,0.0093
856.00,0.0095
855.00,0.0098
854.00,0.0101
853.00,0.0102
852.00,0.0104
851.00,0.0107
850.00,0.0111
849.00,0.0117
848.00,0.0125
847.00,0.0137
846.00,0.0156
845.00,0.0187
844.00,0.0231
843.00,0.0284
842.00,0.0329
841.00,0.0347
840.00,0.0327
839.00,0.0280
838.00,0.0228
837.00,0.0188
836.00,0.0161
835.00,0.0144
834.00,0.0133
833.00,0.0125
832.00,0.0119
831.00,0.0116
830.00,0.0115
829.00,0.0115
828.00,0.0115
827.00,0.0114
826.00,0.0112
825.00,0.0111
824.00,0.0111
823.00,0.0112
822.00,0.0114
821.00,0.0116
820.00,0.0119
819.00,0.0121
818.00,0.0124
817.00,0.0129
816.00,0.0136
815.00,0.0146
814.00,0.0160
813.00,0.0179
812.00,0.0199
811.00,0.0219
810.00,0.0234
809.00,0.0239
808.00,0.0235
807.00,0.0222
806.00,0.0203
805.00,0.0184
804.00,0.0167
803.00,0.0155
802.00,0.0145
801.00,0.0138
800.00,0.0133
799.00,0.0127
798.00,0.0122
797.00,0.0116
796.00,0.0111
795.00,0.0106
794.00,0.0101
793.00,0.0098
792.00,0.0096
791.00,0.0094
790.00,0.0092
789.00,0.0089
788.00,0.0085
787.00,0.0082
786.00,0.0080
785.00,0.0079
784.00,0.0079
783.00,0.0078
782.00,0.0076
781.00,0.0074
780.00,0.0073
779.00,0.0072
778.00,0.0073
777.00,0.0073
776.00,0.0073
775.00,0.0072
774.00,0.0071
773.00,0.0070
772.00,0.0071
771.00,0.0072
770.00,0.0073
769.00,0.0073
768.00,0.0073
767.00,0.0074
766.00,0.0074
765.00,0.0074
764.00,0.0074
763.00,0.0073
762.00,0.0073
761.00,0.0073
760.00,0.0073
759.00,0.0074
758.00,0.0077
757.00,0.0080
756.00,0.0082
755.00,0.0085
754.00,0.0086
753.00,0.0088
752.00,0.0088
751.00,0.0088
750.00,0.0089
749.00,0.0090
748.00,0.0091
747.00,0.0093
746.00,0.0094
745.00,0.0094
744.00,0.0095
743.00,0.0097
742.00,0.0100
741.00,0.0104
740.00,0.0109
739.00,0.0113
738.00,0.0118
737.00,0.0123
736.00,0.0126
735.00,0.0129
734.00,0.0132
733.00,0.0136
732.00,0.0143
731.00,0.0150
730.00,0.0158
729.00,0.0163
728.00,0.0166
727.00,0.0167
726.00,0.0168
725.00,0.0171
724.00,0.0175
723.00,0.0181
722.00,0.0187
721.00,0.0191
720.00,0.0189
719.00,0.0182
718.00,0.0170
717.00,0.0158
716.00,0.0147
715.00,0.0138
714.00,0.0131
713.00,0.0126
712.00,0.0122
711.00,0.0119
710.00,0.0116
709.00,0.0115
708.00,0.0115
707.00,0.0115
706.00,0.0115
705.00,0.0114
704.00,0.0113
703.00,0.0112
702.00,0.0111
701.00,0.0109
700.00,0.0106
699.00,0.0104
698.00,0.0102
697.00,0.0102
696.00,0.0103
695.00,0.0103
694.00,0.0102
693.00,0.0103
692.00,0.0104
691.00,0.0105
690.00,0.0104
689.00,0.0103
688.00,0.0102
687.00,0.0103
686.00,0.0103
685.00,0.0103
684.00,0.0104
683.00,0.0106
682.00,0.0107
681.00,0.0107
680.00,0.0105
679.00,0.0103
678.00,0.0102
677.00,0.0102
676.00,0.0103
675.00,0.0103
674.00,0.0104
673.00,0.0105
672.00,0.0107
671.00,0.0110
670.00,0.0114
669.00,0.0117
668.00,0.0119
667.00,0.0118
666.00,0.0114
665.00,0.0112
664.00,0.0110
663.00,0.0108
662.00,0.0104
661.00,0.0100
660.00,0.0098
659.00,0.0098
658.00,0.0097
657.00,0.0096
656.00,0.0095
655.00,0.0096
654.00,0.0099
653.00,0.0102
652.00,0.0104
651.00,0.0104
650.00,0.0103
649.00,0.0102
648.00,0.0100
647.00,0.0097
646.00,0.0094
645.00,0.0093
644.00,0.0093
643.00,0.0093
642.00,0.0095
641.00,0.0095
640.00,0.0095
639.00,0.0093
638.00,0.0092
637.00,0.0092
636.00,0.0092
635.00,0.0094
634.00,0.0096
633.00,0.0097
632.00,0.0097
631.00,0.0096
630.00,0.0096
629.00,0.0095
628.00,0.0094
627.00,0.0093
626.00,0.0093
625.00,0.0093
624.00,0.0094
623.00,0.0097
622.00,0.0099
621.00,0.0099
620.00,0.0097
619.00,0.0093
618.00,0.0088
617.00,0.0085
616.00,0.0085
615.00,0.0088
614.00,0.0092
613.00,0.0094
612.00,0.0094
611.00,0.0095
610.00,0.0096
609.00,0.0096
608.00,0.0095
607.00,0.0094
606.00,0.0093
605.00,0.0094
604.00,0.0095
603.00,0.0095
602.00,0.0095
601.00,0.0093
600.00,0.0092
599.00,0.0093
598.00,0.0094
597.00,0.0096
596.00,0.0096
595.00,0.0094
594.00,0.0091
593.00,0.0089
592.00,0.0088
591.00,0.0089
590.00,0.0091
589.00,0.0092
588.00,0.0093
587.00,0.0095
586.00,0.0097
585.00,0.0099
584.00,0.0100
583.00,0.0099
582.00,0.0096
581.00,0.0092
580.00,0.0089
579.00,0.0089
578.00,0.0093
577.00,0.0098
576.00,0.0101
575.00,0.0100
574.00,0.0097
573.00,0.0093
572.00,0.0090
571.00,0.0088
570.00,0.0087
569.00,0.0085
568.00,0.0083
567.00,0.0082
566.00,0.0082
565.00,0.0085
564.00,0.0090
563.00,0.0095
562.00,0.0098
561.00,0.0097
560.00,0.0096
559.00,0.0096
558.00,0.0097
557.00,0.0097
556.00,0.0098
555.00,0.0099
554.00,0.0101
553.00,0.0103
552.00,0.0102
551.00,0.0101
550.00,0.0101
549.00,0.0101
548.00,0.0100
547.00,0.0100
546.00,0.0098
545.00,0.0097
544.00,0.0094
543.00,0.0092
542.00,0.0091
541.00,0.0093
540.00,0.0095
539.00,0.0098
538.00,0.0102
537.00,0.0107
536.00,0.0110
535.00,0.0112
534.00,0.0113
533.00,0.0112
532.00,0.0112
531.00,0.0113
530.00,0.0115
529.00,0.0116
528.00,0.0115
527.00,0.0113
526.00,0.0111
525.00,0.0110
524.00,0.0108
523.00,0.0109
522.00,0.0113
521.00,0.0117
520.00,0.0118
519.00,0.0112
518.00,0.0102
517.00,0.0093
516.00,0.0088
515.00,0.0087
514.00,0.0088
513.00,0.0089
512.00,0.0091
511.00,0.0091
510.00,0.0091
509.00,0.0088
508.00,0.0082
507.00,0.0075
506.00,0.0071
505.00,0.0073
504.00,0.0081
503.00,0.0093
502.00,0.0103
501.00,0.0105
500.00,0.0100
499.00,0.0091
498.00,0.0084
497.00,0.0082
496.00,0.0085
495.00,0.0089
494.00,0.0092
493.00,0.0093
492.00,0.0095
491.00,0.0101
490.00,0.0110
489.00,0.0117
488.00,0.0120
487.00,0.0118
486.00,0.0115
485.00,0.0111
484.00,0.0107
483.00,0.0107
482.00,0.0111
481.00,0.0116
480.00,0.0119
479.00,0.0121
478.00,0.0122
477.00,0.0124
476.00,0.0127
475.00,0.0135
474.00,0.0147
473.00,0.0155
472.00,0.0151
471.00,0.0139
470.00,0.0132
469.00,0.0136
468.00,0.0149
467.00,0.0166
466.00,0.0184
465.00,0.0201
464.00,0.0212
463.00,0.0214
462.00,0.0210
461.00,0.0202
460.00,0.0189
459.00,0.0171
458.00,0.0157
457.00,0.0163
456.00,0.0183
455.00,0.0204
454.00,0.0217
453.00,0.0222
452.00,0.0219
451.00,0.0206
450.00,0.0186
