Created as New Dataset,Sample 013 By Administrator Date Thursday, September 04 2025
cm-1,A
4000.00,0.0011
3999.00,0.0011
3998.00,0.0011
3997.00,0.0011
3996.00,0.0011
3995.00,0.0011
3994.00,0.0011
3993.00,0.0011
3992.00,0.0011
3991.00,0.0011
3990.00,0.0011
3989.00,0.0011
3988.00,0.0011
3987.00,0.0011
3986.00,0.0011
3985.00,0.0010
3984.00,0.0010
3983.00,0.0009
3982.00,0.0009
3981.00,0.0009
3980.00,0.0009
3979.00,0.0009
3978.00,0.0009
3977.00,0.0008
3976.00,0.0008
3975.00,0.0008
3974.00,0.0008
3973.00,0.0008
3972.00,0.0008
3971.00,0.0008
3970.00,0.0009
3969.00,0.0009
3968.00,0.0009
3967.00,0.0009
3966.00,0.0009
3965.00,0.0009
3964.00,0.0009
3963.00,0.0009
3962.00,0.0008
3961.00,0.0008
3960.00,0.0008
3959.00,0.0008
3958.00,0.0008
3957.00,0.0008
3956.00,0.0008
3955.00,0.0008
3954.00,0.0008
3953.00,0.0008
3952.00,0.0008
3951.00,0.0008
3950.00,0.0008
3949.00,0.0008
3948.00,0.0008
3947.00,0.0008
3946.00,0.0008
3945.00,0.0008
3944.00,0.0008
3943.00,0.0008
3942.00,0.0008
3941.00,0.0008
3940.00,0.0008
3939.00,0.0009
3938.00,0.0009
3937.00,0.0009
3936.00,0.0010
3935.00,0.0009
3934.00,0.0009
3933.00,0.0008
3932.00,0.0007
3931.00,0.0007
3930.00,0.0007
3929.00,0.0007
3928.00,0.0008
3927.00,0.0008
3926.00,0.0008
3925.00,0.0009
3924.00,0.0009
3923.00,0.0009
3922.00,0.0009
3921.00,0.0009
3920.00,0.0009
3919.00,0.0009
3918.00,0.0009
3917.00,0.0009
3916.00,0.0009
3915.00,0.0009
3914.00,0.0009
3913.00,0.0009
3912.00,0.0009
3911.00,0.0010
3910.00,0.0009
3909.00,0.0009
3908.00,0.0008
3907.00,0.0008
3906.00,0.0007
3905.00,0.0007
3904.00,0.0007
3903.00,0.0007
3902.00,0.0007
3901.00,0.0007
3900.00,0.0007
3899.00,0.0007
3898.00,0.0007
3897.00,0.0007
3896.00,0.0008
3895.00,0.0008
3894.00,0.0008
3893.00,0.0008
3892.00,0.0008
3891.00,0.0008
3890.00,0.0008
3889.00,0.0007
3888.00,0.0007
3887.00,0.0006
3886.00,0.0007
3885.00,0.0007
3884.00,0.0007
3883.00,0.0007
3882.00,0.0007
3881.00,0.0007
3880.00,0.0008
3879.00,0.0008
3878.00,0.0008
3877.00,0.0007
3876.00,0.0007
3875.00,0.0008
3874.00,0.0008
3873.00,0.0008
3872.00,0.0007
3871.00,0.0007
3870.00,0.0007
3869.00,0.0007
3868.00,0.0006
3867.00,0.0006
3866.00,0.0005
3865.00,0.0006
3864.00,0.0006
3863.00,0.0007
3862.00,0.0007
3861.00,0.0007
3860.00,0.0008
3859.00,0.0008
3858.00,0.0008
3857.00,0.0008
3856.00,0.0007
3855.00,0.0007
3854.00,0.0007
3853.00,0.0006
3852.00,0.0006
3851.00,0.0006
3850.00,0.0006
3849.00,0.0007
3848.00,0.0007
3847.00,0.0008
3846.00,0.0008
3845.00,0.0008
3844.00,0.0009
3843.00,0.0009
3842.00,0.0009
3841.00,0.0008
3840.00,0.0008
3839.00,0.0008
3838.00,0.0007
3837.00,0.0007
3836.00,0.0007
3835.00,0.0007
3834.00,0.0007
3833.00,0.0007
3832.00,0.0008
3831.00,0.0008
3830.00,0.0008
3829.00,0.0008
3828.00,0.0008
3827.00,0.0008
3826.00,0.0008
3825.00,0.0008
3824.00,0.0008
3823.00,0.0008
3822.00,0.0008
3821.00,0.0008
3820.00,0.0008
3819.00,0.0007
3818.00,0.0007
3817.00,0.0007
3816.00,0.0007
3815.00,0.0008
3814.00,0.0008
3813.00,0.0009
3812.00,0.0009
3811.00,0.0009
3810.00,0.0009
3809.00,0.0008
3808.00,0.0008
3807.00,0.0008
3806.00,0.0009
3805.00,0.0008
3804.00,0.0008
3803.00,0.0007
3802.00,0.0007
3801.00,0.0007
3800.00,0.0006
3799.00,0.0006
3798.00,0.0007
3797.00,0.0007
3796.00,0.0007
3795.00,0.0007
3794.00,0.0007
3793.00,0.0007
3792.00,0.0007
3791.00,0.0008
3790.00,0.0008
3789.00,0.0008
3788.00,0.0008
3787.00,0.0008
3786.00,0.0009
3785.00,0.0009
3784.00,0.0008
3783.00,0.0008
3782.00,0.0007
3781.00,0.0007
3780.00,0.0007
3779.00,0.0008
3778.00,0.0008
3777.00,0.0009
3776.00,0.0009
3775.00,0.0009
3774.00,0.0010
3773.00,0.0009
3772.00,0.0009
3771.00,0.0009
3770.00,0.0008
3769.00,0.0008
3768.00,0.0008
3767.00,0.0008
3766.00,0.0008
3765.00,0.0009
3764.00,0.0009
3763.00,0.0009
3762.00,0.0009
3761.00,0.0009
3760.00,0.0008
3759.00,0.0008
3758.00,0.0009
3757.00,0.0009
3756.00,0.0009
3755.00,0.0009
3754.00,0.0009
3753.00,0.0009
3752.00,0.0009
3751.00,0.0009
3750.00,0.0009
3749.00,0.0008
3748.00,0.0007
3747.00,0.0006
3746.00,0.0006
3745.00,0.0007
3744.00,0.0007
3743.00,0.0007
3742.00,0.0007
3741.00,0.0007
3740.00,0.0007
3739.00,0.0008
3738.00,0.0007
3737.00,0.0007
3736.00,0.0007
3735.00,0.0007
3734.00,0.0006
3733.00,0.0006
3732.00,0.0006
3731.00,0.0006
3730.00,0.0005
3729.00,0.0005
3728.00,0.0005
3727.00,0.0006
3726.00,0.0006
3725.00,0.0006
3724.00,0.0006
3723.00,0.0006
3722.00,0.0006
3721.00,0.0006
3720.00,0.0006
3719.00,0.0006
3718.00,0.0006
3717.00,0.0007
3716.00,0.0007
3715.00,0.0007
3714.00,0.0007
3713.00,0.0008
3712.00,0.0008
3711.00,0.0007
3710.00,0.0006
3709.00,0.0005
3708.00,0.0005
3707.00,0.0005
3706.00,0.0005
3705.00,0.0005
3704.00,0.0006
3703.00,0.0006
3702.00,0.0006
3701.00,0.0006
3700.00,0.0006
3699.00,0.0006
3698.00,0.0006
3697.00,0.0006
3696.00,0.0006
3695.00,0.0006
3694.00,0.0006
3693.00,0.0006
3692.00,0.0006
3691.00,0.0006
3690.00,0.0006
3689.00,0.0006
3688.00,0.0006
3687.00,0.0005
3686.00,0.0005
3685.00,0.0005
3684.00,0.0006
3683.00,0.0006
3682.00,0.0007
3681.00,0.0007
3680.00,0.0008
3679.00,0.0008
3678.00,0.0009
3677.00,0.0009
3676.00,0.0009
3675.00,0.0008
3674.00,0.0007
3673.00,0.0005
3672.00,0.0004
3671.00,0.0004
3670.00,0.0004
3669.00,0.0004
3668.00,0.0004
3667.00,0.0005
3666.00,0.0005
3665.00,0.0005
3664.00,0.0005
3663.00,0.0005
3662.00,0.0005
3661.00,0.0005
3660.00,0.0005
3659.00,0.0005
3658.00,0.0004
3657.00,0.0005
3656.00,0.0005
3655.00,0.0006
3654.00,0.0006
3653.00,0.0005
3652.00,0.0005
3651.00,0.0005
3650.00,0.0005
3649.00,0.0004
3648.00,0.0004
3647.00,0.0004
3646.00,0.0004
3645.00,0.0005
3644.00,0.0005
3643.00,0.0005
3642.00,0.0006
3641.00,0.0006
3640.00,0.0006
3639.00,0.0006
3638.00,0.0005
3637.00,0.0006
3636.00,0.0006
3635.00,0.0006
3634.00,0.0006
3633.00,0.0006
3632.00,0.0005
3631.00,0.0004
3630.00,0.0004
3629.00,0.0003
3628.00,0.0004
3627.00,0.0004
3626.00,0.0005
3625.00,0.0005
3624.00,0.0005
3623.00,0.0005
3622.00,0.0005
3621.00,0.0005
3620.00,0.0006
3619.00,0.0006
3618.00,0.0006
3617.00,0.0005
3616.00,0.0005
3615.00,0.0005
3614.00,0.0006
3613.00,0.0006
3612.00,0.0005
3611.00,0.0005
3610.00,0.0005
3609.00,0.0005
3608.00,0.0006
3607.00,0.0007
3606.00,0.0007
3605.00,0.0007
3604.00,0.0007
3603.00,0.0007
3602.00,0.0007
3601.00,0.0006
3600.00,0.0006
3599.00,0.0006
3598.00,0.0006
3597.00,0.0006
3596.00,0.0006
3595.00,0.0007
3594.00,0.0007
3593.00,0.0007
3592.00,0.0007
3591.00,0.0007
3590.00,0.0007
3589.00,0.0007
3588.00,0.0007
3587.00,0.0008
3586.00,0.0008
3585.00,0.0008
3584.00,0.0008
3583.00,0.0008
3582.00,0.0009
3581.00,0.0009
3580.00,0.0009
3579.00,0.0009
3578.00,0.0009
3577.00,0.0008
3576.00,0.0008
3575.00,0.0008
3574.00,0.0008
3573.00,0.0009
3572.00,0.0009
3571.00,0.0009
3570.00,0.0008
3569.00,0.0008
3568.00,0.0008
3567.00,0.0008
3566.00,0.0008
3565.00,0.0008
3564.00,0.0009
3563.00,0.0009
3562.00,0.0010
3561.00,0.0010
3560.00,0.0010
3559.00,0.0010
3558.00,0.0011
3557.00,0.0011
3556.00,0.0011
3555.00,0.0011
3554.00,0.0010
3553.00,0.0010
3552.00,0.0010
3551.00,0.0010
3550.00,0.0011
3549.00,0.0011
3548.00,0.0011
3547.00,0.0011
3546.00,0.0012
3545.00,0.0012
3544.00,0.0012
3543.00,0.0013
3542.00,0.0013
3541.00,0.0013
3540.00,0.0013
3539.00,0.0013
3538.00,0.0013
3537.00,0.0013
3536.00,0.0014
3535.00,0.0014
3534.00,0.0014
3533.00,0.0014
3532.00,0.0014
3531.00,0.0014
3530.00,0.0014
3529.00,0.0014
3528.00,0.0014
3527.00,0.0015
3526.00,0.0015
3525.00,0.0015
3524.00,0.0015
3523.00,0.0015
3522.00,0.0015
3521.00,0.0015
3520.00,0.0015
3519.00,0.0015
3518.00,0.0015
3517.00,0.0015
3516.00,0.0015
3515.00,0.0015
3514.00,0.0016
3513.00,0.0016
3512.00,0.0016
3511.00,0.0016
3510.00,0.0017
3509.00,0.0017
3508.00,0.0018
3507.00,0.0018
3506.00,0.0018
3505.00,0.0017
3504.00,0.0017
3503.00,0.0017
3502.00,0.0017
3501.00,0.0017
3500.00,0.0017
3499.00,0.0018
3498.00,0.0018
3497.00,0.0017
3496.00,0.0017
3495.00,0.0017
3494.00,0.0018
3493.00,0.0018
3492.00,0.0019
3491.00,0.0019
3490.00,0.0019
3489.00,0.0019
3488.00,0.0019
3487.00,0.0019
3486.00,0.0019
3485.00,0.0020
3484.00,0.0020
3483.00,0.0020
3482.00,0.0020
3481.00,0.0020
3480.00,0.0020
3479.00,0.0020
3478.00,0.0020
3477.00,0.0020
3476.00,0.0021
3475.00,0.0021
3474.00,0.0021
3473.00,0.0021
3472.00,0.0021
3471.00,0.0021
3470.00,0.0021
3469.00,0.0022
3468.00,0.0022
3467.00,0.0022
3466.00,0.0022
3465.00,0.0022
3464.00,0.0022
3463.00,0.0022
3462.00,0.0022
3461.00,0.0022
3460.00,0.0022
3459.00,0.0022
3458.00,0.0022
3457.00,0.0023
3456.00,0.0023
3455.00,0.0023
3454.00,0.0023
3453.00,0.0024
3452.00,0.0024
3451.00,0.0024
3450.00,0.0024
3449.00,0.0024
3448.00,0.0025
3447.00,0.0025
3446.00,0.0025
3445.00,0.0024
3444.00,0.0024
3443.00,0.0024
3442.00,0.0025
3441.00,0.0025
3440.00,0.0026
3439.00,0.0026
3438.00,0.0026
3437.00,0.0026
3436.00,0.0026
3435.00,0.0026
3434.00,0.0026
3433.00,0.0026
3432.00,0.0026
3431.00,0.0027
3430.00,0.0027
3429.00,0.0027
3428.00,0.0027
3427.00,0.0027
3426.00,0.0027
3425.00,0.0027
3424.00,0.0028
3423.00,0.0028
3422.00,0.0028
3421.00,0.0028
3420.00,0.0029
3419.00,0.0029
3418.00,0.0029
3417.00,0.0029
3416.00,0.0029
3415.00,0.0029
3414.00,0.0029
3413.00,0.0029
3412.00,0.0029
3411.00,0.0029
3410.00,0.0029
3409.00,0.0029
3408.00,0.0030
3407.00,0.0030
3406.00,0.0030
3405.00,0.0030
3404.00,0.0031
3403.00,0.0031
3402.00,0.0032
3401.00,0.0032
3400.00,0.0032
3399.00,0.0032
3398.00,0.0032
3397.00,0.0033
3396.00,0.0033
3395.00,0.0033
3394.00,0.0033
3393.00,0.0032
3392.00,0.0032
3391.00,0.0032
3390.00,0.0032
3389.00,0.0032
3388.00,0.0032
3387.00,0.0031
3386.00,0.0031
3385.00,0.0031
3384.00,0.0032
3383.00,0.0032
3382.00,0.0032
3381.00,0.0032
3380.00,0.0032
3379.00,0.0032
3378.00,0.0032
3377.00,0.0032
3376.00,0.0032
3375.00,0.0032
3374.00,0.0032
3373.00,0.0032
3372.00,0.0032
3371.00,0.0031
3370.00,0.0031
3369.00,0.0031
3368.00,0.0031
3367.00,0.0031
3366.00,0.0032
3365.00,0.0032
3364.00,0.0032
3363.00,0.0032
3362.00,0.0032
3361.00,0.0032
3360.00,0.0032
3359.00,0.0032
3358.00,0.0033
3357.00,0.0033
3356.00,0.0033
3355.00,0.0033
3354.00,0.0033
3353.00,0.0033
3352.00,0.0033
3351.00,0.0033
3350.00,0.0033
3349.00,0.0033
3348.00,0.0033
3347.00,0.0033
3346.00,0.0033
3345.00,0.0034
3344.00,0.0033
3343.00,0.0033
3342.00,0.0033
3341.00,0.0032
3340.00,0.0032
3339.00,0.0032
3338.00,0.0033
3337.00,0.0033
3336.00,0.0033
3335.00,0.0032
3334.00,0.0032
3333.00,0.0032
3332.00,0.0032
3331.00,0.0032
3330.00,0.0032
3329.00,0.0032
3328.00,0.0032
3327.00,0.0031
3326.00,0.0031
3325.00,0.0031
3324.00,0.0031
3323.00,0.0031
3322.00,0.0031
3321.00,0.0031
3320.00,0.0032
3319.00,0.0032
3318.00,0.0032
3317.00,0.0033
3316.00,0.0033
3315.00,0.0033
3314.00,0.0033
3313.00,0.0033
3312.00,0.0034
3311.00,0.0034
3310.00,0.0034
3309.00,0.0034
3308.00,0.0035
3307.00,0.0035
3306.00,0.0036
3305.00,0.0036
3304.00,0.0037
3303.00,0.0037
3302.00,0.0037
3301.00,0.0037
3300.00,0.0037
3299.00,0.0037
3298.00,0.0037
3297.00,0.0036
3296.00,0.0036
3295.00,0.0035
3294.00,0.0034
3293.00,0.0034
3292.00,0.0034
3291.00,0.0033
3290.00,0.0033
3289.00,0.0032
3288.00,0.0032
3287.00,0.0032
3286.00,0.0031
3285.00,0.0031
3284.00,0.0031
3283.00,0.0031
3282.00,0.0031
3281.00,0.0031
3280.00,0.0031
3279.00,0.0032
3278.00,0.0032
3277.00,0.0031
3276.00,0.0030
3275.00,0.0030
3274.00,0.0029
3273.00,0.0029
3272.00,0.0029
3271.00,0.0029
3270.00,0.0029
3269.00,0.0029
3268.00,0.0029
3267.00,0.0029
3266.00,0.0029
3265.00,0.0029
3264.00,0.0029
3263.00,0.0029
3262.00,0.0029
3261.00,0.0029
3260.00,0.0029
3259.00,0.0029
3258.00,0.0029
3257.00,0.0029
3256.00,0.0029
3255.00,0.0029
3254.00,0.0028
3253.00,0.0029
3252.00,0.0029
3251.00,0.0028
3250.00,0.0028
3249.00,0.0027
3248.00,0.0027
3247.00,0.0027
3246.00,0.0027
3245.00,0.0028
3244.00,0.0028
3243.00,0.0028
3242.00,0.0029
3241.00,0.0029
3240.00,0.0029
3239.00,0.0029
3238.00,0.0029
3237.00,0.0029
3236.00,0.0028
3235.00,0.0028
3234.00,0.0028
3233.00,0.0028
3232.00,0.0029
3231.00,0.0029
3230.00,0.0029
3229.00,0.0029
3228.00,0.0029
3227.00,0.0029
3226.00,0.0029
3225.00,0.0029
3224.00,0.0029
3223.00,0.0030
3222.00,0.0030
3221.00,0.0030
3220.00,0.0030
3219.00,0.0031
3218.00,0.0031
3217.00,0.0031
3216.00,0.0032
3215.00,0.0032
3214.00,0.0032
3213.00,0.0032
3212.00,0.0032
3211.00,0.0033
3210.00,0.0033
3209.00,0.0033
3208.00,0.0033
3207.00,0.0034
3206.00,0.0034
3205.00,0.0034
3204.00,0.0034
3203.00,0.0034
3202.00,0.0035
3201.00,0.0035
3200.00,0.0035
3199.00,0.0035
3198.00,0.0035
3197.00,0.0035
3196.00,0.0035
3195.00,0.0035
3194.00,0.0035
3193.00,0.0035
3192.00,0.0035
3191.00,0.0035
3190.00,0.0034
3189.00,0.0034
3188.00,0.0034
3187.00,0.0034
3186.00,0.0034
3185.00,0.0034
3184.00,0.0034
3183.00,0.0033
3182.00,0.0033
3181.00,0.0032
3180.00,0.0032
3179.00,0.0032
3178.00,0.0032
3177.00,0.0032
3176.00,0.0032
3175.00,0.0032
3174.00,0.0032
3173.00,0.0032
3172.00,0.0032
3171.00,0.0032
3170.00,0.0032
3169.00,0.0031
3168.00,0.0031
3167.00,0.0031
3166.00,0.0031
3165.00,0.0031
3164.00,0.0031
3163.00,0.0030
3162.00,0.0030
3161.00,0.0030
3160.00,0.0030
3159.00,0.0030
3158.00,0.0030
3157.00,0.0030
3156.00,0.0030
3155.00,0.0030
3154.00,0.0031
3153.00,0.0031
3152.00,0.0030
3151.00,0.0030
3150.00,0.0030
3149.00,0.0030
3148.00,0.0030
3147.00,0.0030
3146.00,0.0030
3145.00,0.0030
3144.00,0.0030
3143.00,0.0030
3142.00,0.0030
3141.00,0.0030
3140.00,0.0030
3139.00,0.0030
3138.00,0.0030
3137.00,0.0030
3136.00,0.0030
3135.00,0.0030
3134.00,0.0030
3133.00,0.0029
3132.00,0.0029
3131.00,0.0028
3130.00,0.0028
3129.00,0.0028
3128.00,0.0028
3127.00,0.0028
3126.00,0.0028
3125.00,0.0028
3124.00,0.0027
3123.00,0.0027
3122.00,0.0027
3121.00,0.0026
3120.00,0.0026
3119.00,0.0026
3118.00,0.0026
3117.00,0.0026
3116.00,0.0025
3115.00,0.0025
3114.00,0.0025
3113.00,0.0025
3112.00,0.0024
3111.00,0.0024
3110.00,0.0024
3109.00,0.0024
3108.00,0.0025
3107.00,0.0025
3106.00,0.0025
3105.00,0.0025
3104.00,0.0025
3103.00,0.0025
3102.00,0.0025
3101.00,0.0025
3100.00,0.0024
3099.00,0.0024
3098.00,0.0024
3097.00,0.0024
3096.00,0.0024
3095.00,0.0024
3094.00,0.0024
3093.00,0.0024
3092.00,0.0024
3091.00,0.0024
3090.00,0.0024
3089.00,0.0024
3088.00,0.0024
3087.00,0.0025
3086.00,0.0025
3085.00,0.0024
3084.00,0.0024
3083.00,0.0024
3082.00,0.0024
3081.00,0.0024
3080.00,0.0025
3079.00,0.0025
3078.00,0.0025
3077.00,0.0025
3076.00,0.0025
3075.00,0.0025
3074.00,0.0025
3073.00,0.0025
3072.00,0.0025
3071.00,0.0025
3070.00,0.0025
3069.00,0.0025
3068.00,0.0025
3067.00,0.0025
3066.00,0.0026
3065.00,0.0026
3064.00,0.0026
3063.00,0.0026
3062.00,0.0026
3061.00,0.0026
3060.00,0.0026
3059.00,0.0027
3058.00,0.0027
3057.00,0.0027
3056.00,0.0027
3055.00,0.0027
3054.00,0.0027
3053.00,0.0027
3052.00,0.0027
3051.00,0.0028
3050.00,0.0028
3049.00,0.0028
3048.00,0.0028
3047.00,0.0028
3046.00,0.0028
3045.00,0.0028
3044.00,0.0028
3043.00,0.0029
3042.00,0.0029
3041.00,0.0030
3040.00,0.0030
3039.00,0.0030
3038.00,0.0030
3037.00,0.0031
3036.00,0.0031
3035.00,0.0031
3034.00,0.0031
3033.00,0.0031
3032.00,0.0032
3031.00,0.0033
3030.00,0.0033
3029.00,0.0034
3028.00,0.0035
3027.00,0.0035
3026.00,0.0036
3025.00,0.0036
3024.00,0.0037
3023.00,0.0038
3022.00,0.0039
3021.00,0.0040
3020.00,0.0040
3019.00,0.0041
3018.00,0.0042
3017.00,0.0043
3016.00,0.0044
3015.00,0.0045
3014.00,0.0046
3013.00,0.0046
3012.00,0.0047
3011.00,0.0049
3010.00,0.0050
3009.00,0.0052
3008.00,0.0053
3007.00,0.0055
3006.00,0.0057
3005.00,0.0059
3004.00,0.0061
3003.00,0.0063
3002.00,0.0065
3001.00,0.0068
3000.00,0.0070
2999.00,0.0073
2998.00,0.0076
2997.00,0.0080
2996.00,0.0083
2995.00,0.0087
2994.00,0.0091
2993.00,0.0096
2992.00,0.0101
2991.00,0.0106
2990.00,0.0113
2989.00,0.0119
2988.00,0.0127
2987.00,0.0135
2986.00,0.0145
2985.00,0.0155
2984.00,0.0167
2983.00,0.0181
2982.00,0.0196
2981.00,0.0213
2980.00,0.0233
2979.00,0.0255
2978.00,0.0280
2977.00,0.0309
2976.00,0.0342
2975.00,0.0381
2974.00,0.0426
2973.00,0.0478
2972.00,0.0537
2971.00,0.0603
2970.00,0.0678
2969.00,0.0760
2968.00,0.0849
2967.00,0.0946
2966.00,0.1050
2965.00,0.1156
2964.00,0.1262
2963.00,0.1360
2962.00,0.1446
2961.00,0.1514
2960.00,0.1564
2959.00,0.1600
2958.00,0.1629
2957.00,0.1659
2956.00,0.1699
2955.00,0.1754
2954.00,0.1821
2953.00,0.1895
2952.00,0.1962
2951.00,0.2007
2950.00,0.2016
2949.00,0.1980
2948.00,0.1900
2947.00,0.1784
2946.00,0.1645
2945.00,0.1500
2944.00,0.1363
2943.00,0.1245
2942.00,0.1151
2941.00,0.1084
2940.00,0.1042
2939.00,0.1024
2938.00,0.1027
2937.00,0.1049
2936.00,0.1087
2935.00,0.1141
2934.00,0.1209
2933.00,0.1290
2932.00,0.1383
2931.00,0.1486
2930.00,0.1596
2929.00,0.1709
2928.00,0.1823
2927.00,0.1935
2926.00,0.2044
2925.00,0.2149
2924.00,0.2253
2923.00,0.2356
2922.00,0.2458
2921.00,0.2556
2920.00,0.2642
2919.00,0.2705
2918.00,0.2734
2917.00,0.2722
2916.00,0.2668
2915.00,0.2581
2914.00,0.2474
2913.00,0.2362
2912.00,0.2255
2911.00,0.2159
2910.00,0.2076
2909.00,0.2004
2908.00,0.1938
2907.00,0.1875
2906.00,0.1811
2905.00,0.1745
2904.00,0.1676
2903.00,0.1606
2902.00,0.1536
2901.00,0.1467
2900.00,0.1400
2899.00,0.1337
2898.00,0.1278
2897.00,0.1224
2896.00,0.1177
2895.00,0.1137
2894.00,0.1105
2893.00,0.1079
2892.00,0.1061
2891.00,0.1049
2890.00,0.1042
2889.00,0.1039
2888.00,0.1040
2887.00,0.1044
2886.00,0.1051
2885.00,0.1061
2884.00,0.1075
2883.00,0.1093
2882.00,0.1114
2881.00,0.1137
2880.00,0.1158
2879.00,0.1175
2878.00,0.1183
2877.00,0.1183
2876.00,0.1176
2875.00,0.1167
2874.00,0.1161
2873.00,0.1161
2872.00,0.1170
2871.00,0.1187
2870.00,0.1209
2869.00,0.1230
2868.00,0.1243
2867.00,0.1239
2866.00,0.1212
2865.00,0.1160
2864.00,0.1086
2863.00,0.0999
2862.00,0.0911
2861.00,0.0832
2860.00,0.0766
2859.00,0.0716
2858.00,0.0682
2857.00,0.0661
2856.00,0.0651
2855.00,0.0649
2854.00,0.0656
2853.00,0.0669
2852.00,0.0686
2851.00,0.0706
2850.00,0.0729
2849.00,0.0754
2848.00,0.0783
2847.00,0.0817
2846.00,0.0861
2845.00,0.0915
2844.00,0.0978
2843.00,0.1048
2842.00,0.1119
2841.00,0.1183
2840.00,0.1232
2839.00,0.1257
2838.00,0.1251
2837.00,0.1212
2836.00,0.1141
2835.00,0.1046
2834.00,0.0937
2833.00,0.0826
2832.00,0.0721
2831.00,0.0629
2830.00,0.0552
2829.00,0.0489
2828.00,0.0438
2827.00,0.0397
2826.00,0.0363
2825.00,0.0335
2824.00,0.0312
2823.00,0.0292
2822.00,0.0275
2821.00,0.0260
2820.00,0.0247
2819.00,0.0235
2818.00,0.0225
2817.00,0.0217
2816.00,0.0210
2815.00,0.0203
2814.00,0.0197
2813.00,0.0191
2812.00,0.0185
2811.00,0.0180
2810.00,0.0174
2809.00,0.0169
2808.00,0.0163
2807.00,0.0157
2806.00,0.0150
2805.00,0.0144
2804.00,0.0138
2803.00,0.0132
2802.00,0.0126
2801.00,0.0122
2800.00,0.0118
2799.00,0.0116
2798.00,0.0113
2797.00,0.0111
2796.00,0.0109
2795.00,0.0107
2794.00,0.0104
2793.00,0.0101
2792.00,0.0098
2791.00,0.0094
2790.00,0.0091
2789.00,0.0087
2788.00,0.0084
2787.00,0.0080
2786.00,0.0078
2785.00,0.0075
2784.00,0.0072
2783.00,0.0070
2782.00,0.0068
2781.00,0.0066
2780.00,0.0064
2779.00,0.0063
2778.00,0.0062
2777.00,0.0060
2776.00,0.0059
2775.00,0.0058
2774.00,0.0058
2773.00,0.0057
2772.00,0.0056
2771.00,0.0056
2770.00,0.0055
2769.00,0.0055
2768.00,0.0054
2767.00,0.0054
2766.00,0.0054
2765.00,0.0054
2764.00,0.0053
2763.00,0.0052
2762.00,0.0052
2761.00,0.0052
2760.00,0.0051
2759.00,0.0051
2758.00,0.0051
2757.00,0.0051
2756.00,0.0051
2755.00,0.0051
2754.00,0.0051
2753.00,0.0051
2752.00,0.0050
2751.00,0.0050
2750.00,0.0050
2749.00,0.0050
2748.00,0.0050
2747.00,0.0050
2746.00,0.0050
2745.00,0.0051
2744.00,0.0052
2743.00,0.0053
2742.00,0.0054
2741.00,0.0055
2740.00,0.0056
2739.00,0.0057
2738.00,0.0059
2737.00,0.0060
2736.00,0.0061
2735.00,0.0063
2734.00,0.0064
2733.00,0.0066
2732.00,0.0067
2731.00,0.0069
2730.00,0.0071
2729.00,0.0074
2728.00,0.0077
2727.00,0.0080
2726.00,0.0083
2725.00,0.0085
2724.00,0.0087
2723.00,0.0088
2722.00,0.0087
2721.00,0.0086
2720.00,0.0083
2719.00,0.0079
2718.00,0.0076
2717.00,0.0073
2716.00,0.0070
2715.00,0.0067
2714.00,0.0065
2713.00,0.0063
2712.00,0.0060
2711.00,0.0058
2710.00,0.0056
2709.00,0.0054
2708.00,0.0053
2707.00,0.0051
2706.00,0.0050
2705.00,0.0049
2704.00,0.0048
2703.00,0.0047
2702.00,0.0046
2701.00,0.0045
2700.00,0.0045
2699.00,0.0044
2698.00,0.0044
2697.00,0.0044
2696.00,0.0044
2695.00,0.0044
2694.00,0.0044
2693.00,0.0044
2692.00,0.0044
2691.00,0.0044
2690.00,0.0044
2689.00,0.0044
2688.00,0.0045
2687.00,0.0044
2686.00,0.0044
2685.00,0.0044
2684.00,0.0044
2683.00,0.0044
2682.00,0.0044
2681.00,0.0045
2680.00,0.0045
2679.00,0.0045
2678.00,0.0044
2677.00,0.0044
2676.00,0.0044
2675.00,0.0044
2674.00,0.0044
2673.00,0.0044
2672.00,0.0043
2671.00,0.0043
2670.00,0.0043
2669.00,0.0043
2668.00,0.0044
2667.00,0.0044
2666.00,0.0044
2665.00,0.0045
2664.00,0.0046
2663.00,0.0047
2662.00,0.0047
2661.00,0.0048
2660.00,0.0048
2659.00,0.0048
2658.00,0.0047
2657.00,0.0047
2656.00,0.0046
2655.00,0.0046
2654.00,0.0045
2653.00,0.0045
2652.00,0.0044
2651.00,0.0044
2650.00,0.0043
2649.00,0.0043
2648.00,0.0042
2647.00,0.0042
2646.00,0.0041
2645.00,0.0041
2644.00,0.0041
2643.00,0.0041
2642.00,0.0040
2641.00,0.0040
2640.00,0.0039
2639.00,0.0038
2638.00,0.0038
2637.00,0.0038
2636.00,0.0038
2635.00,0.0038
2634.00,0.0038
2633.00,0.0038
2632.00,0.0038
2631.00,0.0039
2630.00,0.0039
2629.00,0.0039
2628.00,0.0040
2627.00,0.0040
2626.00,0.0040
2625.00,0.0039
2624.00,0.0039
2623.00,0.0039
2622.00,0.0039
2621.00,0.0039
2620.00,0.0039
2619.00,0.0040
2618.00,0.0040
2617.00,0.0040
2616.00,0.0040
2615.00,0.0040
2614.00,0.0040
2613.00,0.0039
2612.00,0.0039
2611.00,0.0038
2610.00,0.0037
2609.00,0.0035
2608.00,0.0034
2607.00,0.0034
2606.00,0.0034
2605.00,0.0033
2604.00,0.0033
2603.00,0.0032
2602.00,0.0031
2601.00,0.0030
2600.00,0.0030
2599.00,0.0030
2598.00,0.0031
2597.00,0.0032
2596.00,0.0032
2595.00,0.0032
2594.00,0.0032
2593.00,0.0032
2592.00,0.0033
2591.00,0.0033
2590.00,0.0034
2589.00,0.0034
2588.00,0.0035
2587.00,0.0037
2586.00,0.0038
2585.00,0.0039
2584.00,0.0039
2583.00,0.0040
2582.00,0.0040
2581.00,0.0040
2580.00,0.0039
2579.00,0.0039
2578.00,0.0037
2577.00,0.0036
2576.00,0.0034
2575.00,0.0033
2574.00,0.0032
2573.00,0.0032
2572.00,0.0031
2571.00,0.0030
2570.00,0.0028
2569.00,0.0027
2568.00,0.0026
2567.00,0.0025
2566.00,0.0025
2565.00,0.0025
2564.00,0.0024
2563.00,0.0024
2562.00,0.0024
2561.00,0.0024
2560.00,0.0023
2559.00,0.0023
2558.00,0.0023
2557.00,0.0023
2556.00,0.0023
2555.00,0.0023
2554.00,0.0022
2553.00,0.0022
2552.00,0.0022
2551.00,0.0021
2550.00,0.0021
2549.00,0.0020
2548.00,0.0019
2547.00,0.0018
2546.00,0.0018
2545.00,0.0018
2544.00,0.0018
2543.00,0.0018
2542.00,0.0018
2541.00,0.0018
2540.00,0.0017
2539.00,0.0017
2538.00,0.0017
2537.00,0.0017
2536.00,0.0017
2535.00,0.0017
2534.00,0.0017
2533.00,0.0016
2532.00,0.0016
2531.00,0.0016
2530.00,0.0015
2529.00,0.0015
2528.00,0.0015
2527.00,0.0015
2526.00,0.0015
2525.00,0.0014
2524.00,0.0014
2523.00,0.0014
2522.00,0.0014
2521.00,0.0013
2520.00,0.0013
2519.00,0.0012
2518.00,0.0012
2517.00,0.0012
2516.00,0.0012
2515.00,0.0011
2514.00,0.0011
2513.00,0.0011
2512.00,0.0011
2511.00,0.0011
2510.00,0.0010
2509.00,0.0010
2508.00,0.0010
2507.00,0.0009
2506.00,0.0010
2505.00,0.0010
2504.00,0.0010
2503.00,0.0011
2502.00,0.0011
2501.00,0.0011
2500.00,0.0011
2499.00,0.0011
2498.00,0.0011
2497.00,0.0012
2496.00,0.0012
2495.00,0.0012
2494.00,0.0012
2493.00,0.0011
2492.00,0.0011
2491.00,0.0010
2490.00,0.0010
2489.00,0.0010
2488.00,0.0011
2487.00,0.0011
2486.00,0.0011
2485.00,0.0011
2484.00,0.0010
2483.00,0.0009
2482.00,0.0009
2481.00,0.0009
2480.00,0.0009
2479.00,0.0009
2478.00,0.0009
2477.00,0.0009
2476.00,0.0009
2475.00,0.0009
2474.00,0.0008
2473.00,0.0008
2472.00,0.0008
2471.00,0.0007
2470.00,0.0007
2469.00,0.0007
2468.00,0.0007
2467.00,0.0008
2466.00,0.0008
2465.00,0.0009
2464.00,0.0009
2463.00,0.0009
2462.00,0.0009
2461.00,0.0010
2460.00,0.0010
2459.00,0.0010
2458.00,0.0010
2457.00,0.0010
2456.00,0.0010
2455.00,0.0011
2454.00,0.0011
2453.00,0.0011
2452.00,0.0012
2451.00,0.0012
2450.00,0.0012
2449.00,0.0012
2448.00,0.0012
2447.00,0.0012
2446.00,0.0012
2445.00,0.0011
2444.00,0.0011
2443.00,0.0011
2442.00,0.0012
2441.00,0.0012
2440.00,0.0013
2439.00,0.0013
2438.00,0.0012
2437.00,0.0011
2436.00,0.0011
2435.00,0.0011
2434.00,0.0011
2433.00,0.0011
2432.00,0.0011
2431.00,0.0011
2430.00,0.0010
2429.00,0.0011
2428.00,0.0012
2427.00,0.0013
2426.00,0.0013
2425.00,0.0012
2424.00,0.0012
2423.00,0.0011
2422.00,0.0011
2421.00,0.0011
2420.00,0.0011
2419.00,0.0010
2418.00,0.0010
2417.00,0.0010
2416.00,0.0010
2415.00,0.0010
2414.00,0.0011
2413.00,0.0011
2412.00,0.0011
2411.00,0.0011
2410.00,0.0011
2409.00,0.0011
2408.00,0.0011
2407.00,0.0010
2406.00,0.0010
2405.00,0.0009
2404.00,0.0009
2403.00,0.0009
2402.00,0.0008
2401.00,0.0008
2400.00,0.0008
2399.00,0.0007
2398.00,0.0008
2397.00,0.0008
2396.00,0.0008
2395.00,0.0007
2394.00,0.0007
2393.00,0.0007
2392.00,0.0007
2391.00,0.0007
2390.00,0.0007
2389.00,0.0007
2388.00,0.0007
2387.00,0.0006
2386.00,0.0006
2385.00,0.0006
2384.00,0.0005
2383.00,0.0005
2382.00,0.0004
2381.00,0.0004
2380.00,0.0004
2379.00,0.0004
2378.00,0.0004
2377.00,0.0004
2376.00,0.0005
2375.00,0.0005
2374.00,0.0005
2373.00,0.0004
2372.00,0.0004
2371.00,0.0003
2370.00,0.0003
2369.00,0.0003
2368.00,0.0002
2367.00,0.0003
2366.00,0.0003
2365.00,0.0004
2364.00,0.0004
2363.00,0.0005
2362.00,0.0005
2361.00,0.0005
2360.00,0.0004
2359.00,0.0003
2358.00,0.0003
2357.00,0.0003
2356.00,0.0004
2355.00,0.0004
2354.00,0.0004
2353.00,0.0004
2352.00,0.0004
2351.00,0.0004
2350.00,0.0004
2349.00,0.0005
2348.00,0.0005
2347.00,0.0005
2346.00,0.0006
2345.00,0.0006
2344.00,0.0006
2343.00,0.0006
2342.00,0.0006
2341.00,0.0006
2340.00,0.0007
2339.00,0.0007
2338.00,0.0007
2337.00,0.0007
2336.00,0.0007
2335.00,0.0006
2334.00,0.0006
2333.00,0.0006
2332.00,0.0006
2331.00,0.0006
2330.00,0.0006
2329.00,0.0006
2328.00,0.0008
2327.00,0.0011
2326.00,0.0016
2325.00,0.0019
2324.00,0.0021
2323.00,0.0020
2322.00,0.0017
2321.00,0.0014
2320.00,0.0012
2319.00,0.0011
2318.00,0.0011
2317.00,0.0011
2316.00,0.0010
2315.00,0.0009
2314.00,0.0009
2313.00,0.0008
2312.00,0.0008
2311.00,0.0008
2310.00,0.0008
2309.00,0.0008
2308.00,0.0008
2307.00,0.0008
2306.00,0.0008
2305.00,0.0009
2304.00,0.0009
2303.00,0.0010
2302.00,0.0010
2301.00,0.0011
2300.00,0.0011
2299.00,0.0011
2298.00,0.0011
2297.00,0.0012
2296.00,0.0013
2295.00,0.0014
2294.00,0.0014
2293.00,0.0015
2292.00,0.0016
2291.00,0.0016
2290.00,0.0017
2289.00,0.0018
2288.00,0.0019
2287.00,0.0019
2286.00,0.0019
2285.00,0.0018
2284.00,0.0018
2283.00,0.0017
2282.00,0.0016
2281.00,0.0014
2280.00,0.0014
2279.00,0.0014
2278.00,0.0015
2277.00,0.0016
2276.00,0.0016
2275.00,0.0016
2274.00,0.0016
2273.00,0.0016
2272.00,0.0015
2271.00,0.0015
2270.00,0.0015
2269.00,0.0015
2268.00,0.0014
2267.00,0.0013
2266.00,0.0012
2265.00,0.0011
2264.00,0.0011
2263.00,0.0011
2262.00,0.0013
2261.00,0.0014
2260.00,0.0014
2259.00,0.0014
2258.00,0.0014
2257.00,0.0013
2256.00,0.0012
2255.00,0.0011
2254.00,0.0010
2253.00,0.0010
2252.00,0.0010
2251.00,0.0010
2250.00,0.0010
2249.00,0.0009
2248.00,0.0009
2247.00,0.0010
2246.00,0.0011
2245.00,0.0011
2244.00,0.0012
2243.00,0.0012
2242.00,0.0011
2241.00,0.0010
2240.00,0.0010
2239.00,0.0010
2238.00,0.0011
2237.00,0.0012
2236.00,0.0012
2235.00,0.0010
2234.00,0.0009
2233.00,0.0008
2232.00,0.0008
2231.00,0.0008
2230.00,0.0007
2229.00,0.0007
2228.00,0.0006
2227.00,0.0006
2226.00,0.0005
2225.00,0.0005
2224.00,0.0005
2223.00,0.0006
2222.00,0.0006
2221.00,0.0006
2220.00,0.0005
2219.00,0.0005
2218.00,0.0005
2217.00,0.0006
2216.00,0.0007
2215.00,0.0007
2214.00,0.0008
2213.00,0.0008
2212.00,0.0008
2211.00,0.0006
2210.00,0.0003
2209.00,0.0000
2208.00,-0.0001
2207.00,-0.0000
2206.00,0.0001
2205.00,0.0002
2204.00,0.0002
2203.00,0.0002
2202.00,0.0004
2201.00,0.0005
2200.00,0.0006
2199.00,0.0006
2198.00,0.0005
2197.00,0.0004
2196.00,0.0004
2195.00,0.0004
2194.00,0.0005
2193.00,0.0005
2192.00,0.0006
2191.00,0.0006
2190.00,0.0007
2189.00,0.0009
2188.00,0.0011
2187.00,0.0011
2186.00,0.0011
2185.00,0.0011
2184.00,0.0010
2183.00,0.0007
2182.00,0.0003
2181.00,0.0001
2180.00,0.0003
2179.00,0.0005
2178.00,0.0007
2177.00,0.0007
2176.00,0.0005
2175.00,0.0005
2174.00,0.0006
2173.00,0.0009
2172.00,0.0011
2171.00,0.0013
2170.00,0.0015
2169.00,0.0017
2168.00,0.0019
2167.00,0.0019
2166.00,0.0018
2165.00,0.0017
2164.00,0.0017
2163.00,0.0018
2162.00,0.0016
2161.00,0.0011
2160.00,-0.0001
2159.00,-0.0015
2158.00,-0.0026
2157.00,-0.0031
2156.00,-0.0031
2155.00,-0.0027
2154.00,-0.0022
2153.00,-0.0019
2152.00,-0.0017
2151.00,-0.0017
2150.00,-0.0017
2149.00,-0.0016
2148.00,-0.0015
2147.00,-0.0014
2146.00,-0.0013
2145.00,-0.0012
2144.00,-0.0011
2143.00,-0.0010
2142.00,-0.0011
2141.00,-0.0012
2140.00,-0.0013
2139.00,-0.0013
2138.00,-0.0012
2137.00,-0.0012
2136.00,-0.0014
2135.00,-0.0018
2134.00,-0.0020
2133.00,-0.0020
2132.00,-0.0018
2131.00,-0.0015
2130.00,-0.0013
2129.00,-0.0012
2128.00,-0.0011
2127.00,-0.0009
2126.00,-0.0008
2125.00,-0.0008
2124.00,-0.0007
2123.00,-0.0007
2122.00,-0.0008
2121.00,-0.0007
2120.00,-0.0007
2119.00,-0.0005
2118.00,-0.0003
2117.00,-0.0001
2116.00,0.0000
2115.00,0.0001
2114.00,0.0002
2113.00,0.0002
2112.00,0.0002
2111.00,0.0001
2110.00,0.0000
2109.00,-0.0001
2108.00,-0.0000
2107.00,0.0001
2106.00,0.0002
2105.00,0.0003
2104.00,0.0003
2103.00,0.0004
2102.00,0.0005
2101.00,0.0005
2100.00,0.0005
2099.00,0.0003
2098.00,0.0001
2097.00,-0.0002
2096.00,-0.0005
2095.00,-0.0008
2094.00,-0.0009
2093.00,-0.0009
2092.00,-0.0006
2091.00,-0.0003
2090.00,-0.0001
2089.00,-0.0000
2088.00,-0.0000
2087.00,0.0000
2086.00,0.0001
2085.00,0.0002
2084.00,0.0003
2083.00,0.0004
2082.00,0.0004
2081.00,0.0004
2080.00,0.0005
2079.00,0.0004
2078.00,0.0003
2077.00,0.0002
2076.00,0.0001
2075.00,-0.0000
2074.00,-0.0000
2073.00,0.0000
2072.00,0.0001
2071.00,0.0001
2070.00,0.0001
2069.00,0.0001
2068.00,0.0000
2067.00,0.0000
2066.00,0.0001
2065.00,0.0002
2064.00,0.0003
2063.00,0.0004
2062.00,0.0004
2061.00,0.0003
2060.00,0.0002
2059.00,-0.0000
2058.00,-0.0001
2057.00,-0.0000
2056.00,-0.0000
2055.00,-0.0001
2054.00,-0.0001
2053.00,0.0002
2052.00,0.0007
2051.00,0.0012
2050.00,0.0013
2049.00,0.0010
2048.00,0.0005
2047.00,-0.0001
2046.00,-0.0004
2045.00,-0.0005
2044.00,-0.0005
2043.00,-0.0005
2042.00,-0.0006
2041.00,-0.0007
2040.00,-0.0007
2039.00,-0.0006
2038.00,-0.0004
2037.00,-0.0003
2036.00,-0.0002
2035.00,-0.0004
2034.00,-0.0007
2033.00,-0.0010
2032.00,-0.0010
2031.00,-0.0010
2030.00,-0.0010
2029.00,-0.0010
2028.00,-0.0011
2027.00,-0.0013
2026.00,-0.0014
2025.00,-0.0014
2024.00,-0.0014
2023.00,-0.0013
2022.00,-0.0011
2021.00,-0.0009
2020.00,-0.0005
2019.00,-0.0003
2018.00,-0.0002
2017.00,-0.0002
2016.00,-0.0002
2015.00,-0.0001
2014.00,-0.0001
2013.00,-0.0001
2012.00,-0.0002
2011.00,-0.0004
2010.00,-0.0006
2009.00,-0.0008
2008.00,-0.0011
2007.00,-0.0014
2006.00,-0.0016
2005.00,-0.0017
2004.00,-0.0017
2003.00,-0.0016
2002.00,-0.0014
2001.00,-0.0013
2000.00,-0.0013
1999.00,-0.0014
1998.00,-0.0016
1997.00,-0.0016
1996.00,-0.0015
1995.00,-0.0015
1994.00,-0.0016
1993.00,-0.0015
1992.00,-0.0012
1991.00,-0.0009
1990.00,-0.0007
1989.00,-0.0005
1988.00,-0.0003
1987.00,-0.0001
1986.00,-0.0001
1985.00,0.0001
1984.00,0.0003
1983.00,0.0007
1982.00,0.0012
1981.00,0.0015
1980.00,0.0016
1979.00,0.0012
1978.00,0.0006
1977.00,0.0001
1976.00,-0.0003
1975.00,-0.0007
1974.00,-0.0009
1973.00,-0.0011
1972.00,-0.0012
1971.00,-0.0012
1970.00,-0.0014
1969.00,-0.0016
1968.00,-0.0019
1967.00,-0.0021
1966.00,-0.0021
1965.00,-0.0020
1964.00,-0.0018
1963.00,-0.0017
1962.00,-0.0017
1961.00,-0.0018
1960.00,-0.0019
1959.00,-0.0019
1958.00,-0.0019
1957.00,-0.0019
1956.00,-0.0019
1955.00,-0.0019
1954.00,-0.0018
1953.00,-0.0017
1952.00,-0.0016
1951.00,-0.0016
1950.00,-0.0015
1949.00,-0.0015
1948.00,-0.0014
1947.00,-0.0015
1946.00,-0.0016
1945.00,-0.0017
1944.00,-0.0018
1943.00,-0.0018
1942.00,-0.0018
1941.00,-0.0018
1940.00,-0.0018
1939.00,-0.0016
1938.00,-0.0013
1937.00,-0.0009
1936.00,-0.0007
1935.00,-0.0006
1934.00,-0.0006
1933.00,-0.0005
1932.00,-0.0005
1931.00,-0.0005
1930.00,-0.0006
1929.00,-0.0006
1928.00,-0.0007
1927.00,-0.0008
1926.00,-0.0008
1925.00,-0.0008
1924.00,-0.0007
1923.00,-0.0007
1922.00,-0.0006
1921.00,-0.0005
1920.00,-0.0004
1919.00,-0.0004
1918.00,-0.0004
1917.00,-0.0005
1916.00,-0.0005
1915.00,-0.0005
1914.00,-0.0005
1913.00,-0.0005
1912.00,-0.0005
1911.00,-0.0005
1910.00,-0.0005
1909.00,-0.0004
1908.00,-0.0005
1907.00,-0.0006
1906.00,-0.0006
1905.00,-0.0006
1904.00,-0.0005
1903.00,-0.0004
1902.00,-0.0002
1901.00,-0.0002
1900.00,-0.0001
1899.00,-0.0001
1898.00,-0.0002
1897.00,-0.0001
1896.00,-0.0001
1895.00,-0.0001
1894.00,-0.0001
1893.00,-0.0000
1892.00,0.0001
1891.00,0.0001
1890.00,0.0001
1889.00,0.0001
1888.00,0.0001
1887.00,0.0000
1886.00,-0.0000
1885.00,-0.0001
1884.00,-0.0002
1883.00,-0.0002
1882.00,-0.0003
1881.00,-0.0002
1880.00,-0.0002
1879.00,-0.0001
1878.00,-0.0000
1877.00,-0.0001
1876.00,-0.0001
1875.00,-0.0002
1874.00,-0.0002
1873.00,-0.0001
1872.00,-0.0000
1871.00,0.0000
1870.00,0.0000
1869.00,0.0000
1868.00,-0.0000
1867.00,-0.0001
1866.00,-0.0001
1865.00,-0.0002
1864.00,-0.0002
1863.00,-0.0002
1862.00,-0.0001
1861.00,-0.0001
1860.00,-0.0000
1859.00,0.0000
1858.00,0.0000
1857.00,0.0001
1856.00,0.0001
1855.00,0.0001
1854.00,0.0001
1853.00,0.0000
1852.00,0.0000
1851.00,-0.0000
1850.00,-0.0000
1849.00,-0.0001
1848.00,-0.0001
1847.00,-0.0001
1846.00,-0.0002
1845.00,-0.0001
1844.00,-0.0000
1843.00,0.0000
1842.00,0.0001
1841.00,0.0001
1840.00,0.0002
1839.00,0.0002
1838.00,0.0002
1837.00,0.0003
1836.00,0.0003
1835.00,0.0004
1834.00,0.0004
1833.00,0.0003
1832.00,0.0003
1831.00,0.0003
1830.00,0.0003
1829.00,0.0003
1828.00,0.0002
1827.00,0.0002
1826.00,0.0001
1825.00,0.0002
1824.00,0.0002
1823.00,0.0002
1822.00,0.0002
1821.00,0.0002
1820.00,0.0002
1819.00,0.0001
1818.00,0.0000
1817.00,-0.0000
1816.00,-0.0000
1815.00,0.0000
1814.00,0.0001
1813.00,0.0001
1812.00,0.0001
1811.00,0.0001
1810.00,0.0001
1809.00,0.0002
1808.00,0.0002
1807.00,0.0002
1806.00,0.0002
1805.00,0.0002
1804.00,0.0003
1803.00,0.0004
1802.00,0.0005
1801.00,0.0005
1800.00,0.0004
1799.00,0.0003
1798.00,0.0003
1797.00,0.0004
1796.00,0.0004
1795.00,0.0004
1794.00,0.0005
1793.00,0.0005
1792.00,0.0006
1791.00,0.0007
1790.00,0.0007
1789.00,0.0007
1788.00,0.0008
1787.00,0.0008
1786.00,0.0008
1785.00,0.0008
1784.00,0.0008
1783.00,0.0007
1782.00,0.0006
1781.00,0.0005
1780.00,0.0006
1779.00,0.0006
1778.00,0.0007
1777.00,0.0007
1776.00,0.0008
1775.00,0.0008
1774.00,0.0008
1773.00,0.0008
1772.00,0.0008
1771.00,0.0008
1770.00,0.0008
1769.00,0.0009
1768.00,0.0009
1767.00,0.0009
1766.00,0.0009
1765.00,0.0009
1764.00,0.0009
1763.00,0.0009
1762.00,0.0010
1761.00,0.0010
1760.00,0.0011
1759.00,0.0011
1758.00,0.0012
1757.00,0.0012
1756.00,0.0012
1755.00,0.0012
1754.00,0.0012
1753.00,0.0013
1752.00,0.0014
1751.00,0.0014
1750.00,0.0015
1749.00,0.0015
1748.00,0.0016
1747.00,0.0016
1746.00,0.0017
1745.00,0.0018
1744.00,0.0019
1743.00,0.0020
1742.00,0.0020
1741.00,0.0021
1740.00,0.0021
1739.00,0.0022
1738.00,0.0022
1737.00,0.0022
1736.00,0.0022
1735.00,0.0022
1734.00,0.0022
1733.00,0.0022
1732.00,0.0022
1731.00,0.0023
1730.00,0.0023
1729.00,0.0023
1728.00,0.0023
1727.00,0.0022
1726.00,0.0023
1725.00,0.0023
1724.00,0.0023
1723.00,0.0023
1722.00,0.0023
1721.00,0.0023
1720.00,0.0023
1719.00,0.0023
1718.00,0.0022
1717.00,0.0021
1716.00,0.0020
1715.00,0.0020
1714.00,0.0019
1713.00,0.0019
1712.00,0.0019
1711.00,0.0020
1710.00,0.0021
1709.00,0.0021
1708.00,0.0022
1707.00,0.0022
1706.00,0.0022
1705.00,0.0023
1704.00,0.0023
1703.00,0.0023
1702.00,0.0023
1701.00,0.0023
1700.00,0.0023
1699.00,0.0023
1698.00,0.0023
1697.00,0.0024
1696.00,0.0025
1695.00,0.0025
1694.00,0.0025
1693.00,0.0025
1692.00,0.0025
1691.00,0.0026
1690.00,0.0026
1689.00,0.0026
1688.00,0.0027
1687.00,0.0026
1686.00,0.0026
1685.00,0.0026
1684.00,0.0027
1683.00,0.0027
1682.00,0.0028
1681.00,0.0028
1680.00,0.0028
1679.00,0.0029
1678.00,0.0030
1677.00,0.0031
1676.00,0.0032
1675.00,0.0033
1674.00,0.0033
1673.00,0.0033
1672.00,0.0032
1671.00,0.0032
1670.00,0.0032
1669.00,0.0033
1668.00,0.0033
1667.00,0.0034
1666.00,0.0034
1665.00,0.0034
1664.00,0.0035
1663.00,0.0035
1662.00,0.0036
1661.00,0.0036
1660.00,0.0037
1659.00,0.0037
1658.00,0.0037
1657.00,0.0037
1656.00,0.0038
1655.00,0.0038
1654.00,0.0040
1653.00,0.0041
1652.00,0.0043
1651.00,0.0043
1650.00,0.0044
1649.00,0.0045
1648.00,0.0047
1647.00,0.0049
1646.00,0.0050
1645.00,0.0050
1644.00,0.0051
1643.00,0.0051
1642.00,0.0052
1641.00,0.0053
1640.00,0.0054
1639.00,0.0055
1638.00,0.0055
1637.00,0.0056
1636.00,0.0056
1635.00,0.0055
1634.00,0.0053
1633.00,0.0053
1632.00,0.0052
1631.00,0.0051
1630.00,0.0051
1629.00,0.0050
1628.00,0.0049
1627.00,0.0048
1626.00,0.0047
1625.00,0.0047
1624.00,0.0046
1623.00,0.0045
1622.00,0.0045
1621.00,0.0045
1620.00,0.0044
1619.00,0.0044
1618.00,0.0043
1617.00,0.0043
1616.00,0.0043
1615.00,0.0044
1614.00,0.0044
1613.00,0.0045
1612.00,0.0045
1611.00,0.0045
1610.00,0.0045
1609.00,0.0045
1608.00,0.0044
1607.00,0.0044
1606.00,0.0043
1605.00,0.0043
1604.00,0.0044
1603.00,0.0044
1602.00,0.0044
1601.00,0.0044
1600.00,0.0043
1599.00,0.0043
1598.00,0.0042
1597.00,0.0042
1596.00,0.0043
1595.00,0.0043
1594.00,0.0043
1593.00,0.0043
1592.00,0.0043
1591.00,0.0043
1590.00,0.0043
1589.00,0.0044
1588.00,0.0044
1587.00,0.0045
1586.00,0.0046
1585.00,0.0047
1584.00,0.0049
1583.00,0.0050
1582.00,0.0052
1581.00,0.0053
1580.00,0.0055
1579.00,0.0056
1578.00,0.0056
1577.00,0.0057
1576.00,0.0058
1575.00,0.0058
1574.00,0.0057
1573.00,0.0057
1572.00,0.0057
1571.00,0.0056
1570.00,0.0055
1569.00,0.0055
1568.00,0.0055
1567.00,0.0054
1566.00,0.0053
1565.00,0.0053
1564.00,0.0053
1563.00,0.0053
1562.00,0.0053
1561.00,0.0052
1560.00,0.0051
1559.00,0.0051
1558.00,0.0050
1557.00,0.0051
1556.00,0.0051
1555.00,0.0052
1554.00,0.0052
1553.00,0.0053
1552.00,0.0054
1551.00,0.0054
1550.00,0.0055
1549.00,0.0056
1548.00,0.0057
1547.00,0.0057
1546.00,0.0058
1545.00,0.0060
1544.00,0.0061
1543.00,0.0062
1542.00,0.0063
1541.00,0.0063
1540.00,0.0063
1539.00,0.0061
1538.00,0.0059
1537.00,0.0058
1536.00,0.0058
1535.00,0.0056
1534.00,0.0055
1533.00,0.0053
1532.00,0.0051
1531.00,0.0050
1530.00,0.0048
1529.00,0.0048
1528.00,0.0048
1527.00,0.0047
1526.00,0.0047
1525.00,0.0047
1524.00,0.0048
1523.00,0.0048
1522.00,0.0048
1521.00,0.0048
1520.00,0.0049
1519.00,0.0049
1518.00,0.0049
1517.00,0.0050
1516.00,0.0050
1515.00,0.0050
1514.00,0.0050
1513.00,0.0051
1512.00,0.0052
1511.00,0.0053
1510.00,0.0053
1509.00,0.0054
1508.00,0.0056
1507.00,0.0056
1506.00,0.0057
1505.00,0.0058
1504.00,0.0059
1503.00,0.0060
1502.00,0.0062
1501.00,0.0064
1500.00,0.0066
1499.00,0.0068
1498.00,0.0069
1497.00,0.0072
1496.00,0.0075
1495.00,0.0078
1494.00,0.0080
1493.00,0.0083
1492.00,0.0086
1491.00,0.0089
1490.00,0.0092
1489.00,0.0097
1488.00,0.0103
1487.00,0.0107
1486.00,0.0111
1485.00,0.0118
1484.00,0.0125
1483.00,0.0132
1482.00,0.0141
1481.00,0.0152
1480.00,0.0164
1479.00,0.0176
1478.00,0.0191
1477.00,0.0211
1476.00,0.0236
1475.00,0.0264
1474.00,0.0301
1473.00,0.0355
1472.00,0.0419
1471.00,0.0482
1470.00,0.0543
1469.00,0.0607
1468.00,0.0676
1467.00,0.0752
1466.00,0.0839
1465.00,0.0934
1464.00,0.1017
1463.00,0.1076
1462.00,0.1113
1461.00,0.1138
1460.00,0.1155
1459.00,0.1168
1458.00,0.1182
1457.00,0.1196
1456.00,0.1201
1455.00,0.1198
1454.00,0.1189
1453.00,0.1176
1452.00,0.1154
1451.00,0.1121
1450.00,0.1073
1449.00,0.1003
1448.00,0.0911
1447.00,0.0812
1446.00,0.0721
1445.00,0.0641
1444.00,0.0572
1443.00,0.0516
1442.00,0.0474
1441.00,0.0445
1440.00,0.0427
1439.00,0.0420
1438.00,0.0421
1437.00,0.0423
1436.00,0.0415
1435.00,0.0391
1434.00,0.0355
1433.00,0.0312
1432.00,0.0266
1431.00,0.0227
1430.00,0.0196
1429.00,0.0174
1428.00,0.0159
1427.00,0.0149
1426.00,0.0143
1425.00,0.0137
1424.00,0.0131
1423.00,0.0129
1422.00,0.0127
1421.00,0.0125
1420.00,0.0122
1419.00,0.0119
1418.00,0.0117
1417.00,0.0114
1416.00,0.0111
1415.00,0.0110
1414.00,0.0109
1413.00,0.0108
1412.00,0.0107
1411.00,0.0106
1410.00,0.0105
1409.00,0.0105
1408.00,0.0104
1407.00,0.0105
1406.00,0.0106
1405.00,0.0106
1404.00,0.0105
1403.00,0.0105
1402.00,0.0107
1401.00,0.0107
1400.00,0.0108
1399.00,0.0110
1398.00,0.0112
1397.00,0.0114
1396.00,0.0116
1395.00,0.0120
1394.00,0.0125
1393.00,0.0130
1392.00,0.0135
1391.00,0.0143
1390.00,0.0154
1389.00,0.0168
1388.00,0.0188
1387.00,0.0219
1386.00,0.0261
1385.00,0.0317
1384.00,0.0394
1383.00,0.0502
1382.00,0.0648
1381.00,0.0836
1380.00,0.1071
1379.00,0.1342
1378.00,0.1609
1377.00,0.1809
1376.00,0.1881
1375.00,0.1792
1374.00,0.1568
1373.00,0.1293
1372.00,0.1040
1371.00,0.0830
1370.00,0.0662
1369.00,0.0536
1368.00,0.0449
1367.00,0.0396
1366.00,0.0368
1365.00,0.0358
1364.00,0.0362
1363.00,0.0377
1362.00,0.0400
1361.00,0.0425
1360.00,0.0443
1359.00,0.0449
1358.00,0.0438
1357.00,0.0412
1356.00,0.0374
1355.00,0.0332
1354.00,0.0292
1353.00,0.0258
1352.00,0.0230
1351.00,0.0207
1350.00,0.0188
1349.00,0.0173
1348.00,0.0161
1347.00,0.0151
1346.00,0.0142
1345.00,0.0135
1344.00,0.0128
1343.00,0.0124
1342.00,0.0120
1341.00,0.0116
1340.00,0.0114
1339.00,0.0112
1338.00,0.0111
1337.00,0.0111
1336.00,0.0112
1335.00,0.0113
1334.00,0.0117
1333.00,0.0121
1332.00,0.0126
1331.00,0.0130
1330.00,0.0132
1329.00,0.0131
1328.00,0.0128
1327.00,0.0123
1326.00,0.0118
1325.00,0.0112
1324.00,0.0106
1323.00,0.0101
1322.00,0.0096
1321.00,0.0093
1320.00,0.0090
1319.00,0.0089
1318.00,0.0087
1317.00,0.0085
1316.00,0.0083
1315.00,0.0082
1314.00,0.0081
1313.00,0.0082
1312.00,0.0084
1311.00,0.0087
1310.00,0.0092
1309.00,0.0099
1308.00,0.0109
1307.00,0.0122
1306.00,0.0134
1305.00,0.0143
1304.00,0.0145
1303.00,0.0141
1302.00,0.0135
1301.00,0.0129
1300.00,0.0126
1299.00,0.0124
1298.00,0.0123
1297.00,0.0123
1296.00,0.0122
1295.00,0.0120
1294.00,0.0117
1293.00,0.0112
1292.00,0.0107
1291.00,0.0102
1290.00,0.0097
1289.00,0.0093
1288.00,0.0089
1287.00,0.0086
1286.00,0.0084
1285.00,0.0082
1284.00,0.0080
1283.00,0.0079
1282.00,0.0078
1281.00,0.0077
1280.00,0.0076
1279.00,0.0076
1278.00,0.0076
1277.00,0.0075
1276.00,0.0075
1275.00,0.0075
1274.00,0.0075
1273.00,0.0075
1272.00,0.0076
1271.00,0.0077
1270.00,0.0078
1269.00,0.0079
1268.00,0.0081
1267.00,0.0083
1266.00,0.0086
1265.00,0.0089
1264.00,0.0092
1263.00,0.0095
1262.00,0.0099
1261.00,0.0104
1260.00,0.0110
1259.00,0.0117
1258.00,0.0125
1257.00,0.0131
1256.00,0.0134
1255.00,0.0132
1254.00,0.0125
1253.00,0.0116
1252.00,0.0106
1251.00,0.0098
1250.00,0.0092
1249.00,0.0088
1248.00,0.0085
1247.00,0.0082
1246.00,0.0080
1245.00,0.0078
1244.00,0.0077
1243.00,0.0075
1242.00,0.0075
1241.00,0.0074
1240.00,0.0074
1239.00,0.0073
1238.00,0.0072
1237.00,0.0072
1236.00,0.0071
1235.00,0.0072
1234.00,0.0072
1233.00,0.0073
1232.00,0.0073
1231.00,0.0074
1230.00,0.0074
1229.00,0.0075
1228.00,0.0077
1227.00,0.0079
1226.00,0.0081
1225.00,0.0084
1224.00,0.0087
1223.00,0.0091
1222.00,0.0094
1221.00,0.0097
1220.00,0.0099
1219.00,0.0100
1218.00,0.0099
1217.00,0.0097
1216.00,0.0094
1215.00,0.0091
1214.00,0.0088
1213.00,0.0085
1212.00,0.0083
1211.00,0.0082
1210.00,0.0080
1209.00,0.0078
1208.00,0.0077
1207.00,0.0075
1206.00,0.0074
1205.00,0.0073
1204.00,0.0073
1203.00,0.0073
1202.00,0.0073
1201.00,0.0073
1200.00,0.0073
1199.00,0.0073
1198.00,0.0074
1197.00,0.0074
1196.00,0.0075
1195.00,0.0075
1194.00,0.0075
1193.00,0.0074
1192.00,0.0074
1191.00,0.0073
1190.00,0.0073
1189.00,0.0073
1188.00,0.0073
1187.00,0.0074
1186.00,0.0075
1185.00,0.0076
1184.00,0.0078
1183.00,0.0080
1182.00,0.0082
1181.00,0.0085
1180.00,0.0089
1179.00,0.0093
1178.00,0.0100
1177.00,0.0108
1176.00,0.0121
1175.00,0.0137
1174.00,0.0158
1173.00,0.0185
1172.00,0.0218
1171.00,0.0254
1170.00,0.0291
1169.00,0.0320
1168.00,0.0337
1167.00,0.0340
1166.00,0.0330
1165.00,0.0311
1164.00,0.0289
1163.00,0.0267
1162.00,0.0248
1161.00,0.0232
1160.00,0.0221
1159.00,0.0213
1158.00,0.0207
1157.00,0.0202
1156.00,0.0199
1155.00,0.0197
1154.00,0.0195
1153.00,0.0192
1152.00,0.0188
1151.00,0.0181
1150.00,0.0171
1149.00,0.0160
1148.00,0.0150
1147.00,0.0140
1146.00,0.0132
1145.00,0.0125
1144.00,0.0118
1143.00,0.0111
1142.00,0.0104
1141.00,0.0099
1140.00,0.0094
1139.00,0.0090
1138.00,0.0087
1137.00,0.0085
1136.00,0.0083
1135.00,0.0080
1134.00,0.0078
1133.00,0.0076
1132.00,0.0074
1131.00,0.0073
1130.00,0.0073
1129.00,0.0073
1128.00,0.0074
1127.00,0.0076
1126.00,0.0077
1125.00,0.0077
1124.00,0.0077
1123.00,0.0077
1122.00,0.0077
1121.00,0.0077
1120.00,0.0076
1119.00,0.0076
1118.00,0.0077
1117.00,0.0078
1116.00,0.0080
1115.00,0.0082
1114.00,0.0084
1113.00,0.0086
1112.00,0.0089
1111.00,0.0091
1110.00,0.0093
1109.00,0.0097
1108.00,0.0102
1107.00,0.0108
1106.00,0.0114
1105.00,0.0121
1104.00,0.0126
1103.00,0.0129
1102.00,0.0129
1101.00,0.0125
1100.00,0.0119
1099.00,0.0113
1098.00,0.0106
1097.00,0.0100
1096.00,0.0095
1095.00,0.0092
1094.00,0.0090
1093.00,0.0089
1092.00,0.0088
1091.00,0.0086
1090.00,0.0084
1089.00,0.0082
1088.00,0.0080
1087.00,0.0079
1086.00,0.0079
1085.00,0.0079
1084.00,0.0079
1083.00,0.0079
1082.00,0.0079
1081.00,0.0078
1080.00,0.0078
1079.00,0.0076
1078.00,0.0075
1077.00,0.0074
1076.00,0.0073
1075.00,0.0073
1074.00,0.0073
1073.00,0.0074
1072.00,0.0074
1071.00,0.0075
1070.00,0.0076
1069.00,0.0076
1068.00,0.0075
1067.00,0.0075
1066.00,0.0076
1065.00,0.0077
1064.00,0.0078
1063.00,0.0079
1062.00,0.0080
1061.00,0.0081
1060.00,0.0081
1059.00,0.0082
1058.00,0.0083
1057.00,0.0085
1056.00,0.0088
1055.00,0.0090
1054.00,0.0094
1053.00,0.0097
1052.00,0.0101
1051.00,0.0104
1050.00,0.0109
1049.00,0.0113
1048.00,0.0119
1047.00,0.0125
1046.00,0.0130
1045.00,0.0133
1044.00,0.0134
1043.00,0.0133
1042.00,0.0131
1041.00,0.0128
1040.00,0.0126
1039.00,0.0125
1038.00,0.0124
1037.00,0.0122
1036.00,0.0121
1035.00,0.0120
1034.00,0.0119
1033.00,0.0118
1032.00,0.0117
1031.00,0.0116
1030.00,0.0116
1029.00,0.0116
1028.00,0.0117
1027.00,0.0119
1026.00,0.0121
1025.00,0.0124
1024.00,0.0127
1023.00,0.0130
1022.00,0.0132
1021.00,0.0135
1020.00,0.0137
1019.00,0.0139
1018.00,0.0140
1017.00,0.0141
1016.00,0.0141
1015.00,0.0141
1014.00,0.0142
1013.00,0.0142
1012.00,0.0142
1011.00,0.0141
1010.00,0.0141
1009.00,0.0142
1008.00,0.0144
1007.00,0.0149
1006.00,0.0157
1005.00,0.0169
1004.00,0.0187
1003.00,0.0213
1002.00,0.0247
1001.00,0.0289
1000.00,0.0334
999.00,0.0373
998.00,0.0392
997.00,0.0385
996.00,0.0354
995.00,0.0309
994.00,0.0262
993.00,0.0221
992.00,0.0189
991.00,0.0166
990.00,0.0150
989.00,0.0138
988.00,0.0131
987.00,0.0126
986.00,0.0124
985.00,0.0125
984.00,0.0128
983.00,0.0135
982.00,0.0146
981.00,0.0161
980.00,0.0182
979.00,0.0211
978.00,0.0249
977.00,0.0294
976.00,0.0344
975.00,0.0392
974.00,0.0429
973.00,0.0445
972.00,0.0432
971.00,0.0391
970.00,0.0335
969.00,0.0276
968.00,0.0224
967.00,0.0185
966.00,0.0157
965.00,0.0137
964.00,0.0123
963.00,0.0114
962.00,0.0107
961.00,0.0101
960.00,0.0096
959.00,0.0092
958.00,0.0089
957.00,0.0086
956.00,0.0083
955.00,0.0081
954.00,0.0080
953.00,0.0079
952.00,0.0078
951.00,0.0077
950.00,0.0076
949.00,0.0076
948.00,0.0076
947.00,0.0077
946.00,0.0078
945.00,0.0081
944.00,0.0084
943.00,0.0088
942.00,0.0091
941.00,0.0093
940.00,0.0094
939.00,0.0092
938.00,0.0088
937.00,0.0082
936.00,0.0076
935.00,0.0070
934.00,0.0065
933.00,0.0062
932.00,0.0061
931.00,0.0060
930.00,0.0059
929.00,0.0058
928.00,0.0057
927.00,0.0057
926.00,0.0058
925.00,0.0059
924.00,0.0060
923.00,0.0060
922.00,0.0059
921.00,0.0058
920.00,0.0058
919.00,0.0057
918.00,0.0057
917.00,0.0057
916.00,0.0057
915.00,0.0058
914.00,0.0060
913.00,0.0063
912.00,0.0066
911.00,0.0068
910.00,0.0070
909.00,0.0072
908.00,0.0075
907.00,0.0080
906.00,0.0087
905.00,0.0096
904.00,0.0110
903.00,0.0127
902.00,0.0146
901.00,0.0164
900.00,0.0175
899.00,0.0177
898.00,0.0168
897.00,0.0152
896.00,0.0132
895.00,0.0114
894.00,0.0101
893.00,0.0092
892.00,0.0086
891.00,0.0081
890.00,0.0077
889.00,0.0075
888.00,0.0073
887.00,0.0071
886.00,0.0070
885.00,0.0068
884.00,0.0067
883.00,0.0067
882.00,0.0068
881.00,0.0069
880.00,0.0070
879.00,0.0070
878.00,0.0070
877.00,0.0070
876.00,0.0069
875.00,0.0070
874.00,0.0071
873.00,0.0073
872.00,0.0074
871.00,0.0074
870.00,0.0074
869.00,0.0074
868.00,0.0074
867.00,0.0074
866.00,0.0075
865.00,0.0075
864.00,0.0075
863.00,0.0076
862.00,0.0077
861.00,0.0079
860.00,0.0082
859.00,0.0083
858.00,0.0083
857.00,0.0084
856.00,0.0085
855.00,0.0087
854.00,0.0090
853.00,0.0092
852.00,0.0095
851.00,0.0100
850.00,0.0105
849.00,0.0112
848.00,0.0121
847.00,0.0135
846.00,0.0156
845.00,0.0192
844.00,0.0244
843.00,0.0306
842.00,0.0359
841.00,0.0380
840.00,0.0357
839.00,0.0302
838.00,0.0240
837.00,0.0190
836.00,0.0158
835.00,0.0138
834.00,0.0127
833.00,0.0119
832.00,0.0114
831.00,0.0111
830.00,0.0108
829.00,0.0105
828.00,0.0103
827.00,0.0100
826.00,0.0098
825.00,0.0097
824.00,0.0098
823.00,0.0099
822.00,0.0101
821.00,0.0102
820.00,0.0103
819.00,0.0106
818.00,0.0110
817.00,0.0116
816.00,0.0125
815.00,0.0136
814.00,0.0151
813.00,0.0169
812.00,0.0189
811.00,0.0209
810.00,0.0224
809.00,0.0231
808.00,0.0225
807.00,0.0210
806.00,0.0190
805.00,0.0170
804.00,0.0154
803.00,0.0142
802.00,0.0132
801.00,0.0125
800.00,0.0119
799.00,0.0113
798.00,0.0109
797.00,0.0104
796.00,0.0100
795.00,0.0096
794.00,0.0093
793.00,0.0090
792.00,0.0087
791.00,0.0083
790.00,0.0080
789.00,0.0077
788.00,0.0074
787.00,0.0073
786.00,0.0071
785.00,0.0070
784.00,0.0069
783.00,0.0067
782.00,0.0066
781.00,0.0065
780.00,0.0063
779.00,0.0061
778.00,0.0059
777.00,0.0058
776.00,0.0058
775.00,0.0059
774.00,0.0061
773.00,0.0062
772.00,0.0062
771.00,0.0062
770.00,0.0062
769.00,0.0062
768.00,0.0062
767.00,0.0061
766.00,0.0061
765.00,0.0060
764.00,0.0061
763.00,0.0061
762.00,0.0062
761.00,0.0062
760.00,0.0061
759.00,0.0061
758.00,0.0061
757.00,0.0063
756.00,0.0065
755.00,0.0068
754.00,0.0070
753.00,0.0071
752.00,0.0072
751.00,0.0073
750.00,0.0075
749.00,0.0076
748.00,0.0077
747.00,0.0078
746.00,0.0078
745.00,0.0080
744.00,0.0081
743.00,0.0082
742.00,0.0084
741.00,0.0086
740.00,0.0088
739.00,0.0091
738.00,0.0093
737.00,0.0095
736.00,0.0098
735.00,0.0101
734.00,0.0105
733.00,0.0110
732.00,0.0116
731.00,0.0123
730.00,0.0127
729.00,0.0130
728.00,0.0131
727.00,0.0132
726.00,0.0132
725.00,0.0134
724.00,0.0137
723.00,0.0142
722.00,0.0146
721.00,0.0149
720.00,0.0149
719.00,0.0143
718.00,0.0134
717.00,0.0125
716.00,0.0118
715.00,0.0114
714.00,0.0110
713.00,0.0107
712.00,0.0105
711.00,0.0104
710.00,0.0102
709.00,0.0100
708.00,0.0099
707.00,0.0098
706.00,0.0098
705.00,0.0096
704.00,0.0093
703.00,0.0089
702.00,0.0086
701.00,0.0086
700.00,0.0087
699.00,0.0089
698.00,0.0090
697.00,0.0090
696.00,0.0090
695.00,0.0089
694.00,0.0089
693.00,0.0090
692.00,0.0091
691.00,0.0092
690.00,0.0093
689.00,0.0095
688.00,0.0096
687.00,0.0097
686.00,0.0098
685.00,0.0097
684.00,0.0096
683.00,0.0093
682.00,0.0091
681.00,0.0090
680.00,0.0089
679.00,0.0089
678.00,0.0090
677.00,0.0092
676.00,0.0095
675.00,0.0098
674.00,0.0100
673.00,0.0102
672.00,0.0104
671.00,0.0106
670.00,0.0109
669.00,0.0109
668.00,0.0107
667.00,0.0103
666.00,0.0098
665.00,0.0096
664.00,0.0094
663.00,0.0093
662.00,0.0093
661.00,0.0093
660.00,0.0092
659.00,0.0091
658.00,0.0090
657.00,0.0088
656.00,0.0084
655.00,0.0081
654.00,0.0080
653.00,0.0080
652.00,0.0081
651.00,0.0082
650.00,0.0083
649.00,0.0083
648.00,0.0083
647.00,0.0083
646.00,0.0081
645.00,0.0080
644.00,0.0078
643.00,0.0078
642.00,0.0078
641.00,0.0079
640.00,0.0079
639.00,0.0080
638.00,0.0081
637.00,0.0082
636.00,0.0082
635.00,0.0081
634.00,0.0080
633.00,0.0078
632.00,0.0077
631.00,0.0078
630.00,0.0080
629.00,0.0082
628.00,0.0084
627.00,0.0084
626.00,0.0081
625.00,0.0077
624.00,0.0074
623.00,0.0073
622.00,0.0073
621.00,0.0074
620.00,0.0075
619.00,0.0077
618.00,0.0080
617.00,0.0083
616.00,0.0085
615.00,0.0085
614.00,0.0085
613.00,0.0084
612.00,0.0083
611.00,0.0083
610.00,0.0083
609.00,0.0083
608.00,0.0081
607.00,0.0079
606.00,0.0077
605.00,0.0076
604.00,0.0076
603.00,0.0076
602.00,0.0076
601.00,0.0075
600.00,0.0074
599.00,0.0074
598.00,0.0074
597.00,0.0075
596.00,0.0077
595.00,0.0081
594.00,0.0084
593.00,0.0086
592.00,0.0086
591.00,0.0083
590.00,0.0081
589.00,0.0080
588.00,0.0081
587.00,0.0083
586.00,0.0085
585.00,0.0086
584.00,0.0086
583.00,0.0085
582.00,0.0084
581.00,0.0083
580.00,0.0082
579.00,0.0082
578.00,0.0084
577.00,0.0087
576.00,0.0087
575.00,0.0086
574.00,0.0082
573.00,0.0080
572.00,0.0077
571.00,0.0076
570.00,0.0076
569.00,0.0080
568.00,0.0084
567.00,0.0087
566.00,0.0088
565.00,0.0088
564.00,0.0087
563.00,0.0087
562.00,0.0085
561.00,0.0082
560.00,0.0080
559.00,0.0080
558.00,0.0080
557.00,0.0081
556.00,0.0081
555.00,0.0080
554.00,0.0080
553.00,0.0079
552.00,0.0079
551.00,0.0078
550.00,0.0078
549.00,0.0078
548.00,0.0079
547.00,0.0080
546.00,0.0082
545.00,0.0084
544.00,0.0086
543.00,0.0089
542.00,0.0093
541.00,0.0096
540.00,0.0097
539.00,0.0094
538.00,0.0093
537.00,0.0096
536.00,0.0101
535.00,0.0107
534.00,0.0109
533.00,0.0109
532.00,0.0110
531.00,0.0112
530.00,0.0114
529.00,0.0114
528.00,0.0112
527.00,0.0108
526.00,0.0104
525.00,0.0100
524.00,0.0097
523.00,0.0095
522.00,0.0094
521.00,0.0094
520.00,0.0092
519.00,0.0088
518.00,0.0083
517.00,0.0080
516.00,0.0084
515.00,0.0092
514.00,0.0099
513.00,0.0101
512.00,0.0098
511.00,0.0092
510.00,0.0087
509.00,0.0085
508.00,0.0087
507.00,0.0091
506.00,0.0094
505.00,0.0095
504.00,0.0095
503.00,0.0094
502.00,0.0096
501.00,0.0097
500.00,0.0096
499.00,0.0092
498.00,0.0089
497.00,0.0088
496.00,0.0089
495.00,0.0087
494.00,0.0084
493.00,0.0081
492.00,0.0082
491.00,0.0086
490.00,0.0089
489.00,0.0086
488.00,0.0079
487.00,0.0072
486.00,0.0069
485.00,0.0072
484.00,0.0078
483.00,0.0085
482.00,0.0092
481.00,0.0097
480.00,0.0099
479.00,0.0099
478.00,0.0100
477.00,0.0105
476.00,0.0116
475.00,0.0128
474.00,0.0137
473.00,0.0140
472.00,0.0136
471.00,0.0132
470.00,0.0131
469.00,0.0134
468.00,0.0139
467.00,0.0144
466.00,0.0148
465.00,0.0154
464.00,0.0165
463.00,0.0183
462.00,0.0204
461.00,0.0220
460.00,0.0226
459.00,0.0224
458.00,0.0215
457.00,0.0202
456.00,0.0189
455.00,0.0180
454.00,0.0174
453.00,0.0171
452.00,0.0165
451.00,0.0154
450.00,0.0143
