Created as New Dataset,Sample 055 By Administrator Date Thursday, September 04 2025
cm-1,A
4000.00,0.0011
3999.00,0.0010
3998.00,0.0010
3997.00,0.0010
3996.00,0.0010
3995.00,0.0010
3994.00,0.0010
3993.00,0.0010
3992.00,0.0010
3991.00,0.0010
3990.00,0.0009
3989.00,0.0009
3988.00,0.0009
3987.00,0.0010
3986.00,0.0010
3985.00,0.0010
3984.00,0.0010
3983.00,0.0009
3982.00,0.0009
3981.00,0.0008
3980.00,0.0008
3979.00,0.0008
3978.00,0.0007
3977.00,0.0007
3976.00,0.0007
3975.00,0.0007
3974.00,0.0007
3973.00,0.0007
3972.00,0.0007
3971.00,0.0007
3970.00,0.0007
3969.00,0.0008
3968.00,0.0008
3967.00,0.0008
3966.00,0.0008
3965.00,0.0008
3964.00,0.0008
3963.00,0.0008
3962.00,0.0008
3961.00,0.0008
3960.00,0.0008
3959.00,0.0008
3958.00,0.0008
3957.00,0.0008
3956.00,0.0008
3955.00,0.0008
3954.00,0.0008
3953.00,0.0008
3952.00,0.0007
3951.00,0.0007
3950.00,0.0007
3949.00,0.0008
3948.00,0.0008
3947.00,0.0008
3946.00,0.0009
3945.00,0.0009
3944.00,0.0008
3943.00,0.0008
3942.00,0.0009
3941.00,0.0009
3940.00,0.0009
3939.00,0.0009
3938.00,0.0009
3937.00,0.0009
3936.00,0.0009
3935.00,0.0009
3934.00,0.0008
3933.00,0.0008
3932.00,0.0008
3931.00,0.0008
3930.00,0.0008
3929.00,0.0008
3928.00,0.0009
3927.00,0.0008
3926.00,0.0008
3925.00,0.0009
3924.00,0.0009
3923.00,0.0009
3922.00,0.0009
3921.00,0.0009
3920.00,0.0009
3919.00,0.0009
3918.00,0.0009
3917.00,0.0008
3916.00,0.0008
3915.00,0.0008
3914.00,0.0008
3913.00,0.0008
3912.00,0.0008
3911.00,0.0008
3910.00,0.0008
3909.00,0.0009
3908.00,0.0009
3907.00,0.0009
3906.00,0.0009
3905.00,0.0008
3904.00,0.0008
3903.00,0.0009
3902.00,0.0009
3901.00,0.0009
3900.00,0.0009
3899.00,0.0009
3898.00,0.0009
3897.00,0.0009
3896.00,0.0009
3895.00,0.0009
3894.00,0.0009
3893.00,0.0009
3892.00,0.0009
3891.00,0.0009
3890.00,0.0009
3889.00,0.0009
3888.00,0.0009
3887.00,0.0009
3886.00,0.0008
3885.00,0.0008
3884.00,0.0008
3883.00,0.0008
3882.00,0.0008
3881.00,0.0008
3880.00,0.0008
3879.00,0.0008
3878.00,0.0008
3877.00,0.0008
3876.00,0.0008
3875.00,0.0008
3874.00,0.0009
3873.00,0.0009
3872.00,0.0009
3871.00,0.0009
3870.00,0.0009
3869.00,0.0009
3868.00,0.0008
3867.00,0.0008
3866.00,0.0008
3865.00,0.0008
3864.00,0.0008
3863.00,0.0008
3862.00,0.0009
3861.00,0.0009
3860.00,0.0008
3859.00,0.0008
3858.00,0.0008
3857.00,0.0007
3856.00,0.0006
3855.00,0.0006
3854.00,0.0006
3853.00,0.0006
3852.00,0.0007
3851.00,0.0007
3850.00,0.0008
3849.00,0.0008
3848.00,0.0008
3847.00,0.0008
3846.00,0.0008
3845.00,0.0008
3844.00,0.0008
3843.00,0.0008
3842.00,0.0007
3841.00,0.0007
3840.00,0.0007
3839.00,0.0007
3838.00,0.0008
3837.00,0.0008
3836.00,0.0009
3835.00,0.0009
3834.00,0.0009
3833.00,0.0009
3832.00,0.0009
3831.00,0.0009
3830.00,0.0008
3829.00,0.0008
3828.00,0.0008
3827.00,0.0008
3826.00,0.0008
3825.00,0.0009
3824.00,0.0009
3823.00,0.0009
3822.00,0.0009
3821.00,0.0008
3820.00,0.0009
3819.00,0.0009
3818.00,0.0008
3817.00,0.0008
3816.00,0.0008
3815.00,0.0007
3814.00,0.0007
3813.00,0.0008
3812.00,0.0008
3811.00,0.0008
3810.00,0.0008
3809.00,0.0008
3808.00,0.0008
3807.00,0.0007
3806.00,0.0007
3805.00,0.0008
3804.00,0.0008
3803.00,0.0008
3802.00,0.0008
3801.00,0.0008
3800.00,0.0008
3799.00,0.0007
3798.00,0.0007
3797.00,0.0008
3796.00,0.0008
3795.00,0.0008
3794.00,0.0008
3793.00,0.0008
3792.00,0.0007
3791.00,0.0007
3790.00,0.0007
3789.00,0.0007
3788.00,0.0007
3787.00,0.0007
3786.00,0.0007
3785.00,0.0007
3784.00,0.0008
3783.00,0.0008
3782.00,0.0008
3781.00,0.0008
3780.00,0.0007
3779.00,0.0007
3778.00,0.0007
3777.00,0.0007
3776.00,0.0007
3775.00,0.0008
3774.00,0.0008
3773.00,0.0009
3772.00,0.0009
3771.00,0.0010
3770.00,0.0010
3769.00,0.0010
3768.00,0.0010
3767.00,0.0009
3766.00,0.0009
3765.00,0.0009
3764.00,0.0009
3763.00,0.0009
3762.00,0.0009
3761.00,0.0009
3760.00,0.0009
3759.00,0.0009
3758.00,0.0009
3757.00,0.0008
3756.00,0.0008
3755.00,0.0008
3754.00,0.0008
3753.00,0.0008
3752.00,0.0008
3751.00,0.0008
3750.00,0.0008
3749.00,0.0009
3748.00,0.0009
3747.00,0.0009
3746.00,0.0010
3745.00,0.0010
3744.00,0.0010
3743.00,0.0010
3742.00,0.0010
3741.00,0.0009
3740.00,0.0009
3739.00,0.0009
3738.00,0.0009
3737.00,0.0008
3736.00,0.0008
3735.00,0.0008
3734.00,0.0008
3733.00,0.0008
3732.00,0.0007
3731.00,0.0007
3730.00,0.0007
3729.00,0.0007
3728.00,0.0007
3727.00,0.0006
3726.00,0.0006
3725.00,0.0006
3724.00,0.0006
3723.00,0.0006
3722.00,0.0006
3721.00,0.0006
3720.00,0.0006
3719.00,0.0006
3718.00,0.0007
3717.00,0.0007
3716.00,0.0007
3715.00,0.0007
3714.00,0.0007
3713.00,0.0008
3712.00,0.0008
3711.00,0.0008
3710.00,0.0008
3709.00,0.0007
3708.00,0.0007
3707.00,0.0007
3706.00,0.0007
3705.00,0.0006
3704.00,0.0006
3703.00,0.0006
3702.00,0.0006
3701.00,0.0006
3700.00,0.0007
3699.00,0.0007
3698.00,0.0007
3697.00,0.0007
3696.00,0.0007
3695.00,0.0007
3694.00,0.0007
3693.00,0.0008
3692.00,0.0008
3691.00,0.0008
3690.00,0.0008
3689.00,0.0008
3688.00,0.0008
3687.00,0.0009
3686.00,0.0009
3685.00,0.0009
3684.00,0.0009
3683.00,0.0009
3682.00,0.0009
3681.00,0.0009
3680.00,0.0010
3679.00,0.0011
3678.00,0.0012
3677.00,0.0012
3676.00,0.0012
3675.00,0.0011
3674.00,0.0011
3673.00,0.0011
3672.00,0.0011
3671.00,0.0011
3670.00,0.0011
3669.00,0.0011
3668.00,0.0011
3667.00,0.0010
3666.00,0.0010
3665.00,0.0010
3664.00,0.0010
3663.00,0.0010
3662.00,0.0010
3661.00,0.0011
3660.00,0.0011
3659.00,0.0011
3658.00,0.0012
3657.00,0.0011
3656.00,0.0011
3655.00,0.0011
3654.00,0.0011
3653.00,0.0011
3652.00,0.0011
3651.00,0.0012
3650.00,0.0013
3649.00,0.0014
3648.00,0.0014
3647.00,0.0014
3646.00,0.0013
3645.00,0.0013
3644.00,0.0013
3643.00,0.0012
3642.00,0.0012
3641.00,0.0011
3640.00,0.0011
3639.00,0.0012
3638.00,0.0012
3637.00,0.0013
3636.00,0.0013
3635.00,0.0013
3634.00,0.0013
3633.00,0.0014
3632.00,0.0014
3631.00,0.0014
3630.00,0.0014
3629.00,0.0014
3628.00,0.0014
3627.00,0.0014
3626.00,0.0014
3625.00,0.0014
3624.00,0.0014
3623.00,0.0014
3622.00,0.0015
3621.00,0.0015
3620.00,0.0015
3619.00,0.0016
3618.00,0.0016
3617.00,0.0016
3616.00,0.0016
3615.00,0.0016
3614.00,0.0016
3613.00,0.0017
3612.00,0.0017
3611.00,0.0017
3610.00,0.0018
3609.00,0.0018
3608.00,0.0019
3607.00,0.0019
3606.00,0.0020
3605.00,0.0020
3604.00,0.0020
3603.00,0.0020
3602.00,0.0020
3601.00,0.0020
3600.00,0.0020
3599.00,0.0020
3598.00,0.0020
3597.00,0.0020
3596.00,0.0020
3595.00,0.0020
3594.00,0.0021
3593.00,0.0022
3592.00,0.0023
3591.00,0.0023
3590.00,0.0023
3589.00,0.0023
3588.00,0.0024
3587.00,0.0024
3586.00,0.0024
3585.00,0.0024
3584.00,0.0025
3583.00,0.0025
3582.00,0.0026
3581.00,0.0026
3580.00,0.0027
3579.00,0.0027
3578.00,0.0027
3577.00,0.0027
3576.00,0.0028
3575.00,0.0028
3574.00,0.0028
3573.00,0.0028
3572.00,0.0029
3571.00,0.0029
3570.00,0.0030
3569.00,0.0030
3568.00,0.0030
3567.00,0.0030
3566.00,0.0030
3565.00,0.0031
3564.00,0.0031
3563.00,0.0032
3562.00,0.0032
3561.00,0.0033
3560.00,0.0033
3559.00,0.0034
3558.00,0.0034
3557.00,0.0035
3556.00,0.0035
3555.00,0.0035
3554.00,0.0035
3553.00,0.0035
3552.00,0.0035
3551.00,0.0036
3550.00,0.0037
3549.00,0.0037
3548.00,0.0038
3547.00,0.0038
3546.00,0.0038
3545.00,0.0039
3544.00,0.0039
3543.00,0.0039
3542.00,0.0039
3541.00,0.0039
3540.00,0.0040
3539.00,0.0040
3538.00,0.0040
3537.00,0.0040
3536.00,0.0040
3535.00,0.0040
3534.00,0.0041
3533.00,0.0041
3532.00,0.0042
3531.00,0.0042
3530.00,0.0042
3529.00,0.0042
3528.00,0.0043
3527.00,0.0043
3526.00,0.0044
3525.00,0.0044
3524.00,0.0045
3523.00,0.0045
3522.00,0.0045
3521.00,0.0045
3520.00,0.0046
3519.00,0.0047
3518.00,0.0047
3517.00,0.0048
3516.00,0.0048
3515.00,0.0048
3514.00,0.0049
3513.00,0.0049
3512.00,0.0049
3511.00,0.0049
3510.00,0.0050
3509.00,0.0050
3508.00,0.0051
3507.00,0.0051
3506.00,0.0051
3505.00,0.0051
3504.00,0.0051
3503.00,0.0052
3502.00,0.0052
3501.00,0.0053
3500.00,0.0053
3499.00,0.0053
3498.00,0.0053
3497.00,0.0053
3496.00,0.0053
3495.00,0.0054
3494.00,0.0054
3493.00,0.0054
3492.00,0.0055
3491.00,0.0056
3490.00,0.0056
3489.00,0.0057
3488.00,0.0057
3487.00,0.0057
3486.00,0.0058
3485.00,0.0058
3484.00,0.0058
3483.00,0.0059
3482.00,0.0060
3481.00,0.0060
3480.00,0.0060
3479.00,0.0061
3478.00,0.0061
3477.00,0.0061
3476.00,0.0061
3475.00,0.0062
3474.00,0.0063
3473.00,0.0064
3472.00,0.0064
3471.00,0.0064
3470.00,0.0064
3469.00,0.0064
3468.00,0.0064
3467.00,0.0064
3466.00,0.0065
3465.00,0.0065
3464.00,0.0065
3463.00,0.0065
3462.00,0.0066
3461.00,0.0066
3460.00,0.0067
3459.00,0.0067
3458.00,0.0067
3457.00,0.0067
3456.00,0.0067
3455.00,0.0067
3454.00,0.0067
3453.00,0.0068
3452.00,0.0068
3451.00,0.0069
3450.00,0.0069
3449.00,0.0069
3448.00,0.0070
3447.00,0.0070
3446.00,0.0070
3445.00,0.0070
3444.00,0.0071
3443.00,0.0072
3442.00,0.0072
3441.00,0.0072
3440.00,0.0072
3439.00,0.0072
3438.00,0.0073
3437.00,0.0073
3436.00,0.0073
3435.00,0.0074
3434.00,0.0074
3433.00,0.0074
3432.00,0.0075
3431.00,0.0076
3430.00,0.0076
3429.00,0.0076
3428.00,0.0076
3427.00,0.0076
3426.00,0.0076
3425.00,0.0077
3424.00,0.0077
3423.00,0.0077
3422.00,0.0078
3421.00,0.0078
3420.00,0.0078
3419.00,0.0079
3418.00,0.0079
3417.00,0.0080
3416.00,0.0080
3415.00,0.0080
3414.00,0.0080
3413.00,0.0081
3412.00,0.0081
3411.00,0.0081
3410.00,0.0082
3409.00,0.0082
3408.00,0.0082
3407.00,0.0083
3406.00,0.0083
3405.00,0.0083
3404.00,0.0083
3403.00,0.0083
3402.00,0.0083
3401.00,0.0083
3400.00,0.0084
3399.00,0.0084
3398.00,0.0084
3397.00,0.0085
3396.00,0.0085
3395.00,0.0085
3394.00,0.0084
3393.00,0.0084
3392.00,0.0085
3391.00,0.0085
3390.00,0.0085
3389.00,0.0086
3388.00,0.0086
3387.00,0.0085
3386.00,0.0085
3385.00,0.0085
3384.00,0.0085
3383.00,0.0085
3382.00,0.0086
3381.00,0.0086
3380.00,0.0086
3379.00,0.0086
3378.00,0.0087
3377.00,0.0087
3376.00,0.0087
3375.00,0.0088
3374.00,0.0088
3373.00,0.0088
3372.00,0.0088
3371.00,0.0088
3370.00,0.0088
3369.00,0.0088
3368.00,0.0088
3367.00,0.0088
3366.00,0.0088
3365.00,0.0088
3364.00,0.0088
3363.00,0.0089
3362.00,0.0089
3361.00,0.0089
3360.00,0.0089
3359.00,0.0089
3358.00,0.0089
3357.00,0.0088
3356.00,0.0088
3355.00,0.0088
3354.00,0.0088
3353.00,0.0088
3352.00,0.0088
3351.00,0.0088
3350.00,0.0089
3349.00,0.0089
3348.00,0.0089
3347.00,0.0090
3346.00,0.0090
3345.00,0.0090
3344.00,0.0090
3343.00,0.0090
3342.00,0.0090
3341.00,0.0089
3340.00,0.0089
3339.00,0.0089
3338.00,0.0089
3337.00,0.0089
3336.00,0.0089
3335.00,0.0089
3334.00,0.0089
3333.00,0.0089
3332.00,0.0089
3331.00,0.0089
3330.00,0.0089
3329.00,0.0089
3328.00,0.0088
3327.00,0.0088
3326.00,0.0088
3325.00,0.0087
3324.00,0.0087
3323.00,0.0087
3322.00,0.0087
3321.00,0.0087
3320.00,0.0087
3319.00,0.0088
3318.00,0.0088
3317.00,0.0087
3316.00,0.0087
3315.00,0.0087
3314.00,0.0087
3313.00,0.0087
3312.00,0.0087
3311.00,0.0087
3310.00,0.0088
3309.00,0.0088
3308.00,0.0088
3307.00,0.0088
3306.00,0.0088
3305.00,0.0088
3304.00,0.0088
3303.00,0.0088
3302.00,0.0088
3301.00,0.0088
3300.00,0.0088
3299.00,0.0087
3298.00,0.0087
3297.00,0.0086
3296.00,0.0086
3295.00,0.0085
3294.00,0.0085
3293.00,0.0085
3292.00,0.0084
3291.00,0.0084
3290.00,0.0084
3289.00,0.0083
3288.00,0.0083
3287.00,0.0083
3286.00,0.0083
3285.00,0.0083
3284.00,0.0082
3283.00,0.0082
3282.00,0.0081
3281.00,0.0080
3280.00,0.0080
3279.00,0.0079
3278.00,0.0079
3277.00,0.0079
3276.00,0.0079
3275.00,0.0079
3274.00,0.0079
3273.00,0.0078
3272.00,0.0078
3271.00,0.0078
3270.00,0.0078
3269.00,0.0078
3268.00,0.0077
3267.00,0.0077
3266.00,0.0076
3265.00,0.0076
3264.00,0.0076
3263.00,0.0075
3262.00,0.0075
3261.00,0.0075
3260.00,0.0075
3259.00,0.0074
3258.00,0.0074
3257.00,0.0073
3256.00,0.0073
3255.00,0.0074
3254.00,0.0073
3253.00,0.0073
3252.00,0.0072
3251.00,0.0072
3250.00,0.0071
3249.00,0.0071
3248.00,0.0071
3247.00,0.0071
3246.00,0.0071
3245.00,0.0071
3244.00,0.0070
3243.00,0.0070
3242.00,0.0070
3241.00,0.0070
3240.00,0.0069
3239.00,0.0069
3238.00,0.0069
3237.00,0.0070
3236.00,0.0070
3235.00,0.0070
3234.00,0.0070
3233.00,0.0069
3232.00,0.0070
3231.00,0.0070
3230.00,0.0070
3229.00,0.0069
3228.00,0.0069
3227.00,0.0069
3226.00,0.0069
3225.00,0.0069
3224.00,0.0069
3223.00,0.0069
3222.00,0.0069
3221.00,0.0069
3220.00,0.0070
3219.00,0.0070
3218.00,0.0070
3217.00,0.0070
3216.00,0.0070
3215.00,0.0069
3214.00,0.0069
3213.00,0.0069
3212.00,0.0070
3211.00,0.0070
3210.00,0.0070
3209.00,0.0070
3208.00,0.0070
3207.00,0.0070
3206.00,0.0071
3205.00,0.0071
3204.00,0.0071
3203.00,0.0071
3202.00,0.0071
3201.00,0.0071
3200.00,0.0070
3199.00,0.0070
3198.00,0.0070
3197.00,0.0069
3196.00,0.0069
3195.00,0.0069
3194.00,0.0069
3193.00,0.0069
3192.00,0.0068
3191.00,0.0068
3190.00,0.0068
3189.00,0.0068
3188.00,0.0068
3187.00,0.0068
3186.00,0.0068
3185.00,0.0068
3184.00,0.0068
3183.00,0.0067
3182.00,0.0067
3181.00,0.0066
3180.00,0.0066
3179.00,0.0066
3178.00,0.0065
3177.00,0.0065
3176.00,0.0065
3175.00,0.0065
3174.00,0.0065
3173.00,0.0064
3172.00,0.0064
3171.00,0.0064
3170.00,0.0063
3169.00,0.0063
3168.00,0.0063
3167.00,0.0062
3166.00,0.0062
3165.00,0.0062
3164.00,0.0061
3163.00,0.0061
3162.00,0.0061
3161.00,0.0061
3160.00,0.0060
3159.00,0.0060
3158.00,0.0060
3157.00,0.0060
3156.00,0.0060
3155.00,0.0060
3154.00,0.0059
3153.00,0.0059
3152.00,0.0059
3151.00,0.0059
3150.00,0.0059
3149.00,0.0059
3148.00,0.0059
3147.00,0.0059
3146.00,0.0059
3145.00,0.0058
3144.00,0.0058
3143.00,0.0057
3142.00,0.0057
3141.00,0.0057
3140.00,0.0057
3139.00,0.0056
3138.00,0.0056
3137.00,0.0056
3136.00,0.0055
3135.00,0.0055
3134.00,0.0055
3133.00,0.0054
3132.00,0.0054
3131.00,0.0055
3130.00,0.0055
3129.00,0.0055
3128.00,0.0054
3127.00,0.0053
3126.00,0.0052
3125.00,0.0051
3124.00,0.0051
3123.00,0.0051
3122.00,0.0051
3121.00,0.0051
3120.00,0.0051
3119.00,0.0050
3118.00,0.0050
3117.00,0.0050
3116.00,0.0049
3115.00,0.0049
3114.00,0.0048
3113.00,0.0048
3112.00,0.0048
3111.00,0.0048
3110.00,0.0048
3109.00,0.0048
3108.00,0.0048
3107.00,0.0048
3106.00,0.0047
3105.00,0.0047
3104.00,0.0047
3103.00,0.0047
3102.00,0.0046
3101.00,0.0047
3100.00,0.0047
3099.00,0.0047
3098.00,0.0047
3097.00,0.0047
3096.00,0.0046
3095.00,0.0046
3094.00,0.0046
3093.00,0.0046
3092.00,0.0045
3091.00,0.0045
3090.00,0.0045
3089.00,0.0045
3088.00,0.0045
3087.00,0.0045
3086.00,0.0045
3085.00,0.0045
3084.00,0.0045
3083.00,0.0045
3082.00,0.0044
3081.00,0.0044
3080.00,0.0044
3079.00,0.0043
3078.00,0.0043
3077.00,0.0044
3076.00,0.0044
3075.00,0.0045
3074.00,0.0045
3073.00,0.0045
3072.00,0.0045
3071.00,0.0045
3070.00,0.0045
3069.00,0.0045
3068.00,0.0045
3067.00,0.0045
3066.00,0.0045
3065.00,0.0045
3064.00,0.0045
3063.00,0.0045
3062.00,0.0045
3061.00,0.0045
3060.00,0.0045
3059.00,0.0045
3058.00,0.0045
3057.00,0.0045
3056.00,0.0045
3055.00,0.0045
3054.00,0.0046
3053.00,0.0046
3052.00,0.0046
3051.00,0.0047
3050.00,0.0047
3049.00,0.0048
3048.00,0.0048
3047.00,0.0048
3046.00,0.0048
3045.00,0.0048
3044.00,0.0048
3043.00,0.0048
3042.00,0.0048
3041.00,0.0048
3040.00,0.0049
3039.00,0.0049
3038.00,0.0050
3037.00,0.0050
3036.00,0.0050
3035.00,0.0050
3034.00,0.0050
3033.00,0.0050
3032.00,0.0050
3031.00,0.0051
3030.00,0.0051
3029.00,0.0052
3028.00,0.0053
3027.00,0.0053
3026.00,0.0054
3025.00,0.0054
3024.00,0.0055
3023.00,0.0055
3022.00,0.0055
3021.00,0.0056
3020.00,0.0057
3019.00,0.0058
3018.00,0.0059
3017.00,0.0060
3016.00,0.0061
3015.00,0.0061
3014.00,0.0062
3013.00,0.0064
3012.00,0.0065
3011.00,0.0067
3010.00,0.0069
3009.00,0.0070
3008.00,0.0072
3007.00,0.0074
3006.00,0.0076
3005.00,0.0077
3004.00,0.0079
3003.00,0.0081
3002.00,0.0084
3001.00,0.0086
3000.00,0.0089
2999.00,0.0092
2998.00,0.0096
2997.00,0.0099
2996.00,0.0102
2995.00,0.0106
2994.00,0.0110
2993.00,0.0115
2992.00,0.0120
2991.00,0.0125
2990.00,0.0131
2989.00,0.0137
2988.00,0.0145
2987.00,0.0153
2986.00,0.0162
2985.00,0.0173
2984.00,0.0185
2983.00,0.0199
2982.00,0.0213
2981.00,0.0229
2980.00,0.0247
2979.00,0.0266
2978.00,0.0287
2977.00,0.0312
2976.00,0.0341
2975.00,0.0374
2974.00,0.0412
2973.00,0.0455
2972.00,0.0503
2971.00,0.0557
2970.00,0.0616
2969.00,0.0680
2968.00,0.0749
2967.00,0.0822
2966.00,0.0898
2965.00,0.0973
2964.00,0.1044
2963.00,0.1107
2962.00,0.1161
2961.00,0.1204
2960.00,0.1238
2959.00,0.1270
2958.00,0.1304
2957.00,0.1347
2956.00,0.1404
2955.00,0.1476
2954.00,0.1562
2953.00,0.1653
2952.00,0.1737
2951.00,0.1800
2950.00,0.1829
2949.00,0.1815
2948.00,0.1758
2947.00,0.1665
2946.00,0.1551
2945.00,0.1429
2944.00,0.1315
2943.00,0.1217
2942.00,0.1142
2941.00,0.1091
2940.00,0.1063
2939.00,0.1057
2938.00,0.1069
2937.00,0.1099
2936.00,0.1143
2935.00,0.1202
2934.00,0.1274
2933.00,0.1359
2932.00,0.1456
2931.00,0.1564
2930.00,0.1680
2929.00,0.1801
2928.00,0.1926
2927.00,0.2051
2926.00,0.2176
2925.00,0.2299
2924.00,0.2422
2923.00,0.2547
2922.00,0.2674
2921.00,0.2799
2920.00,0.2913
2919.00,0.3003
2918.00,0.3052
2917.00,0.3049
2916.00,0.2991
2915.00,0.2886
2914.00,0.2750
2913.00,0.2602
2912.00,0.2459
2911.00,0.2329
2910.00,0.2215
2909.00,0.2116
2908.00,0.2029
2907.00,0.1948
2906.00,0.1871
2905.00,0.1796
2904.00,0.1723
2903.00,0.1652
2902.00,0.1582
2901.00,0.1516
2900.00,0.1452
2899.00,0.1391
2898.00,0.1335
2897.00,0.1284
2896.00,0.1237
2895.00,0.1196
2894.00,0.1162
2893.00,0.1133
2892.00,0.1111
2891.00,0.1094
2890.00,0.1082
2889.00,0.1075
2888.00,0.1071
2887.00,0.1069
2886.00,0.1071
2885.00,0.1076
2884.00,0.1085
2883.00,0.1099
2882.00,0.1116
2881.00,0.1136
2880.00,0.1156
2879.00,0.1173
2878.00,0.1183
2877.00,0.1185
2876.00,0.1181
2875.00,0.1176
2874.00,0.1173
2873.00,0.1176
2872.00,0.1186
2871.00,0.1204
2870.00,0.1225
2869.00,0.1247
2868.00,0.1263
2867.00,0.1265
2866.00,0.1248
2865.00,0.1208
2864.00,0.1150
2863.00,0.1081
2862.00,0.1012
2861.00,0.0952
2860.00,0.0905
2859.00,0.0875
2858.00,0.0859
2857.00,0.0857
2856.00,0.0865
2855.00,0.0883
2854.00,0.0907
2853.00,0.0935
2852.00,0.0963
2851.00,0.0987
2850.00,0.1001
2849.00,0.1005
2848.00,0.1001
2847.00,0.0997
2846.00,0.0998
2845.00,0.1011
2844.00,0.1035
2843.00,0.1068
2842.00,0.1105
2841.00,0.1140
2840.00,0.1163
2839.00,0.1169
2838.00,0.1152
2837.00,0.1109
2836.00,0.1042
2835.00,0.0957
2834.00,0.0861
2833.00,0.0763
2832.00,0.0672
2831.00,0.0592
2830.00,0.0524
2829.00,0.0468
2828.00,0.0422
2827.00,0.0385
2826.00,0.0354
2825.00,0.0328
2824.00,0.0306
2823.00,0.0288
2822.00,0.0272
2821.00,0.0259
2820.00,0.0247
2819.00,0.0237
2818.00,0.0228
2817.00,0.0219
2816.00,0.0212
2815.00,0.0205
2814.00,0.0199
2813.00,0.0193
2812.00,0.0187
2811.00,0.0182
2810.00,0.0176
2809.00,0.0170
2808.00,0.0164
2807.00,0.0158
2806.00,0.0152
2805.00,0.0146
2804.00,0.0140
2803.00,0.0134
2802.00,0.0129
2801.00,0.0125
2800.00,0.0121
2799.00,0.0118
2798.00,0.0115
2797.00,0.0113
2796.00,0.0110
2795.00,0.0107
2794.00,0.0105
2793.00,0.0102
2792.00,0.0100
2791.00,0.0097
2790.00,0.0095
2789.00,0.0092
2788.00,0.0089
2787.00,0.0086
2786.00,0.0083
2785.00,0.0081
2784.00,0.0079
2783.00,0.0076
2782.00,0.0074
2781.00,0.0073
2780.00,0.0071
2779.00,0.0069
2778.00,0.0068
2777.00,0.0067
2776.00,0.0066
2775.00,0.0065
2774.00,0.0064
2773.00,0.0063
2772.00,0.0062
2771.00,0.0061
2770.00,0.0060
2769.00,0.0060
2768.00,0.0060
2767.00,0.0060
2766.00,0.0060
2765.00,0.0059
2764.00,0.0059
2763.00,0.0059
2762.00,0.0058
2761.00,0.0058
2760.00,0.0057
2759.00,0.0057
2758.00,0.0057
2757.00,0.0056
2756.00,0.0056
2755.00,0.0056
2754.00,0.0056
2753.00,0.0056
2752.00,0.0056
2751.00,0.0056
2750.00,0.0055
2749.00,0.0055
2748.00,0.0055
2747.00,0.0056
2746.00,0.0056
2745.00,0.0056
2744.00,0.0057
2743.00,0.0058
2742.00,0.0059
2741.00,0.0059
2740.00,0.0061
2739.00,0.0062
2738.00,0.0063
2737.00,0.0064
2736.00,0.0066
2735.00,0.0067
2734.00,0.0068
2733.00,0.0070
2732.00,0.0071
2731.00,0.0073
2730.00,0.0075
2729.00,0.0077
2728.00,0.0080
2727.00,0.0082
2726.00,0.0084
2725.00,0.0087
2724.00,0.0088
2723.00,0.0089
2722.00,0.0088
2721.00,0.0086
2720.00,0.0083
2719.00,0.0080
2718.00,0.0077
2717.00,0.0074
2716.00,0.0072
2715.00,0.0069
2714.00,0.0067
2713.00,0.0065
2712.00,0.0063
2711.00,0.0061
2710.00,0.0059
2709.00,0.0058
2708.00,0.0056
2707.00,0.0055
2706.00,0.0054
2705.00,0.0053
2704.00,0.0052
2703.00,0.0051
2702.00,0.0050
2701.00,0.0049
2700.00,0.0048
2699.00,0.0048
2698.00,0.0047
2697.00,0.0047
2696.00,0.0047
2695.00,0.0047
2694.00,0.0047
2693.00,0.0047
2692.00,0.0047
2691.00,0.0048
2690.00,0.0048
2689.00,0.0048
2688.00,0.0048
2687.00,0.0048
2686.00,0.0048
2685.00,0.0047
2684.00,0.0047
2683.00,0.0047
2682.00,0.0047
2681.00,0.0048
2680.00,0.0048
2679.00,0.0048
2678.00,0.0048
2677.00,0.0048
2676.00,0.0048
2675.00,0.0048
2674.00,0.0047
2673.00,0.0047
2672.00,0.0047
2671.00,0.0047
2670.00,0.0047
2669.00,0.0047
2668.00,0.0047
2667.00,0.0048
2666.00,0.0048
2665.00,0.0048
2664.00,0.0049
2663.00,0.0049
2662.00,0.0050
2661.00,0.0050
2660.00,0.0050
2659.00,0.0051
2658.00,0.0051
2657.00,0.0051
2656.00,0.0050
2655.00,0.0050
2654.00,0.0049
2653.00,0.0048
2652.00,0.0048
2651.00,0.0047
2650.00,0.0047
2649.00,0.0046
2648.00,0.0046
2647.00,0.0045
2646.00,0.0045
2645.00,0.0045
2644.00,0.0044
2643.00,0.0044
2642.00,0.0043
2641.00,0.0042
2640.00,0.0042
2639.00,0.0041
2638.00,0.0041
2637.00,0.0040
2636.00,0.0040
2635.00,0.0041
2634.00,0.0041
2633.00,0.0041
2632.00,0.0041
2631.00,0.0041
2630.00,0.0041
2629.00,0.0041
2628.00,0.0041
2627.00,0.0041
2626.00,0.0041
2625.00,0.0041
2624.00,0.0042
2623.00,0.0042
2622.00,0.0042
2621.00,0.0042
2620.00,0.0042
2619.00,0.0042
2618.00,0.0042
2617.00,0.0042
2616.00,0.0041
2615.00,0.0041
2614.00,0.0041
2613.00,0.0041
2612.00,0.0041
2611.00,0.0041
2610.00,0.0040
2609.00,0.0039
2608.00,0.0037
2607.00,0.0036
2606.00,0.0035
2605.00,0.0035
2604.00,0.0034
2603.00,0.0034
2602.00,0.0034
2601.00,0.0034
2600.00,0.0034
2599.00,0.0034
2598.00,0.0034
2597.00,0.0034
2596.00,0.0034
2595.00,0.0034
2594.00,0.0034
2593.00,0.0034
2592.00,0.0034
2591.00,0.0035
2590.00,0.0036
2589.00,0.0036
2588.00,0.0037
2587.00,0.0038
2586.00,0.0039
2585.00,0.0040
2584.00,0.0041
2583.00,0.0041
2582.00,0.0041
2581.00,0.0041
2580.00,0.0041
2579.00,0.0040
2578.00,0.0039
2577.00,0.0038
2576.00,0.0036
2575.00,0.0034
2574.00,0.0032
2573.00,0.0031
2572.00,0.0030
2571.00,0.0030
2570.00,0.0029
2569.00,0.0029
2568.00,0.0028
2567.00,0.0027
2566.00,0.0026
2565.00,0.0026
2564.00,0.0025
2563.00,0.0026
2562.00,0.0026
2561.00,0.0025
2560.00,0.0025
2559.00,0.0025
2558.00,0.0025
2557.00,0.0026
2556.00,0.0025
2555.00,0.0025
2554.00,0.0024
2553.00,0.0023
2552.00,0.0022
2551.00,0.0022
2550.00,0.0021
2549.00,0.0021
2548.00,0.0021
2547.00,0.0020
2546.00,0.0020
2545.00,0.0020
2544.00,0.0019
2543.00,0.0019
2542.00,0.0019
2541.00,0.0019
2540.00,0.0019
2539.00,0.0019
2538.00,0.0019
2537.00,0.0018
2536.00,0.0018
2535.00,0.0018
2534.00,0.0019
2533.00,0.0019
2532.00,0.0018
2531.00,0.0017
2530.00,0.0017
2529.00,0.0017
2528.00,0.0017
2527.00,0.0016
2526.00,0.0016
2525.00,0.0015
2524.00,0.0015
2523.00,0.0015
2522.00,0.0015
2521.00,0.0015
2520.00,0.0014
2519.00,0.0014
2518.00,0.0014
2517.00,0.0014
2516.00,0.0015
2515.00,0.0015
2514.00,0.0014
2513.00,0.0014
2512.00,0.0013
2511.00,0.0013
2510.00,0.0012
2509.00,0.0013
2508.00,0.0013
2507.00,0.0013
2506.00,0.0013
2505.00,0.0013
2504.00,0.0013
2503.00,0.0013
2502.00,0.0012
2501.00,0.0012
2500.00,0.0012
2499.00,0.0011
2498.00,0.0011
2497.00,0.0011
2496.00,0.0011
2495.00,0.0012
2494.00,0.0012
2493.00,0.0013
2492.00,0.0013
2491.00,0.0013
2490.00,0.0013
2489.00,0.0013
2488.00,0.0013
2487.00,0.0013
2486.00,0.0013
2485.00,0.0013
2484.00,0.0013
2483.00,0.0012
2482.00,0.0012
2481.00,0.0012
2480.00,0.0012
2479.00,0.0012
2478.00,0.0011
2477.00,0.0011
2476.00,0.0011
2475.00,0.0011
2474.00,0.0011
2473.00,0.0011
2472.00,0.0011
2471.00,0.0011
2470.00,0.0011
2469.00,0.0011
2468.00,0.0011
2467.00,0.0011
2466.00,0.0011
2465.00,0.0011
2464.00,0.0011
2463.00,0.0011
2462.00,0.0011
2461.00,0.0012
2460.00,0.0012
2459.00,0.0012
2458.00,0.0012
2457.00,0.0012
2456.00,0.0012
2455.00,0.0012
2454.00,0.0012
2453.00,0.0012
2452.00,0.0013
2451.00,0.0013
2450.00,0.0013
2449.00,0.0013
2448.00,0.0013
2447.00,0.0013
2446.00,0.0014
2445.00,0.0015
2444.00,0.0015
2443.00,0.0014
2442.00,0.0014
2441.00,0.0013
2440.00,0.0013
2439.00,0.0013
2438.00,0.0013
2437.00,0.0013
2436.00,0.0013
2435.00,0.0013
2434.00,0.0013
2433.00,0.0013
2432.00,0.0012
2431.00,0.0012
2430.00,0.0011
2429.00,0.0011
2428.00,0.0011
2427.00,0.0012
2426.00,0.0012
2425.00,0.0012
2424.00,0.0012
2423.00,0.0012
2422.00,0.0012
2421.00,0.0012
2420.00,0.0012
2419.00,0.0012
2418.00,0.0011
2417.00,0.0011
2416.00,0.0011
2415.00,0.0011
2414.00,0.0011
2413.00,0.0012
2412.00,0.0012
2411.00,0.0012
2410.00,0.0012
2409.00,0.0012
2408.00,0.0011
2407.00,0.0011
2406.00,0.0010
2405.00,0.0009
2404.00,0.0009
2403.00,0.0010
2402.00,0.0010
2401.00,0.0010
2400.00,0.0010
2399.00,0.0010
2398.00,0.0010
2397.00,0.0009
2396.00,0.0009
2395.00,0.0009
2394.00,0.0009
2393.00,0.0008
2392.00,0.0008
2391.00,0.0008
2390.00,0.0008
2389.00,0.0008
2388.00,0.0008
2387.00,0.0008
2386.00,0.0008
2385.00,0.0008
2384.00,0.0007
2383.00,0.0006
2382.00,0.0006
2381.00,0.0005
2380.00,0.0005
2379.00,0.0006
2378.00,0.0006
2377.00,0.0006
2376.00,0.0006
2375.00,0.0006
2374.00,0.0006
2373.00,0.0006
2372.00,0.0006
2371.00,0.0006
2370.00,0.0005
2369.00,0.0005
2368.00,0.0005
2367.00,0.0005
2366.00,0.0006
2365.00,0.0006
2364.00,0.0006
2363.00,0.0006
2362.00,0.0006
2361.00,0.0006
2360.00,0.0007
2359.00,0.0008
2358.00,0.0009
2357.00,0.0009
2356.00,0.0008
2355.00,0.0008
2354.00,0.0006
2353.00,0.0006
2352.00,0.0006
2351.00,0.0006
2350.00,0.0007
2349.00,0.0008
2348.00,0.0008
2347.00,0.0008
2346.00,0.0008
2345.00,0.0008
2344.00,0.0008
2343.00,0.0008
2342.00,0.0008
2341.00,0.0008
2340.00,0.0009
2339.00,0.0010
2338.00,0.0011
2337.00,0.0011
2336.00,0.0011
2335.00,0.0010
2334.00,0.0010
2333.00,0.0010
2332.00,0.0010
2331.00,0.0010
2330.00,0.0010
2329.00,0.0011
2328.00,0.0012
2327.00,0.0016
2326.00,0.0020
2325.00,0.0024
2324.00,0.0026
2323.00,0.0025
2322.00,0.0023
2321.00,0.0021
2320.00,0.0019
2319.00,0.0018
2318.00,0.0018
2317.00,0.0017
2316.00,0.0016
2315.00,0.0015
2314.00,0.0014
2313.00,0.0013
2312.00,0.0012
2311.00,0.0012
2310.00,0.0013
2309.00,0.0013
2308.00,0.0012
2307.00,0.0012
2306.00,0.0011
2305.00,0.0012
2304.00,0.0012
2303.00,0.0013
2302.00,0.0014
2301.00,0.0014
2300.00,0.0015
2299.00,0.0015
2298.00,0.0015
2297.00,0.0015
2296.00,0.0016
2295.00,0.0016
2294.00,0.0016
2293.00,0.0017
2292.00,0.0017
2291.00,0.0018
2290.00,0.0019
2289.00,0.0020
2288.00,0.0021
2287.00,0.0022
2286.00,0.0023
2285.00,0.0022
2284.00,0.0021
2283.00,0.0019
2282.00,0.0018
2281.00,0.0017
2280.00,0.0016
2279.00,0.0016
2278.00,0.0016
2277.00,0.0016
2276.00,0.0016
2275.00,0.0016
2274.00,0.0017
2273.00,0.0016
2272.00,0.0016
2271.00,0.0015
2270.00,0.0013
2269.00,0.0012
2268.00,0.0010
2267.00,0.0009
2266.00,0.0009
2265.00,0.0009
2264.00,0.0010
2263.00,0.0011
2262.00,0.0012
2261.00,0.0012
2260.00,0.0013
2259.00,0.0014
2258.00,0.0015
2257.00,0.0015
2256.00,0.0014
2255.00,0.0012
2254.00,0.0011
2253.00,0.0010
2252.00,0.0010
2251.00,0.0010
2250.00,0.0010
2249.00,0.0010
2248.00,0.0010
2247.00,0.0010
2246.00,0.0010
2245.00,0.0011
2244.00,0.0011
2243.00,0.0011
2242.00,0.0011
2241.00,0.0010
2240.00,0.0008
2239.00,0.0007
2238.00,0.0006
2237.00,0.0005
2236.00,0.0004
2235.00,0.0004
2234.00,0.0004
2233.00,0.0005
2232.00,0.0007
2231.00,0.0008
2230.00,0.0010
2229.00,0.0011
2228.00,0.0012
2227.00,0.0013
2226.00,0.0012
2225.00,0.0011
2224.00,0.0010
2223.00,0.0008
2222.00,0.0007
2221.00,0.0006
2220.00,0.0007
2219.00,0.0008
2218.00,0.0008
2217.00,0.0008
2216.00,0.0008
2215.00,0.0008
2214.00,0.0008
2213.00,0.0008
2212.00,0.0008
2211.00,0.0008
2210.00,0.0008
2209.00,0.0008
2208.00,0.0008
2207.00,0.0007
2206.00,0.0007
2205.00,0.0007
2204.00,0.0008
2203.00,0.0007
2202.00,0.0006
2201.00,0.0005
2200.00,0.0005
2199.00,0.0005
2198.00,0.0005
2197.00,0.0005
2196.00,0.0005
2195.00,0.0005
2194.00,0.0006
2193.00,0.0007
2192.00,0.0010
2191.00,0.0011
2190.00,0.0010
2189.00,0.0009
2188.00,0.0009
2187.00,0.0010
2186.00,0.0011
2185.00,0.0011
2184.00,0.0010
2183.00,0.0010
2182.00,0.0008
2181.00,0.0006
2180.00,0.0005
2179.00,0.0006
2178.00,0.0008
2177.00,0.0009
2176.00,0.0010
2175.00,0.0009
2174.00,0.0008
2173.00,0.0009
2172.00,0.0010
2171.00,0.0010
2170.00,0.0010
2169.00,0.0011
2168.00,0.0013
2167.00,0.0015
2166.00,0.0016
2165.00,0.0015
2164.00,0.0015
2163.00,0.0015
2162.00,0.0015
2161.00,0.0011
2160.00,0.0001
2159.00,-0.0012
2158.00,-0.0024
2157.00,-0.0030
2156.00,-0.0030
2155.00,-0.0026
2154.00,-0.0021
2153.00,-0.0017
2152.00,-0.0014
2151.00,-0.0012
2150.00,-0.0012
2149.00,-0.0011
2148.00,-0.0012
2147.00,-0.0014
2146.00,-0.0014
2145.00,-0.0013
2144.00,-0.0011
2143.00,-0.0010
2142.00,-0.0011
2141.00,-0.0012
2140.00,-0.0014
2139.00,-0.0016
2138.00,-0.0015
2137.00,-0.0014
2136.00,-0.0013
2135.00,-0.0013
2134.00,-0.0015
2133.00,-0.0015
2132.00,-0.0015
2131.00,-0.0014
2130.00,-0.0013
2129.00,-0.0011
2128.00,-0.0010
2127.00,-0.0007
2126.00,-0.0006
2125.00,-0.0005
2124.00,-0.0004
2123.00,-0.0004
2122.00,-0.0003
2121.00,-0.0002
2120.00,-0.0001
2119.00,0.0001
2118.00,0.0002
2117.00,0.0003
2116.00,0.0004
2115.00,0.0005
2114.00,0.0005
2113.00,0.0004
2112.00,0.0004
2111.00,0.0004
2110.00,0.0003
2109.00,0.0003
2108.00,0.0002
2107.00,0.0002
2106.00,0.0001
2105.00,0.0001
2104.00,0.0001
2103.00,0.0001
2102.00,0.0003
2101.00,0.0004
2100.00,0.0005
2099.00,0.0004
2098.00,0.0003
2097.00,0.0001
2096.00,-0.0001
2095.00,-0.0002
2094.00,-0.0003
2093.00,-0.0003
2092.00,-0.0002
2091.00,-0.0001
2090.00,-0.0000
2089.00,0.0001
2088.00,0.0001
2087.00,0.0003
2086.00,0.0004
2085.00,0.0004
2084.00,0.0004
2083.00,0.0003
2082.00,0.0002
2081.00,0.0002
2080.00,0.0003
2079.00,0.0004
2078.00,0.0005
2077.00,0.0005
2076.00,0.0006
2075.00,0.0006
2074.00,0.0007
2073.00,0.0006
2072.00,0.0005
2071.00,0.0003
2070.00,0.0001
2069.00,0.0000
2068.00,0.0001
2067.00,0.0001
2066.00,0.0002
2065.00,0.0002
2064.00,0.0001
2063.00,0.0001
2062.00,0.0000
2061.00,-0.0000
2060.00,-0.0000
2059.00,-0.0000
2058.00,-0.0000
2057.00,0.0000
2056.00,0.0001
2055.00,0.0001
2054.00,0.0003
2053.00,0.0007
2052.00,0.0011
2051.00,0.0014
2050.00,0.0014
2049.00,0.0011
2048.00,0.0007
2047.00,0.0005
2046.00,0.0004
2045.00,0.0004
2044.00,0.0005
2043.00,0.0006
2042.00,0.0005
2041.00,0.0005
2040.00,0.0005
2039.00,0.0006
2038.00,0.0010
2037.00,0.0012
2036.00,0.0011
2035.00,0.0008
2034.00,0.0004
2033.00,0.0003
2032.00,0.0003
2031.00,0.0003
2030.00,0.0002
2029.00,0.0000
2028.00,-0.0002
2027.00,-0.0005
2026.00,-0.0009
2025.00,-0.0011
2024.00,-0.0012
2023.00,-0.0012
2022.00,-0.0010
2021.00,-0.0009
2020.00,-0.0007
2019.00,-0.0005
2018.00,-0.0004
2017.00,-0.0002
2016.00,-0.0002
2015.00,-0.0004
2014.00,-0.0007
2013.00,-0.0010
2012.00,-0.0012
2011.00,-0.0011
2010.00,-0.0010
2009.00,-0.0009
2008.00,-0.0010
2007.00,-0.0012
2006.00,-0.0015
2005.00,-0.0015
2004.00,-0.0015
2003.00,-0.0014
2002.00,-0.0013
2001.00,-0.0012
2000.00,-0.0010
1999.00,-0.0009
1998.00,-0.0008
1997.00,-0.0007
1996.00,-0.0006
1995.00,-0.0005
1994.00,-0.0006
1993.00,-0.0006
1992.00,-0.0006
1991.00,-0.0006
1990.00,-0.0007
1989.00,-0.0008
1988.00,-0.0008
1987.00,-0.0006
1986.00,-0.0002
1985.00,0.0003
1984.00,0.0007
1983.00,0.0009
1982.00,0.0009
1981.00,0.0009
1980.00,0.0008
1979.00,0.0004
1978.00,-0.0001
1977.00,-0.0006
1976.00,-0.0009
1975.00,-0.0011
1974.00,-0.0013
1973.00,-0.0014
1972.00,-0.0014
1971.00,-0.0013
1970.00,-0.0012
1969.00,-0.0011
1968.00,-0.0009
1967.00,-0.0008
1966.00,-0.0006
1965.00,-0.0003
1964.00,-0.0002
1963.00,-0.0003
1962.00,-0.0007
1961.00,-0.0011
1960.00,-0.0015
1959.00,-0.0018
1958.00,-0.0020
1957.00,-0.0020
1956.00,-0.0019
1955.00,-0.0016
1954.00,-0.0014
1953.00,-0.0012
1952.00,-0.0012
1951.00,-0.0013
1950.00,-0.0014
1949.00,-0.0015
1948.00,-0.0015
1947.00,-0.0016
1946.00,-0.0017
1945.00,-0.0016
1944.00,-0.0015
1943.00,-0.0013
1942.00,-0.0011
1941.00,-0.0009
1940.00,-0.0008
1939.00,-0.0007
1938.00,-0.0007
1937.00,-0.0008
1936.00,-0.0009
1935.00,-0.0009
1934.00,-0.0010
1933.00,-0.0009
1932.00,-0.0007
1931.00,-0.0005
1930.00,-0.0004
1929.00,-0.0003
1928.00,-0.0003
1927.00,-0.0004
1926.00,-0.0004
1925.00,-0.0004
1924.00,-0.0003
1923.00,-0.0003
1922.00,-0.0003
1921.00,-0.0003
1920.00,-0.0003
1919.00,-0.0003
1918.00,-0.0004
1917.00,-0.0004
1916.00,-0.0004
1915.00,-0.0004
1914.00,-0.0003
1913.00,-0.0002
1912.00,-0.0001
1911.00,-0.0001
1910.00,-0.0002
1909.00,-0.0003
1908.00,-0.0003
1907.00,-0.0003
1906.00,-0.0002
1905.00,-0.0001
1904.00,0.0000
1903.00,0.0001
1902.00,0.0001
1901.00,0.0001
1900.00,0.0001
1899.00,0.0001
1898.00,0.0001
1897.00,0.0001
1896.00,0.0001
1895.00,0.0001
1894.00,-0.0000
1893.00,-0.0000
1892.00,-0.0000
1891.00,0.0000
1890.00,0.0000
1889.00,0.0001
1888.00,0.0001
1887.00,0.0001
1886.00,0.0001
1885.00,0.0001
1884.00,0.0001
1883.00,0.0002
1882.00,0.0002
1881.00,0.0001
1880.00,0.0001
1879.00,-0.0000
1878.00,-0.0001
1877.00,-0.0000
1876.00,0.0001
1875.00,0.0001
1874.00,0.0002
1873.00,0.0002
1872.00,0.0001
1871.00,0.0001
1870.00,0.0000
1869.00,0.0000
1868.00,0.0001
1867.00,0.0001
1866.00,0.0002
1865.00,0.0002
1864.00,0.0002
1863.00,0.0002
1862.00,0.0001
1861.00,0.0001
1860.00,0.0001
1859.00,0.0001
1858.00,0.0002
1857.00,0.0002
1856.00,0.0003
1855.00,0.0003
1854.00,0.0003
1853.00,0.0003
1852.00,0.0003
1851.00,0.0004
1850.00,0.0004
1849.00,0.0004
1848.00,0.0005
1847.00,0.0005
1846.00,0.0005
1845.00,0.0005
1844.00,0.0005
1843.00,0.0004
1842.00,0.0004
1841.00,0.0004
1840.00,0.0004
1839.00,0.0003
1838.00,0.0003
1837.00,0.0003
1836.00,0.0003
1835.00,0.0004
1834.00,0.0005
1833.00,0.0006
1832.00,0.0006
1831.00,0.0005
1830.00,0.0005
1829.00,0.0005
1828.00,0.0004
1827.00,0.0004
1826.00,0.0005
1825.00,0.0006
1824.00,0.0006
1823.00,0.0006
1822.00,0.0006
1821.00,0.0005
1820.00,0.0005
1819.00,0.0004
1818.00,0.0003
1817.00,0.0002
1816.00,0.0002
1815.00,0.0002
1814.00,0.0003
1813.00,0.0004
1812.00,0.0005
1811.00,0.0006
1810.00,0.0006
1809.00,0.0006
1808.00,0.0006
1807.00,0.0006
1806.00,0.0006
1805.00,0.0006
1804.00,0.0006
1803.00,0.0006
1802.00,0.0007
1801.00,0.0007
1800.00,0.0007
1799.00,0.0008
1798.00,0.0008
1797.00,0.0008
1796.00,0.0008
1795.00,0.0008
1794.00,0.0009
1793.00,0.0010
1792.00,0.0011
1791.00,0.0011
1790.00,0.0011
1789.00,0.0011
1788.00,0.0011
1787.00,0.0010
1786.00,0.0010
1785.00,0.0010
1784.00,0.0010
1783.00,0.0011
1782.00,0.0011
1781.00,0.0011
1780.00,0.0011
1779.00,0.0011
1778.00,0.0010
1777.00,0.0010
1776.00,0.0010
1775.00,0.0010
1774.00,0.0010
1773.00,0.0010
1772.00,0.0011
1771.00,0.0012
1770.00,0.0013
1769.00,0.0014
1768.00,0.0015
1767.00,0.0014
1766.00,0.0014
1765.00,0.0013
1764.00,0.0013
1763.00,0.0014
1762.00,0.0014
1761.00,0.0015
1760.00,0.0016
1759.00,0.0016
1758.00,0.0017
1757.00,0.0018
1756.00,0.0019
1755.00,0.0020
1754.00,0.0021
1753.00,0.0022
1752.00,0.0024
1751.00,0.0025
1750.00,0.0025
1749.00,0.0026
1748.00,0.0028
1747.00,0.0029
1746.00,0.0030
1745.00,0.0032
1744.00,0.0034
1743.00,0.0035
1742.00,0.0035
1741.00,0.0036
1740.00,0.0036
1739.00,0.0036
1738.00,0.0036
1737.00,0.0037
1736.00,0.0038
1735.00,0.0038
1734.00,0.0038
1733.00,0.0038
1732.00,0.0038
1731.00,0.0038
1730.00,0.0038
1729.00,0.0038
1728.00,0.0037
1727.00,0.0037
1726.00,0.0036
1725.00,0.0036
1724.00,0.0036
1723.00,0.0035
1722.00,0.0035
1721.00,0.0035
1720.00,0.0035
1719.00,0.0034
1718.00,0.0034
1717.00,0.0034
1716.00,0.0034
1715.00,0.0034
1714.00,0.0033
1713.00,0.0033
1712.00,0.0033
1711.00,0.0032
1710.00,0.0031
1709.00,0.0031
1708.00,0.0032
1707.00,0.0032
1706.00,0.0033
1705.00,0.0034
1704.00,0.0035
1703.00,0.0036
1702.00,0.0036
1701.00,0.0037
1700.00,0.0038
1699.00,0.0038
1698.00,0.0038
1697.00,0.0039
1696.00,0.0039
1695.00,0.0040
1694.00,0.0042
1693.00,0.0043
1692.00,0.0045
1691.00,0.0046
1690.00,0.0047
1689.00,0.0048
1688.00,0.0049
1687.00,0.0049
1686.00,0.0050
1685.00,0.0051
1684.00,0.0053
1683.00,0.0055
1682.00,0.0057
1681.00,0.0058
1680.00,0.0059
1679.00,0.0060
1678.00,0.0061
1677.00,0.0062
1676.00,0.0064
1675.00,0.0066
1674.00,0.0068
1673.00,0.0069
1672.00,0.0071
1671.00,0.0073
1670.00,0.0075
1669.00,0.0076
1668.00,0.0076
1667.00,0.0076
1666.00,0.0077
1665.00,0.0079
1664.00,0.0080
1663.00,0.0081
1662.00,0.0082
1661.00,0.0083
1660.00,0.0084
1659.00,0.0085
1658.00,0.0086
1657.00,0.0088
1656.00,0.0090
1655.00,0.0092
1654.00,0.0092
1653.00,0.0093
1652.00,0.0093
1651.00,0.0094
1650.00,0.0095
1649.00,0.0097
1648.00,0.0098
1647.00,0.0099
1646.00,0.0100
1645.00,0.0102
1644.00,0.0103
1643.00,0.0103
1642.00,0.0104
1641.00,0.0105
1640.00,0.0106
1639.00,0.0107
1638.00,0.0108
1637.00,0.0109
1636.00,0.0110
1635.00,0.0110
1634.00,0.0109
1633.00,0.0109
1632.00,0.0109
1631.00,0.0109
1630.00,0.0109
1629.00,0.0109
1628.00,0.0109
1627.00,0.0108
1626.00,0.0108
1625.00,0.0107
1624.00,0.0106
1623.00,0.0105
1622.00,0.0104
1621.00,0.0104
1620.00,0.0105
1619.00,0.0105
1618.00,0.0104
1617.00,0.0104
1616.00,0.0105
1615.00,0.0105
1614.00,0.0105
1613.00,0.0104
1612.00,0.0104
1611.00,0.0104
1610.00,0.0104
1609.00,0.0104
1608.00,0.0104
1607.00,0.0105
1606.00,0.0105
1605.00,0.0105
1604.00,0.0106
1603.00,0.0106
1602.00,0.0106
1601.00,0.0106
1600.00,0.0107
1599.00,0.0107
1598.00,0.0107
1597.00,0.0107
1596.00,0.0108
1595.00,0.0108
1594.00,0.0109
1593.00,0.0111
1592.00,0.0113
1591.00,0.0115
1590.00,0.0117
1589.00,0.0120
1588.00,0.0124
1587.00,0.0128
1586.00,0.0133
1585.00,0.0140
1584.00,0.0148
1583.00,0.0156
1582.00,0.0165
1581.00,0.0173
1580.00,0.0180
1579.00,0.0186
1578.00,0.0189
1577.00,0.0189
1576.00,0.0187
1575.00,0.0182
1574.00,0.0177
1573.00,0.0172
1572.00,0.0167
1571.00,0.0160
1570.00,0.0153
1569.00,0.0147
1568.00,0.0142
1567.00,0.0138
1566.00,0.0135
1565.00,0.0132
1564.00,0.0129
1563.00,0.0128
1562.00,0.0127
1561.00,0.0127
1560.00,0.0126
1559.00,0.0127
1558.00,0.0128
1557.00,0.0129
1556.00,0.0130
1555.00,0.0133
1554.00,0.0135
1553.00,0.0139
1552.00,0.0143
1551.00,0.0147
1550.00,0.0152
1549.00,0.0158
1548.00,0.0165
1547.00,0.0172
1546.00,0.0181
1545.00,0.0190
1544.00,0.0199
1543.00,0.0207
1542.00,0.0211
1541.00,0.0212
1540.00,0.0206
1539.00,0.0195
1538.00,0.0183
1537.00,0.0174
1536.00,0.0165
1535.00,0.0155
1534.00,0.0143
1533.00,0.0132
1532.00,0.0124
1531.00,0.0118
1530.00,0.0114
1529.00,0.0111
1528.00,0.0108
1527.00,0.0105
1526.00,0.0102
1525.00,0.0100
1524.00,0.0099
1523.00,0.0098
1522.00,0.0096
1521.00,0.0094
1520.00,0.0094
1519.00,0.0093
1518.00,0.0093
1517.00,0.0094
1516.00,0.0093
1515.00,0.0092
1514.00,0.0092
1513.00,0.0092
1512.00,0.0092
1511.00,0.0092
1510.00,0.0092
1509.00,0.0093
1508.00,0.0094
1507.00,0.0094
1506.00,0.0094
1505.00,0.0095
1504.00,0.0097
1503.00,0.0099
1502.00,0.0101
1501.00,0.0104
1500.00,0.0106
1499.00,0.0109
1498.00,0.0111
1497.00,0.0116
1496.00,0.0121
1495.00,0.0124
1494.00,0.0127
1493.00,0.0131
1492.00,0.0136
1491.00,0.0140
1490.00,0.0146
1489.00,0.0153
1488.00,0.0160
1487.00,0.0167
1486.00,0.0175
1485.00,0.0185
1484.00,0.0196
1483.00,0.0208
1482.00,0.0223
1481.00,0.0240
1480.00,0.0257
1479.00,0.0274
1478.00,0.0292
1477.00,0.0316
1476.00,0.0344
1475.00,0.0377
1474.00,0.0419
1473.00,0.0476
1472.00,0.0541
1471.00,0.0602
1470.00,0.0661
1469.00,0.0724
1468.00,0.0793
1467.00,0.0869
1466.00,0.0954
1465.00,0.1045
1464.00,0.1122
1463.00,0.1173
1462.00,0.1203
1461.00,0.1221
1460.00,0.1232
1459.00,0.1237
1458.00,0.1237
1457.00,0.1233
1456.00,0.1221
1455.00,0.1206
1454.00,0.1189
1453.00,0.1167
1452.00,0.1136
1451.00,0.1097
1450.00,0.1045
1449.00,0.0977
1448.00,0.0892
1447.00,0.0803
1446.00,0.0722
1445.00,0.0652
1444.00,0.0593
1443.00,0.0546
1442.00,0.0510
1441.00,0.0487
1440.00,0.0473
1439.00,0.0470
1438.00,0.0475
1437.00,0.0481
1436.00,0.0476
1435.00,0.0455
1434.00,0.0421
1433.00,0.0378
1432.00,0.0332
1431.00,0.0292
1430.00,0.0260
1429.00,0.0236
1428.00,0.0220
1427.00,0.0211
1426.00,0.0205
1425.00,0.0201
1424.00,0.0196
1423.00,0.0194
1422.00,0.0193
1421.00,0.0191
1420.00,0.0188
1419.00,0.0185
1418.00,0.0182
1417.00,0.0178
1416.00,0.0174
1415.00,0.0171
1414.00,0.0169
1413.00,0.0166
1412.00,0.0163
1411.00,0.0161
1410.00,0.0159
1409.00,0.0157
1408.00,0.0154
1407.00,0.0153
1406.00,0.0152
1405.00,0.0151
1404.00,0.0150
1403.00,0.0149
1402.00,0.0150
1401.00,0.0150
1400.00,0.0150
1399.00,0.0151
1398.00,0.0153
1397.00,0.0155
1396.00,0.0156
1395.00,0.0159
1394.00,0.0163
1393.00,0.0166
1392.00,0.0170
1391.00,0.0177
1390.00,0.0186
1389.00,0.0198
1388.00,0.0217
1387.00,0.0245
1386.00,0.0284
1385.00,0.0336
1384.00,0.0408
1383.00,0.0510
1382.00,0.0648
1381.00,0.0828
1380.00,0.1058
1379.00,0.1330
1378.00,0.1608
1377.00,0.1829
1376.00,0.1928
1375.00,0.1860
1374.00,0.1645
1373.00,0.1368
1372.00,0.1107
1371.00,0.0888
1370.00,0.0714
1369.00,0.0582
1368.00,0.0492
1367.00,0.0437
1366.00,0.0407
1365.00,0.0395
1364.00,0.0398
1363.00,0.0412
1362.00,0.0434
1361.00,0.0457
1360.00,0.0475
1359.00,0.0481
1358.00,0.0471
1357.00,0.0446
1356.00,0.0410
1355.00,0.0369
1354.00,0.0329
1353.00,0.0295
1352.00,0.0268
1351.00,0.0246
1350.00,0.0227
1349.00,0.0212
1348.00,0.0200
1347.00,0.0189
1346.00,0.0180
1345.00,0.0172
1344.00,0.0166
1343.00,0.0160
1342.00,0.0156
1341.00,0.0152
1340.00,0.0150
1339.00,0.0147
1338.00,0.0146
1337.00,0.0145
1336.00,0.0145
1335.00,0.0146
1334.00,0.0148
1333.00,0.0151
1332.00,0.0154
1331.00,0.0157
1330.00,0.0159
1329.00,0.0157
1328.00,0.0154
1327.00,0.0149
1326.00,0.0143
1325.00,0.0138
1324.00,0.0132
1323.00,0.0128
1322.00,0.0125
1321.00,0.0123
1320.00,0.0121
1319.00,0.0119
1318.00,0.0117
1317.00,0.0115
1316.00,0.0113
1315.00,0.0112
1314.00,0.0112
1313.00,0.0111
1312.00,0.0112
1311.00,0.0113
1310.00,0.0115
1309.00,0.0119
1308.00,0.0126
1307.00,0.0135
1306.00,0.0143
1305.00,0.0149
1304.00,0.0152
1303.00,0.0151
1302.00,0.0149
1301.00,0.0146
1300.00,0.0145
1299.00,0.0145
1298.00,0.0146
1297.00,0.0146
1296.00,0.0146
1295.00,0.0144
1294.00,0.0140
1293.00,0.0136
1292.00,0.0132
1291.00,0.0127
1290.00,0.0123
1289.00,0.0119
1288.00,0.0116
1287.00,0.0114
1286.00,0.0112
1285.00,0.0110
1284.00,0.0108
1283.00,0.0107
1282.00,0.0105
1281.00,0.0104
1280.00,0.0104
1279.00,0.0103
1278.00,0.0102
1277.00,0.0102
1276.00,0.0101
1275.00,0.0100
1274.00,0.0100
1273.00,0.0101
1272.00,0.0101
1271.00,0.0103
1270.00,0.0105
1269.00,0.0107
1268.00,0.0110
1267.00,0.0113
1266.00,0.0116
1265.00,0.0120
1264.00,0.0123
1263.00,0.0126
1262.00,0.0130
1261.00,0.0133
1260.00,0.0137
1259.00,0.0141
1258.00,0.0145
1257.00,0.0148
1256.00,0.0148
1255.00,0.0146
1254.00,0.0141
1253.00,0.0135
1252.00,0.0129
1251.00,0.0124
1250.00,0.0120
1249.00,0.0117
1248.00,0.0114
1247.00,0.0112
1246.00,0.0110
1245.00,0.0109
1244.00,0.0108
1243.00,0.0106
1242.00,0.0105
1241.00,0.0104
1240.00,0.0104
1239.00,0.0105
1238.00,0.0106
1237.00,0.0106
1236.00,0.0107
1235.00,0.0107
1234.00,0.0108
1233.00,0.0109
1232.00,0.0110
1231.00,0.0111
1230.00,0.0112
1229.00,0.0113
1228.00,0.0114
1227.00,0.0116
1226.00,0.0119
1225.00,0.0123
1224.00,0.0127
1223.00,0.0131
1222.00,0.0134
1221.00,0.0136
1220.00,0.0137
1219.00,0.0138
1218.00,0.0138
1217.00,0.0137
1216.00,0.0134
1215.00,0.0131
1214.00,0.0128
1213.00,0.0125
1212.00,0.0122
1211.00,0.0120
1210.00,0.0118
1209.00,0.0116
1208.00,0.0114
1207.00,0.0113
1206.00,0.0112
1205.00,0.0112
1204.00,0.0111
1203.00,0.0111
1202.00,0.0111
1201.00,0.0111
1200.00,0.0112
1199.00,0.0113
1198.00,0.0114
1197.00,0.0115
1196.00,0.0115
1195.00,0.0116
1194.00,0.0117
1193.00,0.0117
1192.00,0.0117
1191.00,0.0117
1190.00,0.0116
1189.00,0.0116
1188.00,0.0115
1187.00,0.0115
1186.00,0.0116
1185.00,0.0116
1184.00,0.0117
1183.00,0.0118
1182.00,0.0120
1181.00,0.0122
1180.00,0.0124
1179.00,0.0127
1178.00,0.0131
1177.00,0.0136
1176.00,0.0144
1175.00,0.0154
1174.00,0.0168
1173.00,0.0186
1172.00,0.0208
1171.00,0.0232
1170.00,0.0256
1169.00,0.0275
1168.00,0.0287
1167.00,0.0290
1166.00,0.0285
1165.00,0.0275
1164.00,0.0264
1163.00,0.0252
1162.00,0.0243
1161.00,0.0236
1160.00,0.0230
1159.00,0.0226
1158.00,0.0223
1157.00,0.0222
1156.00,0.0221
1155.00,0.0221
1154.00,0.0221
1153.00,0.0219
1152.00,0.0216
1151.00,0.0210
1150.00,0.0203
1149.00,0.0195
1148.00,0.0186
1147.00,0.0177
1146.00,0.0169
1145.00,0.0162
1144.00,0.0156
1143.00,0.0150
1142.00,0.0145
1141.00,0.0141
1140.00,0.0137
1139.00,0.0133
1138.00,0.0131
1137.00,0.0128
1136.00,0.0126
1135.00,0.0125
1134.00,0.0125
1133.00,0.0125
1132.00,0.0126
1131.00,0.0128
1130.00,0.0130
1129.00,0.0132
1128.00,0.0134
1127.00,0.0136
1126.00,0.0138
1125.00,0.0139
1124.00,0.0140
1123.00,0.0141
1122.00,0.0141
1121.00,0.0141
1120.00,0.0140
1119.00,0.0141
1118.00,0.0142
1117.00,0.0143
1116.00,0.0145
1115.00,0.0147
1114.00,0.0148
1113.00,0.0150
1112.00,0.0151
1111.00,0.0153
1110.00,0.0155
1109.00,0.0158
1108.00,0.0161
1107.00,0.0166
1106.00,0.0172
1105.00,0.0178
1104.00,0.0183
1103.00,0.0185
1102.00,0.0185
1101.00,0.0181
1100.00,0.0175
1099.00,0.0168
1098.00,0.0162
1097.00,0.0156
1096.00,0.0151
1095.00,0.0147
1094.00,0.0145
1093.00,0.0143
1092.00,0.0141
1091.00,0.0139
1090.00,0.0137
1089.00,0.0134
1088.00,0.0132
1087.00,0.0130
1086.00,0.0129
1085.00,0.0128
1084.00,0.0127
1083.00,0.0127
1082.00,0.0126
1081.00,0.0126
1080.00,0.0125
1079.00,0.0124
1078.00,0.0122
1077.00,0.0121
1076.00,0.0120
1075.00,0.0119
1074.00,0.0118
1073.00,0.0118
1072.00,0.0117
1071.00,0.0116
1070.00,0.0116
1069.00,0.0116
1068.00,0.0116
1067.00,0.0115
1066.00,0.0114
1065.00,0.0114
1064.00,0.0114
1063.00,0.0116
1062.00,0.0118
1061.00,0.0120
1060.00,0.0121
1059.00,0.0122
1058.00,0.0123
1057.00,0.0124
1056.00,0.0124
1055.00,0.0125
1054.00,0.0126
1053.00,0.0128
1052.00,0.0131
1051.00,0.0134
1050.00,0.0137
1049.00,0.0141
1048.00,0.0145
1047.00,0.0150
1046.00,0.0153
1045.00,0.0155
1044.00,0.0156
1043.00,0.0155
1042.00,0.0155
1041.00,0.0156
1040.00,0.0157
1039.00,0.0158
1038.00,0.0160
1037.00,0.0162
1036.00,0.0163
1035.00,0.0163
1034.00,0.0161
1033.00,0.0157
1032.00,0.0152
1031.00,0.0147
1030.00,0.0144
1029.00,0.0143
1028.00,0.0143
1027.00,0.0144
1026.00,0.0145
1025.00,0.0146
1024.00,0.0148
1023.00,0.0150
1022.00,0.0152
1021.00,0.0154
1020.00,0.0156
1019.00,0.0157
1018.00,0.0158
1017.00,0.0159
1016.00,0.0160
1015.00,0.0162
1014.00,0.0163
1013.00,0.0164
1012.00,0.0165
1011.00,0.0164
1010.00,0.0163
1009.00,0.0162
1008.00,0.0161
1007.00,0.0162
1006.00,0.0164
1005.00,0.0168
1004.00,0.0177
1003.00,0.0191
1002.00,0.0212
1001.00,0.0238
1000.00,0.0266
999.00,0.0289
998.00,0.0299
997.00,0.0292
996.00,0.0270
995.00,0.0240
994.00,0.0209
993.00,0.0182
992.00,0.0161
991.00,0.0146
990.00,0.0136
989.00,0.0129
988.00,0.0125
987.00,0.0123
986.00,0.0123
985.00,0.0124
984.00,0.0126
983.00,0.0132
982.00,0.0141
981.00,0.0154
980.00,0.0173
979.00,0.0197
978.00,0.0227
977.00,0.0260
976.00,0.0295
975.00,0.0327
974.00,0.0350
973.00,0.0357
972.00,0.0344
971.00,0.0314
970.00,0.0274
969.00,0.0235
968.00,0.0201
967.00,0.0176
966.00,0.0158
965.00,0.0144
964.00,0.0134
963.00,0.0127
962.00,0.0121
961.00,0.0117
960.00,0.0113
959.00,0.0110
958.00,0.0107
957.00,0.0104
956.00,0.0102
955.00,0.0100
954.00,0.0099
953.00,0.0099
952.00,0.0099
951.00,0.0098
950.00,0.0097
949.00,0.0096
948.00,0.0095
947.00,0.0096
946.00,0.0098
945.00,0.0100
944.00,0.0103
943.00,0.0106
942.00,0.0110
941.00,0.0113
940.00,0.0113
939.00,0.0111
938.00,0.0105
937.00,0.0099
936.00,0.0093
935.00,0.0088
934.00,0.0085
933.00,0.0083
932.00,0.0081
931.00,0.0080
930.00,0.0078
929.00,0.0077
928.00,0.0076
927.00,0.0076
926.00,0.0076
925.00,0.0075
924.00,0.0075
923.00,0.0074
922.00,0.0074
921.00,0.0074
920.00,0.0075
919.00,0.0075
918.00,0.0076
917.00,0.0076
916.00,0.0076
915.00,0.0077
914.00,0.0079
913.00,0.0080
912.00,0.0080
911.00,0.0081
910.00,0.0082
909.00,0.0084
908.00,0.0087
907.00,0.0092
906.00,0.0099
905.00,0.0109
904.00,0.0124
903.00,0.0142
902.00,0.0162
901.00,0.0181
900.00,0.0194
899.00,0.0197
898.00,0.0189
897.00,0.0173
896.00,0.0152
895.00,0.0133
894.00,0.0117
893.00,0.0106
892.00,0.0099
891.00,0.0095
890.00,0.0094
889.00,0.0092
888.00,0.0090
887.00,0.0088
886.00,0.0086
885.00,0.0085
884.00,0.0085
883.00,0.0086
882.00,0.0088
881.00,0.0089
880.00,0.0089
879.00,0.0089
878.00,0.0089
877.00,0.0088
876.00,0.0088
875.00,0.0089
874.00,0.0089
873.00,0.0089
872.00,0.0089
871.00,0.0088
870.00,0.0087
869.00,0.0086
868.00,0.0087
867.00,0.0087
866.00,0.0089
865.00,0.0089
864.00,0.0089
863.00,0.0089
862.00,0.0090
861.00,0.0091
860.00,0.0092
859.00,0.0094
858.00,0.0095
857.00,0.0095
856.00,0.0097
855.00,0.0099
854.00,0.0102
853.00,0.0104
852.00,0.0106
851.00,0.0108
850.00,0.0112
849.00,0.0116
848.00,0.0122
847.00,0.0131
846.00,0.0145
845.00,0.0167
844.00,0.0198
843.00,0.0235
842.00,0.0266
841.00,0.0277
840.00,0.0262
839.00,0.0229
838.00,0.0193
837.00,0.0165
836.00,0.0147
835.00,0.0136
834.00,0.0129
833.00,0.0125
832.00,0.0121
831.00,0.0119
830.00,0.0117
829.00,0.0116
828.00,0.0115
827.00,0.0114
826.00,0.0113
825.00,0.0113
824.00,0.0113
823.00,0.0115
822.00,0.0117
821.00,0.0120
820.00,0.0123
819.00,0.0125
818.00,0.0128
817.00,0.0133
816.00,0.0141
815.00,0.0154
814.00,0.0170
813.00,0.0189
812.00,0.0210
811.00,0.0229
810.00,0.0243
809.00,0.0248
808.00,0.0244
807.00,0.0231
806.00,0.0212
805.00,0.0193
804.00,0.0176
803.00,0.0162
802.00,0.0152
801.00,0.0144
800.00,0.0138
799.00,0.0132
798.00,0.0127
797.00,0.0122
796.00,0.0118
795.00,0.0114
794.00,0.0110
793.00,0.0107
792.00,0.0104
791.00,0.0102
790.00,0.0099
789.00,0.0097
788.00,0.0094
787.00,0.0093
786.00,0.0092
785.00,0.0091
784.00,0.0088
783.00,0.0086
782.00,0.0083
781.00,0.0081
780.00,0.0080
779.00,0.0080
778.00,0.0081
777.00,0.0081
776.00,0.0082
775.00,0.0082
774.00,0.0083
773.00,0.0084
772.00,0.0084
771.00,0.0083
770.00,0.0083
769.00,0.0083
768.00,0.0083
767.00,0.0084
766.00,0.0084
765.00,0.0084
764.00,0.0084
763.00,0.0083
762.00,0.0084
761.00,0.0085
760.00,0.0086
759.00,0.0088
758.00,0.0089
757.00,0.0091
756.00,0.0092
755.00,0.0094
754.00,0.0096
753.00,0.0098
752.00,0.0098
751.00,0.0098
750.00,0.0098
749.00,0.0099
748.00,0.0103
747.00,0.0106
746.00,0.0109
745.00,0.0110
744.00,0.0111
743.00,0.0113
742.00,0.0117
741.00,0.0121
740.00,0.0125
739.00,0.0130
738.00,0.0135
737.00,0.0139
736.00,0.0143
735.00,0.0147
734.00,0.0152
733.00,0.0158
732.00,0.0164
731.00,0.0171
730.00,0.0179
729.00,0.0184
728.00,0.0188
727.00,0.0190
726.00,0.0192
725.00,0.0196
724.00,0.0201
723.00,0.0209
722.00,0.0216
721.00,0.0220
720.00,0.0218
719.00,0.0209
718.00,0.0195
717.00,0.0180
716.00,0.0167
715.00,0.0157
714.00,0.0150
713.00,0.0144
712.00,0.0140
711.00,0.0137
710.00,0.0135
709.00,0.0134
708.00,0.0133
707.00,0.0132
706.00,0.0132
705.00,0.0131
704.00,0.0130
703.00,0.0129
702.00,0.0127
701.00,0.0125
700.00,0.0124
699.00,0.0124
698.00,0.0125
697.00,0.0126
696.00,0.0127
695.00,0.0127
694.00,0.0127
693.00,0.0127
692.00,0.0128
691.00,0.0129
690.00,0.0130
689.00,0.0130
688.00,0.0130
687.00,0.0129
686.00,0.0127
685.00,0.0126
684.00,0.0126
683.00,0.0127
682.00,0.0128
681.00,0.0128
680.00,0.0126
679.00,0.0125
678.00,0.0126
677.00,0.0129
676.00,0.0132
675.00,0.0134
674.00,0.0135
673.00,0.0136
672.00,0.0138
671.00,0.0139
670.00,0.0141
669.00,0.0143
668.00,0.0143
667.00,0.0141
666.00,0.0136
665.00,0.0131
664.00,0.0127
663.00,0.0125
662.00,0.0123
661.00,0.0121
660.00,0.0120
659.00,0.0119
658.00,0.0117
657.00,0.0116
656.00,0.0115
655.00,0.0116
654.00,0.0117
653.00,0.0118
652.00,0.0118
651.00,0.0117
650.00,0.0116
649.00,0.0116
648.00,0.0116
647.00,0.0115
646.00,0.0113
645.00,0.0111
644.00,0.0109
643.00,0.0109
642.00,0.0110
641.00,0.0112
640.00,0.0113
639.00,0.0112
638.00,0.0111
637.00,0.0110
636.00,0.0110
635.00,0.0111
634.00,0.0111
633.00,0.0112
632.00,0.0114
631.00,0.0115
630.00,0.0117
629.00,0.0118
628.00,0.0119
627.00,0.0119
626.00,0.0118
625.00,0.0117
624.00,0.0115
623.00,0.0115
622.00,0.0116
621.00,0.0117
620.00,0.0118
619.00,0.0116
618.00,0.0112
617.00,0.0109
616.00,0.0108
615.00,0.0109
614.00,0.0111
613.00,0.0110
612.00,0.0110
611.00,0.0110
610.00,0.0112
609.00,0.0114
608.00,0.0116
607.00,0.0116
606.00,0.0114
605.00,0.0111
604.00,0.0107
603.00,0.0105
602.00,0.0105
601.00,0.0106
600.00,0.0107
599.00,0.0109
598.00,0.0111
597.00,0.0113
596.00,0.0114
595.00,0.0112
594.00,0.0108
593.00,0.0104
592.00,0.0102
591.00,0.0103
590.00,0.0104
589.00,0.0105
588.00,0.0105
587.00,0.0106
586.00,0.0108
585.00,0.0109
584.00,0.0109
583.00,0.0110
582.00,0.0110
581.00,0.0109
580.00,0.0109
579.00,0.0108
578.00,0.0108
577.00,0.0108
576.00,0.0110
575.00,0.0113
574.00,0.0117
573.00,0.0118
572.00,0.0115
571.00,0.0112
570.00,0.0111
569.00,0.0111
568.00,0.0111
567.00,0.0108
566.00,0.0105
565.00,0.0103
564.00,0.0104
563.00,0.0106
562.00,0.0108
561.00,0.0109
560.00,0.0109
559.00,0.0108
558.00,0.0109
557.00,0.0110
556.00,0.0114
555.00,0.0117
554.00,0.0118
553.00,0.0115
552.00,0.0111
551.00,0.0108
550.00,0.0108
549.00,0.0110
548.00,0.0112
547.00,0.0113
546.00,0.0113
545.00,0.0113
544.00,0.0114
543.00,0.0114
542.00,0.0116
541.00,0.0118
540.00,0.0122
539.00,0.0127
538.00,0.0131
537.00,0.0133
536.00,0.0132
535.00,0.0131
534.00,0.0131
533.00,0.0131
532.00,0.0129
531.00,0.0128
530.00,0.0126
529.00,0.0125
528.00,0.0122
527.00,0.0120
526.00,0.0120
525.00,0.0120
524.00,0.0118
523.00,0.0118
522.00,0.0121
521.00,0.0125
520.00,0.0126
519.00,0.0122
518.00,0.0115
517.00,0.0111
516.00,0.0109
515.00,0.0108
514.00,0.0106
513.00,0.0104
512.00,0.0102
511.00,0.0101
510.00,0.0102
509.00,0.0103
508.00,0.0103
507.00,0.0102
506.00,0.0103
505.00,0.0106
504.00,0.0112
503.00,0.0116
502.00,0.0116
501.00,0.0113
500.00,0.0107
499.00,0.0101
498.00,0.0097
497.00,0.0098
496.00,0.0102
495.00,0.0106
494.00,0.0107
493.00,0.0105
492.00,0.0104
491.00,0.0108
490.00,0.0117
489.00,0.0126
488.00,0.0132
487.00,0.0131
486.00,0.0127
485.00,0.0121
484.00,0.0114
483.00,0.0110
482.00,0.0109
481.00,0.0112
480.00,0.0119
479.00,0.0129
478.00,0.0138
477.00,0.0143
476.00,0.0142
475.00,0.0140
474.00,0.0141
473.00,0.0143
472.00,0.0143
471.00,0.0143
470.00,0.0150
469.00,0.0162
468.00,0.0176
467.00,0.0188
466.00,0.0197
465.00,0.0205
464.00,0.0209
463.00,0.0208
462.00,0.0202
461.00,0.0194
460.00,0.0182
459.00,0.0168
458.00,0.0160
457.00,0.0169
456.00,0.0184
455.00,0.0201
454.00,0.0211
453.00,0.0212
452.00,0.0202
451.00,0.0184
450.00,0.0166
