Created as New Dataset,Sample 021 By Administrator Date Friday, September 05 2025
cm-1,A
4000.00,0.0010
3999.00,0.0010
3998.00,0.0011
3997.00,0.0011
3996.00,0.0010
3995.00,0.0010
3994.00,0.0010
3993.00,0.0010
3992.00,0.0010
3991.00,0.0010
3990.00,0.0010
3989.00,0.0010
3988.00,0.0010
3987.00,0.0009
3986.00,0.0009
3985.00,0.0009
3984.00,0.0010
3983.00,0.0010
3982.00,0.0010
3981.00,0.0010
3980.00,0.0010
3979.00,0.0009
3978.00,0.0009
3977.00,0.0009
3976.00,0.0008
3975.00,0.0008
3974.00,0.0008
3973.00,0.0008
3972.00,0.0008
3971.00,0.0008
3970.00,0.0008
3969.00,0.0008
3968.00,0.0009
3967.00,0.0009
3966.00,0.0009
3965.00,0.0009
3964.00,0.0009
3963.00,0.0009
3962.00,0.0009
3961.00,0.0008
3960.00,0.0008
3959.00,0.0008
3958.00,0.0008
3957.00,0.0008
3956.00,0.0008
3955.00,0.0008
3954.00,0.0008
3953.00,0.0008
3952.00,0.0008
3951.00,0.0008
3950.00,0.0008
3949.00,0.0008
3948.00,0.0007
3947.00,0.0007
3946.00,0.0007
3945.00,0.0007
3944.00,0.0007
3943.00,0.0008
3942.00,0.0008
3941.00,0.0009
3940.00,0.0009
3939.00,0.0009
3938.00,0.0008
3937.00,0.0009
3936.00,0.0009
3935.00,0.0009
3934.00,0.0010
3933.00,0.0010
3932.00,0.0009
3931.00,0.0009
3930.00,0.0008
3929.00,0.0008
3928.00,0.0008
3927.00,0.0008
3926.00,0.0008
3925.00,0.0009
3924.00,0.0009
3923.00,0.0009
3922.00,0.0009
3921.00,0.0009
3920.00,0.0008
3919.00,0.0008
3918.00,0.0008
3917.00,0.0008
3916.00,0.0009
3915.00,0.0009
3914.00,0.0010
3913.00,0.0010
3912.00,0.0009
3911.00,0.0009
3910.00,0.0009
3909.00,0.0009
3908.00,0.0009
3907.00,0.0009
3906.00,0.0009
3905.00,0.0009
3904.00,0.0009
3903.00,0.0009
3902.00,0.0009
3901.00,0.0008
3900.00,0.0007
3899.00,0.0007
3898.00,0.0007
3897.00,0.0007
3896.00,0.0008
3895.00,0.0008
3894.00,0.0009
3893.00,0.0009
3892.00,0.0009
3891.00,0.0009
3890.00,0.0009
3889.00,0.0009
3888.00,0.0009
3887.00,0.0009
3886.00,0.0009
3885.00,0.0009
3884.00,0.0009
3883.00,0.0009
3882.00,0.0009
3881.00,0.0009
3880.00,0.0009
3879.00,0.0009
3878.00,0.0009
3877.00,0.0009
3876.00,0.0009
3875.00,0.0008
3874.00,0.0008
3873.00,0.0007
3872.00,0.0007
3871.00,0.0008
3870.00,0.0009
3869.00,0.0009
3868.00,0.0009
3867.00,0.0008
3866.00,0.0008
3865.00,0.0008
3864.00,0.0008
3863.00,0.0008
3862.00,0.0008
3861.00,0.0008
3860.00,0.0008
3859.00,0.0009
3858.00,0.0009
3857.00,0.0009
3856.00,0.0009
3855.00,0.0009
3854.00,0.0009
3853.00,0.0008
3852.00,0.0008
3851.00,0.0007
3850.00,0.0007
3849.00,0.0007
3848.00,0.0007
3847.00,0.0008
3846.00,0.0008
3845.00,0.0008
3844.00,0.0008
3843.00,0.0008
3842.00,0.0008
3841.00,0.0008
3840.00,0.0008
3839.00,0.0008
3838.00,0.0007
3837.00,0.0007
3836.00,0.0007
3835.00,0.0007
3834.00,0.0007
3833.00,0.0007
3832.00,0.0007
3831.00,0.0008
3830.00,0.0008
3829.00,0.0008
3828.00,0.0007
3827.00,0.0007
3826.00,0.0008
3825.00,0.0008
3824.00,0.0008
3823.00,0.0008
3822.00,0.0008
3821.00,0.0008
3820.00,0.0007
3819.00,0.0007
3818.00,0.0007
3817.00,0.0007
3816.00,0.0008
3815.00,0.0008
3814.00,0.0008
3813.00,0.0008
3812.00,0.0008
3811.00,0.0008
3810.00,0.0008
3809.00,0.0008
3808.00,0.0008
3807.00,0.0008
3806.00,0.0008
3805.00,0.0008
3804.00,0.0007
3803.00,0.0006
3802.00,0.0006
3801.00,0.0006
3800.00,0.0006
3799.00,0.0007
3798.00,0.0007
3797.00,0.0007
3796.00,0.0008
3795.00,0.0009
3794.00,0.0009
3793.00,0.0009
3792.00,0.0008
3791.00,0.0008
3790.00,0.0008
3789.00,0.0009
3788.00,0.0009
3787.00,0.0009
3786.00,0.0008
3785.00,0.0008
3784.00,0.0008
3783.00,0.0008
3782.00,0.0008
3781.00,0.0008
3780.00,0.0008
3779.00,0.0008
3778.00,0.0008
3777.00,0.0007
3776.00,0.0007
3775.00,0.0008
3774.00,0.0008
3773.00,0.0008
3772.00,0.0008
3771.00,0.0008
3770.00,0.0008
3769.00,0.0008
3768.00,0.0008
3767.00,0.0008
3766.00,0.0008
3765.00,0.0008
3764.00,0.0008
3763.00,0.0008
3762.00,0.0008
3761.00,0.0008
3760.00,0.0008
3759.00,0.0008
3758.00,0.0009
3757.00,0.0009
3756.00,0.0009
3755.00,0.0009
3754.00,0.0009
3753.00,0.0008
3752.00,0.0008
3751.00,0.0007
3750.00,0.0007
3749.00,0.0007
3748.00,0.0007
3747.00,0.0007
3746.00,0.0007
3745.00,0.0007
3744.00,0.0007
3743.00,0.0008
3742.00,0.0008
3741.00,0.0008
3740.00,0.0008
3739.00,0.0009
3738.00,0.0009
3737.00,0.0009
3736.00,0.0008
3735.00,0.0008
3734.00,0.0008
3733.00,0.0008
3732.00,0.0008
3731.00,0.0008
3730.00,0.0008
3729.00,0.0008
3728.00,0.0008
3727.00,0.0008
3726.00,0.0008
3725.00,0.0008
3724.00,0.0007
3723.00,0.0006
3722.00,0.0006
3721.00,0.0007
3720.00,0.0007
3719.00,0.0007
3718.00,0.0007
3717.00,0.0008
3716.00,0.0008
3715.00,0.0008
3714.00,0.0008
3713.00,0.0008
3712.00,0.0008
3711.00,0.0007
3710.00,0.0007
3709.00,0.0007
3708.00,0.0006
3707.00,0.0006
3706.00,0.0006
3705.00,0.0006
3704.00,0.0005
3703.00,0.0005
3702.00,0.0006
3701.00,0.0006
3700.00,0.0007
3699.00,0.0008
3698.00,0.0008
3697.00,0.0008
3696.00,0.0008
3695.00,0.0008
3694.00,0.0008
3693.00,0.0008
3692.00,0.0008
3691.00,0.0008
3690.00,0.0007
3689.00,0.0007
3688.00,0.0007
3687.00,0.0007
3686.00,0.0007
3685.00,0.0007
3684.00,0.0006
3683.00,0.0006
3682.00,0.0006
3681.00,0.0006
3680.00,0.0006
3679.00,0.0007
3678.00,0.0007
3677.00,0.0008
3676.00,0.0008
3675.00,0.0007
3674.00,0.0007
3673.00,0.0006
3672.00,0.0006
3671.00,0.0005
3670.00,0.0005
3669.00,0.0005
3668.00,0.0005
3667.00,0.0004
3666.00,0.0004
3665.00,0.0004
3664.00,0.0004
3663.00,0.0004
3662.00,0.0004
3661.00,0.0004
3660.00,0.0005
3659.00,0.0005
3658.00,0.0005
3657.00,0.0005
3656.00,0.0005
3655.00,0.0005
3654.00,0.0004
3653.00,0.0004
3652.00,0.0004
3651.00,0.0004
3650.00,0.0005
3649.00,0.0005
3648.00,0.0005
3647.00,0.0005
3646.00,0.0005
3645.00,0.0005
3644.00,0.0006
3643.00,0.0006
3642.00,0.0006
3641.00,0.0007
3640.00,0.0007
3639.00,0.0008
3638.00,0.0008
3637.00,0.0008
3636.00,0.0009
3635.00,0.0009
3634.00,0.0009
3633.00,0.0009
3632.00,0.0009
3631.00,0.0008
3630.00,0.0008
3629.00,0.0008
3628.00,0.0009
3627.00,0.0010
3626.00,0.0010
3625.00,0.0010
3624.00,0.0010
3623.00,0.0009
3622.00,0.0009
3621.00,0.0009
3620.00,0.0009
3619.00,0.0009
3618.00,0.0010
3617.00,0.0011
3616.00,0.0011
3615.00,0.0011
3614.00,0.0011
3613.00,0.0012
3612.00,0.0012
3611.00,0.0013
3610.00,0.0013
3609.00,0.0013
3608.00,0.0013
3607.00,0.0013
3606.00,0.0014
3605.00,0.0014
3604.00,0.0014
3603.00,0.0015
3602.00,0.0015
3601.00,0.0014
3600.00,0.0014
3599.00,0.0014
3598.00,0.0014
3597.00,0.0014
3596.00,0.0014
3595.00,0.0015
3594.00,0.0015
3593.00,0.0016
3592.00,0.0016
3591.00,0.0016
3590.00,0.0016
3589.00,0.0016
3588.00,0.0016
3587.00,0.0016
3586.00,0.0016
3585.00,0.0017
3584.00,0.0017
3583.00,0.0018
3582.00,0.0018
3581.00,0.0018
3580.00,0.0018
3579.00,0.0018
3578.00,0.0018
3577.00,0.0018
3576.00,0.0019
3575.00,0.0019
3574.00,0.0020
3573.00,0.0021
3572.00,0.0021
3571.00,0.0021
3570.00,0.0021
3569.00,0.0021
3568.00,0.0021
3567.00,0.0021
3566.00,0.0022
3565.00,0.0022
3564.00,0.0022
3563.00,0.0022
3562.00,0.0021
3561.00,0.0022
3560.00,0.0022
3559.00,0.0023
3558.00,0.0024
3557.00,0.0024
3556.00,0.0025
3555.00,0.0025
3554.00,0.0025
3553.00,0.0025
3552.00,0.0025
3551.00,0.0026
3550.00,0.0026
3549.00,0.0026
3548.00,0.0026
3547.00,0.0027
3546.00,0.0027
3545.00,0.0027
3544.00,0.0027
3543.00,0.0027
3542.00,0.0027
3541.00,0.0027
3540.00,0.0028
3539.00,0.0028
3538.00,0.0028
3537.00,0.0029
3536.00,0.0029
3535.00,0.0030
3534.00,0.0030
3533.00,0.0030
3532.00,0.0030
3531.00,0.0030
3530.00,0.0030
3529.00,0.0031
3528.00,0.0031
3527.00,0.0031
3526.00,0.0031
3525.00,0.0031
3524.00,0.0031
3523.00,0.0031
3522.00,0.0032
3521.00,0.0032
3520.00,0.0033
3519.00,0.0033
3518.00,0.0034
3517.00,0.0034
3516.00,0.0034
3515.00,0.0034
3514.00,0.0034
3513.00,0.0034
3512.00,0.0034
3511.00,0.0034
3510.00,0.0034
3509.00,0.0035
3508.00,0.0035
3507.00,0.0036
3506.00,0.0036
3505.00,0.0036
3504.00,0.0036
3503.00,0.0037
3502.00,0.0037
3501.00,0.0038
3500.00,0.0038
3499.00,0.0039
3498.00,0.0039
3497.00,0.0039
3496.00,0.0039
3495.00,0.0039
3494.00,0.0038
3493.00,0.0038
3492.00,0.0038
3491.00,0.0039
3490.00,0.0039
3489.00,0.0039
3488.00,0.0040
3487.00,0.0040
3486.00,0.0040
3485.00,0.0041
3484.00,0.0041
3483.00,0.0041
3482.00,0.0042
3481.00,0.0042
3480.00,0.0042
3479.00,0.0042
3478.00,0.0042
3477.00,0.0043
3476.00,0.0043
3475.00,0.0043
3474.00,0.0043
3473.00,0.0043
3472.00,0.0043
3471.00,0.0043
3470.00,0.0044
3469.00,0.0044
3468.00,0.0045
3467.00,0.0045
3466.00,0.0045
3465.00,0.0046
3464.00,0.0046
3463.00,0.0046
3462.00,0.0046
3461.00,0.0047
3460.00,0.0047
3459.00,0.0047
3458.00,0.0047
3457.00,0.0048
3456.00,0.0048
3455.00,0.0048
3454.00,0.0048
3453.00,0.0047
3452.00,0.0048
3451.00,0.0048
3450.00,0.0048
3449.00,0.0049
3448.00,0.0049
3447.00,0.0049
3446.00,0.0050
3445.00,0.0050
3444.00,0.0051
3443.00,0.0051
3442.00,0.0051
3441.00,0.0051
3440.00,0.0052
3439.00,0.0052
3438.00,0.0052
3437.00,0.0053
3436.00,0.0053
3435.00,0.0053
3434.00,0.0053
3433.00,0.0054
3432.00,0.0053
3431.00,0.0053
3430.00,0.0053
3429.00,0.0053
3428.00,0.0054
3427.00,0.0054
3426.00,0.0055
3425.00,0.0055
3424.00,0.0055
3423.00,0.0055
3422.00,0.0056
3421.00,0.0056
3420.00,0.0056
3419.00,0.0056
3418.00,0.0056
3417.00,0.0056
3416.00,0.0056
3415.00,0.0056
3414.00,0.0056
3413.00,0.0057
3412.00,0.0058
3411.00,0.0058
3410.00,0.0059
3409.00,0.0059
3408.00,0.0059
3407.00,0.0059
3406.00,0.0059
3405.00,0.0059
3404.00,0.0059
3403.00,0.0059
3402.00,0.0059
3401.00,0.0059
3400.00,0.0060
3399.00,0.0060
3398.00,0.0060
3397.00,0.0060
3396.00,0.0060
3395.00,0.0060
3394.00,0.0060
3393.00,0.0060
3392.00,0.0060
3391.00,0.0060
3390.00,0.0059
3389.00,0.0059
3388.00,0.0059
3387.00,0.0059
3386.00,0.0059
3385.00,0.0060
3384.00,0.0060
3383.00,0.0060
3382.00,0.0061
3381.00,0.0061
3380.00,0.0061
3379.00,0.0061
3378.00,0.0061
3377.00,0.0061
3376.00,0.0061
3375.00,0.0062
3374.00,0.0062
3373.00,0.0062
3372.00,0.0062
3371.00,0.0062
3370.00,0.0061
3369.00,0.0062
3368.00,0.0062
3367.00,0.0062
3366.00,0.0062
3365.00,0.0062
3364.00,0.0062
3363.00,0.0063
3362.00,0.0063
3361.00,0.0063
3360.00,0.0063
3359.00,0.0063
3358.00,0.0063
3357.00,0.0063
3356.00,0.0063
3355.00,0.0063
3354.00,0.0063
3353.00,0.0063
3352.00,0.0063
3351.00,0.0063
3350.00,0.0064
3349.00,0.0064
3348.00,0.0063
3347.00,0.0063
3346.00,0.0063
3345.00,0.0063
3344.00,0.0062
3343.00,0.0062
3342.00,0.0062
3341.00,0.0062
3340.00,0.0063
3339.00,0.0062
3338.00,0.0062
3337.00,0.0062
3336.00,0.0062
3335.00,0.0062
3334.00,0.0062
3333.00,0.0062
3332.00,0.0063
3331.00,0.0063
3330.00,0.0062
3329.00,0.0062
3328.00,0.0062
3327.00,0.0062
3326.00,0.0062
3325.00,0.0062
3324.00,0.0062
3323.00,0.0062
3322.00,0.0062
3321.00,0.0062
3320.00,0.0062
3319.00,0.0062
3318.00,0.0062
3317.00,0.0062
3316.00,0.0062
3315.00,0.0062
3314.00,0.0062
3313.00,0.0062
3312.00,0.0063
3311.00,0.0063
3310.00,0.0063
3309.00,0.0064
3308.00,0.0065
3307.00,0.0066
3306.00,0.0066
3305.00,0.0067
3304.00,0.0068
3303.00,0.0069
3302.00,0.0069
3301.00,0.0069
3300.00,0.0068
3299.00,0.0068
3298.00,0.0067
3297.00,0.0066
3296.00,0.0065
3295.00,0.0064
3294.00,0.0064
3293.00,0.0063
3292.00,0.0062
3291.00,0.0062
3290.00,0.0061
3289.00,0.0060
3288.00,0.0060
3287.00,0.0059
3286.00,0.0059
3285.00,0.0059
3284.00,0.0059
3283.00,0.0058
3282.00,0.0058
3281.00,0.0058
3280.00,0.0058
3279.00,0.0058
3278.00,0.0057
3277.00,0.0057
3276.00,0.0057
3275.00,0.0057
3274.00,0.0056
3273.00,0.0056
3272.00,0.0056
3271.00,0.0056
3270.00,0.0056
3269.00,0.0056
3268.00,0.0055
3267.00,0.0055
3266.00,0.0055
3265.00,0.0055
3264.00,0.0054
3263.00,0.0054
3262.00,0.0053
3261.00,0.0053
3260.00,0.0053
3259.00,0.0052
3258.00,0.0052
3257.00,0.0052
3256.00,0.0052
3255.00,0.0052
3254.00,0.0051
3253.00,0.0051
3252.00,0.0052
3251.00,0.0052
3250.00,0.0052
3249.00,0.0052
3248.00,0.0051
3247.00,0.0051
3246.00,0.0050
3245.00,0.0050
3244.00,0.0050
3243.00,0.0050
3242.00,0.0050
3241.00,0.0050
3240.00,0.0050
3239.00,0.0050
3238.00,0.0050
3237.00,0.0050
3236.00,0.0050
3235.00,0.0049
3234.00,0.0049
3233.00,0.0049
3232.00,0.0049
3231.00,0.0049
3230.00,0.0050
3229.00,0.0050
3228.00,0.0051
3227.00,0.0050
3226.00,0.0050
3225.00,0.0050
3224.00,0.0050
3223.00,0.0050
3222.00,0.0050
3221.00,0.0051
3220.00,0.0051
3219.00,0.0051
3218.00,0.0051
3217.00,0.0052
3216.00,0.0052
3215.00,0.0052
3214.00,0.0053
3213.00,0.0053
3212.00,0.0052
3211.00,0.0052
3210.00,0.0051
3209.00,0.0051
3208.00,0.0051
3207.00,0.0051
3206.00,0.0051
3205.00,0.0052
3204.00,0.0052
3203.00,0.0052
3202.00,0.0052
3201.00,0.0052
3200.00,0.0053
3199.00,0.0053
3198.00,0.0053
3197.00,0.0053
3196.00,0.0053
3195.00,0.0052
3194.00,0.0052
3193.00,0.0052
3192.00,0.0051
3191.00,0.0051
3190.00,0.0051
3189.00,0.0051
3188.00,0.0051
3187.00,0.0051
3186.00,0.0050
3185.00,0.0050
3184.00,0.0049
3183.00,0.0049
3182.00,0.0048
3181.00,0.0048
3180.00,0.0048
3179.00,0.0048
3178.00,0.0047
3177.00,0.0047
3176.00,0.0047
3175.00,0.0047
3174.00,0.0047
3173.00,0.0047
3172.00,0.0047
3171.00,0.0047
3170.00,0.0047
3169.00,0.0046
3168.00,0.0045
3167.00,0.0045
3166.00,0.0044
3165.00,0.0044
3164.00,0.0045
3163.00,0.0045
3162.00,0.0045
3161.00,0.0045
3160.00,0.0045
3159.00,0.0044
3158.00,0.0044
3157.00,0.0044
3156.00,0.0044
3155.00,0.0044
3154.00,0.0044
3153.00,0.0044
3152.00,0.0044
3151.00,0.0044
3150.00,0.0044
3149.00,0.0045
3148.00,0.0045
3147.00,0.0044
3146.00,0.0044
3145.00,0.0043
3144.00,0.0043
3143.00,0.0043
3142.00,0.0042
3141.00,0.0042
3140.00,0.0042
3139.00,0.0042
3138.00,0.0041
3137.00,0.0041
3136.00,0.0041
3135.00,0.0041
3134.00,0.0040
3133.00,0.0040
3132.00,0.0040
3131.00,0.0040
3130.00,0.0040
3129.00,0.0040
3128.00,0.0040
3127.00,0.0040
3126.00,0.0040
3125.00,0.0039
3124.00,0.0039
3123.00,0.0039
3122.00,0.0038
3121.00,0.0038
3120.00,0.0037
3119.00,0.0037
3118.00,0.0037
3117.00,0.0037
3116.00,0.0037
3115.00,0.0037
3114.00,0.0036
3113.00,0.0036
3112.00,0.0036
3111.00,0.0036
3110.00,0.0036
3109.00,0.0036
3108.00,0.0035
3107.00,0.0035
3106.00,0.0036
3105.00,0.0036
3104.00,0.0036
3103.00,0.0036
3102.00,0.0035
3101.00,0.0035
3100.00,0.0035
3099.00,0.0035
3098.00,0.0036
3097.00,0.0036
3096.00,0.0036
3095.00,0.0035
3094.00,0.0035
3093.00,0.0035
3092.00,0.0035
3091.00,0.0035
3090.00,0.0034
3089.00,0.0034
3088.00,0.0034
3087.00,0.0034
3086.00,0.0034
3085.00,0.0033
3084.00,0.0033
3083.00,0.0034
3082.00,0.0034
3081.00,0.0034
3080.00,0.0034
3079.00,0.0034
3078.00,0.0034
3077.00,0.0034
3076.00,0.0034
3075.00,0.0035
3074.00,0.0035
3073.00,0.0035
3072.00,0.0035
3071.00,0.0035
3070.00,0.0035
3069.00,0.0035
3068.00,0.0035
3067.00,0.0035
3066.00,0.0035
3065.00,0.0036
3064.00,0.0036
3063.00,0.0036
3062.00,0.0036
3061.00,0.0037
3060.00,0.0037
3059.00,0.0037
3058.00,0.0037
3057.00,0.0037
3056.00,0.0037
3055.00,0.0037
3054.00,0.0037
3053.00,0.0037
3052.00,0.0038
3051.00,0.0038
3050.00,0.0038
3049.00,0.0038
3048.00,0.0038
3047.00,0.0039
3046.00,0.0039
3045.00,0.0039
3044.00,0.0039
3043.00,0.0039
3042.00,0.0040
3041.00,0.0040
3040.00,0.0041
3039.00,0.0041
3038.00,0.0041
3037.00,0.0041
3036.00,0.0041
3035.00,0.0041
3034.00,0.0041
3033.00,0.0042
3032.00,0.0042
3031.00,0.0042
3030.00,0.0042
3029.00,0.0042
3028.00,0.0043
3027.00,0.0043
3026.00,0.0044
3025.00,0.0045
3024.00,0.0045
3023.00,0.0046
3022.00,0.0046
3021.00,0.0047
3020.00,0.0048
3019.00,0.0048
3018.00,0.0049
3017.00,0.0049
3016.00,0.0049
3015.00,0.0049
3014.00,0.0050
3013.00,0.0051
3012.00,0.0051
3011.00,0.0052
3010.00,0.0053
3009.00,0.0054
3008.00,0.0054
3007.00,0.0054
3006.00,0.0054
3005.00,0.0055
3004.00,0.0056
3003.00,0.0057
3002.00,0.0058
3001.00,0.0060
3000.00,0.0061
2999.00,0.0062
2998.00,0.0064
2997.00,0.0067
2996.00,0.0070
2995.00,0.0073
2994.00,0.0077
2993.00,0.0081
2992.00,0.0085
2991.00,0.0090
2990.00,0.0096
2989.00,0.0102
2988.00,0.0108
2987.00,0.0115
2986.00,0.0122
2985.00,0.0129
2984.00,0.0137
2983.00,0.0146
2982.00,0.0159
2981.00,0.0176
2980.00,0.0196
2979.00,0.0219
2978.00,0.0245
2977.00,0.0274
2976.00,0.0307
2975.00,0.0343
2974.00,0.0385
2973.00,0.0432
2972.00,0.0485
2971.00,0.0547
2970.00,0.0615
2969.00,0.0691
2968.00,0.0773
2967.00,0.0859
2966.00,0.0949
2965.00,0.1039
2964.00,0.1127
2963.00,0.1206
2962.00,0.1273
2961.00,0.1324
2960.00,0.1362
2959.00,0.1392
2958.00,0.1421
2957.00,0.1459
2956.00,0.1512
2955.00,0.1583
2954.00,0.1670
2953.00,0.1764
2952.00,0.1852
2951.00,0.1915
2950.00,0.1940
2949.00,0.1917
2948.00,0.1847
2947.00,0.1738
2946.00,0.1608
2945.00,0.1471
2944.00,0.1344
2943.00,0.1236
2942.00,0.1153
2941.00,0.1094
2940.00,0.1061
2939.00,0.1050
2938.00,0.1058
2937.00,0.1085
2936.00,0.1127
2935.00,0.1186
2934.00,0.1258
2933.00,0.1345
2932.00,0.1443
2931.00,0.1552
2930.00,0.1670
2929.00,0.1793
2928.00,0.1918
2927.00,0.2042
2926.00,0.2164
2925.00,0.2284
2924.00,0.2403
2923.00,0.2522
2922.00,0.2641
2921.00,0.2757
2920.00,0.2860
2919.00,0.2938
2918.00,0.2975
2917.00,0.2962
2916.00,0.2898
2915.00,0.2793
2914.00,0.2664
2913.00,0.2527
2912.00,0.2397
2911.00,0.2282
2910.00,0.2182
2909.00,0.2095
2908.00,0.2018
2907.00,0.1945
2906.00,0.1873
2905.00,0.1801
2904.00,0.1729
2903.00,0.1657
2902.00,0.1586
2901.00,0.1518
2900.00,0.1452
2899.00,0.1390
2898.00,0.1332
2897.00,0.1278
2896.00,0.1230
2895.00,0.1188
2894.00,0.1153
2893.00,0.1125
2892.00,0.1104
2891.00,0.1088
2890.00,0.1077
2889.00,0.1071
2888.00,0.1068
2887.00,0.1069
2886.00,0.1072
2885.00,0.1079
2884.00,0.1090
2883.00,0.1105
2882.00,0.1124
2881.00,0.1144
2880.00,0.1164
2879.00,0.1180
2878.00,0.1188
2877.00,0.1187
2876.00,0.1181
2875.00,0.1174
2874.00,0.1170
2873.00,0.1173
2872.00,0.1184
2871.00,0.1202
2870.00,0.1226
2869.00,0.1249
2868.00,0.1266
2867.00,0.1268
2866.00,0.1247
2865.00,0.1202
2864.00,0.1137
2863.00,0.1061
2862.00,0.0984
2861.00,0.0916
2860.00,0.0862
2859.00,0.0825
2858.00,0.0803
2857.00,0.0794
2856.00,0.0794
2855.00,0.0803
2854.00,0.0818
2853.00,0.0837
2852.00,0.0858
2851.00,0.0877
2850.00,0.0893
2849.00,0.0905
2848.00,0.0916
2847.00,0.0931
2846.00,0.0954
2845.00,0.0988
2844.00,0.1032
2843.00,0.1084
2842.00,0.1137
2841.00,0.1185
2840.00,0.1218
2839.00,0.1229
2838.00,0.1213
2837.00,0.1168
2836.00,0.1095
2835.00,0.1002
2834.00,0.0898
2833.00,0.0794
2832.00,0.0696
2831.00,0.0611
2830.00,0.0539
2829.00,0.0480
2828.00,0.0433
2827.00,0.0394
2826.00,0.0362
2825.00,0.0335
2824.00,0.0313
2823.00,0.0293
2822.00,0.0277
2821.00,0.0262
2820.00,0.0249
2819.00,0.0238
2818.00,0.0228
2817.00,0.0220
2816.00,0.0212
2815.00,0.0206
2814.00,0.0200
2813.00,0.0194
2812.00,0.0189
2811.00,0.0184
2810.00,0.0178
2809.00,0.0172
2808.00,0.0165
2807.00,0.0159
2806.00,0.0152
2805.00,0.0146
2804.00,0.0140
2803.00,0.0134
2802.00,0.0129
2801.00,0.0124
2800.00,0.0120
2799.00,0.0117
2798.00,0.0115
2797.00,0.0112
2796.00,0.0110
2795.00,0.0108
2794.00,0.0105
2793.00,0.0102
2792.00,0.0099
2791.00,0.0096
2790.00,0.0093
2789.00,0.0090
2788.00,0.0087
2787.00,0.0084
2786.00,0.0081
2785.00,0.0079
2784.00,0.0077
2783.00,0.0074
2782.00,0.0073
2781.00,0.0071
2780.00,0.0069
2779.00,0.0068
2778.00,0.0066
2777.00,0.0064
2776.00,0.0063
2775.00,0.0061
2774.00,0.0060
2773.00,0.0060
2772.00,0.0059
2771.00,0.0058
2770.00,0.0058
2769.00,0.0058
2768.00,0.0057
2767.00,0.0057
2766.00,0.0056
2765.00,0.0056
2764.00,0.0056
2763.00,0.0055
2762.00,0.0055
2761.00,0.0054
2760.00,0.0054
2759.00,0.0053
2758.00,0.0053
2757.00,0.0053
2756.00,0.0054
2755.00,0.0054
2754.00,0.0054
2753.00,0.0054
2752.00,0.0054
2751.00,0.0053
2750.00,0.0052
2749.00,0.0052
2748.00,0.0052
2747.00,0.0053
2746.00,0.0053
2745.00,0.0054
2744.00,0.0054
2743.00,0.0055
2742.00,0.0056
2741.00,0.0057
2740.00,0.0058
2739.00,0.0060
2738.00,0.0061
2737.00,0.0062
2736.00,0.0064
2735.00,0.0065
2734.00,0.0067
2733.00,0.0069
2732.00,0.0070
2731.00,0.0072
2730.00,0.0074
2729.00,0.0076
2728.00,0.0079
2727.00,0.0081
2726.00,0.0084
2725.00,0.0087
2724.00,0.0088
2723.00,0.0089
2722.00,0.0089
2721.00,0.0087
2720.00,0.0085
2719.00,0.0082
2718.00,0.0078
2717.00,0.0075
2716.00,0.0072
2715.00,0.0069
2714.00,0.0066
2713.00,0.0064
2712.00,0.0062
2711.00,0.0060
2710.00,0.0059
2709.00,0.0057
2708.00,0.0056
2707.00,0.0054
2706.00,0.0053
2705.00,0.0052
2704.00,0.0051
2703.00,0.0050
2702.00,0.0049
2701.00,0.0048
2700.00,0.0048
2699.00,0.0047
2698.00,0.0047
2697.00,0.0047
2696.00,0.0047
2695.00,0.0047
2694.00,0.0047
2693.00,0.0047
2692.00,0.0046
2691.00,0.0046
2690.00,0.0046
2689.00,0.0046
2688.00,0.0046
2687.00,0.0046
2686.00,0.0046
2685.00,0.0045
2684.00,0.0045
2683.00,0.0045
2682.00,0.0046
2681.00,0.0046
2680.00,0.0047
2679.00,0.0047
2678.00,0.0047
2677.00,0.0046
2676.00,0.0046
2675.00,0.0046
2674.00,0.0046
2673.00,0.0046
2672.00,0.0046
2671.00,0.0045
2670.00,0.0045
2669.00,0.0045
2668.00,0.0045
2667.00,0.0045
2666.00,0.0045
2665.00,0.0046
2664.00,0.0047
2663.00,0.0047
2662.00,0.0048
2661.00,0.0049
2660.00,0.0049
2659.00,0.0049
2658.00,0.0049
2657.00,0.0049
2656.00,0.0048
2655.00,0.0047
2654.00,0.0047
2653.00,0.0046
2652.00,0.0046
2651.00,0.0046
2650.00,0.0045
2649.00,0.0045
2648.00,0.0044
2647.00,0.0044
2646.00,0.0043
2645.00,0.0043
2644.00,0.0042
2643.00,0.0042
2642.00,0.0041
2641.00,0.0040
2640.00,0.0040
2639.00,0.0040
2638.00,0.0040
2637.00,0.0040
2636.00,0.0040
2635.00,0.0039
2634.00,0.0039
2633.00,0.0039
2632.00,0.0039
2631.00,0.0040
2630.00,0.0040
2629.00,0.0040
2628.00,0.0040
2627.00,0.0040
2626.00,0.0041
2625.00,0.0041
2624.00,0.0041
2623.00,0.0042
2622.00,0.0042
2621.00,0.0042
2620.00,0.0042
2619.00,0.0042
2618.00,0.0042
2617.00,0.0042
2616.00,0.0042
2615.00,0.0042
2614.00,0.0041
2613.00,0.0041
2612.00,0.0041
2611.00,0.0040
2610.00,0.0039
2609.00,0.0038
2608.00,0.0037
2607.00,0.0037
2606.00,0.0036
2605.00,0.0035
2604.00,0.0034
2603.00,0.0034
2602.00,0.0033
2601.00,0.0033
2600.00,0.0032
2599.00,0.0032
2598.00,0.0032
2597.00,0.0032
2596.00,0.0032
2595.00,0.0032
2594.00,0.0032
2593.00,0.0032
2592.00,0.0032
2591.00,0.0034
2590.00,0.0035
2589.00,0.0036
2588.00,0.0037
2587.00,0.0038
2586.00,0.0039
2585.00,0.0039
2584.00,0.0039
2583.00,0.0039
2582.00,0.0040
2581.00,0.0040
2580.00,0.0040
2579.00,0.0040
2578.00,0.0039
2577.00,0.0037
2576.00,0.0036
2575.00,0.0034
2574.00,0.0033
2573.00,0.0032
2572.00,0.0031
2571.00,0.0030
2570.00,0.0029
2569.00,0.0028
2568.00,0.0027
2567.00,0.0027
2566.00,0.0027
2565.00,0.0027
2564.00,0.0027
2563.00,0.0027
2562.00,0.0027
2561.00,0.0026
2560.00,0.0025
2559.00,0.0024
2558.00,0.0023
2557.00,0.0023
2556.00,0.0023
2555.00,0.0023
2554.00,0.0023
2553.00,0.0022
2552.00,0.0022
2551.00,0.0022
2550.00,0.0022
2549.00,0.0022
2548.00,0.0022
2547.00,0.0021
2546.00,0.0020
2545.00,0.0020
2544.00,0.0019
2543.00,0.0019
2542.00,0.0019
2541.00,0.0019
2540.00,0.0018
2539.00,0.0018
2538.00,0.0018
2537.00,0.0018
2536.00,0.0018
2535.00,0.0018
2534.00,0.0018
2533.00,0.0018
2532.00,0.0018
2531.00,0.0017
2530.00,0.0017
2529.00,0.0017
2528.00,0.0017
2527.00,0.0017
2526.00,0.0017
2525.00,0.0016
2524.00,0.0016
2523.00,0.0015
2522.00,0.0015
2521.00,0.0014
2520.00,0.0014
2519.00,0.0014
2518.00,0.0013
2517.00,0.0013
2516.00,0.0012
2515.00,0.0012
2514.00,0.0012
2513.00,0.0012
2512.00,0.0012
2511.00,0.0012
2510.00,0.0012
2509.00,0.0012
2508.00,0.0013
2507.00,0.0013
2506.00,0.0013
2505.00,0.0013
2504.00,0.0012
2503.00,0.0011
2502.00,0.0011
2501.00,0.0011
2500.00,0.0011
2499.00,0.0012
2498.00,0.0012
2497.00,0.0013
2496.00,0.0013
2495.00,0.0013
2494.00,0.0012
2493.00,0.0011
2492.00,0.0011
2491.00,0.0011
2490.00,0.0011
2489.00,0.0011
2488.00,0.0010
2487.00,0.0010
2486.00,0.0010
2485.00,0.0010
2484.00,0.0010
2483.00,0.0010
2482.00,0.0010
2481.00,0.0010
2480.00,0.0010
2479.00,0.0010
2478.00,0.0009
2477.00,0.0009
2476.00,0.0010
2475.00,0.0010
2474.00,0.0011
2473.00,0.0011
2472.00,0.0010
2471.00,0.0010
2470.00,0.0009
2469.00,0.0009
2468.00,0.0009
2467.00,0.0009
2466.00,0.0009
2465.00,0.0009
2464.00,0.0010
2463.00,0.0010
2462.00,0.0011
2461.00,0.0011
2460.00,0.0011
2459.00,0.0011
2458.00,0.0011
2457.00,0.0011
2456.00,0.0011
2455.00,0.0011
2454.00,0.0012
2453.00,0.0013
2452.00,0.0013
2451.00,0.0012
2450.00,0.0012
2449.00,0.0011
2448.00,0.0011
2447.00,0.0011
2446.00,0.0011
2445.00,0.0011
2444.00,0.0011
2443.00,0.0011
2442.00,0.0011
2441.00,0.0011
2440.00,0.0011
2439.00,0.0011
2438.00,0.0011
2437.00,0.0011
2436.00,0.0011
2435.00,0.0012
2434.00,0.0013
2433.00,0.0013
2432.00,0.0013
2431.00,0.0014
2430.00,0.0013
2429.00,0.0013
2428.00,0.0013
2427.00,0.0013
2426.00,0.0013
2425.00,0.0012
2424.00,0.0012
2423.00,0.0012
2422.00,0.0011
2421.00,0.0011
2420.00,0.0010
2419.00,0.0010
2418.00,0.0010
2417.00,0.0010
2416.00,0.0011
2415.00,0.0011
2414.00,0.0012
2413.00,0.0012
2412.00,0.0012
2411.00,0.0012
2410.00,0.0011
2409.00,0.0011
2408.00,0.0010
2407.00,0.0010
2406.00,0.0010
2405.00,0.0010
2404.00,0.0010
2403.00,0.0010
2402.00,0.0010
2401.00,0.0010
2400.00,0.0009
2399.00,0.0009
2398.00,0.0009
2397.00,0.0009
2396.00,0.0009
2395.00,0.0008
2394.00,0.0008
2393.00,0.0009
2392.00,0.0009
2391.00,0.0009
2390.00,0.0009
2389.00,0.0009
2388.00,0.0009
2387.00,0.0009
2386.00,0.0008
2385.00,0.0008
2384.00,0.0008
2383.00,0.0007
2382.00,0.0006
2381.00,0.0006
2380.00,0.0005
2379.00,0.0005
2378.00,0.0005
2377.00,0.0005
2376.00,0.0005
2375.00,0.0005
2374.00,0.0006
2373.00,0.0007
2372.00,0.0007
2371.00,0.0006
2370.00,0.0005
2369.00,0.0004
2368.00,0.0004
2367.00,0.0005
2366.00,0.0005
2365.00,0.0006
2364.00,0.0006
2363.00,0.0006
2362.00,0.0006
2361.00,0.0007
2360.00,0.0006
2359.00,0.0006
2358.00,0.0007
2357.00,0.0007
2356.00,0.0007
2355.00,0.0007
2354.00,0.0007
2353.00,0.0007
2352.00,0.0007
2351.00,0.0006
2350.00,0.0007
2349.00,0.0007
2348.00,0.0007
2347.00,0.0007
2346.00,0.0007
2345.00,0.0006
2344.00,0.0007
2343.00,0.0007
2342.00,0.0008
2341.00,0.0009
2340.00,0.0009
2339.00,0.0009
2338.00,0.0009
2337.00,0.0009
2336.00,0.0008
2335.00,0.0008
2334.00,0.0008
2333.00,0.0008
2332.00,0.0009
2331.00,0.0009
2330.00,0.0010
2329.00,0.0011
2328.00,0.0013
2327.00,0.0016
2326.00,0.0019
2325.00,0.0022
2324.00,0.0023
2323.00,0.0022
2322.00,0.0019
2321.00,0.0017
2320.00,0.0015
2319.00,0.0014
2318.00,0.0014
2317.00,0.0014
2316.00,0.0014
2315.00,0.0013
2314.00,0.0012
2313.00,0.0011
2312.00,0.0010
2311.00,0.0010
2310.00,0.0010
2309.00,0.0011
2308.00,0.0011
2307.00,0.0011
2306.00,0.0011
2305.00,0.0012
2304.00,0.0012
2303.00,0.0012
2302.00,0.0012
2301.00,0.0012
2300.00,0.0012
2299.00,0.0011
2298.00,0.0011
2297.00,0.0012
2296.00,0.0013
2295.00,0.0014
2294.00,0.0014
2293.00,0.0015
2292.00,0.0016
2291.00,0.0017
2290.00,0.0018
2289.00,0.0019
2288.00,0.0019
2287.00,0.0019
2286.00,0.0019
2285.00,0.0018
2284.00,0.0018
2283.00,0.0018
2282.00,0.0017
2281.00,0.0016
2280.00,0.0015
2279.00,0.0015
2278.00,0.0015
2277.00,0.0014
2276.00,0.0014
2275.00,0.0014
2274.00,0.0015
2273.00,0.0016
2272.00,0.0016
2271.00,0.0016
2270.00,0.0016
2269.00,0.0016
2268.00,0.0016
2267.00,0.0015
2266.00,0.0014
2265.00,0.0013
2264.00,0.0012
2263.00,0.0012
2262.00,0.0012
2261.00,0.0013
2260.00,0.0015
2259.00,0.0017
2258.00,0.0018
2257.00,0.0018
2256.00,0.0016
2255.00,0.0013
2254.00,0.0010
2253.00,0.0009
2252.00,0.0010
2251.00,0.0011
2250.00,0.0012
2249.00,0.0012
2248.00,0.0011
2247.00,0.0009
2246.00,0.0008
2245.00,0.0008
2244.00,0.0008
2243.00,0.0009
2242.00,0.0010
2241.00,0.0010
2240.00,0.0010
2239.00,0.0010
2238.00,0.0010
2237.00,0.0010
2236.00,0.0011
2235.00,0.0012
2234.00,0.0012
2233.00,0.0011
2232.00,0.0011
2231.00,0.0011
2230.00,0.0010
2229.00,0.0010
2228.00,0.0009
2227.00,0.0009
2226.00,0.0009
2225.00,0.0008
2224.00,0.0008
2223.00,0.0008
2222.00,0.0008
2221.00,0.0006
2220.00,0.0004
2219.00,0.0003
2218.00,0.0003
2217.00,0.0005
2216.00,0.0006
2215.00,0.0005
2214.00,0.0005
2213.00,0.0005
2212.00,0.0005
2211.00,0.0006
2210.00,0.0007
2209.00,0.0007
2208.00,0.0008
2207.00,0.0008
2206.00,0.0009
2205.00,0.0009
2204.00,0.0010
2203.00,0.0011
2202.00,0.0012
2201.00,0.0013
2200.00,0.0013
2199.00,0.0012
2198.00,0.0012
2197.00,0.0011
2196.00,0.0011
2195.00,0.0011
2194.00,0.0011
2193.00,0.0012
2192.00,0.0011
2191.00,0.0011
2190.00,0.0011
2189.00,0.0012
2188.00,0.0014
2187.00,0.0015
2186.00,0.0015
2185.00,0.0014
2184.00,0.0011
2183.00,0.0008
2182.00,0.0006
2181.00,0.0004
2180.00,0.0004
2179.00,0.0004
2178.00,0.0005
2177.00,0.0005
2176.00,0.0004
2175.00,0.0004
2174.00,0.0004
2173.00,0.0006
2172.00,0.0009
2171.00,0.0010
2170.00,0.0011
2169.00,0.0011
2168.00,0.0011
2167.00,0.0013
2166.00,0.0017
2165.00,0.0021
2164.00,0.0024
2163.00,0.0025
2162.00,0.0023
2161.00,0.0015
2160.00,0.0002
2159.00,-0.0012
2158.00,-0.0024
2157.00,-0.0030
2156.00,-0.0031
2155.00,-0.0028
2154.00,-0.0022
2153.00,-0.0016
2152.00,-0.0011
2151.00,-0.0009
2150.00,-0.0009
2149.00,-0.0010
2148.00,-0.0011
2147.00,-0.0012
2146.00,-0.0013
2145.00,-0.0012
2144.00,-0.0011
2143.00,-0.0010
2142.00,-0.0009
2141.00,-0.0008
2140.00,-0.0008
2139.00,-0.0009
2138.00,-0.0011
2137.00,-0.0014
2136.00,-0.0016
2135.00,-0.0017
2134.00,-0.0016
2133.00,-0.0015
2132.00,-0.0013
2131.00,-0.0011
2130.00,-0.0010
2129.00,-0.0008
2128.00,-0.0007
2127.00,-0.0006
2126.00,-0.0005
2125.00,-0.0003
2124.00,-0.0002
2123.00,-0.0001
2122.00,-0.0001
2121.00,-0.0001
2120.00,-0.0000
2119.00,0.0001
2118.00,0.0002
2117.00,0.0003
2116.00,0.0003
2115.00,0.0004
2114.00,0.0005
2113.00,0.0004
2112.00,0.0003
2111.00,0.0002
2110.00,0.0001
2109.00,-0.0000
2108.00,-0.0001
2107.00,-0.0000
2106.00,0.0001
2105.00,0.0002
2104.00,0.0002
2103.00,0.0002
2102.00,0.0003
2101.00,0.0003
2100.00,0.0003
2099.00,0.0002
2098.00,0.0000
2097.00,-0.0001
2096.00,-0.0003
2095.00,-0.0004
2094.00,-0.0004
2093.00,-0.0003
2092.00,-0.0001
2091.00,0.0000
2090.00,0.0001
2089.00,0.0003
2088.00,0.0003
2087.00,0.0003
2086.00,0.0003
2085.00,0.0003
2084.00,0.0003
2083.00,0.0004
2082.00,0.0004
2081.00,0.0005
2080.00,0.0005
2079.00,0.0006
2078.00,0.0006
2077.00,0.0006
2076.00,0.0005
2075.00,0.0004
2074.00,0.0003
2073.00,0.0002
2072.00,0.0002
2071.00,0.0002
2070.00,0.0001
2069.00,0.0001
2068.00,0.0002
2067.00,0.0002
2066.00,0.0002
2065.00,0.0001
2064.00,-0.0000
2063.00,-0.0001
2062.00,-0.0001
2061.00,-0.0001
2060.00,-0.0001
2059.00,-0.0001
2058.00,-0.0001
2057.00,-0.0000
2056.00,0.0002
2055.00,0.0004
2054.00,0.0007
2053.00,0.0012
2052.00,0.0016
2051.00,0.0018
2050.00,0.0017
2049.00,0.0013
2048.00,0.0009
2047.00,0.0006
2046.00,0.0004
2045.00,0.0003
2044.00,0.0002
2043.00,0.0000
2042.00,-0.0000
2041.00,-0.0001
2040.00,-0.0000
2039.00,0.0001
2038.00,0.0003
2037.00,0.0005
2036.00,0.0004
2035.00,0.0001
2034.00,-0.0002
2033.00,-0.0003
2032.00,-0.0002
2031.00,-0.0001
2030.00,-0.0001
2029.00,-0.0001
2028.00,-0.0002
2027.00,-0.0003
2026.00,-0.0004
2025.00,-0.0006
2024.00,-0.0007
2023.00,-0.0009
2022.00,-0.0011
2021.00,-0.0011
2020.00,-0.0010
2019.00,-0.0010
2018.00,-0.0011
2017.00,-0.0011
2016.00,-0.0010
2015.00,-0.0007
2014.00,-0.0003
2013.00,0.0000
2012.00,0.0002
2011.00,0.0001
2010.00,-0.0001
2009.00,-0.0004
2008.00,-0.0007
2007.00,-0.0008
2006.00,-0.0008
2005.00,-0.0008
2004.00,-0.0009
2003.00,-0.0012
2002.00,-0.0016
2001.00,-0.0018
2000.00,-0.0017
1999.00,-0.0016
1998.00,-0.0014
1997.00,-0.0014
1996.00,-0.0012
1995.00,-0.0010
1994.00,-0.0009
1993.00,-0.0008
1992.00,-0.0007
1991.00,-0.0007
1990.00,-0.0007
1989.00,-0.0006
1988.00,-0.0005
1987.00,-0.0003
1986.00,-0.0001
1985.00,0.0002
1984.00,0.0004
1983.00,0.0006
1982.00,0.0008
1981.00,0.0009
1980.00,0.0010
1979.00,0.0008
1978.00,0.0002
1977.00,-0.0004
1976.00,-0.0009
1975.00,-0.0011
1974.00,-0.0011
1973.00,-0.0010
1972.00,-0.0009
1971.00,-0.0010
1970.00,-0.0010
1969.00,-0.0010
1968.00,-0.0011
1967.00,-0.0012
1966.00,-0.0013
1965.00,-0.0014
1964.00,-0.0015
1963.00,-0.0015
1962.00,-0.0016
1961.00,-0.0016
1960.00,-0.0016
1959.00,-0.0014
1958.00,-0.0012
1957.00,-0.0011
1956.00,-0.0009
1955.00,-0.0009
1954.00,-0.0009
1953.00,-0.0008
1952.00,-0.0008
1951.00,-0.0008
1950.00,-0.0009
1949.00,-0.0010
1948.00,-0.0011
1947.00,-0.0012
1946.00,-0.0011
1945.00,-0.0010
1944.00,-0.0008
1943.00,-0.0007
1942.00,-0.0007
1941.00,-0.0007
1940.00,-0.0006
1939.00,-0.0006
1938.00,-0.0006
1937.00,-0.0007
1936.00,-0.0007
1935.00,-0.0008
1934.00,-0.0008
1933.00,-0.0007
1932.00,-0.0007
1931.00,-0.0007
1930.00,-0.0007
1929.00,-0.0007
1928.00,-0.0007
1927.00,-0.0006
1926.00,-0.0006
1925.00,-0.0005
1924.00,-0.0005
1923.00,-0.0005
1922.00,-0.0005
1921.00,-0.0004
1920.00,-0.0002
1919.00,-0.0000
1918.00,0.0001
1917.00,0.0000
1916.00,-0.0001
1915.00,-0.0003
1914.00,-0.0003
1913.00,-0.0003
1912.00,-0.0002
1911.00,-0.0000
1910.00,0.0001
1909.00,0.0002
1908.00,0.0002
1907.00,0.0001
1906.00,0.0001
1905.00,0.0001
1904.00,0.0001
1903.00,0.0002
1902.00,0.0002
1901.00,0.0002
1900.00,0.0002
1899.00,0.0001
1898.00,-0.0000
1897.00,-0.0001
1896.00,-0.0000
1895.00,0.0001
1894.00,0.0001
1893.00,0.0001
1892.00,0.0000
1891.00,0.0000
1890.00,0.0001
1889.00,0.0002
1888.00,0.0003
1887.00,0.0003
1886.00,0.0003
1885.00,0.0003
1884.00,0.0002
1883.00,0.0001
1882.00,0.0001
1881.00,0.0001
1880.00,0.0001
1879.00,0.0001
1878.00,0.0001
1877.00,0.0001
1876.00,0.0000
1875.00,0.0000
1874.00,-0.0000
1873.00,-0.0000
1872.00,0.0000
1871.00,0.0001
1870.00,0.0001
1869.00,0.0002
1868.00,0.0003
1867.00,0.0003
1866.00,0.0003
1865.00,0.0003
1864.00,0.0003
1863.00,0.0002
1862.00,0.0001
1861.00,0.0001
1860.00,0.0000
1859.00,0.0001
1858.00,0.0002
1857.00,0.0003
1856.00,0.0003
1855.00,0.0002
1854.00,0.0002
1853.00,0.0002
1852.00,0.0003
1851.00,0.0004
1850.00,0.0004
1849.00,0.0004
1848.00,0.0003
1847.00,0.0002
1846.00,0.0001
1845.00,0.0001
1844.00,0.0001
1843.00,0.0002
1842.00,0.0002
1841.00,0.0002
1840.00,0.0003
1839.00,0.0004
1838.00,0.0004
1837.00,0.0005
1836.00,0.0006
1835.00,0.0006
1834.00,0.0006
1833.00,0.0005
1832.00,0.0005
1831.00,0.0005
1830.00,0.0006
1829.00,0.0006
1828.00,0.0006
1827.00,0.0006
1826.00,0.0006
1825.00,0.0006
1824.00,0.0006
1823.00,0.0006
1822.00,0.0005
1821.00,0.0004
1820.00,0.0004
1819.00,0.0004
1818.00,0.0004
1817.00,0.0004
1816.00,0.0003
1815.00,0.0003
1814.00,0.0003
1813.00,0.0003
1812.00,0.0003
1811.00,0.0004
1810.00,0.0004
1809.00,0.0005
1808.00,0.0006
1807.00,0.0006
1806.00,0.0007
1805.00,0.0007
1804.00,0.0008
1803.00,0.0007
1802.00,0.0007
1801.00,0.0007
1800.00,0.0007
1799.00,0.0007
1798.00,0.0007
1797.00,0.0007
1796.00,0.0007
1795.00,0.0007
1794.00,0.0007
1793.00,0.0008
1792.00,0.0009
1791.00,0.0009
1790.00,0.0009
1789.00,0.0009
1788.00,0.0009
1787.00,0.0009
1786.00,0.0010
1785.00,0.0011
1784.00,0.0011
1783.00,0.0011
1782.00,0.0010
1781.00,0.0010
1780.00,0.0010
1779.00,0.0010
1778.00,0.0010
1777.00,0.0010
1776.00,0.0010
1775.00,0.0010
1774.00,0.0010
1773.00,0.0010
1772.00,0.0011
1771.00,0.0011
1770.00,0.0012
1769.00,0.0013
1768.00,0.0013
1767.00,0.0013
1766.00,0.0012
1765.00,0.0012
1764.00,0.0012
1763.00,0.0013
1762.00,0.0014
1761.00,0.0015
1760.00,0.0015
1759.00,0.0016
1758.00,0.0016
1757.00,0.0017
1756.00,0.0018
1755.00,0.0018
1754.00,0.0019
1753.00,0.0019
1752.00,0.0021
1751.00,0.0022
1750.00,0.0023
1749.00,0.0024
1748.00,0.0025
1747.00,0.0026
1746.00,0.0027
1745.00,0.0028
1744.00,0.0030
1743.00,0.0031
1742.00,0.0032
1741.00,0.0034
1740.00,0.0035
1739.00,0.0036
1738.00,0.0036
1737.00,0.0037
1736.00,0.0037
1735.00,0.0037
1734.00,0.0036
1733.00,0.0036
1732.00,0.0036
1731.00,0.0037
1730.00,0.0037
1729.00,0.0037
1728.00,0.0037
1727.00,0.0036
1726.00,0.0035
1725.00,0.0035
1724.00,0.0034
1723.00,0.0034
1722.00,0.0034
1721.00,0.0033
1720.00,0.0033
1719.00,0.0033
1718.00,0.0033
1717.00,0.0033
1716.00,0.0033
1715.00,0.0032
1714.00,0.0032
1713.00,0.0031
1712.00,0.0030
1711.00,0.0029
1710.00,0.0029
1709.00,0.0029
1708.00,0.0029
1707.00,0.0029
1706.00,0.0030
1705.00,0.0030
1704.00,0.0031
1703.00,0.0032
1702.00,0.0033
1701.00,0.0035
1700.00,0.0036
1699.00,0.0036
1698.00,0.0036
1697.00,0.0037
1696.00,0.0038
1695.00,0.0040
1694.00,0.0040
1693.00,0.0040
1692.00,0.0040
1691.00,0.0041
1690.00,0.0041
1689.00,0.0042
1688.00,0.0043
1687.00,0.0044
1686.00,0.0045
1685.00,0.0047
1684.00,0.0049
1683.00,0.0051
1682.00,0.0051
1681.00,0.0052
1680.00,0.0053
1679.00,0.0054
1678.00,0.0056
1677.00,0.0057
1676.00,0.0059
1675.00,0.0060
1674.00,0.0060
1673.00,0.0061
1672.00,0.0061
1671.00,0.0062
1670.00,0.0064
1669.00,0.0065
1668.00,0.0066
1667.00,0.0066
1666.00,0.0067
1665.00,0.0068
1664.00,0.0069
1663.00,0.0070
1662.00,0.0070
1661.00,0.0071
1660.00,0.0071
1659.00,0.0071
1658.00,0.0071
1657.00,0.0071
1656.00,0.0072
1655.00,0.0073
1654.00,0.0073
1653.00,0.0074
1652.00,0.0075
1651.00,0.0076
1650.00,0.0076
1649.00,0.0077
1648.00,0.0078
1647.00,0.0080
1646.00,0.0080
1645.00,0.0081
1644.00,0.0081
1643.00,0.0081
1642.00,0.0081
1641.00,0.0082
1640.00,0.0083
1639.00,0.0084
1638.00,0.0085
1637.00,0.0086
1636.00,0.0086
1635.00,0.0085
1634.00,0.0084
1633.00,0.0082
1632.00,0.0081
1631.00,0.0079
1630.00,0.0078
1629.00,0.0076
1628.00,0.0075
1627.00,0.0074
1626.00,0.0073
1625.00,0.0073
1624.00,0.0072
1623.00,0.0071
1622.00,0.0069
1621.00,0.0068
1620.00,0.0068
1619.00,0.0067
1618.00,0.0067
1617.00,0.0067
1616.00,0.0066
1615.00,0.0066
1614.00,0.0065
1613.00,0.0065
1612.00,0.0065
1611.00,0.0065
1610.00,0.0064
1609.00,0.0064
1608.00,0.0064
1607.00,0.0064
1606.00,0.0063
1605.00,0.0063
1604.00,0.0064
1603.00,0.0064
1602.00,0.0063
1601.00,0.0063
1600.00,0.0063
1599.00,0.0063
1598.00,0.0062
1597.00,0.0062
1596.00,0.0061
1595.00,0.0061
1594.00,0.0062
1593.00,0.0062
1592.00,0.0062
1591.00,0.0063
1590.00,0.0063
1589.00,0.0064
1588.00,0.0065
1587.00,0.0066
1586.00,0.0067
1585.00,0.0068
1584.00,0.0070
1583.00,0.0071
1582.00,0.0073
1581.00,0.0076
1580.00,0.0078
1579.00,0.0079
1578.00,0.0080
1577.00,0.0082
1576.00,0.0083
1575.00,0.0083
1574.00,0.0082
1573.00,0.0082
1572.00,0.0082
1571.00,0.0082
1570.00,0.0082
1569.00,0.0081
1568.00,0.0081
1567.00,0.0080
1566.00,0.0080
1565.00,0.0079
1564.00,0.0078
1563.00,0.0077
1562.00,0.0077
1561.00,0.0077
1560.00,0.0077
1559.00,0.0076
1558.00,0.0076
1557.00,0.0076
1556.00,0.0078
1555.00,0.0079
1554.00,0.0080
1553.00,0.0081
1552.00,0.0081
1551.00,0.0082
1550.00,0.0083
1549.00,0.0084
1548.00,0.0086
1547.00,0.0087
1546.00,0.0088
1545.00,0.0090
1544.00,0.0093
1543.00,0.0094
1542.00,0.0095
1541.00,0.0094
1540.00,0.0093
1539.00,0.0090
1538.00,0.0087
1537.00,0.0085
1536.00,0.0084
1535.00,0.0081
1534.00,0.0078
1533.00,0.0074
1532.00,0.0072
1531.00,0.0070
1530.00,0.0068
1529.00,0.0068
1528.00,0.0067
1527.00,0.0067
1526.00,0.0066
1525.00,0.0066
1524.00,0.0065
1523.00,0.0065
1522.00,0.0064
1521.00,0.0065
1520.00,0.0066
1519.00,0.0066
1518.00,0.0066
1517.00,0.0066
1516.00,0.0066
1515.00,0.0066
1514.00,0.0066
1513.00,0.0067
1512.00,0.0068
1511.00,0.0068
1510.00,0.0069
1509.00,0.0069
1508.00,0.0070
1507.00,0.0071
1506.00,0.0071
1505.00,0.0072
1504.00,0.0073
1503.00,0.0074
1502.00,0.0075
1501.00,0.0077
1500.00,0.0080
1499.00,0.0082
1498.00,0.0084
1497.00,0.0087
1496.00,0.0091
1495.00,0.0092
1494.00,0.0094
1493.00,0.0097
1492.00,0.0101
1491.00,0.0106
1490.00,0.0110
1489.00,0.0115
1488.00,0.0121
1487.00,0.0125
1486.00,0.0130
1485.00,0.0136
1484.00,0.0143
1483.00,0.0150
1482.00,0.0160
1481.00,0.0171
1480.00,0.0184
1479.00,0.0197
1478.00,0.0212
1477.00,0.0233
1476.00,0.0258
1475.00,0.0288
1474.00,0.0329
1473.00,0.0387
1472.00,0.0455
1471.00,0.0521
1470.00,0.0583
1469.00,0.0649
1468.00,0.0720
1467.00,0.0798
1466.00,0.0886
1465.00,0.0982
1464.00,0.1065
1463.00,0.1121
1462.00,0.1156
1461.00,0.1178
1460.00,0.1193
1459.00,0.1202
1458.00,0.1208
1457.00,0.1211
1456.00,0.1206
1455.00,0.1195
1454.00,0.1182
1453.00,0.1166
1452.00,0.1141
1451.00,0.1106
1450.00,0.1058
1449.00,0.0989
1448.00,0.0900
1447.00,0.0804
1446.00,0.0717
1445.00,0.0642
1444.00,0.0579
1443.00,0.0527
1442.00,0.0487
1441.00,0.0460
1440.00,0.0443
1439.00,0.0436
1438.00,0.0439
1437.00,0.0443
1436.00,0.0435
1435.00,0.0412
1434.00,0.0377
1433.00,0.0333
1432.00,0.0288
1431.00,0.0247
1430.00,0.0216
1429.00,0.0192
1428.00,0.0176
1427.00,0.0166
1426.00,0.0160
1425.00,0.0154
1424.00,0.0148
1423.00,0.0145
1422.00,0.0143
1421.00,0.0141
1420.00,0.0138
1419.00,0.0135
1418.00,0.0133
1417.00,0.0129
1416.00,0.0126
1415.00,0.0124
1414.00,0.0123
1413.00,0.0121
1412.00,0.0118
1411.00,0.0117
1410.00,0.0116
1409.00,0.0115
1408.00,0.0114
1407.00,0.0113
1406.00,0.0113
1405.00,0.0113
1404.00,0.0112
1403.00,0.0112
1402.00,0.0114
1401.00,0.0114
1400.00,0.0114
1399.00,0.0115
1398.00,0.0117
1397.00,0.0119
1396.00,0.0120
1395.00,0.0123
1394.00,0.0127
1393.00,0.0131
1392.00,0.0135
1391.00,0.0142
1390.00,0.0152
1389.00,0.0166
1388.00,0.0185
1387.00,0.0215
1386.00,0.0255
1385.00,0.0307
1384.00,0.0379
1383.00,0.0482
1382.00,0.0622
1381.00,0.0805
1380.00,0.1038
1379.00,0.1315
1378.00,0.1596
1377.00,0.1819
1376.00,0.1915
1375.00,0.1840
1374.00,0.1618
1373.00,0.1337
1372.00,0.1076
1371.00,0.0860
1370.00,0.0687
1369.00,0.0556
1368.00,0.0466
1367.00,0.0411
1366.00,0.0382
1365.00,0.0371
1364.00,0.0375
1363.00,0.0390
1362.00,0.0413
1361.00,0.0437
1360.00,0.0456
1359.00,0.0462
1358.00,0.0451
1357.00,0.0425
1356.00,0.0387
1355.00,0.0345
1354.00,0.0305
1353.00,0.0271
1352.00,0.0244
1351.00,0.0221
1350.00,0.0203
1349.00,0.0188
1348.00,0.0176
1347.00,0.0166
1346.00,0.0157
1345.00,0.0149
1344.00,0.0143
1343.00,0.0138
1342.00,0.0133
1341.00,0.0130
1340.00,0.0128
1339.00,0.0126
1338.00,0.0124
1337.00,0.0123
1336.00,0.0124
1335.00,0.0126
1334.00,0.0129
1333.00,0.0133
1332.00,0.0137
1331.00,0.0141
1330.00,0.0142
1329.00,0.0142
1328.00,0.0139
1327.00,0.0135
1326.00,0.0129
1325.00,0.0123
1324.00,0.0118
1323.00,0.0113
1322.00,0.0109
1321.00,0.0106
1320.00,0.0105
1319.00,0.0103
1318.00,0.0101
1317.00,0.0100
1316.00,0.0098
1315.00,0.0098
1314.00,0.0097
1313.00,0.0098
1312.00,0.0098
1311.00,0.0100
1310.00,0.0104
1309.00,0.0111
1308.00,0.0120
1307.00,0.0131
1306.00,0.0141
1305.00,0.0147
1304.00,0.0149
1303.00,0.0147
1302.00,0.0142
1301.00,0.0138
1300.00,0.0136
1299.00,0.0136
1298.00,0.0136
1297.00,0.0137
1296.00,0.0137
1295.00,0.0135
1294.00,0.0131
1293.00,0.0127
1292.00,0.0123
1291.00,0.0118
1290.00,0.0114
1289.00,0.0109
1288.00,0.0106
1287.00,0.0103
1286.00,0.0100
1285.00,0.0098
1284.00,0.0097
1283.00,0.0095
1282.00,0.0094
1281.00,0.0093
1280.00,0.0092
1279.00,0.0091
1278.00,0.0090
1277.00,0.0089
1276.00,0.0088
1275.00,0.0088
1274.00,0.0088
1273.00,0.0088
1272.00,0.0088
1271.00,0.0089
1270.00,0.0090
1269.00,0.0092
1268.00,0.0094
1267.00,0.0096
1266.00,0.0099
1265.00,0.0102
1264.00,0.0105
1263.00,0.0108
1262.00,0.0111
1261.00,0.0115
1260.00,0.0120
1259.00,0.0125
1258.00,0.0130
1257.00,0.0135
1256.00,0.0136
1255.00,0.0133
1254.00,0.0127
1253.00,0.0119
1252.00,0.0110
1251.00,0.0104
1250.00,0.0098
1249.00,0.0094
1248.00,0.0091
1247.00,0.0089
1246.00,0.0088
1245.00,0.0087
1244.00,0.0086
1243.00,0.0085
1242.00,0.0083
1241.00,0.0082
1240.00,0.0080
1239.00,0.0080
1238.00,0.0079
1237.00,0.0080
1236.00,0.0080
1235.00,0.0081
1234.00,0.0081
1233.00,0.0082
1232.00,0.0082
1231.00,0.0082
1230.00,0.0083
1229.00,0.0084
1228.00,0.0086
1227.00,0.0089
1226.00,0.0091
1225.00,0.0094
1224.00,0.0097
1223.00,0.0100
1222.00,0.0104
1221.00,0.0108
1220.00,0.0110
1219.00,0.0112
1218.00,0.0112
1217.00,0.0110
1216.00,0.0107
1215.00,0.0104
1214.00,0.0100
1213.00,0.0097
1212.00,0.0095
1211.00,0.0093
1210.00,0.0092
1209.00,0.0091
1208.00,0.0090
1207.00,0.0089
1206.00,0.0088
1205.00,0.0087
1204.00,0.0087
1203.00,0.0086
1202.00,0.0086
1201.00,0.0086
1200.00,0.0086
1199.00,0.0086
1198.00,0.0086
1197.00,0.0086
1196.00,0.0086
1195.00,0.0086
1194.00,0.0086
1193.00,0.0087
1192.00,0.0087
1191.00,0.0087
1190.00,0.0087
1189.00,0.0087
1188.00,0.0086
1187.00,0.0086
1186.00,0.0087
1185.00,0.0087
1184.00,0.0088
1183.00,0.0089
1182.00,0.0090
1181.00,0.0093
1180.00,0.0096
1179.00,0.0100
1178.00,0.0105
1177.00,0.0112
1176.00,0.0122
1175.00,0.0135
1174.00,0.0153
1173.00,0.0175
1172.00,0.0201
1171.00,0.0231
1170.00,0.0261
1169.00,0.0287
1168.00,0.0302
1167.00,0.0305
1166.00,0.0297
1165.00,0.0282
1164.00,0.0264
1163.00,0.0248
1162.00,0.0234
1161.00,0.0222
1160.00,0.0213
1159.00,0.0205
1158.00,0.0200
1157.00,0.0197
1156.00,0.0195
1155.00,0.0194
1154.00,0.0193
1153.00,0.0191
1152.00,0.0187
1151.00,0.0181
1150.00,0.0173
1149.00,0.0163
1148.00,0.0154
1147.00,0.0146
1146.00,0.0139
1145.00,0.0133
1144.00,0.0126
1143.00,0.0120
1142.00,0.0113
1141.00,0.0107
1140.00,0.0102
1139.00,0.0098
1138.00,0.0094
1137.00,0.0091
1136.00,0.0089
1135.00,0.0089
1134.00,0.0088
1133.00,0.0088
1132.00,0.0087
1131.00,0.0087
1130.00,0.0087
1129.00,0.0089
1128.00,0.0090
1127.00,0.0092
1126.00,0.0093
1125.00,0.0094
1124.00,0.0094
1123.00,0.0095
1122.00,0.0096
1121.00,0.0097
1120.00,0.0099
1119.00,0.0101
1118.00,0.0103
1117.00,0.0105
1116.00,0.0106
1115.00,0.0107
1114.00,0.0108
1113.00,0.0110
1112.00,0.0112
1111.00,0.0115
1110.00,0.0119
1109.00,0.0124
1108.00,0.0128
1107.00,0.0134
1106.00,0.0140
1105.00,0.0146
1104.00,0.0151
1103.00,0.0154
1102.00,0.0153
1101.00,0.0150
1100.00,0.0144
1099.00,0.0138
1098.00,0.0132
1097.00,0.0126
1096.00,0.0120
1095.00,0.0116
1094.00,0.0112
1093.00,0.0110
1092.00,0.0108
1091.00,0.0107
1090.00,0.0105
1089.00,0.0103
1088.00,0.0102
1087.00,0.0100
1086.00,0.0100
1085.00,0.0101
1084.00,0.0101
1083.00,0.0101
1082.00,0.0100
1081.00,0.0099
1080.00,0.0097
1079.00,0.0096
1078.00,0.0095
1077.00,0.0095
1076.00,0.0094
1075.00,0.0093
1074.00,0.0092
1073.00,0.0091
1072.00,0.0090
1071.00,0.0089
1070.00,0.0089
1069.00,0.0090
1068.00,0.0090
1067.00,0.0090
1066.00,0.0091
1065.00,0.0092
1064.00,0.0094
1063.00,0.0095
1062.00,0.0096
1061.00,0.0097
1060.00,0.0098
1059.00,0.0099
1058.00,0.0101
1057.00,0.0103
1056.00,0.0105
1055.00,0.0107
1054.00,0.0110
1053.00,0.0113
1052.00,0.0116
1051.00,0.0120
1050.00,0.0125
1049.00,0.0130
1048.00,0.0135
1047.00,0.0141
1046.00,0.0145
1045.00,0.0148
1044.00,0.0149
1043.00,0.0149
1042.00,0.0148
1041.00,0.0146
1040.00,0.0145
1039.00,0.0144
1038.00,0.0144
1037.00,0.0144
1036.00,0.0144
1035.00,0.0143
1034.00,0.0140
1033.00,0.0138
1032.00,0.0136
1031.00,0.0136
1030.00,0.0136
1029.00,0.0136
1028.00,0.0137
1027.00,0.0138
1026.00,0.0140
1025.00,0.0143
1024.00,0.0145
1023.00,0.0147
1022.00,0.0149
1021.00,0.0151
1020.00,0.0153
1019.00,0.0154
1018.00,0.0155
1017.00,0.0155
1016.00,0.0155
1015.00,0.0154
1014.00,0.0154
1013.00,0.0154
1012.00,0.0153
1011.00,0.0152
1010.00,0.0151
1009.00,0.0151
1008.00,0.0152
1007.00,0.0155
1006.00,0.0161
1005.00,0.0171
1004.00,0.0185
1003.00,0.0204
1002.00,0.0231
1001.00,0.0264
1000.00,0.0300
999.00,0.0330
998.00,0.0344
997.00,0.0337
996.00,0.0310
995.00,0.0272
994.00,0.0233
993.00,0.0200
992.00,0.0176
991.00,0.0158
990.00,0.0145
989.00,0.0136
988.00,0.0130
987.00,0.0127
986.00,0.0126
985.00,0.0127
984.00,0.0130
983.00,0.0135
982.00,0.0143
981.00,0.0155
980.00,0.0174
979.00,0.0200
978.00,0.0232
977.00,0.0270
976.00,0.0312
975.00,0.0351
974.00,0.0381
973.00,0.0391
972.00,0.0377
971.00,0.0341
970.00,0.0294
969.00,0.0246
968.00,0.0205
967.00,0.0173
966.00,0.0149
965.00,0.0132
964.00,0.0120
963.00,0.0112
962.00,0.0105
961.00,0.0099
960.00,0.0094
959.00,0.0090
958.00,0.0087
957.00,0.0084
956.00,0.0082
955.00,0.0079
954.00,0.0078
953.00,0.0076
952.00,0.0076
951.00,0.0075
950.00,0.0075
949.00,0.0076
948.00,0.0077
947.00,0.0077
946.00,0.0079
945.00,0.0081
944.00,0.0084
943.00,0.0088
942.00,0.0092
941.00,0.0094
940.00,0.0095
939.00,0.0093
938.00,0.0088
937.00,0.0083
936.00,0.0078
935.00,0.0074
934.00,0.0072
933.00,0.0070
932.00,0.0069
931.00,0.0069
930.00,0.0069
929.00,0.0069
928.00,0.0069
927.00,0.0069
926.00,0.0068
925.00,0.0068
924.00,0.0069
923.00,0.0069
922.00,0.0069
921.00,0.0069
920.00,0.0069
919.00,0.0069
918.00,0.0070
917.00,0.0071
916.00,0.0072
915.00,0.0073
914.00,0.0074
913.00,0.0074
912.00,0.0074
911.00,0.0076
910.00,0.0078
909.00,0.0080
908.00,0.0083
907.00,0.0088
906.00,0.0095
905.00,0.0106
904.00,0.0119
903.00,0.0136
902.00,0.0156
901.00,0.0175
900.00,0.0188
899.00,0.0192
898.00,0.0184
897.00,0.0167
896.00,0.0148
895.00,0.0129
894.00,0.0115
893.00,0.0103
892.00,0.0095
891.00,0.0090
890.00,0.0086
889.00,0.0085
888.00,0.0084
887.00,0.0083
886.00,0.0082
885.00,0.0080
884.00,0.0079
883.00,0.0078
882.00,0.0078
881.00,0.0078
880.00,0.0079
879.00,0.0080
878.00,0.0080
877.00,0.0081
876.00,0.0081
875.00,0.0081
874.00,0.0082
873.00,0.0081
872.00,0.0081
871.00,0.0080
870.00,0.0081
869.00,0.0082
868.00,0.0084
867.00,0.0085
866.00,0.0087
865.00,0.0087
864.00,0.0088
863.00,0.0088
862.00,0.0089
861.00,0.0089
860.00,0.0089
859.00,0.0090
858.00,0.0090
857.00,0.0091
856.00,0.0092
855.00,0.0095
854.00,0.0098
853.00,0.0101
852.00,0.0102
851.00,0.0105
850.00,0.0108
849.00,0.0114
848.00,0.0123
847.00,0.0135
846.00,0.0153
845.00,0.0180
844.00,0.0220
843.00,0.0269
842.00,0.0312
841.00,0.0329
840.00,0.0311
839.00,0.0267
838.00,0.0217
837.00,0.0177
836.00,0.0150
835.00,0.0134
834.00,0.0124
833.00,0.0117
832.00,0.0113
831.00,0.0110
830.00,0.0108
829.00,0.0107
828.00,0.0107
827.00,0.0106
826.00,0.0106
825.00,0.0106
824.00,0.0107
823.00,0.0107
822.00,0.0109
821.00,0.0112
820.00,0.0115
819.00,0.0118
818.00,0.0121
817.00,0.0126
816.00,0.0133
815.00,0.0145
814.00,0.0162
813.00,0.0182
812.00,0.0205
811.00,0.0225
810.00,0.0239
809.00,0.0243
808.00,0.0237
807.00,0.0224
806.00,0.0205
805.00,0.0186
804.00,0.0168
803.00,0.0154
802.00,0.0144
801.00,0.0137
800.00,0.0131
799.00,0.0126
798.00,0.0120
797.00,0.0116
796.00,0.0111
795.00,0.0107
794.00,0.0104
793.00,0.0100
792.00,0.0097
791.00,0.0094
790.00,0.0092
789.00,0.0089
788.00,0.0086
787.00,0.0083
786.00,0.0081
785.00,0.0079
784.00,0.0078
783.00,0.0077
782.00,0.0076
781.00,0.0075
780.00,0.0074
779.00,0.0072
778.00,0.0072
777.00,0.0072
776.00,0.0073
775.00,0.0074
774.00,0.0074
773.00,0.0074
772.00,0.0074
771.00,0.0075
770.00,0.0075
769.00,0.0074
768.00,0.0073
767.00,0.0073
766.00,0.0074
765.00,0.0074
764.00,0.0074
763.00,0.0074
762.00,0.0074
761.00,0.0075
760.00,0.0075
759.00,0.0076
758.00,0.0077
757.00,0.0078
756.00,0.0080
755.00,0.0081
754.00,0.0083
753.00,0.0083
752.00,0.0084
751.00,0.0084
750.00,0.0085
749.00,0.0087
748.00,0.0089
747.00,0.0091
746.00,0.0093
745.00,0.0094
744.00,0.0095
743.00,0.0097
742.00,0.0099
741.00,0.0102
740.00,0.0107
739.00,0.0112
738.00,0.0118
737.00,0.0122
736.00,0.0126
735.00,0.0130
734.00,0.0134
733.00,0.0139
732.00,0.0146
731.00,0.0154
730.00,0.0160
729.00,0.0164
728.00,0.0165
727.00,0.0166
726.00,0.0167
725.00,0.0170
724.00,0.0175
723.00,0.0181
722.00,0.0187
721.00,0.0190
720.00,0.0188
719.00,0.0181
718.00,0.0169
717.00,0.0157
716.00,0.0145
715.00,0.0137
714.00,0.0131
713.00,0.0129
712.00,0.0128
711.00,0.0128
710.00,0.0126
709.00,0.0125
708.00,0.0124
707.00,0.0122
706.00,0.0120
705.00,0.0119
704.00,0.0119
703.00,0.0119
702.00,0.0118
701.00,0.0115
700.00,0.0112
699.00,0.0110
698.00,0.0108
697.00,0.0106
696.00,0.0106
695.00,0.0106
694.00,0.0107
693.00,0.0108
692.00,0.0109
691.00,0.0110
690.00,0.0111
689.00,0.0111
688.00,0.0112
687.00,0.0112
686.00,0.0112
685.00,0.0111
684.00,0.0110
683.00,0.0109
682.00,0.0109
681.00,0.0109
680.00,0.0108
679.00,0.0108
678.00,0.0109
677.00,0.0111
676.00,0.0114
675.00,0.0115
674.00,0.0116
673.00,0.0116
672.00,0.0117
671.00,0.0119
670.00,0.0122
669.00,0.0123
668.00,0.0121
667.00,0.0118
666.00,0.0114
665.00,0.0111
664.00,0.0110
663.00,0.0110
662.00,0.0110
661.00,0.0108
660.00,0.0105
659.00,0.0102
658.00,0.0099
657.00,0.0097
656.00,0.0095
655.00,0.0095
654.00,0.0096
653.00,0.0099
652.00,0.0102
651.00,0.0102
650.00,0.0102
649.00,0.0100
648.00,0.0097
647.00,0.0096
646.00,0.0096
645.00,0.0097
644.00,0.0098
643.00,0.0099
642.00,0.0098
641.00,0.0098
640.00,0.0098
639.00,0.0100
638.00,0.0102
637.00,0.0103
636.00,0.0103
635.00,0.0103
634.00,0.0102
633.00,0.0102
632.00,0.0102
631.00,0.0101
630.00,0.0100
629.00,0.0098
628.00,0.0096
627.00,0.0097
626.00,0.0099
625.00,0.0102
624.00,0.0103
623.00,0.0102
622.00,0.0100
621.00,0.0097
620.00,0.0094
619.00,0.0092
618.00,0.0093
617.00,0.0094
616.00,0.0096
615.00,0.0097
614.00,0.0097
613.00,0.0096
612.00,0.0095
611.00,0.0096
610.00,0.0098
609.00,0.0101
608.00,0.0103
607.00,0.0103
606.00,0.0102
605.00,0.0101
604.00,0.0099
603.00,0.0097
602.00,0.0095
601.00,0.0093
600.00,0.0092
599.00,0.0091
598.00,0.0091
597.00,0.0092
596.00,0.0092
595.00,0.0091
594.00,0.0091
593.00,0.0091
592.00,0.0094
591.00,0.0096
590.00,0.0097
589.00,0.0096
588.00,0.0095
587.00,0.0094
586.00,0.0096
585.00,0.0098
584.00,0.0100
583.00,0.0101
582.00,0.0101
581.00,0.0101
580.00,0.0101
579.00,0.0099
578.00,0.0098
577.00,0.0097
576.00,0.0098
575.00,0.0101
574.00,0.0102
573.00,0.0102
572.00,0.0101
571.00,0.0100
570.00,0.0100
569.00,0.0099
568.00,0.0097
567.00,0.0093
566.00,0.0090
565.00,0.0089
564.00,0.0091
563.00,0.0095
562.00,0.0100
561.00,0.0105
560.00,0.0107
559.00,0.0107
558.00,0.0103
557.00,0.0099
556.00,0.0098
555.00,0.0101
554.00,0.0105
553.00,0.0108
552.00,0.0108
551.00,0.0107
550.00,0.0104
549.00,0.0101
548.00,0.0098
547.00,0.0098
546.00,0.0101
545.00,0.0104
544.00,0.0109
543.00,0.0113
542.00,0.0116
541.00,0.0119
540.00,0.0120
539.00,0.0121
538.00,0.0122
537.00,0.0123
536.00,0.0123
535.00,0.0122
534.00,0.0120
533.00,0.0120
532.00,0.0121
531.00,0.0123
530.00,0.0125
529.00,0.0126
528.00,0.0126
527.00,0.0125
526.00,0.0121
525.00,0.0116
524.00,0.0113
523.00,0.0112
522.00,0.0112
521.00,0.0110
520.00,0.0108
519.00,0.0105
518.00,0.0103
517.00,0.0102
516.00,0.0101
515.00,0.0101
514.00,0.0102
513.00,0.0102
512.00,0.0102
511.00,0.0100
510.00,0.0097
509.00,0.0093
508.00,0.0090
507.00,0.0089
506.00,0.0091
505.00,0.0092
504.00,0.0091
503.00,0.0087
502.00,0.0087
501.00,0.0093
500.00,0.0102
499.00,0.0107
498.00,0.0105
497.00,0.0099
496.00,0.0094
495.00,0.0093
494.00,0.0093
493.00,0.0094
492.00,0.0094
491.00,0.0095
490.00,0.0094
489.00,0.0092
488.00,0.0091
487.00,0.0089
486.00,0.0089
485.00,0.0092
484.00,0.0099
483.00,0.0110
482.00,0.0121
481.00,0.0126
480.00,0.0125
479.00,0.0122
478.00,0.0121
477.00,0.0121
476.00,0.0118
475.00,0.0111
474.00,0.0103
473.00,0.0100
472.00,0.0105
471.00,0.0114
470.00,0.0122
469.00,0.0131
468.00,0.0149
467.00,0.0172
466.00,0.0193
465.00,0.0202
464.00,0.0200
463.00,0.0195
462.00,0.0195
461.00,0.0202
460.00,0.0209
459.00,0.0209
458.00,0.0198
457.00,0.0187
456.00,0.0188
455.00,0.0199
454.00,0.0210
453.00,0.0211
452.00,0.0202
451.00,0.0191
450.00,0.0185
