Created as New Dataset,Sample 013 By Administrator Date Friday, September 05 2025
cm-1,A
4000.00,0.0010
3999.00,0.0010
3998.00,0.0010
3997.00,0.0009
3996.00,0.0009
3995.00,0.0009
3994.00,0.0009
3993.00,0.0009
3992.00,0.0010
3991.00,0.0010
3990.00,0.0009
3989.00,0.0009
3988.00,0.0009
3987.00,0.0008
3986.00,0.0008
3985.00,0.0008
3984.00,0.0008
3983.00,0.0008
3982.00,0.0008
3981.00,0.0009
3980.00,0.0009
3979.00,0.0009
3978.00,0.0009
3977.00,0.0009
3976.00,0.0008
3975.00,0.0008
3974.00,0.0008
3973.00,0.0008
3972.00,0.0008
3971.00,0.0008
3970.00,0.0008
3969.00,0.0008
3968.00,0.0008
3967.00,0.0008
3966.00,0.0008
3965.00,0.0008
3964.00,0.0008
3963.00,0.0008
3962.00,0.0008
3961.00,0.0008
3960.00,0.0007
3959.00,0.0007
3958.00,0.0007
3957.00,0.0007
3956.00,0.0007
3955.00,0.0007
3954.00,0.0007
3953.00,0.0007
3952.00,0.0007
3951.00,0.0007
3950.00,0.0007
3949.00,0.0007
3948.00,0.0007
3947.00,0.0007
3946.00,0.0007
3945.00,0.0007
3944.00,0.0007
3943.00,0.0007
3942.00,0.0008
3941.00,0.0008
3940.00,0.0008
3939.00,0.0008
3938.00,0.0008
3937.00,0.0008
3936.00,0.0008
3935.00,0.0008
3934.00,0.0008
3933.00,0.0008
3932.00,0.0008
3931.00,0.0007
3930.00,0.0007
3929.00,0.0007
3928.00,0.0007
3927.00,0.0007
3926.00,0.0008
3925.00,0.0008
3924.00,0.0008
3923.00,0.0008
3922.00,0.0008
3921.00,0.0008
3920.00,0.0007
3919.00,0.0007
3918.00,0.0007
3917.00,0.0007
3916.00,0.0007
3915.00,0.0008
3914.00,0.0008
3913.00,0.0008
3912.00,0.0008
3911.00,0.0008
3910.00,0.0008
3909.00,0.0008
3908.00,0.0008
3907.00,0.0008
3906.00,0.0007
3905.00,0.0007
3904.00,0.0007
3903.00,0.0007
3902.00,0.0006
3901.00,0.0006
3900.00,0.0006
3899.00,0.0006
3898.00,0.0006
3897.00,0.0006
3896.00,0.0007
3895.00,0.0007
3894.00,0.0007
3893.00,0.0007
3892.00,0.0007
3891.00,0.0007
3890.00,0.0008
3889.00,0.0007
3888.00,0.0007
3887.00,0.0007
3886.00,0.0007
3885.00,0.0007
3884.00,0.0007
3883.00,0.0007
3882.00,0.0008
3881.00,0.0007
3880.00,0.0007
3879.00,0.0007
3878.00,0.0007
3877.00,0.0007
3876.00,0.0007
3875.00,0.0007
3874.00,0.0007
3873.00,0.0007
3872.00,0.0006
3871.00,0.0006
3870.00,0.0006
3869.00,0.0006
3868.00,0.0006
3867.00,0.0006
3866.00,0.0006
3865.00,0.0006
3864.00,0.0006
3863.00,0.0006
3862.00,0.0006
3861.00,0.0007
3860.00,0.0007
3859.00,0.0007
3858.00,0.0007
3857.00,0.0007
3856.00,0.0008
3855.00,0.0008
3854.00,0.0007
3853.00,0.0007
3852.00,0.0006
3851.00,0.0006
3850.00,0.0006
3849.00,0.0006
3848.00,0.0006
3847.00,0.0006
3846.00,0.0006
3845.00,0.0006
3844.00,0.0006
3843.00,0.0006
3842.00,0.0006
3841.00,0.0006
3840.00,0.0006
3839.00,0.0006
3838.00,0.0006
3837.00,0.0005
3836.00,0.0005
3835.00,0.0005
3834.00,0.0005
3833.00,0.0005
3832.00,0.0006
3831.00,0.0007
3830.00,0.0007
3829.00,0.0006
3828.00,0.0006
3827.00,0.0006
3826.00,0.0006
3825.00,0.0006
3824.00,0.0006
3823.00,0.0005
3822.00,0.0005
3821.00,0.0005
3820.00,0.0005
3819.00,0.0005
3818.00,0.0006
3817.00,0.0006
3816.00,0.0007
3815.00,0.0007
3814.00,0.0007
3813.00,0.0007
3812.00,0.0007
3811.00,0.0007
3810.00,0.0007
3809.00,0.0007
3808.00,0.0007
3807.00,0.0007
3806.00,0.0006
3805.00,0.0006
3804.00,0.0006
3803.00,0.0005
3802.00,0.0005
3801.00,0.0005
3800.00,0.0005
3799.00,0.0005
3798.00,0.0005
3797.00,0.0005
3796.00,0.0006
3795.00,0.0007
3794.00,0.0007
3793.00,0.0007
3792.00,0.0007
3791.00,0.0007
3790.00,0.0007
3789.00,0.0008
3788.00,0.0008
3787.00,0.0007
3786.00,0.0007
3785.00,0.0007
3784.00,0.0007
3783.00,0.0007
3782.00,0.0006
3781.00,0.0006
3780.00,0.0006
3779.00,0.0006
3778.00,0.0007
3777.00,0.0007
3776.00,0.0007
3775.00,0.0007
3774.00,0.0007
3773.00,0.0007
3772.00,0.0007
3771.00,0.0007
3770.00,0.0007
3769.00,0.0007
3768.00,0.0007
3767.00,0.0007
3766.00,0.0007
3765.00,0.0007
3764.00,0.0007
3763.00,0.0006
3762.00,0.0006
3761.00,0.0006
3760.00,0.0006
3759.00,0.0007
3758.00,0.0007
3757.00,0.0007
3756.00,0.0008
3755.00,0.0008
3754.00,0.0008
3753.00,0.0008
3752.00,0.0008
3751.00,0.0007
3750.00,0.0007
3749.00,0.0007
3748.00,0.0006
3747.00,0.0006
3746.00,0.0006
3745.00,0.0005
3744.00,0.0006
3743.00,0.0006
3742.00,0.0006
3741.00,0.0006
3740.00,0.0006
3739.00,0.0006
3738.00,0.0006
3737.00,0.0006
3736.00,0.0006
3735.00,0.0005
3734.00,0.0005
3733.00,0.0004
3732.00,0.0004
3731.00,0.0004
3730.00,0.0005
3729.00,0.0005
3728.00,0.0006
3727.00,0.0006
3726.00,0.0006
3725.00,0.0005
3724.00,0.0005
3723.00,0.0004
3722.00,0.0005
3721.00,0.0005
3720.00,0.0005
3719.00,0.0006
3718.00,0.0006
3717.00,0.0006
3716.00,0.0006
3715.00,0.0006
3714.00,0.0005
3713.00,0.0004
3712.00,0.0004
3711.00,0.0003
3710.00,0.0004
3709.00,0.0004
3708.00,0.0005
3707.00,0.0005
3706.00,0.0005
3705.00,0.0005
3704.00,0.0005
3703.00,0.0005
3702.00,0.0005
3701.00,0.0005
3700.00,0.0005
3699.00,0.0006
3698.00,0.0006
3697.00,0.0006
3696.00,0.0006
3695.00,0.0006
3694.00,0.0005
3693.00,0.0005
3692.00,0.0004
3691.00,0.0004
3690.00,0.0003
3689.00,0.0003
3688.00,0.0004
3687.00,0.0004
3686.00,0.0005
3685.00,0.0005
3684.00,0.0005
3683.00,0.0005
3682.00,0.0006
3681.00,0.0006
3680.00,0.0006
3679.00,0.0006
3678.00,0.0006
3677.00,0.0006
3676.00,0.0006
3675.00,0.0005
3674.00,0.0005
3673.00,0.0005
3672.00,0.0005
3671.00,0.0005
3670.00,0.0004
3669.00,0.0005
3668.00,0.0005
3667.00,0.0005
3666.00,0.0005
3665.00,0.0004
3664.00,0.0005
3663.00,0.0005
3662.00,0.0005
3661.00,0.0004
3660.00,0.0004
3659.00,0.0004
3658.00,0.0004
3657.00,0.0003
3656.00,0.0003
3655.00,0.0003
3654.00,0.0003
3653.00,0.0003
3652.00,0.0003
3651.00,0.0003
3650.00,0.0003
3649.00,0.0003
3648.00,0.0004
3647.00,0.0004
3646.00,0.0004
3645.00,0.0004
3644.00,0.0005
3643.00,0.0005
3642.00,0.0006
3641.00,0.0006
3640.00,0.0007
3639.00,0.0007
3638.00,0.0007
3637.00,0.0007
3636.00,0.0007
3635.00,0.0007
3634.00,0.0006
3633.00,0.0006
3632.00,0.0006
3631.00,0.0005
3630.00,0.0005
3629.00,0.0005
3628.00,0.0005
3627.00,0.0006
3626.00,0.0006
3625.00,0.0006
3624.00,0.0006
3623.00,0.0006
3622.00,0.0006
3621.00,0.0006
3620.00,0.0006
3619.00,0.0007
3618.00,0.0008
3617.00,0.0008
3616.00,0.0009
3615.00,0.0009
3614.00,0.0009
3613.00,0.0009
3612.00,0.0009
3611.00,0.0009
3610.00,0.0009
3609.00,0.0010
3608.00,0.0010
3607.00,0.0010
3606.00,0.0010
3605.00,0.0010
3604.00,0.0010
3603.00,0.0010
3602.00,0.0010
3601.00,0.0011
3600.00,0.0010
3599.00,0.0010
3598.00,0.0010
3597.00,0.0010
3596.00,0.0010
3595.00,0.0011
3594.00,0.0011
3593.00,0.0012
3592.00,0.0012
3591.00,0.0012
3590.00,0.0013
3589.00,0.0013
3588.00,0.0013
3587.00,0.0012
3586.00,0.0012
3585.00,0.0012
3584.00,0.0013
3583.00,0.0013
3582.00,0.0013
3581.00,0.0014
3580.00,0.0013
3579.00,0.0013
3578.00,0.0013
3577.00,0.0013
3576.00,0.0014
3575.00,0.0014
3574.00,0.0015
3573.00,0.0015
3572.00,0.0015
3571.00,0.0016
3570.00,0.0016
3569.00,0.0016
3568.00,0.0016
3567.00,0.0016
3566.00,0.0016
3565.00,0.0016
3564.00,0.0016
3563.00,0.0016
3562.00,0.0016
3561.00,0.0017
3560.00,0.0017
3559.00,0.0017
3558.00,0.0018
3557.00,0.0019
3556.00,0.0019
3555.00,0.0019
3554.00,0.0020
3553.00,0.0020
3552.00,0.0020
3551.00,0.0020
3550.00,0.0020
3549.00,0.0020
3548.00,0.0020
3547.00,0.0020
3546.00,0.0020
3545.00,0.0020
3544.00,0.0020
3543.00,0.0021
3542.00,0.0021
3541.00,0.0021
3540.00,0.0021
3539.00,0.0022
3538.00,0.0022
3537.00,0.0022
3536.00,0.0023
3535.00,0.0023
3534.00,0.0023
3533.00,0.0024
3532.00,0.0024
3531.00,0.0024
3530.00,0.0025
3529.00,0.0025
3528.00,0.0025
3527.00,0.0025
3526.00,0.0025
3525.00,0.0025
3524.00,0.0025
3523.00,0.0025
3522.00,0.0025
3521.00,0.0026
3520.00,0.0026
3519.00,0.0026
3518.00,0.0026
3517.00,0.0027
3516.00,0.0027
3515.00,0.0027
3514.00,0.0027
3513.00,0.0027
3512.00,0.0027
3511.00,0.0027
3510.00,0.0027
3509.00,0.0028
3508.00,0.0028
3507.00,0.0028
3506.00,0.0028
3505.00,0.0028
3504.00,0.0028
3503.00,0.0028
3502.00,0.0029
3501.00,0.0029
3500.00,0.0030
3499.00,0.0031
3498.00,0.0031
3497.00,0.0031
3496.00,0.0031
3495.00,0.0031
3494.00,0.0031
3493.00,0.0031
3492.00,0.0032
3491.00,0.0032
3490.00,0.0032
3489.00,0.0032
3488.00,0.0033
3487.00,0.0033
3486.00,0.0033
3485.00,0.0033
3484.00,0.0033
3483.00,0.0033
3482.00,0.0033
3481.00,0.0034
3480.00,0.0034
3479.00,0.0034
3478.00,0.0035
3477.00,0.0035
3476.00,0.0036
3475.00,0.0036
3474.00,0.0036
3473.00,0.0036
3472.00,0.0036
3471.00,0.0036
3470.00,0.0036
3469.00,0.0036
3468.00,0.0036
3467.00,0.0037
3466.00,0.0037
3465.00,0.0037
3464.00,0.0037
3463.00,0.0038
3462.00,0.0038
3461.00,0.0038
3460.00,0.0038
3459.00,0.0038
3458.00,0.0039
3457.00,0.0039
3456.00,0.0039
3455.00,0.0039
3454.00,0.0039
3453.00,0.0039
3452.00,0.0040
3451.00,0.0040
3450.00,0.0040
3449.00,0.0040
3448.00,0.0040
3447.00,0.0040
3446.00,0.0040
3445.00,0.0040
3444.00,0.0040
3443.00,0.0040
3442.00,0.0041
3441.00,0.0041
3440.00,0.0041
3439.00,0.0041
3438.00,0.0042
3437.00,0.0042
3436.00,0.0042
3435.00,0.0043
3434.00,0.0043
3433.00,0.0043
3432.00,0.0043
3431.00,0.0043
3430.00,0.0044
3429.00,0.0044
3428.00,0.0044
3427.00,0.0044
3426.00,0.0044
3425.00,0.0045
3424.00,0.0045
3423.00,0.0045
3422.00,0.0045
3421.00,0.0045
3420.00,0.0045
3419.00,0.0045
3418.00,0.0045
3417.00,0.0045
3416.00,0.0045
3415.00,0.0045
3414.00,0.0045
3413.00,0.0046
3412.00,0.0046
3411.00,0.0047
3410.00,0.0047
3409.00,0.0048
3408.00,0.0048
3407.00,0.0048
3406.00,0.0048
3405.00,0.0048
3404.00,0.0048
3403.00,0.0048
3402.00,0.0048
3401.00,0.0048
3400.00,0.0048
3399.00,0.0048
3398.00,0.0048
3397.00,0.0048
3396.00,0.0048
3395.00,0.0048
3394.00,0.0048
3393.00,0.0048
3392.00,0.0048
3391.00,0.0048
3390.00,0.0048
3389.00,0.0048
3388.00,0.0049
3387.00,0.0049
3386.00,0.0049
3385.00,0.0049
3384.00,0.0049
3383.00,0.0048
3382.00,0.0048
3381.00,0.0049
3380.00,0.0049
3379.00,0.0049
3378.00,0.0049
3377.00,0.0049
3376.00,0.0049
3375.00,0.0049
3374.00,0.0050
3373.00,0.0050
3372.00,0.0050
3371.00,0.0050
3370.00,0.0050
3369.00,0.0050
3368.00,0.0050
3367.00,0.0050
3366.00,0.0050
3365.00,0.0050
3364.00,0.0050
3363.00,0.0050
3362.00,0.0051
3361.00,0.0051
3360.00,0.0051
3359.00,0.0050
3358.00,0.0050
3357.00,0.0050
3356.00,0.0050
3355.00,0.0050
3354.00,0.0051
3353.00,0.0051
3352.00,0.0051
3351.00,0.0051
3350.00,0.0051
3349.00,0.0051
3348.00,0.0051
3347.00,0.0050
3346.00,0.0050
3345.00,0.0050
3344.00,0.0050
3343.00,0.0050
3342.00,0.0050
3341.00,0.0050
3340.00,0.0050
3339.00,0.0050
3338.00,0.0050
3337.00,0.0050
3336.00,0.0049
3335.00,0.0049
3334.00,0.0050
3333.00,0.0050
3332.00,0.0050
3331.00,0.0050
3330.00,0.0050
3329.00,0.0049
3328.00,0.0049
3327.00,0.0048
3326.00,0.0048
3325.00,0.0048
3324.00,0.0048
3323.00,0.0048
3322.00,0.0048
3321.00,0.0049
3320.00,0.0049
3319.00,0.0049
3318.00,0.0049
3317.00,0.0049
3316.00,0.0049
3315.00,0.0048
3314.00,0.0048
3313.00,0.0048
3312.00,0.0049
3311.00,0.0049
3310.00,0.0049
3309.00,0.0050
3308.00,0.0050
3307.00,0.0051
3306.00,0.0051
3305.00,0.0052
3304.00,0.0052
3303.00,0.0053
3302.00,0.0053
3301.00,0.0053
3300.00,0.0053
3299.00,0.0052
3298.00,0.0052
3297.00,0.0051
3296.00,0.0050
3295.00,0.0049
3294.00,0.0049
3293.00,0.0048
3292.00,0.0048
3291.00,0.0047
3290.00,0.0047
3289.00,0.0046
3288.00,0.0046
3287.00,0.0046
3286.00,0.0046
3285.00,0.0046
3284.00,0.0046
3283.00,0.0046
3282.00,0.0046
3281.00,0.0046
3280.00,0.0045
3279.00,0.0045
3278.00,0.0045
3277.00,0.0044
3276.00,0.0044
3275.00,0.0044
3274.00,0.0044
3273.00,0.0044
3272.00,0.0044
3271.00,0.0044
3270.00,0.0044
3269.00,0.0043
3268.00,0.0043
3267.00,0.0043
3266.00,0.0043
3265.00,0.0042
3264.00,0.0042
3263.00,0.0042
3262.00,0.0042
3261.00,0.0042
3260.00,0.0042
3259.00,0.0042
3258.00,0.0042
3257.00,0.0041
3256.00,0.0041
3255.00,0.0040
3254.00,0.0040
3253.00,0.0040
3252.00,0.0040
3251.00,0.0041
3250.00,0.0041
3249.00,0.0041
3248.00,0.0041
3247.00,0.0040
3246.00,0.0040
3245.00,0.0040
3244.00,0.0040
3243.00,0.0040
3242.00,0.0040
3241.00,0.0040
3240.00,0.0040
3239.00,0.0040
3238.00,0.0040
3237.00,0.0039
3236.00,0.0039
3235.00,0.0039
3234.00,0.0039
3233.00,0.0039
3232.00,0.0039
3231.00,0.0039
3230.00,0.0039
3229.00,0.0040
3228.00,0.0040
3227.00,0.0040
3226.00,0.0040
3225.00,0.0040
3224.00,0.0040
3223.00,0.0040
3222.00,0.0040
3221.00,0.0040
3220.00,0.0040
3219.00,0.0040
3218.00,0.0040
3217.00,0.0041
3216.00,0.0041
3215.00,0.0042
3214.00,0.0042
3213.00,0.0043
3212.00,0.0042
3211.00,0.0042
3210.00,0.0042
3209.00,0.0042
3208.00,0.0042
3207.00,0.0042
3206.00,0.0042
3205.00,0.0043
3204.00,0.0043
3203.00,0.0044
3202.00,0.0044
3201.00,0.0044
3200.00,0.0044
3199.00,0.0044
3198.00,0.0044
3197.00,0.0043
3196.00,0.0043
3195.00,0.0042
3194.00,0.0042
3193.00,0.0042
3192.00,0.0042
3191.00,0.0042
3190.00,0.0043
3189.00,0.0043
3188.00,0.0043
3187.00,0.0043
3186.00,0.0042
3185.00,0.0042
3184.00,0.0041
3183.00,0.0041
3182.00,0.0040
3181.00,0.0040
3180.00,0.0040
3179.00,0.0039
3178.00,0.0039
3177.00,0.0038
3176.00,0.0039
3175.00,0.0039
3174.00,0.0039
3173.00,0.0040
3172.00,0.0040
3171.00,0.0039
3170.00,0.0039
3169.00,0.0038
3168.00,0.0038
3167.00,0.0038
3166.00,0.0037
3165.00,0.0038
3164.00,0.0038
3163.00,0.0038
3162.00,0.0038
3161.00,0.0038
3160.00,0.0037
3159.00,0.0037
3158.00,0.0037
3157.00,0.0037
3156.00,0.0037
3155.00,0.0037
3154.00,0.0037
3153.00,0.0037
3152.00,0.0037
3151.00,0.0037
3150.00,0.0037
3149.00,0.0037
3148.00,0.0037
3147.00,0.0036
3146.00,0.0036
3145.00,0.0036
3144.00,0.0036
3143.00,0.0036
3142.00,0.0036
3141.00,0.0036
3140.00,0.0036
3139.00,0.0035
3138.00,0.0035
3137.00,0.0035
3136.00,0.0035
3135.00,0.0034
3134.00,0.0034
3133.00,0.0034
3132.00,0.0034
3131.00,0.0033
3130.00,0.0033
3129.00,0.0033
3128.00,0.0033
3127.00,0.0033
3126.00,0.0033
3125.00,0.0032
3124.00,0.0032
3123.00,0.0032
3122.00,0.0032
3121.00,0.0031
3120.00,0.0031
3119.00,0.0031
3118.00,0.0030
3117.00,0.0030
3116.00,0.0030
3115.00,0.0030
3114.00,0.0030
3113.00,0.0030
3112.00,0.0030
3111.00,0.0030
3110.00,0.0030
3109.00,0.0030
3108.00,0.0029
3107.00,0.0029
3106.00,0.0029
3105.00,0.0029
3104.00,0.0029
3103.00,0.0029
3102.00,0.0029
3101.00,0.0029
3100.00,0.0029
3099.00,0.0029
3098.00,0.0030
3097.00,0.0030
3096.00,0.0030
3095.00,0.0030
3094.00,0.0029
3093.00,0.0029
3092.00,0.0029
3091.00,0.0029
3090.00,0.0029
3089.00,0.0029
3088.00,0.0028
3087.00,0.0028
3086.00,0.0028
3085.00,0.0028
3084.00,0.0028
3083.00,0.0028
3082.00,0.0028
3081.00,0.0028
3080.00,0.0028
3079.00,0.0028
3078.00,0.0028
3077.00,0.0028
3076.00,0.0028
3075.00,0.0029
3074.00,0.0029
3073.00,0.0029
3072.00,0.0029
3071.00,0.0029
3070.00,0.0029
3069.00,0.0029
3068.00,0.0030
3067.00,0.0030
3066.00,0.0030
3065.00,0.0030
3064.00,0.0030
3063.00,0.0031
3062.00,0.0031
3061.00,0.0031
3060.00,0.0032
3059.00,0.0032
3058.00,0.0032
3057.00,0.0032
3056.00,0.0032
3055.00,0.0032
3054.00,0.0032
3053.00,0.0032
3052.00,0.0033
3051.00,0.0033
3050.00,0.0033
3049.00,0.0033
3048.00,0.0033
3047.00,0.0033
3046.00,0.0033
3045.00,0.0033
3044.00,0.0033
3043.00,0.0034
3042.00,0.0034
3041.00,0.0035
3040.00,0.0035
3039.00,0.0036
3038.00,0.0036
3037.00,0.0036
3036.00,0.0036
3035.00,0.0036
3034.00,0.0036
3033.00,0.0036
3032.00,0.0036
3031.00,0.0036
3030.00,0.0037
3029.00,0.0037
3028.00,0.0038
3027.00,0.0039
3026.00,0.0039
3025.00,0.0040
3024.00,0.0041
3023.00,0.0041
3022.00,0.0042
3021.00,0.0043
3020.00,0.0044
3019.00,0.0045
3018.00,0.0046
3017.00,0.0046
3016.00,0.0047
3015.00,0.0047
3014.00,0.0048
3013.00,0.0048
3012.00,0.0049
3011.00,0.0051
3010.00,0.0052
3009.00,0.0053
3008.00,0.0054
3007.00,0.0055
3006.00,0.0056
3005.00,0.0058
3004.00,0.0059
3003.00,0.0061
3002.00,0.0062
3001.00,0.0064
3000.00,0.0066
2999.00,0.0068
2998.00,0.0071
2997.00,0.0075
2996.00,0.0079
2995.00,0.0082
2994.00,0.0087
2993.00,0.0091
2992.00,0.0096
2991.00,0.0101
2990.00,0.0108
2989.00,0.0114
2988.00,0.0122
2987.00,0.0130
2986.00,0.0139
2985.00,0.0148
2984.00,0.0158
2983.00,0.0170
2982.00,0.0185
2981.00,0.0203
2980.00,0.0224
2979.00,0.0247
2978.00,0.0274
2977.00,0.0305
2976.00,0.0339
2975.00,0.0379
2974.00,0.0423
2973.00,0.0475
2972.00,0.0534
2971.00,0.0601
2970.00,0.0677
2969.00,0.0762
2968.00,0.0854
2967.00,0.0955
2966.00,0.1062
2965.00,0.1173
2964.00,0.1285
2963.00,0.1391
2962.00,0.1486
2961.00,0.1563
2960.00,0.1620
2959.00,0.1658
2958.00,0.1684
2957.00,0.1706
2956.00,0.1730
2955.00,0.1763
2954.00,0.1806
2953.00,0.1852
2952.00,0.1892
2951.00,0.1914
2950.00,0.1906
2949.00,0.1862
2948.00,0.1783
2947.00,0.1676
2946.00,0.1552
2945.00,0.1426
2944.00,0.1309
2943.00,0.1209
2942.00,0.1133
2941.00,0.1080
2940.00,0.1051
2939.00,0.1042
2938.00,0.1053
2937.00,0.1080
2936.00,0.1123
2935.00,0.1180
2934.00,0.1249
2933.00,0.1331
2932.00,0.1422
2931.00,0.1522
2930.00,0.1628
2929.00,0.1737
2928.00,0.1846
2927.00,0.1952
2926.00,0.2054
2925.00,0.2151
2924.00,0.2244
2923.00,0.2335
2922.00,0.2422
2921.00,0.2504
2920.00,0.2573
2919.00,0.2622
2918.00,0.2642
2917.00,0.2626
2916.00,0.2577
2915.00,0.2502
2914.00,0.2410
2913.00,0.2314
2912.00,0.2222
2911.00,0.2141
2910.00,0.2071
2909.00,0.2010
2908.00,0.1954
2907.00,0.1899
2906.00,0.1844
2905.00,0.1784
2904.00,0.1721
2903.00,0.1656
2902.00,0.1589
2901.00,0.1523
2900.00,0.1459
2899.00,0.1397
2898.00,0.1339
2897.00,0.1285
2896.00,0.1236
2895.00,0.1193
2894.00,0.1157
2893.00,0.1127
2892.00,0.1102
2891.00,0.1084
2890.00,0.1070
2889.00,0.1060
2888.00,0.1054
2887.00,0.1051
2886.00,0.1051
2885.00,0.1054
2884.00,0.1061
2883.00,0.1072
2882.00,0.1085
2881.00,0.1100
2880.00,0.1114
2879.00,0.1125
2878.00,0.1129
2877.00,0.1128
2876.00,0.1122
2875.00,0.1115
2874.00,0.1111
2873.00,0.1113
2872.00,0.1123
2871.00,0.1139
2870.00,0.1159
2869.00,0.1177
2868.00,0.1188
2867.00,0.1184
2866.00,0.1161
2865.00,0.1118
2864.00,0.1058
2863.00,0.0990
2862.00,0.0924
2861.00,0.0866
2860.00,0.0822
2859.00,0.0793
2858.00,0.0777
2857.00,0.0773
2856.00,0.0778
2855.00,0.0789
2854.00,0.0805
2853.00,0.0823
2852.00,0.0842
2851.00,0.0859
2850.00,0.0874
2849.00,0.0886
2848.00,0.0899
2847.00,0.0917
2846.00,0.0944
2845.00,0.0982
2844.00,0.1029
2843.00,0.1084
2842.00,0.1141
2841.00,0.1192
2840.00,0.1229
2839.00,0.1243
2838.00,0.1230
2837.00,0.1187
2836.00,0.1115
2835.00,0.1022
2834.00,0.0917
2833.00,0.0810
2832.00,0.0710
2831.00,0.0622
2830.00,0.0547
2829.00,0.0486
2828.00,0.0437
2827.00,0.0397
2826.00,0.0364
2825.00,0.0337
2824.00,0.0314
2823.00,0.0294
2822.00,0.0276
2821.00,0.0261
2820.00,0.0248
2819.00,0.0237
2818.00,0.0227
2817.00,0.0218
2816.00,0.0210
2815.00,0.0203
2814.00,0.0197
2813.00,0.0191
2812.00,0.0186
2811.00,0.0181
2810.00,0.0176
2809.00,0.0170
2808.00,0.0164
2807.00,0.0158
2806.00,0.0152
2805.00,0.0145
2804.00,0.0139
2803.00,0.0134
2802.00,0.0129
2801.00,0.0125
2800.00,0.0121
2799.00,0.0118
2798.00,0.0116
2797.00,0.0114
2796.00,0.0111
2795.00,0.0109
2794.00,0.0106
2793.00,0.0103
2792.00,0.0100
2791.00,0.0097
2790.00,0.0093
2789.00,0.0090
2788.00,0.0086
2787.00,0.0083
2786.00,0.0080
2785.00,0.0077
2784.00,0.0075
2783.00,0.0073
2782.00,0.0071
2781.00,0.0069
2780.00,0.0067
2779.00,0.0065
2778.00,0.0064
2777.00,0.0062
2776.00,0.0060
2775.00,0.0059
2774.00,0.0058
2773.00,0.0057
2772.00,0.0056
2771.00,0.0056
2770.00,0.0056
2769.00,0.0055
2768.00,0.0055
2767.00,0.0055
2766.00,0.0055
2765.00,0.0054
2764.00,0.0054
2763.00,0.0054
2762.00,0.0054
2761.00,0.0053
2760.00,0.0053
2759.00,0.0052
2758.00,0.0052
2757.00,0.0052
2756.00,0.0052
2755.00,0.0052
2754.00,0.0052
2753.00,0.0051
2752.00,0.0051
2751.00,0.0051
2750.00,0.0050
2749.00,0.0050
2748.00,0.0050
2747.00,0.0050
2746.00,0.0050
2745.00,0.0051
2744.00,0.0052
2743.00,0.0053
2742.00,0.0054
2741.00,0.0055
2740.00,0.0056
2739.00,0.0057
2738.00,0.0058
2737.00,0.0059
2736.00,0.0061
2735.00,0.0062
2734.00,0.0064
2733.00,0.0066
2732.00,0.0067
2731.00,0.0069
2730.00,0.0071
2729.00,0.0073
2728.00,0.0075
2727.00,0.0078
2726.00,0.0080
2725.00,0.0083
2724.00,0.0084
2723.00,0.0085
2722.00,0.0084
2721.00,0.0082
2720.00,0.0080
2719.00,0.0077
2718.00,0.0074
2717.00,0.0072
2716.00,0.0069
2715.00,0.0067
2714.00,0.0064
2713.00,0.0062
2712.00,0.0060
2711.00,0.0058
2710.00,0.0057
2709.00,0.0055
2708.00,0.0054
2707.00,0.0053
2706.00,0.0052
2705.00,0.0050
2704.00,0.0049
2703.00,0.0048
2702.00,0.0047
2701.00,0.0047
2700.00,0.0046
2699.00,0.0045
2698.00,0.0045
2697.00,0.0045
2696.00,0.0046
2695.00,0.0046
2694.00,0.0046
2693.00,0.0046
2692.00,0.0046
2691.00,0.0046
2690.00,0.0046
2689.00,0.0046
2688.00,0.0046
2687.00,0.0046
2686.00,0.0045
2685.00,0.0045
2684.00,0.0045
2683.00,0.0045
2682.00,0.0045
2681.00,0.0045
2680.00,0.0045
2679.00,0.0045
2678.00,0.0045
2677.00,0.0045
2676.00,0.0045
2675.00,0.0045
2674.00,0.0044
2673.00,0.0044
2672.00,0.0044
2671.00,0.0044
2670.00,0.0044
2669.00,0.0044
2668.00,0.0043
2667.00,0.0044
2666.00,0.0044
2665.00,0.0045
2664.00,0.0045
2663.00,0.0046
2662.00,0.0047
2661.00,0.0047
2660.00,0.0048
2659.00,0.0048
2658.00,0.0048
2657.00,0.0048
2656.00,0.0047
2655.00,0.0046
2654.00,0.0046
2653.00,0.0045
2652.00,0.0045
2651.00,0.0044
2650.00,0.0044
2649.00,0.0043
2648.00,0.0043
2647.00,0.0043
2646.00,0.0042
2645.00,0.0042
2644.00,0.0042
2643.00,0.0041
2642.00,0.0041
2641.00,0.0040
2640.00,0.0039
2639.00,0.0039
2638.00,0.0039
2637.00,0.0039
2636.00,0.0039
2635.00,0.0039
2634.00,0.0039
2633.00,0.0039
2632.00,0.0039
2631.00,0.0039
2630.00,0.0039
2629.00,0.0039
2628.00,0.0039
2627.00,0.0039
2626.00,0.0039
2625.00,0.0039
2624.00,0.0040
2623.00,0.0041
2622.00,0.0041
2621.00,0.0041
2620.00,0.0041
2619.00,0.0041
2618.00,0.0041
2617.00,0.0041
2616.00,0.0041
2615.00,0.0041
2614.00,0.0041
2613.00,0.0040
2612.00,0.0039
2611.00,0.0038
2610.00,0.0037
2609.00,0.0036
2608.00,0.0035
2607.00,0.0035
2606.00,0.0034
2605.00,0.0034
2604.00,0.0033
2603.00,0.0033
2602.00,0.0032
2601.00,0.0032
2600.00,0.0031
2599.00,0.0031
2598.00,0.0030
2597.00,0.0030
2596.00,0.0030
2595.00,0.0030
2594.00,0.0031
2593.00,0.0031
2592.00,0.0032
2591.00,0.0033
2590.00,0.0033
2589.00,0.0034
2588.00,0.0034
2587.00,0.0034
2586.00,0.0034
2585.00,0.0035
2584.00,0.0036
2583.00,0.0037
2582.00,0.0037
2581.00,0.0038
2580.00,0.0038
2579.00,0.0038
2578.00,0.0037
2577.00,0.0035
2576.00,0.0033
2575.00,0.0032
2574.00,0.0030
2573.00,0.0029
2572.00,0.0028
2571.00,0.0027
2570.00,0.0026
2569.00,0.0025
2568.00,0.0025
2567.00,0.0025
2566.00,0.0025
2565.00,0.0025
2564.00,0.0025
2563.00,0.0025
2562.00,0.0025
2561.00,0.0024
2560.00,0.0024
2559.00,0.0023
2558.00,0.0022
2557.00,0.0022
2556.00,0.0021
2555.00,0.0021
2554.00,0.0021
2553.00,0.0021
2552.00,0.0021
2551.00,0.0021
2550.00,0.0021
2549.00,0.0020
2548.00,0.0020
2547.00,0.0020
2546.00,0.0020
2545.00,0.0019
2544.00,0.0019
2543.00,0.0019
2542.00,0.0018
2541.00,0.0017
2540.00,0.0017
2539.00,0.0017
2538.00,0.0017
2537.00,0.0017
2536.00,0.0017
2535.00,0.0016
2534.00,0.0016
2533.00,0.0016
2532.00,0.0016
2531.00,0.0015
2530.00,0.0015
2529.00,0.0015
2528.00,0.0014
2527.00,0.0014
2526.00,0.0013
2525.00,0.0013
2524.00,0.0013
2523.00,0.0013
2522.00,0.0013
2521.00,0.0013
2520.00,0.0012
2519.00,0.0012
2518.00,0.0011
2517.00,0.0011
2516.00,0.0011
2515.00,0.0011
2514.00,0.0011
2513.00,0.0011
2512.00,0.0011
2511.00,0.0011
2510.00,0.0011
2509.00,0.0011
2508.00,0.0012
2507.00,0.0012
2506.00,0.0012
2505.00,0.0011
2504.00,0.0011
2503.00,0.0011
2502.00,0.0011
2501.00,0.0011
2500.00,0.0011
2499.00,0.0011
2498.00,0.0011
2497.00,0.0011
2496.00,0.0011
2495.00,0.0011
2494.00,0.0011
2493.00,0.0011
2492.00,0.0011
2491.00,0.0011
2490.00,0.0011
2489.00,0.0010
2488.00,0.0010
2487.00,0.0009
2486.00,0.0009
2485.00,0.0009
2484.00,0.0009
2483.00,0.0009
2482.00,0.0009
2481.00,0.0009
2480.00,0.0009
2479.00,0.0008
2478.00,0.0009
2477.00,0.0009
2476.00,0.0009
2475.00,0.0009
2474.00,0.0009
2473.00,0.0009
2472.00,0.0008
2471.00,0.0008
2470.00,0.0008
2469.00,0.0007
2468.00,0.0007
2467.00,0.0007
2466.00,0.0007
2465.00,0.0008
2464.00,0.0008
2463.00,0.0008
2462.00,0.0009
2461.00,0.0009
2460.00,0.0009
2459.00,0.0009
2458.00,0.0010
2457.00,0.0010
2456.00,0.0011
2455.00,0.0011
2454.00,0.0012
2453.00,0.0012
2452.00,0.0011
2451.00,0.0011
2450.00,0.0010
2449.00,0.0010
2448.00,0.0010
2447.00,0.0010
2446.00,0.0010
2445.00,0.0010
2444.00,0.0010
2443.00,0.0010
2442.00,0.0010
2441.00,0.0011
2440.00,0.0011
2439.00,0.0011
2438.00,0.0011
2437.00,0.0012
2436.00,0.0012
2435.00,0.0012
2434.00,0.0012
2433.00,0.0012
2432.00,0.0012
2431.00,0.0012
2430.00,0.0012
2429.00,0.0012
2428.00,0.0012
2427.00,0.0012
2426.00,0.0012
2425.00,0.0011
2424.00,0.0011
2423.00,0.0011
2422.00,0.0010
2421.00,0.0009
2420.00,0.0009
2419.00,0.0009
2418.00,0.0009
2417.00,0.0009
2416.00,0.0009
2415.00,0.0009
2414.00,0.0009
2413.00,0.0010
2412.00,0.0010
2411.00,0.0010
2410.00,0.0010
2409.00,0.0010
2408.00,0.0009
2407.00,0.0008
2406.00,0.0008
2405.00,0.0008
2404.00,0.0009
2403.00,0.0009
2402.00,0.0009
2401.00,0.0009
2400.00,0.0009
2399.00,0.0009
2398.00,0.0009
2397.00,0.0009
2396.00,0.0009
2395.00,0.0009
2394.00,0.0008
2393.00,0.0008
2392.00,0.0008
2391.00,0.0008
2390.00,0.0008
2389.00,0.0008
2388.00,0.0008
2387.00,0.0007
2386.00,0.0007
2385.00,0.0006
2384.00,0.0006
2383.00,0.0005
2382.00,0.0005
2381.00,0.0004
2380.00,0.0004
2379.00,0.0004
2378.00,0.0004
2377.00,0.0005
2376.00,0.0005
2375.00,0.0005
2374.00,0.0006
2373.00,0.0006
2372.00,0.0005
2371.00,0.0005
2370.00,0.0005
2369.00,0.0004
2368.00,0.0004
2367.00,0.0004
2366.00,0.0004
2365.00,0.0005
2364.00,0.0005
2363.00,0.0006
2362.00,0.0006
2361.00,0.0006
2360.00,0.0006
2359.00,0.0006
2358.00,0.0006
2357.00,0.0006
2356.00,0.0007
2355.00,0.0007
2354.00,0.0007
2353.00,0.0007
2352.00,0.0006
2351.00,0.0006
2350.00,0.0007
2349.00,0.0007
2348.00,0.0007
2347.00,0.0008
2346.00,0.0008
2345.00,0.0008
2344.00,0.0008
2343.00,0.0009
2342.00,0.0009
2341.00,0.0009
2340.00,0.0010
2339.00,0.0010
2338.00,0.0010
2337.00,0.0009
2336.00,0.0009
2335.00,0.0010
2334.00,0.0010
2333.00,0.0010
2332.00,0.0010
2331.00,0.0010
2330.00,0.0010
2329.00,0.0010
2328.00,0.0011
2327.00,0.0014
2326.00,0.0018
2325.00,0.0021
2324.00,0.0023
2323.00,0.0022
2322.00,0.0020
2321.00,0.0018
2320.00,0.0017
2319.00,0.0016
2318.00,0.0015
2317.00,0.0014
2316.00,0.0014
2315.00,0.0012
2314.00,0.0011
2313.00,0.0010
2312.00,0.0008
2311.00,0.0008
2310.00,0.0007
2309.00,0.0007
2308.00,0.0008
2307.00,0.0008
2306.00,0.0009
2305.00,0.0010
2304.00,0.0010
2303.00,0.0010
2302.00,0.0009
2301.00,0.0009
2300.00,0.0009
2299.00,0.0010
2298.00,0.0011
2297.00,0.0012
2296.00,0.0012
2295.00,0.0013
2294.00,0.0013
2293.00,0.0013
2292.00,0.0014
2291.00,0.0015
2290.00,0.0016
2289.00,0.0017
2288.00,0.0018
2287.00,0.0018
2286.00,0.0019
2285.00,0.0019
2284.00,0.0018
2283.00,0.0018
2282.00,0.0017
2281.00,0.0016
2280.00,0.0014
2279.00,0.0013
2278.00,0.0013
2277.00,0.0013
2276.00,0.0013
2275.00,0.0013
2274.00,0.0014
2273.00,0.0015
2272.00,0.0015
2271.00,0.0014
2270.00,0.0014
2269.00,0.0015
2268.00,0.0016
2267.00,0.0016
2266.00,0.0015
2265.00,0.0014
2264.00,0.0013
2263.00,0.0012
2262.00,0.0011
2261.00,0.0011
2260.00,0.0011
2259.00,0.0012
2258.00,0.0012
2257.00,0.0012
2256.00,0.0010
2255.00,0.0009
2254.00,0.0008
2253.00,0.0008
2252.00,0.0008
2251.00,0.0009
2250.00,0.0010
2249.00,0.0011
2248.00,0.0010
2247.00,0.0009
2246.00,0.0008
2245.00,0.0008
2244.00,0.0007
2243.00,0.0007
2242.00,0.0007
2241.00,0.0007
2240.00,0.0007
2239.00,0.0007
2238.00,0.0008
2237.00,0.0010
2236.00,0.0012
2235.00,0.0014
2234.00,0.0014
2233.00,0.0014
2232.00,0.0012
2231.00,0.0010
2230.00,0.0007
2229.00,0.0006
2228.00,0.0006
2227.00,0.0007
2226.00,0.0008
2225.00,0.0009
2224.00,0.0010
2223.00,0.0012
2222.00,0.0012
2221.00,0.0012
2220.00,0.0010
2219.00,0.0008
2218.00,0.0007
2217.00,0.0007
2216.00,0.0007
2215.00,0.0005
2214.00,0.0002
2213.00,0.0001
2212.00,0.0001
2211.00,0.0002
2210.00,0.0002
2209.00,0.0003
2208.00,0.0004
2207.00,0.0006
2206.00,0.0007
2205.00,0.0008
2204.00,0.0009
2203.00,0.0010
2202.00,0.0010
2201.00,0.0010
2200.00,0.0009
2199.00,0.0009
2198.00,0.0008
2197.00,0.0008
2196.00,0.0009
2195.00,0.0010
2194.00,0.0011
2193.00,0.0011
2192.00,0.0009
2191.00,0.0008
2190.00,0.0009
2189.00,0.0010
2188.00,0.0012
2187.00,0.0013
2186.00,0.0012
2185.00,0.0009
2184.00,0.0005
2183.00,0.0001
2182.00,-0.0001
2181.00,-0.0001
2180.00,0.0001
2179.00,0.0003
2178.00,0.0005
2177.00,0.0006
2176.00,0.0005
2175.00,0.0004
2174.00,0.0003
2173.00,0.0003
2172.00,0.0004
2171.00,0.0005
2170.00,0.0005
2169.00,0.0007
2168.00,0.0010
2167.00,0.0013
2166.00,0.0016
2165.00,0.0018
2164.00,0.0020
2163.00,0.0022
2162.00,0.0021
2161.00,0.0014
2160.00,-0.0000
2159.00,-0.0017
2158.00,-0.0031
2157.00,-0.0036
2156.00,-0.0036
2155.00,-0.0032
2154.00,-0.0027
2153.00,-0.0022
2152.00,-0.0018
2151.00,-0.0016
2150.00,-0.0014
2149.00,-0.0013
2148.00,-0.0012
2147.00,-0.0011
2146.00,-0.0010
2145.00,-0.0009
2144.00,-0.0009
2143.00,-0.0008
2142.00,-0.0008
2141.00,-0.0008
2140.00,-0.0009
2139.00,-0.0010
2138.00,-0.0012
2137.00,-0.0015
2136.00,-0.0016
2135.00,-0.0017
2134.00,-0.0016
2133.00,-0.0014
2132.00,-0.0013
2131.00,-0.0011
2130.00,-0.0010
2129.00,-0.0009
2128.00,-0.0008
2127.00,-0.0006
2126.00,-0.0005
2125.00,-0.0004
2124.00,-0.0002
2123.00,-0.0001
2122.00,0.0000
2121.00,0.0000
2120.00,0.0000
2119.00,0.0000
2118.00,0.0001
2117.00,0.0001
2116.00,0.0002
2115.00,0.0002
2114.00,0.0002
2113.00,0.0002
2112.00,0.0002
2111.00,0.0001
2110.00,-0.0001
2109.00,-0.0002
2108.00,-0.0002
2107.00,-0.0001
2106.00,-0.0000
2105.00,0.0001
2104.00,0.0001
2103.00,0.0001
2102.00,0.0001
2101.00,-0.0000
2100.00,-0.0001
2099.00,-0.0002
2098.00,-0.0002
2097.00,-0.0002
2096.00,-0.0002
2095.00,-0.0002
2094.00,-0.0002
2093.00,-0.0002
2092.00,-0.0003
2091.00,-0.0003
2090.00,-0.0003
2089.00,-0.0002
2088.00,-0.0001
2087.00,-0.0001
2086.00,-0.0000
2085.00,0.0001
2084.00,0.0002
2083.00,0.0002
2082.00,0.0002
2081.00,0.0001
2080.00,0.0001
2079.00,0.0001
2078.00,0.0001
2077.00,0.0001
2076.00,0.0002
2075.00,0.0001
2074.00,0.0001
2073.00,0.0001
2072.00,0.0001
2071.00,0.0000
2070.00,-0.0001
2069.00,-0.0001
2068.00,-0.0001
2067.00,0.0000
2066.00,0.0001
2065.00,0.0001
2064.00,0.0001
2063.00,-0.0000
2062.00,0.0000
2061.00,0.0001
2060.00,0.0001
2059.00,0.0001
2058.00,0.0001
2057.00,0.0000
2056.00,-0.0000
2055.00,0.0001
2054.00,0.0004
2053.00,0.0009
2052.00,0.0015
2051.00,0.0018
2050.00,0.0016
2049.00,0.0012
2048.00,0.0008
2047.00,0.0006
2046.00,0.0004
2045.00,0.0002
2044.00,-0.0000
2043.00,-0.0003
2042.00,-0.0004
2041.00,-0.0003
2040.00,0.0000
2039.00,0.0004
2038.00,0.0007
2037.00,0.0008
2036.00,0.0006
2035.00,0.0002
2034.00,-0.0003
2033.00,-0.0007
2032.00,-0.0009
2031.00,-0.0011
2030.00,-0.0010
2029.00,-0.0008
2028.00,-0.0005
2027.00,-0.0003
2026.00,-0.0002
2025.00,-0.0003
2024.00,-0.0006
2023.00,-0.0008
2022.00,-0.0010
2021.00,-0.0010
2020.00,-0.0009
2019.00,-0.0009
2018.00,-0.0010
2017.00,-0.0011
2016.00,-0.0011
2015.00,-0.0010
2014.00,-0.0007
2013.00,-0.0005
2012.00,-0.0004
2011.00,-0.0005
2010.00,-0.0008
2009.00,-0.0012
2008.00,-0.0015
2007.00,-0.0017
2006.00,-0.0016
2005.00,-0.0014
2004.00,-0.0012
2003.00,-0.0012
2002.00,-0.0013
2001.00,-0.0015
2000.00,-0.0015
1999.00,-0.0014
1998.00,-0.0015
1997.00,-0.0015
1996.00,-0.0014
1995.00,-0.0012
1994.00,-0.0010
1993.00,-0.0010
1992.00,-0.0010
1991.00,-0.0009
1990.00,-0.0008
1989.00,-0.0006
1988.00,-0.0004
1987.00,-0.0002
1986.00,0.0000
1985.00,0.0002
1984.00,0.0004
1983.00,0.0004
1982.00,0.0006
1981.00,0.0008
1980.00,0.0009
1979.00,0.0006
1978.00,0.0000
1977.00,-0.0007
1976.00,-0.0011
1975.00,-0.0014
1974.00,-0.0015
1973.00,-0.0015
1972.00,-0.0014
1971.00,-0.0014
1970.00,-0.0013
1969.00,-0.0012
1968.00,-0.0010
1967.00,-0.0009
1966.00,-0.0009
1965.00,-0.0010
1964.00,-0.0012
1963.00,-0.0015
1962.00,-0.0017
1961.00,-0.0018
1960.00,-0.0018
1959.00,-0.0016
1958.00,-0.0013
1957.00,-0.0010
1956.00,-0.0007
1955.00,-0.0006
1954.00,-0.0007
1953.00,-0.0010
1952.00,-0.0012
1951.00,-0.0013
1950.00,-0.0014
1949.00,-0.0014
1948.00,-0.0014
1947.00,-0.0015
1946.00,-0.0016
1945.00,-0.0016
1944.00,-0.0016
1943.00,-0.0014
1942.00,-0.0013
1941.00,-0.0011
1940.00,-0.0010
1939.00,-0.0010
1938.00,-0.0010
1937.00,-0.0010
1936.00,-0.0010
1935.00,-0.0009
1934.00,-0.0009
1933.00,-0.0009
1932.00,-0.0009
1931.00,-0.0009
1930.00,-0.0010
1929.00,-0.0010
1928.00,-0.0010
1927.00,-0.0009
1926.00,-0.0007
1925.00,-0.0005
1924.00,-0.0004
1923.00,-0.0004
1922.00,-0.0005
1921.00,-0.0005
1920.00,-0.0005
1919.00,-0.0003
1918.00,-0.0002
1917.00,-0.0002
1916.00,-0.0002
1915.00,-0.0003
1914.00,-0.0003
1913.00,-0.0003
1912.00,-0.0002
1911.00,-0.0001
1910.00,-0.0000
1909.00,-0.0000
1908.00,-0.0000
1907.00,-0.0001
1906.00,-0.0001
1905.00,-0.0001
1904.00,-0.0000
1903.00,0.0000
1902.00,0.0001
1901.00,0.0001
1900.00,0.0000
1899.00,-0.0000
1898.00,-0.0000
1897.00,0.0000
1896.00,0.0001
1895.00,0.0000
1894.00,-0.0000
1893.00,-0.0001
1892.00,-0.0001
1891.00,-0.0001
1890.00,-0.0001
1889.00,-0.0000
1888.00,0.0001
1887.00,0.0001
1886.00,0.0001
1885.00,0.0001
1884.00,0.0000
1883.00,-0.0001
1882.00,-0.0001
1881.00,-0.0002
1880.00,-0.0003
1879.00,-0.0003
1878.00,-0.0003
1877.00,-0.0003
1876.00,-0.0002
1875.00,-0.0001
1874.00,-0.0000
1873.00,-0.0000
1872.00,-0.0000
1871.00,0.0000
1870.00,0.0001
1869.00,0.0002
1868.00,0.0002
1867.00,0.0002
1866.00,0.0002
1865.00,0.0001
1864.00,0.0000
1863.00,-0.0000
1862.00,-0.0000
1861.00,0.0000
1860.00,0.0001
1859.00,0.0001
1858.00,0.0001
1857.00,0.0001
1856.00,0.0002
1855.00,0.0002
1854.00,0.0003
1853.00,0.0003
1852.00,0.0003
1851.00,0.0003
1850.00,0.0002
1849.00,0.0002
1848.00,0.0001
1847.00,-0.0000
1846.00,-0.0001
1845.00,-0.0001
1844.00,0.0000
1843.00,0.0001
1842.00,0.0002
1841.00,0.0002
1840.00,0.0001
1839.00,0.0001
1838.00,0.0001
1837.00,0.0001
1836.00,0.0002
1835.00,0.0003
1834.00,0.0003
1833.00,0.0004
1832.00,0.0004
1831.00,0.0005
1830.00,0.0005
1829.00,0.0005
1828.00,0.0004
1827.00,0.0003
1826.00,0.0003
1825.00,0.0004
1824.00,0.0005
1823.00,0.0005
1822.00,0.0005
1821.00,0.0004
1820.00,0.0003
1819.00,0.0002
1818.00,0.0001
1817.00,0.0001
1816.00,0.0001
1815.00,0.0002
1814.00,0.0002
1813.00,0.0002
1812.00,0.0002
1811.00,0.0003
1810.00,0.0004
1809.00,0.0004
1808.00,0.0004
1807.00,0.0005
1806.00,0.0005
1805.00,0.0005
1804.00,0.0005
1803.00,0.0005
1802.00,0.0004
1801.00,0.0004
1800.00,0.0005
1799.00,0.0005
1798.00,0.0005
1797.00,0.0005
1796.00,0.0005
1795.00,0.0006
1794.00,0.0006
1793.00,0.0006
1792.00,0.0007
1791.00,0.0007
1790.00,0.0007
1789.00,0.0007
1788.00,0.0007
1787.00,0.0008
1786.00,0.0008
1785.00,0.0008
1784.00,0.0008
1783.00,0.0008
1782.00,0.0007
1781.00,0.0008
1780.00,0.0008
1779.00,0.0009
1778.00,0.0009
1777.00,0.0009
1776.00,0.0009
1775.00,0.0009
1774.00,0.0009
1773.00,0.0009
1772.00,0.0009
1771.00,0.0010
1770.00,0.0010
1769.00,0.0011
1768.00,0.0011
1767.00,0.0011
1766.00,0.0010
1765.00,0.0010
1764.00,0.0010
1763.00,0.0011
1762.00,0.0012
1761.00,0.0013
1760.00,0.0013
1759.00,0.0013
1758.00,0.0014
1757.00,0.0014
1756.00,0.0015
1755.00,0.0016
1754.00,0.0016
1753.00,0.0017
1752.00,0.0019
1751.00,0.0020
1750.00,0.0021
1749.00,0.0022
1748.00,0.0023
1747.00,0.0025
1746.00,0.0027
1745.00,0.0029
1744.00,0.0031
1743.00,0.0033
1742.00,0.0033
1741.00,0.0034
1740.00,0.0036
1739.00,0.0036
1738.00,0.0037
1737.00,0.0037
1736.00,0.0037
1735.00,0.0037
1734.00,0.0037
1733.00,0.0037
1732.00,0.0037
1731.00,0.0036
1730.00,0.0036
1729.00,0.0036
1728.00,0.0036
1727.00,0.0036
1726.00,0.0035
1725.00,0.0034
1724.00,0.0033
1723.00,0.0032
1722.00,0.0031
1721.00,0.0030
1720.00,0.0029
1719.00,0.0029
1718.00,0.0029
1717.00,0.0028
1716.00,0.0027
1715.00,0.0026
1714.00,0.0026
1713.00,0.0026
1712.00,0.0026
1711.00,0.0026
1710.00,0.0026
1709.00,0.0026
1708.00,0.0026
1707.00,0.0026
1706.00,0.0026
1705.00,0.0026
1704.00,0.0026
1703.00,0.0027
1702.00,0.0027
1701.00,0.0027
1700.00,0.0028
1699.00,0.0028
1698.00,0.0028
1697.00,0.0029
1696.00,0.0030
1695.00,0.0031
1694.00,0.0032
1693.00,0.0032
1692.00,0.0033
1691.00,0.0033
1690.00,0.0033
1689.00,0.0034
1688.00,0.0034
1687.00,0.0035
1686.00,0.0036
1685.00,0.0038
1684.00,0.0040
1683.00,0.0040
1682.00,0.0041
1681.00,0.0041
1680.00,0.0042
1679.00,0.0042
1678.00,0.0042
1677.00,0.0043
1676.00,0.0044
1675.00,0.0045
1674.00,0.0045
1673.00,0.0046
1672.00,0.0047
1671.00,0.0047
1670.00,0.0048
1669.00,0.0049
1668.00,0.0050
1667.00,0.0051
1666.00,0.0052
1665.00,0.0053
1664.00,0.0053
1663.00,0.0054
1662.00,0.0054
1661.00,0.0054
1660.00,0.0054
1659.00,0.0054
1658.00,0.0055
1657.00,0.0055
1656.00,0.0055
1655.00,0.0055
1654.00,0.0056
1653.00,0.0056
1652.00,0.0056
1651.00,0.0056
1650.00,0.0057
1649.00,0.0057
1648.00,0.0058
1647.00,0.0059
1646.00,0.0060
1645.00,0.0060
1644.00,0.0061
1643.00,0.0061
1642.00,0.0062
1641.00,0.0063
1640.00,0.0063
1639.00,0.0064
1638.00,0.0064
1637.00,0.0065
1636.00,0.0065
1635.00,0.0065
1634.00,0.0063
1633.00,0.0062
1632.00,0.0061
1631.00,0.0059
1630.00,0.0058
1629.00,0.0057
1628.00,0.0056
1627.00,0.0056
1626.00,0.0055
1625.00,0.0055
1624.00,0.0055
1623.00,0.0054
1622.00,0.0053
1621.00,0.0052
1620.00,0.0052
1619.00,0.0051
1618.00,0.0051
1617.00,0.0050
1616.00,0.0050
1615.00,0.0050
1614.00,0.0049
1613.00,0.0050
1612.00,0.0050
1611.00,0.0050
1610.00,0.0050
1609.00,0.0050
1608.00,0.0049
1607.00,0.0049
1606.00,0.0048
1605.00,0.0048
1604.00,0.0049
1603.00,0.0049
1602.00,0.0049
1601.00,0.0049
1600.00,0.0048
1599.00,0.0048
1598.00,0.0047
1597.00,0.0047
1596.00,0.0046
1595.00,0.0046
1594.00,0.0046
1593.00,0.0047
1592.00,0.0047
1591.00,0.0047
1590.00,0.0048
1589.00,0.0048
1588.00,0.0048
1587.00,0.0048
1586.00,0.0048
1585.00,0.0049
1584.00,0.0049
1583.00,0.0050
1582.00,0.0050
1581.00,0.0051
1580.00,0.0052
1579.00,0.0052
1578.00,0.0053
1577.00,0.0053
1576.00,0.0054
1575.00,0.0054
1574.00,0.0054
1573.00,0.0054
1572.00,0.0055
1571.00,0.0055
1570.00,0.0056
1569.00,0.0057
1568.00,0.0058
1567.00,0.0058
1566.00,0.0058
1565.00,0.0058
1564.00,0.0057
1563.00,0.0056
1562.00,0.0055
1561.00,0.0054
1560.00,0.0054
1559.00,0.0054
1558.00,0.0054
1557.00,0.0055
1556.00,0.0056
1555.00,0.0058
1554.00,0.0059
1553.00,0.0059
1552.00,0.0059
1551.00,0.0059
1550.00,0.0059
1549.00,0.0060
1548.00,0.0060
1547.00,0.0060
1546.00,0.0060
1545.00,0.0061
1544.00,0.0062
1543.00,0.0062
1542.00,0.0062
1541.00,0.0062
1540.00,0.0062
1539.00,0.0060
1538.00,0.0059
1537.00,0.0058
1536.00,0.0057
1535.00,0.0056
1534.00,0.0055
1533.00,0.0054
1532.00,0.0053
1531.00,0.0052
1530.00,0.0051
1529.00,0.0051
1528.00,0.0051
1527.00,0.0051
1526.00,0.0051
1525.00,0.0051
1524.00,0.0051
1523.00,0.0051
1522.00,0.0051
1521.00,0.0051
1520.00,0.0053
1519.00,0.0053
1518.00,0.0054
1517.00,0.0055
1516.00,0.0055
1515.00,0.0054
1514.00,0.0054
1513.00,0.0055
1512.00,0.0056
1511.00,0.0056
1510.00,0.0056
1509.00,0.0057
1508.00,0.0059
1507.00,0.0060
1506.00,0.0060
1505.00,0.0061
1504.00,0.0063
1503.00,0.0064
1502.00,0.0066
1501.00,0.0068
1500.00,0.0070
1499.00,0.0072
1498.00,0.0074
1497.00,0.0077
1496.00,0.0080
1495.00,0.0082
1494.00,0.0084
1493.00,0.0086
1492.00,0.0090
1491.00,0.0094
1490.00,0.0098
1489.00,0.0103
1488.00,0.0108
1487.00,0.0112
1486.00,0.0116
1485.00,0.0121
1484.00,0.0128
1483.00,0.0134
1482.00,0.0142
1481.00,0.0152
1480.00,0.0164
1479.00,0.0176
1478.00,0.0190
1477.00,0.0211
1476.00,0.0236
1475.00,0.0265
1474.00,0.0305
1473.00,0.0362
1472.00,0.0429
1471.00,0.0494
1470.00,0.0555
1469.00,0.0619
1468.00,0.0687
1467.00,0.0762
1466.00,0.0846
1465.00,0.0938
1464.00,0.1017
1463.00,0.1073
1462.00,0.1108
1461.00,0.1132
1460.00,0.1150
1459.00,0.1162
1458.00,0.1174
1457.00,0.1185
1456.00,0.1188
1455.00,0.1184
1454.00,0.1176
1453.00,0.1164
1452.00,0.1143
1451.00,0.1110
1450.00,0.1063
1449.00,0.0996
1448.00,0.0907
1447.00,0.0811
1446.00,0.0723
1445.00,0.0647
1444.00,0.0581
1443.00,0.0527
1442.00,0.0485
1441.00,0.0454
1440.00,0.0434
1439.00,0.0423
1438.00,0.0420
1437.00,0.0417
1436.00,0.0406
1435.00,0.0382
1434.00,0.0348
1433.00,0.0308
1432.00,0.0266
1431.00,0.0229
1430.00,0.0199
1429.00,0.0177
1428.00,0.0161
1427.00,0.0152
1426.00,0.0145
1425.00,0.0139
1424.00,0.0133
1423.00,0.0129
1422.00,0.0127
1421.00,0.0124
1420.00,0.0121
1419.00,0.0119
1418.00,0.0118
1417.00,0.0116
1416.00,0.0113
1415.00,0.0112
1414.00,0.0112
1413.00,0.0110
1412.00,0.0108
1411.00,0.0107
1410.00,0.0107
1409.00,0.0106
1408.00,0.0105
1407.00,0.0105
1406.00,0.0105
1405.00,0.0105
1404.00,0.0104
1403.00,0.0105
1402.00,0.0106
1401.00,0.0107
1400.00,0.0108
1399.00,0.0109
1398.00,0.0112
1397.00,0.0113
1396.00,0.0115
1395.00,0.0118
1394.00,0.0123
1393.00,0.0127
1392.00,0.0132
1391.00,0.0140
1390.00,0.0150
1389.00,0.0164
1388.00,0.0185
1387.00,0.0215
1386.00,0.0256
1385.00,0.0310
1384.00,0.0384
1383.00,0.0488
1382.00,0.0627
1381.00,0.0805
1380.00,0.1023
1379.00,0.1270
1378.00,0.1506
1377.00,0.1679
1376.00,0.1735
1375.00,0.1646
1374.00,0.1438
1373.00,0.1190
1372.00,0.0964
1371.00,0.0779
1370.00,0.0630
1369.00,0.0516
1368.00,0.0437
1367.00,0.0388
1366.00,0.0361
1365.00,0.0350
1364.00,0.0353
1363.00,0.0365
1362.00,0.0385
1361.00,0.0405
1360.00,0.0421
1359.00,0.0425
1358.00,0.0415
1357.00,0.0391
1356.00,0.0358
1355.00,0.0321
1354.00,0.0285
1353.00,0.0255
1352.00,0.0230
1351.00,0.0210
1350.00,0.0193
1349.00,0.0179
1348.00,0.0168
1347.00,0.0158
1346.00,0.0149
1345.00,0.0142
1344.00,0.0137
1343.00,0.0132
1342.00,0.0128
1341.00,0.0125
1340.00,0.0122
1339.00,0.0120
1338.00,0.0119
1337.00,0.0118
1336.00,0.0118
1335.00,0.0119
1334.00,0.0122
1333.00,0.0125
1332.00,0.0129
1331.00,0.0133
1330.00,0.0134
1329.00,0.0134
1328.00,0.0132
1327.00,0.0128
1326.00,0.0123
1325.00,0.0117
1324.00,0.0112
1323.00,0.0107
1322.00,0.0103
1321.00,0.0101
1320.00,0.0100
1319.00,0.0098
1318.00,0.0096
1317.00,0.0094
1316.00,0.0093
1315.00,0.0093
1314.00,0.0093
1313.00,0.0094
1312.00,0.0095
1311.00,0.0098
1310.00,0.0103
1309.00,0.0111
1308.00,0.0122
1307.00,0.0135
1306.00,0.0148
1305.00,0.0156
1304.00,0.0158
1303.00,0.0154
1302.00,0.0147
1301.00,0.0139
1300.00,0.0134
1299.00,0.0132
1298.00,0.0131
1297.00,0.0131
1296.00,0.0130
1295.00,0.0128
1294.00,0.0125
1293.00,0.0120
1292.00,0.0115
1291.00,0.0111
1290.00,0.0107
1289.00,0.0103
1288.00,0.0100
1287.00,0.0097
1286.00,0.0095
1285.00,0.0093
1284.00,0.0091
1283.00,0.0090
1282.00,0.0089
1281.00,0.0088
1280.00,0.0087
1279.00,0.0086
1278.00,0.0086
1277.00,0.0085
1276.00,0.0085
1275.00,0.0085
1274.00,0.0085
1273.00,0.0086
1272.00,0.0087
1271.00,0.0088
1270.00,0.0089
1269.00,0.0091
1268.00,0.0094
1267.00,0.0097
1266.00,0.0101
1265.00,0.0104
1264.00,0.0107
1263.00,0.0111
1262.00,0.0115
1261.00,0.0120
1260.00,0.0126
1259.00,0.0133
1258.00,0.0141
1257.00,0.0147
1256.00,0.0149
1255.00,0.0147
1254.00,0.0138
1253.00,0.0127
1252.00,0.0116
1251.00,0.0107
1250.00,0.0100
1249.00,0.0095
1248.00,0.0092
1247.00,0.0089
1246.00,0.0088
1245.00,0.0086
1244.00,0.0086
1243.00,0.0085
1242.00,0.0083
1241.00,0.0082
1240.00,0.0081
1239.00,0.0080
1238.00,0.0080
1237.00,0.0079
1236.00,0.0079
1235.00,0.0079
1234.00,0.0078
1233.00,0.0079
1232.00,0.0079
1231.00,0.0080
1230.00,0.0080
1229.00,0.0081
1228.00,0.0082
1227.00,0.0084
1226.00,0.0086
1225.00,0.0088
1224.00,0.0091
1223.00,0.0094
1222.00,0.0097
1221.00,0.0101
1220.00,0.0103
1219.00,0.0104
1218.00,0.0103
1217.00,0.0102
1216.00,0.0100
1215.00,0.0097
1214.00,0.0094
1213.00,0.0092
1212.00,0.0089
1211.00,0.0088
1210.00,0.0086
1209.00,0.0086
1208.00,0.0085
1207.00,0.0084
1206.00,0.0083
1205.00,0.0082
1204.00,0.0082
1203.00,0.0082
1202.00,0.0082
1201.00,0.0082
1200.00,0.0082
1199.00,0.0082
1198.00,0.0082
1197.00,0.0082
1196.00,0.0083
1195.00,0.0083
1194.00,0.0083
1193.00,0.0084
1192.00,0.0085
1191.00,0.0085
1190.00,0.0085
1189.00,0.0086
1188.00,0.0086
1187.00,0.0087
1186.00,0.0087
1185.00,0.0088
1184.00,0.0090
1183.00,0.0091
1182.00,0.0093
1181.00,0.0097
1180.00,0.0101
1179.00,0.0107
1178.00,0.0114
1177.00,0.0123
1176.00,0.0135
1175.00,0.0152
1174.00,0.0174
1173.00,0.0202
1172.00,0.0237
1171.00,0.0277
1170.00,0.0316
1169.00,0.0348
1168.00,0.0368
1167.00,0.0372
1166.00,0.0361
1165.00,0.0341
1164.00,0.0316
1163.00,0.0292
1162.00,0.0272
1161.00,0.0255
1160.00,0.0242
1159.00,0.0231
1158.00,0.0223
1157.00,0.0217
1156.00,0.0214
1155.00,0.0210
1154.00,0.0207
1153.00,0.0203
1152.00,0.0197
1151.00,0.0190
1150.00,0.0181
1149.00,0.0171
1148.00,0.0161
1147.00,0.0152
1146.00,0.0144
1145.00,0.0137
1144.00,0.0130
1143.00,0.0124
1142.00,0.0118
1141.00,0.0112
1140.00,0.0107
1139.00,0.0103
1138.00,0.0098
1137.00,0.0094
1136.00,0.0091
1135.00,0.0089
1134.00,0.0087
1133.00,0.0087
1132.00,0.0087
1131.00,0.0088
1130.00,0.0088
1129.00,0.0089
1128.00,0.0089
1127.00,0.0089
1126.00,0.0089
1125.00,0.0090
1124.00,0.0090
1123.00,0.0091
1122.00,0.0093
1121.00,0.0094
1120.00,0.0096
1119.00,0.0097
1118.00,0.0098
1117.00,0.0099
1116.00,0.0100
1115.00,0.0102
1114.00,0.0103
1113.00,0.0104
1112.00,0.0107
1111.00,0.0109
1110.00,0.0112
1109.00,0.0116
1108.00,0.0120
1107.00,0.0126
1106.00,0.0132
1105.00,0.0138
1104.00,0.0142
1103.00,0.0144
1102.00,0.0144
1101.00,0.0141
1100.00,0.0136
1099.00,0.0130
1098.00,0.0125
1097.00,0.0120
1096.00,0.0116
1095.00,0.0113
1094.00,0.0110
1093.00,0.0108
1092.00,0.0106
1091.00,0.0105
1090.00,0.0104
1089.00,0.0101
1088.00,0.0099
1087.00,0.0098
1086.00,0.0097
1085.00,0.0097
1084.00,0.0097
1083.00,0.0097
1082.00,0.0097
1081.00,0.0096
1080.00,0.0095
1079.00,0.0094
1078.00,0.0093
1077.00,0.0093
1076.00,0.0093
1075.00,0.0093
1074.00,0.0092
1073.00,0.0092
1072.00,0.0091
1071.00,0.0090
1070.00,0.0090
1069.00,0.0089
1068.00,0.0089
1067.00,0.0090
1066.00,0.0091
1065.00,0.0091
1064.00,0.0092
1063.00,0.0094
1062.00,0.0095
1061.00,0.0096
1060.00,0.0096
1059.00,0.0097
1058.00,0.0098
1057.00,0.0100
1056.00,0.0102
1055.00,0.0104
1054.00,0.0106
1053.00,0.0109
1052.00,0.0112
1051.00,0.0116
1050.00,0.0121
1049.00,0.0127
1048.00,0.0133
1047.00,0.0138
1046.00,0.0144
1045.00,0.0147
1044.00,0.0149
1043.00,0.0148
1042.00,0.0146
1041.00,0.0142
1040.00,0.0138
1039.00,0.0135
1038.00,0.0134
1037.00,0.0134
1036.00,0.0134
1035.00,0.0133
1034.00,0.0131
1033.00,0.0129
1032.00,0.0127
1031.00,0.0127
1030.00,0.0127
1029.00,0.0128
1028.00,0.0129
1027.00,0.0131
1026.00,0.0134
1025.00,0.0136
1024.00,0.0137
1023.00,0.0139
1022.00,0.0141
1021.00,0.0142
1020.00,0.0144
1019.00,0.0145
1018.00,0.0146
1017.00,0.0146
1016.00,0.0146
1015.00,0.0146
1014.00,0.0146
1013.00,0.0147
1012.00,0.0147
1011.00,0.0148
1010.00,0.0148
1009.00,0.0149
1008.00,0.0152
1007.00,0.0157
1006.00,0.0166
1005.00,0.0178
1004.00,0.0197
1003.00,0.0223
1002.00,0.0259
1001.00,0.0304
1000.00,0.0353
999.00,0.0395
998.00,0.0418
997.00,0.0412
996.00,0.0380
995.00,0.0333
994.00,0.0282
993.00,0.0237
992.00,0.0203
991.00,0.0178
990.00,0.0160
989.00,0.0148
988.00,0.0140
987.00,0.0134
986.00,0.0132
985.00,0.0133
984.00,0.0136
983.00,0.0143
982.00,0.0153
981.00,0.0168
980.00,0.0190
979.00,0.0220
978.00,0.0259
977.00,0.0306
976.00,0.0359
975.00,0.0411
974.00,0.0454
973.00,0.0473
972.00,0.0461
971.00,0.0420
970.00,0.0359
969.00,0.0296
968.00,0.0241
967.00,0.0198
966.00,0.0168
965.00,0.0146
964.00,0.0131
963.00,0.0121
962.00,0.0112
961.00,0.0106
960.00,0.0100
959.00,0.0096
958.00,0.0092
957.00,0.0088
956.00,0.0086
955.00,0.0084
954.00,0.0082
953.00,0.0081
952.00,0.0079
951.00,0.0079
950.00,0.0078
949.00,0.0077
948.00,0.0077
947.00,0.0078
946.00,0.0079
945.00,0.0081
944.00,0.0084
943.00,0.0087
942.00,0.0090
941.00,0.0091
940.00,0.0092
939.00,0.0090
938.00,0.0087
937.00,0.0083
936.00,0.0078
935.00,0.0074
934.00,0.0070
933.00,0.0068
932.00,0.0067
931.00,0.0067
930.00,0.0066
929.00,0.0065
928.00,0.0064
927.00,0.0064
926.00,0.0064
925.00,0.0065
924.00,0.0066
923.00,0.0066
922.00,0.0067
921.00,0.0066
920.00,0.0066
919.00,0.0066
918.00,0.0066
917.00,0.0067
916.00,0.0067
915.00,0.0069
914.00,0.0070
913.00,0.0070
912.00,0.0071
911.00,0.0071
910.00,0.0072
909.00,0.0074
908.00,0.0077
907.00,0.0082
906.00,0.0088
905.00,0.0098
904.00,0.0110
903.00,0.0125
902.00,0.0142
901.00,0.0158
900.00,0.0169
899.00,0.0171
898.00,0.0164
897.00,0.0150
896.00,0.0133
895.00,0.0117
894.00,0.0105
893.00,0.0095
892.00,0.0087
891.00,0.0082
890.00,0.0079
889.00,0.0078
888.00,0.0078
887.00,0.0078
886.00,0.0078
885.00,0.0077
884.00,0.0075
883.00,0.0074
882.00,0.0073
881.00,0.0073
880.00,0.0074
879.00,0.0075
878.00,0.0075
877.00,0.0075
876.00,0.0075
875.00,0.0076
874.00,0.0076
873.00,0.0077
872.00,0.0078
871.00,0.0079
870.00,0.0080
869.00,0.0080
868.00,0.0081
867.00,0.0081
866.00,0.0082
865.00,0.0082
864.00,0.0083
863.00,0.0084
862.00,0.0085
861.00,0.0086
860.00,0.0087
859.00,0.0088
858.00,0.0089
857.00,0.0091
856.00,0.0093
855.00,0.0096
854.00,0.0100
853.00,0.0103
852.00,0.0107
851.00,0.0111
850.00,0.0116
849.00,0.0122
848.00,0.0133
847.00,0.0148
846.00,0.0172
845.00,0.0209
844.00,0.0264
843.00,0.0331
842.00,0.0391
841.00,0.0417
840.00,0.0395
839.00,0.0337
838.00,0.0268
837.00,0.0212
836.00,0.0174
835.00,0.0151
834.00,0.0136
833.00,0.0128
832.00,0.0122
831.00,0.0119
830.00,0.0115
829.00,0.0113
828.00,0.0111
827.00,0.0109
826.00,0.0108
825.00,0.0108
824.00,0.0108
823.00,0.0109
822.00,0.0111
821.00,0.0113
820.00,0.0115
819.00,0.0118
818.00,0.0121
817.00,0.0126
816.00,0.0133
815.00,0.0143
814.00,0.0155
813.00,0.0170
812.00,0.0187
811.00,0.0204
810.00,0.0216
809.00,0.0222
808.00,0.0219
807.00,0.0208
806.00,0.0193
805.00,0.0177
804.00,0.0162
803.00,0.0150
802.00,0.0140
801.00,0.0133
800.00,0.0128
799.00,0.0123
798.00,0.0118
797.00,0.0114
796.00,0.0109
795.00,0.0106
794.00,0.0102
793.00,0.0098
792.00,0.0095
791.00,0.0092
790.00,0.0090
789.00,0.0087
788.00,0.0084
787.00,0.0080
786.00,0.0077
785.00,0.0074
784.00,0.0071
783.00,0.0069
782.00,0.0068
781.00,0.0068
780.00,0.0068
779.00,0.0067
778.00,0.0066
777.00,0.0066
776.00,0.0066
775.00,0.0067
774.00,0.0068
773.00,0.0068
772.00,0.0068
771.00,0.0068
770.00,0.0068
769.00,0.0068
768.00,0.0068
767.00,0.0068
766.00,0.0068
765.00,0.0069
764.00,0.0069
763.00,0.0069
762.00,0.0069
761.00,0.0069
760.00,0.0070
759.00,0.0071
758.00,0.0073
757.00,0.0075
756.00,0.0077
755.00,0.0079
754.00,0.0080
753.00,0.0079
752.00,0.0078
751.00,0.0077
750.00,0.0077
749.00,0.0078
748.00,0.0081
747.00,0.0084
746.00,0.0087
745.00,0.0089
744.00,0.0090
743.00,0.0092
742.00,0.0093
741.00,0.0096
740.00,0.0100
739.00,0.0105
738.00,0.0110
737.00,0.0114
736.00,0.0117
735.00,0.0120
734.00,0.0124
733.00,0.0130
732.00,0.0137
731.00,0.0143
730.00,0.0149
729.00,0.0152
728.00,0.0153
727.00,0.0154
726.00,0.0156
725.00,0.0160
724.00,0.0165
723.00,0.0171
722.00,0.0176
721.00,0.0179
720.00,0.0177
719.00,0.0170
718.00,0.0159
717.00,0.0146
716.00,0.0135
715.00,0.0126
714.00,0.0122
713.00,0.0119
712.00,0.0117
711.00,0.0114
710.00,0.0112
709.00,0.0111
708.00,0.0110
707.00,0.0108
706.00,0.0106
705.00,0.0106
704.00,0.0107
703.00,0.0109
702.00,0.0108
701.00,0.0106
700.00,0.0102
699.00,0.0098
698.00,0.0095
697.00,0.0094
696.00,0.0095
695.00,0.0095
694.00,0.0096
693.00,0.0097
692.00,0.0097
691.00,0.0098
690.00,0.0098
689.00,0.0099
688.00,0.0099
687.00,0.0098
686.00,0.0097
685.00,0.0098
684.00,0.0099
683.00,0.0100
682.00,0.0100
681.00,0.0099
680.00,0.0098
679.00,0.0097
678.00,0.0097
677.00,0.0099
676.00,0.0102
675.00,0.0104
674.00,0.0105
673.00,0.0105
672.00,0.0105
671.00,0.0105
670.00,0.0107
669.00,0.0110
668.00,0.0111
667.00,0.0108
666.00,0.0102
665.00,0.0098
664.00,0.0096
663.00,0.0095
662.00,0.0094
661.00,0.0093
660.00,0.0092
659.00,0.0091
658.00,0.0090
657.00,0.0089
656.00,0.0088
655.00,0.0087
654.00,0.0089
653.00,0.0091
652.00,0.0092
651.00,0.0092
650.00,0.0090
649.00,0.0088
648.00,0.0086
647.00,0.0086
646.00,0.0087
645.00,0.0088
644.00,0.0089
643.00,0.0088
642.00,0.0087
641.00,0.0086
640.00,0.0085
639.00,0.0086
638.00,0.0088
637.00,0.0089
636.00,0.0091
635.00,0.0092
634.00,0.0092
633.00,0.0093
632.00,0.0094
631.00,0.0094
630.00,0.0092
629.00,0.0089
628.00,0.0086
627.00,0.0085
626.00,0.0087
625.00,0.0090
624.00,0.0092
623.00,0.0093
622.00,0.0093
621.00,0.0093
620.00,0.0093
619.00,0.0093
618.00,0.0093
617.00,0.0092
616.00,0.0090
615.00,0.0090
614.00,0.0091
613.00,0.0092
612.00,0.0090
611.00,0.0087
610.00,0.0087
609.00,0.0089
608.00,0.0092
607.00,0.0094
606.00,0.0094
605.00,0.0093
604.00,0.0092
603.00,0.0091
602.00,0.0091
601.00,0.0089
600.00,0.0087
599.00,0.0086
598.00,0.0086
597.00,0.0087
596.00,0.0088
595.00,0.0086
594.00,0.0085
593.00,0.0085
592.00,0.0085
591.00,0.0085
590.00,0.0083
589.00,0.0083
588.00,0.0084
587.00,0.0087
586.00,0.0090
585.00,0.0092
584.00,0.0093
583.00,0.0092
582.00,0.0091
581.00,0.0089
580.00,0.0089
579.00,0.0090
578.00,0.0091
577.00,0.0094
576.00,0.0096
575.00,0.0096
574.00,0.0095
573.00,0.0092
572.00,0.0087
571.00,0.0083
570.00,0.0082
569.00,0.0084
568.00,0.0087
567.00,0.0090
566.00,0.0091
565.00,0.0090
564.00,0.0089
563.00,0.0090
562.00,0.0093
561.00,0.0096
560.00,0.0098
559.00,0.0096
558.00,0.0092
557.00,0.0088
556.00,0.0086
555.00,0.0087
554.00,0.0090
553.00,0.0094
552.00,0.0098
551.00,0.0101
550.00,0.0102
549.00,0.0101
548.00,0.0100
547.00,0.0098
546.00,0.0097
545.00,0.0098
544.00,0.0101
543.00,0.0104
542.00,0.0107
541.00,0.0109
540.00,0.0111
539.00,0.0113
538.00,0.0115
537.00,0.0116
536.00,0.0117
535.00,0.0117
534.00,0.0117
533.00,0.0118
532.00,0.0119
531.00,0.0119
530.00,0.0117
529.00,0.0113
528.00,0.0109
527.00,0.0107
526.00,0.0106
525.00,0.0107
524.00,0.0109
523.00,0.0110
522.00,0.0108
521.00,0.0102
520.00,0.0093
519.00,0.0086
518.00,0.0082
517.00,0.0083
516.00,0.0086
515.00,0.0089
514.00,0.0089
513.00,0.0090
512.00,0.0092
511.00,0.0094
510.00,0.0095
509.00,0.0090
508.00,0.0083
507.00,0.0076
506.00,0.0075
505.00,0.0078
504.00,0.0082
503.00,0.0085
502.00,0.0088
501.00,0.0092
500.00,0.0097
499.00,0.0099
498.00,0.0095
497.00,0.0088
496.00,0.0083
495.00,0.0086
494.00,0.0093
493.00,0.0100
492.00,0.0102
491.00,0.0099
490.00,0.0092
489.00,0.0087
488.00,0.0085
487.00,0.0086
486.00,0.0087
485.00,0.0086
484.00,0.0086
483.00,0.0087
482.00,0.0091
481.00,0.0097
480.00,0.0104
479.00,0.0113
478.00,0.0122
477.00,0.0127
476.00,0.0125
475.00,0.0116
474.00,0.0106
473.00,0.0104
472.00,0.0114
471.00,0.0130
470.00,0.0143
469.00,0.0151
468.00,0.0157
467.00,0.0163
466.00,0.0168
465.00,0.0171
464.00,0.0170
463.00,0.0171
462.00,0.0178
461.00,0.0192
460.00,0.0208
459.00,0.0217
458.00,0.0211
457.00,0.0199
456.00,0.0193
455.00,0.0196
454.00,0.0202
453.00,0.0201
452.00,0.0192
451.00,0.0180
450.00,0.0171
