Created as New Dataset,Sample 032 By Administrator Date Thursday, September 04 2025
cm-1,A
4000.00,0.0009
3999.00,0.0008
3998.00,0.0008
3997.00,0.0008
3996.00,0.0009
3995.00,0.0009
3994.00,0.0010
3993.00,0.0010
3992.00,0.0010
3991.00,0.0010
3990.00,0.0010
3989.00,0.0009
3988.00,0.0009
3987.00,0.0009
3986.00,0.0009
3985.00,0.0009
3984.00,0.0009
3983.00,0.0010
3982.00,0.0009
3981.00,0.0009
3980.00,0.0009
3979.00,0.0009
3978.00,0.0008
3977.00,0.0008
3976.00,0.0008
3975.00,0.0008
3974.00,0.0008
3973.00,0.0007
3972.00,0.0007
3971.00,0.0007
3970.00,0.0007
3969.00,0.0008
3968.00,0.0008
3967.00,0.0008
3966.00,0.0008
3965.00,0.0007
3964.00,0.0007
3963.00,0.0007
3962.00,0.0008
3961.00,0.0008
3960.00,0.0008
3959.00,0.0008
3958.00,0.0008
3957.00,0.0008
3956.00,0.0008
3955.00,0.0008
3954.00,0.0008
3953.00,0.0008
3952.00,0.0009
3951.00,0.0009
3950.00,0.0009
3949.00,0.0008
3948.00,0.0008
3947.00,0.0008
3946.00,0.0007
3945.00,0.0008
3944.00,0.0008
3943.00,0.0008
3942.00,0.0008
3941.00,0.0008
3940.00,0.0008
3939.00,0.0008
3938.00,0.0008
3937.00,0.0008
3936.00,0.0008
3935.00,0.0008
3934.00,0.0008
3933.00,0.0008
3932.00,0.0008
3931.00,0.0009
3930.00,0.0009
3929.00,0.0008
3928.00,0.0008
3927.00,0.0008
3926.00,0.0008
3925.00,0.0008
3924.00,0.0008
3923.00,0.0008
3922.00,0.0008
3921.00,0.0008
3920.00,0.0008
3919.00,0.0008
3918.00,0.0008
3917.00,0.0008
3916.00,0.0008
3915.00,0.0008
3914.00,0.0008
3913.00,0.0007
3912.00,0.0007
3911.00,0.0007
3910.00,0.0007
3909.00,0.0007
3908.00,0.0007
3907.00,0.0007
3906.00,0.0007
3905.00,0.0007
3904.00,0.0006
3903.00,0.0007
3902.00,0.0007
3901.00,0.0007
3900.00,0.0008
3899.00,0.0008
3898.00,0.0008
3897.00,0.0008
3896.00,0.0007
3895.00,0.0007
3894.00,0.0007
3893.00,0.0007
3892.00,0.0007
3891.00,0.0007
3890.00,0.0007
3889.00,0.0007
3888.00,0.0007
3887.00,0.0007
3886.00,0.0007
3885.00,0.0007
3884.00,0.0007
3883.00,0.0007
3882.00,0.0007
3881.00,0.0007
3880.00,0.0007
3879.00,0.0007
3878.00,0.0007
3877.00,0.0007
3876.00,0.0007
3875.00,0.0007
3874.00,0.0006
3873.00,0.0006
3872.00,0.0007
3871.00,0.0007
3870.00,0.0007
3869.00,0.0007
3868.00,0.0006
3867.00,0.0007
3866.00,0.0007
3865.00,0.0007
3864.00,0.0007
3863.00,0.0007
3862.00,0.0007
3861.00,0.0007
3860.00,0.0007
3859.00,0.0007
3858.00,0.0006
3857.00,0.0006
3856.00,0.0006
3855.00,0.0006
3854.00,0.0006
3853.00,0.0006
3852.00,0.0006
3851.00,0.0006
3850.00,0.0006
3849.00,0.0006
3848.00,0.0006
3847.00,0.0006
3846.00,0.0007
3845.00,0.0007
3844.00,0.0008
3843.00,0.0008
3842.00,0.0008
3841.00,0.0008
3840.00,0.0007
3839.00,0.0007
3838.00,0.0007
3837.00,0.0006
3836.00,0.0006
3835.00,0.0006
3834.00,0.0006
3833.00,0.0006
3832.00,0.0006
3831.00,0.0006
3830.00,0.0006
3829.00,0.0007
3828.00,0.0007
3827.00,0.0007
3826.00,0.0007
3825.00,0.0007
3824.00,0.0007
3823.00,0.0007
3822.00,0.0006
3821.00,0.0006
3820.00,0.0006
3819.00,0.0006
3818.00,0.0006
3817.00,0.0006
3816.00,0.0007
3815.00,0.0007
3814.00,0.0007
3813.00,0.0007
3812.00,0.0007
3811.00,0.0007
3810.00,0.0006
3809.00,0.0006
3808.00,0.0006
3807.00,0.0006
3806.00,0.0006
3805.00,0.0006
3804.00,0.0006
3803.00,0.0006
3802.00,0.0006
3801.00,0.0006
3800.00,0.0006
3799.00,0.0006
3798.00,0.0007
3797.00,0.0007
3796.00,0.0007
3795.00,0.0007
3794.00,0.0007
3793.00,0.0007
3792.00,0.0007
3791.00,0.0007
3790.00,0.0007
3789.00,0.0007
3788.00,0.0007
3787.00,0.0007
3786.00,0.0007
3785.00,0.0008
3784.00,0.0008
3783.00,0.0008
3782.00,0.0008
3781.00,0.0008
3780.00,0.0008
3779.00,0.0008
3778.00,0.0008
3777.00,0.0007
3776.00,0.0007
3775.00,0.0008
3774.00,0.0008
3773.00,0.0008
3772.00,0.0008
3771.00,0.0008
3770.00,0.0008
3769.00,0.0008
3768.00,0.0009
3767.00,0.0009
3766.00,0.0009
3765.00,0.0009
3764.00,0.0008
3763.00,0.0008
3762.00,0.0008
3761.00,0.0008
3760.00,0.0008
3759.00,0.0008
3758.00,0.0007
3757.00,0.0007
3756.00,0.0007
3755.00,0.0007
3754.00,0.0007
3753.00,0.0007
3752.00,0.0007
3751.00,0.0006
3750.00,0.0005
3749.00,0.0005
3748.00,0.0004
3747.00,0.0005
3746.00,0.0005
3745.00,0.0006
3744.00,0.0006
3743.00,0.0006
3742.00,0.0005
3741.00,0.0005
3740.00,0.0005
3739.00,0.0005
3738.00,0.0005
3737.00,0.0005
3736.00,0.0006
3735.00,0.0006
3734.00,0.0006
3733.00,0.0006
3732.00,0.0005
3731.00,0.0005
3730.00,0.0005
3729.00,0.0005
3728.00,0.0005
3727.00,0.0005
3726.00,0.0005
3725.00,0.0005
3724.00,0.0005
3723.00,0.0005
3722.00,0.0006
3721.00,0.0006
3720.00,0.0007
3719.00,0.0007
3718.00,0.0006
3717.00,0.0006
3716.00,0.0006
3715.00,0.0006
3714.00,0.0006
3713.00,0.0006
3712.00,0.0006
3711.00,0.0006
3710.00,0.0006
3709.00,0.0005
3708.00,0.0005
3707.00,0.0005
3706.00,0.0005
3705.00,0.0005
3704.00,0.0004
3703.00,0.0004
3702.00,0.0004
3701.00,0.0004
3700.00,0.0004
3699.00,0.0005
3698.00,0.0005
3697.00,0.0005
3696.00,0.0005
3695.00,0.0005
3694.00,0.0005
3693.00,0.0005
3692.00,0.0006
3691.00,0.0006
3690.00,0.0006
3689.00,0.0005
3688.00,0.0005
3687.00,0.0004
3686.00,0.0004
3685.00,0.0004
3684.00,0.0004
3683.00,0.0004
3682.00,0.0005
3681.00,0.0006
3680.00,0.0006
3679.00,0.0006
3678.00,0.0006
3677.00,0.0006
3676.00,0.0006
3675.00,0.0005
3674.00,0.0005
3673.00,0.0005
3672.00,0.0004
3671.00,0.0004
3670.00,0.0004
3669.00,0.0005
3668.00,0.0005
3667.00,0.0005
3666.00,0.0005
3665.00,0.0005
3664.00,0.0005
3663.00,0.0005
3662.00,0.0005
3661.00,0.0005
3660.00,0.0005
3659.00,0.0005
3658.00,0.0005
3657.00,0.0004
3656.00,0.0004
3655.00,0.0004
3654.00,0.0004
3653.00,0.0004
3652.00,0.0005
3651.00,0.0005
3650.00,0.0006
3649.00,0.0005
3648.00,0.0005
3647.00,0.0005
3646.00,0.0005
3645.00,0.0005
3644.00,0.0005
3643.00,0.0005
3642.00,0.0005
3641.00,0.0004
3640.00,0.0004
3639.00,0.0004
3638.00,0.0004
3637.00,0.0005
3636.00,0.0005
3635.00,0.0005
3634.00,0.0005
3633.00,0.0004
3632.00,0.0004
3631.00,0.0004
3630.00,0.0004
3629.00,0.0004
3628.00,0.0004
3627.00,0.0004
3626.00,0.0004
3625.00,0.0005
3624.00,0.0005
3623.00,0.0006
3622.00,0.0006
3621.00,0.0005
3620.00,0.0005
3619.00,0.0004
3618.00,0.0003
3617.00,0.0003
3616.00,0.0004
3615.00,0.0004
3614.00,0.0005
3613.00,0.0006
3612.00,0.0006
3611.00,0.0006
3610.00,0.0007
3609.00,0.0007
3608.00,0.0007
3607.00,0.0007
3606.00,0.0006
3605.00,0.0006
3604.00,0.0006
3603.00,0.0006
3602.00,0.0006
3601.00,0.0006
3600.00,0.0006
3599.00,0.0006
3598.00,0.0007
3597.00,0.0007
3596.00,0.0007
3595.00,0.0006
3594.00,0.0007
3593.00,0.0007
3592.00,0.0007
3591.00,0.0007
3590.00,0.0006
3589.00,0.0006
3588.00,0.0006
3587.00,0.0006
3586.00,0.0006
3585.00,0.0006
3584.00,0.0007
3583.00,0.0007
3582.00,0.0008
3581.00,0.0008
3580.00,0.0008
3579.00,0.0008
3578.00,0.0008
3577.00,0.0009
3576.00,0.0009
3575.00,0.0009
3574.00,0.0009
3573.00,0.0009
3572.00,0.0008
3571.00,0.0008
3570.00,0.0008
3569.00,0.0008
3568.00,0.0009
3567.00,0.0009
3566.00,0.0009
3565.00,0.0009
3564.00,0.0010
3563.00,0.0010
3562.00,0.0010
3561.00,0.0010
3560.00,0.0010
3559.00,0.0010
3558.00,0.0010
3557.00,0.0009
3556.00,0.0009
3555.00,0.0009
3554.00,0.0010
3553.00,0.0010
3552.00,0.0011
3551.00,0.0011
3550.00,0.0011
3549.00,0.0012
3548.00,0.0012
3547.00,0.0012
3546.00,0.0013
3545.00,0.0013
3544.00,0.0013
3543.00,0.0013
3542.00,0.0013
3541.00,0.0013
3540.00,0.0013
3539.00,0.0013
3538.00,0.0013
3537.00,0.0013
3536.00,0.0013
3535.00,0.0013
3534.00,0.0013
3533.00,0.0013
3532.00,0.0013
3531.00,0.0013
3530.00,0.0014
3529.00,0.0014
3528.00,0.0014
3527.00,0.0014
3526.00,0.0014
3525.00,0.0014
3524.00,0.0014
3523.00,0.0015
3522.00,0.0015
3521.00,0.0015
3520.00,0.0015
3519.00,0.0015
3518.00,0.0015
3517.00,0.0015
3516.00,0.0015
3515.00,0.0015
3514.00,0.0015
3513.00,0.0015
3512.00,0.0015
3511.00,0.0015
3510.00,0.0015
3509.00,0.0016
3508.00,0.0016
3507.00,0.0016
3506.00,0.0016
3505.00,0.0016
3504.00,0.0016
3503.00,0.0016
3502.00,0.0016
3501.00,0.0016
3500.00,0.0016
3499.00,0.0017
3498.00,0.0017
3497.00,0.0017
3496.00,0.0017
3495.00,0.0017
3494.00,0.0017
3493.00,0.0017
3492.00,0.0017
3491.00,0.0017
3490.00,0.0018
3489.00,0.0018
3488.00,0.0019
3487.00,0.0019
3486.00,0.0018
3485.00,0.0018
3484.00,0.0018
3483.00,0.0018
3482.00,0.0018
3481.00,0.0018
3480.00,0.0018
3479.00,0.0019
3478.00,0.0019
3477.00,0.0019
3476.00,0.0019
3475.00,0.0019
3474.00,0.0020
3473.00,0.0020
3472.00,0.0020
3471.00,0.0020
3470.00,0.0020
3469.00,0.0019
3468.00,0.0019
3467.00,0.0020
3466.00,0.0020
3465.00,0.0020
3464.00,0.0020
3463.00,0.0021
3462.00,0.0021
3461.00,0.0021
3460.00,0.0021
3459.00,0.0021
3458.00,0.0021
3457.00,0.0021
3456.00,0.0021
3455.00,0.0022
3454.00,0.0022
3453.00,0.0022
3452.00,0.0022
3451.00,0.0022
3450.00,0.0023
3449.00,0.0023
3448.00,0.0023
3447.00,0.0023
3446.00,0.0023
3445.00,0.0023
3444.00,0.0023
3443.00,0.0023
3442.00,0.0023
3441.00,0.0023
3440.00,0.0023
3439.00,0.0024
3438.00,0.0024
3437.00,0.0024
3436.00,0.0024
3435.00,0.0024
3434.00,0.0024
3433.00,0.0025
3432.00,0.0025
3431.00,0.0026
3430.00,0.0026
3429.00,0.0026
3428.00,0.0025
3427.00,0.0025
3426.00,0.0025
3425.00,0.0025
3424.00,0.0026
3423.00,0.0026
3422.00,0.0027
3421.00,0.0027
3420.00,0.0027
3419.00,0.0028
3418.00,0.0028
3417.00,0.0028
3416.00,0.0027
3415.00,0.0027
3414.00,0.0027
3413.00,0.0027
3412.00,0.0027
3411.00,0.0028
3410.00,0.0028
3409.00,0.0028
3408.00,0.0028
3407.00,0.0028
3406.00,0.0028
3405.00,0.0028
3404.00,0.0029
3403.00,0.0029
3402.00,0.0029
3401.00,0.0029
3400.00,0.0029
3399.00,0.0028
3398.00,0.0028
3397.00,0.0028
3396.00,0.0029
3395.00,0.0029
3394.00,0.0030
3393.00,0.0030
3392.00,0.0030
3391.00,0.0030
3390.00,0.0030
3389.00,0.0031
3388.00,0.0031
3387.00,0.0031
3386.00,0.0031
3385.00,0.0030
3384.00,0.0030
3383.00,0.0030
3382.00,0.0030
3381.00,0.0029
3380.00,0.0029
3379.00,0.0029
3378.00,0.0029
3377.00,0.0029
3376.00,0.0029
3375.00,0.0029
3374.00,0.0029
3373.00,0.0029
3372.00,0.0029
3371.00,0.0029
3370.00,0.0030
3369.00,0.0030
3368.00,0.0029
3367.00,0.0029
3366.00,0.0029
3365.00,0.0029
3364.00,0.0029
3363.00,0.0030
3362.00,0.0030
3361.00,0.0030
3360.00,0.0030
3359.00,0.0030
3358.00,0.0030
3357.00,0.0030
3356.00,0.0030
3355.00,0.0030
3354.00,0.0030
3353.00,0.0030
3352.00,0.0030
3351.00,0.0031
3350.00,0.0031
3349.00,0.0031
3348.00,0.0031
3347.00,0.0031
3346.00,0.0031
3345.00,0.0031
3344.00,0.0031
3343.00,0.0031
3342.00,0.0031
3341.00,0.0031
3340.00,0.0031
3339.00,0.0031
3338.00,0.0031
3337.00,0.0030
3336.00,0.0030
3335.00,0.0030
3334.00,0.0030
3333.00,0.0030
3332.00,0.0030
3331.00,0.0030
3330.00,0.0029
3329.00,0.0029
3328.00,0.0029
3327.00,0.0029
3326.00,0.0029
3325.00,0.0029
3324.00,0.0029
3323.00,0.0029
3322.00,0.0029
3321.00,0.0029
3320.00,0.0029
3319.00,0.0029
3318.00,0.0029
3317.00,0.0029
3316.00,0.0029
3315.00,0.0029
3314.00,0.0029
3313.00,0.0029
3312.00,0.0029
3311.00,0.0029
3310.00,0.0029
3309.00,0.0030
3308.00,0.0030
3307.00,0.0031
3306.00,0.0031
3305.00,0.0032
3304.00,0.0032
3303.00,0.0032
3302.00,0.0032
3301.00,0.0032
3300.00,0.0032
3299.00,0.0031
3298.00,0.0031
3297.00,0.0030
3296.00,0.0030
3295.00,0.0030
3294.00,0.0030
3293.00,0.0030
3292.00,0.0030
3291.00,0.0030
3290.00,0.0030
3289.00,0.0030
3288.00,0.0030
3287.00,0.0029
3286.00,0.0029
3285.00,0.0029
3284.00,0.0029
3283.00,0.0028
3282.00,0.0028
3281.00,0.0028
3280.00,0.0028
3279.00,0.0028
3278.00,0.0028
3277.00,0.0028
3276.00,0.0028
3275.00,0.0028
3274.00,0.0027
3273.00,0.0027
3272.00,0.0027
3271.00,0.0026
3270.00,0.0026
3269.00,0.0026
3268.00,0.0026
3267.00,0.0026
3266.00,0.0026
3265.00,0.0026
3264.00,0.0026
3263.00,0.0027
3262.00,0.0027
3261.00,0.0027
3260.00,0.0026
3259.00,0.0026
3258.00,0.0026
3257.00,0.0025
3256.00,0.0025
3255.00,0.0025
3254.00,0.0025
3253.00,0.0025
3252.00,0.0024
3251.00,0.0024
3250.00,0.0024
3249.00,0.0024
3248.00,0.0024
3247.00,0.0025
3246.00,0.0025
3245.00,0.0025
3244.00,0.0025
3243.00,0.0025
3242.00,0.0025
3241.00,0.0025
3240.00,0.0025
3239.00,0.0025
3238.00,0.0025
3237.00,0.0025
3236.00,0.0025
3235.00,0.0026
3234.00,0.0026
3233.00,0.0026
3232.00,0.0026
3231.00,0.0026
3230.00,0.0026
3229.00,0.0026
3228.00,0.0025
3227.00,0.0026
3226.00,0.0026
3225.00,0.0027
3224.00,0.0027
3223.00,0.0028
3222.00,0.0028
3221.00,0.0028
3220.00,0.0028
3219.00,0.0028
3218.00,0.0028
3217.00,0.0028
3216.00,0.0028
3215.00,0.0028
3214.00,0.0028
3213.00,0.0028
3212.00,0.0029
3211.00,0.0029
3210.00,0.0029
3209.00,0.0030
3208.00,0.0030
3207.00,0.0030
3206.00,0.0030
3205.00,0.0031
3204.00,0.0031
3203.00,0.0032
3202.00,0.0032
3201.00,0.0032
3200.00,0.0032
3199.00,0.0032
3198.00,0.0032
3197.00,0.0032
3196.00,0.0031
3195.00,0.0031
3194.00,0.0031
3193.00,0.0031
3192.00,0.0031
3191.00,0.0031
3190.00,0.0031
3189.00,0.0031
3188.00,0.0031
3187.00,0.0031
3186.00,0.0031
3185.00,0.0031
3184.00,0.0030
3183.00,0.0030
3182.00,0.0029
3181.00,0.0029
3180.00,0.0029
3179.00,0.0029
3178.00,0.0029
3177.00,0.0030
3176.00,0.0030
3175.00,0.0030
3174.00,0.0029
3173.00,0.0029
3172.00,0.0029
3171.00,0.0029
3170.00,0.0029
3169.00,0.0029
3168.00,0.0029
3167.00,0.0028
3166.00,0.0028
3165.00,0.0028
3164.00,0.0028
3163.00,0.0028
3162.00,0.0028
3161.00,0.0028
3160.00,0.0028
3159.00,0.0028
3158.00,0.0028
3157.00,0.0028
3156.00,0.0027
3155.00,0.0027
3154.00,0.0028
3153.00,0.0028
3152.00,0.0028
3151.00,0.0028
3150.00,0.0028
3149.00,0.0028
3148.00,0.0028
3147.00,0.0028
3146.00,0.0028
3145.00,0.0028
3144.00,0.0028
3143.00,0.0028
3142.00,0.0028
3141.00,0.0027
3140.00,0.0027
3139.00,0.0027
3138.00,0.0028
3137.00,0.0028
3136.00,0.0028
3135.00,0.0028
3134.00,0.0027
3133.00,0.0027
3132.00,0.0026
3131.00,0.0026
3130.00,0.0026
3129.00,0.0026
3128.00,0.0026
3127.00,0.0026
3126.00,0.0026
3125.00,0.0026
3124.00,0.0026
3123.00,0.0025
3122.00,0.0025
3121.00,0.0024
3120.00,0.0024
3119.00,0.0024
3118.00,0.0023
3117.00,0.0024
3116.00,0.0024
3115.00,0.0024
3114.00,0.0024
3113.00,0.0024
3112.00,0.0024
3111.00,0.0024
3110.00,0.0024
3109.00,0.0024
3108.00,0.0024
3107.00,0.0023
3106.00,0.0023
3105.00,0.0023
3104.00,0.0024
3103.00,0.0024
3102.00,0.0024
3101.00,0.0023
3100.00,0.0023
3099.00,0.0023
3098.00,0.0023
3097.00,0.0023
3096.00,0.0023
3095.00,0.0023
3094.00,0.0023
3093.00,0.0023
3092.00,0.0023
3091.00,0.0023
3090.00,0.0024
3089.00,0.0024
3088.00,0.0023
3087.00,0.0023
3086.00,0.0023
3085.00,0.0023
3084.00,0.0023
3083.00,0.0023
3082.00,0.0022
3081.00,0.0022
3080.00,0.0023
3079.00,0.0023
3078.00,0.0023
3077.00,0.0023
3076.00,0.0023
3075.00,0.0023
3074.00,0.0023
3073.00,0.0023
3072.00,0.0023
3071.00,0.0024
3070.00,0.0024
3069.00,0.0024
3068.00,0.0025
3067.00,0.0025
3066.00,0.0025
3065.00,0.0025
3064.00,0.0025
3063.00,0.0025
3062.00,0.0026
3061.00,0.0026
3060.00,0.0026
3059.00,0.0026
3058.00,0.0026
3057.00,0.0026
3056.00,0.0026
3055.00,0.0026
3054.00,0.0026
3053.00,0.0027
3052.00,0.0027
3051.00,0.0028
3050.00,0.0028
3049.00,0.0028
3048.00,0.0028
3047.00,0.0028
3046.00,0.0028
3045.00,0.0028
3044.00,0.0028
3043.00,0.0028
3042.00,0.0029
3041.00,0.0029
3040.00,0.0030
3039.00,0.0031
3038.00,0.0031
3037.00,0.0031
3036.00,0.0031
3035.00,0.0031
3034.00,0.0031
3033.00,0.0032
3032.00,0.0032
3031.00,0.0033
3030.00,0.0033
3029.00,0.0034
3028.00,0.0034
3027.00,0.0035
3026.00,0.0036
3025.00,0.0036
3024.00,0.0037
3023.00,0.0038
3022.00,0.0038
3021.00,0.0039
3020.00,0.0040
3019.00,0.0041
3018.00,0.0041
3017.00,0.0042
3016.00,0.0042
3015.00,0.0043
3014.00,0.0045
3013.00,0.0046
3012.00,0.0048
3011.00,0.0050
3010.00,0.0051
3009.00,0.0052
3008.00,0.0053
3007.00,0.0055
3006.00,0.0056
3005.00,0.0058
3004.00,0.0060
3003.00,0.0062
3002.00,0.0064
3001.00,0.0066
3000.00,0.0068
2999.00,0.0071
2998.00,0.0074
2997.00,0.0077
2996.00,0.0081
2995.00,0.0085
2994.00,0.0090
2993.00,0.0094
2992.00,0.0099
2991.00,0.0105
2990.00,0.0111
2989.00,0.0118
2988.00,0.0126
2987.00,0.0134
2986.00,0.0144
2985.00,0.0154
2984.00,0.0166
2983.00,0.0180
2982.00,0.0195
2981.00,0.0212
2980.00,0.0232
2979.00,0.0254
2978.00,0.0279
2977.00,0.0308
2976.00,0.0341
2975.00,0.0379
2974.00,0.0422
2973.00,0.0472
2972.00,0.0528
2971.00,0.0591
2970.00,0.0661
2969.00,0.0739
2968.00,0.0823
2967.00,0.0913
2966.00,0.1007
2965.00,0.1104
2964.00,0.1198
2963.00,0.1287
2962.00,0.1364
2961.00,0.1427
2960.00,0.1476
2959.00,0.1514
2958.00,0.1547
2957.00,0.1582
2956.00,0.1626
2955.00,0.1681
2954.00,0.1745
2953.00,0.1812
2952.00,0.1871
2951.00,0.1911
2950.00,0.1919
2949.00,0.1889
2948.00,0.1818
2947.00,0.1715
2946.00,0.1591
2945.00,0.1460
2944.00,0.1338
2943.00,0.1233
2942.00,0.1151
2941.00,0.1095
2940.00,0.1063
2939.00,0.1054
2938.00,0.1064
2937.00,0.1092
2936.00,0.1136
2935.00,0.1195
2934.00,0.1268
2933.00,0.1354
2932.00,0.1451
2931.00,0.1557
2930.00,0.1670
2929.00,0.1786
2928.00,0.1902
2927.00,0.2015
2926.00,0.2125
2925.00,0.2230
2924.00,0.2333
2923.00,0.2434
2922.00,0.2533
2921.00,0.2628
2920.00,0.2710
2919.00,0.2771
2918.00,0.2798
2917.00,0.2787
2916.00,0.2735
2915.00,0.2652
2914.00,0.2547
2913.00,0.2435
2912.00,0.2327
2911.00,0.2228
2910.00,0.2141
2909.00,0.2064
2908.00,0.1994
2907.00,0.1928
2906.00,0.1863
2905.00,0.1797
2904.00,0.1729
2903.00,0.1660
2902.00,0.1592
2901.00,0.1525
2900.00,0.1460
2899.00,0.1399
2898.00,0.1341
2897.00,0.1288
2896.00,0.1240
2895.00,0.1198
2894.00,0.1162
2893.00,0.1133
2892.00,0.1110
2891.00,0.1093
2890.00,0.1081
2889.00,0.1073
2888.00,0.1068
2887.00,0.1067
2886.00,0.1069
2885.00,0.1075
2884.00,0.1085
2883.00,0.1100
2882.00,0.1118
2881.00,0.1140
2880.00,0.1161
2879.00,0.1178
2878.00,0.1188
2877.00,0.1190
2876.00,0.1185
2875.00,0.1177
2874.00,0.1172
2873.00,0.1172
2872.00,0.1179
2871.00,0.1194
2870.00,0.1213
2869.00,0.1231
2868.00,0.1241
2867.00,0.1236
2866.00,0.1209
2865.00,0.1161
2864.00,0.1094
2863.00,0.1018
2862.00,0.0942
2861.00,0.0876
2860.00,0.0825
2859.00,0.0790
2858.00,0.0769
2857.00,0.0761
2856.00,0.0764
2855.00,0.0774
2854.00,0.0790
2853.00,0.0810
2852.00,0.0832
2851.00,0.0851
2850.00,0.0868
2849.00,0.0881
2848.00,0.0894
2847.00,0.0910
2846.00,0.0934
2845.00,0.0968
2844.00,0.1013
2843.00,0.1066
2842.00,0.1122
2841.00,0.1174
2840.00,0.1214
2839.00,0.1234
2838.00,0.1227
2837.00,0.1189
2836.00,0.1122
2835.00,0.1032
2834.00,0.0927
2833.00,0.0819
2832.00,0.0716
2831.00,0.0625
2830.00,0.0548
2829.00,0.0485
2828.00,0.0434
2827.00,0.0393
2826.00,0.0359
2825.00,0.0331
2824.00,0.0308
2823.00,0.0288
2822.00,0.0271
2821.00,0.0257
2820.00,0.0244
2819.00,0.0233
2818.00,0.0223
2817.00,0.0215
2816.00,0.0207
2815.00,0.0200
2814.00,0.0194
2813.00,0.0188
2812.00,0.0183
2811.00,0.0177
2810.00,0.0172
2809.00,0.0166
2808.00,0.0161
2807.00,0.0154
2806.00,0.0148
2805.00,0.0141
2804.00,0.0135
2803.00,0.0129
2802.00,0.0124
2801.00,0.0120
2800.00,0.0116
2799.00,0.0113
2798.00,0.0110
2797.00,0.0108
2796.00,0.0105
2795.00,0.0103
2794.00,0.0100
2793.00,0.0097
2792.00,0.0094
2791.00,0.0091
2790.00,0.0088
2789.00,0.0085
2788.00,0.0082
2787.00,0.0080
2786.00,0.0077
2785.00,0.0075
2784.00,0.0072
2783.00,0.0070
2782.00,0.0068
2781.00,0.0066
2780.00,0.0063
2779.00,0.0062
2778.00,0.0060
2777.00,0.0059
2776.00,0.0058
2775.00,0.0057
2774.00,0.0056
2773.00,0.0055
2772.00,0.0055
2771.00,0.0054
2770.00,0.0054
2769.00,0.0054
2768.00,0.0054
2767.00,0.0054
2766.00,0.0053
2765.00,0.0053
2764.00,0.0052
2763.00,0.0052
2762.00,0.0052
2761.00,0.0051
2760.00,0.0051
2759.00,0.0050
2758.00,0.0050
2757.00,0.0050
2756.00,0.0050
2755.00,0.0050
2754.00,0.0049
2753.00,0.0049
2752.00,0.0049
2751.00,0.0049
2750.00,0.0049
2749.00,0.0049
2748.00,0.0049
2747.00,0.0050
2746.00,0.0050
2745.00,0.0050
2744.00,0.0051
2743.00,0.0052
2742.00,0.0053
2741.00,0.0055
2740.00,0.0056
2739.00,0.0057
2738.00,0.0058
2737.00,0.0059
2736.00,0.0060
2735.00,0.0062
2734.00,0.0063
2733.00,0.0065
2732.00,0.0066
2731.00,0.0068
2730.00,0.0070
2729.00,0.0073
2728.00,0.0075
2727.00,0.0078
2726.00,0.0081
2725.00,0.0083
2724.00,0.0085
2723.00,0.0086
2722.00,0.0085
2721.00,0.0083
2720.00,0.0080
2719.00,0.0077
2718.00,0.0073
2717.00,0.0070
2716.00,0.0068
2715.00,0.0065
2714.00,0.0063
2713.00,0.0061
2712.00,0.0059
2711.00,0.0057
2710.00,0.0055
2709.00,0.0054
2708.00,0.0053
2707.00,0.0051
2706.00,0.0050
2705.00,0.0049
2704.00,0.0047
2703.00,0.0046
2702.00,0.0045
2701.00,0.0045
2700.00,0.0044
2699.00,0.0044
2698.00,0.0044
2697.00,0.0044
2696.00,0.0044
2695.00,0.0044
2694.00,0.0044
2693.00,0.0044
2692.00,0.0044
2691.00,0.0043
2690.00,0.0043
2689.00,0.0043
2688.00,0.0043
2687.00,0.0043
2686.00,0.0043
2685.00,0.0043
2684.00,0.0043
2683.00,0.0043
2682.00,0.0044
2681.00,0.0044
2680.00,0.0044
2679.00,0.0044
2678.00,0.0044
2677.00,0.0044
2676.00,0.0044
2675.00,0.0044
2674.00,0.0044
2673.00,0.0044
2672.00,0.0043
2671.00,0.0043
2670.00,0.0043
2669.00,0.0043
2668.00,0.0043
2667.00,0.0043
2666.00,0.0044
2665.00,0.0044
2664.00,0.0045
2663.00,0.0045
2662.00,0.0046
2661.00,0.0046
2660.00,0.0046
2659.00,0.0046
2658.00,0.0046
2657.00,0.0046
2656.00,0.0045
2655.00,0.0045
2654.00,0.0044
2653.00,0.0044
2652.00,0.0043
2651.00,0.0043
2650.00,0.0043
2649.00,0.0043
2648.00,0.0042
2647.00,0.0042
2646.00,0.0041
2645.00,0.0041
2644.00,0.0040
2643.00,0.0040
2642.00,0.0039
2641.00,0.0039
2640.00,0.0038
2639.00,0.0038
2638.00,0.0038
2637.00,0.0037
2636.00,0.0037
2635.00,0.0037
2634.00,0.0037
2633.00,0.0038
2632.00,0.0038
2631.00,0.0038
2630.00,0.0038
2629.00,0.0038
2628.00,0.0038
2627.00,0.0038
2626.00,0.0038
2625.00,0.0038
2624.00,0.0039
2623.00,0.0039
2622.00,0.0039
2621.00,0.0039
2620.00,0.0039
2619.00,0.0039
2618.00,0.0039
2617.00,0.0039
2616.00,0.0038
2615.00,0.0038
2614.00,0.0038
2613.00,0.0038
2612.00,0.0038
2611.00,0.0037
2610.00,0.0036
2609.00,0.0035
2608.00,0.0034
2607.00,0.0033
2606.00,0.0033
2605.00,0.0032
2604.00,0.0032
2603.00,0.0031
2602.00,0.0030
2601.00,0.0030
2600.00,0.0030
2599.00,0.0030
2598.00,0.0030
2597.00,0.0030
2596.00,0.0030
2595.00,0.0031
2594.00,0.0031
2593.00,0.0031
2592.00,0.0031
2591.00,0.0031
2590.00,0.0032
2589.00,0.0032
2588.00,0.0033
2587.00,0.0034
2586.00,0.0036
2585.00,0.0037
2584.00,0.0038
2583.00,0.0039
2582.00,0.0039
2581.00,0.0039
2580.00,0.0038
2579.00,0.0036
2578.00,0.0035
2577.00,0.0035
2576.00,0.0034
2575.00,0.0033
2574.00,0.0031
2573.00,0.0030
2572.00,0.0028
2571.00,0.0027
2570.00,0.0026
2569.00,0.0025
2568.00,0.0025
2567.00,0.0024
2566.00,0.0024
2565.00,0.0024
2564.00,0.0023
2563.00,0.0022
2562.00,0.0022
2561.00,0.0022
2560.00,0.0022
2559.00,0.0022
2558.00,0.0022
2557.00,0.0021
2556.00,0.0021
2555.00,0.0021
2554.00,0.0021
2553.00,0.0021
2552.00,0.0021
2551.00,0.0020
2550.00,0.0020
2549.00,0.0019
2548.00,0.0019
2547.00,0.0019
2546.00,0.0019
2545.00,0.0018
2544.00,0.0018
2543.00,0.0018
2542.00,0.0017
2541.00,0.0017
2540.00,0.0017
2539.00,0.0017
2538.00,0.0017
2537.00,0.0017
2536.00,0.0016
2535.00,0.0016
2534.00,0.0015
2533.00,0.0015
2532.00,0.0014
2531.00,0.0014
2530.00,0.0014
2529.00,0.0014
2528.00,0.0014
2527.00,0.0014
2526.00,0.0014
2525.00,0.0014
2524.00,0.0013
2523.00,0.0013
2522.00,0.0012
2521.00,0.0012
2520.00,0.0012
2519.00,0.0013
2518.00,0.0013
2517.00,0.0012
2516.00,0.0012
2515.00,0.0011
2514.00,0.0011
2513.00,0.0011
2512.00,0.0011
2511.00,0.0011
2510.00,0.0010
2509.00,0.0009
2508.00,0.0009
2507.00,0.0009
2506.00,0.0010
2505.00,0.0010
2504.00,0.0010
2503.00,0.0010
2502.00,0.0010
2501.00,0.0010
2500.00,0.0010
2499.00,0.0010
2498.00,0.0009
2497.00,0.0010
2496.00,0.0011
2495.00,0.0011
2494.00,0.0011
2493.00,0.0010
2492.00,0.0010
2491.00,0.0010
2490.00,0.0010
2489.00,0.0010
2488.00,0.0010
2487.00,0.0010
2486.00,0.0010
2485.00,0.0010
2484.00,0.0009
2483.00,0.0009
2482.00,0.0009
2481.00,0.0009
2480.00,0.0009
2479.00,0.0009
2478.00,0.0009
2477.00,0.0009
2476.00,0.0009
2475.00,0.0008
2474.00,0.0009
2473.00,0.0009
2472.00,0.0009
2471.00,0.0010
2470.00,0.0009
2469.00,0.0009
2468.00,0.0008
2467.00,0.0008
2466.00,0.0008
2465.00,0.0009
2464.00,0.0009
2463.00,0.0009
2462.00,0.0009
2461.00,0.0010
2460.00,0.0010
2459.00,0.0010
2458.00,0.0011
2457.00,0.0011
2456.00,0.0011
2455.00,0.0012
2454.00,0.0012
2453.00,0.0011
2452.00,0.0011
2451.00,0.0011
2450.00,0.0011
2449.00,0.0010
2448.00,0.0010
2447.00,0.0010
2446.00,0.0009
2445.00,0.0009
2444.00,0.0009
2443.00,0.0010
2442.00,0.0010
2441.00,0.0010
2440.00,0.0011
2439.00,0.0011
2438.00,0.0011
2437.00,0.0010
2436.00,0.0010
2435.00,0.0010
2434.00,0.0010
2433.00,0.0011
2432.00,0.0011
2431.00,0.0011
2430.00,0.0012
2429.00,0.0012
2428.00,0.0012
2427.00,0.0012
2426.00,0.0012
2425.00,0.0011
2424.00,0.0011
2423.00,0.0011
2422.00,0.0011
2421.00,0.0010
2420.00,0.0010
2419.00,0.0009
2418.00,0.0009
2417.00,0.0009
2416.00,0.0009
2415.00,0.0010
2414.00,0.0010
2413.00,0.0010
2412.00,0.0009
2411.00,0.0009
2410.00,0.0009
2409.00,0.0009
2408.00,0.0008
2407.00,0.0009
2406.00,0.0009
2405.00,0.0009
2404.00,0.0009
2403.00,0.0009
2402.00,0.0008
2401.00,0.0008
2400.00,0.0007
2399.00,0.0007
2398.00,0.0007
2397.00,0.0007
2396.00,0.0007
2395.00,0.0007
2394.00,0.0007
2393.00,0.0007
2392.00,0.0007
2391.00,0.0007
2390.00,0.0007
2389.00,0.0006
2388.00,0.0006
2387.00,0.0006
2386.00,0.0006
2385.00,0.0006
2384.00,0.0006
2383.00,0.0005
2382.00,0.0005
2381.00,0.0004
2380.00,0.0003
2379.00,0.0003
2378.00,0.0003
2377.00,0.0003
2376.00,0.0003
2375.00,0.0003
2374.00,0.0003
2373.00,0.0003
2372.00,0.0003
2371.00,0.0003
2370.00,0.0003
2369.00,0.0003
2368.00,0.0002
2367.00,0.0001
2366.00,0.0001
2365.00,0.0002
2364.00,0.0002
2363.00,0.0003
2362.00,0.0003
2361.00,0.0003
2360.00,0.0003
2359.00,0.0004
2358.00,0.0004
2357.00,0.0004
2356.00,0.0004
2355.00,0.0004
2354.00,0.0004
2353.00,0.0004
2352.00,0.0003
2351.00,0.0003
2350.00,0.0004
2349.00,0.0004
2348.00,0.0004
2347.00,0.0005
2346.00,0.0005
2345.00,0.0005
2344.00,0.0005
2343.00,0.0005
2342.00,0.0005
2341.00,0.0005
2340.00,0.0006
2339.00,0.0006
2338.00,0.0007
2337.00,0.0007
2336.00,0.0007
2335.00,0.0008
2334.00,0.0007
2333.00,0.0007
2332.00,0.0006
2331.00,0.0005
2330.00,0.0005
2329.00,0.0006
2328.00,0.0008
2327.00,0.0011
2326.00,0.0015
2325.00,0.0018
2324.00,0.0020
2323.00,0.0019
2322.00,0.0018
2321.00,0.0016
2320.00,0.0015
2319.00,0.0015
2318.00,0.0014
2317.00,0.0014
2316.00,0.0013
2315.00,0.0012
2314.00,0.0011
2313.00,0.0010
2312.00,0.0009
2311.00,0.0009
2310.00,0.0008
2309.00,0.0009
2308.00,0.0009
2307.00,0.0009
2306.00,0.0009
2305.00,0.0009
2304.00,0.0009
2303.00,0.0009
2302.00,0.0009
2301.00,0.0009
2300.00,0.0010
2299.00,0.0010
2298.00,0.0011
2297.00,0.0011
2296.00,0.0012
2295.00,0.0012
2294.00,0.0013
2293.00,0.0013
2292.00,0.0013
2291.00,0.0014
2290.00,0.0015
2289.00,0.0015
2288.00,0.0016
2287.00,0.0016
2286.00,0.0016
2285.00,0.0016
2284.00,0.0016
2283.00,0.0016
2282.00,0.0015
2281.00,0.0014
2280.00,0.0014
2279.00,0.0014
2278.00,0.0013
2277.00,0.0013
2276.00,0.0012
2275.00,0.0012
2274.00,0.0012
2273.00,0.0013
2272.00,0.0013
2271.00,0.0013
2270.00,0.0013
2269.00,0.0014
2268.00,0.0014
2267.00,0.0014
2266.00,0.0013
2265.00,0.0013
2264.00,0.0013
2263.00,0.0013
2262.00,0.0013
2261.00,0.0013
2260.00,0.0013
2259.00,0.0014
2258.00,0.0014
2257.00,0.0014
2256.00,0.0013
2255.00,0.0012
2254.00,0.0011
2253.00,0.0010
2252.00,0.0009
2251.00,0.0007
2250.00,0.0005
2249.00,0.0004
2248.00,0.0004
2247.00,0.0005
2246.00,0.0006
2245.00,0.0007
2244.00,0.0008
2243.00,0.0007
2242.00,0.0006
2241.00,0.0005
2240.00,0.0005
2239.00,0.0005
2238.00,0.0006
2237.00,0.0007
2236.00,0.0009
2235.00,0.0010
2234.00,0.0010
2233.00,0.0009
2232.00,0.0008
2231.00,0.0007
2230.00,0.0005
2229.00,0.0005
2228.00,0.0005
2227.00,0.0005
2226.00,0.0006
2225.00,0.0006
2224.00,0.0005
2223.00,0.0004
2222.00,0.0003
2221.00,0.0004
2220.00,0.0005
2219.00,0.0006
2218.00,0.0005
2217.00,0.0005
2216.00,0.0006
2215.00,0.0007
2214.00,0.0008
2213.00,0.0009
2212.00,0.0009
2211.00,0.0009
2210.00,0.0007
2209.00,0.0006
2208.00,0.0004
2207.00,0.0002
2206.00,0.0001
2205.00,0.0001
2204.00,0.0002
2203.00,0.0003
2202.00,0.0005
2201.00,0.0006
2200.00,0.0008
2199.00,0.0009
2198.00,0.0009
2197.00,0.0009
2196.00,0.0007
2195.00,0.0005
2194.00,0.0002
2193.00,0.0001
2192.00,0.0001
2191.00,0.0002
2190.00,0.0004
2189.00,0.0006
2188.00,0.0007
2187.00,0.0009
2186.00,0.0011
2185.00,0.0013
2184.00,0.0012
2183.00,0.0009
2182.00,0.0005
2181.00,0.0002
2180.00,0.0001
2179.00,0.0003
2178.00,0.0006
2177.00,0.0008
2176.00,0.0007
2175.00,0.0005
2174.00,0.0002
2173.00,-0.0000
2172.00,-0.0000
2171.00,0.0001
2170.00,0.0003
2169.00,0.0006
2168.00,0.0010
2167.00,0.0012
2166.00,0.0014
2165.00,0.0014
2164.00,0.0015
2163.00,0.0017
2162.00,0.0018
2161.00,0.0014
2160.00,0.0005
2159.00,-0.0009
2158.00,-0.0021
2157.00,-0.0026
2156.00,-0.0024
2155.00,-0.0020
2154.00,-0.0018
2153.00,-0.0017
2152.00,-0.0018
2151.00,-0.0018
2150.00,-0.0018
2149.00,-0.0018
2148.00,-0.0018
2147.00,-0.0019
2146.00,-0.0018
2145.00,-0.0018
2144.00,-0.0018
2143.00,-0.0017
2142.00,-0.0016
2141.00,-0.0014
2140.00,-0.0012
2139.00,-0.0010
2138.00,-0.0011
2137.00,-0.0012
2136.00,-0.0015
2135.00,-0.0017
2134.00,-0.0017
2133.00,-0.0018
2132.00,-0.0017
2131.00,-0.0017
2130.00,-0.0016
2129.00,-0.0015
2128.00,-0.0013
2127.00,-0.0012
2126.00,-0.0010
2125.00,-0.0009
2124.00,-0.0007
2123.00,-0.0005
2122.00,-0.0004
2121.00,-0.0004
2120.00,-0.0004
2119.00,-0.0004
2118.00,-0.0004
2117.00,-0.0002
2116.00,-0.0000
2115.00,0.0001
2114.00,0.0002
2113.00,0.0002
2112.00,0.0003
2111.00,0.0004
2110.00,0.0004
2109.00,0.0003
2108.00,0.0003
2107.00,0.0004
2106.00,0.0004
2105.00,0.0005
2104.00,0.0004
2103.00,0.0004
2102.00,0.0003
2101.00,0.0003
2100.00,0.0002
2099.00,0.0001
2098.00,-0.0001
2097.00,-0.0003
2096.00,-0.0004
2095.00,-0.0005
2094.00,-0.0004
2093.00,-0.0004
2092.00,-0.0003
2091.00,-0.0003
2090.00,-0.0002
2089.00,-0.0001
2088.00,0.0000
2087.00,0.0001
2086.00,0.0000
2085.00,-0.0000
2084.00,-0.0000
2083.00,0.0000
2082.00,0.0001
2081.00,0.0001
2080.00,0.0002
2079.00,0.0003
2078.00,0.0003
2077.00,0.0004
2076.00,0.0004
2075.00,0.0003
2074.00,0.0002
2073.00,0.0001
2072.00,0.0000
2071.00,-0.0001
2070.00,-0.0001
2069.00,-0.0001
2068.00,-0.0002
2067.00,-0.0003
2066.00,-0.0003
2065.00,-0.0004
2064.00,-0.0004
2063.00,-0.0004
2062.00,-0.0003
2061.00,-0.0002
2060.00,-0.0002
2059.00,-0.0002
2058.00,-0.0002
2057.00,-0.0001
2056.00,-0.0001
2055.00,-0.0000
2054.00,0.0000
2053.00,0.0003
2052.00,0.0007
2051.00,0.0010
2050.00,0.0011
2049.00,0.0008
2048.00,0.0004
2047.00,-0.0000
2046.00,-0.0002
2045.00,-0.0003
2044.00,-0.0001
2043.00,-0.0000
2042.00,0.0000
2041.00,0.0001
2040.00,0.0001
2039.00,0.0000
2038.00,-0.0000
2037.00,-0.0001
2036.00,-0.0001
2035.00,-0.0001
2034.00,-0.0002
2033.00,-0.0005
2032.00,-0.0010
2031.00,-0.0014
2030.00,-0.0016
2029.00,-0.0016
2028.00,-0.0014
2027.00,-0.0013
2026.00,-0.0012
2025.00,-0.0012
2024.00,-0.0013
2023.00,-0.0014
2022.00,-0.0015
2021.00,-0.0014
2020.00,-0.0012
2019.00,-0.0010
2018.00,-0.0009
2017.00,-0.0008
2016.00,-0.0007
2015.00,-0.0007
2014.00,-0.0008
2013.00,-0.0009
2012.00,-0.0009
2011.00,-0.0009
2010.00,-0.0010
2009.00,-0.0011
2008.00,-0.0011
2007.00,-0.0013
2006.00,-0.0014
2005.00,-0.0013
2004.00,-0.0013
2003.00,-0.0013
2002.00,-0.0013
2001.00,-0.0013
2000.00,-0.0011
1999.00,-0.0009
1998.00,-0.0007
1997.00,-0.0006
1996.00,-0.0007
1995.00,-0.0008
1994.00,-0.0008
1993.00,-0.0007
1992.00,-0.0007
1991.00,-0.0007
1990.00,-0.0007
1989.00,-0.0007
1988.00,-0.0007
1987.00,-0.0006
1986.00,-0.0005
1985.00,-0.0003
1984.00,0.0000
1983.00,0.0003
1982.00,0.0006
1981.00,0.0009
1980.00,0.0008
1979.00,0.0003
1978.00,-0.0004
1977.00,-0.0009
1976.00,-0.0013
1975.00,-0.0014
1974.00,-0.0014
1973.00,-0.0012
1972.00,-0.0010
1971.00,-0.0009
1970.00,-0.0010
1969.00,-0.0012
1968.00,-0.0013
1967.00,-0.0013
1966.00,-0.0013
1965.00,-0.0012
1964.00,-0.0010
1963.00,-0.0010
1962.00,-0.0011
1961.00,-0.0013
1960.00,-0.0015
1959.00,-0.0016
1958.00,-0.0016
1957.00,-0.0016
1956.00,-0.0016
1955.00,-0.0016
1954.00,-0.0016
1953.00,-0.0014
1952.00,-0.0013
1951.00,-0.0013
1950.00,-0.0014
1949.00,-0.0015
1948.00,-0.0015
1947.00,-0.0014
1946.00,-0.0014
1945.00,-0.0012
1944.00,-0.0011
1943.00,-0.0011
1942.00,-0.0011
1941.00,-0.0012
1940.00,-0.0013
1939.00,-0.0013
1938.00,-0.0013
1937.00,-0.0013
1936.00,-0.0011
1935.00,-0.0011
1934.00,-0.0011
1933.00,-0.0012
1932.00,-0.0013
1931.00,-0.0013
1930.00,-0.0012
1929.00,-0.0011
1928.00,-0.0010
1927.00,-0.0010
1926.00,-0.0009
1925.00,-0.0009
1924.00,-0.0008
1923.00,-0.0007
1922.00,-0.0005
1921.00,-0.0004
1920.00,-0.0004
1919.00,-0.0004
1918.00,-0.0005
1917.00,-0.0006
1916.00,-0.0006
1915.00,-0.0006
1914.00,-0.0005
1913.00,-0.0005
1912.00,-0.0004
1911.00,-0.0004
1910.00,-0.0004
1909.00,-0.0004
1908.00,-0.0005
1907.00,-0.0005
1906.00,-0.0004
1905.00,-0.0004
1904.00,-0.0003
1903.00,-0.0003
1902.00,-0.0003
1901.00,-0.0003
1900.00,-0.0003
1899.00,-0.0003
1898.00,-0.0002
1897.00,-0.0002
1896.00,-0.0002
1895.00,-0.0001
1894.00,-0.0001
1893.00,-0.0001
1892.00,0.0000
1891.00,0.0001
1890.00,0.0002
1889.00,0.0002
1888.00,0.0002
1887.00,0.0001
1886.00,-0.0001
1885.00,-0.0003
1884.00,-0.0003
1883.00,-0.0003
1882.00,-0.0002
1881.00,-0.0001
1880.00,-0.0001
1879.00,-0.0002
1878.00,-0.0003
1877.00,-0.0003
1876.00,-0.0004
1875.00,-0.0003
1874.00,-0.0003
1873.00,-0.0002
1872.00,-0.0001
1871.00,-0.0001
1870.00,-0.0001
1869.00,-0.0000
1868.00,-0.0000
1867.00,-0.0000
1866.00,-0.0001
1865.00,-0.0001
1864.00,-0.0001
1863.00,0.0000
1862.00,0.0000
1861.00,0.0000
1860.00,0.0000
1859.00,0.0000
1858.00,-0.0000
1857.00,-0.0000
1856.00,-0.0000
1855.00,-0.0000
1854.00,0.0000
1853.00,0.0001
1852.00,0.0001
1851.00,0.0000
1850.00,-0.0000
1849.00,-0.0001
1848.00,-0.0001
1847.00,-0.0001
1846.00,-0.0002
1845.00,-0.0002
1844.00,-0.0001
1843.00,-0.0001
1842.00,-0.0001
1841.00,-0.0000
1840.00,-0.0000
1839.00,-0.0000
1838.00,-0.0000
1837.00,0.0001
1836.00,0.0001
1835.00,0.0002
1834.00,0.0002
1833.00,0.0002
1832.00,0.0002
1831.00,0.0002
1830.00,0.0003
1829.00,0.0003
1828.00,0.0004
1827.00,0.0004
1826.00,0.0004
1825.00,0.0004
1824.00,0.0003
1823.00,0.0002
1822.00,0.0001
1821.00,0.0001
1820.00,0.0000
1819.00,-0.0000
1818.00,-0.0001
1817.00,-0.0002
1816.00,-0.0002
1815.00,-0.0001
1814.00,-0.0000
1813.00,0.0001
1812.00,0.0001
1811.00,0.0002
1810.00,0.0002
1809.00,0.0003
1808.00,0.0003
1807.00,0.0004
1806.00,0.0004
1805.00,0.0004
1804.00,0.0004
1803.00,0.0004
1802.00,0.0004
1801.00,0.0004
1800.00,0.0004
1799.00,0.0004
1798.00,0.0004
1797.00,0.0005
1796.00,0.0005
1795.00,0.0005
1794.00,0.0004
1793.00,0.0004
1792.00,0.0004
1791.00,0.0004
1790.00,0.0004
1789.00,0.0005
1788.00,0.0006
1787.00,0.0007
1786.00,0.0007
1785.00,0.0006
1784.00,0.0006
1783.00,0.0006
1782.00,0.0006
1781.00,0.0006
1780.00,0.0006
1779.00,0.0005
1778.00,0.0006
1777.00,0.0006
1776.00,0.0006
1775.00,0.0007
1774.00,0.0006
1773.00,0.0006
1772.00,0.0006
1771.00,0.0006
1770.00,0.0007
1769.00,0.0008
1768.00,0.0009
1767.00,0.0009
1766.00,0.0009
1765.00,0.0009
1764.00,0.0009
1763.00,0.0009
1762.00,0.0010
1761.00,0.0010
1760.00,0.0011
1759.00,0.0011
1758.00,0.0011
1757.00,0.0011
1756.00,0.0011
1755.00,0.0011
1754.00,0.0012
1753.00,0.0013
1752.00,0.0014
1751.00,0.0015
1750.00,0.0015
1749.00,0.0016
1748.00,0.0016
1747.00,0.0017
1746.00,0.0018
1745.00,0.0019
1744.00,0.0021
1743.00,0.0022
1742.00,0.0023
1741.00,0.0023
1740.00,0.0023
1739.00,0.0023
1738.00,0.0023
1737.00,0.0023
1736.00,0.0023
1735.00,0.0024
1734.00,0.0024
1733.00,0.0025
1732.00,0.0025
1731.00,0.0025
1730.00,0.0025
1729.00,0.0024
1728.00,0.0024
1727.00,0.0024
1726.00,0.0025
1725.00,0.0025
1724.00,0.0025
1723.00,0.0025
1722.00,0.0025
1721.00,0.0025
1720.00,0.0025
1719.00,0.0024
1718.00,0.0024
1717.00,0.0023
1716.00,0.0022
1715.00,0.0021
1714.00,0.0021
1713.00,0.0020
1712.00,0.0020
1711.00,0.0020
1710.00,0.0020
1709.00,0.0020
1708.00,0.0020
1707.00,0.0020
1706.00,0.0020
1705.00,0.0020
1704.00,0.0020
1703.00,0.0020
1702.00,0.0020
1701.00,0.0021
1700.00,0.0021
1699.00,0.0021
1698.00,0.0021
1697.00,0.0022
1696.00,0.0022
1695.00,0.0022
1694.00,0.0022
1693.00,0.0023
1692.00,0.0023
1691.00,0.0023
1690.00,0.0024
1689.00,0.0024
1688.00,0.0025
1687.00,0.0025
1686.00,0.0025
1685.00,0.0026
1684.00,0.0026
1683.00,0.0026
1682.00,0.0026
1681.00,0.0026
1680.00,0.0027
1679.00,0.0027
1678.00,0.0028
1677.00,0.0028
1676.00,0.0029
1675.00,0.0029
1674.00,0.0029
1673.00,0.0030
1672.00,0.0030
1671.00,0.0030
1670.00,0.0030
1669.00,0.0030
1668.00,0.0030
1667.00,0.0030
1666.00,0.0031
1665.00,0.0031
1664.00,0.0032
1663.00,0.0032
1662.00,0.0032
1661.00,0.0033
1660.00,0.0033
1659.00,0.0033
1658.00,0.0034
1657.00,0.0034
1656.00,0.0034
1655.00,0.0035
1654.00,0.0035
1653.00,0.0036
1652.00,0.0037
1651.00,0.0039
1650.00,0.0040
1649.00,0.0040
1648.00,0.0042
1647.00,0.0043
1646.00,0.0043
1645.00,0.0044
1644.00,0.0044
1643.00,0.0045
1642.00,0.0045
1641.00,0.0046
1640.00,0.0047
1639.00,0.0047
1638.00,0.0048
1637.00,0.0048
1636.00,0.0048
1635.00,0.0047
1634.00,0.0046
1633.00,0.0046
1632.00,0.0045
1631.00,0.0045
1630.00,0.0045
1629.00,0.0045
1628.00,0.0045
1627.00,0.0044
1626.00,0.0044
1625.00,0.0043
1624.00,0.0043
1623.00,0.0042
1622.00,0.0041
1621.00,0.0041
1620.00,0.0040
1619.00,0.0040
1618.00,0.0040
1617.00,0.0040
1616.00,0.0041
1615.00,0.0041
1614.00,0.0040
1613.00,0.0040
1612.00,0.0040
1611.00,0.0041
1610.00,0.0041
1609.00,0.0041
1608.00,0.0041
1607.00,0.0040
1606.00,0.0040
1605.00,0.0040
1604.00,0.0040
1603.00,0.0040
1602.00,0.0039
1601.00,0.0039
1600.00,0.0039
1599.00,0.0039
1598.00,0.0039
1597.00,0.0039
1596.00,0.0040
1595.00,0.0040
1594.00,0.0040
1593.00,0.0041
1592.00,0.0041
1591.00,0.0041
1590.00,0.0042
1589.00,0.0043
1588.00,0.0044
1587.00,0.0045
1586.00,0.0046
1585.00,0.0047
1584.00,0.0049
1583.00,0.0050
1582.00,0.0052
1581.00,0.0054
1580.00,0.0056
1579.00,0.0057
1578.00,0.0058
1577.00,0.0058
1576.00,0.0057
1575.00,0.0057
1574.00,0.0056
1573.00,0.0055
1572.00,0.0055
1571.00,0.0054
1570.00,0.0053
1569.00,0.0053
1568.00,0.0053
1567.00,0.0052
1566.00,0.0051
1565.00,0.0051
1564.00,0.0050
1563.00,0.0049
1562.00,0.0049
1561.00,0.0049
1560.00,0.0049
1559.00,0.0048
1558.00,0.0048
1557.00,0.0049
1556.00,0.0049
1555.00,0.0049
1554.00,0.0050
1553.00,0.0050
1552.00,0.0052
1551.00,0.0052
1550.00,0.0053
1549.00,0.0054
1548.00,0.0055
1547.00,0.0056
1546.00,0.0058
1545.00,0.0060
1544.00,0.0063
1543.00,0.0064
1542.00,0.0064
1541.00,0.0064
1540.00,0.0062
1539.00,0.0060
1538.00,0.0059
1537.00,0.0058
1536.00,0.0057
1535.00,0.0055
1534.00,0.0052
1533.00,0.0050
1532.00,0.0048
1531.00,0.0047
1530.00,0.0046
1529.00,0.0045
1528.00,0.0045
1527.00,0.0045
1526.00,0.0045
1525.00,0.0045
1524.00,0.0046
1523.00,0.0046
1522.00,0.0045
1521.00,0.0045
1520.00,0.0046
1519.00,0.0047
1518.00,0.0047
1517.00,0.0047
1516.00,0.0048
1515.00,0.0048
1514.00,0.0048
1513.00,0.0050
1512.00,0.0051
1511.00,0.0051
1510.00,0.0051
1509.00,0.0052
1508.00,0.0052
1507.00,0.0052
1506.00,0.0053
1505.00,0.0055
1504.00,0.0057
1503.00,0.0059
1502.00,0.0060
1501.00,0.0062
1500.00,0.0065
1499.00,0.0066
1498.00,0.0068
1497.00,0.0070
1496.00,0.0073
1495.00,0.0076
1494.00,0.0079
1493.00,0.0082
1492.00,0.0085
1491.00,0.0089
1490.00,0.0093
1489.00,0.0098
1488.00,0.0103
1487.00,0.0107
1486.00,0.0112
1485.00,0.0119
1484.00,0.0126
1483.00,0.0134
1482.00,0.0143
1481.00,0.0154
1480.00,0.0167
1479.00,0.0180
1478.00,0.0195
1477.00,0.0216
1476.00,0.0242
1475.00,0.0272
1474.00,0.0312
1473.00,0.0368
1472.00,0.0434
1471.00,0.0499
1470.00,0.0562
1469.00,0.0628
1468.00,0.0699
1467.00,0.0777
1466.00,0.0866
1465.00,0.0960
1464.00,0.1042
1463.00,0.1099
1462.00,0.1134
1461.00,0.1157
1460.00,0.1172
1459.00,0.1182
1458.00,0.1189
1457.00,0.1194
1456.00,0.1192
1455.00,0.1184
1454.00,0.1171
1453.00,0.1152
1452.00,0.1123
1451.00,0.1084
1450.00,0.1032
1449.00,0.0960
1448.00,0.0871
1447.00,0.0777
1446.00,0.0693
1445.00,0.0621
1444.00,0.0559
1443.00,0.0508
1442.00,0.0469
1441.00,0.0442
1440.00,0.0425
1439.00,0.0418
1438.00,0.0418
1437.00,0.0419
1436.00,0.0410
1435.00,0.0386
1434.00,0.0352
1433.00,0.0310
1432.00,0.0266
1431.00,0.0227
1430.00,0.0197
1429.00,0.0174
1428.00,0.0158
1427.00,0.0148
1426.00,0.0142
1425.00,0.0136
1424.00,0.0131
1423.00,0.0128
1422.00,0.0126
1421.00,0.0123
1420.00,0.0120
1419.00,0.0117
1418.00,0.0115
1417.00,0.0112
1416.00,0.0110
1415.00,0.0108
1414.00,0.0108
1413.00,0.0107
1412.00,0.0105
1411.00,0.0104
1410.00,0.0103
1409.00,0.0102
1408.00,0.0102
1407.00,0.0102
1406.00,0.0103
1405.00,0.0103
1404.00,0.0102
1403.00,0.0103
1402.00,0.0104
1401.00,0.0105
1400.00,0.0106
1399.00,0.0108
1398.00,0.0110
1397.00,0.0112
1396.00,0.0113
1395.00,0.0117
1394.00,0.0122
1393.00,0.0127
1392.00,0.0133
1391.00,0.0141
1390.00,0.0151
1389.00,0.0165
1388.00,0.0185
1387.00,0.0217
1386.00,0.0259
1385.00,0.0316
1384.00,0.0394
1383.00,0.0504
1382.00,0.0652
1381.00,0.0843
1380.00,0.1080
1379.00,0.1348
1378.00,0.1605
1377.00,0.1792
1376.00,0.1852
1375.00,0.1753
1374.00,0.1527
1373.00,0.1256
1372.00,0.1010
1371.00,0.0808
1370.00,0.0648
1369.00,0.0528
1368.00,0.0445
1367.00,0.0394
1366.00,0.0366
1365.00,0.0355
1364.00,0.0357
1363.00,0.0369
1362.00,0.0389
1361.00,0.0411
1360.00,0.0427
1359.00,0.0432
1358.00,0.0422
1357.00,0.0397
1356.00,0.0362
1355.00,0.0324
1354.00,0.0286
1353.00,0.0254
1352.00,0.0228
1351.00,0.0207
1350.00,0.0189
1349.00,0.0175
1348.00,0.0163
1347.00,0.0153
1346.00,0.0145
1345.00,0.0138
1344.00,0.0132
1343.00,0.0127
1342.00,0.0123
1341.00,0.0120
1340.00,0.0117
1339.00,0.0114
1338.00,0.0113
1337.00,0.0112
1336.00,0.0114
1335.00,0.0116
1334.00,0.0120
1333.00,0.0124
1332.00,0.0127
1331.00,0.0130
1330.00,0.0131
1329.00,0.0129
1328.00,0.0126
1327.00,0.0122
1326.00,0.0116
1325.00,0.0110
1324.00,0.0105
1323.00,0.0100
1322.00,0.0096
1321.00,0.0093
1320.00,0.0091
1319.00,0.0089
1318.00,0.0087
1317.00,0.0086
1316.00,0.0085
1315.00,0.0085
1314.00,0.0085
1313.00,0.0085
1312.00,0.0086
1311.00,0.0088
1310.00,0.0093
1309.00,0.0099
1308.00,0.0108
1307.00,0.0119
1306.00,0.0129
1305.00,0.0136
1304.00,0.0138
1303.00,0.0136
1302.00,0.0131
1301.00,0.0126
1300.00,0.0124
1299.00,0.0123
1298.00,0.0123
1297.00,0.0123
1296.00,0.0122
1295.00,0.0120
1294.00,0.0116
1293.00,0.0112
1292.00,0.0106
1291.00,0.0101
1290.00,0.0097
1289.00,0.0093
1288.00,0.0090
1287.00,0.0087
1286.00,0.0085
1285.00,0.0084
1284.00,0.0082
1283.00,0.0081
1282.00,0.0080
1281.00,0.0078
1280.00,0.0077
1279.00,0.0076
1278.00,0.0076
1277.00,0.0076
1276.00,0.0077
1275.00,0.0077
1274.00,0.0077
1273.00,0.0077
1272.00,0.0077
1271.00,0.0078
1270.00,0.0079
1269.00,0.0080
1268.00,0.0082
1267.00,0.0084
1266.00,0.0086
1265.00,0.0089
1264.00,0.0092
1263.00,0.0095
1262.00,0.0099
1261.00,0.0103
1260.00,0.0108
1259.00,0.0114
1258.00,0.0121
1257.00,0.0127
1256.00,0.0129
1255.00,0.0127
1254.00,0.0122
1253.00,0.0114
1252.00,0.0106
1251.00,0.0100
1250.00,0.0095
1249.00,0.0091
1248.00,0.0088
1247.00,0.0086
1246.00,0.0084
1245.00,0.0083
1244.00,0.0082
1243.00,0.0081
1242.00,0.0080
1241.00,0.0079
1240.00,0.0078
1239.00,0.0078
1238.00,0.0078
1237.00,0.0078
1236.00,0.0078
1235.00,0.0079
1234.00,0.0079
1233.00,0.0078
1232.00,0.0078
1231.00,0.0078
1230.00,0.0079
1229.00,0.0080
1228.00,0.0082
1227.00,0.0083
1226.00,0.0086
1225.00,0.0089
1224.00,0.0092
1223.00,0.0095
1222.00,0.0097
1221.00,0.0099
1220.00,0.0100
1219.00,0.0101
1218.00,0.0101
1217.00,0.0099
1216.00,0.0096
1215.00,0.0094
1214.00,0.0091
1213.00,0.0089
1212.00,0.0087
1211.00,0.0085
1210.00,0.0083
1209.00,0.0082
1208.00,0.0081
1207.00,0.0080
1206.00,0.0080
1205.00,0.0079
1204.00,0.0078
1203.00,0.0077
1202.00,0.0077
1201.00,0.0077
1200.00,0.0077
1199.00,0.0077
1198.00,0.0077
1197.00,0.0077
1196.00,0.0076
1195.00,0.0075
1194.00,0.0074
1193.00,0.0073
1192.00,0.0073
1191.00,0.0073
1190.00,0.0074
1189.00,0.0075
1188.00,0.0076
1187.00,0.0076
1186.00,0.0077
1185.00,0.0077
1184.00,0.0078
1183.00,0.0079
1182.00,0.0082
1181.00,0.0084
1180.00,0.0087
1179.00,0.0091
1178.00,0.0096
1177.00,0.0105
1176.00,0.0116
1175.00,0.0130
1174.00,0.0148
1173.00,0.0172
1172.00,0.0201
1171.00,0.0233
1170.00,0.0265
1169.00,0.0290
1168.00,0.0305
1167.00,0.0307
1166.00,0.0298
1165.00,0.0283
1164.00,0.0265
1163.00,0.0249
1162.00,0.0235
1161.00,0.0223
1160.00,0.0213
1159.00,0.0207
1158.00,0.0203
1157.00,0.0200
1156.00,0.0198
1155.00,0.0196
1154.00,0.0194
1153.00,0.0191
1152.00,0.0185
1151.00,0.0178
1150.00,0.0170
1149.00,0.0160
1148.00,0.0151
1147.00,0.0142
1146.00,0.0133
1145.00,0.0125
1144.00,0.0117
1143.00,0.0110
1142.00,0.0103
1141.00,0.0097
1140.00,0.0092
1139.00,0.0088
1138.00,0.0084
1137.00,0.0081
1136.00,0.0079
1135.00,0.0076
1134.00,0.0075
1133.00,0.0073
1132.00,0.0072
1131.00,0.0071
1130.00,0.0071
1129.00,0.0071
1128.00,0.0071
1127.00,0.0072
1126.00,0.0072
1125.00,0.0073
1124.00,0.0074
1123.00,0.0075
1122.00,0.0076
1121.00,0.0076
1120.00,0.0076
1119.00,0.0075
1118.00,0.0076
1117.00,0.0077
1116.00,0.0078
1115.00,0.0080
1114.00,0.0081
1113.00,0.0083
1112.00,0.0085
1111.00,0.0088
1110.00,0.0091
1109.00,0.0095
1108.00,0.0099
1107.00,0.0105
1106.00,0.0111
1105.00,0.0117
1104.00,0.0121
1103.00,0.0123
1102.00,0.0122
1101.00,0.0119
1100.00,0.0113
1099.00,0.0108
1098.00,0.0102
1097.00,0.0097
1096.00,0.0093
1095.00,0.0091
1094.00,0.0088
1093.00,0.0085
1092.00,0.0082
1091.00,0.0080
1090.00,0.0079
1089.00,0.0079
1088.00,0.0079
1087.00,0.0079
1086.00,0.0078
1085.00,0.0078
1084.00,0.0077
1083.00,0.0076
1082.00,0.0075
1081.00,0.0075
1080.00,0.0075
1079.00,0.0075
1078.00,0.0074
1077.00,0.0072
1076.00,0.0071
1075.00,0.0070
1074.00,0.0069
1073.00,0.0070
1072.00,0.0071
1071.00,0.0072
1070.00,0.0072
1069.00,0.0073
1068.00,0.0072
1067.00,0.0072
1066.00,0.0073
1065.00,0.0074
1064.00,0.0075
1063.00,0.0076
1062.00,0.0077
1061.00,0.0078
1060.00,0.0079
1059.00,0.0080
1058.00,0.0081
1057.00,0.0082
1056.00,0.0083
1055.00,0.0084
1054.00,0.0087
1053.00,0.0090
1052.00,0.0094
1051.00,0.0099
1050.00,0.0104
1049.00,0.0109
1048.00,0.0114
1047.00,0.0119
1046.00,0.0123
1045.00,0.0126
1044.00,0.0127
1043.00,0.0127
1042.00,0.0126
1041.00,0.0124
1040.00,0.0123
1039.00,0.0122
1038.00,0.0121
1037.00,0.0121
1036.00,0.0120
1035.00,0.0119
1034.00,0.0118
1033.00,0.0117
1032.00,0.0115
1031.00,0.0113
1030.00,0.0112
1029.00,0.0112
1028.00,0.0112
1027.00,0.0112
1026.00,0.0114
1025.00,0.0115
1024.00,0.0117
1023.00,0.0120
1022.00,0.0123
1021.00,0.0125
1020.00,0.0128
1019.00,0.0130
1018.00,0.0130
1017.00,0.0130
1016.00,0.0130
1015.00,0.0130
1014.00,0.0130
1013.00,0.0131
1012.00,0.0131
1011.00,0.0132
1010.00,0.0132
1009.00,0.0133
1008.00,0.0135
1007.00,0.0140
1006.00,0.0147
1005.00,0.0158
1004.00,0.0173
1003.00,0.0194
1002.00,0.0222
1001.00,0.0257
1000.00,0.0295
999.00,0.0327
998.00,0.0343
997.00,0.0336
996.00,0.0309
995.00,0.0270
994.00,0.0229
993.00,0.0195
992.00,0.0167
991.00,0.0148
990.00,0.0134
989.00,0.0125
988.00,0.0119
987.00,0.0116
986.00,0.0115
985.00,0.0116
984.00,0.0120
983.00,0.0127
982.00,0.0138
981.00,0.0153
980.00,0.0174
979.00,0.0202
978.00,0.0237
977.00,0.0279
976.00,0.0324
975.00,0.0366
974.00,0.0397
973.00,0.0407
972.00,0.0392
971.00,0.0354
970.00,0.0303
969.00,0.0252
968.00,0.0209
967.00,0.0176
966.00,0.0152
965.00,0.0134
964.00,0.0121
963.00,0.0112
962.00,0.0105
961.00,0.0099
960.00,0.0096
959.00,0.0093
958.00,0.0090
957.00,0.0087
956.00,0.0085
955.00,0.0082
954.00,0.0080
953.00,0.0078
952.00,0.0077
951.00,0.0076
950.00,0.0076
949.00,0.0076
948.00,0.0075
947.00,0.0075
946.00,0.0076
945.00,0.0078
944.00,0.0081
943.00,0.0084
942.00,0.0087
941.00,0.0089
940.00,0.0090
939.00,0.0088
938.00,0.0084
937.00,0.0079
936.00,0.0074
935.00,0.0069
934.00,0.0066
933.00,0.0064
932.00,0.0062
931.00,0.0061
930.00,0.0061
929.00,0.0060
928.00,0.0060
927.00,0.0059
926.00,0.0058
925.00,0.0057
924.00,0.0057
923.00,0.0057
922.00,0.0057
921.00,0.0057
920.00,0.0057
919.00,0.0058
918.00,0.0059
917.00,0.0060
916.00,0.0061
915.00,0.0062
914.00,0.0063
913.00,0.0064
912.00,0.0064
911.00,0.0066
910.00,0.0068
909.00,0.0071
908.00,0.0074
907.00,0.0078
906.00,0.0085
905.00,0.0095
904.00,0.0108
903.00,0.0125
902.00,0.0145
901.00,0.0163
900.00,0.0174
899.00,0.0176
898.00,0.0167
897.00,0.0152
896.00,0.0134
895.00,0.0116
894.00,0.0102
893.00,0.0091
892.00,0.0083
891.00,0.0078
890.00,0.0074
889.00,0.0072
888.00,0.0071
887.00,0.0071
886.00,0.0071
885.00,0.0071
884.00,0.0070
883.00,0.0070
882.00,0.0070
881.00,0.0069
880.00,0.0069
879.00,0.0068
878.00,0.0068
877.00,0.0068
876.00,0.0068
875.00,0.0069
874.00,0.0071
873.00,0.0072
872.00,0.0073
871.00,0.0071
870.00,0.0070
869.00,0.0069
868.00,0.0070
867.00,0.0071
866.00,0.0072
865.00,0.0073
864.00,0.0075
863.00,0.0077
862.00,0.0079
861.00,0.0081
860.00,0.0082
859.00,0.0084
858.00,0.0085
857.00,0.0086
856.00,0.0087
855.00,0.0090
854.00,0.0092
853.00,0.0094
852.00,0.0096
851.00,0.0098
850.00,0.0101
849.00,0.0107
848.00,0.0117
847.00,0.0131
846.00,0.0151
845.00,0.0181
844.00,0.0223
843.00,0.0272
842.00,0.0314
841.00,0.0327
840.00,0.0307
839.00,0.0262
838.00,0.0212
837.00,0.0173
836.00,0.0147
835.00,0.0131
834.00,0.0121
833.00,0.0114
832.00,0.0109
831.00,0.0106
830.00,0.0104
829.00,0.0101
828.00,0.0099
827.00,0.0096
826.00,0.0094
825.00,0.0093
824.00,0.0093
823.00,0.0094
822.00,0.0096
821.00,0.0099
820.00,0.0102
819.00,0.0105
818.00,0.0108
817.00,0.0113
816.00,0.0121
815.00,0.0132
814.00,0.0146
813.00,0.0164
812.00,0.0182
811.00,0.0200
810.00,0.0213
809.00,0.0219
808.00,0.0215
807.00,0.0202
806.00,0.0183
805.00,0.0164
804.00,0.0148
803.00,0.0136
802.00,0.0127
801.00,0.0121
800.00,0.0114
799.00,0.0108
798.00,0.0103
797.00,0.0100
796.00,0.0098
795.00,0.0095
794.00,0.0092
793.00,0.0089
792.00,0.0086
791.00,0.0083
790.00,0.0079
789.00,0.0075
788.00,0.0072
787.00,0.0069
786.00,0.0067
785.00,0.0065
784.00,0.0064
783.00,0.0063
782.00,0.0063
781.00,0.0063
780.00,0.0063
779.00,0.0062
778.00,0.0062
777.00,0.0061
776.00,0.0062
775.00,0.0063
774.00,0.0063
773.00,0.0062
772.00,0.0062
771.00,0.0063
770.00,0.0064
769.00,0.0065
768.00,0.0063
767.00,0.0062
766.00,0.0060
765.00,0.0060
764.00,0.0060
763.00,0.0061
762.00,0.0061
761.00,0.0061
760.00,0.0062
759.00,0.0063
758.00,0.0065
757.00,0.0066
756.00,0.0067
755.00,0.0067
754.00,0.0067
753.00,0.0068
752.00,0.0069
751.00,0.0071
750.00,0.0073
749.00,0.0074
748.00,0.0074
747.00,0.0075
746.00,0.0077
745.00,0.0080
744.00,0.0083
743.00,0.0086
742.00,0.0088
741.00,0.0089
740.00,0.0092
739.00,0.0095
738.00,0.0098
737.00,0.0100
736.00,0.0103
735.00,0.0105
734.00,0.0110
733.00,0.0117
732.00,0.0125
731.00,0.0134
730.00,0.0140
729.00,0.0144
728.00,0.0145
727.00,0.0145
726.00,0.0145
725.00,0.0147
724.00,0.0150
723.00,0.0155
722.00,0.0162
721.00,0.0166
720.00,0.0166
719.00,0.0158
718.00,0.0147
717.00,0.0135
716.00,0.0126
715.00,0.0119
714.00,0.0114
713.00,0.0111
712.00,0.0108
711.00,0.0104
710.00,0.0100
709.00,0.0098
708.00,0.0096
707.00,0.0095
706.00,0.0094
705.00,0.0094
704.00,0.0094
703.00,0.0095
702.00,0.0094
701.00,0.0092
700.00,0.0089
699.00,0.0088
698.00,0.0087
697.00,0.0088
696.00,0.0088
695.00,0.0089
694.00,0.0090
693.00,0.0091
692.00,0.0091
691.00,0.0090
690.00,0.0089
689.00,0.0089
688.00,0.0089
687.00,0.0090
686.00,0.0090
685.00,0.0090
684.00,0.0088
683.00,0.0087
682.00,0.0086
681.00,0.0086
680.00,0.0085
679.00,0.0084
678.00,0.0084
677.00,0.0085
676.00,0.0087
675.00,0.0089
674.00,0.0091
673.00,0.0093
672.00,0.0094
671.00,0.0096
670.00,0.0098
669.00,0.0100
668.00,0.0100
667.00,0.0098
666.00,0.0094
665.00,0.0090
664.00,0.0089
663.00,0.0090
662.00,0.0090
661.00,0.0090
660.00,0.0090
659.00,0.0089
658.00,0.0086
657.00,0.0082
656.00,0.0080
655.00,0.0080
654.00,0.0080
653.00,0.0081
652.00,0.0080
651.00,0.0080
650.00,0.0080
649.00,0.0080
648.00,0.0079
647.00,0.0080
646.00,0.0080
645.00,0.0081
644.00,0.0080
643.00,0.0080
642.00,0.0079
641.00,0.0079
640.00,0.0079
639.00,0.0081
638.00,0.0083
637.00,0.0084
636.00,0.0084
635.00,0.0083
634.00,0.0081
633.00,0.0078
632.00,0.0076
631.00,0.0075
630.00,0.0077
629.00,0.0079
628.00,0.0081
627.00,0.0083
626.00,0.0083
625.00,0.0082
624.00,0.0082
623.00,0.0082
622.00,0.0082
621.00,0.0082
620.00,0.0080
619.00,0.0077
618.00,0.0075
617.00,0.0076
616.00,0.0078
615.00,0.0080
614.00,0.0079
613.00,0.0077
612.00,0.0076
611.00,0.0076
610.00,0.0078
609.00,0.0078
608.00,0.0079
607.00,0.0080
606.00,0.0082
605.00,0.0084
604.00,0.0084
603.00,0.0085
602.00,0.0084
601.00,0.0083
600.00,0.0081
599.00,0.0079
598.00,0.0078
597.00,0.0078
596.00,0.0077
595.00,0.0078
594.00,0.0079
593.00,0.0079
592.00,0.0079
591.00,0.0077
590.00,0.0075
589.00,0.0073
588.00,0.0072
587.00,0.0072
586.00,0.0073
585.00,0.0074
584.00,0.0076
583.00,0.0078
582.00,0.0078
581.00,0.0078
580.00,0.0078
579.00,0.0078
578.00,0.0079
577.00,0.0080
576.00,0.0082
575.00,0.0082
574.00,0.0081
573.00,0.0079
572.00,0.0076
571.00,0.0074
570.00,0.0075
569.00,0.0076
568.00,0.0077
567.00,0.0076
566.00,0.0075
565.00,0.0074
564.00,0.0075
563.00,0.0075
562.00,0.0074
561.00,0.0071
560.00,0.0069
559.00,0.0066
558.00,0.0066
557.00,0.0067
556.00,0.0071
555.00,0.0075
554.00,0.0078
553.00,0.0077
552.00,0.0075
551.00,0.0072
550.00,0.0070
549.00,0.0070
548.00,0.0073
547.00,0.0078
546.00,0.0083
545.00,0.0085
544.00,0.0086
543.00,0.0087
542.00,0.0090
541.00,0.0094
540.00,0.0098
539.00,0.0100
538.00,0.0099
537.00,0.0095
536.00,0.0094
535.00,0.0096
534.00,0.0101
533.00,0.0105
532.00,0.0106
531.00,0.0104
530.00,0.0102
529.00,0.0100
528.00,0.0100
527.00,0.0100
526.00,0.0100
525.00,0.0100
524.00,0.0099
523.00,0.0097
522.00,0.0095
521.00,0.0093
520.00,0.0092
519.00,0.0092
518.00,0.0092
517.00,0.0091
516.00,0.0091
515.00,0.0091
514.00,0.0091
513.00,0.0089
512.00,0.0086
511.00,0.0084
510.00,0.0086
509.00,0.0087
508.00,0.0084
507.00,0.0077
506.00,0.0070
505.00,0.0068
504.00,0.0071
503.00,0.0076
502.00,0.0078
501.00,0.0076
500.00,0.0070
499.00,0.0064
498.00,0.0062
497.00,0.0067
496.00,0.0075
495.00,0.0080
494.00,0.0080
493.00,0.0078
492.00,0.0080
491.00,0.0086
490.00,0.0091
489.00,0.0091
488.00,0.0088
487.00,0.0089
486.00,0.0093
485.00,0.0095
484.00,0.0091
483.00,0.0084
482.00,0.0083
481.00,0.0089
480.00,0.0097
479.00,0.0101
478.00,0.0100
477.00,0.0098
476.00,0.0099
475.00,0.0106
474.00,0.0114
473.00,0.0119
472.00,0.0119
471.00,0.0118
470.00,0.0119
469.00,0.0124
468.00,0.0130
467.00,0.0134
466.00,0.0134
465.00,0.0136
464.00,0.0142
463.00,0.0154
462.00,0.0173
461.00,0.0193
460.00,0.0208
459.00,0.0212
458.00,0.0202
457.00,0.0191
456.00,0.0189
455.00,0.0195
454.00,0.0200
453.00,0.0199
452.00,0.0193
451.00,0.0185
450.00,0.0172
