Created as New Dataset,Sample 028 By Administrator Date Wednesday, September 03 2025
cm-1,A
4000.00,0.0012
3999.00,0.0012
3998.00,0.0011
3997.00,0.0011
3996.00,0.0011
3995.00,0.0011
3994.00,0.0011
3993.00,0.0012
3992.00,0.0012
3991.00,0.0012
3990.00,0.0012
3989.00,0.0012
3988.00,0.0012
3987.00,0.0011
3986.00,0.0011
3985.00,0.0011
3984.00,0.0011
3983.00,0.0011
3982.00,0.0011
3981.00,0.0011
3980.00,0.0011
3979.00,0.0011
3978.00,0.0011
3977.00,0.0011
3976.00,0.0011
3975.00,0.0011
3974.00,0.0011
3973.00,0.0011
3972.00,0.0011
3971.00,0.0011
3970.00,0.0011
3969.00,0.0011
3968.00,0.0010
3967.00,0.0010
3966.00,0.0010
3965.00,0.0010
3964.00,0.0010
3963.00,0.0011
3962.00,0.0011
3961.00,0.0011
3960.00,0.0011
3959.00,0.0011
3958.00,0.0011
3957.00,0.0011
3956.00,0.0011
3955.00,0.0010
3954.00,0.0010
3953.00,0.0010
3952.00,0.0010
3951.00,0.0010
3950.00,0.0010
3949.00,0.0010
3948.00,0.0010
3947.00,0.0010
3946.00,0.0011
3945.00,0.0011
3944.00,0.0011
3943.00,0.0011
3942.00,0.0011
3941.00,0.0011
3940.00,0.0010
3939.00,0.0011
3938.00,0.0011
3937.00,0.0011
3936.00,0.0011
3935.00,0.0011
3934.00,0.0011
3933.00,0.0011
3932.00,0.0011
3931.00,0.0011
3930.00,0.0010
3929.00,0.0010
3928.00,0.0010
3927.00,0.0010
3926.00,0.0010
3925.00,0.0010
3924.00,0.0010
3923.00,0.0010
3922.00,0.0010
3921.00,0.0010
3920.00,0.0010
3919.00,0.0010
3918.00,0.0010
3917.00,0.0011
3916.00,0.0011
3915.00,0.0011
3914.00,0.0010
3913.00,0.0010
3912.00,0.0010
3911.00,0.0010
3910.00,0.0010
3909.00,0.0010
3908.00,0.0010
3907.00,0.0009
3906.00,0.0009
3905.00,0.0009
3904.00,0.0009
3903.00,0.0009
3902.00,0.0010
3901.00,0.0010
3900.00,0.0010
3899.00,0.0010
3898.00,0.0010
3897.00,0.0010
3896.00,0.0011
3895.00,0.0011
3894.00,0.0011
3893.00,0.0010
3892.00,0.0010
3891.00,0.0010
3890.00,0.0010
3889.00,0.0009
3888.00,0.0009
3887.00,0.0009
3886.00,0.0009
3885.00,0.0009
3884.00,0.0009
3883.00,0.0009
3882.00,0.0008
3881.00,0.0009
3880.00,0.0009
3879.00,0.0009
3878.00,0.0009
3877.00,0.0009
3876.00,0.0009
3875.00,0.0010
3874.00,0.0010
3873.00,0.0010
3872.00,0.0010
3871.00,0.0009
3870.00,0.0009
3869.00,0.0009
3868.00,0.0009
3867.00,0.0009
3866.00,0.0009
3865.00,0.0009
3864.00,0.0009
3863.00,0.0009
3862.00,0.0008
3861.00,0.0008
3860.00,0.0008
3859.00,0.0008
3858.00,0.0008
3857.00,0.0008
3856.00,0.0008
3855.00,0.0008
3854.00,0.0008
3853.00,0.0008
3852.00,0.0008
3851.00,0.0008
3850.00,0.0008
3849.00,0.0009
3848.00,0.0009
3847.00,0.0009
3846.00,0.0009
3845.00,0.0009
3844.00,0.0009
3843.00,0.0008
3842.00,0.0008
3841.00,0.0008
3840.00,0.0009
3839.00,0.0009
3838.00,0.0009
3837.00,0.0010
3836.00,0.0009
3835.00,0.0009
3834.00,0.0008
3833.00,0.0008
3832.00,0.0008
3831.00,0.0008
3830.00,0.0009
3829.00,0.0009
3828.00,0.0009
3827.00,0.0009
3826.00,0.0009
3825.00,0.0009
3824.00,0.0009
3823.00,0.0008
3822.00,0.0008
3821.00,0.0008
3820.00,0.0008
3819.00,0.0008
3818.00,0.0008
3817.00,0.0008
3816.00,0.0008
3815.00,0.0009
3814.00,0.0009
3813.00,0.0009
3812.00,0.0009
3811.00,0.0009
3810.00,0.0009
3809.00,0.0009
3808.00,0.0009
3807.00,0.0009
3806.00,0.0010
3805.00,0.0010
3804.00,0.0009
3803.00,0.0009
3802.00,0.0009
3801.00,0.0009
3800.00,0.0009
3799.00,0.0009
3798.00,0.0009
3797.00,0.0008
3796.00,0.0008
3795.00,0.0009
3794.00,0.0009
3793.00,0.0009
3792.00,0.0008
3791.00,0.0008
3790.00,0.0008
3789.00,0.0009
3788.00,0.0009
3787.00,0.0009
3786.00,0.0009
3785.00,0.0010
3784.00,0.0010
3783.00,0.0010
3782.00,0.0010
3781.00,0.0010
3780.00,0.0010
3779.00,0.0009
3778.00,0.0009
3777.00,0.0009
3776.00,0.0009
3775.00,0.0009
3774.00,0.0009
3773.00,0.0009
3772.00,0.0009
3771.00,0.0010
3770.00,0.0010
3769.00,0.0010
3768.00,0.0009
3767.00,0.0009
3766.00,0.0009
3765.00,0.0010
3764.00,0.0010
3763.00,0.0010
3762.00,0.0010
3761.00,0.0010
3760.00,0.0010
3759.00,0.0010
3758.00,0.0010
3757.00,0.0011
3756.00,0.0011
3755.00,0.0010
3754.00,0.0010
3753.00,0.0009
3752.00,0.0009
3751.00,0.0008
3750.00,0.0008
3749.00,0.0008
3748.00,0.0008
3747.00,0.0008
3746.00,0.0008
3745.00,0.0009
3744.00,0.0010
3743.00,0.0010
3742.00,0.0009
3741.00,0.0008
3740.00,0.0007
3739.00,0.0007
3738.00,0.0006
3737.00,0.0006
3736.00,0.0007
3735.00,0.0007
3734.00,0.0008
3733.00,0.0008
3732.00,0.0008
3731.00,0.0008
3730.00,0.0008
3729.00,0.0008
3728.00,0.0008
3727.00,0.0008
3726.00,0.0009
3725.00,0.0009
3724.00,0.0009
3723.00,0.0009
3722.00,0.0009
3721.00,0.0009
3720.00,0.0009
3719.00,0.0009
3718.00,0.0009
3717.00,0.0008
3716.00,0.0008
3715.00,0.0007
3714.00,0.0007
3713.00,0.0007
3712.00,0.0006
3711.00,0.0006
3710.00,0.0007
3709.00,0.0007
3708.00,0.0007
3707.00,0.0008
3706.00,0.0008
3705.00,0.0008
3704.00,0.0008
3703.00,0.0008
3702.00,0.0008
3701.00,0.0008
3700.00,0.0008
3699.00,0.0007
3698.00,0.0007
3697.00,0.0007
3696.00,0.0007
3695.00,0.0007
3694.00,0.0008
3693.00,0.0008
3692.00,0.0008
3691.00,0.0008
3690.00,0.0008
3689.00,0.0007
3688.00,0.0007
3687.00,0.0007
3686.00,0.0007
3685.00,0.0007
3684.00,0.0006
3683.00,0.0006
3682.00,0.0006
3681.00,0.0005
3680.00,0.0005
3679.00,0.0005
3678.00,0.0004
3677.00,0.0004
3676.00,0.0004
3675.00,0.0003
3674.00,0.0003
3673.00,0.0002
3672.00,0.0002
3671.00,0.0002
3670.00,0.0002
3669.00,0.0002
3668.00,0.0002
3667.00,0.0001
3666.00,0.0001
3665.00,0.0000
3664.00,0.0000
3663.00,0.0000
3662.00,0.0000
3661.00,0.0000
3660.00,0.0000
3659.00,0.0000
3658.00,0.0000
3657.00,0.0000
3656.00,0.0000
3655.00,0.0000
3654.00,0.0001
3653.00,0.0001
3652.00,0.0001
3651.00,0.0002
3650.00,0.0001
3649.00,0.0001
3648.00,0.0001
3647.00,0.0001
3646.00,0.0002
3645.00,0.0003
3644.00,0.0003
3643.00,0.0004
3642.00,0.0004
3641.00,0.0004
3640.00,0.0005
3639.00,0.0005
3638.00,0.0005
3637.00,0.0006
3636.00,0.0006
3635.00,0.0007
3634.00,0.0007
3633.00,0.0008
3632.00,0.0008
3631.00,0.0008
3630.00,0.0008
3629.00,0.0008
3628.00,0.0009
3627.00,0.0009
3626.00,0.0010
3625.00,0.0010
3624.00,0.0010
3623.00,0.0010
3622.00,0.0011
3621.00,0.0011
3620.00,0.0012
3619.00,0.0012
3618.00,0.0013
3617.00,0.0013
3616.00,0.0013
3615.00,0.0013
3614.00,0.0013
3613.00,0.0013
3612.00,0.0013
3611.00,0.0013
3610.00,0.0013
3609.00,0.0013
3608.00,0.0013
3607.00,0.0014
3606.00,0.0015
3605.00,0.0015
3604.00,0.0015
3603.00,0.0015
3602.00,0.0015
3601.00,0.0016
3600.00,0.0016
3599.00,0.0016
3598.00,0.0016
3597.00,0.0016
3596.00,0.0016
3595.00,0.0016
3594.00,0.0016
3593.00,0.0016
3592.00,0.0017
3591.00,0.0017
3590.00,0.0018
3589.00,0.0018
3588.00,0.0019
3587.00,0.0019
3586.00,0.0019
3585.00,0.0020
3584.00,0.0020
3583.00,0.0020
3582.00,0.0020
3581.00,0.0020
3580.00,0.0021
3579.00,0.0021
3578.00,0.0021
3577.00,0.0021
3576.00,0.0021
3575.00,0.0021
3574.00,0.0022
3573.00,0.0022
3572.00,0.0022
3571.00,0.0022
3570.00,0.0022
3569.00,0.0022
3568.00,0.0023
3567.00,0.0023
3566.00,0.0024
3565.00,0.0024
3564.00,0.0024
3563.00,0.0025
3562.00,0.0025
3561.00,0.0025
3560.00,0.0026
3559.00,0.0026
3558.00,0.0026
3557.00,0.0026
3556.00,0.0026
3555.00,0.0026
3554.00,0.0027
3553.00,0.0027
3552.00,0.0028
3551.00,0.0028
3550.00,0.0028
3549.00,0.0029
3548.00,0.0029
3547.00,0.0029
3546.00,0.0030
3545.00,0.0030
3544.00,0.0030
3543.00,0.0030
3542.00,0.0030
3541.00,0.0030
3540.00,0.0030
3539.00,0.0030
3538.00,0.0030
3537.00,0.0030
3536.00,0.0030
3535.00,0.0031
3534.00,0.0031
3533.00,0.0032
3532.00,0.0032
3531.00,0.0033
3530.00,0.0033
3529.00,0.0034
3528.00,0.0034
3527.00,0.0034
3526.00,0.0034
3525.00,0.0035
3524.00,0.0035
3523.00,0.0035
3522.00,0.0035
3521.00,0.0035
3520.00,0.0035
3519.00,0.0035
3518.00,0.0035
3517.00,0.0035
3516.00,0.0035
3515.00,0.0036
3514.00,0.0036
3513.00,0.0036
3512.00,0.0036
3511.00,0.0037
3510.00,0.0037
3509.00,0.0037
3508.00,0.0037
3507.00,0.0037
3506.00,0.0037
3505.00,0.0038
3504.00,0.0038
3503.00,0.0039
3502.00,0.0040
3501.00,0.0040
3500.00,0.0040
3499.00,0.0040
3498.00,0.0040
3497.00,0.0041
3496.00,0.0041
3495.00,0.0041
3494.00,0.0041
3493.00,0.0041
3492.00,0.0041
3491.00,0.0041
3490.00,0.0042
3489.00,0.0042
3488.00,0.0043
3487.00,0.0043
3486.00,0.0044
3485.00,0.0044
3484.00,0.0044
3483.00,0.0044
3482.00,0.0044
3481.00,0.0044
3480.00,0.0045
3479.00,0.0045
3478.00,0.0045
3477.00,0.0045
3476.00,0.0045
3475.00,0.0046
3474.00,0.0046
3473.00,0.0046
3472.00,0.0047
3471.00,0.0047
3470.00,0.0047
3469.00,0.0047
3468.00,0.0047
3467.00,0.0047
3466.00,0.0047
3465.00,0.0047
3464.00,0.0047
3463.00,0.0047
3462.00,0.0048
3461.00,0.0048
3460.00,0.0049
3459.00,0.0049
3458.00,0.0049
3457.00,0.0049
3456.00,0.0049
3455.00,0.0049
3454.00,0.0050
3453.00,0.0050
3452.00,0.0050
3451.00,0.0050
3450.00,0.0050
3449.00,0.0051
3448.00,0.0051
3447.00,0.0051
3446.00,0.0052
3445.00,0.0052
3444.00,0.0052
3443.00,0.0053
3442.00,0.0053
3441.00,0.0053
3440.00,0.0054
3439.00,0.0054
3438.00,0.0055
3437.00,0.0055
3436.00,0.0055
3435.00,0.0056
3434.00,0.0056
3433.00,0.0056
3432.00,0.0056
3431.00,0.0056
3430.00,0.0056
3429.00,0.0057
3428.00,0.0057
3427.00,0.0057
3426.00,0.0057
3425.00,0.0057
3424.00,0.0058
3423.00,0.0058
3422.00,0.0059
3421.00,0.0059
3420.00,0.0059
3419.00,0.0059
3418.00,0.0059
3417.00,0.0059
3416.00,0.0060
3415.00,0.0060
3414.00,0.0061
3413.00,0.0061
3412.00,0.0061
3411.00,0.0061
3410.00,0.0061
3409.00,0.0061
3408.00,0.0061
3407.00,0.0061
3406.00,0.0061
3405.00,0.0062
3404.00,0.0063
3403.00,0.0063
3402.00,0.0063
3401.00,0.0064
3400.00,0.0064
3399.00,0.0064
3398.00,0.0064
3397.00,0.0064
3396.00,0.0064
3395.00,0.0064
3394.00,0.0064
3393.00,0.0065
3392.00,0.0065
3391.00,0.0064
3390.00,0.0064
3389.00,0.0064
3388.00,0.0064
3387.00,0.0064
3386.00,0.0065
3385.00,0.0065
3384.00,0.0065
3383.00,0.0066
3382.00,0.0066
3381.00,0.0066
3380.00,0.0065
3379.00,0.0065
3378.00,0.0065
3377.00,0.0065
3376.00,0.0065
3375.00,0.0065
3374.00,0.0066
3373.00,0.0066
3372.00,0.0067
3371.00,0.0067
3370.00,0.0067
3369.00,0.0067
3368.00,0.0068
3367.00,0.0068
3366.00,0.0068
3365.00,0.0068
3364.00,0.0068
3363.00,0.0067
3362.00,0.0067
3361.00,0.0067
3360.00,0.0067
3359.00,0.0068
3358.00,0.0068
3357.00,0.0069
3356.00,0.0069
3355.00,0.0069
3354.00,0.0069
3353.00,0.0069
3352.00,0.0069
3351.00,0.0069
3350.00,0.0069
3349.00,0.0069
3348.00,0.0069
3347.00,0.0070
3346.00,0.0070
3345.00,0.0070
3344.00,0.0070
3343.00,0.0070
3342.00,0.0070
3341.00,0.0070
3340.00,0.0070
3339.00,0.0070
3338.00,0.0070
3337.00,0.0070
3336.00,0.0070
3335.00,0.0069
3334.00,0.0069
3333.00,0.0069
3332.00,0.0068
3331.00,0.0068
3330.00,0.0068
3329.00,0.0069
3328.00,0.0069
3327.00,0.0069
3326.00,0.0069
3325.00,0.0069
3324.00,0.0069
3323.00,0.0070
3322.00,0.0069
3321.00,0.0069
3320.00,0.0069
3319.00,0.0069
3318.00,0.0069
3317.00,0.0069
3316.00,0.0069
3315.00,0.0069
3314.00,0.0069
3313.00,0.0069
3312.00,0.0070
3311.00,0.0070
3310.00,0.0070
3309.00,0.0070
3308.00,0.0070
3307.00,0.0070
3306.00,0.0070
3305.00,0.0070
3304.00,0.0069
3303.00,0.0069
3302.00,0.0069
3301.00,0.0069
3300.00,0.0069
3299.00,0.0069
3298.00,0.0069
3297.00,0.0069
3296.00,0.0068
3295.00,0.0068
3294.00,0.0068
3293.00,0.0067
3292.00,0.0067
3291.00,0.0067
3290.00,0.0067
3289.00,0.0067
3288.00,0.0067
3287.00,0.0066
3286.00,0.0066
3285.00,0.0065
3284.00,0.0064
3283.00,0.0064
3282.00,0.0064
3281.00,0.0065
3280.00,0.0065
3279.00,0.0065
3278.00,0.0064
3277.00,0.0064
3276.00,0.0063
3275.00,0.0063
3274.00,0.0063
3273.00,0.0063
3272.00,0.0062
3271.00,0.0062
3270.00,0.0062
3269.00,0.0062
3268.00,0.0062
3267.00,0.0062
3266.00,0.0062
3265.00,0.0061
3264.00,0.0061
3263.00,0.0060
3262.00,0.0059
3261.00,0.0059
3260.00,0.0059
3259.00,0.0059
3258.00,0.0059
3257.00,0.0059
3256.00,0.0059
3255.00,0.0059
3254.00,0.0058
3253.00,0.0058
3252.00,0.0058
3251.00,0.0057
3250.00,0.0057
3249.00,0.0057
3248.00,0.0057
3247.00,0.0056
3246.00,0.0056
3245.00,0.0056
3244.00,0.0056
3243.00,0.0056
3242.00,0.0055
3241.00,0.0055
3240.00,0.0055
3239.00,0.0055
3238.00,0.0055
3237.00,0.0055
3236.00,0.0055
3235.00,0.0055
3234.00,0.0055
3233.00,0.0055
3232.00,0.0055
3231.00,0.0055
3230.00,0.0056
3229.00,0.0056
3228.00,0.0056
3227.00,0.0056
3226.00,0.0056
3225.00,0.0056
3224.00,0.0055
3223.00,0.0055
3222.00,0.0055
3221.00,0.0055
3220.00,0.0056
3219.00,0.0056
3218.00,0.0056
3217.00,0.0057
3216.00,0.0057
3215.00,0.0057
3214.00,0.0057
3213.00,0.0057
3212.00,0.0057
3211.00,0.0058
3210.00,0.0058
3209.00,0.0058
3208.00,0.0057
3207.00,0.0057
3206.00,0.0057
3205.00,0.0057
3204.00,0.0057
3203.00,0.0057
3202.00,0.0058
3201.00,0.0058
3200.00,0.0058
3199.00,0.0057
3198.00,0.0057
3197.00,0.0057
3196.00,0.0057
3195.00,0.0057
3194.00,0.0057
3193.00,0.0057
3192.00,0.0057
3191.00,0.0056
3190.00,0.0056
3189.00,0.0056
3188.00,0.0056
3187.00,0.0056
3186.00,0.0055
3185.00,0.0055
3184.00,0.0055
3183.00,0.0055
3182.00,0.0055
3181.00,0.0055
3180.00,0.0055
3179.00,0.0055
3178.00,0.0054
3177.00,0.0054
3176.00,0.0054
3175.00,0.0053
3174.00,0.0053
3173.00,0.0053
3172.00,0.0052
3171.00,0.0052
3170.00,0.0051
3169.00,0.0051
3168.00,0.0051
3167.00,0.0050
3166.00,0.0051
3165.00,0.0051
3164.00,0.0051
3163.00,0.0052
3162.00,0.0052
3161.00,0.0051
3160.00,0.0051
3159.00,0.0051
3158.00,0.0051
3157.00,0.0051
3156.00,0.0051
3155.00,0.0050
3154.00,0.0050
3153.00,0.0051
3152.00,0.0051
3151.00,0.0051
3150.00,0.0051
3149.00,0.0050
3148.00,0.0050
3147.00,0.0050
3146.00,0.0049
3145.00,0.0049
3144.00,0.0048
3143.00,0.0048
3142.00,0.0048
3141.00,0.0048
3140.00,0.0048
3139.00,0.0048
3138.00,0.0048
3137.00,0.0048
3136.00,0.0048
3135.00,0.0047
3134.00,0.0047
3133.00,0.0046
3132.00,0.0046
3131.00,0.0045
3130.00,0.0045
3129.00,0.0044
3128.00,0.0044
3127.00,0.0044
3126.00,0.0044
3125.00,0.0044
3124.00,0.0044
3123.00,0.0044
3122.00,0.0044
3121.00,0.0044
3120.00,0.0044
3119.00,0.0043
3118.00,0.0043
3117.00,0.0043
3116.00,0.0042
3115.00,0.0042
3114.00,0.0042
3113.00,0.0041
3112.00,0.0041
3111.00,0.0041
3110.00,0.0041
3109.00,0.0041
3108.00,0.0041
3107.00,0.0041
3106.00,0.0041
3105.00,0.0041
3104.00,0.0041
3103.00,0.0040
3102.00,0.0040
3101.00,0.0040
3100.00,0.0039
3099.00,0.0039
3098.00,0.0039
3097.00,0.0039
3096.00,0.0040
3095.00,0.0040
3094.00,0.0040
3093.00,0.0040
3092.00,0.0040
3091.00,0.0039
3090.00,0.0039
3089.00,0.0039
3088.00,0.0039
3087.00,0.0039
3086.00,0.0039
3085.00,0.0039
3084.00,0.0039
3083.00,0.0039
3082.00,0.0038
3081.00,0.0038
3080.00,0.0038
3079.00,0.0038
3078.00,0.0039
3077.00,0.0039
3076.00,0.0039
3075.00,0.0040
3074.00,0.0040
3073.00,0.0040
3072.00,0.0040
3071.00,0.0040
3070.00,0.0040
3069.00,0.0040
3068.00,0.0040
3067.00,0.0040
3066.00,0.0041
3065.00,0.0041
3064.00,0.0041
3063.00,0.0041
3062.00,0.0041
3061.00,0.0041
3060.00,0.0041
3059.00,0.0041
3058.00,0.0041
3057.00,0.0040
3056.00,0.0040
3055.00,0.0040
3054.00,0.0040
3053.00,0.0041
3052.00,0.0041
3051.00,0.0042
3050.00,0.0042
3049.00,0.0042
3048.00,0.0042
3047.00,0.0042
3046.00,0.0043
3045.00,0.0043
3044.00,0.0043
3043.00,0.0043
3042.00,0.0043
3041.00,0.0044
3040.00,0.0044
3039.00,0.0045
3038.00,0.0045
3037.00,0.0045
3036.00,0.0045
3035.00,0.0045
3034.00,0.0045
3033.00,0.0046
3032.00,0.0046
3031.00,0.0046
3030.00,0.0047
3029.00,0.0047
3028.00,0.0048
3027.00,0.0048
3026.00,0.0049
3025.00,0.0049
3024.00,0.0050
3023.00,0.0050
3022.00,0.0050
3021.00,0.0050
3020.00,0.0051
3019.00,0.0051
3018.00,0.0051
3017.00,0.0052
3016.00,0.0052
3015.00,0.0051
3014.00,0.0051
3013.00,0.0051
3012.00,0.0051
3011.00,0.0050
3010.00,0.0050
3009.00,0.0049
3008.00,0.0049
3007.00,0.0049
3006.00,0.0048
3005.00,0.0047
3004.00,0.0047
3003.00,0.0046
3002.00,0.0046
3001.00,0.0046
3000.00,0.0046
2999.00,0.0047
2998.00,0.0048
2997.00,0.0050
2996.00,0.0052
2995.00,0.0054
2994.00,0.0057
2993.00,0.0061
2992.00,0.0065
2991.00,0.0069
2990.00,0.0075
2989.00,0.0080
2988.00,0.0086
2987.00,0.0092
2986.00,0.0097
2985.00,0.0102
2984.00,0.0106
2983.00,0.0112
2982.00,0.0123
2981.00,0.0139
2980.00,0.0161
2979.00,0.0187
2978.00,0.0217
2977.00,0.0249
2976.00,0.0283
2975.00,0.0321
2974.00,0.0363
2973.00,0.0411
2972.00,0.0465
2971.00,0.0528
2970.00,0.0600
2969.00,0.0679
2968.00,0.0765
2967.00,0.0858
2966.00,0.0955
2965.00,0.1055
2964.00,0.1155
2963.00,0.1250
2962.00,0.1334
2961.00,0.1404
2960.00,0.1460
2959.00,0.1501
2958.00,0.1534
2957.00,0.1563
2956.00,0.1595
2955.00,0.1634
2954.00,0.1679
2953.00,0.1726
2952.00,0.1767
2951.00,0.1791
2950.00,0.1789
2949.00,0.1754
2948.00,0.1687
2947.00,0.1592
2946.00,0.1482
2945.00,0.1368
2944.00,0.1261
2943.00,0.1170
2942.00,0.1100
2941.00,0.1053
2940.00,0.1028
2939.00,0.1023
2938.00,0.1036
2937.00,0.1065
2936.00,0.1109
2935.00,0.1166
2934.00,0.1235
2933.00,0.1316
2932.00,0.1407
2931.00,0.1506
2930.00,0.1610
2929.00,0.1717
2928.00,0.1822
2927.00,0.1925
2926.00,0.2025
2925.00,0.2120
2924.00,0.2212
2923.00,0.2302
2922.00,0.2388
2921.00,0.2468
2920.00,0.2537
2919.00,0.2585
2918.00,0.2606
2917.00,0.2593
2916.00,0.2546
2915.00,0.2471
2914.00,0.2378
2913.00,0.2280
2912.00,0.2185
2911.00,0.2099
2910.00,0.2024
2909.00,0.1958
2908.00,0.1898
2907.00,0.1841
2906.00,0.1783
2905.00,0.1724
2904.00,0.1662
2903.00,0.1599
2902.00,0.1535
2901.00,0.1472
2900.00,0.1411
2899.00,0.1352
2898.00,0.1296
2897.00,0.1245
2896.00,0.1198
2895.00,0.1157
2894.00,0.1121
2893.00,0.1091
2892.00,0.1066
2891.00,0.1047
2890.00,0.1033
2889.00,0.1023
2888.00,0.1017
2887.00,0.1014
2886.00,0.1014
2885.00,0.1018
2884.00,0.1026
2883.00,0.1037
2882.00,0.1053
2881.00,0.1072
2880.00,0.1090
2879.00,0.1105
2878.00,0.1114
2877.00,0.1115
2876.00,0.1112
2875.00,0.1106
2874.00,0.1102
2873.00,0.1103
2872.00,0.1111
2871.00,0.1125
2870.00,0.1142
2869.00,0.1158
2868.00,0.1167
2867.00,0.1162
2866.00,0.1139
2865.00,0.1098
2864.00,0.1041
2863.00,0.0977
2862.00,0.0915
2861.00,0.0861
2860.00,0.0820
2859.00,0.0794
2858.00,0.0781
2857.00,0.0780
2856.00,0.0787
2855.00,0.0801
2854.00,0.0820
2853.00,0.0841
2852.00,0.0864
2851.00,0.0883
2850.00,0.0897
2849.00,0.0905
2848.00,0.0911
2847.00,0.0920
2846.00,0.0936
2845.00,0.0963
2844.00,0.1001
2843.00,0.1047
2842.00,0.1096
2841.00,0.1142
2840.00,0.1177
2839.00,0.1193
2838.00,0.1185
2837.00,0.1148
2836.00,0.1084
2835.00,0.0997
2834.00,0.0898
2833.00,0.0795
2832.00,0.0698
2831.00,0.0612
2830.00,0.0539
2829.00,0.0478
2828.00,0.0430
2827.00,0.0390
2826.00,0.0357
2825.00,0.0331
2824.00,0.0308
2823.00,0.0289
2822.00,0.0273
2821.00,0.0259
2820.00,0.0246
2819.00,0.0235
2818.00,0.0225
2817.00,0.0216
2816.00,0.0208
2815.00,0.0202
2814.00,0.0196
2813.00,0.0190
2812.00,0.0185
2811.00,0.0180
2810.00,0.0175
2809.00,0.0170
2808.00,0.0164
2807.00,0.0158
2806.00,0.0152
2805.00,0.0145
2804.00,0.0139
2803.00,0.0134
2802.00,0.0129
2801.00,0.0125
2800.00,0.0121
2799.00,0.0118
2798.00,0.0116
2797.00,0.0113
2796.00,0.0111
2795.00,0.0108
2794.00,0.0106
2793.00,0.0103
2792.00,0.0100
2791.00,0.0097
2790.00,0.0094
2789.00,0.0090
2788.00,0.0087
2787.00,0.0084
2786.00,0.0081
2785.00,0.0079
2784.00,0.0077
2783.00,0.0074
2782.00,0.0072
2781.00,0.0071
2780.00,0.0069
2779.00,0.0068
2778.00,0.0067
2777.00,0.0065
2776.00,0.0064
2775.00,0.0063
2774.00,0.0061
2773.00,0.0061
2772.00,0.0060
2771.00,0.0060
2770.00,0.0059
2769.00,0.0059
2768.00,0.0059
2767.00,0.0058
2766.00,0.0058
2765.00,0.0057
2764.00,0.0057
2763.00,0.0057
2762.00,0.0056
2761.00,0.0056
2760.00,0.0055
2759.00,0.0055
2758.00,0.0055
2757.00,0.0054
2756.00,0.0055
2755.00,0.0055
2754.00,0.0055
2753.00,0.0055
2752.00,0.0055
2751.00,0.0055
2750.00,0.0055
2749.00,0.0055
2748.00,0.0055
2747.00,0.0055
2746.00,0.0055
2745.00,0.0055
2744.00,0.0055
2743.00,0.0056
2742.00,0.0057
2741.00,0.0058
2740.00,0.0059
2739.00,0.0060
2738.00,0.0061
2737.00,0.0063
2736.00,0.0064
2735.00,0.0066
2734.00,0.0067
2733.00,0.0068
2732.00,0.0070
2731.00,0.0071
2730.00,0.0073
2729.00,0.0076
2728.00,0.0078
2727.00,0.0081
2726.00,0.0084
2725.00,0.0086
2724.00,0.0087
2723.00,0.0087
2722.00,0.0086
2721.00,0.0084
2720.00,0.0082
2719.00,0.0079
2718.00,0.0076
2717.00,0.0074
2716.00,0.0071
2715.00,0.0068
2714.00,0.0066
2713.00,0.0064
2712.00,0.0062
2711.00,0.0060
2710.00,0.0059
2709.00,0.0058
2708.00,0.0057
2707.00,0.0056
2706.00,0.0055
2705.00,0.0054
2704.00,0.0053
2703.00,0.0052
2702.00,0.0051
2701.00,0.0050
2700.00,0.0049
2699.00,0.0049
2698.00,0.0048
2697.00,0.0048
2696.00,0.0048
2695.00,0.0048
2694.00,0.0048
2693.00,0.0048
2692.00,0.0048
2691.00,0.0048
2690.00,0.0048
2689.00,0.0048
2688.00,0.0047
2687.00,0.0047
2686.00,0.0047
2685.00,0.0047
2684.00,0.0047
2683.00,0.0048
2682.00,0.0048
2681.00,0.0048
2680.00,0.0048
2679.00,0.0048
2678.00,0.0048
2677.00,0.0048
2676.00,0.0048
2675.00,0.0048
2674.00,0.0047
2673.00,0.0047
2672.00,0.0047
2671.00,0.0047
2670.00,0.0046
2669.00,0.0046
2668.00,0.0047
2667.00,0.0047
2666.00,0.0048
2665.00,0.0048
2664.00,0.0048
2663.00,0.0049
2662.00,0.0049
2661.00,0.0049
2660.00,0.0049
2659.00,0.0049
2658.00,0.0049
2657.00,0.0049
2656.00,0.0049
2655.00,0.0048
2654.00,0.0048
2653.00,0.0047
2652.00,0.0047
2651.00,0.0046
2650.00,0.0046
2649.00,0.0045
2648.00,0.0045
2647.00,0.0044
2646.00,0.0044
2645.00,0.0044
2644.00,0.0044
2643.00,0.0044
2642.00,0.0043
2641.00,0.0043
2640.00,0.0042
2639.00,0.0041
2638.00,0.0041
2637.00,0.0041
2636.00,0.0041
2635.00,0.0041
2634.00,0.0040
2633.00,0.0040
2632.00,0.0039
2631.00,0.0039
2630.00,0.0039
2629.00,0.0040
2628.00,0.0040
2627.00,0.0041
2626.00,0.0041
2625.00,0.0041
2624.00,0.0041
2623.00,0.0041
2622.00,0.0042
2621.00,0.0042
2620.00,0.0042
2619.00,0.0043
2618.00,0.0043
2617.00,0.0043
2616.00,0.0043
2615.00,0.0042
2614.00,0.0042
2613.00,0.0042
2612.00,0.0042
2611.00,0.0041
2610.00,0.0041
2609.00,0.0040
2608.00,0.0039
2607.00,0.0038
2606.00,0.0037
2605.00,0.0036
2604.00,0.0036
2603.00,0.0036
2602.00,0.0035
2601.00,0.0035
2600.00,0.0035
2599.00,0.0035
2598.00,0.0034
2597.00,0.0034
2596.00,0.0034
2595.00,0.0034
2594.00,0.0034
2593.00,0.0035
2592.00,0.0036
2591.00,0.0036
2590.00,0.0037
2589.00,0.0038
2588.00,0.0038
2587.00,0.0038
2586.00,0.0039
2585.00,0.0039
2584.00,0.0040
2583.00,0.0040
2582.00,0.0039
2581.00,0.0039
2580.00,0.0038
2579.00,0.0037
2578.00,0.0037
2577.00,0.0036
2576.00,0.0035
2575.00,0.0034
2574.00,0.0034
2573.00,0.0033
2572.00,0.0032
2571.00,0.0031
2570.00,0.0030
2569.00,0.0029
2568.00,0.0028
2567.00,0.0027
2566.00,0.0027
2565.00,0.0026
2564.00,0.0026
2563.00,0.0025
2562.00,0.0025
2561.00,0.0025
2560.00,0.0025
2559.00,0.0025
2558.00,0.0025
2557.00,0.0025
2556.00,0.0025
2555.00,0.0024
2554.00,0.0024
2553.00,0.0023
2552.00,0.0023
2551.00,0.0023
2550.00,0.0023
2549.00,0.0023
2548.00,0.0023
2547.00,0.0022
2546.00,0.0021
2545.00,0.0021
2544.00,0.0021
2543.00,0.0021
2542.00,0.0021
2541.00,0.0020
2540.00,0.0020
2539.00,0.0021
2538.00,0.0021
2537.00,0.0021
2536.00,0.0020
2535.00,0.0020
2534.00,0.0019
2533.00,0.0019
2532.00,0.0018
2531.00,0.0018
2530.00,0.0018
2529.00,0.0018
2528.00,0.0017
2527.00,0.0017
2526.00,0.0016
2525.00,0.0016
2524.00,0.0016
2523.00,0.0016
2522.00,0.0016
2521.00,0.0016
2520.00,0.0016
2519.00,0.0016
2518.00,0.0016
2517.00,0.0015
2516.00,0.0015
2515.00,0.0014
2514.00,0.0014
2513.00,0.0014
2512.00,0.0014
2511.00,0.0014
2510.00,0.0014
2509.00,0.0014
2508.00,0.0014
2507.00,0.0014
2506.00,0.0013
2505.00,0.0013
2504.00,0.0013
2503.00,0.0014
2502.00,0.0014
2501.00,0.0014
2500.00,0.0014
2499.00,0.0013
2498.00,0.0013
2497.00,0.0013
2496.00,0.0013
2495.00,0.0013
2494.00,0.0013
2493.00,0.0013
2492.00,0.0013
2491.00,0.0013
2490.00,0.0013
2489.00,0.0013
2488.00,0.0013
2487.00,0.0012
2486.00,0.0012
2485.00,0.0011
2484.00,0.0011
2483.00,0.0011
2482.00,0.0011
2481.00,0.0011
2480.00,0.0011
2479.00,0.0011
2478.00,0.0012
2477.00,0.0012
2476.00,0.0012
2475.00,0.0012
2474.00,0.0012
2473.00,0.0012
2472.00,0.0012
2471.00,0.0012
2470.00,0.0012
2469.00,0.0012
2468.00,0.0012
2467.00,0.0012
2466.00,0.0011
2465.00,0.0011
2464.00,0.0011
2463.00,0.0011
2462.00,0.0011
2461.00,0.0012
2460.00,0.0012
2459.00,0.0013
2458.00,0.0014
2457.00,0.0014
2456.00,0.0015
2455.00,0.0015
2454.00,0.0015
2453.00,0.0015
2452.00,0.0014
2451.00,0.0014
2450.00,0.0013
2449.00,0.0012
2448.00,0.0012
2447.00,0.0012
2446.00,0.0012
2445.00,0.0012
2444.00,0.0012
2443.00,0.0013
2442.00,0.0013
2441.00,0.0014
2440.00,0.0014
2439.00,0.0014
2438.00,0.0014
2437.00,0.0013
2436.00,0.0014
2435.00,0.0014
2434.00,0.0014
2433.00,0.0014
2432.00,0.0013
2431.00,0.0013
2430.00,0.0013
2429.00,0.0013
2428.00,0.0013
2427.00,0.0013
2426.00,0.0013
2425.00,0.0012
2424.00,0.0012
2423.00,0.0012
2422.00,0.0012
2421.00,0.0012
2420.00,0.0011
2419.00,0.0011
2418.00,0.0011
2417.00,0.0011
2416.00,0.0012
2415.00,0.0012
2414.00,0.0013
2413.00,0.0013
2412.00,0.0014
2411.00,0.0014
2410.00,0.0014
2409.00,0.0014
2408.00,0.0013
2407.00,0.0013
2406.00,0.0012
2405.00,0.0011
2404.00,0.0010
2403.00,0.0010
2402.00,0.0009
2401.00,0.0010
2400.00,0.0010
2399.00,0.0010
2398.00,0.0011
2397.00,0.0011
2396.00,0.0011
2395.00,0.0011
2394.00,0.0011
2393.00,0.0011
2392.00,0.0011
2391.00,0.0011
2390.00,0.0011
2389.00,0.0011
2388.00,0.0011
2387.00,0.0011
2386.00,0.0010
2385.00,0.0009
2384.00,0.0008
2383.00,0.0007
2382.00,0.0006
2381.00,0.0005
2380.00,0.0004
2379.00,0.0004
2378.00,0.0003
2377.00,0.0003
2376.00,0.0003
2375.00,0.0003
2374.00,0.0004
2373.00,0.0005
2372.00,0.0006
2371.00,0.0006
2370.00,0.0006
2369.00,0.0006
2368.00,0.0005
2367.00,0.0005
2366.00,0.0004
2365.00,0.0004
2364.00,0.0004
2363.00,0.0004
2362.00,0.0005
2361.00,0.0006
2360.00,0.0007
2359.00,0.0007
2358.00,0.0007
2357.00,0.0006
2356.00,0.0006
2355.00,0.0006
2354.00,0.0006
2353.00,0.0006
2352.00,0.0006
2351.00,0.0006
2350.00,0.0006
2349.00,0.0006
2348.00,0.0006
2347.00,0.0006
2346.00,0.0006
2345.00,0.0007
2344.00,0.0007
2343.00,0.0008
2342.00,0.0009
2341.00,0.0009
2340.00,0.0009
2339.00,0.0009
2338.00,0.0009
2337.00,0.0009
2336.00,0.0009
2335.00,0.0009
2334.00,0.0008
2333.00,0.0008
2332.00,0.0008
2331.00,0.0008
2330.00,0.0008
2329.00,0.0009
2328.00,0.0010
2327.00,0.0013
2326.00,0.0016
2325.00,0.0020
2324.00,0.0021
2323.00,0.0021
2322.00,0.0019
2321.00,0.0018
2320.00,0.0016
2319.00,0.0016
2318.00,0.0015
2317.00,0.0014
2316.00,0.0013
2315.00,0.0012
2314.00,0.0011
2313.00,0.0011
2312.00,0.0011
2311.00,0.0011
2310.00,0.0010
2309.00,0.0010
2308.00,0.0010
2307.00,0.0011
2306.00,0.0011
2305.00,0.0011
2304.00,0.0012
2303.00,0.0012
2302.00,0.0013
2301.00,0.0013
2300.00,0.0013
2299.00,0.0014
2298.00,0.0015
2297.00,0.0016
2296.00,0.0017
2295.00,0.0018
2294.00,0.0018
2293.00,0.0018
2292.00,0.0018
2291.00,0.0018
2290.00,0.0018
2289.00,0.0019
2288.00,0.0019
2287.00,0.0019
2286.00,0.0019
2285.00,0.0018
2284.00,0.0018
2283.00,0.0018
2282.00,0.0018
2281.00,0.0019
2280.00,0.0018
2279.00,0.0018
2278.00,0.0018
2277.00,0.0017
2276.00,0.0017
2275.00,0.0017
2274.00,0.0017
2273.00,0.0017
2272.00,0.0017
2271.00,0.0017
2270.00,0.0017
2269.00,0.0017
2268.00,0.0017
2267.00,0.0017
2266.00,0.0016
2265.00,0.0015
2264.00,0.0014
2263.00,0.0013
2262.00,0.0012
2261.00,0.0011
2260.00,0.0012
2259.00,0.0013
2258.00,0.0014
2257.00,0.0014
2256.00,0.0013
2255.00,0.0011
2254.00,0.0011
2253.00,0.0011
2252.00,0.0012
2251.00,0.0012
2250.00,0.0011
2249.00,0.0010
2248.00,0.0010
2247.00,0.0010
2246.00,0.0010
2245.00,0.0009
2244.00,0.0008
2243.00,0.0007
2242.00,0.0007
2241.00,0.0008
2240.00,0.0010
2239.00,0.0010
2238.00,0.0010
2237.00,0.0010
2236.00,0.0009
2235.00,0.0008
2234.00,0.0006
2233.00,0.0005
2232.00,0.0005
2231.00,0.0006
2230.00,0.0008
2229.00,0.0010
2228.00,0.0012
2227.00,0.0011
2226.00,0.0010
2225.00,0.0009
2224.00,0.0009
2223.00,0.0009
2222.00,0.0011
2221.00,0.0011
2220.00,0.0011
2219.00,0.0010
2218.00,0.0009
2217.00,0.0008
2216.00,0.0008
2215.00,0.0008
2214.00,0.0009
2213.00,0.0010
2212.00,0.0009
2211.00,0.0009
2210.00,0.0009
2209.00,0.0010
2208.00,0.0011
2207.00,0.0010
2206.00,0.0009
2205.00,0.0007
2204.00,0.0006
2203.00,0.0006
2202.00,0.0006
2201.00,0.0006
2200.00,0.0006
2199.00,0.0005
2198.00,0.0006
2197.00,0.0007
2196.00,0.0009
2195.00,0.0011
2194.00,0.0011
2193.00,0.0011
2192.00,0.0011
2191.00,0.0012
2190.00,0.0013
2189.00,0.0013
2188.00,0.0014
2187.00,0.0015
2186.00,0.0016
2185.00,0.0015
2184.00,0.0013
2183.00,0.0011
2182.00,0.0009
2181.00,0.0007
2180.00,0.0006
2179.00,0.0004
2178.00,0.0003
2177.00,0.0002
2176.00,0.0002
2175.00,0.0002
2174.00,0.0004
2173.00,0.0005
2172.00,0.0007
2171.00,0.0010
2170.00,0.0012
2169.00,0.0015
2168.00,0.0016
2167.00,0.0015
2166.00,0.0012
2165.00,0.0010
2164.00,0.0011
2163.00,0.0012
2162.00,0.0014
2161.00,0.0012
2160.00,0.0005
2159.00,-0.0005
2158.00,-0.0013
2157.00,-0.0018
2156.00,-0.0019
2155.00,-0.0019
2154.00,-0.0018
2153.00,-0.0016
2152.00,-0.0013
2151.00,-0.0013
2150.00,-0.0012
2149.00,-0.0012
2148.00,-0.0011
2147.00,-0.0011
2146.00,-0.0012
2145.00,-0.0014
2144.00,-0.0014
2143.00,-0.0014
2142.00,-0.0011
2141.00,-0.0009
2140.00,-0.0008
2139.00,-0.0008
2138.00,-0.0009
2137.00,-0.0009
2136.00,-0.0009
2135.00,-0.0009
2134.00,-0.0010
2133.00,-0.0011
2132.00,-0.0010
2131.00,-0.0009
2130.00,-0.0008
2129.00,-0.0007
2128.00,-0.0005
2127.00,-0.0005
2126.00,-0.0004
2125.00,-0.0004
2124.00,-0.0004
2123.00,-0.0003
2122.00,-0.0003
2121.00,-0.0003
2120.00,-0.0003
2119.00,-0.0002
2118.00,-0.0001
2117.00,-0.0000
2116.00,0.0000
2115.00,0.0000
2114.00,0.0000
2113.00,0.0001
2112.00,0.0003
2111.00,0.0005
2110.00,0.0006
2109.00,0.0007
2108.00,0.0006
2107.00,0.0006
2106.00,0.0005
2105.00,0.0004
2104.00,0.0004
2103.00,0.0004
2102.00,0.0004
2101.00,0.0005
2100.00,0.0005
2099.00,0.0005
2098.00,0.0004
2097.00,0.0003
2096.00,0.0002
2095.00,-0.0000
2094.00,-0.0002
2093.00,-0.0003
2092.00,-0.0002
2091.00,-0.0001
2090.00,0.0000
2089.00,0.0002
2088.00,0.0003
2087.00,0.0005
2086.00,0.0007
2085.00,0.0007
2084.00,0.0007
2083.00,0.0006
2082.00,0.0006
2081.00,0.0006
2080.00,0.0007
2079.00,0.0007
2078.00,0.0007
2077.00,0.0005
2076.00,0.0004
2075.00,0.0004
2074.00,0.0005
2073.00,0.0006
2072.00,0.0006
2071.00,0.0006
2070.00,0.0005
2069.00,0.0005
2068.00,0.0004
2067.00,0.0003
2066.00,0.0002
2065.00,0.0001
2064.00,-0.0000
2063.00,-0.0000
2062.00,0.0001
2061.00,0.0003
2060.00,0.0004
2059.00,0.0004
2058.00,0.0003
2057.00,0.0002
2056.00,0.0002
2055.00,0.0003
2054.00,0.0005
2053.00,0.0009
2052.00,0.0015
2051.00,0.0019
2050.00,0.0020
2049.00,0.0019
2048.00,0.0016
2047.00,0.0011
2046.00,0.0007
2045.00,0.0004
2044.00,0.0004
2043.00,0.0005
2042.00,0.0007
2041.00,0.0009
2040.00,0.0010
2039.00,0.0010
2038.00,0.0007
2037.00,0.0004
2036.00,0.0001
2035.00,-0.0002
2034.00,-0.0005
2033.00,-0.0006
2032.00,-0.0005
2031.00,-0.0004
2030.00,-0.0003
2029.00,-0.0002
2028.00,-0.0004
2027.00,-0.0006
2026.00,-0.0008
2025.00,-0.0009
2024.00,-0.0008
2023.00,-0.0006
2022.00,-0.0006
2021.00,-0.0007
2020.00,-0.0008
2019.00,-0.0009
2018.00,-0.0008
2017.00,-0.0008
2016.00,-0.0008
2015.00,-0.0011
2014.00,-0.0013
2013.00,-0.0012
2012.00,-0.0009
2011.00,-0.0006
2010.00,-0.0003
2009.00,-0.0002
2008.00,-0.0003
2007.00,-0.0006
2006.00,-0.0010
2005.00,-0.0012
2004.00,-0.0014
2003.00,-0.0014
2002.00,-0.0013
2001.00,-0.0012
2000.00,-0.0010
1999.00,-0.0007
1998.00,-0.0005
1997.00,-0.0005
1996.00,-0.0006
1995.00,-0.0008
1994.00,-0.0010
1993.00,-0.0009
1992.00,-0.0008
1991.00,-0.0008
1990.00,-0.0008
1989.00,-0.0008
1988.00,-0.0008
1987.00,-0.0006
1986.00,-0.0004
1985.00,-0.0002
1984.00,0.0000
1983.00,0.0002
1982.00,0.0005
1981.00,0.0010
1980.00,0.0013
1979.00,0.0010
1978.00,0.0003
1977.00,-0.0004
1976.00,-0.0008
1975.00,-0.0008
1974.00,-0.0008
1973.00,-0.0008
1972.00,-0.0010
1971.00,-0.0013
1970.00,-0.0015
1969.00,-0.0017
1968.00,-0.0017
1967.00,-0.0015
1966.00,-0.0012
1965.00,-0.0009
1964.00,-0.0007
1963.00,-0.0008
1962.00,-0.0009
1961.00,-0.0011
1960.00,-0.0013
1959.00,-0.0015
1958.00,-0.0016
1957.00,-0.0015
1956.00,-0.0013
1955.00,-0.0012
1954.00,-0.0012
1953.00,-0.0013
1952.00,-0.0013
1951.00,-0.0013
1950.00,-0.0013
1949.00,-0.0013
1948.00,-0.0014
1947.00,-0.0015
1946.00,-0.0015
1945.00,-0.0013
1944.00,-0.0011
1943.00,-0.0009
1942.00,-0.0008
1941.00,-0.0008
1940.00,-0.0007
1939.00,-0.0008
1938.00,-0.0008
1937.00,-0.0009
1936.00,-0.0010
1935.00,-0.0009
1934.00,-0.0008
1933.00,-0.0006
1932.00,-0.0005
1931.00,-0.0005
1930.00,-0.0006
1929.00,-0.0006
1928.00,-0.0006
1927.00,-0.0006
1926.00,-0.0007
1925.00,-0.0006
1924.00,-0.0005
1923.00,-0.0002
1922.00,-0.0001
1921.00,0.0000
1920.00,-0.0001
1919.00,-0.0002
1918.00,-0.0003
1917.00,-0.0003
1916.00,-0.0002
1915.00,-0.0001
1914.00,0.0000
1913.00,0.0001
1912.00,0.0001
1911.00,0.0002
1910.00,0.0001
1909.00,0.0000
1908.00,-0.0001
1907.00,-0.0001
1906.00,-0.0001
1905.00,-0.0001
1904.00,-0.0001
1903.00,-0.0001
1902.00,-0.0001
1901.00,-0.0000
1900.00,0.0000
1899.00,0.0000
1898.00,0.0000
1897.00,0.0000
1896.00,0.0000
1895.00,0.0000
1894.00,0.0000
1893.00,-0.0000
1892.00,0.0000
1891.00,0.0000
1890.00,0.0000
1889.00,0.0001
1888.00,0.0001
1887.00,0.0001
1886.00,0.0001
1885.00,0.0001
1884.00,0.0001
1883.00,0.0001
1882.00,0.0002
1881.00,0.0002
1880.00,0.0002
1879.00,0.0002
1878.00,0.0001
1877.00,0.0002
1876.00,0.0002
1875.00,0.0001
1874.00,0.0001
1873.00,0.0000
1872.00,0.0000
1871.00,0.0001
1870.00,0.0001
1869.00,0.0002
1868.00,0.0003
1867.00,0.0003
1866.00,0.0003
1865.00,0.0003
1864.00,0.0003
1863.00,0.0003
1862.00,0.0003
1861.00,0.0003
1860.00,0.0004
1859.00,0.0004
1858.00,0.0003
1857.00,0.0003
1856.00,0.0003
1855.00,0.0003
1854.00,0.0003
1853.00,0.0003
1852.00,0.0003
1851.00,0.0004
1850.00,0.0004
1849.00,0.0004
1848.00,0.0004
1847.00,0.0004
1846.00,0.0004
1845.00,0.0005
1844.00,0.0005
1843.00,0.0005
1842.00,0.0005
1841.00,0.0004
1840.00,0.0004
1839.00,0.0005
1838.00,0.0005
1837.00,0.0005
1836.00,0.0005
1835.00,0.0004
1834.00,0.0004
1833.00,0.0004
1832.00,0.0005
1831.00,0.0005
1830.00,0.0006
1829.00,0.0007
1828.00,0.0007
1827.00,0.0006
1826.00,0.0006
1825.00,0.0005
1824.00,0.0005
1823.00,0.0005
1822.00,0.0005
1821.00,0.0005
1820.00,0.0004
1819.00,0.0003
1818.00,0.0002
1817.00,0.0002
1816.00,0.0002
1815.00,0.0002
1814.00,0.0003
1813.00,0.0003
1812.00,0.0004
1811.00,0.0004
1810.00,0.0004
1809.00,0.0005
1808.00,0.0006
1807.00,0.0006
1806.00,0.0006
1805.00,0.0007
1804.00,0.0007
1803.00,0.0007
1802.00,0.0007
1801.00,0.0007
1800.00,0.0007
1799.00,0.0007
1798.00,0.0007
1797.00,0.0008
1796.00,0.0009
1795.00,0.0009
1794.00,0.0008
1793.00,0.0008
1792.00,0.0008
1791.00,0.0009
1790.00,0.0009
1789.00,0.0009
1788.00,0.0009
1787.00,0.0009
1786.00,0.0009
1785.00,0.0010
1784.00,0.0010
1783.00,0.0010
1782.00,0.0010
1781.00,0.0010
1780.00,0.0010
1779.00,0.0010
1778.00,0.0010
1777.00,0.0010
1776.00,0.0010
1775.00,0.0010
1774.00,0.0010
1773.00,0.0010
1772.00,0.0011
1771.00,0.0012
1770.00,0.0012
1769.00,0.0013
1768.00,0.0013
1767.00,0.0013
1766.00,0.0013
1765.00,0.0012
1764.00,0.0012
1763.00,0.0012
1762.00,0.0013
1761.00,0.0014
1760.00,0.0015
1759.00,0.0015
1758.00,0.0016
1757.00,0.0016
1756.00,0.0017
1755.00,0.0017
1754.00,0.0018
1753.00,0.0019
1752.00,0.0020
1751.00,0.0020
1750.00,0.0021
1749.00,0.0022
1748.00,0.0023
1747.00,0.0024
1746.00,0.0025
1745.00,0.0027
1744.00,0.0028
1743.00,0.0029
1742.00,0.0029
1741.00,0.0029
1740.00,0.0030
1739.00,0.0031
1738.00,0.0032
1737.00,0.0032
1736.00,0.0032
1735.00,0.0032
1734.00,0.0032
1733.00,0.0033
1732.00,0.0033
1731.00,0.0033
1730.00,0.0033
1729.00,0.0033
1728.00,0.0033
1727.00,0.0033
1726.00,0.0033
1725.00,0.0034
1724.00,0.0034
1723.00,0.0033
1722.00,0.0033
1721.00,0.0032
1720.00,0.0032
1719.00,0.0032
1718.00,0.0032
1717.00,0.0031
1716.00,0.0031
1715.00,0.0031
1714.00,0.0030
1713.00,0.0030
1712.00,0.0030
1711.00,0.0031
1710.00,0.0031
1709.00,0.0031
1708.00,0.0032
1707.00,0.0032
1706.00,0.0032
1705.00,0.0032
1704.00,0.0032
1703.00,0.0033
1702.00,0.0033
1701.00,0.0033
1700.00,0.0034
1699.00,0.0034
1698.00,0.0034
1697.00,0.0035
1696.00,0.0037
1695.00,0.0039
1694.00,0.0040
1693.00,0.0040
1692.00,0.0041
1691.00,0.0042
1690.00,0.0043
1689.00,0.0043
1688.00,0.0044
1687.00,0.0045
1686.00,0.0045
1685.00,0.0047
1684.00,0.0049
1683.00,0.0051
1682.00,0.0052
1681.00,0.0053
1680.00,0.0054
1679.00,0.0054
1678.00,0.0055
1677.00,0.0055
1676.00,0.0056
1675.00,0.0058
1674.00,0.0059
1673.00,0.0060
1672.00,0.0061
1671.00,0.0061
1670.00,0.0062
1669.00,0.0064
1668.00,0.0065
1667.00,0.0066
1666.00,0.0066
1665.00,0.0066
1664.00,0.0067
1663.00,0.0068
1662.00,0.0070
1661.00,0.0071
1660.00,0.0072
1659.00,0.0073
1658.00,0.0073
1657.00,0.0074
1656.00,0.0074
1655.00,0.0075
1654.00,0.0075
1653.00,0.0077
1652.00,0.0079
1651.00,0.0079
1650.00,0.0080
1649.00,0.0080
1648.00,0.0082
1647.00,0.0083
1646.00,0.0084
1645.00,0.0084
1644.00,0.0084
1643.00,0.0084
1642.00,0.0084
1641.00,0.0085
1640.00,0.0085
1639.00,0.0086
1638.00,0.0086
1637.00,0.0087
1636.00,0.0087
1635.00,0.0087
1634.00,0.0087
1633.00,0.0086
1632.00,0.0086
1631.00,0.0085
1630.00,0.0085
1629.00,0.0085
1628.00,0.0085
1627.00,0.0084
1626.00,0.0082
1625.00,0.0081
1624.00,0.0081
1623.00,0.0081
1622.00,0.0081
1621.00,0.0081
1620.00,0.0080
1619.00,0.0079
1618.00,0.0078
1617.00,0.0078
1616.00,0.0078
1615.00,0.0078
1614.00,0.0079
1613.00,0.0079
1612.00,0.0079
1611.00,0.0079
1610.00,0.0078
1609.00,0.0078
1608.00,0.0079
1607.00,0.0079
1606.00,0.0079
1605.00,0.0080
1604.00,0.0080
1603.00,0.0081
1602.00,0.0081
1601.00,0.0081
1600.00,0.0082
1599.00,0.0081
1598.00,0.0081
1597.00,0.0080
1596.00,0.0080
1595.00,0.0080
1594.00,0.0080
1593.00,0.0081
1592.00,0.0082
1591.00,0.0082
1590.00,0.0083
1589.00,0.0084
1588.00,0.0085
1587.00,0.0087
1586.00,0.0088
1585.00,0.0091
1584.00,0.0094
1583.00,0.0097
1582.00,0.0101
1581.00,0.0104
1580.00,0.0108
1579.00,0.0111
1578.00,0.0113
1577.00,0.0114
1576.00,0.0113
1575.00,0.0112
1574.00,0.0110
1573.00,0.0109
1572.00,0.0107
1571.00,0.0104
1570.00,0.0100
1569.00,0.0098
1568.00,0.0096
1567.00,0.0095
1566.00,0.0094
1565.00,0.0093
1564.00,0.0092
1563.00,0.0092
1562.00,0.0092
1561.00,0.0092
1560.00,0.0092
1559.00,0.0092
1558.00,0.0092
1557.00,0.0095
1556.00,0.0097
1555.00,0.0099
1554.00,0.0100
1553.00,0.0101
1552.00,0.0103
1551.00,0.0105
1550.00,0.0107
1549.00,0.0110
1548.00,0.0113
1547.00,0.0116
1546.00,0.0119
1545.00,0.0123
1544.00,0.0127
1543.00,0.0129
1542.00,0.0130
1541.00,0.0130
1540.00,0.0127
1539.00,0.0123
1538.00,0.0119
1537.00,0.0115
1536.00,0.0111
1535.00,0.0107
1534.00,0.0101
1533.00,0.0096
1532.00,0.0092
1531.00,0.0089
1530.00,0.0086
1529.00,0.0085
1528.00,0.0083
1527.00,0.0082
1526.00,0.0080
1525.00,0.0079
1524.00,0.0078
1523.00,0.0078
1522.00,0.0078
1521.00,0.0078
1520.00,0.0079
1519.00,0.0079
1518.00,0.0079
1517.00,0.0079
1516.00,0.0079
1515.00,0.0079
1514.00,0.0079
1513.00,0.0080
1512.00,0.0080
1511.00,0.0081
1510.00,0.0080
1509.00,0.0081
1508.00,0.0082
1507.00,0.0082
1506.00,0.0082
1505.00,0.0083
1504.00,0.0085
1503.00,0.0086
1502.00,0.0088
1501.00,0.0090
1500.00,0.0092
1499.00,0.0094
1498.00,0.0096
1497.00,0.0099
1496.00,0.0103
1495.00,0.0105
1494.00,0.0108
1493.00,0.0111
1492.00,0.0115
1491.00,0.0119
1490.00,0.0123
1489.00,0.0128
1488.00,0.0134
1487.00,0.0139
1486.00,0.0145
1485.00,0.0152
1484.00,0.0161
1483.00,0.0169
1482.00,0.0180
1481.00,0.0192
1480.00,0.0206
1479.00,0.0220
1478.00,0.0236
1477.00,0.0257
1476.00,0.0282
1475.00,0.0310
1474.00,0.0348
1473.00,0.0403
1472.00,0.0468
1471.00,0.0532
1470.00,0.0593
1469.00,0.0656
1468.00,0.0724
1467.00,0.0797
1466.00,0.0879
1465.00,0.0966
1464.00,0.1042
1463.00,0.1095
1462.00,0.1128
1461.00,0.1151
1460.00,0.1168
1459.00,0.1180
1458.00,0.1191
1457.00,0.1200
1456.00,0.1201
1455.00,0.1194
1454.00,0.1182
1453.00,0.1166
1452.00,0.1140
1451.00,0.1104
1450.00,0.1055
1449.00,0.0987
1448.00,0.0901
1447.00,0.0811
1446.00,0.0728
1445.00,0.0657
1444.00,0.0596
1443.00,0.0544
1442.00,0.0505
1441.00,0.0478
1440.00,0.0461
1439.00,0.0453
1438.00,0.0452
1437.00,0.0452
1436.00,0.0441
1435.00,0.0418
1434.00,0.0385
1433.00,0.0345
1432.00,0.0304
1431.00,0.0266
1430.00,0.0237
1429.00,0.0215
1428.00,0.0200
1427.00,0.0191
1426.00,0.0184
1425.00,0.0178
1424.00,0.0173
1423.00,0.0169
1422.00,0.0167
1421.00,0.0165
1420.00,0.0162
1419.00,0.0160
1418.00,0.0158
1417.00,0.0154
1416.00,0.0149
1415.00,0.0146
1414.00,0.0143
1413.00,0.0140
1412.00,0.0137
1411.00,0.0136
1410.00,0.0135
1409.00,0.0133
1408.00,0.0131
1407.00,0.0129
1406.00,0.0128
1405.00,0.0126
1404.00,0.0124
1403.00,0.0123
1402.00,0.0123
1401.00,0.0122
1400.00,0.0122
1399.00,0.0122
1398.00,0.0123
1397.00,0.0123
1396.00,0.0123
1395.00,0.0125
1394.00,0.0128
1393.00,0.0131
1392.00,0.0135
1391.00,0.0142
1390.00,0.0152
1389.00,0.0165
1388.00,0.0185
1387.00,0.0215
1386.00,0.0257
1385.00,0.0311
1384.00,0.0386
1383.00,0.0491
1382.00,0.0632
1381.00,0.0813
1380.00,0.1034
1379.00,0.1281
1378.00,0.1515
1377.00,0.1680
1376.00,0.1729
1375.00,0.1636
1374.00,0.1429
1373.00,0.1183
1372.00,0.0961
1371.00,0.0778
1370.00,0.0633
1369.00,0.0524
1368.00,0.0448
1367.00,0.0400
1366.00,0.0374
1365.00,0.0364
1364.00,0.0366
1363.00,0.0379
1362.00,0.0397
1361.00,0.0416
1360.00,0.0430
1359.00,0.0434
1358.00,0.0425
1357.00,0.0403
1356.00,0.0372
1355.00,0.0337
1354.00,0.0303
1353.00,0.0274
1352.00,0.0250
1351.00,0.0231
1350.00,0.0214
1349.00,0.0200
1348.00,0.0189
1347.00,0.0179
1346.00,0.0171
1345.00,0.0164
1344.00,0.0159
1343.00,0.0154
1342.00,0.0150
1341.00,0.0147
1340.00,0.0145
1339.00,0.0143
1338.00,0.0142
1337.00,0.0142
1336.00,0.0142
1335.00,0.0143
1334.00,0.0145
1333.00,0.0149
1332.00,0.0152
1331.00,0.0155
1330.00,0.0156
1329.00,0.0156
1328.00,0.0153
1327.00,0.0149
1326.00,0.0144
1325.00,0.0139
1324.00,0.0134
1323.00,0.0130
1322.00,0.0126
1321.00,0.0123
1320.00,0.0121
1319.00,0.0119
1318.00,0.0117
1317.00,0.0116
1316.00,0.0114
1315.00,0.0113
1314.00,0.0112
1313.00,0.0112
1312.00,0.0113
1311.00,0.0115
1310.00,0.0119
1309.00,0.0126
1308.00,0.0135
1307.00,0.0146
1306.00,0.0157
1305.00,0.0164
1304.00,0.0166
1303.00,0.0163
1302.00,0.0157
1301.00,0.0150
1300.00,0.0146
1299.00,0.0144
1298.00,0.0144
1297.00,0.0144
1296.00,0.0142
1295.00,0.0139
1294.00,0.0136
1293.00,0.0131
1292.00,0.0126
1291.00,0.0121
1290.00,0.0117
1289.00,0.0113
1288.00,0.0109
1287.00,0.0106
1286.00,0.0104
1285.00,0.0102
1284.00,0.0101
1283.00,0.0099
1282.00,0.0098
1281.00,0.0096
1280.00,0.0095
1279.00,0.0094
1278.00,0.0093
1277.00,0.0092
1276.00,0.0092
1275.00,0.0091
1274.00,0.0091
1273.00,0.0090
1272.00,0.0089
1271.00,0.0089
1270.00,0.0090
1269.00,0.0091
1268.00,0.0092
1267.00,0.0094
1266.00,0.0096
1265.00,0.0099
1264.00,0.0101
1263.00,0.0104
1262.00,0.0108
1261.00,0.0112
1260.00,0.0117
1259.00,0.0124
1258.00,0.0131
1257.00,0.0137
1256.00,0.0139
1255.00,0.0137
1254.00,0.0130
1253.00,0.0120
1252.00,0.0111
1251.00,0.0104
1250.00,0.0099
1249.00,0.0096
1248.00,0.0094
1247.00,0.0092
1246.00,0.0091
1245.00,0.0089
1244.00,0.0087
1243.00,0.0086
1242.00,0.0085
1241.00,0.0085
1240.00,0.0085
1239.00,0.0085
1238.00,0.0085
1237.00,0.0084
1236.00,0.0085
1235.00,0.0086
1234.00,0.0088
1233.00,0.0089
1232.00,0.0091
1231.00,0.0092
1230.00,0.0094
1229.00,0.0095
1228.00,0.0096
1227.00,0.0098
1226.00,0.0101
1225.00,0.0104
1224.00,0.0108
1223.00,0.0112
1222.00,0.0115
1221.00,0.0118
1220.00,0.0120
1219.00,0.0120
1218.00,0.0120
1217.00,0.0119
1216.00,0.0117
1215.00,0.0115
1214.00,0.0112
1213.00,0.0108
1212.00,0.0106
1211.00,0.0104
1210.00,0.0103
1209.00,0.0101
1208.00,0.0100
1207.00,0.0099
1206.00,0.0098
1205.00,0.0098
1204.00,0.0097
1203.00,0.0097
1202.00,0.0097
1201.00,0.0096
1200.00,0.0097
1199.00,0.0097
1198.00,0.0098
1197.00,0.0098
1196.00,0.0098
1195.00,0.0098
1194.00,0.0097
1193.00,0.0097
1192.00,0.0096
1191.00,0.0096
1190.00,0.0095
1189.00,0.0095
1188.00,0.0094
1187.00,0.0094
1186.00,0.0094
1185.00,0.0094
1184.00,0.0094
1183.00,0.0094
1182.00,0.0095
1181.00,0.0097
1180.00,0.0100
1179.00,0.0105
1178.00,0.0111
1177.00,0.0120
1176.00,0.0131
1175.00,0.0146
1174.00,0.0166
1173.00,0.0191
1172.00,0.0221
1171.00,0.0255
1170.00,0.0287
1169.00,0.0314
1168.00,0.0330
1167.00,0.0333
1166.00,0.0324
1165.00,0.0307
1164.00,0.0287
1163.00,0.0267
1162.00,0.0251
1161.00,0.0237
1160.00,0.0226
1159.00,0.0217
1158.00,0.0211
1157.00,0.0205
1156.00,0.0201
1155.00,0.0199
1154.00,0.0197
1153.00,0.0194
1152.00,0.0190
1151.00,0.0183
1150.00,0.0175
1149.00,0.0166
1148.00,0.0156
1147.00,0.0147
1146.00,0.0139
1145.00,0.0132
1144.00,0.0126
1143.00,0.0121
1142.00,0.0117
1141.00,0.0113
1140.00,0.0109
1139.00,0.0105
1138.00,0.0102
1137.00,0.0099
1136.00,0.0098
1135.00,0.0097
1134.00,0.0096
1133.00,0.0095
1132.00,0.0095
1131.00,0.0096
1130.00,0.0097
1129.00,0.0099
1128.00,0.0100
1127.00,0.0102
1126.00,0.0103
1125.00,0.0105
1124.00,0.0106
1123.00,0.0108
1122.00,0.0110
1121.00,0.0112
1120.00,0.0113
1119.00,0.0114
1118.00,0.0115
1117.00,0.0116
1116.00,0.0116
1115.00,0.0118
1114.00,0.0120
1113.00,0.0123
1112.00,0.0125
1111.00,0.0126
1110.00,0.0128
1109.00,0.0131
1108.00,0.0135
1107.00,0.0141
1106.00,0.0147
1105.00,0.0153
1104.00,0.0157
1103.00,0.0159
1102.00,0.0158
1101.00,0.0155
1100.00,0.0149
1099.00,0.0143
1098.00,0.0136
1097.00,0.0130
1096.00,0.0126
1095.00,0.0122
1094.00,0.0119
1093.00,0.0115
1092.00,0.0112
1091.00,0.0109
1090.00,0.0106
1089.00,0.0104
1088.00,0.0103
1087.00,0.0102
1086.00,0.0102
1085.00,0.0101
1084.00,0.0100
1083.00,0.0099
1082.00,0.0098
1081.00,0.0097
1080.00,0.0096
1079.00,0.0096
1078.00,0.0095
1077.00,0.0094
1076.00,0.0093
1075.00,0.0092
1074.00,0.0091
1073.00,0.0090
1072.00,0.0090
1071.00,0.0090
1070.00,0.0092
1069.00,0.0093
1068.00,0.0094
1067.00,0.0095
1066.00,0.0096
1065.00,0.0097
1064.00,0.0099
1063.00,0.0101
1062.00,0.0103
1061.00,0.0104
1060.00,0.0105
1059.00,0.0105
1058.00,0.0107
1057.00,0.0108
1056.00,0.0110
1055.00,0.0112
1054.00,0.0115
1053.00,0.0119
1052.00,0.0124
1051.00,0.0129
1050.00,0.0134
1049.00,0.0139
1048.00,0.0144
1047.00,0.0149
1046.00,0.0154
1045.00,0.0157
1044.00,0.0159
1043.00,0.0158
1042.00,0.0157
1041.00,0.0155
1040.00,0.0153
1039.00,0.0153
1038.00,0.0154
1037.00,0.0155
1036.00,0.0156
1035.00,0.0156
1034.00,0.0155
1033.00,0.0154
1032.00,0.0153
1031.00,0.0153
1030.00,0.0152
1029.00,0.0152
1028.00,0.0152
1027.00,0.0152
1026.00,0.0153
1025.00,0.0154
1024.00,0.0155
1023.00,0.0157
1022.00,0.0159
1021.00,0.0161
1020.00,0.0162
1019.00,0.0164
1018.00,0.0166
1017.00,0.0167
1016.00,0.0168
1015.00,0.0169
1014.00,0.0170
1013.00,0.0170
1012.00,0.0171
1011.00,0.0171
1010.00,0.0171
1009.00,0.0171
1008.00,0.0172
1007.00,0.0176
1006.00,0.0183
1005.00,0.0193
1004.00,0.0209
1003.00,0.0232
1002.00,0.0264
1001.00,0.0304
1000.00,0.0347
999.00,0.0384
998.00,0.0401
997.00,0.0394
996.00,0.0364
995.00,0.0321
994.00,0.0276
993.00,0.0237
992.00,0.0207
991.00,0.0185
990.00,0.0170
989.00,0.0160
988.00,0.0152
987.00,0.0147
986.00,0.0144
985.00,0.0144
984.00,0.0147
983.00,0.0153
982.00,0.0163
981.00,0.0179
980.00,0.0200
979.00,0.0228
978.00,0.0264
977.00,0.0306
976.00,0.0352
975.00,0.0397
974.00,0.0429
973.00,0.0441
972.00,0.0424
971.00,0.0383
970.00,0.0326
969.00,0.0269
968.00,0.0220
967.00,0.0184
966.00,0.0158
965.00,0.0139
964.00,0.0125
963.00,0.0115
962.00,0.0107
961.00,0.0100
960.00,0.0094
959.00,0.0088
958.00,0.0082
957.00,0.0078
956.00,0.0075
955.00,0.0073
954.00,0.0071
953.00,0.0070
952.00,0.0068
951.00,0.0068
950.00,0.0067
949.00,0.0068
948.00,0.0068
947.00,0.0069
946.00,0.0071
945.00,0.0072
944.00,0.0075
943.00,0.0078
942.00,0.0081
941.00,0.0084
940.00,0.0084
939.00,0.0084
938.00,0.0081
937.00,0.0078
936.00,0.0074
935.00,0.0070
934.00,0.0068
933.00,0.0067
932.00,0.0067
931.00,0.0068
930.00,0.0068
929.00,0.0069
928.00,0.0070
927.00,0.0071
926.00,0.0071
925.00,0.0070
924.00,0.0069
923.00,0.0068
922.00,0.0068
921.00,0.0069
920.00,0.0070
919.00,0.0072
918.00,0.0074
917.00,0.0074
916.00,0.0075
915.00,0.0075
914.00,0.0076
913.00,0.0076
912.00,0.0077
911.00,0.0079
910.00,0.0081
909.00,0.0083
908.00,0.0086
907.00,0.0090
906.00,0.0096
905.00,0.0105
904.00,0.0118
903.00,0.0135
902.00,0.0154
901.00,0.0170
900.00,0.0179
899.00,0.0179
898.00,0.0171
897.00,0.0158
896.00,0.0142
895.00,0.0128
894.00,0.0115
893.00,0.0105
892.00,0.0098
891.00,0.0093
890.00,0.0090
889.00,0.0087
888.00,0.0086
887.00,0.0085
886.00,0.0085
885.00,0.0085
884.00,0.0085
883.00,0.0085
882.00,0.0086
881.00,0.0086
880.00,0.0086
879.00,0.0086
878.00,0.0085
877.00,0.0085
876.00,0.0085
875.00,0.0087
874.00,0.0088
873.00,0.0090
872.00,0.0090
871.00,0.0090
870.00,0.0090
869.00,0.0090
868.00,0.0090
867.00,0.0090
866.00,0.0090
865.00,0.0090
864.00,0.0090
863.00,0.0091
862.00,0.0093
861.00,0.0094
860.00,0.0095
859.00,0.0096
858.00,0.0096
857.00,0.0097
856.00,0.0099
855.00,0.0102
854.00,0.0106
853.00,0.0110
852.00,0.0113
851.00,0.0117
850.00,0.0121
849.00,0.0127
848.00,0.0136
847.00,0.0150
846.00,0.0173
845.00,0.0209
844.00,0.0258
843.00,0.0316
842.00,0.0364
841.00,0.0380
840.00,0.0356
839.00,0.0303
838.00,0.0243
837.00,0.0195
836.00,0.0164
835.00,0.0145
834.00,0.0133
833.00,0.0126
832.00,0.0121
831.00,0.0119
830.00,0.0117
829.00,0.0115
828.00,0.0113
827.00,0.0110
826.00,0.0107
825.00,0.0104
824.00,0.0103
823.00,0.0104
822.00,0.0105
821.00,0.0107
820.00,0.0108
819.00,0.0110
818.00,0.0113
817.00,0.0119
816.00,0.0127
815.00,0.0138
814.00,0.0152
813.00,0.0168
812.00,0.0185
811.00,0.0200
810.00,0.0212
809.00,0.0217
808.00,0.0212
807.00,0.0201
806.00,0.0185
805.00,0.0169
804.00,0.0154
803.00,0.0142
802.00,0.0133
801.00,0.0126
800.00,0.0121
799.00,0.0116
798.00,0.0113
797.00,0.0110
796.00,0.0108
795.00,0.0107
794.00,0.0105
793.00,0.0102
792.00,0.0098
791.00,0.0094
790.00,0.0091
789.00,0.0088
788.00,0.0087
787.00,0.0085
786.00,0.0083
785.00,0.0082
784.00,0.0081
783.00,0.0080
782.00,0.0080
781.00,0.0079
780.00,0.0079
779.00,0.0077
778.00,0.0075
777.00,0.0073
776.00,0.0073
775.00,0.0074
774.00,0.0077
773.00,0.0079
772.00,0.0081
771.00,0.0080
770.00,0.0079
769.00,0.0078
768.00,0.0078
767.00,0.0078
766.00,0.0078
765.00,0.0076
764.00,0.0075
763.00,0.0076
762.00,0.0079
761.00,0.0083
760.00,0.0085
759.00,0.0086
758.00,0.0085
757.00,0.0084
756.00,0.0084
755.00,0.0085
754.00,0.0086
753.00,0.0088
752.00,0.0090
751.00,0.0092
750.00,0.0094
749.00,0.0095
748.00,0.0095
747.00,0.0095
746.00,0.0097
745.00,0.0099
744.00,0.0101
743.00,0.0102
742.00,0.0104
741.00,0.0107
740.00,0.0111
739.00,0.0116
738.00,0.0120
737.00,0.0125
736.00,0.0129
735.00,0.0133
734.00,0.0138
733.00,0.0144
732.00,0.0151
731.00,0.0158
730.00,0.0165
729.00,0.0169
728.00,0.0172
727.00,0.0173
726.00,0.0174
725.00,0.0177
724.00,0.0182
723.00,0.0188
722.00,0.0194
721.00,0.0198
720.00,0.0197
719.00,0.0190
718.00,0.0177
717.00,0.0163
716.00,0.0151
715.00,0.0142
714.00,0.0136
713.00,0.0132
712.00,0.0129
711.00,0.0127
710.00,0.0125
709.00,0.0124
708.00,0.0123
707.00,0.0122
706.00,0.0120
705.00,0.0119
704.00,0.0118
703.00,0.0117
702.00,0.0115
701.00,0.0114
700.00,0.0112
699.00,0.0111
698.00,0.0109
697.00,0.0107
696.00,0.0106
695.00,0.0105
694.00,0.0106
693.00,0.0107
692.00,0.0110
691.00,0.0113
690.00,0.0113
689.00,0.0112
688.00,0.0109
687.00,0.0107
686.00,0.0107
685.00,0.0109
684.00,0.0111
683.00,0.0111
682.00,0.0111
681.00,0.0111
680.00,0.0112
679.00,0.0112
678.00,0.0112
677.00,0.0112
676.00,0.0113
675.00,0.0114
674.00,0.0115
673.00,0.0117
672.00,0.0119
671.00,0.0121
670.00,0.0122
669.00,0.0121
668.00,0.0119
667.00,0.0119
666.00,0.0118
665.00,0.0115
664.00,0.0112
663.00,0.0110
662.00,0.0109
661.00,0.0109
660.00,0.0108
659.00,0.0107
658.00,0.0106
657.00,0.0106
656.00,0.0106
655.00,0.0106
654.00,0.0106
653.00,0.0106
652.00,0.0106
651.00,0.0105
650.00,0.0104
649.00,0.0102
648.00,0.0099
647.00,0.0098
646.00,0.0099
645.00,0.0100
644.00,0.0101
643.00,0.0102
642.00,0.0104
641.00,0.0104
640.00,0.0103
639.00,0.0100
638.00,0.0099
637.00,0.0099
636.00,0.0100
635.00,0.0103
634.00,0.0105
633.00,0.0106
632.00,0.0105
631.00,0.0104
630.00,0.0103
629.00,0.0103
628.00,0.0104
627.00,0.0106
626.00,0.0109
625.00,0.0112
624.00,0.0112
623.00,0.0112
622.00,0.0111
621.00,0.0111
620.00,0.0110
619.00,0.0110
618.00,0.0111
617.00,0.0113
616.00,0.0115
615.00,0.0114
614.00,0.0112
613.00,0.0110
612.00,0.0108
611.00,0.0107
610.00,0.0106
609.00,0.0106
608.00,0.0107
607.00,0.0109
606.00,0.0111
605.00,0.0113
604.00,0.0112
603.00,0.0109
602.00,0.0105
601.00,0.0102
600.00,0.0101
599.00,0.0101
598.00,0.0102
597.00,0.0103
596.00,0.0104
595.00,0.0107
594.00,0.0109
593.00,0.0108
592.00,0.0104
591.00,0.0099
590.00,0.0098
589.00,0.0100
588.00,0.0105
587.00,0.0110
586.00,0.0113
585.00,0.0114
584.00,0.0113
583.00,0.0111
582.00,0.0108
581.00,0.0106
580.00,0.0104
579.00,0.0104
578.00,0.0104
577.00,0.0104
576.00,0.0103
575.00,0.0103
574.00,0.0105
573.00,0.0107
572.00,0.0110
571.00,0.0112
570.00,0.0114
569.00,0.0114
568.00,0.0114
567.00,0.0112
566.00,0.0111
565.00,0.0110
564.00,0.0110
563.00,0.0110
562.00,0.0110
561.00,0.0109
560.00,0.0108
559.00,0.0105
558.00,0.0102
557.00,0.0099
556.00,0.0099
555.00,0.0100
554.00,0.0103
553.00,0.0107
552.00,0.0110
551.00,0.0112
550.00,0.0113
549.00,0.0112
548.00,0.0109
547.00,0.0108
546.00,0.0108
545.00,0.0111
544.00,0.0115
543.00,0.0120
542.00,0.0124
541.00,0.0124
540.00,0.0121
539.00,0.0119
538.00,0.0120
537.00,0.0125
536.00,0.0131
535.00,0.0138
534.00,0.0141
533.00,0.0139
532.00,0.0133
531.00,0.0125
530.00,0.0120
529.00,0.0118
528.00,0.0117
527.00,0.0118
526.00,0.0122
525.00,0.0126
524.00,0.0127
523.00,0.0124
522.00,0.0119
521.00,0.0115
520.00,0.0112
519.00,0.0109
518.00,0.0104
517.00,0.0100
516.00,0.0099
515.00,0.0101
514.00,0.0105
513.00,0.0108
512.00,0.0110
511.00,0.0110
510.00,0.0111
509.00,0.0110
508.00,0.0108
507.00,0.0106
506.00,0.0106
505.00,0.0109
504.00,0.0112
503.00,0.0115
502.00,0.0117
501.00,0.0121
500.00,0.0125
499.00,0.0128
498.00,0.0129
497.00,0.0126
496.00,0.0119
495.00,0.0111
494.00,0.0103
493.00,0.0097
492.00,0.0094
491.00,0.0095
490.00,0.0100
489.00,0.0106
488.00,0.0112
487.00,0.0115
486.00,0.0116
485.00,0.0116
484.00,0.0116
483.00,0.0115
482.00,0.0111
481.00,0.0103
480.00,0.0096
479.00,0.0097
478.00,0.0111
477.00,0.0132
476.00,0.0147
475.00,0.0151
474.00,0.0146
473.00,0.0142
472.00,0.0144
471.00,0.0149
470.00,0.0150
469.00,0.0149
468.00,0.0150
467.00,0.0159
466.00,0.0177
465.00,0.0195
464.00,0.0207
463.00,0.0209
462.00,0.0209
461.00,0.0214
460.00,0.0226
459.00,0.0236
458.00,0.0233
457.00,0.0221
456.00,0.0209
455.00,0.0200
454.00,0.0192
453.00,0.0180
452.00,0.0172
451.00,0.0171
450.00,0.0174
