Created as New Dataset,Sample 030 By Administrator Date Wednesday, September 03 2025
cm-1,A
4000.00,0.0010
3999.00,0.0010
3998.00,0.0010
3997.00,0.0010
3996.00,0.0011
3995.00,0.0011
3994.00,0.0011
3993.00,0.0011
3992.00,0.0011
3991.00,0.0011
3990.00,0.0011
3989.00,0.0011
3988.00,0.0011
3987.00,0.0011
3986.00,0.0011
3985.00,0.0010
3984.00,0.0010
3983.00,0.0010
3982.00,0.0010
3981.00,0.0009
3980.00,0.0009
3979.00,0.0009
3978.00,0.0010
3977.00,0.0010
3976.00,0.0010
3975.00,0.0011
3974.00,0.0011
3973.00,0.0010
3972.00,0.0010
3971.00,0.0010
3970.00,0.0010
3969.00,0.0010
3968.00,0.0010
3967.00,0.0010
3966.00,0.0010
3965.00,0.0010
3964.00,0.0009
3963.00,0.0009
3962.00,0.0009
3961.00,0.0009
3960.00,0.0009
3959.00,0.0009
3958.00,0.0010
3957.00,0.0010
3956.00,0.0009
3955.00,0.0009
3954.00,0.0009
3953.00,0.0009
3952.00,0.0009
3951.00,0.0009
3950.00,0.0009
3949.00,0.0010
3948.00,0.0010
3947.00,0.0010
3946.00,0.0011
3945.00,0.0011
3944.00,0.0011
3943.00,0.0010
3942.00,0.0010
3941.00,0.0009
3940.00,0.0009
3939.00,0.0009
3938.00,0.0009
3937.00,0.0010
3936.00,0.0010
3935.00,0.0010
3934.00,0.0010
3933.00,0.0011
3932.00,0.0011
3931.00,0.0011
3930.00,0.0010
3929.00,0.0010
3928.00,0.0010
3927.00,0.0010
3926.00,0.0010
3925.00,0.0010
3924.00,0.0010
3923.00,0.0009
3922.00,0.0009
3921.00,0.0009
3920.00,0.0009
3919.00,0.0009
3918.00,0.0010
3917.00,0.0010
3916.00,0.0010
3915.00,0.0009
3914.00,0.0009
3913.00,0.0009
3912.00,0.0009
3911.00,0.0009
3910.00,0.0009
3909.00,0.0009
3908.00,0.0009
3907.00,0.0009
3906.00,0.0009
3905.00,0.0009
3904.00,0.0009
3903.00,0.0009
3902.00,0.0009
3901.00,0.0009
3900.00,0.0009
3899.00,0.0009
3898.00,0.0009
3897.00,0.0009
3896.00,0.0009
3895.00,0.0009
3894.00,0.0009
3893.00,0.0009
3892.00,0.0009
3891.00,0.0009
3890.00,0.0009
3889.00,0.0009
3888.00,0.0009
3887.00,0.0009
3886.00,0.0009
3885.00,0.0009
3884.00,0.0009
3883.00,0.0009
3882.00,0.0009
3881.00,0.0009
3880.00,0.0009
3879.00,0.0009
3878.00,0.0009
3877.00,0.0008
3876.00,0.0008
3875.00,0.0008
3874.00,0.0008
3873.00,0.0008
3872.00,0.0009
3871.00,0.0009
3870.00,0.0009
3869.00,0.0009
3868.00,0.0009
3867.00,0.0009
3866.00,0.0009
3865.00,0.0009
3864.00,0.0009
3863.00,0.0009
3862.00,0.0008
3861.00,0.0008
3860.00,0.0008
3859.00,0.0008
3858.00,0.0008
3857.00,0.0008
3856.00,0.0008
3855.00,0.0008
3854.00,0.0007
3853.00,0.0007
3852.00,0.0006
3851.00,0.0006
3850.00,0.0007
3849.00,0.0007
3848.00,0.0008
3847.00,0.0008
3846.00,0.0009
3845.00,0.0009
3844.00,0.0009
3843.00,0.0009
3842.00,0.0008
3841.00,0.0008
3840.00,0.0008
3839.00,0.0007
3838.00,0.0007
3837.00,0.0007
3836.00,0.0007
3835.00,0.0007
3834.00,0.0007
3833.00,0.0007
3832.00,0.0007
3831.00,0.0008
3830.00,0.0008
3829.00,0.0008
3828.00,0.0008
3827.00,0.0008
3826.00,0.0008
3825.00,0.0008
3824.00,0.0008
3823.00,0.0008
3822.00,0.0007
3821.00,0.0007
3820.00,0.0007
3819.00,0.0007
3818.00,0.0007
3817.00,0.0007
3816.00,0.0007
3815.00,0.0008
3814.00,0.0008
3813.00,0.0008
3812.00,0.0008
3811.00,0.0008
3810.00,0.0008
3809.00,0.0008
3808.00,0.0009
3807.00,0.0009
3806.00,0.0009
3805.00,0.0009
3804.00,0.0008
3803.00,0.0008
3802.00,0.0008
3801.00,0.0008
3800.00,0.0008
3799.00,0.0008
3798.00,0.0008
3797.00,0.0009
3796.00,0.0009
3795.00,0.0009
3794.00,0.0009
3793.00,0.0009
3792.00,0.0008
3791.00,0.0008
3790.00,0.0008
3789.00,0.0007
3788.00,0.0007
3787.00,0.0007
3786.00,0.0007
3785.00,0.0008
3784.00,0.0008
3783.00,0.0008
3782.00,0.0008
3781.00,0.0008
3780.00,0.0008
3779.00,0.0009
3778.00,0.0009
3777.00,0.0009
3776.00,0.0009
3775.00,0.0009
3774.00,0.0008
3773.00,0.0008
3772.00,0.0008
3771.00,0.0009
3770.00,0.0009
3769.00,0.0009
3768.00,0.0009
3767.00,0.0009
3766.00,0.0010
3765.00,0.0010
3764.00,0.0010
3763.00,0.0010
3762.00,0.0010
3761.00,0.0010
3760.00,0.0009
3759.00,0.0009
3758.00,0.0008
3757.00,0.0008
3756.00,0.0008
3755.00,0.0008
3754.00,0.0007
3753.00,0.0007
3752.00,0.0007
3751.00,0.0007
3750.00,0.0007
3749.00,0.0007
3748.00,0.0007
3747.00,0.0007
3746.00,0.0007
3745.00,0.0007
3744.00,0.0007
3743.00,0.0008
3742.00,0.0008
3741.00,0.0007
3740.00,0.0007
3739.00,0.0006
3738.00,0.0006
3737.00,0.0006
3736.00,0.0006
3735.00,0.0007
3734.00,0.0007
3733.00,0.0007
3732.00,0.0007
3731.00,0.0007
3730.00,0.0007
3729.00,0.0008
3728.00,0.0008
3727.00,0.0008
3726.00,0.0008
3725.00,0.0008
3724.00,0.0008
3723.00,0.0008
3722.00,0.0007
3721.00,0.0007
3720.00,0.0007
3719.00,0.0007
3718.00,0.0007
3717.00,0.0008
3716.00,0.0008
3715.00,0.0007
3714.00,0.0007
3713.00,0.0007
3712.00,0.0007
3711.00,0.0006
3710.00,0.0006
3709.00,0.0006
3708.00,0.0006
3707.00,0.0007
3706.00,0.0007
3705.00,0.0007
3704.00,0.0007
3703.00,0.0007
3702.00,0.0007
3701.00,0.0007
3700.00,0.0007
3699.00,0.0006
3698.00,0.0006
3697.00,0.0006
3696.00,0.0006
3695.00,0.0006
3694.00,0.0007
3693.00,0.0007
3692.00,0.0008
3691.00,0.0008
3690.00,0.0007
3689.00,0.0006
3688.00,0.0006
3687.00,0.0006
3686.00,0.0006
3685.00,0.0006
3684.00,0.0006
3683.00,0.0005
3682.00,0.0005
3681.00,0.0005
3680.00,0.0005
3679.00,0.0005
3678.00,0.0004
3677.00,0.0004
3676.00,0.0003
3675.00,0.0003
3674.00,0.0003
3673.00,0.0002
3672.00,0.0001
3671.00,0.0000
3670.00,0.0000
3669.00,-0.0000
3668.00,-0.0001
3667.00,-0.0001
3666.00,-0.0001
3665.00,-0.0002
3664.00,-0.0002
3663.00,-0.0002
3662.00,-0.0002
3661.00,-0.0002
3660.00,-0.0002
3659.00,-0.0001
3658.00,-0.0001
3657.00,-0.0001
3656.00,-0.0002
3655.00,-0.0002
3654.00,-0.0002
3653.00,-0.0002
3652.00,-0.0002
3651.00,-0.0002
3650.00,-0.0002
3649.00,-0.0003
3648.00,-0.0002
3647.00,-0.0002
3646.00,-0.0001
3645.00,0.0000
3644.00,0.0001
3643.00,0.0001
3642.00,0.0002
3641.00,0.0002
3640.00,0.0002
3639.00,0.0003
3638.00,0.0003
3637.00,0.0004
3636.00,0.0005
3635.00,0.0005
3634.00,0.0006
3633.00,0.0006
3632.00,0.0007
3631.00,0.0007
3630.00,0.0007
3629.00,0.0007
3628.00,0.0008
3627.00,0.0008
3626.00,0.0008
3625.00,0.0008
3624.00,0.0008
3623.00,0.0009
3622.00,0.0009
3621.00,0.0010
3620.00,0.0010
3619.00,0.0010
3618.00,0.0011
3617.00,0.0011
3616.00,0.0011
3615.00,0.0012
3614.00,0.0011
3613.00,0.0011
3612.00,0.0010
3611.00,0.0010
3610.00,0.0010
3609.00,0.0010
3608.00,0.0011
3607.00,0.0011
3606.00,0.0012
3605.00,0.0012
3604.00,0.0012
3603.00,0.0012
3602.00,0.0013
3601.00,0.0013
3600.00,0.0013
3599.00,0.0013
3598.00,0.0013
3597.00,0.0013
3596.00,0.0013
3595.00,0.0013
3594.00,0.0013
3593.00,0.0013
3592.00,0.0013
3591.00,0.0014
3590.00,0.0014
3589.00,0.0014
3588.00,0.0015
3587.00,0.0015
3586.00,0.0016
3585.00,0.0016
3584.00,0.0016
3583.00,0.0016
3582.00,0.0016
3581.00,0.0016
3580.00,0.0016
3579.00,0.0017
3578.00,0.0017
3577.00,0.0017
3576.00,0.0017
3575.00,0.0018
3574.00,0.0018
3573.00,0.0018
3572.00,0.0019
3571.00,0.0019
3570.00,0.0019
3569.00,0.0019
3568.00,0.0020
3567.00,0.0020
3566.00,0.0020
3565.00,0.0020
3564.00,0.0020
3563.00,0.0021
3562.00,0.0021
3561.00,0.0021
3560.00,0.0022
3559.00,0.0022
3558.00,0.0022
3557.00,0.0022
3556.00,0.0022
3555.00,0.0022
3554.00,0.0022
3553.00,0.0022
3552.00,0.0023
3551.00,0.0023
3550.00,0.0023
3549.00,0.0023
3548.00,0.0024
3547.00,0.0024
3546.00,0.0025
3545.00,0.0025
3544.00,0.0025
3543.00,0.0025
3542.00,0.0025
3541.00,0.0025
3540.00,0.0025
3539.00,0.0025
3538.00,0.0025
3537.00,0.0025
3536.00,0.0025
3535.00,0.0025
3534.00,0.0025
3533.00,0.0026
3532.00,0.0026
3531.00,0.0027
3530.00,0.0028
3529.00,0.0028
3528.00,0.0029
3527.00,0.0029
3526.00,0.0029
3525.00,0.0030
3524.00,0.0029
3523.00,0.0029
3522.00,0.0029
3521.00,0.0029
3520.00,0.0029
3519.00,0.0028
3518.00,0.0028
3517.00,0.0029
3516.00,0.0029
3515.00,0.0029
3514.00,0.0030
3513.00,0.0030
3512.00,0.0031
3511.00,0.0031
3510.00,0.0031
3509.00,0.0031
3508.00,0.0031
3507.00,0.0031
3506.00,0.0032
3505.00,0.0032
3504.00,0.0033
3503.00,0.0033
3502.00,0.0033
3501.00,0.0034
3500.00,0.0034
3499.00,0.0034
3498.00,0.0033
3497.00,0.0033
3496.00,0.0033
3495.00,0.0033
3494.00,0.0033
3493.00,0.0033
3492.00,0.0033
3491.00,0.0034
3490.00,0.0034
3489.00,0.0035
3488.00,0.0036
3487.00,0.0036
3486.00,0.0036
3485.00,0.0036
3484.00,0.0036
3483.00,0.0036
3482.00,0.0036
3481.00,0.0036
3480.00,0.0036
3479.00,0.0037
3478.00,0.0037
3477.00,0.0037
3476.00,0.0037
3475.00,0.0037
3474.00,0.0037
3473.00,0.0037
3472.00,0.0038
3471.00,0.0038
3470.00,0.0039
3469.00,0.0039
3468.00,0.0039
3467.00,0.0039
3466.00,0.0039
3465.00,0.0039
3464.00,0.0039
3463.00,0.0040
3462.00,0.0040
3461.00,0.0040
3460.00,0.0041
3459.00,0.0040
3458.00,0.0040
3457.00,0.0040
3456.00,0.0041
3455.00,0.0041
3454.00,0.0041
3453.00,0.0042
3452.00,0.0042
3451.00,0.0043
3450.00,0.0043
3449.00,0.0043
3448.00,0.0043
3447.00,0.0043
3446.00,0.0043
3445.00,0.0043
3444.00,0.0043
3443.00,0.0044
3442.00,0.0044
3441.00,0.0044
3440.00,0.0045
3439.00,0.0046
3438.00,0.0046
3437.00,0.0046
3436.00,0.0046
3435.00,0.0046
3434.00,0.0046
3433.00,0.0046
3432.00,0.0047
3431.00,0.0047
3430.00,0.0047
3429.00,0.0047
3428.00,0.0047
3427.00,0.0047
3426.00,0.0047
3425.00,0.0047
3424.00,0.0048
3423.00,0.0048
3422.00,0.0048
3421.00,0.0048
3420.00,0.0048
3419.00,0.0049
3418.00,0.0049
3417.00,0.0049
3416.00,0.0050
3415.00,0.0050
3414.00,0.0050
3413.00,0.0051
3412.00,0.0051
3411.00,0.0051
3410.00,0.0052
3409.00,0.0052
3408.00,0.0051
3407.00,0.0051
3406.00,0.0051
3405.00,0.0051
3404.00,0.0052
3403.00,0.0052
3402.00,0.0052
3401.00,0.0053
3400.00,0.0053
3399.00,0.0052
3398.00,0.0052
3397.00,0.0052
3396.00,0.0053
3395.00,0.0053
3394.00,0.0053
3393.00,0.0053
3392.00,0.0053
3391.00,0.0052
3390.00,0.0052
3389.00,0.0052
3388.00,0.0052
3387.00,0.0053
3386.00,0.0053
3385.00,0.0054
3384.00,0.0054
3383.00,0.0055
3382.00,0.0055
3381.00,0.0054
3380.00,0.0054
3379.00,0.0054
3378.00,0.0053
3377.00,0.0054
3376.00,0.0054
3375.00,0.0054
3374.00,0.0055
3373.00,0.0056
3372.00,0.0056
3371.00,0.0056
3370.00,0.0056
3369.00,0.0056
3368.00,0.0055
3367.00,0.0055
3366.00,0.0056
3365.00,0.0056
3364.00,0.0056
3363.00,0.0056
3362.00,0.0056
3361.00,0.0056
3360.00,0.0056
3359.00,0.0056
3358.00,0.0057
3357.00,0.0057
3356.00,0.0057
3355.00,0.0057
3354.00,0.0057
3353.00,0.0057
3352.00,0.0057
3351.00,0.0057
3350.00,0.0057
3349.00,0.0058
3348.00,0.0058
3347.00,0.0058
3346.00,0.0058
3345.00,0.0058
3344.00,0.0058
3343.00,0.0058
3342.00,0.0058
3341.00,0.0058
3340.00,0.0058
3339.00,0.0058
3338.00,0.0058
3337.00,0.0058
3336.00,0.0058
3335.00,0.0058
3334.00,0.0058
3333.00,0.0058
3332.00,0.0058
3331.00,0.0058
3330.00,0.0058
3329.00,0.0058
3328.00,0.0057
3327.00,0.0057
3326.00,0.0057
3325.00,0.0057
3324.00,0.0057
3323.00,0.0057
3322.00,0.0057
3321.00,0.0057
3320.00,0.0057
3319.00,0.0057
3318.00,0.0057
3317.00,0.0058
3316.00,0.0057
3315.00,0.0057
3314.00,0.0057
3313.00,0.0058
3312.00,0.0058
3311.00,0.0058
3310.00,0.0058
3309.00,0.0057
3308.00,0.0057
3307.00,0.0058
3306.00,0.0058
3305.00,0.0058
3304.00,0.0058
3303.00,0.0058
3302.00,0.0058
3301.00,0.0057
3300.00,0.0057
3299.00,0.0057
3298.00,0.0056
3297.00,0.0056
3296.00,0.0056
3295.00,0.0056
3294.00,0.0056
3293.00,0.0056
3292.00,0.0056
3291.00,0.0056
3290.00,0.0056
3289.00,0.0056
3288.00,0.0056
3287.00,0.0055
3286.00,0.0054
3285.00,0.0054
3284.00,0.0053
3283.00,0.0053
3282.00,0.0053
3281.00,0.0053
3280.00,0.0053
3279.00,0.0053
3278.00,0.0053
3277.00,0.0053
3276.00,0.0052
3275.00,0.0052
3274.00,0.0052
3273.00,0.0052
3272.00,0.0052
3271.00,0.0052
3270.00,0.0052
3269.00,0.0051
3268.00,0.0051
3267.00,0.0051
3266.00,0.0051
3265.00,0.0051
3264.00,0.0051
3263.00,0.0050
3262.00,0.0050
3261.00,0.0049
3260.00,0.0049
3259.00,0.0049
3258.00,0.0050
3257.00,0.0049
3256.00,0.0049
3255.00,0.0049
3254.00,0.0049
3253.00,0.0048
3252.00,0.0048
3251.00,0.0048
3250.00,0.0048
3249.00,0.0048
3248.00,0.0048
3247.00,0.0047
3246.00,0.0047
3245.00,0.0047
3244.00,0.0047
3243.00,0.0046
3242.00,0.0046
3241.00,0.0046
3240.00,0.0046
3239.00,0.0046
3238.00,0.0046
3237.00,0.0047
3236.00,0.0047
3235.00,0.0047
3234.00,0.0046
3233.00,0.0046
3232.00,0.0046
3231.00,0.0046
3230.00,0.0046
3229.00,0.0047
3228.00,0.0047
3227.00,0.0048
3226.00,0.0048
3225.00,0.0048
3224.00,0.0047
3223.00,0.0047
3222.00,0.0047
3221.00,0.0047
3220.00,0.0048
3219.00,0.0048
3218.00,0.0049
3217.00,0.0049
3216.00,0.0049
3215.00,0.0049
3214.00,0.0049
3213.00,0.0049
3212.00,0.0049
3211.00,0.0049
3210.00,0.0050
3209.00,0.0050
3208.00,0.0050
3207.00,0.0050
3206.00,0.0050
3205.00,0.0050
3204.00,0.0050
3203.00,0.0050
3202.00,0.0050
3201.00,0.0050
3200.00,0.0050
3199.00,0.0050
3198.00,0.0050
3197.00,0.0050
3196.00,0.0050
3195.00,0.0050
3194.00,0.0051
3193.00,0.0051
3192.00,0.0051
3191.00,0.0050
3190.00,0.0050
3189.00,0.0049
3188.00,0.0049
3187.00,0.0049
3186.00,0.0048
3185.00,0.0048
3184.00,0.0049
3183.00,0.0049
3182.00,0.0049
3181.00,0.0048
3180.00,0.0048
3179.00,0.0048
3178.00,0.0047
3177.00,0.0047
3176.00,0.0047
3175.00,0.0047
3174.00,0.0047
3173.00,0.0047
3172.00,0.0047
3171.00,0.0046
3170.00,0.0046
3169.00,0.0045
3168.00,0.0044
3167.00,0.0044
3166.00,0.0044
3165.00,0.0045
3164.00,0.0045
3163.00,0.0046
3162.00,0.0046
3161.00,0.0046
3160.00,0.0046
3159.00,0.0045
3158.00,0.0045
3157.00,0.0045
3156.00,0.0045
3155.00,0.0045
3154.00,0.0045
3153.00,0.0044
3152.00,0.0045
3151.00,0.0045
3150.00,0.0045
3149.00,0.0044
3148.00,0.0044
3147.00,0.0044
3146.00,0.0044
3145.00,0.0044
3144.00,0.0044
3143.00,0.0044
3142.00,0.0044
3141.00,0.0043
3140.00,0.0043
3139.00,0.0043
3138.00,0.0043
3137.00,0.0043
3136.00,0.0043
3135.00,0.0043
3134.00,0.0042
3133.00,0.0042
3132.00,0.0041
3131.00,0.0041
3130.00,0.0040
3129.00,0.0040
3128.00,0.0040
3127.00,0.0040
3126.00,0.0040
3125.00,0.0040
3124.00,0.0040
3123.00,0.0040
3122.00,0.0040
3121.00,0.0040
3120.00,0.0040
3119.00,0.0039
3118.00,0.0039
3117.00,0.0039
3116.00,0.0038
3115.00,0.0038
3114.00,0.0038
3113.00,0.0038
3112.00,0.0038
3111.00,0.0038
3110.00,0.0038
3109.00,0.0038
3108.00,0.0037
3107.00,0.0037
3106.00,0.0037
3105.00,0.0037
3104.00,0.0037
3103.00,0.0036
3102.00,0.0036
3101.00,0.0036
3100.00,0.0035
3099.00,0.0035
3098.00,0.0035
3097.00,0.0036
3096.00,0.0036
3095.00,0.0036
3094.00,0.0036
3093.00,0.0036
3092.00,0.0036
3091.00,0.0036
3090.00,0.0036
3089.00,0.0035
3088.00,0.0035
3087.00,0.0035
3086.00,0.0035
3085.00,0.0035
3084.00,0.0035
3083.00,0.0035
3082.00,0.0035
3081.00,0.0035
3080.00,0.0035
3079.00,0.0035
3078.00,0.0034
3077.00,0.0034
3076.00,0.0035
3075.00,0.0035
3074.00,0.0036
3073.00,0.0036
3072.00,0.0036
3071.00,0.0036
3070.00,0.0036
3069.00,0.0036
3068.00,0.0037
3067.00,0.0037
3066.00,0.0037
3065.00,0.0037
3064.00,0.0037
3063.00,0.0037
3062.00,0.0037
3061.00,0.0037
3060.00,0.0037
3059.00,0.0037
3058.00,0.0037
3057.00,0.0037
3056.00,0.0038
3055.00,0.0038
3054.00,0.0038
3053.00,0.0038
3052.00,0.0038
3051.00,0.0038
3050.00,0.0038
3049.00,0.0038
3048.00,0.0039
3047.00,0.0039
3046.00,0.0039
3045.00,0.0039
3044.00,0.0039
3043.00,0.0039
3042.00,0.0040
3041.00,0.0040
3040.00,0.0041
3039.00,0.0042
3038.00,0.0042
3037.00,0.0043
3036.00,0.0043
3035.00,0.0043
3034.00,0.0043
3033.00,0.0043
3032.00,0.0043
3031.00,0.0043
3030.00,0.0043
3029.00,0.0043
3028.00,0.0044
3027.00,0.0044
3026.00,0.0045
3025.00,0.0045
3024.00,0.0045
3023.00,0.0045
3022.00,0.0046
3021.00,0.0046
3020.00,0.0047
3019.00,0.0048
3018.00,0.0048
3017.00,0.0048
3016.00,0.0048
3015.00,0.0048
3014.00,0.0047
3013.00,0.0047
3012.00,0.0047
3011.00,0.0047
3010.00,0.0046
3009.00,0.0046
3008.00,0.0045
3007.00,0.0044
3006.00,0.0043
3005.00,0.0043
3004.00,0.0042
3003.00,0.0041
3002.00,0.0041
3001.00,0.0041
3000.00,0.0041
2999.00,0.0042
2998.00,0.0043
2997.00,0.0045
2996.00,0.0048
2995.00,0.0050
2994.00,0.0053
2993.00,0.0056
2992.00,0.0060
2991.00,0.0064
2990.00,0.0069
2989.00,0.0075
2988.00,0.0081
2987.00,0.0087
2986.00,0.0092
2985.00,0.0097
2984.00,0.0101
2983.00,0.0107
2982.00,0.0117
2981.00,0.0134
2980.00,0.0156
2979.00,0.0183
2978.00,0.0214
2977.00,0.0247
2976.00,0.0283
2975.00,0.0322
2974.00,0.0365
2973.00,0.0414
2972.00,0.0470
2971.00,0.0535
2970.00,0.0609
2969.00,0.0692
2968.00,0.0782
2967.00,0.0879
2966.00,0.0981
2965.00,0.1087
2964.00,0.1194
2963.00,0.1298
2962.00,0.1392
2961.00,0.1473
2960.00,0.1537
2959.00,0.1585
2958.00,0.1621
2957.00,0.1649
2956.00,0.1676
2955.00,0.1705
2954.00,0.1737
2953.00,0.1770
2952.00,0.1796
2951.00,0.1806
2950.00,0.1793
2949.00,0.1750
2948.00,0.1678
2947.00,0.1582
2946.00,0.1471
2945.00,0.1358
2944.00,0.1253
2943.00,0.1163
2942.00,0.1095
2941.00,0.1048
2940.00,0.1023
2939.00,0.1019
2938.00,0.1033
2937.00,0.1063
2936.00,0.1107
2935.00,0.1164
2934.00,0.1233
2933.00,0.1313
2932.00,0.1402
2931.00,0.1498
2930.00,0.1600
2929.00,0.1703
2928.00,0.1805
2927.00,0.1905
2926.00,0.1999
2925.00,0.2089
2924.00,0.2175
2923.00,0.2258
2922.00,0.2338
2921.00,0.2412
2920.00,0.2474
2919.00,0.2518
2918.00,0.2536
2917.00,0.2523
2916.00,0.2478
2915.00,0.2408
2914.00,0.2323
2913.00,0.2232
2912.00,0.2145
2911.00,0.2066
2910.00,0.1997
2909.00,0.1937
2908.00,0.1882
2907.00,0.1829
2906.00,0.1775
2905.00,0.1718
2904.00,0.1659
2903.00,0.1598
2902.00,0.1535
2901.00,0.1473
2900.00,0.1411
2899.00,0.1352
2898.00,0.1296
2897.00,0.1244
2896.00,0.1197
2895.00,0.1155
2894.00,0.1119
2893.00,0.1088
2892.00,0.1063
2891.00,0.1043
2890.00,0.1028
2889.00,0.1017
2888.00,0.1010
2887.00,0.1006
2886.00,0.1006
2885.00,0.1008
2884.00,0.1015
2883.00,0.1026
2882.00,0.1040
2881.00,0.1057
2880.00,0.1074
2879.00,0.1087
2878.00,0.1095
2877.00,0.1096
2876.00,0.1092
2875.00,0.1086
2874.00,0.1082
2873.00,0.1083
2872.00,0.1091
2871.00,0.1104
2870.00,0.1121
2869.00,0.1135
2868.00,0.1143
2867.00,0.1137
2866.00,0.1114
2865.00,0.1073
2864.00,0.1018
2863.00,0.0956
2862.00,0.0896
2861.00,0.0844
2860.00,0.0805
2859.00,0.0781
2858.00,0.0770
2857.00,0.0771
2856.00,0.0780
2855.00,0.0795
2854.00,0.0816
2853.00,0.0838
2852.00,0.0861
2851.00,0.0881
2850.00,0.0896
2849.00,0.0905
2848.00,0.0912
2847.00,0.0921
2846.00,0.0938
2845.00,0.0965
2844.00,0.1003
2843.00,0.1050
2842.00,0.1100
2841.00,0.1147
2840.00,0.1184
2839.00,0.1202
2838.00,0.1195
2837.00,0.1158
2836.00,0.1094
2835.00,0.1007
2834.00,0.0906
2833.00,0.0802
2832.00,0.0703
2831.00,0.0616
2830.00,0.0541
2829.00,0.0480
2828.00,0.0430
2827.00,0.0390
2826.00,0.0357
2825.00,0.0330
2824.00,0.0308
2823.00,0.0288
2822.00,0.0272
2821.00,0.0257
2820.00,0.0244
2819.00,0.0233
2818.00,0.0224
2817.00,0.0215
2816.00,0.0207
2815.00,0.0200
2814.00,0.0194
2813.00,0.0189
2812.00,0.0183
2811.00,0.0178
2810.00,0.0173
2809.00,0.0168
2808.00,0.0163
2807.00,0.0157
2806.00,0.0151
2805.00,0.0145
2804.00,0.0139
2803.00,0.0133
2802.00,0.0128
2801.00,0.0123
2800.00,0.0120
2799.00,0.0117
2798.00,0.0114
2797.00,0.0112
2796.00,0.0110
2795.00,0.0108
2794.00,0.0105
2793.00,0.0103
2792.00,0.0100
2791.00,0.0096
2790.00,0.0093
2789.00,0.0089
2788.00,0.0086
2787.00,0.0083
2786.00,0.0080
2785.00,0.0077
2784.00,0.0075
2783.00,0.0073
2782.00,0.0071
2781.00,0.0069
2780.00,0.0067
2779.00,0.0066
2778.00,0.0065
2777.00,0.0063
2776.00,0.0062
2775.00,0.0061
2774.00,0.0060
2773.00,0.0059
2772.00,0.0059
2771.00,0.0058
2770.00,0.0058
2769.00,0.0057
2768.00,0.0057
2767.00,0.0056
2766.00,0.0056
2765.00,0.0056
2764.00,0.0055
2763.00,0.0055
2762.00,0.0054
2761.00,0.0054
2760.00,0.0053
2759.00,0.0053
2758.00,0.0053
2757.00,0.0053
2756.00,0.0053
2755.00,0.0054
2754.00,0.0053
2753.00,0.0053
2752.00,0.0053
2751.00,0.0053
2750.00,0.0053
2749.00,0.0053
2748.00,0.0053
2747.00,0.0053
2746.00,0.0053
2745.00,0.0054
2744.00,0.0054
2743.00,0.0055
2742.00,0.0055
2741.00,0.0056
2740.00,0.0057
2739.00,0.0058
2738.00,0.0059
2737.00,0.0061
2736.00,0.0062
2735.00,0.0064
2734.00,0.0065
2733.00,0.0066
2732.00,0.0068
2731.00,0.0069
2730.00,0.0071
2729.00,0.0074
2728.00,0.0076
2727.00,0.0079
2726.00,0.0081
2725.00,0.0083
2724.00,0.0084
2723.00,0.0085
2722.00,0.0084
2721.00,0.0082
2720.00,0.0079
2719.00,0.0077
2718.00,0.0074
2717.00,0.0072
2716.00,0.0069
2715.00,0.0067
2714.00,0.0064
2713.00,0.0063
2712.00,0.0061
2711.00,0.0059
2710.00,0.0058
2709.00,0.0056
2708.00,0.0055
2707.00,0.0054
2706.00,0.0053
2705.00,0.0052
2704.00,0.0052
2703.00,0.0051
2702.00,0.0050
2701.00,0.0049
2700.00,0.0048
2699.00,0.0047
2698.00,0.0047
2697.00,0.0047
2696.00,0.0047
2695.00,0.0047
2694.00,0.0047
2693.00,0.0047
2692.00,0.0047
2691.00,0.0047
2690.00,0.0047
2689.00,0.0047
2688.00,0.0047
2687.00,0.0047
2686.00,0.0046
2685.00,0.0047
2684.00,0.0047
2683.00,0.0047
2682.00,0.0047
2681.00,0.0047
2680.00,0.0047
2679.00,0.0047
2678.00,0.0047
2677.00,0.0047
2676.00,0.0046
2675.00,0.0046
2674.00,0.0045
2673.00,0.0045
2672.00,0.0045
2671.00,0.0044
2670.00,0.0044
2669.00,0.0044
2668.00,0.0044
2667.00,0.0045
2666.00,0.0045
2665.00,0.0046
2664.00,0.0046
2663.00,0.0047
2662.00,0.0047
2661.00,0.0047
2660.00,0.0048
2659.00,0.0048
2658.00,0.0048
2657.00,0.0048
2656.00,0.0047
2655.00,0.0047
2654.00,0.0047
2653.00,0.0046
2652.00,0.0046
2651.00,0.0045
2650.00,0.0044
2649.00,0.0044
2648.00,0.0043
2647.00,0.0043
2646.00,0.0042
2645.00,0.0042
2644.00,0.0042
2643.00,0.0042
2642.00,0.0041
2641.00,0.0041
2640.00,0.0041
2639.00,0.0040
2638.00,0.0040
2637.00,0.0040
2636.00,0.0039
2635.00,0.0039
2634.00,0.0039
2633.00,0.0038
2632.00,0.0038
2631.00,0.0038
2630.00,0.0038
2629.00,0.0038
2628.00,0.0039
2627.00,0.0039
2626.00,0.0039
2625.00,0.0040
2624.00,0.0040
2623.00,0.0040
2622.00,0.0041
2621.00,0.0041
2620.00,0.0041
2619.00,0.0042
2618.00,0.0042
2617.00,0.0041
2616.00,0.0041
2615.00,0.0040
2614.00,0.0040
2613.00,0.0040
2612.00,0.0040
2611.00,0.0039
2610.00,0.0038
2609.00,0.0037
2608.00,0.0037
2607.00,0.0036
2606.00,0.0035
2605.00,0.0034
2604.00,0.0034
2603.00,0.0033
2602.00,0.0033
2601.00,0.0033
2600.00,0.0033
2599.00,0.0033
2598.00,0.0033
2597.00,0.0033
2596.00,0.0032
2595.00,0.0032
2594.00,0.0032
2593.00,0.0033
2592.00,0.0034
2591.00,0.0035
2590.00,0.0035
2589.00,0.0036
2588.00,0.0036
2587.00,0.0037
2586.00,0.0037
2585.00,0.0038
2584.00,0.0038
2583.00,0.0039
2582.00,0.0038
2581.00,0.0038
2580.00,0.0037
2579.00,0.0036
2578.00,0.0036
2577.00,0.0035
2576.00,0.0034
2575.00,0.0033
2574.00,0.0032
2573.00,0.0030
2572.00,0.0029
2571.00,0.0029
2570.00,0.0028
2569.00,0.0028
2568.00,0.0027
2567.00,0.0026
2566.00,0.0026
2565.00,0.0026
2564.00,0.0026
2563.00,0.0025
2562.00,0.0025
2561.00,0.0024
2560.00,0.0024
2559.00,0.0024
2558.00,0.0024
2557.00,0.0024
2556.00,0.0024
2555.00,0.0023
2554.00,0.0022
2553.00,0.0021
2552.00,0.0020
2551.00,0.0020
2550.00,0.0020
2549.00,0.0020
2548.00,0.0020
2547.00,0.0020
2546.00,0.0020
2545.00,0.0020
2544.00,0.0020
2543.00,0.0020
2542.00,0.0020
2541.00,0.0020
2540.00,0.0020
2539.00,0.0020
2538.00,0.0020
2537.00,0.0019
2536.00,0.0019
2535.00,0.0019
2534.00,0.0018
2533.00,0.0018
2532.00,0.0018
2531.00,0.0017
2530.00,0.0017
2529.00,0.0017
2528.00,0.0016
2527.00,0.0015
2526.00,0.0015
2525.00,0.0015
2524.00,0.0015
2523.00,0.0015
2522.00,0.0015
2521.00,0.0015
2520.00,0.0015
2519.00,0.0015
2518.00,0.0014
2517.00,0.0014
2516.00,0.0014
2515.00,0.0014
2514.00,0.0014
2513.00,0.0014
2512.00,0.0013
2511.00,0.0013
2510.00,0.0012
2509.00,0.0012
2508.00,0.0012
2507.00,0.0013
2506.00,0.0012
2505.00,0.0012
2504.00,0.0012
2503.00,0.0012
2502.00,0.0012
2501.00,0.0012
2500.00,0.0011
2499.00,0.0011
2498.00,0.0011
2497.00,0.0012
2496.00,0.0012
2495.00,0.0012
2494.00,0.0012
2493.00,0.0012
2492.00,0.0012
2491.00,0.0012
2490.00,0.0012
2489.00,0.0012
2488.00,0.0012
2487.00,0.0012
2486.00,0.0012
2485.00,0.0011
2484.00,0.0011
2483.00,0.0011
2482.00,0.0010
2481.00,0.0010
2480.00,0.0010
2479.00,0.0010
2478.00,0.0010
2477.00,0.0010
2476.00,0.0010
2475.00,0.0011
2474.00,0.0011
2473.00,0.0011
2472.00,0.0011
2471.00,0.0011
2470.00,0.0011
2469.00,0.0011
2468.00,0.0011
2467.00,0.0010
2466.00,0.0010
2465.00,0.0010
2464.00,0.0011
2463.00,0.0011
2462.00,0.0011
2461.00,0.0012
2460.00,0.0012
2459.00,0.0013
2458.00,0.0013
2457.00,0.0013
2456.00,0.0013
2455.00,0.0012
2454.00,0.0013
2453.00,0.0013
2452.00,0.0013
2451.00,0.0012
2450.00,0.0012
2449.00,0.0011
2448.00,0.0011
2447.00,0.0012
2446.00,0.0012
2445.00,0.0012
2444.00,0.0012
2443.00,0.0013
2442.00,0.0013
2441.00,0.0013
2440.00,0.0013
2439.00,0.0013
2438.00,0.0012
2437.00,0.0012
2436.00,0.0012
2435.00,0.0012
2434.00,0.0013
2433.00,0.0013
2432.00,0.0013
2431.00,0.0013
2430.00,0.0013
2429.00,0.0013
2428.00,0.0014
2427.00,0.0014
2426.00,0.0013
2425.00,0.0013
2424.00,0.0012
2423.00,0.0012
2422.00,0.0012
2421.00,0.0012
2420.00,0.0011
2419.00,0.0011
2418.00,0.0010
2417.00,0.0009
2416.00,0.0010
2415.00,0.0010
2414.00,0.0011
2413.00,0.0012
2412.00,0.0012
2411.00,0.0012
2410.00,0.0012
2409.00,0.0012
2408.00,0.0011
2407.00,0.0011
2406.00,0.0010
2405.00,0.0010
2404.00,0.0010
2403.00,0.0010
2402.00,0.0009
2401.00,0.0009
2400.00,0.0009
2399.00,0.0009
2398.00,0.0010
2397.00,0.0010
2396.00,0.0010
2395.00,0.0010
2394.00,0.0010
2393.00,0.0010
2392.00,0.0010
2391.00,0.0011
2390.00,0.0011
2389.00,0.0011
2388.00,0.0011
2387.00,0.0011
2386.00,0.0010
2385.00,0.0009
2384.00,0.0008
2383.00,0.0008
2382.00,0.0007
2381.00,0.0006
2380.00,0.0005
2379.00,0.0004
2378.00,0.0003
2377.00,0.0003
2376.00,0.0003
2375.00,0.0003
2374.00,0.0003
2373.00,0.0004
2372.00,0.0004
2371.00,0.0004
2370.00,0.0004
2369.00,0.0004
2368.00,0.0004
2367.00,0.0003
2366.00,0.0002
2365.00,0.0002
2364.00,0.0003
2363.00,0.0003
2362.00,0.0004
2361.00,0.0004
2360.00,0.0003
2359.00,0.0003
2358.00,0.0003
2357.00,0.0004
2356.00,0.0004
2355.00,0.0004
2354.00,0.0004
2353.00,0.0003
2352.00,0.0003
2351.00,0.0004
2350.00,0.0004
2349.00,0.0005
2348.00,0.0005
2347.00,0.0005
2346.00,0.0005
2345.00,0.0005
2344.00,0.0006
2343.00,0.0007
2342.00,0.0007
2341.00,0.0007
2340.00,0.0007
2339.00,0.0007
2338.00,0.0007
2337.00,0.0008
2336.00,0.0007
2335.00,0.0007
2334.00,0.0007
2333.00,0.0007
2332.00,0.0006
2331.00,0.0006
2330.00,0.0007
2329.00,0.0008
2328.00,0.0010
2327.00,0.0013
2326.00,0.0017
2325.00,0.0020
2324.00,0.0022
2323.00,0.0021
2322.00,0.0019
2321.00,0.0018
2320.00,0.0017
2319.00,0.0016
2318.00,0.0015
2317.00,0.0014
2316.00,0.0013
2315.00,0.0012
2314.00,0.0012
2313.00,0.0012
2312.00,0.0012
2311.00,0.0012
2310.00,0.0012
2309.00,0.0011
2308.00,0.0012
2307.00,0.0012
2306.00,0.0012
2305.00,0.0013
2304.00,0.0013
2303.00,0.0013
2302.00,0.0013
2301.00,0.0013
2300.00,0.0013
2299.00,0.0013
2298.00,0.0014
2297.00,0.0014
2296.00,0.0016
2295.00,0.0017
2294.00,0.0017
2293.00,0.0017
2292.00,0.0017
2291.00,0.0017
2290.00,0.0017
2289.00,0.0018
2288.00,0.0018
2287.00,0.0019
2286.00,0.0020
2285.00,0.0020
2284.00,0.0020
2283.00,0.0019
2282.00,0.0018
2281.00,0.0017
2280.00,0.0017
2279.00,0.0016
2278.00,0.0016
2277.00,0.0016
2276.00,0.0015
2275.00,0.0015
2274.00,0.0014
2273.00,0.0014
2272.00,0.0013
2271.00,0.0014
2270.00,0.0015
2269.00,0.0015
2268.00,0.0016
2267.00,0.0016
2266.00,0.0015
2265.00,0.0014
2264.00,0.0013
2263.00,0.0012
2262.00,0.0012
2261.00,0.0012
2260.00,0.0012
2259.00,0.0013
2258.00,0.0013
2257.00,0.0013
2256.00,0.0012
2255.00,0.0010
2254.00,0.0010
2253.00,0.0011
2252.00,0.0012
2251.00,0.0013
2250.00,0.0012
2249.00,0.0010
2248.00,0.0009
2247.00,0.0010
2246.00,0.0010
2245.00,0.0011
2244.00,0.0011
2243.00,0.0011
2242.00,0.0011
2241.00,0.0011
2240.00,0.0011
2239.00,0.0011
2238.00,0.0009
2237.00,0.0008
2236.00,0.0006
2235.00,0.0005
2234.00,0.0004
2233.00,0.0004
2232.00,0.0005
2231.00,0.0006
2230.00,0.0007
2229.00,0.0007
2228.00,0.0008
2227.00,0.0007
2226.00,0.0007
2225.00,0.0006
2224.00,0.0005
2223.00,0.0005
2222.00,0.0005
2221.00,0.0006
2220.00,0.0008
2219.00,0.0009
2218.00,0.0009
2217.00,0.0009
2216.00,0.0009
2215.00,0.0010
2214.00,0.0010
2213.00,0.0011
2212.00,0.0011
2211.00,0.0010
2210.00,0.0010
2209.00,0.0009
2208.00,0.0009
2207.00,0.0007
2206.00,0.0006
2205.00,0.0005
2204.00,0.0005
2203.00,0.0005
2202.00,0.0006
2201.00,0.0007
2200.00,0.0008
2199.00,0.0007
2198.00,0.0007
2197.00,0.0008
2196.00,0.0009
2195.00,0.0009
2194.00,0.0010
2193.00,0.0010
2192.00,0.0010
2191.00,0.0010
2190.00,0.0010
2189.00,0.0011
2188.00,0.0012
2187.00,0.0013
2186.00,0.0014
2185.00,0.0013
2184.00,0.0012
2183.00,0.0009
2182.00,0.0008
2181.00,0.0007
2180.00,0.0008
2179.00,0.0009
2178.00,0.0009
2177.00,0.0009
2176.00,0.0008
2175.00,0.0005
2174.00,0.0004
2173.00,0.0004
2172.00,0.0006
2171.00,0.0008
2170.00,0.0009
2169.00,0.0010
2168.00,0.0010
2167.00,0.0009
2166.00,0.0008
2165.00,0.0008
2164.00,0.0011
2163.00,0.0015
2162.00,0.0017
2161.00,0.0013
2160.00,0.0003
2159.00,-0.0011
2158.00,-0.0022
2157.00,-0.0026
2156.00,-0.0025
2155.00,-0.0022
2154.00,-0.0019
2153.00,-0.0016
2152.00,-0.0013
2151.00,-0.0010
2150.00,-0.0008
2149.00,-0.0006
2148.00,-0.0007
2147.00,-0.0009
2146.00,-0.0013
2145.00,-0.0016
2144.00,-0.0018
2143.00,-0.0018
2142.00,-0.0016
2141.00,-0.0012
2140.00,-0.0010
2139.00,-0.0008
2138.00,-0.0009
2137.00,-0.0010
2136.00,-0.0012
2135.00,-0.0013
2134.00,-0.0014
2133.00,-0.0013
2132.00,-0.0011
2131.00,-0.0008
2130.00,-0.0007
2129.00,-0.0005
2128.00,-0.0005
2127.00,-0.0005
2126.00,-0.0005
2125.00,-0.0005
2124.00,-0.0004
2123.00,-0.0004
2122.00,-0.0003
2121.00,-0.0003
2120.00,-0.0002
2119.00,-0.0001
2118.00,0.0001
2117.00,0.0003
2116.00,0.0004
2115.00,0.0004
2114.00,0.0004
2113.00,0.0003
2112.00,0.0002
2111.00,0.0003
2110.00,0.0003
2109.00,0.0004
2108.00,0.0004
2107.00,0.0004
2106.00,0.0004
2105.00,0.0004
2104.00,0.0004
2103.00,0.0005
2102.00,0.0004
2101.00,0.0004
2100.00,0.0004
2099.00,0.0004
2098.00,0.0005
2097.00,0.0005
2096.00,0.0003
2095.00,0.0001
2094.00,-0.0001
2093.00,-0.0002
2092.00,-0.0002
2091.00,-0.0002
2090.00,-0.0002
2089.00,-0.0000
2088.00,0.0002
2087.00,0.0004
2086.00,0.0006
2085.00,0.0006
2084.00,0.0006
2083.00,0.0005
2082.00,0.0004
2081.00,0.0004
2080.00,0.0004
2079.00,0.0005
2078.00,0.0005
2077.00,0.0004
2076.00,0.0005
2075.00,0.0005
2074.00,0.0005
2073.00,0.0004
2072.00,0.0004
2071.00,0.0004
2070.00,0.0004
2069.00,0.0004
2068.00,0.0004
2067.00,0.0003
2066.00,0.0003
2065.00,0.0002
2064.00,0.0002
2063.00,0.0002
2062.00,0.0002
2061.00,0.0002
2060.00,0.0002
2059.00,0.0002
2058.00,0.0002
2057.00,0.0002
2056.00,0.0002
2055.00,0.0001
2054.00,0.0002
2053.00,0.0005
2052.00,0.0009
2051.00,0.0013
2050.00,0.0015
2049.00,0.0013
2048.00,0.0011
2047.00,0.0007
2046.00,0.0004
2045.00,0.0001
2044.00,0.0000
2043.00,0.0002
2042.00,0.0005
2041.00,0.0006
2040.00,0.0005
2039.00,0.0003
2038.00,0.0001
2037.00,-0.0000
2036.00,-0.0001
2035.00,-0.0001
2034.00,-0.0002
2033.00,-0.0004
2032.00,-0.0005
2031.00,-0.0006
2030.00,-0.0007
2029.00,-0.0007
2028.00,-0.0008
2027.00,-0.0011
2026.00,-0.0013
2025.00,-0.0013
2024.00,-0.0013
2023.00,-0.0012
2022.00,-0.0011
2021.00,-0.0009
2020.00,-0.0008
2019.00,-0.0007
2018.00,-0.0006
2017.00,-0.0007
2016.00,-0.0009
2015.00,-0.0012
2014.00,-0.0014
2013.00,-0.0013
2012.00,-0.0010
2011.00,-0.0008
2010.00,-0.0008
2009.00,-0.0008
2008.00,-0.0009
2007.00,-0.0011
2006.00,-0.0012
2005.00,-0.0013
2004.00,-0.0012
2003.00,-0.0011
2002.00,-0.0011
2001.00,-0.0010
2000.00,-0.0010
1999.00,-0.0009
1998.00,-0.0009
1997.00,-0.0010
1996.00,-0.0012
1995.00,-0.0013
1994.00,-0.0012
1993.00,-0.0010
1992.00,-0.0007
1991.00,-0.0005
1990.00,-0.0004
1989.00,-0.0004
1988.00,-0.0005
1987.00,-0.0004
1986.00,-0.0002
1985.00,0.0001
1984.00,0.0004
1983.00,0.0006
1982.00,0.0008
1981.00,0.0010
1980.00,0.0009
1979.00,0.0005
1978.00,-0.0003
1977.00,-0.0011
1976.00,-0.0016
1975.00,-0.0018
1974.00,-0.0018
1973.00,-0.0016
1972.00,-0.0013
1971.00,-0.0011
1970.00,-0.0011
1969.00,-0.0012
1968.00,-0.0013
1967.00,-0.0014
1966.00,-0.0013
1965.00,-0.0011
1964.00,-0.0009
1963.00,-0.0008
1962.00,-0.0008
1961.00,-0.0009
1960.00,-0.0013
1959.00,-0.0018
1958.00,-0.0020
1957.00,-0.0019
1956.00,-0.0016
1955.00,-0.0013
1954.00,-0.0012
1953.00,-0.0012
1952.00,-0.0013
1951.00,-0.0013
1950.00,-0.0013
1949.00,-0.0013
1948.00,-0.0014
1947.00,-0.0015
1946.00,-0.0016
1945.00,-0.0016
1944.00,-0.0014
1943.00,-0.0013
1942.00,-0.0011
1941.00,-0.0010
1940.00,-0.0009
1939.00,-0.0009
1938.00,-0.0009
1937.00,-0.0009
1936.00,-0.0010
1935.00,-0.0010
1934.00,-0.0010
1933.00,-0.0008
1932.00,-0.0006
1931.00,-0.0005
1930.00,-0.0004
1929.00,-0.0004
1928.00,-0.0005
1927.00,-0.0007
1926.00,-0.0009
1925.00,-0.0009
1924.00,-0.0007
1923.00,-0.0005
1922.00,-0.0003
1921.00,-0.0001
1920.00,-0.0001
1919.00,-0.0001
1918.00,-0.0002
1917.00,-0.0002
1916.00,-0.0001
1915.00,-0.0001
1914.00,-0.0001
1913.00,-0.0001
1912.00,-0.0000
1911.00,0.0000
1910.00,0.0000
1909.00,0.0000
1908.00,-0.0000
1907.00,-0.0001
1906.00,-0.0001
1905.00,-0.0000
1904.00,0.0000
1903.00,0.0000
1902.00,-0.0000
1901.00,-0.0001
1900.00,-0.0001
1899.00,-0.0002
1898.00,-0.0002
1897.00,-0.0002
1896.00,-0.0002
1895.00,-0.0001
1894.00,-0.0001
1893.00,-0.0001
1892.00,-0.0001
1891.00,-0.0001
1890.00,-0.0001
1889.00,-0.0001
1888.00,-0.0000
1887.00,0.0000
1886.00,0.0000
1885.00,0.0000
1884.00,0.0001
1883.00,0.0001
1882.00,0.0001
1881.00,0.0001
1880.00,0.0002
1879.00,0.0002
1878.00,0.0001
1877.00,0.0001
1876.00,0.0001
1875.00,0.0001
1874.00,0.0000
1873.00,0.0000
1872.00,-0.0000
1871.00,-0.0001
1870.00,-0.0001
1869.00,0.0001
1868.00,0.0002
1867.00,0.0002
1866.00,0.0002
1865.00,0.0002
1864.00,0.0002
1863.00,0.0002
1862.00,0.0002
1861.00,0.0002
1860.00,0.0002
1859.00,0.0002
1858.00,0.0002
1857.00,0.0002
1856.00,0.0002
1855.00,0.0002
1854.00,0.0003
1853.00,0.0003
1852.00,0.0003
1851.00,0.0002
1850.00,0.0002
1849.00,0.0001
1848.00,0.0002
1847.00,0.0002
1846.00,0.0003
1845.00,0.0003
1844.00,0.0003
1843.00,0.0003
1842.00,0.0003
1841.00,0.0003
1840.00,0.0004
1839.00,0.0004
1838.00,0.0004
1837.00,0.0004
1836.00,0.0004
1835.00,0.0004
1834.00,0.0004
1833.00,0.0004
1832.00,0.0004
1831.00,0.0004
1830.00,0.0004
1829.00,0.0005
1828.00,0.0006
1827.00,0.0005
1826.00,0.0005
1825.00,0.0004
1824.00,0.0003
1823.00,0.0003
1822.00,0.0003
1821.00,0.0003
1820.00,0.0003
1819.00,0.0002
1818.00,0.0001
1817.00,0.0001
1816.00,0.0001
1815.00,0.0001
1814.00,0.0001
1813.00,0.0002
1812.00,0.0004
1811.00,0.0004
1810.00,0.0005
1809.00,0.0006
1808.00,0.0006
1807.00,0.0006
1806.00,0.0006
1805.00,0.0006
1804.00,0.0007
1803.00,0.0007
1802.00,0.0007
1801.00,0.0007
1800.00,0.0007
1799.00,0.0007
1798.00,0.0008
1797.00,0.0008
1796.00,0.0009
1795.00,0.0009
1794.00,0.0009
1793.00,0.0009
1792.00,0.0010
1791.00,0.0010
1790.00,0.0009
1789.00,0.0009
1788.00,0.0008
1787.00,0.0008
1786.00,0.0008
1785.00,0.0008
1784.00,0.0009
1783.00,0.0009
1782.00,0.0009
1781.00,0.0009
1780.00,0.0009
1779.00,0.0009
1778.00,0.0009
1777.00,0.0009
1776.00,0.0009
1775.00,0.0009
1774.00,0.0009
1773.00,0.0009
1772.00,0.0010
1771.00,0.0010
1770.00,0.0010
1769.00,0.0011
1768.00,0.0011
1767.00,0.0011
1766.00,0.0011
1765.00,0.0011
1764.00,0.0011
1763.00,0.0012
1762.00,0.0012
1761.00,0.0013
1760.00,0.0014
1759.00,0.0015
1758.00,0.0015
1757.00,0.0016
1756.00,0.0016
1755.00,0.0016
1754.00,0.0017
1753.00,0.0018
1752.00,0.0019
1751.00,0.0020
1750.00,0.0021
1749.00,0.0022
1748.00,0.0022
1747.00,0.0023
1746.00,0.0025
1745.00,0.0026
1744.00,0.0027
1743.00,0.0028
1742.00,0.0028
1741.00,0.0028
1740.00,0.0028
1739.00,0.0029
1738.00,0.0029
1737.00,0.0029
1736.00,0.0029
1735.00,0.0029
1734.00,0.0029
1733.00,0.0029
1732.00,0.0029
1731.00,0.0028
1730.00,0.0028
1729.00,0.0028
1728.00,0.0029
1727.00,0.0029
1726.00,0.0029
1725.00,0.0030
1724.00,0.0030
1723.00,0.0029
1722.00,0.0029
1721.00,0.0029
1720.00,0.0029
1719.00,0.0030
1718.00,0.0029
1717.00,0.0029
1716.00,0.0028
1715.00,0.0028
1714.00,0.0027
1713.00,0.0027
1712.00,0.0027
1711.00,0.0028
1710.00,0.0028
1709.00,0.0028
1708.00,0.0028
1707.00,0.0028
1706.00,0.0028
1705.00,0.0029
1704.00,0.0029
1703.00,0.0030
1702.00,0.0030
1701.00,0.0031
1700.00,0.0031
1699.00,0.0032
1698.00,0.0032
1697.00,0.0033
1696.00,0.0035
1695.00,0.0036
1694.00,0.0036
1693.00,0.0037
1692.00,0.0038
1691.00,0.0039
1690.00,0.0040
1689.00,0.0041
1688.00,0.0042
1687.00,0.0043
1686.00,0.0043
1685.00,0.0045
1684.00,0.0046
1683.00,0.0046
1682.00,0.0047
1681.00,0.0048
1680.00,0.0049
1679.00,0.0050
1678.00,0.0050
1677.00,0.0051
1676.00,0.0052
1675.00,0.0053
1674.00,0.0055
1673.00,0.0055
1672.00,0.0056
1671.00,0.0057
1670.00,0.0057
1669.00,0.0058
1668.00,0.0060
1667.00,0.0060
1666.00,0.0061
1665.00,0.0061
1664.00,0.0062
1663.00,0.0062
1662.00,0.0063
1661.00,0.0064
1660.00,0.0066
1659.00,0.0066
1658.00,0.0067
1657.00,0.0067
1656.00,0.0067
1655.00,0.0068
1654.00,0.0069
1653.00,0.0070
1652.00,0.0072
1651.00,0.0073
1650.00,0.0073
1649.00,0.0073
1648.00,0.0075
1647.00,0.0076
1646.00,0.0076
1645.00,0.0077
1644.00,0.0077
1643.00,0.0077
1642.00,0.0077
1641.00,0.0078
1640.00,0.0079
1639.00,0.0079
1638.00,0.0080
1637.00,0.0081
1636.00,0.0081
1635.00,0.0081
1634.00,0.0080
1633.00,0.0080
1632.00,0.0080
1631.00,0.0079
1630.00,0.0079
1629.00,0.0079
1628.00,0.0078
1627.00,0.0077
1626.00,0.0076
1625.00,0.0075
1624.00,0.0075
1623.00,0.0074
1622.00,0.0074
1621.00,0.0074
1620.00,0.0073
1619.00,0.0073
1618.00,0.0072
1617.00,0.0072
1616.00,0.0072
1615.00,0.0073
1614.00,0.0073
1613.00,0.0073
1612.00,0.0073
1611.00,0.0073
1610.00,0.0073
1609.00,0.0073
1608.00,0.0073
1607.00,0.0073
1606.00,0.0073
1605.00,0.0074
1604.00,0.0074
1603.00,0.0074
1602.00,0.0074
1601.00,0.0074
1600.00,0.0074
1599.00,0.0074
1598.00,0.0073
1597.00,0.0073
1596.00,0.0073
1595.00,0.0073
1594.00,0.0074
1593.00,0.0075
1592.00,0.0076
1591.00,0.0077
1590.00,0.0078
1589.00,0.0079
1588.00,0.0081
1587.00,0.0083
1586.00,0.0086
1585.00,0.0089
1584.00,0.0093
1583.00,0.0097
1582.00,0.0101
1581.00,0.0106
1580.00,0.0110
1579.00,0.0113
1578.00,0.0115
1577.00,0.0116
1576.00,0.0115
1575.00,0.0113
1574.00,0.0110
1573.00,0.0108
1572.00,0.0106
1571.00,0.0103
1570.00,0.0099
1569.00,0.0095
1568.00,0.0093
1567.00,0.0092
1566.00,0.0091
1565.00,0.0090
1564.00,0.0089
1563.00,0.0089
1562.00,0.0089
1561.00,0.0090
1560.00,0.0091
1559.00,0.0091
1558.00,0.0091
1557.00,0.0092
1556.00,0.0093
1555.00,0.0095
1554.00,0.0096
1553.00,0.0098
1552.00,0.0100
1551.00,0.0103
1550.00,0.0105
1549.00,0.0108
1548.00,0.0111
1547.00,0.0114
1546.00,0.0118
1545.00,0.0123
1544.00,0.0127
1543.00,0.0129
1542.00,0.0131
1541.00,0.0130
1540.00,0.0127
1539.00,0.0122
1538.00,0.0118
1537.00,0.0113
1536.00,0.0109
1535.00,0.0104
1534.00,0.0097
1533.00,0.0091
1532.00,0.0087
1531.00,0.0085
1530.00,0.0082
1529.00,0.0081
1528.00,0.0080
1527.00,0.0078
1526.00,0.0077
1525.00,0.0075
1524.00,0.0074
1523.00,0.0073
1522.00,0.0073
1521.00,0.0073
1520.00,0.0074
1519.00,0.0074
1518.00,0.0073
1517.00,0.0074
1516.00,0.0074
1515.00,0.0074
1514.00,0.0074
1513.00,0.0074
1512.00,0.0074
1511.00,0.0074
1510.00,0.0074
1509.00,0.0074
1508.00,0.0075
1507.00,0.0074
1506.00,0.0074
1505.00,0.0076
1504.00,0.0077
1503.00,0.0079
1502.00,0.0080
1501.00,0.0082
1500.00,0.0085
1499.00,0.0087
1498.00,0.0089
1497.00,0.0092
1496.00,0.0095
1495.00,0.0098
1494.00,0.0100
1493.00,0.0103
1492.00,0.0106
1491.00,0.0110
1490.00,0.0114
1489.00,0.0119
1488.00,0.0125
1487.00,0.0131
1486.00,0.0137
1485.00,0.0145
1484.00,0.0154
1483.00,0.0163
1482.00,0.0173
1481.00,0.0186
1480.00,0.0200
1479.00,0.0214
1478.00,0.0230
1477.00,0.0251
1476.00,0.0276
1475.00,0.0304
1474.00,0.0342
1473.00,0.0397
1472.00,0.0461
1471.00,0.0524
1470.00,0.0585
1469.00,0.0648
1468.00,0.0715
1467.00,0.0787
1466.00,0.0866
1465.00,0.0952
1464.00,0.1027
1463.00,0.1079
1462.00,0.1113
1461.00,0.1136
1460.00,0.1153
1459.00,0.1165
1458.00,0.1177
1457.00,0.1187
1456.00,0.1190
1455.00,0.1185
1454.00,0.1176
1453.00,0.1161
1452.00,0.1138
1451.00,0.1103
1450.00,0.1055
1449.00,0.0988
1448.00,0.0901
1447.00,0.0809
1446.00,0.0726
1445.00,0.0653
1444.00,0.0591
1443.00,0.0539
1442.00,0.0499
1441.00,0.0471
1440.00,0.0453
1439.00,0.0444
1438.00,0.0441
1437.00,0.0439
1436.00,0.0427
1435.00,0.0404
1434.00,0.0371
1433.00,0.0331
1432.00,0.0290
1431.00,0.0254
1430.00,0.0224
1429.00,0.0202
1428.00,0.0187
1427.00,0.0177
1426.00,0.0171
1425.00,0.0166
1424.00,0.0160
1423.00,0.0156
1422.00,0.0154
1421.00,0.0151
1420.00,0.0148
1419.00,0.0145
1418.00,0.0142
1417.00,0.0139
1416.00,0.0136
1415.00,0.0133
1414.00,0.0131
1413.00,0.0128
1412.00,0.0126
1411.00,0.0124
1410.00,0.0123
1409.00,0.0121
1408.00,0.0119
1407.00,0.0118
1406.00,0.0117
1405.00,0.0114
1404.00,0.0112
1403.00,0.0111
1402.00,0.0111
1401.00,0.0110
1400.00,0.0109
1399.00,0.0109
1398.00,0.0110
1397.00,0.0110
1396.00,0.0110
1395.00,0.0112
1394.00,0.0115
1393.00,0.0119
1392.00,0.0123
1391.00,0.0131
1390.00,0.0140
1389.00,0.0154
1388.00,0.0174
1387.00,0.0204
1386.00,0.0246
1385.00,0.0301
1384.00,0.0377
1383.00,0.0483
1382.00,0.0625
1381.00,0.0805
1380.00,0.1021
1379.00,0.1258
1378.00,0.1477
1377.00,0.1628
1376.00,0.1665
1375.00,0.1568
1374.00,0.1366
1373.00,0.1130
1372.00,0.0917
1371.00,0.0744
1370.00,0.0605
1369.00,0.0500
1368.00,0.0427
1367.00,0.0381
1366.00,0.0357
1365.00,0.0347
1364.00,0.0349
1363.00,0.0361
1362.00,0.0378
1361.00,0.0397
1360.00,0.0410
1359.00,0.0414
1358.00,0.0405
1357.00,0.0384
1356.00,0.0354
1355.00,0.0320
1354.00,0.0287
1353.00,0.0259
1352.00,0.0236
1351.00,0.0217
1350.00,0.0201
1349.00,0.0188
1348.00,0.0176
1347.00,0.0167
1346.00,0.0159
1345.00,0.0152
1344.00,0.0146
1343.00,0.0142
1342.00,0.0138
1341.00,0.0135
1340.00,0.0133
1339.00,0.0131
1338.00,0.0130
1337.00,0.0130
1336.00,0.0131
1335.00,0.0132
1334.00,0.0135
1333.00,0.0138
1332.00,0.0141
1331.00,0.0144
1330.00,0.0145
1329.00,0.0144
1328.00,0.0141
1327.00,0.0137
1326.00,0.0132
1325.00,0.0127
1324.00,0.0122
1323.00,0.0118
1322.00,0.0114
1321.00,0.0112
1320.00,0.0110
1319.00,0.0108
1318.00,0.0106
1317.00,0.0105
1316.00,0.0104
1315.00,0.0103
1314.00,0.0102
1313.00,0.0103
1312.00,0.0104
1311.00,0.0107
1310.00,0.0111
1309.00,0.0118
1308.00,0.0129
1307.00,0.0141
1306.00,0.0153
1305.00,0.0161
1304.00,0.0163
1303.00,0.0160
1302.00,0.0153
1301.00,0.0146
1300.00,0.0142
1299.00,0.0139
1298.00,0.0138
1297.00,0.0137
1296.00,0.0135
1295.00,0.0132
1294.00,0.0128
1293.00,0.0123
1292.00,0.0118
1291.00,0.0114
1290.00,0.0110
1289.00,0.0106
1288.00,0.0102
1287.00,0.0100
1286.00,0.0098
1285.00,0.0096
1284.00,0.0094
1283.00,0.0093
1282.00,0.0091
1281.00,0.0090
1280.00,0.0089
1279.00,0.0088
1278.00,0.0087
1277.00,0.0086
1276.00,0.0085
1275.00,0.0084
1274.00,0.0083
1273.00,0.0082
1272.00,0.0081
1271.00,0.0081
1270.00,0.0081
1269.00,0.0082
1268.00,0.0084
1267.00,0.0085
1266.00,0.0087
1265.00,0.0090
1264.00,0.0092
1263.00,0.0095
1262.00,0.0099
1261.00,0.0104
1260.00,0.0111
1259.00,0.0119
1258.00,0.0127
1257.00,0.0133
1256.00,0.0136
1255.00,0.0133
1254.00,0.0125
1253.00,0.0115
1252.00,0.0105
1251.00,0.0097
1250.00,0.0091
1249.00,0.0088
1248.00,0.0086
1247.00,0.0084
1246.00,0.0082
1245.00,0.0080
1244.00,0.0079
1243.00,0.0078
1242.00,0.0077
1241.00,0.0077
1240.00,0.0077
1239.00,0.0077
1238.00,0.0076
1237.00,0.0076
1236.00,0.0077
1235.00,0.0078
1234.00,0.0079
1233.00,0.0081
1232.00,0.0082
1231.00,0.0084
1230.00,0.0086
1229.00,0.0088
1228.00,0.0089
1227.00,0.0092
1226.00,0.0095
1225.00,0.0098
1224.00,0.0101
1223.00,0.0104
1222.00,0.0107
1221.00,0.0111
1220.00,0.0113
1219.00,0.0114
1218.00,0.0114
1217.00,0.0112
1216.00,0.0109
1215.00,0.0107
1214.00,0.0105
1213.00,0.0102
1212.00,0.0100
1211.00,0.0098
1210.00,0.0097
1209.00,0.0095
1208.00,0.0094
1207.00,0.0093
1206.00,0.0092
1205.00,0.0092
1204.00,0.0092
1203.00,0.0092
1202.00,0.0092
1201.00,0.0091
1200.00,0.0091
1199.00,0.0091
1198.00,0.0092
1197.00,0.0093
1196.00,0.0093
1195.00,0.0093
1194.00,0.0093
1193.00,0.0093
1192.00,0.0093
1191.00,0.0092
1190.00,0.0092
1189.00,0.0091
1188.00,0.0091
1187.00,0.0091
1186.00,0.0090
1185.00,0.0091
1184.00,0.0091
1183.00,0.0092
1182.00,0.0094
1181.00,0.0096
1180.00,0.0098
1179.00,0.0103
1178.00,0.0109
1177.00,0.0117
1176.00,0.0129
1175.00,0.0146
1174.00,0.0168
1173.00,0.0196
1172.00,0.0228
1171.00,0.0263
1170.00,0.0298
1169.00,0.0326
1168.00,0.0342
1167.00,0.0345
1166.00,0.0334
1165.00,0.0315
1164.00,0.0292
1163.00,0.0271
1162.00,0.0252
1161.00,0.0236
1160.00,0.0224
1159.00,0.0214
1158.00,0.0205
1157.00,0.0199
1156.00,0.0194
1155.00,0.0191
1154.00,0.0189
1153.00,0.0185
1152.00,0.0181
1151.00,0.0174
1150.00,0.0166
1149.00,0.0157
1148.00,0.0147
1147.00,0.0139
1146.00,0.0131
1145.00,0.0123
1144.00,0.0117
1143.00,0.0111
1142.00,0.0106
1141.00,0.0102
1140.00,0.0098
1139.00,0.0094
1138.00,0.0091
1137.00,0.0088
1136.00,0.0086
1135.00,0.0084
1134.00,0.0083
1133.00,0.0081
1132.00,0.0081
1131.00,0.0081
1130.00,0.0081
1129.00,0.0083
1128.00,0.0084
1127.00,0.0086
1126.00,0.0087
1125.00,0.0089
1124.00,0.0089
1123.00,0.0090
1122.00,0.0092
1121.00,0.0093
1120.00,0.0094
1119.00,0.0095
1118.00,0.0096
1117.00,0.0097
1116.00,0.0098
1115.00,0.0100
1114.00,0.0102
1113.00,0.0105
1112.00,0.0107
1111.00,0.0110
1110.00,0.0113
1109.00,0.0116
1108.00,0.0120
1107.00,0.0125
1106.00,0.0130
1105.00,0.0135
1104.00,0.0139
1103.00,0.0140
1102.00,0.0139
1101.00,0.0136
1100.00,0.0131
1099.00,0.0126
1098.00,0.0120
1097.00,0.0115
1096.00,0.0110
1095.00,0.0105
1094.00,0.0101
1093.00,0.0097
1092.00,0.0094
1091.00,0.0091
1090.00,0.0089
1089.00,0.0088
1088.00,0.0086
1087.00,0.0085
1086.00,0.0084
1085.00,0.0084
1084.00,0.0083
1083.00,0.0083
1082.00,0.0082
1081.00,0.0081
1080.00,0.0079
1079.00,0.0078
1078.00,0.0077
1077.00,0.0076
1076.00,0.0075
1075.00,0.0074
1074.00,0.0073
1073.00,0.0072
1072.00,0.0072
1071.00,0.0072
1070.00,0.0073
1069.00,0.0074
1068.00,0.0075
1067.00,0.0075
1066.00,0.0076
1065.00,0.0078
1064.00,0.0079
1063.00,0.0081
1062.00,0.0082
1061.00,0.0083
1060.00,0.0084
1059.00,0.0084
1058.00,0.0086
1057.00,0.0088
1056.00,0.0089
1055.00,0.0091
1054.00,0.0094
1053.00,0.0098
1052.00,0.0104
1051.00,0.0109
1050.00,0.0114
1049.00,0.0120
1048.00,0.0125
1047.00,0.0130
1046.00,0.0135
1045.00,0.0139
1044.00,0.0141
1043.00,0.0140
1042.00,0.0137
1041.00,0.0134
1040.00,0.0133
1039.00,0.0133
1038.00,0.0135
1037.00,0.0136
1036.00,0.0136
1035.00,0.0136
1034.00,0.0135
1033.00,0.0133
1032.00,0.0131
1031.00,0.0129
1030.00,0.0128
1029.00,0.0128
1028.00,0.0128
1027.00,0.0129
1026.00,0.0130
1025.00,0.0132
1024.00,0.0133
1023.00,0.0135
1022.00,0.0138
1021.00,0.0141
1020.00,0.0143
1019.00,0.0145
1018.00,0.0147
1017.00,0.0149
1016.00,0.0150
1015.00,0.0152
1014.00,0.0153
1013.00,0.0154
1012.00,0.0155
1011.00,0.0155
1010.00,0.0155
1009.00,0.0155
1008.00,0.0157
1007.00,0.0161
1006.00,0.0169
1005.00,0.0181
1004.00,0.0198
1003.00,0.0224
1002.00,0.0258
1001.00,0.0302
1000.00,0.0348
999.00,0.0388
998.00,0.0409
997.00,0.0403
996.00,0.0372
995.00,0.0327
994.00,0.0278
993.00,0.0235
992.00,0.0201
991.00,0.0177
990.00,0.0161
989.00,0.0149
988.00,0.0141
987.00,0.0136
986.00,0.0134
985.00,0.0133
984.00,0.0136
983.00,0.0142
982.00,0.0153
981.00,0.0170
980.00,0.0193
979.00,0.0223
978.00,0.0261
977.00,0.0307
976.00,0.0357
975.00,0.0406
974.00,0.0443
973.00,0.0457
972.00,0.0441
971.00,0.0398
970.00,0.0337
969.00,0.0275
968.00,0.0222
967.00,0.0181
966.00,0.0152
965.00,0.0132
964.00,0.0117
963.00,0.0106
962.00,0.0098
961.00,0.0092
960.00,0.0085
959.00,0.0079
958.00,0.0074
957.00,0.0070
956.00,0.0067
955.00,0.0065
954.00,0.0063
953.00,0.0060
952.00,0.0059
951.00,0.0058
950.00,0.0058
949.00,0.0059
948.00,0.0061
947.00,0.0062
946.00,0.0063
945.00,0.0065
944.00,0.0068
943.00,0.0071
942.00,0.0074
941.00,0.0075
940.00,0.0075
939.00,0.0074
938.00,0.0071
937.00,0.0069
936.00,0.0066
935.00,0.0063
934.00,0.0062
933.00,0.0061
932.00,0.0061
931.00,0.0061
930.00,0.0062
929.00,0.0063
928.00,0.0063
927.00,0.0064
926.00,0.0063
925.00,0.0063
924.00,0.0064
923.00,0.0065
922.00,0.0066
921.00,0.0066
920.00,0.0066
919.00,0.0066
918.00,0.0066
917.00,0.0067
916.00,0.0069
915.00,0.0069
914.00,0.0070
913.00,0.0070
912.00,0.0071
911.00,0.0073
910.00,0.0074
909.00,0.0077
908.00,0.0079
907.00,0.0084
906.00,0.0090
905.00,0.0099
904.00,0.0111
903.00,0.0127
902.00,0.0145
901.00,0.0159
900.00,0.0168
899.00,0.0169
898.00,0.0161
897.00,0.0148
896.00,0.0133
895.00,0.0119
894.00,0.0107
893.00,0.0098
892.00,0.0091
891.00,0.0087
890.00,0.0084
889.00,0.0082
888.00,0.0081
887.00,0.0080
886.00,0.0080
885.00,0.0080
884.00,0.0079
883.00,0.0079
882.00,0.0080
881.00,0.0080
880.00,0.0081
879.00,0.0081
878.00,0.0081
877.00,0.0081
876.00,0.0082
875.00,0.0083
874.00,0.0083
873.00,0.0084
872.00,0.0084
871.00,0.0084
870.00,0.0084
869.00,0.0084
868.00,0.0084
867.00,0.0084
866.00,0.0084
865.00,0.0083
864.00,0.0084
863.00,0.0086
862.00,0.0088
861.00,0.0090
860.00,0.0092
859.00,0.0093
858.00,0.0093
857.00,0.0094
856.00,0.0095
855.00,0.0097
854.00,0.0101
853.00,0.0105
852.00,0.0110
851.00,0.0114
850.00,0.0120
849.00,0.0127
848.00,0.0137
847.00,0.0151
846.00,0.0175
845.00,0.0213
844.00,0.0267
843.00,0.0332
842.00,0.0386
841.00,0.0406
840.00,0.0381
839.00,0.0323
838.00,0.0258
837.00,0.0206
836.00,0.0171
835.00,0.0149
834.00,0.0136
833.00,0.0127
832.00,0.0122
831.00,0.0117
830.00,0.0113
829.00,0.0110
828.00,0.0106
827.00,0.0104
826.00,0.0103
825.00,0.0102
824.00,0.0101
823.00,0.0101
822.00,0.0102
821.00,0.0103
820.00,0.0105
819.00,0.0106
818.00,0.0108
817.00,0.0112
816.00,0.0120
815.00,0.0130
814.00,0.0144
813.00,0.0159
812.00,0.0175
811.00,0.0190
810.00,0.0201
809.00,0.0205
808.00,0.0201
807.00,0.0191
806.00,0.0177
805.00,0.0162
804.00,0.0149
803.00,0.0137
802.00,0.0129
801.00,0.0122
800.00,0.0117
799.00,0.0113
798.00,0.0110
797.00,0.0107
796.00,0.0104
795.00,0.0102
794.00,0.0099
793.00,0.0096
792.00,0.0092
791.00,0.0088
790.00,0.0083
789.00,0.0080
788.00,0.0078
787.00,0.0078
786.00,0.0078
785.00,0.0077
784.00,0.0075
783.00,0.0074
782.00,0.0074
781.00,0.0074
780.00,0.0073
779.00,0.0071
778.00,0.0070
777.00,0.0069
776.00,0.0069
775.00,0.0070
774.00,0.0072
773.00,0.0073
772.00,0.0074
771.00,0.0074
770.00,0.0073
769.00,0.0073
768.00,0.0072
767.00,0.0072
766.00,0.0073
765.00,0.0073
764.00,0.0072
763.00,0.0072
762.00,0.0072
761.00,0.0074
760.00,0.0075
759.00,0.0076
758.00,0.0076
757.00,0.0076
756.00,0.0077
755.00,0.0078
754.00,0.0081
753.00,0.0084
752.00,0.0086
751.00,0.0088
750.00,0.0089
749.00,0.0088
748.00,0.0088
747.00,0.0089
746.00,0.0091
745.00,0.0093
744.00,0.0096
743.00,0.0098
742.00,0.0100
741.00,0.0103
740.00,0.0107
739.00,0.0111
738.00,0.0115
737.00,0.0119
736.00,0.0121
735.00,0.0125
734.00,0.0130
733.00,0.0137
732.00,0.0145
731.00,0.0153
730.00,0.0160
729.00,0.0163
728.00,0.0164
727.00,0.0164
726.00,0.0165
725.00,0.0168
724.00,0.0173
723.00,0.0179
722.00,0.0185
721.00,0.0188
720.00,0.0187
719.00,0.0181
718.00,0.0170
717.00,0.0156
716.00,0.0143
715.00,0.0133
714.00,0.0126
713.00,0.0120
712.00,0.0117
711.00,0.0114
710.00,0.0113
709.00,0.0111
708.00,0.0109
707.00,0.0109
706.00,0.0108
705.00,0.0108
704.00,0.0107
703.00,0.0106
702.00,0.0105
701.00,0.0104
700.00,0.0102
699.00,0.0101
698.00,0.0099
697.00,0.0098
696.00,0.0096
695.00,0.0096
694.00,0.0097
693.00,0.0098
692.00,0.0099
691.00,0.0100
690.00,0.0101
689.00,0.0100
688.00,0.0098
687.00,0.0097
686.00,0.0097
685.00,0.0099
684.00,0.0100
683.00,0.0101
682.00,0.0101
681.00,0.0102
680.00,0.0101
679.00,0.0101
678.00,0.0100
677.00,0.0099
676.00,0.0100
675.00,0.0101
674.00,0.0102
673.00,0.0104
672.00,0.0106
671.00,0.0109
670.00,0.0111
669.00,0.0110
668.00,0.0107
667.00,0.0105
666.00,0.0103
665.00,0.0101
664.00,0.0099
663.00,0.0097
662.00,0.0094
661.00,0.0092
660.00,0.0090
659.00,0.0090
658.00,0.0092
657.00,0.0094
656.00,0.0094
655.00,0.0092
654.00,0.0090
653.00,0.0089
652.00,0.0090
651.00,0.0091
650.00,0.0092
649.00,0.0091
648.00,0.0089
647.00,0.0088
646.00,0.0088
645.00,0.0089
644.00,0.0089
643.00,0.0089
642.00,0.0089
641.00,0.0089
640.00,0.0089
639.00,0.0087
638.00,0.0087
637.00,0.0087
636.00,0.0090
635.00,0.0092
634.00,0.0093
633.00,0.0092
632.00,0.0090
631.00,0.0088
630.00,0.0087
629.00,0.0086
628.00,0.0086
627.00,0.0085
626.00,0.0086
625.00,0.0090
624.00,0.0093
623.00,0.0095
622.00,0.0096
621.00,0.0095
620.00,0.0095
619.00,0.0095
618.00,0.0095
617.00,0.0096
616.00,0.0096
615.00,0.0095
614.00,0.0096
613.00,0.0097
612.00,0.0097
611.00,0.0097
610.00,0.0095
609.00,0.0093
608.00,0.0094
607.00,0.0096
606.00,0.0098
605.00,0.0099
604.00,0.0096
603.00,0.0092
602.00,0.0087
601.00,0.0083
600.00,0.0083
599.00,0.0084
598.00,0.0086
597.00,0.0088
596.00,0.0088
595.00,0.0088
594.00,0.0087
593.00,0.0085
592.00,0.0084
591.00,0.0086
590.00,0.0089
589.00,0.0093
588.00,0.0096
587.00,0.0099
586.00,0.0101
585.00,0.0102
584.00,0.0103
583.00,0.0103
582.00,0.0101
581.00,0.0098
580.00,0.0094
579.00,0.0092
578.00,0.0092
577.00,0.0092
576.00,0.0092
575.00,0.0092
574.00,0.0094
573.00,0.0095
572.00,0.0096
571.00,0.0096
570.00,0.0097
569.00,0.0098
568.00,0.0098
567.00,0.0098
566.00,0.0098
565.00,0.0096
564.00,0.0094
563.00,0.0092
562.00,0.0092
561.00,0.0095
560.00,0.0099
559.00,0.0101
558.00,0.0100
557.00,0.0097
556.00,0.0094
555.00,0.0092
554.00,0.0093
553.00,0.0096
552.00,0.0100
551.00,0.0104
550.00,0.0106
549.00,0.0105
548.00,0.0102
547.00,0.0100
546.00,0.0099
545.00,0.0100
544.00,0.0102
543.00,0.0105
542.00,0.0108
541.00,0.0109
540.00,0.0106
539.00,0.0103
538.00,0.0102
537.00,0.0106
536.00,0.0113
535.00,0.0120
534.00,0.0124
533.00,0.0126
532.00,0.0123
531.00,0.0118
530.00,0.0112
529.00,0.0108
528.00,0.0105
527.00,0.0105
526.00,0.0107
525.00,0.0108
524.00,0.0106
523.00,0.0103
522.00,0.0102
521.00,0.0102
520.00,0.0103
519.00,0.0100
518.00,0.0096
517.00,0.0093
516.00,0.0094
515.00,0.0096
514.00,0.0096
513.00,0.0094
512.00,0.0093
511.00,0.0097
510.00,0.0102
509.00,0.0103
508.00,0.0099
507.00,0.0092
506.00,0.0087
505.00,0.0085
504.00,0.0086
503.00,0.0091
502.00,0.0097
501.00,0.0103
500.00,0.0108
499.00,0.0112
498.00,0.0113
497.00,0.0110
496.00,0.0103
495.00,0.0096
494.00,0.0090
493.00,0.0088
492.00,0.0089
491.00,0.0096
490.00,0.0107
489.00,0.0116
488.00,0.0116
487.00,0.0108
486.00,0.0098
485.00,0.0090
484.00,0.0086
483.00,0.0083
482.00,0.0082
481.00,0.0085
480.00,0.0094
479.00,0.0108
478.00,0.0122
477.00,0.0130
476.00,0.0130
475.00,0.0125
474.00,0.0121
473.00,0.0123
472.00,0.0133
471.00,0.0150
470.00,0.0172
469.00,0.0190
468.00,0.0198
467.00,0.0194
466.00,0.0184
465.00,0.0177
464.00,0.0178
463.00,0.0185
462.00,0.0197
461.00,0.0207
460.00,0.0212
459.00,0.0213
458.00,0.0212
457.00,0.0210
456.00,0.0207
455.00,0.0204
454.00,0.0199
453.00,0.0191
452.00,0.0182
451.00,0.0172
450.00,0.0166
