Created as New Dataset,Sample 017 By Administrator Date Wednesday, September 03 2025
cm-1,A
4000.00,0.0009
3999.00,0.0009
3998.00,0.0009
3997.00,0.0009
3996.00,0.0009
3995.00,0.0009
3994.00,0.0009
3993.00,0.0009
3992.00,0.0009
3991.00,0.0009
3990.00,0.0008
3989.00,0.0008
3988.00,0.0008
3987.00,0.0008
3986.00,0.0008
3985.00,0.0008
3984.00,0.0008
3983.00,0.0008
3982.00,0.0008
3981.00,0.0008
3980.00,0.0008
3979.00,0.0008
3978.00,0.0008
3977.00,0.0008
3976.00,0.0008
3975.00,0.0008
3974.00,0.0008
3973.00,0.0009
3972.00,0.0009
3971.00,0.0009
3970.00,0.0009
3969.00,0.0008
3968.00,0.0008
3967.00,0.0008
3966.00,0.0008
3965.00,0.0008
3964.00,0.0008
3963.00,0.0008
3962.00,0.0008
3961.00,0.0008
3960.00,0.0008
3959.00,0.0008
3958.00,0.0008
3957.00,0.0008
3956.00,0.0008
3955.00,0.0007
3954.00,0.0007
3953.00,0.0007
3952.00,0.0007
3951.00,0.0007
3950.00,0.0007
3949.00,0.0007
3948.00,0.0007
3947.00,0.0008
3946.00,0.0008
3945.00,0.0009
3944.00,0.0009
3943.00,0.0008
3942.00,0.0008
3941.00,0.0007
3940.00,0.0007
3939.00,0.0007
3938.00,0.0008
3937.00,0.0008
3936.00,0.0008
3935.00,0.0007
3934.00,0.0007
3933.00,0.0007
3932.00,0.0007
3931.00,0.0007
3930.00,0.0007
3929.00,0.0007
3928.00,0.0006
3927.00,0.0006
3926.00,0.0007
3925.00,0.0007
3924.00,0.0007
3923.00,0.0007
3922.00,0.0008
3921.00,0.0008
3920.00,0.0008
3919.00,0.0008
3918.00,0.0008
3917.00,0.0007
3916.00,0.0007
3915.00,0.0007
3914.00,0.0007
3913.00,0.0007
3912.00,0.0007
3911.00,0.0007
3910.00,0.0007
3909.00,0.0007
3908.00,0.0007
3907.00,0.0006
3906.00,0.0006
3905.00,0.0006
3904.00,0.0006
3903.00,0.0005
3902.00,0.0005
3901.00,0.0006
3900.00,0.0006
3899.00,0.0007
3898.00,0.0007
3897.00,0.0007
3896.00,0.0008
3895.00,0.0008
3894.00,0.0008
3893.00,0.0008
3892.00,0.0007
3891.00,0.0007
3890.00,0.0007
3889.00,0.0007
3888.00,0.0007
3887.00,0.0007
3886.00,0.0006
3885.00,0.0006
3884.00,0.0006
3883.00,0.0006
3882.00,0.0006
3881.00,0.0007
3880.00,0.0007
3879.00,0.0007
3878.00,0.0007
3877.00,0.0007
3876.00,0.0007
3875.00,0.0007
3874.00,0.0007
3873.00,0.0007
3872.00,0.0007
3871.00,0.0007
3870.00,0.0006
3869.00,0.0006
3868.00,0.0006
3867.00,0.0006
3866.00,0.0006
3865.00,0.0006
3864.00,0.0007
3863.00,0.0007
3862.00,0.0007
3861.00,0.0006
3860.00,0.0006
3859.00,0.0006
3858.00,0.0006
3857.00,0.0006
3856.00,0.0006
3855.00,0.0005
3854.00,0.0004
3853.00,0.0004
3852.00,0.0005
3851.00,0.0005
3850.00,0.0006
3849.00,0.0006
3848.00,0.0007
3847.00,0.0007
3846.00,0.0007
3845.00,0.0007
3844.00,0.0007
3843.00,0.0007
3842.00,0.0006
3841.00,0.0006
3840.00,0.0006
3839.00,0.0006
3838.00,0.0007
3837.00,0.0007
3836.00,0.0007
3835.00,0.0007
3834.00,0.0007
3833.00,0.0007
3832.00,0.0007
3831.00,0.0007
3830.00,0.0007
3829.00,0.0007
3828.00,0.0007
3827.00,0.0007
3826.00,0.0007
3825.00,0.0007
3824.00,0.0007
3823.00,0.0006
3822.00,0.0006
3821.00,0.0006
3820.00,0.0007
3819.00,0.0006
3818.00,0.0006
3817.00,0.0006
3816.00,0.0007
3815.00,0.0007
3814.00,0.0007
3813.00,0.0007
3812.00,0.0007
3811.00,0.0007
3810.00,0.0008
3809.00,0.0008
3808.00,0.0008
3807.00,0.0008
3806.00,0.0008
3805.00,0.0007
3804.00,0.0007
3803.00,0.0007
3802.00,0.0007
3801.00,0.0007
3800.00,0.0007
3799.00,0.0007
3798.00,0.0007
3797.00,0.0008
3796.00,0.0008
3795.00,0.0008
3794.00,0.0008
3793.00,0.0008
3792.00,0.0007
3791.00,0.0007
3790.00,0.0007
3789.00,0.0006
3788.00,0.0006
3787.00,0.0006
3786.00,0.0006
3785.00,0.0006
3784.00,0.0007
3783.00,0.0007
3782.00,0.0007
3781.00,0.0007
3780.00,0.0007
3779.00,0.0008
3778.00,0.0008
3777.00,0.0008
3776.00,0.0008
3775.00,0.0007
3774.00,0.0007
3773.00,0.0007
3772.00,0.0007
3771.00,0.0007
3770.00,0.0007
3769.00,0.0007
3768.00,0.0007
3767.00,0.0006
3766.00,0.0006
3765.00,0.0007
3764.00,0.0007
3763.00,0.0008
3762.00,0.0008
3761.00,0.0008
3760.00,0.0008
3759.00,0.0008
3758.00,0.0008
3757.00,0.0008
3756.00,0.0007
3755.00,0.0007
3754.00,0.0006
3753.00,0.0006
3752.00,0.0005
3751.00,0.0005
3750.00,0.0005
3749.00,0.0005
3748.00,0.0005
3747.00,0.0005
3746.00,0.0005
3745.00,0.0006
3744.00,0.0006
3743.00,0.0005
3742.00,0.0005
3741.00,0.0004
3740.00,0.0004
3739.00,0.0004
3738.00,0.0004
3737.00,0.0003
3736.00,0.0004
3735.00,0.0004
3734.00,0.0005
3733.00,0.0005
3732.00,0.0005
3731.00,0.0005
3730.00,0.0005
3729.00,0.0005
3728.00,0.0005
3727.00,0.0005
3726.00,0.0005
3725.00,0.0005
3724.00,0.0006
3723.00,0.0006
3722.00,0.0006
3721.00,0.0006
3720.00,0.0006
3719.00,0.0005
3718.00,0.0005
3717.00,0.0005
3716.00,0.0005
3715.00,0.0004
3714.00,0.0004
3713.00,0.0004
3712.00,0.0005
3711.00,0.0005
3710.00,0.0005
3709.00,0.0005
3708.00,0.0005
3707.00,0.0005
3706.00,0.0005
3705.00,0.0005
3704.00,0.0005
3703.00,0.0005
3702.00,0.0005
3701.00,0.0005
3700.00,0.0005
3699.00,0.0005
3698.00,0.0005
3697.00,0.0005
3696.00,0.0005
3695.00,0.0005
3694.00,0.0005
3693.00,0.0005
3692.00,0.0005
3691.00,0.0005
3690.00,0.0005
3689.00,0.0005
3688.00,0.0005
3687.00,0.0005
3686.00,0.0005
3685.00,0.0005
3684.00,0.0005
3683.00,0.0005
3682.00,0.0005
3681.00,0.0005
3680.00,0.0005
3679.00,0.0005
3678.00,0.0005
3677.00,0.0005
3676.00,0.0005
3675.00,0.0004
3674.00,0.0004
3673.00,0.0003
3672.00,0.0002
3671.00,0.0002
3670.00,0.0002
3669.00,0.0003
3668.00,0.0003
3667.00,0.0003
3666.00,0.0002
3665.00,0.0002
3664.00,0.0002
3663.00,0.0002
3662.00,0.0002
3661.00,0.0002
3660.00,0.0002
3659.00,0.0002
3658.00,0.0002
3657.00,0.0002
3656.00,0.0002
3655.00,0.0002
3654.00,0.0002
3653.00,0.0002
3652.00,0.0002
3651.00,0.0002
3650.00,0.0002
3649.00,0.0002
3648.00,0.0002
3647.00,0.0003
3646.00,0.0003
3645.00,0.0003
3644.00,0.0003
3643.00,0.0004
3642.00,0.0004
3641.00,0.0004
3640.00,0.0004
3639.00,0.0005
3638.00,0.0005
3637.00,0.0005
3636.00,0.0005
3635.00,0.0005
3634.00,0.0005
3633.00,0.0006
3632.00,0.0006
3631.00,0.0006
3630.00,0.0006
3629.00,0.0007
3628.00,0.0007
3627.00,0.0007
3626.00,0.0007
3625.00,0.0007
3624.00,0.0007
3623.00,0.0007
3622.00,0.0008
3621.00,0.0008
3620.00,0.0009
3619.00,0.0009
3618.00,0.0009
3617.00,0.0009
3616.00,0.0009
3615.00,0.0009
3614.00,0.0009
3613.00,0.0009
3612.00,0.0009
3611.00,0.0009
3610.00,0.0009
3609.00,0.0009
3608.00,0.0009
3607.00,0.0009
3606.00,0.0010
3605.00,0.0010
3604.00,0.0010
3603.00,0.0011
3602.00,0.0011
3601.00,0.0011
3600.00,0.0011
3599.00,0.0010
3598.00,0.0010
3597.00,0.0010
3596.00,0.0010
3595.00,0.0010
3594.00,0.0010
3593.00,0.0011
3592.00,0.0011
3591.00,0.0011
3590.00,0.0011
3589.00,0.0012
3588.00,0.0012
3587.00,0.0013
3586.00,0.0014
3585.00,0.0014
3584.00,0.0014
3583.00,0.0015
3582.00,0.0015
3581.00,0.0015
3580.00,0.0015
3579.00,0.0016
3578.00,0.0016
3577.00,0.0016
3576.00,0.0016
3575.00,0.0016
3574.00,0.0016
3573.00,0.0016
3572.00,0.0016
3571.00,0.0016
3570.00,0.0016
3569.00,0.0016
3568.00,0.0017
3567.00,0.0017
3566.00,0.0017
3565.00,0.0018
3564.00,0.0019
3563.00,0.0019
3562.00,0.0019
3561.00,0.0020
3560.00,0.0020
3559.00,0.0020
3558.00,0.0020
3557.00,0.0020
3556.00,0.0021
3555.00,0.0021
3554.00,0.0021
3553.00,0.0022
3552.00,0.0022
3551.00,0.0023
3550.00,0.0023
3549.00,0.0023
3548.00,0.0023
3547.00,0.0023
3546.00,0.0023
3545.00,0.0023
3544.00,0.0023
3543.00,0.0023
3542.00,0.0023
3541.00,0.0024
3540.00,0.0024
3539.00,0.0024
3538.00,0.0024
3537.00,0.0024
3536.00,0.0025
3535.00,0.0025
3534.00,0.0025
3533.00,0.0025
3532.00,0.0025
3531.00,0.0025
3530.00,0.0026
3529.00,0.0026
3528.00,0.0026
3527.00,0.0027
3526.00,0.0027
3525.00,0.0028
3524.00,0.0028
3523.00,0.0028
3522.00,0.0028
3521.00,0.0028
3520.00,0.0028
3519.00,0.0028
3518.00,0.0029
3517.00,0.0029
3516.00,0.0029
3515.00,0.0030
3514.00,0.0030
3513.00,0.0031
3512.00,0.0031
3511.00,0.0031
3510.00,0.0030
3509.00,0.0030
3508.00,0.0030
3507.00,0.0031
3506.00,0.0031
3505.00,0.0032
3504.00,0.0032
3503.00,0.0033
3502.00,0.0033
3501.00,0.0033
3500.00,0.0033
3499.00,0.0033
3498.00,0.0033
3497.00,0.0033
3496.00,0.0034
3495.00,0.0034
3494.00,0.0034
3493.00,0.0034
3492.00,0.0034
3491.00,0.0034
3490.00,0.0034
3489.00,0.0035
3488.00,0.0036
3487.00,0.0036
3486.00,0.0036
3485.00,0.0036
3484.00,0.0036
3483.00,0.0036
3482.00,0.0036
3481.00,0.0036
3480.00,0.0037
3479.00,0.0037
3478.00,0.0037
3477.00,0.0038
3476.00,0.0038
3475.00,0.0039
3474.00,0.0039
3473.00,0.0039
3472.00,0.0039
3471.00,0.0039
3470.00,0.0039
3469.00,0.0039
3468.00,0.0039
3467.00,0.0039
3466.00,0.0039
3465.00,0.0039
3464.00,0.0039
3463.00,0.0040
3462.00,0.0040
3461.00,0.0040
3460.00,0.0040
3459.00,0.0041
3458.00,0.0041
3457.00,0.0041
3456.00,0.0041
3455.00,0.0041
3454.00,0.0041
3453.00,0.0042
3452.00,0.0042
3451.00,0.0043
3450.00,0.0043
3449.00,0.0043
3448.00,0.0043
3447.00,0.0043
3446.00,0.0043
3445.00,0.0043
3444.00,0.0044
3443.00,0.0044
3442.00,0.0044
3441.00,0.0044
3440.00,0.0045
3439.00,0.0045
3438.00,0.0046
3437.00,0.0046
3436.00,0.0046
3435.00,0.0047
3434.00,0.0047
3433.00,0.0047
3432.00,0.0047
3431.00,0.0047
3430.00,0.0046
3429.00,0.0046
3428.00,0.0046
3427.00,0.0047
3426.00,0.0047
3425.00,0.0048
3424.00,0.0048
3423.00,0.0048
3422.00,0.0048
3421.00,0.0048
3420.00,0.0048
3419.00,0.0048
3418.00,0.0049
3417.00,0.0049
3416.00,0.0049
3415.00,0.0050
3414.00,0.0050
3413.00,0.0050
3412.00,0.0051
3411.00,0.0051
3410.00,0.0051
3409.00,0.0051
3408.00,0.0051
3407.00,0.0051
3406.00,0.0051
3405.00,0.0051
3404.00,0.0052
3403.00,0.0052
3402.00,0.0052
3401.00,0.0052
3400.00,0.0053
3399.00,0.0053
3398.00,0.0053
3397.00,0.0053
3396.00,0.0054
3395.00,0.0054
3394.00,0.0054
3393.00,0.0053
3392.00,0.0053
3391.00,0.0053
3390.00,0.0053
3389.00,0.0053
3388.00,0.0053
3387.00,0.0053
3386.00,0.0053
3385.00,0.0053
3384.00,0.0053
3383.00,0.0053
3382.00,0.0053
3381.00,0.0053
3380.00,0.0053
3379.00,0.0053
3378.00,0.0053
3377.00,0.0053
3376.00,0.0054
3375.00,0.0054
3374.00,0.0055
3373.00,0.0055
3372.00,0.0055
3371.00,0.0055
3370.00,0.0055
3369.00,0.0055
3368.00,0.0055
3367.00,0.0055
3366.00,0.0055
3365.00,0.0055
3364.00,0.0055
3363.00,0.0055
3362.00,0.0055
3361.00,0.0055
3360.00,0.0055
3359.00,0.0055
3358.00,0.0056
3357.00,0.0056
3356.00,0.0056
3355.00,0.0056
3354.00,0.0056
3353.00,0.0055
3352.00,0.0055
3351.00,0.0055
3350.00,0.0055
3349.00,0.0055
3348.00,0.0056
3347.00,0.0056
3346.00,0.0056
3345.00,0.0056
3344.00,0.0056
3343.00,0.0056
3342.00,0.0055
3341.00,0.0055
3340.00,0.0055
3339.00,0.0055
3338.00,0.0055
3337.00,0.0055
3336.00,0.0055
3335.00,0.0056
3334.00,0.0055
3333.00,0.0055
3332.00,0.0055
3331.00,0.0054
3330.00,0.0054
3329.00,0.0054
3328.00,0.0054
3327.00,0.0055
3326.00,0.0055
3325.00,0.0054
3324.00,0.0054
3323.00,0.0054
3322.00,0.0054
3321.00,0.0054
3320.00,0.0054
3319.00,0.0054
3318.00,0.0054
3317.00,0.0054
3316.00,0.0054
3315.00,0.0054
3314.00,0.0054
3313.00,0.0054
3312.00,0.0055
3311.00,0.0055
3310.00,0.0055
3309.00,0.0055
3308.00,0.0055
3307.00,0.0055
3306.00,0.0055
3305.00,0.0055
3304.00,0.0055
3303.00,0.0055
3302.00,0.0055
3301.00,0.0055
3300.00,0.0055
3299.00,0.0054
3298.00,0.0054
3297.00,0.0054
3296.00,0.0053
3295.00,0.0053
3294.00,0.0053
3293.00,0.0053
3292.00,0.0053
3291.00,0.0053
3290.00,0.0053
3289.00,0.0053
3288.00,0.0053
3287.00,0.0052
3286.00,0.0051
3285.00,0.0051
3284.00,0.0050
3283.00,0.0050
3282.00,0.0050
3281.00,0.0050
3280.00,0.0050
3279.00,0.0050
3278.00,0.0050
3277.00,0.0049
3276.00,0.0049
3275.00,0.0049
3274.00,0.0049
3273.00,0.0049
3272.00,0.0049
3271.00,0.0049
3270.00,0.0049
3269.00,0.0048
3268.00,0.0048
3267.00,0.0048
3266.00,0.0048
3265.00,0.0047
3264.00,0.0047
3263.00,0.0046
3262.00,0.0046
3261.00,0.0046
3260.00,0.0046
3259.00,0.0046
3258.00,0.0046
3257.00,0.0046
3256.00,0.0046
3255.00,0.0046
3254.00,0.0045
3253.00,0.0045
3252.00,0.0045
3251.00,0.0044
3250.00,0.0044
3249.00,0.0045
3248.00,0.0045
3247.00,0.0044
3246.00,0.0044
3245.00,0.0044
3244.00,0.0044
3243.00,0.0044
3242.00,0.0044
3241.00,0.0044
3240.00,0.0043
3239.00,0.0043
3238.00,0.0043
3237.00,0.0043
3236.00,0.0043
3235.00,0.0043
3234.00,0.0043
3233.00,0.0043
3232.00,0.0043
3231.00,0.0044
3230.00,0.0044
3229.00,0.0044
3228.00,0.0044
3227.00,0.0044
3226.00,0.0044
3225.00,0.0044
3224.00,0.0044
3223.00,0.0044
3222.00,0.0044
3221.00,0.0044
3220.00,0.0044
3219.00,0.0045
3218.00,0.0045
3217.00,0.0045
3216.00,0.0045
3215.00,0.0045
3214.00,0.0045
3213.00,0.0045
3212.00,0.0046
3211.00,0.0046
3210.00,0.0046
3209.00,0.0047
3208.00,0.0047
3207.00,0.0046
3206.00,0.0046
3205.00,0.0046
3204.00,0.0046
3203.00,0.0047
3202.00,0.0047
3201.00,0.0047
3200.00,0.0047
3199.00,0.0047
3198.00,0.0047
3197.00,0.0047
3196.00,0.0047
3195.00,0.0047
3194.00,0.0047
3193.00,0.0047
3192.00,0.0046
3191.00,0.0046
3190.00,0.0046
3189.00,0.0046
3188.00,0.0046
3187.00,0.0046
3186.00,0.0046
3185.00,0.0046
3184.00,0.0046
3183.00,0.0046
3182.00,0.0046
3181.00,0.0045
3180.00,0.0045
3179.00,0.0045
3178.00,0.0045
3177.00,0.0045
3176.00,0.0044
3175.00,0.0044
3174.00,0.0044
3173.00,0.0043
3172.00,0.0043
3171.00,0.0043
3170.00,0.0043
3169.00,0.0043
3168.00,0.0042
3167.00,0.0042
3166.00,0.0042
3165.00,0.0042
3164.00,0.0042
3163.00,0.0042
3162.00,0.0043
3161.00,0.0042
3160.00,0.0042
3159.00,0.0042
3158.00,0.0041
3157.00,0.0041
3156.00,0.0040
3155.00,0.0040
3154.00,0.0040
3153.00,0.0041
3152.00,0.0041
3151.00,0.0042
3150.00,0.0042
3149.00,0.0042
3148.00,0.0041
3147.00,0.0041
3146.00,0.0041
3145.00,0.0041
3144.00,0.0040
3143.00,0.0040
3142.00,0.0040
3141.00,0.0040
3140.00,0.0040
3139.00,0.0040
3138.00,0.0040
3137.00,0.0040
3136.00,0.0040
3135.00,0.0040
3134.00,0.0039
3133.00,0.0039
3132.00,0.0038
3131.00,0.0038
3130.00,0.0037
3129.00,0.0037
3128.00,0.0036
3127.00,0.0036
3126.00,0.0036
3125.00,0.0036
3124.00,0.0036
3123.00,0.0036
3122.00,0.0036
3121.00,0.0035
3120.00,0.0035
3119.00,0.0035
3118.00,0.0035
3117.00,0.0035
3116.00,0.0035
3115.00,0.0035
3114.00,0.0034
3113.00,0.0034
3112.00,0.0034
3111.00,0.0033
3110.00,0.0034
3109.00,0.0034
3108.00,0.0034
3107.00,0.0034
3106.00,0.0034
3105.00,0.0034
3104.00,0.0034
3103.00,0.0034
3102.00,0.0034
3101.00,0.0033
3100.00,0.0033
3099.00,0.0033
3098.00,0.0033
3097.00,0.0033
3096.00,0.0033
3095.00,0.0033
3094.00,0.0033
3093.00,0.0033
3092.00,0.0032
3091.00,0.0032
3090.00,0.0032
3089.00,0.0032
3088.00,0.0032
3087.00,0.0032
3086.00,0.0032
3085.00,0.0032
3084.00,0.0032
3083.00,0.0032
3082.00,0.0031
3081.00,0.0031
3080.00,0.0031
3079.00,0.0031
3078.00,0.0032
3077.00,0.0032
3076.00,0.0033
3075.00,0.0033
3074.00,0.0033
3073.00,0.0033
3072.00,0.0033
3071.00,0.0033
3070.00,0.0033
3069.00,0.0033
3068.00,0.0034
3067.00,0.0034
3066.00,0.0034
3065.00,0.0034
3064.00,0.0034
3063.00,0.0034
3062.00,0.0034
3061.00,0.0034
3060.00,0.0034
3059.00,0.0034
3058.00,0.0035
3057.00,0.0035
3056.00,0.0035
3055.00,0.0035
3054.00,0.0035
3053.00,0.0035
3052.00,0.0036
3051.00,0.0036
3050.00,0.0036
3049.00,0.0036
3048.00,0.0036
3047.00,0.0036
3046.00,0.0036
3045.00,0.0037
3044.00,0.0037
3043.00,0.0037
3042.00,0.0038
3041.00,0.0038
3040.00,0.0038
3039.00,0.0039
3038.00,0.0039
3037.00,0.0040
3036.00,0.0040
3035.00,0.0040
3034.00,0.0040
3033.00,0.0040
3032.00,0.0041
3031.00,0.0041
3030.00,0.0041
3029.00,0.0042
3028.00,0.0042
3027.00,0.0043
3026.00,0.0044
3025.00,0.0044
3024.00,0.0044
3023.00,0.0045
3022.00,0.0045
3021.00,0.0046
3020.00,0.0047
3019.00,0.0047
3018.00,0.0048
3017.00,0.0049
3016.00,0.0049
3015.00,0.0050
3014.00,0.0051
3013.00,0.0051
3012.00,0.0051
3011.00,0.0052
3010.00,0.0052
3009.00,0.0053
3008.00,0.0053
3007.00,0.0054
3006.00,0.0054
3005.00,0.0055
3004.00,0.0056
3003.00,0.0056
3002.00,0.0057
3001.00,0.0058
3000.00,0.0060
2999.00,0.0062
2998.00,0.0064
2997.00,0.0067
2996.00,0.0070
2995.00,0.0073
2994.00,0.0076
2993.00,0.0080
2992.00,0.0085
2991.00,0.0090
2990.00,0.0096
2989.00,0.0102
2988.00,0.0109
2987.00,0.0116
2986.00,0.0124
2985.00,0.0131
2984.00,0.0139
2983.00,0.0149
2982.00,0.0162
2981.00,0.0179
2980.00,0.0200
2979.00,0.0224
2978.00,0.0251
2977.00,0.0282
2976.00,0.0315
2975.00,0.0353
2974.00,0.0395
2973.00,0.0444
2972.00,0.0499
2971.00,0.0562
2970.00,0.0633
2969.00,0.0712
2968.00,0.0798
2967.00,0.0891
2966.00,0.0988
2965.00,0.1090
2964.00,0.1191
2963.00,0.1287
2962.00,0.1373
2961.00,0.1444
2960.00,0.1500
2959.00,0.1542
2958.00,0.1574
2957.00,0.1602
2956.00,0.1633
2955.00,0.1670
2954.00,0.1713
2953.00,0.1758
2952.00,0.1797
2951.00,0.1819
2950.00,0.1815
2949.00,0.1778
2948.00,0.1709
2947.00,0.1613
2946.00,0.1501
2945.00,0.1385
2944.00,0.1277
2943.00,0.1185
2942.00,0.1114
2941.00,0.1066
2940.00,0.1040
2939.00,0.1035
2938.00,0.1049
2937.00,0.1080
2936.00,0.1125
2935.00,0.1184
2934.00,0.1255
2933.00,0.1338
2932.00,0.1429
2931.00,0.1529
2930.00,0.1634
2929.00,0.1742
2928.00,0.1849
2927.00,0.1953
2926.00,0.2054
2925.00,0.2150
2924.00,0.2242
2923.00,0.2332
2922.00,0.2418
2921.00,0.2499
2920.00,0.2567
2919.00,0.2616
2918.00,0.2636
2917.00,0.2622
2916.00,0.2574
2915.00,0.2498
2914.00,0.2404
2913.00,0.2304
2912.00,0.2207
2911.00,0.2120
2910.00,0.2044
2909.00,0.1977
2908.00,0.1917
2907.00,0.1859
2906.00,0.1801
2905.00,0.1741
2904.00,0.1678
2903.00,0.1615
2902.00,0.1550
2901.00,0.1486
2900.00,0.1424
2899.00,0.1364
2898.00,0.1308
2897.00,0.1256
2896.00,0.1209
2895.00,0.1167
2894.00,0.1131
2893.00,0.1102
2892.00,0.1078
2891.00,0.1059
2890.00,0.1045
2889.00,0.1035
2888.00,0.1029
2887.00,0.1025
2886.00,0.1026
2885.00,0.1029
2884.00,0.1037
2883.00,0.1048
2882.00,0.1064
2881.00,0.1082
2880.00,0.1099
2879.00,0.1114
2878.00,0.1122
2877.00,0.1124
2876.00,0.1120
2875.00,0.1114
2874.00,0.1110
2873.00,0.1111
2872.00,0.1119
2871.00,0.1133
2870.00,0.1150
2869.00,0.1165
2868.00,0.1174
2867.00,0.1169
2866.00,0.1146
2865.00,0.1105
2864.00,0.1048
2863.00,0.0985
2862.00,0.0922
2861.00,0.0868
2860.00,0.0828
2859.00,0.0802
2858.00,0.0789
2857.00,0.0788
2856.00,0.0796
2855.00,0.0811
2854.00,0.0830
2853.00,0.0852
2852.00,0.0874
2851.00,0.0893
2850.00,0.0907
2849.00,0.0916
2848.00,0.0921
2847.00,0.0929
2846.00,0.0944
2845.00,0.0970
2844.00,0.1007
2843.00,0.1052
2842.00,0.1102
2841.00,0.1148
2840.00,0.1183
2839.00,0.1201
2838.00,0.1192
2837.00,0.1155
2836.00,0.1090
2835.00,0.1002
2834.00,0.0902
2833.00,0.0798
2832.00,0.0699
2831.00,0.0612
2830.00,0.0538
2829.00,0.0477
2828.00,0.0428
2827.00,0.0388
2826.00,0.0355
2825.00,0.0328
2824.00,0.0306
2823.00,0.0287
2822.00,0.0270
2821.00,0.0256
2820.00,0.0243
2819.00,0.0232
2818.00,0.0222
2817.00,0.0214
2816.00,0.0206
2815.00,0.0199
2814.00,0.0193
2813.00,0.0187
2812.00,0.0182
2811.00,0.0177
2810.00,0.0172
2809.00,0.0166
2808.00,0.0161
2807.00,0.0155
2806.00,0.0149
2805.00,0.0143
2804.00,0.0137
2803.00,0.0131
2802.00,0.0126
2801.00,0.0122
2800.00,0.0118
2799.00,0.0115
2798.00,0.0113
2797.00,0.0110
2796.00,0.0108
2795.00,0.0105
2794.00,0.0103
2793.00,0.0100
2792.00,0.0097
2791.00,0.0093
2790.00,0.0090
2789.00,0.0087
2788.00,0.0084
2787.00,0.0081
2786.00,0.0078
2785.00,0.0076
2784.00,0.0073
2783.00,0.0071
2782.00,0.0069
2781.00,0.0068
2780.00,0.0066
2779.00,0.0065
2778.00,0.0064
2777.00,0.0062
2776.00,0.0061
2775.00,0.0059
2774.00,0.0058
2773.00,0.0057
2772.00,0.0057
2771.00,0.0056
2770.00,0.0056
2769.00,0.0056
2768.00,0.0055
2767.00,0.0055
2766.00,0.0055
2765.00,0.0054
2764.00,0.0054
2763.00,0.0053
2762.00,0.0053
2761.00,0.0052
2760.00,0.0052
2759.00,0.0052
2758.00,0.0052
2757.00,0.0052
2756.00,0.0052
2755.00,0.0052
2754.00,0.0052
2753.00,0.0051
2752.00,0.0051
2751.00,0.0051
2750.00,0.0051
2749.00,0.0051
2748.00,0.0052
2747.00,0.0052
2746.00,0.0052
2745.00,0.0052
2744.00,0.0053
2743.00,0.0053
2742.00,0.0054
2741.00,0.0055
2740.00,0.0056
2739.00,0.0057
2738.00,0.0058
2737.00,0.0060
2736.00,0.0061
2735.00,0.0063
2734.00,0.0064
2733.00,0.0065
2732.00,0.0067
2731.00,0.0068
2730.00,0.0070
2729.00,0.0072
2728.00,0.0074
2727.00,0.0077
2726.00,0.0079
2725.00,0.0081
2724.00,0.0083
2723.00,0.0083
2722.00,0.0082
2721.00,0.0081
2720.00,0.0079
2719.00,0.0076
2718.00,0.0073
2717.00,0.0070
2716.00,0.0067
2715.00,0.0064
2714.00,0.0062
2713.00,0.0060
2712.00,0.0058
2711.00,0.0057
2710.00,0.0055
2709.00,0.0054
2708.00,0.0053
2707.00,0.0052
2706.00,0.0051
2705.00,0.0051
2704.00,0.0050
2703.00,0.0049
2702.00,0.0048
2701.00,0.0047
2700.00,0.0046
2699.00,0.0046
2698.00,0.0045
2697.00,0.0045
2696.00,0.0045
2695.00,0.0045
2694.00,0.0044
2693.00,0.0045
2692.00,0.0045
2691.00,0.0045
2690.00,0.0045
2689.00,0.0045
2688.00,0.0045
2687.00,0.0045
2686.00,0.0045
2685.00,0.0045
2684.00,0.0045
2683.00,0.0045
2682.00,0.0045
2681.00,0.0045
2680.00,0.0045
2679.00,0.0045
2678.00,0.0045
2677.00,0.0045
2676.00,0.0045
2675.00,0.0045
2674.00,0.0045
2673.00,0.0044
2672.00,0.0044
2671.00,0.0044
2670.00,0.0044
2669.00,0.0044
2668.00,0.0044
2667.00,0.0044
2666.00,0.0044
2665.00,0.0045
2664.00,0.0045
2663.00,0.0046
2662.00,0.0046
2661.00,0.0047
2660.00,0.0047
2659.00,0.0047
2658.00,0.0047
2657.00,0.0047
2656.00,0.0047
2655.00,0.0046
2654.00,0.0046
2653.00,0.0045
2652.00,0.0045
2651.00,0.0044
2650.00,0.0044
2649.00,0.0043
2648.00,0.0042
2647.00,0.0042
2646.00,0.0042
2645.00,0.0042
2644.00,0.0041
2643.00,0.0041
2642.00,0.0041
2641.00,0.0040
2640.00,0.0040
2639.00,0.0039
2638.00,0.0039
2637.00,0.0038
2636.00,0.0038
2635.00,0.0038
2634.00,0.0037
2633.00,0.0037
2632.00,0.0037
2631.00,0.0037
2630.00,0.0038
2629.00,0.0038
2628.00,0.0038
2627.00,0.0038
2626.00,0.0038
2625.00,0.0038
2624.00,0.0039
2623.00,0.0039
2622.00,0.0039
2621.00,0.0039
2620.00,0.0039
2619.00,0.0040
2618.00,0.0040
2617.00,0.0040
2616.00,0.0040
2615.00,0.0039
2614.00,0.0039
2613.00,0.0039
2612.00,0.0039
2611.00,0.0038
2610.00,0.0037
2609.00,0.0036
2608.00,0.0036
2607.00,0.0035
2606.00,0.0034
2605.00,0.0033
2604.00,0.0033
2603.00,0.0032
2602.00,0.0032
2601.00,0.0031
2600.00,0.0031
2599.00,0.0031
2598.00,0.0031
2597.00,0.0032
2596.00,0.0032
2595.00,0.0031
2594.00,0.0031
2593.00,0.0031
2592.00,0.0032
2591.00,0.0033
2590.00,0.0033
2589.00,0.0034
2588.00,0.0035
2587.00,0.0036
2586.00,0.0036
2585.00,0.0037
2584.00,0.0037
2583.00,0.0038
2582.00,0.0038
2581.00,0.0038
2580.00,0.0037
2579.00,0.0037
2578.00,0.0037
2577.00,0.0036
2576.00,0.0034
2575.00,0.0033
2574.00,0.0031
2573.00,0.0029
2572.00,0.0029
2571.00,0.0028
2570.00,0.0027
2569.00,0.0027
2568.00,0.0026
2567.00,0.0026
2566.00,0.0026
2565.00,0.0025
2564.00,0.0025
2563.00,0.0025
2562.00,0.0024
2561.00,0.0024
2560.00,0.0024
2559.00,0.0023
2558.00,0.0023
2557.00,0.0023
2556.00,0.0023
2555.00,0.0022
2554.00,0.0022
2553.00,0.0021
2552.00,0.0020
2551.00,0.0019
2550.00,0.0019
2549.00,0.0019
2548.00,0.0018
2547.00,0.0018
2546.00,0.0017
2545.00,0.0017
2544.00,0.0017
2543.00,0.0018
2542.00,0.0018
2541.00,0.0018
2540.00,0.0018
2539.00,0.0018
2538.00,0.0018
2537.00,0.0017
2536.00,0.0017
2535.00,0.0017
2534.00,0.0016
2533.00,0.0016
2532.00,0.0016
2531.00,0.0016
2530.00,0.0016
2529.00,0.0016
2528.00,0.0015
2527.00,0.0014
2526.00,0.0014
2525.00,0.0014
2524.00,0.0014
2523.00,0.0015
2522.00,0.0014
2521.00,0.0014
2520.00,0.0014
2519.00,0.0013
2518.00,0.0013
2517.00,0.0012
2516.00,0.0012
2515.00,0.0012
2514.00,0.0012
2513.00,0.0012
2512.00,0.0012
2511.00,0.0011
2510.00,0.0012
2509.00,0.0012
2508.00,0.0012
2507.00,0.0012
2506.00,0.0011
2505.00,0.0011
2504.00,0.0011
2503.00,0.0011
2502.00,0.0011
2501.00,0.0011
2500.00,0.0011
2499.00,0.0011
2498.00,0.0011
2497.00,0.0011
2496.00,0.0011
2495.00,0.0011
2494.00,0.0010
2493.00,0.0010
2492.00,0.0010
2491.00,0.0010
2490.00,0.0010
2489.00,0.0010
2488.00,0.0010
2487.00,0.0010
2486.00,0.0009
2485.00,0.0009
2484.00,0.0009
2483.00,0.0009
2482.00,0.0009
2481.00,0.0009
2480.00,0.0009
2479.00,0.0009
2478.00,0.0010
2477.00,0.0010
2476.00,0.0010
2475.00,0.0010
2474.00,0.0010
2473.00,0.0010
2472.00,0.0009
2471.00,0.0009
2470.00,0.0009
2469.00,0.0009
2468.00,0.0008
2467.00,0.0008
2466.00,0.0008
2465.00,0.0008
2464.00,0.0008
2463.00,0.0009
2462.00,0.0010
2461.00,0.0010
2460.00,0.0011
2459.00,0.0011
2458.00,0.0012
2457.00,0.0011
2456.00,0.0011
2455.00,0.0011
2454.00,0.0011
2453.00,0.0012
2452.00,0.0012
2451.00,0.0011
2450.00,0.0011
2449.00,0.0010
2448.00,0.0010
2447.00,0.0010
2446.00,0.0011
2445.00,0.0011
2444.00,0.0011
2443.00,0.0011
2442.00,0.0011
2441.00,0.0011
2440.00,0.0010
2439.00,0.0010
2438.00,0.0011
2437.00,0.0011
2436.00,0.0012
2435.00,0.0012
2434.00,0.0011
2433.00,0.0011
2432.00,0.0010
2431.00,0.0010
2430.00,0.0011
2429.00,0.0012
2428.00,0.0012
2427.00,0.0013
2426.00,0.0012
2425.00,0.0012
2424.00,0.0011
2423.00,0.0010
2422.00,0.0010
2421.00,0.0010
2420.00,0.0010
2419.00,0.0009
2418.00,0.0009
2417.00,0.0009
2416.00,0.0009
2415.00,0.0010
2414.00,0.0010
2413.00,0.0011
2412.00,0.0011
2411.00,0.0011
2410.00,0.0011
2409.00,0.0011
2408.00,0.0010
2407.00,0.0009
2406.00,0.0009
2405.00,0.0009
2404.00,0.0009
2403.00,0.0008
2402.00,0.0008
2401.00,0.0009
2400.00,0.0009
2399.00,0.0009
2398.00,0.0009
2397.00,0.0008
2396.00,0.0009
2395.00,0.0009
2394.00,0.0009
2393.00,0.0009
2392.00,0.0010
2391.00,0.0010
2390.00,0.0010
2389.00,0.0010
2388.00,0.0009
2387.00,0.0009
2386.00,0.0008
2385.00,0.0007
2384.00,0.0006
2383.00,0.0005
2382.00,0.0005
2381.00,0.0004
2380.00,0.0003
2379.00,0.0002
2378.00,0.0002
2377.00,0.0002
2376.00,0.0003
2375.00,0.0004
2374.00,0.0005
2373.00,0.0006
2372.00,0.0006
2371.00,0.0005
2370.00,0.0005
2369.00,0.0005
2368.00,0.0005
2367.00,0.0004
2366.00,0.0004
2365.00,0.0005
2364.00,0.0005
2363.00,0.0005
2362.00,0.0005
2361.00,0.0005
2360.00,0.0006
2359.00,0.0006
2358.00,0.0006
2357.00,0.0006
2356.00,0.0006
2355.00,0.0006
2354.00,0.0005
2353.00,0.0005
2352.00,0.0004
2351.00,0.0005
2350.00,0.0005
2349.00,0.0007
2348.00,0.0008
2347.00,0.0008
2346.00,0.0008
2345.00,0.0008
2344.00,0.0008
2343.00,0.0009
2342.00,0.0009
2341.00,0.0009
2340.00,0.0009
2339.00,0.0010
2338.00,0.0010
2337.00,0.0010
2336.00,0.0010
2335.00,0.0010
2334.00,0.0009
2333.00,0.0009
2332.00,0.0009
2331.00,0.0008
2330.00,0.0008
2329.00,0.0008
2328.00,0.0010
2327.00,0.0013
2326.00,0.0018
2325.00,0.0021
2324.00,0.0023
2323.00,0.0022
2322.00,0.0020
2321.00,0.0019
2320.00,0.0017
2319.00,0.0016
2318.00,0.0014
2317.00,0.0013
2316.00,0.0012
2315.00,0.0010
2314.00,0.0009
2313.00,0.0009
2312.00,0.0008
2311.00,0.0008
2310.00,0.0008
2309.00,0.0008
2308.00,0.0008
2307.00,0.0008
2306.00,0.0008
2305.00,0.0009
2304.00,0.0010
2303.00,0.0011
2302.00,0.0011
2301.00,0.0011
2300.00,0.0011
2299.00,0.0011
2298.00,0.0012
2297.00,0.0013
2296.00,0.0014
2295.00,0.0015
2294.00,0.0016
2293.00,0.0016
2292.00,0.0016
2291.00,0.0016
2290.00,0.0016
2289.00,0.0016
2288.00,0.0017
2287.00,0.0018
2286.00,0.0018
2285.00,0.0018
2284.00,0.0018
2283.00,0.0018
2282.00,0.0017
2281.00,0.0017
2280.00,0.0016
2279.00,0.0016
2278.00,0.0016
2277.00,0.0016
2276.00,0.0016
2275.00,0.0017
2274.00,0.0017
2273.00,0.0017
2272.00,0.0016
2271.00,0.0015
2270.00,0.0014
2269.00,0.0013
2268.00,0.0013
2267.00,0.0013
2266.00,0.0014
2265.00,0.0013
2264.00,0.0013
2263.00,0.0012
2262.00,0.0012
2261.00,0.0011
2260.00,0.0011
2259.00,0.0012
2258.00,0.0013
2257.00,0.0013
2256.00,0.0012
2255.00,0.0011
2254.00,0.0009
2253.00,0.0009
2252.00,0.0009
2251.00,0.0009
2250.00,0.0007
2249.00,0.0007
2248.00,0.0006
2247.00,0.0007
2246.00,0.0008
2245.00,0.0009
2244.00,0.0009
2243.00,0.0009
2242.00,0.0009
2241.00,0.0009
2240.00,0.0010
2239.00,0.0009
2238.00,0.0008
2237.00,0.0006
2236.00,0.0005
2235.00,0.0004
2234.00,0.0003
2233.00,0.0003
2232.00,0.0004
2231.00,0.0006
2230.00,0.0009
2229.00,0.0010
2228.00,0.0011
2227.00,0.0011
2226.00,0.0010
2225.00,0.0008
2224.00,0.0007
2223.00,0.0006
2222.00,0.0006
2221.00,0.0006
2220.00,0.0006
2219.00,0.0006
2218.00,0.0005
2217.00,0.0005
2216.00,0.0005
2215.00,0.0006
2214.00,0.0007
2213.00,0.0007
2212.00,0.0008
2211.00,0.0008
2210.00,0.0008
2209.00,0.0009
2208.00,0.0009
2207.00,0.0009
2206.00,0.0009
2205.00,0.0008
2204.00,0.0008
2203.00,0.0008
2202.00,0.0008
2201.00,0.0009
2200.00,0.0010
2199.00,0.0011
2198.00,0.0010
2197.00,0.0009
2196.00,0.0009
2195.00,0.0010
2194.00,0.0011
2193.00,0.0012
2192.00,0.0012
2191.00,0.0012
2190.00,0.0012
2189.00,0.0014
2188.00,0.0016
2187.00,0.0016
2186.00,0.0016
2185.00,0.0014
2184.00,0.0012
2183.00,0.0010
2182.00,0.0008
2181.00,0.0008
2180.00,0.0010
2179.00,0.0011
2178.00,0.0010
2177.00,0.0008
2176.00,0.0005
2175.00,0.0003
2174.00,0.0003
2173.00,0.0005
2172.00,0.0008
2171.00,0.0011
2170.00,0.0012
2169.00,0.0012
2168.00,0.0013
2167.00,0.0012
2166.00,0.0010
2165.00,0.0009
2164.00,0.0009
2163.00,0.0009
2162.00,0.0009
2161.00,0.0006
2160.00,-0.0000
2159.00,-0.0009
2158.00,-0.0016
2157.00,-0.0020
2156.00,-0.0021
2155.00,-0.0020
2154.00,-0.0018
2153.00,-0.0015
2152.00,-0.0013
2151.00,-0.0012
2150.00,-0.0012
2149.00,-0.0012
2148.00,-0.0011
2147.00,-0.0010
2146.00,-0.0010
2145.00,-0.0011
2144.00,-0.0012
2143.00,-0.0013
2142.00,-0.0012
2141.00,-0.0012
2140.00,-0.0012
2139.00,-0.0012
2138.00,-0.0013
2137.00,-0.0013
2136.00,-0.0012
2135.00,-0.0013
2134.00,-0.0014
2133.00,-0.0013
2132.00,-0.0012
2131.00,-0.0011
2130.00,-0.0010
2129.00,-0.0009
2128.00,-0.0008
2127.00,-0.0008
2126.00,-0.0008
2125.00,-0.0007
2124.00,-0.0006
2123.00,-0.0005
2122.00,-0.0005
2121.00,-0.0004
2120.00,-0.0003
2119.00,-0.0003
2118.00,-0.0001
2117.00,0.0000
2116.00,0.0001
2115.00,0.0001
2114.00,0.0000
2113.00,0.0000
2112.00,0.0001
2111.00,0.0002
2110.00,0.0003
2109.00,0.0003
2108.00,0.0003
2107.00,0.0002
2106.00,0.0000
2105.00,-0.0001
2104.00,-0.0002
2103.00,-0.0001
2102.00,-0.0000
2101.00,0.0001
2100.00,0.0002
2099.00,0.0002
2098.00,0.0002
2097.00,0.0001
2096.00,-0.0001
2095.00,-0.0003
2094.00,-0.0005
2093.00,-0.0005
2092.00,-0.0004
2091.00,-0.0003
2090.00,-0.0002
2089.00,-0.0000
2088.00,0.0002
2087.00,0.0004
2086.00,0.0005
2085.00,0.0006
2084.00,0.0007
2083.00,0.0007
2082.00,0.0006
2081.00,0.0005
2080.00,0.0006
2079.00,0.0006
2078.00,0.0005
2077.00,0.0005
2076.00,0.0005
2075.00,0.0005
2074.00,0.0004
2073.00,0.0004
2072.00,0.0003
2071.00,0.0002
2070.00,0.0002
2069.00,0.0002
2068.00,0.0001
2067.00,0.0001
2066.00,0.0001
2065.00,0.0002
2064.00,0.0002
2063.00,0.0002
2062.00,0.0002
2061.00,0.0003
2060.00,0.0004
2059.00,0.0003
2058.00,0.0002
2057.00,0.0001
2056.00,0.0000
2055.00,-0.0000
2054.00,0.0000
2053.00,0.0004
2052.00,0.0009
2051.00,0.0014
2050.00,0.0015
2049.00,0.0013
2048.00,0.0009
2047.00,0.0004
2046.00,0.0000
2045.00,-0.0002
2044.00,-0.0003
2043.00,-0.0002
2042.00,-0.0001
2041.00,0.0001
2040.00,0.0003
2039.00,0.0003
2038.00,0.0002
2037.00,-0.0001
2036.00,-0.0003
2035.00,-0.0004
2034.00,-0.0004
2033.00,-0.0002
2032.00,-0.0002
2031.00,-0.0002
2030.00,-0.0004
2029.00,-0.0005
2028.00,-0.0007
2027.00,-0.0010
2026.00,-0.0013
2025.00,-0.0015
2024.00,-0.0015
2023.00,-0.0013
2022.00,-0.0011
2021.00,-0.0010
2020.00,-0.0010
2019.00,-0.0009
2018.00,-0.0007
2017.00,-0.0005
2016.00,-0.0003
2015.00,-0.0003
2014.00,-0.0004
2013.00,-0.0005
2012.00,-0.0006
2011.00,-0.0007
2010.00,-0.0010
2009.00,-0.0013
2008.00,-0.0015
2007.00,-0.0016
2006.00,-0.0017
2005.00,-0.0017
2004.00,-0.0017
2003.00,-0.0018
2002.00,-0.0018
2001.00,-0.0016
2000.00,-0.0013
1999.00,-0.0011
1998.00,-0.0010
1997.00,-0.0011
1996.00,-0.0012
1995.00,-0.0012
1994.00,-0.0010
1993.00,-0.0008
1992.00,-0.0006
1991.00,-0.0006
1990.00,-0.0007
1989.00,-0.0007
1988.00,-0.0006
1987.00,-0.0004
1986.00,-0.0004
1985.00,-0.0003
1984.00,-0.0002
1983.00,0.0000
1982.00,0.0004
1981.00,0.0008
1980.00,0.0009
1979.00,0.0006
1978.00,-0.0002
1977.00,-0.0010
1976.00,-0.0013
1975.00,-0.0014
1974.00,-0.0013
1973.00,-0.0012
1972.00,-0.0011
1971.00,-0.0011
1970.00,-0.0013
1969.00,-0.0015
1968.00,-0.0017
1967.00,-0.0017
1966.00,-0.0015
1965.00,-0.0013
1964.00,-0.0011
1963.00,-0.0011
1962.00,-0.0014
1961.00,-0.0019
1960.00,-0.0023
1959.00,-0.0025
1958.00,-0.0024
1957.00,-0.0019
1956.00,-0.0014
1955.00,-0.0011
1954.00,-0.0011
1953.00,-0.0013
1952.00,-0.0015
1951.00,-0.0016
1950.00,-0.0016
1949.00,-0.0016
1948.00,-0.0016
1947.00,-0.0016
1946.00,-0.0016
1945.00,-0.0015
1944.00,-0.0014
1943.00,-0.0014
1942.00,-0.0014
1941.00,-0.0014
1940.00,-0.0013
1939.00,-0.0012
1938.00,-0.0011
1937.00,-0.0010
1936.00,-0.0008
1935.00,-0.0008
1934.00,-0.0008
1933.00,-0.0007
1932.00,-0.0008
1931.00,-0.0008
1930.00,-0.0008
1929.00,-0.0008
1928.00,-0.0007
1927.00,-0.0008
1926.00,-0.0009
1925.00,-0.0009
1924.00,-0.0008
1923.00,-0.0007
1922.00,-0.0006
1921.00,-0.0005
1920.00,-0.0004
1919.00,-0.0004
1918.00,-0.0005
1917.00,-0.0006
1916.00,-0.0006
1915.00,-0.0007
1914.00,-0.0007
1913.00,-0.0006
1912.00,-0.0005
1911.00,-0.0003
1910.00,-0.0002
1909.00,-0.0001
1908.00,-0.0001
1907.00,-0.0002
1906.00,-0.0002
1905.00,-0.0003
1904.00,-0.0004
1903.00,-0.0004
1902.00,-0.0004
1901.00,-0.0004
1900.00,-0.0003
1899.00,-0.0002
1898.00,-0.0002
1897.00,-0.0001
1896.00,-0.0001
1895.00,-0.0001
1894.00,-0.0001
1893.00,-0.0001
1892.00,-0.0001
1891.00,-0.0000
1890.00,0.0000
1889.00,0.0000
1888.00,0.0000
1887.00,0.0000
1886.00,-0.0000
1885.00,-0.0001
1884.00,-0.0001
1883.00,-0.0001
1882.00,-0.0001
1881.00,-0.0001
1880.00,-0.0001
1879.00,-0.0001
1878.00,-0.0001
1877.00,-0.0001
1876.00,-0.0000
1875.00,0.0000
1874.00,0.0001
1873.00,0.0001
1872.00,0.0001
1871.00,0.0001
1870.00,0.0001
1869.00,0.0000
1868.00,0.0000
1867.00,0.0000
1866.00,-0.0000
1865.00,-0.0001
1864.00,-0.0001
1863.00,-0.0000
1862.00,0.0000
1861.00,0.0001
1860.00,0.0002
1859.00,0.0001
1858.00,0.0000
1857.00,-0.0001
1856.00,-0.0001
1855.00,-0.0001
1854.00,-0.0001
1853.00,0.0000
1852.00,0.0001
1851.00,0.0002
1850.00,0.0001
1849.00,0.0001
1848.00,0.0000
1847.00,-0.0000
1846.00,-0.0000
1845.00,0.0001
1844.00,0.0002
1843.00,0.0003
1842.00,0.0003
1841.00,0.0003
1840.00,0.0003
1839.00,0.0003
1838.00,0.0002
1837.00,0.0002
1836.00,0.0001
1835.00,0.0001
1834.00,0.0001
1833.00,0.0002
1832.00,0.0002
1831.00,0.0003
1830.00,0.0003
1829.00,0.0004
1828.00,0.0005
1827.00,0.0004
1826.00,0.0003
1825.00,0.0002
1824.00,0.0002
1823.00,0.0002
1822.00,0.0002
1821.00,0.0003
1820.00,0.0002
1819.00,0.0001
1818.00,-0.0000
1817.00,-0.0001
1816.00,-0.0001
1815.00,-0.0000
1814.00,0.0001
1813.00,0.0001
1812.00,0.0002
1811.00,0.0003
1810.00,0.0003
1809.00,0.0003
1808.00,0.0004
1807.00,0.0004
1806.00,0.0004
1805.00,0.0005
1804.00,0.0005
1803.00,0.0005
1802.00,0.0005
1801.00,0.0005
1800.00,0.0005
1799.00,0.0005
1798.00,0.0005
1797.00,0.0006
1796.00,0.0006
1795.00,0.0006
1794.00,0.0006
1793.00,0.0006
1792.00,0.0007
1791.00,0.0008
1790.00,0.0008
1789.00,0.0007
1788.00,0.0007
1787.00,0.0006
1786.00,0.0006
1785.00,0.0006
1784.00,0.0007
1783.00,0.0007
1782.00,0.0007
1781.00,0.0007
1780.00,0.0008
1779.00,0.0008
1778.00,0.0008
1777.00,0.0008
1776.00,0.0008
1775.00,0.0008
1774.00,0.0008
1773.00,0.0009
1772.00,0.0010
1771.00,0.0011
1770.00,0.0011
1769.00,0.0012
1768.00,0.0011
1767.00,0.0011
1766.00,0.0011
1765.00,0.0011
1764.00,0.0011
1763.00,0.0011
1762.00,0.0012
1761.00,0.0013
1760.00,0.0014
1759.00,0.0015
1758.00,0.0015
1757.00,0.0015
1756.00,0.0016
1755.00,0.0016
1754.00,0.0016
1753.00,0.0017
1752.00,0.0018
1751.00,0.0019
1750.00,0.0020
1749.00,0.0021
1748.00,0.0022
1747.00,0.0023
1746.00,0.0024
1745.00,0.0025
1744.00,0.0026
1743.00,0.0027
1742.00,0.0028
1741.00,0.0028
1740.00,0.0028
1739.00,0.0028
1738.00,0.0028
1737.00,0.0028
1736.00,0.0028
1735.00,0.0028
1734.00,0.0027
1733.00,0.0027
1732.00,0.0027
1731.00,0.0027
1730.00,0.0027
1729.00,0.0027
1728.00,0.0028
1727.00,0.0028
1726.00,0.0028
1725.00,0.0028
1724.00,0.0028
1723.00,0.0027
1722.00,0.0026
1721.00,0.0026
1720.00,0.0026
1719.00,0.0026
1718.00,0.0026
1717.00,0.0026
1716.00,0.0026
1715.00,0.0026
1714.00,0.0025
1713.00,0.0025
1712.00,0.0025
1711.00,0.0025
1710.00,0.0026
1709.00,0.0026
1708.00,0.0026
1707.00,0.0025
1706.00,0.0025
1705.00,0.0025
1704.00,0.0026
1703.00,0.0027
1702.00,0.0028
1701.00,0.0028
1700.00,0.0028
1699.00,0.0028
1698.00,0.0028
1697.00,0.0029
1696.00,0.0030
1695.00,0.0032
1694.00,0.0032
1693.00,0.0033
1692.00,0.0033
1691.00,0.0033
1690.00,0.0034
1689.00,0.0035
1688.00,0.0036
1687.00,0.0037
1686.00,0.0038
1685.00,0.0039
1684.00,0.0040
1683.00,0.0041
1682.00,0.0041
1681.00,0.0042
1680.00,0.0043
1679.00,0.0043
1678.00,0.0043
1677.00,0.0044
1676.00,0.0045
1675.00,0.0046
1674.00,0.0047
1673.00,0.0048
1672.00,0.0049
1671.00,0.0050
1670.00,0.0051
1669.00,0.0051
1668.00,0.0052
1667.00,0.0053
1666.00,0.0053
1665.00,0.0053
1664.00,0.0054
1663.00,0.0055
1662.00,0.0056
1661.00,0.0057
1660.00,0.0058
1659.00,0.0058
1658.00,0.0059
1657.00,0.0059
1656.00,0.0060
1655.00,0.0060
1654.00,0.0061
1653.00,0.0064
1652.00,0.0066
1651.00,0.0067
1650.00,0.0067
1649.00,0.0068
1648.00,0.0069
1647.00,0.0071
1646.00,0.0072
1645.00,0.0072
1644.00,0.0072
1643.00,0.0072
1642.00,0.0072
1641.00,0.0072
1640.00,0.0073
1639.00,0.0073
1638.00,0.0074
1637.00,0.0074
1636.00,0.0075
1635.00,0.0075
1634.00,0.0074
1633.00,0.0074
1632.00,0.0073
1631.00,0.0073
1630.00,0.0072
1629.00,0.0072
1628.00,0.0072
1627.00,0.0071
1626.00,0.0070
1625.00,0.0070
1624.00,0.0069
1623.00,0.0069
1622.00,0.0068
1621.00,0.0068
1620.00,0.0067
1619.00,0.0067
1618.00,0.0066
1617.00,0.0066
1616.00,0.0066
1615.00,0.0066
1614.00,0.0066
1613.00,0.0066
1612.00,0.0066
1611.00,0.0065
1610.00,0.0065
1609.00,0.0065
1608.00,0.0065
1607.00,0.0065
1606.00,0.0066
1605.00,0.0066
1604.00,0.0066
1603.00,0.0066
1602.00,0.0066
1601.00,0.0066
1600.00,0.0066
1599.00,0.0065
1598.00,0.0065
1597.00,0.0065
1596.00,0.0065
1595.00,0.0065
1594.00,0.0065
1593.00,0.0065
1592.00,0.0066
1591.00,0.0066
1590.00,0.0067
1589.00,0.0068
1588.00,0.0070
1587.00,0.0072
1586.00,0.0074
1585.00,0.0077
1584.00,0.0081
1583.00,0.0084
1582.00,0.0088
1581.00,0.0092
1580.00,0.0096
1579.00,0.0099
1578.00,0.0102
1577.00,0.0104
1576.00,0.0104
1575.00,0.0103
1574.00,0.0101
1573.00,0.0099
1572.00,0.0097
1571.00,0.0094
1570.00,0.0090
1569.00,0.0087
1568.00,0.0085
1567.00,0.0083
1566.00,0.0082
1565.00,0.0081
1564.00,0.0080
1563.00,0.0080
1562.00,0.0080
1561.00,0.0080
1560.00,0.0080
1559.00,0.0080
1558.00,0.0081
1557.00,0.0082
1556.00,0.0083
1555.00,0.0084
1554.00,0.0085
1553.00,0.0086
1552.00,0.0088
1551.00,0.0089
1550.00,0.0091
1549.00,0.0094
1548.00,0.0097
1547.00,0.0100
1546.00,0.0104
1545.00,0.0108
1544.00,0.0112
1543.00,0.0116
1542.00,0.0118
1541.00,0.0119
1540.00,0.0117
1539.00,0.0112
1538.00,0.0107
1537.00,0.0103
1536.00,0.0099
1535.00,0.0094
1534.00,0.0088
1533.00,0.0082
1532.00,0.0079
1531.00,0.0076
1530.00,0.0074
1529.00,0.0072
1528.00,0.0071
1527.00,0.0069
1526.00,0.0068
1525.00,0.0067
1524.00,0.0067
1523.00,0.0067
1522.00,0.0067
1521.00,0.0067
1520.00,0.0066
1519.00,0.0066
1518.00,0.0066
1517.00,0.0066
1516.00,0.0067
1515.00,0.0067
1514.00,0.0066
1513.00,0.0066
1512.00,0.0066
1511.00,0.0066
1510.00,0.0067
1509.00,0.0068
1508.00,0.0069
1507.00,0.0070
1506.00,0.0071
1505.00,0.0072
1504.00,0.0073
1503.00,0.0074
1502.00,0.0075
1501.00,0.0078
1500.00,0.0080
1499.00,0.0082
1498.00,0.0084
1497.00,0.0088
1496.00,0.0092
1495.00,0.0094
1494.00,0.0096
1493.00,0.0100
1492.00,0.0104
1491.00,0.0108
1490.00,0.0113
1489.00,0.0119
1488.00,0.0125
1487.00,0.0131
1486.00,0.0136
1485.00,0.0144
1484.00,0.0153
1483.00,0.0161
1482.00,0.0172
1481.00,0.0184
1480.00,0.0198
1479.00,0.0212
1478.00,0.0228
1477.00,0.0249
1476.00,0.0275
1475.00,0.0304
1474.00,0.0343
1473.00,0.0398
1472.00,0.0463
1471.00,0.0525
1470.00,0.0586
1469.00,0.0649
1468.00,0.0716
1467.00,0.0789
1466.00,0.0871
1465.00,0.0958
1464.00,0.1035
1463.00,0.1087
1462.00,0.1121
1461.00,0.1143
1460.00,0.1159
1459.00,0.1170
1458.00,0.1181
1457.00,0.1189
1456.00,0.1189
1455.00,0.1181
1454.00,0.1170
1453.00,0.1153
1452.00,0.1128
1451.00,0.1091
1450.00,0.1042
1449.00,0.0974
1448.00,0.0887
1447.00,0.0795
1446.00,0.0711
1445.00,0.0639
1444.00,0.0577
1443.00,0.0525
1442.00,0.0486
1441.00,0.0459
1440.00,0.0441
1439.00,0.0434
1438.00,0.0433
1437.00,0.0432
1436.00,0.0421
1435.00,0.0397
1434.00,0.0364
1433.00,0.0323
1432.00,0.0281
1431.00,0.0244
1430.00,0.0214
1429.00,0.0191
1428.00,0.0176
1427.00,0.0167
1426.00,0.0161
1425.00,0.0155
1424.00,0.0150
1423.00,0.0146
1422.00,0.0145
1421.00,0.0142
1420.00,0.0139
1419.00,0.0136
1418.00,0.0134
1417.00,0.0130
1416.00,0.0127
1415.00,0.0125
1414.00,0.0123
1413.00,0.0120
1412.00,0.0118
1411.00,0.0117
1410.00,0.0117
1409.00,0.0116
1408.00,0.0114
1407.00,0.0114
1406.00,0.0113
1405.00,0.0112
1404.00,0.0110
1403.00,0.0110
1402.00,0.0111
1401.00,0.0111
1400.00,0.0111
1399.00,0.0112
1398.00,0.0113
1397.00,0.0114
1396.00,0.0115
1395.00,0.0118
1394.00,0.0123
1393.00,0.0127
1392.00,0.0132
1391.00,0.0139
1390.00,0.0148
1389.00,0.0161
1388.00,0.0181
1387.00,0.0212
1386.00,0.0254
1385.00,0.0310
1384.00,0.0386
1383.00,0.0492
1382.00,0.0634
1381.00,0.0815
1380.00,0.1036
1379.00,0.1283
1378.00,0.1515
1377.00,0.1678
1376.00,0.1725
1375.00,0.1629
1374.00,0.1421
1373.00,0.1174
1372.00,0.0950
1371.00,0.0767
1370.00,0.0622
1369.00,0.0512
1368.00,0.0436
1367.00,0.0388
1366.00,0.0362
1365.00,0.0352
1364.00,0.0353
1363.00,0.0366
1362.00,0.0384
1361.00,0.0404
1360.00,0.0418
1359.00,0.0422
1358.00,0.0412
1357.00,0.0390
1356.00,0.0359
1355.00,0.0323
1354.00,0.0289
1353.00,0.0259
1352.00,0.0235
1351.00,0.0216
1350.00,0.0199
1349.00,0.0185
1348.00,0.0173
1347.00,0.0163
1346.00,0.0155
1345.00,0.0149
1344.00,0.0143
1343.00,0.0138
1342.00,0.0134
1341.00,0.0131
1340.00,0.0128
1339.00,0.0127
1338.00,0.0126
1337.00,0.0126
1336.00,0.0126
1335.00,0.0127
1334.00,0.0129
1333.00,0.0132
1332.00,0.0135
1331.00,0.0138
1330.00,0.0139
1329.00,0.0138
1328.00,0.0136
1327.00,0.0132
1326.00,0.0127
1325.00,0.0121
1324.00,0.0116
1323.00,0.0111
1322.00,0.0107
1321.00,0.0105
1320.00,0.0103
1319.00,0.0101
1318.00,0.0100
1317.00,0.0099
1316.00,0.0097
1315.00,0.0097
1314.00,0.0096
1313.00,0.0097
1312.00,0.0098
1311.00,0.0101
1310.00,0.0105
1309.00,0.0112
1308.00,0.0121
1307.00,0.0133
1306.00,0.0145
1305.00,0.0153
1304.00,0.0155
1303.00,0.0152
1302.00,0.0146
1301.00,0.0140
1300.00,0.0136
1299.00,0.0135
1298.00,0.0134
1297.00,0.0134
1296.00,0.0132
1295.00,0.0129
1294.00,0.0125
1293.00,0.0120
1292.00,0.0115
1291.00,0.0111
1290.00,0.0107
1289.00,0.0103
1288.00,0.0100
1287.00,0.0097
1286.00,0.0095
1285.00,0.0093
1284.00,0.0092
1283.00,0.0090
1282.00,0.0089
1281.00,0.0088
1280.00,0.0087
1279.00,0.0087
1278.00,0.0086
1277.00,0.0085
1276.00,0.0084
1275.00,0.0083
1274.00,0.0083
1273.00,0.0083
1272.00,0.0083
1271.00,0.0083
1270.00,0.0084
1269.00,0.0086
1268.00,0.0088
1267.00,0.0090
1266.00,0.0092
1265.00,0.0095
1264.00,0.0097
1263.00,0.0100
1262.00,0.0104
1261.00,0.0109
1260.00,0.0115
1259.00,0.0122
1258.00,0.0130
1257.00,0.0136
1256.00,0.0138
1255.00,0.0136
1254.00,0.0129
1253.00,0.0120
1252.00,0.0111
1251.00,0.0103
1250.00,0.0097
1249.00,0.0093
1248.00,0.0091
1247.00,0.0089
1246.00,0.0088
1245.00,0.0086
1244.00,0.0084
1243.00,0.0083
1242.00,0.0082
1241.00,0.0082
1240.00,0.0082
1239.00,0.0082
1238.00,0.0082
1237.00,0.0083
1236.00,0.0083
1235.00,0.0084
1234.00,0.0086
1233.00,0.0087
1232.00,0.0088
1231.00,0.0089
1230.00,0.0090
1229.00,0.0091
1228.00,0.0093
1227.00,0.0095
1226.00,0.0097
1225.00,0.0100
1224.00,0.0103
1223.00,0.0107
1222.00,0.0110
1221.00,0.0114
1220.00,0.0116
1219.00,0.0117
1218.00,0.0116
1217.00,0.0115
1216.00,0.0112
1215.00,0.0109
1214.00,0.0106
1213.00,0.0103
1212.00,0.0100
1211.00,0.0099
1210.00,0.0097
1209.00,0.0096
1208.00,0.0095
1207.00,0.0094
1206.00,0.0093
1205.00,0.0093
1204.00,0.0093
1203.00,0.0093
1202.00,0.0093
1201.00,0.0093
1200.00,0.0093
1199.00,0.0094
1198.00,0.0095
1197.00,0.0095
1196.00,0.0095
1195.00,0.0095
1194.00,0.0095
1193.00,0.0096
1192.00,0.0096
1191.00,0.0095
1190.00,0.0095
1189.00,0.0094
1188.00,0.0094
1187.00,0.0094
1186.00,0.0095
1185.00,0.0095
1184.00,0.0096
1183.00,0.0096
1182.00,0.0098
1181.00,0.0099
1180.00,0.0102
1179.00,0.0106
1178.00,0.0112
1177.00,0.0121
1176.00,0.0133
1175.00,0.0148
1174.00,0.0169
1173.00,0.0194
1172.00,0.0225
1171.00,0.0258
1170.00,0.0291
1169.00,0.0318
1168.00,0.0333
1167.00,0.0336
1166.00,0.0327
1165.00,0.0310
1164.00,0.0289
1163.00,0.0270
1162.00,0.0253
1161.00,0.0239
1160.00,0.0228
1159.00,0.0218
1158.00,0.0211
1157.00,0.0206
1156.00,0.0202
1155.00,0.0200
1154.00,0.0198
1153.00,0.0196
1152.00,0.0192
1151.00,0.0185
1150.00,0.0176
1149.00,0.0166
1148.00,0.0156
1147.00,0.0147
1146.00,0.0139
1145.00,0.0132
1144.00,0.0125
1143.00,0.0119
1142.00,0.0114
1141.00,0.0110
1140.00,0.0105
1139.00,0.0101
1138.00,0.0098
1137.00,0.0095
1136.00,0.0092
1135.00,0.0090
1134.00,0.0089
1133.00,0.0088
1132.00,0.0087
1131.00,0.0088
1130.00,0.0089
1129.00,0.0090
1128.00,0.0091
1127.00,0.0093
1126.00,0.0094
1125.00,0.0095
1124.00,0.0096
1123.00,0.0096
1122.00,0.0097
1121.00,0.0098
1120.00,0.0099
1119.00,0.0100
1118.00,0.0100
1117.00,0.0100
1116.00,0.0101
1115.00,0.0102
1114.00,0.0104
1113.00,0.0106
1112.00,0.0108
1111.00,0.0110
1110.00,0.0113
1109.00,0.0116
1108.00,0.0120
1107.00,0.0125
1106.00,0.0131
1105.00,0.0136
1104.00,0.0140
1103.00,0.0142
1102.00,0.0141
1101.00,0.0138
1100.00,0.0133
1099.00,0.0127
1098.00,0.0121
1097.00,0.0116
1096.00,0.0112
1095.00,0.0109
1094.00,0.0106
1093.00,0.0103
1092.00,0.0100
1091.00,0.0098
1090.00,0.0096
1089.00,0.0094
1088.00,0.0093
1087.00,0.0092
1086.00,0.0092
1085.00,0.0092
1084.00,0.0091
1083.00,0.0091
1082.00,0.0090
1081.00,0.0089
1080.00,0.0088
1079.00,0.0087
1078.00,0.0086
1077.00,0.0085
1076.00,0.0084
1075.00,0.0083
1074.00,0.0081
1073.00,0.0080
1072.00,0.0080
1071.00,0.0080
1070.00,0.0080
1069.00,0.0080
1068.00,0.0080
1067.00,0.0081
1066.00,0.0082
1065.00,0.0083
1064.00,0.0084
1063.00,0.0085
1062.00,0.0086
1061.00,0.0086
1060.00,0.0087
1059.00,0.0087
1058.00,0.0088
1057.00,0.0089
1056.00,0.0091
1055.00,0.0093
1054.00,0.0097
1053.00,0.0101
1052.00,0.0105
1051.00,0.0109
1050.00,0.0113
1049.00,0.0117
1048.00,0.0122
1047.00,0.0127
1046.00,0.0132
1045.00,0.0136
1044.00,0.0137
1043.00,0.0137
1042.00,0.0135
1041.00,0.0132
1040.00,0.0131
1039.00,0.0131
1038.00,0.0132
1037.00,0.0133
1036.00,0.0134
1035.00,0.0134
1034.00,0.0133
1033.00,0.0132
1032.00,0.0130
1031.00,0.0128
1030.00,0.0126
1029.00,0.0126
1028.00,0.0125
1027.00,0.0126
1026.00,0.0127
1025.00,0.0128
1024.00,0.0130
1023.00,0.0132
1022.00,0.0134
1021.00,0.0136
1020.00,0.0138
1019.00,0.0140
1018.00,0.0141
1017.00,0.0143
1016.00,0.0145
1015.00,0.0147
1014.00,0.0149
1013.00,0.0150
1012.00,0.0151
1011.00,0.0152
1010.00,0.0153
1009.00,0.0153
1008.00,0.0155
1007.00,0.0159
1006.00,0.0166
1005.00,0.0177
1004.00,0.0193
1003.00,0.0216
1002.00,0.0249
1001.00,0.0290
1000.00,0.0333
999.00,0.0370
998.00,0.0389
997.00,0.0382
996.00,0.0352
995.00,0.0308
994.00,0.0263
993.00,0.0223
992.00,0.0192
991.00,0.0170
990.00,0.0154
989.00,0.0143
988.00,0.0136
987.00,0.0131
986.00,0.0129
985.00,0.0129
984.00,0.0132
983.00,0.0138
982.00,0.0149
981.00,0.0165
980.00,0.0188
979.00,0.0218
978.00,0.0256
977.00,0.0300
976.00,0.0348
975.00,0.0394
974.00,0.0428
973.00,0.0441
972.00,0.0425
971.00,0.0384
970.00,0.0329
969.00,0.0272
968.00,0.0223
967.00,0.0186
966.00,0.0160
965.00,0.0141
964.00,0.0127
963.00,0.0117
962.00,0.0110
961.00,0.0104
960.00,0.0098
959.00,0.0092
958.00,0.0088
957.00,0.0084
956.00,0.0081
955.00,0.0079
954.00,0.0077
953.00,0.0075
952.00,0.0074
951.00,0.0073
950.00,0.0073
949.00,0.0073
948.00,0.0073
947.00,0.0074
946.00,0.0076
945.00,0.0078
944.00,0.0082
943.00,0.0085
942.00,0.0089
941.00,0.0090
940.00,0.0090
939.00,0.0089
938.00,0.0085
937.00,0.0081
936.00,0.0076
935.00,0.0072
934.00,0.0070
933.00,0.0068
932.00,0.0067
931.00,0.0066
930.00,0.0066
929.00,0.0067
928.00,0.0067
927.00,0.0068
926.00,0.0069
925.00,0.0068
924.00,0.0067
923.00,0.0066
922.00,0.0065
921.00,0.0064
920.00,0.0065
919.00,0.0066
918.00,0.0067
917.00,0.0068
916.00,0.0069
915.00,0.0070
914.00,0.0071
913.00,0.0072
912.00,0.0072
911.00,0.0073
910.00,0.0074
909.00,0.0076
908.00,0.0079
907.00,0.0084
906.00,0.0090
905.00,0.0100
904.00,0.0113
903.00,0.0129
902.00,0.0147
901.00,0.0163
900.00,0.0172
899.00,0.0173
898.00,0.0166
897.00,0.0152
896.00,0.0136
895.00,0.0120
894.00,0.0107
893.00,0.0098
892.00,0.0091
891.00,0.0086
890.00,0.0083
889.00,0.0081
888.00,0.0080
887.00,0.0079
886.00,0.0078
885.00,0.0076
884.00,0.0075
883.00,0.0076
882.00,0.0077
881.00,0.0078
880.00,0.0078
879.00,0.0077
878.00,0.0077
877.00,0.0077
876.00,0.0078
875.00,0.0078
874.00,0.0079
873.00,0.0080
872.00,0.0080
871.00,0.0080
870.00,0.0079
869.00,0.0079
868.00,0.0080
867.00,0.0082
866.00,0.0084
865.00,0.0086
864.00,0.0087
863.00,0.0088
862.00,0.0088
861.00,0.0088
860.00,0.0088
859.00,0.0089
858.00,0.0090
857.00,0.0091
856.00,0.0094
855.00,0.0097
854.00,0.0100
853.00,0.0104
852.00,0.0108
851.00,0.0112
850.00,0.0116
849.00,0.0122
848.00,0.0130
847.00,0.0144
846.00,0.0167
845.00,0.0203
844.00,0.0254
843.00,0.0313
842.00,0.0361
841.00,0.0377
840.00,0.0353
839.00,0.0300
838.00,0.0241
837.00,0.0194
836.00,0.0163
835.00,0.0144
834.00,0.0132
833.00,0.0123
832.00,0.0118
831.00,0.0114
830.00,0.0112
829.00,0.0110
828.00,0.0108
827.00,0.0105
826.00,0.0102
825.00,0.0100
824.00,0.0099
823.00,0.0100
822.00,0.0101
821.00,0.0103
820.00,0.0105
819.00,0.0106
818.00,0.0109
817.00,0.0113
816.00,0.0121
815.00,0.0131
814.00,0.0145
813.00,0.0162
812.00,0.0180
811.00,0.0197
810.00,0.0209
809.00,0.0213
808.00,0.0208
807.00,0.0197
806.00,0.0181
805.00,0.0165
804.00,0.0151
803.00,0.0140
802.00,0.0131
801.00,0.0125
800.00,0.0119
799.00,0.0114
798.00,0.0109
797.00,0.0106
796.00,0.0103
795.00,0.0100
794.00,0.0097
793.00,0.0094
792.00,0.0091
791.00,0.0087
790.00,0.0084
789.00,0.0081
788.00,0.0080
787.00,0.0080
786.00,0.0079
785.00,0.0077
784.00,0.0076
783.00,0.0075
782.00,0.0074
781.00,0.0073
780.00,0.0071
779.00,0.0068
778.00,0.0066
777.00,0.0065
776.00,0.0065
775.00,0.0066
774.00,0.0068
773.00,0.0068
772.00,0.0069
771.00,0.0068
770.00,0.0068
769.00,0.0068
768.00,0.0069
767.00,0.0070
766.00,0.0071
765.00,0.0071
764.00,0.0070
763.00,0.0070
762.00,0.0072
761.00,0.0074
760.00,0.0076
759.00,0.0077
758.00,0.0077
757.00,0.0076
756.00,0.0076
755.00,0.0075
754.00,0.0075
753.00,0.0077
752.00,0.0080
751.00,0.0083
750.00,0.0085
749.00,0.0086
748.00,0.0086
747.00,0.0087
746.00,0.0089
745.00,0.0092
744.00,0.0095
743.00,0.0098
742.00,0.0100
741.00,0.0103
740.00,0.0107
739.00,0.0112
738.00,0.0117
737.00,0.0122
736.00,0.0125
735.00,0.0129
734.00,0.0133
733.00,0.0139
732.00,0.0146
731.00,0.0153
730.00,0.0159
729.00,0.0163
728.00,0.0165
727.00,0.0165
726.00,0.0166
725.00,0.0169
724.00,0.0173
723.00,0.0178
722.00,0.0183
721.00,0.0186
720.00,0.0183
719.00,0.0176
718.00,0.0164
717.00,0.0151
716.00,0.0139
715.00,0.0130
714.00,0.0124
713.00,0.0119
712.00,0.0116
711.00,0.0113
710.00,0.0112
709.00,0.0112
708.00,0.0112
707.00,0.0111
706.00,0.0111
705.00,0.0110
704.00,0.0109
703.00,0.0108
702.00,0.0107
701.00,0.0106
700.00,0.0103
699.00,0.0101
698.00,0.0099
697.00,0.0097
696.00,0.0096
695.00,0.0095
694.00,0.0096
693.00,0.0096
692.00,0.0098
691.00,0.0099
690.00,0.0101
689.00,0.0101
688.00,0.0101
687.00,0.0100
686.00,0.0101
685.00,0.0103
684.00,0.0103
683.00,0.0102
682.00,0.0102
681.00,0.0102
680.00,0.0101
679.00,0.0101
678.00,0.0099
677.00,0.0098
676.00,0.0098
675.00,0.0099
674.00,0.0102
673.00,0.0107
672.00,0.0111
671.00,0.0115
670.00,0.0117
669.00,0.0117
668.00,0.0115
667.00,0.0111
666.00,0.0107
665.00,0.0103
664.00,0.0101
663.00,0.0099
662.00,0.0098
661.00,0.0096
660.00,0.0095
659.00,0.0095
658.00,0.0094
657.00,0.0092
656.00,0.0091
655.00,0.0089
654.00,0.0088
653.00,0.0088
652.00,0.0089
651.00,0.0091
650.00,0.0092
649.00,0.0090
648.00,0.0088
647.00,0.0087
646.00,0.0088
645.00,0.0089
644.00,0.0089
643.00,0.0090
642.00,0.0091
641.00,0.0092
640.00,0.0092
639.00,0.0091
638.00,0.0090
637.00,0.0090
636.00,0.0089
635.00,0.0090
634.00,0.0090
633.00,0.0090
632.00,0.0090
631.00,0.0091
630.00,0.0091
629.00,0.0092
628.00,0.0092
627.00,0.0091
626.00,0.0091
625.00,0.0091
624.00,0.0090
623.00,0.0091
622.00,0.0091
621.00,0.0093
620.00,0.0093
619.00,0.0094
618.00,0.0096
617.00,0.0098
616.00,0.0099
615.00,0.0098
614.00,0.0096
613.00,0.0093
612.00,0.0091
611.00,0.0089
610.00,0.0088
609.00,0.0088
608.00,0.0089
607.00,0.0091
606.00,0.0094
605.00,0.0095
604.00,0.0093
603.00,0.0090
602.00,0.0086
601.00,0.0084
600.00,0.0084
599.00,0.0085
598.00,0.0086
597.00,0.0086
596.00,0.0087
595.00,0.0089
594.00,0.0090
593.00,0.0090
592.00,0.0088
591.00,0.0086
590.00,0.0087
589.00,0.0089
588.00,0.0092
587.00,0.0095
586.00,0.0096
585.00,0.0096
584.00,0.0095
583.00,0.0094
582.00,0.0092
581.00,0.0091
580.00,0.0092
579.00,0.0093
578.00,0.0094
577.00,0.0091
576.00,0.0087
575.00,0.0084
574.00,0.0086
573.00,0.0090
572.00,0.0094
571.00,0.0098
570.00,0.0102
569.00,0.0104
568.00,0.0104
567.00,0.0103
566.00,0.0102
565.00,0.0100
564.00,0.0097
563.00,0.0094
562.00,0.0094
561.00,0.0096
560.00,0.0097
559.00,0.0096
558.00,0.0091
557.00,0.0085
556.00,0.0080
555.00,0.0080
554.00,0.0082
553.00,0.0086
552.00,0.0090
551.00,0.0096
550.00,0.0101
549.00,0.0102
548.00,0.0098
547.00,0.0095
546.00,0.0094
545.00,0.0096
544.00,0.0099
543.00,0.0103
542.00,0.0106
541.00,0.0108
540.00,0.0107
539.00,0.0106
538.00,0.0108
537.00,0.0115
536.00,0.0123
535.00,0.0130
534.00,0.0132
533.00,0.0128
532.00,0.0122
531.00,0.0115
530.00,0.0110
529.00,0.0106
528.00,0.0104
527.00,0.0104
526.00,0.0107
525.00,0.0111
524.00,0.0114
523.00,0.0113
522.00,0.0110
521.00,0.0106
520.00,0.0102
519.00,0.0097
518.00,0.0092
517.00,0.0089
516.00,0.0088
515.00,0.0090
514.00,0.0093
513.00,0.0096
512.00,0.0097
511.00,0.0100
510.00,0.0103
509.00,0.0103
508.00,0.0099
507.00,0.0093
506.00,0.0091
505.00,0.0093
504.00,0.0098
503.00,0.0105
502.00,0.0112
501.00,0.0117
500.00,0.0116
499.00,0.0112
498.00,0.0109
497.00,0.0107
496.00,0.0105
495.00,0.0101
494.00,0.0096
493.00,0.0092
492.00,0.0090
491.00,0.0091
490.00,0.0094
489.00,0.0097
488.00,0.0098
487.00,0.0096
486.00,0.0095
485.00,0.0097
484.00,0.0101
483.00,0.0104
482.00,0.0102
481.00,0.0098
480.00,0.0097
479.00,0.0101
478.00,0.0111
477.00,0.0120
476.00,0.0124
475.00,0.0121
474.00,0.0116
473.00,0.0115
472.00,0.0122
471.00,0.0138
470.00,0.0158
469.00,0.0173
468.00,0.0180
467.00,0.0182
466.00,0.0183
465.00,0.0187
464.00,0.0190
463.00,0.0194
462.00,0.0198
461.00,0.0205
460.00,0.0214
459.00,0.0222
458.00,0.0222
457.00,0.0214
456.00,0.0204
455.00,0.0196
454.00,0.0190
453.00,0.0180
452.00,0.0171
451.00,0.0166
450.00,0.0166
