Created as New Dataset,Sample 025 By Administrator Date Wednesday, September 03 2025
cm-1,A
4000.00,0.0009
3999.00,0.0009
3998.00,0.0009
3997.00,0.0009
3996.00,0.0010
3995.00,0.0010
3994.00,0.0010
3993.00,0.0010
3992.00,0.0010
3991.00,0.0010
3990.00,0.0010
3989.00,0.0010
3988.00,0.0010
3987.00,0.0009
3986.00,0.0009
3985.00,0.0009
3984.00,0.0009
3983.00,0.0009
3982.00,0.0009
3981.00,0.0009
3980.00,0.0009
3979.00,0.0009
3978.00,0.0009
3977.00,0.0009
3976.00,0.0010
3975.00,0.0010
3974.00,0.0010
3973.00,0.0010
3972.00,0.0010
3971.00,0.0009
3970.00,0.0009
3969.00,0.0009
3968.00,0.0009
3967.00,0.0009
3966.00,0.0009
3965.00,0.0008
3964.00,0.0008
3963.00,0.0008
3962.00,0.0008
3961.00,0.0008
3960.00,0.0008
3959.00,0.0009
3958.00,0.0009
3957.00,0.0009
3956.00,0.0009
3955.00,0.0008
3954.00,0.0008
3953.00,0.0008
3952.00,0.0008
3951.00,0.0008
3950.00,0.0008
3949.00,0.0008
3948.00,0.0008
3947.00,0.0008
3946.00,0.0008
3945.00,0.0009
3944.00,0.0009
3943.00,0.0008
3942.00,0.0008
3941.00,0.0008
3940.00,0.0008
3939.00,0.0008
3938.00,0.0008
3937.00,0.0008
3936.00,0.0009
3935.00,0.0009
3934.00,0.0009
3933.00,0.0009
3932.00,0.0009
3931.00,0.0009
3930.00,0.0008
3929.00,0.0008
3928.00,0.0008
3927.00,0.0008
3926.00,0.0008
3925.00,0.0008
3924.00,0.0008
3923.00,0.0008
3922.00,0.0008
3921.00,0.0008
3920.00,0.0008
3919.00,0.0008
3918.00,0.0008
3917.00,0.0008
3916.00,0.0008
3915.00,0.0008
3914.00,0.0008
3913.00,0.0008
3912.00,0.0008
3911.00,0.0008
3910.00,0.0008
3909.00,0.0008
3908.00,0.0008
3907.00,0.0008
3906.00,0.0008
3905.00,0.0007
3904.00,0.0007
3903.00,0.0007
3902.00,0.0008
3901.00,0.0008
3900.00,0.0008
3899.00,0.0008
3898.00,0.0009
3897.00,0.0009
3896.00,0.0009
3895.00,0.0009
3894.00,0.0009
3893.00,0.0008
3892.00,0.0008
3891.00,0.0008
3890.00,0.0008
3889.00,0.0008
3888.00,0.0008
3887.00,0.0007
3886.00,0.0007
3885.00,0.0007
3884.00,0.0007
3883.00,0.0007
3882.00,0.0008
3881.00,0.0008
3880.00,0.0008
3879.00,0.0008
3878.00,0.0008
3877.00,0.0008
3876.00,0.0008
3875.00,0.0008
3874.00,0.0008
3873.00,0.0008
3872.00,0.0008
3871.00,0.0008
3870.00,0.0008
3869.00,0.0007
3868.00,0.0007
3867.00,0.0007
3866.00,0.0007
3865.00,0.0007
3864.00,0.0008
3863.00,0.0008
3862.00,0.0008
3861.00,0.0007
3860.00,0.0007
3859.00,0.0006
3858.00,0.0006
3857.00,0.0006
3856.00,0.0007
3855.00,0.0006
3854.00,0.0006
3853.00,0.0006
3852.00,0.0006
3851.00,0.0006
3850.00,0.0007
3849.00,0.0007
3848.00,0.0008
3847.00,0.0008
3846.00,0.0008
3845.00,0.0008
3844.00,0.0007
3843.00,0.0007
3842.00,0.0006
3841.00,0.0006
3840.00,0.0006
3839.00,0.0006
3838.00,0.0007
3837.00,0.0007
3836.00,0.0007
3835.00,0.0006
3834.00,0.0006
3833.00,0.0006
3832.00,0.0006
3831.00,0.0006
3830.00,0.0006
3829.00,0.0007
3828.00,0.0007
3827.00,0.0007
3826.00,0.0008
3825.00,0.0008
3824.00,0.0007
3823.00,0.0006
3822.00,0.0005
3821.00,0.0005
3820.00,0.0005
3819.00,0.0005
3818.00,0.0005
3817.00,0.0005
3816.00,0.0006
3815.00,0.0006
3814.00,0.0007
3813.00,0.0007
3812.00,0.0007
3811.00,0.0007
3810.00,0.0007
3809.00,0.0007
3808.00,0.0007
3807.00,0.0006
3806.00,0.0006
3805.00,0.0006
3804.00,0.0006
3803.00,0.0006
3802.00,0.0006
3801.00,0.0006
3800.00,0.0007
3799.00,0.0007
3798.00,0.0007
3797.00,0.0007
3796.00,0.0008
3795.00,0.0008
3794.00,0.0008
3793.00,0.0008
3792.00,0.0008
3791.00,0.0008
3790.00,0.0008
3789.00,0.0008
3788.00,0.0007
3787.00,0.0007
3786.00,0.0007
3785.00,0.0007
3784.00,0.0007
3783.00,0.0007
3782.00,0.0007
3781.00,0.0007
3780.00,0.0008
3779.00,0.0008
3778.00,0.0008
3777.00,0.0008
3776.00,0.0008
3775.00,0.0008
3774.00,0.0008
3773.00,0.0008
3772.00,0.0008
3771.00,0.0008
3770.00,0.0008
3769.00,0.0008
3768.00,0.0008
3767.00,0.0008
3766.00,0.0008
3765.00,0.0008
3764.00,0.0008
3763.00,0.0008
3762.00,0.0008
3761.00,0.0008
3760.00,0.0008
3759.00,0.0008
3758.00,0.0008
3757.00,0.0008
3756.00,0.0008
3755.00,0.0008
3754.00,0.0007
3753.00,0.0007
3752.00,0.0006
3751.00,0.0006
3750.00,0.0006
3749.00,0.0006
3748.00,0.0007
3747.00,0.0007
3746.00,0.0007
3745.00,0.0007
3744.00,0.0006
3743.00,0.0006
3742.00,0.0006
3741.00,0.0005
3740.00,0.0005
3739.00,0.0005
3738.00,0.0005
3737.00,0.0005
3736.00,0.0005
3735.00,0.0006
3734.00,0.0007
3733.00,0.0006
3732.00,0.0006
3731.00,0.0006
3730.00,0.0007
3729.00,0.0007
3728.00,0.0007
3727.00,0.0007
3726.00,0.0006
3725.00,0.0006
3724.00,0.0006
3723.00,0.0006
3722.00,0.0006
3721.00,0.0006
3720.00,0.0006
3719.00,0.0006
3718.00,0.0006
3717.00,0.0006
3716.00,0.0006
3715.00,0.0006
3714.00,0.0006
3713.00,0.0005
3712.00,0.0005
3711.00,0.0005
3710.00,0.0005
3709.00,0.0005
3708.00,0.0005
3707.00,0.0005
3706.00,0.0005
3705.00,0.0005
3704.00,0.0005
3703.00,0.0005
3702.00,0.0006
3701.00,0.0006
3700.00,0.0006
3699.00,0.0006
3698.00,0.0006
3697.00,0.0006
3696.00,0.0006
3695.00,0.0006
3694.00,0.0006
3693.00,0.0006
3692.00,0.0006
3691.00,0.0006
3690.00,0.0006
3689.00,0.0006
3688.00,0.0005
3687.00,0.0005
3686.00,0.0005
3685.00,0.0005
3684.00,0.0005
3683.00,0.0004
3682.00,0.0004
3681.00,0.0004
3680.00,0.0003
3679.00,0.0003
3678.00,0.0003
3677.00,0.0002
3676.00,0.0002
3675.00,0.0002
3674.00,0.0002
3673.00,0.0001
3672.00,0.0000
3671.00,-0.0001
3670.00,-0.0000
3669.00,-0.0000
3668.00,0.0000
3667.00,0.0000
3666.00,0.0000
3665.00,0.0000
3664.00,-0.0000
3663.00,-0.0000
3662.00,-0.0000
3661.00,0.0000
3660.00,0.0000
3659.00,0.0001
3658.00,0.0001
3657.00,0.0000
3656.00,-0.0000
3655.00,-0.0001
3654.00,-0.0001
3653.00,-0.0001
3652.00,-0.0000
3651.00,-0.0000
3650.00,-0.0000
3649.00,-0.0000
3648.00,-0.0000
3647.00,-0.0000
3646.00,0.0000
3645.00,0.0000
3644.00,0.0001
3643.00,0.0001
3642.00,0.0002
3641.00,0.0002
3640.00,0.0003
3639.00,0.0003
3638.00,0.0004
3637.00,0.0004
3636.00,0.0004
3635.00,0.0005
3634.00,0.0005
3633.00,0.0005
3632.00,0.0006
3631.00,0.0006
3630.00,0.0006
3629.00,0.0006
3628.00,0.0006
3627.00,0.0007
3626.00,0.0007
3625.00,0.0007
3624.00,0.0008
3623.00,0.0008
3622.00,0.0008
3621.00,0.0008
3620.00,0.0009
3619.00,0.0009
3618.00,0.0010
3617.00,0.0010
3616.00,0.0011
3615.00,0.0010
3614.00,0.0010
3613.00,0.0010
3612.00,0.0010
3611.00,0.0010
3610.00,0.0010
3609.00,0.0010
3608.00,0.0011
3607.00,0.0011
3606.00,0.0011
3605.00,0.0011
3604.00,0.0011
3603.00,0.0012
3602.00,0.0012
3601.00,0.0012
3600.00,0.0012
3599.00,0.0012
3598.00,0.0012
3597.00,0.0012
3596.00,0.0012
3595.00,0.0012
3594.00,0.0013
3593.00,0.0013
3592.00,0.0014
3591.00,0.0014
3590.00,0.0014
3589.00,0.0015
3588.00,0.0015
3587.00,0.0015
3586.00,0.0016
3585.00,0.0016
3584.00,0.0016
3583.00,0.0017
3582.00,0.0017
3581.00,0.0018
3580.00,0.0018
3579.00,0.0018
3578.00,0.0017
3577.00,0.0017
3576.00,0.0017
3575.00,0.0017
3574.00,0.0018
3573.00,0.0018
3572.00,0.0018
3571.00,0.0018
3570.00,0.0018
3569.00,0.0018
3568.00,0.0019
3567.00,0.0019
3566.00,0.0020
3565.00,0.0020
3564.00,0.0021
3563.00,0.0021
3562.00,0.0021
3561.00,0.0022
3560.00,0.0022
3559.00,0.0022
3558.00,0.0022
3557.00,0.0022
3556.00,0.0023
3555.00,0.0023
3554.00,0.0023
3553.00,0.0024
3552.00,0.0024
3551.00,0.0024
3550.00,0.0024
3549.00,0.0025
3548.00,0.0025
3547.00,0.0025
3546.00,0.0026
3545.00,0.0026
3544.00,0.0026
3543.00,0.0026
3542.00,0.0026
3541.00,0.0026
3540.00,0.0026
3539.00,0.0026
3538.00,0.0026
3537.00,0.0026
3536.00,0.0027
3535.00,0.0027
3534.00,0.0028
3533.00,0.0028
3532.00,0.0028
3531.00,0.0028
3530.00,0.0028
3529.00,0.0029
3528.00,0.0029
3527.00,0.0029
3526.00,0.0030
3525.00,0.0030
3524.00,0.0031
3523.00,0.0031
3522.00,0.0031
3521.00,0.0031
3520.00,0.0031
3519.00,0.0031
3518.00,0.0031
3517.00,0.0031
3516.00,0.0032
3515.00,0.0032
3514.00,0.0033
3513.00,0.0033
3512.00,0.0033
3511.00,0.0033
3510.00,0.0033
3509.00,0.0033
3508.00,0.0033
3507.00,0.0033
3506.00,0.0034
3505.00,0.0035
3504.00,0.0035
3503.00,0.0036
3502.00,0.0036
3501.00,0.0036
3500.00,0.0036
3499.00,0.0036
3498.00,0.0036
3497.00,0.0036
3496.00,0.0037
3495.00,0.0037
3494.00,0.0037
3493.00,0.0037
3492.00,0.0037
3491.00,0.0037
3490.00,0.0037
3489.00,0.0038
3488.00,0.0038
3487.00,0.0039
3486.00,0.0039
3485.00,0.0039
3484.00,0.0039
3483.00,0.0039
3482.00,0.0039
3481.00,0.0039
3480.00,0.0039
3479.00,0.0039
3478.00,0.0040
3477.00,0.0040
3476.00,0.0040
3475.00,0.0041
3474.00,0.0041
3473.00,0.0041
3472.00,0.0041
3471.00,0.0041
3470.00,0.0042
3469.00,0.0042
3468.00,0.0042
3467.00,0.0042
3466.00,0.0042
3465.00,0.0042
3464.00,0.0043
3463.00,0.0043
3462.00,0.0043
3461.00,0.0044
3460.00,0.0044
3459.00,0.0044
3458.00,0.0043
3457.00,0.0043
3456.00,0.0043
3455.00,0.0044
3454.00,0.0045
3453.00,0.0045
3452.00,0.0046
3451.00,0.0046
3450.00,0.0047
3449.00,0.0047
3448.00,0.0047
3447.00,0.0047
3446.00,0.0047
3445.00,0.0048
3444.00,0.0048
3443.00,0.0048
3442.00,0.0049
3441.00,0.0049
3440.00,0.0049
3439.00,0.0049
3438.00,0.0050
3437.00,0.0050
3436.00,0.0050
3435.00,0.0051
3434.00,0.0051
3433.00,0.0051
3432.00,0.0051
3431.00,0.0051
3430.00,0.0051
3429.00,0.0051
3428.00,0.0051
3427.00,0.0051
3426.00,0.0051
3425.00,0.0052
3424.00,0.0052
3423.00,0.0052
3422.00,0.0052
3421.00,0.0052
3420.00,0.0052
3419.00,0.0053
3418.00,0.0053
3417.00,0.0054
3416.00,0.0054
3415.00,0.0054
3414.00,0.0055
3413.00,0.0055
3412.00,0.0055
3411.00,0.0055
3410.00,0.0055
3409.00,0.0055
3408.00,0.0055
3407.00,0.0055
3406.00,0.0056
3405.00,0.0056
3404.00,0.0057
3403.00,0.0057
3402.00,0.0057
3401.00,0.0057
3400.00,0.0057
3399.00,0.0057
3398.00,0.0057
3397.00,0.0057
3396.00,0.0057
3395.00,0.0057
3394.00,0.0057
3393.00,0.0057
3392.00,0.0057
3391.00,0.0057
3390.00,0.0057
3389.00,0.0057
3388.00,0.0057
3387.00,0.0057
3386.00,0.0057
3385.00,0.0057
3384.00,0.0058
3383.00,0.0058
3382.00,0.0058
3381.00,0.0058
3380.00,0.0058
3379.00,0.0058
3378.00,0.0058
3377.00,0.0058
3376.00,0.0058
3375.00,0.0059
3374.00,0.0059
3373.00,0.0060
3372.00,0.0060
3371.00,0.0061
3370.00,0.0061
3369.00,0.0061
3368.00,0.0060
3367.00,0.0060
3366.00,0.0059
3365.00,0.0059
3364.00,0.0059
3363.00,0.0059
3362.00,0.0059
3361.00,0.0059
3360.00,0.0060
3359.00,0.0060
3358.00,0.0061
3357.00,0.0061
3356.00,0.0061
3355.00,0.0061
3354.00,0.0061
3353.00,0.0061
3352.00,0.0061
3351.00,0.0061
3350.00,0.0061
3349.00,0.0061
3348.00,0.0061
3347.00,0.0061
3346.00,0.0061
3345.00,0.0061
3344.00,0.0061
3343.00,0.0061
3342.00,0.0061
3341.00,0.0061
3340.00,0.0061
3339.00,0.0061
3338.00,0.0061
3337.00,0.0061
3336.00,0.0061
3335.00,0.0061
3334.00,0.0061
3333.00,0.0061
3332.00,0.0061
3331.00,0.0061
3330.00,0.0060
3329.00,0.0060
3328.00,0.0060
3327.00,0.0060
3326.00,0.0060
3325.00,0.0060
3324.00,0.0059
3323.00,0.0059
3322.00,0.0059
3321.00,0.0059
3320.00,0.0060
3319.00,0.0060
3318.00,0.0061
3317.00,0.0061
3316.00,0.0060
3315.00,0.0060
3314.00,0.0060
3313.00,0.0060
3312.00,0.0061
3311.00,0.0061
3310.00,0.0061
3309.00,0.0061
3308.00,0.0061
3307.00,0.0061
3306.00,0.0061
3305.00,0.0061
3304.00,0.0061
3303.00,0.0061
3302.00,0.0061
3301.00,0.0061
3300.00,0.0061
3299.00,0.0060
3298.00,0.0060
3297.00,0.0059
3296.00,0.0059
3295.00,0.0059
3294.00,0.0059
3293.00,0.0058
3292.00,0.0058
3291.00,0.0058
3290.00,0.0058
3289.00,0.0058
3288.00,0.0058
3287.00,0.0058
3286.00,0.0057
3285.00,0.0056
3284.00,0.0056
3283.00,0.0056
3282.00,0.0056
3281.00,0.0056
3280.00,0.0056
3279.00,0.0056
3278.00,0.0055
3277.00,0.0055
3276.00,0.0055
3275.00,0.0055
3274.00,0.0055
3273.00,0.0055
3272.00,0.0055
3271.00,0.0055
3270.00,0.0055
3269.00,0.0055
3268.00,0.0054
3267.00,0.0054
3266.00,0.0054
3265.00,0.0053
3264.00,0.0053
3263.00,0.0052
3262.00,0.0052
3261.00,0.0052
3260.00,0.0052
3259.00,0.0052
3258.00,0.0052
3257.00,0.0051
3256.00,0.0051
3255.00,0.0050
3254.00,0.0050
3253.00,0.0050
3252.00,0.0050
3251.00,0.0050
3250.00,0.0050
3249.00,0.0050
3248.00,0.0050
3247.00,0.0049
3246.00,0.0049
3245.00,0.0049
3244.00,0.0049
3243.00,0.0049
3242.00,0.0049
3241.00,0.0049
3240.00,0.0049
3239.00,0.0049
3238.00,0.0048
3237.00,0.0048
3236.00,0.0048
3235.00,0.0048
3234.00,0.0048
3233.00,0.0048
3232.00,0.0048
3231.00,0.0048
3230.00,0.0049
3229.00,0.0049
3228.00,0.0049
3227.00,0.0049
3226.00,0.0049
3225.00,0.0049
3224.00,0.0049
3223.00,0.0049
3222.00,0.0049
3221.00,0.0049
3220.00,0.0049
3219.00,0.0050
3218.00,0.0050
3217.00,0.0051
3216.00,0.0051
3215.00,0.0050
3214.00,0.0050
3213.00,0.0050
3212.00,0.0050
3211.00,0.0050
3210.00,0.0051
3209.00,0.0051
3208.00,0.0051
3207.00,0.0051
3206.00,0.0050
3205.00,0.0050
3204.00,0.0050
3203.00,0.0051
3202.00,0.0051
3201.00,0.0051
3200.00,0.0051
3199.00,0.0051
3198.00,0.0051
3197.00,0.0051
3196.00,0.0051
3195.00,0.0051
3194.00,0.0051
3193.00,0.0051
3192.00,0.0051
3191.00,0.0051
3190.00,0.0050
3189.00,0.0050
3188.00,0.0050
3187.00,0.0050
3186.00,0.0049
3185.00,0.0049
3184.00,0.0049
3183.00,0.0049
3182.00,0.0049
3181.00,0.0049
3180.00,0.0048
3179.00,0.0048
3178.00,0.0048
3177.00,0.0048
3176.00,0.0047
3175.00,0.0047
3174.00,0.0047
3173.00,0.0047
3172.00,0.0047
3171.00,0.0047
3170.00,0.0046
3169.00,0.0046
3168.00,0.0045
3167.00,0.0045
3166.00,0.0045
3165.00,0.0046
3164.00,0.0046
3163.00,0.0046
3162.00,0.0046
3161.00,0.0046
3160.00,0.0045
3159.00,0.0045
3158.00,0.0045
3157.00,0.0045
3156.00,0.0045
3155.00,0.0045
3154.00,0.0045
3153.00,0.0045
3152.00,0.0045
3151.00,0.0045
3150.00,0.0046
3149.00,0.0046
3148.00,0.0045
3147.00,0.0045
3146.00,0.0044
3145.00,0.0044
3144.00,0.0044
3143.00,0.0044
3142.00,0.0044
3141.00,0.0044
3140.00,0.0043
3139.00,0.0043
3138.00,0.0042
3137.00,0.0042
3136.00,0.0042
3135.00,0.0042
3134.00,0.0042
3133.00,0.0041
3132.00,0.0041
3131.00,0.0040
3130.00,0.0040
3129.00,0.0040
3128.00,0.0040
3127.00,0.0040
3126.00,0.0040
3125.00,0.0040
3124.00,0.0040
3123.00,0.0039
3122.00,0.0039
3121.00,0.0039
3120.00,0.0039
3119.00,0.0039
3118.00,0.0039
3117.00,0.0038
3116.00,0.0038
3115.00,0.0038
3114.00,0.0038
3113.00,0.0037
3112.00,0.0037
3111.00,0.0036
3110.00,0.0036
3109.00,0.0037
3108.00,0.0037
3107.00,0.0037
3106.00,0.0037
3105.00,0.0037
3104.00,0.0036
3103.00,0.0036
3102.00,0.0036
3101.00,0.0036
3100.00,0.0035
3099.00,0.0035
3098.00,0.0035
3097.00,0.0035
3096.00,0.0036
3095.00,0.0036
3094.00,0.0036
3093.00,0.0036
3092.00,0.0036
3091.00,0.0036
3090.00,0.0036
3089.00,0.0035
3088.00,0.0035
3087.00,0.0035
3086.00,0.0035
3085.00,0.0035
3084.00,0.0034
3083.00,0.0034
3082.00,0.0034
3081.00,0.0034
3080.00,0.0034
3079.00,0.0034
3078.00,0.0034
3077.00,0.0035
3076.00,0.0035
3075.00,0.0035
3074.00,0.0035
3073.00,0.0035
3072.00,0.0035
3071.00,0.0035
3070.00,0.0035
3069.00,0.0036
3068.00,0.0036
3067.00,0.0036
3066.00,0.0036
3065.00,0.0037
3064.00,0.0037
3063.00,0.0037
3062.00,0.0038
3061.00,0.0038
3060.00,0.0037
3059.00,0.0037
3058.00,0.0037
3057.00,0.0037
3056.00,0.0037
3055.00,0.0037
3054.00,0.0037
3053.00,0.0038
3052.00,0.0038
3051.00,0.0038
3050.00,0.0039
3049.00,0.0039
3048.00,0.0039
3047.00,0.0039
3046.00,0.0039
3045.00,0.0039
3044.00,0.0040
3043.00,0.0040
3042.00,0.0040
3041.00,0.0040
3040.00,0.0041
3039.00,0.0041
3038.00,0.0042
3037.00,0.0042
3036.00,0.0043
3035.00,0.0043
3034.00,0.0043
3033.00,0.0043
3032.00,0.0043
3031.00,0.0043
3030.00,0.0044
3029.00,0.0044
3028.00,0.0045
3027.00,0.0046
3026.00,0.0046
3025.00,0.0047
3024.00,0.0047
3023.00,0.0047
3022.00,0.0047
3021.00,0.0047
3020.00,0.0048
3019.00,0.0049
3018.00,0.0049
3017.00,0.0049
3016.00,0.0049
3015.00,0.0049
3014.00,0.0049
3013.00,0.0049
3012.00,0.0049
3011.00,0.0049
3010.00,0.0049
3009.00,0.0049
3008.00,0.0049
3007.00,0.0048
3006.00,0.0048
3005.00,0.0048
3004.00,0.0047
3003.00,0.0047
3002.00,0.0047
3001.00,0.0048
3000.00,0.0049
2999.00,0.0050
2998.00,0.0051
2997.00,0.0053
2996.00,0.0055
2995.00,0.0057
2994.00,0.0060
2993.00,0.0064
2992.00,0.0068
2991.00,0.0073
2990.00,0.0078
2989.00,0.0084
2988.00,0.0090
2987.00,0.0096
2986.00,0.0102
2985.00,0.0107
2984.00,0.0113
2983.00,0.0120
2982.00,0.0131
2981.00,0.0147
2980.00,0.0169
2979.00,0.0194
2978.00,0.0223
2977.00,0.0254
2976.00,0.0289
2975.00,0.0327
2974.00,0.0369
2973.00,0.0417
2972.00,0.0471
2971.00,0.0535
2970.00,0.0606
2969.00,0.0686
2968.00,0.0772
2967.00,0.0865
2966.00,0.0962
2965.00,0.1063
2964.00,0.1164
2963.00,0.1261
2962.00,0.1348
2961.00,0.1422
2960.00,0.1481
2959.00,0.1526
2958.00,0.1560
2957.00,0.1591
2956.00,0.1623
2955.00,0.1660
2954.00,0.1703
2953.00,0.1747
2952.00,0.1784
2951.00,0.1804
2950.00,0.1799
2949.00,0.1763
2948.00,0.1694
2947.00,0.1600
2946.00,0.1490
2945.00,0.1376
2944.00,0.1269
2943.00,0.1178
2942.00,0.1108
2941.00,0.1061
2940.00,0.1035
2939.00,0.1031
2938.00,0.1045
2937.00,0.1075
2936.00,0.1121
2935.00,0.1179
2934.00,0.1249
2933.00,0.1331
2932.00,0.1422
2931.00,0.1521
2930.00,0.1625
2929.00,0.1732
2928.00,0.1838
2927.00,0.1940
2926.00,0.2038
2925.00,0.2132
2924.00,0.2222
2923.00,0.2310
2922.00,0.2395
2921.00,0.2473
2920.00,0.2540
2919.00,0.2588
2918.00,0.2609
2917.00,0.2596
2916.00,0.2549
2915.00,0.2474
2914.00,0.2382
2913.00,0.2283
2912.00,0.2188
2911.00,0.2101
2910.00,0.2025
2909.00,0.1958
2908.00,0.1898
2907.00,0.1840
2906.00,0.1783
2905.00,0.1723
2904.00,0.1662
2903.00,0.1599
2902.00,0.1535
2901.00,0.1471
2900.00,0.1410
2899.00,0.1350
2898.00,0.1294
2897.00,0.1242
2896.00,0.1195
2895.00,0.1153
2894.00,0.1118
2893.00,0.1088
2892.00,0.1064
2891.00,0.1046
2890.00,0.1032
2889.00,0.1023
2888.00,0.1017
2887.00,0.1014
2886.00,0.1014
2885.00,0.1018
2884.00,0.1026
2883.00,0.1038
2882.00,0.1055
2881.00,0.1074
2880.00,0.1093
2879.00,0.1108
2878.00,0.1117
2877.00,0.1120
2876.00,0.1116
2875.00,0.1110
2874.00,0.1106
2873.00,0.1107
2872.00,0.1115
2871.00,0.1128
2870.00,0.1145
2869.00,0.1161
2868.00,0.1169
2867.00,0.1164
2866.00,0.1141
2865.00,0.1100
2864.00,0.1043
2863.00,0.0980
2862.00,0.0918
2861.00,0.0865
2860.00,0.0824
2859.00,0.0798
2858.00,0.0785
2857.00,0.0783
2856.00,0.0790
2855.00,0.0804
2854.00,0.0823
2853.00,0.0844
2852.00,0.0866
2851.00,0.0884
2850.00,0.0898
2849.00,0.0905
2848.00,0.0910
2847.00,0.0918
2846.00,0.0933
2845.00,0.0959
2844.00,0.0997
2843.00,0.1043
2842.00,0.1093
2841.00,0.1141
2840.00,0.1178
2839.00,0.1197
2838.00,0.1190
2837.00,0.1155
2836.00,0.1091
2835.00,0.1005
2834.00,0.0905
2833.00,0.0801
2832.00,0.0703
2831.00,0.0615
2830.00,0.0541
2829.00,0.0480
2828.00,0.0430
2827.00,0.0390
2826.00,0.0357
2825.00,0.0330
2824.00,0.0307
2823.00,0.0288
2822.00,0.0271
2821.00,0.0257
2820.00,0.0244
2819.00,0.0233
2818.00,0.0223
2817.00,0.0215
2816.00,0.0207
2815.00,0.0201
2814.00,0.0195
2813.00,0.0189
2812.00,0.0183
2811.00,0.0178
2810.00,0.0173
2809.00,0.0168
2808.00,0.0163
2807.00,0.0157
2806.00,0.0151
2805.00,0.0144
2804.00,0.0138
2803.00,0.0133
2802.00,0.0127
2801.00,0.0123
2800.00,0.0119
2799.00,0.0116
2798.00,0.0114
2797.00,0.0111
2796.00,0.0109
2795.00,0.0107
2794.00,0.0104
2793.00,0.0101
2792.00,0.0098
2791.00,0.0095
2790.00,0.0092
2789.00,0.0088
2788.00,0.0085
2787.00,0.0082
2786.00,0.0079
2785.00,0.0077
2784.00,0.0074
2783.00,0.0072
2782.00,0.0071
2781.00,0.0069
2780.00,0.0068
2779.00,0.0066
2778.00,0.0065
2777.00,0.0063
2776.00,0.0061
2775.00,0.0060
2774.00,0.0059
2773.00,0.0058
2772.00,0.0058
2771.00,0.0057
2770.00,0.0057
2769.00,0.0057
2768.00,0.0056
2767.00,0.0056
2766.00,0.0056
2765.00,0.0056
2764.00,0.0055
2763.00,0.0055
2762.00,0.0054
2761.00,0.0054
2760.00,0.0053
2759.00,0.0053
2758.00,0.0053
2757.00,0.0053
2756.00,0.0053
2755.00,0.0053
2754.00,0.0053
2753.00,0.0053
2752.00,0.0053
2751.00,0.0053
2750.00,0.0053
2749.00,0.0052
2748.00,0.0053
2747.00,0.0053
2746.00,0.0053
2745.00,0.0053
2744.00,0.0054
2743.00,0.0054
2742.00,0.0055
2741.00,0.0056
2740.00,0.0057
2739.00,0.0058
2738.00,0.0059
2737.00,0.0060
2736.00,0.0062
2735.00,0.0064
2734.00,0.0065
2733.00,0.0066
2732.00,0.0068
2731.00,0.0069
2730.00,0.0071
2729.00,0.0073
2728.00,0.0076
2727.00,0.0079
2726.00,0.0081
2725.00,0.0083
2724.00,0.0085
2723.00,0.0085
2722.00,0.0084
2721.00,0.0082
2720.00,0.0080
2719.00,0.0077
2718.00,0.0074
2717.00,0.0071
2716.00,0.0068
2715.00,0.0065
2714.00,0.0063
2713.00,0.0061
2712.00,0.0059
2711.00,0.0058
2710.00,0.0056
2709.00,0.0055
2708.00,0.0054
2707.00,0.0053
2706.00,0.0053
2705.00,0.0052
2704.00,0.0051
2703.00,0.0050
2702.00,0.0049
2701.00,0.0048
2700.00,0.0047
2699.00,0.0046
2698.00,0.0046
2697.00,0.0045
2696.00,0.0046
2695.00,0.0046
2694.00,0.0046
2693.00,0.0046
2692.00,0.0046
2691.00,0.0046
2690.00,0.0046
2689.00,0.0046
2688.00,0.0046
2687.00,0.0045
2686.00,0.0045
2685.00,0.0045
2684.00,0.0045
2683.00,0.0046
2682.00,0.0046
2681.00,0.0046
2680.00,0.0046
2679.00,0.0046
2678.00,0.0046
2677.00,0.0045
2676.00,0.0045
2675.00,0.0045
2674.00,0.0045
2673.00,0.0045
2672.00,0.0045
2671.00,0.0044
2670.00,0.0044
2669.00,0.0044
2668.00,0.0045
2667.00,0.0045
2666.00,0.0045
2665.00,0.0046
2664.00,0.0046
2663.00,0.0047
2662.00,0.0047
2661.00,0.0048
2660.00,0.0048
2659.00,0.0048
2658.00,0.0047
2657.00,0.0047
2656.00,0.0047
2655.00,0.0046
2654.00,0.0046
2653.00,0.0045
2652.00,0.0045
2651.00,0.0044
2650.00,0.0044
2649.00,0.0044
2648.00,0.0043
2647.00,0.0043
2646.00,0.0042
2645.00,0.0042
2644.00,0.0041
2643.00,0.0041
2642.00,0.0040
2641.00,0.0040
2640.00,0.0040
2639.00,0.0039
2638.00,0.0039
2637.00,0.0039
2636.00,0.0039
2635.00,0.0039
2634.00,0.0038
2633.00,0.0038
2632.00,0.0038
2631.00,0.0038
2630.00,0.0038
2629.00,0.0039
2628.00,0.0039
2627.00,0.0039
2626.00,0.0039
2625.00,0.0040
2624.00,0.0040
2623.00,0.0040
2622.00,0.0040
2621.00,0.0040
2620.00,0.0040
2619.00,0.0040
2618.00,0.0040
2617.00,0.0040
2616.00,0.0040
2615.00,0.0040
2614.00,0.0039
2613.00,0.0039
2612.00,0.0039
2611.00,0.0039
2610.00,0.0039
2609.00,0.0038
2608.00,0.0037
2607.00,0.0035
2606.00,0.0034
2605.00,0.0033
2604.00,0.0033
2603.00,0.0032
2602.00,0.0032
2601.00,0.0032
2600.00,0.0032
2599.00,0.0032
2598.00,0.0032
2597.00,0.0032
2596.00,0.0032
2595.00,0.0032
2594.00,0.0032
2593.00,0.0032
2592.00,0.0033
2591.00,0.0034
2590.00,0.0035
2589.00,0.0035
2588.00,0.0036
2587.00,0.0037
2586.00,0.0037
2585.00,0.0038
2584.00,0.0039
2583.00,0.0039
2582.00,0.0038
2581.00,0.0038
2580.00,0.0037
2579.00,0.0036
2578.00,0.0036
2577.00,0.0035
2576.00,0.0033
2575.00,0.0032
2574.00,0.0031
2573.00,0.0030
2572.00,0.0028
2571.00,0.0028
2570.00,0.0027
2569.00,0.0027
2568.00,0.0027
2567.00,0.0026
2566.00,0.0026
2565.00,0.0026
2564.00,0.0025
2563.00,0.0025
2562.00,0.0024
2561.00,0.0024
2560.00,0.0024
2559.00,0.0024
2558.00,0.0024
2557.00,0.0024
2556.00,0.0024
2555.00,0.0023
2554.00,0.0022
2553.00,0.0022
2552.00,0.0021
2551.00,0.0021
2550.00,0.0021
2549.00,0.0021
2548.00,0.0021
2547.00,0.0020
2546.00,0.0020
2545.00,0.0020
2544.00,0.0020
2543.00,0.0020
2542.00,0.0020
2541.00,0.0019
2540.00,0.0018
2539.00,0.0018
2538.00,0.0018
2537.00,0.0018
2536.00,0.0018
2535.00,0.0018
2534.00,0.0017
2533.00,0.0017
2532.00,0.0017
2531.00,0.0016
2530.00,0.0015
2529.00,0.0015
2528.00,0.0015
2527.00,0.0015
2526.00,0.0015
2525.00,0.0015
2524.00,0.0015
2523.00,0.0015
2522.00,0.0015
2521.00,0.0015
2520.00,0.0015
2519.00,0.0015
2518.00,0.0014
2517.00,0.0014
2516.00,0.0013
2515.00,0.0013
2514.00,0.0013
2513.00,0.0013
2512.00,0.0013
2511.00,0.0012
2510.00,0.0012
2509.00,0.0012
2508.00,0.0012
2507.00,0.0012
2506.00,0.0012
2505.00,0.0012
2504.00,0.0012
2503.00,0.0012
2502.00,0.0012
2501.00,0.0011
2500.00,0.0011
2499.00,0.0011
2498.00,0.0011
2497.00,0.0012
2496.00,0.0012
2495.00,0.0012
2494.00,0.0012
2493.00,0.0012
2492.00,0.0011
2491.00,0.0011
2490.00,0.0011
2489.00,0.0011
2488.00,0.0011
2487.00,0.0010
2486.00,0.0010
2485.00,0.0010
2484.00,0.0010
2483.00,0.0010
2482.00,0.0010
2481.00,0.0009
2480.00,0.0009
2479.00,0.0009
2478.00,0.0010
2477.00,0.0010
2476.00,0.0010
2475.00,0.0010
2474.00,0.0009
2473.00,0.0009
2472.00,0.0009
2471.00,0.0009
2470.00,0.0009
2469.00,0.0010
2468.00,0.0010
2467.00,0.0010
2466.00,0.0010
2465.00,0.0010
2464.00,0.0010
2463.00,0.0010
2462.00,0.0010
2461.00,0.0010
2460.00,0.0010
2459.00,0.0011
2458.00,0.0011
2457.00,0.0011
2456.00,0.0011
2455.00,0.0011
2454.00,0.0011
2453.00,0.0011
2452.00,0.0011
2451.00,0.0011
2450.00,0.0010
2449.00,0.0010
2448.00,0.0011
2447.00,0.0011
2446.00,0.0012
2445.00,0.0012
2444.00,0.0012
2443.00,0.0012
2442.00,0.0012
2441.00,0.0011
2440.00,0.0011
2439.00,0.0010
2438.00,0.0011
2437.00,0.0011
2436.00,0.0013
2435.00,0.0013
2434.00,0.0014
2433.00,0.0013
2432.00,0.0013
2431.00,0.0012
2430.00,0.0012
2429.00,0.0012
2428.00,0.0013
2427.00,0.0013
2426.00,0.0013
2425.00,0.0012
2424.00,0.0011
2423.00,0.0011
2422.00,0.0010
2421.00,0.0010
2420.00,0.0010
2419.00,0.0010
2418.00,0.0010
2417.00,0.0010
2416.00,0.0011
2415.00,0.0011
2414.00,0.0011
2413.00,0.0012
2412.00,0.0012
2411.00,0.0012
2410.00,0.0012
2409.00,0.0012
2408.00,0.0011
2407.00,0.0010
2406.00,0.0010
2405.00,0.0009
2404.00,0.0008
2403.00,0.0008
2402.00,0.0008
2401.00,0.0009
2400.00,0.0009
2399.00,0.0009
2398.00,0.0009
2397.00,0.0009
2396.00,0.0009
2395.00,0.0009
2394.00,0.0009
2393.00,0.0010
2392.00,0.0010
2391.00,0.0010
2390.00,0.0010
2389.00,0.0010
2388.00,0.0010
2387.00,0.0009
2386.00,0.0008
2385.00,0.0007
2384.00,0.0007
2383.00,0.0007
2382.00,0.0007
2381.00,0.0006
2380.00,0.0006
2379.00,0.0005
2378.00,0.0005
2377.00,0.0006
2376.00,0.0007
2375.00,0.0008
2374.00,0.0008
2373.00,0.0007
2372.00,0.0007
2371.00,0.0006
2370.00,0.0006
2369.00,0.0006
2368.00,0.0005
2367.00,0.0005
2366.00,0.0005
2365.00,0.0005
2364.00,0.0006
2363.00,0.0006
2362.00,0.0006
2361.00,0.0007
2360.00,0.0007
2359.00,0.0008
2358.00,0.0008
2357.00,0.0007
2356.00,0.0007
2355.00,0.0007
2354.00,0.0007
2353.00,0.0007
2352.00,0.0007
2351.00,0.0007
2350.00,0.0007
2349.00,0.0007
2348.00,0.0008
2347.00,0.0009
2346.00,0.0009
2345.00,0.0009
2344.00,0.0008
2343.00,0.0008
2342.00,0.0007
2341.00,0.0007
2340.00,0.0007
2339.00,0.0008
2338.00,0.0009
2337.00,0.0010
2336.00,0.0010
2335.00,0.0010
2334.00,0.0010
2333.00,0.0010
2332.00,0.0010
2331.00,0.0010
2330.00,0.0010
2329.00,0.0011
2328.00,0.0012
2327.00,0.0015
2326.00,0.0020
2325.00,0.0023
2324.00,0.0025
2323.00,0.0024
2322.00,0.0023
2321.00,0.0022
2320.00,0.0021
2319.00,0.0019
2318.00,0.0018
2317.00,0.0017
2316.00,0.0016
2315.00,0.0015
2314.00,0.0014
2313.00,0.0013
2312.00,0.0012
2311.00,0.0012
2310.00,0.0011
2309.00,0.0011
2308.00,0.0011
2307.00,0.0012
2306.00,0.0012
2305.00,0.0013
2304.00,0.0013
2303.00,0.0012
2302.00,0.0012
2301.00,0.0013
2300.00,0.0013
2299.00,0.0013
2298.00,0.0014
2297.00,0.0014
2296.00,0.0015
2295.00,0.0016
2294.00,0.0016
2293.00,0.0017
2292.00,0.0018
2291.00,0.0018
2290.00,0.0019
2289.00,0.0020
2288.00,0.0021
2287.00,0.0020
2286.00,0.0020
2285.00,0.0019
2284.00,0.0018
2283.00,0.0017
2282.00,0.0017
2281.00,0.0017
2280.00,0.0018
2279.00,0.0018
2278.00,0.0017
2277.00,0.0016
2276.00,0.0015
2275.00,0.0014
2274.00,0.0014
2273.00,0.0014
2272.00,0.0015
2271.00,0.0015
2270.00,0.0016
2269.00,0.0016
2268.00,0.0016
2267.00,0.0016
2266.00,0.0016
2265.00,0.0015
2264.00,0.0013
2263.00,0.0012
2262.00,0.0011
2261.00,0.0011
2260.00,0.0011
2259.00,0.0012
2258.00,0.0013
2257.00,0.0013
2256.00,0.0012
2255.00,0.0011
2254.00,0.0010
2253.00,0.0009
2252.00,0.0009
2251.00,0.0008
2250.00,0.0007
2249.00,0.0005
2248.00,0.0005
2247.00,0.0006
2246.00,0.0007
2245.00,0.0008
2244.00,0.0008
2243.00,0.0008
2242.00,0.0008
2241.00,0.0008
2240.00,0.0009
2239.00,0.0009
2238.00,0.0009
2237.00,0.0008
2236.00,0.0007
2235.00,0.0007
2234.00,0.0007
2233.00,0.0007
2232.00,0.0007
2231.00,0.0008
2230.00,0.0008
2229.00,0.0009
2228.00,0.0010
2227.00,0.0010
2226.00,0.0010
2225.00,0.0009
2224.00,0.0007
2223.00,0.0006
2222.00,0.0006
2221.00,0.0006
2220.00,0.0006
2219.00,0.0006
2218.00,0.0006
2217.00,0.0006
2216.00,0.0006
2215.00,0.0006
2214.00,0.0007
2213.00,0.0007
2212.00,0.0006
2211.00,0.0006
2210.00,0.0005
2209.00,0.0006
2208.00,0.0007
2207.00,0.0007
2206.00,0.0006
2205.00,0.0006
2204.00,0.0005
2203.00,0.0004
2202.00,0.0004
2201.00,0.0006
2200.00,0.0008
2199.00,0.0008
2198.00,0.0007
2197.00,0.0006
2196.00,0.0007
2195.00,0.0009
2194.00,0.0010
2193.00,0.0011
2192.00,0.0011
2191.00,0.0012
2190.00,0.0012
2189.00,0.0012
2188.00,0.0012
2187.00,0.0011
2186.00,0.0012
2185.00,0.0012
2184.00,0.0012
2183.00,0.0010
2182.00,0.0007
2181.00,0.0004
2180.00,0.0003
2179.00,0.0004
2178.00,0.0006
2177.00,0.0007
2176.00,0.0006
2175.00,0.0004
2174.00,0.0003
2173.00,0.0003
2172.00,0.0004
2171.00,0.0006
2170.00,0.0007
2169.00,0.0008
2168.00,0.0009
2167.00,0.0008
2166.00,0.0007
2165.00,0.0006
2164.00,0.0006
2163.00,0.0007
2162.00,0.0009
2161.00,0.0008
2160.00,-0.0000
2159.00,-0.0011
2158.00,-0.0020
2157.00,-0.0023
2156.00,-0.0022
2155.00,-0.0021
2154.00,-0.0020
2153.00,-0.0018
2152.00,-0.0015
2151.00,-0.0012
2150.00,-0.0010
2149.00,-0.0008
2148.00,-0.0008
2147.00,-0.0009
2146.00,-0.0010
2145.00,-0.0012
2144.00,-0.0013
2143.00,-0.0014
2142.00,-0.0014
2141.00,-0.0013
2140.00,-0.0012
2139.00,-0.0011
2138.00,-0.0010
2137.00,-0.0010
2136.00,-0.0011
2135.00,-0.0013
2134.00,-0.0015
2133.00,-0.0016
2132.00,-0.0015
2131.00,-0.0013
2130.00,-0.0011
2129.00,-0.0008
2128.00,-0.0007
2127.00,-0.0006
2126.00,-0.0004
2125.00,-0.0003
2124.00,-0.0002
2123.00,-0.0003
2122.00,-0.0004
2121.00,-0.0004
2120.00,-0.0003
2119.00,-0.0002
2118.00,-0.0000
2117.00,0.0001
2116.00,0.0002
2115.00,0.0002
2114.00,0.0003
2113.00,0.0004
2112.00,0.0006
2111.00,0.0007
2110.00,0.0006
2109.00,0.0006
2108.00,0.0005
2107.00,0.0003
2106.00,0.0002
2105.00,0.0002
2104.00,0.0002
2103.00,0.0002
2102.00,0.0003
2101.00,0.0003
2100.00,0.0003
2099.00,0.0003
2098.00,0.0003
2097.00,0.0002
2096.00,0.0001
2095.00,-0.0001
2094.00,-0.0003
2093.00,-0.0004
2092.00,-0.0004
2091.00,-0.0002
2090.00,0.0000
2089.00,0.0003
2088.00,0.0005
2087.00,0.0006
2086.00,0.0006
2085.00,0.0006
2084.00,0.0005
2083.00,0.0004
2082.00,0.0003
2081.00,0.0003
2080.00,0.0005
2079.00,0.0006
2078.00,0.0007
2077.00,0.0007
2076.00,0.0007
2075.00,0.0006
2074.00,0.0005
2073.00,0.0005
2072.00,0.0004
2071.00,0.0003
2070.00,0.0002
2069.00,0.0001
2068.00,0.0001
2067.00,0.0000
2066.00,-0.0000
2065.00,-0.0001
2064.00,0.0000
2063.00,0.0001
2062.00,0.0002
2061.00,0.0003
2060.00,0.0003
2059.00,0.0003
2058.00,0.0001
2057.00,0.0000
2056.00,0.0000
2055.00,0.0001
2054.00,0.0004
2053.00,0.0007
2052.00,0.0012
2051.00,0.0015
2050.00,0.0017
2049.00,0.0016
2048.00,0.0013
2047.00,0.0009
2046.00,0.0003
2045.00,-0.0002
2044.00,-0.0003
2043.00,-0.0001
2042.00,0.0002
2041.00,0.0004
2040.00,0.0005
2039.00,0.0004
2038.00,0.0002
2037.00,-0.0001
2036.00,-0.0003
2035.00,-0.0006
2034.00,-0.0007
2033.00,-0.0006
2032.00,-0.0003
2031.00,-0.0001
2030.00,-0.0001
2029.00,-0.0003
2028.00,-0.0006
2027.00,-0.0009
2026.00,-0.0012
2025.00,-0.0014
2024.00,-0.0013
2023.00,-0.0011
2022.00,-0.0009
2021.00,-0.0009
2020.00,-0.0009
2019.00,-0.0010
2018.00,-0.0010
2017.00,-0.0010
2016.00,-0.0010
2015.00,-0.0010
2014.00,-0.0010
2013.00,-0.0009
2012.00,-0.0007
2011.00,-0.0006
2010.00,-0.0006
2009.00,-0.0008
2008.00,-0.0010
2007.00,-0.0011
2006.00,-0.0011
2005.00,-0.0011
2004.00,-0.0012
2003.00,-0.0015
2002.00,-0.0016
2001.00,-0.0014
2000.00,-0.0010
1999.00,-0.0005
1998.00,-0.0003
1997.00,-0.0004
1996.00,-0.0007
1995.00,-0.0008
1994.00,-0.0008
1993.00,-0.0005
1992.00,-0.0003
1991.00,-0.0001
1990.00,-0.0001
1989.00,-0.0002
1988.00,-0.0003
1987.00,-0.0004
1986.00,-0.0004
1985.00,-0.0002
1984.00,0.0002
1983.00,0.0006
1982.00,0.0009
1981.00,0.0012
1980.00,0.0012
1979.00,0.0008
1978.00,0.0001
1977.00,-0.0006
1976.00,-0.0010
1975.00,-0.0014
1974.00,-0.0016
1973.00,-0.0017
1972.00,-0.0017
1971.00,-0.0016
1970.00,-0.0016
1969.00,-0.0017
1968.00,-0.0018
1967.00,-0.0017
1966.00,-0.0015
1965.00,-0.0011
1964.00,-0.0008
1963.00,-0.0008
1962.00,-0.0010
1961.00,-0.0013
1960.00,-0.0018
1959.00,-0.0021
1958.00,-0.0022
1957.00,-0.0020
1956.00,-0.0017
1955.00,-0.0013
1954.00,-0.0011
1953.00,-0.0010
1952.00,-0.0010
1951.00,-0.0011
1950.00,-0.0013
1949.00,-0.0014
1948.00,-0.0015
1947.00,-0.0015
1946.00,-0.0015
1945.00,-0.0014
1944.00,-0.0012
1943.00,-0.0011
1942.00,-0.0011
1941.00,-0.0010
1940.00,-0.0010
1939.00,-0.0010
1938.00,-0.0009
1937.00,-0.0009
1936.00,-0.0009
1935.00,-0.0009
1934.00,-0.0009
1933.00,-0.0008
1932.00,-0.0007
1931.00,-0.0007
1930.00,-0.0007
1929.00,-0.0007
1928.00,-0.0007
1927.00,-0.0007
1926.00,-0.0007
1925.00,-0.0008
1924.00,-0.0007
1923.00,-0.0006
1922.00,-0.0004
1921.00,-0.0003
1920.00,-0.0004
1919.00,-0.0005
1918.00,-0.0006
1917.00,-0.0006
1916.00,-0.0004
1915.00,-0.0002
1914.00,-0.0001
1913.00,-0.0001
1912.00,-0.0000
1911.00,0.0000
1910.00,0.0001
1909.00,0.0000
1908.00,0.0000
1907.00,-0.0000
1906.00,-0.0001
1905.00,-0.0000
1904.00,-0.0000
1903.00,0.0000
1902.00,0.0000
1901.00,0.0000
1900.00,0.0000
1899.00,-0.0000
1898.00,-0.0001
1897.00,-0.0001
1896.00,-0.0001
1895.00,-0.0001
1894.00,-0.0000
1893.00,0.0000
1892.00,0.0001
1891.00,0.0001
1890.00,0.0001
1889.00,0.0001
1888.00,0.0000
1887.00,0.0000
1886.00,-0.0000
1885.00,-0.0000
1884.00,-0.0000
1883.00,0.0000
1882.00,0.0001
1881.00,0.0002
1880.00,0.0003
1879.00,0.0002
1878.00,0.0002
1877.00,0.0001
1876.00,0.0001
1875.00,0.0001
1874.00,0.0002
1873.00,0.0002
1872.00,0.0001
1871.00,0.0001
1870.00,0.0000
1869.00,0.0000
1868.00,0.0001
1867.00,0.0001
1866.00,0.0002
1865.00,0.0001
1864.00,0.0001
1863.00,0.0001
1862.00,0.0001
1861.00,0.0001
1860.00,0.0002
1859.00,0.0002
1858.00,0.0003
1857.00,0.0003
1856.00,0.0003
1855.00,0.0002
1854.00,0.0001
1853.00,0.0001
1852.00,0.0002
1851.00,0.0002
1850.00,0.0003
1849.00,0.0003
1848.00,0.0003
1847.00,0.0003
1846.00,0.0004
1845.00,0.0004
1844.00,0.0005
1843.00,0.0005
1842.00,0.0004
1841.00,0.0004
1840.00,0.0003
1839.00,0.0004
1838.00,0.0004
1837.00,0.0003
1836.00,0.0003
1835.00,0.0002
1834.00,0.0002
1833.00,0.0002
1832.00,0.0003
1831.00,0.0004
1830.00,0.0005
1829.00,0.0005
1828.00,0.0005
1827.00,0.0005
1826.00,0.0004
1825.00,0.0004
1824.00,0.0004
1823.00,0.0004
1822.00,0.0004
1821.00,0.0003
1820.00,0.0003
1819.00,0.0002
1818.00,0.0001
1817.00,0.0001
1816.00,0.0001
1815.00,0.0001
1814.00,0.0001
1813.00,0.0001
1812.00,0.0002
1811.00,0.0003
1810.00,0.0004
1809.00,0.0004
1808.00,0.0005
1807.00,0.0005
1806.00,0.0006
1805.00,0.0006
1804.00,0.0006
1803.00,0.0006
1802.00,0.0007
1801.00,0.0007
1800.00,0.0007
1799.00,0.0007
1798.00,0.0008
1797.00,0.0008
1796.00,0.0008
1795.00,0.0007
1794.00,0.0007
1793.00,0.0007
1792.00,0.0007
1791.00,0.0008
1790.00,0.0008
1789.00,0.0008
1788.00,0.0008
1787.00,0.0008
1786.00,0.0008
1785.00,0.0008
1784.00,0.0008
1783.00,0.0008
1782.00,0.0008
1781.00,0.0009
1780.00,0.0010
1779.00,0.0010
1778.00,0.0010
1777.00,0.0010
1776.00,0.0010
1775.00,0.0010
1774.00,0.0010
1773.00,0.0010
1772.00,0.0011
1771.00,0.0012
1770.00,0.0012
1769.00,0.0012
1768.00,0.0012
1767.00,0.0013
1766.00,0.0013
1765.00,0.0013
1764.00,0.0014
1763.00,0.0014
1762.00,0.0015
1761.00,0.0016
1760.00,0.0018
1759.00,0.0019
1758.00,0.0020
1757.00,0.0021
1756.00,0.0023
1755.00,0.0024
1754.00,0.0026
1753.00,0.0027
1752.00,0.0029
1751.00,0.0030
1750.00,0.0032
1749.00,0.0033
1748.00,0.0034
1747.00,0.0036
1746.00,0.0036
1745.00,0.0037
1744.00,0.0037
1743.00,0.0038
1742.00,0.0038
1741.00,0.0038
1740.00,0.0038
1739.00,0.0038
1738.00,0.0037
1737.00,0.0037
1736.00,0.0037
1735.00,0.0036
1734.00,0.0035
1733.00,0.0034
1732.00,0.0034
1731.00,0.0033
1730.00,0.0033
1729.00,0.0033
1728.00,0.0033
1727.00,0.0033
1726.00,0.0032
1725.00,0.0032
1724.00,0.0032
1723.00,0.0031
1722.00,0.0030
1721.00,0.0030
1720.00,0.0030
1719.00,0.0030
1718.00,0.0029
1717.00,0.0029
1716.00,0.0028
1715.00,0.0027
1714.00,0.0026
1713.00,0.0027
1712.00,0.0027
1711.00,0.0028
1710.00,0.0028
1709.00,0.0029
1708.00,0.0029
1707.00,0.0028
1706.00,0.0028
1705.00,0.0028
1704.00,0.0029
1703.00,0.0030
1702.00,0.0031
1701.00,0.0031
1700.00,0.0031
1699.00,0.0031
1698.00,0.0031
1697.00,0.0032
1696.00,0.0033
1695.00,0.0034
1694.00,0.0035
1693.00,0.0036
1692.00,0.0037
1691.00,0.0038
1690.00,0.0039
1689.00,0.0040
1688.00,0.0041
1687.00,0.0041
1686.00,0.0042
1685.00,0.0043
1684.00,0.0045
1683.00,0.0046
1682.00,0.0047
1681.00,0.0047
1680.00,0.0048
1679.00,0.0049
1678.00,0.0050
1677.00,0.0051
1676.00,0.0052
1675.00,0.0053
1674.00,0.0054
1673.00,0.0055
1672.00,0.0056
1671.00,0.0057
1670.00,0.0058
1669.00,0.0059
1668.00,0.0059
1667.00,0.0060
1666.00,0.0060
1665.00,0.0060
1664.00,0.0061
1663.00,0.0062
1662.00,0.0063
1661.00,0.0065
1660.00,0.0066
1659.00,0.0067
1658.00,0.0067
1657.00,0.0068
1656.00,0.0068
1655.00,0.0068
1654.00,0.0069
1653.00,0.0070
1652.00,0.0072
1651.00,0.0072
1650.00,0.0073
1649.00,0.0073
1648.00,0.0074
1647.00,0.0075
1646.00,0.0076
1645.00,0.0076
1644.00,0.0076
1643.00,0.0077
1642.00,0.0077
1641.00,0.0077
1640.00,0.0078
1639.00,0.0078
1638.00,0.0079
1637.00,0.0080
1636.00,0.0080
1635.00,0.0081
1634.00,0.0080
1633.00,0.0080
1632.00,0.0080
1631.00,0.0079
1630.00,0.0078
1629.00,0.0078
1628.00,0.0077
1627.00,0.0077
1626.00,0.0076
1625.00,0.0075
1624.00,0.0075
1623.00,0.0075
1622.00,0.0075
1621.00,0.0074
1620.00,0.0074
1619.00,0.0073
1618.00,0.0072
1617.00,0.0071
1616.00,0.0071
1615.00,0.0071
1614.00,0.0072
1613.00,0.0072
1612.00,0.0072
1611.00,0.0072
1610.00,0.0072
1609.00,0.0072
1608.00,0.0072
1607.00,0.0072
1606.00,0.0071
1605.00,0.0071
1604.00,0.0071
1603.00,0.0071
1602.00,0.0071
1601.00,0.0071
1600.00,0.0071
1599.00,0.0071
1598.00,0.0070
1597.00,0.0070
1596.00,0.0071
1595.00,0.0071
1594.00,0.0071
1593.00,0.0071
1592.00,0.0072
1591.00,0.0073
1590.00,0.0073
1589.00,0.0074
1588.00,0.0076
1587.00,0.0078
1586.00,0.0080
1585.00,0.0083
1584.00,0.0086
1583.00,0.0090
1582.00,0.0094
1581.00,0.0098
1580.00,0.0102
1579.00,0.0105
1578.00,0.0107
1577.00,0.0108
1576.00,0.0108
1575.00,0.0107
1574.00,0.0105
1573.00,0.0104
1572.00,0.0102
1571.00,0.0099
1570.00,0.0095
1569.00,0.0092
1568.00,0.0091
1567.00,0.0090
1566.00,0.0089
1565.00,0.0087
1564.00,0.0086
1563.00,0.0086
1562.00,0.0087
1561.00,0.0088
1560.00,0.0088
1559.00,0.0088
1558.00,0.0089
1557.00,0.0090
1556.00,0.0091
1555.00,0.0091
1554.00,0.0091
1553.00,0.0093
1552.00,0.0094
1551.00,0.0097
1550.00,0.0099
1549.00,0.0101
1548.00,0.0104
1547.00,0.0106
1546.00,0.0109
1545.00,0.0113
1544.00,0.0117
1543.00,0.0120
1542.00,0.0122
1541.00,0.0123
1540.00,0.0121
1539.00,0.0117
1538.00,0.0113
1537.00,0.0109
1536.00,0.0105
1535.00,0.0100
1534.00,0.0093
1533.00,0.0088
1532.00,0.0084
1531.00,0.0081
1530.00,0.0079
1529.00,0.0077
1528.00,0.0076
1527.00,0.0074
1526.00,0.0073
1525.00,0.0072
1524.00,0.0072
1523.00,0.0072
1522.00,0.0072
1521.00,0.0072
1520.00,0.0072
1519.00,0.0072
1518.00,0.0071
1517.00,0.0072
1516.00,0.0072
1515.00,0.0072
1514.00,0.0071
1513.00,0.0071
1512.00,0.0071
1511.00,0.0072
1510.00,0.0072
1509.00,0.0074
1508.00,0.0075
1507.00,0.0075
1506.00,0.0075
1505.00,0.0075
1504.00,0.0077
1503.00,0.0078
1502.00,0.0079
1501.00,0.0081
1500.00,0.0083
1499.00,0.0085
1498.00,0.0087
1497.00,0.0091
1496.00,0.0095
1495.00,0.0098
1494.00,0.0100
1493.00,0.0104
1492.00,0.0108
1491.00,0.0112
1490.00,0.0116
1489.00,0.0122
1488.00,0.0127
1487.00,0.0132
1486.00,0.0138
1485.00,0.0145
1484.00,0.0154
1483.00,0.0162
1482.00,0.0172
1481.00,0.0185
1480.00,0.0198
1479.00,0.0212
1478.00,0.0228
1477.00,0.0249
1476.00,0.0275
1475.00,0.0303
1474.00,0.0342
1473.00,0.0397
1472.00,0.0462
1471.00,0.0525
1470.00,0.0585
1469.00,0.0649
1468.00,0.0716
1467.00,0.0789
1466.00,0.0870
1465.00,0.0958
1464.00,0.1034
1463.00,0.1087
1462.00,0.1120
1461.00,0.1143
1460.00,0.1159
1459.00,0.1170
1458.00,0.1180
1457.00,0.1189
1456.00,0.1190
1455.00,0.1184
1454.00,0.1174
1453.00,0.1158
1452.00,0.1132
1451.00,0.1096
1450.00,0.1047
1449.00,0.0979
1448.00,0.0892
1447.00,0.0800
1446.00,0.0717
1445.00,0.0645
1444.00,0.0582
1443.00,0.0531
1442.00,0.0491
1441.00,0.0464
1440.00,0.0447
1439.00,0.0440
1438.00,0.0439
1437.00,0.0437
1436.00,0.0426
1435.00,0.0403
1434.00,0.0369
1433.00,0.0329
1432.00,0.0287
1431.00,0.0249
1430.00,0.0219
1429.00,0.0197
1428.00,0.0182
1427.00,0.0172
1426.00,0.0166
1425.00,0.0160
1424.00,0.0154
1423.00,0.0151
1422.00,0.0149
1421.00,0.0147
1420.00,0.0144
1419.00,0.0142
1418.00,0.0139
1417.00,0.0136
1416.00,0.0132
1415.00,0.0130
1414.00,0.0127
1413.00,0.0125
1412.00,0.0122
1411.00,0.0120
1410.00,0.0120
1409.00,0.0118
1408.00,0.0116
1407.00,0.0115
1406.00,0.0114
1405.00,0.0113
1404.00,0.0111
1403.00,0.0110
1402.00,0.0110
1401.00,0.0109
1400.00,0.0108
1399.00,0.0109
1398.00,0.0110
1397.00,0.0111
1396.00,0.0112
1395.00,0.0114
1394.00,0.0118
1393.00,0.0122
1392.00,0.0127
1391.00,0.0134
1390.00,0.0143
1389.00,0.0156
1388.00,0.0176
1387.00,0.0207
1386.00,0.0249
1385.00,0.0304
1384.00,0.0380
1383.00,0.0486
1382.00,0.0629
1381.00,0.0812
1380.00,0.1034
1379.00,0.1281
1378.00,0.1512
1377.00,0.1674
1376.00,0.1717
1375.00,0.1620
1374.00,0.1410
1373.00,0.1164
1372.00,0.0942
1371.00,0.0761
1370.00,0.0618
1369.00,0.0509
1368.00,0.0434
1367.00,0.0387
1366.00,0.0362
1365.00,0.0351
1364.00,0.0353
1363.00,0.0365
1362.00,0.0384
1361.00,0.0404
1360.00,0.0418
1359.00,0.0423
1358.00,0.0413
1357.00,0.0391
1356.00,0.0359
1355.00,0.0324
1354.00,0.0290
1353.00,0.0261
1352.00,0.0237
1351.00,0.0217
1350.00,0.0200
1349.00,0.0187
1348.00,0.0175
1347.00,0.0166
1346.00,0.0158
1345.00,0.0151
1344.00,0.0145
1343.00,0.0140
1342.00,0.0136
1341.00,0.0133
1340.00,0.0130
1339.00,0.0129
1338.00,0.0128
1337.00,0.0128
1336.00,0.0128
1335.00,0.0129
1334.00,0.0132
1333.00,0.0135
1332.00,0.0138
1331.00,0.0141
1330.00,0.0142
1329.00,0.0142
1328.00,0.0139
1327.00,0.0135
1326.00,0.0130
1325.00,0.0125
1324.00,0.0119
1323.00,0.0114
1322.00,0.0111
1321.00,0.0108
1320.00,0.0106
1319.00,0.0105
1318.00,0.0103
1317.00,0.0102
1316.00,0.0102
1315.00,0.0101
1314.00,0.0101
1313.00,0.0101
1312.00,0.0102
1311.00,0.0105
1310.00,0.0110
1309.00,0.0117
1308.00,0.0127
1307.00,0.0139
1306.00,0.0150
1305.00,0.0158
1304.00,0.0160
1303.00,0.0157
1302.00,0.0150
1301.00,0.0144
1300.00,0.0140
1299.00,0.0139
1298.00,0.0138
1297.00,0.0137
1296.00,0.0136
1295.00,0.0133
1294.00,0.0129
1293.00,0.0124
1292.00,0.0119
1291.00,0.0115
1290.00,0.0110
1289.00,0.0106
1288.00,0.0103
1287.00,0.0101
1286.00,0.0099
1285.00,0.0097
1284.00,0.0095
1283.00,0.0093
1282.00,0.0092
1281.00,0.0090
1280.00,0.0088
1279.00,0.0087
1278.00,0.0086
1277.00,0.0086
1276.00,0.0085
1275.00,0.0085
1274.00,0.0084
1273.00,0.0084
1272.00,0.0084
1271.00,0.0084
1270.00,0.0084
1269.00,0.0086
1268.00,0.0088
1267.00,0.0090
1266.00,0.0092
1265.00,0.0094
1264.00,0.0097
1263.00,0.0100
1262.00,0.0104
1261.00,0.0108
1260.00,0.0114
1259.00,0.0121
1258.00,0.0129
1257.00,0.0134
1256.00,0.0137
1255.00,0.0135
1254.00,0.0128
1253.00,0.0119
1252.00,0.0110
1251.00,0.0102
1250.00,0.0097
1249.00,0.0094
1248.00,0.0092
1247.00,0.0090
1246.00,0.0088
1245.00,0.0086
1244.00,0.0084
1243.00,0.0083
1242.00,0.0082
1241.00,0.0082
1240.00,0.0081
1239.00,0.0081
1238.00,0.0081
1237.00,0.0082
1236.00,0.0082
1235.00,0.0083
1234.00,0.0084
1233.00,0.0086
1232.00,0.0087
1231.00,0.0089
1230.00,0.0090
1229.00,0.0092
1228.00,0.0094
1227.00,0.0096
1226.00,0.0098
1225.00,0.0101
1224.00,0.0105
1223.00,0.0108
1222.00,0.0112
1221.00,0.0116
1220.00,0.0118
1219.00,0.0119
1218.00,0.0118
1217.00,0.0117
1216.00,0.0114
1215.00,0.0112
1214.00,0.0108
1213.00,0.0106
1212.00,0.0103
1211.00,0.0102
1210.00,0.0100
1209.00,0.0099
1208.00,0.0097
1207.00,0.0096
1206.00,0.0096
1205.00,0.0096
1204.00,0.0096
1203.00,0.0096
1202.00,0.0097
1201.00,0.0097
1200.00,0.0097
1199.00,0.0098
1198.00,0.0099
1197.00,0.0099
1196.00,0.0099
1195.00,0.0099
1194.00,0.0099
1193.00,0.0099
1192.00,0.0099
1191.00,0.0098
1190.00,0.0097
1189.00,0.0097
1188.00,0.0096
1187.00,0.0096
1186.00,0.0097
1185.00,0.0097
1184.00,0.0098
1183.00,0.0098
1182.00,0.0099
1181.00,0.0101
1180.00,0.0104
1179.00,0.0108
1178.00,0.0114
1177.00,0.0122
1176.00,0.0134
1175.00,0.0150
1174.00,0.0170
1173.00,0.0196
1172.00,0.0227
1171.00,0.0260
1170.00,0.0292
1169.00,0.0318
1168.00,0.0334
1167.00,0.0336
1166.00,0.0326
1165.00,0.0308
1164.00,0.0288
1163.00,0.0269
1162.00,0.0252
1161.00,0.0238
1160.00,0.0227
1159.00,0.0218
1158.00,0.0211
1157.00,0.0206
1156.00,0.0201
1155.00,0.0198
1154.00,0.0196
1153.00,0.0193
1152.00,0.0189
1151.00,0.0183
1150.00,0.0175
1149.00,0.0166
1148.00,0.0156
1147.00,0.0147
1146.00,0.0139
1145.00,0.0132
1144.00,0.0126
1143.00,0.0120
1142.00,0.0114
1141.00,0.0110
1140.00,0.0106
1139.00,0.0102
1138.00,0.0098
1137.00,0.0095
1136.00,0.0092
1135.00,0.0091
1134.00,0.0090
1133.00,0.0089
1132.00,0.0089
1131.00,0.0090
1130.00,0.0090
1129.00,0.0091
1128.00,0.0091
1127.00,0.0093
1126.00,0.0094
1125.00,0.0095
1124.00,0.0096
1123.00,0.0097
1122.00,0.0099
1121.00,0.0101
1120.00,0.0103
1119.00,0.0104
1118.00,0.0105
1117.00,0.0106
1116.00,0.0107
1115.00,0.0108
1114.00,0.0109
1113.00,0.0112
1112.00,0.0114
1111.00,0.0116
1110.00,0.0119
1109.00,0.0122
1108.00,0.0126
1107.00,0.0131
1106.00,0.0137
1105.00,0.0142
1104.00,0.0147
1103.00,0.0149
1102.00,0.0148
1101.00,0.0145
1100.00,0.0140
1099.00,0.0133
1098.00,0.0128
1097.00,0.0122
1096.00,0.0117
1095.00,0.0113
1094.00,0.0110
1093.00,0.0106
1092.00,0.0102
1091.00,0.0099
1090.00,0.0096
1089.00,0.0094
1088.00,0.0093
1087.00,0.0092
1086.00,0.0091
1085.00,0.0091
1084.00,0.0090
1083.00,0.0089
1082.00,0.0088
1081.00,0.0087
1080.00,0.0086
1079.00,0.0085
1078.00,0.0084
1077.00,0.0083
1076.00,0.0083
1075.00,0.0083
1074.00,0.0082
1073.00,0.0082
1072.00,0.0081
1071.00,0.0081
1070.00,0.0081
1069.00,0.0081
1068.00,0.0081
1067.00,0.0082
1066.00,0.0082
1065.00,0.0083
1064.00,0.0084
1063.00,0.0085
1062.00,0.0086
1061.00,0.0088
1060.00,0.0089
1059.00,0.0090
1058.00,0.0092
1057.00,0.0093
1056.00,0.0095
1055.00,0.0098
1054.00,0.0101
1053.00,0.0105
1052.00,0.0109
1051.00,0.0114
1050.00,0.0119
1049.00,0.0123
1048.00,0.0128
1047.00,0.0133
1046.00,0.0138
1045.00,0.0141
1044.00,0.0143
1043.00,0.0142
1042.00,0.0140
1041.00,0.0138
1040.00,0.0137
1039.00,0.0137
1038.00,0.0138
1037.00,0.0140
1036.00,0.0140
1035.00,0.0140
1034.00,0.0140
1033.00,0.0138
1032.00,0.0136
1031.00,0.0134
1030.00,0.0133
1029.00,0.0132
1028.00,0.0132
1027.00,0.0133
1026.00,0.0134
1025.00,0.0136
1024.00,0.0137
1023.00,0.0140
1022.00,0.0142
1021.00,0.0144
1020.00,0.0146
1019.00,0.0147
1018.00,0.0148
1017.00,0.0150
1016.00,0.0152
1015.00,0.0155
1014.00,0.0156
1013.00,0.0157
1012.00,0.0158
1011.00,0.0158
1010.00,0.0158
1009.00,0.0158
1008.00,0.0160
1007.00,0.0163
1006.00,0.0170
1005.00,0.0180
1004.00,0.0196
1003.00,0.0219
1002.00,0.0252
1001.00,0.0292
1000.00,0.0336
999.00,0.0373
998.00,0.0392
997.00,0.0385
996.00,0.0355
995.00,0.0312
994.00,0.0266
993.00,0.0226
992.00,0.0195
991.00,0.0172
990.00,0.0157
989.00,0.0147
988.00,0.0140
987.00,0.0136
986.00,0.0133
985.00,0.0133
984.00,0.0136
983.00,0.0141
982.00,0.0151
981.00,0.0166
980.00,0.0188
979.00,0.0217
978.00,0.0254
977.00,0.0298
976.00,0.0345
975.00,0.0391
974.00,0.0424
973.00,0.0437
972.00,0.0422
971.00,0.0381
970.00,0.0324
969.00,0.0267
968.00,0.0217
967.00,0.0180
966.00,0.0153
965.00,0.0134
964.00,0.0120
963.00,0.0110
962.00,0.0103
961.00,0.0097
960.00,0.0091
959.00,0.0085
958.00,0.0080
957.00,0.0076
956.00,0.0073
955.00,0.0071
954.00,0.0070
953.00,0.0068
952.00,0.0067
951.00,0.0066
950.00,0.0066
949.00,0.0066
948.00,0.0066
947.00,0.0067
946.00,0.0069
945.00,0.0071
944.00,0.0074
943.00,0.0077
942.00,0.0080
941.00,0.0082
940.00,0.0082
939.00,0.0080
938.00,0.0078
937.00,0.0074
936.00,0.0071
935.00,0.0068
934.00,0.0066
933.00,0.0065
932.00,0.0064
931.00,0.0064
930.00,0.0063
929.00,0.0063
928.00,0.0063
927.00,0.0065
926.00,0.0065
925.00,0.0066
924.00,0.0066
923.00,0.0065
922.00,0.0066
921.00,0.0067
920.00,0.0068
919.00,0.0069
918.00,0.0070
917.00,0.0071
916.00,0.0072
915.00,0.0072
914.00,0.0073
913.00,0.0074
912.00,0.0075
911.00,0.0076
910.00,0.0077
909.00,0.0079
908.00,0.0082
907.00,0.0086
906.00,0.0093
905.00,0.0102
904.00,0.0114
903.00,0.0130
902.00,0.0148
901.00,0.0165
900.00,0.0175
899.00,0.0176
898.00,0.0169
897.00,0.0155
896.00,0.0139
895.00,0.0124
894.00,0.0111
893.00,0.0101
892.00,0.0094
891.00,0.0089
890.00,0.0085
889.00,0.0082
888.00,0.0080
887.00,0.0079
886.00,0.0078
885.00,0.0077
884.00,0.0077
883.00,0.0078
882.00,0.0080
881.00,0.0081
880.00,0.0082
879.00,0.0082
878.00,0.0081
877.00,0.0081
876.00,0.0081
875.00,0.0082
874.00,0.0083
873.00,0.0083
872.00,0.0083
871.00,0.0083
870.00,0.0083
869.00,0.0083
868.00,0.0084
867.00,0.0084
866.00,0.0085
865.00,0.0086
864.00,0.0086
863.00,0.0087
862.00,0.0088
861.00,0.0089
860.00,0.0090
859.00,0.0091
858.00,0.0092
857.00,0.0094
856.00,0.0096
855.00,0.0098
854.00,0.0101
853.00,0.0104
852.00,0.0108
851.00,0.0113
850.00,0.0118
849.00,0.0124
848.00,0.0133
847.00,0.0146
846.00,0.0169
845.00,0.0205
844.00,0.0255
843.00,0.0315
842.00,0.0364
841.00,0.0381
840.00,0.0357
839.00,0.0303
838.00,0.0243
837.00,0.0195
836.00,0.0163
835.00,0.0144
834.00,0.0131
833.00,0.0123
832.00,0.0117
831.00,0.0114
830.00,0.0111
829.00,0.0108
828.00,0.0106
827.00,0.0105
826.00,0.0105
825.00,0.0105
824.00,0.0104
823.00,0.0102
822.00,0.0102
821.00,0.0103
820.00,0.0104
819.00,0.0105
818.00,0.0108
817.00,0.0112
816.00,0.0120
815.00,0.0131
814.00,0.0146
813.00,0.0164
812.00,0.0183
811.00,0.0200
810.00,0.0211
809.00,0.0215
808.00,0.0209
807.00,0.0198
806.00,0.0182
805.00,0.0165
804.00,0.0150
803.00,0.0138
802.00,0.0130
801.00,0.0123
800.00,0.0117
799.00,0.0112
798.00,0.0108
797.00,0.0105
796.00,0.0103
795.00,0.0101
794.00,0.0099
793.00,0.0096
792.00,0.0093
791.00,0.0089
790.00,0.0087
789.00,0.0085
788.00,0.0085
787.00,0.0084
786.00,0.0082
785.00,0.0079
784.00,0.0077
783.00,0.0077
782.00,0.0077
781.00,0.0077
780.00,0.0076
779.00,0.0073
778.00,0.0071
777.00,0.0069
776.00,0.0069
775.00,0.0070
774.00,0.0072
773.00,0.0074
772.00,0.0075
771.00,0.0075
770.00,0.0074
769.00,0.0073
768.00,0.0073
767.00,0.0073
766.00,0.0072
765.00,0.0072
764.00,0.0072
763.00,0.0072
762.00,0.0074
761.00,0.0077
760.00,0.0080
759.00,0.0081
758.00,0.0081
757.00,0.0080
756.00,0.0079
755.00,0.0080
754.00,0.0082
753.00,0.0084
752.00,0.0087
751.00,0.0089
750.00,0.0090
749.00,0.0091
748.00,0.0091
747.00,0.0091
746.00,0.0091
745.00,0.0093
744.00,0.0095
743.00,0.0097
742.00,0.0100
741.00,0.0103
740.00,0.0107
739.00,0.0111
738.00,0.0116
737.00,0.0122
736.00,0.0127
735.00,0.0132
734.00,0.0137
733.00,0.0144
732.00,0.0151
731.00,0.0157
730.00,0.0163
729.00,0.0166
728.00,0.0167
727.00,0.0168
726.00,0.0168
725.00,0.0170
724.00,0.0174
723.00,0.0180
722.00,0.0187
721.00,0.0192
720.00,0.0191
719.00,0.0184
718.00,0.0171
717.00,0.0156
716.00,0.0143
715.00,0.0133
714.00,0.0126
713.00,0.0122
712.00,0.0119
711.00,0.0117
710.00,0.0115
709.00,0.0115
708.00,0.0114
707.00,0.0113
706.00,0.0113
705.00,0.0113
704.00,0.0113
703.00,0.0112
702.00,0.0111
701.00,0.0110
700.00,0.0108
699.00,0.0106
698.00,0.0104
697.00,0.0102
696.00,0.0100
695.00,0.0099
694.00,0.0100
693.00,0.0101
692.00,0.0103
691.00,0.0104
690.00,0.0103
689.00,0.0101
688.00,0.0100
687.00,0.0100
686.00,0.0101
685.00,0.0102
684.00,0.0103
683.00,0.0104
682.00,0.0104
681.00,0.0105
680.00,0.0106
679.00,0.0106
678.00,0.0105
677.00,0.0104
676.00,0.0102
675.00,0.0101
674.00,0.0103
673.00,0.0106
672.00,0.0110
671.00,0.0114
670.00,0.0118
669.00,0.0120
668.00,0.0118
667.00,0.0115
666.00,0.0111
665.00,0.0107
664.00,0.0105
663.00,0.0103
662.00,0.0102
661.00,0.0100
660.00,0.0098
659.00,0.0095
658.00,0.0093
657.00,0.0093
656.00,0.0093
655.00,0.0093
654.00,0.0093
653.00,0.0092
652.00,0.0092
651.00,0.0092
650.00,0.0092
649.00,0.0093
648.00,0.0093
647.00,0.0093
646.00,0.0092
645.00,0.0091
644.00,0.0090
643.00,0.0089
642.00,0.0090
641.00,0.0091
640.00,0.0091
639.00,0.0091
638.00,0.0092
637.00,0.0093
636.00,0.0095
635.00,0.0097
634.00,0.0097
633.00,0.0095
632.00,0.0094
631.00,0.0093
630.00,0.0094
629.00,0.0094
628.00,0.0094
627.00,0.0094
626.00,0.0095
625.00,0.0096
624.00,0.0096
623.00,0.0095
622.00,0.0094
621.00,0.0094
620.00,0.0094
619.00,0.0097
618.00,0.0101
617.00,0.0105
616.00,0.0107
615.00,0.0104
614.00,0.0099
613.00,0.0096
612.00,0.0095
611.00,0.0095
610.00,0.0094
609.00,0.0093
608.00,0.0092
607.00,0.0095
606.00,0.0100
605.00,0.0103
604.00,0.0101
603.00,0.0097
602.00,0.0093
601.00,0.0092
600.00,0.0092
599.00,0.0092
598.00,0.0092
597.00,0.0091
596.00,0.0092
595.00,0.0094
594.00,0.0095
593.00,0.0095
592.00,0.0092
591.00,0.0090
590.00,0.0091
589.00,0.0093
588.00,0.0096
587.00,0.0100
586.00,0.0102
585.00,0.0102
584.00,0.0101
583.00,0.0098
582.00,0.0095
581.00,0.0091
580.00,0.0089
579.00,0.0090
578.00,0.0093
577.00,0.0095
576.00,0.0093
575.00,0.0092
574.00,0.0093
573.00,0.0097
572.00,0.0100
571.00,0.0101
570.00,0.0100
569.00,0.0101
568.00,0.0102
567.00,0.0102
566.00,0.0102
565.00,0.0101
564.00,0.0100
563.00,0.0099
562.00,0.0098
561.00,0.0098
560.00,0.0097
559.00,0.0096
558.00,0.0094
557.00,0.0092
556.00,0.0091
555.00,0.0091
554.00,0.0092
553.00,0.0093
552.00,0.0095
551.00,0.0097
550.00,0.0099
549.00,0.0099
548.00,0.0097
547.00,0.0095
546.00,0.0093
545.00,0.0094
544.00,0.0098
543.00,0.0103
542.00,0.0106
541.00,0.0106
540.00,0.0102
539.00,0.0099
538.00,0.0100
537.00,0.0104
536.00,0.0111
535.00,0.0117
534.00,0.0121
533.00,0.0121
532.00,0.0119
531.00,0.0116
530.00,0.0113
529.00,0.0112
528.00,0.0113
527.00,0.0116
526.00,0.0120
525.00,0.0123
524.00,0.0122
523.00,0.0119
522.00,0.0115
521.00,0.0111
520.00,0.0107
519.00,0.0105
518.00,0.0104
517.00,0.0105
516.00,0.0106
515.00,0.0106
514.00,0.0104
513.00,0.0100
512.00,0.0098
511.00,0.0101
510.00,0.0106
509.00,0.0108
508.00,0.0106
507.00,0.0103
506.00,0.0102
505.00,0.0100
504.00,0.0097
503.00,0.0093
502.00,0.0093
501.00,0.0097
500.00,0.0102
499.00,0.0105
498.00,0.0106
497.00,0.0107
496.00,0.0106
495.00,0.0104
494.00,0.0101
493.00,0.0100
492.00,0.0102
491.00,0.0107
490.00,0.0114
489.00,0.0119
488.00,0.0119
487.00,0.0115
486.00,0.0108
485.00,0.0101
484.00,0.0096
483.00,0.0094
482.00,0.0092
481.00,0.0093
480.00,0.0099
479.00,0.0109
478.00,0.0124
477.00,0.0138
476.00,0.0147
475.00,0.0150
474.00,0.0149
473.00,0.0149
472.00,0.0151
471.00,0.0158
470.00,0.0167
469.00,0.0173
468.00,0.0174
467.00,0.0172
466.00,0.0175
465.00,0.0184
464.00,0.0198
463.00,0.0207
462.00,0.0212
461.00,0.0217
460.00,0.0228
459.00,0.0241
458.00,0.0244
457.00,0.0235
456.00,0.0223
455.00,0.0215
454.00,0.0208
453.00,0.0199
452.00,0.0186
451.00,0.0177
450.00,0.0173
