Created as New Dataset,Sample 012 By Administrator Date Wednesday, September 03 2025
cm-1,A
4000.00,0.0010
3999.00,0.0010
3998.00,0.0010
3997.00,0.0010
3996.00,0.0010
3995.00,0.0010
3994.00,0.0010
3993.00,0.0010
3992.00,0.0010
3991.00,0.0010
3990.00,0.0010
3989.00,0.0010
3988.00,0.0010
3987.00,0.0010
3986.00,0.0010
3985.00,0.0010
3984.00,0.0010
3983.00,0.0010
3982.00,0.0010
3981.00,0.0010
3980.00,0.0009
3979.00,0.0009
3978.00,0.0009
3977.00,0.0009
3976.00,0.0009
3975.00,0.0009
3974.00,0.0009
3973.00,0.0009
3972.00,0.0009
3971.00,0.0009
3970.00,0.0009
3969.00,0.0009
3968.00,0.0009
3967.00,0.0008
3966.00,0.0008
3965.00,0.0008
3964.00,0.0008
3963.00,0.0008
3962.00,0.0008
3961.00,0.0008
3960.00,0.0008
3959.00,0.0008
3958.00,0.0008
3957.00,0.0008
3956.00,0.0008
3955.00,0.0008
3954.00,0.0008
3953.00,0.0008
3952.00,0.0008
3951.00,0.0008
3950.00,0.0008
3949.00,0.0008
3948.00,0.0008
3947.00,0.0009
3946.00,0.0009
3945.00,0.0009
3944.00,0.0009
3943.00,0.0009
3942.00,0.0009
3941.00,0.0008
3940.00,0.0008
3939.00,0.0008
3938.00,0.0009
3937.00,0.0009
3936.00,0.0009
3935.00,0.0009
3934.00,0.0009
3933.00,0.0009
3932.00,0.0009
3931.00,0.0009
3930.00,0.0008
3929.00,0.0008
3928.00,0.0008
3927.00,0.0008
3926.00,0.0008
3925.00,0.0008
3924.00,0.0008
3923.00,0.0008
3922.00,0.0008
3921.00,0.0008
3920.00,0.0008
3919.00,0.0008
3918.00,0.0008
3917.00,0.0008
3916.00,0.0008
3915.00,0.0008
3914.00,0.0008
3913.00,0.0008
3912.00,0.0008
3911.00,0.0008
3910.00,0.0009
3909.00,0.0009
3908.00,0.0009
3907.00,0.0008
3906.00,0.0008
3905.00,0.0008
3904.00,0.0008
3903.00,0.0008
3902.00,0.0008
3901.00,0.0008
3900.00,0.0008
3899.00,0.0008
3898.00,0.0008
3897.00,0.0008
3896.00,0.0008
3895.00,0.0008
3894.00,0.0008
3893.00,0.0008
3892.00,0.0008
3891.00,0.0008
3890.00,0.0008
3889.00,0.0008
3888.00,0.0008
3887.00,0.0008
3886.00,0.0008
3885.00,0.0007
3884.00,0.0007
3883.00,0.0007
3882.00,0.0007
3881.00,0.0008
3880.00,0.0008
3879.00,0.0008
3878.00,0.0008
3877.00,0.0008
3876.00,0.0008
3875.00,0.0008
3874.00,0.0008
3873.00,0.0009
3872.00,0.0009
3871.00,0.0009
3870.00,0.0008
3869.00,0.0008
3868.00,0.0008
3867.00,0.0008
3866.00,0.0008
3865.00,0.0008
3864.00,0.0008
3863.00,0.0008
3862.00,0.0007
3861.00,0.0007
3860.00,0.0006
3859.00,0.0007
3858.00,0.0007
3857.00,0.0008
3856.00,0.0008
3855.00,0.0008
3854.00,0.0007
3853.00,0.0006
3852.00,0.0006
3851.00,0.0006
3850.00,0.0006
3849.00,0.0007
3848.00,0.0007
3847.00,0.0008
3846.00,0.0008
3845.00,0.0008
3844.00,0.0008
3843.00,0.0008
3842.00,0.0008
3841.00,0.0007
3840.00,0.0007
3839.00,0.0007
3838.00,0.0007
3837.00,0.0007
3836.00,0.0007
3835.00,0.0007
3834.00,0.0007
3833.00,0.0007
3832.00,0.0007
3831.00,0.0007
3830.00,0.0007
3829.00,0.0007
3828.00,0.0007
3827.00,0.0008
3826.00,0.0008
3825.00,0.0008
3824.00,0.0008
3823.00,0.0008
3822.00,0.0007
3821.00,0.0007
3820.00,0.0007
3819.00,0.0007
3818.00,0.0007
3817.00,0.0007
3816.00,0.0007
3815.00,0.0007
3814.00,0.0007
3813.00,0.0007
3812.00,0.0007
3811.00,0.0008
3810.00,0.0008
3809.00,0.0008
3808.00,0.0008
3807.00,0.0008
3806.00,0.0008
3805.00,0.0008
3804.00,0.0008
3803.00,0.0008
3802.00,0.0007
3801.00,0.0007
3800.00,0.0007
3799.00,0.0007
3798.00,0.0007
3797.00,0.0008
3796.00,0.0008
3795.00,0.0009
3794.00,0.0009
3793.00,0.0009
3792.00,0.0008
3791.00,0.0008
3790.00,0.0008
3789.00,0.0008
3788.00,0.0008
3787.00,0.0008
3786.00,0.0008
3785.00,0.0008
3784.00,0.0008
3783.00,0.0008
3782.00,0.0008
3781.00,0.0008
3780.00,0.0008
3779.00,0.0008
3778.00,0.0008
3777.00,0.0008
3776.00,0.0008
3775.00,0.0008
3774.00,0.0008
3773.00,0.0009
3772.00,0.0009
3771.00,0.0009
3770.00,0.0009
3769.00,0.0009
3768.00,0.0008
3767.00,0.0008
3766.00,0.0008
3765.00,0.0008
3764.00,0.0008
3763.00,0.0009
3762.00,0.0009
3761.00,0.0009
3760.00,0.0009
3759.00,0.0008
3758.00,0.0008
3757.00,0.0008
3756.00,0.0009
3755.00,0.0009
3754.00,0.0009
3753.00,0.0009
3752.00,0.0009
3751.00,0.0009
3750.00,0.0008
3749.00,0.0008
3748.00,0.0008
3747.00,0.0007
3746.00,0.0007
3745.00,0.0007
3744.00,0.0007
3743.00,0.0006
3742.00,0.0006
3741.00,0.0005
3740.00,0.0005
3739.00,0.0005
3738.00,0.0005
3737.00,0.0005
3736.00,0.0005
3735.00,0.0005
3734.00,0.0006
3733.00,0.0006
3732.00,0.0006
3731.00,0.0006
3730.00,0.0006
3729.00,0.0006
3728.00,0.0006
3727.00,0.0006
3726.00,0.0007
3725.00,0.0007
3724.00,0.0007
3723.00,0.0007
3722.00,0.0007
3721.00,0.0007
3720.00,0.0007
3719.00,0.0007
3718.00,0.0007
3717.00,0.0007
3716.00,0.0007
3715.00,0.0007
3714.00,0.0007
3713.00,0.0006
3712.00,0.0006
3711.00,0.0006
3710.00,0.0006
3709.00,0.0006
3708.00,0.0006
3707.00,0.0006
3706.00,0.0006
3705.00,0.0006
3704.00,0.0006
3703.00,0.0006
3702.00,0.0006
3701.00,0.0006
3700.00,0.0005
3699.00,0.0005
3698.00,0.0005
3697.00,0.0005
3696.00,0.0005
3695.00,0.0005
3694.00,0.0005
3693.00,0.0005
3692.00,0.0006
3691.00,0.0006
3690.00,0.0006
3689.00,0.0006
3688.00,0.0006
3687.00,0.0006
3686.00,0.0006
3685.00,0.0006
3684.00,0.0006
3683.00,0.0006
3682.00,0.0006
3681.00,0.0006
3680.00,0.0006
3679.00,0.0006
3678.00,0.0006
3677.00,0.0006
3676.00,0.0006
3675.00,0.0007
3674.00,0.0006
3673.00,0.0005
3672.00,0.0005
3671.00,0.0004
3670.00,0.0004
3669.00,0.0004
3668.00,0.0004
3667.00,0.0004
3666.00,0.0004
3665.00,0.0004
3664.00,0.0004
3663.00,0.0004
3662.00,0.0004
3661.00,0.0004
3660.00,0.0004
3659.00,0.0004
3658.00,0.0004
3657.00,0.0004
3656.00,0.0004
3655.00,0.0004
3654.00,0.0004
3653.00,0.0004
3652.00,0.0004
3651.00,0.0003
3650.00,0.0003
3649.00,0.0003
3648.00,0.0003
3647.00,0.0004
3646.00,0.0004
3645.00,0.0004
3644.00,0.0005
3643.00,0.0005
3642.00,0.0006
3641.00,0.0006
3640.00,0.0006
3639.00,0.0007
3638.00,0.0007
3637.00,0.0007
3636.00,0.0007
3635.00,0.0007
3634.00,0.0006
3633.00,0.0006
3632.00,0.0006
3631.00,0.0006
3630.00,0.0006
3629.00,0.0006
3628.00,0.0006
3627.00,0.0007
3626.00,0.0007
3625.00,0.0007
3624.00,0.0007
3623.00,0.0007
3622.00,0.0008
3621.00,0.0008
3620.00,0.0008
3619.00,0.0009
3618.00,0.0009
3617.00,0.0009
3616.00,0.0009
3615.00,0.0009
3614.00,0.0010
3613.00,0.0010
3612.00,0.0009
3611.00,0.0009
3610.00,0.0008
3609.00,0.0008
3608.00,0.0008
3607.00,0.0009
3606.00,0.0009
3605.00,0.0009
3604.00,0.0009
3603.00,0.0010
3602.00,0.0010
3601.00,0.0010
3600.00,0.0011
3599.00,0.0011
3598.00,0.0010
3597.00,0.0010
3596.00,0.0010
3595.00,0.0010
3594.00,0.0011
3593.00,0.0011
3592.00,0.0012
3591.00,0.0012
3590.00,0.0012
3589.00,0.0012
3588.00,0.0012
3587.00,0.0012
3586.00,0.0013
3585.00,0.0013
3584.00,0.0014
3583.00,0.0014
3582.00,0.0014
3581.00,0.0014
3580.00,0.0014
3579.00,0.0014
3578.00,0.0014
3577.00,0.0014
3576.00,0.0015
3575.00,0.0015
3574.00,0.0015
3573.00,0.0015
3572.00,0.0015
3571.00,0.0015
3570.00,0.0015
3569.00,0.0015
3568.00,0.0015
3567.00,0.0015
3566.00,0.0016
3565.00,0.0016
3564.00,0.0016
3563.00,0.0017
3562.00,0.0017
3561.00,0.0018
3560.00,0.0018
3559.00,0.0018
3558.00,0.0018
3557.00,0.0019
3556.00,0.0019
3555.00,0.0019
3554.00,0.0019
3553.00,0.0019
3552.00,0.0019
3551.00,0.0019
3550.00,0.0020
3549.00,0.0020
3548.00,0.0020
3547.00,0.0021
3546.00,0.0021
3545.00,0.0021
3544.00,0.0021
3543.00,0.0021
3542.00,0.0021
3541.00,0.0021
3540.00,0.0021
3539.00,0.0021
3538.00,0.0021
3537.00,0.0022
3536.00,0.0022
3535.00,0.0022
3534.00,0.0022
3533.00,0.0022
3532.00,0.0023
3531.00,0.0023
3530.00,0.0023
3529.00,0.0023
3528.00,0.0024
3527.00,0.0024
3526.00,0.0024
3525.00,0.0025
3524.00,0.0025
3523.00,0.0026
3522.00,0.0026
3521.00,0.0026
3520.00,0.0026
3519.00,0.0026
3518.00,0.0026
3517.00,0.0026
3516.00,0.0026
3515.00,0.0026
3514.00,0.0027
3513.00,0.0027
3512.00,0.0027
3511.00,0.0026
3510.00,0.0026
3509.00,0.0026
3508.00,0.0027
3507.00,0.0027
3506.00,0.0028
3505.00,0.0028
3504.00,0.0029
3503.00,0.0029
3502.00,0.0029
3501.00,0.0029
3500.00,0.0030
3499.00,0.0030
3498.00,0.0030
3497.00,0.0030
3496.00,0.0030
3495.00,0.0030
3494.00,0.0031
3493.00,0.0031
3492.00,0.0031
3491.00,0.0031
3490.00,0.0031
3489.00,0.0031
3488.00,0.0031
3487.00,0.0032
3486.00,0.0032
3485.00,0.0032
3484.00,0.0032
3483.00,0.0032
3482.00,0.0032
3481.00,0.0033
3480.00,0.0033
3479.00,0.0033
3478.00,0.0034
3477.00,0.0034
3476.00,0.0034
3475.00,0.0034
3474.00,0.0034
3473.00,0.0034
3472.00,0.0034
3471.00,0.0035
3470.00,0.0035
3469.00,0.0035
3468.00,0.0035
3467.00,0.0034
3466.00,0.0034
3465.00,0.0035
3464.00,0.0035
3463.00,0.0035
3462.00,0.0035
3461.00,0.0035
3460.00,0.0036
3459.00,0.0036
3458.00,0.0036
3457.00,0.0036
3456.00,0.0036
3455.00,0.0036
3454.00,0.0037
3453.00,0.0037
3452.00,0.0038
3451.00,0.0038
3450.00,0.0038
3449.00,0.0039
3448.00,0.0039
3447.00,0.0039
3446.00,0.0039
3445.00,0.0039
3444.00,0.0039
3443.00,0.0039
3442.00,0.0040
3441.00,0.0040
3440.00,0.0040
3439.00,0.0041
3438.00,0.0041
3437.00,0.0041
3436.00,0.0041
3435.00,0.0041
3434.00,0.0041
3433.00,0.0042
3432.00,0.0042
3431.00,0.0042
3430.00,0.0042
3429.00,0.0041
3428.00,0.0041
3427.00,0.0041
3426.00,0.0041
3425.00,0.0041
3424.00,0.0042
3423.00,0.0042
3422.00,0.0042
3421.00,0.0042
3420.00,0.0042
3419.00,0.0042
3418.00,0.0043
3417.00,0.0043
3416.00,0.0044
3415.00,0.0044
3414.00,0.0044
3413.00,0.0044
3412.00,0.0045
3411.00,0.0045
3410.00,0.0045
3409.00,0.0046
3408.00,0.0046
3407.00,0.0046
3406.00,0.0045
3405.00,0.0045
3404.00,0.0045
3403.00,0.0046
3402.00,0.0046
3401.00,0.0046
3400.00,0.0046
3399.00,0.0046
3398.00,0.0046
3397.00,0.0046
3396.00,0.0047
3395.00,0.0047
3394.00,0.0047
3393.00,0.0046
3392.00,0.0046
3391.00,0.0046
3390.00,0.0046
3389.00,0.0046
3388.00,0.0046
3387.00,0.0046
3386.00,0.0046
3385.00,0.0046
3384.00,0.0047
3383.00,0.0047
3382.00,0.0047
3381.00,0.0046
3380.00,0.0046
3379.00,0.0046
3378.00,0.0046
3377.00,0.0046
3376.00,0.0046
3375.00,0.0046
3374.00,0.0047
3373.00,0.0047
3372.00,0.0047
3371.00,0.0047
3370.00,0.0048
3369.00,0.0048
3368.00,0.0048
3367.00,0.0047
3366.00,0.0047
3365.00,0.0047
3364.00,0.0047
3363.00,0.0047
3362.00,0.0047
3361.00,0.0047
3360.00,0.0047
3359.00,0.0048
3358.00,0.0048
3357.00,0.0048
3356.00,0.0048
3355.00,0.0047
3354.00,0.0047
3353.00,0.0047
3352.00,0.0047
3351.00,0.0048
3350.00,0.0048
3349.00,0.0048
3348.00,0.0048
3347.00,0.0048
3346.00,0.0048
3345.00,0.0048
3344.00,0.0047
3343.00,0.0047
3342.00,0.0047
3341.00,0.0047
3340.00,0.0047
3339.00,0.0047
3338.00,0.0047
3337.00,0.0047
3336.00,0.0047
3335.00,0.0047
3334.00,0.0047
3333.00,0.0047
3332.00,0.0047
3331.00,0.0046
3330.00,0.0046
3329.00,0.0046
3328.00,0.0046
3327.00,0.0046
3326.00,0.0045
3325.00,0.0045
3324.00,0.0045
3323.00,0.0045
3322.00,0.0045
3321.00,0.0045
3320.00,0.0045
3319.00,0.0045
3318.00,0.0046
3317.00,0.0046
3316.00,0.0046
3315.00,0.0045
3314.00,0.0045
3313.00,0.0045
3312.00,0.0045
3311.00,0.0045
3310.00,0.0045
3309.00,0.0045
3308.00,0.0045
3307.00,0.0046
3306.00,0.0046
3305.00,0.0046
3304.00,0.0046
3303.00,0.0045
3302.00,0.0045
3301.00,0.0045
3300.00,0.0045
3299.00,0.0045
3298.00,0.0045
3297.00,0.0045
3296.00,0.0044
3295.00,0.0044
3294.00,0.0045
3293.00,0.0045
3292.00,0.0045
3291.00,0.0044
3290.00,0.0044
3289.00,0.0044
3288.00,0.0044
3287.00,0.0043
3286.00,0.0043
3285.00,0.0043
3284.00,0.0042
3283.00,0.0042
3282.00,0.0042
3281.00,0.0043
3280.00,0.0043
3279.00,0.0043
3278.00,0.0043
3277.00,0.0042
3276.00,0.0042
3275.00,0.0042
3274.00,0.0042
3273.00,0.0042
3272.00,0.0042
3271.00,0.0042
3270.00,0.0042
3269.00,0.0042
3268.00,0.0042
3267.00,0.0041
3266.00,0.0041
3265.00,0.0041
3264.00,0.0041
3263.00,0.0040
3262.00,0.0039
3261.00,0.0039
3260.00,0.0039
3259.00,0.0039
3258.00,0.0039
3257.00,0.0039
3256.00,0.0039
3255.00,0.0039
3254.00,0.0039
3253.00,0.0039
3252.00,0.0039
3251.00,0.0039
3250.00,0.0039
3249.00,0.0038
3248.00,0.0038
3247.00,0.0038
3246.00,0.0037
3245.00,0.0037
3244.00,0.0038
3243.00,0.0037
3242.00,0.0037
3241.00,0.0037
3240.00,0.0037
3239.00,0.0036
3238.00,0.0037
3237.00,0.0037
3236.00,0.0037
3235.00,0.0037
3234.00,0.0038
3233.00,0.0038
3232.00,0.0038
3231.00,0.0038
3230.00,0.0038
3229.00,0.0038
3228.00,0.0039
3227.00,0.0039
3226.00,0.0039
3225.00,0.0039
3224.00,0.0039
3223.00,0.0039
3222.00,0.0039
3221.00,0.0039
3220.00,0.0039
3219.00,0.0040
3218.00,0.0040
3217.00,0.0040
3216.00,0.0040
3215.00,0.0040
3214.00,0.0040
3213.00,0.0040
3212.00,0.0040
3211.00,0.0041
3210.00,0.0041
3209.00,0.0041
3208.00,0.0041
3207.00,0.0041
3206.00,0.0040
3205.00,0.0040
3204.00,0.0040
3203.00,0.0040
3202.00,0.0041
3201.00,0.0041
3200.00,0.0041
3199.00,0.0041
3198.00,0.0041
3197.00,0.0041
3196.00,0.0041
3195.00,0.0041
3194.00,0.0041
3193.00,0.0041
3192.00,0.0041
3191.00,0.0041
3190.00,0.0041
3189.00,0.0041
3188.00,0.0041
3187.00,0.0041
3186.00,0.0040
3185.00,0.0040
3184.00,0.0041
3183.00,0.0041
3182.00,0.0041
3181.00,0.0040
3180.00,0.0040
3179.00,0.0040
3178.00,0.0039
3177.00,0.0039
3176.00,0.0039
3175.00,0.0039
3174.00,0.0039
3173.00,0.0039
3172.00,0.0039
3171.00,0.0038
3170.00,0.0038
3169.00,0.0038
3168.00,0.0037
3167.00,0.0037
3166.00,0.0037
3165.00,0.0037
3164.00,0.0037
3163.00,0.0037
3162.00,0.0037
3161.00,0.0037
3160.00,0.0037
3159.00,0.0037
3158.00,0.0037
3157.00,0.0037
3156.00,0.0037
3155.00,0.0037
3154.00,0.0037
3153.00,0.0037
3152.00,0.0037
3151.00,0.0037
3150.00,0.0037
3149.00,0.0037
3148.00,0.0037
3147.00,0.0036
3146.00,0.0036
3145.00,0.0036
3144.00,0.0036
3143.00,0.0036
3142.00,0.0036
3141.00,0.0035
3140.00,0.0035
3139.00,0.0034
3138.00,0.0034
3137.00,0.0034
3136.00,0.0034
3135.00,0.0034
3134.00,0.0034
3133.00,0.0034
3132.00,0.0033
3131.00,0.0033
3130.00,0.0033
3129.00,0.0033
3128.00,0.0033
3127.00,0.0033
3126.00,0.0033
3125.00,0.0033
3124.00,0.0032
3123.00,0.0032
3122.00,0.0032
3121.00,0.0032
3120.00,0.0032
3119.00,0.0032
3118.00,0.0031
3117.00,0.0031
3116.00,0.0031
3115.00,0.0031
3114.00,0.0030
3113.00,0.0030
3112.00,0.0029
3111.00,0.0029
3110.00,0.0029
3109.00,0.0030
3108.00,0.0030
3107.00,0.0030
3106.00,0.0030
3105.00,0.0030
3104.00,0.0030
3103.00,0.0030
3102.00,0.0030
3101.00,0.0029
3100.00,0.0029
3099.00,0.0029
3098.00,0.0029
3097.00,0.0029
3096.00,0.0029
3095.00,0.0029
3094.00,0.0029
3093.00,0.0029
3092.00,0.0029
3091.00,0.0029
3090.00,0.0029
3089.00,0.0029
3088.00,0.0029
3087.00,0.0029
3086.00,0.0030
3085.00,0.0030
3084.00,0.0029
3083.00,0.0029
3082.00,0.0029
3081.00,0.0029
3080.00,0.0029
3079.00,0.0029
3078.00,0.0029
3077.00,0.0029
3076.00,0.0030
3075.00,0.0030
3074.00,0.0030
3073.00,0.0030
3072.00,0.0030
3071.00,0.0030
3070.00,0.0031
3069.00,0.0031
3068.00,0.0031
3067.00,0.0032
3066.00,0.0032
3065.00,0.0032
3064.00,0.0032
3063.00,0.0032
3062.00,0.0032
3061.00,0.0032
3060.00,0.0032
3059.00,0.0032
3058.00,0.0032
3057.00,0.0033
3056.00,0.0033
3055.00,0.0033
3054.00,0.0033
3053.00,0.0033
3052.00,0.0033
3051.00,0.0033
3050.00,0.0034
3049.00,0.0034
3048.00,0.0034
3047.00,0.0034
3046.00,0.0035
3045.00,0.0035
3044.00,0.0035
3043.00,0.0035
3042.00,0.0035
3041.00,0.0036
3040.00,0.0036
3039.00,0.0037
3038.00,0.0037
3037.00,0.0038
3036.00,0.0038
3035.00,0.0038
3034.00,0.0038
3033.00,0.0039
3032.00,0.0039
3031.00,0.0039
3030.00,0.0039
3029.00,0.0040
3028.00,0.0041
3027.00,0.0042
3026.00,0.0043
3025.00,0.0043
3024.00,0.0044
3023.00,0.0044
3022.00,0.0045
3021.00,0.0046
3020.00,0.0046
3019.00,0.0047
3018.00,0.0048
3017.00,0.0049
3016.00,0.0050
3015.00,0.0051
3014.00,0.0051
3013.00,0.0052
3012.00,0.0053
3011.00,0.0054
3010.00,0.0055
3009.00,0.0056
3008.00,0.0057
3007.00,0.0058
3006.00,0.0059
3005.00,0.0060
3004.00,0.0061
3003.00,0.0062
3002.00,0.0064
3001.00,0.0065
3000.00,0.0068
2999.00,0.0070
2998.00,0.0073
2997.00,0.0076
2996.00,0.0079
2995.00,0.0082
2994.00,0.0086
2993.00,0.0090
2992.00,0.0095
2991.00,0.0100
2990.00,0.0107
2989.00,0.0113
2988.00,0.0121
2987.00,0.0130
2986.00,0.0139
2985.00,0.0148
2984.00,0.0158
2983.00,0.0170
2982.00,0.0184
2981.00,0.0201
2980.00,0.0222
2979.00,0.0246
2978.00,0.0273
2977.00,0.0303
2976.00,0.0337
2975.00,0.0376
2974.00,0.0420
2973.00,0.0470
2972.00,0.0527
2971.00,0.0593
2970.00,0.0666
2969.00,0.0748
2968.00,0.0837
2967.00,0.0934
2966.00,0.1038
2965.00,0.1146
2964.00,0.1256
2963.00,0.1363
2962.00,0.1461
2961.00,0.1545
2960.00,0.1612
2959.00,0.1661
2958.00,0.1694
2957.00,0.1718
2956.00,0.1739
2955.00,0.1762
2954.00,0.1788
2953.00,0.1815
2952.00,0.1836
2951.00,0.1841
2950.00,0.1823
2949.00,0.1777
2948.00,0.1701
2947.00,0.1602
2946.00,0.1490
2945.00,0.1376
2944.00,0.1270
2943.00,0.1181
2942.00,0.1113
2941.00,0.1067
2940.00,0.1043
2939.00,0.1038
2938.00,0.1052
2937.00,0.1082
2936.00,0.1126
2935.00,0.1183
2934.00,0.1252
2933.00,0.1332
2932.00,0.1421
2931.00,0.1516
2930.00,0.1617
2929.00,0.1719
2928.00,0.1820
2927.00,0.1918
2926.00,0.2011
2925.00,0.2099
2924.00,0.2183
2923.00,0.2263
2922.00,0.2340
2921.00,0.2412
2920.00,0.2472
2919.00,0.2514
2918.00,0.2531
2917.00,0.2518
2916.00,0.2475
2915.00,0.2407
2914.00,0.2323
2913.00,0.2235
2912.00,0.2149
2911.00,0.2073
2910.00,0.2006
2909.00,0.1949
2908.00,0.1896
2907.00,0.1845
2906.00,0.1793
2905.00,0.1737
2904.00,0.1678
2903.00,0.1616
2902.00,0.1553
2901.00,0.1490
2900.00,0.1428
2899.00,0.1369
2898.00,0.1313
2897.00,0.1260
2896.00,0.1213
2895.00,0.1171
2894.00,0.1134
2893.00,0.1104
2892.00,0.1079
2891.00,0.1060
2890.00,0.1045
2889.00,0.1034
2888.00,0.1027
2887.00,0.1023
2886.00,0.1022
2885.00,0.1024
2884.00,0.1030
2883.00,0.1040
2882.00,0.1052
2881.00,0.1067
2880.00,0.1081
2879.00,0.1092
2878.00,0.1097
2877.00,0.1097
2876.00,0.1092
2875.00,0.1086
2874.00,0.1082
2873.00,0.1084
2872.00,0.1092
2871.00,0.1106
2870.00,0.1122
2869.00,0.1138
2868.00,0.1146
2867.00,0.1140
2866.00,0.1118
2865.00,0.1077
2864.00,0.1023
2863.00,0.0962
2862.00,0.0903
2861.00,0.0853
2860.00,0.0816
2859.00,0.0793
2858.00,0.0782
2857.00,0.0783
2856.00,0.0792
2855.00,0.0806
2854.00,0.0826
2853.00,0.0848
2852.00,0.0869
2851.00,0.0888
2850.00,0.0901
2849.00,0.0910
2848.00,0.0917
2847.00,0.0926
2846.00,0.0944
2845.00,0.0972
2844.00,0.1012
2843.00,0.1060
2842.00,0.1110
2841.00,0.1158
2840.00,0.1194
2839.00,0.1211
2838.00,0.1202
2837.00,0.1164
2836.00,0.1097
2835.00,0.1009
2834.00,0.0907
2833.00,0.0802
2832.00,0.0703
2831.00,0.0616
2830.00,0.0542
2829.00,0.0481
2828.00,0.0432
2827.00,0.0391
2826.00,0.0359
2825.00,0.0332
2824.00,0.0309
2823.00,0.0290
2822.00,0.0273
2821.00,0.0258
2820.00,0.0245
2819.00,0.0233
2818.00,0.0223
2817.00,0.0214
2816.00,0.0207
2815.00,0.0200
2814.00,0.0194
2813.00,0.0188
2812.00,0.0183
2811.00,0.0178
2810.00,0.0173
2809.00,0.0168
2808.00,0.0163
2807.00,0.0157
2806.00,0.0151
2805.00,0.0144
2804.00,0.0138
2803.00,0.0132
2802.00,0.0127
2801.00,0.0123
2800.00,0.0119
2799.00,0.0116
2798.00,0.0114
2797.00,0.0112
2796.00,0.0110
2795.00,0.0108
2794.00,0.0105
2793.00,0.0102
2792.00,0.0099
2791.00,0.0096
2790.00,0.0093
2789.00,0.0089
2788.00,0.0086
2787.00,0.0083
2786.00,0.0080
2785.00,0.0077
2784.00,0.0074
2783.00,0.0072
2782.00,0.0069
2781.00,0.0068
2780.00,0.0066
2779.00,0.0065
2778.00,0.0064
2777.00,0.0063
2776.00,0.0061
2775.00,0.0060
2774.00,0.0059
2773.00,0.0058
2772.00,0.0057
2771.00,0.0057
2770.00,0.0056
2769.00,0.0056
2768.00,0.0055
2767.00,0.0055
2766.00,0.0055
2765.00,0.0054
2764.00,0.0054
2763.00,0.0053
2762.00,0.0053
2761.00,0.0052
2760.00,0.0052
2759.00,0.0051
2758.00,0.0051
2757.00,0.0051
2756.00,0.0051
2755.00,0.0051
2754.00,0.0051
2753.00,0.0051
2752.00,0.0051
2751.00,0.0051
2750.00,0.0051
2749.00,0.0051
2748.00,0.0052
2747.00,0.0052
2746.00,0.0052
2745.00,0.0052
2744.00,0.0053
2743.00,0.0053
2742.00,0.0054
2741.00,0.0055
2740.00,0.0055
2739.00,0.0057
2738.00,0.0058
2737.00,0.0059
2736.00,0.0061
2735.00,0.0062
2734.00,0.0064
2733.00,0.0065
2732.00,0.0066
2731.00,0.0068
2730.00,0.0070
2729.00,0.0072
2728.00,0.0074
2727.00,0.0077
2726.00,0.0080
2725.00,0.0082
2724.00,0.0083
2723.00,0.0084
2722.00,0.0083
2721.00,0.0081
2720.00,0.0078
2719.00,0.0076
2718.00,0.0073
2717.00,0.0070
2716.00,0.0067
2715.00,0.0064
2714.00,0.0062
2713.00,0.0060
2712.00,0.0058
2711.00,0.0057
2710.00,0.0056
2709.00,0.0054
2708.00,0.0053
2707.00,0.0052
2706.00,0.0052
2705.00,0.0051
2704.00,0.0050
2703.00,0.0049
2702.00,0.0048
2701.00,0.0048
2700.00,0.0047
2699.00,0.0046
2698.00,0.0046
2697.00,0.0046
2696.00,0.0046
2695.00,0.0046
2694.00,0.0046
2693.00,0.0046
2692.00,0.0046
2691.00,0.0046
2690.00,0.0046
2689.00,0.0046
2688.00,0.0046
2687.00,0.0046
2686.00,0.0046
2685.00,0.0046
2684.00,0.0046
2683.00,0.0046
2682.00,0.0046
2681.00,0.0046
2680.00,0.0046
2679.00,0.0046
2678.00,0.0046
2677.00,0.0046
2676.00,0.0046
2675.00,0.0045
2674.00,0.0045
2673.00,0.0044
2672.00,0.0044
2671.00,0.0044
2670.00,0.0045
2669.00,0.0045
2668.00,0.0045
2667.00,0.0046
2666.00,0.0046
2665.00,0.0047
2664.00,0.0047
2663.00,0.0047
2662.00,0.0047
2661.00,0.0048
2660.00,0.0048
2659.00,0.0048
2658.00,0.0048
2657.00,0.0048
2656.00,0.0047
2655.00,0.0047
2654.00,0.0046
2653.00,0.0046
2652.00,0.0045
2651.00,0.0045
2650.00,0.0044
2649.00,0.0043
2648.00,0.0043
2647.00,0.0042
2646.00,0.0042
2645.00,0.0042
2644.00,0.0042
2643.00,0.0042
2642.00,0.0042
2641.00,0.0042
2640.00,0.0041
2639.00,0.0041
2638.00,0.0040
2637.00,0.0040
2636.00,0.0039
2635.00,0.0039
2634.00,0.0039
2633.00,0.0038
2632.00,0.0038
2631.00,0.0038
2630.00,0.0038
2629.00,0.0039
2628.00,0.0039
2627.00,0.0039
2626.00,0.0040
2625.00,0.0040
2624.00,0.0040
2623.00,0.0040
2622.00,0.0040
2621.00,0.0041
2620.00,0.0041
2619.00,0.0041
2618.00,0.0041
2617.00,0.0041
2616.00,0.0041
2615.00,0.0040
2614.00,0.0040
2613.00,0.0040
2612.00,0.0039
2611.00,0.0038
2610.00,0.0038
2609.00,0.0037
2608.00,0.0036
2607.00,0.0035
2606.00,0.0034
2605.00,0.0033
2604.00,0.0033
2603.00,0.0033
2602.00,0.0033
2601.00,0.0033
2600.00,0.0033
2599.00,0.0033
2598.00,0.0032
2597.00,0.0032
2596.00,0.0032
2595.00,0.0031
2594.00,0.0032
2593.00,0.0032
2592.00,0.0033
2591.00,0.0034
2590.00,0.0034
2589.00,0.0034
2588.00,0.0034
2587.00,0.0035
2586.00,0.0035
2585.00,0.0036
2584.00,0.0036
2583.00,0.0037
2582.00,0.0037
2581.00,0.0036
2580.00,0.0036
2579.00,0.0035
2578.00,0.0034
2577.00,0.0034
2576.00,0.0033
2575.00,0.0032
2574.00,0.0031
2573.00,0.0030
2572.00,0.0029
2571.00,0.0028
2570.00,0.0027
2569.00,0.0027
2568.00,0.0026
2567.00,0.0026
2566.00,0.0026
2565.00,0.0025
2564.00,0.0024
2563.00,0.0023
2562.00,0.0022
2561.00,0.0023
2560.00,0.0023
2559.00,0.0023
2558.00,0.0023
2557.00,0.0023
2556.00,0.0023
2555.00,0.0022
2554.00,0.0022
2553.00,0.0021
2552.00,0.0020
2551.00,0.0020
2550.00,0.0020
2549.00,0.0020
2548.00,0.0020
2547.00,0.0020
2546.00,0.0020
2545.00,0.0020
2544.00,0.0020
2543.00,0.0020
2542.00,0.0020
2541.00,0.0019
2540.00,0.0019
2539.00,0.0019
2538.00,0.0019
2537.00,0.0019
2536.00,0.0018
2535.00,0.0018
2534.00,0.0018
2533.00,0.0018
2532.00,0.0017
2531.00,0.0017
2530.00,0.0016
2529.00,0.0015
2528.00,0.0015
2527.00,0.0014
2526.00,0.0013
2525.00,0.0013
2524.00,0.0013
2523.00,0.0013
2522.00,0.0013
2521.00,0.0013
2520.00,0.0013
2519.00,0.0013
2518.00,0.0013
2517.00,0.0012
2516.00,0.0012
2515.00,0.0012
2514.00,0.0012
2513.00,0.0012
2512.00,0.0012
2511.00,0.0012
2510.00,0.0012
2509.00,0.0012
2508.00,0.0012
2507.00,0.0013
2506.00,0.0012
2505.00,0.0012
2504.00,0.0011
2503.00,0.0011
2502.00,0.0011
2501.00,0.0011
2500.00,0.0011
2499.00,0.0011
2498.00,0.0011
2497.00,0.0012
2496.00,0.0012
2495.00,0.0012
2494.00,0.0011
2493.00,0.0011
2492.00,0.0011
2491.00,0.0010
2490.00,0.0010
2489.00,0.0010
2488.00,0.0010
2487.00,0.0010
2486.00,0.0010
2485.00,0.0010
2484.00,0.0009
2483.00,0.0009
2482.00,0.0009
2481.00,0.0008
2480.00,0.0008
2479.00,0.0009
2478.00,0.0010
2477.00,0.0010
2476.00,0.0010
2475.00,0.0010
2474.00,0.0010
2473.00,0.0010
2472.00,0.0009
2471.00,0.0009
2470.00,0.0009
2469.00,0.0009
2468.00,0.0009
2467.00,0.0009
2466.00,0.0010
2465.00,0.0010
2464.00,0.0010
2463.00,0.0011
2462.00,0.0011
2461.00,0.0011
2460.00,0.0011
2459.00,0.0011
2458.00,0.0011
2457.00,0.0011
2456.00,0.0011
2455.00,0.0011
2454.00,0.0011
2453.00,0.0011
2452.00,0.0011
2451.00,0.0010
2450.00,0.0010
2449.00,0.0009
2448.00,0.0010
2447.00,0.0010
2446.00,0.0010
2445.00,0.0010
2444.00,0.0011
2443.00,0.0011
2442.00,0.0011
2441.00,0.0010
2440.00,0.0010
2439.00,0.0011
2438.00,0.0011
2437.00,0.0011
2436.00,0.0012
2435.00,0.0012
2434.00,0.0012
2433.00,0.0011
2432.00,0.0011
2431.00,0.0011
2430.00,0.0011
2429.00,0.0012
2428.00,0.0012
2427.00,0.0012
2426.00,0.0012
2425.00,0.0012
2424.00,0.0011
2423.00,0.0010
2422.00,0.0010
2421.00,0.0010
2420.00,0.0010
2419.00,0.0010
2418.00,0.0009
2417.00,0.0009
2416.00,0.0010
2415.00,0.0010
2414.00,0.0011
2413.00,0.0011
2412.00,0.0012
2411.00,0.0012
2410.00,0.0012
2409.00,0.0011
2408.00,0.0011
2407.00,0.0011
2406.00,0.0010
2405.00,0.0009
2404.00,0.0009
2403.00,0.0008
2402.00,0.0008
2401.00,0.0008
2400.00,0.0009
2399.00,0.0009
2398.00,0.0009
2397.00,0.0010
2396.00,0.0010
2395.00,0.0010
2394.00,0.0010
2393.00,0.0009
2392.00,0.0009
2391.00,0.0010
2390.00,0.0010
2389.00,0.0010
2388.00,0.0009
2387.00,0.0008
2386.00,0.0007
2385.00,0.0006
2384.00,0.0006
2383.00,0.0005
2382.00,0.0005
2381.00,0.0004
2380.00,0.0003
2379.00,0.0002
2378.00,0.0002
2377.00,0.0002
2376.00,0.0003
2375.00,0.0004
2374.00,0.0005
2373.00,0.0005
2372.00,0.0005
2371.00,0.0004
2370.00,0.0004
2369.00,0.0004
2368.00,0.0003
2367.00,0.0003
2366.00,0.0003
2365.00,0.0003
2364.00,0.0004
2363.00,0.0004
2362.00,0.0004
2361.00,0.0005
2360.00,0.0005
2359.00,0.0005
2358.00,0.0005
2357.00,0.0006
2356.00,0.0007
2355.00,0.0007
2354.00,0.0007
2353.00,0.0006
2352.00,0.0005
2351.00,0.0004
2350.00,0.0004
2349.00,0.0005
2348.00,0.0006
2347.00,0.0007
2346.00,0.0008
2345.00,0.0008
2344.00,0.0008
2343.00,0.0008
2342.00,0.0008
2341.00,0.0009
2340.00,0.0009
2339.00,0.0009
2338.00,0.0009
2337.00,0.0009
2336.00,0.0010
2335.00,0.0010
2334.00,0.0010
2333.00,0.0010
2332.00,0.0010
2331.00,0.0009
2330.00,0.0008
2329.00,0.0007
2328.00,0.0009
2327.00,0.0012
2326.00,0.0016
2325.00,0.0021
2324.00,0.0023
2323.00,0.0022
2322.00,0.0020
2321.00,0.0018
2320.00,0.0016
2319.00,0.0015
2318.00,0.0014
2317.00,0.0013
2316.00,0.0012
2315.00,0.0010
2314.00,0.0009
2313.00,0.0008
2312.00,0.0008
2311.00,0.0007
2310.00,0.0006
2309.00,0.0006
2308.00,0.0006
2307.00,0.0006
2306.00,0.0007
2305.00,0.0008
2304.00,0.0008
2303.00,0.0009
2302.00,0.0009
2301.00,0.0009
2300.00,0.0009
2299.00,0.0009
2298.00,0.0010
2297.00,0.0011
2296.00,0.0012
2295.00,0.0013
2294.00,0.0014
2293.00,0.0015
2292.00,0.0015
2291.00,0.0016
2290.00,0.0016
2289.00,0.0017
2288.00,0.0017
2287.00,0.0017
2286.00,0.0017
2285.00,0.0017
2284.00,0.0016
2283.00,0.0016
2282.00,0.0016
2281.00,0.0017
2280.00,0.0017
2279.00,0.0016
2278.00,0.0016
2277.00,0.0015
2276.00,0.0015
2275.00,0.0015
2274.00,0.0015
2273.00,0.0015
2272.00,0.0015
2271.00,0.0014
2270.00,0.0014
2269.00,0.0014
2268.00,0.0014
2267.00,0.0014
2266.00,0.0013
2265.00,0.0013
2264.00,0.0013
2263.00,0.0013
2262.00,0.0013
2261.00,0.0014
2260.00,0.0015
2259.00,0.0016
2258.00,0.0016
2257.00,0.0014
2256.00,0.0011
2255.00,0.0009
2254.00,0.0008
2253.00,0.0008
2252.00,0.0009
2251.00,0.0010
2250.00,0.0009
2249.00,0.0008
2248.00,0.0008
2247.00,0.0007
2246.00,0.0007
2245.00,0.0008
2244.00,0.0008
2243.00,0.0008
2242.00,0.0008
2241.00,0.0008
2240.00,0.0008
2239.00,0.0009
2238.00,0.0010
2237.00,0.0010
2236.00,0.0009
2235.00,0.0008
2234.00,0.0007
2233.00,0.0006
2232.00,0.0006
2231.00,0.0006
2230.00,0.0007
2229.00,0.0008
2228.00,0.0009
2227.00,0.0010
2226.00,0.0009
2225.00,0.0007
2224.00,0.0005
2223.00,0.0004
2222.00,0.0004
2221.00,0.0006
2220.00,0.0007
2219.00,0.0008
2218.00,0.0007
2217.00,0.0007
2216.00,0.0007
2215.00,0.0007
2214.00,0.0008
2213.00,0.0009
2212.00,0.0010
2211.00,0.0011
2210.00,0.0012
2209.00,0.0013
2208.00,0.0013
2207.00,0.0010
2206.00,0.0008
2205.00,0.0007
2204.00,0.0008
2203.00,0.0010
2202.00,0.0012
2201.00,0.0013
2200.00,0.0014
2199.00,0.0013
2198.00,0.0011
2197.00,0.0009
2196.00,0.0009
2195.00,0.0009
2194.00,0.0010
2193.00,0.0011
2192.00,0.0013
2191.00,0.0014
2190.00,0.0014
2189.00,0.0014
2188.00,0.0013
2187.00,0.0012
2186.00,0.0011
2185.00,0.0010
2184.00,0.0008
2183.00,0.0005
2182.00,0.0003
2181.00,0.0002
2180.00,0.0001
2179.00,0.0000
2178.00,-0.0001
2177.00,-0.0002
2176.00,-0.0001
2175.00,0.0000
2174.00,0.0002
2173.00,0.0005
2172.00,0.0006
2171.00,0.0007
2170.00,0.0008
2169.00,0.0009
2168.00,0.0010
2167.00,0.0011
2166.00,0.0010
2165.00,0.0009
2164.00,0.0009
2163.00,0.0011
2162.00,0.0014
2161.00,0.0014
2160.00,0.0007
2159.00,-0.0005
2158.00,-0.0016
2157.00,-0.0021
2156.00,-0.0022
2155.00,-0.0020
2154.00,-0.0018
2153.00,-0.0018
2152.00,-0.0017
2151.00,-0.0016
2150.00,-0.0014
2149.00,-0.0011
2148.00,-0.0008
2147.00,-0.0008
2146.00,-0.0010
2145.00,-0.0012
2144.00,-0.0015
2143.00,-0.0017
2142.00,-0.0016
2141.00,-0.0013
2140.00,-0.0010
2139.00,-0.0008
2138.00,-0.0008
2137.00,-0.0009
2136.00,-0.0010
2135.00,-0.0013
2134.00,-0.0015
2133.00,-0.0016
2132.00,-0.0016
2131.00,-0.0014
2130.00,-0.0012
2129.00,-0.0009
2128.00,-0.0007
2127.00,-0.0007
2126.00,-0.0007
2125.00,-0.0008
2124.00,-0.0007
2123.00,-0.0007
2122.00,-0.0007
2121.00,-0.0006
2120.00,-0.0006
2119.00,-0.0005
2118.00,-0.0004
2117.00,-0.0002
2116.00,-0.0000
2115.00,0.0001
2114.00,0.0001
2113.00,0.0001
2112.00,0.0002
2111.00,0.0002
2110.00,0.0003
2109.00,0.0004
2108.00,0.0004
2107.00,0.0004
2106.00,0.0003
2105.00,0.0002
2104.00,0.0002
2103.00,0.0002
2102.00,0.0004
2101.00,0.0006
2100.00,0.0007
2099.00,0.0007
2098.00,0.0005
2097.00,0.0003
2096.00,0.0000
2095.00,-0.0002
2094.00,-0.0004
2093.00,-0.0005
2092.00,-0.0004
2091.00,-0.0002
2090.00,-0.0001
2089.00,0.0001
2088.00,0.0002
2087.00,0.0003
2086.00,0.0003
2085.00,0.0004
2084.00,0.0004
2083.00,0.0004
2082.00,0.0003
2081.00,0.0003
2080.00,0.0003
2079.00,0.0004
2078.00,0.0004
2077.00,0.0004
2076.00,0.0003
2075.00,0.0002
2074.00,0.0001
2073.00,-0.0000
2072.00,-0.0000
2071.00,-0.0000
2070.00,0.0001
2069.00,0.0001
2068.00,0.0001
2067.00,0.0000
2066.00,-0.0001
2065.00,-0.0001
2064.00,0.0000
2063.00,0.0002
2062.00,0.0003
2061.00,0.0004
2060.00,0.0005
2059.00,0.0004
2058.00,0.0004
2057.00,0.0003
2056.00,0.0003
2055.00,0.0003
2054.00,0.0005
2053.00,0.0007
2052.00,0.0011
2051.00,0.0013
2050.00,0.0014
2049.00,0.0013
2048.00,0.0012
2047.00,0.0010
2046.00,0.0009
2045.00,0.0007
2044.00,0.0005
2043.00,0.0005
2042.00,0.0006
2041.00,0.0007
2040.00,0.0007
2039.00,0.0007
2038.00,0.0007
2037.00,0.0006
2036.00,0.0006
2035.00,0.0005
2034.00,0.0003
2033.00,0.0001
2032.00,-0.0002
2031.00,-0.0004
2030.00,-0.0005
2029.00,-0.0005
2028.00,-0.0007
2027.00,-0.0009
2026.00,-0.0011
2025.00,-0.0010
2024.00,-0.0008
2023.00,-0.0006
2022.00,-0.0006
2021.00,-0.0006
2020.00,-0.0007
2019.00,-0.0009
2018.00,-0.0011
2017.00,-0.0013
2016.00,-0.0014
2015.00,-0.0013
2014.00,-0.0012
2013.00,-0.0010
2012.00,-0.0009
2011.00,-0.0008
2010.00,-0.0008
2009.00,-0.0009
2008.00,-0.0010
2007.00,-0.0012
2006.00,-0.0014
2005.00,-0.0015
2004.00,-0.0016
2003.00,-0.0016
2002.00,-0.0015
2001.00,-0.0015
2000.00,-0.0014
1999.00,-0.0014
1998.00,-0.0013
1997.00,-0.0012
1996.00,-0.0012
1995.00,-0.0011
1994.00,-0.0011
1993.00,-0.0010
1992.00,-0.0009
1991.00,-0.0009
1990.00,-0.0008
1989.00,-0.0007
1988.00,-0.0005
1987.00,-0.0003
1986.00,-0.0002
1985.00,-0.0001
1984.00,-0.0001
1983.00,0.0000
1982.00,0.0003
1981.00,0.0008
1980.00,0.0011
1979.00,0.0009
1978.00,0.0002
1977.00,-0.0007
1976.00,-0.0013
1975.00,-0.0016
1974.00,-0.0017
1973.00,-0.0016
1972.00,-0.0014
1971.00,-0.0014
1970.00,-0.0015
1969.00,-0.0017
1968.00,-0.0018
1967.00,-0.0019
1966.00,-0.0017
1965.00,-0.0013
1964.00,-0.0010
1963.00,-0.0010
1962.00,-0.0012
1961.00,-0.0015
1960.00,-0.0018
1959.00,-0.0021
1958.00,-0.0021
1957.00,-0.0019
1956.00,-0.0015
1955.00,-0.0013
1954.00,-0.0013
1953.00,-0.0015
1952.00,-0.0016
1951.00,-0.0017
1950.00,-0.0017
1949.00,-0.0017
1948.00,-0.0017
1947.00,-0.0017
1946.00,-0.0017
1945.00,-0.0016
1944.00,-0.0015
1943.00,-0.0015
1942.00,-0.0014
1941.00,-0.0014
1940.00,-0.0013
1939.00,-0.0012
1938.00,-0.0013
1937.00,-0.0014
1936.00,-0.0014
1935.00,-0.0013
1934.00,-0.0011
1933.00,-0.0009
1932.00,-0.0007
1931.00,-0.0007
1930.00,-0.0007
1929.00,-0.0007
1928.00,-0.0007
1927.00,-0.0008
1926.00,-0.0008
1925.00,-0.0008
1924.00,-0.0006
1923.00,-0.0004
1922.00,-0.0002
1921.00,-0.0001
1920.00,-0.0001
1919.00,-0.0003
1918.00,-0.0005
1917.00,-0.0006
1916.00,-0.0006
1915.00,-0.0005
1914.00,-0.0004
1913.00,-0.0004
1912.00,-0.0003
1911.00,-0.0002
1910.00,-0.0002
1909.00,-0.0003
1908.00,-0.0003
1907.00,-0.0003
1906.00,-0.0004
1905.00,-0.0004
1904.00,-0.0004
1903.00,-0.0003
1902.00,-0.0003
1901.00,-0.0002
1900.00,-0.0001
1899.00,-0.0001
1898.00,-0.0002
1897.00,-0.0002
1896.00,-0.0002
1895.00,-0.0002
1894.00,-0.0002
1893.00,-0.0002
1892.00,-0.0001
1891.00,-0.0001
1890.00,-0.0001
1889.00,-0.0001
1888.00,0.0000
1887.00,0.0000
1886.00,0.0001
1885.00,0.0001
1884.00,0.0000
1883.00,0.0000
1882.00,0.0000
1881.00,0.0000
1880.00,0.0000
1879.00,-0.0000
1878.00,-0.0001
1877.00,-0.0001
1876.00,-0.0001
1875.00,-0.0001
1874.00,-0.0001
1873.00,-0.0000
1872.00,-0.0000
1871.00,-0.0000
1870.00,-0.0001
1869.00,-0.0000
1868.00,0.0000
1867.00,0.0001
1866.00,0.0001
1865.00,0.0001
1864.00,0.0002
1863.00,0.0002
1862.00,0.0002
1861.00,0.0002
1860.00,0.0001
1859.00,0.0001
1858.00,0.0001
1857.00,0.0001
1856.00,0.0001
1855.00,0.0001
1854.00,0.0001
1853.00,0.0001
1852.00,0.0001
1851.00,0.0002
1850.00,0.0001
1849.00,0.0001
1848.00,0.0001
1847.00,0.0001
1846.00,0.0002
1845.00,0.0002
1844.00,0.0002
1843.00,0.0002
1842.00,0.0002
1841.00,0.0003
1840.00,0.0003
1839.00,0.0004
1838.00,0.0004
1837.00,0.0003
1836.00,0.0002
1835.00,0.0001
1834.00,0.0001
1833.00,0.0002
1832.00,0.0002
1831.00,0.0002
1830.00,0.0003
1829.00,0.0003
1828.00,0.0003
1827.00,0.0003
1826.00,0.0002
1825.00,0.0002
1824.00,0.0002
1823.00,0.0002
1822.00,0.0003
1821.00,0.0003
1820.00,0.0003
1819.00,0.0002
1818.00,0.0001
1817.00,-0.0000
1816.00,-0.0000
1815.00,0.0000
1814.00,0.0001
1813.00,0.0001
1812.00,0.0002
1811.00,0.0002
1810.00,0.0003
1809.00,0.0003
1808.00,0.0003
1807.00,0.0004
1806.00,0.0004
1805.00,0.0004
1804.00,0.0005
1803.00,0.0005
1802.00,0.0005
1801.00,0.0005
1800.00,0.0005
1799.00,0.0006
1798.00,0.0006
1797.00,0.0007
1796.00,0.0007
1795.00,0.0007
1794.00,0.0007
1793.00,0.0007
1792.00,0.0008
1791.00,0.0008
1790.00,0.0008
1789.00,0.0008
1788.00,0.0008
1787.00,0.0008
1786.00,0.0008
1785.00,0.0008
1784.00,0.0007
1783.00,0.0008
1782.00,0.0008
1781.00,0.0008
1780.00,0.0009
1779.00,0.0009
1778.00,0.0009
1777.00,0.0009
1776.00,0.0009
1775.00,0.0010
1774.00,0.0010
1773.00,0.0010
1772.00,0.0011
1771.00,0.0012
1770.00,0.0012
1769.00,0.0013
1768.00,0.0013
1767.00,0.0012
1766.00,0.0012
1765.00,0.0012
1764.00,0.0012
1763.00,0.0013
1762.00,0.0014
1761.00,0.0015
1760.00,0.0017
1759.00,0.0018
1758.00,0.0019
1757.00,0.0020
1756.00,0.0022
1755.00,0.0023
1754.00,0.0025
1753.00,0.0027
1752.00,0.0028
1751.00,0.0030
1750.00,0.0032
1749.00,0.0034
1748.00,0.0036
1747.00,0.0038
1746.00,0.0040
1745.00,0.0041
1744.00,0.0042
1743.00,0.0043
1742.00,0.0044
1741.00,0.0044
1740.00,0.0044
1739.00,0.0044
1738.00,0.0044
1737.00,0.0044
1736.00,0.0044
1735.00,0.0043
1734.00,0.0041
1733.00,0.0039
1732.00,0.0038
1731.00,0.0038
1730.00,0.0037
1729.00,0.0037
1728.00,0.0036
1727.00,0.0036
1726.00,0.0035
1725.00,0.0035
1724.00,0.0034
1723.00,0.0033
1722.00,0.0032
1721.00,0.0031
1720.00,0.0030
1719.00,0.0030
1718.00,0.0029
1717.00,0.0028
1716.00,0.0028
1715.00,0.0027
1714.00,0.0027
1713.00,0.0026
1712.00,0.0027
1711.00,0.0027
1710.00,0.0027
1709.00,0.0027
1708.00,0.0027
1707.00,0.0027
1706.00,0.0026
1705.00,0.0026
1704.00,0.0027
1703.00,0.0028
1702.00,0.0028
1701.00,0.0028
1700.00,0.0028
1699.00,0.0028
1698.00,0.0028
1697.00,0.0029
1696.00,0.0029
1695.00,0.0030
1694.00,0.0030
1693.00,0.0030
1692.00,0.0031
1691.00,0.0031
1690.00,0.0032
1689.00,0.0033
1688.00,0.0034
1687.00,0.0034
1686.00,0.0034
1685.00,0.0034
1684.00,0.0035
1683.00,0.0035
1682.00,0.0036
1681.00,0.0036
1680.00,0.0037
1679.00,0.0038
1678.00,0.0039
1677.00,0.0039
1676.00,0.0040
1675.00,0.0041
1674.00,0.0041
1673.00,0.0042
1672.00,0.0043
1671.00,0.0043
1670.00,0.0044
1669.00,0.0045
1668.00,0.0045
1667.00,0.0045
1666.00,0.0045
1665.00,0.0046
1664.00,0.0046
1663.00,0.0047
1662.00,0.0047
1661.00,0.0048
1660.00,0.0049
1659.00,0.0049
1658.00,0.0050
1657.00,0.0050
1656.00,0.0051
1655.00,0.0052
1654.00,0.0052
1653.00,0.0054
1652.00,0.0055
1651.00,0.0056
1650.00,0.0056
1649.00,0.0057
1648.00,0.0058
1647.00,0.0059
1646.00,0.0060
1645.00,0.0060
1644.00,0.0060
1643.00,0.0060
1642.00,0.0059
1641.00,0.0059
1640.00,0.0060
1639.00,0.0061
1638.00,0.0061
1637.00,0.0062
1636.00,0.0063
1635.00,0.0063
1634.00,0.0062
1633.00,0.0062
1632.00,0.0062
1631.00,0.0061
1630.00,0.0061
1629.00,0.0061
1628.00,0.0061
1627.00,0.0060
1626.00,0.0059
1625.00,0.0059
1624.00,0.0058
1623.00,0.0058
1622.00,0.0058
1621.00,0.0057
1620.00,0.0057
1619.00,0.0056
1618.00,0.0055
1617.00,0.0054
1616.00,0.0054
1615.00,0.0054
1614.00,0.0054
1613.00,0.0054
1612.00,0.0055
1611.00,0.0055
1610.00,0.0054
1609.00,0.0054
1608.00,0.0054
1607.00,0.0054
1606.00,0.0054
1605.00,0.0054
1604.00,0.0054
1603.00,0.0055
1602.00,0.0055
1601.00,0.0055
1600.00,0.0055
1599.00,0.0055
1598.00,0.0054
1597.00,0.0054
1596.00,0.0054
1595.00,0.0053
1594.00,0.0054
1593.00,0.0054
1592.00,0.0055
1591.00,0.0056
1590.00,0.0057
1589.00,0.0058
1588.00,0.0059
1587.00,0.0061
1586.00,0.0064
1585.00,0.0067
1584.00,0.0070
1583.00,0.0073
1582.00,0.0076
1581.00,0.0080
1580.00,0.0084
1579.00,0.0087
1578.00,0.0090
1577.00,0.0091
1576.00,0.0091
1575.00,0.0090
1574.00,0.0089
1573.00,0.0087
1572.00,0.0085
1571.00,0.0082
1570.00,0.0078
1569.00,0.0074
1568.00,0.0072
1567.00,0.0071
1566.00,0.0069
1565.00,0.0068
1564.00,0.0068
1563.00,0.0067
1562.00,0.0067
1561.00,0.0067
1560.00,0.0067
1559.00,0.0067
1558.00,0.0067
1557.00,0.0068
1556.00,0.0069
1555.00,0.0070
1554.00,0.0070
1553.00,0.0071
1552.00,0.0073
1551.00,0.0074
1550.00,0.0076
1549.00,0.0078
1548.00,0.0080
1547.00,0.0083
1546.00,0.0086
1545.00,0.0090
1544.00,0.0095
1543.00,0.0098
1542.00,0.0101
1541.00,0.0102
1540.00,0.0101
1539.00,0.0098
1538.00,0.0095
1537.00,0.0092
1536.00,0.0088
1535.00,0.0084
1534.00,0.0079
1533.00,0.0074
1532.00,0.0070
1531.00,0.0067
1530.00,0.0065
1529.00,0.0064
1528.00,0.0064
1527.00,0.0063
1526.00,0.0062
1525.00,0.0061
1524.00,0.0061
1523.00,0.0061
1522.00,0.0061
1521.00,0.0062
1520.00,0.0062
1519.00,0.0062
1518.00,0.0062
1517.00,0.0063
1516.00,0.0064
1515.00,0.0064
1514.00,0.0063
1513.00,0.0064
1512.00,0.0064
1511.00,0.0064
1510.00,0.0065
1509.00,0.0066
1508.00,0.0067
1507.00,0.0067
1506.00,0.0068
1505.00,0.0069
1504.00,0.0072
1503.00,0.0073
1502.00,0.0075
1501.00,0.0077
1500.00,0.0080
1499.00,0.0082
1498.00,0.0084
1497.00,0.0088
1496.00,0.0092
1495.00,0.0096
1494.00,0.0099
1493.00,0.0102
1492.00,0.0106
1491.00,0.0110
1490.00,0.0113
1489.00,0.0119
1488.00,0.0125
1487.00,0.0131
1486.00,0.0138
1485.00,0.0145
1484.00,0.0154
1483.00,0.0163
1482.00,0.0173
1481.00,0.0185
1480.00,0.0199
1479.00,0.0212
1478.00,0.0228
1477.00,0.0248
1476.00,0.0273
1475.00,0.0303
1474.00,0.0341
1473.00,0.0396
1472.00,0.0461
1471.00,0.0523
1470.00,0.0583
1469.00,0.0646
1468.00,0.0712
1467.00,0.0784
1466.00,0.0864
1465.00,0.0949
1464.00,0.1024
1463.00,0.1077
1462.00,0.1111
1461.00,0.1135
1460.00,0.1154
1459.00,0.1167
1458.00,0.1181
1457.00,0.1192
1456.00,0.1196
1455.00,0.1192
1454.00,0.1183
1453.00,0.1170
1452.00,0.1147
1451.00,0.1114
1450.00,0.1067
1449.00,0.1000
1448.00,0.0913
1447.00,0.0821
1446.00,0.0736
1445.00,0.0662
1444.00,0.0598
1443.00,0.0545
1442.00,0.0503
1441.00,0.0474
1440.00,0.0456
1439.00,0.0446
1438.00,0.0443
1437.00,0.0440
1436.00,0.0428
1435.00,0.0404
1434.00,0.0372
1433.00,0.0333
1432.00,0.0292
1431.00,0.0255
1430.00,0.0226
1429.00,0.0204
1428.00,0.0189
1427.00,0.0179
1426.00,0.0173
1425.00,0.0167
1424.00,0.0161
1423.00,0.0157
1422.00,0.0155
1421.00,0.0153
1420.00,0.0150
1419.00,0.0147
1418.00,0.0144
1417.00,0.0141
1416.00,0.0137
1415.00,0.0135
1414.00,0.0133
1413.00,0.0131
1412.00,0.0128
1411.00,0.0127
1410.00,0.0126
1409.00,0.0124
1408.00,0.0123
1407.00,0.0122
1406.00,0.0122
1405.00,0.0120
1404.00,0.0119
1403.00,0.0119
1402.00,0.0120
1401.00,0.0120
1400.00,0.0120
1399.00,0.0121
1398.00,0.0123
1397.00,0.0125
1396.00,0.0126
1395.00,0.0129
1394.00,0.0134
1393.00,0.0138
1392.00,0.0143
1391.00,0.0149
1390.00,0.0159
1389.00,0.0171
1388.00,0.0191
1387.00,0.0221
1386.00,0.0263
1385.00,0.0318
1384.00,0.0394
1383.00,0.0499
1382.00,0.0639
1381.00,0.0815
1380.00,0.1026
1379.00,0.1258
1378.00,0.1474
1377.00,0.1623
1376.00,0.1660
1375.00,0.1565
1374.00,0.1365
1373.00,0.1131
1372.00,0.0920
1371.00,0.0747
1370.00,0.0609
1369.00,0.0504
1368.00,0.0431
1367.00,0.0385
1366.00,0.0359
1365.00,0.0349
1364.00,0.0350
1363.00,0.0360
1362.00,0.0377
1361.00,0.0395
1360.00,0.0408
1359.00,0.0411
1358.00,0.0402
1357.00,0.0380
1356.00,0.0350
1355.00,0.0316
1354.00,0.0283
1353.00,0.0254
1352.00,0.0231
1351.00,0.0212
1350.00,0.0195
1349.00,0.0182
1348.00,0.0171
1347.00,0.0161
1346.00,0.0153
1345.00,0.0146
1344.00,0.0140
1343.00,0.0136
1342.00,0.0133
1341.00,0.0129
1340.00,0.0127
1339.00,0.0125
1338.00,0.0124
1337.00,0.0124
1336.00,0.0124
1335.00,0.0125
1334.00,0.0128
1333.00,0.0131
1332.00,0.0134
1331.00,0.0137
1330.00,0.0138
1329.00,0.0137
1328.00,0.0134
1327.00,0.0130
1326.00,0.0126
1325.00,0.0121
1324.00,0.0116
1323.00,0.0111
1322.00,0.0108
1321.00,0.0106
1320.00,0.0104
1319.00,0.0102
1318.00,0.0100
1317.00,0.0099
1316.00,0.0097
1315.00,0.0096
1314.00,0.0096
1313.00,0.0097
1312.00,0.0099
1311.00,0.0102
1310.00,0.0107
1309.00,0.0115
1308.00,0.0126
1307.00,0.0139
1306.00,0.0152
1305.00,0.0161
1304.00,0.0163
1303.00,0.0159
1302.00,0.0152
1301.00,0.0145
1300.00,0.0140
1299.00,0.0137
1298.00,0.0136
1297.00,0.0135
1296.00,0.0133
1295.00,0.0130
1294.00,0.0126
1293.00,0.0122
1292.00,0.0116
1291.00,0.0112
1290.00,0.0108
1289.00,0.0105
1288.00,0.0101
1287.00,0.0099
1286.00,0.0097
1285.00,0.0095
1284.00,0.0094
1283.00,0.0093
1282.00,0.0092
1281.00,0.0091
1280.00,0.0090
1279.00,0.0089
1278.00,0.0088
1277.00,0.0088
1276.00,0.0087
1275.00,0.0087
1274.00,0.0087
1273.00,0.0087
1272.00,0.0087
1271.00,0.0087
1270.00,0.0088
1269.00,0.0090
1268.00,0.0092
1267.00,0.0094
1266.00,0.0096
1265.00,0.0099
1264.00,0.0102
1263.00,0.0105
1262.00,0.0109
1261.00,0.0114
1260.00,0.0121
1259.00,0.0129
1258.00,0.0138
1257.00,0.0145
1256.00,0.0149
1255.00,0.0148
1254.00,0.0141
1253.00,0.0131
1252.00,0.0120
1251.00,0.0112
1250.00,0.0105
1249.00,0.0101
1248.00,0.0099
1247.00,0.0097
1246.00,0.0095
1245.00,0.0093
1244.00,0.0092
1243.00,0.0091
1242.00,0.0090
1241.00,0.0089
1240.00,0.0088
1239.00,0.0088
1238.00,0.0087
1237.00,0.0087
1236.00,0.0087
1235.00,0.0087
1234.00,0.0088
1233.00,0.0090
1232.00,0.0091
1231.00,0.0092
1230.00,0.0093
1229.00,0.0093
1228.00,0.0094
1227.00,0.0096
1226.00,0.0098
1225.00,0.0101
1224.00,0.0104
1223.00,0.0107
1222.00,0.0111
1221.00,0.0114
1220.00,0.0115
1219.00,0.0116
1218.00,0.0115
1217.00,0.0113
1216.00,0.0110
1215.00,0.0108
1214.00,0.0105
1213.00,0.0103
1212.00,0.0101
1211.00,0.0100
1210.00,0.0099
1209.00,0.0097
1208.00,0.0096
1207.00,0.0094
1206.00,0.0093
1205.00,0.0093
1204.00,0.0093
1203.00,0.0094
1202.00,0.0095
1201.00,0.0095
1200.00,0.0095
1199.00,0.0096
1198.00,0.0098
1197.00,0.0099
1196.00,0.0099
1195.00,0.0099
1194.00,0.0099
1193.00,0.0099
1192.00,0.0099
1191.00,0.0099
1190.00,0.0099
1189.00,0.0099
1188.00,0.0099
1187.00,0.0099
1186.00,0.0101
1185.00,0.0102
1184.00,0.0103
1183.00,0.0105
1182.00,0.0107
1181.00,0.0109
1180.00,0.0112
1179.00,0.0118
1178.00,0.0125
1177.00,0.0135
1176.00,0.0148
1175.00,0.0166
1174.00,0.0189
1173.00,0.0217
1172.00,0.0252
1171.00,0.0290
1170.00,0.0327
1169.00,0.0357
1168.00,0.0375
1167.00,0.0378
1166.00,0.0367
1165.00,0.0346
1164.00,0.0322
1163.00,0.0299
1162.00,0.0279
1161.00,0.0262
1160.00,0.0249
1159.00,0.0239
1158.00,0.0230
1157.00,0.0224
1156.00,0.0218
1155.00,0.0214
1154.00,0.0211
1153.00,0.0207
1152.00,0.0201
1151.00,0.0194
1150.00,0.0185
1149.00,0.0175
1148.00,0.0164
1147.00,0.0155
1146.00,0.0146
1145.00,0.0138
1144.00,0.0131
1143.00,0.0124
1142.00,0.0118
1141.00,0.0114
1140.00,0.0109
1139.00,0.0105
1138.00,0.0101
1137.00,0.0098
1136.00,0.0095
1135.00,0.0093
1134.00,0.0091
1133.00,0.0089
1132.00,0.0088
1131.00,0.0087
1130.00,0.0088
1129.00,0.0089
1128.00,0.0090
1127.00,0.0092
1126.00,0.0093
1125.00,0.0093
1124.00,0.0092
1123.00,0.0093
1122.00,0.0094
1121.00,0.0095
1120.00,0.0096
1119.00,0.0096
1118.00,0.0097
1117.00,0.0097
1116.00,0.0098
1115.00,0.0099
1114.00,0.0101
1113.00,0.0102
1112.00,0.0104
1111.00,0.0106
1110.00,0.0108
1109.00,0.0111
1108.00,0.0114
1107.00,0.0119
1106.00,0.0125
1105.00,0.0130
1104.00,0.0135
1103.00,0.0137
1102.00,0.0137
1101.00,0.0134
1100.00,0.0129
1099.00,0.0124
1098.00,0.0118
1097.00,0.0113
1096.00,0.0108
1095.00,0.0105
1094.00,0.0102
1093.00,0.0099
1092.00,0.0097
1091.00,0.0095
1090.00,0.0093
1089.00,0.0092
1088.00,0.0091
1087.00,0.0090
1086.00,0.0090
1085.00,0.0090
1084.00,0.0090
1083.00,0.0090
1082.00,0.0090
1081.00,0.0089
1080.00,0.0088
1079.00,0.0086
1078.00,0.0085
1077.00,0.0084
1076.00,0.0084
1075.00,0.0085
1074.00,0.0085
1073.00,0.0084
1072.00,0.0084
1071.00,0.0083
1070.00,0.0083
1069.00,0.0083
1068.00,0.0083
1067.00,0.0083
1066.00,0.0083
1065.00,0.0084
1064.00,0.0085
1063.00,0.0086
1062.00,0.0087
1061.00,0.0087
1060.00,0.0088
1059.00,0.0088
1058.00,0.0089
1057.00,0.0091
1056.00,0.0092
1055.00,0.0094
1054.00,0.0096
1053.00,0.0100
1052.00,0.0104
1051.00,0.0109
1050.00,0.0113
1049.00,0.0117
1048.00,0.0122
1047.00,0.0127
1046.00,0.0132
1045.00,0.0135
1044.00,0.0136
1043.00,0.0135
1042.00,0.0132
1041.00,0.0128
1040.00,0.0126
1039.00,0.0125
1038.00,0.0126
1037.00,0.0127
1036.00,0.0127
1035.00,0.0127
1034.00,0.0126
1033.00,0.0125
1032.00,0.0123
1031.00,0.0122
1030.00,0.0122
1029.00,0.0122
1028.00,0.0122
1027.00,0.0123
1026.00,0.0124
1025.00,0.0125
1024.00,0.0127
1023.00,0.0128
1022.00,0.0131
1021.00,0.0134
1020.00,0.0137
1019.00,0.0139
1018.00,0.0141
1017.00,0.0142
1016.00,0.0144
1015.00,0.0145
1014.00,0.0146
1013.00,0.0147
1012.00,0.0148
1011.00,0.0150
1010.00,0.0151
1009.00,0.0153
1008.00,0.0155
1007.00,0.0159
1006.00,0.0167
1005.00,0.0179
1004.00,0.0198
1003.00,0.0224
1002.00,0.0261
1001.00,0.0308
1000.00,0.0359
999.00,0.0402
998.00,0.0425
997.00,0.0418
996.00,0.0385
995.00,0.0337
994.00,0.0286
993.00,0.0241
992.00,0.0207
991.00,0.0182
990.00,0.0165
989.00,0.0152
988.00,0.0143
987.00,0.0138
986.00,0.0135
985.00,0.0136
984.00,0.0139
983.00,0.0146
982.00,0.0157
981.00,0.0174
980.00,0.0197
979.00,0.0228
978.00,0.0268
977.00,0.0316
976.00,0.0370
975.00,0.0423
974.00,0.0465
973.00,0.0484
972.00,0.0471
971.00,0.0427
970.00,0.0365
969.00,0.0300
968.00,0.0245
967.00,0.0202
966.00,0.0172
965.00,0.0151
964.00,0.0136
963.00,0.0125
962.00,0.0117
961.00,0.0110
960.00,0.0105
959.00,0.0100
958.00,0.0096
957.00,0.0092
956.00,0.0088
955.00,0.0086
954.00,0.0084
953.00,0.0082
952.00,0.0080
951.00,0.0079
950.00,0.0078
949.00,0.0078
948.00,0.0078
947.00,0.0079
946.00,0.0080
945.00,0.0082
944.00,0.0084
943.00,0.0087
942.00,0.0089
941.00,0.0091
940.00,0.0092
939.00,0.0091
938.00,0.0088
937.00,0.0083
936.00,0.0079
935.00,0.0074
934.00,0.0071
933.00,0.0069
932.00,0.0068
931.00,0.0068
930.00,0.0068
929.00,0.0067
928.00,0.0068
927.00,0.0068
926.00,0.0069
925.00,0.0069
924.00,0.0068
923.00,0.0066
922.00,0.0064
921.00,0.0064
920.00,0.0064
919.00,0.0065
918.00,0.0066
917.00,0.0066
916.00,0.0067
915.00,0.0069
914.00,0.0070
913.00,0.0070
912.00,0.0071
911.00,0.0072
910.00,0.0074
909.00,0.0076
908.00,0.0079
907.00,0.0082
906.00,0.0088
905.00,0.0096
904.00,0.0109
903.00,0.0125
902.00,0.0142
901.00,0.0157
900.00,0.0166
899.00,0.0166
898.00,0.0159
897.00,0.0147
896.00,0.0132
895.00,0.0118
894.00,0.0106
893.00,0.0096
892.00,0.0088
891.00,0.0083
890.00,0.0080
889.00,0.0077
888.00,0.0077
887.00,0.0077
886.00,0.0078
885.00,0.0078
884.00,0.0077
883.00,0.0077
882.00,0.0077
881.00,0.0079
880.00,0.0080
879.00,0.0082
878.00,0.0082
877.00,0.0081
876.00,0.0081
875.00,0.0081
874.00,0.0082
873.00,0.0083
872.00,0.0083
871.00,0.0082
870.00,0.0081
869.00,0.0080
868.00,0.0080
867.00,0.0081
866.00,0.0082
865.00,0.0083
864.00,0.0084
863.00,0.0085
862.00,0.0087
861.00,0.0088
860.00,0.0090
859.00,0.0091
858.00,0.0093
857.00,0.0094
856.00,0.0095
855.00,0.0097
854.00,0.0100
853.00,0.0103
852.00,0.0107
851.00,0.0111
850.00,0.0117
849.00,0.0124
848.00,0.0134
847.00,0.0150
846.00,0.0175
845.00,0.0215
844.00,0.0273
843.00,0.0342
842.00,0.0399
841.00,0.0421
840.00,0.0396
839.00,0.0336
838.00,0.0268
837.00,0.0211
836.00,0.0173
835.00,0.0150
834.00,0.0135
833.00,0.0127
832.00,0.0121
831.00,0.0117
830.00,0.0113
829.00,0.0110
828.00,0.0107
827.00,0.0104
826.00,0.0102
825.00,0.0100
824.00,0.0099
823.00,0.0099
822.00,0.0100
821.00,0.0103
820.00,0.0104
819.00,0.0106
818.00,0.0107
817.00,0.0111
816.00,0.0118
815.00,0.0128
814.00,0.0141
813.00,0.0156
812.00,0.0173
811.00,0.0188
810.00,0.0198
809.00,0.0202
808.00,0.0198
807.00,0.0187
806.00,0.0172
805.00,0.0156
804.00,0.0142
803.00,0.0131
802.00,0.0123
801.00,0.0117
800.00,0.0113
799.00,0.0109
798.00,0.0105
797.00,0.0102
796.00,0.0100
795.00,0.0098
794.00,0.0095
793.00,0.0091
792.00,0.0087
791.00,0.0084
790.00,0.0081
789.00,0.0079
788.00,0.0077
787.00,0.0076
786.00,0.0074
785.00,0.0072
784.00,0.0071
783.00,0.0070
782.00,0.0072
781.00,0.0073
780.00,0.0073
779.00,0.0072
778.00,0.0068
777.00,0.0065
776.00,0.0062
775.00,0.0062
774.00,0.0065
773.00,0.0068
772.00,0.0071
771.00,0.0071
770.00,0.0070
769.00,0.0069
768.00,0.0067
767.00,0.0067
766.00,0.0067
765.00,0.0067
764.00,0.0066
763.00,0.0067
762.00,0.0070
761.00,0.0073
760.00,0.0075
759.00,0.0076
758.00,0.0076
757.00,0.0075
756.00,0.0074
755.00,0.0074
754.00,0.0075
753.00,0.0077
752.00,0.0079
751.00,0.0082
750.00,0.0083
749.00,0.0084
748.00,0.0084
747.00,0.0084
746.00,0.0085
745.00,0.0088
744.00,0.0092
743.00,0.0096
742.00,0.0099
741.00,0.0102
740.00,0.0105
739.00,0.0108
738.00,0.0112
737.00,0.0115
736.00,0.0119
735.00,0.0123
734.00,0.0128
733.00,0.0135
732.00,0.0142
731.00,0.0150
730.00,0.0156
729.00,0.0160
728.00,0.0161
727.00,0.0161
726.00,0.0162
725.00,0.0164
724.00,0.0168
723.00,0.0174
722.00,0.0179
721.00,0.0182
720.00,0.0180
719.00,0.0172
718.00,0.0160
717.00,0.0146
716.00,0.0134
715.00,0.0126
714.00,0.0121
713.00,0.0118
712.00,0.0116
711.00,0.0114
710.00,0.0112
709.00,0.0109
708.00,0.0108
707.00,0.0106
706.00,0.0105
705.00,0.0103
704.00,0.0102
703.00,0.0101
702.00,0.0101
701.00,0.0100
700.00,0.0098
699.00,0.0097
698.00,0.0095
697.00,0.0094
696.00,0.0092
695.00,0.0092
694.00,0.0093
693.00,0.0095
692.00,0.0097
691.00,0.0097
690.00,0.0096
689.00,0.0093
688.00,0.0091
687.00,0.0090
686.00,0.0091
685.00,0.0094
684.00,0.0096
683.00,0.0097
682.00,0.0097
681.00,0.0096
680.00,0.0096
679.00,0.0095
678.00,0.0094
677.00,0.0093
676.00,0.0093
675.00,0.0095
674.00,0.0098
673.00,0.0102
672.00,0.0105
671.00,0.0108
670.00,0.0109
669.00,0.0109
668.00,0.0107
667.00,0.0106
666.00,0.0104
665.00,0.0102
664.00,0.0099
663.00,0.0097
662.00,0.0093
661.00,0.0090
660.00,0.0087
659.00,0.0086
658.00,0.0085
657.00,0.0084
656.00,0.0083
655.00,0.0082
654.00,0.0081
653.00,0.0081
652.00,0.0081
651.00,0.0081
650.00,0.0080
649.00,0.0080
648.00,0.0080
647.00,0.0081
646.00,0.0083
645.00,0.0084
644.00,0.0084
643.00,0.0085
642.00,0.0086
641.00,0.0087
640.00,0.0087
639.00,0.0085
638.00,0.0084
637.00,0.0084
636.00,0.0084
635.00,0.0084
634.00,0.0085
633.00,0.0085
632.00,0.0085
631.00,0.0084
630.00,0.0085
629.00,0.0087
628.00,0.0089
627.00,0.0092
626.00,0.0094
625.00,0.0096
624.00,0.0097
623.00,0.0097
622.00,0.0095
621.00,0.0094
620.00,0.0093
619.00,0.0093
618.00,0.0094
617.00,0.0095
616.00,0.0097
615.00,0.0096
614.00,0.0095
613.00,0.0094
612.00,0.0094
611.00,0.0094
610.00,0.0093
609.00,0.0090
608.00,0.0088
607.00,0.0088
606.00,0.0090
605.00,0.0091
604.00,0.0091
603.00,0.0089
602.00,0.0086
601.00,0.0085
600.00,0.0085
599.00,0.0087
598.00,0.0087
597.00,0.0085
596.00,0.0085
595.00,0.0086
594.00,0.0089
593.00,0.0091
592.00,0.0090
591.00,0.0089
590.00,0.0088
589.00,0.0088
588.00,0.0088
587.00,0.0090
586.00,0.0093
585.00,0.0094
584.00,0.0094
583.00,0.0092
582.00,0.0089
581.00,0.0085
580.00,0.0083
579.00,0.0083
578.00,0.0084
577.00,0.0084
576.00,0.0083
575.00,0.0082
574.00,0.0082
573.00,0.0084
572.00,0.0089
571.00,0.0093
570.00,0.0096
569.00,0.0098
568.00,0.0099
567.00,0.0099
566.00,0.0098
565.00,0.0097
564.00,0.0095
563.00,0.0093
562.00,0.0092
561.00,0.0092
560.00,0.0093
559.00,0.0093
558.00,0.0092
557.00,0.0089
556.00,0.0087
555.00,0.0087
554.00,0.0088
553.00,0.0089
552.00,0.0090
551.00,0.0093
550.00,0.0097
549.00,0.0098
548.00,0.0096
547.00,0.0093
546.00,0.0092
545.00,0.0092
544.00,0.0093
543.00,0.0096
542.00,0.0099
541.00,0.0099
540.00,0.0098
539.00,0.0097
538.00,0.0099
537.00,0.0105
536.00,0.0113
535.00,0.0120
534.00,0.0123
533.00,0.0120
532.00,0.0114
531.00,0.0109
530.00,0.0106
529.00,0.0106
528.00,0.0107
527.00,0.0108
526.00,0.0109
525.00,0.0111
524.00,0.0108
523.00,0.0104
522.00,0.0099
521.00,0.0097
520.00,0.0098
519.00,0.0099
518.00,0.0099
517.00,0.0100
516.00,0.0099
515.00,0.0097
514.00,0.0094
513.00,0.0093
512.00,0.0095
511.00,0.0100
510.00,0.0105
509.00,0.0106
508.00,0.0102
507.00,0.0096
506.00,0.0093
505.00,0.0092
504.00,0.0090
503.00,0.0087
502.00,0.0085
501.00,0.0086
500.00,0.0088
499.00,0.0092
498.00,0.0096
497.00,0.0101
496.00,0.0103
495.00,0.0099
494.00,0.0090
493.00,0.0083
492.00,0.0082
491.00,0.0090
490.00,0.0102
489.00,0.0113
488.00,0.0117
487.00,0.0113
486.00,0.0104
485.00,0.0096
484.00,0.0090
483.00,0.0087
482.00,0.0084
481.00,0.0082
480.00,0.0083
479.00,0.0091
478.00,0.0107
477.00,0.0125
476.00,0.0140
475.00,0.0146
474.00,0.0142
473.00,0.0135
472.00,0.0130
471.00,0.0132
470.00,0.0138
469.00,0.0144
468.00,0.0147
467.00,0.0149
466.00,0.0155
465.00,0.0165
464.00,0.0176
463.00,0.0186
462.00,0.0196
461.00,0.0207
460.00,0.0217
459.00,0.0216
458.00,0.0201
457.00,0.0183
456.00,0.0177
455.00,0.0185
454.00,0.0197
453.00,0.0203
452.00,0.0200
451.00,0.0193
450.00,0.0184
