Created as New Dataset,Sample 029 By Administrator Date Wednesday, September 03 2025
cm-1,A
4000.00,0.0015
3999.00,0.0015
3998.00,0.0015
3997.00,0.0015
3996.00,0.0015
3995.00,0.0015
3994.00,0.0015
3993.00,0.0016
3992.00,0.0016
3991.00,0.0016
3990.00,0.0016
3989.00,0.0016
3988.00,0.0015
3987.00,0.0015
3986.00,0.0015
3985.00,0.0015
3984.00,0.0015
3983.00,0.0015
3982.00,0.0015
3981.00,0.0015
3980.00,0.0015
3979.00,0.0015
3978.00,0.0014
3977.00,0.0014
3976.00,0.0014
3975.00,0.0014
3974.00,0.0014
3973.00,0.0014
3972.00,0.0014
3971.00,0.0014
3970.00,0.0014
3969.00,0.0014
3968.00,0.0014
3967.00,0.0014
3966.00,0.0014
3965.00,0.0014
3964.00,0.0013
3963.00,0.0013
3962.00,0.0014
3961.00,0.0014
3960.00,0.0014
3959.00,0.0014
3958.00,0.0014
3957.00,0.0014
3956.00,0.0014
3955.00,0.0013
3954.00,0.0013
3953.00,0.0013
3952.00,0.0013
3951.00,0.0013
3950.00,0.0013
3949.00,0.0013
3948.00,0.0013
3947.00,0.0013
3946.00,0.0014
3945.00,0.0014
3944.00,0.0014
3943.00,0.0014
3942.00,0.0014
3941.00,0.0014
3940.00,0.0014
3939.00,0.0014
3938.00,0.0015
3937.00,0.0015
3936.00,0.0014
3935.00,0.0014
3934.00,0.0014
3933.00,0.0013
3932.00,0.0013
3931.00,0.0013
3930.00,0.0013
3929.00,0.0013
3928.00,0.0013
3927.00,0.0013
3926.00,0.0013
3925.00,0.0013
3924.00,0.0013
3923.00,0.0013
3922.00,0.0013
3921.00,0.0013
3920.00,0.0013
3919.00,0.0014
3918.00,0.0014
3917.00,0.0014
3916.00,0.0014
3915.00,0.0014
3914.00,0.0013
3913.00,0.0013
3912.00,0.0013
3911.00,0.0013
3910.00,0.0013
3909.00,0.0013
3908.00,0.0012
3907.00,0.0012
3906.00,0.0012
3905.00,0.0011
3904.00,0.0011
3903.00,0.0011
3902.00,0.0011
3901.00,0.0011
3900.00,0.0012
3899.00,0.0013
3898.00,0.0013
3897.00,0.0013
3896.00,0.0014
3895.00,0.0014
3894.00,0.0014
3893.00,0.0014
3892.00,0.0013
3891.00,0.0013
3890.00,0.0013
3889.00,0.0013
3888.00,0.0012
3887.00,0.0012
3886.00,0.0012
3885.00,0.0012
3884.00,0.0012
3883.00,0.0012
3882.00,0.0013
3881.00,0.0013
3880.00,0.0013
3879.00,0.0013
3878.00,0.0012
3877.00,0.0012
3876.00,0.0012
3875.00,0.0012
3874.00,0.0012
3873.00,0.0012
3872.00,0.0012
3871.00,0.0012
3870.00,0.0012
3869.00,0.0012
3868.00,0.0012
3867.00,0.0012
3866.00,0.0012
3865.00,0.0012
3864.00,0.0012
3863.00,0.0012
3862.00,0.0011
3861.00,0.0011
3860.00,0.0011
3859.00,0.0010
3858.00,0.0010
3857.00,0.0010
3856.00,0.0010
3855.00,0.0010
3854.00,0.0010
3853.00,0.0010
3852.00,0.0010
3851.00,0.0010
3850.00,0.0011
3849.00,0.0011
3848.00,0.0012
3847.00,0.0012
3846.00,0.0013
3845.00,0.0013
3844.00,0.0013
3843.00,0.0013
3842.00,0.0012
3841.00,0.0012
3840.00,0.0011
3839.00,0.0010
3838.00,0.0010
3837.00,0.0011
3836.00,0.0011
3835.00,0.0011
3834.00,0.0011
3833.00,0.0012
3832.00,0.0012
3831.00,0.0012
3830.00,0.0012
3829.00,0.0012
3828.00,0.0012
3827.00,0.0012
3826.00,0.0012
3825.00,0.0012
3824.00,0.0011
3823.00,0.0011
3822.00,0.0011
3821.00,0.0010
3820.00,0.0010
3819.00,0.0010
3818.00,0.0011
3817.00,0.0011
3816.00,0.0012
3815.00,0.0012
3814.00,0.0012
3813.00,0.0012
3812.00,0.0012
3811.00,0.0012
3810.00,0.0012
3809.00,0.0012
3808.00,0.0013
3807.00,0.0013
3806.00,0.0012
3805.00,0.0012
3804.00,0.0011
3803.00,0.0011
3802.00,0.0011
3801.00,0.0011
3800.00,0.0012
3799.00,0.0012
3798.00,0.0012
3797.00,0.0013
3796.00,0.0013
3795.00,0.0013
3794.00,0.0013
3793.00,0.0013
3792.00,0.0013
3791.00,0.0012
3790.00,0.0012
3789.00,0.0012
3788.00,0.0012
3787.00,0.0012
3786.00,0.0012
3785.00,0.0012
3784.00,0.0012
3783.00,0.0012
3782.00,0.0012
3781.00,0.0012
3780.00,0.0012
3779.00,0.0012
3778.00,0.0012
3777.00,0.0012
3776.00,0.0013
3775.00,0.0013
3774.00,0.0013
3773.00,0.0013
3772.00,0.0013
3771.00,0.0012
3770.00,0.0012
3769.00,0.0012
3768.00,0.0012
3767.00,0.0012
3766.00,0.0012
3765.00,0.0013
3764.00,0.0013
3763.00,0.0013
3762.00,0.0012
3761.00,0.0012
3760.00,0.0012
3759.00,0.0013
3758.00,0.0013
3757.00,0.0013
3756.00,0.0013
3755.00,0.0012
3754.00,0.0011
3753.00,0.0010
3752.00,0.0009
3751.00,0.0009
3750.00,0.0010
3749.00,0.0010
3748.00,0.0010
3747.00,0.0011
3746.00,0.0011
3745.00,0.0012
3744.00,0.0012
3743.00,0.0011
3742.00,0.0011
3741.00,0.0010
3740.00,0.0009
3739.00,0.0009
3738.00,0.0008
3737.00,0.0008
3736.00,0.0008
3735.00,0.0009
3734.00,0.0010
3733.00,0.0010
3732.00,0.0011
3731.00,0.0011
3730.00,0.0011
3729.00,0.0011
3728.00,0.0012
3727.00,0.0012
3726.00,0.0012
3725.00,0.0012
3724.00,0.0011
3723.00,0.0011
3722.00,0.0011
3721.00,0.0011
3720.00,0.0011
3719.00,0.0011
3718.00,0.0011
3717.00,0.0011
3716.00,0.0011
3715.00,0.0010
3714.00,0.0010
3713.00,0.0010
3712.00,0.0010
3711.00,0.0010
3710.00,0.0010
3709.00,0.0010
3708.00,0.0010
3707.00,0.0011
3706.00,0.0011
3705.00,0.0011
3704.00,0.0011
3703.00,0.0011
3702.00,0.0011
3701.00,0.0011
3700.00,0.0011
3699.00,0.0011
3698.00,0.0011
3697.00,0.0011
3696.00,0.0011
3695.00,0.0010
3694.00,0.0010
3693.00,0.0010
3692.00,0.0010
3691.00,0.0010
3690.00,0.0010
3689.00,0.0010
3688.00,0.0010
3687.00,0.0009
3686.00,0.0009
3685.00,0.0009
3684.00,0.0009
3683.00,0.0009
3682.00,0.0009
3681.00,0.0009
3680.00,0.0008
3679.00,0.0007
3678.00,0.0006
3677.00,0.0005
3676.00,0.0005
3675.00,0.0004
3674.00,0.0004
3673.00,0.0004
3672.00,0.0003
3671.00,0.0003
3670.00,0.0003
3669.00,0.0003
3668.00,0.0003
3667.00,0.0003
3666.00,0.0002
3665.00,0.0002
3664.00,0.0002
3663.00,0.0003
3662.00,0.0003
3661.00,0.0003
3660.00,0.0003
3659.00,0.0004
3658.00,0.0004
3657.00,0.0004
3656.00,0.0003
3655.00,0.0003
3654.00,0.0003
3653.00,0.0002
3652.00,0.0002
3651.00,0.0002
3650.00,0.0002
3649.00,0.0002
3648.00,0.0002
3647.00,0.0003
3646.00,0.0004
3645.00,0.0005
3644.00,0.0005
3643.00,0.0006
3642.00,0.0007
3641.00,0.0007
3640.00,0.0007
3639.00,0.0007
3638.00,0.0008
3637.00,0.0008
3636.00,0.0009
3635.00,0.0009
3634.00,0.0009
3633.00,0.0009
3632.00,0.0009
3631.00,0.0009
3630.00,0.0010
3629.00,0.0011
3628.00,0.0011
3627.00,0.0012
3626.00,0.0012
3625.00,0.0013
3624.00,0.0013
3623.00,0.0013
3622.00,0.0013
3621.00,0.0013
3620.00,0.0013
3619.00,0.0013
3618.00,0.0014
3617.00,0.0014
3616.00,0.0014
3615.00,0.0014
3614.00,0.0014
3613.00,0.0014
3612.00,0.0014
3611.00,0.0015
3610.00,0.0015
3609.00,0.0015
3608.00,0.0015
3607.00,0.0016
3606.00,0.0016
3605.00,0.0016
3604.00,0.0017
3603.00,0.0017
3602.00,0.0017
3601.00,0.0018
3600.00,0.0018
3599.00,0.0018
3598.00,0.0018
3597.00,0.0018
3596.00,0.0018
3595.00,0.0018
3594.00,0.0018
3593.00,0.0018
3592.00,0.0018
3591.00,0.0019
3590.00,0.0019
3589.00,0.0019
3588.00,0.0019
3587.00,0.0020
3586.00,0.0020
3585.00,0.0020
3584.00,0.0021
3583.00,0.0021
3582.00,0.0021
3581.00,0.0022
3580.00,0.0022
3579.00,0.0022
3578.00,0.0022
3577.00,0.0022
3576.00,0.0022
3575.00,0.0022
3574.00,0.0022
3573.00,0.0022
3572.00,0.0022
3571.00,0.0022
3570.00,0.0023
3569.00,0.0023
3568.00,0.0023
3567.00,0.0024
3566.00,0.0024
3565.00,0.0025
3564.00,0.0025
3563.00,0.0026
3562.00,0.0026
3561.00,0.0027
3560.00,0.0027
3559.00,0.0027
3558.00,0.0027
3557.00,0.0027
3556.00,0.0027
3555.00,0.0027
3554.00,0.0028
3553.00,0.0028
3552.00,0.0029
3551.00,0.0029
3550.00,0.0029
3549.00,0.0029
3548.00,0.0029
3547.00,0.0029
3546.00,0.0030
3545.00,0.0030
3544.00,0.0030
3543.00,0.0031
3542.00,0.0031
3541.00,0.0031
3540.00,0.0031
3539.00,0.0030
3538.00,0.0030
3537.00,0.0030
3536.00,0.0031
3535.00,0.0031
3534.00,0.0032
3533.00,0.0032
3532.00,0.0032
3531.00,0.0032
3530.00,0.0032
3529.00,0.0033
3528.00,0.0033
3527.00,0.0034
3526.00,0.0034
3525.00,0.0034
3524.00,0.0035
3523.00,0.0035
3522.00,0.0035
3521.00,0.0034
3520.00,0.0034
3519.00,0.0034
3518.00,0.0034
3517.00,0.0035
3516.00,0.0035
3515.00,0.0035
3514.00,0.0036
3513.00,0.0036
3512.00,0.0036
3511.00,0.0036
3510.00,0.0035
3509.00,0.0035
3508.00,0.0035
3507.00,0.0036
3506.00,0.0036
3505.00,0.0037
3504.00,0.0038
3503.00,0.0038
3502.00,0.0038
3501.00,0.0039
3500.00,0.0039
3499.00,0.0039
3498.00,0.0039
3497.00,0.0039
3496.00,0.0039
3495.00,0.0039
3494.00,0.0039
3493.00,0.0039
3492.00,0.0039
3491.00,0.0040
3490.00,0.0040
3489.00,0.0041
3488.00,0.0041
3487.00,0.0042
3486.00,0.0042
3485.00,0.0042
3484.00,0.0041
3483.00,0.0041
3482.00,0.0041
3481.00,0.0042
3480.00,0.0042
3479.00,0.0042
3478.00,0.0043
3477.00,0.0043
3476.00,0.0043
3475.00,0.0044
3474.00,0.0044
3473.00,0.0044
3472.00,0.0044
3471.00,0.0044
3470.00,0.0044
3469.00,0.0044
3468.00,0.0044
3467.00,0.0044
3466.00,0.0044
3465.00,0.0044
3464.00,0.0045
3463.00,0.0045
3462.00,0.0046
3461.00,0.0046
3460.00,0.0046
3459.00,0.0046
3458.00,0.0046
3457.00,0.0046
3456.00,0.0046
3455.00,0.0046
3454.00,0.0047
3453.00,0.0047
3452.00,0.0048
3451.00,0.0048
3450.00,0.0048
3449.00,0.0048
3448.00,0.0048
3447.00,0.0048
3446.00,0.0049
3445.00,0.0049
3444.00,0.0049
3443.00,0.0049
3442.00,0.0050
3441.00,0.0050
3440.00,0.0050
3439.00,0.0051
3438.00,0.0051
3437.00,0.0052
3436.00,0.0052
3435.00,0.0052
3434.00,0.0052
3433.00,0.0052
3432.00,0.0052
3431.00,0.0052
3430.00,0.0052
3429.00,0.0052
3428.00,0.0052
3427.00,0.0053
3426.00,0.0053
3425.00,0.0053
3424.00,0.0054
3423.00,0.0054
3422.00,0.0054
3421.00,0.0054
3420.00,0.0054
3419.00,0.0055
3418.00,0.0055
3417.00,0.0055
3416.00,0.0055
3415.00,0.0055
3414.00,0.0055
3413.00,0.0055
3412.00,0.0055
3411.00,0.0056
3410.00,0.0056
3409.00,0.0056
3408.00,0.0056
3407.00,0.0056
3406.00,0.0057
3405.00,0.0057
3404.00,0.0057
3403.00,0.0057
3402.00,0.0058
3401.00,0.0058
3400.00,0.0059
3399.00,0.0059
3398.00,0.0058
3397.00,0.0058
3396.00,0.0058
3395.00,0.0058
3394.00,0.0058
3393.00,0.0058
3392.00,0.0058
3391.00,0.0058
3390.00,0.0058
3389.00,0.0058
3388.00,0.0058
3387.00,0.0058
3386.00,0.0059
3385.00,0.0059
3384.00,0.0060
3383.00,0.0060
3382.00,0.0060
3381.00,0.0059
3380.00,0.0059
3379.00,0.0059
3378.00,0.0059
3377.00,0.0059
3376.00,0.0059
3375.00,0.0060
3374.00,0.0060
3373.00,0.0061
3372.00,0.0062
3371.00,0.0062
3370.00,0.0062
3369.00,0.0062
3368.00,0.0062
3367.00,0.0061
3366.00,0.0061
3365.00,0.0061
3364.00,0.0061
3363.00,0.0061
3362.00,0.0061
3361.00,0.0061
3360.00,0.0061
3359.00,0.0061
3358.00,0.0061
3357.00,0.0061
3356.00,0.0062
3355.00,0.0062
3354.00,0.0061
3353.00,0.0062
3352.00,0.0062
3351.00,0.0062
3350.00,0.0062
3349.00,0.0063
3348.00,0.0063
3347.00,0.0063
3346.00,0.0063
3345.00,0.0063
3344.00,0.0063
3343.00,0.0063
3342.00,0.0062
3341.00,0.0062
3340.00,0.0062
3339.00,0.0062
3338.00,0.0063
3337.00,0.0063
3336.00,0.0063
3335.00,0.0063
3334.00,0.0063
3333.00,0.0063
3332.00,0.0063
3331.00,0.0062
3330.00,0.0062
3329.00,0.0062
3328.00,0.0062
3327.00,0.0062
3326.00,0.0062
3325.00,0.0062
3324.00,0.0062
3323.00,0.0062
3322.00,0.0062
3321.00,0.0062
3320.00,0.0062
3319.00,0.0062
3318.00,0.0062
3317.00,0.0062
3316.00,0.0062
3315.00,0.0062
3314.00,0.0062
3313.00,0.0062
3312.00,0.0062
3311.00,0.0062
3310.00,0.0062
3309.00,0.0062
3308.00,0.0062
3307.00,0.0062
3306.00,0.0063
3305.00,0.0063
3304.00,0.0063
3303.00,0.0063
3302.00,0.0063
3301.00,0.0063
3300.00,0.0063
3299.00,0.0062
3298.00,0.0062
3297.00,0.0062
3296.00,0.0062
3295.00,0.0062
3294.00,0.0062
3293.00,0.0061
3292.00,0.0061
3291.00,0.0061
3290.00,0.0061
3289.00,0.0061
3288.00,0.0060
3287.00,0.0060
3286.00,0.0059
3285.00,0.0058
3284.00,0.0058
3283.00,0.0058
3282.00,0.0057
3281.00,0.0058
3280.00,0.0058
3279.00,0.0058
3278.00,0.0057
3277.00,0.0057
3276.00,0.0057
3275.00,0.0057
3274.00,0.0057
3273.00,0.0057
3272.00,0.0057
3271.00,0.0057
3270.00,0.0057
3269.00,0.0057
3268.00,0.0057
3267.00,0.0057
3266.00,0.0057
3265.00,0.0056
3264.00,0.0055
3263.00,0.0055
3262.00,0.0054
3261.00,0.0054
3260.00,0.0054
3259.00,0.0054
3258.00,0.0054
3257.00,0.0054
3256.00,0.0054
3255.00,0.0054
3254.00,0.0054
3253.00,0.0054
3252.00,0.0053
3251.00,0.0053
3250.00,0.0052
3249.00,0.0052
3248.00,0.0052
3247.00,0.0052
3246.00,0.0052
3245.00,0.0052
3244.00,0.0052
3243.00,0.0052
3242.00,0.0051
3241.00,0.0051
3240.00,0.0051
3239.00,0.0050
3238.00,0.0050
3237.00,0.0051
3236.00,0.0051
3235.00,0.0051
3234.00,0.0051
3233.00,0.0051
3232.00,0.0051
3231.00,0.0051
3230.00,0.0052
3229.00,0.0052
3228.00,0.0052
3227.00,0.0052
3226.00,0.0051
3225.00,0.0051
3224.00,0.0051
3223.00,0.0051
3222.00,0.0051
3221.00,0.0052
3220.00,0.0052
3219.00,0.0052
3218.00,0.0053
3217.00,0.0053
3216.00,0.0053
3215.00,0.0053
3214.00,0.0053
3213.00,0.0053
3212.00,0.0053
3211.00,0.0054
3210.00,0.0054
3209.00,0.0054
3208.00,0.0054
3207.00,0.0053
3206.00,0.0053
3205.00,0.0053
3204.00,0.0053
3203.00,0.0054
3202.00,0.0054
3201.00,0.0054
3200.00,0.0054
3199.00,0.0054
3198.00,0.0054
3197.00,0.0054
3196.00,0.0054
3195.00,0.0054
3194.00,0.0054
3193.00,0.0054
3192.00,0.0054
3191.00,0.0054
3190.00,0.0054
3189.00,0.0053
3188.00,0.0053
3187.00,0.0053
3186.00,0.0053
3185.00,0.0053
3184.00,0.0053
3183.00,0.0053
3182.00,0.0053
3181.00,0.0053
3180.00,0.0052
3179.00,0.0052
3178.00,0.0052
3177.00,0.0052
3176.00,0.0051
3175.00,0.0051
3174.00,0.0051
3173.00,0.0051
3172.00,0.0051
3171.00,0.0050
3170.00,0.0050
3169.00,0.0050
3168.00,0.0049
3167.00,0.0049
3166.00,0.0049
3165.00,0.0050
3164.00,0.0050
3163.00,0.0050
3162.00,0.0050
3161.00,0.0050
3160.00,0.0050
3159.00,0.0050
3158.00,0.0050
3157.00,0.0050
3156.00,0.0049
3155.00,0.0049
3154.00,0.0049
3153.00,0.0049
3152.00,0.0049
3151.00,0.0050
3150.00,0.0050
3149.00,0.0050
3148.00,0.0049
3147.00,0.0049
3146.00,0.0048
3145.00,0.0048
3144.00,0.0048
3143.00,0.0048
3142.00,0.0048
3141.00,0.0048
3140.00,0.0047
3139.00,0.0047
3138.00,0.0047
3137.00,0.0046
3136.00,0.0046
3135.00,0.0046
3134.00,0.0046
3133.00,0.0046
3132.00,0.0045
3131.00,0.0045
3130.00,0.0045
3129.00,0.0044
3128.00,0.0044
3127.00,0.0044
3126.00,0.0044
3125.00,0.0044
3124.00,0.0044
3123.00,0.0043
3122.00,0.0043
3121.00,0.0043
3120.00,0.0043
3119.00,0.0043
3118.00,0.0042
3117.00,0.0042
3116.00,0.0042
3115.00,0.0041
3114.00,0.0041
3113.00,0.0041
3112.00,0.0040
3111.00,0.0040
3110.00,0.0040
3109.00,0.0041
3108.00,0.0041
3107.00,0.0041
3106.00,0.0041
3105.00,0.0041
3104.00,0.0041
3103.00,0.0040
3102.00,0.0040
3101.00,0.0039
3100.00,0.0039
3099.00,0.0039
3098.00,0.0039
3097.00,0.0039
3096.00,0.0040
3095.00,0.0040
3094.00,0.0040
3093.00,0.0040
3092.00,0.0040
3091.00,0.0040
3090.00,0.0039
3089.00,0.0039
3088.00,0.0039
3087.00,0.0039
3086.00,0.0039
3085.00,0.0039
3084.00,0.0039
3083.00,0.0038
3082.00,0.0038
3081.00,0.0038
3080.00,0.0038
3079.00,0.0038
3078.00,0.0038
3077.00,0.0038
3076.00,0.0039
3075.00,0.0039
3074.00,0.0039
3073.00,0.0039
3072.00,0.0039
3071.00,0.0040
3070.00,0.0040
3069.00,0.0040
3068.00,0.0040
3067.00,0.0040
3066.00,0.0040
3065.00,0.0041
3064.00,0.0041
3063.00,0.0041
3062.00,0.0041
3061.00,0.0041
3060.00,0.0041
3059.00,0.0041
3058.00,0.0040
3057.00,0.0041
3056.00,0.0041
3055.00,0.0041
3054.00,0.0041
3053.00,0.0042
3052.00,0.0042
3051.00,0.0043
3050.00,0.0043
3049.00,0.0042
3048.00,0.0042
3047.00,0.0042
3046.00,0.0043
3045.00,0.0043
3044.00,0.0043
3043.00,0.0044
3042.00,0.0044
3041.00,0.0044
3040.00,0.0044
3039.00,0.0045
3038.00,0.0045
3037.00,0.0046
3036.00,0.0046
3035.00,0.0045
3034.00,0.0045
3033.00,0.0045
3032.00,0.0046
3031.00,0.0046
3030.00,0.0046
3029.00,0.0047
3028.00,0.0047
3027.00,0.0048
3026.00,0.0049
3025.00,0.0049
3024.00,0.0049
3023.00,0.0049
3022.00,0.0050
3021.00,0.0050
3020.00,0.0051
3019.00,0.0051
3018.00,0.0051
3017.00,0.0051
3016.00,0.0051
3015.00,0.0051
3014.00,0.0051
3013.00,0.0051
3012.00,0.0051
3011.00,0.0050
3010.00,0.0050
3009.00,0.0049
3008.00,0.0049
3007.00,0.0048
3006.00,0.0047
3005.00,0.0046
3004.00,0.0045
3003.00,0.0044
3002.00,0.0044
3001.00,0.0044
3000.00,0.0044
2999.00,0.0045
2998.00,0.0046
2997.00,0.0048
2996.00,0.0051
2995.00,0.0053
2994.00,0.0056
2993.00,0.0059
2992.00,0.0063
2991.00,0.0067
2990.00,0.0073
2989.00,0.0078
2988.00,0.0084
2987.00,0.0090
2986.00,0.0096
2985.00,0.0100
2984.00,0.0104
2983.00,0.0110
2982.00,0.0121
2981.00,0.0137
2980.00,0.0160
2979.00,0.0187
2978.00,0.0216
2977.00,0.0249
2976.00,0.0284
2975.00,0.0322
2974.00,0.0364
2973.00,0.0412
2972.00,0.0468
2971.00,0.0532
2970.00,0.0605
2969.00,0.0687
2968.00,0.0776
2967.00,0.0872
2966.00,0.0974
2965.00,0.1080
2964.00,0.1188
2963.00,0.1292
2962.00,0.1387
2961.00,0.1468
2960.00,0.1533
2959.00,0.1582
2958.00,0.1616
2957.00,0.1643
2956.00,0.1667
2955.00,0.1692
2954.00,0.1720
2953.00,0.1749
2952.00,0.1771
2951.00,0.1778
2950.00,0.1762
2949.00,0.1719
2948.00,0.1648
2947.00,0.1554
2946.00,0.1446
2945.00,0.1336
2944.00,0.1235
2943.00,0.1149
2942.00,0.1082
2941.00,0.1037
2940.00,0.1014
2939.00,0.1009
2938.00,0.1023
2937.00,0.1053
2936.00,0.1097
2935.00,0.1153
2934.00,0.1221
2933.00,0.1300
2932.00,0.1387
2931.00,0.1482
2930.00,0.1582
2929.00,0.1683
2928.00,0.1783
2927.00,0.1880
2926.00,0.1973
2925.00,0.2061
2924.00,0.2146
2923.00,0.2227
2922.00,0.2305
2921.00,0.2376
2920.00,0.2436
2919.00,0.2479
2918.00,0.2496
2917.00,0.2483
2916.00,0.2440
2915.00,0.2373
2914.00,0.2290
2913.00,0.2201
2912.00,0.2115
2911.00,0.2038
2910.00,0.1971
2909.00,0.1912
2908.00,0.1858
2907.00,0.1807
2906.00,0.1754
2905.00,0.1699
2904.00,0.1642
2903.00,0.1582
2902.00,0.1521
2901.00,0.1459
2900.00,0.1399
2899.00,0.1341
2898.00,0.1285
2897.00,0.1234
2896.00,0.1187
2895.00,0.1145
2894.00,0.1109
2893.00,0.1078
2892.00,0.1053
2891.00,0.1034
2890.00,0.1019
2889.00,0.1008
2888.00,0.1001
2887.00,0.0997
2886.00,0.0996
2885.00,0.0998
2884.00,0.1004
2883.00,0.1014
2882.00,0.1028
2881.00,0.1044
2880.00,0.1060
2879.00,0.1072
2878.00,0.1080
2877.00,0.1081
2876.00,0.1078
2875.00,0.1072
2874.00,0.1069
2873.00,0.1070
2872.00,0.1077
2871.00,0.1090
2870.00,0.1106
2869.00,0.1120
2868.00,0.1128
2867.00,0.1122
2866.00,0.1100
2865.00,0.1060
2864.00,0.1008
2863.00,0.0948
2862.00,0.0891
2861.00,0.0841
2860.00,0.0805
2859.00,0.0782
2858.00,0.0772
2857.00,0.0773
2856.00,0.0783
2855.00,0.0799
2854.00,0.0820
2853.00,0.0843
2852.00,0.0866
2851.00,0.0886
2850.00,0.0901
2849.00,0.0909
2848.00,0.0914
2847.00,0.0922
2846.00,0.0936
2845.00,0.0961
2844.00,0.0998
2843.00,0.1043
2842.00,0.1091
2841.00,0.1137
2840.00,0.1173
2839.00,0.1190
2838.00,0.1183
2837.00,0.1148
2836.00,0.1084
2835.00,0.0998
2834.00,0.0899
2833.00,0.0797
2832.00,0.0700
2831.00,0.0614
2830.00,0.0541
2829.00,0.0481
2828.00,0.0432
2827.00,0.0393
2826.00,0.0360
2825.00,0.0334
2824.00,0.0311
2823.00,0.0292
2822.00,0.0275
2821.00,0.0261
2820.00,0.0248
2819.00,0.0237
2818.00,0.0227
2817.00,0.0218
2816.00,0.0211
2815.00,0.0204
2814.00,0.0198
2813.00,0.0193
2812.00,0.0187
2811.00,0.0182
2810.00,0.0177
2809.00,0.0173
2808.00,0.0167
2807.00,0.0162
2806.00,0.0156
2805.00,0.0149
2804.00,0.0143
2803.00,0.0138
2802.00,0.0133
2801.00,0.0128
2800.00,0.0125
2799.00,0.0122
2798.00,0.0119
2797.00,0.0117
2796.00,0.0115
2795.00,0.0112
2794.00,0.0110
2793.00,0.0107
2792.00,0.0104
2791.00,0.0101
2790.00,0.0097
2789.00,0.0094
2788.00,0.0091
2787.00,0.0088
2786.00,0.0085
2785.00,0.0082
2784.00,0.0080
2783.00,0.0077
2782.00,0.0075
2781.00,0.0074
2780.00,0.0072
2779.00,0.0071
2778.00,0.0070
2777.00,0.0069
2776.00,0.0067
2775.00,0.0066
2774.00,0.0064
2773.00,0.0063
2772.00,0.0063
2771.00,0.0062
2770.00,0.0062
2769.00,0.0062
2768.00,0.0061
2767.00,0.0061
2766.00,0.0061
2765.00,0.0060
2764.00,0.0060
2763.00,0.0059
2762.00,0.0059
2761.00,0.0059
2760.00,0.0058
2759.00,0.0058
2758.00,0.0058
2757.00,0.0058
2756.00,0.0058
2755.00,0.0058
2754.00,0.0058
2753.00,0.0058
2752.00,0.0058
2751.00,0.0057
2750.00,0.0057
2749.00,0.0057
2748.00,0.0058
2747.00,0.0058
2746.00,0.0058
2745.00,0.0059
2744.00,0.0059
2743.00,0.0059
2742.00,0.0060
2741.00,0.0060
2740.00,0.0061
2739.00,0.0063
2738.00,0.0064
2737.00,0.0065
2736.00,0.0067
2735.00,0.0068
2734.00,0.0070
2733.00,0.0071
2732.00,0.0072
2731.00,0.0073
2730.00,0.0075
2729.00,0.0077
2728.00,0.0080
2727.00,0.0082
2726.00,0.0085
2725.00,0.0087
2724.00,0.0088
2723.00,0.0089
2722.00,0.0088
2721.00,0.0087
2720.00,0.0084
2719.00,0.0081
2718.00,0.0079
2717.00,0.0076
2716.00,0.0073
2715.00,0.0071
2714.00,0.0069
2713.00,0.0067
2712.00,0.0065
2711.00,0.0064
2710.00,0.0062
2709.00,0.0061
2708.00,0.0059
2707.00,0.0058
2706.00,0.0057
2705.00,0.0057
2704.00,0.0056
2703.00,0.0055
2702.00,0.0055
2701.00,0.0054
2700.00,0.0053
2699.00,0.0053
2698.00,0.0052
2697.00,0.0052
2696.00,0.0051
2695.00,0.0051
2694.00,0.0051
2693.00,0.0051
2692.00,0.0052
2691.00,0.0052
2690.00,0.0052
2689.00,0.0052
2688.00,0.0052
2687.00,0.0051
2686.00,0.0051
2685.00,0.0051
2684.00,0.0050
2683.00,0.0051
2682.00,0.0051
2681.00,0.0051
2680.00,0.0051
2679.00,0.0051
2678.00,0.0051
2677.00,0.0051
2676.00,0.0051
2675.00,0.0050
2674.00,0.0050
2673.00,0.0050
2672.00,0.0050
2671.00,0.0049
2670.00,0.0049
2669.00,0.0049
2668.00,0.0049
2667.00,0.0050
2666.00,0.0050
2665.00,0.0051
2664.00,0.0051
2663.00,0.0052
2662.00,0.0052
2661.00,0.0052
2660.00,0.0053
2659.00,0.0053
2658.00,0.0053
2657.00,0.0053
2656.00,0.0052
2655.00,0.0052
2654.00,0.0051
2653.00,0.0051
2652.00,0.0050
2651.00,0.0049
2650.00,0.0049
2649.00,0.0048
2648.00,0.0048
2647.00,0.0047
2646.00,0.0047
2645.00,0.0047
2644.00,0.0046
2643.00,0.0046
2642.00,0.0045
2641.00,0.0045
2640.00,0.0044
2639.00,0.0044
2638.00,0.0043
2637.00,0.0043
2636.00,0.0044
2635.00,0.0044
2634.00,0.0044
2633.00,0.0043
2632.00,0.0043
2631.00,0.0042
2630.00,0.0043
2629.00,0.0043
2628.00,0.0043
2627.00,0.0044
2626.00,0.0044
2625.00,0.0045
2624.00,0.0045
2623.00,0.0044
2622.00,0.0044
2621.00,0.0045
2620.00,0.0045
2619.00,0.0045
2618.00,0.0046
2617.00,0.0045
2616.00,0.0045
2615.00,0.0045
2614.00,0.0045
2613.00,0.0045
2612.00,0.0045
2611.00,0.0044
2610.00,0.0043
2609.00,0.0042
2608.00,0.0041
2607.00,0.0040
2606.00,0.0040
2605.00,0.0039
2604.00,0.0039
2603.00,0.0039
2602.00,0.0038
2601.00,0.0038
2600.00,0.0037
2599.00,0.0037
2598.00,0.0037
2597.00,0.0037
2596.00,0.0036
2595.00,0.0036
2594.00,0.0036
2593.00,0.0036
2592.00,0.0037
2591.00,0.0038
2590.00,0.0039
2589.00,0.0039
2588.00,0.0040
2587.00,0.0040
2586.00,0.0041
2585.00,0.0042
2584.00,0.0042
2583.00,0.0042
2582.00,0.0042
2581.00,0.0041
2580.00,0.0040
2579.00,0.0040
2578.00,0.0039
2577.00,0.0039
2576.00,0.0038
2575.00,0.0037
2574.00,0.0036
2573.00,0.0035
2572.00,0.0034
2571.00,0.0034
2570.00,0.0033
2569.00,0.0033
2568.00,0.0032
2567.00,0.0031
2566.00,0.0030
2565.00,0.0030
2564.00,0.0029
2563.00,0.0029
2562.00,0.0028
2561.00,0.0028
2560.00,0.0028
2559.00,0.0027
2558.00,0.0027
2557.00,0.0028
2556.00,0.0027
2555.00,0.0027
2554.00,0.0027
2553.00,0.0026
2552.00,0.0026
2551.00,0.0026
2550.00,0.0025
2549.00,0.0025
2548.00,0.0025
2547.00,0.0024
2546.00,0.0024
2545.00,0.0024
2544.00,0.0024
2543.00,0.0024
2542.00,0.0024
2541.00,0.0024
2540.00,0.0025
2539.00,0.0025
2538.00,0.0025
2537.00,0.0025
2536.00,0.0024
2535.00,0.0023
2534.00,0.0023
2533.00,0.0022
2532.00,0.0022
2531.00,0.0021
2530.00,0.0020
2529.00,0.0020
2528.00,0.0019
2527.00,0.0019
2526.00,0.0019
2525.00,0.0020
2524.00,0.0020
2523.00,0.0020
2522.00,0.0020
2521.00,0.0020
2520.00,0.0020
2519.00,0.0019
2518.00,0.0019
2517.00,0.0018
2516.00,0.0018
2515.00,0.0018
2514.00,0.0018
2513.00,0.0018
2512.00,0.0018
2511.00,0.0018
2510.00,0.0017
2509.00,0.0017
2508.00,0.0017
2507.00,0.0017
2506.00,0.0017
2505.00,0.0018
2504.00,0.0018
2503.00,0.0018
2502.00,0.0017
2501.00,0.0016
2500.00,0.0016
2499.00,0.0016
2498.00,0.0016
2497.00,0.0017
2496.00,0.0018
2495.00,0.0018
2494.00,0.0018
2493.00,0.0017
2492.00,0.0016
2491.00,0.0016
2490.00,0.0016
2489.00,0.0017
2488.00,0.0017
2487.00,0.0017
2486.00,0.0016
2485.00,0.0016
2484.00,0.0016
2483.00,0.0016
2482.00,0.0016
2481.00,0.0016
2480.00,0.0015
2479.00,0.0015
2478.00,0.0015
2477.00,0.0015
2476.00,0.0016
2475.00,0.0016
2474.00,0.0016
2473.00,0.0016
2472.00,0.0015
2471.00,0.0015
2470.00,0.0016
2469.00,0.0016
2468.00,0.0016
2467.00,0.0016
2466.00,0.0015
2465.00,0.0015
2464.00,0.0015
2463.00,0.0014
2462.00,0.0014
2461.00,0.0014
2460.00,0.0015
2459.00,0.0016
2458.00,0.0016
2457.00,0.0016
2456.00,0.0016
2455.00,0.0016
2454.00,0.0016
2453.00,0.0016
2452.00,0.0016
2451.00,0.0016
2450.00,0.0016
2449.00,0.0016
2448.00,0.0016
2447.00,0.0017
2446.00,0.0017
2445.00,0.0017
2444.00,0.0017
2443.00,0.0016
2442.00,0.0016
2441.00,0.0016
2440.00,0.0016
2439.00,0.0016
2438.00,0.0017
2437.00,0.0017
2436.00,0.0018
2435.00,0.0018
2434.00,0.0019
2433.00,0.0018
2432.00,0.0018
2431.00,0.0017
2430.00,0.0017
2429.00,0.0017
2428.00,0.0017
2427.00,0.0018
2426.00,0.0018
2425.00,0.0017
2424.00,0.0016
2423.00,0.0015
2422.00,0.0015
2421.00,0.0015
2420.00,0.0015
2419.00,0.0015
2418.00,0.0014
2417.00,0.0015
2416.00,0.0015
2415.00,0.0016
2414.00,0.0017
2413.00,0.0017
2412.00,0.0017
2411.00,0.0018
2410.00,0.0018
2409.00,0.0017
2408.00,0.0016
2407.00,0.0015
2406.00,0.0015
2405.00,0.0014
2404.00,0.0014
2403.00,0.0014
2402.00,0.0014
2401.00,0.0014
2400.00,0.0014
2399.00,0.0014
2398.00,0.0014
2397.00,0.0014
2396.00,0.0014
2395.00,0.0014
2394.00,0.0015
2393.00,0.0015
2392.00,0.0015
2391.00,0.0015
2390.00,0.0015
2389.00,0.0015
2388.00,0.0015
2387.00,0.0015
2386.00,0.0014
2385.00,0.0013
2384.00,0.0012
2383.00,0.0011
2382.00,0.0010
2381.00,0.0009
2380.00,0.0009
2379.00,0.0008
2378.00,0.0007
2377.00,0.0007
2376.00,0.0007
2375.00,0.0007
2374.00,0.0008
2373.00,0.0009
2372.00,0.0009
2371.00,0.0009
2370.00,0.0009
2369.00,0.0008
2368.00,0.0008
2367.00,0.0008
2366.00,0.0008
2365.00,0.0008
2364.00,0.0008
2363.00,0.0008
2362.00,0.0008
2361.00,0.0008
2360.00,0.0009
2359.00,0.0009
2358.00,0.0009
2357.00,0.0009
2356.00,0.0009
2355.00,0.0009
2354.00,0.0009
2353.00,0.0009
2352.00,0.0009
2351.00,0.0009
2350.00,0.0009
2349.00,0.0010
2348.00,0.0010
2347.00,0.0010
2346.00,0.0010
2345.00,0.0010
2344.00,0.0011
2343.00,0.0012
2342.00,0.0012
2341.00,0.0012
2340.00,0.0012
2339.00,0.0013
2338.00,0.0013
2337.00,0.0013
2336.00,0.0013
2335.00,0.0013
2334.00,0.0012
2333.00,0.0012
2332.00,0.0012
2331.00,0.0012
2330.00,0.0012
2329.00,0.0013
2328.00,0.0015
2327.00,0.0018
2326.00,0.0022
2325.00,0.0025
2324.00,0.0026
2323.00,0.0025
2322.00,0.0023
2321.00,0.0022
2320.00,0.0021
2319.00,0.0021
2318.00,0.0020
2317.00,0.0019
2316.00,0.0018
2315.00,0.0018
2314.00,0.0017
2313.00,0.0017
2312.00,0.0017
2311.00,0.0017
2310.00,0.0017
2309.00,0.0016
2308.00,0.0016
2307.00,0.0017
2306.00,0.0017
2305.00,0.0017
2304.00,0.0017
2303.00,0.0017
2302.00,0.0017
2301.00,0.0018
2300.00,0.0018
2299.00,0.0018
2298.00,0.0018
2297.00,0.0019
2296.00,0.0020
2295.00,0.0021
2294.00,0.0022
2293.00,0.0022
2292.00,0.0023
2291.00,0.0023
2290.00,0.0023
2289.00,0.0024
2288.00,0.0024
2287.00,0.0024
2286.00,0.0024
2285.00,0.0023
2284.00,0.0023
2283.00,0.0023
2282.00,0.0022
2281.00,0.0022
2280.00,0.0022
2279.00,0.0021
2278.00,0.0020
2277.00,0.0019
2276.00,0.0019
2275.00,0.0019
2274.00,0.0019
2273.00,0.0019
2272.00,0.0019
2271.00,0.0019
2270.00,0.0019
2269.00,0.0019
2268.00,0.0020
2267.00,0.0020
2266.00,0.0019
2265.00,0.0018
2264.00,0.0018
2263.00,0.0017
2262.00,0.0017
2261.00,0.0017
2260.00,0.0017
2259.00,0.0018
2258.00,0.0018
2257.00,0.0017
2256.00,0.0016
2255.00,0.0014
2254.00,0.0012
2253.00,0.0012
2252.00,0.0013
2251.00,0.0014
2250.00,0.0014
2249.00,0.0013
2248.00,0.0013
2247.00,0.0013
2246.00,0.0013
2245.00,0.0014
2244.00,0.0013
2243.00,0.0013
2242.00,0.0013
2241.00,0.0014
2240.00,0.0015
2239.00,0.0015
2238.00,0.0014
2237.00,0.0014
2236.00,0.0013
2235.00,0.0013
2234.00,0.0012
2233.00,0.0012
2232.00,0.0012
2231.00,0.0013
2230.00,0.0014
2229.00,0.0014
2228.00,0.0015
2227.00,0.0016
2226.00,0.0016
2225.00,0.0016
2224.00,0.0015
2223.00,0.0015
2222.00,0.0015
2221.00,0.0014
2220.00,0.0014
2219.00,0.0013
2218.00,0.0012
2217.00,0.0012
2216.00,0.0012
2215.00,0.0013
2214.00,0.0014
2213.00,0.0014
2212.00,0.0014
2211.00,0.0015
2210.00,0.0015
2209.00,0.0016
2208.00,0.0015
2207.00,0.0013
2206.00,0.0012
2205.00,0.0011
2204.00,0.0012
2203.00,0.0013
2202.00,0.0014
2201.00,0.0014
2200.00,0.0014
2199.00,0.0012
2198.00,0.0010
2197.00,0.0010
2196.00,0.0011
2195.00,0.0013
2194.00,0.0015
2193.00,0.0016
2192.00,0.0018
2191.00,0.0020
2190.00,0.0021
2189.00,0.0021
2188.00,0.0020
2187.00,0.0019
2186.00,0.0017
2185.00,0.0016
2184.00,0.0015
2183.00,0.0014
2182.00,0.0011
2181.00,0.0009
2180.00,0.0008
2179.00,0.0008
2178.00,0.0009
2177.00,0.0009
2176.00,0.0008
2175.00,0.0005
2174.00,0.0005
2173.00,0.0006
2172.00,0.0009
2171.00,0.0011
2170.00,0.0013
2169.00,0.0015
2168.00,0.0017
2167.00,0.0017
2166.00,0.0016
2165.00,0.0016
2164.00,0.0016
2163.00,0.0017
2162.00,0.0016
2161.00,0.0012
2160.00,0.0003
2159.00,-0.0008
2158.00,-0.0015
2157.00,-0.0018
2156.00,-0.0019
2155.00,-0.0019
2154.00,-0.0019
2153.00,-0.0015
2152.00,-0.0011
2151.00,-0.0008
2150.00,-0.0006
2149.00,-0.0004
2148.00,-0.0003
2147.00,-0.0004
2146.00,-0.0006
2145.00,-0.0009
2144.00,-0.0011
2143.00,-0.0011
2142.00,-0.0009
2141.00,-0.0007
2140.00,-0.0005
2139.00,-0.0004
2138.00,-0.0005
2137.00,-0.0006
2136.00,-0.0007
2135.00,-0.0009
2134.00,-0.0010
2133.00,-0.0009
2132.00,-0.0007
2131.00,-0.0005
2130.00,-0.0004
2129.00,-0.0003
2128.00,-0.0001
2127.00,-0.0000
2126.00,0.0000
2125.00,0.0001
2124.00,0.0001
2123.00,0.0001
2122.00,0.0002
2121.00,0.0002
2120.00,0.0003
2119.00,0.0003
2118.00,0.0004
2117.00,0.0005
2116.00,0.0005
2115.00,0.0006
2114.00,0.0006
2113.00,0.0007
2112.00,0.0009
2111.00,0.0010
2110.00,0.0010
2109.00,0.0010
2108.00,0.0009
2107.00,0.0008
2106.00,0.0008
2105.00,0.0008
2104.00,0.0008
2103.00,0.0009
2102.00,0.0010
2101.00,0.0010
2100.00,0.0010
2099.00,0.0009
2098.00,0.0008
2097.00,0.0006
2096.00,0.0005
2095.00,0.0003
2094.00,0.0002
2093.00,0.0001
2092.00,0.0002
2091.00,0.0003
2090.00,0.0004
2089.00,0.0004
2088.00,0.0005
2087.00,0.0006
2086.00,0.0009
2085.00,0.0011
2084.00,0.0013
2083.00,0.0012
2082.00,0.0011
2081.00,0.0009
2080.00,0.0008
2079.00,0.0008
2078.00,0.0008
2077.00,0.0008
2076.00,0.0007
2075.00,0.0007
2074.00,0.0006
2073.00,0.0007
2072.00,0.0007
2071.00,0.0008
2070.00,0.0009
2069.00,0.0010
2068.00,0.0010
2067.00,0.0010
2066.00,0.0010
2065.00,0.0009
2064.00,0.0008
2063.00,0.0007
2062.00,0.0008
2061.00,0.0009
2060.00,0.0010
2059.00,0.0010
2058.00,0.0010
2057.00,0.0010
2056.00,0.0009
2055.00,0.0009
2054.00,0.0010
2053.00,0.0014
2052.00,0.0018
2051.00,0.0021
2050.00,0.0021
2049.00,0.0020
2048.00,0.0018
2047.00,0.0015
2046.00,0.0011
2045.00,0.0008
2044.00,0.0007
2043.00,0.0008
2042.00,0.0010
2041.00,0.0012
2040.00,0.0013
2039.00,0.0013
2038.00,0.0011
2037.00,0.0009
2036.00,0.0006
2035.00,0.0003
2034.00,0.0000
2033.00,-0.0001
2032.00,-0.0002
2031.00,-0.0001
2030.00,-0.0002
2029.00,-0.0003
2028.00,-0.0006
2027.00,-0.0009
2026.00,-0.0010
2025.00,-0.0010
2024.00,-0.0009
2023.00,-0.0006
2022.00,-0.0003
2021.00,-0.0002
2020.00,-0.0001
2019.00,-0.0002
2018.00,-0.0002
2017.00,-0.0003
2016.00,-0.0003
2015.00,-0.0005
2014.00,-0.0007
2013.00,-0.0007
2012.00,-0.0007
2011.00,-0.0006
2010.00,-0.0005
2009.00,-0.0003
2008.00,-0.0002
2007.00,-0.0002
2006.00,-0.0004
2005.00,-0.0006
2004.00,-0.0008
2003.00,-0.0010
2002.00,-0.0011
2001.00,-0.0009
2000.00,-0.0006
1999.00,-0.0003
1998.00,-0.0002
1997.00,-0.0002
1996.00,-0.0003
1995.00,-0.0004
1994.00,-0.0004
1993.00,-0.0002
1992.00,-0.0000
1991.00,0.0002
1990.00,0.0003
1989.00,0.0005
1988.00,0.0006
1987.00,0.0007
1986.00,0.0007
1985.00,0.0006
1984.00,0.0005
1983.00,0.0004
1982.00,0.0005
1981.00,0.0009
1980.00,0.0013
1979.00,0.0013
1978.00,0.0009
1977.00,0.0005
1976.00,0.0002
1975.00,-0.0001
1974.00,-0.0003
1973.00,-0.0005
1972.00,-0.0007
1971.00,-0.0008
1970.00,-0.0010
1969.00,-0.0010
1968.00,-0.0010
1967.00,-0.0009
1966.00,-0.0008
1965.00,-0.0008
1964.00,-0.0008
1963.00,-0.0010
1962.00,-0.0012
1961.00,-0.0013
1960.00,-0.0014
1959.00,-0.0014
1958.00,-0.0014
1957.00,-0.0012
1956.00,-0.0010
1955.00,-0.0008
1954.00,-0.0008
1953.00,-0.0010
1952.00,-0.0010
1951.00,-0.0011
1950.00,-0.0010
1949.00,-0.0010
1948.00,-0.0009
1947.00,-0.0009
1946.00,-0.0008
1945.00,-0.0007
1944.00,-0.0006
1943.00,-0.0007
1942.00,-0.0007
1941.00,-0.0007
1940.00,-0.0006
1939.00,-0.0005
1938.00,-0.0005
1937.00,-0.0005
1936.00,-0.0005
1935.00,-0.0004
1934.00,-0.0002
1933.00,-0.0001
1932.00,-0.0002
1931.00,-0.0004
1930.00,-0.0005
1929.00,-0.0006
1928.00,-0.0006
1927.00,-0.0006
1926.00,-0.0005
1925.00,-0.0005
1924.00,-0.0003
1923.00,-0.0001
1922.00,0.0000
1921.00,0.0001
1920.00,0.0001
1919.00,0.0001
1918.00,0.0000
1917.00,0.0001
1916.00,0.0002
1915.00,0.0003
1914.00,0.0003
1913.00,0.0003
1912.00,0.0003
1911.00,0.0003
1910.00,0.0002
1909.00,0.0002
1908.00,0.0002
1907.00,0.0001
1906.00,0.0001
1905.00,0.0001
1904.00,0.0001
1903.00,0.0001
1902.00,0.0002
1901.00,0.0002
1900.00,0.0001
1899.00,0.0001
1898.00,0.0001
1897.00,0.0001
1896.00,0.0001
1895.00,0.0002
1894.00,0.0003
1893.00,0.0003
1892.00,0.0004
1891.00,0.0004
1890.00,0.0004
1889.00,0.0005
1888.00,0.0005
1887.00,0.0005
1886.00,0.0004
1885.00,0.0004
1884.00,0.0005
1883.00,0.0005
1882.00,0.0006
1881.00,0.0006
1880.00,0.0006
1879.00,0.0006
1878.00,0.0005
1877.00,0.0005
1876.00,0.0005
1875.00,0.0005
1874.00,0.0005
1873.00,0.0005
1872.00,0.0005
1871.00,0.0005
1870.00,0.0005
1869.00,0.0006
1868.00,0.0006
1867.00,0.0006
1866.00,0.0006
1865.00,0.0006
1864.00,0.0006
1863.00,0.0006
1862.00,0.0006
1861.00,0.0006
1860.00,0.0007
1859.00,0.0007
1858.00,0.0007
1857.00,0.0006
1856.00,0.0005
1855.00,0.0005
1854.00,0.0005
1853.00,0.0006
1852.00,0.0007
1851.00,0.0006
1850.00,0.0006
1849.00,0.0006
1848.00,0.0006
1847.00,0.0006
1846.00,0.0006
1845.00,0.0007
1844.00,0.0008
1843.00,0.0008
1842.00,0.0007
1841.00,0.0008
1840.00,0.0008
1839.00,0.0008
1838.00,0.0008
1837.00,0.0007
1836.00,0.0007
1835.00,0.0007
1834.00,0.0007
1833.00,0.0007
1832.00,0.0008
1831.00,0.0008
1830.00,0.0009
1829.00,0.0010
1828.00,0.0010
1827.00,0.0009
1826.00,0.0008
1825.00,0.0007
1824.00,0.0007
1823.00,0.0007
1822.00,0.0007
1821.00,0.0007
1820.00,0.0006
1819.00,0.0005
1818.00,0.0005
1817.00,0.0005
1816.00,0.0005
1815.00,0.0006
1814.00,0.0006
1813.00,0.0007
1812.00,0.0007
1811.00,0.0008
1810.00,0.0008
1809.00,0.0008
1808.00,0.0008
1807.00,0.0008
1806.00,0.0008
1805.00,0.0009
1804.00,0.0009
1803.00,0.0010
1802.00,0.0010
1801.00,0.0011
1800.00,0.0011
1799.00,0.0011
1798.00,0.0011
1797.00,0.0011
1796.00,0.0011
1795.00,0.0011
1794.00,0.0010
1793.00,0.0011
1792.00,0.0012
1791.00,0.0012
1790.00,0.0012
1789.00,0.0012
1788.00,0.0012
1787.00,0.0012
1786.00,0.0012
1785.00,0.0012
1784.00,0.0012
1783.00,0.0012
1782.00,0.0013
1781.00,0.0013
1780.00,0.0014
1779.00,0.0014
1778.00,0.0013
1777.00,0.0013
1776.00,0.0013
1775.00,0.0012
1774.00,0.0012
1773.00,0.0012
1772.00,0.0013
1771.00,0.0014
1770.00,0.0014
1769.00,0.0015
1768.00,0.0015
1767.00,0.0015
1766.00,0.0015
1765.00,0.0015
1764.00,0.0014
1763.00,0.0015
1762.00,0.0015
1761.00,0.0016
1760.00,0.0017
1759.00,0.0018
1758.00,0.0018
1757.00,0.0019
1756.00,0.0019
1755.00,0.0019
1754.00,0.0019
1753.00,0.0020
1752.00,0.0020
1751.00,0.0021
1750.00,0.0022
1749.00,0.0022
1748.00,0.0023
1747.00,0.0025
1746.00,0.0026
1745.00,0.0028
1744.00,0.0029
1743.00,0.0029
1742.00,0.0030
1741.00,0.0030
1740.00,0.0030
1739.00,0.0031
1738.00,0.0031
1737.00,0.0032
1736.00,0.0033
1735.00,0.0033
1734.00,0.0033
1733.00,0.0033
1732.00,0.0033
1731.00,0.0033
1730.00,0.0034
1729.00,0.0034
1728.00,0.0034
1727.00,0.0034
1726.00,0.0034
1725.00,0.0035
1724.00,0.0035
1723.00,0.0034
1722.00,0.0034
1721.00,0.0033
1720.00,0.0033
1719.00,0.0033
1718.00,0.0032
1717.00,0.0032
1716.00,0.0031
1715.00,0.0031
1714.00,0.0030
1713.00,0.0030
1712.00,0.0030
1711.00,0.0031
1710.00,0.0031
1709.00,0.0032
1708.00,0.0032
1707.00,0.0032
1706.00,0.0032
1705.00,0.0032
1704.00,0.0032
1703.00,0.0032
1702.00,0.0033
1701.00,0.0033
1700.00,0.0034
1699.00,0.0035
1698.00,0.0035
1697.00,0.0036
1696.00,0.0038
1695.00,0.0039
1694.00,0.0040
1693.00,0.0040
1692.00,0.0041
1691.00,0.0041
1690.00,0.0042
1689.00,0.0042
1688.00,0.0043
1687.00,0.0044
1686.00,0.0045
1685.00,0.0046
1684.00,0.0047
1683.00,0.0048
1682.00,0.0048
1681.00,0.0050
1680.00,0.0051
1679.00,0.0052
1678.00,0.0053
1677.00,0.0054
1676.00,0.0055
1675.00,0.0056
1674.00,0.0057
1673.00,0.0058
1672.00,0.0059
1671.00,0.0059
1670.00,0.0060
1669.00,0.0061
1668.00,0.0062
1667.00,0.0063
1666.00,0.0063
1665.00,0.0064
1664.00,0.0065
1663.00,0.0065
1662.00,0.0066
1661.00,0.0067
1660.00,0.0068
1659.00,0.0069
1658.00,0.0069
1657.00,0.0070
1656.00,0.0071
1655.00,0.0071
1654.00,0.0072
1653.00,0.0073
1652.00,0.0074
1651.00,0.0075
1650.00,0.0075
1649.00,0.0076
1648.00,0.0077
1647.00,0.0078
1646.00,0.0079
1645.00,0.0080
1644.00,0.0080
1643.00,0.0080
1642.00,0.0080
1641.00,0.0081
1640.00,0.0082
1639.00,0.0083
1638.00,0.0083
1637.00,0.0084
1636.00,0.0084
1635.00,0.0084
1634.00,0.0084
1633.00,0.0084
1632.00,0.0083
1631.00,0.0083
1630.00,0.0082
1629.00,0.0081
1628.00,0.0081
1627.00,0.0081
1626.00,0.0081
1625.00,0.0080
1624.00,0.0080
1623.00,0.0079
1622.00,0.0079
1621.00,0.0078
1620.00,0.0077
1619.00,0.0077
1618.00,0.0076
1617.00,0.0076
1616.00,0.0076
1615.00,0.0076
1614.00,0.0077
1613.00,0.0077
1612.00,0.0076
1611.00,0.0076
1610.00,0.0076
1609.00,0.0076
1608.00,0.0077
1607.00,0.0077
1606.00,0.0077
1605.00,0.0077
1604.00,0.0077
1603.00,0.0077
1602.00,0.0077
1601.00,0.0078
1600.00,0.0078
1599.00,0.0077
1598.00,0.0077
1597.00,0.0077
1596.00,0.0077
1595.00,0.0077
1594.00,0.0077
1593.00,0.0078
1592.00,0.0079
1591.00,0.0080
1590.00,0.0082
1589.00,0.0083
1588.00,0.0085
1587.00,0.0088
1586.00,0.0091
1585.00,0.0095
1584.00,0.0099
1583.00,0.0103
1582.00,0.0107
1581.00,0.0112
1580.00,0.0117
1579.00,0.0120
1578.00,0.0123
1577.00,0.0124
1576.00,0.0123
1575.00,0.0121
1574.00,0.0119
1573.00,0.0117
1572.00,0.0114
1571.00,0.0110
1570.00,0.0106
1569.00,0.0102
1568.00,0.0099
1567.00,0.0097
1566.00,0.0096
1565.00,0.0095
1564.00,0.0095
1563.00,0.0095
1562.00,0.0095
1561.00,0.0096
1560.00,0.0095
1559.00,0.0093
1558.00,0.0093
1557.00,0.0095
1556.00,0.0097
1555.00,0.0099
1554.00,0.0100
1553.00,0.0102
1552.00,0.0103
1551.00,0.0105
1550.00,0.0108
1549.00,0.0112
1548.00,0.0115
1547.00,0.0119
1546.00,0.0123
1545.00,0.0128
1544.00,0.0133
1543.00,0.0137
1542.00,0.0139
1541.00,0.0139
1540.00,0.0137
1539.00,0.0132
1538.00,0.0127
1537.00,0.0122
1536.00,0.0117
1535.00,0.0111
1534.00,0.0104
1533.00,0.0097
1532.00,0.0092
1531.00,0.0089
1530.00,0.0085
1529.00,0.0083
1528.00,0.0081
1527.00,0.0079
1526.00,0.0078
1525.00,0.0077
1524.00,0.0076
1523.00,0.0075
1522.00,0.0075
1521.00,0.0075
1520.00,0.0076
1519.00,0.0076
1518.00,0.0076
1517.00,0.0076
1516.00,0.0076
1515.00,0.0076
1514.00,0.0075
1513.00,0.0075
1512.00,0.0076
1511.00,0.0076
1510.00,0.0076
1509.00,0.0076
1508.00,0.0076
1507.00,0.0075
1506.00,0.0076
1505.00,0.0078
1504.00,0.0080
1503.00,0.0081
1502.00,0.0083
1501.00,0.0084
1500.00,0.0087
1499.00,0.0089
1498.00,0.0090
1497.00,0.0094
1496.00,0.0098
1495.00,0.0101
1494.00,0.0103
1493.00,0.0106
1492.00,0.0110
1491.00,0.0114
1490.00,0.0118
1489.00,0.0123
1488.00,0.0129
1487.00,0.0135
1486.00,0.0142
1485.00,0.0150
1484.00,0.0159
1483.00,0.0168
1482.00,0.0179
1481.00,0.0192
1480.00,0.0206
1479.00,0.0220
1478.00,0.0236
1477.00,0.0257
1476.00,0.0282
1475.00,0.0309
1474.00,0.0347
1473.00,0.0400
1472.00,0.0464
1471.00,0.0526
1470.00,0.0585
1469.00,0.0647
1468.00,0.0712
1467.00,0.0783
1466.00,0.0861
1465.00,0.0945
1464.00,0.1018
1463.00,0.1069
1462.00,0.1103
1461.00,0.1127
1460.00,0.1143
1459.00,0.1155
1458.00,0.1166
1457.00,0.1177
1456.00,0.1181
1455.00,0.1177
1454.00,0.1168
1453.00,0.1154
1452.00,0.1130
1451.00,0.1096
1450.00,0.1049
1449.00,0.0983
1448.00,0.0898
1447.00,0.0807
1446.00,0.0724
1445.00,0.0652
1444.00,0.0590
1443.00,0.0538
1442.00,0.0498
1441.00,0.0470
1440.00,0.0452
1439.00,0.0444
1438.00,0.0441
1437.00,0.0439
1436.00,0.0427
1435.00,0.0404
1434.00,0.0372
1433.00,0.0333
1432.00,0.0292
1431.00,0.0255
1430.00,0.0226
1429.00,0.0204
1428.00,0.0189
1427.00,0.0180
1426.00,0.0174
1425.00,0.0169
1424.00,0.0163
1423.00,0.0159
1422.00,0.0157
1421.00,0.0154
1420.00,0.0151
1419.00,0.0148
1418.00,0.0145
1417.00,0.0142
1416.00,0.0139
1415.00,0.0136
1414.00,0.0134
1413.00,0.0132
1412.00,0.0129
1411.00,0.0127
1410.00,0.0126
1409.00,0.0124
1408.00,0.0122
1407.00,0.0121
1406.00,0.0120
1405.00,0.0118
1404.00,0.0115
1403.00,0.0114
1402.00,0.0113
1401.00,0.0113
1400.00,0.0111
1399.00,0.0111
1398.00,0.0112
1397.00,0.0112
1396.00,0.0113
1395.00,0.0115
1394.00,0.0119
1393.00,0.0123
1392.00,0.0128
1391.00,0.0135
1390.00,0.0145
1389.00,0.0158
1388.00,0.0178
1387.00,0.0208
1386.00,0.0249
1385.00,0.0304
1384.00,0.0379
1383.00,0.0483
1382.00,0.0622
1381.00,0.0798
1380.00,0.1010
1379.00,0.1242
1378.00,0.1456
1377.00,0.1602
1376.00,0.1638
1375.00,0.1543
1374.00,0.1346
1373.00,0.1117
1372.00,0.0909
1371.00,0.0739
1370.00,0.0604
1369.00,0.0501
1368.00,0.0429
1367.00,0.0385
1366.00,0.0360
1365.00,0.0350
1364.00,0.0351
1363.00,0.0362
1362.00,0.0379
1361.00,0.0397
1360.00,0.0411
1359.00,0.0415
1358.00,0.0406
1357.00,0.0386
1356.00,0.0356
1355.00,0.0323
1354.00,0.0291
1353.00,0.0263
1352.00,0.0241
1351.00,0.0222
1350.00,0.0206
1349.00,0.0193
1348.00,0.0182
1347.00,0.0173
1346.00,0.0166
1345.00,0.0159
1344.00,0.0153
1343.00,0.0149
1342.00,0.0145
1341.00,0.0141
1340.00,0.0139
1339.00,0.0137
1338.00,0.0136
1337.00,0.0136
1336.00,0.0136
1335.00,0.0137
1334.00,0.0140
1333.00,0.0143
1332.00,0.0146
1331.00,0.0149
1330.00,0.0150
1329.00,0.0149
1328.00,0.0147
1327.00,0.0143
1326.00,0.0138
1325.00,0.0133
1324.00,0.0128
1323.00,0.0123
1322.00,0.0120
1321.00,0.0117
1320.00,0.0115
1319.00,0.0113
1318.00,0.0111
1317.00,0.0110
1316.00,0.0108
1315.00,0.0107
1314.00,0.0107
1313.00,0.0107
1312.00,0.0108
1311.00,0.0111
1310.00,0.0116
1309.00,0.0123
1308.00,0.0133
1307.00,0.0146
1306.00,0.0159
1305.00,0.0167
1304.00,0.0169
1303.00,0.0165
1302.00,0.0158
1301.00,0.0151
1300.00,0.0146
1299.00,0.0144
1298.00,0.0142
1297.00,0.0141
1296.00,0.0139
1295.00,0.0136
1294.00,0.0132
1293.00,0.0127
1292.00,0.0123
1291.00,0.0118
1290.00,0.0114
1289.00,0.0110
1288.00,0.0107
1287.00,0.0104
1286.00,0.0102
1285.00,0.0100
1284.00,0.0098
1283.00,0.0097
1282.00,0.0096
1281.00,0.0094
1280.00,0.0092
1279.00,0.0091
1278.00,0.0090
1277.00,0.0089
1276.00,0.0089
1275.00,0.0088
1274.00,0.0087
1273.00,0.0086
1272.00,0.0086
1271.00,0.0086
1270.00,0.0086
1269.00,0.0087
1268.00,0.0088
1267.00,0.0090
1266.00,0.0092
1265.00,0.0094
1264.00,0.0096
1263.00,0.0100
1262.00,0.0104
1261.00,0.0108
1260.00,0.0115
1259.00,0.0122
1258.00,0.0130
1257.00,0.0136
1256.00,0.0139
1255.00,0.0136
1254.00,0.0129
1253.00,0.0119
1252.00,0.0109
1251.00,0.0102
1250.00,0.0096
1249.00,0.0092
1248.00,0.0090
1247.00,0.0088
1246.00,0.0086
1245.00,0.0084
1244.00,0.0082
1243.00,0.0081
1242.00,0.0081
1241.00,0.0080
1240.00,0.0080
1239.00,0.0080
1238.00,0.0080
1237.00,0.0080
1236.00,0.0081
1235.00,0.0081
1234.00,0.0083
1233.00,0.0084
1232.00,0.0086
1231.00,0.0088
1230.00,0.0090
1229.00,0.0091
1228.00,0.0093
1227.00,0.0095
1226.00,0.0098
1225.00,0.0100
1224.00,0.0104
1223.00,0.0108
1222.00,0.0112
1221.00,0.0115
1220.00,0.0117
1219.00,0.0118
1218.00,0.0117
1217.00,0.0116
1216.00,0.0114
1215.00,0.0111
1214.00,0.0108
1213.00,0.0106
1212.00,0.0104
1211.00,0.0102
1210.00,0.0101
1209.00,0.0100
1208.00,0.0099
1207.00,0.0098
1206.00,0.0097
1205.00,0.0097
1204.00,0.0097
1203.00,0.0097
1202.00,0.0097
1201.00,0.0096
1200.00,0.0096
1199.00,0.0096
1198.00,0.0097
1197.00,0.0098
1196.00,0.0098
1195.00,0.0099
1194.00,0.0099
1193.00,0.0098
1192.00,0.0098
1191.00,0.0097
1190.00,0.0096
1189.00,0.0095
1188.00,0.0095
1187.00,0.0095
1186.00,0.0094
1185.00,0.0094
1184.00,0.0095
1183.00,0.0095
1182.00,0.0097
1181.00,0.0098
1180.00,0.0101
1179.00,0.0105
1178.00,0.0112
1177.00,0.0121
1176.00,0.0134
1175.00,0.0150
1174.00,0.0172
1173.00,0.0200
1172.00,0.0232
1171.00,0.0268
1170.00,0.0303
1169.00,0.0331
1168.00,0.0348
1167.00,0.0351
1166.00,0.0341
1165.00,0.0322
1164.00,0.0298
1163.00,0.0276
1162.00,0.0257
1161.00,0.0241
1160.00,0.0228
1159.00,0.0218
1158.00,0.0210
1157.00,0.0204
1156.00,0.0199
1155.00,0.0195
1154.00,0.0192
1153.00,0.0189
1152.00,0.0184
1151.00,0.0178
1150.00,0.0170
1149.00,0.0161
1148.00,0.0152
1147.00,0.0143
1146.00,0.0135
1145.00,0.0128
1144.00,0.0122
1143.00,0.0116
1142.00,0.0110
1141.00,0.0106
1140.00,0.0102
1139.00,0.0097
1138.00,0.0094
1137.00,0.0090
1136.00,0.0088
1135.00,0.0087
1134.00,0.0087
1133.00,0.0086
1132.00,0.0086
1131.00,0.0087
1130.00,0.0087
1129.00,0.0089
1128.00,0.0090
1127.00,0.0092
1126.00,0.0093
1125.00,0.0095
1124.00,0.0096
1123.00,0.0097
1122.00,0.0098
1121.00,0.0099
1120.00,0.0100
1119.00,0.0100
1118.00,0.0101
1117.00,0.0103
1116.00,0.0105
1115.00,0.0107
1114.00,0.0109
1113.00,0.0110
1112.00,0.0112
1111.00,0.0114
1110.00,0.0116
1109.00,0.0120
1108.00,0.0123
1107.00,0.0128
1106.00,0.0133
1105.00,0.0138
1104.00,0.0141
1103.00,0.0143
1102.00,0.0142
1101.00,0.0138
1100.00,0.0133
1099.00,0.0127
1098.00,0.0122
1097.00,0.0118
1096.00,0.0114
1095.00,0.0109
1094.00,0.0105
1093.00,0.0101
1092.00,0.0097
1091.00,0.0094
1090.00,0.0092
1089.00,0.0090
1088.00,0.0089
1087.00,0.0088
1086.00,0.0088
1085.00,0.0087
1084.00,0.0087
1083.00,0.0086
1082.00,0.0084
1081.00,0.0083
1080.00,0.0081
1079.00,0.0080
1078.00,0.0080
1077.00,0.0079
1076.00,0.0079
1075.00,0.0079
1074.00,0.0078
1073.00,0.0077
1072.00,0.0076
1071.00,0.0076
1070.00,0.0076
1069.00,0.0077
1068.00,0.0078
1067.00,0.0078
1066.00,0.0079
1065.00,0.0081
1064.00,0.0083
1063.00,0.0085
1062.00,0.0086
1061.00,0.0087
1060.00,0.0087
1059.00,0.0088
1058.00,0.0089
1057.00,0.0091
1056.00,0.0093
1055.00,0.0094
1054.00,0.0097
1053.00,0.0100
1052.00,0.0105
1051.00,0.0111
1050.00,0.0116
1049.00,0.0121
1048.00,0.0127
1047.00,0.0133
1046.00,0.0138
1045.00,0.0141
1044.00,0.0143
1043.00,0.0143
1042.00,0.0140
1041.00,0.0138
1040.00,0.0136
1039.00,0.0136
1038.00,0.0137
1037.00,0.0138
1036.00,0.0138
1035.00,0.0138
1034.00,0.0137
1033.00,0.0136
1032.00,0.0134
1031.00,0.0132
1030.00,0.0131
1029.00,0.0131
1028.00,0.0131
1027.00,0.0132
1026.00,0.0132
1025.00,0.0133
1024.00,0.0135
1023.00,0.0137
1022.00,0.0139
1021.00,0.0142
1020.00,0.0144
1019.00,0.0146
1018.00,0.0148
1017.00,0.0150
1016.00,0.0151
1015.00,0.0153
1014.00,0.0154
1013.00,0.0156
1012.00,0.0157
1011.00,0.0158
1010.00,0.0159
1009.00,0.0160
1008.00,0.0162
1007.00,0.0166
1006.00,0.0173
1005.00,0.0184
1004.00,0.0201
1003.00,0.0226
1002.00,0.0261
1001.00,0.0304
1000.00,0.0352
999.00,0.0394
998.00,0.0416
997.00,0.0411
996.00,0.0381
995.00,0.0334
994.00,0.0285
993.00,0.0241
992.00,0.0207
991.00,0.0183
990.00,0.0166
989.00,0.0154
988.00,0.0146
987.00,0.0140
986.00,0.0137
985.00,0.0137
984.00,0.0139
983.00,0.0146
982.00,0.0157
981.00,0.0173
980.00,0.0195
979.00,0.0225
978.00,0.0264
977.00,0.0310
976.00,0.0361
975.00,0.0411
974.00,0.0449
973.00,0.0464
972.00,0.0449
971.00,0.0405
970.00,0.0343
969.00,0.0279
968.00,0.0225
967.00,0.0184
966.00,0.0156
965.00,0.0135
964.00,0.0120
963.00,0.0109
962.00,0.0100
961.00,0.0093
960.00,0.0087
959.00,0.0082
958.00,0.0077
957.00,0.0073
956.00,0.0070
955.00,0.0067
954.00,0.0065
953.00,0.0064
952.00,0.0064
951.00,0.0064
950.00,0.0065
949.00,0.0065
948.00,0.0065
947.00,0.0065
946.00,0.0066
945.00,0.0068
944.00,0.0072
943.00,0.0075
942.00,0.0078
941.00,0.0079
940.00,0.0079
939.00,0.0078
938.00,0.0075
937.00,0.0071
936.00,0.0068
935.00,0.0065
934.00,0.0063
933.00,0.0063
932.00,0.0063
931.00,0.0064
930.00,0.0064
929.00,0.0065
928.00,0.0066
927.00,0.0067
926.00,0.0067
925.00,0.0067
924.00,0.0066
923.00,0.0065
922.00,0.0065
921.00,0.0065
920.00,0.0066
919.00,0.0067
918.00,0.0068
917.00,0.0069
916.00,0.0070
915.00,0.0071
914.00,0.0072
913.00,0.0073
912.00,0.0074
911.00,0.0075
910.00,0.0076
909.00,0.0079
908.00,0.0082
907.00,0.0086
906.00,0.0092
905.00,0.0101
904.00,0.0113
903.00,0.0128
902.00,0.0145
901.00,0.0160
900.00,0.0169
899.00,0.0170
898.00,0.0163
897.00,0.0150
896.00,0.0135
895.00,0.0122
894.00,0.0110
893.00,0.0102
892.00,0.0096
891.00,0.0091
890.00,0.0087
889.00,0.0085
888.00,0.0083
887.00,0.0082
886.00,0.0081
885.00,0.0080
884.00,0.0079
883.00,0.0078
882.00,0.0079
881.00,0.0080
880.00,0.0082
879.00,0.0083
878.00,0.0082
877.00,0.0082
876.00,0.0082
875.00,0.0083
874.00,0.0083
873.00,0.0083
872.00,0.0083
871.00,0.0083
870.00,0.0083
869.00,0.0083
868.00,0.0084
867.00,0.0084
866.00,0.0085
865.00,0.0086
864.00,0.0088
863.00,0.0089
862.00,0.0090
861.00,0.0091
860.00,0.0092
859.00,0.0093
858.00,0.0094
857.00,0.0095
856.00,0.0096
855.00,0.0100
854.00,0.0104
853.00,0.0109
852.00,0.0113
851.00,0.0118
850.00,0.0123
849.00,0.0129
848.00,0.0138
847.00,0.0153
846.00,0.0179
845.00,0.0218
844.00,0.0275
843.00,0.0340
842.00,0.0394
841.00,0.0413
840.00,0.0385
839.00,0.0326
838.00,0.0261
837.00,0.0208
836.00,0.0173
835.00,0.0152
834.00,0.0138
833.00,0.0130
832.00,0.0124
831.00,0.0119
830.00,0.0116
829.00,0.0113
828.00,0.0110
827.00,0.0107
826.00,0.0104
825.00,0.0101
824.00,0.0099
823.00,0.0099
822.00,0.0099
821.00,0.0101
820.00,0.0103
819.00,0.0105
818.00,0.0109
817.00,0.0115
816.00,0.0123
815.00,0.0134
814.00,0.0147
813.00,0.0162
812.00,0.0178
811.00,0.0193
810.00,0.0202
809.00,0.0205
808.00,0.0200
807.00,0.0189
806.00,0.0175
805.00,0.0161
804.00,0.0147
803.00,0.0136
802.00,0.0128
801.00,0.0121
800.00,0.0116
799.00,0.0112
798.00,0.0108
797.00,0.0105
796.00,0.0103
795.00,0.0100
794.00,0.0098
793.00,0.0095
792.00,0.0091
791.00,0.0087
790.00,0.0085
789.00,0.0083
788.00,0.0082
787.00,0.0081
786.00,0.0080
785.00,0.0078
784.00,0.0077
783.00,0.0077
782.00,0.0077
781.00,0.0076
780.00,0.0075
779.00,0.0074
778.00,0.0072
777.00,0.0072
776.00,0.0072
775.00,0.0072
774.00,0.0073
773.00,0.0074
772.00,0.0074
771.00,0.0073
770.00,0.0073
769.00,0.0073
768.00,0.0073
767.00,0.0074
766.00,0.0074
765.00,0.0074
764.00,0.0073
763.00,0.0072
762.00,0.0073
761.00,0.0075
760.00,0.0077
759.00,0.0078
758.00,0.0077
757.00,0.0077
756.00,0.0078
755.00,0.0079
754.00,0.0081
753.00,0.0083
752.00,0.0085
751.00,0.0088
750.00,0.0089
749.00,0.0090
748.00,0.0090
747.00,0.0091
746.00,0.0092
745.00,0.0094
744.00,0.0097
743.00,0.0100
742.00,0.0102
741.00,0.0105
740.00,0.0109
739.00,0.0114
738.00,0.0119
737.00,0.0123
736.00,0.0127
735.00,0.0130
734.00,0.0134
733.00,0.0140
732.00,0.0146
731.00,0.0153
730.00,0.0159
729.00,0.0162
728.00,0.0165
727.00,0.0166
726.00,0.0167
725.00,0.0169
724.00,0.0172
723.00,0.0178
722.00,0.0184
721.00,0.0188
720.00,0.0187
719.00,0.0180
718.00,0.0168
717.00,0.0154
716.00,0.0142
715.00,0.0132
714.00,0.0126
713.00,0.0123
712.00,0.0121
711.00,0.0120
710.00,0.0120
709.00,0.0120
708.00,0.0118
707.00,0.0116
706.00,0.0114
705.00,0.0112
704.00,0.0111
703.00,0.0111
702.00,0.0110
701.00,0.0109
700.00,0.0107
699.00,0.0106
698.00,0.0104
697.00,0.0103
696.00,0.0101
695.00,0.0100
694.00,0.0100
693.00,0.0101
692.00,0.0103
691.00,0.0105
690.00,0.0104
689.00,0.0102
688.00,0.0099
687.00,0.0098
686.00,0.0099
685.00,0.0100
684.00,0.0101
683.00,0.0101
682.00,0.0101
681.00,0.0101
680.00,0.0100
679.00,0.0099
678.00,0.0100
677.00,0.0102
676.00,0.0105
675.00,0.0107
674.00,0.0109
673.00,0.0110
672.00,0.0111
671.00,0.0113
670.00,0.0116
669.00,0.0116
668.00,0.0114
667.00,0.0112
666.00,0.0109
665.00,0.0107
664.00,0.0106
663.00,0.0104
662.00,0.0102
661.00,0.0098
660.00,0.0095
659.00,0.0093
658.00,0.0093
657.00,0.0094
656.00,0.0095
655.00,0.0096
654.00,0.0096
653.00,0.0096
652.00,0.0096
651.00,0.0096
650.00,0.0095
649.00,0.0092
648.00,0.0090
647.00,0.0087
646.00,0.0086
645.00,0.0086
644.00,0.0087
643.00,0.0089
642.00,0.0091
641.00,0.0093
640.00,0.0094
639.00,0.0094
638.00,0.0093
637.00,0.0093
636.00,0.0093
635.00,0.0094
634.00,0.0095
633.00,0.0095
632.00,0.0095
631.00,0.0094
630.00,0.0094
629.00,0.0094
628.00,0.0095
627.00,0.0095
626.00,0.0095
625.00,0.0094
624.00,0.0093
623.00,0.0093
622.00,0.0093
621.00,0.0095
620.00,0.0096
619.00,0.0096
618.00,0.0096
617.00,0.0096
616.00,0.0097
615.00,0.0097
614.00,0.0097
613.00,0.0097
612.00,0.0099
611.00,0.0100
610.00,0.0099
609.00,0.0098
608.00,0.0097
607.00,0.0097
606.00,0.0099
605.00,0.0098
604.00,0.0096
603.00,0.0092
602.00,0.0089
601.00,0.0089
600.00,0.0091
599.00,0.0094
598.00,0.0095
597.00,0.0094
596.00,0.0093
595.00,0.0094
594.00,0.0095
593.00,0.0096
592.00,0.0095
591.00,0.0093
590.00,0.0092
589.00,0.0093
588.00,0.0094
587.00,0.0096
586.00,0.0098
585.00,0.0100
584.00,0.0101
583.00,0.0101
582.00,0.0099
581.00,0.0094
580.00,0.0090
579.00,0.0089
578.00,0.0090
577.00,0.0090
576.00,0.0090
575.00,0.0090
574.00,0.0092
573.00,0.0096
572.00,0.0100
571.00,0.0104
570.00,0.0106
569.00,0.0107
568.00,0.0105
567.00,0.0103
566.00,0.0101
565.00,0.0098
564.00,0.0096
563.00,0.0095
562.00,0.0096
561.00,0.0098
560.00,0.0099
559.00,0.0099
558.00,0.0098
557.00,0.0097
556.00,0.0096
555.00,0.0096
554.00,0.0096
553.00,0.0097
552.00,0.0098
551.00,0.0102
550.00,0.0105
549.00,0.0106
548.00,0.0104
547.00,0.0100
546.00,0.0098
545.00,0.0099
544.00,0.0103
543.00,0.0109
542.00,0.0112
541.00,0.0111
540.00,0.0108
539.00,0.0106
538.00,0.0108
537.00,0.0112
536.00,0.0117
535.00,0.0121
534.00,0.0122
533.00,0.0121
532.00,0.0119
531.00,0.0118
530.00,0.0117
529.00,0.0115
528.00,0.0114
527.00,0.0116
526.00,0.0119
525.00,0.0121
524.00,0.0121
523.00,0.0118
522.00,0.0115
521.00,0.0113
520.00,0.0110
519.00,0.0105
518.00,0.0099
517.00,0.0093
516.00,0.0090
515.00,0.0090
514.00,0.0092
513.00,0.0094
512.00,0.0096
511.00,0.0098
510.00,0.0098
509.00,0.0099
508.00,0.0099
507.00,0.0099
506.00,0.0100
505.00,0.0098
504.00,0.0095
503.00,0.0090
502.00,0.0090
501.00,0.0095
500.00,0.0103
499.00,0.0111
498.00,0.0115
497.00,0.0115
496.00,0.0111
495.00,0.0107
494.00,0.0104
493.00,0.0099
492.00,0.0092
491.00,0.0085
490.00,0.0085
489.00,0.0092
488.00,0.0100
487.00,0.0105
486.00,0.0107
485.00,0.0108
484.00,0.0112
483.00,0.0115
482.00,0.0115
481.00,0.0112
480.00,0.0112
479.00,0.0120
478.00,0.0131
477.00,0.0138
476.00,0.0138
475.00,0.0132
474.00,0.0125
473.00,0.0122
472.00,0.0127
471.00,0.0140
470.00,0.0157
469.00,0.0172
468.00,0.0180
467.00,0.0180
466.00,0.0179
465.00,0.0181
464.00,0.0189
463.00,0.0198
462.00,0.0206
461.00,0.0213
460.00,0.0223
459.00,0.0233
458.00,0.0232
457.00,0.0220
456.00,0.0204
455.00,0.0194
454.00,0.0188
453.00,0.0182
452.00,0.0176
451.00,0.0175
450.00,0.0176
