Created as New Dataset,Sample 009 By Administrator Date Wednesday, September 03 2025
cm-1,A
4000.00,0.0012
3999.00,0.0012
3998.00,0.0012
3997.00,0.0012
3996.00,0.0012
3995.00,0.0012
3994.00,0.0012
3993.00,0.0012
3992.00,0.0012
3991.00,0.0012
3990.00,0.0012
3989.00,0.0011
3988.00,0.0011
3987.00,0.0011
3986.00,0.0011
3985.00,0.0011
3984.00,0.0011
3983.00,0.0011
3982.00,0.0011
3981.00,0.0011
3980.00,0.0011
3979.00,0.0011
3978.00,0.0011
3977.00,0.0011
3976.00,0.0011
3975.00,0.0011
3974.00,0.0011
3973.00,0.0010
3972.00,0.0010
3971.00,0.0010
3970.00,0.0010
3969.00,0.0010
3968.00,0.0010
3967.00,0.0010
3966.00,0.0010
3965.00,0.0010
3964.00,0.0010
3963.00,0.0010
3962.00,0.0010
3961.00,0.0010
3960.00,0.0010
3959.00,0.0010
3958.00,0.0011
3957.00,0.0010
3956.00,0.0010
3955.00,0.0010
3954.00,0.0010
3953.00,0.0009
3952.00,0.0009
3951.00,0.0009
3950.00,0.0009
3949.00,0.0010
3948.00,0.0010
3947.00,0.0010
3946.00,0.0011
3945.00,0.0011
3944.00,0.0011
3943.00,0.0010
3942.00,0.0010
3941.00,0.0009
3940.00,0.0009
3939.00,0.0010
3938.00,0.0010
3937.00,0.0010
3936.00,0.0011
3935.00,0.0011
3934.00,0.0011
3933.00,0.0011
3932.00,0.0011
3931.00,0.0011
3930.00,0.0010
3929.00,0.0010
3928.00,0.0010
3927.00,0.0010
3926.00,0.0010
3925.00,0.0010
3924.00,0.0010
3923.00,0.0011
3922.00,0.0011
3921.00,0.0011
3920.00,0.0011
3919.00,0.0011
3918.00,0.0011
3917.00,0.0011
3916.00,0.0010
3915.00,0.0010
3914.00,0.0010
3913.00,0.0010
3912.00,0.0010
3911.00,0.0009
3910.00,0.0009
3909.00,0.0010
3908.00,0.0010
3907.00,0.0010
3906.00,0.0010
3905.00,0.0009
3904.00,0.0009
3903.00,0.0009
3902.00,0.0009
3901.00,0.0009
3900.00,0.0009
3899.00,0.0009
3898.00,0.0009
3897.00,0.0009
3896.00,0.0010
3895.00,0.0010
3894.00,0.0010
3893.00,0.0010
3892.00,0.0010
3891.00,0.0011
3890.00,0.0011
3889.00,0.0011
3888.00,0.0011
3887.00,0.0010
3886.00,0.0010
3885.00,0.0010
3884.00,0.0010
3883.00,0.0010
3882.00,0.0010
3881.00,0.0010
3880.00,0.0010
3879.00,0.0010
3878.00,0.0010
3877.00,0.0010
3876.00,0.0010
3875.00,0.0011
3874.00,0.0011
3873.00,0.0011
3872.00,0.0011
3871.00,0.0011
3870.00,0.0011
3869.00,0.0011
3868.00,0.0011
3867.00,0.0011
3866.00,0.0011
3865.00,0.0011
3864.00,0.0011
3863.00,0.0010
3862.00,0.0010
3861.00,0.0010
3860.00,0.0009
3859.00,0.0009
3858.00,0.0010
3857.00,0.0010
3856.00,0.0011
3855.00,0.0011
3854.00,0.0010
3853.00,0.0010
3852.00,0.0010
3851.00,0.0009
3850.00,0.0009
3849.00,0.0009
3848.00,0.0009
3847.00,0.0010
3846.00,0.0010
3845.00,0.0010
3844.00,0.0010
3843.00,0.0010
3842.00,0.0010
3841.00,0.0010
3840.00,0.0010
3839.00,0.0011
3838.00,0.0011
3837.00,0.0011
3836.00,0.0011
3835.00,0.0011
3834.00,0.0011
3833.00,0.0010
3832.00,0.0010
3831.00,0.0010
3830.00,0.0010
3829.00,0.0010
3828.00,0.0010
3827.00,0.0010
3826.00,0.0010
3825.00,0.0010
3824.00,0.0011
3823.00,0.0011
3822.00,0.0011
3821.00,0.0011
3820.00,0.0011
3819.00,0.0011
3818.00,0.0011
3817.00,0.0010
3816.00,0.0010
3815.00,0.0010
3814.00,0.0010
3813.00,0.0010
3812.00,0.0010
3811.00,0.0010
3810.00,0.0010
3809.00,0.0011
3808.00,0.0011
3807.00,0.0011
3806.00,0.0011
3805.00,0.0011
3804.00,0.0011
3803.00,0.0011
3802.00,0.0010
3801.00,0.0010
3800.00,0.0010
3799.00,0.0010
3798.00,0.0010
3797.00,0.0010
3796.00,0.0010
3795.00,0.0010
3794.00,0.0010
3793.00,0.0010
3792.00,0.0010
3791.00,0.0009
3790.00,0.0009
3789.00,0.0009
3788.00,0.0009
3787.00,0.0009
3786.00,0.0010
3785.00,0.0010
3784.00,0.0010
3783.00,0.0010
3782.00,0.0010
3781.00,0.0010
3780.00,0.0010
3779.00,0.0010
3778.00,0.0010
3777.00,0.0010
3776.00,0.0009
3775.00,0.0009
3774.00,0.0009
3773.00,0.0009
3772.00,0.0009
3771.00,0.0010
3770.00,0.0010
3769.00,0.0010
3768.00,0.0010
3767.00,0.0010
3766.00,0.0010
3765.00,0.0011
3764.00,0.0011
3763.00,0.0011
3762.00,0.0012
3761.00,0.0012
3760.00,0.0012
3759.00,0.0012
3758.00,0.0012
3757.00,0.0011
3756.00,0.0011
3755.00,0.0011
3754.00,0.0011
3753.00,0.0011
3752.00,0.0010
3751.00,0.0010
3750.00,0.0010
3749.00,0.0010
3748.00,0.0010
3747.00,0.0010
3746.00,0.0010
3745.00,0.0009
3744.00,0.0010
3743.00,0.0010
3742.00,0.0010
3741.00,0.0009
3740.00,0.0009
3739.00,0.0010
3738.00,0.0010
3737.00,0.0010
3736.00,0.0010
3735.00,0.0010
3734.00,0.0010
3733.00,0.0010
3732.00,0.0009
3731.00,0.0009
3730.00,0.0009
3729.00,0.0009
3728.00,0.0008
3727.00,0.0008
3726.00,0.0008
3725.00,0.0008
3724.00,0.0008
3723.00,0.0008
3722.00,0.0008
3721.00,0.0008
3720.00,0.0008
3719.00,0.0008
3718.00,0.0008
3717.00,0.0008
3716.00,0.0008
3715.00,0.0008
3714.00,0.0008
3713.00,0.0008
3712.00,0.0008
3711.00,0.0008
3710.00,0.0008
3709.00,0.0008
3708.00,0.0008
3707.00,0.0008
3706.00,0.0008
3705.00,0.0008
3704.00,0.0008
3703.00,0.0008
3702.00,0.0008
3701.00,0.0007
3700.00,0.0007
3699.00,0.0007
3698.00,0.0007
3697.00,0.0006
3696.00,0.0007
3695.00,0.0007
3694.00,0.0008
3693.00,0.0008
3692.00,0.0009
3691.00,0.0009
3690.00,0.0009
3689.00,0.0008
3688.00,0.0009
3687.00,0.0008
3686.00,0.0008
3685.00,0.0008
3684.00,0.0007
3683.00,0.0007
3682.00,0.0007
3681.00,0.0007
3680.00,0.0007
3679.00,0.0008
3678.00,0.0009
3677.00,0.0009
3676.00,0.0010
3675.00,0.0010
3674.00,0.0010
3673.00,0.0010
3672.00,0.0009
3671.00,0.0008
3670.00,0.0008
3669.00,0.0008
3668.00,0.0008
3667.00,0.0008
3666.00,0.0007
3665.00,0.0007
3664.00,0.0007
3663.00,0.0006
3662.00,0.0006
3661.00,0.0006
3660.00,0.0006
3659.00,0.0007
3658.00,0.0007
3657.00,0.0007
3656.00,0.0006
3655.00,0.0006
3654.00,0.0006
3653.00,0.0006
3652.00,0.0006
3651.00,0.0006
3650.00,0.0005
3649.00,0.0005
3648.00,0.0005
3647.00,0.0005
3646.00,0.0005
3645.00,0.0005
3644.00,0.0005
3643.00,0.0006
3642.00,0.0006
3641.00,0.0006
3640.00,0.0007
3639.00,0.0007
3638.00,0.0007
3637.00,0.0007
3636.00,0.0007
3635.00,0.0007
3634.00,0.0007
3633.00,0.0007
3632.00,0.0008
3631.00,0.0008
3630.00,0.0007
3629.00,0.0007
3628.00,0.0007
3627.00,0.0007
3626.00,0.0006
3625.00,0.0006
3624.00,0.0006
3623.00,0.0006
3622.00,0.0007
3621.00,0.0007
3620.00,0.0008
3619.00,0.0008
3618.00,0.0009
3617.00,0.0009
3616.00,0.0009
3615.00,0.0008
3614.00,0.0008
3613.00,0.0007
3612.00,0.0007
3611.00,0.0007
3610.00,0.0007
3609.00,0.0007
3608.00,0.0007
3607.00,0.0007
3606.00,0.0008
3605.00,0.0008
3604.00,0.0008
3603.00,0.0008
3602.00,0.0008
3601.00,0.0008
3600.00,0.0008
3599.00,0.0009
3598.00,0.0009
3597.00,0.0008
3596.00,0.0008
3595.00,0.0008
3594.00,0.0008
3593.00,0.0008
3592.00,0.0008
3591.00,0.0008
3590.00,0.0008
3589.00,0.0008
3588.00,0.0008
3587.00,0.0008
3586.00,0.0008
3585.00,0.0009
3584.00,0.0009
3583.00,0.0009
3582.00,0.0009
3581.00,0.0010
3580.00,0.0010
3579.00,0.0010
3578.00,0.0011
3577.00,0.0011
3576.00,0.0011
3575.00,0.0011
3574.00,0.0011
3573.00,0.0010
3572.00,0.0010
3571.00,0.0011
3570.00,0.0011
3569.00,0.0011
3568.00,0.0011
3567.00,0.0011
3566.00,0.0011
3565.00,0.0012
3564.00,0.0012
3563.00,0.0012
3562.00,0.0013
3561.00,0.0013
3560.00,0.0013
3559.00,0.0013
3558.00,0.0013
3557.00,0.0013
3556.00,0.0013
3555.00,0.0013
3554.00,0.0013
3553.00,0.0013
3552.00,0.0014
3551.00,0.0014
3550.00,0.0014
3549.00,0.0014
3548.00,0.0014
3547.00,0.0014
3546.00,0.0014
3545.00,0.0014
3544.00,0.0014
3543.00,0.0015
3542.00,0.0015
3541.00,0.0015
3540.00,0.0015
3539.00,0.0015
3538.00,0.0015
3537.00,0.0015
3536.00,0.0015
3535.00,0.0016
3534.00,0.0016
3533.00,0.0017
3532.00,0.0017
3531.00,0.0017
3530.00,0.0017
3529.00,0.0017
3528.00,0.0018
3527.00,0.0018
3526.00,0.0018
3525.00,0.0019
3524.00,0.0019
3523.00,0.0019
3522.00,0.0018
3521.00,0.0018
3520.00,0.0018
3519.00,0.0018
3518.00,0.0018
3517.00,0.0018
3516.00,0.0019
3515.00,0.0019
3514.00,0.0019
3513.00,0.0020
3512.00,0.0019
3511.00,0.0019
3510.00,0.0019
3509.00,0.0019
3508.00,0.0019
3507.00,0.0020
3506.00,0.0020
3505.00,0.0021
3504.00,0.0021
3503.00,0.0021
3502.00,0.0020
3501.00,0.0020
3500.00,0.0020
3499.00,0.0020
3498.00,0.0021
3497.00,0.0021
3496.00,0.0021
3495.00,0.0021
3494.00,0.0021
3493.00,0.0021
3492.00,0.0021
3491.00,0.0021
3490.00,0.0022
3489.00,0.0022
3488.00,0.0022
3487.00,0.0023
3486.00,0.0023
3485.00,0.0023
3484.00,0.0023
3483.00,0.0023
3482.00,0.0023
3481.00,0.0023
3480.00,0.0023
3479.00,0.0023
3478.00,0.0023
3477.00,0.0023
3476.00,0.0024
3475.00,0.0024
3474.00,0.0024
3473.00,0.0024
3472.00,0.0024
3471.00,0.0025
3470.00,0.0025
3469.00,0.0026
3468.00,0.0026
3467.00,0.0025
3466.00,0.0025
3465.00,0.0025
3464.00,0.0026
3463.00,0.0026
3462.00,0.0026
3461.00,0.0026
3460.00,0.0026
3459.00,0.0026
3458.00,0.0025
3457.00,0.0025
3456.00,0.0026
3455.00,0.0026
3454.00,0.0026
3453.00,0.0026
3452.00,0.0027
3451.00,0.0027
3450.00,0.0027
3449.00,0.0028
3448.00,0.0028
3447.00,0.0028
3446.00,0.0028
3445.00,0.0028
3444.00,0.0029
3443.00,0.0029
3442.00,0.0029
3441.00,0.0030
3440.00,0.0030
3439.00,0.0030
3438.00,0.0030
3437.00,0.0030
3436.00,0.0030
3435.00,0.0030
3434.00,0.0030
3433.00,0.0030
3432.00,0.0030
3431.00,0.0030
3430.00,0.0030
3429.00,0.0030
3428.00,0.0030
3427.00,0.0030
3426.00,0.0030
3425.00,0.0030
3424.00,0.0030
3423.00,0.0030
3422.00,0.0030
3421.00,0.0030
3420.00,0.0030
3419.00,0.0031
3418.00,0.0031
3417.00,0.0031
3416.00,0.0032
3415.00,0.0032
3414.00,0.0032
3413.00,0.0032
3412.00,0.0032
3411.00,0.0032
3410.00,0.0032
3409.00,0.0032
3408.00,0.0032
3407.00,0.0032
3406.00,0.0032
3405.00,0.0032
3404.00,0.0032
3403.00,0.0032
3402.00,0.0033
3401.00,0.0033
3400.00,0.0032
3399.00,0.0032
3398.00,0.0032
3397.00,0.0032
3396.00,0.0032
3395.00,0.0032
3394.00,0.0032
3393.00,0.0032
3392.00,0.0032
3391.00,0.0032
3390.00,0.0032
3389.00,0.0032
3388.00,0.0032
3387.00,0.0032
3386.00,0.0032
3385.00,0.0032
3384.00,0.0032
3383.00,0.0033
3382.00,0.0033
3381.00,0.0033
3380.00,0.0032
3379.00,0.0033
3378.00,0.0033
3377.00,0.0033
3376.00,0.0033
3375.00,0.0033
3374.00,0.0034
3373.00,0.0034
3372.00,0.0034
3371.00,0.0034
3370.00,0.0034
3369.00,0.0034
3368.00,0.0034
3367.00,0.0033
3366.00,0.0033
3365.00,0.0033
3364.00,0.0033
3363.00,0.0033
3362.00,0.0033
3361.00,0.0034
3360.00,0.0034
3359.00,0.0034
3358.00,0.0034
3357.00,0.0034
3356.00,0.0034
3355.00,0.0034
3354.00,0.0034
3353.00,0.0034
3352.00,0.0034
3351.00,0.0034
3350.00,0.0034
3349.00,0.0034
3348.00,0.0034
3347.00,0.0034
3346.00,0.0034
3345.00,0.0034
3344.00,0.0034
3343.00,0.0033
3342.00,0.0033
3341.00,0.0033
3340.00,0.0033
3339.00,0.0033
3338.00,0.0033
3337.00,0.0033
3336.00,0.0033
3335.00,0.0033
3334.00,0.0033
3333.00,0.0032
3332.00,0.0032
3331.00,0.0032
3330.00,0.0032
3329.00,0.0032
3328.00,0.0032
3327.00,0.0031
3326.00,0.0031
3325.00,0.0031
3324.00,0.0032
3323.00,0.0032
3322.00,0.0032
3321.00,0.0031
3320.00,0.0031
3319.00,0.0031
3318.00,0.0031
3317.00,0.0032
3316.00,0.0031
3315.00,0.0031
3314.00,0.0031
3313.00,0.0031
3312.00,0.0032
3311.00,0.0032
3310.00,0.0032
3309.00,0.0031
3308.00,0.0031
3307.00,0.0032
3306.00,0.0032
3305.00,0.0032
3304.00,0.0032
3303.00,0.0032
3302.00,0.0032
3301.00,0.0032
3300.00,0.0032
3299.00,0.0032
3298.00,0.0031
3297.00,0.0031
3296.00,0.0031
3295.00,0.0031
3294.00,0.0031
3293.00,0.0031
3292.00,0.0031
3291.00,0.0031
3290.00,0.0031
3289.00,0.0031
3288.00,0.0031
3287.00,0.0030
3286.00,0.0030
3285.00,0.0029
3284.00,0.0029
3283.00,0.0029
3282.00,0.0029
3281.00,0.0030
3280.00,0.0030
3279.00,0.0030
3278.00,0.0029
3277.00,0.0029
3276.00,0.0029
3275.00,0.0029
3274.00,0.0029
3273.00,0.0029
3272.00,0.0029
3271.00,0.0029
3270.00,0.0029
3269.00,0.0029
3268.00,0.0029
3267.00,0.0029
3266.00,0.0029
3265.00,0.0028
3264.00,0.0028
3263.00,0.0028
3262.00,0.0028
3261.00,0.0027
3260.00,0.0027
3259.00,0.0027
3258.00,0.0027
3257.00,0.0027
3256.00,0.0027
3255.00,0.0027
3254.00,0.0028
3253.00,0.0028
3252.00,0.0028
3251.00,0.0027
3250.00,0.0027
3249.00,0.0027
3248.00,0.0027
3247.00,0.0026
3246.00,0.0026
3245.00,0.0026
3244.00,0.0026
3243.00,0.0026
3242.00,0.0026
3241.00,0.0026
3240.00,0.0026
3239.00,0.0026
3238.00,0.0026
3237.00,0.0026
3236.00,0.0026
3235.00,0.0026
3234.00,0.0026
3233.00,0.0026
3232.00,0.0026
3231.00,0.0027
3230.00,0.0028
3229.00,0.0028
3228.00,0.0028
3227.00,0.0028
3226.00,0.0028
3225.00,0.0028
3224.00,0.0028
3223.00,0.0028
3222.00,0.0028
3221.00,0.0028
3220.00,0.0028
3219.00,0.0029
3218.00,0.0030
3217.00,0.0030
3216.00,0.0030
3215.00,0.0030
3214.00,0.0030
3213.00,0.0030
3212.00,0.0030
3211.00,0.0030
3210.00,0.0030
3209.00,0.0031
3208.00,0.0031
3207.00,0.0031
3206.00,0.0031
3205.00,0.0030
3204.00,0.0031
3203.00,0.0031
3202.00,0.0031
3201.00,0.0031
3200.00,0.0031
3199.00,0.0031
3198.00,0.0031
3197.00,0.0031
3196.00,0.0031
3195.00,0.0031
3194.00,0.0032
3193.00,0.0032
3192.00,0.0031
3191.00,0.0031
3190.00,0.0031
3189.00,0.0031
3188.00,0.0031
3187.00,0.0031
3186.00,0.0030
3185.00,0.0030
3184.00,0.0030
3183.00,0.0030
3182.00,0.0029
3181.00,0.0029
3180.00,0.0029
3179.00,0.0029
3178.00,0.0029
3177.00,0.0029
3176.00,0.0029
3175.00,0.0029
3174.00,0.0029
3173.00,0.0029
3172.00,0.0028
3171.00,0.0028
3170.00,0.0028
3169.00,0.0028
3168.00,0.0027
3167.00,0.0027
3166.00,0.0028
3165.00,0.0028
3164.00,0.0028
3163.00,0.0028
3162.00,0.0028
3161.00,0.0029
3160.00,0.0028
3159.00,0.0028
3158.00,0.0028
3157.00,0.0027
3156.00,0.0027
3155.00,0.0028
3154.00,0.0028
3153.00,0.0028
3152.00,0.0029
3151.00,0.0029
3150.00,0.0029
3149.00,0.0029
3148.00,0.0028
3147.00,0.0028
3146.00,0.0028
3145.00,0.0028
3144.00,0.0028
3143.00,0.0028
3142.00,0.0028
3141.00,0.0028
3140.00,0.0028
3139.00,0.0028
3138.00,0.0028
3137.00,0.0027
3136.00,0.0027
3135.00,0.0027
3134.00,0.0027
3133.00,0.0027
3132.00,0.0026
3131.00,0.0026
3130.00,0.0026
3129.00,0.0026
3128.00,0.0025
3127.00,0.0025
3126.00,0.0025
3125.00,0.0025
3124.00,0.0026
3123.00,0.0026
3122.00,0.0025
3121.00,0.0026
3120.00,0.0026
3119.00,0.0026
3118.00,0.0025
3117.00,0.0025
3116.00,0.0025
3115.00,0.0024
3114.00,0.0024
3113.00,0.0024
3112.00,0.0024
3111.00,0.0023
3110.00,0.0024
3109.00,0.0024
3108.00,0.0024
3107.00,0.0024
3106.00,0.0024
3105.00,0.0024
3104.00,0.0024
3103.00,0.0024
3102.00,0.0024
3101.00,0.0024
3100.00,0.0023
3099.00,0.0023
3098.00,0.0023
3097.00,0.0024
3096.00,0.0024
3095.00,0.0024
3094.00,0.0024
3093.00,0.0024
3092.00,0.0024
3091.00,0.0024
3090.00,0.0024
3089.00,0.0024
3088.00,0.0023
3087.00,0.0023
3086.00,0.0023
3085.00,0.0023
3084.00,0.0023
3083.00,0.0024
3082.00,0.0024
3081.00,0.0024
3080.00,0.0024
3079.00,0.0024
3078.00,0.0024
3077.00,0.0024
3076.00,0.0024
3075.00,0.0024
3074.00,0.0024
3073.00,0.0025
3072.00,0.0025
3071.00,0.0025
3070.00,0.0025
3069.00,0.0025
3068.00,0.0025
3067.00,0.0026
3066.00,0.0026
3065.00,0.0026
3064.00,0.0026
3063.00,0.0027
3062.00,0.0027
3061.00,0.0027
3060.00,0.0027
3059.00,0.0027
3058.00,0.0027
3057.00,0.0027
3056.00,0.0027
3055.00,0.0028
3054.00,0.0028
3053.00,0.0028
3052.00,0.0028
3051.00,0.0028
3050.00,0.0028
3049.00,0.0028
3048.00,0.0029
3047.00,0.0029
3046.00,0.0030
3045.00,0.0030
3044.00,0.0030
3043.00,0.0030
3042.00,0.0030
3041.00,0.0030
3040.00,0.0031
3039.00,0.0031
3038.00,0.0031
3037.00,0.0032
3036.00,0.0032
3035.00,0.0032
3034.00,0.0032
3033.00,0.0032
3032.00,0.0032
3031.00,0.0033
3030.00,0.0033
3029.00,0.0034
3028.00,0.0035
3027.00,0.0036
3026.00,0.0036
3025.00,0.0037
3024.00,0.0037
3023.00,0.0038
3022.00,0.0039
3021.00,0.0039
3020.00,0.0040
3019.00,0.0041
3018.00,0.0042
3017.00,0.0043
3016.00,0.0044
3015.00,0.0044
3014.00,0.0045
3013.00,0.0046
3012.00,0.0047
3011.00,0.0048
3010.00,0.0049
3009.00,0.0050
3008.00,0.0052
3007.00,0.0053
3006.00,0.0054
3005.00,0.0056
3004.00,0.0057
3003.00,0.0059
3002.00,0.0061
3001.00,0.0063
3000.00,0.0065
2999.00,0.0068
2998.00,0.0071
2997.00,0.0074
2996.00,0.0077
2995.00,0.0081
2994.00,0.0085
2993.00,0.0089
2992.00,0.0094
2991.00,0.0099
2990.00,0.0105
2989.00,0.0112
2988.00,0.0119
2987.00,0.0127
2986.00,0.0135
2985.00,0.0144
2984.00,0.0155
2983.00,0.0167
2982.00,0.0181
2981.00,0.0197
2980.00,0.0216
2979.00,0.0238
2978.00,0.0262
2977.00,0.0290
2976.00,0.0321
2975.00,0.0355
2974.00,0.0395
2973.00,0.0439
2972.00,0.0490
2971.00,0.0547
2970.00,0.0610
2969.00,0.0679
2968.00,0.0752
2967.00,0.0830
2966.00,0.0909
2965.00,0.0989
2964.00,0.1064
2963.00,0.1133
2962.00,0.1192
2961.00,0.1242
2960.00,0.1284
2959.00,0.1323
2958.00,0.1366
2957.00,0.1417
2956.00,0.1480
2955.00,0.1557
2954.00,0.1645
2953.00,0.1736
2952.00,0.1819
2951.00,0.1880
2950.00,0.1907
2949.00,0.1891
2948.00,0.1831
2947.00,0.1733
2946.00,0.1610
2945.00,0.1478
2944.00,0.1352
2943.00,0.1244
2942.00,0.1159
2941.00,0.1101
2940.00,0.1067
2939.00,0.1058
2938.00,0.1069
2937.00,0.1098
2936.00,0.1144
2935.00,0.1206
2934.00,0.1282
2933.00,0.1371
2932.00,0.1473
2931.00,0.1584
2930.00,0.1702
2929.00,0.1825
2928.00,0.1948
2927.00,0.2070
2926.00,0.2189
2925.00,0.2305
2924.00,0.2419
2923.00,0.2532
2922.00,0.2646
2921.00,0.2756
2920.00,0.2855
2919.00,0.2931
2918.00,0.2971
2917.00,0.2966
2916.00,0.2915
2915.00,0.2824
2914.00,0.2707
2913.00,0.2579
2912.00,0.2452
2911.00,0.2334
2910.00,0.2229
2909.00,0.2135
2908.00,0.2049
2907.00,0.1968
2906.00,0.1890
2905.00,0.1814
2904.00,0.1738
2903.00,0.1665
2902.00,0.1594
2901.00,0.1526
2900.00,0.1461
2899.00,0.1400
2898.00,0.1343
2897.00,0.1291
2896.00,0.1244
2895.00,0.1203
2894.00,0.1168
2893.00,0.1140
2892.00,0.1118
2891.00,0.1102
2890.00,0.1091
2889.00,0.1085
2888.00,0.1083
2887.00,0.1083
2886.00,0.1087
2885.00,0.1095
2884.00,0.1108
2883.00,0.1125
2882.00,0.1148
2881.00,0.1173
2880.00,0.1199
2879.00,0.1221
2878.00,0.1236
2877.00,0.1241
2876.00,0.1237
2875.00,0.1229
2874.00,0.1223
2873.00,0.1222
2872.00,0.1230
2871.00,0.1246
2870.00,0.1267
2869.00,0.1287
2868.00,0.1300
2867.00,0.1297
2866.00,0.1271
2865.00,0.1221
2864.00,0.1151
2863.00,0.1069
2862.00,0.0988
2861.00,0.0916
2860.00,0.0859
2859.00,0.0819
2858.00,0.0795
2857.00,0.0785
2856.00,0.0785
2855.00,0.0794
2854.00,0.0809
2853.00,0.0827
2852.00,0.0847
2851.00,0.0865
2850.00,0.0879
2849.00,0.0890
2848.00,0.0899
2847.00,0.0913
2846.00,0.0935
2845.00,0.0967
2844.00,0.1009
2843.00,0.1059
2842.00,0.1112
2841.00,0.1162
2840.00,0.1200
2839.00,0.1219
2838.00,0.1212
2837.00,0.1176
2836.00,0.1111
2835.00,0.1022
2834.00,0.0919
2833.00,0.0812
2832.00,0.0711
2831.00,0.0621
2830.00,0.0545
2829.00,0.0482
2828.00,0.0431
2827.00,0.0390
2826.00,0.0356
2825.00,0.0329
2824.00,0.0307
2823.00,0.0288
2822.00,0.0271
2821.00,0.0257
2820.00,0.0245
2819.00,0.0234
2818.00,0.0224
2817.00,0.0216
2816.00,0.0209
2815.00,0.0202
2814.00,0.0196
2813.00,0.0190
2812.00,0.0184
2811.00,0.0179
2810.00,0.0173
2809.00,0.0167
2808.00,0.0161
2807.00,0.0155
2806.00,0.0148
2805.00,0.0142
2804.00,0.0135
2803.00,0.0130
2802.00,0.0124
2801.00,0.0120
2800.00,0.0115
2799.00,0.0112
2798.00,0.0109
2797.00,0.0107
2796.00,0.0104
2795.00,0.0102
2794.00,0.0100
2793.00,0.0097
2792.00,0.0094
2791.00,0.0091
2790.00,0.0088
2789.00,0.0085
2788.00,0.0083
2787.00,0.0080
2786.00,0.0077
2785.00,0.0075
2784.00,0.0073
2783.00,0.0071
2782.00,0.0069
2781.00,0.0067
2780.00,0.0066
2779.00,0.0064
2778.00,0.0063
2777.00,0.0061
2776.00,0.0060
2775.00,0.0059
2774.00,0.0058
2773.00,0.0057
2772.00,0.0057
2771.00,0.0056
2770.00,0.0056
2769.00,0.0056
2768.00,0.0055
2767.00,0.0055
2766.00,0.0055
2765.00,0.0055
2764.00,0.0054
2763.00,0.0054
2762.00,0.0053
2761.00,0.0052
2760.00,0.0052
2759.00,0.0052
2758.00,0.0052
2757.00,0.0052
2756.00,0.0052
2755.00,0.0052
2754.00,0.0052
2753.00,0.0052
2752.00,0.0052
2751.00,0.0052
2750.00,0.0052
2749.00,0.0052
2748.00,0.0052
2747.00,0.0052
2746.00,0.0052
2745.00,0.0052
2744.00,0.0053
2743.00,0.0053
2742.00,0.0054
2741.00,0.0055
2740.00,0.0056
2739.00,0.0057
2738.00,0.0058
2737.00,0.0060
2736.00,0.0062
2735.00,0.0064
2734.00,0.0066
2733.00,0.0067
2732.00,0.0069
2731.00,0.0071
2730.00,0.0073
2729.00,0.0075
2728.00,0.0078
2727.00,0.0082
2726.00,0.0085
2725.00,0.0087
2724.00,0.0089
2723.00,0.0089
2722.00,0.0088
2721.00,0.0087
2720.00,0.0084
2719.00,0.0081
2718.00,0.0077
2717.00,0.0074
2716.00,0.0071
2715.00,0.0068
2714.00,0.0065
2713.00,0.0063
2712.00,0.0061
2711.00,0.0059
2710.00,0.0057
2709.00,0.0056
2708.00,0.0054
2707.00,0.0053
2706.00,0.0052
2705.00,0.0051
2704.00,0.0050
2703.00,0.0049
2702.00,0.0048
2701.00,0.0047
2700.00,0.0046
2699.00,0.0046
2698.00,0.0045
2697.00,0.0045
2696.00,0.0045
2695.00,0.0045
2694.00,0.0045
2693.00,0.0045
2692.00,0.0045
2691.00,0.0045
2690.00,0.0045
2689.00,0.0045
2688.00,0.0045
2687.00,0.0045
2686.00,0.0044
2685.00,0.0044
2684.00,0.0044
2683.00,0.0044
2682.00,0.0045
2681.00,0.0045
2680.00,0.0046
2679.00,0.0046
2678.00,0.0046
2677.00,0.0046
2676.00,0.0046
2675.00,0.0046
2674.00,0.0046
2673.00,0.0045
2672.00,0.0045
2671.00,0.0045
2670.00,0.0045
2669.00,0.0045
2668.00,0.0045
2667.00,0.0045
2666.00,0.0046
2665.00,0.0046
2664.00,0.0047
2663.00,0.0047
2662.00,0.0048
2661.00,0.0048
2660.00,0.0048
2659.00,0.0049
2658.00,0.0049
2657.00,0.0048
2656.00,0.0048
2655.00,0.0048
2654.00,0.0047
2653.00,0.0047
2652.00,0.0046
2651.00,0.0045
2650.00,0.0045
2649.00,0.0044
2648.00,0.0043
2647.00,0.0043
2646.00,0.0042
2645.00,0.0042
2644.00,0.0042
2643.00,0.0041
2642.00,0.0041
2641.00,0.0040
2640.00,0.0039
2639.00,0.0039
2638.00,0.0039
2637.00,0.0038
2636.00,0.0038
2635.00,0.0038
2634.00,0.0038
2633.00,0.0038
2632.00,0.0039
2631.00,0.0039
2630.00,0.0039
2629.00,0.0039
2628.00,0.0039
2627.00,0.0039
2626.00,0.0039
2625.00,0.0039
2624.00,0.0040
2623.00,0.0040
2622.00,0.0040
2621.00,0.0040
2620.00,0.0040
2619.00,0.0041
2618.00,0.0041
2617.00,0.0041
2616.00,0.0041
2615.00,0.0041
2614.00,0.0041
2613.00,0.0041
2612.00,0.0041
2611.00,0.0040
2610.00,0.0039
2609.00,0.0039
2608.00,0.0038
2607.00,0.0037
2606.00,0.0036
2605.00,0.0036
2604.00,0.0035
2603.00,0.0034
2602.00,0.0033
2601.00,0.0033
2600.00,0.0033
2599.00,0.0033
2598.00,0.0033
2597.00,0.0033
2596.00,0.0033
2595.00,0.0033
2594.00,0.0033
2593.00,0.0034
2592.00,0.0035
2591.00,0.0036
2590.00,0.0036
2589.00,0.0037
2588.00,0.0037
2587.00,0.0038
2586.00,0.0039
2585.00,0.0040
2584.00,0.0040
2583.00,0.0040
2582.00,0.0040
2581.00,0.0040
2580.00,0.0039
2579.00,0.0039
2578.00,0.0039
2577.00,0.0038
2576.00,0.0036
2575.00,0.0035
2574.00,0.0033
2573.00,0.0032
2572.00,0.0030
2571.00,0.0029
2570.00,0.0029
2569.00,0.0028
2568.00,0.0027
2567.00,0.0027
2566.00,0.0026
2565.00,0.0026
2564.00,0.0025
2563.00,0.0025
2562.00,0.0024
2561.00,0.0024
2560.00,0.0023
2559.00,0.0023
2558.00,0.0023
2557.00,0.0024
2556.00,0.0024
2555.00,0.0024
2554.00,0.0023
2553.00,0.0022
2552.00,0.0021
2551.00,0.0020
2550.00,0.0020
2549.00,0.0020
2548.00,0.0020
2547.00,0.0020
2546.00,0.0020
2545.00,0.0019
2544.00,0.0019
2543.00,0.0019
2542.00,0.0019
2541.00,0.0019
2540.00,0.0019
2539.00,0.0019
2538.00,0.0019
2537.00,0.0019
2536.00,0.0018
2535.00,0.0017
2534.00,0.0016
2533.00,0.0016
2532.00,0.0016
2531.00,0.0016
2530.00,0.0016
2529.00,0.0016
2528.00,0.0016
2527.00,0.0016
2526.00,0.0016
2525.00,0.0016
2524.00,0.0015
2523.00,0.0015
2522.00,0.0015
2521.00,0.0014
2520.00,0.0014
2519.00,0.0014
2518.00,0.0014
2517.00,0.0014
2516.00,0.0014
2515.00,0.0013
2514.00,0.0013
2513.00,0.0012
2512.00,0.0012
2511.00,0.0012
2510.00,0.0012
2509.00,0.0012
2508.00,0.0012
2507.00,0.0012
2506.00,0.0012
2505.00,0.0012
2504.00,0.0013
2503.00,0.0013
2502.00,0.0012
2501.00,0.0012
2500.00,0.0011
2499.00,0.0011
2498.00,0.0011
2497.00,0.0011
2496.00,0.0012
2495.00,0.0012
2494.00,0.0012
2493.00,0.0012
2492.00,0.0012
2491.00,0.0012
2490.00,0.0012
2489.00,0.0012
2488.00,0.0012
2487.00,0.0012
2486.00,0.0012
2485.00,0.0011
2484.00,0.0011
2483.00,0.0010
2482.00,0.0010
2481.00,0.0010
2480.00,0.0010
2479.00,0.0010
2478.00,0.0010
2477.00,0.0010
2476.00,0.0010
2475.00,0.0011
2474.00,0.0011
2473.00,0.0011
2472.00,0.0011
2471.00,0.0011
2470.00,0.0010
2469.00,0.0010
2468.00,0.0010
2467.00,0.0010
2466.00,0.0010
2465.00,0.0010
2464.00,0.0009
2463.00,0.0009
2462.00,0.0010
2461.00,0.0010
2460.00,0.0010
2459.00,0.0010
2458.00,0.0011
2457.00,0.0011
2456.00,0.0011
2455.00,0.0011
2454.00,0.0011
2453.00,0.0011
2452.00,0.0011
2451.00,0.0011
2450.00,0.0011
2449.00,0.0011
2448.00,0.0011
2447.00,0.0011
2446.00,0.0011
2445.00,0.0012
2444.00,0.0012
2443.00,0.0012
2442.00,0.0012
2441.00,0.0012
2440.00,0.0012
2439.00,0.0012
2438.00,0.0012
2437.00,0.0012
2436.00,0.0012
2435.00,0.0012
2434.00,0.0012
2433.00,0.0013
2432.00,0.0012
2431.00,0.0012
2430.00,0.0012
2429.00,0.0012
2428.00,0.0012
2427.00,0.0012
2426.00,0.0012
2425.00,0.0012
2424.00,0.0011
2423.00,0.0011
2422.00,0.0010
2421.00,0.0010
2420.00,0.0010
2419.00,0.0010
2418.00,0.0009
2417.00,0.0009
2416.00,0.0010
2415.00,0.0010
2414.00,0.0010
2413.00,0.0011
2412.00,0.0011
2411.00,0.0011
2410.00,0.0011
2409.00,0.0011
2408.00,0.0010
2407.00,0.0010
2406.00,0.0010
2405.00,0.0010
2404.00,0.0009
2403.00,0.0009
2402.00,0.0008
2401.00,0.0008
2400.00,0.0008
2399.00,0.0008
2398.00,0.0008
2397.00,0.0009
2396.00,0.0009
2395.00,0.0009
2394.00,0.0010
2393.00,0.0010
2392.00,0.0009
2391.00,0.0009
2390.00,0.0009
2389.00,0.0009
2388.00,0.0009
2387.00,0.0009
2386.00,0.0009
2385.00,0.0008
2384.00,0.0008
2383.00,0.0007
2382.00,0.0006
2381.00,0.0005
2380.00,0.0005
2379.00,0.0004
2378.00,0.0003
2377.00,0.0003
2376.00,0.0004
2375.00,0.0004
2374.00,0.0005
2373.00,0.0005
2372.00,0.0005
2371.00,0.0005
2370.00,0.0005
2369.00,0.0005
2368.00,0.0005
2367.00,0.0004
2366.00,0.0004
2365.00,0.0004
2364.00,0.0004
2363.00,0.0005
2362.00,0.0005
2361.00,0.0006
2360.00,0.0006
2359.00,0.0006
2358.00,0.0006
2357.00,0.0006
2356.00,0.0006
2355.00,0.0006
2354.00,0.0006
2353.00,0.0006
2352.00,0.0006
2351.00,0.0006
2350.00,0.0006
2349.00,0.0007
2348.00,0.0007
2347.00,0.0007
2346.00,0.0008
2345.00,0.0008
2344.00,0.0008
2343.00,0.0009
2342.00,0.0009
2341.00,0.0009
2340.00,0.0009
2339.00,0.0010
2338.00,0.0010
2337.00,0.0010
2336.00,0.0010
2335.00,0.0010
2334.00,0.0010
2333.00,0.0011
2332.00,0.0010
2331.00,0.0010
2330.00,0.0009
2329.00,0.0009
2328.00,0.0011
2327.00,0.0014
2326.00,0.0018
2325.00,0.0022
2324.00,0.0024
2323.00,0.0023
2322.00,0.0021
2321.00,0.0019
2320.00,0.0017
2319.00,0.0015
2318.00,0.0014
2317.00,0.0013
2316.00,0.0012
2315.00,0.0011
2314.00,0.0010
2313.00,0.0010
2312.00,0.0009
2311.00,0.0008
2310.00,0.0008
2309.00,0.0008
2308.00,0.0008
2307.00,0.0009
2306.00,0.0010
2305.00,0.0010
2304.00,0.0011
2303.00,0.0011
2302.00,0.0011
2301.00,0.0010
2300.00,0.0010
2299.00,0.0010
2298.00,0.0011
2297.00,0.0012
2296.00,0.0013
2295.00,0.0013
2294.00,0.0014
2293.00,0.0014
2292.00,0.0015
2291.00,0.0016
2290.00,0.0017
2289.00,0.0017
2288.00,0.0018
2287.00,0.0018
2286.00,0.0018
2285.00,0.0018
2284.00,0.0018
2283.00,0.0017
2282.00,0.0017
2281.00,0.0017
2280.00,0.0016
2279.00,0.0016
2278.00,0.0015
2277.00,0.0015
2276.00,0.0016
2275.00,0.0016
2274.00,0.0017
2273.00,0.0016
2272.00,0.0016
2271.00,0.0015
2270.00,0.0015
2269.00,0.0016
2268.00,0.0016
2267.00,0.0016
2266.00,0.0015
2265.00,0.0015
2264.00,0.0014
2263.00,0.0013
2262.00,0.0013
2261.00,0.0012
2260.00,0.0013
2259.00,0.0014
2258.00,0.0015
2257.00,0.0015
2256.00,0.0013
2255.00,0.0011
2254.00,0.0010
2253.00,0.0010
2252.00,0.0010
2251.00,0.0010
2250.00,0.0009
2249.00,0.0007
2248.00,0.0007
2247.00,0.0007
2246.00,0.0008
2245.00,0.0009
2244.00,0.0010
2243.00,0.0009
2242.00,0.0008
2241.00,0.0008
2240.00,0.0009
2239.00,0.0009
2238.00,0.0010
2237.00,0.0010
2236.00,0.0010
2235.00,0.0009
2234.00,0.0009
2233.00,0.0009
2232.00,0.0008
2231.00,0.0009
2230.00,0.0009
2229.00,0.0011
2228.00,0.0012
2227.00,0.0013
2226.00,0.0012
2225.00,0.0011
2224.00,0.0009
2223.00,0.0007
2222.00,0.0007
2221.00,0.0007
2220.00,0.0007
2219.00,0.0007
2218.00,0.0007
2217.00,0.0007
2216.00,0.0007
2215.00,0.0007
2214.00,0.0008
2213.00,0.0009
2212.00,0.0010
2211.00,0.0010
2210.00,0.0009
2209.00,0.0009
2208.00,0.0008
2207.00,0.0007
2206.00,0.0007
2205.00,0.0006
2204.00,0.0006
2203.00,0.0006
2202.00,0.0005
2201.00,0.0005
2200.00,0.0006
2199.00,0.0006
2198.00,0.0006
2197.00,0.0007
2196.00,0.0008
2195.00,0.0009
2194.00,0.0010
2193.00,0.0011
2192.00,0.0011
2191.00,0.0010
2190.00,0.0011
2189.00,0.0011
2188.00,0.0011
2187.00,0.0010
2186.00,0.0009
2185.00,0.0008
2184.00,0.0006
2183.00,0.0005
2182.00,0.0003
2181.00,0.0002
2180.00,0.0002
2179.00,0.0002
2178.00,0.0002
2177.00,0.0002
2176.00,0.0001
2175.00,0.0000
2174.00,-0.0000
2173.00,-0.0000
2172.00,-0.0000
2171.00,0.0001
2170.00,0.0002
2169.00,0.0004
2168.00,0.0006
2167.00,0.0006
2166.00,0.0006
2165.00,0.0006
2164.00,0.0007
2163.00,0.0010
2162.00,0.0012
2161.00,0.0010
2160.00,0.0002
2159.00,-0.0010
2158.00,-0.0022
2157.00,-0.0027
2156.00,-0.0028
2155.00,-0.0025
2154.00,-0.0021
2153.00,-0.0018
2152.00,-0.0015
2151.00,-0.0014
2150.00,-0.0012
2149.00,-0.0011
2148.00,-0.0011
2147.00,-0.0011
2146.00,-0.0013
2145.00,-0.0016
2144.00,-0.0017
2143.00,-0.0017
2142.00,-0.0016
2141.00,-0.0013
2140.00,-0.0012
2139.00,-0.0013
2138.00,-0.0013
2137.00,-0.0014
2136.00,-0.0015
2135.00,-0.0017
2134.00,-0.0018
2133.00,-0.0017
2132.00,-0.0015
2131.00,-0.0013
2130.00,-0.0012
2129.00,-0.0011
2128.00,-0.0010
2127.00,-0.0009
2126.00,-0.0009
2125.00,-0.0008
2124.00,-0.0008
2123.00,-0.0007
2122.00,-0.0007
2121.00,-0.0006
2120.00,-0.0005
2119.00,-0.0004
2118.00,-0.0003
2117.00,-0.0002
2116.00,-0.0001
2115.00,-0.0001
2114.00,-0.0001
2113.00,0.0000
2112.00,0.0002
2111.00,0.0003
2110.00,0.0004
2109.00,0.0004
2108.00,0.0003
2107.00,0.0001
2106.00,-0.0000
2105.00,-0.0001
2104.00,0.0001
2103.00,0.0002
2102.00,0.0003
2101.00,0.0003
2100.00,0.0002
2099.00,0.0001
2098.00,0.0000
2097.00,-0.0001
2096.00,-0.0002
2095.00,-0.0004
2094.00,-0.0005
2093.00,-0.0006
2092.00,-0.0005
2091.00,-0.0005
2090.00,-0.0004
2089.00,-0.0003
2088.00,-0.0002
2087.00,0.0001
2086.00,0.0003
2085.00,0.0005
2084.00,0.0006
2083.00,0.0006
2082.00,0.0007
2081.00,0.0007
2080.00,0.0008
2079.00,0.0008
2078.00,0.0007
2077.00,0.0006
2076.00,0.0004
2075.00,0.0003
2074.00,0.0003
2073.00,0.0003
2072.00,0.0004
2071.00,0.0004
2070.00,0.0004
2069.00,0.0004
2068.00,0.0003
2067.00,0.0003
2066.00,0.0002
2065.00,0.0001
2064.00,-0.0000
2063.00,-0.0002
2062.00,-0.0002
2061.00,-0.0001
2060.00,0.0001
2059.00,0.0003
2058.00,0.0004
2057.00,0.0005
2056.00,0.0004
2055.00,0.0002
2054.00,0.0002
2053.00,0.0004
2052.00,0.0007
2051.00,0.0010
2050.00,0.0011
2049.00,0.0010
2048.00,0.0008
2047.00,0.0004
2046.00,0.0001
2045.00,-0.0002
2044.00,-0.0002
2043.00,-0.0001
2042.00,0.0001
2041.00,0.0003
2040.00,0.0004
2039.00,0.0003
2038.00,0.0001
2037.00,-0.0002
2036.00,-0.0006
2035.00,-0.0009
2034.00,-0.0010
2033.00,-0.0008
2032.00,-0.0005
2031.00,-0.0002
2030.00,-0.0001
2029.00,-0.0001
2028.00,-0.0004
2027.00,-0.0010
2026.00,-0.0016
2025.00,-0.0021
2024.00,-0.0022
2023.00,-0.0020
2022.00,-0.0017
2021.00,-0.0013
2020.00,-0.0011
2019.00,-0.0010
2018.00,-0.0009
2017.00,-0.0008
2016.00,-0.0009
2015.00,-0.0011
2014.00,-0.0013
2013.00,-0.0012
2012.00,-0.0010
2011.00,-0.0008
2010.00,-0.0007
2009.00,-0.0008
2008.00,-0.0009
2007.00,-0.0010
2006.00,-0.0011
2005.00,-0.0011
2004.00,-0.0011
2003.00,-0.0012
2002.00,-0.0014
2001.00,-0.0015
2000.00,-0.0013
1999.00,-0.0011
1998.00,-0.0009
1997.00,-0.0007
1996.00,-0.0007
1995.00,-0.0007
1994.00,-0.0008
1993.00,-0.0007
1992.00,-0.0007
1991.00,-0.0005
1990.00,-0.0004
1989.00,-0.0002
1988.00,-0.0001
1987.00,-0.0001
1986.00,-0.0001
1985.00,-0.0001
1984.00,-0.0000
1983.00,0.0001
1982.00,0.0005
1981.00,0.0010
1980.00,0.0012
1979.00,0.0009
1978.00,-0.0000
1977.00,-0.0009
1976.00,-0.0014
1975.00,-0.0015
1974.00,-0.0014
1973.00,-0.0012
1972.00,-0.0010
1971.00,-0.0010
1970.00,-0.0011
1969.00,-0.0014
1968.00,-0.0018
1967.00,-0.0020
1966.00,-0.0019
1965.00,-0.0016
1964.00,-0.0011
1963.00,-0.0009
1962.00,-0.0010
1961.00,-0.0012
1960.00,-0.0016
1959.00,-0.0018
1958.00,-0.0019
1957.00,-0.0016
1956.00,-0.0013
1955.00,-0.0012
1954.00,-0.0013
1953.00,-0.0014
1952.00,-0.0015
1951.00,-0.0015
1950.00,-0.0015
1949.00,-0.0015
1948.00,-0.0016
1947.00,-0.0017
1946.00,-0.0017
1945.00,-0.0016
1944.00,-0.0015
1943.00,-0.0013
1942.00,-0.0012
1941.00,-0.0011
1940.00,-0.0010
1939.00,-0.0009
1938.00,-0.0009
1937.00,-0.0009
1936.00,-0.0009
1935.00,-0.0009
1934.00,-0.0009
1933.00,-0.0009
1932.00,-0.0009
1931.00,-0.0010
1930.00,-0.0010
1929.00,-0.0011
1928.00,-0.0011
1927.00,-0.0011
1926.00,-0.0011
1925.00,-0.0011
1924.00,-0.0010
1923.00,-0.0008
1922.00,-0.0006
1921.00,-0.0005
1920.00,-0.0005
1919.00,-0.0006
1918.00,-0.0006
1917.00,-0.0005
1916.00,-0.0005
1915.00,-0.0004
1914.00,-0.0005
1913.00,-0.0005
1912.00,-0.0004
1911.00,-0.0003
1910.00,-0.0003
1909.00,-0.0003
1908.00,-0.0004
1907.00,-0.0004
1906.00,-0.0005
1905.00,-0.0004
1904.00,-0.0003
1903.00,-0.0003
1902.00,-0.0003
1901.00,-0.0003
1900.00,-0.0003
1899.00,-0.0003
1898.00,-0.0003
1897.00,-0.0003
1896.00,-0.0002
1895.00,-0.0002
1894.00,-0.0002
1893.00,-0.0001
1892.00,-0.0001
1891.00,-0.0001
1890.00,-0.0001
1889.00,-0.0002
1888.00,-0.0002
1887.00,-0.0002
1886.00,-0.0003
1885.00,-0.0003
1884.00,-0.0002
1883.00,-0.0001
1882.00,-0.0000
1881.00,0.0000
1880.00,-0.0000
1879.00,-0.0001
1878.00,-0.0002
1877.00,-0.0002
1876.00,-0.0002
1875.00,-0.0002
1874.00,-0.0002
1873.00,-0.0002
1872.00,-0.0003
1871.00,-0.0003
1870.00,-0.0003
1869.00,-0.0002
1868.00,-0.0001
1867.00,-0.0001
1866.00,-0.0000
1865.00,-0.0000
1864.00,0.0000
1863.00,0.0000
1862.00,0.0000
1861.00,0.0000
1860.00,0.0001
1859.00,0.0001
1858.00,0.0001
1857.00,0.0000
1856.00,-0.0000
1855.00,-0.0001
1854.00,-0.0000
1853.00,0.0000
1852.00,0.0001
1851.00,0.0001
1850.00,0.0001
1849.00,0.0001
1848.00,0.0000
1847.00,-0.0000
1846.00,0.0000
1845.00,0.0001
1844.00,0.0002
1843.00,0.0003
1842.00,0.0003
1841.00,0.0003
1840.00,0.0003
1839.00,0.0003
1838.00,0.0003
1837.00,0.0002
1836.00,0.0001
1835.00,0.0001
1834.00,0.0001
1833.00,0.0001
1832.00,0.0002
1831.00,0.0002
1830.00,0.0003
1829.00,0.0003
1828.00,0.0004
1827.00,0.0004
1826.00,0.0003
1825.00,0.0003
1824.00,0.0002
1823.00,0.0002
1822.00,0.0001
1821.00,0.0001
1820.00,-0.0000
1819.00,-0.0001
1818.00,-0.0002
1817.00,-0.0002
1816.00,-0.0002
1815.00,-0.0001
1814.00,-0.0001
1813.00,0.0000
1812.00,0.0001
1811.00,0.0002
1810.00,0.0003
1809.00,0.0003
1808.00,0.0003
1807.00,0.0003
1806.00,0.0003
1805.00,0.0003
1804.00,0.0004
1803.00,0.0004
1802.00,0.0004
1801.00,0.0004
1800.00,0.0005
1799.00,0.0005
1798.00,0.0005
1797.00,0.0006
1796.00,0.0006
1795.00,0.0005
1794.00,0.0005
1793.00,0.0004
1792.00,0.0005
1791.00,0.0006
1790.00,0.0006
1789.00,0.0006
1788.00,0.0007
1787.00,0.0007
1786.00,0.0006
1785.00,0.0006
1784.00,0.0006
1783.00,0.0006
1782.00,0.0007
1781.00,0.0007
1780.00,0.0007
1779.00,0.0007
1778.00,0.0007
1777.00,0.0007
1776.00,0.0007
1775.00,0.0006
1774.00,0.0007
1773.00,0.0007
1772.00,0.0008
1771.00,0.0008
1770.00,0.0008
1769.00,0.0008
1768.00,0.0008
1767.00,0.0009
1766.00,0.0009
1765.00,0.0009
1764.00,0.0009
1763.00,0.0009
1762.00,0.0009
1761.00,0.0010
1760.00,0.0011
1759.00,0.0011
1758.00,0.0011
1757.00,0.0011
1756.00,0.0011
1755.00,0.0011
1754.00,0.0011
1753.00,0.0012
1752.00,0.0013
1751.00,0.0013
1750.00,0.0014
1749.00,0.0015
1748.00,0.0015
1747.00,0.0016
1746.00,0.0016
1745.00,0.0017
1744.00,0.0017
1743.00,0.0018
1742.00,0.0018
1741.00,0.0018
1740.00,0.0018
1739.00,0.0019
1738.00,0.0019
1737.00,0.0019
1736.00,0.0019
1735.00,0.0019
1734.00,0.0019
1733.00,0.0019
1732.00,0.0019
1731.00,0.0019
1730.00,0.0019
1729.00,0.0020
1728.00,0.0020
1727.00,0.0021
1726.00,0.0021
1725.00,0.0022
1724.00,0.0022
1723.00,0.0022
1722.00,0.0022
1721.00,0.0022
1720.00,0.0022
1719.00,0.0022
1718.00,0.0022
1717.00,0.0022
1716.00,0.0022
1715.00,0.0021
1714.00,0.0021
1713.00,0.0020
1712.00,0.0020
1711.00,0.0021
1710.00,0.0022
1709.00,0.0022
1708.00,0.0022
1707.00,0.0022
1706.00,0.0021
1705.00,0.0022
1704.00,0.0022
1703.00,0.0023
1702.00,0.0023
1701.00,0.0023
1700.00,0.0023
1699.00,0.0023
1698.00,0.0023
1697.00,0.0023
1696.00,0.0023
1695.00,0.0024
1694.00,0.0025
1693.00,0.0025
1692.00,0.0025
1691.00,0.0026
1690.00,0.0026
1689.00,0.0026
1688.00,0.0027
1687.00,0.0027
1686.00,0.0027
1685.00,0.0027
1684.00,0.0027
1683.00,0.0026
1682.00,0.0026
1681.00,0.0027
1680.00,0.0027
1679.00,0.0027
1678.00,0.0027
1677.00,0.0027
1676.00,0.0028
1675.00,0.0028
1674.00,0.0028
1673.00,0.0029
1672.00,0.0029
1671.00,0.0030
1670.00,0.0030
1669.00,0.0030
1668.00,0.0030
1667.00,0.0030
1666.00,0.0030
1665.00,0.0030
1664.00,0.0030
1663.00,0.0031
1662.00,0.0031
1661.00,0.0032
1660.00,0.0032
1659.00,0.0033
1658.00,0.0033
1657.00,0.0033
1656.00,0.0034
1655.00,0.0034
1654.00,0.0034
1653.00,0.0035
1652.00,0.0036
1651.00,0.0036
1650.00,0.0036
1649.00,0.0036
1648.00,0.0037
1647.00,0.0037
1646.00,0.0037
1645.00,0.0038
1644.00,0.0038
1643.00,0.0039
1642.00,0.0039
1641.00,0.0040
1640.00,0.0041
1639.00,0.0042
1638.00,0.0043
1637.00,0.0043
1636.00,0.0043
1635.00,0.0043
1634.00,0.0043
1633.00,0.0043
1632.00,0.0043
1631.00,0.0042
1630.00,0.0041
1629.00,0.0041
1628.00,0.0041
1627.00,0.0041
1626.00,0.0040
1625.00,0.0040
1624.00,0.0040
1623.00,0.0040
1622.00,0.0039
1621.00,0.0039
1620.00,0.0039
1619.00,0.0038
1618.00,0.0037
1617.00,0.0037
1616.00,0.0037
1615.00,0.0037
1614.00,0.0038
1613.00,0.0038
1612.00,0.0039
1611.00,0.0039
1610.00,0.0039
1609.00,0.0039
1608.00,0.0039
1607.00,0.0039
1606.00,0.0039
1605.00,0.0038
1604.00,0.0038
1603.00,0.0038
1602.00,0.0038
1601.00,0.0038
1600.00,0.0037
1599.00,0.0037
1598.00,0.0037
1597.00,0.0037
1596.00,0.0037
1595.00,0.0036
1594.00,0.0036
1593.00,0.0036
1592.00,0.0037
1591.00,0.0037
1590.00,0.0036
1589.00,0.0036
1588.00,0.0037
1587.00,0.0037
1586.00,0.0038
1585.00,0.0038
1584.00,0.0039
1583.00,0.0039
1582.00,0.0039
1581.00,0.0040
1580.00,0.0040
1579.00,0.0041
1578.00,0.0041
1577.00,0.0041
1576.00,0.0042
1575.00,0.0042
1574.00,0.0043
1573.00,0.0043
1572.00,0.0043
1571.00,0.0043
1570.00,0.0043
1569.00,0.0043
1568.00,0.0043
1567.00,0.0043
1566.00,0.0043
1565.00,0.0043
1564.00,0.0043
1563.00,0.0044
1562.00,0.0044
1561.00,0.0045
1560.00,0.0045
1559.00,0.0044
1558.00,0.0043
1557.00,0.0044
1556.00,0.0045
1555.00,0.0045
1554.00,0.0045
1553.00,0.0046
1552.00,0.0046
1551.00,0.0046
1550.00,0.0046
1549.00,0.0047
1548.00,0.0047
1547.00,0.0048
1546.00,0.0049
1545.00,0.0050
1544.00,0.0051
1543.00,0.0051
1542.00,0.0050
1541.00,0.0049
1540.00,0.0049
1539.00,0.0049
1538.00,0.0048
1537.00,0.0049
1536.00,0.0048
1535.00,0.0048
1534.00,0.0047
1533.00,0.0046
1532.00,0.0046
1531.00,0.0046
1530.00,0.0046
1529.00,0.0046
1528.00,0.0046
1527.00,0.0046
1526.00,0.0046
1525.00,0.0046
1524.00,0.0047
1523.00,0.0047
1522.00,0.0048
1521.00,0.0049
1520.00,0.0050
1519.00,0.0050
1518.00,0.0050
1517.00,0.0052
1516.00,0.0053
1515.00,0.0054
1514.00,0.0054
1513.00,0.0054
1512.00,0.0055
1511.00,0.0055
1510.00,0.0056
1509.00,0.0056
1508.00,0.0057
1507.00,0.0058
1506.00,0.0060
1505.00,0.0062
1504.00,0.0064
1503.00,0.0066
1502.00,0.0067
1501.00,0.0069
1500.00,0.0071
1499.00,0.0072
1498.00,0.0074
1497.00,0.0077
1496.00,0.0080
1495.00,0.0083
1494.00,0.0086
1493.00,0.0089
1492.00,0.0093
1491.00,0.0097
1490.00,0.0101
1489.00,0.0105
1488.00,0.0110
1487.00,0.0114
1486.00,0.0119
1485.00,0.0125
1484.00,0.0132
1483.00,0.0139
1482.00,0.0147
1481.00,0.0157
1480.00,0.0168
1479.00,0.0180
1478.00,0.0195
1477.00,0.0216
1476.00,0.0242
1475.00,0.0272
1474.00,0.0313
1473.00,0.0372
1472.00,0.0441
1471.00,0.0508
1470.00,0.0573
1469.00,0.0641
1468.00,0.0715
1467.00,0.0796
1466.00,0.0889
1465.00,0.0988
1464.00,0.1075
1463.00,0.1134
1462.00,0.1170
1461.00,0.1194
1460.00,0.1208
1459.00,0.1215
1458.00,0.1219
1457.00,0.1218
1456.00,0.1209
1455.00,0.1194
1454.00,0.1177
1453.00,0.1154
1452.00,0.1121
1451.00,0.1078
1450.00,0.1023
1449.00,0.0949
1448.00,0.0859
1447.00,0.0766
1446.00,0.0684
1445.00,0.0615
1444.00,0.0556
1443.00,0.0507
1442.00,0.0471
1441.00,0.0446
1440.00,0.0432
1439.00,0.0428
1438.00,0.0432
1437.00,0.0436
1436.00,0.0430
1435.00,0.0407
1434.00,0.0371
1433.00,0.0328
1432.00,0.0283
1431.00,0.0242
1430.00,0.0211
1429.00,0.0187
1428.00,0.0171
1427.00,0.0161
1426.00,0.0154
1425.00,0.0147
1424.00,0.0141
1423.00,0.0136
1422.00,0.0134
1421.00,0.0131
1420.00,0.0128
1419.00,0.0125
1418.00,0.0123
1417.00,0.0121
1416.00,0.0119
1415.00,0.0117
1414.00,0.0117
1413.00,0.0115
1412.00,0.0113
1411.00,0.0112
1410.00,0.0112
1409.00,0.0112
1408.00,0.0111
1407.00,0.0111
1406.00,0.0112
1405.00,0.0111
1404.00,0.0111
1403.00,0.0111
1402.00,0.0113
1401.00,0.0114
1400.00,0.0114
1399.00,0.0116
1398.00,0.0118
1397.00,0.0119
1396.00,0.0120
1395.00,0.0124
1394.00,0.0129
1393.00,0.0134
1392.00,0.0139
1391.00,0.0146
1390.00,0.0156
1389.00,0.0170
1388.00,0.0190
1387.00,0.0221
1386.00,0.0264
1385.00,0.0321
1384.00,0.0399
1383.00,0.0510
1382.00,0.0661
1381.00,0.0860
1380.00,0.1111
1379.00,0.1402
1378.00,0.1690
1377.00,0.1907
1376.00,0.1988
1375.00,0.1895
1374.00,0.1656
1373.00,0.1362
1372.00,0.1092
1371.00,0.0870
1370.00,0.0694
1369.00,0.0561
1368.00,0.0471
1367.00,0.0415
1366.00,0.0385
1365.00,0.0373
1364.00,0.0376
1363.00,0.0391
1362.00,0.0413
1361.00,0.0437
1360.00,0.0455
1359.00,0.0460
1358.00,0.0449
1357.00,0.0422
1356.00,0.0384
1355.00,0.0342
1354.00,0.0302
1353.00,0.0267
1352.00,0.0239
1351.00,0.0216
1350.00,0.0197
1349.00,0.0182
1348.00,0.0169
1347.00,0.0159
1346.00,0.0150
1345.00,0.0142
1344.00,0.0136
1343.00,0.0130
1342.00,0.0126
1341.00,0.0122
1340.00,0.0120
1339.00,0.0119
1338.00,0.0118
1337.00,0.0118
1336.00,0.0119
1335.00,0.0120
1334.00,0.0123
1333.00,0.0127
1332.00,0.0131
1331.00,0.0135
1330.00,0.0137
1329.00,0.0136
1328.00,0.0132
1327.00,0.0127
1326.00,0.0121
1325.00,0.0115
1324.00,0.0109
1323.00,0.0104
1322.00,0.0099
1321.00,0.0096
1320.00,0.0094
1319.00,0.0092
1318.00,0.0091
1317.00,0.0090
1316.00,0.0089
1315.00,0.0088
1314.00,0.0087
1313.00,0.0087
1312.00,0.0088
1311.00,0.0090
1310.00,0.0093
1309.00,0.0097
1308.00,0.0103
1307.00,0.0111
1306.00,0.0119
1305.00,0.0124
1304.00,0.0126
1303.00,0.0126
1302.00,0.0124
1301.00,0.0122
1300.00,0.0123
1299.00,0.0124
1298.00,0.0126
1297.00,0.0127
1296.00,0.0127
1295.00,0.0124
1294.00,0.0120
1293.00,0.0114
1292.00,0.0109
1291.00,0.0104
1290.00,0.0099
1289.00,0.0096
1288.00,0.0093
1287.00,0.0091
1286.00,0.0089
1285.00,0.0087
1284.00,0.0085
1283.00,0.0083
1282.00,0.0082
1281.00,0.0081
1280.00,0.0079
1279.00,0.0079
1278.00,0.0078
1277.00,0.0078
1276.00,0.0077
1275.00,0.0077
1274.00,0.0077
1273.00,0.0077
1272.00,0.0077
1271.00,0.0077
1270.00,0.0078
1269.00,0.0078
1268.00,0.0079
1267.00,0.0080
1266.00,0.0082
1265.00,0.0083
1264.00,0.0085
1263.00,0.0088
1262.00,0.0090
1261.00,0.0094
1260.00,0.0098
1259.00,0.0102
1258.00,0.0107
1257.00,0.0111
1256.00,0.0113
1255.00,0.0112
1254.00,0.0108
1253.00,0.0102
1252.00,0.0096
1251.00,0.0092
1250.00,0.0088
1249.00,0.0085
1248.00,0.0084
1247.00,0.0082
1246.00,0.0081
1245.00,0.0079
1244.00,0.0078
1243.00,0.0077
1242.00,0.0076
1241.00,0.0075
1240.00,0.0075
1239.00,0.0075
1238.00,0.0074
1237.00,0.0074
1236.00,0.0074
1235.00,0.0074
1234.00,0.0074
1233.00,0.0075
1232.00,0.0076
1231.00,0.0077
1230.00,0.0078
1229.00,0.0079
1228.00,0.0080
1227.00,0.0082
1226.00,0.0084
1225.00,0.0087
1224.00,0.0090
1223.00,0.0093
1222.00,0.0097
1221.00,0.0100
1220.00,0.0102
1219.00,0.0103
1218.00,0.0102
1217.00,0.0100
1216.00,0.0097
1215.00,0.0094
1214.00,0.0090
1213.00,0.0087
1212.00,0.0085
1211.00,0.0083
1210.00,0.0081
1209.00,0.0080
1208.00,0.0078
1207.00,0.0077
1206.00,0.0076
1205.00,0.0075
1204.00,0.0075
1203.00,0.0075
1202.00,0.0075
1201.00,0.0074
1200.00,0.0074
1199.00,0.0075
1198.00,0.0076
1197.00,0.0077
1196.00,0.0077
1195.00,0.0077
1194.00,0.0077
1193.00,0.0077
1192.00,0.0077
1191.00,0.0076
1190.00,0.0076
1189.00,0.0076
1188.00,0.0076
1187.00,0.0076
1186.00,0.0077
1185.00,0.0077
1184.00,0.0078
1183.00,0.0079
1182.00,0.0080
1181.00,0.0081
1180.00,0.0083
1179.00,0.0086
1178.00,0.0091
1177.00,0.0097
1176.00,0.0106
1175.00,0.0118
1174.00,0.0133
1173.00,0.0151
1172.00,0.0172
1171.00,0.0194
1170.00,0.0216
1169.00,0.0234
1168.00,0.0245
1167.00,0.0248
1166.00,0.0244
1165.00,0.0235
1164.00,0.0225
1163.00,0.0214
1162.00,0.0206
1161.00,0.0199
1160.00,0.0194
1159.00,0.0191
1158.00,0.0188
1157.00,0.0186
1156.00,0.0185
1155.00,0.0185
1154.00,0.0185
1153.00,0.0184
1152.00,0.0181
1151.00,0.0175
1150.00,0.0167
1149.00,0.0157
1148.00,0.0147
1147.00,0.0137
1146.00,0.0129
1145.00,0.0121
1144.00,0.0114
1143.00,0.0108
1142.00,0.0103
1141.00,0.0099
1140.00,0.0095
1139.00,0.0091
1138.00,0.0088
1137.00,0.0084
1136.00,0.0081
1135.00,0.0078
1134.00,0.0077
1133.00,0.0076
1132.00,0.0075
1131.00,0.0075
1130.00,0.0074
1129.00,0.0074
1128.00,0.0074
1127.00,0.0074
1126.00,0.0074
1125.00,0.0075
1124.00,0.0075
1123.00,0.0075
1122.00,0.0076
1121.00,0.0077
1120.00,0.0079
1119.00,0.0080
1118.00,0.0081
1117.00,0.0081
1116.00,0.0082
1115.00,0.0082
1114.00,0.0083
1113.00,0.0085
1112.00,0.0086
1111.00,0.0088
1110.00,0.0091
1109.00,0.0095
1108.00,0.0100
1107.00,0.0107
1106.00,0.0114
1105.00,0.0121
1104.00,0.0126
1103.00,0.0129
1102.00,0.0128
1101.00,0.0124
1100.00,0.0118
1099.00,0.0112
1098.00,0.0105
1097.00,0.0099
1096.00,0.0094
1095.00,0.0090
1094.00,0.0087
1093.00,0.0084
1092.00,0.0081
1091.00,0.0079
1090.00,0.0078
1089.00,0.0078
1088.00,0.0077
1087.00,0.0077
1086.00,0.0077
1085.00,0.0077
1084.00,0.0077
1083.00,0.0076
1082.00,0.0076
1081.00,0.0075
1080.00,0.0074
1079.00,0.0073
1078.00,0.0072
1077.00,0.0071
1076.00,0.0070
1075.00,0.0071
1074.00,0.0071
1073.00,0.0071
1072.00,0.0071
1071.00,0.0071
1070.00,0.0071
1069.00,0.0071
1068.00,0.0072
1067.00,0.0072
1066.00,0.0073
1065.00,0.0073
1064.00,0.0074
1063.00,0.0074
1062.00,0.0075
1061.00,0.0076
1060.00,0.0077
1059.00,0.0078
1058.00,0.0078
1057.00,0.0079
1056.00,0.0079
1055.00,0.0080
1054.00,0.0083
1053.00,0.0086
1052.00,0.0089
1051.00,0.0093
1050.00,0.0097
1049.00,0.0101
1048.00,0.0104
1047.00,0.0108
1046.00,0.0111
1045.00,0.0113
1044.00,0.0114
1043.00,0.0114
1042.00,0.0112
1041.00,0.0110
1040.00,0.0109
1039.00,0.0109
1038.00,0.0110
1037.00,0.0110
1036.00,0.0109
1035.00,0.0108
1034.00,0.0107
1033.00,0.0107
1032.00,0.0107
1031.00,0.0107
1030.00,0.0107
1029.00,0.0108
1028.00,0.0108
1027.00,0.0110
1026.00,0.0111
1025.00,0.0113
1024.00,0.0115
1023.00,0.0117
1022.00,0.0119
1021.00,0.0121
1020.00,0.0123
1019.00,0.0124
1018.00,0.0125
1017.00,0.0125
1016.00,0.0125
1015.00,0.0125
1014.00,0.0124
1013.00,0.0124
1012.00,0.0124
1011.00,0.0124
1010.00,0.0125
1009.00,0.0125
1008.00,0.0125
1007.00,0.0127
1006.00,0.0132
1005.00,0.0140
1004.00,0.0151
1003.00,0.0167
1002.00,0.0189
1001.00,0.0215
1000.00,0.0242
999.00,0.0264
998.00,0.0273
997.00,0.0265
996.00,0.0244
995.00,0.0216
994.00,0.0187
993.00,0.0163
992.00,0.0144
991.00,0.0131
990.00,0.0121
989.00,0.0115
988.00,0.0111
987.00,0.0109
986.00,0.0108
985.00,0.0109
984.00,0.0112
983.00,0.0118
982.00,0.0127
981.00,0.0141
980.00,0.0160
979.00,0.0185
978.00,0.0215
977.00,0.0249
976.00,0.0283
975.00,0.0313
974.00,0.0333
973.00,0.0337
972.00,0.0322
971.00,0.0291
970.00,0.0252
969.00,0.0213
968.00,0.0181
967.00,0.0157
966.00,0.0140
965.00,0.0127
964.00,0.0117
963.00,0.0109
962.00,0.0103
961.00,0.0098
960.00,0.0094
959.00,0.0091
958.00,0.0089
957.00,0.0087
956.00,0.0085
955.00,0.0083
954.00,0.0081
953.00,0.0080
952.00,0.0078
951.00,0.0077
950.00,0.0077
949.00,0.0077
948.00,0.0077
947.00,0.0077
946.00,0.0078
945.00,0.0081
944.00,0.0084
943.00,0.0089
942.00,0.0092
941.00,0.0094
940.00,0.0094
939.00,0.0092
938.00,0.0088
937.00,0.0083
936.00,0.0077
935.00,0.0073
934.00,0.0069
933.00,0.0066
932.00,0.0065
931.00,0.0065
930.00,0.0065
929.00,0.0064
928.00,0.0063
927.00,0.0063
926.00,0.0063
925.00,0.0062
924.00,0.0062
923.00,0.0061
922.00,0.0061
921.00,0.0061
920.00,0.0062
919.00,0.0063
918.00,0.0064
917.00,0.0065
916.00,0.0066
915.00,0.0066
914.00,0.0065
913.00,0.0065
912.00,0.0065
911.00,0.0067
910.00,0.0070
909.00,0.0073
908.00,0.0077
907.00,0.0082
906.00,0.0089
905.00,0.0100
904.00,0.0115
903.00,0.0135
902.00,0.0156
901.00,0.0176
900.00,0.0187
899.00,0.0188
898.00,0.0179
897.00,0.0162
896.00,0.0143
895.00,0.0125
894.00,0.0109
893.00,0.0098
892.00,0.0089
891.00,0.0084
890.00,0.0080
889.00,0.0077
888.00,0.0075
887.00,0.0074
886.00,0.0072
885.00,0.0071
884.00,0.0071
883.00,0.0071
882.00,0.0072
881.00,0.0073
880.00,0.0074
879.00,0.0074
878.00,0.0074
877.00,0.0074
876.00,0.0075
875.00,0.0075
874.00,0.0076
873.00,0.0077
872.00,0.0077
871.00,0.0077
870.00,0.0076
869.00,0.0076
868.00,0.0075
867.00,0.0075
866.00,0.0076
865.00,0.0078
864.00,0.0079
863.00,0.0080
862.00,0.0080
861.00,0.0081
860.00,0.0081
859.00,0.0081
858.00,0.0082
857.00,0.0082
856.00,0.0084
855.00,0.0086
854.00,0.0090
853.00,0.0093
852.00,0.0096
851.00,0.0099
850.00,0.0101
849.00,0.0104
848.00,0.0110
847.00,0.0118
846.00,0.0132
845.00,0.0154
844.00,0.0184
843.00,0.0217
842.00,0.0243
841.00,0.0249
840.00,0.0231
839.00,0.0199
838.00,0.0165
837.00,0.0139
836.00,0.0122
835.00,0.0112
834.00,0.0106
833.00,0.0102
832.00,0.0100
831.00,0.0099
830.00,0.0098
829.00,0.0096
828.00,0.0094
827.00,0.0092
826.00,0.0090
825.00,0.0090
824.00,0.0089
823.00,0.0090
822.00,0.0092
821.00,0.0094
820.00,0.0097
819.00,0.0100
818.00,0.0103
817.00,0.0109
816.00,0.0118
815.00,0.0132
814.00,0.0149
813.00,0.0169
812.00,0.0191
811.00,0.0210
810.00,0.0224
809.00,0.0229
808.00,0.0224
807.00,0.0211
806.00,0.0193
805.00,0.0173
804.00,0.0155
803.00,0.0140
802.00,0.0129
801.00,0.0121
800.00,0.0115
799.00,0.0110
798.00,0.0105
797.00,0.0100
796.00,0.0097
795.00,0.0095
794.00,0.0092
793.00,0.0089
792.00,0.0085
791.00,0.0081
790.00,0.0078
789.00,0.0075
788.00,0.0074
787.00,0.0072
786.00,0.0071
785.00,0.0069
784.00,0.0068
783.00,0.0068
782.00,0.0069
781.00,0.0068
780.00,0.0066
779.00,0.0063
778.00,0.0061
777.00,0.0060
776.00,0.0060
775.00,0.0061
774.00,0.0062
773.00,0.0063
772.00,0.0063
771.00,0.0062
770.00,0.0061
769.00,0.0061
768.00,0.0062
767.00,0.0063
766.00,0.0064
765.00,0.0063
764.00,0.0061
763.00,0.0061
762.00,0.0063
761.00,0.0066
760.00,0.0070
759.00,0.0072
758.00,0.0073
757.00,0.0072
756.00,0.0071
755.00,0.0070
754.00,0.0070
753.00,0.0071
752.00,0.0073
751.00,0.0075
750.00,0.0077
749.00,0.0078
748.00,0.0079
747.00,0.0080
746.00,0.0081
745.00,0.0083
744.00,0.0084
743.00,0.0085
742.00,0.0087
741.00,0.0091
740.00,0.0095
739.00,0.0099
738.00,0.0104
737.00,0.0107
736.00,0.0111
735.00,0.0114
734.00,0.0118
733.00,0.0123
732.00,0.0130
731.00,0.0137
730.00,0.0144
729.00,0.0148
728.00,0.0150
727.00,0.0150
726.00,0.0152
725.00,0.0156
724.00,0.0161
723.00,0.0167
722.00,0.0173
721.00,0.0177
720.00,0.0176
719.00,0.0168
718.00,0.0156
717.00,0.0141
716.00,0.0129
715.00,0.0120
714.00,0.0115
713.00,0.0111
712.00,0.0108
711.00,0.0106
710.00,0.0104
709.00,0.0102
708.00,0.0101
707.00,0.0100
706.00,0.0099
705.00,0.0098
704.00,0.0098
703.00,0.0097
702.00,0.0097
701.00,0.0096
700.00,0.0095
699.00,0.0094
698.00,0.0092
697.00,0.0091
696.00,0.0089
695.00,0.0088
694.00,0.0088
693.00,0.0090
692.00,0.0092
691.00,0.0094
690.00,0.0093
689.00,0.0089
688.00,0.0086
687.00,0.0085
686.00,0.0087
685.00,0.0090
684.00,0.0091
683.00,0.0092
682.00,0.0091
681.00,0.0091
680.00,0.0089
679.00,0.0088
678.00,0.0087
677.00,0.0087
676.00,0.0088
675.00,0.0090
674.00,0.0091
673.00,0.0092
672.00,0.0093
671.00,0.0095
670.00,0.0097
669.00,0.0098
668.00,0.0097
667.00,0.0096
666.00,0.0094
665.00,0.0092
664.00,0.0090
663.00,0.0089
662.00,0.0087
661.00,0.0083
660.00,0.0079
659.00,0.0077
658.00,0.0076
657.00,0.0077
656.00,0.0078
655.00,0.0079
654.00,0.0079
653.00,0.0079
652.00,0.0081
651.00,0.0082
650.00,0.0083
649.00,0.0082
648.00,0.0080
647.00,0.0079
646.00,0.0079
645.00,0.0078
644.00,0.0077
643.00,0.0077
642.00,0.0080
641.00,0.0082
640.00,0.0083
639.00,0.0082
638.00,0.0081
637.00,0.0080
636.00,0.0079
635.00,0.0079
634.00,0.0079
633.00,0.0079
632.00,0.0077
631.00,0.0077
630.00,0.0078
629.00,0.0080
628.00,0.0082
627.00,0.0082
626.00,0.0082
625.00,0.0082
624.00,0.0083
623.00,0.0082
622.00,0.0081
621.00,0.0079
620.00,0.0078
619.00,0.0079
618.00,0.0081
617.00,0.0083
616.00,0.0083
615.00,0.0081
614.00,0.0080
613.00,0.0080
612.00,0.0081
611.00,0.0081
610.00,0.0080
609.00,0.0078
608.00,0.0078
607.00,0.0080
606.00,0.0081
605.00,0.0081
604.00,0.0078
603.00,0.0073
602.00,0.0070
601.00,0.0068
600.00,0.0069
599.00,0.0072
598.00,0.0075
597.00,0.0076
596.00,0.0076
595.00,0.0076
594.00,0.0076
593.00,0.0075
592.00,0.0073
591.00,0.0072
590.00,0.0075
589.00,0.0079
588.00,0.0083
587.00,0.0086
586.00,0.0086
585.00,0.0085
584.00,0.0083
583.00,0.0082
582.00,0.0080
581.00,0.0076
580.00,0.0073
579.00,0.0069
578.00,0.0067
577.00,0.0067
576.00,0.0068
575.00,0.0070
574.00,0.0074
573.00,0.0077
572.00,0.0081
571.00,0.0085
570.00,0.0088
569.00,0.0088
568.00,0.0086
567.00,0.0082
566.00,0.0079
565.00,0.0077
564.00,0.0075
563.00,0.0075
562.00,0.0076
561.00,0.0077
560.00,0.0078
559.00,0.0078
558.00,0.0077
557.00,0.0076
556.00,0.0074
555.00,0.0073
554.00,0.0073
553.00,0.0074
552.00,0.0077
551.00,0.0081
550.00,0.0086
549.00,0.0087
548.00,0.0086
547.00,0.0082
546.00,0.0079
545.00,0.0078
544.00,0.0079
543.00,0.0084
542.00,0.0089
541.00,0.0092
540.00,0.0092
539.00,0.0092
538.00,0.0094
537.00,0.0098
536.00,0.0103
535.00,0.0106
534.00,0.0107
533.00,0.0105
532.00,0.0101
531.00,0.0098
530.00,0.0097
529.00,0.0099
528.00,0.0101
527.00,0.0103
526.00,0.0104
525.00,0.0101
524.00,0.0096
523.00,0.0090
522.00,0.0086
521.00,0.0085
520.00,0.0085
519.00,0.0083
518.00,0.0081
517.00,0.0080
516.00,0.0082
515.00,0.0084
514.00,0.0083
513.00,0.0077
512.00,0.0072
511.00,0.0071
510.00,0.0073
509.00,0.0077
508.00,0.0078
507.00,0.0076
506.00,0.0075
505.00,0.0075
504.00,0.0077
503.00,0.0080
502.00,0.0086
501.00,0.0091
500.00,0.0093
499.00,0.0092
498.00,0.0087
497.00,0.0083
496.00,0.0083
495.00,0.0086
494.00,0.0086
493.00,0.0082
492.00,0.0076
491.00,0.0075
490.00,0.0082
489.00,0.0089
488.00,0.0092
487.00,0.0088
486.00,0.0084
485.00,0.0083
484.00,0.0085
483.00,0.0086
482.00,0.0082
481.00,0.0077
480.00,0.0076
479.00,0.0082
478.00,0.0094
477.00,0.0105
476.00,0.0113
475.00,0.0117
474.00,0.0119
473.00,0.0121
472.00,0.0124
471.00,0.0132
470.00,0.0145
469.00,0.0157
468.00,0.0166
467.00,0.0170
466.00,0.0172
465.00,0.0173
464.00,0.0175
463.00,0.0176
462.00,0.0178
461.00,0.0181
460.00,0.0186
459.00,0.0191
458.00,0.0192
457.00,0.0190
456.00,0.0187
455.00,0.0185
454.00,0.0180
453.00,0.0173
452.00,0.0167
451.00,0.0168
450.00,0.0172
