Created as New Dataset,Sample 013 By Administrator Date Wednesday, September 03 2025
cm-1,A
4000.00,0.0010
3999.00,0.0010
3998.00,0.0010
3997.00,0.0010
3996.00,0.0010
3995.00,0.0010
3994.00,0.0010
3993.00,0.0010
3992.00,0.0010
3991.00,0.0010
3990.00,0.0010
3989.00,0.0010
3988.00,0.0009
3987.00,0.0009
3986.00,0.0009
3985.00,0.0009
3984.00,0.0009
3983.00,0.0009
3982.00,0.0009
3981.00,0.0009
3980.00,0.0009
3979.00,0.0009
3978.00,0.0009
3977.00,0.0009
3976.00,0.0009
3975.00,0.0009
3974.00,0.0009
3973.00,0.0009
3972.00,0.0009
3971.00,0.0009
3970.00,0.0009
3969.00,0.0009
3968.00,0.0008
3967.00,0.0008
3966.00,0.0008
3965.00,0.0008
3964.00,0.0008
3963.00,0.0008
3962.00,0.0007
3961.00,0.0007
3960.00,0.0008
3959.00,0.0008
3958.00,0.0008
3957.00,0.0008
3956.00,0.0008
3955.00,0.0008
3954.00,0.0008
3953.00,0.0008
3952.00,0.0008
3951.00,0.0008
3950.00,0.0008
3949.00,0.0008
3948.00,0.0009
3947.00,0.0009
3946.00,0.0009
3945.00,0.0009
3944.00,0.0009
3943.00,0.0009
3942.00,0.0008
3941.00,0.0008
3940.00,0.0008
3939.00,0.0008
3938.00,0.0009
3937.00,0.0009
3936.00,0.0009
3935.00,0.0009
3934.00,0.0009
3933.00,0.0009
3932.00,0.0009
3931.00,0.0009
3930.00,0.0008
3929.00,0.0008
3928.00,0.0008
3927.00,0.0008
3926.00,0.0008
3925.00,0.0008
3924.00,0.0008
3923.00,0.0008
3922.00,0.0009
3921.00,0.0009
3920.00,0.0009
3919.00,0.0009
3918.00,0.0009
3917.00,0.0009
3916.00,0.0008
3915.00,0.0008
3914.00,0.0008
3913.00,0.0008
3912.00,0.0008
3911.00,0.0008
3910.00,0.0008
3909.00,0.0008
3908.00,0.0008
3907.00,0.0008
3906.00,0.0008
3905.00,0.0007
3904.00,0.0007
3903.00,0.0007
3902.00,0.0007
3901.00,0.0007
3900.00,0.0008
3899.00,0.0008
3898.00,0.0008
3897.00,0.0008
3896.00,0.0009
3895.00,0.0009
3894.00,0.0009
3893.00,0.0009
3892.00,0.0009
3891.00,0.0009
3890.00,0.0008
3889.00,0.0008
3888.00,0.0008
3887.00,0.0008
3886.00,0.0007
3885.00,0.0007
3884.00,0.0007
3883.00,0.0007
3882.00,0.0008
3881.00,0.0008
3880.00,0.0008
3879.00,0.0008
3878.00,0.0008
3877.00,0.0008
3876.00,0.0008
3875.00,0.0008
3874.00,0.0008
3873.00,0.0008
3872.00,0.0008
3871.00,0.0008
3870.00,0.0008
3869.00,0.0008
3868.00,0.0007
3867.00,0.0007
3866.00,0.0007
3865.00,0.0007
3864.00,0.0008
3863.00,0.0008
3862.00,0.0007
3861.00,0.0007
3860.00,0.0007
3859.00,0.0007
3858.00,0.0007
3857.00,0.0007
3856.00,0.0007
3855.00,0.0006
3854.00,0.0006
3853.00,0.0006
3852.00,0.0006
3851.00,0.0006
3850.00,0.0006
3849.00,0.0007
3848.00,0.0007
3847.00,0.0008
3846.00,0.0008
3845.00,0.0008
3844.00,0.0008
3843.00,0.0007
3842.00,0.0007
3841.00,0.0007
3840.00,0.0007
3839.00,0.0006
3838.00,0.0006
3837.00,0.0006
3836.00,0.0007
3835.00,0.0007
3834.00,0.0007
3833.00,0.0007
3832.00,0.0007
3831.00,0.0007
3830.00,0.0007
3829.00,0.0007
3828.00,0.0007
3827.00,0.0007
3826.00,0.0008
3825.00,0.0007
3824.00,0.0007
3823.00,0.0007
3822.00,0.0007
3821.00,0.0007
3820.00,0.0007
3819.00,0.0007
3818.00,0.0006
3817.00,0.0007
3816.00,0.0007
3815.00,0.0007
3814.00,0.0008
3813.00,0.0008
3812.00,0.0008
3811.00,0.0008
3810.00,0.0008
3809.00,0.0008
3808.00,0.0008
3807.00,0.0008
3806.00,0.0008
3805.00,0.0008
3804.00,0.0008
3803.00,0.0008
3802.00,0.0008
3801.00,0.0008
3800.00,0.0008
3799.00,0.0007
3798.00,0.0007
3797.00,0.0008
3796.00,0.0008
3795.00,0.0008
3794.00,0.0008
3793.00,0.0007
3792.00,0.0007
3791.00,0.0008
3790.00,0.0008
3789.00,0.0008
3788.00,0.0007
3787.00,0.0007
3786.00,0.0007
3785.00,0.0008
3784.00,0.0008
3783.00,0.0008
3782.00,0.0008
3781.00,0.0008
3780.00,0.0008
3779.00,0.0008
3778.00,0.0008
3777.00,0.0008
3776.00,0.0008
3775.00,0.0008
3774.00,0.0008
3773.00,0.0008
3772.00,0.0008
3771.00,0.0008
3770.00,0.0008
3769.00,0.0008
3768.00,0.0008
3767.00,0.0008
3766.00,0.0008
3765.00,0.0008
3764.00,0.0009
3763.00,0.0008
3762.00,0.0008
3761.00,0.0008
3760.00,0.0008
3759.00,0.0008
3758.00,0.0008
3757.00,0.0008
3756.00,0.0008
3755.00,0.0008
3754.00,0.0008
3753.00,0.0008
3752.00,0.0008
3751.00,0.0008
3750.00,0.0008
3749.00,0.0007
3748.00,0.0007
3747.00,0.0007
3746.00,0.0007
3745.00,0.0007
3744.00,0.0007
3743.00,0.0007
3742.00,0.0006
3741.00,0.0006
3740.00,0.0006
3739.00,0.0005
3738.00,0.0005
3737.00,0.0005
3736.00,0.0006
3735.00,0.0006
3734.00,0.0007
3733.00,0.0007
3732.00,0.0007
3731.00,0.0007
3730.00,0.0007
3729.00,0.0007
3728.00,0.0007
3727.00,0.0006
3726.00,0.0006
3725.00,0.0006
3724.00,0.0006
3723.00,0.0006
3722.00,0.0007
3721.00,0.0007
3720.00,0.0007
3719.00,0.0006
3718.00,0.0006
3717.00,0.0006
3716.00,0.0007
3715.00,0.0007
3714.00,0.0007
3713.00,0.0007
3712.00,0.0007
3711.00,0.0007
3710.00,0.0007
3709.00,0.0007
3708.00,0.0007
3707.00,0.0007
3706.00,0.0007
3705.00,0.0007
3704.00,0.0007
3703.00,0.0006
3702.00,0.0006
3701.00,0.0006
3700.00,0.0006
3699.00,0.0006
3698.00,0.0006
3697.00,0.0006
3696.00,0.0006
3695.00,0.0006
3694.00,0.0006
3693.00,0.0006
3692.00,0.0006
3691.00,0.0006
3690.00,0.0006
3689.00,0.0006
3688.00,0.0006
3687.00,0.0005
3686.00,0.0005
3685.00,0.0005
3684.00,0.0005
3683.00,0.0006
3682.00,0.0006
3681.00,0.0006
3680.00,0.0006
3679.00,0.0006
3678.00,0.0006
3677.00,0.0006
3676.00,0.0006
3675.00,0.0006
3674.00,0.0005
3673.00,0.0003
3672.00,0.0002
3671.00,0.0002
3670.00,0.0002
3669.00,0.0003
3668.00,0.0003
3667.00,0.0003
3666.00,0.0003
3665.00,0.0003
3664.00,0.0003
3663.00,0.0003
3662.00,0.0003
3661.00,0.0004
3660.00,0.0004
3659.00,0.0004
3658.00,0.0004
3657.00,0.0004
3656.00,0.0004
3655.00,0.0003
3654.00,0.0003
3653.00,0.0003
3652.00,0.0003
3651.00,0.0003
3650.00,0.0003
3649.00,0.0002
3648.00,0.0003
3647.00,0.0003
3646.00,0.0004
3645.00,0.0004
3644.00,0.0005
3643.00,0.0005
3642.00,0.0005
3641.00,0.0006
3640.00,0.0006
3639.00,0.0006
3638.00,0.0006
3637.00,0.0007
3636.00,0.0007
3635.00,0.0007
3634.00,0.0007
3633.00,0.0008
3632.00,0.0008
3631.00,0.0008
3630.00,0.0008
3629.00,0.0008
3628.00,0.0007
3627.00,0.0007
3626.00,0.0007
3625.00,0.0008
3624.00,0.0008
3623.00,0.0008
3622.00,0.0008
3621.00,0.0008
3620.00,0.0008
3619.00,0.0008
3618.00,0.0009
3617.00,0.0009
3616.00,0.0009
3615.00,0.0009
3614.00,0.0009
3613.00,0.0009
3612.00,0.0009
3611.00,0.0009
3610.00,0.0009
3609.00,0.0009
3608.00,0.0009
3607.00,0.0010
3606.00,0.0010
3605.00,0.0010
3604.00,0.0010
3603.00,0.0011
3602.00,0.0011
3601.00,0.0012
3600.00,0.0012
3599.00,0.0012
3598.00,0.0011
3597.00,0.0011
3596.00,0.0011
3595.00,0.0011
3594.00,0.0011
3593.00,0.0011
3592.00,0.0011
3591.00,0.0011
3590.00,0.0011
3589.00,0.0011
3588.00,0.0012
3587.00,0.0012
3586.00,0.0013
3585.00,0.0013
3584.00,0.0013
3583.00,0.0013
3582.00,0.0013
3581.00,0.0013
3580.00,0.0014
3579.00,0.0014
3578.00,0.0014
3577.00,0.0014
3576.00,0.0015
3575.00,0.0015
3574.00,0.0015
3573.00,0.0015
3572.00,0.0015
3571.00,0.0015
3570.00,0.0015
3569.00,0.0015
3568.00,0.0015
3567.00,0.0015
3566.00,0.0016
3565.00,0.0016
3564.00,0.0017
3563.00,0.0017
3562.00,0.0018
3561.00,0.0018
3560.00,0.0018
3559.00,0.0018
3558.00,0.0018
3557.00,0.0018
3556.00,0.0018
3555.00,0.0018
3554.00,0.0018
3553.00,0.0018
3552.00,0.0018
3551.00,0.0018
3550.00,0.0019
3549.00,0.0019
3548.00,0.0019
3547.00,0.0020
3546.00,0.0020
3545.00,0.0021
3544.00,0.0021
3543.00,0.0021
3542.00,0.0021
3541.00,0.0021
3540.00,0.0021
3539.00,0.0021
3538.00,0.0021
3537.00,0.0021
3536.00,0.0021
3535.00,0.0021
3534.00,0.0022
3533.00,0.0022
3532.00,0.0022
3531.00,0.0022
3530.00,0.0023
3529.00,0.0023
3528.00,0.0023
3527.00,0.0024
3526.00,0.0024
3525.00,0.0024
3524.00,0.0024
3523.00,0.0024
3522.00,0.0024
3521.00,0.0024
3520.00,0.0024
3519.00,0.0024
3518.00,0.0024
3517.00,0.0025
3516.00,0.0025
3515.00,0.0025
3514.00,0.0026
3513.00,0.0026
3512.00,0.0026
3511.00,0.0026
3510.00,0.0026
3509.00,0.0025
3508.00,0.0026
3507.00,0.0026
3506.00,0.0026
3505.00,0.0027
3504.00,0.0027
3503.00,0.0028
3502.00,0.0028
3501.00,0.0028
3500.00,0.0027
3499.00,0.0028
3498.00,0.0028
3497.00,0.0028
3496.00,0.0028
3495.00,0.0028
3494.00,0.0028
3493.00,0.0028
3492.00,0.0028
3491.00,0.0028
3490.00,0.0028
3489.00,0.0028
3488.00,0.0029
3487.00,0.0029
3486.00,0.0030
3485.00,0.0030
3484.00,0.0029
3483.00,0.0029
3482.00,0.0030
3481.00,0.0030
3480.00,0.0030
3479.00,0.0031
3478.00,0.0031
3477.00,0.0031
3476.00,0.0032
3475.00,0.0032
3474.00,0.0032
3473.00,0.0032
3472.00,0.0032
3471.00,0.0032
3470.00,0.0033
3469.00,0.0033
3468.00,0.0033
3467.00,0.0033
3466.00,0.0033
3465.00,0.0033
3464.00,0.0033
3463.00,0.0033
3462.00,0.0034
3461.00,0.0034
3460.00,0.0035
3459.00,0.0035
3458.00,0.0034
3457.00,0.0034
3456.00,0.0034
3455.00,0.0034
3454.00,0.0034
3453.00,0.0034
3452.00,0.0035
3451.00,0.0035
3450.00,0.0035
3449.00,0.0035
3448.00,0.0036
3447.00,0.0036
3446.00,0.0036
3445.00,0.0036
3444.00,0.0037
3443.00,0.0037
3442.00,0.0037
3441.00,0.0037
3440.00,0.0038
3439.00,0.0038
3438.00,0.0038
3437.00,0.0039
3436.00,0.0039
3435.00,0.0039
3434.00,0.0039
3433.00,0.0039
3432.00,0.0039
3431.00,0.0039
3430.00,0.0039
3429.00,0.0039
3428.00,0.0039
3427.00,0.0038
3426.00,0.0039
3425.00,0.0039
3424.00,0.0039
3423.00,0.0039
3422.00,0.0040
3421.00,0.0040
3420.00,0.0040
3419.00,0.0040
3418.00,0.0040
3417.00,0.0041
3416.00,0.0041
3415.00,0.0041
3414.00,0.0041
3413.00,0.0041
3412.00,0.0041
3411.00,0.0042
3410.00,0.0042
3409.00,0.0042
3408.00,0.0042
3407.00,0.0042
3406.00,0.0042
3405.00,0.0042
3404.00,0.0042
3403.00,0.0042
3402.00,0.0042
3401.00,0.0042
3400.00,0.0042
3399.00,0.0042
3398.00,0.0042
3397.00,0.0042
3396.00,0.0042
3395.00,0.0042
3394.00,0.0042
3393.00,0.0043
3392.00,0.0043
3391.00,0.0042
3390.00,0.0042
3389.00,0.0042
3388.00,0.0042
3387.00,0.0042
3386.00,0.0042
3385.00,0.0042
3384.00,0.0043
3383.00,0.0043
3382.00,0.0043
3381.00,0.0042
3380.00,0.0042
3379.00,0.0042
3378.00,0.0042
3377.00,0.0042
3376.00,0.0043
3375.00,0.0043
3374.00,0.0043
3373.00,0.0044
3372.00,0.0044
3371.00,0.0044
3370.00,0.0044
3369.00,0.0044
3368.00,0.0044
3367.00,0.0044
3366.00,0.0044
3365.00,0.0044
3364.00,0.0044
3363.00,0.0044
3362.00,0.0044
3361.00,0.0044
3360.00,0.0044
3359.00,0.0044
3358.00,0.0045
3357.00,0.0045
3356.00,0.0045
3355.00,0.0045
3354.00,0.0044
3353.00,0.0044
3352.00,0.0044
3351.00,0.0044
3350.00,0.0044
3349.00,0.0044
3348.00,0.0045
3347.00,0.0045
3346.00,0.0045
3345.00,0.0045
3344.00,0.0045
3343.00,0.0045
3342.00,0.0044
3341.00,0.0044
3340.00,0.0044
3339.00,0.0044
3338.00,0.0045
3337.00,0.0045
3336.00,0.0044
3335.00,0.0044
3334.00,0.0044
3333.00,0.0043
3332.00,0.0043
3331.00,0.0043
3330.00,0.0042
3329.00,0.0042
3328.00,0.0043
3327.00,0.0043
3326.00,0.0044
3325.00,0.0044
3324.00,0.0044
3323.00,0.0044
3322.00,0.0043
3321.00,0.0043
3320.00,0.0044
3319.00,0.0044
3318.00,0.0044
3317.00,0.0044
3316.00,0.0044
3315.00,0.0044
3314.00,0.0043
3313.00,0.0044
3312.00,0.0044
3311.00,0.0044
3310.00,0.0044
3309.00,0.0044
3308.00,0.0044
3307.00,0.0044
3306.00,0.0044
3305.00,0.0044
3304.00,0.0044
3303.00,0.0044
3302.00,0.0044
3301.00,0.0044
3300.00,0.0044
3299.00,0.0043
3298.00,0.0043
3297.00,0.0043
3296.00,0.0043
3295.00,0.0043
3294.00,0.0043
3293.00,0.0043
3292.00,0.0043
3291.00,0.0043
3290.00,0.0042
3289.00,0.0042
3288.00,0.0042
3287.00,0.0042
3286.00,0.0041
3285.00,0.0041
3284.00,0.0041
3283.00,0.0041
3282.00,0.0041
3281.00,0.0041
3280.00,0.0041
3279.00,0.0040
3278.00,0.0040
3277.00,0.0040
3276.00,0.0039
3275.00,0.0039
3274.00,0.0040
3273.00,0.0040
3272.00,0.0039
3271.00,0.0039
3270.00,0.0039
3269.00,0.0039
3268.00,0.0039
3267.00,0.0039
3266.00,0.0039
3265.00,0.0039
3264.00,0.0039
3263.00,0.0038
3262.00,0.0038
3261.00,0.0038
3260.00,0.0038
3259.00,0.0037
3258.00,0.0037
3257.00,0.0037
3256.00,0.0037
3255.00,0.0037
3254.00,0.0037
3253.00,0.0037
3252.00,0.0036
3251.00,0.0036
3250.00,0.0036
3249.00,0.0036
3248.00,0.0036
3247.00,0.0036
3246.00,0.0035
3245.00,0.0035
3244.00,0.0035
3243.00,0.0035
3242.00,0.0035
3241.00,0.0035
3240.00,0.0035
3239.00,0.0035
3238.00,0.0035
3237.00,0.0035
3236.00,0.0035
3235.00,0.0035
3234.00,0.0035
3233.00,0.0035
3232.00,0.0035
3231.00,0.0035
3230.00,0.0036
3229.00,0.0036
3228.00,0.0036
3227.00,0.0036
3226.00,0.0036
3225.00,0.0036
3224.00,0.0036
3223.00,0.0036
3222.00,0.0036
3221.00,0.0037
3220.00,0.0037
3219.00,0.0037
3218.00,0.0038
3217.00,0.0038
3216.00,0.0038
3215.00,0.0038
3214.00,0.0038
3213.00,0.0038
3212.00,0.0038
3211.00,0.0038
3210.00,0.0039
3209.00,0.0039
3208.00,0.0039
3207.00,0.0038
3206.00,0.0038
3205.00,0.0038
3204.00,0.0038
3203.00,0.0038
3202.00,0.0039
3201.00,0.0039
3200.00,0.0039
3199.00,0.0039
3198.00,0.0039
3197.00,0.0039
3196.00,0.0039
3195.00,0.0039
3194.00,0.0039
3193.00,0.0039
3192.00,0.0039
3191.00,0.0038
3190.00,0.0038
3189.00,0.0038
3188.00,0.0038
3187.00,0.0038
3186.00,0.0038
3185.00,0.0038
3184.00,0.0037
3183.00,0.0037
3182.00,0.0037
3181.00,0.0037
3180.00,0.0036
3179.00,0.0036
3178.00,0.0036
3177.00,0.0036
3176.00,0.0036
3175.00,0.0036
3174.00,0.0036
3173.00,0.0036
3172.00,0.0036
3171.00,0.0035
3170.00,0.0035
3169.00,0.0034
3168.00,0.0034
3167.00,0.0034
3166.00,0.0034
3165.00,0.0035
3164.00,0.0035
3163.00,0.0035
3162.00,0.0036
3161.00,0.0035
3160.00,0.0035
3159.00,0.0035
3158.00,0.0035
3157.00,0.0035
3156.00,0.0035
3155.00,0.0034
3154.00,0.0034
3153.00,0.0035
3152.00,0.0035
3151.00,0.0035
3150.00,0.0035
3149.00,0.0035
3148.00,0.0035
3147.00,0.0034
3146.00,0.0034
3145.00,0.0034
3144.00,0.0034
3143.00,0.0034
3142.00,0.0034
3141.00,0.0034
3140.00,0.0034
3139.00,0.0034
3138.00,0.0034
3137.00,0.0033
3136.00,0.0033
3135.00,0.0033
3134.00,0.0032
3133.00,0.0032
3132.00,0.0032
3131.00,0.0031
3130.00,0.0031
3129.00,0.0031
3128.00,0.0031
3127.00,0.0031
3126.00,0.0031
3125.00,0.0031
3124.00,0.0031
3123.00,0.0031
3122.00,0.0030
3121.00,0.0030
3120.00,0.0030
3119.00,0.0030
3118.00,0.0030
3117.00,0.0030
3116.00,0.0029
3115.00,0.0029
3114.00,0.0029
3113.00,0.0028
3112.00,0.0028
3111.00,0.0028
3110.00,0.0028
3109.00,0.0029
3108.00,0.0029
3107.00,0.0029
3106.00,0.0029
3105.00,0.0029
3104.00,0.0029
3103.00,0.0029
3102.00,0.0029
3101.00,0.0028
3100.00,0.0028
3099.00,0.0028
3098.00,0.0028
3097.00,0.0028
3096.00,0.0029
3095.00,0.0029
3094.00,0.0029
3093.00,0.0029
3092.00,0.0029
3091.00,0.0029
3090.00,0.0029
3089.00,0.0029
3088.00,0.0029
3087.00,0.0028
3086.00,0.0028
3085.00,0.0028
3084.00,0.0028
3083.00,0.0028
3082.00,0.0028
3081.00,0.0028
3080.00,0.0027
3079.00,0.0027
3078.00,0.0028
3077.00,0.0028
3076.00,0.0029
3075.00,0.0029
3074.00,0.0029
3073.00,0.0029
3072.00,0.0029
3071.00,0.0029
3070.00,0.0029
3069.00,0.0029
3068.00,0.0029
3067.00,0.0030
3066.00,0.0030
3065.00,0.0030
3064.00,0.0031
3063.00,0.0031
3062.00,0.0031
3061.00,0.0031
3060.00,0.0031
3059.00,0.0032
3058.00,0.0032
3057.00,0.0032
3056.00,0.0032
3055.00,0.0032
3054.00,0.0032
3053.00,0.0032
3052.00,0.0033
3051.00,0.0033
3050.00,0.0033
3049.00,0.0033
3048.00,0.0033
3047.00,0.0033
3046.00,0.0033
3045.00,0.0034
3044.00,0.0034
3043.00,0.0034
3042.00,0.0034
3041.00,0.0035
3040.00,0.0035
3039.00,0.0035
3038.00,0.0036
3037.00,0.0036
3036.00,0.0037
3035.00,0.0037
3034.00,0.0037
3033.00,0.0037
3032.00,0.0037
3031.00,0.0038
3030.00,0.0038
3029.00,0.0039
3028.00,0.0039
3027.00,0.0040
3026.00,0.0041
3025.00,0.0041
3024.00,0.0042
3023.00,0.0042
3022.00,0.0043
3021.00,0.0044
3020.00,0.0045
3019.00,0.0046
3018.00,0.0046
3017.00,0.0047
3016.00,0.0047
3015.00,0.0048
3014.00,0.0048
3013.00,0.0048
3012.00,0.0049
3011.00,0.0050
3010.00,0.0051
3009.00,0.0052
3008.00,0.0053
3007.00,0.0054
3006.00,0.0054
3005.00,0.0055
3004.00,0.0056
3003.00,0.0057
3002.00,0.0058
3001.00,0.0060
3000.00,0.0062
2999.00,0.0064
2998.00,0.0067
2997.00,0.0070
2996.00,0.0073
2995.00,0.0076
2994.00,0.0079
2993.00,0.0083
2992.00,0.0087
2991.00,0.0092
2990.00,0.0098
2989.00,0.0104
2988.00,0.0111
2987.00,0.0118
2986.00,0.0126
2985.00,0.0134
2984.00,0.0142
2983.00,0.0152
2982.00,0.0165
2981.00,0.0181
2980.00,0.0199
2979.00,0.0221
2978.00,0.0246
2977.00,0.0273
2976.00,0.0303
2975.00,0.0337
2974.00,0.0375
2973.00,0.0418
2972.00,0.0467
2971.00,0.0522
2970.00,0.0582
2969.00,0.0648
2968.00,0.0718
2967.00,0.0792
2966.00,0.0867
2965.00,0.0942
2964.00,0.1013
2963.00,0.1078
2962.00,0.1134
2961.00,0.1182
2960.00,0.1223
2959.00,0.1263
2958.00,0.1306
2957.00,0.1357
2956.00,0.1421
2955.00,0.1497
2954.00,0.1583
2953.00,0.1672
2952.00,0.1753
2951.00,0.1814
2950.00,0.1843
2949.00,0.1830
2948.00,0.1775
2947.00,0.1684
2946.00,0.1568
2945.00,0.1444
2944.00,0.1326
2943.00,0.1224
2942.00,0.1144
2941.00,0.1090
2940.00,0.1060
2939.00,0.1053
2938.00,0.1066
2937.00,0.1097
2936.00,0.1145
2935.00,0.1206
2934.00,0.1282
2933.00,0.1370
2932.00,0.1470
2931.00,0.1580
2930.00,0.1698
2929.00,0.1819
2928.00,0.1943
2927.00,0.2065
2926.00,0.2185
2925.00,0.2303
2924.00,0.2419
2923.00,0.2536
2922.00,0.2655
2921.00,0.2770
2920.00,0.2875
2919.00,0.2957
2918.00,0.3003
2917.00,0.3002
2916.00,0.2952
2915.00,0.2859
2914.00,0.2736
2913.00,0.2600
2912.00,0.2466
2911.00,0.2341
2910.00,0.2230
2909.00,0.2131
2908.00,0.2041
2907.00,0.1958
2906.00,0.1877
2905.00,0.1800
2904.00,0.1724
2903.00,0.1651
2902.00,0.1581
2901.00,0.1514
2900.00,0.1449
2899.00,0.1388
2898.00,0.1332
2897.00,0.1280
2896.00,0.1233
2895.00,0.1192
2894.00,0.1157
2893.00,0.1129
2892.00,0.1106
2891.00,0.1090
2890.00,0.1078
2889.00,0.1071
2888.00,0.1068
2887.00,0.1067
2886.00,0.1070
2885.00,0.1077
2884.00,0.1089
2883.00,0.1106
2882.00,0.1128
2881.00,0.1154
2880.00,0.1179
2879.00,0.1201
2878.00,0.1215
2877.00,0.1220
2876.00,0.1218
2875.00,0.1211
2874.00,0.1207
2873.00,0.1207
2872.00,0.1215
2871.00,0.1230
2870.00,0.1251
2869.00,0.1271
2868.00,0.1283
2867.00,0.1282
2866.00,0.1259
2865.00,0.1213
2864.00,0.1149
2863.00,0.1073
2862.00,0.0997
2861.00,0.0930
2860.00,0.0877
2859.00,0.0842
2858.00,0.0822
2857.00,0.0816
2856.00,0.0821
2855.00,0.0835
2854.00,0.0855
2853.00,0.0878
2852.00,0.0903
2851.00,0.0924
2850.00,0.0938
2849.00,0.0945
2848.00,0.0948
2847.00,0.0951
2846.00,0.0962
2845.00,0.0982
2844.00,0.1014
2843.00,0.1055
2842.00,0.1100
2841.00,0.1142
2840.00,0.1174
2839.00,0.1189
2838.00,0.1181
2837.00,0.1144
2836.00,0.1080
2835.00,0.0994
2834.00,0.0894
2833.00,0.0791
2832.00,0.0693
2831.00,0.0607
2830.00,0.0533
2829.00,0.0473
2828.00,0.0423
2827.00,0.0384
2826.00,0.0351
2825.00,0.0324
2824.00,0.0302
2823.00,0.0284
2822.00,0.0268
2821.00,0.0254
2820.00,0.0241
2819.00,0.0231
2818.00,0.0221
2817.00,0.0213
2816.00,0.0206
2815.00,0.0200
2814.00,0.0194
2813.00,0.0189
2812.00,0.0183
2811.00,0.0178
2810.00,0.0172
2809.00,0.0166
2808.00,0.0160
2807.00,0.0153
2806.00,0.0147
2805.00,0.0140
2804.00,0.0134
2803.00,0.0128
2802.00,0.0123
2801.00,0.0119
2800.00,0.0115
2799.00,0.0112
2798.00,0.0109
2797.00,0.0106
2796.00,0.0103
2795.00,0.0101
2794.00,0.0098
2793.00,0.0095
2792.00,0.0093
2791.00,0.0090
2790.00,0.0087
2789.00,0.0085
2788.00,0.0082
2787.00,0.0079
2786.00,0.0076
2785.00,0.0074
2784.00,0.0072
2783.00,0.0070
2782.00,0.0068
2781.00,0.0067
2780.00,0.0065
2779.00,0.0064
2778.00,0.0063
2777.00,0.0062
2776.00,0.0061
2775.00,0.0059
2774.00,0.0058
2773.00,0.0057
2772.00,0.0057
2771.00,0.0056
2770.00,0.0056
2769.00,0.0055
2768.00,0.0055
2767.00,0.0055
2766.00,0.0055
2765.00,0.0054
2764.00,0.0054
2763.00,0.0053
2762.00,0.0053
2761.00,0.0052
2760.00,0.0052
2759.00,0.0052
2758.00,0.0052
2757.00,0.0052
2756.00,0.0052
2755.00,0.0052
2754.00,0.0052
2753.00,0.0052
2752.00,0.0052
2751.00,0.0052
2750.00,0.0052
2749.00,0.0052
2748.00,0.0052
2747.00,0.0052
2746.00,0.0052
2745.00,0.0052
2744.00,0.0053
2743.00,0.0054
2742.00,0.0054
2741.00,0.0055
2740.00,0.0056
2739.00,0.0057
2738.00,0.0059
2737.00,0.0060
2736.00,0.0062
2735.00,0.0063
2734.00,0.0065
2733.00,0.0066
2732.00,0.0068
2731.00,0.0070
2730.00,0.0072
2729.00,0.0074
2728.00,0.0077
2727.00,0.0080
2726.00,0.0083
2725.00,0.0086
2724.00,0.0087
2723.00,0.0087
2722.00,0.0086
2721.00,0.0084
2720.00,0.0082
2719.00,0.0079
2718.00,0.0076
2717.00,0.0073
2716.00,0.0070
2715.00,0.0067
2714.00,0.0064
2713.00,0.0062
2712.00,0.0060
2711.00,0.0058
2710.00,0.0056
2709.00,0.0054
2708.00,0.0053
2707.00,0.0052
2706.00,0.0051
2705.00,0.0050
2704.00,0.0049
2703.00,0.0048
2702.00,0.0047
2701.00,0.0046
2700.00,0.0046
2699.00,0.0045
2698.00,0.0045
2697.00,0.0044
2696.00,0.0044
2695.00,0.0044
2694.00,0.0044
2693.00,0.0044
2692.00,0.0044
2691.00,0.0044
2690.00,0.0044
2689.00,0.0044
2688.00,0.0044
2687.00,0.0044
2686.00,0.0044
2685.00,0.0044
2684.00,0.0044
2683.00,0.0044
2682.00,0.0045
2681.00,0.0045
2680.00,0.0045
2679.00,0.0045
2678.00,0.0045
2677.00,0.0045
2676.00,0.0045
2675.00,0.0045
2674.00,0.0045
2673.00,0.0045
2672.00,0.0044
2671.00,0.0044
2670.00,0.0044
2669.00,0.0044
2668.00,0.0044
2667.00,0.0045
2666.00,0.0045
2665.00,0.0046
2664.00,0.0046
2663.00,0.0047
2662.00,0.0047
2661.00,0.0048
2660.00,0.0048
2659.00,0.0048
2658.00,0.0047
2657.00,0.0047
2656.00,0.0047
2655.00,0.0047
2654.00,0.0046
2653.00,0.0046
2652.00,0.0045
2651.00,0.0044
2650.00,0.0043
2649.00,0.0043
2648.00,0.0042
2647.00,0.0042
2646.00,0.0041
2645.00,0.0041
2644.00,0.0041
2643.00,0.0040
2642.00,0.0040
2641.00,0.0040
2640.00,0.0039
2639.00,0.0039
2638.00,0.0039
2637.00,0.0038
2636.00,0.0038
2635.00,0.0038
2634.00,0.0038
2633.00,0.0038
2632.00,0.0038
2631.00,0.0038
2630.00,0.0038
2629.00,0.0038
2628.00,0.0039
2627.00,0.0039
2626.00,0.0039
2625.00,0.0040
2624.00,0.0040
2623.00,0.0040
2622.00,0.0040
2621.00,0.0040
2620.00,0.0040
2619.00,0.0040
2618.00,0.0040
2617.00,0.0040
2616.00,0.0040
2615.00,0.0040
2614.00,0.0040
2613.00,0.0040
2612.00,0.0040
2611.00,0.0039
2610.00,0.0038
2609.00,0.0037
2608.00,0.0036
2607.00,0.0036
2606.00,0.0035
2605.00,0.0034
2604.00,0.0034
2603.00,0.0033
2602.00,0.0033
2601.00,0.0033
2600.00,0.0032
2599.00,0.0032
2598.00,0.0032
2597.00,0.0033
2596.00,0.0033
2595.00,0.0033
2594.00,0.0033
2593.00,0.0034
2592.00,0.0034
2591.00,0.0035
2590.00,0.0035
2589.00,0.0035
2588.00,0.0036
2587.00,0.0037
2586.00,0.0037
2585.00,0.0038
2584.00,0.0039
2583.00,0.0039
2582.00,0.0039
2581.00,0.0039
2580.00,0.0038
2579.00,0.0037
2578.00,0.0036
2577.00,0.0036
2576.00,0.0035
2575.00,0.0034
2574.00,0.0033
2573.00,0.0032
2572.00,0.0031
2571.00,0.0030
2570.00,0.0029
2569.00,0.0028
2568.00,0.0027
2567.00,0.0026
2566.00,0.0025
2565.00,0.0025
2564.00,0.0025
2563.00,0.0024
2562.00,0.0024
2561.00,0.0024
2560.00,0.0023
2559.00,0.0023
2558.00,0.0023
2557.00,0.0023
2556.00,0.0023
2555.00,0.0022
2554.00,0.0021
2553.00,0.0021
2552.00,0.0021
2551.00,0.0021
2550.00,0.0021
2549.00,0.0021
2548.00,0.0021
2547.00,0.0020
2546.00,0.0019
2545.00,0.0019
2544.00,0.0019
2543.00,0.0019
2542.00,0.0019
2541.00,0.0019
2540.00,0.0019
2539.00,0.0019
2538.00,0.0018
2537.00,0.0018
2536.00,0.0018
2535.00,0.0017
2534.00,0.0017
2533.00,0.0017
2532.00,0.0017
2531.00,0.0017
2530.00,0.0017
2529.00,0.0016
2528.00,0.0015
2527.00,0.0014
2526.00,0.0014
2525.00,0.0014
2524.00,0.0014
2523.00,0.0014
2522.00,0.0014
2521.00,0.0014
2520.00,0.0014
2519.00,0.0014
2518.00,0.0014
2517.00,0.0013
2516.00,0.0013
2515.00,0.0012
2514.00,0.0012
2513.00,0.0012
2512.00,0.0012
2511.00,0.0012
2510.00,0.0012
2509.00,0.0012
2508.00,0.0012
2507.00,0.0012
2506.00,0.0012
2505.00,0.0012
2504.00,0.0012
2503.00,0.0012
2502.00,0.0012
2501.00,0.0011
2500.00,0.0011
2499.00,0.0011
2498.00,0.0011
2497.00,0.0011
2496.00,0.0011
2495.00,0.0011
2494.00,0.0011
2493.00,0.0011
2492.00,0.0011
2491.00,0.0011
2490.00,0.0011
2489.00,0.0011
2488.00,0.0011
2487.00,0.0011
2486.00,0.0011
2485.00,0.0010
2484.00,0.0009
2483.00,0.0008
2482.00,0.0008
2481.00,0.0008
2480.00,0.0009
2479.00,0.0009
2478.00,0.0010
2477.00,0.0010
2476.00,0.0010
2475.00,0.0011
2474.00,0.0011
2473.00,0.0011
2472.00,0.0011
2471.00,0.0011
2470.00,0.0010
2469.00,0.0010
2468.00,0.0010
2467.00,0.0009
2466.00,0.0009
2465.00,0.0009
2464.00,0.0009
2463.00,0.0009
2462.00,0.0010
2461.00,0.0010
2460.00,0.0011
2459.00,0.0011
2458.00,0.0011
2457.00,0.0012
2456.00,0.0012
2455.00,0.0012
2454.00,0.0012
2453.00,0.0012
2452.00,0.0011
2451.00,0.0011
2450.00,0.0010
2449.00,0.0010
2448.00,0.0010
2447.00,0.0010
2446.00,0.0011
2445.00,0.0011
2444.00,0.0011
2443.00,0.0010
2442.00,0.0010
2441.00,0.0010
2440.00,0.0010
2439.00,0.0010
2438.00,0.0010
2437.00,0.0010
2436.00,0.0011
2435.00,0.0011
2434.00,0.0012
2433.00,0.0012
2432.00,0.0012
2431.00,0.0012
2430.00,0.0011
2429.00,0.0012
2428.00,0.0012
2427.00,0.0012
2426.00,0.0011
2425.00,0.0011
2424.00,0.0010
2423.00,0.0009
2422.00,0.0010
2421.00,0.0010
2420.00,0.0010
2419.00,0.0010
2418.00,0.0009
2417.00,0.0009
2416.00,0.0009
2415.00,0.0009
2414.00,0.0010
2413.00,0.0010
2412.00,0.0011
2411.00,0.0011
2410.00,0.0010
2409.00,0.0010
2408.00,0.0010
2407.00,0.0009
2406.00,0.0009
2405.00,0.0008
2404.00,0.0008
2403.00,0.0008
2402.00,0.0008
2401.00,0.0008
2400.00,0.0008
2399.00,0.0008
2398.00,0.0008
2397.00,0.0008
2396.00,0.0008
2395.00,0.0009
2394.00,0.0009
2393.00,0.0009
2392.00,0.0009
2391.00,0.0009
2390.00,0.0009
2389.00,0.0009
2388.00,0.0009
2387.00,0.0008
2386.00,0.0007
2385.00,0.0006
2384.00,0.0006
2383.00,0.0005
2382.00,0.0004
2381.00,0.0003
2380.00,0.0002
2379.00,0.0002
2378.00,0.0002
2377.00,0.0003
2376.00,0.0003
2375.00,0.0003
2374.00,0.0003
2373.00,0.0004
2372.00,0.0004
2371.00,0.0004
2370.00,0.0004
2369.00,0.0004
2368.00,0.0003
2367.00,0.0002
2366.00,0.0001
2365.00,0.0001
2364.00,0.0002
2363.00,0.0003
2362.00,0.0003
2361.00,0.0004
2360.00,0.0005
2359.00,0.0005
2358.00,0.0004
2357.00,0.0004
2356.00,0.0004
2355.00,0.0004
2354.00,0.0004
2353.00,0.0004
2352.00,0.0004
2351.00,0.0004
2350.00,0.0004
2349.00,0.0004
2348.00,0.0005
2347.00,0.0007
2346.00,0.0008
2345.00,0.0008
2344.00,0.0008
2343.00,0.0008
2342.00,0.0007
2341.00,0.0006
2340.00,0.0007
2339.00,0.0007
2338.00,0.0008
2337.00,0.0008
2336.00,0.0008
2335.00,0.0008
2334.00,0.0008
2333.00,0.0008
2332.00,0.0008
2331.00,0.0008
2330.00,0.0008
2329.00,0.0008
2328.00,0.0009
2327.00,0.0011
2326.00,0.0015
2325.00,0.0018
2324.00,0.0019
2323.00,0.0019
2322.00,0.0017
2321.00,0.0015
2320.00,0.0014
2319.00,0.0012
2318.00,0.0011
2317.00,0.0010
2316.00,0.0009
2315.00,0.0009
2314.00,0.0008
2313.00,0.0008
2312.00,0.0008
2311.00,0.0007
2310.00,0.0006
2309.00,0.0005
2308.00,0.0005
2307.00,0.0005
2306.00,0.0005
2305.00,0.0006
2304.00,0.0007
2303.00,0.0008
2302.00,0.0008
2301.00,0.0008
2300.00,0.0008
2299.00,0.0008
2298.00,0.0009
2297.00,0.0010
2296.00,0.0011
2295.00,0.0012
2294.00,0.0013
2293.00,0.0014
2292.00,0.0015
2291.00,0.0016
2290.00,0.0017
2289.00,0.0017
2288.00,0.0018
2287.00,0.0018
2286.00,0.0018
2285.00,0.0017
2284.00,0.0016
2283.00,0.0016
2282.00,0.0016
2281.00,0.0016
2280.00,0.0016
2279.00,0.0016
2278.00,0.0016
2277.00,0.0015
2276.00,0.0015
2275.00,0.0014
2274.00,0.0014
2273.00,0.0015
2272.00,0.0015
2271.00,0.0015
2270.00,0.0015
2269.00,0.0015
2268.00,0.0016
2267.00,0.0016
2266.00,0.0016
2265.00,0.0015
2264.00,0.0014
2263.00,0.0013
2262.00,0.0012
2261.00,0.0011
2260.00,0.0012
2259.00,0.0013
2258.00,0.0014
2257.00,0.0014
2256.00,0.0012
2255.00,0.0010
2254.00,0.0009
2253.00,0.0009
2252.00,0.0010
2251.00,0.0012
2250.00,0.0011
2249.00,0.0010
2248.00,0.0009
2247.00,0.0008
2246.00,0.0008
2245.00,0.0008
2244.00,0.0008
2243.00,0.0006
2242.00,0.0006
2241.00,0.0005
2240.00,0.0005
2239.00,0.0005
2238.00,0.0004
2237.00,0.0004
2236.00,0.0005
2235.00,0.0006
2234.00,0.0007
2233.00,0.0008
2232.00,0.0008
2231.00,0.0008
2230.00,0.0007
2229.00,0.0007
2228.00,0.0007
2227.00,0.0007
2226.00,0.0006
2225.00,0.0006
2224.00,0.0005
2223.00,0.0004
2222.00,0.0004
2221.00,0.0004
2220.00,0.0005
2219.00,0.0005
2218.00,0.0005
2217.00,0.0004
2216.00,0.0005
2215.00,0.0006
2214.00,0.0007
2213.00,0.0007
2212.00,0.0006
2211.00,0.0006
2210.00,0.0005
2209.00,0.0006
2208.00,0.0005
2207.00,0.0004
2206.00,0.0004
2205.00,0.0005
2204.00,0.0005
2203.00,0.0006
2202.00,0.0007
2201.00,0.0008
2200.00,0.0008
2199.00,0.0006
2198.00,0.0005
2197.00,0.0005
2196.00,0.0006
2195.00,0.0008
2194.00,0.0009
2193.00,0.0011
2192.00,0.0013
2191.00,0.0014
2190.00,0.0013
2189.00,0.0012
2188.00,0.0011
2187.00,0.0011
2186.00,0.0011
2185.00,0.0010
2184.00,0.0007
2183.00,0.0004
2182.00,0.0002
2181.00,0.0001
2180.00,0.0002
2179.00,0.0003
2178.00,0.0004
2177.00,0.0005
2176.00,0.0004
2175.00,0.0003
2174.00,0.0002
2173.00,0.0002
2172.00,0.0003
2171.00,0.0004
2170.00,0.0006
2169.00,0.0009
2168.00,0.0012
2167.00,0.0012
2166.00,0.0010
2165.00,0.0007
2164.00,0.0006
2163.00,0.0006
2162.00,0.0009
2161.00,0.0009
2160.00,0.0003
2159.00,-0.0008
2158.00,-0.0019
2157.00,-0.0024
2156.00,-0.0024
2155.00,-0.0021
2154.00,-0.0019
2153.00,-0.0016
2152.00,-0.0013
2151.00,-0.0011
2150.00,-0.0010
2149.00,-0.0010
2148.00,-0.0009
2147.00,-0.0009
2146.00,-0.0009
2145.00,-0.0010
2144.00,-0.0013
2143.00,-0.0015
2142.00,-0.0016
2141.00,-0.0014
2140.00,-0.0013
2139.00,-0.0012
2138.00,-0.0012
2137.00,-0.0012
2136.00,-0.0014
2135.00,-0.0016
2134.00,-0.0017
2133.00,-0.0017
2132.00,-0.0016
2131.00,-0.0015
2130.00,-0.0013
2129.00,-0.0011
2128.00,-0.0009
2127.00,-0.0008
2126.00,-0.0007
2125.00,-0.0006
2124.00,-0.0006
2123.00,-0.0005
2122.00,-0.0004
2121.00,-0.0004
2120.00,-0.0004
2119.00,-0.0004
2118.00,-0.0003
2117.00,-0.0001
2116.00,0.0001
2115.00,0.0002
2114.00,0.0003
2113.00,0.0003
2112.00,0.0004
2111.00,0.0004
2110.00,0.0004
2109.00,0.0004
2108.00,0.0004
2107.00,0.0003
2106.00,0.0002
2105.00,0.0002
2104.00,0.0002
2103.00,0.0003
2102.00,0.0003
2101.00,0.0003
2100.00,0.0002
2099.00,0.0002
2098.00,0.0001
2097.00,-0.0001
2096.00,-0.0003
2095.00,-0.0005
2094.00,-0.0007
2093.00,-0.0006
2092.00,-0.0005
2091.00,-0.0003
2090.00,-0.0002
2089.00,-0.0001
2088.00,0.0000
2087.00,0.0002
2086.00,0.0004
2085.00,0.0006
2084.00,0.0007
2083.00,0.0006
2082.00,0.0006
2081.00,0.0006
2080.00,0.0006
2079.00,0.0007
2078.00,0.0007
2077.00,0.0006
2076.00,0.0005
2075.00,0.0004
2074.00,0.0003
2073.00,0.0002
2072.00,0.0002
2071.00,0.0002
2070.00,0.0003
2069.00,0.0003
2068.00,0.0003
2067.00,0.0002
2066.00,0.0001
2065.00,-0.0000
2064.00,-0.0001
2063.00,0.0000
2062.00,0.0002
2061.00,0.0003
2060.00,0.0004
2059.00,0.0003
2058.00,0.0002
2057.00,0.0001
2056.00,0.0001
2055.00,0.0002
2054.00,0.0004
2053.00,0.0007
2052.00,0.0011
2051.00,0.0014
2050.00,0.0014
2049.00,0.0012
2048.00,0.0010
2047.00,0.0008
2046.00,0.0005
2045.00,0.0003
2044.00,0.0003
2043.00,0.0004
2042.00,0.0005
2041.00,0.0006
2040.00,0.0006
2039.00,0.0006
2038.00,0.0005
2037.00,0.0002
2036.00,-0.0002
2035.00,-0.0004
2034.00,-0.0005
2033.00,-0.0004
2032.00,-0.0002
2031.00,-0.0001
2030.00,-0.0002
2029.00,-0.0004
2028.00,-0.0007
2027.00,-0.0010
2026.00,-0.0012
2025.00,-0.0012
2024.00,-0.0010
2023.00,-0.0008
2022.00,-0.0006
2021.00,-0.0005
2020.00,-0.0005
2019.00,-0.0004
2018.00,-0.0004
2017.00,-0.0004
2016.00,-0.0006
2015.00,-0.0009
2014.00,-0.0013
2013.00,-0.0015
2012.00,-0.0013
2011.00,-0.0011
2010.00,-0.0009
2009.00,-0.0008
2008.00,-0.0008
2007.00,-0.0009
2006.00,-0.0011
2005.00,-0.0012
2004.00,-0.0013
2003.00,-0.0014
2002.00,-0.0013
2001.00,-0.0011
2000.00,-0.0008
1999.00,-0.0004
1998.00,-0.0001
1997.00,-0.0001
1996.00,-0.0002
1995.00,-0.0003
1994.00,-0.0004
1993.00,-0.0003
1992.00,-0.0002
1991.00,-0.0003
1990.00,-0.0005
1989.00,-0.0006
1988.00,-0.0005
1987.00,-0.0004
1986.00,-0.0002
1985.00,-0.0000
1984.00,0.0001
1983.00,0.0002
1982.00,0.0005
1981.00,0.0008
1980.00,0.0009
1979.00,0.0006
1978.00,-0.0001
1977.00,-0.0007
1976.00,-0.0009
1975.00,-0.0009
1974.00,-0.0009
1973.00,-0.0010
1972.00,-0.0010
1971.00,-0.0011
1970.00,-0.0013
1969.00,-0.0016
1968.00,-0.0018
1967.00,-0.0019
1966.00,-0.0017
1965.00,-0.0014
1964.00,-0.0011
1963.00,-0.0009
1962.00,-0.0010
1961.00,-0.0011
1960.00,-0.0014
1959.00,-0.0016
1958.00,-0.0017
1957.00,-0.0016
1956.00,-0.0013
1955.00,-0.0012
1954.00,-0.0013
1953.00,-0.0014
1952.00,-0.0014
1951.00,-0.0013
1950.00,-0.0012
1949.00,-0.0012
1948.00,-0.0013
1947.00,-0.0014
1946.00,-0.0015
1945.00,-0.0015
1944.00,-0.0014
1943.00,-0.0012
1942.00,-0.0011
1941.00,-0.0011
1940.00,-0.0011
1939.00,-0.0011
1938.00,-0.0011
1937.00,-0.0010
1936.00,-0.0010
1935.00,-0.0009
1934.00,-0.0009
1933.00,-0.0009
1932.00,-0.0009
1931.00,-0.0009
1930.00,-0.0009
1929.00,-0.0007
1928.00,-0.0006
1927.00,-0.0006
1926.00,-0.0007
1925.00,-0.0009
1924.00,-0.0009
1923.00,-0.0008
1922.00,-0.0006
1921.00,-0.0004
1920.00,-0.0003
1919.00,-0.0002
1918.00,-0.0002
1917.00,-0.0002
1916.00,-0.0001
1915.00,-0.0001
1914.00,-0.0001
1913.00,-0.0001
1912.00,-0.0000
1911.00,0.0000
1910.00,0.0000
1909.00,-0.0000
1908.00,-0.0002
1907.00,-0.0003
1906.00,-0.0003
1905.00,-0.0003
1904.00,-0.0003
1903.00,-0.0004
1902.00,-0.0003
1901.00,-0.0002
1900.00,-0.0001
1899.00,-0.0001
1898.00,-0.0001
1897.00,-0.0002
1896.00,-0.0002
1895.00,-0.0001
1894.00,-0.0001
1893.00,-0.0001
1892.00,-0.0001
1891.00,-0.0001
1890.00,-0.0001
1889.00,-0.0000
1888.00,-0.0000
1887.00,-0.0000
1886.00,-0.0000
1885.00,-0.0000
1884.00,0.0000
1883.00,-0.0000
1882.00,-0.0001
1881.00,-0.0001
1880.00,-0.0001
1879.00,-0.0001
1878.00,-0.0001
1877.00,-0.0001
1876.00,-0.0001
1875.00,-0.0000
1874.00,0.0000
1873.00,-0.0000
1872.00,-0.0001
1871.00,-0.0001
1870.00,-0.0001
1869.00,-0.0000
1868.00,0.0001
1867.00,0.0001
1866.00,0.0001
1865.00,0.0001
1864.00,0.0002
1863.00,0.0002
1862.00,0.0002
1861.00,0.0002
1860.00,0.0002
1859.00,0.0001
1858.00,0.0001
1857.00,0.0001
1856.00,0.0002
1855.00,0.0002
1854.00,0.0002
1853.00,0.0002
1852.00,0.0002
1851.00,0.0003
1850.00,0.0002
1849.00,0.0002
1848.00,0.0002
1847.00,0.0002
1846.00,0.0002
1845.00,0.0003
1844.00,0.0004
1843.00,0.0004
1842.00,0.0004
1841.00,0.0003
1840.00,0.0003
1839.00,0.0003
1838.00,0.0003
1837.00,0.0003
1836.00,0.0002
1835.00,0.0002
1834.00,0.0002
1833.00,0.0003
1832.00,0.0004
1831.00,0.0005
1830.00,0.0005
1829.00,0.0005
1828.00,0.0006
1827.00,0.0005
1826.00,0.0005
1825.00,0.0004
1824.00,0.0004
1823.00,0.0003
1822.00,0.0003
1821.00,0.0003
1820.00,0.0002
1819.00,0.0001
1818.00,0.0000
1817.00,0.0000
1816.00,0.0000
1815.00,0.0001
1814.00,0.0001
1813.00,0.0001
1812.00,0.0001
1811.00,0.0001
1810.00,0.0002
1809.00,0.0003
1808.00,0.0004
1807.00,0.0004
1806.00,0.0004
1805.00,0.0005
1804.00,0.0005
1803.00,0.0005
1802.00,0.0006
1801.00,0.0006
1800.00,0.0006
1799.00,0.0007
1798.00,0.0007
1797.00,0.0007
1796.00,0.0007
1795.00,0.0006
1794.00,0.0006
1793.00,0.0006
1792.00,0.0006
1791.00,0.0007
1790.00,0.0007
1789.00,0.0008
1788.00,0.0008
1787.00,0.0008
1786.00,0.0008
1785.00,0.0008
1784.00,0.0008
1783.00,0.0008
1782.00,0.0008
1781.00,0.0008
1780.00,0.0009
1779.00,0.0009
1778.00,0.0009
1777.00,0.0009
1776.00,0.0009
1775.00,0.0009
1774.00,0.0009
1773.00,0.0009
1772.00,0.0009
1771.00,0.0010
1770.00,0.0010
1769.00,0.0011
1768.00,0.0011
1767.00,0.0011
1766.00,0.0011
1765.00,0.0011
1764.00,0.0011
1763.00,0.0011
1762.00,0.0011
1761.00,0.0012
1760.00,0.0013
1759.00,0.0014
1758.00,0.0014
1757.00,0.0015
1756.00,0.0016
1755.00,0.0016
1754.00,0.0017
1753.00,0.0018
1752.00,0.0018
1751.00,0.0019
1750.00,0.0020
1749.00,0.0021
1748.00,0.0023
1747.00,0.0024
1746.00,0.0025
1745.00,0.0026
1744.00,0.0027
1743.00,0.0028
1742.00,0.0029
1741.00,0.0029
1740.00,0.0029
1739.00,0.0030
1738.00,0.0030
1737.00,0.0031
1736.00,0.0031
1735.00,0.0031
1734.00,0.0030
1733.00,0.0030
1732.00,0.0030
1731.00,0.0030
1730.00,0.0030
1729.00,0.0030
1728.00,0.0030
1727.00,0.0030
1726.00,0.0030
1725.00,0.0030
1724.00,0.0029
1723.00,0.0029
1722.00,0.0028
1721.00,0.0028
1720.00,0.0028
1719.00,0.0028
1718.00,0.0027
1717.00,0.0027
1716.00,0.0027
1715.00,0.0026
1714.00,0.0025
1713.00,0.0025
1712.00,0.0025
1711.00,0.0025
1710.00,0.0025
1709.00,0.0025
1708.00,0.0026
1707.00,0.0025
1706.00,0.0025
1705.00,0.0025
1704.00,0.0026
1703.00,0.0026
1702.00,0.0027
1701.00,0.0027
1700.00,0.0027
1699.00,0.0027
1698.00,0.0028
1697.00,0.0028
1696.00,0.0029
1695.00,0.0029
1694.00,0.0030
1693.00,0.0030
1692.00,0.0031
1691.00,0.0032
1690.00,0.0033
1689.00,0.0033
1688.00,0.0034
1687.00,0.0035
1686.00,0.0036
1685.00,0.0036
1684.00,0.0036
1683.00,0.0037
1682.00,0.0037
1681.00,0.0037
1680.00,0.0038
1679.00,0.0038
1678.00,0.0038
1677.00,0.0039
1676.00,0.0040
1675.00,0.0040
1674.00,0.0041
1673.00,0.0041
1672.00,0.0042
1671.00,0.0042
1670.00,0.0042
1669.00,0.0044
1668.00,0.0044
1667.00,0.0045
1666.00,0.0045
1665.00,0.0045
1664.00,0.0046
1663.00,0.0047
1662.00,0.0048
1661.00,0.0048
1660.00,0.0049
1659.00,0.0049
1658.00,0.0050
1657.00,0.0050
1656.00,0.0051
1655.00,0.0051
1654.00,0.0051
1653.00,0.0052
1652.00,0.0054
1651.00,0.0055
1650.00,0.0055
1649.00,0.0056
1648.00,0.0056
1647.00,0.0057
1646.00,0.0058
1645.00,0.0059
1644.00,0.0059
1643.00,0.0059
1642.00,0.0060
1641.00,0.0060
1640.00,0.0061
1639.00,0.0062
1638.00,0.0063
1637.00,0.0063
1636.00,0.0063
1635.00,0.0063
1634.00,0.0063
1633.00,0.0063
1632.00,0.0062
1631.00,0.0062
1630.00,0.0062
1629.00,0.0062
1628.00,0.0062
1627.00,0.0062
1626.00,0.0061
1625.00,0.0060
1624.00,0.0060
1623.00,0.0059
1622.00,0.0058
1621.00,0.0058
1620.00,0.0058
1619.00,0.0057
1618.00,0.0056
1617.00,0.0055
1616.00,0.0055
1615.00,0.0055
1614.00,0.0056
1613.00,0.0057
1612.00,0.0057
1611.00,0.0057
1610.00,0.0056
1609.00,0.0056
1608.00,0.0056
1607.00,0.0056
1606.00,0.0056
1605.00,0.0056
1604.00,0.0057
1603.00,0.0057
1602.00,0.0057
1601.00,0.0057
1600.00,0.0056
1599.00,0.0056
1598.00,0.0056
1597.00,0.0056
1596.00,0.0056
1595.00,0.0057
1594.00,0.0057
1593.00,0.0058
1592.00,0.0058
1591.00,0.0059
1590.00,0.0060
1589.00,0.0062
1588.00,0.0064
1587.00,0.0066
1586.00,0.0069
1585.00,0.0073
1584.00,0.0076
1583.00,0.0080
1582.00,0.0084
1581.00,0.0089
1580.00,0.0093
1579.00,0.0096
1578.00,0.0099
1577.00,0.0100
1576.00,0.0099
1575.00,0.0097
1574.00,0.0095
1573.00,0.0093
1572.00,0.0091
1571.00,0.0088
1570.00,0.0084
1569.00,0.0080
1568.00,0.0077
1567.00,0.0076
1566.00,0.0075
1565.00,0.0074
1564.00,0.0073
1563.00,0.0073
1562.00,0.0073
1561.00,0.0074
1560.00,0.0073
1559.00,0.0071
1558.00,0.0070
1557.00,0.0071
1556.00,0.0073
1555.00,0.0074
1554.00,0.0076
1553.00,0.0077
1552.00,0.0079
1551.00,0.0081
1550.00,0.0083
1549.00,0.0086
1548.00,0.0090
1547.00,0.0093
1546.00,0.0097
1545.00,0.0101
1544.00,0.0106
1543.00,0.0110
1542.00,0.0112
1541.00,0.0112
1540.00,0.0110
1539.00,0.0106
1538.00,0.0102
1537.00,0.0098
1536.00,0.0095
1535.00,0.0090
1534.00,0.0084
1533.00,0.0079
1532.00,0.0075
1531.00,0.0073
1530.00,0.0071
1529.00,0.0069
1528.00,0.0068
1527.00,0.0067
1526.00,0.0065
1525.00,0.0065
1524.00,0.0065
1523.00,0.0065
1522.00,0.0065
1521.00,0.0065
1520.00,0.0066
1519.00,0.0066
1518.00,0.0065
1517.00,0.0066
1516.00,0.0066
1515.00,0.0066
1514.00,0.0066
1513.00,0.0066
1512.00,0.0067
1511.00,0.0067
1510.00,0.0067
1509.00,0.0067
1508.00,0.0069
1507.00,0.0069
1506.00,0.0069
1505.00,0.0070
1504.00,0.0072
1503.00,0.0074
1502.00,0.0075
1501.00,0.0078
1500.00,0.0080
1499.00,0.0082
1498.00,0.0084
1497.00,0.0087
1496.00,0.0091
1495.00,0.0095
1494.00,0.0097
1493.00,0.0100
1492.00,0.0105
1491.00,0.0109
1490.00,0.0113
1489.00,0.0119
1488.00,0.0125
1487.00,0.0131
1486.00,0.0138
1485.00,0.0146
1484.00,0.0155
1483.00,0.0164
1482.00,0.0175
1481.00,0.0188
1480.00,0.0202
1479.00,0.0217
1478.00,0.0233
1477.00,0.0256
1476.00,0.0282
1475.00,0.0313
1474.00,0.0354
1473.00,0.0412
1472.00,0.0479
1471.00,0.0544
1470.00,0.0606
1469.00,0.0673
1468.00,0.0745
1467.00,0.0824
1466.00,0.0913
1465.00,0.1009
1464.00,0.1092
1463.00,0.1149
1462.00,0.1183
1461.00,0.1204
1460.00,0.1216
1459.00,0.1222
1458.00,0.1223
1457.00,0.1220
1456.00,0.1210
1455.00,0.1194
1454.00,0.1175
1453.00,0.1150
1452.00,0.1117
1451.00,0.1073
1450.00,0.1018
1449.00,0.0945
1448.00,0.0857
1447.00,0.0766
1446.00,0.0686
1445.00,0.0619
1444.00,0.0562
1443.00,0.0516
1442.00,0.0481
1441.00,0.0458
1440.00,0.0444
1439.00,0.0441
1438.00,0.0446
1437.00,0.0452
1436.00,0.0446
1435.00,0.0424
1434.00,0.0390
1433.00,0.0347
1432.00,0.0302
1431.00,0.0261
1430.00,0.0229
1429.00,0.0205
1428.00,0.0188
1427.00,0.0178
1426.00,0.0172
1425.00,0.0166
1424.00,0.0160
1423.00,0.0156
1422.00,0.0154
1421.00,0.0151
1420.00,0.0148
1419.00,0.0145
1418.00,0.0142
1417.00,0.0139
1416.00,0.0135
1415.00,0.0133
1414.00,0.0131
1413.00,0.0128
1412.00,0.0125
1411.00,0.0123
1410.00,0.0123
1409.00,0.0122
1408.00,0.0120
1407.00,0.0120
1406.00,0.0119
1405.00,0.0118
1404.00,0.0116
1403.00,0.0116
1402.00,0.0117
1401.00,0.0117
1400.00,0.0117
1399.00,0.0118
1398.00,0.0120
1397.00,0.0121
1396.00,0.0122
1395.00,0.0125
1394.00,0.0129
1393.00,0.0133
1392.00,0.0138
1391.00,0.0145
1390.00,0.0154
1389.00,0.0168
1388.00,0.0187
1387.00,0.0218
1386.00,0.0259
1385.00,0.0314
1384.00,0.0391
1383.00,0.0499
1382.00,0.0648
1381.00,0.0844
1380.00,0.1092
1379.00,0.1380
1378.00,0.1665
1377.00,0.1883
1376.00,0.1967
1375.00,0.1880
1374.00,0.1647
1373.00,0.1358
1372.00,0.1090
1371.00,0.0869
1370.00,0.0693
1369.00,0.0560
1368.00,0.0470
1367.00,0.0415
1366.00,0.0385
1365.00,0.0373
1364.00,0.0376
1363.00,0.0391
1362.00,0.0414
1361.00,0.0438
1360.00,0.0456
1359.00,0.0462
1358.00,0.0451
1357.00,0.0425
1356.00,0.0388
1355.00,0.0346
1354.00,0.0306
1353.00,0.0271
1352.00,0.0243
1351.00,0.0221
1350.00,0.0202
1349.00,0.0187
1348.00,0.0174
1347.00,0.0163
1346.00,0.0154
1345.00,0.0146
1344.00,0.0140
1343.00,0.0135
1342.00,0.0131
1341.00,0.0128
1340.00,0.0125
1339.00,0.0124
1338.00,0.0123
1337.00,0.0122
1336.00,0.0123
1335.00,0.0124
1334.00,0.0127
1333.00,0.0131
1332.00,0.0135
1331.00,0.0139
1330.00,0.0141
1329.00,0.0139
1328.00,0.0136
1327.00,0.0130
1326.00,0.0124
1325.00,0.0119
1324.00,0.0113
1323.00,0.0109
1322.00,0.0105
1321.00,0.0102
1320.00,0.0100
1319.00,0.0098
1318.00,0.0097
1317.00,0.0095
1316.00,0.0093
1315.00,0.0092
1314.00,0.0092
1313.00,0.0092
1312.00,0.0093
1311.00,0.0094
1310.00,0.0097
1309.00,0.0101
1308.00,0.0107
1307.00,0.0114
1306.00,0.0122
1305.00,0.0127
1304.00,0.0130
1303.00,0.0130
1302.00,0.0128
1301.00,0.0127
1300.00,0.0127
1299.00,0.0128
1298.00,0.0131
1297.00,0.0132
1296.00,0.0131
1295.00,0.0129
1294.00,0.0125
1293.00,0.0120
1292.00,0.0115
1291.00,0.0110
1290.00,0.0105
1289.00,0.0101
1288.00,0.0098
1287.00,0.0095
1286.00,0.0093
1285.00,0.0092
1284.00,0.0090
1283.00,0.0089
1282.00,0.0088
1281.00,0.0086
1280.00,0.0085
1279.00,0.0084
1278.00,0.0083
1277.00,0.0083
1276.00,0.0083
1275.00,0.0082
1274.00,0.0082
1273.00,0.0082
1272.00,0.0082
1271.00,0.0082
1270.00,0.0082
1269.00,0.0082
1268.00,0.0083
1267.00,0.0085
1266.00,0.0087
1265.00,0.0088
1264.00,0.0090
1263.00,0.0092
1262.00,0.0094
1261.00,0.0097
1260.00,0.0101
1259.00,0.0105
1258.00,0.0110
1257.00,0.0113
1256.00,0.0114
1255.00,0.0113
1254.00,0.0109
1253.00,0.0104
1252.00,0.0098
1251.00,0.0094
1250.00,0.0091
1249.00,0.0089
1248.00,0.0088
1247.00,0.0087
1246.00,0.0086
1245.00,0.0084
1244.00,0.0083
1243.00,0.0082
1242.00,0.0081
1241.00,0.0080
1240.00,0.0080
1239.00,0.0080
1238.00,0.0080
1237.00,0.0080
1236.00,0.0081
1235.00,0.0082
1234.00,0.0083
1233.00,0.0084
1232.00,0.0086
1231.00,0.0086
1230.00,0.0087
1229.00,0.0088
1228.00,0.0089
1227.00,0.0091
1226.00,0.0094
1225.00,0.0097
1224.00,0.0100
1223.00,0.0105
1222.00,0.0109
1221.00,0.0112
1220.00,0.0114
1219.00,0.0114
1218.00,0.0114
1217.00,0.0111
1216.00,0.0108
1215.00,0.0105
1214.00,0.0102
1213.00,0.0099
1212.00,0.0096
1211.00,0.0095
1210.00,0.0093
1209.00,0.0091
1208.00,0.0090
1207.00,0.0088
1206.00,0.0087
1205.00,0.0086
1204.00,0.0086
1203.00,0.0087
1202.00,0.0087
1201.00,0.0088
1200.00,0.0088
1199.00,0.0088
1198.00,0.0089
1197.00,0.0089
1196.00,0.0090
1195.00,0.0090
1194.00,0.0090
1193.00,0.0090
1192.00,0.0090
1191.00,0.0089
1190.00,0.0089
1189.00,0.0088
1188.00,0.0088
1187.00,0.0088
1186.00,0.0087
1185.00,0.0088
1184.00,0.0088
1183.00,0.0089
1182.00,0.0090
1181.00,0.0091
1180.00,0.0092
1179.00,0.0095
1178.00,0.0099
1177.00,0.0104
1176.00,0.0112
1175.00,0.0122
1174.00,0.0136
1173.00,0.0152
1172.00,0.0171
1171.00,0.0191
1170.00,0.0211
1169.00,0.0227
1168.00,0.0238
1167.00,0.0241
1166.00,0.0238
1165.00,0.0230
1164.00,0.0220
1163.00,0.0210
1162.00,0.0202
1161.00,0.0196
1160.00,0.0190
1159.00,0.0187
1158.00,0.0184
1157.00,0.0183
1156.00,0.0183
1155.00,0.0183
1154.00,0.0183
1153.00,0.0181
1152.00,0.0178
1151.00,0.0173
1150.00,0.0165
1149.00,0.0156
1148.00,0.0147
1147.00,0.0138
1146.00,0.0130
1145.00,0.0122
1144.00,0.0116
1143.00,0.0110
1142.00,0.0105
1141.00,0.0101
1140.00,0.0097
1139.00,0.0093
1138.00,0.0089
1137.00,0.0086
1136.00,0.0084
1135.00,0.0082
1134.00,0.0081
1133.00,0.0080
1132.00,0.0080
1131.00,0.0079
1130.00,0.0080
1129.00,0.0081
1128.00,0.0082
1127.00,0.0083
1126.00,0.0084
1125.00,0.0084
1124.00,0.0085
1123.00,0.0086
1122.00,0.0087
1121.00,0.0088
1120.00,0.0088
1119.00,0.0089
1118.00,0.0091
1117.00,0.0091
1116.00,0.0092
1115.00,0.0093
1114.00,0.0094
1113.00,0.0096
1112.00,0.0097
1111.00,0.0099
1110.00,0.0102
1109.00,0.0105
1108.00,0.0110
1107.00,0.0115
1106.00,0.0122
1105.00,0.0128
1104.00,0.0134
1103.00,0.0137
1102.00,0.0137
1101.00,0.0133
1100.00,0.0128
1099.00,0.0121
1098.00,0.0114
1097.00,0.0108
1096.00,0.0103
1095.00,0.0100
1094.00,0.0096
1093.00,0.0093
1092.00,0.0090
1091.00,0.0088
1090.00,0.0086
1089.00,0.0086
1088.00,0.0085
1087.00,0.0084
1086.00,0.0084
1085.00,0.0083
1084.00,0.0083
1083.00,0.0082
1082.00,0.0082
1081.00,0.0081
1080.00,0.0079
1079.00,0.0078
1078.00,0.0077
1077.00,0.0076
1076.00,0.0075
1075.00,0.0075
1074.00,0.0074
1073.00,0.0073
1072.00,0.0073
1071.00,0.0073
1070.00,0.0074
1069.00,0.0074
1068.00,0.0073
1067.00,0.0073
1066.00,0.0074
1065.00,0.0075
1064.00,0.0077
1063.00,0.0078
1062.00,0.0079
1061.00,0.0079
1060.00,0.0078
1059.00,0.0079
1058.00,0.0080
1057.00,0.0081
1056.00,0.0083
1055.00,0.0085
1054.00,0.0087
1053.00,0.0090
1052.00,0.0094
1051.00,0.0097
1050.00,0.0100
1049.00,0.0104
1048.00,0.0107
1047.00,0.0111
1046.00,0.0115
1045.00,0.0118
1044.00,0.0119
1043.00,0.0118
1042.00,0.0117
1041.00,0.0116
1040.00,0.0116
1039.00,0.0117
1038.00,0.0118
1037.00,0.0119
1036.00,0.0119
1035.00,0.0118
1034.00,0.0116
1033.00,0.0115
1032.00,0.0113
1031.00,0.0113
1030.00,0.0113
1029.00,0.0113
1028.00,0.0114
1027.00,0.0115
1026.00,0.0116
1025.00,0.0118
1024.00,0.0119
1023.00,0.0121
1022.00,0.0122
1021.00,0.0124
1020.00,0.0125
1019.00,0.0126
1018.00,0.0128
1017.00,0.0130
1016.00,0.0131
1015.00,0.0133
1014.00,0.0134
1013.00,0.0134
1012.00,0.0134
1011.00,0.0133
1010.00,0.0132
1009.00,0.0132
1008.00,0.0132
1007.00,0.0134
1006.00,0.0137
1005.00,0.0142
1004.00,0.0151
1003.00,0.0165
1002.00,0.0184
1001.00,0.0207
1000.00,0.0231
999.00,0.0249
998.00,0.0256
997.00,0.0249
996.00,0.0230
995.00,0.0205
994.00,0.0179
993.00,0.0156
992.00,0.0138
991.00,0.0125
990.00,0.0117
989.00,0.0111
988.00,0.0108
987.00,0.0107
986.00,0.0107
985.00,0.0107
984.00,0.0110
983.00,0.0115
982.00,0.0124
981.00,0.0137
980.00,0.0155
979.00,0.0179
978.00,0.0207
977.00,0.0239
976.00,0.0270
975.00,0.0297
974.00,0.0315
973.00,0.0318
972.00,0.0303
971.00,0.0274
970.00,0.0237
969.00,0.0201
968.00,0.0171
967.00,0.0149
966.00,0.0132
965.00,0.0120
964.00,0.0111
963.00,0.0104
962.00,0.0098
961.00,0.0094
960.00,0.0089
959.00,0.0086
958.00,0.0082
957.00,0.0080
956.00,0.0078
955.00,0.0077
954.00,0.0076
953.00,0.0075
952.00,0.0074
951.00,0.0073
950.00,0.0073
949.00,0.0073
948.00,0.0074
947.00,0.0075
946.00,0.0077
945.00,0.0079
944.00,0.0083
943.00,0.0087
942.00,0.0090
941.00,0.0092
940.00,0.0092
939.00,0.0089
938.00,0.0085
937.00,0.0080
936.00,0.0074
935.00,0.0070
934.00,0.0067
933.00,0.0065
932.00,0.0064
931.00,0.0063
930.00,0.0063
929.00,0.0062
928.00,0.0062
927.00,0.0062
926.00,0.0063
925.00,0.0063
924.00,0.0063
923.00,0.0062
922.00,0.0061
921.00,0.0062
920.00,0.0063
919.00,0.0064
918.00,0.0066
917.00,0.0066
916.00,0.0066
915.00,0.0067
914.00,0.0067
913.00,0.0068
912.00,0.0070
911.00,0.0071
910.00,0.0072
909.00,0.0074
908.00,0.0078
907.00,0.0083
906.00,0.0091
905.00,0.0101
904.00,0.0116
903.00,0.0136
902.00,0.0158
901.00,0.0177
900.00,0.0188
899.00,0.0189
898.00,0.0180
897.00,0.0163
896.00,0.0144
895.00,0.0125
894.00,0.0109
893.00,0.0098
892.00,0.0090
891.00,0.0085
890.00,0.0082
889.00,0.0079
888.00,0.0078
887.00,0.0077
886.00,0.0076
885.00,0.0074
884.00,0.0072
883.00,0.0072
882.00,0.0072
881.00,0.0074
880.00,0.0075
879.00,0.0075
878.00,0.0075
877.00,0.0075
876.00,0.0076
875.00,0.0077
874.00,0.0078
873.00,0.0078
872.00,0.0076
871.00,0.0075
870.00,0.0073
869.00,0.0073
868.00,0.0074
867.00,0.0075
866.00,0.0077
865.00,0.0078
864.00,0.0079
863.00,0.0080
862.00,0.0081
861.00,0.0082
860.00,0.0082
859.00,0.0082
858.00,0.0082
857.00,0.0082
856.00,0.0084
855.00,0.0086
854.00,0.0089
853.00,0.0093
852.00,0.0096
851.00,0.0100
850.00,0.0103
849.00,0.0106
848.00,0.0110
847.00,0.0116
846.00,0.0128
845.00,0.0149
844.00,0.0177
843.00,0.0208
842.00,0.0232
841.00,0.0237
840.00,0.0222
839.00,0.0193
838.00,0.0162
837.00,0.0137
836.00,0.0121
835.00,0.0111
834.00,0.0105
833.00,0.0101
832.00,0.0099
831.00,0.0098
830.00,0.0098
829.00,0.0098
828.00,0.0097
827.00,0.0096
826.00,0.0094
825.00,0.0093
824.00,0.0092
823.00,0.0092
822.00,0.0094
821.00,0.0096
820.00,0.0098
819.00,0.0101
818.00,0.0105
817.00,0.0111
816.00,0.0120
815.00,0.0132
814.00,0.0148
813.00,0.0166
812.00,0.0187
811.00,0.0207
810.00,0.0221
809.00,0.0227
808.00,0.0223
807.00,0.0210
806.00,0.0191
805.00,0.0171
804.00,0.0154
803.00,0.0139
802.00,0.0128
801.00,0.0120
800.00,0.0114
799.00,0.0109
798.00,0.0105
797.00,0.0101
796.00,0.0098
795.00,0.0095
794.00,0.0092
793.00,0.0089
792.00,0.0085
791.00,0.0082
790.00,0.0079
789.00,0.0076
788.00,0.0074
787.00,0.0072
786.00,0.0070
785.00,0.0069
784.00,0.0069
783.00,0.0070
782.00,0.0072
781.00,0.0072
780.00,0.0071
779.00,0.0068
778.00,0.0065
777.00,0.0063
776.00,0.0063
775.00,0.0063
774.00,0.0063
773.00,0.0064
772.00,0.0064
771.00,0.0064
770.00,0.0063
769.00,0.0063
768.00,0.0064
767.00,0.0065
766.00,0.0066
765.00,0.0066
764.00,0.0066
763.00,0.0066
762.00,0.0068
761.00,0.0071
760.00,0.0073
759.00,0.0075
758.00,0.0075
757.00,0.0074
756.00,0.0074
755.00,0.0073
754.00,0.0074
753.00,0.0075
752.00,0.0078
751.00,0.0080
750.00,0.0083
749.00,0.0084
748.00,0.0084
747.00,0.0085
746.00,0.0087
745.00,0.0089
744.00,0.0092
743.00,0.0094
742.00,0.0096
741.00,0.0098
740.00,0.0101
739.00,0.0105
738.00,0.0108
737.00,0.0112
736.00,0.0115
735.00,0.0119
734.00,0.0123
733.00,0.0131
732.00,0.0139
731.00,0.0148
730.00,0.0155
729.00,0.0158
728.00,0.0160
727.00,0.0161
726.00,0.0163
725.00,0.0165
724.00,0.0170
723.00,0.0177
722.00,0.0184
721.00,0.0189
720.00,0.0189
719.00,0.0182
718.00,0.0169
717.00,0.0154
716.00,0.0141
715.00,0.0129
714.00,0.0121
713.00,0.0116
712.00,0.0113
711.00,0.0113
710.00,0.0113
709.00,0.0113
708.00,0.0111
707.00,0.0110
706.00,0.0108
705.00,0.0106
704.00,0.0104
703.00,0.0103
702.00,0.0102
701.00,0.0101
700.00,0.0101
699.00,0.0099
698.00,0.0096
697.00,0.0093
696.00,0.0091
695.00,0.0091
694.00,0.0093
693.00,0.0096
692.00,0.0099
691.00,0.0102
690.00,0.0102
689.00,0.0101
688.00,0.0097
687.00,0.0095
686.00,0.0095
685.00,0.0097
684.00,0.0100
683.00,0.0103
682.00,0.0104
681.00,0.0103
680.00,0.0102
679.00,0.0100
678.00,0.0100
677.00,0.0102
676.00,0.0104
675.00,0.0105
674.00,0.0106
673.00,0.0106
672.00,0.0106
671.00,0.0106
670.00,0.0105
669.00,0.0103
668.00,0.0101
667.00,0.0100
666.00,0.0099
665.00,0.0099
664.00,0.0098
663.00,0.0096
662.00,0.0092
661.00,0.0089
660.00,0.0087
659.00,0.0086
658.00,0.0086
657.00,0.0087
656.00,0.0087
655.00,0.0087
654.00,0.0088
653.00,0.0089
652.00,0.0090
651.00,0.0091
650.00,0.0091
649.00,0.0090
648.00,0.0088
647.00,0.0086
646.00,0.0085
645.00,0.0085
644.00,0.0085
643.00,0.0085
642.00,0.0086
641.00,0.0086
640.00,0.0085
639.00,0.0084
638.00,0.0083
637.00,0.0082
636.00,0.0083
635.00,0.0085
634.00,0.0086
633.00,0.0085
632.00,0.0083
631.00,0.0081
630.00,0.0081
629.00,0.0081
628.00,0.0083
627.00,0.0085
626.00,0.0087
625.00,0.0089
624.00,0.0089
623.00,0.0088
622.00,0.0086
621.00,0.0085
620.00,0.0085
619.00,0.0085
618.00,0.0087
617.00,0.0089
616.00,0.0090
615.00,0.0090
614.00,0.0089
613.00,0.0089
612.00,0.0089
611.00,0.0089
610.00,0.0088
609.00,0.0086
608.00,0.0085
607.00,0.0085
606.00,0.0085
605.00,0.0084
604.00,0.0082
603.00,0.0080
602.00,0.0077
601.00,0.0076
600.00,0.0076
599.00,0.0076
598.00,0.0075
597.00,0.0075
596.00,0.0076
595.00,0.0080
594.00,0.0083
593.00,0.0083
592.00,0.0080
591.00,0.0078
590.00,0.0078
589.00,0.0081
588.00,0.0085
587.00,0.0089
586.00,0.0091
585.00,0.0090
584.00,0.0089
583.00,0.0087
582.00,0.0084
581.00,0.0082
580.00,0.0079
579.00,0.0077
578.00,0.0076
577.00,0.0077
576.00,0.0078
575.00,0.0081
574.00,0.0084
573.00,0.0085
572.00,0.0085
571.00,0.0085
570.00,0.0086
569.00,0.0088
568.00,0.0089
567.00,0.0089
566.00,0.0088
565.00,0.0087
564.00,0.0085
563.00,0.0084
562.00,0.0082
561.00,0.0080
560.00,0.0079
559.00,0.0079
558.00,0.0080
557.00,0.0082
556.00,0.0083
555.00,0.0082
554.00,0.0081
553.00,0.0079
552.00,0.0078
551.00,0.0080
550.00,0.0081
549.00,0.0082
548.00,0.0082
547.00,0.0083
546.00,0.0084
545.00,0.0085
544.00,0.0086
543.00,0.0089
542.00,0.0093
541.00,0.0098
540.00,0.0100
539.00,0.0102
538.00,0.0103
537.00,0.0106
536.00,0.0108
535.00,0.0110
534.00,0.0110
533.00,0.0107
532.00,0.0105
531.00,0.0105
530.00,0.0106
529.00,0.0106
528.00,0.0104
527.00,0.0102
526.00,0.0104
525.00,0.0106
524.00,0.0106
523.00,0.0102
522.00,0.0097
521.00,0.0095
520.00,0.0097
519.00,0.0102
518.00,0.0105
517.00,0.0107
516.00,0.0106
515.00,0.0103
514.00,0.0098
513.00,0.0094
512.00,0.0093
511.00,0.0095
510.00,0.0098
509.00,0.0100
508.00,0.0097
507.00,0.0093
506.00,0.0091
505.00,0.0090
504.00,0.0090
503.00,0.0090
502.00,0.0091
501.00,0.0095
500.00,0.0100
499.00,0.0103
498.00,0.0104
497.00,0.0101
496.00,0.0096
495.00,0.0091
494.00,0.0086
493.00,0.0083
492.00,0.0083
491.00,0.0089
490.00,0.0099
489.00,0.0107
488.00,0.0109
487.00,0.0103
486.00,0.0092
485.00,0.0083
484.00,0.0079
483.00,0.0080
482.00,0.0085
481.00,0.0090
480.00,0.0098
479.00,0.0108
478.00,0.0118
477.00,0.0128
476.00,0.0134
475.00,0.0137
474.00,0.0138
473.00,0.0138
472.00,0.0138
471.00,0.0140
470.00,0.0146
469.00,0.0154
468.00,0.0164
467.00,0.0172
466.00,0.0177
465.00,0.0180
464.00,0.0183
463.00,0.0185
462.00,0.0189
461.00,0.0196
460.00,0.0208
459.00,0.0221
458.00,0.0227
457.00,0.0220
456.00,0.0205
455.00,0.0190
454.00,0.0175
453.00,0.0158
452.00,0.0142
451.00,0.0133
450.00,0.0132
