Created as New Dataset,Sample 048 By Administrator Date Wednesday, September 03 2025
cm-1,A
4000.00,0.0010
3999.00,0.0010
3998.00,0.0010
3997.00,0.0010
3996.00,0.0011
3995.00,0.0011
3994.00,0.0011
3993.00,0.0011
3992.00,0.0010
3991.00,0.0010
3990.00,0.0009
3989.00,0.0009
3988.00,0.0009
3987.00,0.0009
3986.00,0.0009
3985.00,0.0009
3984.00,0.0009
3983.00,0.0009
3982.00,0.0009
3981.00,0.0009
3980.00,0.0009
3979.00,0.0009
3978.00,0.0009
3977.00,0.0009
3976.00,0.0009
3975.00,0.0009
3974.00,0.0009
3973.00,0.0009
3972.00,0.0009
3971.00,0.0009
3970.00,0.0009
3969.00,0.0009
3968.00,0.0009
3967.00,0.0009
3966.00,0.0008
3965.00,0.0008
3964.00,0.0008
3963.00,0.0008
3962.00,0.0008
3961.00,0.0008
3960.00,0.0008
3959.00,0.0008
3958.00,0.0008
3957.00,0.0008
3956.00,0.0009
3955.00,0.0009
3954.00,0.0009
3953.00,0.0008
3952.00,0.0008
3951.00,0.0008
3950.00,0.0008
3949.00,0.0008
3948.00,0.0008
3947.00,0.0008
3946.00,0.0008
3945.00,0.0008
3944.00,0.0009
3943.00,0.0009
3942.00,0.0009
3941.00,0.0009
3940.00,0.0008
3939.00,0.0008
3938.00,0.0008
3937.00,0.0008
3936.00,0.0008
3935.00,0.0008
3934.00,0.0008
3933.00,0.0008
3932.00,0.0009
3931.00,0.0009
3930.00,0.0009
3929.00,0.0009
3928.00,0.0008
3927.00,0.0008
3926.00,0.0008
3925.00,0.0009
3924.00,0.0009
3923.00,0.0009
3922.00,0.0009
3921.00,0.0009
3920.00,0.0009
3919.00,0.0009
3918.00,0.0009
3917.00,0.0009
3916.00,0.0009
3915.00,0.0009
3914.00,0.0009
3913.00,0.0009
3912.00,0.0009
3911.00,0.0008
3910.00,0.0008
3909.00,0.0007
3908.00,0.0007
3907.00,0.0007
3906.00,0.0007
3905.00,0.0007
3904.00,0.0007
3903.00,0.0007
3902.00,0.0007
3901.00,0.0007
3900.00,0.0007
3899.00,0.0007
3898.00,0.0007
3897.00,0.0008
3896.00,0.0008
3895.00,0.0008
3894.00,0.0008
3893.00,0.0008
3892.00,0.0007
3891.00,0.0007
3890.00,0.0007
3889.00,0.0007
3888.00,0.0007
3887.00,0.0007
3886.00,0.0008
3885.00,0.0008
3884.00,0.0008
3883.00,0.0008
3882.00,0.0008
3881.00,0.0007
3880.00,0.0007
3879.00,0.0008
3878.00,0.0008
3877.00,0.0007
3876.00,0.0007
3875.00,0.0007
3874.00,0.0007
3873.00,0.0007
3872.00,0.0007
3871.00,0.0007
3870.00,0.0007
3869.00,0.0006
3868.00,0.0006
3867.00,0.0006
3866.00,0.0006
3865.00,0.0006
3864.00,0.0006
3863.00,0.0006
3862.00,0.0005
3861.00,0.0005
3860.00,0.0006
3859.00,0.0006
3858.00,0.0006
3857.00,0.0007
3856.00,0.0007
3855.00,0.0007
3854.00,0.0007
3853.00,0.0007
3852.00,0.0008
3851.00,0.0008
3850.00,0.0007
3849.00,0.0007
3848.00,0.0007
3847.00,0.0007
3846.00,0.0007
3845.00,0.0007
3844.00,0.0007
3843.00,0.0007
3842.00,0.0007
3841.00,0.0006
3840.00,0.0006
3839.00,0.0006
3838.00,0.0006
3837.00,0.0006
3836.00,0.0006
3835.00,0.0006
3834.00,0.0006
3833.00,0.0006
3832.00,0.0006
3831.00,0.0006
3830.00,0.0007
3829.00,0.0007
3828.00,0.0007
3827.00,0.0008
3826.00,0.0008
3825.00,0.0008
3824.00,0.0008
3823.00,0.0008
3822.00,0.0008
3821.00,0.0008
3820.00,0.0007
3819.00,0.0007
3818.00,0.0007
3817.00,0.0006
3816.00,0.0007
3815.00,0.0008
3814.00,0.0008
3813.00,0.0008
3812.00,0.0008
3811.00,0.0008
3810.00,0.0007
3809.00,0.0007
3808.00,0.0007
3807.00,0.0007
3806.00,0.0007
3805.00,0.0008
3804.00,0.0008
3803.00,0.0007
3802.00,0.0007
3801.00,0.0007
3800.00,0.0007
3799.00,0.0007
3798.00,0.0007
3797.00,0.0007
3796.00,0.0007
3795.00,0.0008
3794.00,0.0007
3793.00,0.0007
3792.00,0.0007
3791.00,0.0007
3790.00,0.0007
3789.00,0.0007
3788.00,0.0007
3787.00,0.0007
3786.00,0.0007
3785.00,0.0007
3784.00,0.0007
3783.00,0.0007
3782.00,0.0007
3781.00,0.0007
3780.00,0.0007
3779.00,0.0007
3778.00,0.0008
3777.00,0.0008
3776.00,0.0008
3775.00,0.0008
3774.00,0.0007
3773.00,0.0007
3772.00,0.0007
3771.00,0.0006
3770.00,0.0006
3769.00,0.0007
3768.00,0.0007
3767.00,0.0007
3766.00,0.0007
3765.00,0.0007
3764.00,0.0007
3763.00,0.0008
3762.00,0.0008
3761.00,0.0008
3760.00,0.0008
3759.00,0.0007
3758.00,0.0006
3757.00,0.0006
3756.00,0.0006
3755.00,0.0006
3754.00,0.0006
3753.00,0.0006
3752.00,0.0006
3751.00,0.0006
3750.00,0.0006
3749.00,0.0006
3748.00,0.0007
3747.00,0.0008
3746.00,0.0008
3745.00,0.0008
3744.00,0.0007
3743.00,0.0007
3742.00,0.0007
3741.00,0.0006
3740.00,0.0006
3739.00,0.0005
3738.00,0.0005
3737.00,0.0005
3736.00,0.0004
3735.00,0.0004
3734.00,0.0004
3733.00,0.0004
3732.00,0.0004
3731.00,0.0005
3730.00,0.0005
3729.00,0.0005
3728.00,0.0005
3727.00,0.0005
3726.00,0.0005
3725.00,0.0006
3724.00,0.0006
3723.00,0.0006
3722.00,0.0006
3721.00,0.0006
3720.00,0.0006
3719.00,0.0006
3718.00,0.0006
3717.00,0.0006
3716.00,0.0006
3715.00,0.0006
3714.00,0.0006
3713.00,0.0005
3712.00,0.0005
3711.00,0.0005
3710.00,0.0006
3709.00,0.0006
3708.00,0.0006
3707.00,0.0005
3706.00,0.0005
3705.00,0.0005
3704.00,0.0005
3703.00,0.0005
3702.00,0.0005
3701.00,0.0006
3700.00,0.0006
3699.00,0.0006
3698.00,0.0006
3697.00,0.0005
3696.00,0.0005
3695.00,0.0005
3694.00,0.0005
3693.00,0.0005
3692.00,0.0005
3691.00,0.0005
3690.00,0.0005
3689.00,0.0005
3688.00,0.0005
3687.00,0.0005
3686.00,0.0005
3685.00,0.0005
3684.00,0.0005
3683.00,0.0005
3682.00,0.0005
3681.00,0.0005
3680.00,0.0005
3679.00,0.0004
3678.00,0.0004
3677.00,0.0003
3676.00,0.0002
3675.00,0.0002
3674.00,0.0002
3673.00,0.0002
3672.00,0.0003
3671.00,0.0003
3670.00,0.0003
3669.00,0.0002
3668.00,0.0002
3667.00,0.0002
3666.00,0.0003
3665.00,0.0003
3664.00,0.0003
3663.00,0.0004
3662.00,0.0004
3661.00,0.0004
3660.00,0.0004
3659.00,0.0004
3658.00,0.0003
3657.00,0.0003
3656.00,0.0002
3655.00,0.0002
3654.00,0.0002
3653.00,0.0002
3652.00,0.0001
3651.00,0.0001
3650.00,0.0001
3649.00,0.0002
3648.00,0.0003
3647.00,0.0004
3646.00,0.0004
3645.00,0.0004
3644.00,0.0004
3643.00,0.0005
3642.00,0.0005
3641.00,0.0005
3640.00,0.0006
3639.00,0.0005
3638.00,0.0005
3637.00,0.0006
3636.00,0.0006
3635.00,0.0006
3634.00,0.0006
3633.00,0.0006
3632.00,0.0006
3631.00,0.0006
3630.00,0.0007
3629.00,0.0007
3628.00,0.0008
3627.00,0.0009
3626.00,0.0009
3625.00,0.0009
3624.00,0.0009
3623.00,0.0009
3622.00,0.0009
3621.00,0.0009
3620.00,0.0008
3619.00,0.0008
3618.00,0.0008
3617.00,0.0008
3616.00,0.0008
3615.00,0.0009
3614.00,0.0009
3613.00,0.0009
3612.00,0.0009
3611.00,0.0009
3610.00,0.0009
3609.00,0.0010
3608.00,0.0010
3607.00,0.0011
3606.00,0.0011
3605.00,0.0011
3604.00,0.0012
3603.00,0.0012
3602.00,0.0012
3601.00,0.0012
3600.00,0.0012
3599.00,0.0013
3598.00,0.0013
3597.00,0.0013
3596.00,0.0013
3595.00,0.0013
3594.00,0.0013
3593.00,0.0013
3592.00,0.0013
3591.00,0.0013
3590.00,0.0013
3589.00,0.0013
3588.00,0.0013
3587.00,0.0014
3586.00,0.0015
3585.00,0.0015
3584.00,0.0015
3583.00,0.0016
3582.00,0.0016
3581.00,0.0016
3580.00,0.0016
3579.00,0.0016
3578.00,0.0017
3577.00,0.0018
3576.00,0.0018
3575.00,0.0018
3574.00,0.0019
3573.00,0.0019
3572.00,0.0019
3571.00,0.0019
3570.00,0.0019
3569.00,0.0019
3568.00,0.0019
3567.00,0.0019
3566.00,0.0019
3565.00,0.0020
3564.00,0.0020
3563.00,0.0020
3562.00,0.0020
3561.00,0.0020
3560.00,0.0020
3559.00,0.0021
3558.00,0.0021
3557.00,0.0022
3556.00,0.0022
3555.00,0.0022
3554.00,0.0023
3553.00,0.0023
3552.00,0.0023
3551.00,0.0023
3550.00,0.0023
3549.00,0.0023
3548.00,0.0023
3547.00,0.0024
3546.00,0.0024
3545.00,0.0024
3544.00,0.0024
3543.00,0.0024
3542.00,0.0025
3541.00,0.0025
3540.00,0.0025
3539.00,0.0025
3538.00,0.0025
3537.00,0.0025
3536.00,0.0025
3535.00,0.0026
3534.00,0.0026
3533.00,0.0026
3532.00,0.0026
3531.00,0.0026
3530.00,0.0026
3529.00,0.0026
3528.00,0.0026
3527.00,0.0026
3526.00,0.0026
3525.00,0.0027
3524.00,0.0028
3523.00,0.0028
3522.00,0.0028
3521.00,0.0028
3520.00,0.0028
3519.00,0.0028
3518.00,0.0029
3517.00,0.0029
3516.00,0.0029
3515.00,0.0030
3514.00,0.0030
3513.00,0.0030
3512.00,0.0030
3511.00,0.0030
3510.00,0.0031
3509.00,0.0031
3508.00,0.0031
3507.00,0.0031
3506.00,0.0031
3505.00,0.0031
3504.00,0.0031
3503.00,0.0031
3502.00,0.0031
3501.00,0.0031
3500.00,0.0031
3499.00,0.0031
3498.00,0.0031
3497.00,0.0031
3496.00,0.0032
3495.00,0.0032
3494.00,0.0032
3493.00,0.0032
3492.00,0.0033
3491.00,0.0033
3490.00,0.0034
3489.00,0.0034
3488.00,0.0034
3487.00,0.0034
3486.00,0.0034
3485.00,0.0034
3484.00,0.0034
3483.00,0.0035
3482.00,0.0035
3481.00,0.0035
3480.00,0.0035
3479.00,0.0035
3478.00,0.0035
3477.00,0.0036
3476.00,0.0036
3475.00,0.0036
3474.00,0.0036
3473.00,0.0036
3472.00,0.0036
3471.00,0.0037
3470.00,0.0037
3469.00,0.0037
3468.00,0.0037
3467.00,0.0037
3466.00,0.0037
3465.00,0.0036
3464.00,0.0036
3463.00,0.0036
3462.00,0.0036
3461.00,0.0036
3460.00,0.0037
3459.00,0.0037
3458.00,0.0037
3457.00,0.0038
3456.00,0.0038
3455.00,0.0039
3454.00,0.0039
3453.00,0.0040
3452.00,0.0040
3451.00,0.0040
3450.00,0.0040
3449.00,0.0040
3448.00,0.0040
3447.00,0.0040
3446.00,0.0041
3445.00,0.0041
3444.00,0.0041
3443.00,0.0041
3442.00,0.0041
3441.00,0.0042
3440.00,0.0042
3439.00,0.0042
3438.00,0.0043
3437.00,0.0043
3436.00,0.0042
3435.00,0.0043
3434.00,0.0043
3433.00,0.0043
3432.00,0.0043
3431.00,0.0043
3430.00,0.0043
3429.00,0.0043
3428.00,0.0044
3427.00,0.0044
3426.00,0.0044
3425.00,0.0044
3424.00,0.0044
3423.00,0.0044
3422.00,0.0044
3421.00,0.0044
3420.00,0.0045
3419.00,0.0045
3418.00,0.0046
3417.00,0.0046
3416.00,0.0047
3415.00,0.0047
3414.00,0.0047
3413.00,0.0046
3412.00,0.0046
3411.00,0.0046
3410.00,0.0047
3409.00,0.0047
3408.00,0.0047
3407.00,0.0047
3406.00,0.0047
3405.00,0.0047
3404.00,0.0048
3403.00,0.0048
3402.00,0.0048
3401.00,0.0048
3400.00,0.0049
3399.00,0.0049
3398.00,0.0049
3397.00,0.0049
3396.00,0.0049
3395.00,0.0049
3394.00,0.0049
3393.00,0.0049
3392.00,0.0048
3391.00,0.0049
3390.00,0.0049
3389.00,0.0049
3388.00,0.0049
3387.00,0.0049
3386.00,0.0049
3385.00,0.0049
3384.00,0.0048
3383.00,0.0048
3382.00,0.0048
3381.00,0.0048
3380.00,0.0048
3379.00,0.0048
3378.00,0.0048
3377.00,0.0049
3376.00,0.0048
3375.00,0.0048
3374.00,0.0048
3373.00,0.0048
3372.00,0.0047
3371.00,0.0048
3370.00,0.0048
3369.00,0.0048
3368.00,0.0049
3367.00,0.0049
3366.00,0.0048
3365.00,0.0048
3364.00,0.0048
3363.00,0.0048
3362.00,0.0048
3361.00,0.0048
3360.00,0.0048
3359.00,0.0049
3358.00,0.0049
3357.00,0.0049
3356.00,0.0049
3355.00,0.0049
3354.00,0.0049
3353.00,0.0049
3352.00,0.0049
3351.00,0.0049
3350.00,0.0049
3349.00,0.0049
3348.00,0.0049
3347.00,0.0049
3346.00,0.0049
3345.00,0.0049
3344.00,0.0048
3343.00,0.0048
3342.00,0.0048
3341.00,0.0048
3340.00,0.0048
3339.00,0.0048
3338.00,0.0048
3337.00,0.0048
3336.00,0.0048
3335.00,0.0048
3334.00,0.0048
3333.00,0.0048
3332.00,0.0048
3331.00,0.0048
3330.00,0.0048
3329.00,0.0048
3328.00,0.0048
3327.00,0.0048
3326.00,0.0047
3325.00,0.0047
3324.00,0.0047
3323.00,0.0047
3322.00,0.0047
3321.00,0.0047
3320.00,0.0047
3319.00,0.0047
3318.00,0.0047
3317.00,0.0046
3316.00,0.0046
3315.00,0.0047
3314.00,0.0047
3313.00,0.0047
3312.00,0.0047
3311.00,0.0047
3310.00,0.0047
3309.00,0.0047
3308.00,0.0047
3307.00,0.0047
3306.00,0.0047
3305.00,0.0048
3304.00,0.0048
3303.00,0.0048
3302.00,0.0048
3301.00,0.0048
3300.00,0.0047
3299.00,0.0047
3298.00,0.0047
3297.00,0.0046
3296.00,0.0046
3295.00,0.0046
3294.00,0.0046
3293.00,0.0045
3292.00,0.0045
3291.00,0.0044
3290.00,0.0044
3289.00,0.0044
3288.00,0.0044
3287.00,0.0044
3286.00,0.0044
3285.00,0.0044
3284.00,0.0044
3283.00,0.0044
3282.00,0.0044
3281.00,0.0044
3280.00,0.0044
3279.00,0.0043
3278.00,0.0043
3277.00,0.0043
3276.00,0.0042
3275.00,0.0042
3274.00,0.0042
3273.00,0.0042
3272.00,0.0042
3271.00,0.0042
3270.00,0.0041
3269.00,0.0041
3268.00,0.0041
3267.00,0.0041
3266.00,0.0041
3265.00,0.0041
3264.00,0.0041
3263.00,0.0041
3262.00,0.0041
3261.00,0.0040
3260.00,0.0040
3259.00,0.0040
3258.00,0.0040
3257.00,0.0040
3256.00,0.0039
3255.00,0.0039
3254.00,0.0039
3253.00,0.0039
3252.00,0.0039
3251.00,0.0039
3250.00,0.0039
3249.00,0.0038
3248.00,0.0038
3247.00,0.0038
3246.00,0.0038
3245.00,0.0038
3244.00,0.0038
3243.00,0.0037
3242.00,0.0037
3241.00,0.0037
3240.00,0.0037
3239.00,0.0037
3238.00,0.0038
3237.00,0.0038
3236.00,0.0038
3235.00,0.0038
3234.00,0.0038
3233.00,0.0038
3232.00,0.0038
3231.00,0.0038
3230.00,0.0038
3229.00,0.0038
3228.00,0.0038
3227.00,0.0038
3226.00,0.0038
3225.00,0.0038
3224.00,0.0038
3223.00,0.0039
3222.00,0.0039
3221.00,0.0039
3220.00,0.0040
3219.00,0.0040
3218.00,0.0040
3217.00,0.0040
3216.00,0.0040
3215.00,0.0040
3214.00,0.0041
3213.00,0.0041
3212.00,0.0041
3211.00,0.0041
3210.00,0.0041
3209.00,0.0041
3208.00,0.0041
3207.00,0.0041
3206.00,0.0042
3205.00,0.0042
3204.00,0.0043
3203.00,0.0043
3202.00,0.0043
3201.00,0.0043
3200.00,0.0043
3199.00,0.0043
3198.00,0.0043
3197.00,0.0043
3196.00,0.0043
3195.00,0.0043
3194.00,0.0043
3193.00,0.0043
3192.00,0.0043
3191.00,0.0043
3190.00,0.0043
3189.00,0.0043
3188.00,0.0043
3187.00,0.0043
3186.00,0.0042
3185.00,0.0042
3184.00,0.0042
3183.00,0.0041
3182.00,0.0041
3181.00,0.0041
3180.00,0.0041
3179.00,0.0041
3178.00,0.0041
3177.00,0.0041
3176.00,0.0041
3175.00,0.0041
3174.00,0.0040
3173.00,0.0040
3172.00,0.0040
3171.00,0.0040
3170.00,0.0040
3169.00,0.0040
3168.00,0.0040
3167.00,0.0040
3166.00,0.0039
3165.00,0.0039
3164.00,0.0038
3163.00,0.0038
3162.00,0.0038
3161.00,0.0038
3160.00,0.0038
3159.00,0.0038
3158.00,0.0038
3157.00,0.0038
3156.00,0.0038
3155.00,0.0038
3154.00,0.0038
3153.00,0.0038
3152.00,0.0038
3151.00,0.0038
3150.00,0.0038
3149.00,0.0038
3148.00,0.0038
3147.00,0.0038
3146.00,0.0038
3145.00,0.0038
3144.00,0.0037
3143.00,0.0037
3142.00,0.0037
3141.00,0.0037
3140.00,0.0037
3139.00,0.0036
3138.00,0.0036
3137.00,0.0035
3136.00,0.0035
3135.00,0.0035
3134.00,0.0035
3133.00,0.0035
3132.00,0.0034
3131.00,0.0034
3130.00,0.0034
3129.00,0.0034
3128.00,0.0034
3127.00,0.0034
3126.00,0.0033
3125.00,0.0033
3124.00,0.0033
3123.00,0.0033
3122.00,0.0032
3121.00,0.0032
3120.00,0.0032
3119.00,0.0032
3118.00,0.0031
3117.00,0.0031
3116.00,0.0031
3115.00,0.0031
3114.00,0.0030
3113.00,0.0030
3112.00,0.0030
3111.00,0.0030
3110.00,0.0030
3109.00,0.0030
3108.00,0.0030
3107.00,0.0030
3106.00,0.0030
3105.00,0.0030
3104.00,0.0030
3103.00,0.0030
3102.00,0.0031
3101.00,0.0031
3100.00,0.0030
3099.00,0.0030
3098.00,0.0030
3097.00,0.0030
3096.00,0.0030
3095.00,0.0030
3094.00,0.0030
3093.00,0.0030
3092.00,0.0030
3091.00,0.0030
3090.00,0.0030
3089.00,0.0030
3088.00,0.0030
3087.00,0.0030
3086.00,0.0030
3085.00,0.0029
3084.00,0.0030
3083.00,0.0030
3082.00,0.0030
3081.00,0.0030
3080.00,0.0030
3079.00,0.0030
3078.00,0.0030
3077.00,0.0030
3076.00,0.0030
3075.00,0.0030
3074.00,0.0030
3073.00,0.0031
3072.00,0.0031
3071.00,0.0031
3070.00,0.0031
3069.00,0.0031
3068.00,0.0031
3067.00,0.0031
3066.00,0.0032
3065.00,0.0032
3064.00,0.0032
3063.00,0.0032
3062.00,0.0032
3061.00,0.0032
3060.00,0.0033
3059.00,0.0033
3058.00,0.0033
3057.00,0.0033
3056.00,0.0033
3055.00,0.0034
3054.00,0.0034
3053.00,0.0034
3052.00,0.0035
3051.00,0.0035
3050.00,0.0035
3049.00,0.0035
3048.00,0.0035
3047.00,0.0035
3046.00,0.0035
3045.00,0.0036
3044.00,0.0036
3043.00,0.0036
3042.00,0.0037
3041.00,0.0037
3040.00,0.0037
3039.00,0.0037
3038.00,0.0037
3037.00,0.0037
3036.00,0.0038
3035.00,0.0039
3034.00,0.0039
3033.00,0.0040
3032.00,0.0041
3031.00,0.0041
3030.00,0.0042
3029.00,0.0042
3028.00,0.0042
3027.00,0.0043
3026.00,0.0043
3025.00,0.0043
3024.00,0.0044
3023.00,0.0044
3022.00,0.0044
3021.00,0.0044
3020.00,0.0045
3019.00,0.0045
3018.00,0.0046
3017.00,0.0046
3016.00,0.0047
3015.00,0.0048
3014.00,0.0048
3013.00,0.0049
3012.00,0.0050
3011.00,0.0050
3010.00,0.0051
3009.00,0.0052
3008.00,0.0053
3007.00,0.0053
3006.00,0.0054
3005.00,0.0054
3004.00,0.0055
3003.00,0.0056
3002.00,0.0057
3001.00,0.0058
3000.00,0.0059
2999.00,0.0061
2998.00,0.0063
2997.00,0.0066
2996.00,0.0069
2995.00,0.0072
2994.00,0.0076
2993.00,0.0080
2992.00,0.0084
2991.00,0.0089
2990.00,0.0095
2989.00,0.0101
2988.00,0.0107
2987.00,0.0115
2986.00,0.0122
2985.00,0.0130
2984.00,0.0138
2983.00,0.0148
2982.00,0.0160
2981.00,0.0176
2980.00,0.0196
2979.00,0.0219
2978.00,0.0245
2977.00,0.0274
2976.00,0.0307
2975.00,0.0343
2974.00,0.0384
2973.00,0.0430
2972.00,0.0483
2971.00,0.0543
2970.00,0.0611
2969.00,0.0687
2968.00,0.0769
2967.00,0.0858
2966.00,0.0951
2965.00,0.1047
2964.00,0.1143
2963.00,0.1235
2962.00,0.1318
2961.00,0.1389
2960.00,0.1447
2959.00,0.1493
2958.00,0.1531
2957.00,0.1565
2956.00,0.1601
2955.00,0.1641
2954.00,0.1688
2953.00,0.1735
2952.00,0.1777
2951.00,0.1803
2950.00,0.1804
2949.00,0.1773
2948.00,0.1710
2947.00,0.1618
2946.00,0.1508
2945.00,0.1392
2944.00,0.1283
2943.00,0.1190
2942.00,0.1118
2941.00,0.1070
2940.00,0.1044
2939.00,0.1040
2938.00,0.1054
2937.00,0.1085
2936.00,0.1130
2935.00,0.1190
2934.00,0.1263
2933.00,0.1348
2932.00,0.1443
2931.00,0.1546
2930.00,0.1655
2929.00,0.1767
2928.00,0.1878
2927.00,0.1987
2926.00,0.2092
2925.00,0.2193
2924.00,0.2291
2923.00,0.2386
2922.00,0.2479
2921.00,0.2567
2920.00,0.2644
2919.00,0.2702
2918.00,0.2731
2917.00,0.2724
2916.00,0.2678
2915.00,0.2600
2914.00,0.2499
2913.00,0.2389
2912.00,0.2280
2911.00,0.2179
2910.00,0.2090
2909.00,0.2012
2908.00,0.1941
2907.00,0.1875
2906.00,0.1811
2905.00,0.1746
2904.00,0.1682
2903.00,0.1616
2902.00,0.1551
2901.00,0.1486
2900.00,0.1423
2899.00,0.1363
2898.00,0.1306
2897.00,0.1253
2896.00,0.1206
2895.00,0.1164
2894.00,0.1128
2893.00,0.1099
2892.00,0.1074
2891.00,0.1056
2890.00,0.1042
2889.00,0.1033
2888.00,0.1028
2887.00,0.1026
2886.00,0.1027
2885.00,0.1032
2884.00,0.1042
2883.00,0.1057
2882.00,0.1076
2881.00,0.1097
2880.00,0.1120
2879.00,0.1139
2878.00,0.1152
2877.00,0.1157
2876.00,0.1155
2875.00,0.1149
2874.00,0.1143
2873.00,0.1142
2872.00,0.1147
2871.00,0.1158
2870.00,0.1174
2869.00,0.1189
2868.00,0.1198
2867.00,0.1194
2866.00,0.1173
2865.00,0.1131
2864.00,0.1074
2863.00,0.1009
2862.00,0.0944
2861.00,0.0888
2860.00,0.0846
2859.00,0.0818
2858.00,0.0805
2857.00,0.0804
2856.00,0.0814
2855.00,0.0831
2854.00,0.0854
2853.00,0.0880
2852.00,0.0906
2851.00,0.0928
2850.00,0.0941
2849.00,0.0946
2848.00,0.0945
2847.00,0.0945
2846.00,0.0952
2845.00,0.0971
2844.00,0.1003
2843.00,0.1046
2842.00,0.1095
2841.00,0.1143
2840.00,0.1184
2839.00,0.1207
2838.00,0.1206
2837.00,0.1176
2836.00,0.1116
2835.00,0.1030
2834.00,0.0929
2833.00,0.0823
2832.00,0.0720
2831.00,0.0629
2830.00,0.0552
2829.00,0.0488
2828.00,0.0437
2827.00,0.0396
2826.00,0.0362
2825.00,0.0334
2824.00,0.0310
2823.00,0.0290
2822.00,0.0273
2821.00,0.0258
2820.00,0.0245
2819.00,0.0234
2818.00,0.0224
2817.00,0.0216
2816.00,0.0208
2815.00,0.0202
2814.00,0.0195
2813.00,0.0189
2812.00,0.0184
2811.00,0.0178
2810.00,0.0172
2809.00,0.0167
2808.00,0.0162
2807.00,0.0156
2806.00,0.0149
2805.00,0.0143
2804.00,0.0137
2803.00,0.0131
2802.00,0.0125
2801.00,0.0121
2800.00,0.0117
2799.00,0.0114
2798.00,0.0112
2797.00,0.0110
2796.00,0.0108
2795.00,0.0105
2794.00,0.0103
2793.00,0.0100
2792.00,0.0097
2791.00,0.0094
2790.00,0.0090
2789.00,0.0087
2788.00,0.0084
2787.00,0.0081
2786.00,0.0078
2785.00,0.0076
2784.00,0.0073
2783.00,0.0071
2782.00,0.0069
2781.00,0.0067
2780.00,0.0066
2779.00,0.0064
2778.00,0.0063
2777.00,0.0062
2776.00,0.0060
2775.00,0.0060
2774.00,0.0059
2773.00,0.0058
2772.00,0.0057
2771.00,0.0057
2770.00,0.0056
2769.00,0.0056
2768.00,0.0056
2767.00,0.0055
2766.00,0.0055
2765.00,0.0054
2764.00,0.0054
2763.00,0.0053
2762.00,0.0053
2761.00,0.0053
2760.00,0.0052
2759.00,0.0052
2758.00,0.0052
2757.00,0.0052
2756.00,0.0052
2755.00,0.0052
2754.00,0.0052
2753.00,0.0051
2752.00,0.0051
2751.00,0.0051
2750.00,0.0051
2749.00,0.0051
2748.00,0.0051
2747.00,0.0051
2746.00,0.0051
2745.00,0.0052
2744.00,0.0052
2743.00,0.0053
2742.00,0.0054
2741.00,0.0055
2740.00,0.0056
2739.00,0.0058
2738.00,0.0059
2737.00,0.0060
2736.00,0.0062
2735.00,0.0063
2734.00,0.0064
2733.00,0.0066
2732.00,0.0067
2731.00,0.0069
2730.00,0.0071
2729.00,0.0073
2728.00,0.0076
2727.00,0.0078
2726.00,0.0081
2725.00,0.0084
2724.00,0.0085
2723.00,0.0086
2722.00,0.0085
2721.00,0.0083
2720.00,0.0080
2719.00,0.0077
2718.00,0.0074
2717.00,0.0071
2716.00,0.0068
2715.00,0.0066
2714.00,0.0063
2713.00,0.0061
2712.00,0.0059
2711.00,0.0057
2710.00,0.0056
2709.00,0.0055
2708.00,0.0053
2707.00,0.0052
2706.00,0.0051
2705.00,0.0050
2704.00,0.0050
2703.00,0.0049
2702.00,0.0048
2701.00,0.0047
2700.00,0.0046
2699.00,0.0045
2698.00,0.0045
2697.00,0.0045
2696.00,0.0045
2695.00,0.0045
2694.00,0.0045
2693.00,0.0045
2692.00,0.0045
2691.00,0.0045
2690.00,0.0046
2689.00,0.0046
2688.00,0.0046
2687.00,0.0045
2686.00,0.0045
2685.00,0.0045
2684.00,0.0044
2683.00,0.0044
2682.00,0.0045
2681.00,0.0045
2680.00,0.0045
2679.00,0.0046
2678.00,0.0046
2677.00,0.0046
2676.00,0.0046
2675.00,0.0045
2674.00,0.0045
2673.00,0.0045
2672.00,0.0045
2671.00,0.0045
2670.00,0.0045
2669.00,0.0045
2668.00,0.0045
2667.00,0.0045
2666.00,0.0045
2665.00,0.0045
2664.00,0.0046
2663.00,0.0046
2662.00,0.0047
2661.00,0.0047
2660.00,0.0047
2659.00,0.0047
2658.00,0.0047
2657.00,0.0047
2656.00,0.0047
2655.00,0.0047
2654.00,0.0046
2653.00,0.0046
2652.00,0.0045
2651.00,0.0045
2650.00,0.0044
2649.00,0.0043
2648.00,0.0043
2647.00,0.0042
2646.00,0.0042
2645.00,0.0042
2644.00,0.0041
2643.00,0.0041
2642.00,0.0041
2641.00,0.0041
2640.00,0.0040
2639.00,0.0040
2638.00,0.0039
2637.00,0.0039
2636.00,0.0039
2635.00,0.0039
2634.00,0.0039
2633.00,0.0039
2632.00,0.0040
2631.00,0.0040
2630.00,0.0040
2629.00,0.0040
2628.00,0.0040
2627.00,0.0040
2626.00,0.0040
2625.00,0.0040
2624.00,0.0040
2623.00,0.0040
2622.00,0.0040
2621.00,0.0041
2620.00,0.0041
2619.00,0.0042
2618.00,0.0042
2617.00,0.0042
2616.00,0.0042
2615.00,0.0041
2614.00,0.0040
2613.00,0.0040
2612.00,0.0039
2611.00,0.0039
2610.00,0.0038
2609.00,0.0037
2608.00,0.0036
2607.00,0.0035
2606.00,0.0034
2605.00,0.0033
2604.00,0.0033
2603.00,0.0033
2602.00,0.0033
2601.00,0.0033
2600.00,0.0033
2599.00,0.0032
2598.00,0.0032
2597.00,0.0032
2596.00,0.0032
2595.00,0.0032
2594.00,0.0032
2593.00,0.0032
2592.00,0.0033
2591.00,0.0033
2590.00,0.0033
2589.00,0.0034
2588.00,0.0035
2587.00,0.0036
2586.00,0.0037
2585.00,0.0038
2584.00,0.0038
2583.00,0.0039
2582.00,0.0039
2581.00,0.0039
2580.00,0.0039
2579.00,0.0037
2578.00,0.0036
2577.00,0.0034
2576.00,0.0033
2575.00,0.0032
2574.00,0.0032
2573.00,0.0031
2572.00,0.0030
2571.00,0.0029
2570.00,0.0028
2569.00,0.0027
2568.00,0.0027
2567.00,0.0026
2566.00,0.0025
2565.00,0.0025
2564.00,0.0024
2563.00,0.0024
2562.00,0.0024
2561.00,0.0025
2560.00,0.0024
2559.00,0.0024
2558.00,0.0023
2557.00,0.0023
2556.00,0.0022
2555.00,0.0022
2554.00,0.0022
2553.00,0.0021
2552.00,0.0021
2551.00,0.0021
2550.00,0.0021
2549.00,0.0021
2548.00,0.0021
2547.00,0.0020
2546.00,0.0019
2545.00,0.0018
2544.00,0.0018
2543.00,0.0017
2542.00,0.0017
2541.00,0.0017
2540.00,0.0017
2539.00,0.0017
2538.00,0.0017
2537.00,0.0017
2536.00,0.0017
2535.00,0.0017
2534.00,0.0017
2533.00,0.0017
2532.00,0.0016
2531.00,0.0016
2530.00,0.0015
2529.00,0.0015
2528.00,0.0015
2527.00,0.0015
2526.00,0.0015
2525.00,0.0016
2524.00,0.0016
2523.00,0.0016
2522.00,0.0015
2521.00,0.0014
2520.00,0.0014
2519.00,0.0014
2518.00,0.0014
2517.00,0.0014
2516.00,0.0013
2515.00,0.0013
2514.00,0.0012
2513.00,0.0012
2512.00,0.0011
2511.00,0.0011
2510.00,0.0011
2509.00,0.0011
2508.00,0.0011
2507.00,0.0010
2506.00,0.0010
2505.00,0.0011
2504.00,0.0011
2503.00,0.0012
2502.00,0.0012
2501.00,0.0012
2500.00,0.0012
2499.00,0.0012
2498.00,0.0012
2497.00,0.0012
2496.00,0.0012
2495.00,0.0012
2494.00,0.0012
2493.00,0.0012
2492.00,0.0012
2491.00,0.0012
2490.00,0.0012
2489.00,0.0011
2488.00,0.0011
2487.00,0.0011
2486.00,0.0011
2485.00,0.0010
2484.00,0.0010
2483.00,0.0010
2482.00,0.0010
2481.00,0.0010
2480.00,0.0010
2479.00,0.0010
2478.00,0.0010
2477.00,0.0011
2476.00,0.0011
2475.00,0.0010
2474.00,0.0010
2473.00,0.0010
2472.00,0.0009
2471.00,0.0009
2470.00,0.0009
2469.00,0.0009
2468.00,0.0009
2467.00,0.0009
2466.00,0.0009
2465.00,0.0009
2464.00,0.0009
2463.00,0.0009
2462.00,0.0009
2461.00,0.0009
2460.00,0.0010
2459.00,0.0011
2458.00,0.0011
2457.00,0.0012
2456.00,0.0012
2455.00,0.0012
2454.00,0.0012
2453.00,0.0012
2452.00,0.0012
2451.00,0.0012
2450.00,0.0012
2449.00,0.0012
2448.00,0.0012
2447.00,0.0012
2446.00,0.0012
2445.00,0.0012
2444.00,0.0012
2443.00,0.0012
2442.00,0.0012
2441.00,0.0012
2440.00,0.0011
2439.00,0.0011
2438.00,0.0010
2437.00,0.0010
2436.00,0.0010
2435.00,0.0011
2434.00,0.0011
2433.00,0.0011
2432.00,0.0011
2431.00,0.0011
2430.00,0.0011
2429.00,0.0012
2428.00,0.0012
2427.00,0.0011
2426.00,0.0011
2425.00,0.0011
2424.00,0.0011
2423.00,0.0011
2422.00,0.0010
2421.00,0.0010
2420.00,0.0010
2419.00,0.0010
2418.00,0.0010
2417.00,0.0010
2416.00,0.0011
2415.00,0.0011
2414.00,0.0011
2413.00,0.0011
2412.00,0.0011
2411.00,0.0011
2410.00,0.0011
2409.00,0.0011
2408.00,0.0010
2407.00,0.0010
2406.00,0.0009
2405.00,0.0009
2404.00,0.0010
2403.00,0.0010
2402.00,0.0009
2401.00,0.0008
2400.00,0.0008
2399.00,0.0007
2398.00,0.0008
2397.00,0.0008
2396.00,0.0008
2395.00,0.0008
2394.00,0.0008
2393.00,0.0008
2392.00,0.0008
2391.00,0.0008
2390.00,0.0008
2389.00,0.0007
2388.00,0.0007
2387.00,0.0006
2386.00,0.0005
2385.00,0.0005
2384.00,0.0004
2383.00,0.0003
2382.00,0.0002
2381.00,0.0002
2380.00,0.0002
2379.00,0.0002
2378.00,0.0003
2377.00,0.0003
2376.00,0.0004
2375.00,0.0003
2374.00,0.0003
2373.00,0.0002
2372.00,0.0001
2371.00,0.0000
2370.00,-0.0000
2369.00,-0.0001
2368.00,-0.0001
2367.00,-0.0001
2366.00,-0.0001
2365.00,-0.0000
2364.00,0.0000
2363.00,0.0001
2362.00,0.0002
2361.00,0.0003
2360.00,0.0003
2359.00,0.0003
2358.00,0.0002
2357.00,0.0002
2356.00,0.0002
2355.00,0.0002
2354.00,0.0003
2353.00,0.0003
2352.00,0.0003
2351.00,0.0003
2350.00,0.0003
2349.00,0.0003
2348.00,0.0003
2347.00,0.0003
2346.00,0.0003
2345.00,0.0003
2344.00,0.0003
2343.00,0.0004
2342.00,0.0005
2341.00,0.0006
2340.00,0.0007
2339.00,0.0007
2338.00,0.0007
2337.00,0.0007
2336.00,0.0007
2335.00,0.0007
2334.00,0.0007
2333.00,0.0006
2332.00,0.0006
2331.00,0.0005
2330.00,0.0005
2329.00,0.0005
2328.00,0.0007
2327.00,0.0011
2326.00,0.0015
2325.00,0.0018
2324.00,0.0020
2323.00,0.0019
2322.00,0.0017
2321.00,0.0015
2320.00,0.0013
2319.00,0.0013
2318.00,0.0012
2317.00,0.0011
2316.00,0.0010
2315.00,0.0008
2314.00,0.0007
2313.00,0.0006
2312.00,0.0005
2311.00,0.0004
2310.00,0.0004
2309.00,0.0004
2308.00,0.0005
2307.00,0.0005
2306.00,0.0006
2305.00,0.0007
2304.00,0.0007
2303.00,0.0007
2302.00,0.0007
2301.00,0.0007
2300.00,0.0008
2299.00,0.0008
2298.00,0.0009
2297.00,0.0010
2296.00,0.0011
2295.00,0.0012
2294.00,0.0013
2293.00,0.0014
2292.00,0.0014
2291.00,0.0014
2290.00,0.0014
2289.00,0.0015
2288.00,0.0015
2287.00,0.0016
2286.00,0.0017
2285.00,0.0017
2284.00,0.0016
2283.00,0.0016
2282.00,0.0015
2281.00,0.0015
2280.00,0.0015
2279.00,0.0014
2278.00,0.0013
2277.00,0.0012
2276.00,0.0011
2275.00,0.0011
2274.00,0.0012
2273.00,0.0014
2272.00,0.0015
2271.00,0.0016
2270.00,0.0015
2269.00,0.0014
2268.00,0.0013
2267.00,0.0012
2266.00,0.0011
2265.00,0.0011
2264.00,0.0010
2263.00,0.0009
2262.00,0.0009
2261.00,0.0010
2260.00,0.0011
2259.00,0.0013
2258.00,0.0013
2257.00,0.0013
2256.00,0.0012
2255.00,0.0010
2254.00,0.0009
2253.00,0.0009
2252.00,0.0010
2251.00,0.0010
2250.00,0.0010
2249.00,0.0010
2248.00,0.0009
2247.00,0.0008
2246.00,0.0008
2245.00,0.0008
2244.00,0.0008
2243.00,0.0008
2242.00,0.0010
2241.00,0.0011
2240.00,0.0012
2239.00,0.0011
2238.00,0.0009
2237.00,0.0009
2236.00,0.0009
2235.00,0.0010
2234.00,0.0012
2233.00,0.0012
2232.00,0.0012
2231.00,0.0011
2230.00,0.0010
2229.00,0.0010
2228.00,0.0010
2227.00,0.0010
2226.00,0.0009
2225.00,0.0008
2224.00,0.0007
2223.00,0.0005
2222.00,0.0005
2221.00,0.0005
2220.00,0.0006
2219.00,0.0007
2218.00,0.0008
2217.00,0.0008
2216.00,0.0007
2215.00,0.0007
2214.00,0.0006
2213.00,0.0006
2212.00,0.0005
2211.00,0.0005
2210.00,0.0006
2209.00,0.0008
2208.00,0.0010
2207.00,0.0010
2206.00,0.0009
2205.00,0.0008
2204.00,0.0008
2203.00,0.0008
2202.00,0.0008
2201.00,0.0006
2200.00,0.0004
2199.00,0.0003
2198.00,0.0002
2197.00,0.0003
2196.00,0.0003
2195.00,0.0004
2194.00,0.0005
2193.00,0.0005
2192.00,0.0007
2191.00,0.0008
2190.00,0.0009
2189.00,0.0010
2188.00,0.0011
2187.00,0.0011
2186.00,0.0012
2185.00,0.0011
2184.00,0.0009
2183.00,0.0006
2182.00,0.0003
2181.00,0.0002
2180.00,0.0001
2179.00,0.0001
2178.00,0.0001
2177.00,0.0003
2176.00,0.0004
2175.00,0.0005
2174.00,0.0005
2173.00,0.0006
2172.00,0.0008
2171.00,0.0011
2170.00,0.0012
2169.00,0.0012
2168.00,0.0011
2167.00,0.0010
2166.00,0.0009
2165.00,0.0012
2164.00,0.0016
2163.00,0.0019
2162.00,0.0018
2161.00,0.0013
2160.00,0.0002
2159.00,-0.0011
2158.00,-0.0020
2157.00,-0.0024
2156.00,-0.0024
2155.00,-0.0022
2154.00,-0.0019
2153.00,-0.0014
2152.00,-0.0010
2151.00,-0.0008
2150.00,-0.0009
2149.00,-0.0012
2148.00,-0.0015
2147.00,-0.0017
2146.00,-0.0018
2145.00,-0.0017
2144.00,-0.0014
2143.00,-0.0012
2142.00,-0.0010
2141.00,-0.0009
2140.00,-0.0008
2139.00,-0.0008
2138.00,-0.0010
2137.00,-0.0011
2136.00,-0.0012
2135.00,-0.0013
2134.00,-0.0014
2133.00,-0.0014
2132.00,-0.0013
2131.00,-0.0012
2130.00,-0.0012
2129.00,-0.0012
2128.00,-0.0012
2127.00,-0.0010
2126.00,-0.0008
2125.00,-0.0006
2124.00,-0.0004
2123.00,-0.0002
2122.00,-0.0001
2121.00,0.0000
2120.00,0.0002
2119.00,0.0003
2118.00,0.0003
2117.00,0.0003
2116.00,0.0004
2115.00,0.0004
2114.00,0.0005
2113.00,0.0004
2112.00,0.0003
2111.00,0.0002
2110.00,0.0002
2109.00,0.0002
2108.00,0.0003
2107.00,0.0003
2106.00,0.0003
2105.00,0.0002
2104.00,0.0002
2103.00,0.0002
2102.00,0.0002
2101.00,0.0001
2100.00,0.0001
2099.00,-0.0000
2098.00,-0.0001
2097.00,-0.0001
2096.00,-0.0002
2095.00,-0.0003
2094.00,-0.0003
2093.00,-0.0003
2092.00,-0.0002
2091.00,-0.0000
2090.00,0.0001
2089.00,0.0002
2088.00,0.0003
2087.00,0.0003
2086.00,0.0003
2085.00,0.0004
2084.00,0.0004
2083.00,0.0005
2082.00,0.0005
2081.00,0.0005
2080.00,0.0005
2079.00,0.0004
2078.00,0.0003
2077.00,0.0002
2076.00,0.0002
2075.00,0.0002
2074.00,0.0001
2073.00,0.0000
2072.00,-0.0000
2071.00,-0.0001
2070.00,0.0000
2069.00,0.0001
2068.00,0.0002
2067.00,0.0002
2066.00,0.0001
2065.00,0.0000
2064.00,-0.0000
2063.00,-0.0001
2062.00,-0.0001
2061.00,-0.0001
2060.00,0.0000
2059.00,0.0001
2058.00,0.0003
2057.00,0.0004
2056.00,0.0004
2055.00,0.0003
2054.00,0.0003
2053.00,0.0005
2052.00,0.0009
2051.00,0.0011
2050.00,0.0010
2049.00,0.0005
2048.00,0.0000
2047.00,-0.0003
2046.00,-0.0003
2045.00,-0.0003
2044.00,-0.0003
2043.00,-0.0003
2042.00,-0.0003
2041.00,-0.0002
2040.00,-0.0000
2039.00,0.0002
2038.00,0.0003
2037.00,0.0004
2036.00,0.0004
2035.00,0.0003
2034.00,0.0000
2033.00,-0.0003
2032.00,-0.0006
2031.00,-0.0008
2030.00,-0.0010
2029.00,-0.0010
2028.00,-0.0010
2027.00,-0.0011
2026.00,-0.0011
2025.00,-0.0010
2024.00,-0.0009
2023.00,-0.0009
2022.00,-0.0010
2021.00,-0.0011
2020.00,-0.0011
2019.00,-0.0011
2018.00,-0.0010
2017.00,-0.0009
2016.00,-0.0008
2015.00,-0.0008
2014.00,-0.0007
2013.00,-0.0006
2012.00,-0.0004
2011.00,-0.0003
2010.00,-0.0004
2009.00,-0.0005
2008.00,-0.0006
2007.00,-0.0007
2006.00,-0.0009
2005.00,-0.0011
2004.00,-0.0013
2003.00,-0.0014
2002.00,-0.0014
2001.00,-0.0014
2000.00,-0.0013
1999.00,-0.0012
1998.00,-0.0010
1997.00,-0.0007
1996.00,-0.0006
1995.00,-0.0008
1994.00,-0.0009
1993.00,-0.0010
1992.00,-0.0010
1991.00,-0.0007
1990.00,-0.0002
1989.00,0.0002
1988.00,0.0005
1987.00,0.0006
1986.00,0.0006
1985.00,0.0006
1984.00,0.0006
1983.00,0.0006
1982.00,0.0007
1981.00,0.0008
1980.00,0.0007
1979.00,0.0001
1978.00,-0.0007
1977.00,-0.0013
1976.00,-0.0016
1975.00,-0.0015
1974.00,-0.0014
1973.00,-0.0012
1972.00,-0.0011
1971.00,-0.0011
1970.00,-0.0010
1969.00,-0.0009
1968.00,-0.0006
1967.00,-0.0004
1966.00,-0.0003
1965.00,-0.0003
1964.00,-0.0005
1963.00,-0.0007
1962.00,-0.0010
1961.00,-0.0013
1960.00,-0.0017
1959.00,-0.0019
1958.00,-0.0020
1957.00,-0.0019
1956.00,-0.0015
1955.00,-0.0012
1954.00,-0.0010
1953.00,-0.0010
1952.00,-0.0011
1951.00,-0.0013
1950.00,-0.0014
1949.00,-0.0014
1948.00,-0.0014
1947.00,-0.0014
1946.00,-0.0015
1945.00,-0.0014
1944.00,-0.0014
1943.00,-0.0014
1942.00,-0.0014
1941.00,-0.0013
1940.00,-0.0013
1939.00,-0.0013
1938.00,-0.0012
1937.00,-0.0012
1936.00,-0.0011
1935.00,-0.0010
1934.00,-0.0009
1933.00,-0.0008
1932.00,-0.0008
1931.00,-0.0007
1930.00,-0.0007
1929.00,-0.0006
1928.00,-0.0005
1927.00,-0.0005
1926.00,-0.0006
1925.00,-0.0006
1924.00,-0.0006
1923.00,-0.0005
1922.00,-0.0004
1921.00,-0.0003
1920.00,-0.0003
1919.00,-0.0002
1918.00,-0.0001
1917.00,0.0000
1916.00,0.0002
1915.00,0.0002
1914.00,0.0002
1913.00,0.0002
1912.00,0.0001
1911.00,-0.0000
1910.00,-0.0001
1909.00,-0.0001
1908.00,-0.0001
1907.00,-0.0001
1906.00,-0.0002
1905.00,-0.0001
1904.00,-0.0001
1903.00,-0.0001
1902.00,-0.0001
1901.00,-0.0002
1900.00,-0.0001
1899.00,-0.0001
1898.00,-0.0001
1897.00,-0.0000
1896.00,-0.0001
1895.00,-0.0001
1894.00,-0.0000
1893.00,0.0000
1892.00,0.0001
1891.00,0.0001
1890.00,0.0000
1889.00,0.0000
1888.00,0.0001
1887.00,0.0001
1886.00,0.0000
1885.00,0.0000
1884.00,-0.0000
1883.00,-0.0001
1882.00,-0.0001
1881.00,-0.0002
1880.00,-0.0002
1879.00,-0.0001
1878.00,-0.0001
1877.00,-0.0001
1876.00,-0.0001
1875.00,-0.0001
1874.00,-0.0001
1873.00,0.0000
1872.00,0.0001
1871.00,0.0001
1870.00,0.0001
1869.00,0.0001
1868.00,0.0002
1867.00,0.0002
1866.00,0.0001
1865.00,0.0000
1864.00,0.0000
1863.00,0.0000
1862.00,0.0001
1861.00,0.0002
1860.00,0.0003
1859.00,0.0003
1858.00,0.0003
1857.00,0.0002
1856.00,0.0002
1855.00,0.0002
1854.00,0.0003
1853.00,0.0003
1852.00,0.0003
1851.00,0.0003
1850.00,0.0002
1849.00,0.0002
1848.00,0.0002
1847.00,0.0002
1846.00,0.0002
1845.00,0.0003
1844.00,0.0003
1843.00,0.0004
1842.00,0.0003
1841.00,0.0003
1840.00,0.0003
1839.00,0.0002
1838.00,0.0002
1837.00,0.0002
1836.00,0.0002
1835.00,0.0002
1834.00,0.0003
1833.00,0.0003
1832.00,0.0003
1831.00,0.0003
1830.00,0.0003
1829.00,0.0003
1828.00,0.0003
1827.00,0.0003
1826.00,0.0003
1825.00,0.0004
1824.00,0.0004
1823.00,0.0004
1822.00,0.0004
1821.00,0.0003
1820.00,0.0003
1819.00,0.0002
1818.00,0.0001
1817.00,0.0001
1816.00,0.0001
1815.00,0.0002
1814.00,0.0002
1813.00,0.0003
1812.00,0.0003
1811.00,0.0003
1810.00,0.0003
1809.00,0.0003
1808.00,0.0004
1807.00,0.0004
1806.00,0.0004
1805.00,0.0005
1804.00,0.0006
1803.00,0.0006
1802.00,0.0006
1801.00,0.0006
1800.00,0.0006
1799.00,0.0006
1798.00,0.0005
1797.00,0.0005
1796.00,0.0005
1795.00,0.0005
1794.00,0.0006
1793.00,0.0006
1792.00,0.0007
1791.00,0.0007
1790.00,0.0007
1789.00,0.0008
1788.00,0.0008
1787.00,0.0008
1786.00,0.0007
1785.00,0.0007
1784.00,0.0006
1783.00,0.0007
1782.00,0.0008
1781.00,0.0009
1780.00,0.0010
1779.00,0.0010
1778.00,0.0010
1777.00,0.0010
1776.00,0.0010
1775.00,0.0009
1774.00,0.0009
1773.00,0.0009
1772.00,0.0009
1771.00,0.0010
1770.00,0.0011
1769.00,0.0011
1768.00,0.0011
1767.00,0.0011
1766.00,0.0011
1765.00,0.0012
1764.00,0.0012
1763.00,0.0012
1762.00,0.0012
1761.00,0.0012
1760.00,0.0012
1759.00,0.0012
1758.00,0.0013
1757.00,0.0013
1756.00,0.0013
1755.00,0.0014
1754.00,0.0014
1753.00,0.0015
1752.00,0.0015
1751.00,0.0016
1750.00,0.0016
1749.00,0.0017
1748.00,0.0018
1747.00,0.0018
1746.00,0.0018
1745.00,0.0019
1744.00,0.0019
1743.00,0.0020
1742.00,0.0021
1741.00,0.0022
1740.00,0.0022
1739.00,0.0022
1738.00,0.0022
1737.00,0.0023
1736.00,0.0023
1735.00,0.0023
1734.00,0.0022
1733.00,0.0021
1732.00,0.0021
1731.00,0.0021
1730.00,0.0022
1729.00,0.0022
1728.00,0.0023
1727.00,0.0023
1726.00,0.0023
1725.00,0.0024
1724.00,0.0024
1723.00,0.0024
1722.00,0.0024
1721.00,0.0024
1720.00,0.0025
1719.00,0.0024
1718.00,0.0023
1717.00,0.0022
1716.00,0.0022
1715.00,0.0022
1714.00,0.0023
1713.00,0.0023
1712.00,0.0023
1711.00,0.0022
1710.00,0.0022
1709.00,0.0022
1708.00,0.0022
1707.00,0.0022
1706.00,0.0023
1705.00,0.0024
1704.00,0.0025
1703.00,0.0025
1702.00,0.0026
1701.00,0.0026
1700.00,0.0026
1699.00,0.0026
1698.00,0.0027
1697.00,0.0028
1696.00,0.0029
1695.00,0.0029
1694.00,0.0028
1693.00,0.0029
1692.00,0.0029
1691.00,0.0029
1690.00,0.0030
1689.00,0.0030
1688.00,0.0031
1687.00,0.0032
1686.00,0.0032
1685.00,0.0033
1684.00,0.0033
1683.00,0.0034
1682.00,0.0034
1681.00,0.0035
1680.00,0.0036
1679.00,0.0037
1678.00,0.0038
1677.00,0.0040
1676.00,0.0041
1675.00,0.0041
1674.00,0.0041
1673.00,0.0041
1672.00,0.0041
1671.00,0.0041
1670.00,0.0041
1669.00,0.0042
1668.00,0.0043
1667.00,0.0043
1666.00,0.0044
1665.00,0.0044
1664.00,0.0045
1663.00,0.0046
1662.00,0.0046
1661.00,0.0047
1660.00,0.0047
1659.00,0.0047
1658.00,0.0048
1657.00,0.0049
1656.00,0.0050
1655.00,0.0052
1654.00,0.0053
1653.00,0.0056
1652.00,0.0057
1651.00,0.0056
1650.00,0.0057
1649.00,0.0059
1648.00,0.0061
1647.00,0.0063
1646.00,0.0064
1645.00,0.0065
1644.00,0.0065
1643.00,0.0065
1642.00,0.0065
1641.00,0.0066
1640.00,0.0066
1639.00,0.0067
1638.00,0.0067
1637.00,0.0067
1636.00,0.0068
1635.00,0.0069
1634.00,0.0069
1633.00,0.0069
1632.00,0.0069
1631.00,0.0068
1630.00,0.0068
1629.00,0.0067
1628.00,0.0067
1627.00,0.0067
1626.00,0.0066
1625.00,0.0066
1624.00,0.0066
1623.00,0.0065
1622.00,0.0064
1621.00,0.0063
1620.00,0.0063
1619.00,0.0063
1618.00,0.0063
1617.00,0.0062
1616.00,0.0062
1615.00,0.0061
1614.00,0.0060
1613.00,0.0060
1612.00,0.0060
1611.00,0.0060
1610.00,0.0059
1609.00,0.0060
1608.00,0.0060
1607.00,0.0061
1606.00,0.0061
1605.00,0.0061
1604.00,0.0061
1603.00,0.0061
1602.00,0.0061
1601.00,0.0062
1600.00,0.0062
1599.00,0.0063
1598.00,0.0063
1597.00,0.0063
1596.00,0.0063
1595.00,0.0063
1594.00,0.0064
1593.00,0.0065
1592.00,0.0067
1591.00,0.0069
1590.00,0.0071
1589.00,0.0073
1588.00,0.0077
1587.00,0.0080
1586.00,0.0084
1585.00,0.0089
1584.00,0.0095
1583.00,0.0102
1582.00,0.0109
1581.00,0.0117
1580.00,0.0124
1579.00,0.0130
1578.00,0.0134
1577.00,0.0136
1576.00,0.0135
1575.00,0.0132
1574.00,0.0127
1573.00,0.0123
1572.00,0.0119
1571.00,0.0113
1570.00,0.0106
1569.00,0.0100
1568.00,0.0096
1567.00,0.0093
1566.00,0.0090
1565.00,0.0088
1564.00,0.0087
1563.00,0.0086
1562.00,0.0086
1561.00,0.0085
1560.00,0.0084
1559.00,0.0082
1558.00,0.0082
1557.00,0.0083
1556.00,0.0083
1555.00,0.0084
1554.00,0.0086
1553.00,0.0088
1552.00,0.0091
1551.00,0.0095
1550.00,0.0099
1549.00,0.0104
1548.00,0.0109
1547.00,0.0114
1546.00,0.0121
1545.00,0.0129
1544.00,0.0138
1543.00,0.0146
1542.00,0.0152
1541.00,0.0154
1540.00,0.0151
1539.00,0.0143
1538.00,0.0134
1537.00,0.0127
1536.00,0.0120
1535.00,0.0112
1534.00,0.0102
1533.00,0.0093
1532.00,0.0087
1531.00,0.0083
1530.00,0.0079
1529.00,0.0076
1528.00,0.0074
1527.00,0.0071
1526.00,0.0069
1525.00,0.0068
1524.00,0.0068
1523.00,0.0068
1522.00,0.0068
1521.00,0.0068
1520.00,0.0068
1519.00,0.0068
1518.00,0.0068
1517.00,0.0068
1516.00,0.0068
1515.00,0.0068
1514.00,0.0068
1513.00,0.0068
1512.00,0.0069
1511.00,0.0069
1510.00,0.0069
1509.00,0.0070
1508.00,0.0071
1507.00,0.0071
1506.00,0.0071
1505.00,0.0072
1504.00,0.0073
1503.00,0.0075
1502.00,0.0078
1501.00,0.0081
1500.00,0.0084
1499.00,0.0087
1498.00,0.0088
1497.00,0.0091
1496.00,0.0095
1495.00,0.0098
1494.00,0.0102
1493.00,0.0106
1492.00,0.0110
1491.00,0.0115
1490.00,0.0120
1489.00,0.0127
1488.00,0.0134
1487.00,0.0141
1486.00,0.0148
1485.00,0.0157
1484.00,0.0167
1483.00,0.0178
1482.00,0.0192
1481.00,0.0207
1480.00,0.0223
1479.00,0.0239
1478.00,0.0256
1477.00,0.0278
1476.00,0.0304
1475.00,0.0334
1474.00,0.0373
1473.00,0.0427
1472.00,0.0491
1471.00,0.0553
1470.00,0.0613
1469.00,0.0675
1468.00,0.0743
1467.00,0.0817
1466.00,0.0900
1465.00,0.0988
1464.00,0.1064
1463.00,0.1116
1462.00,0.1148
1461.00,0.1169
1460.00,0.1183
1459.00,0.1191
1458.00,0.1197
1457.00,0.1203
1456.00,0.1202
1455.00,0.1194
1454.00,0.1183
1453.00,0.1167
1452.00,0.1141
1451.00,0.1104
1450.00,0.1052
1449.00,0.0982
1448.00,0.0892
1447.00,0.0798
1446.00,0.0712
1445.00,0.0640
1444.00,0.0578
1443.00,0.0529
1442.00,0.0491
1441.00,0.0466
1440.00,0.0450
1439.00,0.0444
1438.00,0.0446
1437.00,0.0448
1436.00,0.0440
1435.00,0.0417
1434.00,0.0383
1433.00,0.0342
1432.00,0.0298
1431.00,0.0259
1430.00,0.0228
1429.00,0.0206
1428.00,0.0191
1427.00,0.0181
1426.00,0.0175
1425.00,0.0170
1424.00,0.0166
1423.00,0.0164
1422.00,0.0163
1421.00,0.0160
1420.00,0.0156
1419.00,0.0151
1418.00,0.0147
1417.00,0.0143
1416.00,0.0140
1415.00,0.0137
1414.00,0.0135
1413.00,0.0133
1412.00,0.0130
1411.00,0.0128
1410.00,0.0126
1409.00,0.0124
1408.00,0.0122
1407.00,0.0121
1406.00,0.0120
1405.00,0.0118
1404.00,0.0116
1403.00,0.0115
1402.00,0.0116
1401.00,0.0116
1400.00,0.0116
1399.00,0.0117
1398.00,0.0118
1397.00,0.0120
1396.00,0.0121
1395.00,0.0123
1394.00,0.0127
1393.00,0.0131
1392.00,0.0137
1391.00,0.0145
1390.00,0.0155
1389.00,0.0168
1388.00,0.0188
1387.00,0.0218
1386.00,0.0259
1385.00,0.0313
1384.00,0.0389
1383.00,0.0497
1382.00,0.0645
1381.00,0.0835
1380.00,0.1069
1379.00,0.1331
1378.00,0.1575
1377.00,0.1744
1376.00,0.1788
1375.00,0.1683
1374.00,0.1461
1373.00,0.1202
1372.00,0.0970
1371.00,0.0780
1370.00,0.0631
1369.00,0.0518
1368.00,0.0440
1367.00,0.0392
1366.00,0.0366
1365.00,0.0355
1364.00,0.0357
1363.00,0.0369
1362.00,0.0388
1361.00,0.0410
1360.00,0.0426
1359.00,0.0431
1358.00,0.0422
1357.00,0.0399
1356.00,0.0366
1355.00,0.0329
1354.00,0.0294
1353.00,0.0263
1352.00,0.0238
1351.00,0.0218
1350.00,0.0201
1349.00,0.0188
1348.00,0.0177
1347.00,0.0167
1346.00,0.0158
1345.00,0.0151
1344.00,0.0144
1343.00,0.0139
1342.00,0.0136
1341.00,0.0133
1340.00,0.0130
1339.00,0.0128
1338.00,0.0127
1337.00,0.0127
1336.00,0.0128
1335.00,0.0130
1334.00,0.0133
1333.00,0.0136
1332.00,0.0140
1331.00,0.0143
1330.00,0.0144
1329.00,0.0142
1328.00,0.0139
1327.00,0.0134
1326.00,0.0129
1325.00,0.0123
1324.00,0.0118
1323.00,0.0113
1322.00,0.0110
1321.00,0.0107
1320.00,0.0105
1319.00,0.0103
1318.00,0.0102
1317.00,0.0100
1316.00,0.0099
1315.00,0.0098
1314.00,0.0097
1313.00,0.0098
1312.00,0.0099
1311.00,0.0102
1310.00,0.0106
1309.00,0.0112
1308.00,0.0122
1307.00,0.0134
1306.00,0.0145
1305.00,0.0152
1304.00,0.0154
1303.00,0.0150
1302.00,0.0144
1301.00,0.0139
1300.00,0.0136
1299.00,0.0136
1298.00,0.0137
1297.00,0.0137
1296.00,0.0135
1295.00,0.0132
1294.00,0.0128
1293.00,0.0123
1292.00,0.0118
1291.00,0.0113
1290.00,0.0109
1289.00,0.0105
1288.00,0.0101
1287.00,0.0098
1286.00,0.0095
1285.00,0.0093
1284.00,0.0091
1283.00,0.0089
1282.00,0.0088
1281.00,0.0087
1280.00,0.0086
1279.00,0.0086
1278.00,0.0085
1277.00,0.0084
1276.00,0.0084
1275.00,0.0083
1274.00,0.0082
1273.00,0.0081
1272.00,0.0082
1271.00,0.0083
1270.00,0.0084
1269.00,0.0085
1268.00,0.0087
1267.00,0.0088
1266.00,0.0090
1265.00,0.0092
1264.00,0.0095
1263.00,0.0098
1262.00,0.0101
1261.00,0.0106
1260.00,0.0111
1259.00,0.0118
1258.00,0.0125
1257.00,0.0131
1256.00,0.0133
1255.00,0.0131
1254.00,0.0125
1253.00,0.0116
1252.00,0.0106
1251.00,0.0099
1250.00,0.0093
1249.00,0.0090
1248.00,0.0087
1247.00,0.0086
1246.00,0.0085
1245.00,0.0084
1244.00,0.0083
1243.00,0.0083
1242.00,0.0082
1241.00,0.0082
1240.00,0.0082
1239.00,0.0082
1238.00,0.0082
1237.00,0.0083
1236.00,0.0083
1235.00,0.0084
1234.00,0.0086
1233.00,0.0087
1232.00,0.0089
1231.00,0.0091
1230.00,0.0092
1229.00,0.0095
1228.00,0.0097
1227.00,0.0099
1226.00,0.0102
1225.00,0.0105
1224.00,0.0108
1223.00,0.0112
1222.00,0.0117
1221.00,0.0120
1220.00,0.0123
1219.00,0.0124
1218.00,0.0124
1217.00,0.0122
1216.00,0.0120
1215.00,0.0117
1214.00,0.0114
1213.00,0.0111
1212.00,0.0108
1211.00,0.0105
1210.00,0.0103
1209.00,0.0101
1208.00,0.0100
1207.00,0.0100
1206.00,0.0100
1205.00,0.0099
1204.00,0.0099
1203.00,0.0098
1202.00,0.0098
1201.00,0.0098
1200.00,0.0098
1199.00,0.0099
1198.00,0.0100
1197.00,0.0101
1196.00,0.0101
1195.00,0.0102
1194.00,0.0102
1193.00,0.0101
1192.00,0.0101
1191.00,0.0100
1190.00,0.0098
1189.00,0.0097
1188.00,0.0096
1187.00,0.0097
1186.00,0.0097
1185.00,0.0098
1184.00,0.0098
1183.00,0.0099
1182.00,0.0100
1181.00,0.0102
1180.00,0.0104
1179.00,0.0109
1178.00,0.0114
1177.00,0.0122
1176.00,0.0132
1175.00,0.0145
1174.00,0.0164
1173.00,0.0188
1172.00,0.0217
1171.00,0.0250
1170.00,0.0281
1169.00,0.0306
1168.00,0.0321
1167.00,0.0323
1166.00,0.0313
1165.00,0.0295
1164.00,0.0275
1163.00,0.0256
1162.00,0.0239
1161.00,0.0226
1160.00,0.0215
1159.00,0.0207
1158.00,0.0201
1157.00,0.0197
1156.00,0.0195
1155.00,0.0193
1154.00,0.0191
1153.00,0.0188
1152.00,0.0183
1151.00,0.0177
1150.00,0.0169
1149.00,0.0159
1148.00,0.0150
1147.00,0.0142
1146.00,0.0134
1145.00,0.0126
1144.00,0.0120
1143.00,0.0113
1142.00,0.0108
1141.00,0.0103
1140.00,0.0099
1139.00,0.0095
1138.00,0.0092
1137.00,0.0089
1136.00,0.0086
1135.00,0.0085
1134.00,0.0084
1133.00,0.0085
1132.00,0.0085
1131.00,0.0085
1130.00,0.0086
1129.00,0.0087
1128.00,0.0089
1127.00,0.0090
1126.00,0.0091
1125.00,0.0092
1124.00,0.0093
1123.00,0.0094
1122.00,0.0095
1121.00,0.0095
1120.00,0.0094
1119.00,0.0094
1118.00,0.0094
1117.00,0.0095
1116.00,0.0096
1115.00,0.0097
1114.00,0.0099
1113.00,0.0101
1112.00,0.0103
1111.00,0.0105
1110.00,0.0108
1109.00,0.0110
1108.00,0.0114
1107.00,0.0119
1106.00,0.0126
1105.00,0.0132
1104.00,0.0137
1103.00,0.0140
1102.00,0.0139
1101.00,0.0135
1100.00,0.0129
1099.00,0.0123
1098.00,0.0116
1097.00,0.0109
1096.00,0.0104
1095.00,0.0100
1094.00,0.0096
1093.00,0.0093
1092.00,0.0090
1091.00,0.0088
1090.00,0.0087
1089.00,0.0085
1088.00,0.0084
1087.00,0.0083
1086.00,0.0083
1085.00,0.0082
1084.00,0.0082
1083.00,0.0082
1082.00,0.0082
1081.00,0.0082
1080.00,0.0081
1079.00,0.0080
1078.00,0.0079
1077.00,0.0078
1076.00,0.0078
1075.00,0.0078
1074.00,0.0078
1073.00,0.0078
1072.00,0.0077
1071.00,0.0076
1070.00,0.0076
1069.00,0.0076
1068.00,0.0076
1067.00,0.0078
1066.00,0.0079
1065.00,0.0080
1064.00,0.0081
1063.00,0.0082
1062.00,0.0083
1061.00,0.0084
1060.00,0.0084
1059.00,0.0084
1058.00,0.0085
1057.00,0.0086
1056.00,0.0087
1055.00,0.0088
1054.00,0.0091
1053.00,0.0094
1052.00,0.0098
1051.00,0.0103
1050.00,0.0109
1049.00,0.0114
1048.00,0.0119
1047.00,0.0123
1046.00,0.0128
1045.00,0.0131
1044.00,0.0133
1043.00,0.0133
1042.00,0.0131
1041.00,0.0130
1040.00,0.0130
1039.00,0.0131
1038.00,0.0134
1037.00,0.0136
1036.00,0.0137
1035.00,0.0136
1034.00,0.0133
1033.00,0.0130
1032.00,0.0127
1031.00,0.0124
1030.00,0.0123
1029.00,0.0122
1028.00,0.0122
1027.00,0.0122
1026.00,0.0124
1025.00,0.0125
1024.00,0.0127
1023.00,0.0130
1022.00,0.0132
1021.00,0.0134
1020.00,0.0136
1019.00,0.0138
1018.00,0.0139
1017.00,0.0140
1016.00,0.0142
1015.00,0.0144
1014.00,0.0147
1013.00,0.0149
1012.00,0.0152
1011.00,0.0153
1010.00,0.0152
1009.00,0.0151
1008.00,0.0150
1007.00,0.0152
1006.00,0.0157
1005.00,0.0167
1004.00,0.0184
1003.00,0.0207
1002.00,0.0237
1001.00,0.0275
1000.00,0.0316
999.00,0.0350
998.00,0.0367
997.00,0.0361
996.00,0.0333
995.00,0.0292
994.00,0.0249
993.00,0.0212
992.00,0.0182
991.00,0.0160
990.00,0.0145
989.00,0.0134
988.00,0.0127
987.00,0.0123
986.00,0.0122
985.00,0.0123
984.00,0.0127
983.00,0.0134
982.00,0.0144
981.00,0.0159
980.00,0.0181
979.00,0.0209
978.00,0.0245
977.00,0.0288
976.00,0.0334
975.00,0.0378
974.00,0.0410
973.00,0.0421
972.00,0.0405
971.00,0.0366
970.00,0.0313
969.00,0.0259
968.00,0.0212
967.00,0.0177
966.00,0.0152
965.00,0.0135
964.00,0.0122
963.00,0.0112
962.00,0.0105
961.00,0.0099
960.00,0.0095
959.00,0.0091
958.00,0.0087
957.00,0.0083
956.00,0.0081
955.00,0.0079
954.00,0.0077
953.00,0.0075
952.00,0.0074
951.00,0.0073
950.00,0.0073
949.00,0.0073
948.00,0.0073
947.00,0.0074
946.00,0.0075
945.00,0.0078
944.00,0.0081
943.00,0.0085
942.00,0.0087
941.00,0.0088
940.00,0.0088
939.00,0.0086
938.00,0.0084
937.00,0.0080
936.00,0.0076
935.00,0.0072
934.00,0.0069
933.00,0.0067
932.00,0.0066
931.00,0.0065
930.00,0.0065
929.00,0.0065
928.00,0.0065
927.00,0.0064
926.00,0.0064
925.00,0.0063
924.00,0.0062
923.00,0.0062
922.00,0.0062
921.00,0.0062
920.00,0.0062
919.00,0.0063
918.00,0.0063
917.00,0.0064
916.00,0.0065
915.00,0.0066
914.00,0.0066
913.00,0.0067
912.00,0.0069
911.00,0.0070
910.00,0.0073
909.00,0.0076
908.00,0.0079
907.00,0.0084
906.00,0.0091
905.00,0.0101
904.00,0.0114
903.00,0.0131
902.00,0.0149
901.00,0.0166
900.00,0.0177
899.00,0.0178
898.00,0.0170
897.00,0.0154
896.00,0.0136
895.00,0.0119
894.00,0.0106
893.00,0.0096
892.00,0.0089
891.00,0.0084
890.00,0.0081
889.00,0.0078
888.00,0.0076
887.00,0.0075
886.00,0.0074
885.00,0.0073
884.00,0.0073
883.00,0.0073
882.00,0.0074
881.00,0.0075
880.00,0.0075
879.00,0.0076
878.00,0.0077
877.00,0.0078
876.00,0.0078
875.00,0.0079
874.00,0.0079
873.00,0.0078
872.00,0.0077
871.00,0.0077
870.00,0.0077
869.00,0.0077
868.00,0.0077
867.00,0.0077
866.00,0.0077
865.00,0.0078
864.00,0.0079
863.00,0.0082
862.00,0.0084
861.00,0.0087
860.00,0.0088
859.00,0.0090
858.00,0.0091
857.00,0.0092
856.00,0.0092
855.00,0.0093
854.00,0.0094
853.00,0.0097
852.00,0.0101
851.00,0.0105
850.00,0.0111
849.00,0.0117
848.00,0.0126
847.00,0.0139
846.00,0.0161
845.00,0.0195
844.00,0.0242
843.00,0.0298
842.00,0.0344
841.00,0.0361
840.00,0.0338
839.00,0.0288
838.00,0.0231
837.00,0.0184
836.00,0.0154
835.00,0.0136
834.00,0.0126
833.00,0.0120
832.00,0.0116
831.00,0.0111
830.00,0.0108
829.00,0.0106
828.00,0.0104
827.00,0.0102
826.00,0.0100
825.00,0.0098
824.00,0.0096
823.00,0.0096
822.00,0.0098
821.00,0.0100
820.00,0.0103
819.00,0.0105
818.00,0.0109
817.00,0.0114
816.00,0.0122
815.00,0.0133
814.00,0.0147
813.00,0.0165
812.00,0.0184
811.00,0.0202
810.00,0.0216
809.00,0.0222
808.00,0.0219
807.00,0.0208
806.00,0.0192
805.00,0.0173
804.00,0.0156
803.00,0.0141
802.00,0.0130
801.00,0.0122
800.00,0.0116
799.00,0.0110
798.00,0.0105
797.00,0.0101
796.00,0.0098
795.00,0.0096
794.00,0.0093
793.00,0.0092
792.00,0.0090
791.00,0.0088
790.00,0.0086
789.00,0.0084
788.00,0.0082
787.00,0.0079
786.00,0.0077
785.00,0.0074
784.00,0.0072
783.00,0.0071
782.00,0.0069
781.00,0.0068
780.00,0.0066
779.00,0.0065
778.00,0.0065
777.00,0.0066
776.00,0.0068
775.00,0.0069
774.00,0.0070
773.00,0.0071
772.00,0.0072
771.00,0.0072
770.00,0.0071
769.00,0.0071
768.00,0.0071
767.00,0.0072
766.00,0.0074
765.00,0.0075
764.00,0.0074
763.00,0.0072
762.00,0.0069
761.00,0.0069
760.00,0.0071
759.00,0.0074
758.00,0.0077
757.00,0.0079
756.00,0.0080
755.00,0.0080
754.00,0.0081
753.00,0.0081
752.00,0.0081
751.00,0.0080
750.00,0.0079
749.00,0.0079
748.00,0.0080
747.00,0.0083
746.00,0.0087
745.00,0.0091
744.00,0.0095
743.00,0.0098
742.00,0.0101
741.00,0.0103
740.00,0.0106
739.00,0.0110
738.00,0.0115
737.00,0.0119
736.00,0.0123
735.00,0.0128
734.00,0.0133
733.00,0.0140
732.00,0.0147
731.00,0.0154
730.00,0.0160
729.00,0.0164
728.00,0.0166
727.00,0.0167
726.00,0.0169
725.00,0.0171
724.00,0.0176
723.00,0.0183
722.00,0.0188
721.00,0.0190
720.00,0.0186
719.00,0.0175
718.00,0.0162
717.00,0.0149
716.00,0.0139
715.00,0.0132
714.00,0.0126
713.00,0.0120
712.00,0.0116
711.00,0.0113
710.00,0.0112
709.00,0.0112
708.00,0.0112
707.00,0.0112
706.00,0.0112
705.00,0.0110
704.00,0.0107
703.00,0.0104
702.00,0.0101
701.00,0.0101
700.00,0.0101
699.00,0.0102
698.00,0.0102
697.00,0.0101
696.00,0.0101
695.00,0.0100
694.00,0.0100
693.00,0.0100
692.00,0.0100
691.00,0.0101
690.00,0.0102
689.00,0.0103
688.00,0.0104
687.00,0.0105
686.00,0.0104
685.00,0.0103
684.00,0.0102
683.00,0.0102
682.00,0.0104
681.00,0.0106
680.00,0.0108
679.00,0.0109
678.00,0.0109
677.00,0.0110
676.00,0.0110
675.00,0.0110
674.00,0.0111
673.00,0.0111
672.00,0.0113
671.00,0.0115
670.00,0.0119
669.00,0.0123
668.00,0.0124
667.00,0.0122
666.00,0.0117
665.00,0.0112
664.00,0.0109
663.00,0.0107
662.00,0.0106
661.00,0.0104
660.00,0.0102
659.00,0.0100
658.00,0.0097
657.00,0.0095
656.00,0.0093
655.00,0.0091
654.00,0.0090
653.00,0.0090
652.00,0.0091
651.00,0.0092
650.00,0.0092
649.00,0.0092
648.00,0.0091
647.00,0.0091
646.00,0.0092
645.00,0.0092
644.00,0.0091
643.00,0.0092
642.00,0.0092
641.00,0.0092
640.00,0.0092
639.00,0.0093
638.00,0.0094
637.00,0.0095
636.00,0.0093
635.00,0.0092
634.00,0.0092
633.00,0.0094
632.00,0.0096
631.00,0.0098
630.00,0.0098
629.00,0.0097
628.00,0.0095
627.00,0.0094
626.00,0.0093
625.00,0.0092
624.00,0.0091
623.00,0.0090
622.00,0.0090
621.00,0.0089
620.00,0.0090
619.00,0.0090
618.00,0.0091
617.00,0.0092
616.00,0.0093
615.00,0.0094
614.00,0.0095
613.00,0.0097
612.00,0.0098
611.00,0.0098
610.00,0.0096
609.00,0.0093
608.00,0.0090
607.00,0.0089
606.00,0.0089
605.00,0.0089
604.00,0.0089
603.00,0.0089
602.00,0.0089
601.00,0.0089
600.00,0.0090
599.00,0.0090
598.00,0.0090
597.00,0.0091
596.00,0.0092
595.00,0.0091
594.00,0.0090
593.00,0.0090
592.00,0.0092
591.00,0.0095
590.00,0.0097
589.00,0.0096
588.00,0.0092
587.00,0.0088
586.00,0.0085
585.00,0.0084
584.00,0.0085
583.00,0.0088
582.00,0.0090
581.00,0.0091
580.00,0.0090
579.00,0.0089
578.00,0.0088
577.00,0.0087
576.00,0.0088
575.00,0.0091
574.00,0.0092
573.00,0.0091
572.00,0.0088
571.00,0.0087
570.00,0.0088
569.00,0.0090
568.00,0.0091
567.00,0.0090
566.00,0.0090
565.00,0.0090
564.00,0.0091
563.00,0.0091
562.00,0.0091
561.00,0.0091
560.00,0.0092
559.00,0.0092
558.00,0.0093
557.00,0.0093
556.00,0.0090
555.00,0.0087
554.00,0.0084
553.00,0.0083
552.00,0.0084
551.00,0.0089
550.00,0.0093
549.00,0.0095
548.00,0.0094
547.00,0.0093
546.00,0.0094
545.00,0.0097
544.00,0.0100
543.00,0.0102
542.00,0.0106
541.00,0.0112
540.00,0.0116
539.00,0.0117
538.00,0.0117
537.00,0.0117
536.00,0.0118
535.00,0.0119
534.00,0.0120
533.00,0.0120
532.00,0.0120
531.00,0.0121
530.00,0.0119
529.00,0.0115
528.00,0.0110
527.00,0.0108
526.00,0.0110
525.00,0.0112
524.00,0.0112
523.00,0.0110
522.00,0.0109
521.00,0.0109
520.00,0.0109
519.00,0.0105
518.00,0.0098
517.00,0.0092
516.00,0.0091
515.00,0.0092
514.00,0.0091
513.00,0.0089
512.00,0.0087
511.00,0.0085
510.00,0.0084
509.00,0.0082
508.00,0.0082
507.00,0.0085
506.00,0.0091
505.00,0.0097
504.00,0.0101
503.00,0.0105
502.00,0.0106
501.00,0.0103
500.00,0.0096
499.00,0.0089
498.00,0.0085
497.00,0.0087
496.00,0.0091
495.00,0.0097
494.00,0.0101
493.00,0.0104
492.00,0.0105
491.00,0.0104
490.00,0.0104
489.00,0.0105
488.00,0.0107
487.00,0.0109
486.00,0.0110
485.00,0.0110
484.00,0.0109
483.00,0.0108
482.00,0.0108
481.00,0.0109
480.00,0.0104
479.00,0.0093
478.00,0.0080
477.00,0.0074
476.00,0.0081
475.00,0.0095
474.00,0.0111
473.00,0.0123
472.00,0.0131
471.00,0.0134
470.00,0.0134
469.00,0.0133
468.00,0.0135
467.00,0.0139
466.00,0.0146
465.00,0.0153
464.00,0.0162
463.00,0.0171
462.00,0.0181
461.00,0.0190
460.00,0.0200
459.00,0.0212
458.00,0.0221
457.00,0.0222
456.00,0.0214
455.00,0.0202
454.00,0.0192
453.00,0.0186
452.00,0.0182
451.00,0.0179
450.00,0.0176
