Created as New Dataset,Sample 057 By Administrator Date Wednesday, September 03 2025
cm-1,A
4000.00,0.0013
3999.00,0.0013
3998.00,0.0013
3997.00,0.0013
3996.00,0.0013
3995.00,0.0013
3994.00,0.0013
3993.00,0.0013
3992.00,0.0013
3991.00,0.0013
3990.00,0.0013
3989.00,0.0013
3988.00,0.0013
3987.00,0.0012
3986.00,0.0012
3985.00,0.0012
3984.00,0.0012
3983.00,0.0012
3982.00,0.0012
3981.00,0.0013
3980.00,0.0013
3979.00,0.0013
3978.00,0.0013
3977.00,0.0012
3976.00,0.0012
3975.00,0.0012
3974.00,0.0012
3973.00,0.0012
3972.00,0.0012
3971.00,0.0012
3970.00,0.0012
3969.00,0.0012
3968.00,0.0012
3967.00,0.0012
3966.00,0.0012
3965.00,0.0011
3964.00,0.0011
3963.00,0.0011
3962.00,0.0011
3961.00,0.0011
3960.00,0.0011
3959.00,0.0011
3958.00,0.0011
3957.00,0.0011
3956.00,0.0011
3955.00,0.0011
3954.00,0.0011
3953.00,0.0011
3952.00,0.0011
3951.00,0.0011
3950.00,0.0011
3949.00,0.0011
3948.00,0.0011
3947.00,0.0011
3946.00,0.0011
3945.00,0.0011
3944.00,0.0012
3943.00,0.0012
3942.00,0.0012
3941.00,0.0012
3940.00,0.0012
3939.00,0.0012
3938.00,0.0012
3937.00,0.0012
3936.00,0.0012
3935.00,0.0012
3934.00,0.0012
3933.00,0.0011
3932.00,0.0011
3931.00,0.0012
3930.00,0.0012
3929.00,0.0011
3928.00,0.0011
3927.00,0.0011
3926.00,0.0011
3925.00,0.0012
3924.00,0.0012
3923.00,0.0012
3922.00,0.0011
3921.00,0.0011
3920.00,0.0011
3919.00,0.0011
3918.00,0.0011
3917.00,0.0012
3916.00,0.0012
3915.00,0.0012
3914.00,0.0012
3913.00,0.0012
3912.00,0.0011
3911.00,0.0011
3910.00,0.0011
3909.00,0.0011
3908.00,0.0011
3907.00,0.0011
3906.00,0.0011
3905.00,0.0011
3904.00,0.0011
3903.00,0.0011
3902.00,0.0011
3901.00,0.0011
3900.00,0.0011
3899.00,0.0011
3898.00,0.0011
3897.00,0.0011
3896.00,0.0011
3895.00,0.0011
3894.00,0.0010
3893.00,0.0010
3892.00,0.0010
3891.00,0.0010
3890.00,0.0010
3889.00,0.0010
3888.00,0.0010
3887.00,0.0010
3886.00,0.0011
3885.00,0.0011
3884.00,0.0011
3883.00,0.0011
3882.00,0.0010
3881.00,0.0010
3880.00,0.0011
3879.00,0.0011
3878.00,0.0011
3877.00,0.0010
3876.00,0.0010
3875.00,0.0010
3874.00,0.0009
3873.00,0.0009
3872.00,0.0009
3871.00,0.0009
3870.00,0.0008
3869.00,0.0009
3868.00,0.0009
3867.00,0.0009
3866.00,0.0009
3865.00,0.0009
3864.00,0.0009
3863.00,0.0009
3862.00,0.0009
3861.00,0.0008
3860.00,0.0008
3859.00,0.0008
3858.00,0.0009
3857.00,0.0009
3856.00,0.0009
3855.00,0.0008
3854.00,0.0008
3853.00,0.0008
3852.00,0.0008
3851.00,0.0009
3850.00,0.0009
3849.00,0.0009
3848.00,0.0009
3847.00,0.0010
3846.00,0.0010
3845.00,0.0010
3844.00,0.0010
3843.00,0.0009
3842.00,0.0009
3841.00,0.0009
3840.00,0.0008
3839.00,0.0008
3838.00,0.0008
3837.00,0.0009
3836.00,0.0009
3835.00,0.0009
3834.00,0.0009
3833.00,0.0009
3832.00,0.0009
3831.00,0.0009
3830.00,0.0010
3829.00,0.0010
3828.00,0.0010
3827.00,0.0010
3826.00,0.0010
3825.00,0.0010
3824.00,0.0010
3823.00,0.0009
3822.00,0.0009
3821.00,0.0009
3820.00,0.0009
3819.00,0.0009
3818.00,0.0008
3817.00,0.0008
3816.00,0.0009
3815.00,0.0010
3814.00,0.0010
3813.00,0.0011
3812.00,0.0010
3811.00,0.0010
3810.00,0.0010
3809.00,0.0010
3808.00,0.0009
3807.00,0.0009
3806.00,0.0009
3805.00,0.0010
3804.00,0.0010
3803.00,0.0009
3802.00,0.0009
3801.00,0.0009
3800.00,0.0009
3799.00,0.0009
3798.00,0.0009
3797.00,0.0010
3796.00,0.0010
3795.00,0.0011
3794.00,0.0011
3793.00,0.0010
3792.00,0.0010
3791.00,0.0010
3790.00,0.0010
3789.00,0.0010
3788.00,0.0010
3787.00,0.0010
3786.00,0.0010
3785.00,0.0010
3784.00,0.0010
3783.00,0.0010
3782.00,0.0010
3781.00,0.0010
3780.00,0.0010
3779.00,0.0010
3778.00,0.0010
3777.00,0.0010
3776.00,0.0010
3775.00,0.0010
3774.00,0.0010
3773.00,0.0010
3772.00,0.0010
3771.00,0.0010
3770.00,0.0010
3769.00,0.0010
3768.00,0.0010
3767.00,0.0010
3766.00,0.0010
3765.00,0.0010
3764.00,0.0010
3763.00,0.0010
3762.00,0.0010
3761.00,0.0010
3760.00,0.0010
3759.00,0.0010
3758.00,0.0009
3757.00,0.0009
3756.00,0.0009
3755.00,0.0008
3754.00,0.0008
3753.00,0.0007
3752.00,0.0007
3751.00,0.0007
3750.00,0.0008
3749.00,0.0008
3748.00,0.0009
3747.00,0.0009
3746.00,0.0010
3745.00,0.0010
3744.00,0.0010
3743.00,0.0009
3742.00,0.0009
3741.00,0.0008
3740.00,0.0007
3739.00,0.0007
3738.00,0.0006
3737.00,0.0005
3736.00,0.0005
3735.00,0.0006
3734.00,0.0007
3733.00,0.0007
3732.00,0.0008
3731.00,0.0008
3730.00,0.0008
3729.00,0.0008
3728.00,0.0008
3727.00,0.0008
3726.00,0.0008
3725.00,0.0008
3724.00,0.0008
3723.00,0.0008
3722.00,0.0008
3721.00,0.0008
3720.00,0.0009
3719.00,0.0009
3718.00,0.0010
3717.00,0.0009
3716.00,0.0009
3715.00,0.0009
3714.00,0.0008
3713.00,0.0008
3712.00,0.0007
3711.00,0.0008
3710.00,0.0008
3709.00,0.0009
3708.00,0.0009
3707.00,0.0009
3706.00,0.0009
3705.00,0.0009
3704.00,0.0009
3703.00,0.0009
3702.00,0.0009
3701.00,0.0009
3700.00,0.0009
3699.00,0.0009
3698.00,0.0009
3697.00,0.0009
3696.00,0.0009
3695.00,0.0009
3694.00,0.0009
3693.00,0.0009
3692.00,0.0008
3691.00,0.0008
3690.00,0.0008
3689.00,0.0008
3688.00,0.0008
3687.00,0.0008
3686.00,0.0007
3685.00,0.0007
3684.00,0.0007
3683.00,0.0007
3682.00,0.0007
3681.00,0.0007
3680.00,0.0007
3679.00,0.0007
3678.00,0.0007
3677.00,0.0006
3676.00,0.0004
3675.00,0.0004
3674.00,0.0004
3673.00,0.0004
3672.00,0.0004
3671.00,0.0005
3670.00,0.0005
3669.00,0.0006
3668.00,0.0006
3667.00,0.0005
3666.00,0.0005
3665.00,0.0004
3664.00,0.0004
3663.00,0.0004
3662.00,0.0005
3661.00,0.0005
3660.00,0.0005
3659.00,0.0005
3658.00,0.0005
3657.00,0.0005
3656.00,0.0005
3655.00,0.0005
3654.00,0.0005
3653.00,0.0005
3652.00,0.0004
3651.00,0.0003
3650.00,0.0003
3649.00,0.0003
3648.00,0.0004
3647.00,0.0005
3646.00,0.0006
3645.00,0.0007
3644.00,0.0007
3643.00,0.0007
3642.00,0.0008
3641.00,0.0008
3640.00,0.0009
3639.00,0.0009
3638.00,0.0008
3637.00,0.0008
3636.00,0.0009
3635.00,0.0009
3634.00,0.0009
3633.00,0.0010
3632.00,0.0010
3631.00,0.0011
3630.00,0.0011
3629.00,0.0012
3628.00,0.0013
3627.00,0.0013
3626.00,0.0013
3625.00,0.0013
3624.00,0.0013
3623.00,0.0013
3622.00,0.0013
3621.00,0.0013
3620.00,0.0013
3619.00,0.0013
3618.00,0.0013
3617.00,0.0013
3616.00,0.0014
3615.00,0.0015
3614.00,0.0015
3613.00,0.0016
3612.00,0.0016
3611.00,0.0016
3610.00,0.0016
3609.00,0.0016
3608.00,0.0017
3607.00,0.0018
3606.00,0.0018
3605.00,0.0018
3604.00,0.0018
3603.00,0.0018
3602.00,0.0018
3601.00,0.0018
3600.00,0.0018
3599.00,0.0018
3598.00,0.0019
3597.00,0.0019
3596.00,0.0019
3595.00,0.0019
3594.00,0.0020
3593.00,0.0020
3592.00,0.0020
3591.00,0.0021
3590.00,0.0021
3589.00,0.0022
3588.00,0.0022
3587.00,0.0023
3586.00,0.0024
3585.00,0.0024
3584.00,0.0024
3583.00,0.0024
3582.00,0.0024
3581.00,0.0024
3580.00,0.0024
3579.00,0.0025
3578.00,0.0025
3577.00,0.0026
3576.00,0.0027
3575.00,0.0027
3574.00,0.0027
3573.00,0.0027
3572.00,0.0027
3571.00,0.0027
3570.00,0.0027
3569.00,0.0027
3568.00,0.0027
3567.00,0.0028
3566.00,0.0029
3565.00,0.0029
3564.00,0.0030
3563.00,0.0030
3562.00,0.0029
3561.00,0.0029
3560.00,0.0030
3559.00,0.0030
3558.00,0.0031
3557.00,0.0031
3556.00,0.0031
3555.00,0.0031
3554.00,0.0031
3553.00,0.0031
3552.00,0.0031
3551.00,0.0032
3550.00,0.0032
3549.00,0.0032
3548.00,0.0032
3547.00,0.0033
3546.00,0.0033
3545.00,0.0033
3544.00,0.0034
3543.00,0.0034
3542.00,0.0034
3541.00,0.0034
3540.00,0.0034
3539.00,0.0034
3538.00,0.0034
3537.00,0.0034
3536.00,0.0034
3535.00,0.0035
3534.00,0.0035
3533.00,0.0035
3532.00,0.0035
3531.00,0.0035
3530.00,0.0035
3529.00,0.0035
3528.00,0.0035
3527.00,0.0036
3526.00,0.0036
3525.00,0.0037
3524.00,0.0037
3523.00,0.0038
3522.00,0.0038
3521.00,0.0038
3520.00,0.0038
3519.00,0.0038
3518.00,0.0038
3517.00,0.0038
3516.00,0.0038
3515.00,0.0038
3514.00,0.0039
3513.00,0.0039
3512.00,0.0039
3511.00,0.0039
3510.00,0.0039
3509.00,0.0039
3508.00,0.0039
3507.00,0.0039
3506.00,0.0039
3505.00,0.0039
3504.00,0.0039
3503.00,0.0040
3502.00,0.0041
3501.00,0.0041
3500.00,0.0041
3499.00,0.0042
3498.00,0.0042
3497.00,0.0042
3496.00,0.0042
3495.00,0.0042
3494.00,0.0042
3493.00,0.0042
3492.00,0.0042
3491.00,0.0042
3490.00,0.0042
3489.00,0.0043
3488.00,0.0043
3487.00,0.0043
3486.00,0.0043
3485.00,0.0044
3484.00,0.0044
3483.00,0.0045
3482.00,0.0045
3481.00,0.0046
3480.00,0.0046
3479.00,0.0046
3478.00,0.0046
3477.00,0.0046
3476.00,0.0046
3475.00,0.0046
3474.00,0.0046
3473.00,0.0046
3472.00,0.0046
3471.00,0.0046
3470.00,0.0046
3469.00,0.0047
3468.00,0.0047
3467.00,0.0047
3466.00,0.0048
3465.00,0.0048
3464.00,0.0048
3463.00,0.0048
3462.00,0.0048
3461.00,0.0048
3460.00,0.0048
3459.00,0.0049
3458.00,0.0049
3457.00,0.0049
3456.00,0.0049
3455.00,0.0049
3454.00,0.0050
3453.00,0.0050
3452.00,0.0050
3451.00,0.0051
3450.00,0.0051
3449.00,0.0051
3448.00,0.0051
3447.00,0.0051
3446.00,0.0051
3445.00,0.0051
3444.00,0.0051
3443.00,0.0051
3442.00,0.0051
3441.00,0.0052
3440.00,0.0052
3439.00,0.0053
3438.00,0.0054
3437.00,0.0054
3436.00,0.0054
3435.00,0.0054
3434.00,0.0054
3433.00,0.0054
3432.00,0.0054
3431.00,0.0054
3430.00,0.0054
3429.00,0.0054
3428.00,0.0054
3427.00,0.0054
3426.00,0.0054
3425.00,0.0055
3424.00,0.0055
3423.00,0.0055
3422.00,0.0056
3421.00,0.0056
3420.00,0.0056
3419.00,0.0057
3418.00,0.0057
3417.00,0.0058
3416.00,0.0058
3415.00,0.0058
3414.00,0.0058
3413.00,0.0058
3412.00,0.0058
3411.00,0.0058
3410.00,0.0058
3409.00,0.0058
3408.00,0.0058
3407.00,0.0058
3406.00,0.0058
3405.00,0.0058
3404.00,0.0058
3403.00,0.0059
3402.00,0.0059
3401.00,0.0059
3400.00,0.0059
3399.00,0.0059
3398.00,0.0059
3397.00,0.0059
3396.00,0.0059
3395.00,0.0059
3394.00,0.0059
3393.00,0.0059
3392.00,0.0059
3391.00,0.0060
3390.00,0.0060
3389.00,0.0061
3388.00,0.0061
3387.00,0.0061
3386.00,0.0060
3385.00,0.0060
3384.00,0.0060
3383.00,0.0060
3382.00,0.0060
3381.00,0.0060
3380.00,0.0060
3379.00,0.0060
3378.00,0.0060
3377.00,0.0061
3376.00,0.0061
3375.00,0.0060
3374.00,0.0060
3373.00,0.0060
3372.00,0.0060
3371.00,0.0060
3370.00,0.0060
3369.00,0.0061
3368.00,0.0061
3367.00,0.0061
3366.00,0.0061
3365.00,0.0061
3364.00,0.0061
3363.00,0.0061
3362.00,0.0061
3361.00,0.0061
3360.00,0.0061
3359.00,0.0062
3358.00,0.0062
3357.00,0.0062
3356.00,0.0062
3355.00,0.0062
3354.00,0.0062
3353.00,0.0062
3352.00,0.0062
3351.00,0.0062
3350.00,0.0062
3349.00,0.0062
3348.00,0.0062
3347.00,0.0062
3346.00,0.0062
3345.00,0.0062
3344.00,0.0062
3343.00,0.0062
3342.00,0.0062
3341.00,0.0062
3340.00,0.0062
3339.00,0.0062
3338.00,0.0062
3337.00,0.0062
3336.00,0.0062
3335.00,0.0062
3334.00,0.0062
3333.00,0.0061
3332.00,0.0061
3331.00,0.0061
3330.00,0.0061
3329.00,0.0062
3328.00,0.0062
3327.00,0.0062
3326.00,0.0061
3325.00,0.0061
3324.00,0.0060
3323.00,0.0061
3322.00,0.0061
3321.00,0.0061
3320.00,0.0061
3319.00,0.0060
3318.00,0.0060
3317.00,0.0059
3316.00,0.0059
3315.00,0.0059
3314.00,0.0059
3313.00,0.0059
3312.00,0.0059
3311.00,0.0059
3310.00,0.0060
3309.00,0.0060
3308.00,0.0060
3307.00,0.0060
3306.00,0.0060
3305.00,0.0060
3304.00,0.0061
3303.00,0.0061
3302.00,0.0061
3301.00,0.0061
3300.00,0.0061
3299.00,0.0060
3298.00,0.0060
3297.00,0.0059
3296.00,0.0059
3295.00,0.0058
3294.00,0.0058
3293.00,0.0058
3292.00,0.0057
3291.00,0.0057
3290.00,0.0057
3289.00,0.0057
3288.00,0.0057
3287.00,0.0057
3286.00,0.0056
3285.00,0.0056
3284.00,0.0056
3283.00,0.0056
3282.00,0.0056
3281.00,0.0056
3280.00,0.0056
3279.00,0.0056
3278.00,0.0055
3277.00,0.0055
3276.00,0.0054
3275.00,0.0054
3274.00,0.0053
3273.00,0.0053
3272.00,0.0053
3271.00,0.0053
3270.00,0.0053
3269.00,0.0053
3268.00,0.0053
3267.00,0.0053
3266.00,0.0053
3265.00,0.0053
3264.00,0.0053
3263.00,0.0052
3262.00,0.0052
3261.00,0.0052
3260.00,0.0052
3259.00,0.0051
3258.00,0.0050
3257.00,0.0050
3256.00,0.0050
3255.00,0.0049
3254.00,0.0050
3253.00,0.0050
3252.00,0.0050
3251.00,0.0050
3250.00,0.0050
3249.00,0.0049
3248.00,0.0049
3247.00,0.0049
3246.00,0.0048
3245.00,0.0048
3244.00,0.0048
3243.00,0.0048
3242.00,0.0048
3241.00,0.0048
3240.00,0.0048
3239.00,0.0048
3238.00,0.0048
3237.00,0.0048
3236.00,0.0048
3235.00,0.0048
3234.00,0.0048
3233.00,0.0049
3232.00,0.0049
3231.00,0.0049
3230.00,0.0049
3229.00,0.0049
3228.00,0.0048
3227.00,0.0048
3226.00,0.0048
3225.00,0.0048
3224.00,0.0048
3223.00,0.0048
3222.00,0.0049
3221.00,0.0049
3220.00,0.0049
3219.00,0.0049
3218.00,0.0049
3217.00,0.0049
3216.00,0.0049
3215.00,0.0050
3214.00,0.0050
3213.00,0.0050
3212.00,0.0050
3211.00,0.0051
3210.00,0.0051
3209.00,0.0051
3208.00,0.0051
3207.00,0.0051
3206.00,0.0051
3205.00,0.0051
3204.00,0.0052
3203.00,0.0052
3202.00,0.0052
3201.00,0.0052
3200.00,0.0051
3199.00,0.0051
3198.00,0.0051
3197.00,0.0051
3196.00,0.0051
3195.00,0.0050
3194.00,0.0050
3193.00,0.0050
3192.00,0.0050
3191.00,0.0050
3190.00,0.0050
3189.00,0.0050
3188.00,0.0050
3187.00,0.0050
3186.00,0.0049
3185.00,0.0049
3184.00,0.0049
3183.00,0.0049
3182.00,0.0049
3181.00,0.0049
3180.00,0.0049
3179.00,0.0048
3178.00,0.0048
3177.00,0.0048
3176.00,0.0048
3175.00,0.0048
3174.00,0.0047
3173.00,0.0047
3172.00,0.0047
3171.00,0.0047
3170.00,0.0047
3169.00,0.0046
3168.00,0.0046
3167.00,0.0046
3166.00,0.0045
3165.00,0.0045
3164.00,0.0045
3163.00,0.0046
3162.00,0.0046
3161.00,0.0046
3160.00,0.0045
3159.00,0.0045
3158.00,0.0045
3157.00,0.0045
3156.00,0.0045
3155.00,0.0044
3154.00,0.0044
3153.00,0.0044
3152.00,0.0045
3151.00,0.0045
3150.00,0.0045
3149.00,0.0044
3148.00,0.0044
3147.00,0.0044
3146.00,0.0044
3145.00,0.0044
3144.00,0.0044
3143.00,0.0043
3142.00,0.0043
3141.00,0.0042
3140.00,0.0042
3139.00,0.0042
3138.00,0.0042
3137.00,0.0042
3136.00,0.0042
3135.00,0.0042
3134.00,0.0041
3133.00,0.0041
3132.00,0.0040
3131.00,0.0040
3130.00,0.0040
3129.00,0.0040
3128.00,0.0039
3127.00,0.0039
3126.00,0.0039
3125.00,0.0039
3124.00,0.0039
3123.00,0.0038
3122.00,0.0038
3121.00,0.0038
3120.00,0.0038
3119.00,0.0038
3118.00,0.0038
3117.00,0.0037
3116.00,0.0037
3115.00,0.0036
3114.00,0.0036
3113.00,0.0036
3112.00,0.0036
3111.00,0.0036
3110.00,0.0036
3109.00,0.0036
3108.00,0.0036
3107.00,0.0036
3106.00,0.0036
3105.00,0.0037
3104.00,0.0037
3103.00,0.0036
3102.00,0.0036
3101.00,0.0036
3100.00,0.0036
3099.00,0.0036
3098.00,0.0035
3097.00,0.0035
3096.00,0.0035
3095.00,0.0036
3094.00,0.0036
3093.00,0.0036
3092.00,0.0036
3091.00,0.0036
3090.00,0.0036
3089.00,0.0036
3088.00,0.0036
3087.00,0.0036
3086.00,0.0036
3085.00,0.0036
3084.00,0.0036
3083.00,0.0036
3082.00,0.0036
3081.00,0.0036
3080.00,0.0036
3079.00,0.0036
3078.00,0.0036
3077.00,0.0036
3076.00,0.0036
3075.00,0.0036
3074.00,0.0037
3073.00,0.0037
3072.00,0.0037
3071.00,0.0037
3070.00,0.0037
3069.00,0.0037
3068.00,0.0037
3067.00,0.0037
3066.00,0.0037
3065.00,0.0038
3064.00,0.0038
3063.00,0.0038
3062.00,0.0038
3061.00,0.0039
3060.00,0.0039
3059.00,0.0040
3058.00,0.0040
3057.00,0.0040
3056.00,0.0040
3055.00,0.0040
3054.00,0.0040
3053.00,0.0040
3052.00,0.0040
3051.00,0.0040
3050.00,0.0040
3049.00,0.0040
3048.00,0.0040
3047.00,0.0040
3046.00,0.0041
3045.00,0.0041
3044.00,0.0042
3043.00,0.0042
3042.00,0.0042
3041.00,0.0042
3040.00,0.0042
3039.00,0.0042
3038.00,0.0043
3037.00,0.0043
3036.00,0.0043
3035.00,0.0043
3034.00,0.0044
3033.00,0.0044
3032.00,0.0044
3031.00,0.0045
3030.00,0.0045
3029.00,0.0046
3028.00,0.0046
3027.00,0.0047
3026.00,0.0047
3025.00,0.0048
3024.00,0.0048
3023.00,0.0048
3022.00,0.0048
3021.00,0.0049
3020.00,0.0049
3019.00,0.0050
3018.00,0.0050
3017.00,0.0050
3016.00,0.0050
3015.00,0.0050
3014.00,0.0051
3013.00,0.0051
3012.00,0.0051
3011.00,0.0051
3010.00,0.0052
3009.00,0.0052
3008.00,0.0052
3007.00,0.0052
3006.00,0.0052
3005.00,0.0052
3004.00,0.0052
3003.00,0.0053
3002.00,0.0053
3001.00,0.0054
3000.00,0.0055
2999.00,0.0056
2998.00,0.0057
2997.00,0.0059
2996.00,0.0062
2995.00,0.0064
2994.00,0.0067
2993.00,0.0071
2992.00,0.0075
2991.00,0.0080
2990.00,0.0085
2989.00,0.0091
2988.00,0.0097
2987.00,0.0103
2986.00,0.0109
2985.00,0.0115
2984.00,0.0121
2983.00,0.0128
2982.00,0.0139
2981.00,0.0154
2980.00,0.0173
2979.00,0.0196
2978.00,0.0222
2977.00,0.0250
2976.00,0.0281
2975.00,0.0315
2974.00,0.0352
2973.00,0.0395
2972.00,0.0444
2971.00,0.0501
2970.00,0.0564
2969.00,0.0633
2968.00,0.0708
2967.00,0.0786
2966.00,0.0868
2965.00,0.0951
2964.00,0.1031
2963.00,0.1106
2962.00,0.1171
2961.00,0.1226
2960.00,0.1271
2959.00,0.1309
2958.00,0.1346
2957.00,0.1386
2956.00,0.1435
2955.00,0.1494
2954.00,0.1562
2953.00,0.1633
2952.00,0.1697
2951.00,0.1744
2950.00,0.1762
2949.00,0.1744
2948.00,0.1689
2947.00,0.1602
2946.00,0.1495
2945.00,0.1381
2944.00,0.1273
2943.00,0.1180
2942.00,0.1109
2941.00,0.1060
2940.00,0.1035
2939.00,0.1030
2938.00,0.1044
2937.00,0.1076
2936.00,0.1122
2935.00,0.1183
2934.00,0.1257
2933.00,0.1343
2932.00,0.1440
2931.00,0.1547
2930.00,0.1661
2929.00,0.1779
2928.00,0.1899
2927.00,0.2019
2926.00,0.2138
2925.00,0.2256
2924.00,0.2372
2923.00,0.2490
2922.00,0.2607
2921.00,0.2721
2920.00,0.2824
2919.00,0.2904
2918.00,0.2948
2917.00,0.2945
2916.00,0.2891
2915.00,0.2794
2914.00,0.2667
2913.00,0.2528
2912.00,0.2392
2911.00,0.2267
2910.00,0.2157
2909.00,0.2062
2908.00,0.1978
2907.00,0.1900
2906.00,0.1826
2905.00,0.1754
2904.00,0.1683
2903.00,0.1614
2902.00,0.1547
2901.00,0.1481
2900.00,0.1418
2899.00,0.1358
2898.00,0.1302
2897.00,0.1250
2896.00,0.1204
2895.00,0.1162
2894.00,0.1127
2893.00,0.1098
2892.00,0.1074
2891.00,0.1056
2890.00,0.1044
2889.00,0.1035
2888.00,0.1030
2887.00,0.1029
2886.00,0.1030
2885.00,0.1036
2884.00,0.1046
2883.00,0.1061
2882.00,0.1080
2881.00,0.1103
2880.00,0.1127
2879.00,0.1147
2878.00,0.1161
2877.00,0.1166
2876.00,0.1164
2875.00,0.1159
2874.00,0.1154
2873.00,0.1154
2872.00,0.1160
2871.00,0.1173
2870.00,0.1191
2869.00,0.1209
2868.00,0.1220
2867.00,0.1219
2866.00,0.1199
2865.00,0.1159
2864.00,0.1103
2863.00,0.1037
2862.00,0.0971
2861.00,0.0914
2860.00,0.0871
2859.00,0.0843
2858.00,0.0831
2857.00,0.0833
2856.00,0.0846
2855.00,0.0869
2854.00,0.0900
2853.00,0.0936
2852.00,0.0971
2851.00,0.1001
2850.00,0.1019
2849.00,0.1022
2848.00,0.1014
2847.00,0.1004
2846.00,0.0999
2845.00,0.1005
2844.00,0.1025
2843.00,0.1056
2842.00,0.1094
2841.00,0.1131
2840.00,0.1160
2839.00,0.1174
2838.00,0.1164
2837.00,0.1128
2836.00,0.1066
2835.00,0.0982
2834.00,0.0885
2833.00,0.0784
2832.00,0.0689
2831.00,0.0604
2830.00,0.0532
2829.00,0.0472
2828.00,0.0424
2827.00,0.0385
2826.00,0.0353
2825.00,0.0327
2824.00,0.0305
2823.00,0.0286
2822.00,0.0270
2821.00,0.0257
2820.00,0.0245
2819.00,0.0234
2818.00,0.0224
2817.00,0.0216
2816.00,0.0209
2815.00,0.0202
2814.00,0.0196
2813.00,0.0191
2812.00,0.0185
2811.00,0.0179
2810.00,0.0174
2809.00,0.0168
2808.00,0.0162
2807.00,0.0156
2806.00,0.0150
2805.00,0.0143
2804.00,0.0137
2803.00,0.0131
2802.00,0.0126
2801.00,0.0122
2800.00,0.0118
2799.00,0.0115
2798.00,0.0112
2797.00,0.0110
2796.00,0.0108
2795.00,0.0106
2794.00,0.0103
2793.00,0.0100
2792.00,0.0098
2791.00,0.0095
2790.00,0.0092
2789.00,0.0089
2788.00,0.0086
2787.00,0.0083
2786.00,0.0080
2785.00,0.0078
2784.00,0.0076
2783.00,0.0074
2782.00,0.0072
2781.00,0.0071
2780.00,0.0069
2779.00,0.0068
2778.00,0.0066
2777.00,0.0065
2776.00,0.0064
2775.00,0.0063
2774.00,0.0062
2773.00,0.0061
2772.00,0.0060
2771.00,0.0060
2770.00,0.0059
2769.00,0.0059
2768.00,0.0059
2767.00,0.0059
2766.00,0.0058
2765.00,0.0058
2764.00,0.0058
2763.00,0.0057
2762.00,0.0057
2761.00,0.0056
2760.00,0.0056
2759.00,0.0056
2758.00,0.0055
2757.00,0.0055
2756.00,0.0055
2755.00,0.0055
2754.00,0.0055
2753.00,0.0054
2752.00,0.0054
2751.00,0.0054
2750.00,0.0054
2749.00,0.0054
2748.00,0.0054
2747.00,0.0055
2746.00,0.0055
2745.00,0.0056
2744.00,0.0056
2743.00,0.0057
2742.00,0.0058
2741.00,0.0059
2740.00,0.0060
2739.00,0.0061
2738.00,0.0062
2737.00,0.0063
2736.00,0.0064
2735.00,0.0066
2734.00,0.0068
2733.00,0.0069
2732.00,0.0071
2731.00,0.0073
2730.00,0.0075
2729.00,0.0077
2728.00,0.0080
2727.00,0.0082
2726.00,0.0085
2725.00,0.0087
2724.00,0.0088
2723.00,0.0088
2722.00,0.0087
2721.00,0.0085
2720.00,0.0083
2719.00,0.0080
2718.00,0.0077
2717.00,0.0074
2716.00,0.0072
2715.00,0.0069
2714.00,0.0067
2713.00,0.0065
2712.00,0.0063
2711.00,0.0061
2710.00,0.0059
2709.00,0.0058
2708.00,0.0057
2707.00,0.0055
2706.00,0.0054
2705.00,0.0053
2704.00,0.0052
2703.00,0.0051
2702.00,0.0050
2701.00,0.0049
2700.00,0.0048
2699.00,0.0047
2698.00,0.0047
2697.00,0.0047
2696.00,0.0047
2695.00,0.0047
2694.00,0.0048
2693.00,0.0048
2692.00,0.0048
2691.00,0.0048
2690.00,0.0048
2689.00,0.0048
2688.00,0.0048
2687.00,0.0048
2686.00,0.0047
2685.00,0.0047
2684.00,0.0047
2683.00,0.0047
2682.00,0.0047
2681.00,0.0048
2680.00,0.0048
2679.00,0.0049
2678.00,0.0049
2677.00,0.0049
2676.00,0.0048
2675.00,0.0048
2674.00,0.0047
2673.00,0.0047
2672.00,0.0047
2671.00,0.0047
2670.00,0.0047
2669.00,0.0047
2668.00,0.0048
2667.00,0.0048
2666.00,0.0048
2665.00,0.0049
2664.00,0.0049
2663.00,0.0050
2662.00,0.0050
2661.00,0.0050
2660.00,0.0050
2659.00,0.0050
2658.00,0.0050
2657.00,0.0050
2656.00,0.0050
2655.00,0.0049
2654.00,0.0049
2653.00,0.0049
2652.00,0.0048
2651.00,0.0047
2650.00,0.0047
2649.00,0.0046
2648.00,0.0046
2647.00,0.0046
2646.00,0.0046
2645.00,0.0045
2644.00,0.0045
2643.00,0.0045
2642.00,0.0044
2641.00,0.0044
2640.00,0.0043
2639.00,0.0042
2638.00,0.0042
2637.00,0.0042
2636.00,0.0042
2635.00,0.0042
2634.00,0.0042
2633.00,0.0042
2632.00,0.0042
2631.00,0.0042
2630.00,0.0042
2629.00,0.0042
2628.00,0.0042
2627.00,0.0042
2626.00,0.0043
2625.00,0.0043
2624.00,0.0043
2623.00,0.0043
2622.00,0.0043
2621.00,0.0043
2620.00,0.0044
2619.00,0.0044
2618.00,0.0044
2617.00,0.0044
2616.00,0.0043
2615.00,0.0043
2614.00,0.0043
2613.00,0.0042
2612.00,0.0042
2611.00,0.0041
2610.00,0.0040
2609.00,0.0039
2608.00,0.0039
2607.00,0.0038
2606.00,0.0037
2605.00,0.0036
2604.00,0.0036
2603.00,0.0036
2602.00,0.0036
2601.00,0.0036
2600.00,0.0036
2599.00,0.0035
2598.00,0.0035
2597.00,0.0035
2596.00,0.0035
2595.00,0.0035
2594.00,0.0035
2593.00,0.0035
2592.00,0.0036
2591.00,0.0036
2590.00,0.0037
2589.00,0.0037
2588.00,0.0038
2587.00,0.0039
2586.00,0.0040
2585.00,0.0041
2584.00,0.0042
2583.00,0.0042
2582.00,0.0042
2581.00,0.0042
2580.00,0.0041
2579.00,0.0040
2578.00,0.0039
2577.00,0.0038
2576.00,0.0036
2575.00,0.0035
2574.00,0.0034
2573.00,0.0034
2572.00,0.0033
2571.00,0.0033
2570.00,0.0032
2569.00,0.0032
2568.00,0.0031
2567.00,0.0030
2566.00,0.0028
2565.00,0.0027
2564.00,0.0027
2563.00,0.0026
2562.00,0.0026
2561.00,0.0026
2560.00,0.0026
2559.00,0.0026
2558.00,0.0026
2557.00,0.0026
2556.00,0.0026
2555.00,0.0025
2554.00,0.0025
2553.00,0.0025
2552.00,0.0025
2551.00,0.0025
2550.00,0.0025
2549.00,0.0024
2548.00,0.0024
2547.00,0.0024
2546.00,0.0023
2545.00,0.0022
2544.00,0.0021
2543.00,0.0020
2542.00,0.0020
2541.00,0.0020
2540.00,0.0020
2539.00,0.0020
2538.00,0.0020
2537.00,0.0019
2536.00,0.0019
2535.00,0.0019
2534.00,0.0019
2533.00,0.0020
2532.00,0.0020
2531.00,0.0020
2530.00,0.0020
2529.00,0.0020
2528.00,0.0020
2527.00,0.0019
2526.00,0.0019
2525.00,0.0019
2524.00,0.0019
2523.00,0.0019
2522.00,0.0019
2521.00,0.0018
2520.00,0.0018
2519.00,0.0017
2518.00,0.0017
2517.00,0.0017
2516.00,0.0016
2515.00,0.0016
2514.00,0.0015
2513.00,0.0015
2512.00,0.0015
2511.00,0.0014
2510.00,0.0014
2509.00,0.0014
2508.00,0.0014
2507.00,0.0014
2506.00,0.0014
2505.00,0.0014
2504.00,0.0015
2503.00,0.0015
2502.00,0.0015
2501.00,0.0015
2500.00,0.0015
2499.00,0.0015
2498.00,0.0015
2497.00,0.0015
2496.00,0.0015
2495.00,0.0015
2494.00,0.0016
2493.00,0.0016
2492.00,0.0016
2491.00,0.0015
2490.00,0.0015
2489.00,0.0014
2488.00,0.0014
2487.00,0.0013
2486.00,0.0013
2485.00,0.0013
2484.00,0.0013
2483.00,0.0013
2482.00,0.0014
2481.00,0.0014
2480.00,0.0014
2479.00,0.0014
2478.00,0.0015
2477.00,0.0014
2476.00,0.0014
2475.00,0.0014
2474.00,0.0013
2473.00,0.0013
2472.00,0.0013
2471.00,0.0013
2470.00,0.0012
2469.00,0.0012
2468.00,0.0012
2467.00,0.0012
2466.00,0.0012
2465.00,0.0012
2464.00,0.0012
2463.00,0.0012
2462.00,0.0013
2461.00,0.0013
2460.00,0.0013
2459.00,0.0013
2458.00,0.0013
2457.00,0.0014
2456.00,0.0014
2455.00,0.0014
2454.00,0.0014
2453.00,0.0014
2452.00,0.0014
2451.00,0.0014
2450.00,0.0015
2449.00,0.0015
2448.00,0.0015
2447.00,0.0014
2446.00,0.0014
2445.00,0.0014
2444.00,0.0014
2443.00,0.0014
2442.00,0.0015
2441.00,0.0015
2440.00,0.0014
2439.00,0.0014
2438.00,0.0014
2437.00,0.0014
2436.00,0.0014
2435.00,0.0014
2434.00,0.0014
2433.00,0.0015
2432.00,0.0015
2431.00,0.0016
2430.00,0.0017
2429.00,0.0017
2428.00,0.0017
2427.00,0.0016
2426.00,0.0015
2425.00,0.0014
2424.00,0.0014
2423.00,0.0014
2422.00,0.0014
2421.00,0.0014
2420.00,0.0015
2419.00,0.0014
2418.00,0.0014
2417.00,0.0014
2416.00,0.0014
2415.00,0.0014
2414.00,0.0014
2413.00,0.0014
2412.00,0.0013
2411.00,0.0013
2410.00,0.0013
2409.00,0.0013
2408.00,0.0013
2407.00,0.0013
2406.00,0.0013
2405.00,0.0012
2404.00,0.0012
2403.00,0.0012
2402.00,0.0011
2401.00,0.0010
2400.00,0.0010
2399.00,0.0010
2398.00,0.0011
2397.00,0.0011
2396.00,0.0012
2395.00,0.0012
2394.00,0.0011
2393.00,0.0011
2392.00,0.0011
2391.00,0.0011
2390.00,0.0011
2389.00,0.0011
2388.00,0.0011
2387.00,0.0011
2386.00,0.0011
2385.00,0.0010
2384.00,0.0010
2383.00,0.0009
2382.00,0.0008
2381.00,0.0007
2380.00,0.0006
2379.00,0.0006
2378.00,0.0006
2377.00,0.0007
2376.00,0.0007
2375.00,0.0008
2374.00,0.0007
2373.00,0.0007
2372.00,0.0006
2371.00,0.0005
2370.00,0.0004
2369.00,0.0004
2368.00,0.0005
2367.00,0.0005
2366.00,0.0005
2365.00,0.0005
2364.00,0.0005
2363.00,0.0006
2362.00,0.0006
2361.00,0.0007
2360.00,0.0008
2359.00,0.0008
2358.00,0.0008
2357.00,0.0008
2356.00,0.0008
2355.00,0.0007
2354.00,0.0007
2353.00,0.0007
2352.00,0.0007
2351.00,0.0007
2350.00,0.0007
2349.00,0.0007
2348.00,0.0007
2347.00,0.0007
2346.00,0.0007
2345.00,0.0007
2344.00,0.0007
2343.00,0.0008
2342.00,0.0009
2341.00,0.0010
2340.00,0.0010
2339.00,0.0010
2338.00,0.0010
2337.00,0.0010
2336.00,0.0010
2335.00,0.0011
2334.00,0.0011
2333.00,0.0010
2332.00,0.0010
2331.00,0.0010
2330.00,0.0010
2329.00,0.0010
2328.00,0.0012
2327.00,0.0015
2326.00,0.0019
2325.00,0.0022
2324.00,0.0024
2323.00,0.0023
2322.00,0.0020
2321.00,0.0018
2320.00,0.0017
2319.00,0.0017
2318.00,0.0016
2317.00,0.0016
2316.00,0.0015
2315.00,0.0015
2314.00,0.0014
2313.00,0.0013
2312.00,0.0013
2311.00,0.0012
2310.00,0.0012
2309.00,0.0012
2308.00,0.0012
2307.00,0.0012
2306.00,0.0012
2305.00,0.0013
2304.00,0.0013
2303.00,0.0014
2302.00,0.0014
2301.00,0.0014
2300.00,0.0015
2299.00,0.0015
2298.00,0.0015
2297.00,0.0015
2296.00,0.0016
2295.00,0.0016
2294.00,0.0017
2293.00,0.0018
2292.00,0.0018
2291.00,0.0019
2290.00,0.0020
2289.00,0.0020
2288.00,0.0021
2287.00,0.0022
2286.00,0.0022
2285.00,0.0022
2284.00,0.0020
2283.00,0.0019
2282.00,0.0018
2281.00,0.0018
2280.00,0.0018
2279.00,0.0017
2278.00,0.0017
2277.00,0.0016
2276.00,0.0015
2275.00,0.0014
2274.00,0.0014
2273.00,0.0015
2272.00,0.0016
2271.00,0.0017
2270.00,0.0017
2269.00,0.0016
2268.00,0.0015
2267.00,0.0014
2266.00,0.0014
2265.00,0.0014
2264.00,0.0014
2263.00,0.0013
2262.00,0.0013
2261.00,0.0012
2260.00,0.0012
2259.00,0.0012
2258.00,0.0012
2257.00,0.0012
2256.00,0.0012
2255.00,0.0012
2254.00,0.0012
2253.00,0.0013
2252.00,0.0013
2251.00,0.0013
2250.00,0.0012
2249.00,0.0011
2248.00,0.0011
2247.00,0.0009
2246.00,0.0008
2245.00,0.0008
2244.00,0.0009
2243.00,0.0010
2242.00,0.0012
2241.00,0.0014
2240.00,0.0014
2239.00,0.0013
2238.00,0.0012
2237.00,0.0011
2236.00,0.0011
2235.00,0.0012
2234.00,0.0012
2233.00,0.0013
2232.00,0.0014
2231.00,0.0014
2230.00,0.0014
2229.00,0.0012
2228.00,0.0011
2227.00,0.0011
2226.00,0.0011
2225.00,0.0010
2224.00,0.0009
2223.00,0.0008
2222.00,0.0008
2221.00,0.0009
2220.00,0.0011
2219.00,0.0012
2218.00,0.0012
2217.00,0.0012
2216.00,0.0011
2215.00,0.0010
2214.00,0.0010
2213.00,0.0011
2212.00,0.0010
2211.00,0.0010
2210.00,0.0009
2209.00,0.0009
2208.00,0.0009
2207.00,0.0009
2206.00,0.0009
2205.00,0.0008
2204.00,0.0008
2203.00,0.0008
2202.00,0.0009
2201.00,0.0009
2200.00,0.0009
2199.00,0.0009
2198.00,0.0010
2197.00,0.0012
2196.00,0.0013
2195.00,0.0013
2194.00,0.0013
2193.00,0.0013
2192.00,0.0014
2191.00,0.0015
2190.00,0.0015
2189.00,0.0014
2188.00,0.0013
2187.00,0.0011
2186.00,0.0010
2185.00,0.0010
2184.00,0.0010
2183.00,0.0009
2182.00,0.0007
2181.00,0.0006
2180.00,0.0005
2179.00,0.0006
2178.00,0.0007
2177.00,0.0007
2176.00,0.0006
2175.00,0.0003
2174.00,0.0001
2173.00,0.0002
2172.00,0.0005
2171.00,0.0010
2170.00,0.0015
2169.00,0.0018
2168.00,0.0019
2167.00,0.0019
2166.00,0.0018
2165.00,0.0020
2164.00,0.0022
2163.00,0.0024
2162.00,0.0023
2161.00,0.0017
2160.00,0.0005
2159.00,-0.0009
2158.00,-0.0019
2157.00,-0.0023
2156.00,-0.0023
2155.00,-0.0022
2154.00,-0.0019
2153.00,-0.0015
2152.00,-0.0009
2151.00,-0.0006
2150.00,-0.0005
2149.00,-0.0008
2148.00,-0.0011
2147.00,-0.0014
2146.00,-0.0015
2145.00,-0.0014
2144.00,-0.0012
2143.00,-0.0009
2142.00,-0.0007
2141.00,-0.0005
2140.00,-0.0004
2139.00,-0.0003
2138.00,-0.0004
2137.00,-0.0005
2136.00,-0.0006
2135.00,-0.0008
2134.00,-0.0011
2133.00,-0.0013
2132.00,-0.0014
2131.00,-0.0013
2130.00,-0.0012
2129.00,-0.0010
2128.00,-0.0007
2127.00,-0.0006
2126.00,-0.0004
2125.00,-0.0003
2124.00,-0.0002
2123.00,-0.0001
2122.00,-0.0000
2121.00,0.0001
2120.00,0.0003
2119.00,0.0005
2118.00,0.0006
2117.00,0.0007
2116.00,0.0007
2115.00,0.0007
2114.00,0.0007
2113.00,0.0008
2112.00,0.0007
2111.00,0.0006
2110.00,0.0005
2109.00,0.0004
2108.00,0.0004
2107.00,0.0005
2106.00,0.0004
2105.00,0.0004
2104.00,0.0003
2103.00,0.0002
2102.00,0.0003
2101.00,0.0004
2100.00,0.0004
2099.00,0.0003
2098.00,0.0002
2097.00,0.0001
2096.00,0.0001
2095.00,0.0000
2094.00,-0.0001
2093.00,-0.0001
2092.00,-0.0000
2091.00,0.0001
2090.00,0.0002
2089.00,0.0003
2088.00,0.0003
2087.00,0.0002
2086.00,0.0002
2085.00,0.0002
2084.00,0.0003
2083.00,0.0004
2082.00,0.0004
2081.00,0.0005
2080.00,0.0006
2079.00,0.0007
2078.00,0.0008
2077.00,0.0008
2076.00,0.0006
2075.00,0.0004
2074.00,0.0002
2073.00,0.0000
2072.00,-0.0001
2071.00,-0.0001
2070.00,-0.0001
2069.00,0.0001
2068.00,0.0002
2067.00,0.0003
2066.00,0.0004
2065.00,0.0005
2064.00,0.0005
2063.00,0.0005
2062.00,0.0004
2061.00,0.0004
2060.00,0.0004
2059.00,0.0004
2058.00,0.0006
2057.00,0.0007
2056.00,0.0008
2055.00,0.0007
2054.00,0.0006
2053.00,0.0008
2052.00,0.0012
2051.00,0.0015
2050.00,0.0013
2049.00,0.0009
2048.00,0.0004
2047.00,0.0001
2046.00,0.0001
2045.00,0.0001
2044.00,0.0001
2043.00,-0.0000
2042.00,-0.0001
2041.00,0.0000
2040.00,0.0003
2039.00,0.0006
2038.00,0.0007
2037.00,0.0008
2036.00,0.0009
2035.00,0.0009
2034.00,0.0010
2033.00,0.0008
2032.00,0.0006
2031.00,0.0003
2030.00,0.0000
2029.00,-0.0001
2028.00,-0.0001
2027.00,0.0000
2026.00,0.0001
2025.00,0.0001
2024.00,0.0000
2023.00,-0.0002
2022.00,-0.0004
2021.00,-0.0006
2020.00,-0.0007
2019.00,-0.0007
2018.00,-0.0007
2017.00,-0.0007
2016.00,-0.0007
2015.00,-0.0007
2014.00,-0.0005
2013.00,-0.0002
2012.00,0.0001
2011.00,0.0002
2010.00,0.0000
2009.00,-0.0003
2008.00,-0.0007
2007.00,-0.0011
2006.00,-0.0015
2005.00,-0.0015
2004.00,-0.0015
2003.00,-0.0014
2002.00,-0.0013
2001.00,-0.0012
2000.00,-0.0011
1999.00,-0.0010
1998.00,-0.0008
1997.00,-0.0006
1996.00,-0.0007
1995.00,-0.0009
1994.00,-0.0011
1993.00,-0.0012
1992.00,-0.0010
1991.00,-0.0006
1990.00,-0.0003
1989.00,-0.0001
1988.00,-0.0001
1987.00,0.0000
1986.00,0.0002
1985.00,0.0004
1984.00,0.0007
1983.00,0.0008
1982.00,0.0010
1981.00,0.0013
1980.00,0.0013
1979.00,0.0008
1978.00,-0.0000
1977.00,-0.0006
1976.00,-0.0008
1975.00,-0.0008
1974.00,-0.0008
1973.00,-0.0007
1972.00,-0.0006
1971.00,-0.0005
1970.00,-0.0004
1969.00,-0.0003
1968.00,-0.0001
1967.00,0.0001
1966.00,0.0001
1965.00,-0.0001
1964.00,-0.0004
1963.00,-0.0007
1962.00,-0.0010
1961.00,-0.0013
1960.00,-0.0015
1959.00,-0.0015
1958.00,-0.0014
1957.00,-0.0011
1956.00,-0.0008
1955.00,-0.0007
1954.00,-0.0007
1953.00,-0.0008
1952.00,-0.0010
1951.00,-0.0012
1950.00,-0.0014
1949.00,-0.0013
1948.00,-0.0012
1947.00,-0.0012
1946.00,-0.0011
1945.00,-0.0010
1944.00,-0.0009
1943.00,-0.0008
1942.00,-0.0007
1941.00,-0.0007
1940.00,-0.0006
1939.00,-0.0006
1938.00,-0.0006
1937.00,-0.0006
1936.00,-0.0006
1935.00,-0.0005
1934.00,-0.0005
1933.00,-0.0004
1932.00,-0.0003
1931.00,-0.0003
1930.00,-0.0002
1929.00,-0.0002
1928.00,-0.0002
1927.00,-0.0003
1926.00,-0.0003
1925.00,-0.0003
1924.00,-0.0002
1923.00,-0.0001
1922.00,0.0001
1921.00,0.0002
1920.00,0.0002
1919.00,0.0001
1918.00,0.0000
1917.00,0.0001
1916.00,0.0002
1915.00,0.0003
1914.00,0.0002
1913.00,0.0001
1912.00,-0.0000
1911.00,-0.0000
1910.00,0.0000
1909.00,0.0002
1908.00,0.0003
1907.00,0.0003
1906.00,0.0003
1905.00,0.0003
1904.00,0.0004
1903.00,0.0003
1902.00,0.0002
1901.00,0.0001
1900.00,0.0001
1899.00,0.0001
1898.00,0.0001
1897.00,0.0002
1896.00,0.0002
1895.00,0.0002
1894.00,0.0002
1893.00,0.0002
1892.00,0.0003
1891.00,0.0003
1890.00,0.0003
1889.00,0.0004
1888.00,0.0005
1887.00,0.0005
1886.00,0.0004
1885.00,0.0004
1884.00,0.0003
1883.00,0.0003
1882.00,0.0002
1881.00,0.0002
1880.00,0.0002
1879.00,0.0002
1878.00,0.0002
1877.00,0.0002
1876.00,0.0002
1875.00,0.0003
1874.00,0.0004
1873.00,0.0004
1872.00,0.0004
1871.00,0.0004
1870.00,0.0003
1869.00,0.0003
1868.00,0.0004
1867.00,0.0004
1866.00,0.0005
1865.00,0.0005
1864.00,0.0005
1863.00,0.0004
1862.00,0.0003
1861.00,0.0003
1860.00,0.0004
1859.00,0.0004
1858.00,0.0004
1857.00,0.0004
1856.00,0.0004
1855.00,0.0004
1854.00,0.0005
1853.00,0.0005
1852.00,0.0005
1851.00,0.0004
1850.00,0.0003
1849.00,0.0002
1848.00,0.0002
1847.00,0.0002
1846.00,0.0003
1845.00,0.0004
1844.00,0.0006
1843.00,0.0006
1842.00,0.0006
1841.00,0.0005
1840.00,0.0005
1839.00,0.0005
1838.00,0.0005
1837.00,0.0005
1836.00,0.0006
1835.00,0.0006
1834.00,0.0007
1833.00,0.0007
1832.00,0.0007
1831.00,0.0007
1830.00,0.0008
1829.00,0.0008
1828.00,0.0008
1827.00,0.0007
1826.00,0.0007
1825.00,0.0007
1824.00,0.0007
1823.00,0.0007
1822.00,0.0006
1821.00,0.0006
1820.00,0.0005
1819.00,0.0004
1818.00,0.0004
1817.00,0.0004
1816.00,0.0005
1815.00,0.0005
1814.00,0.0006
1813.00,0.0006
1812.00,0.0006
1811.00,0.0006
1810.00,0.0006
1809.00,0.0007
1808.00,0.0007
1807.00,0.0007
1806.00,0.0008
1805.00,0.0008
1804.00,0.0009
1803.00,0.0009
1802.00,0.0009
1801.00,0.0010
1800.00,0.0010
1799.00,0.0010
1798.00,0.0009
1797.00,0.0009
1796.00,0.0009
1795.00,0.0009
1794.00,0.0009
1793.00,0.0010
1792.00,0.0010
1791.00,0.0011
1790.00,0.0011
1789.00,0.0011
1788.00,0.0012
1787.00,0.0011
1786.00,0.0011
1785.00,0.0010
1784.00,0.0010
1783.00,0.0010
1782.00,0.0011
1781.00,0.0012
1780.00,0.0012
1779.00,0.0012
1778.00,0.0012
1777.00,0.0012
1776.00,0.0011
1775.00,0.0011
1774.00,0.0011
1773.00,0.0012
1772.00,0.0013
1771.00,0.0014
1770.00,0.0014
1769.00,0.0014
1768.00,0.0014
1767.00,0.0014
1766.00,0.0014
1765.00,0.0014
1764.00,0.0014
1763.00,0.0014
1762.00,0.0014
1761.00,0.0015
1760.00,0.0016
1759.00,0.0016
1758.00,0.0016
1757.00,0.0016
1756.00,0.0017
1755.00,0.0018
1754.00,0.0018
1753.00,0.0019
1752.00,0.0020
1751.00,0.0021
1750.00,0.0021
1749.00,0.0022
1748.00,0.0022
1747.00,0.0022
1746.00,0.0023
1745.00,0.0023
1744.00,0.0024
1743.00,0.0025
1742.00,0.0026
1741.00,0.0026
1740.00,0.0027
1739.00,0.0027
1738.00,0.0028
1737.00,0.0028
1736.00,0.0028
1735.00,0.0027
1734.00,0.0026
1733.00,0.0026
1732.00,0.0026
1731.00,0.0026
1730.00,0.0026
1729.00,0.0027
1728.00,0.0027
1727.00,0.0028
1726.00,0.0028
1725.00,0.0028
1724.00,0.0029
1723.00,0.0029
1722.00,0.0029
1721.00,0.0029
1720.00,0.0029
1719.00,0.0028
1718.00,0.0027
1717.00,0.0026
1716.00,0.0027
1715.00,0.0027
1714.00,0.0027
1713.00,0.0028
1712.00,0.0027
1711.00,0.0027
1710.00,0.0027
1709.00,0.0027
1708.00,0.0028
1707.00,0.0028
1706.00,0.0029
1705.00,0.0030
1704.00,0.0031
1703.00,0.0032
1702.00,0.0033
1701.00,0.0033
1700.00,0.0033
1699.00,0.0034
1698.00,0.0034
1697.00,0.0035
1696.00,0.0036
1695.00,0.0036
1694.00,0.0037
1693.00,0.0037
1692.00,0.0037
1691.00,0.0038
1690.00,0.0038
1689.00,0.0039
1688.00,0.0041
1687.00,0.0041
1686.00,0.0042
1685.00,0.0042
1684.00,0.0043
1683.00,0.0045
1682.00,0.0046
1681.00,0.0047
1680.00,0.0048
1679.00,0.0049
1678.00,0.0050
1677.00,0.0051
1676.00,0.0051
1675.00,0.0052
1674.00,0.0052
1673.00,0.0053
1672.00,0.0053
1671.00,0.0053
1670.00,0.0053
1669.00,0.0054
1668.00,0.0055
1667.00,0.0056
1666.00,0.0057
1665.00,0.0057
1664.00,0.0058
1663.00,0.0059
1662.00,0.0059
1661.00,0.0060
1660.00,0.0061
1659.00,0.0061
1658.00,0.0062
1657.00,0.0063
1656.00,0.0064
1655.00,0.0066
1654.00,0.0068
1653.00,0.0071
1652.00,0.0073
1651.00,0.0073
1650.00,0.0073
1649.00,0.0074
1648.00,0.0075
1647.00,0.0076
1646.00,0.0078
1645.00,0.0079
1644.00,0.0079
1643.00,0.0080
1642.00,0.0080
1641.00,0.0081
1640.00,0.0082
1639.00,0.0084
1638.00,0.0085
1637.00,0.0085
1636.00,0.0087
1635.00,0.0088
1634.00,0.0088
1633.00,0.0088
1632.00,0.0088
1631.00,0.0088
1630.00,0.0088
1629.00,0.0088
1628.00,0.0088
1627.00,0.0088
1626.00,0.0088
1625.00,0.0088
1624.00,0.0087
1623.00,0.0086
1622.00,0.0086
1621.00,0.0086
1620.00,0.0086
1619.00,0.0085
1618.00,0.0085
1617.00,0.0084
1616.00,0.0083
1615.00,0.0083
1614.00,0.0082
1613.00,0.0082
1612.00,0.0081
1611.00,0.0081
1610.00,0.0080
1609.00,0.0080
1608.00,0.0081
1607.00,0.0081
1606.00,0.0081
1605.00,0.0082
1604.00,0.0082
1603.00,0.0083
1602.00,0.0084
1601.00,0.0085
1600.00,0.0086
1599.00,0.0087
1598.00,0.0088
1597.00,0.0089
1596.00,0.0091
1595.00,0.0092
1594.00,0.0094
1593.00,0.0097
1592.00,0.0100
1591.00,0.0104
1590.00,0.0108
1589.00,0.0114
1588.00,0.0121
1587.00,0.0129
1586.00,0.0138
1585.00,0.0148
1584.00,0.0161
1583.00,0.0174
1582.00,0.0188
1581.00,0.0201
1580.00,0.0212
1579.00,0.0220
1578.00,0.0225
1577.00,0.0225
1576.00,0.0221
1575.00,0.0213
1574.00,0.0205
1573.00,0.0197
1572.00,0.0189
1571.00,0.0179
1570.00,0.0167
1569.00,0.0156
1568.00,0.0148
1567.00,0.0142
1566.00,0.0137
1565.00,0.0134
1564.00,0.0131
1563.00,0.0129
1562.00,0.0128
1561.00,0.0128
1560.00,0.0127
1559.00,0.0127
1558.00,0.0129
1557.00,0.0130
1556.00,0.0130
1555.00,0.0132
1554.00,0.0135
1553.00,0.0139
1552.00,0.0145
1551.00,0.0152
1550.00,0.0161
1549.00,0.0171
1548.00,0.0182
1547.00,0.0194
1546.00,0.0208
1545.00,0.0224
1544.00,0.0241
1543.00,0.0254
1542.00,0.0262
1541.00,0.0263
1540.00,0.0254
1539.00,0.0238
1538.00,0.0222
1537.00,0.0209
1536.00,0.0196
1535.00,0.0182
1534.00,0.0164
1533.00,0.0148
1532.00,0.0137
1531.00,0.0129
1530.00,0.0123
1529.00,0.0118
1528.00,0.0113
1527.00,0.0109
1526.00,0.0105
1525.00,0.0103
1524.00,0.0102
1523.00,0.0102
1522.00,0.0101
1521.00,0.0100
1520.00,0.0100
1519.00,0.0099
1518.00,0.0099
1517.00,0.0099
1516.00,0.0099
1515.00,0.0098
1514.00,0.0097
1513.00,0.0096
1512.00,0.0096
1511.00,0.0097
1510.00,0.0097
1509.00,0.0098
1508.00,0.0099
1507.00,0.0099
1506.00,0.0099
1505.00,0.0099
1504.00,0.0100
1503.00,0.0101
1502.00,0.0102
1501.00,0.0105
1500.00,0.0107
1499.00,0.0109
1498.00,0.0111
1497.00,0.0115
1496.00,0.0119
1495.00,0.0123
1494.00,0.0126
1493.00,0.0130
1492.00,0.0134
1491.00,0.0139
1490.00,0.0145
1489.00,0.0154
1488.00,0.0163
1487.00,0.0171
1486.00,0.0180
1485.00,0.0192
1484.00,0.0205
1483.00,0.0220
1482.00,0.0237
1481.00,0.0258
1480.00,0.0279
1479.00,0.0299
1478.00,0.0321
1477.00,0.0346
1476.00,0.0376
1475.00,0.0408
1474.00,0.0449
1473.00,0.0505
1472.00,0.0568
1471.00,0.0628
1470.00,0.0684
1469.00,0.0745
1468.00,0.0810
1467.00,0.0883
1466.00,0.0964
1465.00,0.1051
1464.00,0.1126
1463.00,0.1175
1462.00,0.1204
1461.00,0.1221
1460.00,0.1231
1459.00,0.1235
1458.00,0.1237
1457.00,0.1236
1456.00,0.1228
1455.00,0.1216
1454.00,0.1200
1453.00,0.1179
1452.00,0.1149
1451.00,0.1110
1450.00,0.1058
1449.00,0.0989
1448.00,0.0902
1447.00,0.0811
1446.00,0.0729
1445.00,0.0660
1444.00,0.0602
1443.00,0.0555
1442.00,0.0520
1441.00,0.0497
1440.00,0.0484
1439.00,0.0481
1438.00,0.0487
1437.00,0.0494
1436.00,0.0490
1435.00,0.0469
1434.00,0.0436
1433.00,0.0394
1432.00,0.0349
1431.00,0.0309
1430.00,0.0278
1429.00,0.0255
1428.00,0.0239
1427.00,0.0229
1426.00,0.0224
1425.00,0.0219
1424.00,0.0215
1423.00,0.0213
1422.00,0.0212
1421.00,0.0209
1420.00,0.0205
1419.00,0.0200
1418.00,0.0196
1417.00,0.0191
1416.00,0.0186
1415.00,0.0182
1414.00,0.0178
1413.00,0.0175
1412.00,0.0171
1411.00,0.0167
1410.00,0.0165
1409.00,0.0162
1408.00,0.0159
1407.00,0.0156
1406.00,0.0154
1405.00,0.0150
1404.00,0.0147
1403.00,0.0144
1402.00,0.0143
1401.00,0.0141
1400.00,0.0139
1399.00,0.0139
1398.00,0.0139
1397.00,0.0139
1396.00,0.0139
1395.00,0.0141
1394.00,0.0144
1393.00,0.0148
1392.00,0.0152
1391.00,0.0159
1390.00,0.0168
1389.00,0.0180
1388.00,0.0199
1387.00,0.0228
1386.00,0.0268
1385.00,0.0320
1384.00,0.0393
1383.00,0.0497
1382.00,0.0640
1381.00,0.0828
1380.00,0.1064
1379.00,0.1336
1378.00,0.1603
1377.00,0.1800
1376.00,0.1871
1375.00,0.1781
1374.00,0.1558
1373.00,0.1287
1372.00,0.1038
1371.00,0.0833
1370.00,0.0671
1369.00,0.0549
1368.00,0.0466
1367.00,0.0415
1366.00,0.0388
1365.00,0.0377
1364.00,0.0379
1363.00,0.0393
1362.00,0.0414
1361.00,0.0437
1360.00,0.0454
1359.00,0.0460
1358.00,0.0451
1357.00,0.0427
1356.00,0.0392
1355.00,0.0353
1354.00,0.0315
1353.00,0.0283
1352.00,0.0257
1351.00,0.0236
1350.00,0.0219
1349.00,0.0205
1348.00,0.0193
1347.00,0.0183
1346.00,0.0174
1345.00,0.0167
1344.00,0.0161
1343.00,0.0156
1342.00,0.0152
1341.00,0.0149
1340.00,0.0147
1339.00,0.0145
1338.00,0.0144
1337.00,0.0143
1336.00,0.0144
1335.00,0.0145
1334.00,0.0148
1333.00,0.0151
1332.00,0.0155
1331.00,0.0158
1330.00,0.0159
1329.00,0.0157
1328.00,0.0153
1327.00,0.0149
1326.00,0.0143
1325.00,0.0138
1324.00,0.0133
1323.00,0.0129
1322.00,0.0126
1321.00,0.0123
1320.00,0.0121
1319.00,0.0120
1318.00,0.0118
1317.00,0.0116
1316.00,0.0114
1315.00,0.0113
1314.00,0.0111
1313.00,0.0111
1312.00,0.0111
1311.00,0.0113
1310.00,0.0116
1309.00,0.0121
1308.00,0.0129
1307.00,0.0139
1306.00,0.0148
1305.00,0.0155
1304.00,0.0157
1303.00,0.0155
1302.00,0.0151
1301.00,0.0147
1300.00,0.0146
1299.00,0.0146
1298.00,0.0147
1297.00,0.0147
1296.00,0.0146
1295.00,0.0144
1294.00,0.0140
1293.00,0.0135
1292.00,0.0129
1291.00,0.0124
1290.00,0.0120
1289.00,0.0116
1288.00,0.0113
1287.00,0.0110
1286.00,0.0108
1285.00,0.0105
1284.00,0.0103
1283.00,0.0101
1282.00,0.0099
1281.00,0.0098
1280.00,0.0097
1279.00,0.0096
1278.00,0.0096
1277.00,0.0095
1276.00,0.0093
1275.00,0.0092
1274.00,0.0091
1273.00,0.0090
1272.00,0.0090
1271.00,0.0091
1270.00,0.0092
1269.00,0.0093
1268.00,0.0094
1267.00,0.0096
1266.00,0.0098
1265.00,0.0101
1264.00,0.0103
1263.00,0.0107
1262.00,0.0110
1261.00,0.0114
1260.00,0.0118
1259.00,0.0123
1258.00,0.0129
1257.00,0.0133
1256.00,0.0134
1255.00,0.0132
1254.00,0.0127
1253.00,0.0119
1252.00,0.0112
1251.00,0.0107
1250.00,0.0103
1249.00,0.0101
1248.00,0.0099
1247.00,0.0098
1246.00,0.0098
1245.00,0.0097
1244.00,0.0097
1243.00,0.0097
1242.00,0.0098
1241.00,0.0099
1240.00,0.0099
1239.00,0.0100
1238.00,0.0102
1237.00,0.0103
1236.00,0.0105
1235.00,0.0106
1234.00,0.0108
1233.00,0.0110
1232.00,0.0112
1231.00,0.0114
1230.00,0.0116
1229.00,0.0119
1228.00,0.0121
1227.00,0.0124
1226.00,0.0127
1225.00,0.0130
1224.00,0.0133
1223.00,0.0136
1222.00,0.0140
1221.00,0.0144
1220.00,0.0146
1219.00,0.0148
1218.00,0.0147
1217.00,0.0145
1216.00,0.0143
1215.00,0.0140
1214.00,0.0137
1213.00,0.0134
1212.00,0.0131
1211.00,0.0129
1210.00,0.0127
1209.00,0.0125
1208.00,0.0124
1207.00,0.0123
1206.00,0.0123
1205.00,0.0123
1204.00,0.0123
1203.00,0.0124
1202.00,0.0124
1201.00,0.0124
1200.00,0.0125
1199.00,0.0126
1198.00,0.0127
1197.00,0.0129
1196.00,0.0129
1195.00,0.0130
1194.00,0.0130
1193.00,0.0130
1192.00,0.0130
1191.00,0.0129
1190.00,0.0128
1189.00,0.0127
1188.00,0.0125
1187.00,0.0124
1186.00,0.0123
1185.00,0.0123
1184.00,0.0123
1183.00,0.0123
1182.00,0.0123
1181.00,0.0124
1180.00,0.0126
1179.00,0.0128
1178.00,0.0132
1177.00,0.0138
1176.00,0.0146
1175.00,0.0157
1174.00,0.0170
1173.00,0.0188
1172.00,0.0211
1171.00,0.0236
1170.00,0.0261
1169.00,0.0280
1168.00,0.0291
1167.00,0.0292
1166.00,0.0285
1165.00,0.0271
1164.00,0.0256
1163.00,0.0241
1162.00,0.0229
1161.00,0.0219
1160.00,0.0211
1159.00,0.0205
1158.00,0.0201
1157.00,0.0198
1156.00,0.0196
1155.00,0.0194
1154.00,0.0193
1153.00,0.0191
1152.00,0.0187
1151.00,0.0181
1150.00,0.0174
1149.00,0.0165
1148.00,0.0157
1147.00,0.0149
1146.00,0.0141
1145.00,0.0135
1144.00,0.0129
1143.00,0.0124
1142.00,0.0119
1141.00,0.0116
1140.00,0.0113
1139.00,0.0110
1138.00,0.0108
1137.00,0.0106
1136.00,0.0104
1135.00,0.0103
1134.00,0.0104
1133.00,0.0105
1132.00,0.0105
1131.00,0.0106
1130.00,0.0107
1129.00,0.0108
1128.00,0.0109
1127.00,0.0110
1126.00,0.0111
1125.00,0.0111
1124.00,0.0112
1123.00,0.0112
1122.00,0.0112
1121.00,0.0111
1120.00,0.0110
1119.00,0.0111
1118.00,0.0112
1117.00,0.0114
1116.00,0.0116
1115.00,0.0119
1114.00,0.0121
1113.00,0.0123
1112.00,0.0124
1111.00,0.0126
1110.00,0.0128
1109.00,0.0130
1108.00,0.0134
1107.00,0.0138
1106.00,0.0144
1105.00,0.0149
1104.00,0.0153
1103.00,0.0156
1102.00,0.0156
1101.00,0.0152
1100.00,0.0146
1099.00,0.0139
1098.00,0.0132
1097.00,0.0125
1096.00,0.0119
1095.00,0.0115
1094.00,0.0111
1093.00,0.0108
1092.00,0.0105
1091.00,0.0102
1090.00,0.0100
1089.00,0.0098
1088.00,0.0097
1087.00,0.0097
1086.00,0.0097
1085.00,0.0096
1084.00,0.0095
1083.00,0.0094
1082.00,0.0094
1081.00,0.0093
1080.00,0.0092
1079.00,0.0090
1078.00,0.0089
1077.00,0.0088
1076.00,0.0087
1075.00,0.0087
1074.00,0.0087
1073.00,0.0087
1072.00,0.0086
1071.00,0.0087
1070.00,0.0087
1069.00,0.0088
1068.00,0.0088
1067.00,0.0088
1066.00,0.0089
1065.00,0.0090
1064.00,0.0091
1063.00,0.0092
1062.00,0.0093
1061.00,0.0094
1060.00,0.0096
1059.00,0.0098
1058.00,0.0100
1057.00,0.0102
1056.00,0.0104
1055.00,0.0105
1054.00,0.0107
1053.00,0.0111
1052.00,0.0116
1051.00,0.0121
1050.00,0.0126
1049.00,0.0130
1048.00,0.0134
1047.00,0.0139
1046.00,0.0143
1045.00,0.0147
1044.00,0.0149
1043.00,0.0150
1042.00,0.0150
1041.00,0.0149
1040.00,0.0150
1039.00,0.0152
1038.00,0.0154
1037.00,0.0156
1036.00,0.0156
1035.00,0.0155
1034.00,0.0152
1033.00,0.0148
1032.00,0.0144
1031.00,0.0140
1030.00,0.0137
1029.00,0.0135
1028.00,0.0134
1027.00,0.0133
1026.00,0.0133
1025.00,0.0134
1024.00,0.0135
1023.00,0.0138
1022.00,0.0141
1021.00,0.0144
1020.00,0.0147
1019.00,0.0150
1018.00,0.0152
1017.00,0.0155
1016.00,0.0158
1015.00,0.0162
1014.00,0.0166
1013.00,0.0169
1012.00,0.0171
1011.00,0.0170
1010.00,0.0168
1009.00,0.0165
1008.00,0.0162
1007.00,0.0160
1006.00,0.0162
1005.00,0.0168
1004.00,0.0179
1003.00,0.0196
1002.00,0.0219
1001.00,0.0248
1000.00,0.0279
999.00,0.0304
998.00,0.0314
997.00,0.0307
996.00,0.0283
995.00,0.0250
994.00,0.0217
993.00,0.0187
992.00,0.0165
991.00,0.0148
990.00,0.0136
989.00,0.0128
988.00,0.0122
987.00,0.0119
986.00,0.0118
985.00,0.0119
984.00,0.0122
983.00,0.0128
982.00,0.0137
981.00,0.0150
980.00,0.0168
979.00,0.0193
978.00,0.0224
977.00,0.0259
976.00,0.0296
975.00,0.0331
974.00,0.0355
973.00,0.0360
972.00,0.0345
971.00,0.0312
970.00,0.0268
969.00,0.0225
968.00,0.0188
967.00,0.0160
966.00,0.0139
965.00,0.0124
964.00,0.0113
963.00,0.0105
962.00,0.0099
961.00,0.0094
960.00,0.0090
959.00,0.0087
958.00,0.0083
957.00,0.0080
956.00,0.0078
955.00,0.0076
954.00,0.0075
953.00,0.0073
952.00,0.0072
951.00,0.0071
950.00,0.0071
949.00,0.0072
948.00,0.0072
947.00,0.0073
946.00,0.0075
945.00,0.0077
944.00,0.0081
943.00,0.0085
942.00,0.0089
941.00,0.0092
940.00,0.0093
939.00,0.0092
938.00,0.0088
937.00,0.0083
936.00,0.0078
935.00,0.0074
934.00,0.0071
933.00,0.0070
932.00,0.0069
931.00,0.0069
930.00,0.0069
929.00,0.0068
928.00,0.0067
927.00,0.0066
926.00,0.0066
925.00,0.0065
924.00,0.0066
923.00,0.0066
922.00,0.0066
921.00,0.0066
920.00,0.0066
919.00,0.0066
918.00,0.0066
917.00,0.0067
916.00,0.0068
915.00,0.0069
914.00,0.0071
913.00,0.0072
912.00,0.0073
911.00,0.0074
910.00,0.0076
909.00,0.0079
908.00,0.0083
907.00,0.0088
906.00,0.0096
905.00,0.0105
904.00,0.0119
903.00,0.0136
902.00,0.0156
901.00,0.0174
900.00,0.0186
899.00,0.0189
898.00,0.0181
897.00,0.0166
896.00,0.0146
895.00,0.0128
894.00,0.0113
893.00,0.0102
892.00,0.0094
891.00,0.0090
890.00,0.0087
889.00,0.0084
888.00,0.0082
887.00,0.0080
886.00,0.0079
885.00,0.0079
884.00,0.0080
883.00,0.0082
882.00,0.0084
881.00,0.0085
880.00,0.0086
879.00,0.0088
878.00,0.0089
877.00,0.0090
876.00,0.0090
875.00,0.0090
874.00,0.0090
873.00,0.0088
872.00,0.0087
871.00,0.0085
870.00,0.0084
869.00,0.0084
868.00,0.0083
867.00,0.0082
866.00,0.0082
865.00,0.0083
864.00,0.0084
863.00,0.0087
862.00,0.0090
861.00,0.0090
860.00,0.0090
859.00,0.0090
858.00,0.0091
857.00,0.0094
856.00,0.0097
855.00,0.0099
854.00,0.0100
853.00,0.0101
852.00,0.0103
851.00,0.0106
850.00,0.0110
849.00,0.0114
848.00,0.0121
847.00,0.0132
846.00,0.0149
845.00,0.0175
844.00,0.0210
843.00,0.0252
842.00,0.0286
841.00,0.0298
840.00,0.0281
839.00,0.0244
838.00,0.0201
837.00,0.0167
836.00,0.0145
835.00,0.0133
834.00,0.0126
833.00,0.0122
832.00,0.0117
831.00,0.0114
830.00,0.0111
829.00,0.0109
828.00,0.0107
827.00,0.0106
826.00,0.0104
825.00,0.0103
824.00,0.0103
823.00,0.0104
822.00,0.0106
821.00,0.0108
820.00,0.0111
819.00,0.0113
818.00,0.0117
817.00,0.0123
816.00,0.0131
815.00,0.0142
814.00,0.0156
813.00,0.0175
812.00,0.0195
811.00,0.0215
810.00,0.0229
809.00,0.0235
808.00,0.0230
807.00,0.0217
806.00,0.0200
805.00,0.0183
804.00,0.0167
803.00,0.0153
802.00,0.0141
801.00,0.0131
800.00,0.0124
799.00,0.0118
798.00,0.0114
797.00,0.0109
796.00,0.0106
795.00,0.0104
794.00,0.0103
793.00,0.0101
792.00,0.0099
791.00,0.0097
790.00,0.0096
789.00,0.0095
788.00,0.0093
787.00,0.0090
786.00,0.0087
785.00,0.0084
784.00,0.0082
783.00,0.0080
782.00,0.0080
781.00,0.0079
780.00,0.0079
779.00,0.0080
778.00,0.0081
777.00,0.0081
776.00,0.0082
775.00,0.0082
774.00,0.0082
773.00,0.0082
772.00,0.0083
771.00,0.0083
770.00,0.0083
769.00,0.0082
768.00,0.0082
767.00,0.0083
766.00,0.0084
765.00,0.0086
764.00,0.0085
763.00,0.0084
762.00,0.0083
761.00,0.0084
760.00,0.0086
759.00,0.0088
758.00,0.0089
757.00,0.0089
756.00,0.0089
755.00,0.0090
754.00,0.0092
753.00,0.0094
752.00,0.0094
751.00,0.0093
750.00,0.0091
749.00,0.0091
748.00,0.0092
747.00,0.0094
746.00,0.0098
745.00,0.0103
744.00,0.0107
743.00,0.0110
742.00,0.0113
741.00,0.0115
740.00,0.0118
739.00,0.0121
738.00,0.0126
737.00,0.0130
736.00,0.0135
735.00,0.0140
734.00,0.0146
733.00,0.0152
732.00,0.0159
731.00,0.0168
730.00,0.0176
729.00,0.0182
728.00,0.0184
727.00,0.0184
726.00,0.0184
725.00,0.0186
724.00,0.0192
723.00,0.0201
722.00,0.0209
721.00,0.0214
720.00,0.0211
719.00,0.0201
718.00,0.0186
717.00,0.0171
716.00,0.0158
715.00,0.0150
714.00,0.0143
713.00,0.0138
712.00,0.0135
711.00,0.0132
710.00,0.0130
709.00,0.0129
708.00,0.0128
707.00,0.0126
706.00,0.0125
705.00,0.0123
704.00,0.0121
703.00,0.0120
702.00,0.0120
701.00,0.0121
700.00,0.0122
699.00,0.0123
698.00,0.0124
697.00,0.0125
696.00,0.0124
695.00,0.0124
694.00,0.0124
693.00,0.0124
692.00,0.0125
691.00,0.0126
690.00,0.0128
689.00,0.0129
688.00,0.0129
687.00,0.0129
686.00,0.0129
685.00,0.0127
684.00,0.0126
683.00,0.0126
682.00,0.0126
681.00,0.0127
680.00,0.0129
679.00,0.0132
678.00,0.0134
677.00,0.0136
676.00,0.0137
675.00,0.0136
674.00,0.0134
673.00,0.0133
672.00,0.0134
671.00,0.0135
670.00,0.0137
669.00,0.0137
668.00,0.0136
667.00,0.0137
666.00,0.0137
665.00,0.0136
664.00,0.0134
663.00,0.0130
662.00,0.0126
661.00,0.0122
660.00,0.0119
659.00,0.0116
658.00,0.0113
657.00,0.0110
656.00,0.0107
655.00,0.0105
654.00,0.0104
653.00,0.0104
652.00,0.0105
651.00,0.0106
650.00,0.0106
649.00,0.0104
648.00,0.0103
647.00,0.0103
646.00,0.0104
645.00,0.0106
644.00,0.0106
643.00,0.0106
642.00,0.0106
641.00,0.0107
640.00,0.0108
639.00,0.0108
638.00,0.0107
637.00,0.0107
636.00,0.0106
635.00,0.0105
634.00,0.0105
633.00,0.0106
632.00,0.0109
631.00,0.0112
630.00,0.0114
629.00,0.0114
628.00,0.0112
627.00,0.0111
626.00,0.0109
625.00,0.0108
624.00,0.0107
623.00,0.0107
622.00,0.0107
621.00,0.0107
620.00,0.0107
619.00,0.0107
618.00,0.0107
617.00,0.0108
616.00,0.0109
615.00,0.0111
614.00,0.0113
613.00,0.0114
612.00,0.0115
611.00,0.0117
610.00,0.0118
609.00,0.0117
608.00,0.0116
607.00,0.0115
606.00,0.0114
605.00,0.0112
604.00,0.0109
603.00,0.0106
602.00,0.0105
601.00,0.0104
600.00,0.0102
599.00,0.0100
598.00,0.0098
597.00,0.0098
596.00,0.0101
595.00,0.0103
594.00,0.0104
593.00,0.0104
592.00,0.0104
591.00,0.0105
590.00,0.0108
589.00,0.0110
588.00,0.0111
587.00,0.0110
586.00,0.0108
585.00,0.0107
584.00,0.0108
583.00,0.0111
582.00,0.0114
581.00,0.0115
580.00,0.0113
579.00,0.0110
578.00,0.0108
577.00,0.0109
576.00,0.0111
575.00,0.0113
574.00,0.0114
573.00,0.0113
572.00,0.0112
571.00,0.0112
570.00,0.0110
569.00,0.0107
568.00,0.0103
567.00,0.0100
566.00,0.0100
565.00,0.0100
564.00,0.0100
563.00,0.0099
562.00,0.0099
561.00,0.0100
560.00,0.0104
559.00,0.0108
558.00,0.0110
557.00,0.0109
556.00,0.0106
555.00,0.0102
554.00,0.0101
553.00,0.0100
552.00,0.0100
551.00,0.0102
550.00,0.0105
549.00,0.0107
548.00,0.0107
547.00,0.0108
546.00,0.0110
545.00,0.0112
544.00,0.0112
543.00,0.0112
542.00,0.0115
541.00,0.0121
540.00,0.0127
539.00,0.0130
538.00,0.0131
537.00,0.0132
536.00,0.0134
535.00,0.0136
534.00,0.0137
533.00,0.0135
532.00,0.0132
531.00,0.0127
530.00,0.0122
529.00,0.0120
528.00,0.0119
527.00,0.0119
526.00,0.0118
525.00,0.0116
524.00,0.0113
523.00,0.0111
522.00,0.0111
521.00,0.0113
520.00,0.0113
519.00,0.0112
518.00,0.0109
517.00,0.0104
516.00,0.0101
515.00,0.0100
514.00,0.0099
513.00,0.0100
512.00,0.0102
511.00,0.0105
510.00,0.0106
509.00,0.0106
508.00,0.0104
507.00,0.0101
506.00,0.0099
505.00,0.0097
504.00,0.0098
503.00,0.0101
502.00,0.0103
501.00,0.0101
500.00,0.0098
499.00,0.0098
498.00,0.0100
497.00,0.0102
496.00,0.0101
495.00,0.0102
494.00,0.0106
493.00,0.0112
492.00,0.0115
491.00,0.0113
490.00,0.0111
489.00,0.0109
488.00,0.0109
487.00,0.0109
486.00,0.0108
485.00,0.0106
484.00,0.0106
483.00,0.0110
482.00,0.0117
481.00,0.0122
480.00,0.0120
479.00,0.0113
478.00,0.0106
477.00,0.0106
476.00,0.0116
475.00,0.0134
474.00,0.0153
473.00,0.0163
472.00,0.0157
471.00,0.0143
470.00,0.0134
469.00,0.0135
468.00,0.0144
467.00,0.0155
466.00,0.0166
465.00,0.0173
464.00,0.0177
463.00,0.0178
462.00,0.0177
461.00,0.0181
460.00,0.0192
459.00,0.0213
458.00,0.0234
457.00,0.0241
456.00,0.0230
455.00,0.0212
454.00,0.0200
453.00,0.0201
452.00,0.0207
451.00,0.0209
450.00,0.0202
