Created as New Dataset,Sample 047 By Administrator Date Wednesday, September 03 2025
cm-1,A
4000.00,0.0010
3999.00,0.0010
3998.00,0.0010
3997.00,0.0010
3996.00,0.0010
3995.00,0.0010
3994.00,0.0010
3993.00,0.0010
3992.00,0.0010
3991.00,0.0010
3990.00,0.0010
3989.00,0.0010
3988.00,0.0010
3987.00,0.0010
3986.00,0.0009
3985.00,0.0009
3984.00,0.0009
3983.00,0.0009
3982.00,0.0009
3981.00,0.0009
3980.00,0.0010
3979.00,0.0010
3978.00,0.0010
3977.00,0.0009
3976.00,0.0009
3975.00,0.0009
3974.00,0.0008
3973.00,0.0009
3972.00,0.0009
3971.00,0.0009
3970.00,0.0009
3969.00,0.0009
3968.00,0.0009
3967.00,0.0009
3966.00,0.0008
3965.00,0.0008
3964.00,0.0008
3963.00,0.0008
3962.00,0.0008
3961.00,0.0008
3960.00,0.0008
3959.00,0.0008
3958.00,0.0009
3957.00,0.0009
3956.00,0.0009
3955.00,0.0009
3954.00,0.0009
3953.00,0.0008
3952.00,0.0008
3951.00,0.0008
3950.00,0.0008
3949.00,0.0008
3948.00,0.0008
3947.00,0.0008
3946.00,0.0009
3945.00,0.0009
3944.00,0.0009
3943.00,0.0009
3942.00,0.0009
3941.00,0.0009
3940.00,0.0008
3939.00,0.0008
3938.00,0.0008
3937.00,0.0008
3936.00,0.0008
3935.00,0.0008
3934.00,0.0008
3933.00,0.0008
3932.00,0.0009
3931.00,0.0009
3930.00,0.0009
3929.00,0.0009
3928.00,0.0009
3927.00,0.0009
3926.00,0.0009
3925.00,0.0009
3924.00,0.0009
3923.00,0.0009
3922.00,0.0009
3921.00,0.0009
3920.00,0.0009
3919.00,0.0009
3918.00,0.0009
3917.00,0.0009
3916.00,0.0009
3915.00,0.0009
3914.00,0.0009
3913.00,0.0008
3912.00,0.0008
3911.00,0.0008
3910.00,0.0007
3909.00,0.0007
3908.00,0.0007
3907.00,0.0007
3906.00,0.0007
3905.00,0.0007
3904.00,0.0007
3903.00,0.0007
3902.00,0.0008
3901.00,0.0008
3900.00,0.0008
3899.00,0.0007
3898.00,0.0007
3897.00,0.0008
3896.00,0.0008
3895.00,0.0008
3894.00,0.0008
3893.00,0.0008
3892.00,0.0008
3891.00,0.0008
3890.00,0.0008
3889.00,0.0008
3888.00,0.0008
3887.00,0.0009
3886.00,0.0009
3885.00,0.0009
3884.00,0.0009
3883.00,0.0009
3882.00,0.0009
3881.00,0.0009
3880.00,0.0009
3879.00,0.0009
3878.00,0.0009
3877.00,0.0009
3876.00,0.0009
3875.00,0.0008
3874.00,0.0008
3873.00,0.0008
3872.00,0.0008
3871.00,0.0007
3870.00,0.0007
3869.00,0.0007
3868.00,0.0007
3867.00,0.0007
3866.00,0.0007
3865.00,0.0007
3864.00,0.0007
3863.00,0.0007
3862.00,0.0006
3861.00,0.0006
3860.00,0.0006
3859.00,0.0006
3858.00,0.0007
3857.00,0.0008
3856.00,0.0008
3855.00,0.0008
3854.00,0.0008
3853.00,0.0008
3852.00,0.0008
3851.00,0.0008
3850.00,0.0008
3849.00,0.0008
3848.00,0.0008
3847.00,0.0008
3846.00,0.0008
3845.00,0.0008
3844.00,0.0008
3843.00,0.0007
3842.00,0.0006
3841.00,0.0006
3840.00,0.0006
3839.00,0.0006
3838.00,0.0007
3837.00,0.0007
3836.00,0.0007
3835.00,0.0007
3834.00,0.0007
3833.00,0.0006
3832.00,0.0006
3831.00,0.0007
3830.00,0.0007
3829.00,0.0008
3828.00,0.0008
3827.00,0.0008
3826.00,0.0008
3825.00,0.0008
3824.00,0.0008
3823.00,0.0008
3822.00,0.0007
3821.00,0.0007
3820.00,0.0008
3819.00,0.0008
3818.00,0.0008
3817.00,0.0008
3816.00,0.0008
3815.00,0.0008
3814.00,0.0008
3813.00,0.0008
3812.00,0.0008
3811.00,0.0007
3810.00,0.0007
3809.00,0.0007
3808.00,0.0007
3807.00,0.0007
3806.00,0.0008
3805.00,0.0008
3804.00,0.0009
3803.00,0.0009
3802.00,0.0008
3801.00,0.0008
3800.00,0.0008
3799.00,0.0008
3798.00,0.0008
3797.00,0.0008
3796.00,0.0008
3795.00,0.0008
3794.00,0.0008
3793.00,0.0008
3792.00,0.0007
3791.00,0.0007
3790.00,0.0007
3789.00,0.0007
3788.00,0.0007
3787.00,0.0007
3786.00,0.0007
3785.00,0.0007
3784.00,0.0007
3783.00,0.0007
3782.00,0.0007
3781.00,0.0007
3780.00,0.0008
3779.00,0.0008
3778.00,0.0008
3777.00,0.0008
3776.00,0.0008
3775.00,0.0008
3774.00,0.0008
3773.00,0.0007
3772.00,0.0007
3771.00,0.0007
3770.00,0.0007
3769.00,0.0007
3768.00,0.0007
3767.00,0.0007
3766.00,0.0008
3765.00,0.0008
3764.00,0.0008
3763.00,0.0008
3762.00,0.0008
3761.00,0.0008
3760.00,0.0008
3759.00,0.0008
3758.00,0.0008
3757.00,0.0008
3756.00,0.0007
3755.00,0.0007
3754.00,0.0007
3753.00,0.0006
3752.00,0.0006
3751.00,0.0007
3750.00,0.0007
3749.00,0.0007
3748.00,0.0007
3747.00,0.0008
3746.00,0.0008
3745.00,0.0008
3744.00,0.0007
3743.00,0.0007
3742.00,0.0006
3741.00,0.0006
3740.00,0.0006
3739.00,0.0005
3738.00,0.0005
3737.00,0.0005
3736.00,0.0005
3735.00,0.0005
3734.00,0.0005
3733.00,0.0005
3732.00,0.0005
3731.00,0.0005
3730.00,0.0005
3729.00,0.0005
3728.00,0.0004
3727.00,0.0005
3726.00,0.0005
3725.00,0.0005
3724.00,0.0005
3723.00,0.0005
3722.00,0.0005
3721.00,0.0006
3720.00,0.0007
3719.00,0.0007
3718.00,0.0007
3717.00,0.0006
3716.00,0.0006
3715.00,0.0006
3714.00,0.0005
3713.00,0.0005
3712.00,0.0006
3711.00,0.0006
3710.00,0.0006
3709.00,0.0006
3708.00,0.0006
3707.00,0.0005
3706.00,0.0005
3705.00,0.0004
3704.00,0.0004
3703.00,0.0004
3702.00,0.0005
3701.00,0.0005
3700.00,0.0005
3699.00,0.0005
3698.00,0.0005
3697.00,0.0005
3696.00,0.0005
3695.00,0.0004
3694.00,0.0004
3693.00,0.0005
3692.00,0.0006
3691.00,0.0006
3690.00,0.0007
3689.00,0.0006
3688.00,0.0005
3687.00,0.0005
3686.00,0.0004
3685.00,0.0004
3684.00,0.0004
3683.00,0.0004
3682.00,0.0005
3681.00,0.0005
3680.00,0.0006
3679.00,0.0006
3678.00,0.0006
3677.00,0.0006
3676.00,0.0005
3675.00,0.0005
3674.00,0.0004
3673.00,0.0004
3672.00,0.0004
3671.00,0.0004
3670.00,0.0004
3669.00,0.0004
3668.00,0.0004
3667.00,0.0004
3666.00,0.0004
3665.00,0.0004
3664.00,0.0004
3663.00,0.0004
3662.00,0.0004
3661.00,0.0004
3660.00,0.0004
3659.00,0.0004
3658.00,0.0005
3657.00,0.0004
3656.00,0.0004
3655.00,0.0004
3654.00,0.0004
3653.00,0.0004
3652.00,0.0003
3651.00,0.0002
3650.00,0.0002
3649.00,0.0003
3648.00,0.0004
3647.00,0.0005
3646.00,0.0005
3645.00,0.0006
3644.00,0.0006
3643.00,0.0006
3642.00,0.0007
3641.00,0.0007
3640.00,0.0007
3639.00,0.0007
3638.00,0.0007
3637.00,0.0007
3636.00,0.0006
3635.00,0.0006
3634.00,0.0007
3633.00,0.0007
3632.00,0.0008
3631.00,0.0009
3630.00,0.0010
3629.00,0.0010
3628.00,0.0010
3627.00,0.0010
3626.00,0.0010
3625.00,0.0009
3624.00,0.0009
3623.00,0.0009
3622.00,0.0010
3621.00,0.0010
3620.00,0.0010
3619.00,0.0009
3618.00,0.0009
3617.00,0.0010
3616.00,0.0010
3615.00,0.0011
3614.00,0.0011
3613.00,0.0011
3612.00,0.0011
3611.00,0.0011
3610.00,0.0011
3609.00,0.0011
3608.00,0.0011
3607.00,0.0012
3606.00,0.0012
3605.00,0.0013
3604.00,0.0013
3603.00,0.0013
3602.00,0.0013
3601.00,0.0014
3600.00,0.0014
3599.00,0.0014
3598.00,0.0015
3597.00,0.0015
3596.00,0.0015
3595.00,0.0015
3594.00,0.0015
3593.00,0.0015
3592.00,0.0015
3591.00,0.0015
3590.00,0.0015
3589.00,0.0015
3588.00,0.0016
3587.00,0.0017
3586.00,0.0017
3585.00,0.0018
3584.00,0.0018
3583.00,0.0018
3582.00,0.0018
3581.00,0.0019
3580.00,0.0019
3579.00,0.0019
3578.00,0.0019
3577.00,0.0019
3576.00,0.0020
3575.00,0.0021
3574.00,0.0021
3573.00,0.0021
3572.00,0.0021
3571.00,0.0021
3570.00,0.0021
3569.00,0.0021
3568.00,0.0021
3567.00,0.0021
3566.00,0.0021
3565.00,0.0022
3564.00,0.0022
3563.00,0.0022
3562.00,0.0023
3561.00,0.0023
3560.00,0.0024
3559.00,0.0024
3558.00,0.0025
3557.00,0.0025
3556.00,0.0025
3555.00,0.0025
3554.00,0.0025
3553.00,0.0025
3552.00,0.0025
3551.00,0.0025
3550.00,0.0025
3549.00,0.0025
3548.00,0.0026
3547.00,0.0026
3546.00,0.0026
3545.00,0.0027
3544.00,0.0027
3543.00,0.0027
3542.00,0.0027
3541.00,0.0028
3540.00,0.0028
3539.00,0.0028
3538.00,0.0028
3537.00,0.0028
3536.00,0.0028
3535.00,0.0029
3534.00,0.0029
3533.00,0.0029
3532.00,0.0029
3531.00,0.0029
3530.00,0.0029
3529.00,0.0029
3528.00,0.0030
3527.00,0.0030
3526.00,0.0031
3525.00,0.0031
3524.00,0.0031
3523.00,0.0032
3522.00,0.0032
3521.00,0.0032
3520.00,0.0032
3519.00,0.0032
3518.00,0.0032
3517.00,0.0032
3516.00,0.0032
3515.00,0.0032
3514.00,0.0033
3513.00,0.0033
3512.00,0.0033
3511.00,0.0033
3510.00,0.0034
3509.00,0.0034
3508.00,0.0034
3507.00,0.0034
3506.00,0.0034
3505.00,0.0034
3504.00,0.0034
3503.00,0.0035
3502.00,0.0035
3501.00,0.0035
3500.00,0.0035
3499.00,0.0035
3498.00,0.0035
3497.00,0.0036
3496.00,0.0036
3495.00,0.0036
3494.00,0.0036
3493.00,0.0036
3492.00,0.0037
3491.00,0.0037
3490.00,0.0038
3489.00,0.0038
3488.00,0.0038
3487.00,0.0038
3486.00,0.0038
3485.00,0.0038
3484.00,0.0038
3483.00,0.0038
3482.00,0.0039
3481.00,0.0039
3480.00,0.0039
3479.00,0.0040
3478.00,0.0040
3477.00,0.0040
3476.00,0.0040
3475.00,0.0040
3474.00,0.0040
3473.00,0.0040
3472.00,0.0040
3471.00,0.0040
3470.00,0.0040
3469.00,0.0041
3468.00,0.0041
3467.00,0.0041
3466.00,0.0042
3465.00,0.0042
3464.00,0.0042
3463.00,0.0041
3462.00,0.0041
3461.00,0.0041
3460.00,0.0041
3459.00,0.0041
3458.00,0.0041
3457.00,0.0042
3456.00,0.0042
3455.00,0.0042
3454.00,0.0042
3453.00,0.0043
3452.00,0.0043
3451.00,0.0043
3450.00,0.0043
3449.00,0.0044
3448.00,0.0044
3447.00,0.0044
3446.00,0.0045
3445.00,0.0045
3444.00,0.0045
3443.00,0.0045
3442.00,0.0045
3441.00,0.0045
3440.00,0.0046
3439.00,0.0046
3438.00,0.0046
3437.00,0.0046
3436.00,0.0046
3435.00,0.0046
3434.00,0.0046
3433.00,0.0046
3432.00,0.0046
3431.00,0.0047
3430.00,0.0047
3429.00,0.0047
3428.00,0.0047
3427.00,0.0047
3426.00,0.0047
3425.00,0.0047
3424.00,0.0047
3423.00,0.0048
3422.00,0.0048
3421.00,0.0049
3420.00,0.0049
3419.00,0.0050
3418.00,0.0050
3417.00,0.0050
3416.00,0.0051
3415.00,0.0051
3414.00,0.0051
3413.00,0.0052
3412.00,0.0052
3411.00,0.0052
3410.00,0.0052
3409.00,0.0052
3408.00,0.0052
3407.00,0.0052
3406.00,0.0053
3405.00,0.0053
3404.00,0.0053
3403.00,0.0053
3402.00,0.0054
3401.00,0.0054
3400.00,0.0054
3399.00,0.0054
3398.00,0.0055
3397.00,0.0055
3396.00,0.0055
3395.00,0.0055
3394.00,0.0055
3393.00,0.0054
3392.00,0.0054
3391.00,0.0054
3390.00,0.0054
3389.00,0.0054
3388.00,0.0054
3387.00,0.0054
3386.00,0.0054
3385.00,0.0054
3384.00,0.0053
3383.00,0.0053
3382.00,0.0053
3381.00,0.0053
3380.00,0.0053
3379.00,0.0053
3378.00,0.0053
3377.00,0.0053
3376.00,0.0052
3375.00,0.0052
3374.00,0.0052
3373.00,0.0052
3372.00,0.0052
3371.00,0.0052
3370.00,0.0052
3369.00,0.0053
3368.00,0.0053
3367.00,0.0053
3366.00,0.0053
3365.00,0.0053
3364.00,0.0053
3363.00,0.0053
3362.00,0.0053
3361.00,0.0052
3360.00,0.0052
3359.00,0.0053
3358.00,0.0053
3357.00,0.0053
3356.00,0.0054
3355.00,0.0054
3354.00,0.0054
3353.00,0.0054
3352.00,0.0054
3351.00,0.0054
3350.00,0.0053
3349.00,0.0053
3348.00,0.0053
3347.00,0.0053
3346.00,0.0052
3345.00,0.0052
3344.00,0.0052
3343.00,0.0052
3342.00,0.0053
3341.00,0.0053
3340.00,0.0053
3339.00,0.0053
3338.00,0.0053
3337.00,0.0053
3336.00,0.0053
3335.00,0.0053
3334.00,0.0053
3333.00,0.0053
3332.00,0.0052
3331.00,0.0052
3330.00,0.0052
3329.00,0.0052
3328.00,0.0052
3327.00,0.0052
3326.00,0.0052
3325.00,0.0052
3324.00,0.0051
3323.00,0.0051
3322.00,0.0051
3321.00,0.0052
3320.00,0.0052
3319.00,0.0052
3318.00,0.0052
3317.00,0.0051
3316.00,0.0051
3315.00,0.0051
3314.00,0.0051
3313.00,0.0051
3312.00,0.0052
3311.00,0.0052
3310.00,0.0051
3309.00,0.0051
3308.00,0.0051
3307.00,0.0051
3306.00,0.0052
3305.00,0.0052
3304.00,0.0052
3303.00,0.0052
3302.00,0.0052
3301.00,0.0052
3300.00,0.0051
3299.00,0.0051
3298.00,0.0051
3297.00,0.0050
3296.00,0.0050
3295.00,0.0050
3294.00,0.0049
3293.00,0.0049
3292.00,0.0049
3291.00,0.0048
3290.00,0.0048
3289.00,0.0048
3288.00,0.0048
3287.00,0.0048
3286.00,0.0048
3285.00,0.0048
3284.00,0.0047
3283.00,0.0047
3282.00,0.0047
3281.00,0.0047
3280.00,0.0047
3279.00,0.0047
3278.00,0.0046
3277.00,0.0046
3276.00,0.0046
3275.00,0.0045
3274.00,0.0045
3273.00,0.0045
3272.00,0.0044
3271.00,0.0044
3270.00,0.0044
3269.00,0.0045
3268.00,0.0045
3267.00,0.0045
3266.00,0.0045
3265.00,0.0045
3264.00,0.0045
3263.00,0.0044
3262.00,0.0044
3261.00,0.0044
3260.00,0.0044
3259.00,0.0043
3258.00,0.0043
3257.00,0.0043
3256.00,0.0043
3255.00,0.0043
3254.00,0.0043
3253.00,0.0043
3252.00,0.0043
3251.00,0.0043
3250.00,0.0043
3249.00,0.0042
3248.00,0.0042
3247.00,0.0042
3246.00,0.0041
3245.00,0.0041
3244.00,0.0041
3243.00,0.0041
3242.00,0.0041
3241.00,0.0041
3240.00,0.0041
3239.00,0.0041
3238.00,0.0041
3237.00,0.0041
3236.00,0.0041
3235.00,0.0041
3234.00,0.0041
3233.00,0.0041
3232.00,0.0041
3231.00,0.0041
3230.00,0.0041
3229.00,0.0041
3228.00,0.0041
3227.00,0.0042
3226.00,0.0042
3225.00,0.0042
3224.00,0.0042
3223.00,0.0042
3222.00,0.0042
3221.00,0.0042
3220.00,0.0043
3219.00,0.0043
3218.00,0.0043
3217.00,0.0043
3216.00,0.0043
3215.00,0.0044
3214.00,0.0044
3213.00,0.0044
3212.00,0.0044
3211.00,0.0044
3210.00,0.0044
3209.00,0.0045
3208.00,0.0045
3207.00,0.0045
3206.00,0.0045
3205.00,0.0045
3204.00,0.0046
3203.00,0.0046
3202.00,0.0046
3201.00,0.0046
3200.00,0.0046
3199.00,0.0046
3198.00,0.0046
3197.00,0.0046
3196.00,0.0046
3195.00,0.0046
3194.00,0.0046
3193.00,0.0045
3192.00,0.0045
3191.00,0.0045
3190.00,0.0046
3189.00,0.0046
3188.00,0.0046
3187.00,0.0046
3186.00,0.0045
3185.00,0.0045
3184.00,0.0045
3183.00,0.0045
3182.00,0.0045
3181.00,0.0044
3180.00,0.0044
3179.00,0.0044
3178.00,0.0043
3177.00,0.0043
3176.00,0.0043
3175.00,0.0044
3174.00,0.0044
3173.00,0.0043
3172.00,0.0043
3171.00,0.0042
3170.00,0.0042
3169.00,0.0042
3168.00,0.0042
3167.00,0.0041
3166.00,0.0041
3165.00,0.0041
3164.00,0.0041
3163.00,0.0041
3162.00,0.0041
3161.00,0.0041
3160.00,0.0041
3159.00,0.0040
3158.00,0.0040
3157.00,0.0040
3156.00,0.0040
3155.00,0.0040
3154.00,0.0039
3153.00,0.0040
3152.00,0.0040
3151.00,0.0040
3150.00,0.0040
3149.00,0.0040
3148.00,0.0040
3147.00,0.0040
3146.00,0.0040
3145.00,0.0040
3144.00,0.0039
3143.00,0.0039
3142.00,0.0039
3141.00,0.0039
3140.00,0.0038
3139.00,0.0038
3138.00,0.0038
3137.00,0.0038
3136.00,0.0038
3135.00,0.0038
3134.00,0.0038
3133.00,0.0037
3132.00,0.0037
3131.00,0.0036
3130.00,0.0036
3129.00,0.0035
3128.00,0.0035
3127.00,0.0035
3126.00,0.0035
3125.00,0.0035
3124.00,0.0035
3123.00,0.0035
3122.00,0.0034
3121.00,0.0034
3120.00,0.0034
3119.00,0.0034
3118.00,0.0033
3117.00,0.0033
3116.00,0.0032
3115.00,0.0032
3114.00,0.0032
3113.00,0.0032
3112.00,0.0032
3111.00,0.0032
3110.00,0.0032
3109.00,0.0032
3108.00,0.0032
3107.00,0.0032
3106.00,0.0032
3105.00,0.0032
3104.00,0.0032
3103.00,0.0032
3102.00,0.0032
3101.00,0.0031
3100.00,0.0031
3099.00,0.0031
3098.00,0.0031
3097.00,0.0031
3096.00,0.0031
3095.00,0.0031
3094.00,0.0031
3093.00,0.0031
3092.00,0.0031
3091.00,0.0032
3090.00,0.0032
3089.00,0.0032
3088.00,0.0032
3087.00,0.0032
3086.00,0.0031
3085.00,0.0031
3084.00,0.0031
3083.00,0.0031
3082.00,0.0031
3081.00,0.0031
3080.00,0.0031
3079.00,0.0031
3078.00,0.0031
3077.00,0.0032
3076.00,0.0032
3075.00,0.0032
3074.00,0.0033
3073.00,0.0033
3072.00,0.0033
3071.00,0.0033
3070.00,0.0033
3069.00,0.0033
3068.00,0.0033
3067.00,0.0033
3066.00,0.0033
3065.00,0.0034
3064.00,0.0034
3063.00,0.0034
3062.00,0.0034
3061.00,0.0034
3060.00,0.0034
3059.00,0.0034
3058.00,0.0034
3057.00,0.0035
3056.00,0.0035
3055.00,0.0036
3054.00,0.0036
3053.00,0.0036
3052.00,0.0036
3051.00,0.0035
3050.00,0.0035
3049.00,0.0035
3048.00,0.0036
3047.00,0.0036
3046.00,0.0036
3045.00,0.0037
3044.00,0.0037
3043.00,0.0038
3042.00,0.0039
3041.00,0.0039
3040.00,0.0039
3039.00,0.0039
3038.00,0.0039
3037.00,0.0040
3036.00,0.0040
3035.00,0.0040
3034.00,0.0040
3033.00,0.0040
3032.00,0.0040
3031.00,0.0041
3030.00,0.0042
3029.00,0.0042
3028.00,0.0043
3027.00,0.0044
3026.00,0.0044
3025.00,0.0045
3024.00,0.0045
3023.00,0.0046
3022.00,0.0046
3021.00,0.0046
3020.00,0.0047
3019.00,0.0048
3018.00,0.0048
3017.00,0.0048
3016.00,0.0048
3015.00,0.0049
3014.00,0.0049
3013.00,0.0050
3012.00,0.0050
3011.00,0.0051
3010.00,0.0052
3009.00,0.0052
3008.00,0.0053
3007.00,0.0054
3006.00,0.0055
3005.00,0.0055
3004.00,0.0056
3003.00,0.0057
3002.00,0.0058
3001.00,0.0060
3000.00,0.0061
2999.00,0.0063
2998.00,0.0065
2997.00,0.0068
2996.00,0.0071
2995.00,0.0074
2994.00,0.0077
2993.00,0.0081
2992.00,0.0085
2991.00,0.0089
2990.00,0.0094
2989.00,0.0100
2988.00,0.0106
2987.00,0.0113
2986.00,0.0121
2985.00,0.0128
2984.00,0.0136
2983.00,0.0146
2982.00,0.0158
2981.00,0.0174
2980.00,0.0193
2979.00,0.0215
2978.00,0.0239
2977.00,0.0267
2976.00,0.0297
2975.00,0.0331
2974.00,0.0369
2973.00,0.0413
2972.00,0.0463
2971.00,0.0519
2970.00,0.0583
2969.00,0.0653
2968.00,0.0728
2967.00,0.0808
2966.00,0.0892
2965.00,0.0977
2964.00,0.1059
2963.00,0.1136
2962.00,0.1204
2961.00,0.1261
2960.00,0.1308
2959.00,0.1348
2958.00,0.1386
2957.00,0.1427
2956.00,0.1475
2955.00,0.1532
2954.00,0.1598
2953.00,0.1666
2952.00,0.1728
2951.00,0.1773
2950.00,0.1790
2949.00,0.1772
2948.00,0.1717
2947.00,0.1629
2946.00,0.1520
2945.00,0.1403
2944.00,0.1293
2943.00,0.1198
2942.00,0.1124
2941.00,0.1075
2940.00,0.1048
2939.00,0.1043
2938.00,0.1057
2937.00,0.1088
2936.00,0.1136
2935.00,0.1197
2934.00,0.1272
2933.00,0.1359
2932.00,0.1457
2931.00,0.1564
2930.00,0.1677
2929.00,0.1795
2928.00,0.1913
2927.00,0.2031
2926.00,0.2145
2925.00,0.2257
2924.00,0.2367
2923.00,0.2475
2922.00,0.2583
2921.00,0.2687
2920.00,0.2780
2919.00,0.2852
2918.00,0.2892
2917.00,0.2889
2916.00,0.2841
2915.00,0.2753
2914.00,0.2637
2913.00,0.2509
2912.00,0.2380
2911.00,0.2262
2910.00,0.2157
2909.00,0.2064
2908.00,0.1982
2907.00,0.1906
2906.00,0.1833
2905.00,0.1761
2904.00,0.1691
2903.00,0.1621
2902.00,0.1553
2901.00,0.1487
2900.00,0.1424
2899.00,0.1363
2898.00,0.1307
2897.00,0.1255
2896.00,0.1208
2895.00,0.1168
2894.00,0.1133
2893.00,0.1104
2892.00,0.1081
2891.00,0.1063
2890.00,0.1051
2889.00,0.1043
2888.00,0.1038
2887.00,0.1037
2886.00,0.1040
2885.00,0.1046
2884.00,0.1057
2883.00,0.1073
2882.00,0.1093
2881.00,0.1117
2880.00,0.1142
2879.00,0.1165
2878.00,0.1180
2877.00,0.1187
2876.00,0.1186
2875.00,0.1181
2874.00,0.1175
2873.00,0.1173
2872.00,0.1178
2871.00,0.1190
2870.00,0.1207
2869.00,0.1225
2868.00,0.1236
2867.00,0.1235
2866.00,0.1215
2865.00,0.1174
2864.00,0.1115
2863.00,0.1048
2862.00,0.0980
2861.00,0.0921
2860.00,0.0875
2859.00,0.0845
2858.00,0.0830
2857.00,0.0828
2856.00,0.0836
2855.00,0.0854
2854.00,0.0879
2853.00,0.0907
2852.00,0.0936
2851.00,0.0960
2850.00,0.0975
2849.00,0.0979
2848.00,0.0975
2847.00,0.0970
2846.00,0.0971
2845.00,0.0984
2844.00,0.1010
2843.00,0.1047
2842.00,0.1091
2841.00,0.1135
2840.00,0.1171
2839.00,0.1190
2838.00,0.1186
2837.00,0.1154
2836.00,0.1093
2835.00,0.1009
2834.00,0.0909
2833.00,0.0806
2832.00,0.0706
2831.00,0.0618
2830.00,0.0542
2829.00,0.0480
2828.00,0.0430
2827.00,0.0389
2826.00,0.0357
2825.00,0.0330
2824.00,0.0307
2823.00,0.0288
2822.00,0.0271
2821.00,0.0256
2820.00,0.0244
2819.00,0.0233
2818.00,0.0223
2817.00,0.0215
2816.00,0.0208
2815.00,0.0201
2814.00,0.0195
2813.00,0.0189
2812.00,0.0184
2811.00,0.0178
2810.00,0.0173
2809.00,0.0167
2808.00,0.0161
2807.00,0.0155
2806.00,0.0148
2805.00,0.0142
2804.00,0.0136
2803.00,0.0130
2802.00,0.0125
2801.00,0.0120
2800.00,0.0116
2799.00,0.0113
2798.00,0.0110
2797.00,0.0108
2796.00,0.0105
2795.00,0.0103
2794.00,0.0100
2793.00,0.0098
2792.00,0.0095
2791.00,0.0092
2790.00,0.0089
2789.00,0.0086
2788.00,0.0083
2787.00,0.0080
2786.00,0.0078
2785.00,0.0076
2784.00,0.0074
2783.00,0.0071
2782.00,0.0070
2781.00,0.0068
2780.00,0.0066
2779.00,0.0065
2778.00,0.0063
2777.00,0.0062
2776.00,0.0060
2775.00,0.0060
2774.00,0.0059
2773.00,0.0058
2772.00,0.0057
2771.00,0.0057
2770.00,0.0056
2769.00,0.0056
2768.00,0.0056
2767.00,0.0056
2766.00,0.0056
2765.00,0.0055
2764.00,0.0055
2763.00,0.0054
2762.00,0.0054
2761.00,0.0053
2760.00,0.0053
2759.00,0.0052
2758.00,0.0052
2757.00,0.0052
2756.00,0.0052
2755.00,0.0052
2754.00,0.0052
2753.00,0.0052
2752.00,0.0051
2751.00,0.0051
2750.00,0.0051
2749.00,0.0051
2748.00,0.0051
2747.00,0.0052
2746.00,0.0052
2745.00,0.0053
2744.00,0.0054
2743.00,0.0054
2742.00,0.0055
2741.00,0.0056
2740.00,0.0057
2739.00,0.0058
2738.00,0.0059
2737.00,0.0061
2736.00,0.0062
2735.00,0.0064
2734.00,0.0065
2733.00,0.0067
2732.00,0.0069
2731.00,0.0070
2730.00,0.0072
2729.00,0.0074
2728.00,0.0077
2727.00,0.0080
2726.00,0.0082
2725.00,0.0084
2724.00,0.0086
2723.00,0.0086
2722.00,0.0085
2721.00,0.0083
2720.00,0.0080
2719.00,0.0077
2718.00,0.0074
2717.00,0.0071
2716.00,0.0068
2715.00,0.0066
2714.00,0.0064
2713.00,0.0062
2712.00,0.0060
2711.00,0.0058
2710.00,0.0056
2709.00,0.0055
2708.00,0.0054
2707.00,0.0053
2706.00,0.0052
2705.00,0.0051
2704.00,0.0050
2703.00,0.0049
2702.00,0.0048
2701.00,0.0047
2700.00,0.0046
2699.00,0.0046
2698.00,0.0045
2697.00,0.0045
2696.00,0.0045
2695.00,0.0045
2694.00,0.0045
2693.00,0.0045
2692.00,0.0045
2691.00,0.0045
2690.00,0.0045
2689.00,0.0045
2688.00,0.0045
2687.00,0.0045
2686.00,0.0045
2685.00,0.0044
2684.00,0.0044
2683.00,0.0044
2682.00,0.0045
2681.00,0.0045
2680.00,0.0045
2679.00,0.0045
2678.00,0.0046
2677.00,0.0045
2676.00,0.0045
2675.00,0.0045
2674.00,0.0045
2673.00,0.0045
2672.00,0.0045
2671.00,0.0045
2670.00,0.0045
2669.00,0.0045
2668.00,0.0045
2667.00,0.0045
2666.00,0.0045
2665.00,0.0046
2664.00,0.0047
2663.00,0.0047
2662.00,0.0048
2661.00,0.0048
2660.00,0.0048
2659.00,0.0048
2658.00,0.0047
2657.00,0.0047
2656.00,0.0047
2655.00,0.0046
2654.00,0.0046
2653.00,0.0045
2652.00,0.0045
2651.00,0.0044
2650.00,0.0044
2649.00,0.0044
2648.00,0.0043
2647.00,0.0043
2646.00,0.0043
2645.00,0.0042
2644.00,0.0042
2643.00,0.0041
2642.00,0.0041
2641.00,0.0041
2640.00,0.0041
2639.00,0.0040
2638.00,0.0040
2637.00,0.0040
2636.00,0.0040
2635.00,0.0039
2634.00,0.0039
2633.00,0.0039
2632.00,0.0039
2631.00,0.0039
2630.00,0.0039
2629.00,0.0039
2628.00,0.0039
2627.00,0.0040
2626.00,0.0040
2625.00,0.0040
2624.00,0.0040
2623.00,0.0040
2622.00,0.0040
2621.00,0.0041
2620.00,0.0041
2619.00,0.0041
2618.00,0.0041
2617.00,0.0041
2616.00,0.0041
2615.00,0.0041
2614.00,0.0040
2613.00,0.0039
2612.00,0.0039
2611.00,0.0038
2610.00,0.0037
2609.00,0.0036
2608.00,0.0035
2607.00,0.0034
2606.00,0.0034
2605.00,0.0033
2604.00,0.0033
2603.00,0.0033
2602.00,0.0033
2601.00,0.0033
2600.00,0.0033
2599.00,0.0033
2598.00,0.0032
2597.00,0.0032
2596.00,0.0032
2595.00,0.0032
2594.00,0.0032
2593.00,0.0032
2592.00,0.0032
2591.00,0.0033
2590.00,0.0034
2589.00,0.0034
2588.00,0.0035
2587.00,0.0036
2586.00,0.0037
2585.00,0.0038
2584.00,0.0039
2583.00,0.0040
2582.00,0.0040
2581.00,0.0039
2580.00,0.0039
2579.00,0.0038
2578.00,0.0036
2577.00,0.0035
2576.00,0.0033
2575.00,0.0032
2574.00,0.0032
2573.00,0.0031
2572.00,0.0030
2571.00,0.0029
2570.00,0.0028
2569.00,0.0028
2568.00,0.0027
2567.00,0.0026
2566.00,0.0026
2565.00,0.0025
2564.00,0.0024
2563.00,0.0024
2562.00,0.0024
2561.00,0.0023
2560.00,0.0023
2559.00,0.0022
2558.00,0.0022
2557.00,0.0022
2556.00,0.0023
2555.00,0.0023
2554.00,0.0023
2553.00,0.0022
2552.00,0.0022
2551.00,0.0021
2550.00,0.0021
2549.00,0.0021
2548.00,0.0021
2547.00,0.0020
2546.00,0.0019
2545.00,0.0019
2544.00,0.0018
2543.00,0.0018
2542.00,0.0018
2541.00,0.0017
2540.00,0.0017
2539.00,0.0017
2538.00,0.0017
2537.00,0.0017
2536.00,0.0016
2535.00,0.0016
2534.00,0.0016
2533.00,0.0016
2532.00,0.0016
2531.00,0.0017
2530.00,0.0017
2529.00,0.0017
2528.00,0.0017
2527.00,0.0016
2526.00,0.0016
2525.00,0.0016
2524.00,0.0015
2523.00,0.0015
2522.00,0.0014
2521.00,0.0014
2520.00,0.0013
2519.00,0.0013
2518.00,0.0013
2517.00,0.0013
2516.00,0.0013
2515.00,0.0013
2514.00,0.0012
2513.00,0.0012
2512.00,0.0012
2511.00,0.0011
2510.00,0.0011
2509.00,0.0011
2508.00,0.0011
2507.00,0.0011
2506.00,0.0011
2505.00,0.0011
2504.00,0.0011
2503.00,0.0011
2502.00,0.0011
2501.00,0.0011
2500.00,0.0012
2499.00,0.0012
2498.00,0.0012
2497.00,0.0012
2496.00,0.0012
2495.00,0.0012
2494.00,0.0012
2493.00,0.0012
2492.00,0.0012
2491.00,0.0012
2490.00,0.0012
2489.00,0.0012
2488.00,0.0011
2487.00,0.0011
2486.00,0.0011
2485.00,0.0011
2484.00,0.0011
2483.00,0.0010
2482.00,0.0010
2481.00,0.0010
2480.00,0.0010
2479.00,0.0010
2478.00,0.0010
2477.00,0.0011
2476.00,0.0011
2475.00,0.0011
2474.00,0.0011
2473.00,0.0011
2472.00,0.0010
2471.00,0.0010
2470.00,0.0009
2469.00,0.0009
2468.00,0.0009
2467.00,0.0009
2466.00,0.0009
2465.00,0.0009
2464.00,0.0009
2463.00,0.0009
2462.00,0.0009
2461.00,0.0009
2460.00,0.0010
2459.00,0.0010
2458.00,0.0011
2457.00,0.0011
2456.00,0.0011
2455.00,0.0011
2454.00,0.0011
2453.00,0.0011
2452.00,0.0011
2451.00,0.0011
2450.00,0.0011
2449.00,0.0011
2448.00,0.0011
2447.00,0.0011
2446.00,0.0011
2445.00,0.0011
2444.00,0.0011
2443.00,0.0011
2442.00,0.0010
2441.00,0.0010
2440.00,0.0010
2439.00,0.0010
2438.00,0.0010
2437.00,0.0010
2436.00,0.0010
2435.00,0.0011
2434.00,0.0011
2433.00,0.0011
2432.00,0.0012
2431.00,0.0013
2430.00,0.0013
2429.00,0.0014
2428.00,0.0014
2427.00,0.0014
2426.00,0.0013
2425.00,0.0013
2424.00,0.0012
2423.00,0.0012
2422.00,0.0011
2421.00,0.0011
2420.00,0.0011
2419.00,0.0011
2418.00,0.0011
2417.00,0.0011
2416.00,0.0011
2415.00,0.0012
2414.00,0.0012
2413.00,0.0013
2412.00,0.0012
2411.00,0.0012
2410.00,0.0011
2409.00,0.0011
2408.00,0.0011
2407.00,0.0010
2406.00,0.0010
2405.00,0.0009
2404.00,0.0009
2403.00,0.0009
2402.00,0.0008
2401.00,0.0007
2400.00,0.0007
2399.00,0.0008
2398.00,0.0008
2397.00,0.0009
2396.00,0.0009
2395.00,0.0009
2394.00,0.0009
2393.00,0.0009
2392.00,0.0009
2391.00,0.0009
2390.00,0.0009
2389.00,0.0009
2388.00,0.0009
2387.00,0.0008
2386.00,0.0008
2385.00,0.0007
2384.00,0.0006
2383.00,0.0005
2382.00,0.0004
2381.00,0.0003
2380.00,0.0002
2379.00,0.0001
2378.00,0.0001
2377.00,0.0001
2376.00,0.0001
2375.00,0.0001
2374.00,0.0000
2373.00,0.0000
2372.00,-0.0001
2371.00,-0.0002
2370.00,-0.0003
2369.00,-0.0005
2368.00,-0.0005
2367.00,-0.0006
2366.00,-0.0006
2365.00,-0.0006
2364.00,-0.0005
2363.00,-0.0004
2362.00,-0.0003
2361.00,-0.0002
2360.00,-0.0001
2359.00,-0.0000
2358.00,-0.0000
2357.00,-0.0001
2356.00,-0.0001
2355.00,-0.0002
2354.00,-0.0002
2353.00,-0.0002
2352.00,-0.0002
2351.00,-0.0002
2350.00,-0.0002
2349.00,-0.0002
2348.00,-0.0001
2347.00,-0.0001
2346.00,-0.0001
2345.00,-0.0002
2344.00,-0.0002
2343.00,-0.0001
2342.00,-0.0000
2341.00,0.0001
2340.00,0.0002
2339.00,0.0002
2338.00,0.0002
2337.00,0.0002
2336.00,0.0002
2335.00,0.0002
2334.00,0.0002
2333.00,0.0002
2332.00,0.0002
2331.00,0.0002
2330.00,0.0002
2329.00,0.0003
2328.00,0.0005
2327.00,0.0008
2326.00,0.0012
2325.00,0.0015
2324.00,0.0016
2323.00,0.0016
2322.00,0.0014
2321.00,0.0012
2320.00,0.0011
2319.00,0.0010
2318.00,0.0009
2317.00,0.0008
2316.00,0.0008
2315.00,0.0007
2314.00,0.0007
2313.00,0.0007
2312.00,0.0007
2311.00,0.0007
2310.00,0.0007
2309.00,0.0007
2308.00,0.0006
2307.00,0.0006
2306.00,0.0006
2305.00,0.0007
2304.00,0.0008
2303.00,0.0008
2302.00,0.0009
2301.00,0.0009
2300.00,0.0009
2299.00,0.0010
2298.00,0.0011
2297.00,0.0011
2296.00,0.0012
2295.00,0.0013
2294.00,0.0014
2293.00,0.0015
2292.00,0.0015
2291.00,0.0015
2290.00,0.0015
2289.00,0.0016
2288.00,0.0016
2287.00,0.0017
2286.00,0.0018
2285.00,0.0018
2284.00,0.0018
2283.00,0.0017
2282.00,0.0016
2281.00,0.0015
2280.00,0.0014
2279.00,0.0013
2278.00,0.0013
2277.00,0.0013
2276.00,0.0012
2275.00,0.0011
2274.00,0.0011
2273.00,0.0012
2272.00,0.0013
2271.00,0.0014
2270.00,0.0015
2269.00,0.0014
2268.00,0.0013
2267.00,0.0012
2266.00,0.0011
2265.00,0.0010
2264.00,0.0009
2263.00,0.0008
2262.00,0.0008
2261.00,0.0009
2260.00,0.0010
2259.00,0.0011
2258.00,0.0012
2257.00,0.0012
2256.00,0.0011
2255.00,0.0009
2254.00,0.0008
2253.00,0.0008
2252.00,0.0008
2251.00,0.0008
2250.00,0.0008
2249.00,0.0008
2248.00,0.0007
2247.00,0.0007
2246.00,0.0007
2245.00,0.0007
2244.00,0.0008
2243.00,0.0009
2242.00,0.0010
2241.00,0.0011
2240.00,0.0011
2239.00,0.0010
2238.00,0.0008
2237.00,0.0008
2236.00,0.0009
2235.00,0.0011
2234.00,0.0013
2233.00,0.0014
2232.00,0.0013
2231.00,0.0012
2230.00,0.0011
2229.00,0.0010
2228.00,0.0010
2227.00,0.0010
2226.00,0.0010
2225.00,0.0008
2224.00,0.0006
2223.00,0.0005
2222.00,0.0004
2221.00,0.0005
2220.00,0.0007
2219.00,0.0007
2218.00,0.0007
2217.00,0.0006
2216.00,0.0006
2215.00,0.0006
2214.00,0.0007
2213.00,0.0008
2212.00,0.0008
2211.00,0.0008
2210.00,0.0008
2209.00,0.0008
2208.00,0.0008
2207.00,0.0007
2206.00,0.0006
2205.00,0.0006
2204.00,0.0006
2203.00,0.0007
2202.00,0.0008
2201.00,0.0008
2200.00,0.0008
2199.00,0.0007
2198.00,0.0007
2197.00,0.0007
2196.00,0.0007
2195.00,0.0007
2194.00,0.0007
2193.00,0.0008
2192.00,0.0009
2191.00,0.0010
2190.00,0.0010
2189.00,0.0010
2188.00,0.0009
2187.00,0.0007
2186.00,0.0006
2185.00,0.0004
2184.00,0.0002
2183.00,0.0001
2182.00,-0.0000
2181.00,0.0000
2180.00,0.0001
2179.00,0.0003
2178.00,0.0003
2177.00,0.0002
2176.00,0.0000
2175.00,-0.0002
2174.00,-0.0003
2173.00,-0.0000
2172.00,0.0005
2171.00,0.0010
2170.00,0.0014
2169.00,0.0016
2168.00,0.0017
2167.00,0.0016
2166.00,0.0015
2165.00,0.0014
2164.00,0.0015
2163.00,0.0017
2162.00,0.0017
2161.00,0.0012
2160.00,0.0002
2159.00,-0.0011
2158.00,-0.0021
2157.00,-0.0025
2156.00,-0.0026
2155.00,-0.0024
2154.00,-0.0021
2153.00,-0.0018
2152.00,-0.0015
2151.00,-0.0014
2150.00,-0.0015
2149.00,-0.0016
2148.00,-0.0015
2147.00,-0.0014
2146.00,-0.0013
2145.00,-0.0012
2144.00,-0.0011
2143.00,-0.0009
2142.00,-0.0008
2141.00,-0.0007
2140.00,-0.0007
2139.00,-0.0007
2138.00,-0.0007
2137.00,-0.0008
2136.00,-0.0010
2135.00,-0.0013
2134.00,-0.0015
2133.00,-0.0015
2132.00,-0.0014
2131.00,-0.0012
2130.00,-0.0010
2129.00,-0.0008
2128.00,-0.0006
2127.00,-0.0005
2126.00,-0.0005
2125.00,-0.0004
2124.00,-0.0003
2123.00,-0.0003
2122.00,-0.0002
2121.00,-0.0001
2120.00,0.0000
2119.00,0.0001
2118.00,0.0002
2117.00,0.0002
2116.00,0.0003
2115.00,0.0004
2114.00,0.0005
2113.00,0.0006
2112.00,0.0006
2111.00,0.0005
2110.00,0.0003
2109.00,0.0003
2108.00,0.0003
2107.00,0.0002
2106.00,0.0001
2105.00,0.0000
2104.00,0.0000
2103.00,0.0001
2102.00,0.0002
2101.00,0.0003
2100.00,0.0003
2099.00,0.0002
2098.00,0.0000
2097.00,-0.0001
2096.00,-0.0002
2095.00,-0.0002
2094.00,-0.0002
2093.00,-0.0002
2092.00,-0.0002
2091.00,-0.0001
2090.00,-0.0001
2089.00,-0.0001
2088.00,-0.0002
2087.00,-0.0003
2086.00,-0.0003
2085.00,-0.0002
2084.00,0.0000
2083.00,0.0002
2082.00,0.0004
2081.00,0.0005
2080.00,0.0007
2079.00,0.0007
2078.00,0.0006
2077.00,0.0005
2076.00,0.0004
2075.00,0.0002
2074.00,0.0001
2073.00,-0.0001
2072.00,-0.0002
2071.00,-0.0003
2070.00,-0.0003
2069.00,-0.0003
2068.00,-0.0002
2067.00,-0.0002
2066.00,-0.0001
2065.00,0.0001
2064.00,0.0003
2063.00,0.0004
2062.00,0.0003
2061.00,0.0003
2060.00,0.0003
2059.00,0.0003
2058.00,0.0004
2057.00,0.0004
2056.00,0.0004
2055.00,0.0003
2054.00,0.0002
2053.00,0.0004
2052.00,0.0008
2051.00,0.0012
2050.00,0.0012
2049.00,0.0009
2048.00,0.0005
2047.00,0.0002
2046.00,0.0000
2045.00,-0.0001
2044.00,-0.0001
2043.00,-0.0002
2042.00,-0.0003
2041.00,-0.0002
2040.00,-0.0001
2039.00,0.0001
2038.00,0.0001
2037.00,-0.0000
2036.00,-0.0002
2035.00,-0.0003
2034.00,-0.0004
2033.00,-0.0004
2032.00,-0.0005
2031.00,-0.0005
2030.00,-0.0006
2029.00,-0.0007
2028.00,-0.0008
2027.00,-0.0009
2026.00,-0.0009
2025.00,-0.0007
2024.00,-0.0006
2023.00,-0.0007
2022.00,-0.0010
2021.00,-0.0013
2020.00,-0.0013
2019.00,-0.0010
2018.00,-0.0007
2017.00,-0.0005
2016.00,-0.0005
2015.00,-0.0006
2014.00,-0.0007
2013.00,-0.0005
2012.00,-0.0004
2011.00,-0.0003
2010.00,-0.0002
2009.00,-0.0001
2008.00,-0.0002
2007.00,-0.0005
2006.00,-0.0008
2005.00,-0.0010
2004.00,-0.0010
2003.00,-0.0010
2002.00,-0.0011
2001.00,-0.0012
2000.00,-0.0012
1999.00,-0.0012
1998.00,-0.0010
1997.00,-0.0008
1996.00,-0.0008
1995.00,-0.0008
1994.00,-0.0010
1993.00,-0.0011
1992.00,-0.0011
1991.00,-0.0009
1990.00,-0.0004
1989.00,0.0001
1988.00,0.0005
1987.00,0.0006
1986.00,0.0007
1985.00,0.0008
1984.00,0.0010
1983.00,0.0012
1982.00,0.0013
1981.00,0.0013
1980.00,0.0010
1979.00,0.0004
1978.00,-0.0003
1977.00,-0.0008
1976.00,-0.0010
1975.00,-0.0009
1974.00,-0.0007
1973.00,-0.0006
1972.00,-0.0006
1971.00,-0.0007
1970.00,-0.0008
1969.00,-0.0009
1968.00,-0.0009
1967.00,-0.0008
1966.00,-0.0007
1965.00,-0.0007
1964.00,-0.0008
1963.00,-0.0010
1962.00,-0.0012
1961.00,-0.0013
1960.00,-0.0015
1959.00,-0.0015
1958.00,-0.0015
1957.00,-0.0013
1956.00,-0.0012
1955.00,-0.0011
1954.00,-0.0011
1953.00,-0.0012
1952.00,-0.0014
1951.00,-0.0016
1950.00,-0.0018
1949.00,-0.0018
1948.00,-0.0018
1947.00,-0.0017
1946.00,-0.0015
1945.00,-0.0014
1944.00,-0.0014
1943.00,-0.0014
1942.00,-0.0015
1941.00,-0.0014
1940.00,-0.0013
1939.00,-0.0011
1938.00,-0.0010
1937.00,-0.0008
1936.00,-0.0007
1935.00,-0.0006
1934.00,-0.0005
1933.00,-0.0004
1932.00,-0.0004
1931.00,-0.0004
1930.00,-0.0004
1929.00,-0.0004
1928.00,-0.0004
1927.00,-0.0005
1926.00,-0.0005
1925.00,-0.0005
1924.00,-0.0005
1923.00,-0.0004
1922.00,-0.0003
1921.00,-0.0002
1920.00,-0.0001
1919.00,-0.0002
1918.00,-0.0001
1917.00,-0.0001
1916.00,0.0001
1915.00,0.0002
1914.00,0.0002
1913.00,0.0001
1912.00,-0.0000
1911.00,-0.0001
1910.00,-0.0001
1909.00,-0.0001
1908.00,-0.0001
1907.00,-0.0000
1906.00,0.0000
1905.00,0.0002
1904.00,0.0003
1903.00,0.0004
1902.00,0.0003
1901.00,0.0001
1900.00,0.0000
1899.00,-0.0000
1898.00,0.0000
1897.00,0.0001
1896.00,0.0001
1895.00,0.0001
1894.00,0.0001
1893.00,0.0001
1892.00,0.0001
1891.00,0.0001
1890.00,0.0002
1889.00,0.0003
1888.00,0.0004
1887.00,0.0004
1886.00,0.0004
1885.00,0.0002
1884.00,0.0001
1883.00,-0.0001
1882.00,-0.0002
1881.00,-0.0002
1880.00,-0.0001
1879.00,-0.0000
1878.00,-0.0000
1877.00,-0.0000
1876.00,-0.0000
1875.00,0.0000
1874.00,0.0001
1873.00,0.0002
1872.00,0.0003
1871.00,0.0002
1870.00,0.0000
1869.00,-0.0000
1868.00,0.0000
1867.00,0.0001
1866.00,0.0002
1865.00,0.0002
1864.00,0.0002
1863.00,0.0001
1862.00,0.0000
1861.00,0.0000
1860.00,0.0001
1859.00,0.0001
1858.00,0.0002
1857.00,0.0002
1856.00,0.0002
1855.00,0.0002
1854.00,0.0002
1853.00,0.0003
1852.00,0.0003
1851.00,0.0003
1850.00,0.0003
1849.00,0.0003
1848.00,0.0004
1847.00,0.0004
1846.00,0.0004
1845.00,0.0003
1844.00,0.0003
1843.00,0.0003
1842.00,0.0003
1841.00,0.0002
1840.00,0.0003
1839.00,0.0003
1838.00,0.0003
1837.00,0.0004
1836.00,0.0004
1835.00,0.0004
1834.00,0.0004
1833.00,0.0004
1832.00,0.0004
1831.00,0.0003
1830.00,0.0002
1829.00,0.0002
1828.00,0.0003
1827.00,0.0003
1826.00,0.0004
1825.00,0.0004
1824.00,0.0005
1823.00,0.0005
1822.00,0.0004
1821.00,0.0004
1820.00,0.0004
1819.00,0.0003
1818.00,0.0003
1817.00,0.0002
1816.00,0.0002
1815.00,0.0003
1814.00,0.0004
1813.00,0.0005
1812.00,0.0005
1811.00,0.0005
1810.00,0.0005
1809.00,0.0004
1808.00,0.0005
1807.00,0.0005
1806.00,0.0006
1805.00,0.0006
1804.00,0.0006
1803.00,0.0006
1802.00,0.0006
1801.00,0.0006
1800.00,0.0006
1799.00,0.0006
1798.00,0.0006
1797.00,0.0005
1796.00,0.0005
1795.00,0.0006
1794.00,0.0006
1793.00,0.0007
1792.00,0.0007
1791.00,0.0008
1790.00,0.0008
1789.00,0.0008
1788.00,0.0009
1787.00,0.0009
1786.00,0.0008
1785.00,0.0008
1784.00,0.0008
1783.00,0.0008
1782.00,0.0009
1781.00,0.0009
1780.00,0.0009
1779.00,0.0009
1778.00,0.0010
1777.00,0.0010
1776.00,0.0010
1775.00,0.0009
1774.00,0.0009
1773.00,0.0008
1772.00,0.0009
1771.00,0.0010
1770.00,0.0010
1769.00,0.0010
1768.00,0.0011
1767.00,0.0011
1766.00,0.0011
1765.00,0.0011
1764.00,0.0011
1763.00,0.0011
1762.00,0.0011
1761.00,0.0011
1760.00,0.0012
1759.00,0.0012
1758.00,0.0012
1757.00,0.0012
1756.00,0.0012
1755.00,0.0012
1754.00,0.0013
1753.00,0.0013
1752.00,0.0014
1751.00,0.0015
1750.00,0.0016
1749.00,0.0016
1748.00,0.0017
1747.00,0.0017
1746.00,0.0018
1745.00,0.0018
1744.00,0.0019
1743.00,0.0020
1742.00,0.0021
1741.00,0.0021
1740.00,0.0021
1739.00,0.0021
1738.00,0.0022
1737.00,0.0022
1736.00,0.0022
1735.00,0.0022
1734.00,0.0022
1733.00,0.0021
1732.00,0.0022
1731.00,0.0022
1730.00,0.0022
1729.00,0.0022
1728.00,0.0023
1727.00,0.0023
1726.00,0.0023
1725.00,0.0023
1724.00,0.0024
1723.00,0.0024
1722.00,0.0024
1721.00,0.0024
1720.00,0.0024
1719.00,0.0024
1718.00,0.0023
1717.00,0.0023
1716.00,0.0023
1715.00,0.0023
1714.00,0.0023
1713.00,0.0023
1712.00,0.0023
1711.00,0.0023
1710.00,0.0022
1709.00,0.0022
1708.00,0.0023
1707.00,0.0023
1706.00,0.0024
1705.00,0.0024
1704.00,0.0025
1703.00,0.0025
1702.00,0.0025
1701.00,0.0026
1700.00,0.0026
1699.00,0.0026
1698.00,0.0026
1697.00,0.0027
1696.00,0.0028
1695.00,0.0029
1694.00,0.0029
1693.00,0.0029
1692.00,0.0030
1691.00,0.0030
1690.00,0.0030
1689.00,0.0031
1688.00,0.0032
1687.00,0.0033
1686.00,0.0033
1685.00,0.0034
1684.00,0.0035
1683.00,0.0035
1682.00,0.0036
1681.00,0.0037
1680.00,0.0038
1679.00,0.0039
1678.00,0.0040
1677.00,0.0041
1676.00,0.0042
1675.00,0.0043
1674.00,0.0043
1673.00,0.0043
1672.00,0.0044
1671.00,0.0044
1670.00,0.0044
1669.00,0.0045
1668.00,0.0046
1667.00,0.0046
1666.00,0.0047
1665.00,0.0048
1664.00,0.0048
1663.00,0.0049
1662.00,0.0049
1661.00,0.0049
1660.00,0.0050
1659.00,0.0050
1658.00,0.0051
1657.00,0.0052
1656.00,0.0053
1655.00,0.0054
1654.00,0.0056
1653.00,0.0059
1652.00,0.0061
1651.00,0.0061
1650.00,0.0062
1649.00,0.0064
1648.00,0.0067
1647.00,0.0069
1646.00,0.0071
1645.00,0.0072
1644.00,0.0072
1643.00,0.0071
1642.00,0.0071
1641.00,0.0071
1640.00,0.0071
1639.00,0.0071
1638.00,0.0072
1637.00,0.0072
1636.00,0.0074
1635.00,0.0075
1634.00,0.0075
1633.00,0.0074
1632.00,0.0074
1631.00,0.0074
1630.00,0.0074
1629.00,0.0073
1628.00,0.0073
1627.00,0.0073
1626.00,0.0072
1625.00,0.0072
1624.00,0.0072
1623.00,0.0071
1622.00,0.0070
1621.00,0.0070
1620.00,0.0069
1619.00,0.0068
1618.00,0.0067
1617.00,0.0067
1616.00,0.0067
1615.00,0.0067
1614.00,0.0067
1613.00,0.0066
1612.00,0.0066
1611.00,0.0065
1610.00,0.0065
1609.00,0.0064
1608.00,0.0065
1607.00,0.0065
1606.00,0.0065
1605.00,0.0065
1604.00,0.0066
1603.00,0.0066
1602.00,0.0066
1601.00,0.0067
1600.00,0.0067
1599.00,0.0067
1598.00,0.0068
1597.00,0.0068
1596.00,0.0069
1595.00,0.0070
1594.00,0.0071
1593.00,0.0073
1592.00,0.0075
1591.00,0.0077
1590.00,0.0079
1589.00,0.0082
1588.00,0.0086
1587.00,0.0090
1586.00,0.0095
1585.00,0.0101
1584.00,0.0108
1583.00,0.0117
1582.00,0.0126
1581.00,0.0135
1580.00,0.0143
1579.00,0.0150
1578.00,0.0155
1577.00,0.0157
1576.00,0.0156
1575.00,0.0152
1574.00,0.0147
1573.00,0.0142
1572.00,0.0136
1571.00,0.0129
1570.00,0.0120
1569.00,0.0113
1568.00,0.0108
1567.00,0.0104
1566.00,0.0101
1565.00,0.0098
1564.00,0.0096
1563.00,0.0094
1562.00,0.0093
1561.00,0.0092
1560.00,0.0091
1559.00,0.0092
1558.00,0.0092
1557.00,0.0093
1556.00,0.0093
1555.00,0.0094
1554.00,0.0095
1553.00,0.0097
1552.00,0.0100
1551.00,0.0104
1550.00,0.0109
1549.00,0.0114
1548.00,0.0120
1547.00,0.0127
1546.00,0.0135
1545.00,0.0145
1544.00,0.0156
1543.00,0.0165
1542.00,0.0172
1541.00,0.0175
1540.00,0.0173
1539.00,0.0165
1538.00,0.0155
1537.00,0.0147
1536.00,0.0139
1535.00,0.0129
1534.00,0.0117
1533.00,0.0105
1532.00,0.0097
1531.00,0.0091
1530.00,0.0087
1529.00,0.0084
1528.00,0.0082
1527.00,0.0079
1526.00,0.0077
1525.00,0.0075
1524.00,0.0075
1523.00,0.0074
1522.00,0.0073
1521.00,0.0073
1520.00,0.0073
1519.00,0.0073
1518.00,0.0073
1517.00,0.0074
1516.00,0.0074
1515.00,0.0074
1514.00,0.0073
1513.00,0.0074
1512.00,0.0074
1511.00,0.0075
1510.00,0.0075
1509.00,0.0076
1508.00,0.0077
1507.00,0.0078
1506.00,0.0078
1505.00,0.0078
1504.00,0.0080
1503.00,0.0081
1502.00,0.0083
1501.00,0.0086
1500.00,0.0089
1499.00,0.0092
1498.00,0.0094
1497.00,0.0098
1496.00,0.0103
1495.00,0.0106
1494.00,0.0109
1493.00,0.0113
1492.00,0.0118
1491.00,0.0122
1490.00,0.0128
1489.00,0.0136
1488.00,0.0145
1487.00,0.0152
1486.00,0.0160
1485.00,0.0170
1484.00,0.0181
1483.00,0.0194
1482.00,0.0209
1481.00,0.0226
1480.00,0.0244
1479.00,0.0260
1478.00,0.0278
1477.00,0.0300
1476.00,0.0326
1475.00,0.0355
1474.00,0.0394
1473.00,0.0449
1472.00,0.0513
1471.00,0.0575
1470.00,0.0635
1469.00,0.0698
1468.00,0.0766
1467.00,0.0841
1466.00,0.0925
1465.00,0.1015
1464.00,0.1093
1463.00,0.1145
1462.00,0.1177
1461.00,0.1196
1460.00,0.1208
1459.00,0.1214
1458.00,0.1216
1457.00,0.1216
1456.00,0.1210
1455.00,0.1198
1454.00,0.1184
1453.00,0.1165
1452.00,0.1137
1451.00,0.1097
1450.00,0.1045
1449.00,0.0973
1448.00,0.0884
1447.00,0.0791
1446.00,0.0707
1445.00,0.0637
1444.00,0.0578
1443.00,0.0530
1442.00,0.0495
1441.00,0.0471
1440.00,0.0457
1439.00,0.0453
1438.00,0.0457
1437.00,0.0462
1436.00,0.0456
1435.00,0.0434
1434.00,0.0399
1433.00,0.0357
1432.00,0.0312
1431.00,0.0272
1430.00,0.0241
1429.00,0.0218
1428.00,0.0202
1427.00,0.0193
1426.00,0.0187
1425.00,0.0182
1424.00,0.0178
1423.00,0.0176
1422.00,0.0174
1421.00,0.0172
1420.00,0.0167
1419.00,0.0163
1418.00,0.0159
1417.00,0.0155
1416.00,0.0151
1415.00,0.0148
1414.00,0.0146
1413.00,0.0142
1412.00,0.0138
1411.00,0.0136
1410.00,0.0134
1409.00,0.0132
1408.00,0.0130
1407.00,0.0129
1406.00,0.0128
1405.00,0.0126
1404.00,0.0124
1403.00,0.0123
1402.00,0.0122
1401.00,0.0121
1400.00,0.0121
1399.00,0.0121
1398.00,0.0123
1397.00,0.0124
1396.00,0.0125
1395.00,0.0128
1394.00,0.0132
1393.00,0.0137
1392.00,0.0142
1391.00,0.0149
1390.00,0.0159
1389.00,0.0172
1388.00,0.0191
1387.00,0.0220
1386.00,0.0261
1385.00,0.0314
1384.00,0.0389
1383.00,0.0496
1382.00,0.0644
1381.00,0.0838
1380.00,0.1081
1379.00,0.1358
1378.00,0.1626
1377.00,0.1820
1376.00,0.1882
1375.00,0.1783
1374.00,0.1552
1373.00,0.1276
1372.00,0.1026
1371.00,0.0822
1370.00,0.0660
1369.00,0.0539
1368.00,0.0457
1367.00,0.0405
1366.00,0.0377
1365.00,0.0366
1364.00,0.0369
1363.00,0.0382
1362.00,0.0403
1361.00,0.0426
1360.00,0.0443
1359.00,0.0449
1358.00,0.0440
1357.00,0.0415
1356.00,0.0381
1355.00,0.0341
1354.00,0.0304
1353.00,0.0271
1352.00,0.0245
1351.00,0.0224
1350.00,0.0206
1349.00,0.0192
1348.00,0.0180
1347.00,0.0170
1346.00,0.0161
1345.00,0.0154
1344.00,0.0148
1343.00,0.0143
1342.00,0.0138
1341.00,0.0135
1340.00,0.0133
1339.00,0.0131
1338.00,0.0130
1337.00,0.0130
1336.00,0.0131
1335.00,0.0132
1334.00,0.0135
1333.00,0.0139
1332.00,0.0144
1331.00,0.0147
1330.00,0.0147
1329.00,0.0146
1328.00,0.0142
1327.00,0.0137
1326.00,0.0132
1325.00,0.0126
1324.00,0.0121
1323.00,0.0116
1322.00,0.0113
1321.00,0.0109
1320.00,0.0107
1319.00,0.0105
1318.00,0.0104
1317.00,0.0102
1316.00,0.0100
1315.00,0.0099
1314.00,0.0098
1313.00,0.0098
1312.00,0.0099
1311.00,0.0101
1310.00,0.0105
1309.00,0.0110
1308.00,0.0118
1307.00,0.0128
1306.00,0.0138
1305.00,0.0144
1304.00,0.0146
1303.00,0.0144
1302.00,0.0140
1301.00,0.0137
1300.00,0.0136
1299.00,0.0136
1298.00,0.0137
1297.00,0.0137
1296.00,0.0136
1295.00,0.0134
1294.00,0.0129
1293.00,0.0124
1292.00,0.0119
1291.00,0.0114
1290.00,0.0109
1289.00,0.0105
1288.00,0.0102
1287.00,0.0099
1286.00,0.0097
1285.00,0.0095
1284.00,0.0093
1283.00,0.0091
1282.00,0.0089
1281.00,0.0088
1280.00,0.0087
1279.00,0.0086
1278.00,0.0086
1277.00,0.0085
1276.00,0.0084
1275.00,0.0083
1274.00,0.0082
1273.00,0.0081
1272.00,0.0081
1271.00,0.0082
1270.00,0.0083
1269.00,0.0085
1268.00,0.0086
1267.00,0.0087
1266.00,0.0089
1265.00,0.0091
1264.00,0.0093
1263.00,0.0096
1262.00,0.0100
1261.00,0.0104
1260.00,0.0109
1259.00,0.0114
1258.00,0.0120
1257.00,0.0124
1256.00,0.0126
1255.00,0.0124
1254.00,0.0118
1253.00,0.0111
1252.00,0.0104
1251.00,0.0098
1250.00,0.0093
1249.00,0.0090
1248.00,0.0088
1247.00,0.0087
1246.00,0.0086
1245.00,0.0085
1244.00,0.0084
1243.00,0.0084
1242.00,0.0084
1241.00,0.0084
1240.00,0.0084
1239.00,0.0084
1238.00,0.0085
1237.00,0.0085
1236.00,0.0086
1235.00,0.0087
1234.00,0.0089
1233.00,0.0091
1232.00,0.0092
1231.00,0.0093
1230.00,0.0095
1229.00,0.0097
1228.00,0.0100
1227.00,0.0102
1226.00,0.0105
1225.00,0.0109
1224.00,0.0113
1223.00,0.0118
1222.00,0.0122
1221.00,0.0126
1220.00,0.0129
1219.00,0.0130
1218.00,0.0130
1217.00,0.0128
1216.00,0.0125
1215.00,0.0122
1214.00,0.0119
1213.00,0.0115
1212.00,0.0112
1211.00,0.0110
1210.00,0.0108
1209.00,0.0106
1208.00,0.0105
1207.00,0.0104
1206.00,0.0104
1205.00,0.0103
1204.00,0.0102
1203.00,0.0102
1202.00,0.0102
1201.00,0.0102
1200.00,0.0102
1199.00,0.0103
1198.00,0.0104
1197.00,0.0104
1196.00,0.0104
1195.00,0.0105
1194.00,0.0105
1193.00,0.0106
1192.00,0.0105
1191.00,0.0104
1190.00,0.0103
1189.00,0.0102
1188.00,0.0100
1187.00,0.0100
1186.00,0.0100
1185.00,0.0100
1184.00,0.0100
1183.00,0.0101
1182.00,0.0102
1181.00,0.0103
1180.00,0.0104
1179.00,0.0107
1178.00,0.0111
1177.00,0.0117
1176.00,0.0126
1175.00,0.0137
1174.00,0.0152
1173.00,0.0172
1172.00,0.0196
1171.00,0.0223
1170.00,0.0249
1169.00,0.0270
1168.00,0.0283
1167.00,0.0285
1166.00,0.0278
1165.00,0.0264
1164.00,0.0249
1163.00,0.0234
1162.00,0.0221
1161.00,0.0211
1160.00,0.0202
1159.00,0.0196
1158.00,0.0193
1157.00,0.0190
1156.00,0.0189
1155.00,0.0189
1154.00,0.0188
1153.00,0.0186
1152.00,0.0183
1151.00,0.0177
1150.00,0.0169
1149.00,0.0160
1148.00,0.0152
1147.00,0.0143
1146.00,0.0135
1145.00,0.0127
1144.00,0.0121
1143.00,0.0115
1142.00,0.0111
1141.00,0.0106
1140.00,0.0102
1139.00,0.0099
1138.00,0.0096
1137.00,0.0093
1136.00,0.0091
1135.00,0.0090
1134.00,0.0089
1133.00,0.0089
1132.00,0.0090
1131.00,0.0090
1130.00,0.0091
1129.00,0.0092
1128.00,0.0094
1127.00,0.0095
1126.00,0.0096
1125.00,0.0097
1124.00,0.0098
1123.00,0.0099
1122.00,0.0099
1121.00,0.0099
1120.00,0.0100
1119.00,0.0100
1118.00,0.0101
1117.00,0.0103
1116.00,0.0104
1115.00,0.0106
1114.00,0.0108
1113.00,0.0110
1112.00,0.0111
1111.00,0.0112
1110.00,0.0114
1109.00,0.0117
1108.00,0.0122
1107.00,0.0128
1106.00,0.0134
1105.00,0.0140
1104.00,0.0144
1103.00,0.0147
1102.00,0.0145
1101.00,0.0141
1100.00,0.0135
1099.00,0.0127
1098.00,0.0120
1097.00,0.0114
1096.00,0.0109
1095.00,0.0105
1094.00,0.0102
1093.00,0.0099
1092.00,0.0096
1091.00,0.0094
1090.00,0.0091
1089.00,0.0090
1088.00,0.0089
1087.00,0.0089
1086.00,0.0088
1085.00,0.0087
1084.00,0.0086
1083.00,0.0086
1082.00,0.0086
1081.00,0.0086
1080.00,0.0085
1079.00,0.0084
1078.00,0.0083
1077.00,0.0082
1076.00,0.0082
1075.00,0.0081
1074.00,0.0081
1073.00,0.0081
1072.00,0.0081
1071.00,0.0081
1070.00,0.0081
1069.00,0.0081
1068.00,0.0081
1067.00,0.0081
1066.00,0.0081
1065.00,0.0083
1064.00,0.0084
1063.00,0.0085
1062.00,0.0086
1061.00,0.0087
1060.00,0.0087
1059.00,0.0088
1058.00,0.0089
1057.00,0.0090
1056.00,0.0091
1055.00,0.0092
1054.00,0.0094
1053.00,0.0097
1052.00,0.0100
1051.00,0.0105
1050.00,0.0110
1049.00,0.0114
1048.00,0.0119
1047.00,0.0123
1046.00,0.0127
1045.00,0.0130
1044.00,0.0132
1043.00,0.0133
1042.00,0.0133
1041.00,0.0133
1040.00,0.0133
1039.00,0.0135
1038.00,0.0137
1037.00,0.0140
1036.00,0.0141
1035.00,0.0141
1034.00,0.0138
1033.00,0.0134
1032.00,0.0130
1031.00,0.0126
1030.00,0.0123
1029.00,0.0122
1028.00,0.0123
1027.00,0.0123
1026.00,0.0125
1025.00,0.0126
1024.00,0.0128
1023.00,0.0129
1022.00,0.0131
1021.00,0.0132
1020.00,0.0134
1019.00,0.0136
1018.00,0.0139
1017.00,0.0141
1016.00,0.0143
1015.00,0.0145
1014.00,0.0148
1013.00,0.0151
1012.00,0.0152
1011.00,0.0152
1010.00,0.0151
1009.00,0.0149
1008.00,0.0148
1007.00,0.0148
1006.00,0.0152
1005.00,0.0160
1004.00,0.0172
1003.00,0.0190
1002.00,0.0214
1001.00,0.0245
1000.00,0.0277
999.00,0.0304
998.00,0.0316
997.00,0.0308
996.00,0.0284
995.00,0.0250
994.00,0.0215
993.00,0.0185
992.00,0.0162
991.00,0.0144
990.00,0.0132
989.00,0.0124
988.00,0.0119
987.00,0.0117
986.00,0.0117
985.00,0.0118
984.00,0.0121
983.00,0.0126
982.00,0.0135
981.00,0.0149
980.00,0.0168
979.00,0.0194
978.00,0.0226
977.00,0.0263
976.00,0.0302
975.00,0.0337
974.00,0.0361
973.00,0.0368
972.00,0.0352
971.00,0.0318
970.00,0.0273
969.00,0.0228
968.00,0.0190
967.00,0.0162
966.00,0.0141
965.00,0.0126
964.00,0.0115
963.00,0.0107
962.00,0.0100
961.00,0.0096
960.00,0.0092
959.00,0.0089
958.00,0.0086
957.00,0.0083
956.00,0.0080
955.00,0.0079
954.00,0.0077
953.00,0.0076
952.00,0.0075
951.00,0.0074
950.00,0.0074
949.00,0.0074
948.00,0.0074
947.00,0.0075
946.00,0.0076
945.00,0.0079
944.00,0.0083
943.00,0.0087
942.00,0.0091
941.00,0.0092
940.00,0.0092
939.00,0.0089
938.00,0.0086
937.00,0.0081
936.00,0.0077
935.00,0.0074
934.00,0.0071
933.00,0.0069
932.00,0.0068
931.00,0.0068
930.00,0.0067
929.00,0.0066
928.00,0.0066
927.00,0.0065
926.00,0.0065
925.00,0.0064
924.00,0.0064
923.00,0.0064
922.00,0.0065
921.00,0.0065
920.00,0.0065
919.00,0.0066
918.00,0.0066
917.00,0.0067
916.00,0.0067
915.00,0.0068
914.00,0.0069
913.00,0.0070
912.00,0.0071
911.00,0.0072
910.00,0.0073
909.00,0.0076
908.00,0.0079
907.00,0.0084
906.00,0.0091
905.00,0.0101
904.00,0.0116
903.00,0.0135
902.00,0.0156
901.00,0.0175
900.00,0.0187
899.00,0.0188
898.00,0.0180
897.00,0.0163
896.00,0.0143
895.00,0.0124
894.00,0.0109
893.00,0.0098
892.00,0.0090
891.00,0.0085
890.00,0.0082
889.00,0.0081
888.00,0.0079
887.00,0.0078
886.00,0.0076
885.00,0.0075
884.00,0.0075
883.00,0.0076
882.00,0.0078
881.00,0.0079
880.00,0.0079
879.00,0.0080
878.00,0.0080
877.00,0.0080
876.00,0.0080
875.00,0.0079
874.00,0.0079
873.00,0.0079
872.00,0.0079
871.00,0.0079
870.00,0.0079
869.00,0.0079
868.00,0.0078
867.00,0.0078
866.00,0.0078
865.00,0.0079
864.00,0.0080
863.00,0.0082
862.00,0.0085
861.00,0.0088
860.00,0.0089
859.00,0.0089
858.00,0.0090
857.00,0.0090
856.00,0.0091
855.00,0.0092
854.00,0.0093
853.00,0.0095
852.00,0.0098
851.00,0.0102
850.00,0.0106
849.00,0.0110
848.00,0.0117
847.00,0.0128
846.00,0.0147
845.00,0.0175
844.00,0.0214
843.00,0.0258
842.00,0.0294
841.00,0.0305
840.00,0.0286
839.00,0.0245
838.00,0.0200
837.00,0.0163
836.00,0.0140
835.00,0.0126
834.00,0.0119
833.00,0.0115
832.00,0.0110
831.00,0.0106
830.00,0.0103
829.00,0.0102
828.00,0.0101
827.00,0.0101
826.00,0.0099
825.00,0.0098
824.00,0.0099
823.00,0.0100
822.00,0.0102
821.00,0.0104
820.00,0.0106
819.00,0.0107
818.00,0.0110
817.00,0.0116
816.00,0.0123
815.00,0.0134
814.00,0.0149
813.00,0.0167
812.00,0.0187
811.00,0.0207
810.00,0.0224
809.00,0.0232
808.00,0.0230
807.00,0.0217
806.00,0.0198
805.00,0.0179
804.00,0.0161
803.00,0.0145
802.00,0.0133
801.00,0.0124
800.00,0.0117
799.00,0.0112
798.00,0.0108
797.00,0.0103
796.00,0.0100
795.00,0.0098
794.00,0.0096
793.00,0.0095
792.00,0.0093
791.00,0.0091
790.00,0.0089
789.00,0.0086
788.00,0.0083
787.00,0.0080
786.00,0.0077
785.00,0.0075
784.00,0.0074
783.00,0.0072
782.00,0.0071
781.00,0.0070
780.00,0.0071
779.00,0.0072
778.00,0.0074
777.00,0.0074
776.00,0.0075
775.00,0.0075
774.00,0.0075
773.00,0.0075
772.00,0.0075
771.00,0.0075
770.00,0.0074
769.00,0.0073
768.00,0.0073
767.00,0.0073
766.00,0.0074
765.00,0.0075
764.00,0.0076
763.00,0.0075
762.00,0.0074
761.00,0.0074
760.00,0.0074
759.00,0.0075
758.00,0.0077
757.00,0.0079
756.00,0.0081
755.00,0.0083
754.00,0.0084
753.00,0.0085
752.00,0.0086
751.00,0.0085
750.00,0.0085
749.00,0.0085
748.00,0.0087
747.00,0.0089
746.00,0.0093
745.00,0.0096
744.00,0.0099
743.00,0.0102
742.00,0.0104
741.00,0.0106
740.00,0.0109
739.00,0.0114
738.00,0.0119
737.00,0.0123
736.00,0.0126
735.00,0.0129
734.00,0.0133
733.00,0.0140
732.00,0.0149
731.00,0.0158
730.00,0.0165
729.00,0.0168
728.00,0.0170
727.00,0.0170
726.00,0.0172
725.00,0.0175
724.00,0.0180
723.00,0.0188
722.00,0.0196
721.00,0.0201
720.00,0.0199
719.00,0.0189
718.00,0.0174
717.00,0.0157
716.00,0.0144
715.00,0.0136
714.00,0.0130
713.00,0.0126
712.00,0.0123
711.00,0.0120
710.00,0.0118
709.00,0.0117
708.00,0.0116
707.00,0.0116
706.00,0.0116
705.00,0.0115
704.00,0.0113
703.00,0.0111
702.00,0.0111
701.00,0.0110
700.00,0.0110
699.00,0.0109
698.00,0.0107
697.00,0.0104
696.00,0.0102
695.00,0.0102
694.00,0.0103
693.00,0.0105
692.00,0.0106
691.00,0.0107
690.00,0.0108
689.00,0.0109
688.00,0.0110
687.00,0.0111
686.00,0.0111
685.00,0.0109
684.00,0.0107
683.00,0.0105
682.00,0.0105
681.00,0.0106
680.00,0.0108
679.00,0.0110
678.00,0.0113
677.00,0.0115
676.00,0.0115
675.00,0.0115
674.00,0.0114
673.00,0.0115
672.00,0.0117
671.00,0.0119
670.00,0.0123
669.00,0.0127
668.00,0.0130
667.00,0.0131
666.00,0.0126
665.00,0.0120
664.00,0.0115
663.00,0.0111
662.00,0.0107
661.00,0.0105
660.00,0.0104
659.00,0.0103
658.00,0.0101
657.00,0.0099
656.00,0.0096
655.00,0.0094
654.00,0.0092
653.00,0.0091
652.00,0.0092
651.00,0.0093
650.00,0.0096
649.00,0.0097
648.00,0.0098
647.00,0.0098
646.00,0.0098
645.00,0.0096
644.00,0.0095
643.00,0.0092
642.00,0.0090
641.00,0.0089
640.00,0.0091
639.00,0.0093
638.00,0.0096
637.00,0.0098
636.00,0.0098
635.00,0.0096
634.00,0.0095
633.00,0.0094
632.00,0.0095
631.00,0.0097
630.00,0.0098
629.00,0.0100
628.00,0.0100
627.00,0.0100
626.00,0.0099
625.00,0.0097
624.00,0.0096
623.00,0.0096
622.00,0.0096
621.00,0.0096
620.00,0.0097
619.00,0.0098
618.00,0.0099
617.00,0.0100
616.00,0.0100
615.00,0.0100
614.00,0.0100
613.00,0.0100
612.00,0.0100
611.00,0.0100
610.00,0.0101
609.00,0.0100
608.00,0.0097
607.00,0.0095
606.00,0.0094
605.00,0.0092
604.00,0.0091
603.00,0.0090
602.00,0.0090
601.00,0.0092
600.00,0.0093
599.00,0.0093
598.00,0.0090
597.00,0.0088
596.00,0.0086
595.00,0.0085
594.00,0.0086
593.00,0.0088
592.00,0.0092
591.00,0.0097
590.00,0.0101
589.00,0.0101
588.00,0.0097
587.00,0.0092
586.00,0.0089
585.00,0.0090
584.00,0.0095
583.00,0.0100
582.00,0.0103
581.00,0.0101
580.00,0.0097
579.00,0.0094
578.00,0.0093
577.00,0.0095
576.00,0.0098
575.00,0.0101
574.00,0.0100
573.00,0.0096
572.00,0.0092
571.00,0.0090
570.00,0.0089
569.00,0.0089
568.00,0.0088
567.00,0.0087
566.00,0.0087
565.00,0.0086
564.00,0.0085
563.00,0.0085
562.00,0.0087
561.00,0.0090
560.00,0.0094
559.00,0.0097
558.00,0.0097
557.00,0.0097
556.00,0.0095
555.00,0.0094
554.00,0.0094
553.00,0.0094
552.00,0.0096
551.00,0.0098
550.00,0.0100
549.00,0.0099
548.00,0.0096
547.00,0.0096
546.00,0.0099
545.00,0.0103
544.00,0.0104
543.00,0.0103
542.00,0.0105
541.00,0.0110
540.00,0.0115
539.00,0.0118
538.00,0.0119
537.00,0.0119
536.00,0.0121
535.00,0.0123
534.00,0.0124
533.00,0.0125
532.00,0.0123
531.00,0.0120
530.00,0.0118
529.00,0.0118
528.00,0.0119
527.00,0.0120
526.00,0.0119
525.00,0.0116
524.00,0.0111
523.00,0.0105
522.00,0.0102
521.00,0.0103
520.00,0.0106
519.00,0.0108
518.00,0.0105
517.00,0.0099
516.00,0.0091
515.00,0.0085
514.00,0.0081
513.00,0.0077
512.00,0.0074
511.00,0.0074
510.00,0.0079
509.00,0.0086
508.00,0.0090
507.00,0.0090
506.00,0.0089
505.00,0.0089
504.00,0.0093
503.00,0.0100
502.00,0.0106
501.00,0.0108
500.00,0.0104
499.00,0.0097
498.00,0.0090
497.00,0.0085
496.00,0.0086
495.00,0.0092
494.00,0.0099
493.00,0.0103
492.00,0.0101
491.00,0.0097
490.00,0.0093
489.00,0.0093
488.00,0.0093
487.00,0.0093
486.00,0.0093
485.00,0.0095
484.00,0.0099
483.00,0.0107
482.00,0.0117
481.00,0.0126
480.00,0.0129
479.00,0.0125
478.00,0.0117
477.00,0.0110
476.00,0.0106
475.00,0.0106
474.00,0.0108
473.00,0.0115
472.00,0.0125
471.00,0.0136
470.00,0.0144
469.00,0.0148
468.00,0.0151
467.00,0.0156
466.00,0.0165
465.00,0.0176
464.00,0.0183
463.00,0.0187
462.00,0.0191
461.00,0.0195
460.00,0.0202
459.00,0.0214
458.00,0.0229
457.00,0.0237
456.00,0.0232
455.00,0.0217
454.00,0.0204
453.00,0.0197
452.00,0.0195
451.00,0.0191
450.00,0.0181
