Created as New Dataset,Sample 034 By Administrator Date Wednesday, September 03 2025
cm-1,A
4000.00,0.0009
3999.00,0.0009
3998.00,0.0009
3997.00,0.0010
3996.00,0.0010
3995.00,0.0010
3994.00,0.0010
3993.00,0.0010
3992.00,0.0010
3991.00,0.0009
3990.00,0.0009
3989.00,0.0009
3988.00,0.0009
3987.00,0.0009
3986.00,0.0009
3985.00,0.0009
3984.00,0.0009
3983.00,0.0009
3982.00,0.0009
3981.00,0.0009
3980.00,0.0008
3979.00,0.0008
3978.00,0.0008
3977.00,0.0008
3976.00,0.0008
3975.00,0.0008
3974.00,0.0008
3973.00,0.0008
3972.00,0.0008
3971.00,0.0008
3970.00,0.0008
3969.00,0.0008
3968.00,0.0008
3967.00,0.0008
3966.00,0.0008
3965.00,0.0008
3964.00,0.0007
3963.00,0.0007
3962.00,0.0007
3961.00,0.0007
3960.00,0.0007
3959.00,0.0007
3958.00,0.0007
3957.00,0.0007
3956.00,0.0007
3955.00,0.0007
3954.00,0.0007
3953.00,0.0007
3952.00,0.0007
3951.00,0.0007
3950.00,0.0007
3949.00,0.0008
3948.00,0.0008
3947.00,0.0008
3946.00,0.0008
3945.00,0.0008
3944.00,0.0009
3943.00,0.0009
3942.00,0.0009
3941.00,0.0009
3940.00,0.0009
3939.00,0.0008
3938.00,0.0008
3937.00,0.0008
3936.00,0.0008
3935.00,0.0008
3934.00,0.0008
3933.00,0.0008
3932.00,0.0009
3931.00,0.0009
3930.00,0.0009
3929.00,0.0009
3928.00,0.0009
3927.00,0.0008
3926.00,0.0008
3925.00,0.0008
3924.00,0.0008
3923.00,0.0008
3922.00,0.0008
3921.00,0.0008
3920.00,0.0008
3919.00,0.0008
3918.00,0.0008
3917.00,0.0008
3916.00,0.0008
3915.00,0.0008
3914.00,0.0008
3913.00,0.0008
3912.00,0.0008
3911.00,0.0008
3910.00,0.0007
3909.00,0.0008
3908.00,0.0008
3907.00,0.0008
3906.00,0.0008
3905.00,0.0008
3904.00,0.0008
3903.00,0.0008
3902.00,0.0008
3901.00,0.0008
3900.00,0.0008
3899.00,0.0008
3898.00,0.0008
3897.00,0.0008
3896.00,0.0008
3895.00,0.0008
3894.00,0.0008
3893.00,0.0007
3892.00,0.0007
3891.00,0.0007
3890.00,0.0007
3889.00,0.0008
3888.00,0.0008
3887.00,0.0008
3886.00,0.0009
3885.00,0.0009
3884.00,0.0009
3883.00,0.0008
3882.00,0.0008
3881.00,0.0008
3880.00,0.0008
3879.00,0.0008
3878.00,0.0008
3877.00,0.0008
3876.00,0.0008
3875.00,0.0007
3874.00,0.0007
3873.00,0.0006
3872.00,0.0006
3871.00,0.0006
3870.00,0.0006
3869.00,0.0007
3868.00,0.0007
3867.00,0.0007
3866.00,0.0007
3865.00,0.0006
3864.00,0.0006
3863.00,0.0006
3862.00,0.0006
3861.00,0.0006
3860.00,0.0006
3859.00,0.0006
3858.00,0.0007
3857.00,0.0007
3856.00,0.0008
3855.00,0.0008
3854.00,0.0008
3853.00,0.0008
3852.00,0.0008
3851.00,0.0008
3850.00,0.0008
3849.00,0.0008
3848.00,0.0008
3847.00,0.0008
3846.00,0.0007
3845.00,0.0007
3844.00,0.0007
3843.00,0.0006
3842.00,0.0006
3841.00,0.0006
3840.00,0.0006
3839.00,0.0006
3838.00,0.0006
3837.00,0.0007
3836.00,0.0007
3835.00,0.0007
3834.00,0.0006
3833.00,0.0006
3832.00,0.0006
3831.00,0.0006
3830.00,0.0007
3829.00,0.0007
3828.00,0.0008
3827.00,0.0008
3826.00,0.0008
3825.00,0.0008
3824.00,0.0008
3823.00,0.0007
3822.00,0.0007
3821.00,0.0007
3820.00,0.0007
3819.00,0.0007
3818.00,0.0007
3817.00,0.0008
3816.00,0.0008
3815.00,0.0008
3814.00,0.0008
3813.00,0.0008
3812.00,0.0008
3811.00,0.0007
3810.00,0.0007
3809.00,0.0007
3808.00,0.0007
3807.00,0.0007
3806.00,0.0007
3805.00,0.0007
3804.00,0.0008
3803.00,0.0008
3802.00,0.0008
3801.00,0.0008
3800.00,0.0008
3799.00,0.0008
3798.00,0.0007
3797.00,0.0007
3796.00,0.0007
3795.00,0.0007
3794.00,0.0007
3793.00,0.0007
3792.00,0.0007
3791.00,0.0007
3790.00,0.0007
3789.00,0.0008
3788.00,0.0008
3787.00,0.0007
3786.00,0.0007
3785.00,0.0007
3784.00,0.0006
3783.00,0.0006
3782.00,0.0006
3781.00,0.0007
3780.00,0.0007
3779.00,0.0007
3778.00,0.0007
3777.00,0.0008
3776.00,0.0007
3775.00,0.0007
3774.00,0.0007
3773.00,0.0007
3772.00,0.0007
3771.00,0.0007
3770.00,0.0007
3769.00,0.0007
3768.00,0.0007
3767.00,0.0007
3766.00,0.0007
3765.00,0.0007
3764.00,0.0007
3763.00,0.0007
3762.00,0.0007
3761.00,0.0008
3760.00,0.0008
3759.00,0.0008
3758.00,0.0007
3757.00,0.0007
3756.00,0.0007
3755.00,0.0007
3754.00,0.0006
3753.00,0.0006
3752.00,0.0006
3751.00,0.0006
3750.00,0.0007
3749.00,0.0007
3748.00,0.0007
3747.00,0.0008
3746.00,0.0008
3745.00,0.0008
3744.00,0.0008
3743.00,0.0008
3742.00,0.0008
3741.00,0.0007
3740.00,0.0007
3739.00,0.0006
3738.00,0.0006
3737.00,0.0006
3736.00,0.0005
3735.00,0.0005
3734.00,0.0005
3733.00,0.0005
3732.00,0.0005
3731.00,0.0005
3730.00,0.0005
3729.00,0.0005
3728.00,0.0005
3727.00,0.0005
3726.00,0.0006
3725.00,0.0005
3724.00,0.0005
3723.00,0.0005
3722.00,0.0005
3721.00,0.0006
3720.00,0.0006
3719.00,0.0006
3718.00,0.0006
3717.00,0.0006
3716.00,0.0006
3715.00,0.0006
3714.00,0.0005
3713.00,0.0005
3712.00,0.0005
3711.00,0.0005
3710.00,0.0005
3709.00,0.0005
3708.00,0.0005
3707.00,0.0004
3706.00,0.0004
3705.00,0.0004
3704.00,0.0004
3703.00,0.0004
3702.00,0.0004
3701.00,0.0004
3700.00,0.0004
3699.00,0.0004
3698.00,0.0004
3697.00,0.0004
3696.00,0.0004
3695.00,0.0004
3694.00,0.0005
3693.00,0.0005
3692.00,0.0005
3691.00,0.0005
3690.00,0.0005
3689.00,0.0005
3688.00,0.0005
3687.00,0.0005
3686.00,0.0005
3685.00,0.0005
3684.00,0.0005
3683.00,0.0005
3682.00,0.0005
3681.00,0.0005
3680.00,0.0005
3679.00,0.0005
3678.00,0.0006
3677.00,0.0006
3676.00,0.0006
3675.00,0.0005
3674.00,0.0005
3673.00,0.0005
3672.00,0.0005
3671.00,0.0005
3670.00,0.0005
3669.00,0.0005
3668.00,0.0005
3667.00,0.0004
3666.00,0.0004
3665.00,0.0004
3664.00,0.0004
3663.00,0.0004
3662.00,0.0004
3661.00,0.0004
3660.00,0.0005
3659.00,0.0005
3658.00,0.0005
3657.00,0.0005
3656.00,0.0005
3655.00,0.0005
3654.00,0.0005
3653.00,0.0004
3652.00,0.0004
3651.00,0.0003
3650.00,0.0003
3649.00,0.0003
3648.00,0.0003
3647.00,0.0004
3646.00,0.0004
3645.00,0.0005
3644.00,0.0005
3643.00,0.0005
3642.00,0.0005
3641.00,0.0005
3640.00,0.0005
3639.00,0.0005
3638.00,0.0005
3637.00,0.0004
3636.00,0.0004
3635.00,0.0004
3634.00,0.0004
3633.00,0.0004
3632.00,0.0004
3631.00,0.0005
3630.00,0.0005
3629.00,0.0006
3628.00,0.0006
3627.00,0.0007
3626.00,0.0006
3625.00,0.0006
3624.00,0.0006
3623.00,0.0006
3622.00,0.0005
3621.00,0.0005
3620.00,0.0005
3619.00,0.0005
3618.00,0.0005
3617.00,0.0005
3616.00,0.0005
3615.00,0.0005
3614.00,0.0005
3613.00,0.0005
3612.00,0.0005
3611.00,0.0005
3610.00,0.0006
3609.00,0.0006
3608.00,0.0006
3607.00,0.0007
3606.00,0.0007
3605.00,0.0007
3604.00,0.0007
3603.00,0.0007
3602.00,0.0007
3601.00,0.0007
3600.00,0.0007
3599.00,0.0006
3598.00,0.0006
3597.00,0.0006
3596.00,0.0006
3595.00,0.0006
3594.00,0.0006
3593.00,0.0006
3592.00,0.0006
3591.00,0.0007
3590.00,0.0007
3589.00,0.0007
3588.00,0.0007
3587.00,0.0008
3586.00,0.0008
3585.00,0.0008
3584.00,0.0008
3583.00,0.0008
3582.00,0.0008
3581.00,0.0008
3580.00,0.0008
3579.00,0.0008
3578.00,0.0008
3577.00,0.0008
3576.00,0.0009
3575.00,0.0009
3574.00,0.0010
3573.00,0.0010
3572.00,0.0010
3571.00,0.0010
3570.00,0.0009
3569.00,0.0009
3568.00,0.0008
3567.00,0.0009
3566.00,0.0009
3565.00,0.0010
3564.00,0.0010
3563.00,0.0010
3562.00,0.0010
3561.00,0.0010
3560.00,0.0010
3559.00,0.0010
3558.00,0.0011
3557.00,0.0011
3556.00,0.0011
3555.00,0.0011
3554.00,0.0011
3553.00,0.0011
3552.00,0.0011
3551.00,0.0011
3550.00,0.0012
3549.00,0.0012
3548.00,0.0012
3547.00,0.0012
3546.00,0.0013
3545.00,0.0013
3544.00,0.0012
3543.00,0.0012
3542.00,0.0012
3541.00,0.0012
3540.00,0.0012
3539.00,0.0013
3538.00,0.0013
3537.00,0.0012
3536.00,0.0012
3535.00,0.0013
3534.00,0.0013
3533.00,0.0014
3532.00,0.0014
3531.00,0.0014
3530.00,0.0014
3529.00,0.0013
3528.00,0.0013
3527.00,0.0013
3526.00,0.0014
3525.00,0.0014
3524.00,0.0015
3523.00,0.0015
3522.00,0.0015
3521.00,0.0015
3520.00,0.0015
3519.00,0.0015
3518.00,0.0015
3517.00,0.0015
3516.00,0.0015
3515.00,0.0015
3514.00,0.0015
3513.00,0.0016
3512.00,0.0016
3511.00,0.0016
3510.00,0.0016
3509.00,0.0017
3508.00,0.0017
3507.00,0.0017
3506.00,0.0017
3505.00,0.0016
3504.00,0.0016
3503.00,0.0016
3502.00,0.0016
3501.00,0.0016
3500.00,0.0016
3499.00,0.0016
3498.00,0.0016
3497.00,0.0016
3496.00,0.0016
3495.00,0.0016
3494.00,0.0016
3493.00,0.0016
3492.00,0.0016
3491.00,0.0017
3490.00,0.0017
3489.00,0.0017
3488.00,0.0018
3487.00,0.0018
3486.00,0.0018
3485.00,0.0018
3484.00,0.0018
3483.00,0.0018
3482.00,0.0019
3481.00,0.0019
3480.00,0.0019
3479.00,0.0019
3478.00,0.0019
3477.00,0.0020
3476.00,0.0020
3475.00,0.0020
3474.00,0.0019
3473.00,0.0019
3472.00,0.0019
3471.00,0.0019
3470.00,0.0019
3469.00,0.0019
3468.00,0.0020
3467.00,0.0020
3466.00,0.0020
3465.00,0.0019
3464.00,0.0019
3463.00,0.0019
3462.00,0.0019
3461.00,0.0019
3460.00,0.0019
3459.00,0.0020
3458.00,0.0020
3457.00,0.0020
3456.00,0.0020
3455.00,0.0020
3454.00,0.0020
3453.00,0.0020
3452.00,0.0020
3451.00,0.0020
3450.00,0.0020
3449.00,0.0020
3448.00,0.0020
3447.00,0.0021
3446.00,0.0021
3445.00,0.0021
3444.00,0.0021
3443.00,0.0021
3442.00,0.0021
3441.00,0.0021
3440.00,0.0022
3439.00,0.0022
3438.00,0.0022
3437.00,0.0022
3436.00,0.0022
3435.00,0.0022
3434.00,0.0022
3433.00,0.0023
3432.00,0.0023
3431.00,0.0023
3430.00,0.0023
3429.00,0.0023
3428.00,0.0023
3427.00,0.0023
3426.00,0.0023
3425.00,0.0023
3424.00,0.0023
3423.00,0.0023
3422.00,0.0023
3421.00,0.0023
3420.00,0.0024
3419.00,0.0024
3418.00,0.0025
3417.00,0.0025
3416.00,0.0025
3415.00,0.0025
3414.00,0.0025
3413.00,0.0025
3412.00,0.0025
3411.00,0.0025
3410.00,0.0025
3409.00,0.0025
3408.00,0.0025
3407.00,0.0025
3406.00,0.0025
3405.00,0.0025
3404.00,0.0025
3403.00,0.0025
3402.00,0.0025
3401.00,0.0025
3400.00,0.0024
3399.00,0.0025
3398.00,0.0025
3397.00,0.0025
3396.00,0.0026
3395.00,0.0026
3394.00,0.0025
3393.00,0.0025
3392.00,0.0025
3391.00,0.0025
3390.00,0.0025
3389.00,0.0025
3388.00,0.0025
3387.00,0.0025
3386.00,0.0025
3385.00,0.0025
3384.00,0.0024
3383.00,0.0024
3382.00,0.0024
3381.00,0.0024
3380.00,0.0025
3379.00,0.0025
3378.00,0.0025
3377.00,0.0025
3376.00,0.0025
3375.00,0.0025
3374.00,0.0024
3373.00,0.0024
3372.00,0.0024
3371.00,0.0024
3370.00,0.0024
3369.00,0.0025
3368.00,0.0025
3367.00,0.0025
3366.00,0.0025
3365.00,0.0025
3364.00,0.0025
3363.00,0.0025
3362.00,0.0025
3361.00,0.0025
3360.00,0.0025
3359.00,0.0025
3358.00,0.0025
3357.00,0.0026
3356.00,0.0026
3355.00,0.0026
3354.00,0.0025
3353.00,0.0025
3352.00,0.0025
3351.00,0.0025
3350.00,0.0026
3349.00,0.0026
3348.00,0.0026
3347.00,0.0026
3346.00,0.0025
3345.00,0.0025
3344.00,0.0025
3343.00,0.0025
3342.00,0.0025
3341.00,0.0026
3340.00,0.0026
3339.00,0.0025
3338.00,0.0025
3337.00,0.0025
3336.00,0.0025
3335.00,0.0025
3334.00,0.0024
3333.00,0.0024
3332.00,0.0024
3331.00,0.0024
3330.00,0.0024
3329.00,0.0024
3328.00,0.0024
3327.00,0.0024
3326.00,0.0024
3325.00,0.0023
3324.00,0.0023
3323.00,0.0023
3322.00,0.0024
3321.00,0.0024
3320.00,0.0024
3319.00,0.0024
3318.00,0.0023
3317.00,0.0023
3316.00,0.0023
3315.00,0.0023
3314.00,0.0023
3313.00,0.0024
3312.00,0.0024
3311.00,0.0024
3310.00,0.0024
3309.00,0.0024
3308.00,0.0024
3307.00,0.0023
3306.00,0.0024
3305.00,0.0024
3304.00,0.0024
3303.00,0.0024
3302.00,0.0025
3301.00,0.0025
3300.00,0.0025
3299.00,0.0024
3298.00,0.0024
3297.00,0.0024
3296.00,0.0024
3295.00,0.0024
3294.00,0.0024
3293.00,0.0024
3292.00,0.0023
3291.00,0.0023
3290.00,0.0022
3289.00,0.0023
3288.00,0.0023
3287.00,0.0023
3286.00,0.0023
3285.00,0.0022
3284.00,0.0022
3283.00,0.0022
3282.00,0.0022
3281.00,0.0022
3280.00,0.0022
3279.00,0.0022
3278.00,0.0022
3277.00,0.0022
3276.00,0.0021
3275.00,0.0021
3274.00,0.0021
3273.00,0.0021
3272.00,0.0021
3271.00,0.0021
3270.00,0.0021
3269.00,0.0021
3268.00,0.0021
3267.00,0.0021
3266.00,0.0022
3265.00,0.0022
3264.00,0.0022
3263.00,0.0022
3262.00,0.0022
3261.00,0.0021
3260.00,0.0021
3259.00,0.0021
3258.00,0.0020
3257.00,0.0020
3256.00,0.0020
3255.00,0.0020
3254.00,0.0020
3253.00,0.0020
3252.00,0.0020
3251.00,0.0020
3250.00,0.0020
3249.00,0.0020
3248.00,0.0020
3247.00,0.0020
3246.00,0.0020
3245.00,0.0020
3244.00,0.0020
3243.00,0.0020
3242.00,0.0020
3241.00,0.0020
3240.00,0.0020
3239.00,0.0020
3238.00,0.0020
3237.00,0.0021
3236.00,0.0021
3235.00,0.0021
3234.00,0.0021
3233.00,0.0021
3232.00,0.0021
3231.00,0.0021
3230.00,0.0021
3229.00,0.0021
3228.00,0.0021
3227.00,0.0021
3226.00,0.0021
3225.00,0.0021
3224.00,0.0021
3223.00,0.0022
3222.00,0.0022
3221.00,0.0022
3220.00,0.0023
3219.00,0.0023
3218.00,0.0024
3217.00,0.0024
3216.00,0.0024
3215.00,0.0024
3214.00,0.0024
3213.00,0.0024
3212.00,0.0025
3211.00,0.0025
3210.00,0.0025
3209.00,0.0026
3208.00,0.0026
3207.00,0.0026
3206.00,0.0026
3205.00,0.0026
3204.00,0.0027
3203.00,0.0027
3202.00,0.0026
3201.00,0.0026
3200.00,0.0026
3199.00,0.0025
3198.00,0.0026
3197.00,0.0026
3196.00,0.0026
3195.00,0.0026
3194.00,0.0026
3193.00,0.0026
3192.00,0.0026
3191.00,0.0026
3190.00,0.0026
3189.00,0.0027
3188.00,0.0027
3187.00,0.0026
3186.00,0.0026
3185.00,0.0026
3184.00,0.0026
3183.00,0.0026
3182.00,0.0026
3181.00,0.0025
3180.00,0.0025
3179.00,0.0025
3178.00,0.0025
3177.00,0.0025
3176.00,0.0025
3175.00,0.0024
3174.00,0.0024
3173.00,0.0024
3172.00,0.0024
3171.00,0.0024
3170.00,0.0024
3169.00,0.0024
3168.00,0.0024
3167.00,0.0024
3166.00,0.0025
3165.00,0.0025
3164.00,0.0025
3163.00,0.0024
3162.00,0.0024
3161.00,0.0024
3160.00,0.0023
3159.00,0.0023
3158.00,0.0024
3157.00,0.0024
3156.00,0.0024
3155.00,0.0023
3154.00,0.0023
3153.00,0.0023
3152.00,0.0024
3151.00,0.0024
3150.00,0.0024
3149.00,0.0024
3148.00,0.0024
3147.00,0.0024
3146.00,0.0024
3145.00,0.0024
3144.00,0.0024
3143.00,0.0023
3142.00,0.0023
3141.00,0.0023
3140.00,0.0023
3139.00,0.0023
3138.00,0.0023
3137.00,0.0023
3136.00,0.0023
3135.00,0.0023
3134.00,0.0023
3133.00,0.0023
3132.00,0.0023
3131.00,0.0023
3130.00,0.0022
3129.00,0.0022
3128.00,0.0022
3127.00,0.0022
3126.00,0.0022
3125.00,0.0022
3124.00,0.0022
3123.00,0.0022
3122.00,0.0022
3121.00,0.0022
3120.00,0.0021
3119.00,0.0021
3118.00,0.0021
3117.00,0.0020
3116.00,0.0020
3115.00,0.0020
3114.00,0.0020
3113.00,0.0020
3112.00,0.0020
3111.00,0.0020
3110.00,0.0021
3109.00,0.0021
3108.00,0.0020
3107.00,0.0020
3106.00,0.0020
3105.00,0.0020
3104.00,0.0020
3103.00,0.0020
3102.00,0.0020
3101.00,0.0020
3100.00,0.0020
3099.00,0.0020
3098.00,0.0020
3097.00,0.0020
3096.00,0.0020
3095.00,0.0020
3094.00,0.0020
3093.00,0.0020
3092.00,0.0020
3091.00,0.0020
3090.00,0.0020
3089.00,0.0020
3088.00,0.0020
3087.00,0.0020
3086.00,0.0020
3085.00,0.0020
3084.00,0.0020
3083.00,0.0020
3082.00,0.0020
3081.00,0.0020
3080.00,0.0020
3079.00,0.0020
3078.00,0.0020
3077.00,0.0020
3076.00,0.0020
3075.00,0.0020
3074.00,0.0021
3073.00,0.0022
3072.00,0.0022
3071.00,0.0022
3070.00,0.0022
3069.00,0.0022
3068.00,0.0022
3067.00,0.0022
3066.00,0.0023
3065.00,0.0023
3064.00,0.0023
3063.00,0.0023
3062.00,0.0024
3061.00,0.0024
3060.00,0.0024
3059.00,0.0025
3058.00,0.0025
3057.00,0.0025
3056.00,0.0025
3055.00,0.0026
3054.00,0.0026
3053.00,0.0026
3052.00,0.0026
3051.00,0.0026
3050.00,0.0026
3049.00,0.0026
3048.00,0.0026
3047.00,0.0026
3046.00,0.0026
3045.00,0.0027
3044.00,0.0027
3043.00,0.0027
3042.00,0.0027
3041.00,0.0028
3040.00,0.0028
3039.00,0.0028
3038.00,0.0029
3037.00,0.0030
3036.00,0.0030
3035.00,0.0030
3034.00,0.0030
3033.00,0.0031
3032.00,0.0031
3031.00,0.0032
3030.00,0.0032
3029.00,0.0033
3028.00,0.0033
3027.00,0.0034
3026.00,0.0034
3025.00,0.0035
3024.00,0.0035
3023.00,0.0036
3022.00,0.0037
3021.00,0.0038
3020.00,0.0039
3019.00,0.0040
3018.00,0.0040
3017.00,0.0041
3016.00,0.0041
3015.00,0.0042
3014.00,0.0042
3013.00,0.0043
3012.00,0.0044
3011.00,0.0046
3010.00,0.0047
3009.00,0.0048
3008.00,0.0050
3007.00,0.0051
3006.00,0.0053
3005.00,0.0054
3004.00,0.0056
3003.00,0.0058
3002.00,0.0060
3001.00,0.0062
3000.00,0.0064
2999.00,0.0067
2998.00,0.0070
2997.00,0.0073
2996.00,0.0076
2995.00,0.0080
2994.00,0.0084
2993.00,0.0088
2992.00,0.0093
2991.00,0.0099
2990.00,0.0104
2989.00,0.0111
2988.00,0.0118
2987.00,0.0125
2986.00,0.0134
2985.00,0.0144
2984.00,0.0154
2983.00,0.0167
2982.00,0.0181
2981.00,0.0197
2980.00,0.0216
2979.00,0.0237
2978.00,0.0261
2977.00,0.0288
2976.00,0.0318
2975.00,0.0352
2974.00,0.0391
2973.00,0.0435
2972.00,0.0486
2971.00,0.0543
2970.00,0.0606
2969.00,0.0675
2968.00,0.0749
2967.00,0.0827
2966.00,0.0908
2965.00,0.0990
2964.00,0.1068
2963.00,0.1141
2962.00,0.1205
2961.00,0.1259
2960.00,0.1306
2959.00,0.1349
2958.00,0.1393
2957.00,0.1443
2956.00,0.1503
2955.00,0.1574
2954.00,0.1654
2953.00,0.1737
2952.00,0.1812
2951.00,0.1868
2950.00,0.1893
2949.00,0.1878
2948.00,0.1821
2947.00,0.1727
2946.00,0.1607
2945.00,0.1477
2944.00,0.1353
2943.00,0.1246
2942.00,0.1163
2941.00,0.1106
2940.00,0.1073
2939.00,0.1064
2938.00,0.1076
2937.00,0.1106
2936.00,0.1153
2935.00,0.1217
2934.00,0.1294
2933.00,0.1385
2932.00,0.1488
2931.00,0.1600
2930.00,0.1719
2929.00,0.1841
2928.00,0.1964
2927.00,0.2085
2926.00,0.2202
2925.00,0.2316
2924.00,0.2428
2923.00,0.2540
2922.00,0.2652
2921.00,0.2761
2920.00,0.2860
2919.00,0.2939
2918.00,0.2985
2917.00,0.2987
2916.00,0.2944
2915.00,0.2859
2914.00,0.2745
2913.00,0.2617
2912.00,0.2487
2911.00,0.2365
2910.00,0.2254
2909.00,0.2155
2908.00,0.2065
2907.00,0.1982
2906.00,0.1901
2905.00,0.1823
2904.00,0.1747
2903.00,0.1673
2902.00,0.1601
2901.00,0.1532
2900.00,0.1465
2899.00,0.1403
2898.00,0.1345
2897.00,0.1292
2896.00,0.1244
2895.00,0.1203
2894.00,0.1168
2893.00,0.1140
2892.00,0.1118
2891.00,0.1101
2890.00,0.1090
2889.00,0.1083
2888.00,0.1080
2887.00,0.1081
2886.00,0.1085
2885.00,0.1094
2884.00,0.1107
2883.00,0.1126
2882.00,0.1150
2881.00,0.1179
2880.00,0.1208
2879.00,0.1234
2878.00,0.1252
2877.00,0.1260
2876.00,0.1258
2875.00,0.1250
2874.00,0.1242
2873.00,0.1239
2872.00,0.1244
2871.00,0.1257
2870.00,0.1275
2869.00,0.1294
2868.00,0.1306
2867.00,0.1303
2866.00,0.1278
2865.00,0.1229
2864.00,0.1159
2863.00,0.1079
2862.00,0.0998
2861.00,0.0926
2860.00,0.0869
2859.00,0.0830
2858.00,0.0807
2857.00,0.0799
2856.00,0.0802
2855.00,0.0813
2854.00,0.0831
2853.00,0.0853
2852.00,0.0875
2851.00,0.0894
2850.00,0.0908
2849.00,0.0916
2848.00,0.0921
2847.00,0.0929
2846.00,0.0945
2845.00,0.0972
2844.00,0.1011
2843.00,0.1060
2842.00,0.1113
2841.00,0.1166
2840.00,0.1209
2839.00,0.1235
2838.00,0.1234
2837.00,0.1204
2836.00,0.1142
2835.00,0.1054
2834.00,0.0949
2833.00,0.0839
2832.00,0.0733
2831.00,0.0639
2830.00,0.0559
2829.00,0.0493
2828.00,0.0440
2827.00,0.0397
2826.00,0.0363
2825.00,0.0334
2824.00,0.0310
2823.00,0.0290
2822.00,0.0273
2821.00,0.0259
2820.00,0.0246
2819.00,0.0235
2818.00,0.0226
2817.00,0.0217
2816.00,0.0210
2815.00,0.0203
2814.00,0.0197
2813.00,0.0191
2812.00,0.0185
2811.00,0.0179
2810.00,0.0173
2809.00,0.0167
2808.00,0.0161
2807.00,0.0154
2806.00,0.0147
2805.00,0.0141
2804.00,0.0134
2803.00,0.0128
2802.00,0.0123
2801.00,0.0118
2800.00,0.0114
2799.00,0.0111
2798.00,0.0108
2797.00,0.0106
2796.00,0.0103
2795.00,0.0101
2794.00,0.0098
2793.00,0.0095
2792.00,0.0093
2791.00,0.0090
2790.00,0.0087
2789.00,0.0084
2788.00,0.0080
2787.00,0.0077
2786.00,0.0075
2785.00,0.0073
2784.00,0.0070
2783.00,0.0068
2782.00,0.0067
2781.00,0.0065
2780.00,0.0064
2779.00,0.0062
2778.00,0.0060
2777.00,0.0059
2776.00,0.0058
2775.00,0.0057
2774.00,0.0056
2773.00,0.0056
2772.00,0.0055
2771.00,0.0055
2770.00,0.0054
2769.00,0.0054
2768.00,0.0053
2767.00,0.0053
2766.00,0.0053
2765.00,0.0053
2764.00,0.0052
2763.00,0.0052
2762.00,0.0052
2761.00,0.0051
2760.00,0.0051
2759.00,0.0050
2758.00,0.0050
2757.00,0.0049
2756.00,0.0049
2755.00,0.0049
2754.00,0.0049
2753.00,0.0049
2752.00,0.0049
2751.00,0.0049
2750.00,0.0049
2749.00,0.0049
2748.00,0.0049
2747.00,0.0050
2746.00,0.0050
2745.00,0.0051
2744.00,0.0051
2743.00,0.0052
2742.00,0.0052
2741.00,0.0053
2740.00,0.0055
2739.00,0.0056
2738.00,0.0058
2737.00,0.0059
2736.00,0.0061
2735.00,0.0062
2734.00,0.0064
2733.00,0.0066
2732.00,0.0068
2731.00,0.0070
2730.00,0.0072
2729.00,0.0075
2728.00,0.0077
2727.00,0.0080
2726.00,0.0083
2725.00,0.0086
2724.00,0.0088
2723.00,0.0088
2722.00,0.0087
2721.00,0.0085
2720.00,0.0082
2719.00,0.0079
2718.00,0.0075
2717.00,0.0072
2716.00,0.0069
2715.00,0.0066
2714.00,0.0064
2713.00,0.0061
2712.00,0.0059
2711.00,0.0057
2710.00,0.0055
2709.00,0.0054
2708.00,0.0053
2707.00,0.0051
2706.00,0.0050
2705.00,0.0049
2704.00,0.0048
2703.00,0.0047
2702.00,0.0046
2701.00,0.0045
2700.00,0.0044
2699.00,0.0044
2698.00,0.0043
2697.00,0.0043
2696.00,0.0043
2695.00,0.0043
2694.00,0.0043
2693.00,0.0043
2692.00,0.0043
2691.00,0.0043
2690.00,0.0043
2689.00,0.0043
2688.00,0.0043
2687.00,0.0043
2686.00,0.0042
2685.00,0.0042
2684.00,0.0042
2683.00,0.0043
2682.00,0.0043
2681.00,0.0044
2680.00,0.0044
2679.00,0.0044
2678.00,0.0044
2677.00,0.0044
2676.00,0.0044
2675.00,0.0044
2674.00,0.0044
2673.00,0.0044
2672.00,0.0043
2671.00,0.0044
2670.00,0.0044
2669.00,0.0044
2668.00,0.0044
2667.00,0.0044
2666.00,0.0044
2665.00,0.0044
2664.00,0.0045
2663.00,0.0046
2662.00,0.0046
2661.00,0.0047
2660.00,0.0048
2659.00,0.0048
2658.00,0.0047
2657.00,0.0047
2656.00,0.0047
2655.00,0.0046
2654.00,0.0046
2653.00,0.0045
2652.00,0.0044
2651.00,0.0043
2650.00,0.0043
2649.00,0.0043
2648.00,0.0043
2647.00,0.0043
2646.00,0.0042
2645.00,0.0042
2644.00,0.0041
2643.00,0.0041
2642.00,0.0041
2641.00,0.0040
2640.00,0.0040
2639.00,0.0039
2638.00,0.0039
2637.00,0.0039
2636.00,0.0039
2635.00,0.0039
2634.00,0.0039
2633.00,0.0039
2632.00,0.0039
2631.00,0.0039
2630.00,0.0039
2629.00,0.0039
2628.00,0.0039
2627.00,0.0039
2626.00,0.0039
2625.00,0.0039
2624.00,0.0039
2623.00,0.0040
2622.00,0.0040
2621.00,0.0040
2620.00,0.0041
2619.00,0.0041
2618.00,0.0041
2617.00,0.0041
2616.00,0.0040
2615.00,0.0040
2614.00,0.0039
2613.00,0.0039
2612.00,0.0039
2611.00,0.0038
2610.00,0.0038
2609.00,0.0037
2608.00,0.0036
2607.00,0.0035
2606.00,0.0034
2605.00,0.0033
2604.00,0.0033
2603.00,0.0032
2602.00,0.0032
2601.00,0.0032
2600.00,0.0032
2599.00,0.0032
2598.00,0.0031
2597.00,0.0031
2596.00,0.0032
2595.00,0.0032
2594.00,0.0032
2593.00,0.0032
2592.00,0.0032
2591.00,0.0032
2590.00,0.0033
2589.00,0.0034
2588.00,0.0035
2587.00,0.0037
2586.00,0.0038
2585.00,0.0039
2584.00,0.0039
2583.00,0.0040
2582.00,0.0040
2581.00,0.0040
2580.00,0.0039
2579.00,0.0037
2578.00,0.0036
2577.00,0.0035
2576.00,0.0035
2575.00,0.0034
2574.00,0.0033
2573.00,0.0032
2572.00,0.0031
2571.00,0.0030
2570.00,0.0029
2569.00,0.0028
2568.00,0.0027
2567.00,0.0026
2566.00,0.0025
2565.00,0.0025
2564.00,0.0024
2563.00,0.0023
2562.00,0.0023
2561.00,0.0022
2560.00,0.0022
2559.00,0.0022
2558.00,0.0022
2557.00,0.0021
2556.00,0.0021
2555.00,0.0021
2554.00,0.0021
2553.00,0.0021
2552.00,0.0021
2551.00,0.0021
2550.00,0.0021
2549.00,0.0020
2548.00,0.0019
2547.00,0.0018
2546.00,0.0018
2545.00,0.0017
2544.00,0.0018
2543.00,0.0017
2542.00,0.0017
2541.00,0.0017
2540.00,0.0016
2539.00,0.0017
2538.00,0.0017
2537.00,0.0017
2536.00,0.0016
2535.00,0.0016
2534.00,0.0016
2533.00,0.0015
2532.00,0.0015
2531.00,0.0015
2530.00,0.0015
2529.00,0.0015
2528.00,0.0015
2527.00,0.0014
2526.00,0.0014
2525.00,0.0014
2524.00,0.0014
2523.00,0.0014
2522.00,0.0013
2521.00,0.0012
2520.00,0.0012
2519.00,0.0012
2518.00,0.0012
2517.00,0.0012
2516.00,0.0012
2515.00,0.0011
2514.00,0.0010
2513.00,0.0010
2512.00,0.0009
2511.00,0.0009
2510.00,0.0009
2509.00,0.0009
2508.00,0.0009
2507.00,0.0009
2506.00,0.0009
2505.00,0.0009
2504.00,0.0009
2503.00,0.0009
2502.00,0.0009
2501.00,0.0009
2500.00,0.0010
2499.00,0.0010
2498.00,0.0011
2497.00,0.0011
2496.00,0.0011
2495.00,0.0010
2494.00,0.0010
2493.00,0.0010
2492.00,0.0011
2491.00,0.0010
2490.00,0.0010
2489.00,0.0010
2488.00,0.0009
2487.00,0.0009
2486.00,0.0009
2485.00,0.0009
2484.00,0.0009
2483.00,0.0009
2482.00,0.0009
2481.00,0.0009
2480.00,0.0010
2479.00,0.0010
2478.00,0.0010
2477.00,0.0010
2476.00,0.0009
2475.00,0.0009
2474.00,0.0009
2473.00,0.0009
2472.00,0.0009
2471.00,0.0009
2470.00,0.0009
2469.00,0.0009
2468.00,0.0009
2467.00,0.0008
2466.00,0.0007
2465.00,0.0007
2464.00,0.0007
2463.00,0.0008
2462.00,0.0008
2461.00,0.0009
2460.00,0.0009
2459.00,0.0010
2458.00,0.0010
2457.00,0.0010
2456.00,0.0010
2455.00,0.0010
2454.00,0.0010
2453.00,0.0010
2452.00,0.0010
2451.00,0.0010
2450.00,0.0010
2449.00,0.0010
2448.00,0.0010
2447.00,0.0010
2446.00,0.0010
2445.00,0.0010
2444.00,0.0010
2443.00,0.0010
2442.00,0.0010
2441.00,0.0010
2440.00,0.0009
2439.00,0.0009
2438.00,0.0009
2437.00,0.0009
2436.00,0.0010
2435.00,0.0010
2434.00,0.0011
2433.00,0.0011
2432.00,0.0011
2431.00,0.0011
2430.00,0.0011
2429.00,0.0011
2428.00,0.0011
2427.00,0.0011
2426.00,0.0011
2425.00,0.0011
2424.00,0.0010
2423.00,0.0010
2422.00,0.0009
2421.00,0.0010
2420.00,0.0010
2419.00,0.0010
2418.00,0.0010
2417.00,0.0010
2416.00,0.0010
2415.00,0.0011
2414.00,0.0011
2413.00,0.0010
2412.00,0.0010
2411.00,0.0009
2410.00,0.0009
2409.00,0.0009
2408.00,0.0009
2407.00,0.0008
2406.00,0.0008
2405.00,0.0008
2404.00,0.0008
2403.00,0.0008
2402.00,0.0007
2401.00,0.0006
2400.00,0.0005
2399.00,0.0006
2398.00,0.0006
2397.00,0.0007
2396.00,0.0007
2395.00,0.0008
2394.00,0.0008
2393.00,0.0007
2392.00,0.0007
2391.00,0.0007
2390.00,0.0006
2389.00,0.0006
2388.00,0.0005
2387.00,0.0005
2386.00,0.0005
2385.00,0.0005
2384.00,0.0004
2383.00,0.0003
2382.00,0.0002
2381.00,0.0001
2380.00,0.0000
2379.00,-0.0000
2378.00,-0.0001
2377.00,-0.0000
2376.00,0.0000
2375.00,0.0000
2374.00,0.0000
2373.00,-0.0000
2372.00,-0.0001
2371.00,-0.0002
2370.00,-0.0004
2369.00,-0.0005
2368.00,-0.0006
2367.00,-0.0006
2366.00,-0.0006
2365.00,-0.0006
2364.00,-0.0005
2363.00,-0.0004
2362.00,-0.0003
2361.00,-0.0003
2360.00,-0.0003
2359.00,-0.0003
2358.00,-0.0003
2357.00,-0.0003
2356.00,-0.0003
2355.00,-0.0003
2354.00,-0.0002
2353.00,-0.0002
2352.00,-0.0002
2351.00,-0.0002
2350.00,-0.0002
2349.00,-0.0002
2348.00,-0.0002
2347.00,-0.0002
2346.00,-0.0002
2345.00,-0.0002
2344.00,-0.0003
2343.00,-0.0003
2342.00,-0.0002
2341.00,-0.0001
2340.00,-0.0000
2339.00,0.0001
2338.00,0.0001
2337.00,0.0002
2336.00,0.0002
2335.00,0.0002
2334.00,0.0002
2333.00,0.0001
2332.00,0.0001
2331.00,0.0001
2330.00,0.0001
2329.00,0.0001
2328.00,0.0003
2327.00,0.0006
2326.00,0.0010
2325.00,0.0014
2324.00,0.0016
2323.00,0.0016
2322.00,0.0013
2321.00,0.0011
2320.00,0.0009
2319.00,0.0008
2318.00,0.0007
2317.00,0.0007
2316.00,0.0006
2315.00,0.0006
2314.00,0.0005
2313.00,0.0005
2312.00,0.0005
2311.00,0.0004
2310.00,0.0004
2309.00,0.0003
2308.00,0.0003
2307.00,0.0003
2306.00,0.0003
2305.00,0.0003
2304.00,0.0004
2303.00,0.0005
2302.00,0.0006
2301.00,0.0007
2300.00,0.0007
2299.00,0.0008
2298.00,0.0009
2297.00,0.0010
2296.00,0.0011
2295.00,0.0012
2294.00,0.0013
2293.00,0.0013
2292.00,0.0013
2291.00,0.0013
2290.00,0.0013
2289.00,0.0014
2288.00,0.0015
2287.00,0.0016
2286.00,0.0017
2285.00,0.0018
2284.00,0.0017
2283.00,0.0016
2282.00,0.0015
2281.00,0.0015
2280.00,0.0014
2279.00,0.0013
2278.00,0.0012
2277.00,0.0012
2276.00,0.0011
2275.00,0.0011
2274.00,0.0012
2273.00,0.0013
2272.00,0.0014
2271.00,0.0014
2270.00,0.0014
2269.00,0.0013
2268.00,0.0012
2267.00,0.0012
2266.00,0.0012
2265.00,0.0011
2264.00,0.0011
2263.00,0.0010
2262.00,0.0010
2261.00,0.0009
2260.00,0.0009
2259.00,0.0009
2258.00,0.0009
2257.00,0.0009
2256.00,0.0009
2255.00,0.0008
2254.00,0.0007
2253.00,0.0006
2252.00,0.0007
2251.00,0.0007
2250.00,0.0008
2249.00,0.0008
2248.00,0.0008
2247.00,0.0007
2246.00,0.0007
2245.00,0.0006
2244.00,0.0006
2243.00,0.0007
2242.00,0.0008
2241.00,0.0009
2240.00,0.0010
2239.00,0.0011
2238.00,0.0011
2237.00,0.0010
2236.00,0.0010
2235.00,0.0009
2234.00,0.0009
2233.00,0.0009
2232.00,0.0010
2231.00,0.0010
2230.00,0.0009
2229.00,0.0008
2228.00,0.0007
2227.00,0.0006
2226.00,0.0007
2225.00,0.0007
2224.00,0.0007
2223.00,0.0006
2222.00,0.0005
2221.00,0.0005
2220.00,0.0006
2219.00,0.0007
2218.00,0.0007
2217.00,0.0007
2216.00,0.0007
2215.00,0.0006
2214.00,0.0006
2213.00,0.0006
2212.00,0.0006
2211.00,0.0005
2210.00,0.0005
2209.00,0.0005
2208.00,0.0006
2207.00,0.0007
2206.00,0.0006
2205.00,0.0005
2204.00,0.0005
2203.00,0.0005
2202.00,0.0005
2201.00,0.0005
2200.00,0.0005
2199.00,0.0006
2198.00,0.0007
2197.00,0.0009
2196.00,0.0008
2195.00,0.0007
2194.00,0.0005
2193.00,0.0006
2192.00,0.0007
2191.00,0.0009
2190.00,0.0010
2189.00,0.0010
2188.00,0.0010
2187.00,0.0011
2186.00,0.0012
2185.00,0.0012
2184.00,0.0010
2183.00,0.0006
2182.00,0.0002
2181.00,-0.0001
2180.00,-0.0003
2179.00,-0.0002
2178.00,-0.0000
2177.00,0.0002
2176.00,0.0003
2175.00,0.0002
2174.00,0.0001
2173.00,0.0003
2172.00,0.0007
2171.00,0.0011
2170.00,0.0014
2169.00,0.0016
2168.00,0.0017
2167.00,0.0016
2166.00,0.0016
2165.00,0.0017
2164.00,0.0018
2163.00,0.0020
2162.00,0.0019
2161.00,0.0013
2160.00,0.0002
2159.00,-0.0013
2158.00,-0.0024
2157.00,-0.0028
2156.00,-0.0027
2155.00,-0.0026
2154.00,-0.0024
2153.00,-0.0023
2152.00,-0.0021
2151.00,-0.0019
2150.00,-0.0017
2149.00,-0.0016
2148.00,-0.0015
2147.00,-0.0015
2146.00,-0.0015
2145.00,-0.0016
2144.00,-0.0016
2143.00,-0.0014
2142.00,-0.0013
2141.00,-0.0011
2140.00,-0.0009
2139.00,-0.0009
2138.00,-0.0010
2137.00,-0.0012
2136.00,-0.0014
2135.00,-0.0017
2134.00,-0.0019
2133.00,-0.0019
2132.00,-0.0019
2131.00,-0.0017
2130.00,-0.0016
2129.00,-0.0014
2128.00,-0.0012
2127.00,-0.0011
2126.00,-0.0008
2125.00,-0.0006
2124.00,-0.0004
2123.00,-0.0003
2122.00,-0.0003
2121.00,-0.0002
2120.00,-0.0001
2119.00,-0.0000
2118.00,0.0001
2117.00,0.0001
2116.00,0.0002
2115.00,0.0002
2114.00,0.0002
2113.00,0.0002
2112.00,0.0002
2111.00,0.0001
2110.00,0.0000
2109.00,-0.0000
2108.00,-0.0000
2107.00,0.0000
2106.00,0.0000
2105.00,-0.0000
2104.00,-0.0000
2103.00,0.0000
2102.00,0.0001
2101.00,0.0001
2100.00,0.0001
2099.00,0.0000
2098.00,-0.0001
2097.00,-0.0002
2096.00,-0.0003
2095.00,-0.0003
2094.00,-0.0004
2093.00,-0.0005
2092.00,-0.0004
2091.00,-0.0003
2090.00,-0.0002
2089.00,-0.0001
2088.00,-0.0000
2087.00,0.0000
2086.00,0.0001
2085.00,0.0001
2084.00,0.0002
2083.00,0.0001
2082.00,0.0001
2081.00,0.0001
2080.00,0.0002
2079.00,0.0002
2078.00,0.0003
2077.00,0.0004
2076.00,0.0005
2075.00,0.0005
2074.00,0.0005
2073.00,0.0003
2072.00,0.0001
2071.00,0.0000
2070.00,-0.0001
2069.00,-0.0001
2068.00,-0.0001
2067.00,-0.0001
2066.00,-0.0001
2065.00,-0.0000
2064.00,0.0000
2063.00,0.0000
2062.00,-0.0000
2061.00,-0.0000
2060.00,-0.0000
2059.00,-0.0001
2058.00,-0.0000
2057.00,0.0000
2056.00,0.0002
2055.00,0.0002
2054.00,0.0004
2053.00,0.0007
2052.00,0.0011
2051.00,0.0013
2050.00,0.0011
2049.00,0.0006
2048.00,-0.0000
2047.00,-0.0005
2046.00,-0.0007
2045.00,-0.0007
2044.00,-0.0007
2043.00,-0.0006
2042.00,-0.0005
2041.00,-0.0002
2040.00,0.0001
2039.00,0.0003
2038.00,0.0002
2037.00,0.0001
2036.00,-0.0000
2035.00,-0.0002
2034.00,-0.0003
2033.00,-0.0005
2032.00,-0.0006
2031.00,-0.0007
2030.00,-0.0007
2029.00,-0.0007
2028.00,-0.0006
2027.00,-0.0006
2026.00,-0.0007
2025.00,-0.0007
2024.00,-0.0008
2023.00,-0.0009
2022.00,-0.0012
2021.00,-0.0014
2020.00,-0.0015
2019.00,-0.0014
2018.00,-0.0014
2017.00,-0.0013
2016.00,-0.0013
2015.00,-0.0011
2014.00,-0.0008
2013.00,-0.0005
2012.00,-0.0004
2011.00,-0.0005
2010.00,-0.0008
2009.00,-0.0012
2008.00,-0.0016
2007.00,-0.0019
2006.00,-0.0021
2005.00,-0.0022
2004.00,-0.0021
2003.00,-0.0019
2002.00,-0.0017
2001.00,-0.0015
2000.00,-0.0014
1999.00,-0.0013
1998.00,-0.0012
1997.00,-0.0011
1996.00,-0.0011
1995.00,-0.0011
1994.00,-0.0012
1993.00,-0.0012
1992.00,-0.0012
1991.00,-0.0011
1990.00,-0.0009
1989.00,-0.0006
1988.00,-0.0004
1987.00,-0.0003
1986.00,-0.0003
1985.00,-0.0002
1984.00,-0.0000
1983.00,0.0003
1982.00,0.0007
1981.00,0.0010
1980.00,0.0010
1979.00,0.0004
1978.00,-0.0004
1977.00,-0.0012
1976.00,-0.0016
1975.00,-0.0018
1974.00,-0.0017
1973.00,-0.0016
1972.00,-0.0014
1971.00,-0.0013
1970.00,-0.0014
1969.00,-0.0014
1968.00,-0.0014
1967.00,-0.0013
1966.00,-0.0012
1965.00,-0.0011
1964.00,-0.0010
1963.00,-0.0011
1962.00,-0.0013
1961.00,-0.0015
1960.00,-0.0018
1959.00,-0.0019
1958.00,-0.0019
1957.00,-0.0018
1956.00,-0.0016
1955.00,-0.0015
1954.00,-0.0014
1953.00,-0.0015
1952.00,-0.0016
1951.00,-0.0016
1950.00,-0.0016
1949.00,-0.0016
1948.00,-0.0017
1947.00,-0.0018
1946.00,-0.0019
1945.00,-0.0018
1944.00,-0.0016
1943.00,-0.0014
1942.00,-0.0013
1941.00,-0.0012
1940.00,-0.0012
1939.00,-0.0012
1938.00,-0.0013
1937.00,-0.0013
1936.00,-0.0012
1935.00,-0.0011
1934.00,-0.0010
1933.00,-0.0010
1932.00,-0.0010
1931.00,-0.0010
1930.00,-0.0010
1929.00,-0.0009
1928.00,-0.0008
1927.00,-0.0007
1926.00,-0.0007
1925.00,-0.0007
1924.00,-0.0006
1923.00,-0.0005
1922.00,-0.0004
1921.00,-0.0003
1920.00,-0.0003
1919.00,-0.0003
1918.00,-0.0003
1917.00,-0.0002
1916.00,-0.0002
1915.00,-0.0003
1914.00,-0.0004
1913.00,-0.0005
1912.00,-0.0006
1911.00,-0.0006
1910.00,-0.0005
1909.00,-0.0004
1908.00,-0.0003
1907.00,-0.0003
1906.00,-0.0003
1905.00,-0.0002
1904.00,-0.0003
1903.00,-0.0003
1902.00,-0.0003
1901.00,-0.0003
1900.00,-0.0003
1899.00,-0.0003
1898.00,-0.0003
1897.00,-0.0002
1896.00,-0.0002
1895.00,-0.0003
1894.00,-0.0004
1893.00,-0.0004
1892.00,-0.0003
1891.00,-0.0003
1890.00,-0.0002
1889.00,-0.0001
1888.00,-0.0001
1887.00,-0.0001
1886.00,-0.0001
1885.00,-0.0001
1884.00,-0.0002
1883.00,-0.0003
1882.00,-0.0004
1881.00,-0.0003
1880.00,-0.0003
1879.00,-0.0002
1878.00,-0.0003
1877.00,-0.0003
1876.00,-0.0003
1875.00,-0.0003
1874.00,-0.0003
1873.00,-0.0002
1872.00,-0.0002
1871.00,-0.0002
1870.00,-0.0002
1869.00,-0.0002
1868.00,-0.0001
1867.00,-0.0000
1866.00,0.0000
1865.00,0.0001
1864.00,0.0001
1863.00,0.0000
1862.00,-0.0000
1861.00,-0.0001
1860.00,-0.0001
1859.00,-0.0000
1858.00,0.0000
1857.00,0.0000
1856.00,0.0001
1855.00,0.0001
1854.00,0.0001
1853.00,0.0001
1852.00,0.0001
1851.00,0.0001
1850.00,0.0001
1849.00,0.0000
1848.00,-0.0000
1847.00,-0.0001
1846.00,-0.0001
1845.00,-0.0001
1844.00,-0.0000
1843.00,0.0000
1842.00,0.0000
1841.00,0.0000
1840.00,0.0000
1839.00,0.0001
1838.00,0.0001
1837.00,0.0002
1836.00,0.0003
1835.00,0.0003
1834.00,0.0003
1833.00,0.0003
1832.00,0.0003
1831.00,0.0002
1830.00,0.0002
1829.00,0.0002
1828.00,0.0002
1827.00,0.0001
1826.00,0.0001
1825.00,0.0002
1824.00,0.0002
1823.00,0.0002
1822.00,0.0001
1821.00,0.0001
1820.00,0.0001
1819.00,0.0000
1818.00,-0.0000
1817.00,-0.0001
1816.00,-0.0000
1815.00,0.0000
1814.00,0.0001
1813.00,0.0001
1812.00,0.0002
1811.00,0.0002
1810.00,0.0003
1809.00,0.0003
1808.00,0.0003
1807.00,0.0003
1806.00,0.0003
1805.00,0.0003
1804.00,0.0004
1803.00,0.0004
1802.00,0.0004
1801.00,0.0004
1800.00,0.0004
1799.00,0.0004
1798.00,0.0004
1797.00,0.0004
1796.00,0.0004
1795.00,0.0004
1794.00,0.0004
1793.00,0.0004
1792.00,0.0004
1791.00,0.0005
1790.00,0.0005
1789.00,0.0006
1788.00,0.0006
1787.00,0.0006
1786.00,0.0006
1785.00,0.0006
1784.00,0.0005
1783.00,0.0005
1782.00,0.0005
1781.00,0.0006
1780.00,0.0006
1779.00,0.0007
1778.00,0.0007
1777.00,0.0007
1776.00,0.0007
1775.00,0.0006
1774.00,0.0006
1773.00,0.0006
1772.00,0.0007
1771.00,0.0008
1770.00,0.0009
1769.00,0.0009
1768.00,0.0009
1767.00,0.0010
1766.00,0.0010
1765.00,0.0010
1764.00,0.0010
1763.00,0.0009
1762.00,0.0009
1761.00,0.0009
1760.00,0.0009
1759.00,0.0010
1758.00,0.0010
1757.00,0.0010
1756.00,0.0010
1755.00,0.0011
1754.00,0.0011
1753.00,0.0011
1752.00,0.0012
1751.00,0.0013
1750.00,0.0014
1749.00,0.0014
1748.00,0.0014
1747.00,0.0014
1746.00,0.0014
1745.00,0.0014
1744.00,0.0015
1743.00,0.0015
1742.00,0.0016
1741.00,0.0016
1740.00,0.0015
1739.00,0.0015
1738.00,0.0015
1737.00,0.0015
1736.00,0.0016
1735.00,0.0016
1734.00,0.0016
1733.00,0.0017
1732.00,0.0017
1731.00,0.0017
1730.00,0.0017
1729.00,0.0018
1728.00,0.0019
1727.00,0.0019
1726.00,0.0020
1725.00,0.0020
1724.00,0.0020
1723.00,0.0020
1722.00,0.0020
1721.00,0.0020
1720.00,0.0020
1719.00,0.0020
1718.00,0.0019
1717.00,0.0019
1716.00,0.0019
1715.00,0.0020
1714.00,0.0020
1713.00,0.0020
1712.00,0.0020
1711.00,0.0020
1710.00,0.0020
1709.00,0.0020
1708.00,0.0020
1707.00,0.0020
1706.00,0.0020
1705.00,0.0020
1704.00,0.0020
1703.00,0.0020
1702.00,0.0020
1701.00,0.0020
1700.00,0.0021
1699.00,0.0021
1698.00,0.0021
1697.00,0.0021
1696.00,0.0021
1695.00,0.0021
1694.00,0.0021
1693.00,0.0021
1692.00,0.0022
1691.00,0.0022
1690.00,0.0022
1689.00,0.0022
1688.00,0.0023
1687.00,0.0023
1686.00,0.0023
1685.00,0.0023
1684.00,0.0023
1683.00,0.0023
1682.00,0.0023
1681.00,0.0024
1680.00,0.0024
1679.00,0.0025
1678.00,0.0025
1677.00,0.0025
1676.00,0.0025
1675.00,0.0025
1674.00,0.0025
1673.00,0.0026
1672.00,0.0026
1671.00,0.0026
1670.00,0.0026
1669.00,0.0026
1668.00,0.0026
1667.00,0.0026
1666.00,0.0026
1665.00,0.0027
1664.00,0.0027
1663.00,0.0027
1662.00,0.0027
1661.00,0.0028
1660.00,0.0028
1659.00,0.0028
1658.00,0.0028
1657.00,0.0028
1656.00,0.0029
1655.00,0.0029
1654.00,0.0030
1653.00,0.0030
1652.00,0.0030
1651.00,0.0030
1650.00,0.0031
1649.00,0.0032
1648.00,0.0033
1647.00,0.0034
1646.00,0.0035
1645.00,0.0036
1644.00,0.0036
1643.00,0.0037
1642.00,0.0037
1641.00,0.0037
1640.00,0.0038
1639.00,0.0038
1638.00,0.0038
1637.00,0.0039
1636.00,0.0039
1635.00,0.0039
1634.00,0.0039
1633.00,0.0039
1632.00,0.0039
1631.00,0.0039
1630.00,0.0038
1629.00,0.0038
1628.00,0.0038
1627.00,0.0038
1626.00,0.0037
1625.00,0.0037
1624.00,0.0037
1623.00,0.0036
1622.00,0.0036
1621.00,0.0036
1620.00,0.0036
1619.00,0.0036
1618.00,0.0036
1617.00,0.0035
1616.00,0.0035
1615.00,0.0034
1614.00,0.0034
1613.00,0.0034
1612.00,0.0034
1611.00,0.0034
1610.00,0.0034
1609.00,0.0034
1608.00,0.0034
1607.00,0.0034
1606.00,0.0035
1605.00,0.0035
1604.00,0.0035
1603.00,0.0035
1602.00,0.0035
1601.00,0.0036
1600.00,0.0036
1599.00,0.0036
1598.00,0.0036
1597.00,0.0036
1596.00,0.0037
1595.00,0.0037
1594.00,0.0037
1593.00,0.0038
1592.00,0.0039
1591.00,0.0040
1590.00,0.0040
1589.00,0.0041
1588.00,0.0043
1587.00,0.0044
1586.00,0.0045
1585.00,0.0048
1584.00,0.0050
1583.00,0.0053
1582.00,0.0056
1581.00,0.0059
1580.00,0.0061
1579.00,0.0063
1578.00,0.0065
1577.00,0.0065
1576.00,0.0065
1575.00,0.0064
1574.00,0.0063
1573.00,0.0062
1572.00,0.0060
1571.00,0.0058
1570.00,0.0055
1569.00,0.0053
1568.00,0.0051
1567.00,0.0050
1566.00,0.0049
1565.00,0.0048
1564.00,0.0048
1563.00,0.0048
1562.00,0.0048
1561.00,0.0048
1560.00,0.0047
1559.00,0.0046
1558.00,0.0046
1557.00,0.0046
1556.00,0.0046
1555.00,0.0046
1554.00,0.0046
1553.00,0.0048
1552.00,0.0049
1551.00,0.0051
1550.00,0.0053
1549.00,0.0054
1548.00,0.0057
1547.00,0.0060
1546.00,0.0063
1545.00,0.0068
1544.00,0.0072
1543.00,0.0074
1542.00,0.0075
1541.00,0.0075
1540.00,0.0072
1539.00,0.0069
1538.00,0.0066
1537.00,0.0064
1536.00,0.0063
1535.00,0.0060
1534.00,0.0056
1533.00,0.0052
1532.00,0.0050
1531.00,0.0048
1530.00,0.0047
1529.00,0.0046
1528.00,0.0045
1527.00,0.0045
1526.00,0.0044
1525.00,0.0045
1524.00,0.0045
1523.00,0.0046
1522.00,0.0047
1521.00,0.0047
1520.00,0.0048
1519.00,0.0048
1518.00,0.0048
1517.00,0.0049
1516.00,0.0049
1515.00,0.0050
1514.00,0.0050
1513.00,0.0051
1512.00,0.0052
1511.00,0.0053
1510.00,0.0054
1509.00,0.0055
1508.00,0.0056
1507.00,0.0056
1506.00,0.0055
1505.00,0.0055
1504.00,0.0056
1503.00,0.0058
1502.00,0.0060
1501.00,0.0062
1500.00,0.0065
1499.00,0.0067
1498.00,0.0069
1497.00,0.0071
1496.00,0.0075
1495.00,0.0078
1494.00,0.0080
1493.00,0.0083
1492.00,0.0087
1491.00,0.0091
1490.00,0.0095
1489.00,0.0101
1488.00,0.0107
1487.00,0.0113
1486.00,0.0118
1485.00,0.0125
1484.00,0.0133
1483.00,0.0141
1482.00,0.0151
1481.00,0.0163
1480.00,0.0176
1479.00,0.0190
1478.00,0.0207
1477.00,0.0229
1476.00,0.0255
1475.00,0.0286
1474.00,0.0326
1473.00,0.0383
1472.00,0.0451
1471.00,0.0517
1470.00,0.0580
1469.00,0.0648
1468.00,0.0721
1467.00,0.0802
1466.00,0.0895
1465.00,0.0994
1464.00,0.1080
1463.00,0.1138
1462.00,0.1174
1461.00,0.1196
1460.00,0.1209
1459.00,0.1215
1458.00,0.1216
1457.00,0.1214
1456.00,0.1205
1455.00,0.1193
1454.00,0.1176
1453.00,0.1154
1452.00,0.1123
1451.00,0.1080
1450.00,0.1024
1449.00,0.0950
1448.00,0.0857
1447.00,0.0761
1446.00,0.0675
1445.00,0.0604
1444.00,0.0544
1443.00,0.0495
1442.00,0.0460
1441.00,0.0436
1440.00,0.0423
1439.00,0.0419
1438.00,0.0424
1437.00,0.0430
1436.00,0.0424
1435.00,0.0401
1434.00,0.0365
1433.00,0.0320
1432.00,0.0274
1431.00,0.0233
1430.00,0.0200
1429.00,0.0177
1428.00,0.0160
1427.00,0.0151
1426.00,0.0144
1425.00,0.0139
1424.00,0.0133
1423.00,0.0130
1422.00,0.0128
1421.00,0.0125
1420.00,0.0121
1419.00,0.0118
1418.00,0.0116
1417.00,0.0114
1416.00,0.0112
1415.00,0.0110
1414.00,0.0109
1413.00,0.0108
1412.00,0.0105
1411.00,0.0104
1410.00,0.0104
1409.00,0.0104
1408.00,0.0103
1407.00,0.0103
1406.00,0.0103
1405.00,0.0103
1404.00,0.0102
1403.00,0.0103
1402.00,0.0104
1401.00,0.0105
1400.00,0.0106
1399.00,0.0108
1398.00,0.0111
1397.00,0.0113
1396.00,0.0115
1395.00,0.0118
1394.00,0.0123
1393.00,0.0128
1392.00,0.0133
1391.00,0.0141
1390.00,0.0151
1389.00,0.0165
1388.00,0.0186
1387.00,0.0217
1386.00,0.0260
1385.00,0.0316
1384.00,0.0394
1383.00,0.0507
1382.00,0.0663
1381.00,0.0870
1380.00,0.1131
1379.00,0.1431
1378.00,0.1722
1377.00,0.1935
1376.00,0.2005
1375.00,0.1898
1374.00,0.1647
1373.00,0.1348
1372.00,0.1076
1371.00,0.0855
1370.00,0.0681
1369.00,0.0551
1368.00,0.0461
1367.00,0.0406
1366.00,0.0377
1365.00,0.0365
1364.00,0.0368
1363.00,0.0383
1362.00,0.0406
1361.00,0.0430
1360.00,0.0449
1359.00,0.0455
1358.00,0.0445
1357.00,0.0419
1356.00,0.0381
1355.00,0.0338
1354.00,0.0297
1353.00,0.0262
1352.00,0.0233
1351.00,0.0210
1350.00,0.0192
1349.00,0.0177
1348.00,0.0165
1347.00,0.0154
1346.00,0.0145
1345.00,0.0137
1344.00,0.0130
1343.00,0.0125
1342.00,0.0122
1341.00,0.0119
1340.00,0.0117
1339.00,0.0116
1338.00,0.0115
1337.00,0.0115
1336.00,0.0115
1335.00,0.0117
1334.00,0.0121
1333.00,0.0125
1332.00,0.0130
1331.00,0.0134
1330.00,0.0135
1329.00,0.0133
1328.00,0.0129
1327.00,0.0123
1326.00,0.0117
1325.00,0.0111
1324.00,0.0105
1323.00,0.0100
1322.00,0.0096
1321.00,0.0093
1320.00,0.0090
1319.00,0.0088
1318.00,0.0087
1317.00,0.0086
1316.00,0.0084
1315.00,0.0083
1314.00,0.0083
1313.00,0.0083
1312.00,0.0084
1311.00,0.0086
1310.00,0.0089
1309.00,0.0094
1308.00,0.0101
1307.00,0.0109
1306.00,0.0118
1305.00,0.0123
1304.00,0.0125
1303.00,0.0124
1302.00,0.0121
1301.00,0.0119
1300.00,0.0119
1299.00,0.0121
1298.00,0.0123
1297.00,0.0125
1296.00,0.0124
1295.00,0.0122
1294.00,0.0118
1293.00,0.0113
1292.00,0.0107
1291.00,0.0102
1290.00,0.0097
1289.00,0.0093
1288.00,0.0090
1287.00,0.0087
1286.00,0.0084
1285.00,0.0082
1284.00,0.0080
1283.00,0.0078
1282.00,0.0077
1281.00,0.0076
1280.00,0.0075
1279.00,0.0074
1278.00,0.0073
1277.00,0.0072
1276.00,0.0071
1275.00,0.0071
1274.00,0.0071
1273.00,0.0071
1272.00,0.0071
1271.00,0.0072
1270.00,0.0073
1269.00,0.0073
1268.00,0.0074
1267.00,0.0075
1266.00,0.0077
1265.00,0.0078
1264.00,0.0081
1263.00,0.0083
1262.00,0.0086
1261.00,0.0089
1260.00,0.0093
1259.00,0.0098
1258.00,0.0103
1257.00,0.0107
1256.00,0.0109
1255.00,0.0107
1254.00,0.0103
1253.00,0.0096
1252.00,0.0090
1251.00,0.0085
1250.00,0.0082
1249.00,0.0079
1248.00,0.0076
1247.00,0.0075
1246.00,0.0073
1245.00,0.0072
1244.00,0.0071
1243.00,0.0071
1242.00,0.0070
1241.00,0.0070
1240.00,0.0070
1239.00,0.0070
1238.00,0.0070
1237.00,0.0069
1236.00,0.0070
1235.00,0.0070
1234.00,0.0070
1233.00,0.0071
1232.00,0.0072
1231.00,0.0073
1230.00,0.0075
1229.00,0.0076
1228.00,0.0078
1227.00,0.0080
1226.00,0.0082
1225.00,0.0084
1224.00,0.0088
1223.00,0.0091
1222.00,0.0095
1221.00,0.0099
1220.00,0.0101
1219.00,0.0103
1218.00,0.0102
1217.00,0.0100
1216.00,0.0097
1215.00,0.0093
1214.00,0.0090
1213.00,0.0087
1212.00,0.0084
1211.00,0.0081
1210.00,0.0079
1209.00,0.0077
1208.00,0.0076
1207.00,0.0076
1206.00,0.0075
1205.00,0.0075
1204.00,0.0075
1203.00,0.0074
1202.00,0.0074
1201.00,0.0073
1200.00,0.0073
1199.00,0.0074
1198.00,0.0074
1197.00,0.0074
1196.00,0.0075
1195.00,0.0075
1194.00,0.0075
1193.00,0.0075
1192.00,0.0075
1191.00,0.0074
1190.00,0.0073
1189.00,0.0072
1188.00,0.0071
1187.00,0.0072
1186.00,0.0072
1185.00,0.0073
1184.00,0.0074
1183.00,0.0075
1182.00,0.0077
1181.00,0.0079
1180.00,0.0081
1179.00,0.0084
1178.00,0.0089
1177.00,0.0095
1176.00,0.0104
1175.00,0.0115
1174.00,0.0129
1173.00,0.0147
1172.00,0.0170
1171.00,0.0194
1170.00,0.0218
1169.00,0.0238
1168.00,0.0249
1167.00,0.0252
1166.00,0.0246
1165.00,0.0234
1164.00,0.0221
1163.00,0.0210
1162.00,0.0200
1161.00,0.0191
1160.00,0.0185
1159.00,0.0180
1158.00,0.0178
1157.00,0.0176
1156.00,0.0175
1155.00,0.0175
1154.00,0.0174
1153.00,0.0172
1152.00,0.0169
1151.00,0.0164
1150.00,0.0156
1149.00,0.0147
1148.00,0.0137
1147.00,0.0128
1146.00,0.0120
1145.00,0.0113
1144.00,0.0106
1143.00,0.0099
1142.00,0.0093
1141.00,0.0088
1140.00,0.0084
1139.00,0.0080
1138.00,0.0077
1137.00,0.0074
1136.00,0.0071
1135.00,0.0068
1134.00,0.0067
1133.00,0.0066
1132.00,0.0065
1131.00,0.0065
1130.00,0.0064
1129.00,0.0063
1128.00,0.0063
1127.00,0.0063
1126.00,0.0064
1125.00,0.0065
1124.00,0.0066
1123.00,0.0067
1122.00,0.0068
1121.00,0.0068
1120.00,0.0067
1119.00,0.0067
1118.00,0.0067
1117.00,0.0068
1116.00,0.0069
1115.00,0.0071
1114.00,0.0074
1113.00,0.0075
1112.00,0.0077
1111.00,0.0078
1110.00,0.0081
1109.00,0.0085
1108.00,0.0091
1107.00,0.0097
1106.00,0.0104
1105.00,0.0111
1104.00,0.0116
1103.00,0.0119
1102.00,0.0118
1101.00,0.0114
1100.00,0.0108
1099.00,0.0101
1098.00,0.0094
1097.00,0.0088
1096.00,0.0084
1095.00,0.0080
1094.00,0.0078
1093.00,0.0075
1092.00,0.0073
1091.00,0.0072
1090.00,0.0071
1089.00,0.0070
1088.00,0.0069
1087.00,0.0069
1086.00,0.0068
1085.00,0.0067
1084.00,0.0067
1083.00,0.0067
1082.00,0.0068
1081.00,0.0068
1080.00,0.0067
1079.00,0.0066
1078.00,0.0066
1077.00,0.0065
1076.00,0.0065
1075.00,0.0065
1074.00,0.0065
1073.00,0.0065
1072.00,0.0065
1071.00,0.0065
1070.00,0.0065
1069.00,0.0065
1068.00,0.0065
1067.00,0.0065
1066.00,0.0066
1065.00,0.0066
1064.00,0.0067
1063.00,0.0068
1062.00,0.0069
1061.00,0.0069
1060.00,0.0069
1059.00,0.0070
1058.00,0.0071
1057.00,0.0072
1056.00,0.0073
1055.00,0.0075
1054.00,0.0077
1053.00,0.0080
1052.00,0.0083
1051.00,0.0087
1050.00,0.0091
1049.00,0.0095
1048.00,0.0099
1047.00,0.0102
1046.00,0.0105
1045.00,0.0107
1044.00,0.0108
1043.00,0.0109
1042.00,0.0108
1041.00,0.0107
1040.00,0.0106
1039.00,0.0106
1038.00,0.0107
1037.00,0.0109
1036.00,0.0110
1035.00,0.0109
1034.00,0.0108
1033.00,0.0105
1032.00,0.0103
1031.00,0.0102
1030.00,0.0102
1029.00,0.0102
1028.00,0.0103
1027.00,0.0104
1026.00,0.0106
1025.00,0.0107
1024.00,0.0109
1023.00,0.0111
1022.00,0.0113
1021.00,0.0116
1020.00,0.0118
1019.00,0.0120
1018.00,0.0122
1017.00,0.0123
1016.00,0.0124
1015.00,0.0125
1014.00,0.0125
1013.00,0.0125
1012.00,0.0124
1011.00,0.0123
1010.00,0.0123
1009.00,0.0123
1008.00,0.0124
1007.00,0.0126
1006.00,0.0131
1005.00,0.0139
1004.00,0.0151
1003.00,0.0168
1002.00,0.0191
1001.00,0.0218
1000.00,0.0247
999.00,0.0270
998.00,0.0280
997.00,0.0273
996.00,0.0251
995.00,0.0222
994.00,0.0192
993.00,0.0166
992.00,0.0146
991.00,0.0131
990.00,0.0120
989.00,0.0112
988.00,0.0107
987.00,0.0105
986.00,0.0105
985.00,0.0107
984.00,0.0111
983.00,0.0116
982.00,0.0125
981.00,0.0138
980.00,0.0157
979.00,0.0182
978.00,0.0213
977.00,0.0248
976.00,0.0285
975.00,0.0317
974.00,0.0339
973.00,0.0343
972.00,0.0328
971.00,0.0296
970.00,0.0256
969.00,0.0216
968.00,0.0182
967.00,0.0155
966.00,0.0136
965.00,0.0122
964.00,0.0112
963.00,0.0104
962.00,0.0098
961.00,0.0094
960.00,0.0090
959.00,0.0088
958.00,0.0085
957.00,0.0082
956.00,0.0080
955.00,0.0078
954.00,0.0077
953.00,0.0076
952.00,0.0075
951.00,0.0075
950.00,0.0075
949.00,0.0075
948.00,0.0075
947.00,0.0075
946.00,0.0076
945.00,0.0079
944.00,0.0083
943.00,0.0088
942.00,0.0092
941.00,0.0094
940.00,0.0093
939.00,0.0090
938.00,0.0085
937.00,0.0079
936.00,0.0073
935.00,0.0069
934.00,0.0066
933.00,0.0064
932.00,0.0063
931.00,0.0062
930.00,0.0062
929.00,0.0061
928.00,0.0060
927.00,0.0059
926.00,0.0058
925.00,0.0058
924.00,0.0058
923.00,0.0058
922.00,0.0058
921.00,0.0057
920.00,0.0057
919.00,0.0056
918.00,0.0056
917.00,0.0057
916.00,0.0058
915.00,0.0059
914.00,0.0061
913.00,0.0063
912.00,0.0064
911.00,0.0066
910.00,0.0067
909.00,0.0070
908.00,0.0074
907.00,0.0079
906.00,0.0087
905.00,0.0098
904.00,0.0113
903.00,0.0133
902.00,0.0155
901.00,0.0174
900.00,0.0187
899.00,0.0188
898.00,0.0178
897.00,0.0160
896.00,0.0138
895.00,0.0119
894.00,0.0103
893.00,0.0091
892.00,0.0082
891.00,0.0077
890.00,0.0074
889.00,0.0072
888.00,0.0070
887.00,0.0067
886.00,0.0066
885.00,0.0065
884.00,0.0065
883.00,0.0066
882.00,0.0066
881.00,0.0066
880.00,0.0066
879.00,0.0066
878.00,0.0066
877.00,0.0066
876.00,0.0066
875.00,0.0067
874.00,0.0067
873.00,0.0068
872.00,0.0068
871.00,0.0069
870.00,0.0069
869.00,0.0070
868.00,0.0070
867.00,0.0070
866.00,0.0070
865.00,0.0070
864.00,0.0071
863.00,0.0073
862.00,0.0074
861.00,0.0074
860.00,0.0075
859.00,0.0076
858.00,0.0078
857.00,0.0081
856.00,0.0083
855.00,0.0085
854.00,0.0086
853.00,0.0087
852.00,0.0089
851.00,0.0092
850.00,0.0096
849.00,0.0100
848.00,0.0106
847.00,0.0116
846.00,0.0131
845.00,0.0155
844.00,0.0188
843.00,0.0225
842.00,0.0254
841.00,0.0262
840.00,0.0245
839.00,0.0210
838.00,0.0172
837.00,0.0142
836.00,0.0123
835.00,0.0111
834.00,0.0104
833.00,0.0100
832.00,0.0096
831.00,0.0094
830.00,0.0093
829.00,0.0093
828.00,0.0093
827.00,0.0092
826.00,0.0090
825.00,0.0089
824.00,0.0088
823.00,0.0089
822.00,0.0091
821.00,0.0093
820.00,0.0095
819.00,0.0098
818.00,0.0102
817.00,0.0108
816.00,0.0117
815.00,0.0129
814.00,0.0145
813.00,0.0166
812.00,0.0188
811.00,0.0210
810.00,0.0226
809.00,0.0233
808.00,0.0228
807.00,0.0214
806.00,0.0194
805.00,0.0174
804.00,0.0155
803.00,0.0138
802.00,0.0124
801.00,0.0114
800.00,0.0107
799.00,0.0101
798.00,0.0096
797.00,0.0092
796.00,0.0089
795.00,0.0087
794.00,0.0086
793.00,0.0086
792.00,0.0084
791.00,0.0083
790.00,0.0081
789.00,0.0078
788.00,0.0075
787.00,0.0071
786.00,0.0067
785.00,0.0064
784.00,0.0062
783.00,0.0061
782.00,0.0059
781.00,0.0057
780.00,0.0057
779.00,0.0058
778.00,0.0058
777.00,0.0059
776.00,0.0059
775.00,0.0059
774.00,0.0059
773.00,0.0058
772.00,0.0058
771.00,0.0059
770.00,0.0059
769.00,0.0058
768.00,0.0058
767.00,0.0059
766.00,0.0060
765.00,0.0061
764.00,0.0061
763.00,0.0061
762.00,0.0061
761.00,0.0061
760.00,0.0062
759.00,0.0064
758.00,0.0065
757.00,0.0066
756.00,0.0067
755.00,0.0068
754.00,0.0071
753.00,0.0073
752.00,0.0074
751.00,0.0075
750.00,0.0074
749.00,0.0074
748.00,0.0075
747.00,0.0077
746.00,0.0080
745.00,0.0082
744.00,0.0084
743.00,0.0086
742.00,0.0087
741.00,0.0089
740.00,0.0091
739.00,0.0094
738.00,0.0098
737.00,0.0103
736.00,0.0108
735.00,0.0112
734.00,0.0117
733.00,0.0122
732.00,0.0128
731.00,0.0135
730.00,0.0141
729.00,0.0146
728.00,0.0149
727.00,0.0150
726.00,0.0150
725.00,0.0153
724.00,0.0157
723.00,0.0164
722.00,0.0171
721.00,0.0175
720.00,0.0173
719.00,0.0163
718.00,0.0148
717.00,0.0134
716.00,0.0124
715.00,0.0118
714.00,0.0113
713.00,0.0108
712.00,0.0103
711.00,0.0099
710.00,0.0097
709.00,0.0095
708.00,0.0095
707.00,0.0095
706.00,0.0094
705.00,0.0093
704.00,0.0092
703.00,0.0091
702.00,0.0090
701.00,0.0089
700.00,0.0088
699.00,0.0088
698.00,0.0088
697.00,0.0088
696.00,0.0088
695.00,0.0089
694.00,0.0089
693.00,0.0088
692.00,0.0087
691.00,0.0087
690.00,0.0087
689.00,0.0087
688.00,0.0087
687.00,0.0086
686.00,0.0085
685.00,0.0083
684.00,0.0082
683.00,0.0082
682.00,0.0085
681.00,0.0088
680.00,0.0089
679.00,0.0090
678.00,0.0091
677.00,0.0092
676.00,0.0092
675.00,0.0092
674.00,0.0093
673.00,0.0093
672.00,0.0094
671.00,0.0095
670.00,0.0098
669.00,0.0102
668.00,0.0106
667.00,0.0107
666.00,0.0103
665.00,0.0097
664.00,0.0092
663.00,0.0089
662.00,0.0086
661.00,0.0084
660.00,0.0083
659.00,0.0082
658.00,0.0082
657.00,0.0080
656.00,0.0077
655.00,0.0074
654.00,0.0072
653.00,0.0074
652.00,0.0076
651.00,0.0077
650.00,0.0077
649.00,0.0077
648.00,0.0076
647.00,0.0076
646.00,0.0076
645.00,0.0075
644.00,0.0074
643.00,0.0073
642.00,0.0071
641.00,0.0070
640.00,0.0071
639.00,0.0073
638.00,0.0074
637.00,0.0075
636.00,0.0075
635.00,0.0073
634.00,0.0072
633.00,0.0073
632.00,0.0076
631.00,0.0079
630.00,0.0081
629.00,0.0081
628.00,0.0079
627.00,0.0078
626.00,0.0078
625.00,0.0079
624.00,0.0079
623.00,0.0079
622.00,0.0078
621.00,0.0077
620.00,0.0077
619.00,0.0077
618.00,0.0076
617.00,0.0076
616.00,0.0077
615.00,0.0080
614.00,0.0082
613.00,0.0083
612.00,0.0083
611.00,0.0081
610.00,0.0079
609.00,0.0076
608.00,0.0073
607.00,0.0072
606.00,0.0072
605.00,0.0074
604.00,0.0075
603.00,0.0075
602.00,0.0075
601.00,0.0075
600.00,0.0076
599.00,0.0075
598.00,0.0074
597.00,0.0073
596.00,0.0072
595.00,0.0071
594.00,0.0071
593.00,0.0072
592.00,0.0074
591.00,0.0076
590.00,0.0076
589.00,0.0076
588.00,0.0074
587.00,0.0072
586.00,0.0070
585.00,0.0068
584.00,0.0068
583.00,0.0071
582.00,0.0075
581.00,0.0077
580.00,0.0076
579.00,0.0073
578.00,0.0071
577.00,0.0070
576.00,0.0072
575.00,0.0075
574.00,0.0078
573.00,0.0078
572.00,0.0076
571.00,0.0073
570.00,0.0072
569.00,0.0072
568.00,0.0073
567.00,0.0073
566.00,0.0073
565.00,0.0072
564.00,0.0070
563.00,0.0069
562.00,0.0067
561.00,0.0067
560.00,0.0069
559.00,0.0071
558.00,0.0072
557.00,0.0071
556.00,0.0071
555.00,0.0070
554.00,0.0070
553.00,0.0072
552.00,0.0075
551.00,0.0081
550.00,0.0084
549.00,0.0083
548.00,0.0077
547.00,0.0073
546.00,0.0073
545.00,0.0074
544.00,0.0075
543.00,0.0077
542.00,0.0080
541.00,0.0085
540.00,0.0089
539.00,0.0092
538.00,0.0092
537.00,0.0094
536.00,0.0099
535.00,0.0105
534.00,0.0110
533.00,0.0112
532.00,0.0111
531.00,0.0108
530.00,0.0103
529.00,0.0098
528.00,0.0098
527.00,0.0101
526.00,0.0106
525.00,0.0108
524.00,0.0104
523.00,0.0096
522.00,0.0087
521.00,0.0080
520.00,0.0076
519.00,0.0075
518.00,0.0075
517.00,0.0074
516.00,0.0072
515.00,0.0071
514.00,0.0068
513.00,0.0065
512.00,0.0063
511.00,0.0065
510.00,0.0070
509.00,0.0075
508.00,0.0078
507.00,0.0077
506.00,0.0072
505.00,0.0064
504.00,0.0058
503.00,0.0057
502.00,0.0062
501.00,0.0068
500.00,0.0074
499.00,0.0079
498.00,0.0082
497.00,0.0082
496.00,0.0080
495.00,0.0079
494.00,0.0080
493.00,0.0079
492.00,0.0076
491.00,0.0073
490.00,0.0077
489.00,0.0085
488.00,0.0090
487.00,0.0090
486.00,0.0086
485.00,0.0083
484.00,0.0083
483.00,0.0088
482.00,0.0094
481.00,0.0099
480.00,0.0098
479.00,0.0091
478.00,0.0082
477.00,0.0076
476.00,0.0077
475.00,0.0085
474.00,0.0098
473.00,0.0110
472.00,0.0116
471.00,0.0119
470.00,0.0124
469.00,0.0131
468.00,0.0139
467.00,0.0148
466.00,0.0157
465.00,0.0166
464.00,0.0172
463.00,0.0175
462.00,0.0176
461.00,0.0177
460.00,0.0180
459.00,0.0187
458.00,0.0197
457.00,0.0204
456.00,0.0204
455.00,0.0198
454.00,0.0192
453.00,0.0189
452.00,0.0188
451.00,0.0185
450.00,0.0180
