Created as New Dataset,Sample 051 By Administrator Date Wednesday, September 03 2025
cm-1,A
4000.00,0.0010
3999.00,0.0011
3998.00,0.0011
3997.00,0.0011
3996.00,0.0011
3995.00,0.0011
3994.00,0.0011
3993.00,0.0011
3992.00,0.0011
3991.00,0.0011
3990.00,0.0010
3989.00,0.0010
3988.00,0.0010
3987.00,0.0010
3986.00,0.0009
3985.00,0.0009
3984.00,0.0009
3983.00,0.0009
3982.00,0.0009
3981.00,0.0009
3980.00,0.0009
3979.00,0.0010
3978.00,0.0010
3977.00,0.0010
3976.00,0.0009
3975.00,0.0009
3974.00,0.0009
3973.00,0.0009
3972.00,0.0009
3971.00,0.0009
3970.00,0.0010
3969.00,0.0010
3968.00,0.0010
3967.00,0.0009
3966.00,0.0009
3965.00,0.0009
3964.00,0.0008
3963.00,0.0008
3962.00,0.0008
3961.00,0.0008
3960.00,0.0008
3959.00,0.0008
3958.00,0.0009
3957.00,0.0009
3956.00,0.0009
3955.00,0.0009
3954.00,0.0009
3953.00,0.0009
3952.00,0.0009
3951.00,0.0008
3950.00,0.0008
3949.00,0.0008
3948.00,0.0008
3947.00,0.0008
3946.00,0.0008
3945.00,0.0009
3944.00,0.0009
3943.00,0.0009
3942.00,0.0009
3941.00,0.0009
3940.00,0.0009
3939.00,0.0009
3938.00,0.0009
3937.00,0.0009
3936.00,0.0009
3935.00,0.0009
3934.00,0.0009
3933.00,0.0009
3932.00,0.0009
3931.00,0.0010
3930.00,0.0010
3929.00,0.0010
3928.00,0.0010
3927.00,0.0009
3926.00,0.0009
3925.00,0.0009
3924.00,0.0009
3923.00,0.0010
3922.00,0.0009
3921.00,0.0009
3920.00,0.0009
3919.00,0.0009
3918.00,0.0009
3917.00,0.0009
3916.00,0.0009
3915.00,0.0009
3914.00,0.0009
3913.00,0.0009
3912.00,0.0008
3911.00,0.0008
3910.00,0.0008
3909.00,0.0008
3908.00,0.0008
3907.00,0.0009
3906.00,0.0009
3905.00,0.0009
3904.00,0.0009
3903.00,0.0009
3902.00,0.0009
3901.00,0.0009
3900.00,0.0009
3899.00,0.0008
3898.00,0.0008
3897.00,0.0008
3896.00,0.0008
3895.00,0.0008
3894.00,0.0007
3893.00,0.0007
3892.00,0.0007
3891.00,0.0007
3890.00,0.0008
3889.00,0.0008
3888.00,0.0009
3887.00,0.0009
3886.00,0.0009
3885.00,0.0009
3884.00,0.0009
3883.00,0.0009
3882.00,0.0008
3881.00,0.0008
3880.00,0.0008
3879.00,0.0009
3878.00,0.0009
3877.00,0.0008
3876.00,0.0008
3875.00,0.0008
3874.00,0.0008
3873.00,0.0008
3872.00,0.0008
3871.00,0.0007
3870.00,0.0007
3869.00,0.0007
3868.00,0.0008
3867.00,0.0007
3866.00,0.0007
3865.00,0.0007
3864.00,0.0007
3863.00,0.0007
3862.00,0.0007
3861.00,0.0007
3860.00,0.0007
3859.00,0.0007
3858.00,0.0008
3857.00,0.0009
3856.00,0.0009
3855.00,0.0009
3854.00,0.0009
3853.00,0.0009
3852.00,0.0009
3851.00,0.0009
3850.00,0.0009
3849.00,0.0009
3848.00,0.0009
3847.00,0.0009
3846.00,0.0009
3845.00,0.0009
3844.00,0.0008
3843.00,0.0008
3842.00,0.0008
3841.00,0.0008
3840.00,0.0008
3839.00,0.0008
3838.00,0.0008
3837.00,0.0008
3836.00,0.0008
3835.00,0.0007
3834.00,0.0007
3833.00,0.0007
3832.00,0.0007
3831.00,0.0007
3830.00,0.0008
3829.00,0.0008
3828.00,0.0008
3827.00,0.0009
3826.00,0.0009
3825.00,0.0009
3824.00,0.0009
3823.00,0.0008
3822.00,0.0008
3821.00,0.0008
3820.00,0.0008
3819.00,0.0008
3818.00,0.0009
3817.00,0.0009
3816.00,0.0009
3815.00,0.0009
3814.00,0.0009
3813.00,0.0009
3812.00,0.0008
3811.00,0.0008
3810.00,0.0007
3809.00,0.0007
3808.00,0.0007
3807.00,0.0007
3806.00,0.0008
3805.00,0.0008
3804.00,0.0009
3803.00,0.0009
3802.00,0.0009
3801.00,0.0009
3800.00,0.0009
3799.00,0.0009
3798.00,0.0009
3797.00,0.0009
3796.00,0.0009
3795.00,0.0009
3794.00,0.0009
3793.00,0.0008
3792.00,0.0008
3791.00,0.0008
3790.00,0.0008
3789.00,0.0008
3788.00,0.0008
3787.00,0.0008
3786.00,0.0008
3785.00,0.0008
3784.00,0.0008
3783.00,0.0008
3782.00,0.0008
3781.00,0.0008
3780.00,0.0008
3779.00,0.0009
3778.00,0.0009
3777.00,0.0009
3776.00,0.0009
3775.00,0.0009
3774.00,0.0008
3773.00,0.0008
3772.00,0.0008
3771.00,0.0008
3770.00,0.0007
3769.00,0.0007
3768.00,0.0008
3767.00,0.0007
3766.00,0.0007
3765.00,0.0007
3764.00,0.0007
3763.00,0.0008
3762.00,0.0008
3761.00,0.0008
3760.00,0.0008
3759.00,0.0009
3758.00,0.0009
3757.00,0.0009
3756.00,0.0009
3755.00,0.0009
3754.00,0.0009
3753.00,0.0008
3752.00,0.0008
3751.00,0.0008
3750.00,0.0008
3749.00,0.0009
3748.00,0.0009
3747.00,0.0009
3746.00,0.0009
3745.00,0.0009
3744.00,0.0009
3743.00,0.0009
3742.00,0.0008
3741.00,0.0008
3740.00,0.0007
3739.00,0.0007
3738.00,0.0006
3737.00,0.0005
3736.00,0.0005
3735.00,0.0005
3734.00,0.0005
3733.00,0.0005
3732.00,0.0005
3731.00,0.0006
3730.00,0.0006
3729.00,0.0006
3728.00,0.0006
3727.00,0.0006
3726.00,0.0006
3725.00,0.0006
3724.00,0.0006
3723.00,0.0006
3722.00,0.0006
3721.00,0.0007
3720.00,0.0007
3719.00,0.0007
3718.00,0.0007
3717.00,0.0007
3716.00,0.0008
3715.00,0.0008
3714.00,0.0008
3713.00,0.0008
3712.00,0.0008
3711.00,0.0008
3710.00,0.0008
3709.00,0.0007
3708.00,0.0007
3707.00,0.0007
3706.00,0.0006
3705.00,0.0006
3704.00,0.0005
3703.00,0.0005
3702.00,0.0005
3701.00,0.0006
3700.00,0.0006
3699.00,0.0006
3698.00,0.0005
3697.00,0.0005
3696.00,0.0005
3695.00,0.0005
3694.00,0.0006
3693.00,0.0006
3692.00,0.0007
3691.00,0.0007
3690.00,0.0007
3689.00,0.0007
3688.00,0.0006
3687.00,0.0006
3686.00,0.0006
3685.00,0.0005
3684.00,0.0006
3683.00,0.0006
3682.00,0.0006
3681.00,0.0005
3680.00,0.0005
3679.00,0.0006
3678.00,0.0005
3677.00,0.0005
3676.00,0.0004
3675.00,0.0004
3674.00,0.0004
3673.00,0.0004
3672.00,0.0004
3671.00,0.0004
3670.00,0.0004
3669.00,0.0004
3668.00,0.0003
3667.00,0.0003
3666.00,0.0002
3665.00,0.0002
3664.00,0.0002
3663.00,0.0002
3662.00,0.0003
3661.00,0.0003
3660.00,0.0004
3659.00,0.0004
3658.00,0.0004
3657.00,0.0004
3656.00,0.0003
3655.00,0.0003
3654.00,0.0003
3653.00,0.0003
3652.00,0.0003
3651.00,0.0003
3650.00,0.0003
3649.00,0.0004
3648.00,0.0004
3647.00,0.0005
3646.00,0.0005
3645.00,0.0005
3644.00,0.0006
3643.00,0.0006
3642.00,0.0006
3641.00,0.0006
3640.00,0.0006
3639.00,0.0005
3638.00,0.0005
3637.00,0.0005
3636.00,0.0005
3635.00,0.0006
3634.00,0.0006
3633.00,0.0007
3632.00,0.0008
3631.00,0.0008
3630.00,0.0008
3629.00,0.0009
3628.00,0.0009
3627.00,0.0010
3626.00,0.0010
3625.00,0.0010
3624.00,0.0010
3623.00,0.0010
3622.00,0.0011
3621.00,0.0011
3620.00,0.0011
3619.00,0.0011
3618.00,0.0011
3617.00,0.0011
3616.00,0.0011
3615.00,0.0011
3614.00,0.0011
3613.00,0.0011
3612.00,0.0011
3611.00,0.0011
3610.00,0.0011
3609.00,0.0012
3608.00,0.0012
3607.00,0.0013
3606.00,0.0013
3605.00,0.0013
3604.00,0.0013
3603.00,0.0013
3602.00,0.0013
3601.00,0.0014
3600.00,0.0014
3599.00,0.0014
3598.00,0.0014
3597.00,0.0014
3596.00,0.0014
3595.00,0.0014
3594.00,0.0014
3593.00,0.0014
3592.00,0.0014
3591.00,0.0015
3590.00,0.0015
3589.00,0.0016
3588.00,0.0016
3587.00,0.0017
3586.00,0.0017
3585.00,0.0018
3584.00,0.0018
3583.00,0.0018
3582.00,0.0018
3581.00,0.0018
3580.00,0.0018
3579.00,0.0018
3578.00,0.0019
3577.00,0.0020
3576.00,0.0020
3575.00,0.0020
3574.00,0.0020
3573.00,0.0020
3572.00,0.0020
3571.00,0.0021
3570.00,0.0021
3569.00,0.0021
3568.00,0.0022
3567.00,0.0022
3566.00,0.0023
3565.00,0.0023
3564.00,0.0023
3563.00,0.0023
3562.00,0.0023
3561.00,0.0023
3560.00,0.0023
3559.00,0.0023
3558.00,0.0024
3557.00,0.0024
3556.00,0.0025
3555.00,0.0025
3554.00,0.0025
3553.00,0.0025
3552.00,0.0025
3551.00,0.0025
3550.00,0.0025
3549.00,0.0026
3548.00,0.0026
3547.00,0.0027
3546.00,0.0027
3545.00,0.0027
3544.00,0.0027
3543.00,0.0027
3542.00,0.0027
3541.00,0.0027
3540.00,0.0027
3539.00,0.0027
3538.00,0.0027
3537.00,0.0027
3536.00,0.0028
3535.00,0.0028
3534.00,0.0028
3533.00,0.0028
3532.00,0.0028
3531.00,0.0029
3530.00,0.0029
3529.00,0.0029
3528.00,0.0029
3527.00,0.0029
3526.00,0.0030
3525.00,0.0030
3524.00,0.0031
3523.00,0.0031
3522.00,0.0031
3521.00,0.0031
3520.00,0.0030
3519.00,0.0030
3518.00,0.0030
3517.00,0.0030
3516.00,0.0031
3515.00,0.0032
3514.00,0.0032
3513.00,0.0033
3512.00,0.0033
3511.00,0.0033
3510.00,0.0033
3509.00,0.0033
3508.00,0.0033
3507.00,0.0033
3506.00,0.0033
3505.00,0.0033
3504.00,0.0033
3503.00,0.0033
3502.00,0.0033
3501.00,0.0034
3500.00,0.0034
3499.00,0.0034
3498.00,0.0034
3497.00,0.0035
3496.00,0.0035
3495.00,0.0035
3494.00,0.0035
3493.00,0.0035
3492.00,0.0035
3491.00,0.0035
3490.00,0.0036
3489.00,0.0036
3488.00,0.0036
3487.00,0.0037
3486.00,0.0037
3485.00,0.0037
3484.00,0.0038
3483.00,0.0038
3482.00,0.0038
3481.00,0.0038
3480.00,0.0038
3479.00,0.0038
3478.00,0.0038
3477.00,0.0038
3476.00,0.0039
3475.00,0.0039
3474.00,0.0039
3473.00,0.0039
3472.00,0.0039
3471.00,0.0039
3470.00,0.0039
3469.00,0.0039
3468.00,0.0040
3467.00,0.0040
3466.00,0.0040
3465.00,0.0041
3464.00,0.0041
3463.00,0.0041
3462.00,0.0040
3461.00,0.0040
3460.00,0.0040
3459.00,0.0040
3458.00,0.0040
3457.00,0.0041
3456.00,0.0041
3455.00,0.0041
3454.00,0.0041
3453.00,0.0042
3452.00,0.0042
3451.00,0.0042
3450.00,0.0042
3449.00,0.0043
3448.00,0.0043
3447.00,0.0043
3446.00,0.0044
3445.00,0.0044
3444.00,0.0043
3443.00,0.0043
3442.00,0.0044
3441.00,0.0044
3440.00,0.0044
3439.00,0.0044
3438.00,0.0045
3437.00,0.0045
3436.00,0.0045
3435.00,0.0046
3434.00,0.0046
3433.00,0.0046
3432.00,0.0046
3431.00,0.0046
3430.00,0.0046
3429.00,0.0046
3428.00,0.0047
3427.00,0.0047
3426.00,0.0048
3425.00,0.0048
3424.00,0.0048
3423.00,0.0048
3422.00,0.0048
3421.00,0.0048
3420.00,0.0049
3419.00,0.0049
3418.00,0.0049
3417.00,0.0049
3416.00,0.0050
3415.00,0.0050
3414.00,0.0050
3413.00,0.0050
3412.00,0.0050
3411.00,0.0050
3410.00,0.0050
3409.00,0.0050
3408.00,0.0050
3407.00,0.0050
3406.00,0.0051
3405.00,0.0051
3404.00,0.0051
3403.00,0.0052
3402.00,0.0052
3401.00,0.0052
3400.00,0.0052
3399.00,0.0053
3398.00,0.0053
3397.00,0.0054
3396.00,0.0054
3395.00,0.0054
3394.00,0.0053
3393.00,0.0053
3392.00,0.0053
3391.00,0.0053
3390.00,0.0053
3389.00,0.0053
3388.00,0.0053
3387.00,0.0053
3386.00,0.0053
3385.00,0.0053
3384.00,0.0053
3383.00,0.0053
3382.00,0.0052
3381.00,0.0052
3380.00,0.0052
3379.00,0.0052
3378.00,0.0053
3377.00,0.0053
3376.00,0.0053
3375.00,0.0053
3374.00,0.0052
3373.00,0.0052
3372.00,0.0052
3371.00,0.0052
3370.00,0.0052
3369.00,0.0052
3368.00,0.0052
3367.00,0.0052
3366.00,0.0052
3365.00,0.0052
3364.00,0.0052
3363.00,0.0052
3362.00,0.0052
3361.00,0.0052
3360.00,0.0052
3359.00,0.0053
3358.00,0.0053
3357.00,0.0053
3356.00,0.0054
3355.00,0.0054
3354.00,0.0054
3353.00,0.0053
3352.00,0.0053
3351.00,0.0053
3350.00,0.0053
3349.00,0.0053
3348.00,0.0053
3347.00,0.0053
3346.00,0.0053
3345.00,0.0053
3344.00,0.0053
3343.00,0.0053
3342.00,0.0054
3341.00,0.0054
3340.00,0.0053
3339.00,0.0053
3338.00,0.0053
3337.00,0.0053
3336.00,0.0053
3335.00,0.0052
3334.00,0.0052
3333.00,0.0052
3332.00,0.0052
3331.00,0.0052
3330.00,0.0052
3329.00,0.0052
3328.00,0.0052
3327.00,0.0052
3326.00,0.0052
3325.00,0.0052
3324.00,0.0052
3323.00,0.0052
3322.00,0.0052
3321.00,0.0052
3320.00,0.0052
3319.00,0.0052
3318.00,0.0051
3317.00,0.0051
3316.00,0.0051
3315.00,0.0051
3314.00,0.0051
3313.00,0.0052
3312.00,0.0052
3311.00,0.0052
3310.00,0.0052
3309.00,0.0052
3308.00,0.0052
3307.00,0.0052
3306.00,0.0052
3305.00,0.0053
3304.00,0.0053
3303.00,0.0053
3302.00,0.0053
3301.00,0.0053
3300.00,0.0052
3299.00,0.0052
3298.00,0.0052
3297.00,0.0052
3296.00,0.0051
3295.00,0.0051
3294.00,0.0051
3293.00,0.0050
3292.00,0.0050
3291.00,0.0049
3290.00,0.0049
3289.00,0.0048
3288.00,0.0048
3287.00,0.0048
3286.00,0.0048
3285.00,0.0048
3284.00,0.0048
3283.00,0.0048
3282.00,0.0048
3281.00,0.0048
3280.00,0.0048
3279.00,0.0048
3278.00,0.0047
3277.00,0.0047
3276.00,0.0047
3275.00,0.0047
3274.00,0.0046
3273.00,0.0046
3272.00,0.0046
3271.00,0.0045
3270.00,0.0045
3269.00,0.0045
3268.00,0.0045
3267.00,0.0045
3266.00,0.0046
3265.00,0.0046
3264.00,0.0046
3263.00,0.0046
3262.00,0.0046
3261.00,0.0045
3260.00,0.0045
3259.00,0.0045
3258.00,0.0045
3257.00,0.0044
3256.00,0.0044
3255.00,0.0043
3254.00,0.0043
3253.00,0.0043
3252.00,0.0043
3251.00,0.0043
3250.00,0.0043
3249.00,0.0042
3248.00,0.0042
3247.00,0.0042
3246.00,0.0042
3245.00,0.0042
3244.00,0.0042
3243.00,0.0042
3242.00,0.0041
3241.00,0.0041
3240.00,0.0041
3239.00,0.0041
3238.00,0.0041
3237.00,0.0042
3236.00,0.0042
3235.00,0.0042
3234.00,0.0042
3233.00,0.0042
3232.00,0.0042
3231.00,0.0042
3230.00,0.0042
3229.00,0.0042
3228.00,0.0042
3227.00,0.0042
3226.00,0.0042
3225.00,0.0042
3224.00,0.0042
3223.00,0.0043
3222.00,0.0043
3221.00,0.0043
3220.00,0.0044
3219.00,0.0044
3218.00,0.0044
3217.00,0.0044
3216.00,0.0044
3215.00,0.0044
3214.00,0.0044
3213.00,0.0044
3212.00,0.0044
3211.00,0.0044
3210.00,0.0045
3209.00,0.0045
3208.00,0.0046
3207.00,0.0046
3206.00,0.0046
3205.00,0.0047
3204.00,0.0047
3203.00,0.0047
3202.00,0.0047
3201.00,0.0046
3200.00,0.0046
3199.00,0.0046
3198.00,0.0047
3197.00,0.0047
3196.00,0.0047
3195.00,0.0046
3194.00,0.0046
3193.00,0.0045
3192.00,0.0045
3191.00,0.0045
3190.00,0.0045
3189.00,0.0045
3188.00,0.0046
3187.00,0.0046
3186.00,0.0045
3185.00,0.0045
3184.00,0.0045
3183.00,0.0045
3182.00,0.0045
3181.00,0.0044
3180.00,0.0044
3179.00,0.0044
3178.00,0.0044
3177.00,0.0044
3176.00,0.0044
3175.00,0.0044
3174.00,0.0043
3173.00,0.0043
3172.00,0.0043
3171.00,0.0042
3170.00,0.0042
3169.00,0.0042
3168.00,0.0041
3167.00,0.0041
3166.00,0.0041
3165.00,0.0041
3164.00,0.0041
3163.00,0.0041
3162.00,0.0041
3161.00,0.0041
3160.00,0.0041
3159.00,0.0041
3158.00,0.0041
3157.00,0.0041
3156.00,0.0041
3155.00,0.0040
3154.00,0.0040
3153.00,0.0040
3152.00,0.0040
3151.00,0.0040
3150.00,0.0040
3149.00,0.0040
3148.00,0.0040
3147.00,0.0039
3146.00,0.0039
3145.00,0.0039
3144.00,0.0039
3143.00,0.0039
3142.00,0.0039
3141.00,0.0038
3140.00,0.0038
3139.00,0.0038
3138.00,0.0038
3137.00,0.0038
3136.00,0.0038
3135.00,0.0037
3134.00,0.0037
3133.00,0.0037
3132.00,0.0036
3131.00,0.0036
3130.00,0.0035
3129.00,0.0036
3128.00,0.0036
3127.00,0.0036
3126.00,0.0035
3125.00,0.0035
3124.00,0.0034
3123.00,0.0034
3122.00,0.0034
3121.00,0.0034
3120.00,0.0034
3119.00,0.0033
3118.00,0.0033
3117.00,0.0032
3116.00,0.0032
3115.00,0.0032
3114.00,0.0032
3113.00,0.0032
3112.00,0.0032
3111.00,0.0032
3110.00,0.0032
3109.00,0.0032
3108.00,0.0032
3107.00,0.0033
3106.00,0.0033
3105.00,0.0033
3104.00,0.0033
3103.00,0.0033
3102.00,0.0032
3101.00,0.0032
3100.00,0.0032
3099.00,0.0032
3098.00,0.0031
3097.00,0.0031
3096.00,0.0031
3095.00,0.0032
3094.00,0.0032
3093.00,0.0032
3092.00,0.0032
3091.00,0.0032
3090.00,0.0032
3089.00,0.0032
3088.00,0.0032
3087.00,0.0032
3086.00,0.0032
3085.00,0.0032
3084.00,0.0031
3083.00,0.0032
3082.00,0.0032
3081.00,0.0032
3080.00,0.0032
3079.00,0.0032
3078.00,0.0032
3077.00,0.0032
3076.00,0.0032
3075.00,0.0032
3074.00,0.0032
3073.00,0.0033
3072.00,0.0033
3071.00,0.0033
3070.00,0.0033
3069.00,0.0033
3068.00,0.0033
3067.00,0.0033
3066.00,0.0033
3065.00,0.0033
3064.00,0.0034
3063.00,0.0034
3062.00,0.0034
3061.00,0.0034
3060.00,0.0034
3059.00,0.0035
3058.00,0.0035
3057.00,0.0035
3056.00,0.0035
3055.00,0.0036
3054.00,0.0036
3053.00,0.0036
3052.00,0.0036
3051.00,0.0036
3050.00,0.0036
3049.00,0.0036
3048.00,0.0036
3047.00,0.0036
3046.00,0.0037
3045.00,0.0037
3044.00,0.0038
3043.00,0.0038
3042.00,0.0038
3041.00,0.0038
3040.00,0.0038
3039.00,0.0038
3038.00,0.0039
3037.00,0.0039
3036.00,0.0040
3035.00,0.0040
3034.00,0.0040
3033.00,0.0040
3032.00,0.0041
3031.00,0.0041
3030.00,0.0042
3029.00,0.0043
3028.00,0.0043
3027.00,0.0043
3026.00,0.0044
3025.00,0.0044
3024.00,0.0045
3023.00,0.0045
3022.00,0.0046
3021.00,0.0046
3020.00,0.0047
3019.00,0.0047
3018.00,0.0048
3017.00,0.0048
3016.00,0.0049
3015.00,0.0049
3014.00,0.0050
3013.00,0.0050
3012.00,0.0050
3011.00,0.0050
3010.00,0.0050
3009.00,0.0051
3008.00,0.0052
3007.00,0.0052
3006.00,0.0053
3005.00,0.0053
3004.00,0.0053
3003.00,0.0053
3002.00,0.0054
3001.00,0.0055
3000.00,0.0057
2999.00,0.0058
2998.00,0.0060
2997.00,0.0062
2996.00,0.0065
2995.00,0.0067
2994.00,0.0071
2993.00,0.0074
2992.00,0.0078
2991.00,0.0083
2990.00,0.0088
2989.00,0.0093
2988.00,0.0099
2987.00,0.0105
2986.00,0.0111
2985.00,0.0118
2984.00,0.0124
2983.00,0.0133
2982.00,0.0144
2981.00,0.0159
2980.00,0.0177
2979.00,0.0198
2978.00,0.0222
2977.00,0.0249
2976.00,0.0278
2975.00,0.0310
2974.00,0.0347
2973.00,0.0388
2972.00,0.0434
2971.00,0.0487
2970.00,0.0546
2969.00,0.0611
2968.00,0.0680
2967.00,0.0752
2966.00,0.0826
2965.00,0.0900
2964.00,0.0971
2963.00,0.1036
2962.00,0.1093
2961.00,0.1142
2960.00,0.1186
2959.00,0.1227
2958.00,0.1271
2957.00,0.1323
2956.00,0.1384
2955.00,0.1458
2954.00,0.1541
2953.00,0.1627
2952.00,0.1706
2951.00,0.1768
2950.00,0.1799
2949.00,0.1792
2948.00,0.1743
2947.00,0.1657
2946.00,0.1547
2945.00,0.1428
2944.00,0.1312
2943.00,0.1213
2942.00,0.1136
2941.00,0.1083
2940.00,0.1054
2939.00,0.1048
2938.00,0.1062
2937.00,0.1093
2936.00,0.1140
2935.00,0.1203
2934.00,0.1280
2933.00,0.1369
2932.00,0.1471
2931.00,0.1582
2930.00,0.1701
2929.00,0.1825
2928.00,0.1950
2927.00,0.2074
2926.00,0.2197
2925.00,0.2317
2924.00,0.2437
2923.00,0.2557
2922.00,0.2679
2921.00,0.2798
2920.00,0.2906
2919.00,0.2993
2918.00,0.3044
2917.00,0.3047
2916.00,0.2998
2915.00,0.2903
2914.00,0.2775
2913.00,0.2632
2912.00,0.2488
2911.00,0.2353
2910.00,0.2232
2909.00,0.2125
2908.00,0.2029
2907.00,0.1941
2906.00,0.1858
2905.00,0.1778
2904.00,0.1702
2903.00,0.1628
2902.00,0.1557
2901.00,0.1490
2900.00,0.1426
2899.00,0.1365
2898.00,0.1309
2897.00,0.1257
2896.00,0.1211
2895.00,0.1171
2894.00,0.1137
2893.00,0.1109
2892.00,0.1087
2891.00,0.1071
2890.00,0.1060
2889.00,0.1053
2888.00,0.1050
2887.00,0.1050
2886.00,0.1054
2885.00,0.1062
2884.00,0.1075
2883.00,0.1093
2882.00,0.1117
2881.00,0.1145
2880.00,0.1174
2879.00,0.1200
2878.00,0.1218
2877.00,0.1227
2876.00,0.1227
2875.00,0.1221
2874.00,0.1215
2873.00,0.1213
2872.00,0.1218
2871.00,0.1231
2870.00,0.1250
2869.00,0.1270
2868.00,0.1284
2867.00,0.1284
2866.00,0.1264
2865.00,0.1221
2864.00,0.1158
2863.00,0.1085
2862.00,0.1011
2861.00,0.0946
2860.00,0.0895
2859.00,0.0860
2858.00,0.0842
2857.00,0.0838
2856.00,0.0845
2855.00,0.0862
2854.00,0.0886
2853.00,0.0915
2852.00,0.0943
2851.00,0.0967
2850.00,0.0981
2849.00,0.0984
2848.00,0.0979
2847.00,0.0973
2846.00,0.0974
2845.00,0.0986
2844.00,0.1011
2843.00,0.1047
2842.00,0.1090
2841.00,0.1133
2840.00,0.1167
2839.00,0.1186
2838.00,0.1181
2837.00,0.1148
2836.00,0.1087
2835.00,0.1003
2834.00,0.0904
2833.00,0.0801
2832.00,0.0702
2831.00,0.0614
2830.00,0.0539
2829.00,0.0477
2828.00,0.0427
2827.00,0.0387
2826.00,0.0354
2825.00,0.0328
2824.00,0.0305
2823.00,0.0286
2822.00,0.0270
2821.00,0.0256
2820.00,0.0243
2819.00,0.0232
2818.00,0.0223
2817.00,0.0215
2816.00,0.0208
2815.00,0.0201
2814.00,0.0195
2813.00,0.0189
2812.00,0.0184
2811.00,0.0178
2810.00,0.0172
2809.00,0.0166
2808.00,0.0160
2807.00,0.0153
2806.00,0.0147
2805.00,0.0140
2804.00,0.0134
2803.00,0.0128
2802.00,0.0123
2801.00,0.0119
2800.00,0.0115
2799.00,0.0112
2798.00,0.0109
2797.00,0.0106
2796.00,0.0104
2795.00,0.0102
2794.00,0.0099
2793.00,0.0097
2792.00,0.0094
2791.00,0.0091
2790.00,0.0088
2789.00,0.0085
2788.00,0.0083
2787.00,0.0080
2786.00,0.0078
2785.00,0.0075
2784.00,0.0073
2783.00,0.0071
2782.00,0.0069
2781.00,0.0068
2780.00,0.0066
2779.00,0.0065
2778.00,0.0063
2777.00,0.0062
2776.00,0.0061
2775.00,0.0060
2774.00,0.0059
2773.00,0.0058
2772.00,0.0057
2771.00,0.0057
2770.00,0.0057
2769.00,0.0056
2768.00,0.0056
2767.00,0.0056
2766.00,0.0056
2765.00,0.0056
2764.00,0.0055
2763.00,0.0055
2762.00,0.0055
2761.00,0.0054
2760.00,0.0053
2759.00,0.0053
2758.00,0.0053
2757.00,0.0053
2756.00,0.0052
2755.00,0.0052
2754.00,0.0052
2753.00,0.0051
2752.00,0.0051
2751.00,0.0051
2750.00,0.0051
2749.00,0.0051
2748.00,0.0052
2747.00,0.0052
2746.00,0.0053
2745.00,0.0053
2744.00,0.0054
2743.00,0.0055
2742.00,0.0055
2741.00,0.0057
2740.00,0.0058
2739.00,0.0059
2738.00,0.0060
2737.00,0.0062
2736.00,0.0063
2735.00,0.0065
2734.00,0.0066
2733.00,0.0068
2732.00,0.0069
2731.00,0.0071
2730.00,0.0073
2729.00,0.0076
2728.00,0.0078
2727.00,0.0081
2726.00,0.0084
2725.00,0.0087
2724.00,0.0088
2723.00,0.0088
2722.00,0.0087
2721.00,0.0085
2720.00,0.0083
2719.00,0.0080
2718.00,0.0076
2717.00,0.0073
2716.00,0.0070
2715.00,0.0067
2714.00,0.0065
2713.00,0.0062
2712.00,0.0060
2711.00,0.0059
2710.00,0.0057
2709.00,0.0055
2708.00,0.0054
2707.00,0.0053
2706.00,0.0052
2705.00,0.0051
2704.00,0.0050
2703.00,0.0049
2702.00,0.0048
2701.00,0.0047
2700.00,0.0046
2699.00,0.0045
2698.00,0.0045
2697.00,0.0045
2696.00,0.0045
2695.00,0.0045
2694.00,0.0045
2693.00,0.0046
2692.00,0.0046
2691.00,0.0046
2690.00,0.0045
2689.00,0.0045
2688.00,0.0044
2687.00,0.0044
2686.00,0.0044
2685.00,0.0044
2684.00,0.0044
2683.00,0.0045
2682.00,0.0045
2681.00,0.0045
2680.00,0.0046
2679.00,0.0046
2678.00,0.0046
2677.00,0.0046
2676.00,0.0046
2675.00,0.0045
2674.00,0.0045
2673.00,0.0045
2672.00,0.0045
2671.00,0.0045
2670.00,0.0046
2669.00,0.0046
2668.00,0.0046
2667.00,0.0046
2666.00,0.0047
2665.00,0.0047
2664.00,0.0047
2663.00,0.0047
2662.00,0.0047
2661.00,0.0048
2660.00,0.0048
2659.00,0.0048
2658.00,0.0048
2657.00,0.0048
2656.00,0.0048
2655.00,0.0047
2654.00,0.0047
2653.00,0.0047
2652.00,0.0046
2651.00,0.0045
2650.00,0.0045
2649.00,0.0044
2648.00,0.0044
2647.00,0.0043
2646.00,0.0043
2645.00,0.0042
2644.00,0.0042
2643.00,0.0041
2642.00,0.0041
2641.00,0.0041
2640.00,0.0040
2639.00,0.0040
2638.00,0.0039
2637.00,0.0039
2636.00,0.0039
2635.00,0.0039
2634.00,0.0039
2633.00,0.0039
2632.00,0.0040
2631.00,0.0040
2630.00,0.0040
2629.00,0.0040
2628.00,0.0040
2627.00,0.0040
2626.00,0.0041
2625.00,0.0041
2624.00,0.0041
2623.00,0.0041
2622.00,0.0041
2621.00,0.0041
2620.00,0.0042
2619.00,0.0042
2618.00,0.0042
2617.00,0.0041
2616.00,0.0041
2615.00,0.0040
2614.00,0.0040
2613.00,0.0040
2612.00,0.0040
2611.00,0.0039
2610.00,0.0039
2609.00,0.0038
2608.00,0.0037
2607.00,0.0036
2606.00,0.0035
2605.00,0.0035
2604.00,0.0034
2603.00,0.0034
2602.00,0.0034
2601.00,0.0034
2600.00,0.0034
2599.00,0.0033
2598.00,0.0033
2597.00,0.0033
2596.00,0.0033
2595.00,0.0033
2594.00,0.0034
2593.00,0.0034
2592.00,0.0034
2591.00,0.0034
2590.00,0.0034
2589.00,0.0035
2588.00,0.0036
2587.00,0.0037
2586.00,0.0039
2585.00,0.0040
2584.00,0.0041
2583.00,0.0041
2582.00,0.0041
2581.00,0.0041
2580.00,0.0040
2579.00,0.0039
2578.00,0.0038
2577.00,0.0036
2576.00,0.0035
2575.00,0.0034
2574.00,0.0033
2573.00,0.0032
2572.00,0.0032
2571.00,0.0031
2570.00,0.0030
2569.00,0.0029
2568.00,0.0028
2567.00,0.0027
2566.00,0.0026
2565.00,0.0026
2564.00,0.0026
2563.00,0.0026
2562.00,0.0025
2561.00,0.0025
2560.00,0.0025
2559.00,0.0024
2558.00,0.0024
2557.00,0.0024
2556.00,0.0024
2555.00,0.0023
2554.00,0.0023
2553.00,0.0022
2552.00,0.0022
2551.00,0.0021
2550.00,0.0021
2549.00,0.0021
2548.00,0.0021
2547.00,0.0021
2546.00,0.0020
2545.00,0.0019
2544.00,0.0019
2543.00,0.0018
2542.00,0.0017
2541.00,0.0017
2540.00,0.0017
2539.00,0.0017
2538.00,0.0018
2537.00,0.0018
2536.00,0.0018
2535.00,0.0018
2534.00,0.0018
2533.00,0.0018
2532.00,0.0017
2531.00,0.0017
2530.00,0.0017
2529.00,0.0017
2528.00,0.0016
2527.00,0.0016
2526.00,0.0015
2525.00,0.0015
2524.00,0.0016
2523.00,0.0016
2522.00,0.0015
2521.00,0.0015
2520.00,0.0014
2519.00,0.0014
2518.00,0.0014
2517.00,0.0013
2516.00,0.0013
2515.00,0.0012
2514.00,0.0012
2513.00,0.0012
2512.00,0.0012
2511.00,0.0012
2510.00,0.0011
2509.00,0.0011
2508.00,0.0012
2507.00,0.0012
2506.00,0.0012
2505.00,0.0012
2504.00,0.0012
2503.00,0.0012
2502.00,0.0012
2501.00,0.0012
2500.00,0.0012
2499.00,0.0013
2498.00,0.0013
2497.00,0.0013
2496.00,0.0013
2495.00,0.0013
2494.00,0.0014
2493.00,0.0014
2492.00,0.0014
2491.00,0.0014
2490.00,0.0013
2489.00,0.0013
2488.00,0.0012
2487.00,0.0011
2486.00,0.0011
2485.00,0.0011
2484.00,0.0011
2483.00,0.0012
2482.00,0.0012
2481.00,0.0012
2480.00,0.0012
2479.00,0.0012
2478.00,0.0011
2477.00,0.0011
2476.00,0.0010
2475.00,0.0010
2474.00,0.0010
2473.00,0.0010
2472.00,0.0010
2471.00,0.0010
2470.00,0.0010
2469.00,0.0010
2468.00,0.0010
2467.00,0.0009
2466.00,0.0009
2465.00,0.0008
2464.00,0.0009
2463.00,0.0009
2462.00,0.0010
2461.00,0.0011
2460.00,0.0011
2459.00,0.0011
2458.00,0.0011
2457.00,0.0011
2456.00,0.0011
2455.00,0.0011
2454.00,0.0011
2453.00,0.0011
2452.00,0.0011
2451.00,0.0011
2450.00,0.0011
2449.00,0.0012
2448.00,0.0012
2447.00,0.0012
2446.00,0.0012
2445.00,0.0012
2444.00,0.0012
2443.00,0.0013
2442.00,0.0013
2441.00,0.0013
2440.00,0.0012
2439.00,0.0011
2438.00,0.0011
2437.00,0.0010
2436.00,0.0011
2435.00,0.0012
2434.00,0.0013
2433.00,0.0013
2432.00,0.0013
2431.00,0.0013
2430.00,0.0013
2429.00,0.0014
2428.00,0.0014
2427.00,0.0014
2426.00,0.0013
2425.00,0.0012
2424.00,0.0011
2423.00,0.0010
2422.00,0.0010
2421.00,0.0010
2420.00,0.0010
2419.00,0.0010
2418.00,0.0011
2417.00,0.0011
2416.00,0.0012
2415.00,0.0012
2414.00,0.0012
2413.00,0.0012
2412.00,0.0012
2411.00,0.0012
2410.00,0.0012
2409.00,0.0011
2408.00,0.0010
2407.00,0.0010
2406.00,0.0010
2405.00,0.0010
2404.00,0.0010
2403.00,0.0010
2402.00,0.0010
2401.00,0.0009
2400.00,0.0009
2399.00,0.0009
2398.00,0.0008
2397.00,0.0008
2396.00,0.0008
2395.00,0.0008
2394.00,0.0009
2393.00,0.0009
2392.00,0.0009
2391.00,0.0009
2390.00,0.0009
2389.00,0.0009
2388.00,0.0008
2387.00,0.0007
2386.00,0.0007
2385.00,0.0006
2384.00,0.0005
2383.00,0.0005
2382.00,0.0004
2381.00,0.0004
2380.00,0.0003
2379.00,0.0003
2378.00,0.0003
2377.00,0.0003
2376.00,0.0004
2375.00,0.0004
2374.00,0.0004
2373.00,0.0003
2372.00,0.0002
2371.00,0.0001
2370.00,-0.0000
2369.00,-0.0001
2368.00,-0.0001
2367.00,-0.0000
2366.00,0.0000
2365.00,0.0001
2364.00,0.0001
2363.00,0.0002
2362.00,0.0002
2361.00,0.0002
2360.00,0.0002
2359.00,0.0002
2358.00,0.0003
2357.00,0.0003
2356.00,0.0003
2355.00,0.0003
2354.00,0.0003
2353.00,0.0003
2352.00,0.0003
2351.00,0.0003
2350.00,0.0003
2349.00,0.0003
2348.00,0.0003
2347.00,0.0004
2346.00,0.0004
2345.00,0.0004
2344.00,0.0004
2343.00,0.0004
2342.00,0.0005
2341.00,0.0005
2340.00,0.0006
2339.00,0.0006
2338.00,0.0006
2337.00,0.0006
2336.00,0.0006
2335.00,0.0006
2334.00,0.0006
2333.00,0.0006
2332.00,0.0006
2331.00,0.0005
2330.00,0.0005
2329.00,0.0006
2328.00,0.0007
2327.00,0.0010
2326.00,0.0014
2325.00,0.0017
2324.00,0.0019
2323.00,0.0018
2322.00,0.0016
2321.00,0.0014
2320.00,0.0012
2319.00,0.0012
2318.00,0.0011
2317.00,0.0011
2316.00,0.0010
2315.00,0.0010
2314.00,0.0009
2313.00,0.0008
2312.00,0.0007
2311.00,0.0006
2310.00,0.0006
2309.00,0.0005
2308.00,0.0005
2307.00,0.0005
2306.00,0.0006
2305.00,0.0007
2304.00,0.0008
2303.00,0.0008
2302.00,0.0008
2301.00,0.0008
2300.00,0.0008
2299.00,0.0009
2298.00,0.0010
2297.00,0.0011
2296.00,0.0012
2295.00,0.0013
2294.00,0.0014
2293.00,0.0014
2292.00,0.0014
2291.00,0.0015
2290.00,0.0015
2289.00,0.0016
2288.00,0.0016
2287.00,0.0017
2286.00,0.0018
2285.00,0.0018
2284.00,0.0017
2283.00,0.0016
2282.00,0.0015
2281.00,0.0014
2280.00,0.0014
2279.00,0.0014
2278.00,0.0014
2277.00,0.0013
2276.00,0.0012
2275.00,0.0012
2274.00,0.0013
2273.00,0.0014
2272.00,0.0016
2271.00,0.0017
2270.00,0.0017
2269.00,0.0016
2268.00,0.0015
2267.00,0.0014
2266.00,0.0014
2265.00,0.0014
2264.00,0.0014
2263.00,0.0013
2262.00,0.0012
2261.00,0.0012
2260.00,0.0011
2259.00,0.0011
2258.00,0.0011
2257.00,0.0011
2256.00,0.0011
2255.00,0.0010
2254.00,0.0010
2253.00,0.0009
2252.00,0.0009
2251.00,0.0009
2250.00,0.0009
2249.00,0.0008
2248.00,0.0007
2247.00,0.0007
2246.00,0.0007
2245.00,0.0008
2244.00,0.0009
2243.00,0.0011
2242.00,0.0013
2241.00,0.0015
2240.00,0.0015
2239.00,0.0013
2238.00,0.0012
2237.00,0.0011
2236.00,0.0012
2235.00,0.0013
2234.00,0.0014
2233.00,0.0015
2232.00,0.0015
2231.00,0.0014
2230.00,0.0011
2229.00,0.0009
2228.00,0.0009
2227.00,0.0009
2226.00,0.0009
2225.00,0.0009
2224.00,0.0008
2223.00,0.0007
2222.00,0.0006
2221.00,0.0006
2220.00,0.0007
2219.00,0.0008
2218.00,0.0009
2217.00,0.0009
2216.00,0.0009
2215.00,0.0009
2214.00,0.0009
2213.00,0.0009
2212.00,0.0008
2211.00,0.0007
2210.00,0.0006
2209.00,0.0005
2208.00,0.0006
2207.00,0.0007
2206.00,0.0007
2205.00,0.0006
2204.00,0.0005
2203.00,0.0005
2202.00,0.0006
2201.00,0.0007
2200.00,0.0008
2199.00,0.0009
2198.00,0.0010
2197.00,0.0010
2196.00,0.0011
2195.00,0.0011
2194.00,0.0012
2193.00,0.0012
2192.00,0.0012
2191.00,0.0012
2190.00,0.0011
2189.00,0.0010
2188.00,0.0009
2187.00,0.0009
2186.00,0.0009
2185.00,0.0009
2184.00,0.0009
2183.00,0.0007
2182.00,0.0005
2181.00,0.0004
2180.00,0.0002
2179.00,0.0001
2178.00,0.0001
2177.00,0.0001
2176.00,0.0000
2175.00,-0.0001
2174.00,-0.0001
2173.00,0.0002
2172.00,0.0008
2171.00,0.0013
2170.00,0.0016
2169.00,0.0017
2168.00,0.0017
2167.00,0.0016
2166.00,0.0016
2165.00,0.0016
2164.00,0.0016
2163.00,0.0016
2162.00,0.0014
2161.00,0.0010
2160.00,0.0003
2159.00,-0.0007
2158.00,-0.0016
2157.00,-0.0021
2156.00,-0.0021
2155.00,-0.0019
2154.00,-0.0017
2153.00,-0.0015
2152.00,-0.0013
2151.00,-0.0012
2150.00,-0.0011
2149.00,-0.0011
2148.00,-0.0011
2147.00,-0.0012
2146.00,-0.0012
2145.00,-0.0011
2144.00,-0.0010
2143.00,-0.0008
2142.00,-0.0007
2141.00,-0.0005
2140.00,-0.0005
2139.00,-0.0005
2138.00,-0.0007
2137.00,-0.0009
2136.00,-0.0010
2135.00,-0.0012
2134.00,-0.0013
2133.00,-0.0014
2132.00,-0.0013
2131.00,-0.0012
2130.00,-0.0010
2129.00,-0.0009
2128.00,-0.0008
2127.00,-0.0007
2126.00,-0.0006
2125.00,-0.0005
2124.00,-0.0004
2123.00,-0.0003
2122.00,-0.0001
2121.00,0.0000
2120.00,0.0001
2119.00,0.0001
2118.00,0.0001
2117.00,0.0001
2116.00,0.0002
2115.00,0.0004
2114.00,0.0005
2113.00,0.0006
2112.00,0.0006
2111.00,0.0005
2110.00,0.0004
2109.00,0.0003
2108.00,0.0003
2107.00,0.0003
2106.00,0.0002
2105.00,0.0001
2104.00,0.0001
2103.00,0.0001
2102.00,0.0003
2101.00,0.0004
2100.00,0.0004
2099.00,0.0003
2098.00,0.0002
2097.00,0.0001
2096.00,0.0000
2095.00,-0.0001
2094.00,-0.0002
2093.00,-0.0001
2092.00,0.0000
2091.00,0.0002
2090.00,0.0003
2089.00,0.0004
2088.00,0.0004
2087.00,0.0003
2086.00,0.0002
2085.00,0.0002
2084.00,0.0002
2083.00,0.0002
2082.00,0.0003
2081.00,0.0003
2080.00,0.0004
2079.00,0.0003
2078.00,0.0003
2077.00,0.0003
2076.00,0.0004
2075.00,0.0005
2074.00,0.0005
2073.00,0.0004
2072.00,0.0003
2071.00,0.0002
2070.00,0.0001
2069.00,0.0000
2068.00,0.0000
2067.00,0.0000
2066.00,0.0001
2065.00,0.0002
2064.00,0.0003
2063.00,0.0004
2062.00,0.0004
2061.00,0.0004
2060.00,0.0004
2059.00,0.0004
2058.00,0.0005
2057.00,0.0007
2056.00,0.0008
2055.00,0.0007
2054.00,0.0007
2053.00,0.0008
2052.00,0.0012
2051.00,0.0016
2050.00,0.0015
2049.00,0.0011
2048.00,0.0006
2047.00,0.0002
2046.00,-0.0000
2045.00,-0.0001
2044.00,-0.0001
2043.00,-0.0002
2042.00,-0.0003
2041.00,-0.0003
2040.00,-0.0001
2039.00,-0.0001
2038.00,-0.0001
2037.00,-0.0002
2036.00,-0.0002
2035.00,-0.0002
2034.00,-0.0003
2033.00,-0.0003
2032.00,-0.0004
2031.00,-0.0003
2030.00,-0.0002
2029.00,-0.0000
2028.00,0.0001
2027.00,0.0000
2026.00,-0.0001
2025.00,-0.0003
2024.00,-0.0005
2023.00,-0.0008
2022.00,-0.0009
2021.00,-0.0010
2020.00,-0.0010
2019.00,-0.0009
2018.00,-0.0008
2017.00,-0.0007
2016.00,-0.0007
2015.00,-0.0007
2014.00,-0.0005
2013.00,-0.0001
2012.00,0.0003
2011.00,0.0004
2010.00,0.0000
2009.00,-0.0005
2008.00,-0.0010
2007.00,-0.0014
2006.00,-0.0015
2005.00,-0.0013
2004.00,-0.0011
2003.00,-0.0010
2002.00,-0.0010
2001.00,-0.0013
2000.00,-0.0015
1999.00,-0.0016
1998.00,-0.0015
1997.00,-0.0012
1996.00,-0.0009
1995.00,-0.0007
1994.00,-0.0006
1993.00,-0.0006
1992.00,-0.0006
1991.00,-0.0004
1990.00,-0.0001
1989.00,0.0002
1988.00,0.0004
1987.00,0.0005
1986.00,0.0006
1985.00,0.0007
1984.00,0.0007
1983.00,0.0007
1982.00,0.0009
1981.00,0.0012
1980.00,0.0013
1979.00,0.0011
1978.00,0.0006
1977.00,-0.0000
1976.00,-0.0004
1975.00,-0.0007
1974.00,-0.0008
1973.00,-0.0007
1972.00,-0.0004
1971.00,-0.0001
1970.00,-0.0001
1969.00,-0.0002
1968.00,-0.0003
1967.00,-0.0004
1966.00,-0.0004
1965.00,-0.0006
1964.00,-0.0007
1963.00,-0.0008
1962.00,-0.0010
1961.00,-0.0011
1960.00,-0.0014
1959.00,-0.0016
1958.00,-0.0017
1957.00,-0.0015
1956.00,-0.0012
1955.00,-0.0009
1954.00,-0.0008
1953.00,-0.0008
1952.00,-0.0010
1951.00,-0.0011
1950.00,-0.0012
1949.00,-0.0013
1948.00,-0.0014
1947.00,-0.0014
1946.00,-0.0014
1945.00,-0.0013
1944.00,-0.0011
1943.00,-0.0011
1942.00,-0.0011
1941.00,-0.0012
1940.00,-0.0013
1939.00,-0.0012
1938.00,-0.0011
1937.00,-0.0010
1936.00,-0.0008
1935.00,-0.0007
1934.00,-0.0006
1933.00,-0.0006
1932.00,-0.0006
1931.00,-0.0005
1930.00,-0.0004
1929.00,-0.0003
1928.00,-0.0002
1927.00,-0.0003
1926.00,-0.0003
1925.00,-0.0002
1924.00,-0.0002
1923.00,-0.0001
1922.00,-0.0001
1921.00,-0.0001
1920.00,-0.0001
1919.00,-0.0001
1918.00,-0.0001
1917.00,-0.0001
1916.00,-0.0000
1915.00,0.0000
1914.00,0.0001
1913.00,0.0000
1912.00,-0.0000
1911.00,-0.0000
1910.00,0.0000
1909.00,0.0001
1908.00,0.0002
1907.00,0.0002
1906.00,0.0002
1905.00,0.0002
1904.00,0.0002
1903.00,0.0002
1902.00,0.0001
1901.00,0.0001
1900.00,0.0001
1899.00,0.0001
1898.00,0.0001
1897.00,0.0002
1896.00,0.0002
1895.00,0.0002
1894.00,0.0002
1893.00,0.0002
1892.00,0.0002
1891.00,0.0001
1890.00,0.0001
1889.00,0.0001
1888.00,0.0002
1887.00,0.0002
1886.00,0.0001
1885.00,0.0001
1884.00,0.0000
1883.00,-0.0001
1882.00,-0.0001
1881.00,-0.0001
1880.00,-0.0000
1879.00,0.0000
1878.00,0.0000
1877.00,-0.0000
1876.00,-0.0001
1875.00,-0.0001
1874.00,-0.0000
1873.00,0.0001
1872.00,0.0001
1871.00,0.0001
1870.00,0.0001
1869.00,0.0001
1868.00,0.0002
1867.00,0.0002
1866.00,0.0002
1865.00,0.0002
1864.00,0.0002
1863.00,0.0001
1862.00,0.0001
1861.00,0.0002
1860.00,0.0003
1859.00,0.0003
1858.00,0.0003
1857.00,0.0002
1856.00,0.0002
1855.00,0.0002
1854.00,0.0003
1853.00,0.0003
1852.00,0.0003
1851.00,0.0003
1850.00,0.0003
1849.00,0.0003
1848.00,0.0003
1847.00,0.0004
1846.00,0.0004
1845.00,0.0005
1844.00,0.0005
1843.00,0.0005
1842.00,0.0004
1841.00,0.0003
1840.00,0.0003
1839.00,0.0003
1838.00,0.0004
1837.00,0.0004
1836.00,0.0005
1835.00,0.0005
1834.00,0.0005
1833.00,0.0005
1832.00,0.0005
1831.00,0.0005
1830.00,0.0004
1829.00,0.0004
1828.00,0.0005
1827.00,0.0005
1826.00,0.0005
1825.00,0.0005
1824.00,0.0005
1823.00,0.0005
1822.00,0.0004
1821.00,0.0004
1820.00,0.0004
1819.00,0.0003
1818.00,0.0003
1817.00,0.0003
1816.00,0.0003
1815.00,0.0004
1814.00,0.0004
1813.00,0.0004
1812.00,0.0004
1811.00,0.0004
1810.00,0.0004
1809.00,0.0005
1808.00,0.0005
1807.00,0.0006
1806.00,0.0006
1805.00,0.0007
1804.00,0.0007
1803.00,0.0007
1802.00,0.0007
1801.00,0.0007
1800.00,0.0007
1799.00,0.0007
1798.00,0.0007
1797.00,0.0007
1796.00,0.0007
1795.00,0.0006
1794.00,0.0006
1793.00,0.0006
1792.00,0.0008
1791.00,0.0009
1790.00,0.0009
1789.00,0.0010
1788.00,0.0010
1787.00,0.0010
1786.00,0.0010
1785.00,0.0010
1784.00,0.0009
1783.00,0.0010
1782.00,0.0010
1781.00,0.0010
1780.00,0.0010
1779.00,0.0010
1778.00,0.0010
1777.00,0.0010
1776.00,0.0010
1775.00,0.0010
1774.00,0.0010
1773.00,0.0010
1772.00,0.0011
1771.00,0.0012
1770.00,0.0012
1769.00,0.0013
1768.00,0.0013
1767.00,0.0012
1766.00,0.0012
1765.00,0.0012
1764.00,0.0012
1763.00,0.0012
1762.00,0.0013
1761.00,0.0013
1760.00,0.0013
1759.00,0.0014
1758.00,0.0014
1757.00,0.0014
1756.00,0.0015
1755.00,0.0015
1754.00,0.0016
1753.00,0.0016
1752.00,0.0017
1751.00,0.0017
1750.00,0.0018
1749.00,0.0018
1748.00,0.0019
1747.00,0.0019
1746.00,0.0019
1745.00,0.0020
1744.00,0.0021
1743.00,0.0021
1742.00,0.0022
1741.00,0.0022
1740.00,0.0023
1739.00,0.0023
1738.00,0.0024
1737.00,0.0025
1736.00,0.0026
1735.00,0.0026
1734.00,0.0025
1733.00,0.0025
1732.00,0.0025
1731.00,0.0025
1730.00,0.0025
1729.00,0.0025
1728.00,0.0025
1727.00,0.0025
1726.00,0.0026
1725.00,0.0026
1724.00,0.0026
1723.00,0.0026
1722.00,0.0026
1721.00,0.0026
1720.00,0.0026
1719.00,0.0025
1718.00,0.0024
1717.00,0.0024
1716.00,0.0024
1715.00,0.0025
1714.00,0.0025
1713.00,0.0025
1712.00,0.0025
1711.00,0.0024
1710.00,0.0024
1709.00,0.0024
1708.00,0.0024
1707.00,0.0024
1706.00,0.0025
1705.00,0.0025
1704.00,0.0026
1703.00,0.0027
1702.00,0.0027
1701.00,0.0027
1700.00,0.0028
1699.00,0.0028
1698.00,0.0028
1697.00,0.0029
1696.00,0.0030
1695.00,0.0031
1694.00,0.0031
1693.00,0.0032
1692.00,0.0032
1691.00,0.0032
1690.00,0.0032
1689.00,0.0033
1688.00,0.0035
1687.00,0.0036
1686.00,0.0037
1685.00,0.0037
1684.00,0.0038
1683.00,0.0039
1682.00,0.0040
1681.00,0.0041
1680.00,0.0041
1679.00,0.0042
1678.00,0.0043
1677.00,0.0044
1676.00,0.0046
1675.00,0.0046
1674.00,0.0046
1673.00,0.0046
1672.00,0.0046
1671.00,0.0046
1670.00,0.0047
1669.00,0.0047
1668.00,0.0048
1667.00,0.0049
1666.00,0.0049
1665.00,0.0049
1664.00,0.0050
1663.00,0.0051
1662.00,0.0051
1661.00,0.0051
1660.00,0.0052
1659.00,0.0052
1658.00,0.0053
1657.00,0.0054
1656.00,0.0056
1655.00,0.0058
1654.00,0.0059
1653.00,0.0062
1652.00,0.0063
1651.00,0.0064
1650.00,0.0065
1649.00,0.0067
1648.00,0.0069
1647.00,0.0071
1646.00,0.0072
1645.00,0.0073
1644.00,0.0073
1643.00,0.0072
1642.00,0.0071
1641.00,0.0071
1640.00,0.0072
1639.00,0.0073
1638.00,0.0074
1637.00,0.0075
1636.00,0.0076
1635.00,0.0076
1634.00,0.0076
1633.00,0.0076
1632.00,0.0075
1631.00,0.0075
1630.00,0.0075
1629.00,0.0074
1628.00,0.0074
1627.00,0.0073
1626.00,0.0073
1625.00,0.0073
1624.00,0.0072
1623.00,0.0071
1622.00,0.0070
1621.00,0.0070
1620.00,0.0070
1619.00,0.0070
1618.00,0.0069
1617.00,0.0068
1616.00,0.0068
1615.00,0.0068
1614.00,0.0067
1613.00,0.0067
1612.00,0.0066
1611.00,0.0065
1610.00,0.0064
1609.00,0.0064
1608.00,0.0065
1607.00,0.0065
1606.00,0.0066
1605.00,0.0066
1604.00,0.0067
1603.00,0.0067
1602.00,0.0067
1601.00,0.0067
1600.00,0.0068
1599.00,0.0068
1598.00,0.0068
1597.00,0.0069
1596.00,0.0070
1595.00,0.0071
1594.00,0.0072
1593.00,0.0073
1592.00,0.0075
1591.00,0.0077
1590.00,0.0080
1589.00,0.0083
1588.00,0.0086
1587.00,0.0090
1586.00,0.0095
1585.00,0.0101
1584.00,0.0108
1583.00,0.0116
1582.00,0.0125
1581.00,0.0134
1580.00,0.0142
1579.00,0.0149
1578.00,0.0154
1577.00,0.0155
1576.00,0.0153
1575.00,0.0149
1574.00,0.0145
1573.00,0.0140
1572.00,0.0136
1571.00,0.0129
1570.00,0.0121
1569.00,0.0114
1568.00,0.0108
1567.00,0.0104
1566.00,0.0101
1565.00,0.0098
1564.00,0.0097
1563.00,0.0096
1562.00,0.0096
1561.00,0.0096
1560.00,0.0095
1559.00,0.0094
1558.00,0.0094
1557.00,0.0094
1556.00,0.0094
1555.00,0.0095
1554.00,0.0097
1553.00,0.0099
1552.00,0.0103
1551.00,0.0107
1550.00,0.0112
1549.00,0.0117
1548.00,0.0123
1547.00,0.0129
1546.00,0.0138
1545.00,0.0148
1544.00,0.0158
1543.00,0.0167
1542.00,0.0173
1541.00,0.0175
1540.00,0.0171
1539.00,0.0163
1538.00,0.0153
1537.00,0.0145
1536.00,0.0138
1535.00,0.0128
1534.00,0.0116
1533.00,0.0105
1532.00,0.0098
1531.00,0.0093
1530.00,0.0089
1529.00,0.0086
1528.00,0.0083
1527.00,0.0081
1526.00,0.0078
1525.00,0.0077
1524.00,0.0076
1523.00,0.0076
1522.00,0.0076
1521.00,0.0077
1520.00,0.0077
1519.00,0.0077
1518.00,0.0076
1517.00,0.0077
1516.00,0.0077
1515.00,0.0076
1514.00,0.0076
1513.00,0.0076
1512.00,0.0077
1511.00,0.0078
1510.00,0.0078
1509.00,0.0079
1508.00,0.0081
1507.00,0.0081
1506.00,0.0082
1505.00,0.0082
1504.00,0.0082
1503.00,0.0083
1502.00,0.0085
1501.00,0.0087
1500.00,0.0090
1499.00,0.0093
1498.00,0.0095
1497.00,0.0099
1496.00,0.0103
1495.00,0.0106
1494.00,0.0109
1493.00,0.0113
1492.00,0.0117
1491.00,0.0122
1490.00,0.0128
1489.00,0.0136
1488.00,0.0145
1487.00,0.0152
1486.00,0.0159
1485.00,0.0169
1484.00,0.0180
1483.00,0.0192
1482.00,0.0206
1481.00,0.0223
1480.00,0.0240
1479.00,0.0257
1478.00,0.0276
1477.00,0.0299
1476.00,0.0326
1475.00,0.0356
1474.00,0.0395
1473.00,0.0451
1472.00,0.0516
1471.00,0.0579
1470.00,0.0640
1469.00,0.0704
1468.00,0.0774
1467.00,0.0851
1466.00,0.0938
1465.00,0.1032
1464.00,0.1112
1463.00,0.1166
1462.00,0.1199
1461.00,0.1219
1460.00,0.1231
1459.00,0.1235
1458.00,0.1234
1457.00,0.1229
1456.00,0.1218
1455.00,0.1203
1454.00,0.1185
1453.00,0.1163
1452.00,0.1132
1451.00,0.1089
1450.00,0.1034
1449.00,0.0960
1448.00,0.0870
1447.00,0.0776
1446.00,0.0694
1445.00,0.0626
1444.00,0.0569
1443.00,0.0523
1442.00,0.0489
1441.00,0.0467
1440.00,0.0456
1439.00,0.0454
1438.00,0.0461
1437.00,0.0469
1436.00,0.0466
1435.00,0.0444
1434.00,0.0408
1433.00,0.0364
1432.00,0.0318
1431.00,0.0276
1430.00,0.0244
1429.00,0.0220
1428.00,0.0204
1427.00,0.0195
1426.00,0.0189
1425.00,0.0184
1424.00,0.0180
1423.00,0.0178
1422.00,0.0178
1421.00,0.0176
1420.00,0.0172
1419.00,0.0168
1418.00,0.0164
1417.00,0.0159
1416.00,0.0154
1415.00,0.0150
1414.00,0.0147
1413.00,0.0144
1412.00,0.0140
1411.00,0.0138
1410.00,0.0136
1409.00,0.0134
1408.00,0.0132
1407.00,0.0130
1406.00,0.0129
1405.00,0.0127
1404.00,0.0124
1403.00,0.0123
1402.00,0.0123
1401.00,0.0123
1400.00,0.0123
1399.00,0.0124
1398.00,0.0126
1397.00,0.0127
1396.00,0.0127
1395.00,0.0130
1394.00,0.0133
1393.00,0.0137
1392.00,0.0142
1391.00,0.0149
1390.00,0.0158
1389.00,0.0171
1388.00,0.0190
1387.00,0.0220
1386.00,0.0260
1385.00,0.0313
1384.00,0.0388
1383.00,0.0496
1382.00,0.0646
1381.00,0.0845
1380.00,0.1099
1379.00,0.1396
1378.00,0.1688
1377.00,0.1908
1376.00,0.1988
1375.00,0.1892
1374.00,0.1651
1373.00,0.1356
1372.00,0.1087
1371.00,0.0866
1370.00,0.0692
1369.00,0.0561
1368.00,0.0472
1367.00,0.0417
1366.00,0.0388
1365.00,0.0377
1364.00,0.0380
1363.00,0.0395
1362.00,0.0418
1361.00,0.0443
1360.00,0.0462
1359.00,0.0468
1358.00,0.0458
1357.00,0.0432
1356.00,0.0394
1355.00,0.0352
1354.00,0.0312
1353.00,0.0277
1352.00,0.0249
1351.00,0.0226
1350.00,0.0208
1349.00,0.0193
1348.00,0.0181
1347.00,0.0171
1346.00,0.0162
1345.00,0.0154
1344.00,0.0147
1343.00,0.0142
1342.00,0.0139
1341.00,0.0136
1340.00,0.0134
1339.00,0.0132
1338.00,0.0132
1337.00,0.0132
1336.00,0.0132
1335.00,0.0134
1334.00,0.0137
1333.00,0.0141
1332.00,0.0145
1331.00,0.0149
1330.00,0.0149
1329.00,0.0148
1328.00,0.0144
1327.00,0.0138
1326.00,0.0133
1325.00,0.0127
1324.00,0.0121
1323.00,0.0117
1322.00,0.0113
1321.00,0.0111
1320.00,0.0108
1319.00,0.0107
1318.00,0.0105
1317.00,0.0103
1316.00,0.0101
1315.00,0.0100
1314.00,0.0099
1313.00,0.0099
1312.00,0.0100
1311.00,0.0101
1310.00,0.0104
1309.00,0.0108
1308.00,0.0114
1307.00,0.0122
1306.00,0.0129
1305.00,0.0134
1304.00,0.0136
1303.00,0.0136
1302.00,0.0134
1301.00,0.0133
1300.00,0.0133
1299.00,0.0135
1298.00,0.0137
1297.00,0.0138
1296.00,0.0137
1295.00,0.0135
1294.00,0.0131
1293.00,0.0126
1292.00,0.0121
1291.00,0.0115
1290.00,0.0111
1289.00,0.0107
1288.00,0.0103
1287.00,0.0100
1286.00,0.0097
1285.00,0.0094
1284.00,0.0092
1283.00,0.0090
1282.00,0.0089
1281.00,0.0088
1280.00,0.0087
1279.00,0.0087
1278.00,0.0086
1277.00,0.0085
1276.00,0.0084
1275.00,0.0083
1274.00,0.0082
1273.00,0.0082
1272.00,0.0081
1271.00,0.0082
1270.00,0.0083
1269.00,0.0083
1268.00,0.0084
1267.00,0.0085
1266.00,0.0087
1265.00,0.0089
1264.00,0.0091
1263.00,0.0093
1262.00,0.0095
1261.00,0.0098
1260.00,0.0102
1259.00,0.0106
1258.00,0.0111
1257.00,0.0114
1256.00,0.0115
1255.00,0.0114
1254.00,0.0109
1253.00,0.0103
1252.00,0.0098
1251.00,0.0094
1250.00,0.0091
1249.00,0.0089
1248.00,0.0087
1247.00,0.0086
1246.00,0.0085
1245.00,0.0084
1244.00,0.0084
1243.00,0.0083
1242.00,0.0083
1241.00,0.0082
1240.00,0.0082
1239.00,0.0082
1238.00,0.0083
1237.00,0.0084
1236.00,0.0085
1235.00,0.0087
1234.00,0.0088
1233.00,0.0090
1232.00,0.0091
1231.00,0.0093
1230.00,0.0095
1229.00,0.0097
1228.00,0.0099
1227.00,0.0102
1226.00,0.0104
1225.00,0.0108
1224.00,0.0111
1223.00,0.0116
1222.00,0.0121
1221.00,0.0124
1220.00,0.0127
1219.00,0.0129
1218.00,0.0129
1217.00,0.0128
1216.00,0.0125
1215.00,0.0121
1214.00,0.0117
1213.00,0.0114
1212.00,0.0110
1211.00,0.0108
1210.00,0.0106
1209.00,0.0104
1208.00,0.0103
1207.00,0.0102
1206.00,0.0101
1205.00,0.0101
1204.00,0.0101
1203.00,0.0100
1202.00,0.0100
1201.00,0.0100
1200.00,0.0100
1199.00,0.0101
1198.00,0.0102
1197.00,0.0102
1196.00,0.0103
1195.00,0.0103
1194.00,0.0103
1193.00,0.0103
1192.00,0.0102
1191.00,0.0101
1190.00,0.0100
1189.00,0.0098
1188.00,0.0097
1187.00,0.0096
1186.00,0.0096
1185.00,0.0096
1184.00,0.0096
1183.00,0.0097
1182.00,0.0097
1181.00,0.0098
1180.00,0.0099
1179.00,0.0101
1178.00,0.0105
1177.00,0.0110
1176.00,0.0116
1175.00,0.0126
1174.00,0.0138
1173.00,0.0153
1172.00,0.0172
1171.00,0.0193
1170.00,0.0213
1169.00,0.0229
1168.00,0.0239
1167.00,0.0241
1166.00,0.0236
1165.00,0.0227
1164.00,0.0217
1163.00,0.0206
1162.00,0.0197
1161.00,0.0189
1160.00,0.0184
1159.00,0.0180
1158.00,0.0178
1157.00,0.0178
1156.00,0.0178
1155.00,0.0178
1154.00,0.0178
1153.00,0.0176
1152.00,0.0173
1151.00,0.0168
1150.00,0.0160
1149.00,0.0152
1148.00,0.0143
1147.00,0.0135
1146.00,0.0128
1145.00,0.0121
1144.00,0.0115
1143.00,0.0109
1142.00,0.0104
1141.00,0.0100
1140.00,0.0096
1139.00,0.0093
1138.00,0.0090
1137.00,0.0088
1136.00,0.0086
1135.00,0.0084
1134.00,0.0084
1133.00,0.0083
1132.00,0.0083
1131.00,0.0084
1130.00,0.0085
1129.00,0.0086
1128.00,0.0088
1127.00,0.0089
1126.00,0.0090
1125.00,0.0091
1124.00,0.0093
1123.00,0.0094
1122.00,0.0094
1121.00,0.0094
1120.00,0.0095
1119.00,0.0095
1118.00,0.0096
1117.00,0.0098
1116.00,0.0100
1115.00,0.0102
1114.00,0.0104
1113.00,0.0105
1112.00,0.0107
1111.00,0.0109
1110.00,0.0111
1109.00,0.0115
1108.00,0.0119
1107.00,0.0124
1106.00,0.0130
1105.00,0.0136
1104.00,0.0141
1103.00,0.0144
1102.00,0.0144
1101.00,0.0141
1100.00,0.0134
1099.00,0.0126
1098.00,0.0118
1097.00,0.0111
1096.00,0.0105
1095.00,0.0100
1094.00,0.0097
1093.00,0.0094
1092.00,0.0092
1091.00,0.0090
1090.00,0.0088
1089.00,0.0087
1088.00,0.0085
1087.00,0.0085
1086.00,0.0084
1085.00,0.0084
1084.00,0.0083
1083.00,0.0082
1082.00,0.0082
1081.00,0.0082
1080.00,0.0081
1079.00,0.0080
1078.00,0.0079
1077.00,0.0078
1076.00,0.0077
1075.00,0.0076
1074.00,0.0076
1073.00,0.0075
1072.00,0.0075
1071.00,0.0075
1070.00,0.0076
1069.00,0.0076
1068.00,0.0077
1067.00,0.0079
1066.00,0.0080
1065.00,0.0081
1064.00,0.0082
1063.00,0.0082
1062.00,0.0083
1061.00,0.0084
1060.00,0.0084
1059.00,0.0085
1058.00,0.0087
1057.00,0.0088
1056.00,0.0090
1055.00,0.0091
1054.00,0.0093
1053.00,0.0096
1052.00,0.0099
1051.00,0.0103
1050.00,0.0107
1049.00,0.0111
1048.00,0.0115
1047.00,0.0119
1046.00,0.0122
1045.00,0.0125
1044.00,0.0127
1043.00,0.0127
1042.00,0.0127
1041.00,0.0127
1040.00,0.0128
1039.00,0.0131
1038.00,0.0134
1037.00,0.0137
1036.00,0.0138
1035.00,0.0137
1034.00,0.0135
1033.00,0.0132
1032.00,0.0128
1031.00,0.0125
1030.00,0.0124
1029.00,0.0123
1028.00,0.0123
1027.00,0.0123
1026.00,0.0124
1025.00,0.0125
1024.00,0.0126
1023.00,0.0128
1022.00,0.0130
1021.00,0.0132
1020.00,0.0134
1019.00,0.0136
1018.00,0.0136
1017.00,0.0137
1016.00,0.0139
1015.00,0.0141
1014.00,0.0143
1013.00,0.0145
1012.00,0.0147
1011.00,0.0147
1010.00,0.0146
1009.00,0.0143
1008.00,0.0141
1007.00,0.0140
1006.00,0.0143
1005.00,0.0148
1004.00,0.0158
1003.00,0.0171
1002.00,0.0190
1001.00,0.0213
1000.00,0.0237
999.00,0.0256
998.00,0.0264
997.00,0.0258
996.00,0.0238
995.00,0.0212
994.00,0.0185
993.00,0.0161
992.00,0.0142
991.00,0.0128
990.00,0.0119
989.00,0.0112
988.00,0.0108
987.00,0.0107
986.00,0.0107
985.00,0.0108
984.00,0.0112
983.00,0.0117
982.00,0.0125
981.00,0.0138
980.00,0.0155
979.00,0.0178
978.00,0.0205
977.00,0.0236
976.00,0.0268
975.00,0.0295
974.00,0.0312
973.00,0.0315
972.00,0.0300
971.00,0.0272
970.00,0.0236
969.00,0.0199
968.00,0.0168
967.00,0.0145
966.00,0.0128
965.00,0.0116
964.00,0.0107
963.00,0.0099
962.00,0.0094
961.00,0.0090
960.00,0.0087
959.00,0.0084
958.00,0.0081
957.00,0.0077
956.00,0.0075
955.00,0.0074
954.00,0.0073
953.00,0.0072
952.00,0.0071
951.00,0.0070
950.00,0.0070
949.00,0.0070
948.00,0.0070
947.00,0.0071
946.00,0.0072
945.00,0.0075
944.00,0.0080
943.00,0.0085
942.00,0.0089
941.00,0.0091
940.00,0.0091
939.00,0.0088
938.00,0.0084
937.00,0.0079
936.00,0.0075
935.00,0.0071
934.00,0.0068
933.00,0.0067
932.00,0.0066
931.00,0.0067
930.00,0.0067
929.00,0.0066
928.00,0.0065
927.00,0.0064
926.00,0.0063
925.00,0.0063
924.00,0.0063
923.00,0.0064
922.00,0.0065
921.00,0.0065
920.00,0.0065
919.00,0.0065
918.00,0.0065
917.00,0.0065
916.00,0.0065
915.00,0.0066
914.00,0.0067
913.00,0.0069
912.00,0.0071
911.00,0.0073
910.00,0.0075
909.00,0.0078
908.00,0.0083
907.00,0.0088
906.00,0.0096
905.00,0.0107
904.00,0.0122
903.00,0.0140
902.00,0.0161
901.00,0.0180
900.00,0.0192
899.00,0.0194
898.00,0.0185
897.00,0.0168
896.00,0.0147
895.00,0.0128
894.00,0.0112
893.00,0.0101
892.00,0.0093
891.00,0.0088
890.00,0.0084
889.00,0.0081
888.00,0.0079
887.00,0.0078
886.00,0.0077
885.00,0.0077
884.00,0.0077
883.00,0.0076
882.00,0.0076
881.00,0.0077
880.00,0.0078
879.00,0.0079
878.00,0.0081
877.00,0.0082
876.00,0.0083
875.00,0.0083
874.00,0.0082
873.00,0.0081
872.00,0.0080
871.00,0.0079
870.00,0.0079
869.00,0.0078
868.00,0.0078
867.00,0.0078
866.00,0.0078
865.00,0.0079
864.00,0.0080
863.00,0.0081
862.00,0.0083
861.00,0.0085
860.00,0.0086
859.00,0.0088
858.00,0.0089
857.00,0.0089
856.00,0.0089
855.00,0.0089
854.00,0.0090
853.00,0.0092
852.00,0.0095
851.00,0.0098
850.00,0.0100
849.00,0.0103
848.00,0.0109
847.00,0.0118
846.00,0.0132
845.00,0.0153
844.00,0.0181
843.00,0.0213
842.00,0.0238
841.00,0.0244
840.00,0.0229
839.00,0.0199
838.00,0.0166
837.00,0.0141
836.00,0.0125
835.00,0.0116
834.00,0.0111
833.00,0.0108
832.00,0.0105
831.00,0.0102
830.00,0.0100
829.00,0.0100
828.00,0.0099
827.00,0.0098
826.00,0.0097
825.00,0.0096
824.00,0.0096
823.00,0.0097
822.00,0.0098
821.00,0.0100
820.00,0.0103
819.00,0.0106
818.00,0.0110
817.00,0.0117
816.00,0.0125
815.00,0.0137
814.00,0.0154
813.00,0.0174
812.00,0.0197
811.00,0.0218
810.00,0.0234
809.00,0.0240
808.00,0.0236
807.00,0.0222
806.00,0.0202
805.00,0.0181
804.00,0.0161
803.00,0.0144
802.00,0.0131
801.00,0.0122
800.00,0.0116
799.00,0.0112
798.00,0.0108
797.00,0.0103
796.00,0.0099
795.00,0.0096
794.00,0.0094
793.00,0.0093
792.00,0.0092
791.00,0.0090
790.00,0.0088
789.00,0.0086
788.00,0.0083
787.00,0.0080
786.00,0.0077
785.00,0.0075
784.00,0.0074
783.00,0.0074
782.00,0.0072
781.00,0.0071
780.00,0.0070
779.00,0.0071
778.00,0.0073
777.00,0.0074
776.00,0.0074
775.00,0.0074
774.00,0.0073
773.00,0.0073
772.00,0.0073
771.00,0.0074
770.00,0.0074
769.00,0.0074
768.00,0.0073
767.00,0.0074
766.00,0.0075
765.00,0.0076
764.00,0.0076
763.00,0.0075
762.00,0.0075
761.00,0.0075
760.00,0.0077
759.00,0.0078
758.00,0.0079
757.00,0.0080
756.00,0.0081
755.00,0.0082
754.00,0.0083
753.00,0.0084
752.00,0.0084
751.00,0.0084
750.00,0.0083
749.00,0.0084
748.00,0.0085
747.00,0.0088
746.00,0.0091
745.00,0.0094
744.00,0.0097
743.00,0.0099
742.00,0.0102
741.00,0.0105
740.00,0.0108
739.00,0.0111
738.00,0.0115
737.00,0.0120
736.00,0.0125
735.00,0.0131
734.00,0.0137
733.00,0.0143
732.00,0.0151
731.00,0.0159
730.00,0.0166
729.00,0.0170
728.00,0.0172
727.00,0.0172
726.00,0.0172
725.00,0.0175
724.00,0.0181
723.00,0.0188
722.00,0.0195
721.00,0.0199
720.00,0.0196
719.00,0.0186
718.00,0.0171
717.00,0.0157
716.00,0.0146
715.00,0.0139
714.00,0.0134
713.00,0.0129
712.00,0.0125
711.00,0.0122
710.00,0.0120
709.00,0.0119
708.00,0.0119
707.00,0.0119
706.00,0.0119
705.00,0.0117
704.00,0.0115
703.00,0.0113
702.00,0.0111
701.00,0.0108
700.00,0.0106
699.00,0.0105
698.00,0.0106
697.00,0.0107
696.00,0.0108
695.00,0.0107
694.00,0.0107
693.00,0.0107
692.00,0.0107
691.00,0.0109
690.00,0.0111
689.00,0.0112
688.00,0.0111
687.00,0.0110
686.00,0.0110
685.00,0.0109
684.00,0.0108
683.00,0.0107
682.00,0.0108
681.00,0.0110
680.00,0.0112
679.00,0.0114
678.00,0.0117
677.00,0.0119
676.00,0.0119
675.00,0.0118
674.00,0.0118
673.00,0.0119
672.00,0.0121
671.00,0.0124
670.00,0.0127
669.00,0.0130
668.00,0.0131
667.00,0.0130
666.00,0.0125
665.00,0.0119
664.00,0.0114
663.00,0.0111
662.00,0.0109
661.00,0.0109
660.00,0.0108
659.00,0.0106
658.00,0.0104
657.00,0.0100
656.00,0.0097
655.00,0.0095
654.00,0.0094
653.00,0.0095
652.00,0.0096
651.00,0.0096
650.00,0.0096
649.00,0.0096
648.00,0.0097
647.00,0.0098
646.00,0.0099
645.00,0.0099
644.00,0.0099
643.00,0.0098
642.00,0.0097
641.00,0.0096
640.00,0.0096
639.00,0.0097
638.00,0.0099
637.00,0.0098
636.00,0.0096
635.00,0.0094
634.00,0.0093
633.00,0.0095
632.00,0.0098
631.00,0.0102
630.00,0.0103
629.00,0.0102
628.00,0.0100
627.00,0.0099
626.00,0.0099
625.00,0.0099
624.00,0.0098
623.00,0.0097
622.00,0.0095
621.00,0.0094
620.00,0.0093
619.00,0.0092
618.00,0.0093
617.00,0.0094
616.00,0.0097
615.00,0.0099
614.00,0.0099
613.00,0.0099
612.00,0.0098
611.00,0.0096
610.00,0.0096
609.00,0.0096
608.00,0.0097
607.00,0.0097
606.00,0.0097
605.00,0.0096
604.00,0.0094
603.00,0.0092
602.00,0.0092
601.00,0.0094
600.00,0.0096
599.00,0.0096
598.00,0.0095
597.00,0.0093
596.00,0.0092
595.00,0.0090
594.00,0.0089
593.00,0.0087
592.00,0.0087
591.00,0.0089
590.00,0.0092
589.00,0.0093
588.00,0.0091
587.00,0.0087
586.00,0.0084
585.00,0.0084
584.00,0.0089
583.00,0.0095
582.00,0.0099
581.00,0.0100
580.00,0.0100
579.00,0.0099
578.00,0.0097
577.00,0.0096
576.00,0.0096
575.00,0.0096
574.00,0.0096
573.00,0.0093
572.00,0.0090
571.00,0.0089
570.00,0.0088
569.00,0.0088
568.00,0.0088
567.00,0.0089
566.00,0.0091
565.00,0.0093
564.00,0.0092
563.00,0.0091
562.00,0.0090
561.00,0.0090
560.00,0.0092
559.00,0.0095
558.00,0.0098
557.00,0.0097
556.00,0.0095
555.00,0.0092
554.00,0.0089
553.00,0.0088
552.00,0.0089
551.00,0.0093
550.00,0.0096
549.00,0.0097
548.00,0.0095
547.00,0.0094
546.00,0.0093
545.00,0.0094
544.00,0.0095
543.00,0.0097
542.00,0.0100
541.00,0.0106
540.00,0.0112
539.00,0.0115
538.00,0.0116
537.00,0.0115
536.00,0.0114
535.00,0.0114
534.00,0.0117
533.00,0.0121
532.00,0.0123
531.00,0.0121
530.00,0.0118
529.00,0.0114
528.00,0.0113
527.00,0.0113
526.00,0.0113
525.00,0.0112
524.00,0.0110
523.00,0.0109
522.00,0.0109
521.00,0.0109
520.00,0.0110
519.00,0.0110
518.00,0.0107
517.00,0.0102
516.00,0.0097
515.00,0.0093
514.00,0.0089
513.00,0.0085
512.00,0.0082
511.00,0.0081
510.00,0.0081
509.00,0.0081
508.00,0.0083
507.00,0.0086
506.00,0.0089
505.00,0.0090
504.00,0.0091
503.00,0.0094
502.00,0.0096
501.00,0.0096
500.00,0.0093
499.00,0.0090
498.00,0.0091
497.00,0.0093
496.00,0.0095
495.00,0.0097
494.00,0.0099
493.00,0.0099
492.00,0.0096
491.00,0.0092
490.00,0.0089
489.00,0.0086
488.00,0.0084
487.00,0.0084
486.00,0.0085
485.00,0.0089
484.00,0.0096
483.00,0.0105
482.00,0.0115
481.00,0.0122
480.00,0.0122
479.00,0.0114
478.00,0.0104
477.00,0.0097
476.00,0.0100
475.00,0.0113
474.00,0.0130
473.00,0.0142
472.00,0.0148
471.00,0.0148
470.00,0.0146
469.00,0.0144
468.00,0.0147
467.00,0.0160
466.00,0.0179
465.00,0.0192
464.00,0.0195
463.00,0.0188
462.00,0.0183
461.00,0.0186
460.00,0.0199
459.00,0.0216
458.00,0.0231
457.00,0.0234
456.00,0.0224
455.00,0.0210
454.00,0.0199
453.00,0.0194
452.00,0.0193
451.00,0.0187
450.00,0.0174
