Created as New Dataset,Sample 033 By Administrator Date Wednesday, September 03 2025
cm-1,A
4000.00,0.0008
3999.00,0.0009
3998.00,0.0009
3997.00,0.0009
3996.00,0.0009
3995.00,0.0009
3994.00,0.0009
3993.00,0.0009
3992.00,0.0009
3991.00,0.0009
3990.00,0.0009
3989.00,0.0008
3988.00,0.0008
3987.00,0.0008
3986.00,0.0008
3985.00,0.0008
3984.00,0.0008
3983.00,0.0008
3982.00,0.0008
3981.00,0.0008
3980.00,0.0009
3979.00,0.0009
3978.00,0.0009
3977.00,0.0009
3976.00,0.0008
3975.00,0.0008
3974.00,0.0007
3973.00,0.0007
3972.00,0.0007
3971.00,0.0007
3970.00,0.0007
3969.00,0.0007
3968.00,0.0007
3967.00,0.0007
3966.00,0.0007
3965.00,0.0007
3964.00,0.0007
3963.00,0.0007
3962.00,0.0007
3961.00,0.0007
3960.00,0.0006
3959.00,0.0007
3958.00,0.0007
3957.00,0.0007
3956.00,0.0007
3955.00,0.0007
3954.00,0.0007
3953.00,0.0007
3952.00,0.0007
3951.00,0.0007
3950.00,0.0007
3949.00,0.0007
3948.00,0.0007
3947.00,0.0007
3946.00,0.0007
3945.00,0.0008
3944.00,0.0008
3943.00,0.0008
3942.00,0.0008
3941.00,0.0008
3940.00,0.0008
3939.00,0.0008
3938.00,0.0007
3937.00,0.0007
3936.00,0.0007
3935.00,0.0007
3934.00,0.0007
3933.00,0.0007
3932.00,0.0007
3931.00,0.0008
3930.00,0.0008
3929.00,0.0008
3928.00,0.0008
3927.00,0.0007
3926.00,0.0007
3925.00,0.0007
3924.00,0.0007
3923.00,0.0007
3922.00,0.0007
3921.00,0.0008
3920.00,0.0007
3919.00,0.0007
3918.00,0.0007
3917.00,0.0007
3916.00,0.0007
3915.00,0.0007
3914.00,0.0007
3913.00,0.0007
3912.00,0.0007
3911.00,0.0007
3910.00,0.0007
3909.00,0.0007
3908.00,0.0007
3907.00,0.0007
3906.00,0.0007
3905.00,0.0007
3904.00,0.0007
3903.00,0.0007
3902.00,0.0007
3901.00,0.0007
3900.00,0.0007
3899.00,0.0007
3898.00,0.0007
3897.00,0.0007
3896.00,0.0007
3895.00,0.0007
3894.00,0.0006
3893.00,0.0006
3892.00,0.0006
3891.00,0.0006
3890.00,0.0006
3889.00,0.0007
3888.00,0.0007
3887.00,0.0007
3886.00,0.0008
3885.00,0.0008
3884.00,0.0008
3883.00,0.0008
3882.00,0.0008
3881.00,0.0008
3880.00,0.0008
3879.00,0.0007
3878.00,0.0007
3877.00,0.0007
3876.00,0.0007
3875.00,0.0007
3874.00,0.0006
3873.00,0.0006
3872.00,0.0006
3871.00,0.0006
3870.00,0.0006
3869.00,0.0006
3868.00,0.0006
3867.00,0.0007
3866.00,0.0006
3865.00,0.0006
3864.00,0.0005
3863.00,0.0005
3862.00,0.0005
3861.00,0.0005
3860.00,0.0006
3859.00,0.0006
3858.00,0.0006
3857.00,0.0007
3856.00,0.0006
3855.00,0.0006
3854.00,0.0006
3853.00,0.0006
3852.00,0.0006
3851.00,0.0007
3850.00,0.0007
3849.00,0.0007
3848.00,0.0007
3847.00,0.0007
3846.00,0.0006
3845.00,0.0006
3844.00,0.0006
3843.00,0.0006
3842.00,0.0006
3841.00,0.0006
3840.00,0.0007
3839.00,0.0006
3838.00,0.0006
3837.00,0.0006
3836.00,0.0006
3835.00,0.0006
3834.00,0.0006
3833.00,0.0006
3832.00,0.0006
3831.00,0.0006
3830.00,0.0006
3829.00,0.0006
3828.00,0.0006
3827.00,0.0006
3826.00,0.0006
3825.00,0.0006
3824.00,0.0007
3823.00,0.0007
3822.00,0.0008
3821.00,0.0007
3820.00,0.0007
3819.00,0.0007
3818.00,0.0007
3817.00,0.0007
3816.00,0.0007
3815.00,0.0008
3814.00,0.0008
3813.00,0.0008
3812.00,0.0007
3811.00,0.0007
3810.00,0.0007
3809.00,0.0006
3808.00,0.0006
3807.00,0.0006
3806.00,0.0006
3805.00,0.0007
3804.00,0.0007
3803.00,0.0007
3802.00,0.0007
3801.00,0.0007
3800.00,0.0007
3799.00,0.0007
3798.00,0.0007
3797.00,0.0007
3796.00,0.0007
3795.00,0.0007
3794.00,0.0006
3793.00,0.0006
3792.00,0.0006
3791.00,0.0006
3790.00,0.0006
3789.00,0.0006
3788.00,0.0006
3787.00,0.0006
3786.00,0.0007
3785.00,0.0007
3784.00,0.0006
3783.00,0.0006
3782.00,0.0006
3781.00,0.0006
3780.00,0.0006
3779.00,0.0006
3778.00,0.0006
3777.00,0.0007
3776.00,0.0007
3775.00,0.0007
3774.00,0.0007
3773.00,0.0007
3772.00,0.0007
3771.00,0.0007
3770.00,0.0006
3769.00,0.0006
3768.00,0.0006
3767.00,0.0006
3766.00,0.0006
3765.00,0.0007
3764.00,0.0007
3763.00,0.0007
3762.00,0.0007
3761.00,0.0007
3760.00,0.0007
3759.00,0.0007
3758.00,0.0007
3757.00,0.0007
3756.00,0.0007
3755.00,0.0007
3754.00,0.0006
3753.00,0.0006
3752.00,0.0006
3751.00,0.0006
3750.00,0.0007
3749.00,0.0007
3748.00,0.0007
3747.00,0.0007
3746.00,0.0007
3745.00,0.0007
3744.00,0.0006
3743.00,0.0006
3742.00,0.0006
3741.00,0.0006
3740.00,0.0005
3739.00,0.0005
3738.00,0.0005
3737.00,0.0005
3736.00,0.0005
3735.00,0.0004
3734.00,0.0004
3733.00,0.0004
3732.00,0.0004
3731.00,0.0004
3730.00,0.0004
3729.00,0.0004
3728.00,0.0004
3727.00,0.0005
3726.00,0.0005
3725.00,0.0005
3724.00,0.0005
3723.00,0.0005
3722.00,0.0005
3721.00,0.0005
3720.00,0.0005
3719.00,0.0005
3718.00,0.0005
3717.00,0.0004
3716.00,0.0004
3715.00,0.0004
3714.00,0.0004
3713.00,0.0005
3712.00,0.0005
3711.00,0.0006
3710.00,0.0006
3709.00,0.0005
3708.00,0.0005
3707.00,0.0005
3706.00,0.0005
3705.00,0.0005
3704.00,0.0005
3703.00,0.0005
3702.00,0.0004
3701.00,0.0004
3700.00,0.0004
3699.00,0.0004
3698.00,0.0003
3697.00,0.0003
3696.00,0.0003
3695.00,0.0003
3694.00,0.0003
3693.00,0.0003
3692.00,0.0004
3691.00,0.0004
3690.00,0.0004
3689.00,0.0004
3688.00,0.0003
3687.00,0.0003
3686.00,0.0003
3685.00,0.0003
3684.00,0.0003
3683.00,0.0003
3682.00,0.0004
3681.00,0.0004
3680.00,0.0004
3679.00,0.0005
3678.00,0.0005
3677.00,0.0005
3676.00,0.0004
3675.00,0.0004
3674.00,0.0004
3673.00,0.0004
3672.00,0.0004
3671.00,0.0005
3670.00,0.0005
3669.00,0.0004
3668.00,0.0004
3667.00,0.0004
3666.00,0.0004
3665.00,0.0004
3664.00,0.0003
3663.00,0.0003
3662.00,0.0004
3661.00,0.0004
3660.00,0.0004
3659.00,0.0004
3658.00,0.0004
3657.00,0.0003
3656.00,0.0003
3655.00,0.0003
3654.00,0.0003
3653.00,0.0003
3652.00,0.0003
3651.00,0.0003
3650.00,0.0002
3649.00,0.0002
3648.00,0.0002
3647.00,0.0003
3646.00,0.0003
3645.00,0.0004
3644.00,0.0004
3643.00,0.0004
3642.00,0.0003
3641.00,0.0003
3640.00,0.0003
3639.00,0.0003
3638.00,0.0003
3637.00,0.0003
3636.00,0.0003
3635.00,0.0003
3634.00,0.0003
3633.00,0.0003
3632.00,0.0004
3631.00,0.0004
3630.00,0.0004
3629.00,0.0005
3628.00,0.0005
3627.00,0.0005
3626.00,0.0005
3625.00,0.0004
3624.00,0.0004
3623.00,0.0004
3622.00,0.0004
3621.00,0.0004
3620.00,0.0004
3619.00,0.0004
3618.00,0.0003
3617.00,0.0003
3616.00,0.0003
3615.00,0.0003
3614.00,0.0003
3613.00,0.0004
3612.00,0.0004
3611.00,0.0005
3610.00,0.0005
3609.00,0.0005
3608.00,0.0005
3607.00,0.0005
3606.00,0.0005
3605.00,0.0004
3604.00,0.0004
3603.00,0.0004
3602.00,0.0003
3601.00,0.0003
3600.00,0.0003
3599.00,0.0003
3598.00,0.0004
3597.00,0.0004
3596.00,0.0004
3595.00,0.0004
3594.00,0.0004
3593.00,0.0004
3592.00,0.0004
3591.00,0.0004
3590.00,0.0004
3589.00,0.0004
3588.00,0.0004
3587.00,0.0004
3586.00,0.0005
3585.00,0.0005
3584.00,0.0006
3583.00,0.0006
3582.00,0.0006
3581.00,0.0006
3580.00,0.0005
3579.00,0.0006
3578.00,0.0006
3577.00,0.0006
3576.00,0.0006
3575.00,0.0007
3574.00,0.0007
3573.00,0.0007
3572.00,0.0007
3571.00,0.0007
3570.00,0.0007
3569.00,0.0007
3568.00,0.0007
3567.00,0.0007
3566.00,0.0007
3565.00,0.0007
3564.00,0.0007
3563.00,0.0007
3562.00,0.0007
3561.00,0.0007
3560.00,0.0007
3559.00,0.0007
3558.00,0.0008
3557.00,0.0008
3556.00,0.0008
3555.00,0.0008
3554.00,0.0008
3553.00,0.0008
3552.00,0.0008
3551.00,0.0008
3550.00,0.0008
3549.00,0.0008
3548.00,0.0008
3547.00,0.0009
3546.00,0.0009
3545.00,0.0009
3544.00,0.0009
3543.00,0.0009
3542.00,0.0009
3541.00,0.0009
3540.00,0.0010
3539.00,0.0010
3538.00,0.0010
3537.00,0.0010
3536.00,0.0009
3535.00,0.0009
3534.00,0.0009
3533.00,0.0009
3532.00,0.0010
3531.00,0.0010
3530.00,0.0010
3529.00,0.0010
3528.00,0.0010
3527.00,0.0010
3526.00,0.0011
3525.00,0.0011
3524.00,0.0011
3523.00,0.0011
3522.00,0.0011
3521.00,0.0011
3520.00,0.0011
3519.00,0.0011
3518.00,0.0011
3517.00,0.0011
3516.00,0.0011
3515.00,0.0011
3514.00,0.0011
3513.00,0.0012
3512.00,0.0012
3511.00,0.0012
3510.00,0.0012
3509.00,0.0012
3508.00,0.0012
3507.00,0.0012
3506.00,0.0011
3505.00,0.0011
3504.00,0.0012
3503.00,0.0012
3502.00,0.0012
3501.00,0.0012
3500.00,0.0012
3499.00,0.0013
3498.00,0.0013
3497.00,0.0013
3496.00,0.0013
3495.00,0.0013
3494.00,0.0013
3493.00,0.0013
3492.00,0.0014
3491.00,0.0014
3490.00,0.0014
3489.00,0.0014
3488.00,0.0013
3487.00,0.0013
3486.00,0.0013
3485.00,0.0014
3484.00,0.0014
3483.00,0.0014
3482.00,0.0014
3481.00,0.0014
3480.00,0.0014
3479.00,0.0014
3478.00,0.0014
3477.00,0.0014
3476.00,0.0014
3475.00,0.0014
3474.00,0.0014
3473.00,0.0014
3472.00,0.0014
3471.00,0.0014
3470.00,0.0014
3469.00,0.0015
3468.00,0.0015
3467.00,0.0015
3466.00,0.0015
3465.00,0.0015
3464.00,0.0015
3463.00,0.0015
3462.00,0.0015
3461.00,0.0014
3460.00,0.0014
3459.00,0.0014
3458.00,0.0014
3457.00,0.0014
3456.00,0.0014
3455.00,0.0014
3454.00,0.0015
3453.00,0.0015
3452.00,0.0015
3451.00,0.0015
3450.00,0.0015
3449.00,0.0016
3448.00,0.0016
3447.00,0.0016
3446.00,0.0016
3445.00,0.0016
3444.00,0.0016
3443.00,0.0016
3442.00,0.0016
3441.00,0.0016
3440.00,0.0017
3439.00,0.0017
3438.00,0.0017
3437.00,0.0017
3436.00,0.0017
3435.00,0.0017
3434.00,0.0017
3433.00,0.0018
3432.00,0.0018
3431.00,0.0018
3430.00,0.0018
3429.00,0.0018
3428.00,0.0018
3427.00,0.0017
3426.00,0.0017
3425.00,0.0017
3424.00,0.0017
3423.00,0.0017
3422.00,0.0018
3421.00,0.0018
3420.00,0.0018
3419.00,0.0018
3418.00,0.0018
3417.00,0.0018
3416.00,0.0019
3415.00,0.0019
3414.00,0.0019
3413.00,0.0019
3412.00,0.0019
3411.00,0.0019
3410.00,0.0019
3409.00,0.0018
3408.00,0.0018
3407.00,0.0018
3406.00,0.0018
3405.00,0.0018
3404.00,0.0018
3403.00,0.0018
3402.00,0.0018
3401.00,0.0018
3400.00,0.0019
3399.00,0.0019
3398.00,0.0019
3397.00,0.0019
3396.00,0.0018
3395.00,0.0018
3394.00,0.0018
3393.00,0.0017
3392.00,0.0017
3391.00,0.0018
3390.00,0.0018
3389.00,0.0018
3388.00,0.0018
3387.00,0.0018
3386.00,0.0019
3385.00,0.0019
3384.00,0.0019
3383.00,0.0019
3382.00,0.0019
3381.00,0.0019
3380.00,0.0019
3379.00,0.0019
3378.00,0.0019
3377.00,0.0018
3376.00,0.0018
3375.00,0.0018
3374.00,0.0018
3373.00,0.0018
3372.00,0.0018
3371.00,0.0019
3370.00,0.0019
3369.00,0.0019
3368.00,0.0019
3367.00,0.0018
3366.00,0.0018
3365.00,0.0018
3364.00,0.0018
3363.00,0.0018
3362.00,0.0018
3361.00,0.0018
3360.00,0.0018
3359.00,0.0018
3358.00,0.0018
3357.00,0.0019
3356.00,0.0019
3355.00,0.0019
3354.00,0.0019
3353.00,0.0019
3352.00,0.0019
3351.00,0.0019
3350.00,0.0019
3349.00,0.0019
3348.00,0.0018
3347.00,0.0018
3346.00,0.0019
3345.00,0.0019
3344.00,0.0019
3343.00,0.0019
3342.00,0.0019
3341.00,0.0019
3340.00,0.0019
3339.00,0.0019
3338.00,0.0019
3337.00,0.0019
3336.00,0.0019
3335.00,0.0019
3334.00,0.0019
3333.00,0.0018
3332.00,0.0018
3331.00,0.0018
3330.00,0.0018
3329.00,0.0019
3328.00,0.0019
3327.00,0.0019
3326.00,0.0019
3325.00,0.0019
3324.00,0.0018
3323.00,0.0018
3322.00,0.0018
3321.00,0.0018
3320.00,0.0017
3319.00,0.0017
3318.00,0.0017
3317.00,0.0017
3316.00,0.0017
3315.00,0.0017
3314.00,0.0017
3313.00,0.0018
3312.00,0.0018
3311.00,0.0018
3310.00,0.0018
3309.00,0.0018
3308.00,0.0018
3307.00,0.0018
3306.00,0.0018
3305.00,0.0019
3304.00,0.0019
3303.00,0.0019
3302.00,0.0019
3301.00,0.0019
3300.00,0.0019
3299.00,0.0019
3298.00,0.0019
3297.00,0.0018
3296.00,0.0018
3295.00,0.0018
3294.00,0.0018
3293.00,0.0018
3292.00,0.0018
3291.00,0.0017
3290.00,0.0017
3289.00,0.0017
3288.00,0.0017
3287.00,0.0018
3286.00,0.0018
3285.00,0.0018
3284.00,0.0017
3283.00,0.0017
3282.00,0.0017
3281.00,0.0017
3280.00,0.0017
3279.00,0.0017
3278.00,0.0017
3277.00,0.0017
3276.00,0.0017
3275.00,0.0017
3274.00,0.0017
3273.00,0.0017
3272.00,0.0016
3271.00,0.0016
3270.00,0.0016
3269.00,0.0016
3268.00,0.0016
3267.00,0.0016
3266.00,0.0017
3265.00,0.0017
3264.00,0.0017
3263.00,0.0017
3262.00,0.0017
3261.00,0.0017
3260.00,0.0017
3259.00,0.0016
3258.00,0.0016
3257.00,0.0016
3256.00,0.0015
3255.00,0.0015
3254.00,0.0015
3253.00,0.0014
3252.00,0.0014
3251.00,0.0015
3250.00,0.0015
3249.00,0.0016
3248.00,0.0016
3247.00,0.0016
3246.00,0.0015
3245.00,0.0015
3244.00,0.0015
3243.00,0.0015
3242.00,0.0015
3241.00,0.0015
3240.00,0.0015
3239.00,0.0015
3238.00,0.0015
3237.00,0.0015
3236.00,0.0016
3235.00,0.0016
3234.00,0.0016
3233.00,0.0016
3232.00,0.0016
3231.00,0.0016
3230.00,0.0017
3229.00,0.0017
3228.00,0.0017
3227.00,0.0017
3226.00,0.0017
3225.00,0.0017
3224.00,0.0017
3223.00,0.0018
3222.00,0.0018
3221.00,0.0018
3220.00,0.0019
3219.00,0.0019
3218.00,0.0019
3217.00,0.0019
3216.00,0.0020
3215.00,0.0020
3214.00,0.0020
3213.00,0.0020
3212.00,0.0021
3211.00,0.0021
3210.00,0.0021
3209.00,0.0021
3208.00,0.0021
3207.00,0.0021
3206.00,0.0021
3205.00,0.0022
3204.00,0.0022
3203.00,0.0022
3202.00,0.0022
3201.00,0.0022
3200.00,0.0022
3199.00,0.0022
3198.00,0.0022
3197.00,0.0022
3196.00,0.0022
3195.00,0.0022
3194.00,0.0022
3193.00,0.0021
3192.00,0.0021
3191.00,0.0021
3190.00,0.0021
3189.00,0.0021
3188.00,0.0021
3187.00,0.0022
3186.00,0.0022
3185.00,0.0022
3184.00,0.0022
3183.00,0.0021
3182.00,0.0021
3181.00,0.0020
3180.00,0.0020
3179.00,0.0020
3178.00,0.0020
3177.00,0.0020
3176.00,0.0020
3175.00,0.0020
3174.00,0.0020
3173.00,0.0020
3172.00,0.0020
3171.00,0.0020
3170.00,0.0020
3169.00,0.0020
3168.00,0.0020
3167.00,0.0020
3166.00,0.0020
3165.00,0.0020
3164.00,0.0020
3163.00,0.0020
3162.00,0.0020
3161.00,0.0020
3160.00,0.0020
3159.00,0.0020
3158.00,0.0020
3157.00,0.0020
3156.00,0.0020
3155.00,0.0020
3154.00,0.0020
3153.00,0.0020
3152.00,0.0020
3151.00,0.0021
3150.00,0.0021
3149.00,0.0021
3148.00,0.0021
3147.00,0.0021
3146.00,0.0021
3145.00,0.0021
3144.00,0.0021
3143.00,0.0021
3142.00,0.0021
3141.00,0.0021
3140.00,0.0020
3139.00,0.0020
3138.00,0.0020
3137.00,0.0020
3136.00,0.0020
3135.00,0.0020
3134.00,0.0020
3133.00,0.0020
3132.00,0.0019
3131.00,0.0019
3130.00,0.0019
3129.00,0.0018
3128.00,0.0018
3127.00,0.0018
3126.00,0.0018
3125.00,0.0018
3124.00,0.0018
3123.00,0.0018
3122.00,0.0018
3121.00,0.0018
3120.00,0.0018
3119.00,0.0018
3118.00,0.0017
3117.00,0.0017
3116.00,0.0017
3115.00,0.0017
3114.00,0.0017
3113.00,0.0017
3112.00,0.0017
3111.00,0.0017
3110.00,0.0017
3109.00,0.0017
3108.00,0.0017
3107.00,0.0018
3106.00,0.0018
3105.00,0.0018
3104.00,0.0018
3103.00,0.0018
3102.00,0.0018
3101.00,0.0018
3100.00,0.0017
3099.00,0.0017
3098.00,0.0017
3097.00,0.0017
3096.00,0.0017
3095.00,0.0017
3094.00,0.0017
3093.00,0.0017
3092.00,0.0017
3091.00,0.0017
3090.00,0.0017
3089.00,0.0017
3088.00,0.0017
3087.00,0.0017
3086.00,0.0018
3085.00,0.0018
3084.00,0.0018
3083.00,0.0018
3082.00,0.0018
3081.00,0.0018
3080.00,0.0018
3079.00,0.0018
3078.00,0.0018
3077.00,0.0018
3076.00,0.0018
3075.00,0.0018
3074.00,0.0019
3073.00,0.0019
3072.00,0.0019
3071.00,0.0019
3070.00,0.0019
3069.00,0.0019
3068.00,0.0019
3067.00,0.0019
3066.00,0.0020
3065.00,0.0020
3064.00,0.0021
3063.00,0.0021
3062.00,0.0021
3061.00,0.0021
3060.00,0.0021
3059.00,0.0021
3058.00,0.0022
3057.00,0.0022
3056.00,0.0022
3055.00,0.0023
3054.00,0.0023
3053.00,0.0023
3052.00,0.0023
3051.00,0.0023
3050.00,0.0023
3049.00,0.0023
3048.00,0.0024
3047.00,0.0024
3046.00,0.0024
3045.00,0.0025
3044.00,0.0025
3043.00,0.0025
3042.00,0.0025
3041.00,0.0025
3040.00,0.0025
3039.00,0.0026
3038.00,0.0026
3037.00,0.0027
3036.00,0.0027
3035.00,0.0027
3034.00,0.0027
3033.00,0.0028
3032.00,0.0028
3031.00,0.0029
3030.00,0.0030
3029.00,0.0030
3028.00,0.0031
3027.00,0.0031
3026.00,0.0032
3025.00,0.0032
3024.00,0.0033
3023.00,0.0033
3022.00,0.0034
3021.00,0.0035
3020.00,0.0036
3019.00,0.0037
3018.00,0.0037
3017.00,0.0038
3016.00,0.0039
3015.00,0.0040
3014.00,0.0041
3013.00,0.0041
3012.00,0.0042
3011.00,0.0043
3010.00,0.0044
3009.00,0.0046
3008.00,0.0048
3007.00,0.0050
3006.00,0.0051
3005.00,0.0053
3004.00,0.0054
3003.00,0.0056
3002.00,0.0058
3001.00,0.0060
3000.00,0.0062
2999.00,0.0065
2998.00,0.0067
2997.00,0.0070
2996.00,0.0074
2995.00,0.0078
2994.00,0.0082
2993.00,0.0086
2992.00,0.0091
2991.00,0.0096
2990.00,0.0102
2989.00,0.0108
2988.00,0.0115
2987.00,0.0123
2986.00,0.0132
2985.00,0.0141
2984.00,0.0152
2983.00,0.0164
2982.00,0.0178
2981.00,0.0194
2980.00,0.0213
2979.00,0.0233
2978.00,0.0257
2977.00,0.0283
2976.00,0.0313
2975.00,0.0347
2974.00,0.0385
2973.00,0.0428
2972.00,0.0477
2971.00,0.0532
2970.00,0.0593
2969.00,0.0660
2968.00,0.0730
2967.00,0.0805
2966.00,0.0881
2965.00,0.0956
2964.00,0.1028
2963.00,0.1094
2962.00,0.1153
2961.00,0.1204
2960.00,0.1249
2959.00,0.1294
2958.00,0.1343
2957.00,0.1400
2956.00,0.1469
2955.00,0.1551
2954.00,0.1642
2953.00,0.1737
2952.00,0.1824
2951.00,0.1891
2950.00,0.1924
2949.00,0.1914
2948.00,0.1859
2947.00,0.1763
2946.00,0.1640
2945.00,0.1506
2944.00,0.1377
2943.00,0.1265
2942.00,0.1177
2941.00,0.1117
2940.00,0.1082
2939.00,0.1071
2938.00,0.1082
2937.00,0.1112
2936.00,0.1160
2935.00,0.1224
2934.00,0.1304
2933.00,0.1397
2932.00,0.1502
2931.00,0.1617
2930.00,0.1740
2929.00,0.1867
2928.00,0.1995
2927.00,0.2122
2926.00,0.2245
2925.00,0.2366
2924.00,0.2485
2923.00,0.2606
2922.00,0.2727
2921.00,0.2846
2920.00,0.2955
2919.00,0.3044
2918.00,0.3097
2917.00,0.3103
2916.00,0.3057
2915.00,0.2967
2914.00,0.2844
2913.00,0.2707
2912.00,0.2567
2911.00,0.2435
2910.00,0.2316
2909.00,0.2208
2908.00,0.2110
2907.00,0.2019
2906.00,0.1933
2905.00,0.1850
2904.00,0.1769
2903.00,0.1691
2902.00,0.1617
2901.00,0.1545
2900.00,0.1478
2899.00,0.1415
2898.00,0.1356
2897.00,0.1302
2896.00,0.1255
2895.00,0.1214
2894.00,0.1179
2893.00,0.1151
2892.00,0.1129
2891.00,0.1114
2890.00,0.1104
2889.00,0.1099
2888.00,0.1098
2887.00,0.1100
2886.00,0.1105
2885.00,0.1115
2884.00,0.1129
2883.00,0.1149
2882.00,0.1176
2881.00,0.1206
2880.00,0.1237
2879.00,0.1264
2878.00,0.1284
2877.00,0.1292
2876.00,0.1291
2875.00,0.1283
2874.00,0.1275
2873.00,0.1272
2872.00,0.1277
2871.00,0.1291
2870.00,0.1310
2869.00,0.1330
2868.00,0.1344
2867.00,0.1341
2866.00,0.1315
2865.00,0.1264
2864.00,0.1191
2863.00,0.1105
2862.00,0.1019
2861.00,0.0942
2860.00,0.0880
2859.00,0.0836
2858.00,0.0810
2857.00,0.0799
2856.00,0.0800
2855.00,0.0810
2854.00,0.0828
2853.00,0.0850
2852.00,0.0872
2851.00,0.0892
2850.00,0.0907
2849.00,0.0915
2848.00,0.0922
2847.00,0.0931
2846.00,0.0948
2845.00,0.0977
2844.00,0.1017
2843.00,0.1067
2842.00,0.1122
2841.00,0.1174
2840.00,0.1217
2839.00,0.1242
2838.00,0.1241
2837.00,0.1209
2836.00,0.1146
2835.00,0.1057
2834.00,0.0951
2833.00,0.0840
2832.00,0.0734
2831.00,0.0639
2830.00,0.0559
2829.00,0.0493
2828.00,0.0440
2827.00,0.0397
2826.00,0.0363
2825.00,0.0335
2824.00,0.0311
2823.00,0.0291
2822.00,0.0273
2821.00,0.0258
2820.00,0.0245
2819.00,0.0234
2818.00,0.0224
2817.00,0.0216
2816.00,0.0209
2815.00,0.0202
2814.00,0.0196
2813.00,0.0190
2812.00,0.0184
2811.00,0.0178
2810.00,0.0172
2809.00,0.0166
2808.00,0.0160
2807.00,0.0153
2806.00,0.0146
2805.00,0.0139
2804.00,0.0133
2803.00,0.0127
2802.00,0.0121
2801.00,0.0117
2800.00,0.0113
2799.00,0.0109
2798.00,0.0107
2797.00,0.0104
2796.00,0.0101
2795.00,0.0099
2794.00,0.0096
2793.00,0.0093
2792.00,0.0091
2791.00,0.0088
2790.00,0.0085
2789.00,0.0082
2788.00,0.0080
2787.00,0.0077
2786.00,0.0074
2785.00,0.0072
2784.00,0.0069
2783.00,0.0067
2782.00,0.0065
2781.00,0.0064
2780.00,0.0062
2779.00,0.0061
2778.00,0.0059
2777.00,0.0058
2776.00,0.0056
2775.00,0.0055
2774.00,0.0054
2773.00,0.0054
2772.00,0.0053
2771.00,0.0052
2770.00,0.0052
2769.00,0.0052
2768.00,0.0052
2767.00,0.0052
2766.00,0.0052
2765.00,0.0052
2764.00,0.0051
2763.00,0.0051
2762.00,0.0050
2761.00,0.0050
2760.00,0.0049
2759.00,0.0049
2758.00,0.0049
2757.00,0.0049
2756.00,0.0049
2755.00,0.0049
2754.00,0.0048
2753.00,0.0048
2752.00,0.0048
2751.00,0.0047
2750.00,0.0048
2749.00,0.0048
2748.00,0.0048
2747.00,0.0049
2746.00,0.0049
2745.00,0.0050
2744.00,0.0050
2743.00,0.0051
2742.00,0.0052
2741.00,0.0053
2740.00,0.0054
2739.00,0.0056
2738.00,0.0057
2737.00,0.0059
2736.00,0.0060
2735.00,0.0062
2734.00,0.0064
2733.00,0.0065
2732.00,0.0067
2731.00,0.0069
2730.00,0.0072
2729.00,0.0074
2728.00,0.0077
2727.00,0.0081
2726.00,0.0084
2725.00,0.0087
2724.00,0.0088
2723.00,0.0088
2722.00,0.0087
2721.00,0.0085
2720.00,0.0082
2719.00,0.0078
2718.00,0.0075
2717.00,0.0071
2716.00,0.0068
2715.00,0.0065
2714.00,0.0063
2713.00,0.0060
2712.00,0.0058
2711.00,0.0056
2710.00,0.0054
2709.00,0.0053
2708.00,0.0052
2707.00,0.0050
2706.00,0.0049
2705.00,0.0048
2704.00,0.0047
2703.00,0.0046
2702.00,0.0045
2701.00,0.0044
2700.00,0.0043
2699.00,0.0043
2698.00,0.0042
2697.00,0.0042
2696.00,0.0041
2695.00,0.0041
2694.00,0.0041
2693.00,0.0042
2692.00,0.0042
2691.00,0.0042
2690.00,0.0042
2689.00,0.0042
2688.00,0.0042
2687.00,0.0041
2686.00,0.0041
2685.00,0.0042
2684.00,0.0042
2683.00,0.0042
2682.00,0.0042
2681.00,0.0043
2680.00,0.0043
2679.00,0.0043
2678.00,0.0044
2677.00,0.0044
2676.00,0.0043
2675.00,0.0043
2674.00,0.0043
2673.00,0.0042
2672.00,0.0042
2671.00,0.0042
2670.00,0.0042
2669.00,0.0042
2668.00,0.0043
2667.00,0.0043
2666.00,0.0043
2665.00,0.0044
2664.00,0.0045
2663.00,0.0045
2662.00,0.0046
2661.00,0.0046
2660.00,0.0047
2659.00,0.0046
2658.00,0.0046
2657.00,0.0046
2656.00,0.0046
2655.00,0.0046
2654.00,0.0045
2653.00,0.0045
2652.00,0.0044
2651.00,0.0043
2650.00,0.0042
2649.00,0.0042
2648.00,0.0041
2647.00,0.0041
2646.00,0.0041
2645.00,0.0040
2644.00,0.0040
2643.00,0.0040
2642.00,0.0039
2641.00,0.0038
2640.00,0.0038
2639.00,0.0037
2638.00,0.0037
2637.00,0.0037
2636.00,0.0037
2635.00,0.0037
2634.00,0.0037
2633.00,0.0037
2632.00,0.0038
2631.00,0.0038
2630.00,0.0038
2629.00,0.0038
2628.00,0.0038
2627.00,0.0038
2626.00,0.0038
2625.00,0.0038
2624.00,0.0038
2623.00,0.0038
2622.00,0.0039
2621.00,0.0039
2620.00,0.0039
2619.00,0.0039
2618.00,0.0039
2617.00,0.0039
2616.00,0.0039
2615.00,0.0039
2614.00,0.0038
2613.00,0.0038
2612.00,0.0038
2611.00,0.0037
2610.00,0.0036
2609.00,0.0036
2608.00,0.0035
2607.00,0.0034
2606.00,0.0033
2605.00,0.0032
2604.00,0.0032
2603.00,0.0032
2602.00,0.0031
2601.00,0.0031
2600.00,0.0031
2599.00,0.0030
2598.00,0.0030
2597.00,0.0030
2596.00,0.0030
2595.00,0.0030
2594.00,0.0030
2593.00,0.0031
2592.00,0.0032
2591.00,0.0033
2590.00,0.0034
2589.00,0.0034
2588.00,0.0035
2587.00,0.0036
2586.00,0.0037
2585.00,0.0038
2584.00,0.0039
2583.00,0.0039
2582.00,0.0040
2581.00,0.0040
2580.00,0.0039
2579.00,0.0037
2578.00,0.0035
2577.00,0.0033
2576.00,0.0032
2575.00,0.0031
2574.00,0.0031
2573.00,0.0030
2572.00,0.0029
2571.00,0.0028
2570.00,0.0027
2569.00,0.0026
2568.00,0.0025
2567.00,0.0024
2566.00,0.0022
2565.00,0.0021
2564.00,0.0021
2563.00,0.0021
2562.00,0.0022
2561.00,0.0022
2560.00,0.0021
2559.00,0.0021
2558.00,0.0021
2557.00,0.0021
2556.00,0.0021
2555.00,0.0020
2554.00,0.0020
2553.00,0.0020
2552.00,0.0019
2551.00,0.0019
2550.00,0.0019
2549.00,0.0019
2548.00,0.0018
2547.00,0.0018
2546.00,0.0017
2545.00,0.0017
2544.00,0.0016
2543.00,0.0015
2542.00,0.0015
2541.00,0.0014
2540.00,0.0015
2539.00,0.0015
2538.00,0.0015
2537.00,0.0015
2536.00,0.0015
2535.00,0.0014
2534.00,0.0014
2533.00,0.0014
2532.00,0.0013
2531.00,0.0013
2530.00,0.0013
2529.00,0.0013
2528.00,0.0013
2527.00,0.0013
2526.00,0.0013
2525.00,0.0013
2524.00,0.0013
2523.00,0.0013
2522.00,0.0012
2521.00,0.0011
2520.00,0.0010
2519.00,0.0010
2518.00,0.0010
2517.00,0.0010
2516.00,0.0010
2515.00,0.0010
2514.00,0.0009
2513.00,0.0009
2512.00,0.0009
2511.00,0.0009
2510.00,0.0009
2509.00,0.0009
2508.00,0.0009
2507.00,0.0009
2506.00,0.0009
2505.00,0.0009
2504.00,0.0009
2503.00,0.0009
2502.00,0.0008
2501.00,0.0008
2500.00,0.0009
2499.00,0.0009
2498.00,0.0009
2497.00,0.0010
2496.00,0.0010
2495.00,0.0010
2494.00,0.0010
2493.00,0.0009
2492.00,0.0009
2491.00,0.0010
2490.00,0.0009
2489.00,0.0009
2488.00,0.0009
2487.00,0.0008
2486.00,0.0008
2485.00,0.0008
2484.00,0.0008
2483.00,0.0008
2482.00,0.0008
2481.00,0.0008
2480.00,0.0008
2479.00,0.0008
2478.00,0.0008
2477.00,0.0009
2476.00,0.0008
2475.00,0.0008
2474.00,0.0008
2473.00,0.0007
2472.00,0.0007
2471.00,0.0007
2470.00,0.0007
2469.00,0.0007
2468.00,0.0007
2467.00,0.0007
2466.00,0.0007
2465.00,0.0007
2464.00,0.0007
2463.00,0.0007
2462.00,0.0007
2461.00,0.0008
2460.00,0.0008
2459.00,0.0009
2458.00,0.0010
2457.00,0.0010
2456.00,0.0010
2455.00,0.0010
2454.00,0.0010
2453.00,0.0010
2452.00,0.0010
2451.00,0.0010
2450.00,0.0011
2449.00,0.0011
2448.00,0.0010
2447.00,0.0010
2446.00,0.0009
2445.00,0.0009
2444.00,0.0010
2443.00,0.0010
2442.00,0.0009
2441.00,0.0008
2440.00,0.0007
2439.00,0.0007
2438.00,0.0007
2437.00,0.0007
2436.00,0.0007
2435.00,0.0008
2434.00,0.0009
2433.00,0.0009
2432.00,0.0010
2431.00,0.0010
2430.00,0.0010
2429.00,0.0011
2428.00,0.0011
2427.00,0.0011
2426.00,0.0010
2425.00,0.0010
2424.00,0.0010
2423.00,0.0010
2422.00,0.0009
2421.00,0.0009
2420.00,0.0008
2419.00,0.0008
2418.00,0.0007
2417.00,0.0008
2416.00,0.0008
2415.00,0.0008
2414.00,0.0008
2413.00,0.0008
2412.00,0.0008
2411.00,0.0008
2410.00,0.0009
2409.00,0.0009
2408.00,0.0008
2407.00,0.0008
2406.00,0.0007
2405.00,0.0007
2404.00,0.0007
2403.00,0.0007
2402.00,0.0007
2401.00,0.0006
2400.00,0.0006
2399.00,0.0006
2398.00,0.0006
2397.00,0.0006
2396.00,0.0006
2395.00,0.0006
2394.00,0.0006
2393.00,0.0006
2392.00,0.0006
2391.00,0.0006
2390.00,0.0006
2389.00,0.0006
2388.00,0.0005
2387.00,0.0005
2386.00,0.0005
2385.00,0.0004
2384.00,0.0003
2383.00,0.0003
2382.00,0.0002
2381.00,0.0002
2380.00,0.0001
2379.00,0.0001
2378.00,0.0000
2377.00,0.0000
2376.00,0.0001
2375.00,0.0001
2374.00,0.0002
2373.00,0.0002
2372.00,0.0002
2371.00,0.0001
2370.00,0.0001
2369.00,-0.0000
2368.00,-0.0001
2367.00,-0.0001
2366.00,-0.0002
2365.00,-0.0002
2364.00,-0.0001
2363.00,-0.0001
2362.00,-0.0000
2361.00,0.0000
2360.00,0.0001
2359.00,0.0001
2358.00,0.0001
2357.00,0.0001
2356.00,0.0001
2355.00,0.0001
2354.00,0.0002
2353.00,0.0002
2352.00,0.0002
2351.00,0.0002
2350.00,0.0002
2349.00,0.0002
2348.00,0.0002
2347.00,0.0002
2346.00,0.0002
2345.00,0.0002
2344.00,0.0002
2343.00,0.0002
2342.00,0.0003
2341.00,0.0003
2340.00,0.0005
2339.00,0.0006
2338.00,0.0006
2337.00,0.0006
2336.00,0.0005
2335.00,0.0004
2334.00,0.0004
2333.00,0.0005
2332.00,0.0005
2331.00,0.0004
2330.00,0.0004
2329.00,0.0005
2328.00,0.0006
2327.00,0.0009
2326.00,0.0013
2325.00,0.0017
2324.00,0.0019
2323.00,0.0019
2322.00,0.0017
2321.00,0.0015
2320.00,0.0013
2319.00,0.0012
2318.00,0.0011
2317.00,0.0010
2316.00,0.0009
2315.00,0.0008
2314.00,0.0007
2313.00,0.0006
2312.00,0.0006
2311.00,0.0005
2310.00,0.0004
2309.00,0.0004
2308.00,0.0004
2307.00,0.0004
2306.00,0.0004
2305.00,0.0005
2304.00,0.0006
2303.00,0.0007
2302.00,0.0007
2301.00,0.0006
2300.00,0.0005
2299.00,0.0005
2298.00,0.0006
2297.00,0.0007
2296.00,0.0008
2295.00,0.0009
2294.00,0.0010
2293.00,0.0010
2292.00,0.0011
2291.00,0.0012
2290.00,0.0013
2289.00,0.0014
2288.00,0.0014
2287.00,0.0015
2286.00,0.0015
2285.00,0.0015
2284.00,0.0015
2283.00,0.0014
2282.00,0.0013
2281.00,0.0013
2280.00,0.0012
2279.00,0.0012
2278.00,0.0011
2277.00,0.0011
2276.00,0.0010
2275.00,0.0010
2274.00,0.0011
2273.00,0.0012
2272.00,0.0013
2271.00,0.0014
2270.00,0.0014
2269.00,0.0013
2268.00,0.0012
2267.00,0.0011
2266.00,0.0010
2265.00,0.0010
2264.00,0.0010
2263.00,0.0009
2262.00,0.0008
2261.00,0.0008
2260.00,0.0008
2259.00,0.0009
2258.00,0.0009
2257.00,0.0008
2256.00,0.0007
2255.00,0.0006
2254.00,0.0005
2253.00,0.0006
2252.00,0.0006
2251.00,0.0007
2250.00,0.0006
2249.00,0.0005
2248.00,0.0004
2247.00,0.0003
2246.00,0.0003
2245.00,0.0004
2244.00,0.0004
2243.00,0.0006
2242.00,0.0007
2241.00,0.0009
2240.00,0.0010
2239.00,0.0009
2238.00,0.0008
2237.00,0.0007
2236.00,0.0008
2235.00,0.0008
2234.00,0.0008
2233.00,0.0008
2232.00,0.0007
2231.00,0.0007
2230.00,0.0006
2229.00,0.0005
2228.00,0.0004
2227.00,0.0004
2226.00,0.0003
2225.00,0.0003
2224.00,0.0003
2223.00,0.0002
2222.00,0.0002
2221.00,0.0004
2220.00,0.0006
2219.00,0.0007
2218.00,0.0007
2217.00,0.0006
2216.00,0.0005
2215.00,0.0004
2214.00,0.0005
2213.00,0.0005
2212.00,0.0005
2211.00,0.0005
2210.00,0.0005
2209.00,0.0006
2208.00,0.0007
2207.00,0.0006
2206.00,0.0005
2205.00,0.0004
2204.00,0.0004
2203.00,0.0004
2202.00,0.0004
2201.00,0.0003
2200.00,0.0003
2199.00,0.0003
2198.00,0.0004
2197.00,0.0005
2196.00,0.0005
2195.00,0.0006
2194.00,0.0007
2193.00,0.0008
2192.00,0.0010
2191.00,0.0010
2190.00,0.0009
2189.00,0.0007
2188.00,0.0005
2187.00,0.0004
2186.00,0.0004
2185.00,0.0003
2184.00,0.0001
2183.00,-0.0002
2182.00,-0.0004
2181.00,-0.0004
2180.00,-0.0003
2179.00,-0.0003
2178.00,-0.0002
2177.00,-0.0001
2176.00,-0.0001
2175.00,-0.0000
2174.00,-0.0001
2173.00,-0.0000
2172.00,0.0002
2171.00,0.0006
2170.00,0.0011
2169.00,0.0014
2168.00,0.0015
2167.00,0.0014
2166.00,0.0013
2165.00,0.0012
2164.00,0.0014
2163.00,0.0015
2162.00,0.0015
2161.00,0.0009
2160.00,-0.0003
2159.00,-0.0017
2158.00,-0.0028
2157.00,-0.0032
2156.00,-0.0031
2155.00,-0.0029
2154.00,-0.0025
2153.00,-0.0021
2152.00,-0.0016
2151.00,-0.0013
2150.00,-0.0012
2149.00,-0.0013
2148.00,-0.0016
2147.00,-0.0018
2146.00,-0.0018
2145.00,-0.0017
2144.00,-0.0015
2143.00,-0.0013
2142.00,-0.0011
2141.00,-0.0010
2140.00,-0.0011
2139.00,-0.0013
2138.00,-0.0015
2137.00,-0.0016
2136.00,-0.0017
2135.00,-0.0019
2134.00,-0.0022
2133.00,-0.0022
2132.00,-0.0021
2131.00,-0.0019
2130.00,-0.0016
2129.00,-0.0014
2128.00,-0.0013
2127.00,-0.0013
2126.00,-0.0013
2125.00,-0.0011
2124.00,-0.0010
2123.00,-0.0008
2122.00,-0.0006
2121.00,-0.0005
2120.00,-0.0004
2119.00,-0.0003
2118.00,-0.0002
2117.00,-0.0000
2116.00,0.0001
2115.00,0.0002
2114.00,0.0002
2113.00,0.0002
2112.00,0.0001
2111.00,-0.0000
2110.00,-0.0001
2109.00,-0.0001
2108.00,-0.0001
2107.00,-0.0001
2106.00,-0.0001
2105.00,-0.0001
2104.00,-0.0002
2103.00,-0.0002
2102.00,-0.0001
2101.00,-0.0000
2100.00,-0.0000
2099.00,-0.0001
2098.00,-0.0003
2097.00,-0.0005
2096.00,-0.0006
2095.00,-0.0007
2094.00,-0.0006
2093.00,-0.0004
2092.00,-0.0002
2091.00,-0.0001
2090.00,-0.0001
2089.00,-0.0001
2088.00,-0.0002
2087.00,-0.0002
2086.00,-0.0003
2085.00,-0.0002
2084.00,-0.0001
2083.00,-0.0001
2082.00,-0.0001
2081.00,-0.0001
2080.00,-0.0002
2079.00,-0.0002
2078.00,-0.0001
2077.00,-0.0001
2076.00,-0.0000
2075.00,-0.0001
2074.00,-0.0003
2073.00,-0.0005
2072.00,-0.0006
2071.00,-0.0006
2070.00,-0.0006
2069.00,-0.0005
2068.00,-0.0005
2067.00,-0.0005
2066.00,-0.0004
2065.00,-0.0003
2064.00,-0.0002
2063.00,-0.0001
2062.00,-0.0001
2061.00,-0.0000
2060.00,-0.0000
2059.00,-0.0000
2058.00,-0.0001
2057.00,-0.0002
2056.00,-0.0002
2055.00,-0.0003
2054.00,-0.0002
2053.00,0.0002
2052.00,0.0008
2051.00,0.0012
2050.00,0.0011
2049.00,0.0005
2048.00,-0.0000
2047.00,-0.0004
2046.00,-0.0005
2045.00,-0.0004
2044.00,-0.0004
2043.00,-0.0005
2042.00,-0.0006
2041.00,-0.0006
2040.00,-0.0004
2039.00,-0.0003
2038.00,-0.0003
2037.00,-0.0004
2036.00,-0.0005
2035.00,-0.0006
2034.00,-0.0006
2033.00,-0.0006
2032.00,-0.0006
2031.00,-0.0007
2030.00,-0.0008
2029.00,-0.0009
2028.00,-0.0011
2027.00,-0.0011
2026.00,-0.0010
2025.00,-0.0009
2024.00,-0.0008
2023.00,-0.0010
2022.00,-0.0013
2021.00,-0.0015
2020.00,-0.0016
2019.00,-0.0015
2018.00,-0.0014
2017.00,-0.0013
2016.00,-0.0014
2015.00,-0.0013
2014.00,-0.0011
2013.00,-0.0007
2012.00,-0.0005
2011.00,-0.0006
2010.00,-0.0010
2009.00,-0.0014
2008.00,-0.0018
2007.00,-0.0020
2006.00,-0.0020
2005.00,-0.0019
2004.00,-0.0017
2003.00,-0.0016
2002.00,-0.0015
2001.00,-0.0015
2000.00,-0.0015
1999.00,-0.0013
1998.00,-0.0011
1997.00,-0.0008
1996.00,-0.0007
1995.00,-0.0008
1994.00,-0.0010
1993.00,-0.0011
1992.00,-0.0011
1991.00,-0.0009
1990.00,-0.0007
1989.00,-0.0005
1988.00,-0.0004
1987.00,-0.0004
1986.00,-0.0005
1985.00,-0.0004
1984.00,-0.0002
1983.00,0.0001
1982.00,0.0004
1981.00,0.0006
1980.00,0.0006
1979.00,0.0002
1978.00,-0.0005
1977.00,-0.0011
1976.00,-0.0015
1975.00,-0.0017
1974.00,-0.0017
1973.00,-0.0016
1972.00,-0.0014
1971.00,-0.0013
1970.00,-0.0012
1969.00,-0.0012
1968.00,-0.0012
1967.00,-0.0012
1966.00,-0.0011
1965.00,-0.0011
1964.00,-0.0011
1963.00,-0.0013
1962.00,-0.0015
1961.00,-0.0018
1960.00,-0.0020
1959.00,-0.0023
1958.00,-0.0023
1957.00,-0.0022
1956.00,-0.0018
1955.00,-0.0015
1954.00,-0.0014
1953.00,-0.0014
1952.00,-0.0014
1951.00,-0.0015
1950.00,-0.0016
1949.00,-0.0016
1948.00,-0.0016
1947.00,-0.0017
1946.00,-0.0017
1945.00,-0.0017
1944.00,-0.0016
1943.00,-0.0015
1942.00,-0.0014
1941.00,-0.0012
1940.00,-0.0011
1939.00,-0.0010
1938.00,-0.0012
1937.00,-0.0013
1936.00,-0.0015
1935.00,-0.0015
1934.00,-0.0015
1933.00,-0.0014
1932.00,-0.0013
1931.00,-0.0012
1930.00,-0.0011
1929.00,-0.0010
1928.00,-0.0009
1927.00,-0.0010
1926.00,-0.0010
1925.00,-0.0011
1924.00,-0.0010
1923.00,-0.0009
1922.00,-0.0008
1921.00,-0.0007
1920.00,-0.0006
1919.00,-0.0005
1918.00,-0.0004
1917.00,-0.0003
1916.00,-0.0002
1915.00,-0.0001
1914.00,-0.0003
1913.00,-0.0004
1912.00,-0.0006
1911.00,-0.0007
1910.00,-0.0007
1909.00,-0.0006
1908.00,-0.0006
1907.00,-0.0006
1906.00,-0.0006
1905.00,-0.0005
1904.00,-0.0003
1903.00,-0.0003
1902.00,-0.0003
1901.00,-0.0004
1900.00,-0.0005
1899.00,-0.0005
1898.00,-0.0004
1897.00,-0.0003
1896.00,-0.0002
1895.00,-0.0002
1894.00,-0.0002
1893.00,-0.0001
1892.00,-0.0001
1891.00,-0.0001
1890.00,-0.0001
1889.00,-0.0001
1888.00,-0.0001
1887.00,-0.0001
1886.00,-0.0002
1885.00,-0.0003
1884.00,-0.0004
1883.00,-0.0005
1882.00,-0.0006
1881.00,-0.0005
1880.00,-0.0005
1879.00,-0.0005
1878.00,-0.0005
1877.00,-0.0005
1876.00,-0.0005
1875.00,-0.0005
1874.00,-0.0004
1873.00,-0.0002
1872.00,-0.0002
1871.00,-0.0002
1870.00,-0.0002
1869.00,-0.0002
1868.00,-0.0001
1867.00,-0.0001
1866.00,-0.0001
1865.00,-0.0001
1864.00,-0.0001
1863.00,-0.0002
1862.00,-0.0002
1861.00,-0.0002
1860.00,-0.0002
1859.00,-0.0001
1858.00,-0.0001
1857.00,-0.0001
1856.00,-0.0001
1855.00,-0.0001
1854.00,-0.0001
1853.00,-0.0001
1852.00,-0.0001
1851.00,-0.0001
1850.00,-0.0001
1849.00,-0.0002
1848.00,-0.0002
1847.00,-0.0002
1846.00,-0.0002
1845.00,-0.0002
1844.00,-0.0001
1843.00,-0.0000
1842.00,-0.0000
1841.00,-0.0000
1840.00,-0.0000
1839.00,-0.0001
1838.00,-0.0001
1837.00,-0.0001
1836.00,-0.0000
1835.00,0.0001
1834.00,0.0001
1833.00,0.0001
1832.00,0.0001
1831.00,0.0001
1830.00,0.0000
1829.00,0.0001
1828.00,0.0001
1827.00,0.0000
1826.00,-0.0000
1825.00,-0.0000
1824.00,0.0000
1823.00,0.0000
1822.00,-0.0000
1821.00,-0.0001
1820.00,-0.0002
1819.00,-0.0002
1818.00,-0.0003
1817.00,-0.0003
1816.00,-0.0002
1815.00,-0.0001
1814.00,-0.0000
1813.00,0.0001
1812.00,0.0001
1811.00,0.0001
1810.00,0.0001
1809.00,0.0001
1808.00,0.0001
1807.00,0.0001
1806.00,0.0001
1805.00,0.0002
1804.00,0.0002
1803.00,0.0003
1802.00,0.0003
1801.00,0.0003
1800.00,0.0002
1799.00,0.0002
1798.00,0.0002
1797.00,0.0003
1796.00,0.0003
1795.00,0.0003
1794.00,0.0002
1793.00,0.0003
1792.00,0.0003
1791.00,0.0004
1790.00,0.0004
1789.00,0.0005
1788.00,0.0005
1787.00,0.0005
1786.00,0.0004
1785.00,0.0004
1784.00,0.0004
1783.00,0.0004
1782.00,0.0005
1781.00,0.0005
1780.00,0.0006
1779.00,0.0006
1778.00,0.0006
1777.00,0.0006
1776.00,0.0006
1775.00,0.0006
1774.00,0.0006
1773.00,0.0006
1772.00,0.0007
1771.00,0.0007
1770.00,0.0008
1769.00,0.0008
1768.00,0.0008
1767.00,0.0008
1766.00,0.0008
1765.00,0.0008
1764.00,0.0008
1763.00,0.0008
1762.00,0.0008
1761.00,0.0008
1760.00,0.0009
1759.00,0.0009
1758.00,0.0009
1757.00,0.0010
1756.00,0.0011
1755.00,0.0011
1754.00,0.0011
1753.00,0.0012
1752.00,0.0012
1751.00,0.0013
1750.00,0.0013
1749.00,0.0014
1748.00,0.0014
1747.00,0.0014
1746.00,0.0013
1745.00,0.0013
1744.00,0.0013
1743.00,0.0014
1742.00,0.0014
1741.00,0.0014
1740.00,0.0014
1739.00,0.0014
1738.00,0.0015
1737.00,0.0015
1736.00,0.0015
1735.00,0.0015
1734.00,0.0014
1733.00,0.0015
1732.00,0.0015
1731.00,0.0015
1730.00,0.0015
1729.00,0.0016
1728.00,0.0017
1727.00,0.0017
1726.00,0.0017
1725.00,0.0018
1724.00,0.0018
1723.00,0.0018
1722.00,0.0018
1721.00,0.0018
1720.00,0.0018
1719.00,0.0018
1718.00,0.0018
1717.00,0.0019
1716.00,0.0019
1715.00,0.0019
1714.00,0.0019
1713.00,0.0020
1712.00,0.0020
1711.00,0.0020
1710.00,0.0020
1709.00,0.0020
1708.00,0.0020
1707.00,0.0020
1706.00,0.0021
1705.00,0.0021
1704.00,0.0021
1703.00,0.0021
1702.00,0.0020
1701.00,0.0020
1700.00,0.0020
1699.00,0.0021
1698.00,0.0021
1697.00,0.0021
1696.00,0.0021
1695.00,0.0021
1694.00,0.0021
1693.00,0.0021
1692.00,0.0021
1691.00,0.0020
1690.00,0.0020
1689.00,0.0021
1688.00,0.0021
1687.00,0.0021
1686.00,0.0021
1685.00,0.0020
1684.00,0.0020
1683.00,0.0020
1682.00,0.0020
1681.00,0.0021
1680.00,0.0022
1679.00,0.0022
1678.00,0.0022
1677.00,0.0022
1676.00,0.0022
1675.00,0.0023
1674.00,0.0023
1673.00,0.0023
1672.00,0.0023
1671.00,0.0023
1670.00,0.0023
1669.00,0.0024
1668.00,0.0024
1667.00,0.0024
1666.00,0.0025
1665.00,0.0025
1664.00,0.0026
1663.00,0.0026
1662.00,0.0026
1661.00,0.0026
1660.00,0.0026
1659.00,0.0026
1658.00,0.0025
1657.00,0.0025
1656.00,0.0026
1655.00,0.0026
1654.00,0.0027
1653.00,0.0027
1652.00,0.0027
1651.00,0.0027
1650.00,0.0027
1649.00,0.0027
1648.00,0.0028
1647.00,0.0028
1646.00,0.0028
1645.00,0.0029
1644.00,0.0029
1643.00,0.0030
1642.00,0.0030
1641.00,0.0030
1640.00,0.0031
1639.00,0.0032
1638.00,0.0032
1637.00,0.0032
1636.00,0.0033
1635.00,0.0033
1634.00,0.0034
1633.00,0.0034
1632.00,0.0034
1631.00,0.0034
1630.00,0.0034
1629.00,0.0033
1628.00,0.0033
1627.00,0.0033
1626.00,0.0032
1625.00,0.0032
1624.00,0.0032
1623.00,0.0032
1622.00,0.0031
1621.00,0.0031
1620.00,0.0031
1619.00,0.0031
1618.00,0.0030
1617.00,0.0030
1616.00,0.0030
1615.00,0.0030
1614.00,0.0030
1613.00,0.0030
1612.00,0.0030
1611.00,0.0030
1610.00,0.0029
1609.00,0.0029
1608.00,0.0029
1607.00,0.0030
1606.00,0.0030
1605.00,0.0030
1604.00,0.0030
1603.00,0.0030
1602.00,0.0030
1601.00,0.0030
1600.00,0.0030
1599.00,0.0030
1598.00,0.0031
1597.00,0.0031
1596.00,0.0031
1595.00,0.0032
1594.00,0.0032
1593.00,0.0032
1592.00,0.0032
1591.00,0.0033
1590.00,0.0034
1589.00,0.0034
1588.00,0.0035
1587.00,0.0036
1586.00,0.0038
1585.00,0.0040
1584.00,0.0042
1583.00,0.0044
1582.00,0.0046
1581.00,0.0048
1580.00,0.0051
1579.00,0.0052
1578.00,0.0054
1577.00,0.0055
1576.00,0.0055
1575.00,0.0054
1574.00,0.0053
1573.00,0.0052
1572.00,0.0051
1571.00,0.0049
1570.00,0.0047
1569.00,0.0045
1568.00,0.0044
1567.00,0.0043
1566.00,0.0042
1565.00,0.0042
1564.00,0.0042
1563.00,0.0041
1562.00,0.0040
1561.00,0.0039
1560.00,0.0038
1559.00,0.0038
1558.00,0.0038
1557.00,0.0039
1556.00,0.0040
1555.00,0.0041
1554.00,0.0041
1553.00,0.0042
1552.00,0.0044
1551.00,0.0045
1550.00,0.0046
1549.00,0.0047
1548.00,0.0048
1547.00,0.0050
1546.00,0.0053
1545.00,0.0056
1544.00,0.0060
1543.00,0.0062
1542.00,0.0063
1541.00,0.0063
1540.00,0.0062
1539.00,0.0059
1538.00,0.0057
1537.00,0.0056
1536.00,0.0054
1535.00,0.0052
1534.00,0.0049
1533.00,0.0046
1532.00,0.0044
1531.00,0.0044
1530.00,0.0043
1529.00,0.0042
1528.00,0.0042
1527.00,0.0041
1526.00,0.0041
1525.00,0.0041
1524.00,0.0042
1523.00,0.0042
1522.00,0.0043
1521.00,0.0044
1520.00,0.0045
1519.00,0.0045
1518.00,0.0045
1517.00,0.0045
1516.00,0.0046
1515.00,0.0046
1514.00,0.0046
1513.00,0.0047
1512.00,0.0048
1511.00,0.0048
1510.00,0.0049
1509.00,0.0050
1508.00,0.0051
1507.00,0.0052
1506.00,0.0052
1505.00,0.0053
1504.00,0.0054
1503.00,0.0056
1502.00,0.0058
1501.00,0.0060
1500.00,0.0062
1499.00,0.0063
1498.00,0.0065
1497.00,0.0067
1496.00,0.0071
1495.00,0.0075
1494.00,0.0077
1493.00,0.0080
1492.00,0.0084
1491.00,0.0087
1490.00,0.0091
1489.00,0.0096
1488.00,0.0102
1487.00,0.0107
1486.00,0.0112
1485.00,0.0119
1484.00,0.0127
1483.00,0.0135
1482.00,0.0145
1481.00,0.0157
1480.00,0.0170
1479.00,0.0183
1478.00,0.0199
1477.00,0.0220
1476.00,0.0247
1475.00,0.0278
1474.00,0.0319
1473.00,0.0377
1472.00,0.0446
1471.00,0.0513
1470.00,0.0578
1469.00,0.0647
1468.00,0.0722
1467.00,0.0806
1466.00,0.0901
1465.00,0.1004
1464.00,0.1093
1463.00,0.1153
1462.00,0.1189
1461.00,0.1211
1460.00,0.1224
1459.00,0.1229
1458.00,0.1229
1457.00,0.1225
1456.00,0.1215
1455.00,0.1199
1454.00,0.1181
1453.00,0.1158
1452.00,0.1125
1451.00,0.1080
1450.00,0.1022
1449.00,0.0945
1448.00,0.0851
1447.00,0.0755
1446.00,0.0669
1445.00,0.0599
1444.00,0.0540
1443.00,0.0492
1442.00,0.0457
1441.00,0.0434
1440.00,0.0421
1439.00,0.0418
1438.00,0.0424
1437.00,0.0432
1436.00,0.0427
1435.00,0.0404
1434.00,0.0368
1433.00,0.0323
1432.00,0.0275
1431.00,0.0233
1430.00,0.0200
1429.00,0.0176
1428.00,0.0159
1427.00,0.0149
1426.00,0.0142
1425.00,0.0136
1424.00,0.0130
1423.00,0.0127
1422.00,0.0124
1421.00,0.0122
1420.00,0.0118
1419.00,0.0115
1418.00,0.0113
1417.00,0.0110
1416.00,0.0108
1415.00,0.0107
1414.00,0.0106
1413.00,0.0104
1412.00,0.0102
1411.00,0.0101
1410.00,0.0101
1409.00,0.0100
1408.00,0.0099
1407.00,0.0099
1406.00,0.0099
1405.00,0.0099
1404.00,0.0098
1403.00,0.0099
1402.00,0.0100
1401.00,0.0101
1400.00,0.0102
1399.00,0.0104
1398.00,0.0107
1397.00,0.0109
1396.00,0.0110
1395.00,0.0114
1394.00,0.0119
1393.00,0.0124
1392.00,0.0130
1391.00,0.0138
1390.00,0.0148
1389.00,0.0162
1388.00,0.0183
1387.00,0.0215
1386.00,0.0257
1385.00,0.0314
1384.00,0.0393
1383.00,0.0507
1382.00,0.0665
1381.00,0.0875
1380.00,0.1143
1379.00,0.1454
1378.00,0.1761
1377.00,0.1991
1376.00,0.2074
1375.00,0.1971
1374.00,0.1713
1373.00,0.1402
1372.00,0.1118
1371.00,0.0886
1370.00,0.0702
1369.00,0.0565
1368.00,0.0471
1367.00,0.0413
1366.00,0.0382
1365.00,0.0370
1364.00,0.0373
1363.00,0.0389
1362.00,0.0414
1361.00,0.0440
1360.00,0.0459
1359.00,0.0466
1358.00,0.0455
1357.00,0.0427
1356.00,0.0388
1355.00,0.0343
1354.00,0.0300
1353.00,0.0263
1352.00,0.0234
1351.00,0.0210
1350.00,0.0191
1349.00,0.0175
1348.00,0.0163
1347.00,0.0152
1346.00,0.0143
1345.00,0.0135
1344.00,0.0128
1343.00,0.0123
1342.00,0.0119
1341.00,0.0116
1340.00,0.0114
1339.00,0.0112
1338.00,0.0111
1337.00,0.0110
1336.00,0.0111
1335.00,0.0113
1334.00,0.0116
1333.00,0.0121
1332.00,0.0126
1331.00,0.0130
1330.00,0.0132
1329.00,0.0130
1328.00,0.0126
1327.00,0.0121
1326.00,0.0114
1325.00,0.0108
1324.00,0.0102
1323.00,0.0097
1322.00,0.0093
1321.00,0.0090
1320.00,0.0087
1319.00,0.0085
1318.00,0.0083
1317.00,0.0081
1316.00,0.0080
1315.00,0.0079
1314.00,0.0079
1313.00,0.0079
1312.00,0.0080
1311.00,0.0082
1310.00,0.0084
1309.00,0.0088
1308.00,0.0094
1307.00,0.0102
1306.00,0.0109
1305.00,0.0115
1304.00,0.0117
1303.00,0.0116
1302.00,0.0115
1301.00,0.0114
1300.00,0.0115
1299.00,0.0118
1298.00,0.0120
1297.00,0.0122
1296.00,0.0121
1295.00,0.0119
1294.00,0.0115
1293.00,0.0110
1292.00,0.0105
1291.00,0.0100
1290.00,0.0095
1289.00,0.0091
1288.00,0.0088
1287.00,0.0085
1286.00,0.0082
1285.00,0.0079
1284.00,0.0077
1283.00,0.0076
1282.00,0.0075
1281.00,0.0073
1280.00,0.0073
1279.00,0.0072
1278.00,0.0071
1277.00,0.0070
1276.00,0.0069
1275.00,0.0069
1274.00,0.0068
1273.00,0.0068
1272.00,0.0068
1271.00,0.0068
1270.00,0.0069
1269.00,0.0069
1268.00,0.0070
1267.00,0.0071
1266.00,0.0072
1265.00,0.0074
1264.00,0.0075
1263.00,0.0077
1262.00,0.0080
1261.00,0.0082
1260.00,0.0086
1259.00,0.0091
1258.00,0.0096
1257.00,0.0100
1256.00,0.0102
1255.00,0.0100
1254.00,0.0096
1253.00,0.0090
1252.00,0.0085
1251.00,0.0080
1250.00,0.0076
1249.00,0.0073
1248.00,0.0071
1247.00,0.0070
1246.00,0.0069
1245.00,0.0068
1244.00,0.0068
1243.00,0.0068
1242.00,0.0068
1241.00,0.0067
1240.00,0.0067
1239.00,0.0067
1238.00,0.0066
1237.00,0.0066
1236.00,0.0066
1235.00,0.0066
1234.00,0.0066
1233.00,0.0067
1232.00,0.0069
1231.00,0.0070
1230.00,0.0072
1229.00,0.0073
1228.00,0.0074
1227.00,0.0076
1226.00,0.0078
1225.00,0.0081
1224.00,0.0084
1223.00,0.0087
1222.00,0.0091
1221.00,0.0095
1220.00,0.0097
1219.00,0.0098
1218.00,0.0098
1217.00,0.0096
1216.00,0.0093
1215.00,0.0089
1214.00,0.0086
1213.00,0.0082
1212.00,0.0079
1211.00,0.0077
1210.00,0.0075
1209.00,0.0074
1208.00,0.0073
1207.00,0.0072
1206.00,0.0071
1205.00,0.0071
1204.00,0.0070
1203.00,0.0069
1202.00,0.0068
1201.00,0.0068
1200.00,0.0068
1199.00,0.0069
1198.00,0.0069
1197.00,0.0070
1196.00,0.0070
1195.00,0.0069
1194.00,0.0069
1193.00,0.0069
1192.00,0.0069
1191.00,0.0068
1190.00,0.0067
1189.00,0.0066
1188.00,0.0066
1187.00,0.0066
1186.00,0.0067
1185.00,0.0068
1184.00,0.0069
1183.00,0.0070
1182.00,0.0072
1181.00,0.0073
1180.00,0.0075
1179.00,0.0078
1178.00,0.0083
1177.00,0.0089
1176.00,0.0096
1175.00,0.0106
1174.00,0.0118
1173.00,0.0134
1172.00,0.0154
1171.00,0.0175
1170.00,0.0196
1169.00,0.0212
1168.00,0.0223
1167.00,0.0226
1166.00,0.0221
1165.00,0.0212
1164.00,0.0202
1163.00,0.0193
1162.00,0.0185
1161.00,0.0179
1160.00,0.0175
1159.00,0.0171
1158.00,0.0169
1157.00,0.0168
1156.00,0.0169
1155.00,0.0170
1154.00,0.0170
1153.00,0.0169
1152.00,0.0165
1151.00,0.0160
1150.00,0.0151
1149.00,0.0142
1148.00,0.0133
1147.00,0.0124
1146.00,0.0116
1145.00,0.0108
1144.00,0.0101
1143.00,0.0094
1142.00,0.0088
1141.00,0.0083
1140.00,0.0079
1139.00,0.0075
1138.00,0.0072
1137.00,0.0070
1136.00,0.0067
1135.00,0.0065
1134.00,0.0064
1133.00,0.0063
1132.00,0.0062
1131.00,0.0060
1130.00,0.0059
1129.00,0.0058
1128.00,0.0058
1127.00,0.0057
1126.00,0.0057
1125.00,0.0058
1124.00,0.0059
1123.00,0.0060
1122.00,0.0061
1121.00,0.0060
1120.00,0.0060
1119.00,0.0060
1118.00,0.0061
1117.00,0.0062
1116.00,0.0063
1115.00,0.0065
1114.00,0.0067
1113.00,0.0069
1112.00,0.0071
1111.00,0.0073
1110.00,0.0076
1109.00,0.0081
1108.00,0.0086
1107.00,0.0093
1106.00,0.0100
1105.00,0.0107
1104.00,0.0113
1103.00,0.0116
1102.00,0.0116
1101.00,0.0112
1100.00,0.0105
1099.00,0.0097
1098.00,0.0090
1097.00,0.0084
1096.00,0.0079
1095.00,0.0076
1094.00,0.0072
1093.00,0.0070
1092.00,0.0067
1091.00,0.0066
1090.00,0.0065
1089.00,0.0065
1088.00,0.0064
1087.00,0.0064
1086.00,0.0064
1085.00,0.0064
1084.00,0.0063
1083.00,0.0063
1082.00,0.0063
1081.00,0.0063
1080.00,0.0062
1079.00,0.0062
1078.00,0.0061
1077.00,0.0060
1076.00,0.0060
1075.00,0.0060
1074.00,0.0060
1073.00,0.0060
1072.00,0.0060
1071.00,0.0059
1070.00,0.0059
1069.00,0.0060
1068.00,0.0060
1067.00,0.0061
1066.00,0.0061
1065.00,0.0062
1064.00,0.0063
1063.00,0.0064
1062.00,0.0065
1061.00,0.0066
1060.00,0.0067
1059.00,0.0068
1058.00,0.0069
1057.00,0.0069
1056.00,0.0070
1055.00,0.0071
1054.00,0.0072
1053.00,0.0075
1052.00,0.0079
1051.00,0.0083
1050.00,0.0087
1049.00,0.0090
1048.00,0.0093
1047.00,0.0096
1046.00,0.0099
1045.00,0.0102
1044.00,0.0104
1043.00,0.0104
1042.00,0.0104
1041.00,0.0102
1040.00,0.0102
1039.00,0.0102
1038.00,0.0103
1037.00,0.0103
1036.00,0.0102
1035.00,0.0101
1034.00,0.0099
1033.00,0.0098
1032.00,0.0097
1031.00,0.0096
1030.00,0.0096
1029.00,0.0097
1028.00,0.0098
1027.00,0.0100
1026.00,0.0102
1025.00,0.0104
1024.00,0.0105
1023.00,0.0107
1022.00,0.0109
1021.00,0.0111
1020.00,0.0113
1019.00,0.0114
1018.00,0.0114
1017.00,0.0115
1016.00,0.0116
1015.00,0.0117
1014.00,0.0117
1013.00,0.0117
1012.00,0.0116
1011.00,0.0115
1010.00,0.0114
1009.00,0.0114
1008.00,0.0115
1007.00,0.0117
1006.00,0.0121
1005.00,0.0128
1004.00,0.0139
1003.00,0.0153
1002.00,0.0173
1001.00,0.0196
1000.00,0.0220
999.00,0.0239
998.00,0.0245
997.00,0.0238
996.00,0.0219
995.00,0.0194
994.00,0.0169
993.00,0.0147
992.00,0.0130
991.00,0.0117
990.00,0.0108
989.00,0.0102
988.00,0.0098
987.00,0.0096
986.00,0.0095
985.00,0.0096
984.00,0.0100
983.00,0.0107
982.00,0.0117
981.00,0.0130
980.00,0.0148
979.00,0.0172
978.00,0.0200
977.00,0.0232
976.00,0.0263
975.00,0.0290
974.00,0.0307
973.00,0.0308
972.00,0.0293
971.00,0.0265
970.00,0.0230
969.00,0.0196
968.00,0.0167
967.00,0.0145
966.00,0.0129
965.00,0.0117
964.00,0.0107
963.00,0.0100
962.00,0.0094
961.00,0.0090
960.00,0.0087
959.00,0.0084
958.00,0.0081
957.00,0.0079
956.00,0.0077
955.00,0.0075
954.00,0.0074
953.00,0.0073
952.00,0.0072
951.00,0.0071
950.00,0.0072
949.00,0.0072
948.00,0.0073
947.00,0.0073
946.00,0.0075
945.00,0.0077
944.00,0.0082
943.00,0.0086
942.00,0.0090
941.00,0.0091
940.00,0.0091
939.00,0.0088
938.00,0.0083
937.00,0.0078
936.00,0.0073
935.00,0.0069
934.00,0.0066
933.00,0.0063
932.00,0.0061
931.00,0.0059
930.00,0.0058
929.00,0.0057
928.00,0.0056
927.00,0.0056
926.00,0.0055
925.00,0.0055
924.00,0.0054
923.00,0.0054
922.00,0.0054
921.00,0.0054
920.00,0.0054
919.00,0.0055
918.00,0.0055
917.00,0.0056
916.00,0.0057
915.00,0.0058
914.00,0.0059
913.00,0.0060
912.00,0.0061
911.00,0.0062
910.00,0.0064
909.00,0.0067
908.00,0.0071
907.00,0.0077
906.00,0.0086
905.00,0.0098
904.00,0.0114
903.00,0.0134
902.00,0.0156
901.00,0.0176
900.00,0.0188
899.00,0.0189
898.00,0.0179
897.00,0.0161
896.00,0.0139
895.00,0.0119
894.00,0.0102
893.00,0.0090
892.00,0.0082
891.00,0.0078
890.00,0.0075
889.00,0.0073
888.00,0.0070
887.00,0.0067
886.00,0.0065
885.00,0.0064
884.00,0.0064
883.00,0.0064
882.00,0.0064
881.00,0.0064
880.00,0.0064
879.00,0.0064
878.00,0.0065
877.00,0.0066
876.00,0.0067
875.00,0.0067
874.00,0.0067
873.00,0.0066
872.00,0.0066
871.00,0.0065
870.00,0.0065
869.00,0.0066
868.00,0.0066
867.00,0.0066
866.00,0.0067
865.00,0.0067
864.00,0.0068
863.00,0.0070
862.00,0.0072
861.00,0.0073
860.00,0.0073
859.00,0.0074
858.00,0.0075
857.00,0.0076
856.00,0.0078
855.00,0.0080
854.00,0.0081
853.00,0.0082
852.00,0.0084
851.00,0.0086
850.00,0.0089
849.00,0.0093
848.00,0.0098
847.00,0.0107
846.00,0.0121
845.00,0.0141
844.00,0.0168
843.00,0.0197
842.00,0.0220
841.00,0.0226
840.00,0.0211
839.00,0.0182
838.00,0.0151
837.00,0.0127
836.00,0.0111
835.00,0.0103
834.00,0.0098
833.00,0.0095
832.00,0.0093
831.00,0.0091
830.00,0.0089
829.00,0.0088
828.00,0.0087
827.00,0.0086
826.00,0.0085
825.00,0.0083
824.00,0.0083
823.00,0.0084
822.00,0.0087
821.00,0.0090
820.00,0.0092
819.00,0.0095
818.00,0.0099
817.00,0.0105
816.00,0.0115
815.00,0.0128
814.00,0.0145
813.00,0.0165
812.00,0.0188
811.00,0.0209
810.00,0.0225
809.00,0.0232
808.00,0.0227
807.00,0.0213
806.00,0.0193
805.00,0.0172
804.00,0.0152
803.00,0.0136
802.00,0.0123
801.00,0.0114
800.00,0.0108
799.00,0.0103
798.00,0.0097
797.00,0.0092
796.00,0.0088
795.00,0.0085
794.00,0.0083
793.00,0.0080
792.00,0.0078
791.00,0.0076
790.00,0.0074
789.00,0.0072
788.00,0.0069
787.00,0.0066
786.00,0.0063
785.00,0.0061
784.00,0.0059
783.00,0.0058
782.00,0.0057
781.00,0.0055
780.00,0.0055
779.00,0.0055
778.00,0.0056
777.00,0.0056
776.00,0.0057
775.00,0.0058
774.00,0.0058
773.00,0.0058
772.00,0.0058
771.00,0.0058
770.00,0.0057
769.00,0.0056
768.00,0.0056
767.00,0.0056
766.00,0.0057
765.00,0.0058
764.00,0.0058
763.00,0.0057
762.00,0.0057
761.00,0.0057
760.00,0.0059
759.00,0.0061
758.00,0.0063
757.00,0.0064
756.00,0.0064
755.00,0.0065
754.00,0.0066
753.00,0.0067
752.00,0.0068
751.00,0.0068
750.00,0.0067
749.00,0.0068
748.00,0.0070
747.00,0.0073
746.00,0.0077
745.00,0.0080
744.00,0.0081
743.00,0.0082
742.00,0.0084
741.00,0.0087
740.00,0.0090
739.00,0.0093
738.00,0.0096
737.00,0.0099
736.00,0.0103
735.00,0.0107
734.00,0.0112
733.00,0.0117
732.00,0.0124
731.00,0.0130
730.00,0.0136
729.00,0.0140
728.00,0.0142
727.00,0.0143
726.00,0.0144
725.00,0.0146
724.00,0.0151
723.00,0.0159
722.00,0.0168
721.00,0.0173
720.00,0.0172
719.00,0.0162
718.00,0.0148
717.00,0.0134
716.00,0.0123
715.00,0.0115
714.00,0.0109
713.00,0.0104
712.00,0.0101
711.00,0.0099
710.00,0.0097
709.00,0.0095
708.00,0.0093
707.00,0.0093
706.00,0.0092
705.00,0.0090
704.00,0.0088
703.00,0.0085
702.00,0.0083
701.00,0.0083
700.00,0.0084
699.00,0.0085
698.00,0.0086
697.00,0.0085
696.00,0.0083
695.00,0.0081
694.00,0.0080
693.00,0.0080
692.00,0.0080
691.00,0.0081
690.00,0.0082
689.00,0.0082
688.00,0.0082
687.00,0.0081
686.00,0.0081
685.00,0.0080
684.00,0.0078
683.00,0.0078
682.00,0.0080
681.00,0.0083
680.00,0.0085
679.00,0.0087
678.00,0.0088
677.00,0.0088
676.00,0.0087
675.00,0.0084
674.00,0.0083
673.00,0.0084
672.00,0.0087
671.00,0.0092
670.00,0.0098
669.00,0.0103
668.00,0.0105
667.00,0.0105
666.00,0.0100
665.00,0.0093
664.00,0.0088
663.00,0.0084
662.00,0.0082
661.00,0.0081
660.00,0.0080
659.00,0.0080
658.00,0.0080
657.00,0.0078
656.00,0.0076
655.00,0.0073
654.00,0.0072
653.00,0.0072
652.00,0.0073
651.00,0.0073
650.00,0.0073
649.00,0.0073
648.00,0.0073
647.00,0.0073
646.00,0.0074
645.00,0.0074
644.00,0.0074
643.00,0.0074
642.00,0.0073
641.00,0.0073
640.00,0.0072
639.00,0.0071
638.00,0.0071
637.00,0.0070
636.00,0.0070
635.00,0.0069
634.00,0.0070
633.00,0.0071
632.00,0.0073
631.00,0.0075
630.00,0.0076
629.00,0.0077
628.00,0.0076
627.00,0.0075
626.00,0.0072
625.00,0.0070
624.00,0.0068
623.00,0.0066
622.00,0.0065
621.00,0.0065
620.00,0.0065
619.00,0.0065
618.00,0.0065
617.00,0.0067
616.00,0.0069
615.00,0.0071
614.00,0.0071
613.00,0.0072
612.00,0.0073
611.00,0.0074
610.00,0.0074
609.00,0.0073
608.00,0.0071
607.00,0.0069
606.00,0.0067
605.00,0.0064
604.00,0.0062
603.00,0.0061
602.00,0.0062
601.00,0.0065
600.00,0.0067
599.00,0.0069
598.00,0.0068
597.00,0.0068
596.00,0.0068
595.00,0.0068
594.00,0.0068
593.00,0.0066
592.00,0.0065
591.00,0.0065
590.00,0.0066
589.00,0.0066
588.00,0.0067
587.00,0.0067
586.00,0.0067
585.00,0.0066
584.00,0.0066
583.00,0.0067
582.00,0.0066
581.00,0.0064
580.00,0.0063
579.00,0.0062
578.00,0.0063
577.00,0.0065
576.00,0.0067
575.00,0.0068
574.00,0.0068
573.00,0.0067
572.00,0.0066
571.00,0.0067
570.00,0.0067
569.00,0.0067
568.00,0.0065
567.00,0.0064
566.00,0.0063
565.00,0.0063
564.00,0.0064
563.00,0.0066
562.00,0.0067
561.00,0.0068
560.00,0.0069
559.00,0.0071
558.00,0.0073
557.00,0.0073
556.00,0.0070
555.00,0.0068
554.00,0.0066
553.00,0.0067
552.00,0.0071
551.00,0.0076
550.00,0.0079
549.00,0.0076
548.00,0.0070
547.00,0.0067
546.00,0.0069
545.00,0.0074
544.00,0.0079
543.00,0.0081
542.00,0.0083
541.00,0.0085
540.00,0.0086
539.00,0.0087
538.00,0.0087
537.00,0.0088
536.00,0.0090
535.00,0.0093
534.00,0.0097
533.00,0.0099
532.00,0.0102
531.00,0.0103
530.00,0.0102
529.00,0.0099
528.00,0.0096
527.00,0.0093
526.00,0.0091
525.00,0.0089
524.00,0.0088
523.00,0.0088
522.00,0.0087
521.00,0.0085
520.00,0.0082
519.00,0.0077
518.00,0.0070
517.00,0.0064
516.00,0.0060
515.00,0.0061
514.00,0.0064
513.00,0.0064
512.00,0.0062
511.00,0.0062
510.00,0.0064
509.00,0.0066
508.00,0.0068
507.00,0.0071
506.00,0.0074
505.00,0.0077
504.00,0.0081
503.00,0.0085
502.00,0.0090
501.00,0.0090
500.00,0.0086
499.00,0.0077
498.00,0.0070
497.00,0.0066
496.00,0.0068
495.00,0.0075
494.00,0.0086
493.00,0.0094
492.00,0.0096
491.00,0.0092
490.00,0.0087
489.00,0.0084
488.00,0.0083
487.00,0.0082
486.00,0.0081
485.00,0.0082
484.00,0.0084
483.00,0.0090
482.00,0.0099
481.00,0.0106
480.00,0.0107
479.00,0.0101
478.00,0.0090
477.00,0.0082
476.00,0.0084
475.00,0.0096
474.00,0.0112
473.00,0.0127
472.00,0.0133
471.00,0.0133
470.00,0.0129
469.00,0.0124
468.00,0.0120
467.00,0.0123
466.00,0.0133
465.00,0.0145
464.00,0.0155
463.00,0.0161
462.00,0.0164
461.00,0.0167
460.00,0.0173
459.00,0.0184
458.00,0.0201
457.00,0.0212
456.00,0.0211
455.00,0.0199
454.00,0.0184
453.00,0.0171
452.00,0.0163
451.00,0.0157
450.00,0.0153
