Created as New Dataset,Sample 035 By Administrator Date Wednesday, September 03 2025
cm-1,A
4000.00,0.0010
3999.00,0.0010
3998.00,0.0010
3997.00,0.0010
3996.00,0.0010
3995.00,0.0010
3994.00,0.0010
3993.00,0.0010
3992.00,0.0010
3991.00,0.0010
3990.00,0.0010
3989.00,0.0009
3988.00,0.0009
3987.00,0.0009
3986.00,0.0009
3985.00,0.0009
3984.00,0.0009
3983.00,0.0009
3982.00,0.0009
3981.00,0.0009
3980.00,0.0009
3979.00,0.0009
3978.00,0.0009
3977.00,0.0009
3976.00,0.0009
3975.00,0.0009
3974.00,0.0009
3973.00,0.0009
3972.00,0.0009
3971.00,0.0010
3970.00,0.0010
3969.00,0.0009
3968.00,0.0009
3967.00,0.0009
3966.00,0.0009
3965.00,0.0008
3964.00,0.0008
3963.00,0.0008
3962.00,0.0008
3961.00,0.0008
3960.00,0.0008
3959.00,0.0008
3958.00,0.0008
3957.00,0.0008
3956.00,0.0008
3955.00,0.0008
3954.00,0.0008
3953.00,0.0008
3952.00,0.0007
3951.00,0.0007
3950.00,0.0008
3949.00,0.0008
3948.00,0.0008
3947.00,0.0008
3946.00,0.0008
3945.00,0.0008
3944.00,0.0008
3943.00,0.0008
3942.00,0.0009
3941.00,0.0009
3940.00,0.0009
3939.00,0.0009
3938.00,0.0008
3937.00,0.0008
3936.00,0.0008
3935.00,0.0008
3934.00,0.0008
3933.00,0.0009
3932.00,0.0009
3931.00,0.0009
3930.00,0.0009
3929.00,0.0009
3928.00,0.0009
3927.00,0.0009
3926.00,0.0009
3925.00,0.0009
3924.00,0.0009
3923.00,0.0009
3922.00,0.0009
3921.00,0.0009
3920.00,0.0009
3919.00,0.0009
3918.00,0.0009
3917.00,0.0009
3916.00,0.0010
3915.00,0.0010
3914.00,0.0009
3913.00,0.0009
3912.00,0.0008
3911.00,0.0008
3910.00,0.0008
3909.00,0.0008
3908.00,0.0008
3907.00,0.0008
3906.00,0.0008
3905.00,0.0008
3904.00,0.0008
3903.00,0.0009
3902.00,0.0009
3901.00,0.0009
3900.00,0.0009
3899.00,0.0009
3898.00,0.0009
3897.00,0.0008
3896.00,0.0008
3895.00,0.0008
3894.00,0.0008
3893.00,0.0007
3892.00,0.0007
3891.00,0.0007
3890.00,0.0007
3889.00,0.0008
3888.00,0.0008
3887.00,0.0009
3886.00,0.0009
3885.00,0.0009
3884.00,0.0009
3883.00,0.0009
3882.00,0.0008
3881.00,0.0008
3880.00,0.0008
3879.00,0.0008
3878.00,0.0009
3877.00,0.0008
3876.00,0.0008
3875.00,0.0007
3874.00,0.0007
3873.00,0.0007
3872.00,0.0007
3871.00,0.0007
3870.00,0.0007
3869.00,0.0007
3868.00,0.0007
3867.00,0.0007
3866.00,0.0007
3865.00,0.0006
3864.00,0.0006
3863.00,0.0007
3862.00,0.0007
3861.00,0.0007
3860.00,0.0007
3859.00,0.0007
3858.00,0.0007
3857.00,0.0007
3856.00,0.0008
3855.00,0.0008
3854.00,0.0007
3853.00,0.0007
3852.00,0.0008
3851.00,0.0008
3850.00,0.0008
3849.00,0.0008
3848.00,0.0008
3847.00,0.0008
3846.00,0.0008
3845.00,0.0008
3844.00,0.0008
3843.00,0.0008
3842.00,0.0008
3841.00,0.0007
3840.00,0.0007
3839.00,0.0007
3838.00,0.0007
3837.00,0.0007
3836.00,0.0007
3835.00,0.0007
3834.00,0.0006
3833.00,0.0006
3832.00,0.0006
3831.00,0.0006
3830.00,0.0007
3829.00,0.0007
3828.00,0.0008
3827.00,0.0008
3826.00,0.0008
3825.00,0.0008
3824.00,0.0008
3823.00,0.0007
3822.00,0.0007
3821.00,0.0007
3820.00,0.0007
3819.00,0.0008
3818.00,0.0008
3817.00,0.0008
3816.00,0.0008
3815.00,0.0008
3814.00,0.0008
3813.00,0.0008
3812.00,0.0008
3811.00,0.0007
3810.00,0.0007
3809.00,0.0006
3808.00,0.0006
3807.00,0.0006
3806.00,0.0007
3805.00,0.0007
3804.00,0.0008
3803.00,0.0008
3802.00,0.0008
3801.00,0.0008
3800.00,0.0007
3799.00,0.0007
3798.00,0.0007
3797.00,0.0007
3796.00,0.0008
3795.00,0.0008
3794.00,0.0008
3793.00,0.0008
3792.00,0.0008
3791.00,0.0008
3790.00,0.0008
3789.00,0.0007
3788.00,0.0007
3787.00,0.0007
3786.00,0.0007
3785.00,0.0007
3784.00,0.0007
3783.00,0.0007
3782.00,0.0007
3781.00,0.0007
3780.00,0.0007
3779.00,0.0007
3778.00,0.0008
3777.00,0.0008
3776.00,0.0008
3775.00,0.0008
3774.00,0.0008
3773.00,0.0008
3772.00,0.0008
3771.00,0.0007
3770.00,0.0007
3769.00,0.0007
3768.00,0.0007
3767.00,0.0008
3766.00,0.0008
3765.00,0.0007
3764.00,0.0007
3763.00,0.0007
3762.00,0.0007
3761.00,0.0008
3760.00,0.0008
3759.00,0.0008
3758.00,0.0007
3757.00,0.0007
3756.00,0.0007
3755.00,0.0007
3754.00,0.0007
3753.00,0.0008
3752.00,0.0008
3751.00,0.0008
3750.00,0.0007
3749.00,0.0007
3748.00,0.0007
3747.00,0.0007
3746.00,0.0007
3745.00,0.0007
3744.00,0.0007
3743.00,0.0007
3742.00,0.0007
3741.00,0.0007
3740.00,0.0006
3739.00,0.0006
3738.00,0.0006
3737.00,0.0005
3736.00,0.0005
3735.00,0.0004
3734.00,0.0005
3733.00,0.0005
3732.00,0.0005
3731.00,0.0006
3730.00,0.0006
3729.00,0.0005
3728.00,0.0005
3727.00,0.0005
3726.00,0.0005
3725.00,0.0006
3724.00,0.0006
3723.00,0.0006
3722.00,0.0006
3721.00,0.0006
3720.00,0.0006
3719.00,0.0006
3718.00,0.0006
3717.00,0.0006
3716.00,0.0006
3715.00,0.0006
3714.00,0.0007
3713.00,0.0007
3712.00,0.0007
3711.00,0.0006
3710.00,0.0006
3709.00,0.0006
3708.00,0.0005
3707.00,0.0005
3706.00,0.0005
3705.00,0.0005
3704.00,0.0005
3703.00,0.0004
3702.00,0.0005
3701.00,0.0005
3700.00,0.0005
3699.00,0.0005
3698.00,0.0005
3697.00,0.0005
3696.00,0.0005
3695.00,0.0005
3694.00,0.0006
3693.00,0.0006
3692.00,0.0006
3691.00,0.0006
3690.00,0.0006
3689.00,0.0005
3688.00,0.0005
3687.00,0.0005
3686.00,0.0004
3685.00,0.0004
3684.00,0.0004
3683.00,0.0005
3682.00,0.0005
3681.00,0.0006
3680.00,0.0006
3679.00,0.0006
3678.00,0.0006
3677.00,0.0006
3676.00,0.0005
3675.00,0.0005
3674.00,0.0005
3673.00,0.0005
3672.00,0.0006
3671.00,0.0006
3670.00,0.0006
3669.00,0.0006
3668.00,0.0005
3667.00,0.0005
3666.00,0.0005
3665.00,0.0005
3664.00,0.0005
3663.00,0.0005
3662.00,0.0005
3661.00,0.0005
3660.00,0.0005
3659.00,0.0005
3658.00,0.0005
3657.00,0.0005
3656.00,0.0005
3655.00,0.0005
3654.00,0.0005
3653.00,0.0005
3652.00,0.0004
3651.00,0.0003
3650.00,0.0003
3649.00,0.0003
3648.00,0.0003
3647.00,0.0004
3646.00,0.0005
3645.00,0.0005
3644.00,0.0006
3643.00,0.0006
3642.00,0.0006
3641.00,0.0006
3640.00,0.0006
3639.00,0.0006
3638.00,0.0006
3637.00,0.0006
3636.00,0.0006
3635.00,0.0005
3634.00,0.0005
3633.00,0.0005
3632.00,0.0006
3631.00,0.0006
3630.00,0.0007
3629.00,0.0007
3628.00,0.0007
3627.00,0.0007
3626.00,0.0007
3625.00,0.0006
3624.00,0.0006
3623.00,0.0005
3622.00,0.0006
3621.00,0.0006
3620.00,0.0006
3619.00,0.0005
3618.00,0.0005
3617.00,0.0005
3616.00,0.0005
3615.00,0.0006
3614.00,0.0006
3613.00,0.0006
3612.00,0.0006
3611.00,0.0006
3610.00,0.0006
3609.00,0.0007
3608.00,0.0007
3607.00,0.0008
3606.00,0.0008
3605.00,0.0008
3604.00,0.0007
3603.00,0.0007
3602.00,0.0007
3601.00,0.0007
3600.00,0.0007
3599.00,0.0007
3598.00,0.0007
3597.00,0.0007
3596.00,0.0007
3595.00,0.0007
3594.00,0.0007
3593.00,0.0007
3592.00,0.0007
3591.00,0.0008
3590.00,0.0008
3589.00,0.0008
3588.00,0.0008
3587.00,0.0008
3586.00,0.0009
3585.00,0.0009
3584.00,0.0009
3583.00,0.0010
3582.00,0.0010
3581.00,0.0010
3580.00,0.0009
3579.00,0.0009
3578.00,0.0009
3577.00,0.0010
3576.00,0.0010
3575.00,0.0010
3574.00,0.0010
3573.00,0.0010
3572.00,0.0011
3571.00,0.0011
3570.00,0.0011
3569.00,0.0011
3568.00,0.0011
3567.00,0.0011
3566.00,0.0012
3565.00,0.0012
3564.00,0.0012
3563.00,0.0012
3562.00,0.0012
3561.00,0.0012
3560.00,0.0012
3559.00,0.0012
3558.00,0.0012
3557.00,0.0013
3556.00,0.0013
3555.00,0.0012
3554.00,0.0012
3553.00,0.0012
3552.00,0.0012
3551.00,0.0013
3550.00,0.0013
3549.00,0.0013
3548.00,0.0013
3547.00,0.0014
3546.00,0.0014
3545.00,0.0014
3544.00,0.0014
3543.00,0.0014
3542.00,0.0014
3541.00,0.0014
3540.00,0.0014
3539.00,0.0015
3538.00,0.0014
3537.00,0.0014
3536.00,0.0014
3535.00,0.0014
3534.00,0.0014
3533.00,0.0015
3532.00,0.0015
3531.00,0.0015
3530.00,0.0015
3529.00,0.0015
3528.00,0.0015
3527.00,0.0016
3526.00,0.0016
3525.00,0.0017
3524.00,0.0017
3523.00,0.0017
3522.00,0.0017
3521.00,0.0017
3520.00,0.0017
3519.00,0.0017
3518.00,0.0017
3517.00,0.0017
3516.00,0.0017
3515.00,0.0017
3514.00,0.0017
3513.00,0.0017
3512.00,0.0018
3511.00,0.0018
3510.00,0.0019
3509.00,0.0019
3508.00,0.0019
3507.00,0.0019
3506.00,0.0019
3505.00,0.0019
3504.00,0.0019
3503.00,0.0019
3502.00,0.0019
3501.00,0.0019
3500.00,0.0019
3499.00,0.0019
3498.00,0.0019
3497.00,0.0019
3496.00,0.0019
3495.00,0.0019
3494.00,0.0019
3493.00,0.0019
3492.00,0.0020
3491.00,0.0020
3490.00,0.0020
3489.00,0.0020
3488.00,0.0020
3487.00,0.0020
3486.00,0.0020
3485.00,0.0020
3484.00,0.0020
3483.00,0.0021
3482.00,0.0021
3481.00,0.0021
3480.00,0.0021
3479.00,0.0022
3478.00,0.0022
3477.00,0.0022
3476.00,0.0022
3475.00,0.0022
3474.00,0.0022
3473.00,0.0022
3472.00,0.0022
3471.00,0.0022
3470.00,0.0022
3469.00,0.0023
3468.00,0.0023
3467.00,0.0023
3466.00,0.0023
3465.00,0.0023
3464.00,0.0022
3463.00,0.0022
3462.00,0.0022
3461.00,0.0022
3460.00,0.0023
3459.00,0.0023
3458.00,0.0023
3457.00,0.0023
3456.00,0.0023
3455.00,0.0023
3454.00,0.0024
3453.00,0.0024
3452.00,0.0024
3451.00,0.0024
3450.00,0.0024
3449.00,0.0024
3448.00,0.0024
3447.00,0.0024
3446.00,0.0025
3445.00,0.0025
3444.00,0.0025
3443.00,0.0024
3442.00,0.0024
3441.00,0.0024
3440.00,0.0025
3439.00,0.0025
3438.00,0.0025
3437.00,0.0025
3436.00,0.0025
3435.00,0.0025
3434.00,0.0025
3433.00,0.0026
3432.00,0.0026
3431.00,0.0026
3430.00,0.0026
3429.00,0.0026
3428.00,0.0026
3427.00,0.0027
3426.00,0.0027
3425.00,0.0027
3424.00,0.0027
3423.00,0.0027
3422.00,0.0027
3421.00,0.0028
3420.00,0.0028
3419.00,0.0028
3418.00,0.0028
3417.00,0.0029
3416.00,0.0029
3415.00,0.0029
3414.00,0.0029
3413.00,0.0029
3412.00,0.0028
3411.00,0.0028
3410.00,0.0028
3409.00,0.0028
3408.00,0.0028
3407.00,0.0028
3406.00,0.0028
3405.00,0.0028
3404.00,0.0028
3403.00,0.0028
3402.00,0.0029
3401.00,0.0029
3400.00,0.0029
3399.00,0.0029
3398.00,0.0030
3397.00,0.0030
3396.00,0.0030
3395.00,0.0030
3394.00,0.0030
3393.00,0.0029
3392.00,0.0029
3391.00,0.0029
3390.00,0.0030
3389.00,0.0030
3388.00,0.0030
3387.00,0.0029
3386.00,0.0029
3385.00,0.0029
3384.00,0.0029
3383.00,0.0029
3382.00,0.0029
3381.00,0.0029
3380.00,0.0029
3379.00,0.0029
3378.00,0.0029
3377.00,0.0029
3376.00,0.0029
3375.00,0.0029
3374.00,0.0028
3373.00,0.0028
3372.00,0.0028
3371.00,0.0028
3370.00,0.0028
3369.00,0.0029
3368.00,0.0029
3367.00,0.0028
3366.00,0.0028
3365.00,0.0028
3364.00,0.0028
3363.00,0.0028
3362.00,0.0029
3361.00,0.0029
3360.00,0.0029
3359.00,0.0029
3358.00,0.0029
3357.00,0.0029
3356.00,0.0030
3355.00,0.0030
3354.00,0.0030
3353.00,0.0029
3352.00,0.0029
3351.00,0.0029
3350.00,0.0029
3349.00,0.0029
3348.00,0.0029
3347.00,0.0029
3346.00,0.0029
3345.00,0.0029
3344.00,0.0029
3343.00,0.0029
3342.00,0.0029
3341.00,0.0029
3340.00,0.0029
3339.00,0.0029
3338.00,0.0029
3337.00,0.0029
3336.00,0.0029
3335.00,0.0029
3334.00,0.0029
3333.00,0.0028
3332.00,0.0028
3331.00,0.0028
3330.00,0.0028
3329.00,0.0028
3328.00,0.0028
3327.00,0.0028
3326.00,0.0028
3325.00,0.0028
3324.00,0.0028
3323.00,0.0028
3322.00,0.0028
3321.00,0.0028
3320.00,0.0028
3319.00,0.0028
3318.00,0.0027
3317.00,0.0027
3316.00,0.0027
3315.00,0.0027
3314.00,0.0027
3313.00,0.0027
3312.00,0.0027
3311.00,0.0027
3310.00,0.0027
3309.00,0.0027
3308.00,0.0028
3307.00,0.0028
3306.00,0.0028
3305.00,0.0028
3304.00,0.0028
3303.00,0.0029
3302.00,0.0029
3301.00,0.0030
3300.00,0.0030
3299.00,0.0029
3298.00,0.0029
3297.00,0.0028
3296.00,0.0028
3295.00,0.0028
3294.00,0.0028
3293.00,0.0027
3292.00,0.0027
3291.00,0.0027
3290.00,0.0026
3289.00,0.0026
3288.00,0.0026
3287.00,0.0026
3286.00,0.0026
3285.00,0.0026
3284.00,0.0026
3283.00,0.0026
3282.00,0.0025
3281.00,0.0026
3280.00,0.0026
3279.00,0.0025
3278.00,0.0025
3277.00,0.0025
3276.00,0.0024
3275.00,0.0024
3274.00,0.0025
3273.00,0.0025
3272.00,0.0025
3271.00,0.0025
3270.00,0.0024
3269.00,0.0024
3268.00,0.0024
3267.00,0.0024
3266.00,0.0025
3265.00,0.0025
3264.00,0.0025
3263.00,0.0025
3262.00,0.0025
3261.00,0.0025
3260.00,0.0025
3259.00,0.0024
3258.00,0.0024
3257.00,0.0024
3256.00,0.0023
3255.00,0.0023
3254.00,0.0023
3253.00,0.0023
3252.00,0.0023
3251.00,0.0023
3250.00,0.0023
3249.00,0.0023
3248.00,0.0023
3247.00,0.0023
3246.00,0.0023
3245.00,0.0023
3244.00,0.0023
3243.00,0.0023
3242.00,0.0023
3241.00,0.0023
3240.00,0.0023
3239.00,0.0023
3238.00,0.0023
3237.00,0.0023
3236.00,0.0023
3235.00,0.0024
3234.00,0.0024
3233.00,0.0024
3232.00,0.0024
3231.00,0.0024
3230.00,0.0024
3229.00,0.0023
3228.00,0.0023
3227.00,0.0024
3226.00,0.0024
3225.00,0.0024
3224.00,0.0025
3223.00,0.0025
3222.00,0.0025
3221.00,0.0025
3220.00,0.0026
3219.00,0.0026
3218.00,0.0026
3217.00,0.0026
3216.00,0.0026
3215.00,0.0026
3214.00,0.0027
3213.00,0.0027
3212.00,0.0027
3211.00,0.0028
3210.00,0.0028
3209.00,0.0028
3208.00,0.0028
3207.00,0.0028
3206.00,0.0028
3205.00,0.0029
3204.00,0.0029
3203.00,0.0029
3202.00,0.0029
3201.00,0.0029
3200.00,0.0029
3199.00,0.0029
3198.00,0.0029
3197.00,0.0030
3196.00,0.0030
3195.00,0.0030
3194.00,0.0030
3193.00,0.0029
3192.00,0.0029
3191.00,0.0029
3190.00,0.0030
3189.00,0.0030
3188.00,0.0030
3187.00,0.0029
3186.00,0.0029
3185.00,0.0029
3184.00,0.0029
3183.00,0.0029
3182.00,0.0029
3181.00,0.0029
3180.00,0.0029
3179.00,0.0029
3178.00,0.0028
3177.00,0.0028
3176.00,0.0028
3175.00,0.0028
3174.00,0.0028
3173.00,0.0028
3172.00,0.0028
3171.00,0.0027
3170.00,0.0027
3169.00,0.0027
3168.00,0.0027
3167.00,0.0027
3166.00,0.0027
3165.00,0.0027
3164.00,0.0027
3163.00,0.0026
3162.00,0.0026
3161.00,0.0026
3160.00,0.0026
3159.00,0.0025
3158.00,0.0025
3157.00,0.0025
3156.00,0.0025
3155.00,0.0025
3154.00,0.0026
3153.00,0.0026
3152.00,0.0026
3151.00,0.0027
3150.00,0.0027
3149.00,0.0026
3148.00,0.0026
3147.00,0.0026
3146.00,0.0026
3145.00,0.0026
3144.00,0.0026
3143.00,0.0026
3142.00,0.0026
3141.00,0.0025
3140.00,0.0025
3139.00,0.0025
3138.00,0.0025
3137.00,0.0025
3136.00,0.0025
3135.00,0.0025
3134.00,0.0025
3133.00,0.0025
3132.00,0.0024
3131.00,0.0024
3130.00,0.0024
3129.00,0.0024
3128.00,0.0024
3127.00,0.0024
3126.00,0.0024
3125.00,0.0024
3124.00,0.0024
3123.00,0.0023
3122.00,0.0023
3121.00,0.0023
3120.00,0.0023
3119.00,0.0022
3118.00,0.0022
3117.00,0.0022
3116.00,0.0022
3115.00,0.0022
3114.00,0.0021
3113.00,0.0021
3112.00,0.0022
3111.00,0.0022
3110.00,0.0022
3109.00,0.0022
3108.00,0.0022
3107.00,0.0022
3106.00,0.0022
3105.00,0.0022
3104.00,0.0022
3103.00,0.0022
3102.00,0.0022
3101.00,0.0022
3100.00,0.0021
3099.00,0.0021
3098.00,0.0021
3097.00,0.0021
3096.00,0.0021
3095.00,0.0021
3094.00,0.0022
3093.00,0.0022
3092.00,0.0022
3091.00,0.0022
3090.00,0.0021
3089.00,0.0021
3088.00,0.0022
3087.00,0.0022
3086.00,0.0022
3085.00,0.0022
3084.00,0.0022
3083.00,0.0022
3082.00,0.0022
3081.00,0.0023
3080.00,0.0023
3079.00,0.0022
3078.00,0.0022
3077.00,0.0022
3076.00,0.0022
3075.00,0.0022
3074.00,0.0023
3073.00,0.0024
3072.00,0.0024
3071.00,0.0024
3070.00,0.0024
3069.00,0.0024
3068.00,0.0024
3067.00,0.0024
3066.00,0.0024
3065.00,0.0024
3064.00,0.0025
3063.00,0.0025
3062.00,0.0025
3061.00,0.0025
3060.00,0.0025
3059.00,0.0025
3058.00,0.0025
3057.00,0.0026
3056.00,0.0026
3055.00,0.0026
3054.00,0.0026
3053.00,0.0027
3052.00,0.0027
3051.00,0.0027
3050.00,0.0027
3049.00,0.0027
3048.00,0.0027
3047.00,0.0027
3046.00,0.0028
3045.00,0.0028
3044.00,0.0029
3043.00,0.0029
3042.00,0.0029
3041.00,0.0029
3040.00,0.0030
3039.00,0.0030
3038.00,0.0030
3037.00,0.0030
3036.00,0.0031
3035.00,0.0031
3034.00,0.0031
3033.00,0.0032
3032.00,0.0032
3031.00,0.0033
3030.00,0.0034
3029.00,0.0034
3028.00,0.0034
3027.00,0.0035
3026.00,0.0035
3025.00,0.0036
3024.00,0.0036
3023.00,0.0037
3022.00,0.0038
3021.00,0.0038
3020.00,0.0039
3019.00,0.0040
3018.00,0.0041
3017.00,0.0042
3016.00,0.0043
3015.00,0.0043
3014.00,0.0044
3013.00,0.0046
3012.00,0.0047
3011.00,0.0048
3010.00,0.0049
3009.00,0.0050
3008.00,0.0052
3007.00,0.0054
3006.00,0.0055
3005.00,0.0057
3004.00,0.0058
3003.00,0.0060
3002.00,0.0062
3001.00,0.0064
3000.00,0.0067
2999.00,0.0069
2998.00,0.0072
2997.00,0.0075
2996.00,0.0078
2995.00,0.0082
2994.00,0.0086
2993.00,0.0091
2992.00,0.0096
2991.00,0.0101
2990.00,0.0107
2989.00,0.0114
2988.00,0.0121
2987.00,0.0130
2986.00,0.0139
2985.00,0.0149
2984.00,0.0161
2983.00,0.0174
2982.00,0.0189
2981.00,0.0206
2980.00,0.0226
2979.00,0.0248
2978.00,0.0274
2977.00,0.0304
2976.00,0.0337
2975.00,0.0374
2974.00,0.0416
2973.00,0.0464
2972.00,0.0518
2971.00,0.0580
2970.00,0.0650
2969.00,0.0727
2968.00,0.0811
2967.00,0.0901
2966.00,0.0996
2965.00,0.1093
2964.00,0.1191
2963.00,0.1284
2962.00,0.1368
2961.00,0.1439
2960.00,0.1497
2959.00,0.1544
2958.00,0.1583
2957.00,0.1619
2956.00,0.1657
2955.00,0.1701
2954.00,0.1750
2953.00,0.1800
2952.00,0.1844
2951.00,0.1872
2950.00,0.1873
2949.00,0.1841
2948.00,0.1774
2947.00,0.1676
2946.00,0.1559
2945.00,0.1435
2944.00,0.1318
2943.00,0.1218
2942.00,0.1140
2941.00,0.1087
2940.00,0.1058
2939.00,0.1050
2938.00,0.1063
2937.00,0.1093
2936.00,0.1139
2935.00,0.1200
2934.00,0.1273
2933.00,0.1359
2932.00,0.1454
2931.00,0.1558
2930.00,0.1668
2929.00,0.1779
2928.00,0.1890
2927.00,0.1997
2926.00,0.2100
2925.00,0.2198
2924.00,0.2294
2923.00,0.2387
2922.00,0.2478
2921.00,0.2565
2920.00,0.2640
2919.00,0.2697
2918.00,0.2726
2917.00,0.2721
2916.00,0.2679
2915.00,0.2607
2914.00,0.2513
2913.00,0.2409
2912.00,0.2306
2911.00,0.2209
2910.00,0.2123
2909.00,0.2047
2908.00,0.1977
2907.00,0.1912
2906.00,0.1847
2905.00,0.1782
2904.00,0.1716
2903.00,0.1649
2902.00,0.1582
2901.00,0.1515
2900.00,0.1451
2899.00,0.1389
2898.00,0.1330
2897.00,0.1277
2896.00,0.1229
2895.00,0.1187
2894.00,0.1152
2893.00,0.1122
2892.00,0.1098
2891.00,0.1081
2890.00,0.1068
2889.00,0.1060
2888.00,0.1055
2887.00,0.1054
2886.00,0.1056
2885.00,0.1061
2884.00,0.1072
2883.00,0.1087
2882.00,0.1107
2881.00,0.1130
2880.00,0.1153
2879.00,0.1172
2878.00,0.1185
2877.00,0.1189
2876.00,0.1186
2875.00,0.1178
2874.00,0.1171
2873.00,0.1169
2872.00,0.1174
2871.00,0.1186
2870.00,0.1202
2869.00,0.1218
2868.00,0.1226
2867.00,0.1220
2866.00,0.1194
2865.00,0.1147
2864.00,0.1083
2863.00,0.1011
2862.00,0.0940
2861.00,0.0878
2860.00,0.0830
2859.00,0.0798
2858.00,0.0780
2857.00,0.0775
2856.00,0.0780
2855.00,0.0793
2854.00,0.0811
2853.00,0.0832
2852.00,0.0854
2851.00,0.0873
2850.00,0.0887
2849.00,0.0896
2848.00,0.0904
2847.00,0.0915
2846.00,0.0934
2845.00,0.0964
2844.00,0.1006
2843.00,0.1057
2842.00,0.1113
2841.00,0.1167
2840.00,0.1212
2839.00,0.1239
2838.00,0.1239
2837.00,0.1209
2836.00,0.1147
2835.00,0.1059
2834.00,0.0954
2833.00,0.0843
2832.00,0.0738
2831.00,0.0643
2830.00,0.0563
2829.00,0.0497
2828.00,0.0444
2827.00,0.0401
2826.00,0.0366
2825.00,0.0338
2824.00,0.0314
2823.00,0.0294
2822.00,0.0276
2821.00,0.0261
2820.00,0.0247
2819.00,0.0236
2818.00,0.0226
2817.00,0.0217
2816.00,0.0209
2815.00,0.0203
2814.00,0.0197
2813.00,0.0191
2812.00,0.0185
2811.00,0.0179
2810.00,0.0174
2809.00,0.0168
2808.00,0.0162
2807.00,0.0156
2806.00,0.0149
2805.00,0.0143
2804.00,0.0136
2803.00,0.0130
2802.00,0.0125
2801.00,0.0121
2800.00,0.0117
2799.00,0.0114
2798.00,0.0111
2797.00,0.0109
2796.00,0.0107
2795.00,0.0105
2794.00,0.0102
2793.00,0.0100
2792.00,0.0096
2791.00,0.0093
2790.00,0.0090
2789.00,0.0086
2788.00,0.0083
2787.00,0.0080
2786.00,0.0077
2785.00,0.0074
2784.00,0.0072
2783.00,0.0069
2782.00,0.0067
2781.00,0.0066
2780.00,0.0065
2779.00,0.0063
2778.00,0.0062
2777.00,0.0060
2776.00,0.0059
2775.00,0.0058
2774.00,0.0057
2773.00,0.0056
2772.00,0.0055
2771.00,0.0055
2770.00,0.0054
2769.00,0.0054
2768.00,0.0054
2767.00,0.0054
2766.00,0.0054
2765.00,0.0053
2764.00,0.0053
2763.00,0.0053
2762.00,0.0052
2761.00,0.0052
2760.00,0.0051
2759.00,0.0051
2758.00,0.0051
2757.00,0.0051
2756.00,0.0051
2755.00,0.0050
2754.00,0.0050
2753.00,0.0050
2752.00,0.0049
2751.00,0.0049
2750.00,0.0049
2749.00,0.0049
2748.00,0.0049
2747.00,0.0050
2746.00,0.0050
2745.00,0.0051
2744.00,0.0052
2743.00,0.0053
2742.00,0.0054
2741.00,0.0055
2740.00,0.0057
2739.00,0.0058
2738.00,0.0059
2737.00,0.0060
2736.00,0.0061
2735.00,0.0062
2734.00,0.0063
2733.00,0.0065
2732.00,0.0067
2731.00,0.0069
2730.00,0.0071
2729.00,0.0074
2728.00,0.0076
2727.00,0.0079
2726.00,0.0082
2725.00,0.0084
2724.00,0.0086
2723.00,0.0086
2722.00,0.0085
2721.00,0.0083
2720.00,0.0080
2719.00,0.0077
2718.00,0.0074
2717.00,0.0071
2716.00,0.0068
2715.00,0.0066
2714.00,0.0063
2713.00,0.0061
2712.00,0.0058
2711.00,0.0057
2710.00,0.0055
2709.00,0.0054
2708.00,0.0053
2707.00,0.0051
2706.00,0.0050
2705.00,0.0049
2704.00,0.0048
2703.00,0.0047
2702.00,0.0047
2701.00,0.0046
2700.00,0.0045
2699.00,0.0044
2698.00,0.0044
2697.00,0.0044
2696.00,0.0044
2695.00,0.0044
2694.00,0.0044
2693.00,0.0044
2692.00,0.0044
2691.00,0.0045
2690.00,0.0045
2689.00,0.0045
2688.00,0.0045
2687.00,0.0045
2686.00,0.0045
2685.00,0.0044
2684.00,0.0044
2683.00,0.0044
2682.00,0.0044
2681.00,0.0044
2680.00,0.0045
2679.00,0.0045
2678.00,0.0045
2677.00,0.0045
2676.00,0.0044
2675.00,0.0044
2674.00,0.0044
2673.00,0.0044
2672.00,0.0044
2671.00,0.0044
2670.00,0.0044
2669.00,0.0044
2668.00,0.0044
2667.00,0.0044
2666.00,0.0044
2665.00,0.0045
2664.00,0.0045
2663.00,0.0046
2662.00,0.0046
2661.00,0.0046
2660.00,0.0047
2659.00,0.0047
2658.00,0.0047
2657.00,0.0047
2656.00,0.0046
2655.00,0.0046
2654.00,0.0046
2653.00,0.0046
2652.00,0.0045
2651.00,0.0044
2650.00,0.0044
2649.00,0.0043
2648.00,0.0043
2647.00,0.0043
2646.00,0.0042
2645.00,0.0042
2644.00,0.0042
2643.00,0.0041
2642.00,0.0041
2641.00,0.0040
2640.00,0.0040
2639.00,0.0039
2638.00,0.0039
2637.00,0.0039
2636.00,0.0039
2635.00,0.0039
2634.00,0.0039
2633.00,0.0039
2632.00,0.0039
2631.00,0.0039
2630.00,0.0039
2629.00,0.0039
2628.00,0.0039
2627.00,0.0039
2626.00,0.0039
2625.00,0.0040
2624.00,0.0040
2623.00,0.0041
2622.00,0.0041
2621.00,0.0041
2620.00,0.0041
2619.00,0.0041
2618.00,0.0041
2617.00,0.0041
2616.00,0.0041
2615.00,0.0040
2614.00,0.0040
2613.00,0.0040
2612.00,0.0039
2611.00,0.0038
2610.00,0.0036
2609.00,0.0035
2608.00,0.0035
2607.00,0.0034
2606.00,0.0034
2605.00,0.0034
2604.00,0.0034
2603.00,0.0034
2602.00,0.0034
2601.00,0.0034
2600.00,0.0033
2599.00,0.0032
2598.00,0.0031
2597.00,0.0031
2596.00,0.0030
2595.00,0.0030
2594.00,0.0031
2593.00,0.0031
2592.00,0.0032
2591.00,0.0033
2590.00,0.0033
2589.00,0.0034
2588.00,0.0035
2587.00,0.0035
2586.00,0.0036
2585.00,0.0037
2584.00,0.0038
2583.00,0.0038
2582.00,0.0038
2581.00,0.0038
2580.00,0.0038
2579.00,0.0036
2578.00,0.0035
2577.00,0.0033
2576.00,0.0032
2575.00,0.0031
2574.00,0.0031
2573.00,0.0031
2572.00,0.0030
2571.00,0.0029
2570.00,0.0028
2569.00,0.0028
2568.00,0.0027
2567.00,0.0026
2566.00,0.0025
2565.00,0.0024
2564.00,0.0024
2563.00,0.0024
2562.00,0.0024
2561.00,0.0023
2560.00,0.0023
2559.00,0.0022
2558.00,0.0022
2557.00,0.0022
2556.00,0.0022
2555.00,0.0022
2554.00,0.0022
2553.00,0.0021
2552.00,0.0021
2551.00,0.0021
2550.00,0.0021
2549.00,0.0021
2548.00,0.0020
2547.00,0.0019
2546.00,0.0019
2545.00,0.0019
2544.00,0.0019
2543.00,0.0018
2542.00,0.0017
2541.00,0.0016
2540.00,0.0015
2539.00,0.0015
2538.00,0.0016
2537.00,0.0016
2536.00,0.0016
2535.00,0.0016
2534.00,0.0015
2533.00,0.0015
2532.00,0.0015
2531.00,0.0015
2530.00,0.0015
2529.00,0.0015
2528.00,0.0015
2527.00,0.0014
2526.00,0.0014
2525.00,0.0014
2524.00,0.0014
2523.00,0.0014
2522.00,0.0013
2521.00,0.0012
2520.00,0.0012
2519.00,0.0012
2518.00,0.0012
2517.00,0.0012
2516.00,0.0012
2515.00,0.0012
2514.00,0.0011
2513.00,0.0011
2512.00,0.0011
2511.00,0.0010
2510.00,0.0010
2509.00,0.0010
2508.00,0.0011
2507.00,0.0011
2506.00,0.0011
2505.00,0.0011
2504.00,0.0011
2503.00,0.0011
2502.00,0.0011
2501.00,0.0011
2500.00,0.0011
2499.00,0.0012
2498.00,0.0012
2497.00,0.0011
2496.00,0.0011
2495.00,0.0010
2494.00,0.0010
2493.00,0.0010
2492.00,0.0011
2491.00,0.0011
2490.00,0.0011
2489.00,0.0010
2488.00,0.0010
2487.00,0.0009
2486.00,0.0009
2485.00,0.0009
2484.00,0.0009
2483.00,0.0009
2482.00,0.0009
2481.00,0.0009
2480.00,0.0010
2479.00,0.0010
2478.00,0.0010
2477.00,0.0010
2476.00,0.0010
2475.00,0.0009
2474.00,0.0009
2473.00,0.0008
2472.00,0.0008
2471.00,0.0008
2470.00,0.0008
2469.00,0.0008
2468.00,0.0009
2467.00,0.0009
2466.00,0.0008
2465.00,0.0009
2464.00,0.0009
2463.00,0.0009
2462.00,0.0009
2461.00,0.0009
2460.00,0.0010
2459.00,0.0010
2458.00,0.0011
2457.00,0.0012
2456.00,0.0012
2455.00,0.0011
2454.00,0.0011
2453.00,0.0011
2452.00,0.0011
2451.00,0.0011
2450.00,0.0012
2449.00,0.0012
2448.00,0.0012
2447.00,0.0011
2446.00,0.0011
2445.00,0.0011
2444.00,0.0011
2443.00,0.0011
2442.00,0.0011
2441.00,0.0011
2440.00,0.0011
2439.00,0.0010
2438.00,0.0010
2437.00,0.0010
2436.00,0.0010
2435.00,0.0010
2434.00,0.0010
2433.00,0.0010
2432.00,0.0011
2431.00,0.0011
2430.00,0.0012
2429.00,0.0012
2428.00,0.0012
2427.00,0.0011
2426.00,0.0011
2425.00,0.0010
2424.00,0.0010
2423.00,0.0010
2422.00,0.0010
2421.00,0.0010
2420.00,0.0010
2419.00,0.0010
2418.00,0.0009
2417.00,0.0009
2416.00,0.0009
2415.00,0.0009
2414.00,0.0010
2413.00,0.0010
2412.00,0.0010
2411.00,0.0010
2410.00,0.0010
2409.00,0.0010
2408.00,0.0009
2407.00,0.0009
2406.00,0.0009
2405.00,0.0009
2404.00,0.0009
2403.00,0.0009
2402.00,0.0008
2401.00,0.0008
2400.00,0.0007
2399.00,0.0007
2398.00,0.0008
2397.00,0.0008
2396.00,0.0009
2395.00,0.0009
2394.00,0.0008
2393.00,0.0008
2392.00,0.0008
2391.00,0.0008
2390.00,0.0008
2389.00,0.0008
2388.00,0.0007
2387.00,0.0007
2386.00,0.0006
2385.00,0.0005
2384.00,0.0004
2383.00,0.0003
2382.00,0.0002
2381.00,0.0001
2380.00,0.0001
2379.00,0.0001
2378.00,0.0001
2377.00,0.0002
2376.00,0.0003
2375.00,0.0003
2374.00,0.0003
2373.00,0.0003
2372.00,0.0002
2371.00,0.0002
2370.00,0.0002
2369.00,0.0002
2368.00,0.0001
2367.00,0.0001
2366.00,0.0001
2365.00,0.0000
2364.00,0.0000
2363.00,0.0001
2362.00,0.0002
2361.00,0.0002
2360.00,0.0003
2359.00,0.0003
2358.00,0.0002
2357.00,0.0002
2356.00,0.0002
2355.00,0.0002
2354.00,0.0002
2353.00,0.0003
2352.00,0.0004
2351.00,0.0005
2350.00,0.0004
2349.00,0.0003
2348.00,0.0003
2347.00,0.0003
2346.00,0.0003
2345.00,0.0004
2344.00,0.0004
2343.00,0.0003
2342.00,0.0003
2341.00,0.0003
2340.00,0.0004
2339.00,0.0005
2338.00,0.0006
2337.00,0.0006
2336.00,0.0006
2335.00,0.0006
2334.00,0.0006
2333.00,0.0005
2332.00,0.0005
2331.00,0.0005
2330.00,0.0005
2329.00,0.0006
2328.00,0.0007
2327.00,0.0010
2326.00,0.0014
2325.00,0.0017
2324.00,0.0019
2323.00,0.0018
2322.00,0.0016
2321.00,0.0014
2320.00,0.0012
2319.00,0.0011
2318.00,0.0010
2317.00,0.0010
2316.00,0.0009
2315.00,0.0008
2314.00,0.0008
2313.00,0.0008
2312.00,0.0007
2311.00,0.0006
2310.00,0.0005
2309.00,0.0004
2308.00,0.0004
2307.00,0.0004
2306.00,0.0005
2305.00,0.0005
2304.00,0.0006
2303.00,0.0007
2302.00,0.0007
2301.00,0.0007
2300.00,0.0008
2299.00,0.0008
2298.00,0.0009
2297.00,0.0009
2296.00,0.0010
2295.00,0.0011
2294.00,0.0011
2293.00,0.0012
2292.00,0.0012
2291.00,0.0013
2290.00,0.0014
2289.00,0.0015
2288.00,0.0016
2287.00,0.0016
2286.00,0.0016
2285.00,0.0017
2284.00,0.0017
2283.00,0.0016
2282.00,0.0015
2281.00,0.0014
2280.00,0.0013
2279.00,0.0012
2278.00,0.0012
2277.00,0.0012
2276.00,0.0012
2275.00,0.0013
2274.00,0.0013
2273.00,0.0014
2272.00,0.0014
2271.00,0.0014
2270.00,0.0014
2269.00,0.0012
2268.00,0.0011
2267.00,0.0011
2266.00,0.0012
2265.00,0.0012
2264.00,0.0012
2263.00,0.0011
2262.00,0.0010
2261.00,0.0010
2260.00,0.0010
2259.00,0.0010
2258.00,0.0010
2257.00,0.0010
2256.00,0.0010
2255.00,0.0009
2254.00,0.0008
2253.00,0.0008
2252.00,0.0008
2251.00,0.0007
2250.00,0.0007
2249.00,0.0006
2248.00,0.0006
2247.00,0.0006
2246.00,0.0006
2245.00,0.0006
2244.00,0.0007
2243.00,0.0008
2242.00,0.0010
2241.00,0.0012
2240.00,0.0013
2239.00,0.0012
2238.00,0.0010
2237.00,0.0008
2236.00,0.0008
2235.00,0.0008
2234.00,0.0009
2233.00,0.0010
2232.00,0.0011
2231.00,0.0011
2230.00,0.0010
2229.00,0.0009
2228.00,0.0008
2227.00,0.0007
2226.00,0.0007
2225.00,0.0006
2224.00,0.0006
2223.00,0.0005
2222.00,0.0005
2221.00,0.0005
2220.00,0.0006
2219.00,0.0006
2218.00,0.0007
2217.00,0.0007
2216.00,0.0007
2215.00,0.0007
2214.00,0.0007
2213.00,0.0007
2212.00,0.0007
2211.00,0.0007
2210.00,0.0007
2209.00,0.0008
2208.00,0.0007
2207.00,0.0006
2206.00,0.0006
2205.00,0.0006
2204.00,0.0007
2203.00,0.0007
2202.00,0.0005
2201.00,0.0002
2200.00,-0.0000
2199.00,-0.0001
2198.00,0.0001
2197.00,0.0004
2196.00,0.0006
2195.00,0.0007
2194.00,0.0007
2193.00,0.0009
2192.00,0.0010
2191.00,0.0010
2190.00,0.0010
2189.00,0.0009
2188.00,0.0009
2187.00,0.0009
2186.00,0.0008
2185.00,0.0005
2184.00,0.0003
2183.00,-0.0000
2182.00,-0.0002
2181.00,-0.0002
2180.00,-0.0001
2179.00,0.0001
2178.00,0.0003
2177.00,0.0004
2176.00,0.0004
2175.00,0.0002
2174.00,0.0001
2173.00,0.0002
2172.00,0.0005
2171.00,0.0010
2170.00,0.0014
2169.00,0.0018
2168.00,0.0018
2167.00,0.0017
2166.00,0.0016
2165.00,0.0017
2164.00,0.0019
2163.00,0.0021
2162.00,0.0020
2161.00,0.0013
2160.00,0.0001
2159.00,-0.0014
2158.00,-0.0025
2157.00,-0.0029
2156.00,-0.0029
2155.00,-0.0026
2154.00,-0.0023
2153.00,-0.0021
2152.00,-0.0018
2151.00,-0.0016
2150.00,-0.0015
2149.00,-0.0015
2148.00,-0.0015
2147.00,-0.0017
2146.00,-0.0018
2145.00,-0.0018
2144.00,-0.0017
2143.00,-0.0015
2142.00,-0.0012
2141.00,-0.0010
2140.00,-0.0009
2139.00,-0.0010
2138.00,-0.0011
2137.00,-0.0012
2136.00,-0.0013
2135.00,-0.0013
2134.00,-0.0014
2133.00,-0.0015
2132.00,-0.0016
2131.00,-0.0016
2130.00,-0.0015
2129.00,-0.0014
2128.00,-0.0012
2127.00,-0.0011
2126.00,-0.0010
2125.00,-0.0009
2124.00,-0.0007
2123.00,-0.0005
2122.00,-0.0003
2121.00,-0.0001
2120.00,0.0000
2119.00,0.0001
2118.00,0.0002
2117.00,0.0002
2116.00,0.0003
2115.00,0.0002
2114.00,0.0001
2113.00,0.0000
2112.00,-0.0001
2111.00,-0.0001
2110.00,-0.0000
2109.00,0.0000
2108.00,0.0001
2107.00,0.0002
2106.00,0.0002
2105.00,0.0002
2104.00,0.0001
2103.00,0.0001
2102.00,0.0000
2101.00,0.0000
2100.00,0.0000
2099.00,-0.0001
2098.00,-0.0003
2097.00,-0.0004
2096.00,-0.0005
2095.00,-0.0005
2094.00,-0.0006
2093.00,-0.0005
2092.00,-0.0004
2091.00,-0.0002
2090.00,-0.0000
2089.00,0.0001
2088.00,0.0001
2087.00,0.0001
2086.00,0.0001
2085.00,0.0000
2084.00,-0.0000
2083.00,-0.0000
2082.00,0.0000
2081.00,0.0002
2080.00,0.0003
2079.00,0.0004
2078.00,0.0004
2077.00,0.0004
2076.00,0.0003
2075.00,0.0002
2074.00,0.0001
2073.00,-0.0001
2072.00,-0.0002
2071.00,-0.0003
2070.00,-0.0003
2069.00,-0.0004
2068.00,-0.0004
2067.00,-0.0005
2066.00,-0.0004
2065.00,-0.0003
2064.00,-0.0002
2063.00,-0.0001
2062.00,-0.0001
2061.00,-0.0001
2060.00,-0.0001
2059.00,-0.0000
2058.00,0.0001
2057.00,0.0003
2056.00,0.0004
2055.00,0.0004
2054.00,0.0003
2053.00,0.0005
2052.00,0.0008
2051.00,0.0010
2050.00,0.0009
2049.00,0.0005
2048.00,0.0001
2047.00,-0.0003
2046.00,-0.0004
2045.00,-0.0004
2044.00,-0.0003
2043.00,-0.0003
2042.00,-0.0003
2041.00,-0.0003
2040.00,-0.0003
2039.00,-0.0002
2038.00,-0.0002
2037.00,-0.0002
2036.00,-0.0001
2035.00,-0.0001
2034.00,-0.0002
2033.00,-0.0003
2032.00,-0.0005
2031.00,-0.0007
2030.00,-0.0009
2029.00,-0.0011
2028.00,-0.0012
2027.00,-0.0012
2026.00,-0.0011
2025.00,-0.0010
2024.00,-0.0008
2023.00,-0.0008
2022.00,-0.0009
2021.00,-0.0010
2020.00,-0.0011
2019.00,-0.0010
2018.00,-0.0009
2017.00,-0.0009
2016.00,-0.0009
2015.00,-0.0011
2014.00,-0.0011
2013.00,-0.0009
2012.00,-0.0007
2011.00,-0.0006
2010.00,-0.0007
2009.00,-0.0009
2008.00,-0.0012
2007.00,-0.0015
2006.00,-0.0016
2005.00,-0.0016
2004.00,-0.0016
2003.00,-0.0016
2002.00,-0.0017
2001.00,-0.0017
2000.00,-0.0016
1999.00,-0.0014
1998.00,-0.0012
1997.00,-0.0010
1996.00,-0.0011
1995.00,-0.0012
1994.00,-0.0014
1993.00,-0.0015
1992.00,-0.0013
1991.00,-0.0010
1990.00,-0.0007
1989.00,-0.0004
1988.00,-0.0003
1987.00,-0.0004
1986.00,-0.0003
1985.00,-0.0002
1984.00,-0.0000
1983.00,0.0002
1982.00,0.0005
1981.00,0.0008
1980.00,0.0007
1979.00,0.0002
1978.00,-0.0006
1977.00,-0.0013
1976.00,-0.0018
1975.00,-0.0020
1974.00,-0.0020
1973.00,-0.0018
1972.00,-0.0014
1971.00,-0.0012
1970.00,-0.0011
1969.00,-0.0011
1968.00,-0.0011
1967.00,-0.0012
1966.00,-0.0012
1965.00,-0.0013
1964.00,-0.0013
1963.00,-0.0014
1962.00,-0.0015
1961.00,-0.0015
1960.00,-0.0016
1959.00,-0.0018
1958.00,-0.0019
1957.00,-0.0019
1956.00,-0.0018
1955.00,-0.0016
1954.00,-0.0015
1953.00,-0.0014
1952.00,-0.0015
1951.00,-0.0016
1950.00,-0.0017
1949.00,-0.0016
1948.00,-0.0016
1947.00,-0.0015
1946.00,-0.0016
1945.00,-0.0015
1944.00,-0.0015
1943.00,-0.0014
1942.00,-0.0014
1941.00,-0.0014
1940.00,-0.0012
1939.00,-0.0011
1938.00,-0.0011
1937.00,-0.0011
1936.00,-0.0011
1935.00,-0.0011
1934.00,-0.0011
1933.00,-0.0011
1932.00,-0.0011
1931.00,-0.0011
1930.00,-0.0010
1929.00,-0.0008
1928.00,-0.0008
1927.00,-0.0008
1926.00,-0.0009
1925.00,-0.0009
1924.00,-0.0008
1923.00,-0.0007
1922.00,-0.0005
1921.00,-0.0003
1920.00,-0.0002
1919.00,-0.0002
1918.00,-0.0002
1917.00,-0.0001
1916.00,-0.0000
1915.00,-0.0000
1914.00,-0.0001
1913.00,-0.0002
1912.00,-0.0003
1911.00,-0.0004
1910.00,-0.0004
1909.00,-0.0003
1908.00,-0.0002
1907.00,-0.0002
1906.00,-0.0002
1905.00,-0.0001
1904.00,-0.0001
1903.00,-0.0001
1902.00,-0.0001
1901.00,-0.0001
1900.00,-0.0002
1899.00,-0.0002
1898.00,-0.0001
1897.00,-0.0000
1896.00,0.0000
1895.00,0.0000
1894.00,-0.0000
1893.00,-0.0001
1892.00,-0.0000
1891.00,0.0000
1890.00,0.0000
1889.00,0.0000
1888.00,0.0000
1887.00,0.0000
1886.00,0.0000
1885.00,-0.0000
1884.00,-0.0001
1883.00,-0.0002
1882.00,-0.0003
1881.00,-0.0003
1880.00,-0.0003
1879.00,-0.0002
1878.00,-0.0002
1877.00,-0.0002
1876.00,-0.0002
1875.00,-0.0002
1874.00,-0.0002
1873.00,-0.0002
1872.00,-0.0001
1871.00,-0.0001
1870.00,-0.0001
1869.00,-0.0000
1868.00,-0.0000
1867.00,-0.0001
1866.00,-0.0001
1865.00,-0.0001
1864.00,-0.0001
1863.00,-0.0001
1862.00,-0.0001
1861.00,-0.0001
1860.00,-0.0001
1859.00,-0.0001
1858.00,-0.0001
1857.00,-0.0001
1856.00,-0.0001
1855.00,-0.0001
1854.00,-0.0000
1853.00,0.0000
1852.00,0.0001
1851.00,0.0001
1850.00,0.0002
1849.00,0.0002
1848.00,0.0001
1847.00,0.0001
1846.00,0.0000
1845.00,0.0000
1844.00,0.0001
1843.00,0.0001
1842.00,0.0001
1841.00,0.0002
1840.00,0.0001
1839.00,0.0001
1838.00,0.0001
1837.00,0.0001
1836.00,0.0002
1835.00,0.0002
1834.00,0.0003
1833.00,0.0004
1832.00,0.0004
1831.00,0.0004
1830.00,0.0005
1829.00,0.0004
1828.00,0.0004
1827.00,0.0003
1826.00,0.0002
1825.00,0.0003
1824.00,0.0003
1823.00,0.0003
1822.00,0.0002
1821.00,0.0001
1820.00,0.0000
1819.00,-0.0000
1818.00,-0.0001
1817.00,-0.0001
1816.00,-0.0000
1815.00,0.0001
1814.00,0.0002
1813.00,0.0003
1812.00,0.0003
1811.00,0.0003
1810.00,0.0003
1809.00,0.0003
1808.00,0.0004
1807.00,0.0004
1806.00,0.0004
1805.00,0.0004
1804.00,0.0004
1803.00,0.0004
1802.00,0.0004
1801.00,0.0005
1800.00,0.0005
1799.00,0.0005
1798.00,0.0004
1797.00,0.0004
1796.00,0.0004
1795.00,0.0004
1794.00,0.0004
1793.00,0.0004
1792.00,0.0004
1791.00,0.0005
1790.00,0.0006
1789.00,0.0007
1788.00,0.0007
1787.00,0.0007
1786.00,0.0007
1785.00,0.0007
1784.00,0.0007
1783.00,0.0007
1782.00,0.0007
1781.00,0.0008
1780.00,0.0008
1779.00,0.0007
1778.00,0.0007
1777.00,0.0007
1776.00,0.0006
1775.00,0.0006
1774.00,0.0006
1773.00,0.0007
1772.00,0.0008
1771.00,0.0009
1770.00,0.0010
1769.00,0.0010
1768.00,0.0010
1767.00,0.0011
1766.00,0.0010
1765.00,0.0010
1764.00,0.0010
1763.00,0.0010
1762.00,0.0010
1761.00,0.0010
1760.00,0.0011
1759.00,0.0011
1758.00,0.0011
1757.00,0.0011
1756.00,0.0012
1755.00,0.0012
1754.00,0.0013
1753.00,0.0013
1752.00,0.0014
1751.00,0.0014
1750.00,0.0015
1749.00,0.0015
1748.00,0.0015
1747.00,0.0015
1746.00,0.0015
1745.00,0.0016
1744.00,0.0016
1743.00,0.0017
1742.00,0.0017
1741.00,0.0018
1740.00,0.0018
1739.00,0.0018
1738.00,0.0018
1737.00,0.0019
1736.00,0.0019
1735.00,0.0019
1734.00,0.0018
1733.00,0.0018
1732.00,0.0018
1731.00,0.0018
1730.00,0.0019
1729.00,0.0019
1728.00,0.0020
1727.00,0.0021
1726.00,0.0021
1725.00,0.0021
1724.00,0.0021
1723.00,0.0021
1722.00,0.0021
1721.00,0.0021
1720.00,0.0021
1719.00,0.0021
1718.00,0.0021
1717.00,0.0020
1716.00,0.0020
1715.00,0.0020
1714.00,0.0021
1713.00,0.0021
1712.00,0.0022
1711.00,0.0021
1710.00,0.0021
1709.00,0.0020
1708.00,0.0020
1707.00,0.0020
1706.00,0.0020
1705.00,0.0020
1704.00,0.0019
1703.00,0.0019
1702.00,0.0020
1701.00,0.0020
1700.00,0.0021
1699.00,0.0022
1698.00,0.0022
1697.00,0.0022
1696.00,0.0022
1695.00,0.0022
1694.00,0.0022
1693.00,0.0022
1692.00,0.0022
1691.00,0.0022
1690.00,0.0023
1689.00,0.0023
1688.00,0.0024
1687.00,0.0024
1686.00,0.0024
1685.00,0.0024
1684.00,0.0024
1683.00,0.0024
1682.00,0.0024
1681.00,0.0024
1680.00,0.0025
1679.00,0.0026
1678.00,0.0026
1677.00,0.0026
1676.00,0.0026
1675.00,0.0027
1674.00,0.0027
1673.00,0.0028
1672.00,0.0028
1671.00,0.0028
1670.00,0.0028
1669.00,0.0028
1668.00,0.0029
1667.00,0.0029
1666.00,0.0029
1665.00,0.0029
1664.00,0.0029
1663.00,0.0029
1662.00,0.0029
1661.00,0.0029
1660.00,0.0029
1659.00,0.0029
1658.00,0.0029
1657.00,0.0029
1656.00,0.0030
1655.00,0.0032
1654.00,0.0033
1653.00,0.0034
1652.00,0.0034
1651.00,0.0034
1650.00,0.0034
1649.00,0.0036
1648.00,0.0037
1647.00,0.0038
1646.00,0.0039
1645.00,0.0039
1644.00,0.0040
1643.00,0.0040
1642.00,0.0040
1641.00,0.0041
1640.00,0.0042
1639.00,0.0042
1638.00,0.0043
1637.00,0.0044
1636.00,0.0044
1635.00,0.0044
1634.00,0.0044
1633.00,0.0043
1632.00,0.0043
1631.00,0.0043
1630.00,0.0042
1629.00,0.0042
1628.00,0.0042
1627.00,0.0042
1626.00,0.0042
1625.00,0.0042
1624.00,0.0042
1623.00,0.0041
1622.00,0.0040
1621.00,0.0039
1620.00,0.0039
1619.00,0.0039
1618.00,0.0039
1617.00,0.0038
1616.00,0.0038
1615.00,0.0037
1614.00,0.0037
1613.00,0.0037
1612.00,0.0037
1611.00,0.0036
1610.00,0.0036
1609.00,0.0036
1608.00,0.0036
1607.00,0.0037
1606.00,0.0037
1605.00,0.0037
1604.00,0.0037
1603.00,0.0037
1602.00,0.0037
1601.00,0.0037
1600.00,0.0038
1599.00,0.0037
1598.00,0.0037
1597.00,0.0038
1596.00,0.0038
1595.00,0.0039
1594.00,0.0039
1593.00,0.0040
1592.00,0.0041
1591.00,0.0042
1590.00,0.0043
1589.00,0.0044
1588.00,0.0045
1587.00,0.0047
1586.00,0.0048
1585.00,0.0051
1584.00,0.0054
1583.00,0.0057
1582.00,0.0061
1581.00,0.0064
1580.00,0.0068
1579.00,0.0071
1578.00,0.0073
1577.00,0.0073
1576.00,0.0073
1575.00,0.0071
1574.00,0.0069
1573.00,0.0068
1572.00,0.0066
1571.00,0.0064
1570.00,0.0061
1569.00,0.0058
1568.00,0.0056
1567.00,0.0055
1566.00,0.0054
1565.00,0.0053
1564.00,0.0052
1563.00,0.0052
1562.00,0.0051
1561.00,0.0051
1560.00,0.0050
1559.00,0.0049
1558.00,0.0048
1557.00,0.0049
1556.00,0.0050
1555.00,0.0050
1554.00,0.0050
1553.00,0.0051
1552.00,0.0053
1551.00,0.0055
1550.00,0.0057
1549.00,0.0060
1548.00,0.0062
1547.00,0.0065
1546.00,0.0069
1545.00,0.0073
1544.00,0.0078
1543.00,0.0081
1542.00,0.0083
1541.00,0.0083
1540.00,0.0082
1539.00,0.0078
1538.00,0.0074
1537.00,0.0072
1536.00,0.0069
1535.00,0.0066
1534.00,0.0061
1533.00,0.0057
1532.00,0.0055
1531.00,0.0053
1530.00,0.0052
1529.00,0.0052
1528.00,0.0051
1527.00,0.0050
1526.00,0.0050
1525.00,0.0049
1524.00,0.0050
1523.00,0.0050
1522.00,0.0049
1521.00,0.0050
1520.00,0.0051
1519.00,0.0051
1518.00,0.0051
1517.00,0.0051
1516.00,0.0052
1515.00,0.0052
1514.00,0.0052
1513.00,0.0053
1512.00,0.0054
1511.00,0.0055
1510.00,0.0056
1509.00,0.0057
1508.00,0.0058
1507.00,0.0058
1506.00,0.0058
1505.00,0.0059
1504.00,0.0061
1503.00,0.0062
1502.00,0.0064
1501.00,0.0067
1500.00,0.0070
1499.00,0.0072
1498.00,0.0074
1497.00,0.0077
1496.00,0.0080
1495.00,0.0083
1494.00,0.0085
1493.00,0.0088
1492.00,0.0092
1491.00,0.0096
1490.00,0.0101
1489.00,0.0108
1488.00,0.0114
1487.00,0.0119
1486.00,0.0124
1485.00,0.0132
1484.00,0.0140
1483.00,0.0148
1482.00,0.0159
1481.00,0.0172
1480.00,0.0185
1479.00,0.0199
1478.00,0.0215
1477.00,0.0237
1476.00,0.0263
1475.00,0.0293
1474.00,0.0333
1473.00,0.0389
1472.00,0.0455
1471.00,0.0518
1470.00,0.0580
1469.00,0.0645
1468.00,0.0715
1467.00,0.0792
1466.00,0.0879
1465.00,0.0971
1464.00,0.1052
1463.00,0.1108
1462.00,0.1143
1461.00,0.1166
1460.00,0.1181
1459.00,0.1189
1458.00,0.1196
1457.00,0.1203
1456.00,0.1203
1455.00,0.1196
1454.00,0.1185
1453.00,0.1169
1452.00,0.1142
1451.00,0.1104
1450.00,0.1052
1449.00,0.0981
1448.00,0.0889
1447.00,0.0793
1446.00,0.0705
1445.00,0.0630
1444.00,0.0568
1443.00,0.0516
1442.00,0.0478
1441.00,0.0451
1440.00,0.0435
1439.00,0.0429
1438.00,0.0431
1437.00,0.0433
1436.00,0.0423
1435.00,0.0399
1434.00,0.0364
1433.00,0.0322
1432.00,0.0278
1431.00,0.0239
1430.00,0.0208
1429.00,0.0185
1428.00,0.0169
1427.00,0.0159
1426.00,0.0153
1425.00,0.0147
1424.00,0.0142
1423.00,0.0140
1422.00,0.0138
1421.00,0.0135
1420.00,0.0131
1419.00,0.0128
1418.00,0.0125
1417.00,0.0122
1416.00,0.0119
1415.00,0.0117
1414.00,0.0116
1413.00,0.0113
1412.00,0.0111
1411.00,0.0110
1410.00,0.0110
1409.00,0.0109
1408.00,0.0108
1407.00,0.0107
1406.00,0.0108
1405.00,0.0107
1404.00,0.0106
1403.00,0.0106
1402.00,0.0107
1401.00,0.0107
1400.00,0.0108
1399.00,0.0110
1398.00,0.0113
1397.00,0.0115
1396.00,0.0117
1395.00,0.0120
1394.00,0.0125
1393.00,0.0130
1392.00,0.0135
1391.00,0.0143
1390.00,0.0153
1389.00,0.0168
1388.00,0.0189
1387.00,0.0220
1386.00,0.0263
1385.00,0.0319
1384.00,0.0398
1383.00,0.0509
1382.00,0.0661
1381.00,0.0857
1380.00,0.1098
1379.00,0.1368
1378.00,0.1619
1377.00,0.1792
1376.00,0.1835
1375.00,0.1725
1374.00,0.1496
1373.00,0.1229
1372.00,0.0989
1371.00,0.0794
1370.00,0.0639
1369.00,0.0522
1368.00,0.0441
1367.00,0.0391
1366.00,0.0364
1365.00,0.0353
1364.00,0.0355
1363.00,0.0368
1362.00,0.0388
1361.00,0.0409
1360.00,0.0426
1359.00,0.0430
1358.00,0.0420
1357.00,0.0395
1356.00,0.0361
1355.00,0.0323
1354.00,0.0285
1353.00,0.0253
1352.00,0.0227
1351.00,0.0206
1350.00,0.0189
1349.00,0.0176
1348.00,0.0165
1347.00,0.0155
1346.00,0.0146
1345.00,0.0138
1344.00,0.0131
1343.00,0.0126
1342.00,0.0123
1341.00,0.0120
1340.00,0.0118
1339.00,0.0117
1338.00,0.0116
1337.00,0.0116
1336.00,0.0116
1335.00,0.0118
1334.00,0.0121
1333.00,0.0125
1332.00,0.0130
1331.00,0.0133
1330.00,0.0134
1329.00,0.0132
1328.00,0.0129
1327.00,0.0124
1326.00,0.0118
1325.00,0.0113
1324.00,0.0107
1323.00,0.0102
1322.00,0.0098
1321.00,0.0095
1320.00,0.0092
1319.00,0.0091
1318.00,0.0090
1317.00,0.0088
1316.00,0.0087
1315.00,0.0086
1314.00,0.0086
1313.00,0.0086
1312.00,0.0088
1311.00,0.0090
1310.00,0.0095
1309.00,0.0102
1308.00,0.0112
1307.00,0.0124
1306.00,0.0135
1305.00,0.0142
1304.00,0.0143
1303.00,0.0140
1302.00,0.0134
1301.00,0.0129
1300.00,0.0125
1299.00,0.0125
1298.00,0.0126
1297.00,0.0126
1296.00,0.0125
1295.00,0.0122
1294.00,0.0118
1293.00,0.0113
1292.00,0.0108
1291.00,0.0103
1290.00,0.0099
1289.00,0.0095
1288.00,0.0092
1287.00,0.0089
1286.00,0.0086
1285.00,0.0084
1284.00,0.0082
1283.00,0.0080
1282.00,0.0079
1281.00,0.0079
1280.00,0.0078
1279.00,0.0077
1278.00,0.0076
1277.00,0.0075
1276.00,0.0075
1275.00,0.0075
1274.00,0.0075
1273.00,0.0074
1272.00,0.0074
1271.00,0.0074
1270.00,0.0075
1269.00,0.0076
1268.00,0.0077
1267.00,0.0079
1266.00,0.0080
1265.00,0.0083
1264.00,0.0085
1263.00,0.0089
1262.00,0.0093
1261.00,0.0097
1260.00,0.0103
1259.00,0.0110
1258.00,0.0117
1257.00,0.0123
1256.00,0.0126
1255.00,0.0124
1254.00,0.0118
1253.00,0.0110
1252.00,0.0101
1251.00,0.0094
1250.00,0.0088
1249.00,0.0084
1248.00,0.0080
1247.00,0.0078
1246.00,0.0077
1245.00,0.0076
1244.00,0.0075
1243.00,0.0075
1242.00,0.0074
1241.00,0.0073
1240.00,0.0072
1239.00,0.0072
1238.00,0.0072
1237.00,0.0072
1236.00,0.0072
1235.00,0.0072
1234.00,0.0073
1233.00,0.0074
1232.00,0.0075
1231.00,0.0076
1230.00,0.0077
1229.00,0.0078
1228.00,0.0080
1227.00,0.0081
1226.00,0.0083
1225.00,0.0086
1224.00,0.0089
1223.00,0.0092
1222.00,0.0096
1221.00,0.0100
1220.00,0.0102
1219.00,0.0103
1218.00,0.0103
1217.00,0.0101
1216.00,0.0098
1215.00,0.0095
1214.00,0.0092
1213.00,0.0089
1212.00,0.0086
1211.00,0.0084
1210.00,0.0083
1209.00,0.0082
1208.00,0.0081
1207.00,0.0080
1206.00,0.0079
1205.00,0.0078
1204.00,0.0077
1203.00,0.0077
1202.00,0.0077
1201.00,0.0077
1200.00,0.0078
1199.00,0.0078
1198.00,0.0079
1197.00,0.0079
1196.00,0.0079
1195.00,0.0079
1194.00,0.0079
1193.00,0.0079
1192.00,0.0079
1191.00,0.0079
1190.00,0.0079
1189.00,0.0078
1188.00,0.0078
1187.00,0.0078
1186.00,0.0079
1185.00,0.0079
1184.00,0.0080
1183.00,0.0082
1182.00,0.0083
1181.00,0.0085
1180.00,0.0088
1179.00,0.0092
1178.00,0.0099
1177.00,0.0107
1176.00,0.0118
1175.00,0.0133
1174.00,0.0153
1173.00,0.0178
1172.00,0.0208
1171.00,0.0242
1170.00,0.0274
1169.00,0.0300
1168.00,0.0315
1167.00,0.0317
1166.00,0.0307
1165.00,0.0291
1164.00,0.0271
1163.00,0.0252
1162.00,0.0236
1161.00,0.0222
1160.00,0.0211
1159.00,0.0203
1158.00,0.0198
1157.00,0.0194
1156.00,0.0191
1155.00,0.0189
1154.00,0.0187
1153.00,0.0184
1152.00,0.0179
1151.00,0.0173
1150.00,0.0165
1149.00,0.0155
1148.00,0.0145
1147.00,0.0136
1146.00,0.0127
1145.00,0.0119
1144.00,0.0112
1143.00,0.0105
1142.00,0.0099
1141.00,0.0094
1140.00,0.0089
1139.00,0.0085
1138.00,0.0082
1137.00,0.0079
1136.00,0.0077
1135.00,0.0075
1134.00,0.0073
1133.00,0.0071
1132.00,0.0070
1131.00,0.0069
1130.00,0.0069
1129.00,0.0069
1128.00,0.0069
1127.00,0.0069
1126.00,0.0069
1125.00,0.0070
1124.00,0.0070
1123.00,0.0071
1122.00,0.0072
1121.00,0.0072
1120.00,0.0073
1119.00,0.0073
1118.00,0.0073
1117.00,0.0073
1116.00,0.0074
1115.00,0.0075
1114.00,0.0077
1113.00,0.0080
1112.00,0.0082
1111.00,0.0083
1110.00,0.0086
1109.00,0.0089
1108.00,0.0094
1107.00,0.0100
1106.00,0.0106
1105.00,0.0111
1104.00,0.0116
1103.00,0.0119
1102.00,0.0120
1101.00,0.0117
1100.00,0.0112
1099.00,0.0105
1098.00,0.0098
1097.00,0.0092
1096.00,0.0087
1095.00,0.0083
1094.00,0.0080
1093.00,0.0077
1092.00,0.0075
1091.00,0.0074
1090.00,0.0074
1089.00,0.0073
1088.00,0.0072
1087.00,0.0071
1086.00,0.0071
1085.00,0.0071
1084.00,0.0071
1083.00,0.0071
1082.00,0.0071
1081.00,0.0070
1080.00,0.0069
1079.00,0.0068
1078.00,0.0068
1077.00,0.0068
1076.00,0.0068
1075.00,0.0068
1074.00,0.0068
1073.00,0.0068
1072.00,0.0068
1071.00,0.0067
1070.00,0.0068
1069.00,0.0068
1068.00,0.0068
1067.00,0.0069
1066.00,0.0069
1065.00,0.0070
1064.00,0.0070
1063.00,0.0071
1062.00,0.0072
1061.00,0.0073
1060.00,0.0074
1059.00,0.0075
1058.00,0.0076
1057.00,0.0078
1056.00,0.0079
1055.00,0.0080
1054.00,0.0082
1053.00,0.0084
1052.00,0.0087
1051.00,0.0092
1050.00,0.0097
1049.00,0.0102
1048.00,0.0107
1047.00,0.0112
1046.00,0.0116
1045.00,0.0118
1044.00,0.0119
1043.00,0.0119
1042.00,0.0117
1041.00,0.0115
1040.00,0.0113
1039.00,0.0112
1038.00,0.0113
1037.00,0.0113
1036.00,0.0113
1035.00,0.0112
1034.00,0.0110
1033.00,0.0108
1032.00,0.0107
1031.00,0.0106
1030.00,0.0106
1029.00,0.0106
1028.00,0.0106
1027.00,0.0107
1026.00,0.0109
1025.00,0.0111
1024.00,0.0113
1023.00,0.0114
1022.00,0.0116
1021.00,0.0119
1020.00,0.0121
1019.00,0.0123
1018.00,0.0125
1017.00,0.0126
1016.00,0.0126
1015.00,0.0127
1014.00,0.0128
1013.00,0.0129
1012.00,0.0130
1011.00,0.0130
1010.00,0.0131
1009.00,0.0132
1008.00,0.0134
1007.00,0.0138
1006.00,0.0146
1005.00,0.0158
1004.00,0.0175
1003.00,0.0198
1002.00,0.0229
1001.00,0.0267
1000.00,0.0307
999.00,0.0341
998.00,0.0357
997.00,0.0350
996.00,0.0322
995.00,0.0281
994.00,0.0239
993.00,0.0202
992.00,0.0173
991.00,0.0153
990.00,0.0138
989.00,0.0128
988.00,0.0122
987.00,0.0118
986.00,0.0117
985.00,0.0118
984.00,0.0121
983.00,0.0128
982.00,0.0140
981.00,0.0156
980.00,0.0178
979.00,0.0207
978.00,0.0244
977.00,0.0288
976.00,0.0334
975.00,0.0378
974.00,0.0410
973.00,0.0421
972.00,0.0406
971.00,0.0367
970.00,0.0314
969.00,0.0261
968.00,0.0216
967.00,0.0181
966.00,0.0156
965.00,0.0137
964.00,0.0123
963.00,0.0113
962.00,0.0106
961.00,0.0100
960.00,0.0096
959.00,0.0092
958.00,0.0089
957.00,0.0085
956.00,0.0083
955.00,0.0081
954.00,0.0080
953.00,0.0079
952.00,0.0078
951.00,0.0077
950.00,0.0076
949.00,0.0076
948.00,0.0076
947.00,0.0076
946.00,0.0078
945.00,0.0080
944.00,0.0084
943.00,0.0087
942.00,0.0089
941.00,0.0090
940.00,0.0090
939.00,0.0088
938.00,0.0084
937.00,0.0079
936.00,0.0074
935.00,0.0071
934.00,0.0068
933.00,0.0065
932.00,0.0064
931.00,0.0063
930.00,0.0063
929.00,0.0062
928.00,0.0062
927.00,0.0062
926.00,0.0062
925.00,0.0061
924.00,0.0060
923.00,0.0060
922.00,0.0060
921.00,0.0061
920.00,0.0060
919.00,0.0060
918.00,0.0059
917.00,0.0059
916.00,0.0059
915.00,0.0060
914.00,0.0061
913.00,0.0063
912.00,0.0065
911.00,0.0066
910.00,0.0068
909.00,0.0071
908.00,0.0074
907.00,0.0080
906.00,0.0087
905.00,0.0097
904.00,0.0111
903.00,0.0128
902.00,0.0148
901.00,0.0165
900.00,0.0176
899.00,0.0177
898.00,0.0168
897.00,0.0152
896.00,0.0132
895.00,0.0114
894.00,0.0100
893.00,0.0089
892.00,0.0082
891.00,0.0077
890.00,0.0074
889.00,0.0073
888.00,0.0071
887.00,0.0070
886.00,0.0068
885.00,0.0067
884.00,0.0067
883.00,0.0068
882.00,0.0069
881.00,0.0070
880.00,0.0071
879.00,0.0071
878.00,0.0071
877.00,0.0071
876.00,0.0072
875.00,0.0072
874.00,0.0073
873.00,0.0073
872.00,0.0072
871.00,0.0072
870.00,0.0072
869.00,0.0071
868.00,0.0071
867.00,0.0071
866.00,0.0071
865.00,0.0073
864.00,0.0076
863.00,0.0079
862.00,0.0082
861.00,0.0083
860.00,0.0083
859.00,0.0083
858.00,0.0084
857.00,0.0085
856.00,0.0087
855.00,0.0088
854.00,0.0089
853.00,0.0091
852.00,0.0093
851.00,0.0097
850.00,0.0101
849.00,0.0106
848.00,0.0115
847.00,0.0130
846.00,0.0154
845.00,0.0189
844.00,0.0237
843.00,0.0292
842.00,0.0337
841.00,0.0353
840.00,0.0330
839.00,0.0280
838.00,0.0224
837.00,0.0178
836.00,0.0148
835.00,0.0131
834.00,0.0121
833.00,0.0114
832.00,0.0108
831.00,0.0103
830.00,0.0100
829.00,0.0098
828.00,0.0098
827.00,0.0097
826.00,0.0096
825.00,0.0094
824.00,0.0093
823.00,0.0094
822.00,0.0095
821.00,0.0097
820.00,0.0099
819.00,0.0101
818.00,0.0104
817.00,0.0110
816.00,0.0118
815.00,0.0129
814.00,0.0143
813.00,0.0160
812.00,0.0178
811.00,0.0196
810.00,0.0210
809.00,0.0216
808.00,0.0213
807.00,0.0201
806.00,0.0183
805.00,0.0165
804.00,0.0149
803.00,0.0134
802.00,0.0122
801.00,0.0113
800.00,0.0106
799.00,0.0102
798.00,0.0099
797.00,0.0096
796.00,0.0093
795.00,0.0090
794.00,0.0087
793.00,0.0084
792.00,0.0082
791.00,0.0080
790.00,0.0078
789.00,0.0076
788.00,0.0073
787.00,0.0071
786.00,0.0068
785.00,0.0066
784.00,0.0064
783.00,0.0062
782.00,0.0060
781.00,0.0059
780.00,0.0059
779.00,0.0059
778.00,0.0059
777.00,0.0060
776.00,0.0061
775.00,0.0062
774.00,0.0063
773.00,0.0063
772.00,0.0064
771.00,0.0063
770.00,0.0063
769.00,0.0061
768.00,0.0060
767.00,0.0060
766.00,0.0061
765.00,0.0062
764.00,0.0063
763.00,0.0064
762.00,0.0064
761.00,0.0064
760.00,0.0064
759.00,0.0065
758.00,0.0065
757.00,0.0066
756.00,0.0067
755.00,0.0070
754.00,0.0072
753.00,0.0074
752.00,0.0074
751.00,0.0072
750.00,0.0071
749.00,0.0070
748.00,0.0071
747.00,0.0074
746.00,0.0077
745.00,0.0079
744.00,0.0081
743.00,0.0083
742.00,0.0085
741.00,0.0089
740.00,0.0093
739.00,0.0097
738.00,0.0102
737.00,0.0106
736.00,0.0111
735.00,0.0114
734.00,0.0117
733.00,0.0122
732.00,0.0128
731.00,0.0136
730.00,0.0142
729.00,0.0146
728.00,0.0148
727.00,0.0148
726.00,0.0149
725.00,0.0151
724.00,0.0155
723.00,0.0162
722.00,0.0169
721.00,0.0174
720.00,0.0171
719.00,0.0161
718.00,0.0147
717.00,0.0135
716.00,0.0126
715.00,0.0121
714.00,0.0117
713.00,0.0112
712.00,0.0108
711.00,0.0105
710.00,0.0101
709.00,0.0098
708.00,0.0096
707.00,0.0095
706.00,0.0094
705.00,0.0093
704.00,0.0091
703.00,0.0090
702.00,0.0088
701.00,0.0087
700.00,0.0087
699.00,0.0087
698.00,0.0087
697.00,0.0086
696.00,0.0085
695.00,0.0084
694.00,0.0084
693.00,0.0084
692.00,0.0084
691.00,0.0085
690.00,0.0086
689.00,0.0088
688.00,0.0090
687.00,0.0091
686.00,0.0090
685.00,0.0088
684.00,0.0085
683.00,0.0084
682.00,0.0085
681.00,0.0086
680.00,0.0088
679.00,0.0089
678.00,0.0090
677.00,0.0091
676.00,0.0091
675.00,0.0091
674.00,0.0092
673.00,0.0093
672.00,0.0094
671.00,0.0095
670.00,0.0098
669.00,0.0102
668.00,0.0106
667.00,0.0107
666.00,0.0102
665.00,0.0096
664.00,0.0091
663.00,0.0088
662.00,0.0086
661.00,0.0085
660.00,0.0084
659.00,0.0083
658.00,0.0082
657.00,0.0081
656.00,0.0079
655.00,0.0077
654.00,0.0076
653.00,0.0076
652.00,0.0076
651.00,0.0077
650.00,0.0078
649.00,0.0079
648.00,0.0079
647.00,0.0080
646.00,0.0081
645.00,0.0081
644.00,0.0081
643.00,0.0079
642.00,0.0077
641.00,0.0075
640.00,0.0074
639.00,0.0074
638.00,0.0075
637.00,0.0077
636.00,0.0077
635.00,0.0075
634.00,0.0075
633.00,0.0076
632.00,0.0080
631.00,0.0084
630.00,0.0087
629.00,0.0088
628.00,0.0086
627.00,0.0082
626.00,0.0079
625.00,0.0078
624.00,0.0078
623.00,0.0079
622.00,0.0080
621.00,0.0080
620.00,0.0079
619.00,0.0077
618.00,0.0077
617.00,0.0077
616.00,0.0078
615.00,0.0079
614.00,0.0079
613.00,0.0079
612.00,0.0079
611.00,0.0080
610.00,0.0081
609.00,0.0081
608.00,0.0081
607.00,0.0080
606.00,0.0078
605.00,0.0076
604.00,0.0075
603.00,0.0075
602.00,0.0077
601.00,0.0079
600.00,0.0080
599.00,0.0079
598.00,0.0077
597.00,0.0076
596.00,0.0077
595.00,0.0078
594.00,0.0078
593.00,0.0077
592.00,0.0078
591.00,0.0081
590.00,0.0084
589.00,0.0085
588.00,0.0083
587.00,0.0078
586.00,0.0073
585.00,0.0070
584.00,0.0070
583.00,0.0074
582.00,0.0077
581.00,0.0079
580.00,0.0078
579.00,0.0075
578.00,0.0072
577.00,0.0071
576.00,0.0073
575.00,0.0076
574.00,0.0077
573.00,0.0076
572.00,0.0075
571.00,0.0076
570.00,0.0077
569.00,0.0078
568.00,0.0078
567.00,0.0078
566.00,0.0078
565.00,0.0078
564.00,0.0077
563.00,0.0077
562.00,0.0077
561.00,0.0077
560.00,0.0078
559.00,0.0080
558.00,0.0081
557.00,0.0082
556.00,0.0081
555.00,0.0079
554.00,0.0077
553.00,0.0074
552.00,0.0074
551.00,0.0077
550.00,0.0079
549.00,0.0080
548.00,0.0079
547.00,0.0081
546.00,0.0084
545.00,0.0086
544.00,0.0087
543.00,0.0088
542.00,0.0093
541.00,0.0101
540.00,0.0107
539.00,0.0109
538.00,0.0109
537.00,0.0107
536.00,0.0105
535.00,0.0105
534.00,0.0106
533.00,0.0107
532.00,0.0109
531.00,0.0110
530.00,0.0110
529.00,0.0109
528.00,0.0107
527.00,0.0106
526.00,0.0106
525.00,0.0104
524.00,0.0099
523.00,0.0093
522.00,0.0088
521.00,0.0086
520.00,0.0086
519.00,0.0087
518.00,0.0087
517.00,0.0086
516.00,0.0083
515.00,0.0077
514.00,0.0068
513.00,0.0060
512.00,0.0056
511.00,0.0057
510.00,0.0060
509.00,0.0065
508.00,0.0069
507.00,0.0073
506.00,0.0076
505.00,0.0079
504.00,0.0083
503.00,0.0090
502.00,0.0096
501.00,0.0097
500.00,0.0091
499.00,0.0084
498.00,0.0081
497.00,0.0082
496.00,0.0084
495.00,0.0087
494.00,0.0092
493.00,0.0096
492.00,0.0096
491.00,0.0093
490.00,0.0090
489.00,0.0091
488.00,0.0094
487.00,0.0098
486.00,0.0099
485.00,0.0096
484.00,0.0092
483.00,0.0092
482.00,0.0097
481.00,0.0106
480.00,0.0111
479.00,0.0106
478.00,0.0095
477.00,0.0086
476.00,0.0089
475.00,0.0102
474.00,0.0117
473.00,0.0127
472.00,0.0133
471.00,0.0135
470.00,0.0133
469.00,0.0130
468.00,0.0131
467.00,0.0143
466.00,0.0160
465.00,0.0170
464.00,0.0171
463.00,0.0166
462.00,0.0163
461.00,0.0165
460.00,0.0172
459.00,0.0186
458.00,0.0203
457.00,0.0212
456.00,0.0209
455.00,0.0197
454.00,0.0185
453.00,0.0179
452.00,0.0176
451.00,0.0170
450.00,0.0160
