Created as New Dataset,Sample 040 By Administrator Date Wednesday, September 03 2025
cm-1,A
4000.00,0.0009
3999.00,0.0009
3998.00,0.0010
3997.00,0.0010
3996.00,0.0010
3995.00,0.0010
3994.00,0.0010
3993.00,0.0010
3992.00,0.0010
3991.00,0.0009
3990.00,0.0009
3989.00,0.0009
3988.00,0.0009
3987.00,0.0008
3986.00,0.0008
3985.00,0.0008
3984.00,0.0008
3983.00,0.0008
3982.00,0.0008
3981.00,0.0009
3980.00,0.0009
3979.00,0.0009
3978.00,0.0009
3977.00,0.0009
3976.00,0.0008
3975.00,0.0008
3974.00,0.0008
3973.00,0.0008
3972.00,0.0008
3971.00,0.0008
3970.00,0.0008
3969.00,0.0008
3968.00,0.0008
3967.00,0.0008
3966.00,0.0008
3965.00,0.0008
3964.00,0.0008
3963.00,0.0007
3962.00,0.0007
3961.00,0.0008
3960.00,0.0008
3959.00,0.0008
3958.00,0.0008
3957.00,0.0008
3956.00,0.0008
3955.00,0.0008
3954.00,0.0008
3953.00,0.0007
3952.00,0.0007
3951.00,0.0007
3950.00,0.0007
3949.00,0.0008
3948.00,0.0008
3947.00,0.0008
3946.00,0.0008
3945.00,0.0008
3944.00,0.0008
3943.00,0.0008
3942.00,0.0007
3941.00,0.0007
3940.00,0.0007
3939.00,0.0007
3938.00,0.0007
3937.00,0.0008
3936.00,0.0008
3935.00,0.0008
3934.00,0.0008
3933.00,0.0008
3932.00,0.0008
3931.00,0.0008
3930.00,0.0008
3929.00,0.0008
3928.00,0.0007
3927.00,0.0007
3926.00,0.0007
3925.00,0.0007
3924.00,0.0008
3923.00,0.0008
3922.00,0.0008
3921.00,0.0008
3920.00,0.0008
3919.00,0.0008
3918.00,0.0008
3917.00,0.0008
3916.00,0.0008
3915.00,0.0008
3914.00,0.0008
3913.00,0.0008
3912.00,0.0008
3911.00,0.0008
3910.00,0.0007
3909.00,0.0007
3908.00,0.0007
3907.00,0.0006
3906.00,0.0006
3905.00,0.0006
3904.00,0.0007
3903.00,0.0007
3902.00,0.0007
3901.00,0.0007
3900.00,0.0007
3899.00,0.0007
3898.00,0.0007
3897.00,0.0007
3896.00,0.0007
3895.00,0.0007
3894.00,0.0006
3893.00,0.0006
3892.00,0.0007
3891.00,0.0007
3890.00,0.0007
3889.00,0.0007
3888.00,0.0007
3887.00,0.0007
3886.00,0.0007
3885.00,0.0007
3884.00,0.0007
3883.00,0.0007
3882.00,0.0007
3881.00,0.0007
3880.00,0.0007
3879.00,0.0008
3878.00,0.0008
3877.00,0.0007
3876.00,0.0007
3875.00,0.0006
3874.00,0.0006
3873.00,0.0005
3872.00,0.0005
3871.00,0.0004
3870.00,0.0004
3869.00,0.0004
3868.00,0.0004
3867.00,0.0004
3866.00,0.0005
3865.00,0.0005
3864.00,0.0005
3863.00,0.0005
3862.00,0.0005
3861.00,0.0005
3860.00,0.0005
3859.00,0.0005
3858.00,0.0005
3857.00,0.0005
3856.00,0.0005
3855.00,0.0005
3854.00,0.0005
3853.00,0.0005
3852.00,0.0005
3851.00,0.0006
3850.00,0.0006
3849.00,0.0006
3848.00,0.0006
3847.00,0.0007
3846.00,0.0007
3845.00,0.0007
3844.00,0.0007
3843.00,0.0006
3842.00,0.0006
3841.00,0.0005
3840.00,0.0004
3839.00,0.0004
3838.00,0.0004
3837.00,0.0004
3836.00,0.0004
3835.00,0.0005
3834.00,0.0005
3833.00,0.0005
3832.00,0.0005
3831.00,0.0006
3830.00,0.0006
3829.00,0.0006
3828.00,0.0006
3827.00,0.0007
3826.00,0.0007
3825.00,0.0007
3824.00,0.0006
3823.00,0.0006
3822.00,0.0005
3821.00,0.0005
3820.00,0.0005
3819.00,0.0005
3818.00,0.0005
3817.00,0.0005
3816.00,0.0006
3815.00,0.0007
3814.00,0.0007
3813.00,0.0007
3812.00,0.0007
3811.00,0.0007
3810.00,0.0007
3809.00,0.0007
3808.00,0.0007
3807.00,0.0007
3806.00,0.0007
3805.00,0.0007
3804.00,0.0006
3803.00,0.0006
3802.00,0.0006
3801.00,0.0006
3800.00,0.0006
3799.00,0.0006
3798.00,0.0006
3797.00,0.0007
3796.00,0.0007
3795.00,0.0007
3794.00,0.0007
3793.00,0.0007
3792.00,0.0007
3791.00,0.0007
3790.00,0.0007
3789.00,0.0007
3788.00,0.0007
3787.00,0.0007
3786.00,0.0007
3785.00,0.0007
3784.00,0.0007
3783.00,0.0007
3782.00,0.0007
3781.00,0.0007
3780.00,0.0007
3779.00,0.0007
3778.00,0.0007
3777.00,0.0008
3776.00,0.0008
3775.00,0.0008
3774.00,0.0007
3773.00,0.0007
3772.00,0.0007
3771.00,0.0006
3770.00,0.0006
3769.00,0.0006
3768.00,0.0006
3767.00,0.0006
3766.00,0.0007
3765.00,0.0007
3764.00,0.0007
3763.00,0.0007
3762.00,0.0007
3761.00,0.0007
3760.00,0.0007
3759.00,0.0007
3758.00,0.0007
3757.00,0.0007
3756.00,0.0006
3755.00,0.0006
3754.00,0.0005
3753.00,0.0004
3752.00,0.0004
3751.00,0.0003
3750.00,0.0003
3749.00,0.0003
3748.00,0.0003
3747.00,0.0004
3746.00,0.0004
3745.00,0.0005
3744.00,0.0005
3743.00,0.0005
3742.00,0.0005
3741.00,0.0005
3740.00,0.0005
3739.00,0.0005
3738.00,0.0004
3737.00,0.0004
3736.00,0.0004
3735.00,0.0004
3734.00,0.0004
3733.00,0.0004
3732.00,0.0004
3731.00,0.0004
3730.00,0.0004
3729.00,0.0004
3728.00,0.0004
3727.00,0.0004
3726.00,0.0004
3725.00,0.0004
3724.00,0.0004
3723.00,0.0005
3722.00,0.0005
3721.00,0.0005
3720.00,0.0006
3719.00,0.0006
3718.00,0.0006
3717.00,0.0006
3716.00,0.0005
3715.00,0.0005
3714.00,0.0004
3713.00,0.0004
3712.00,0.0004
3711.00,0.0004
3710.00,0.0004
3709.00,0.0005
3708.00,0.0005
3707.00,0.0004
3706.00,0.0004
3705.00,0.0004
3704.00,0.0004
3703.00,0.0004
3702.00,0.0004
3701.00,0.0004
3700.00,0.0005
3699.00,0.0005
3698.00,0.0005
3697.00,0.0005
3696.00,0.0005
3695.00,0.0005
3694.00,0.0005
3693.00,0.0005
3692.00,0.0005
3691.00,0.0004
3690.00,0.0004
3689.00,0.0004
3688.00,0.0005
3687.00,0.0004
3686.00,0.0004
3685.00,0.0004
3684.00,0.0005
3683.00,0.0005
3682.00,0.0005
3681.00,0.0005
3680.00,0.0005
3679.00,0.0005
3678.00,0.0005
3677.00,0.0005
3676.00,0.0004
3675.00,0.0004
3674.00,0.0004
3673.00,0.0004
3672.00,0.0004
3671.00,0.0005
3670.00,0.0005
3669.00,0.0005
3668.00,0.0005
3667.00,0.0005
3666.00,0.0004
3665.00,0.0004
3664.00,0.0005
3663.00,0.0005
3662.00,0.0005
3661.00,0.0005
3660.00,0.0005
3659.00,0.0005
3658.00,0.0005
3657.00,0.0005
3656.00,0.0005
3655.00,0.0005
3654.00,0.0005
3653.00,0.0005
3652.00,0.0004
3651.00,0.0003
3650.00,0.0003
3649.00,0.0002
3648.00,0.0003
3647.00,0.0004
3646.00,0.0005
3645.00,0.0005
3644.00,0.0006
3643.00,0.0006
3642.00,0.0006
3641.00,0.0006
3640.00,0.0006
3639.00,0.0006
3638.00,0.0007
3637.00,0.0007
3636.00,0.0007
3635.00,0.0007
3634.00,0.0007
3633.00,0.0006
3632.00,0.0007
3631.00,0.0007
3630.00,0.0007
3629.00,0.0007
3628.00,0.0008
3627.00,0.0008
3626.00,0.0009
3625.00,0.0009
3624.00,0.0009
3623.00,0.0010
3622.00,0.0010
3621.00,0.0010
3620.00,0.0010
3619.00,0.0009
3618.00,0.0009
3617.00,0.0009
3616.00,0.0009
3615.00,0.0009
3614.00,0.0010
3613.00,0.0010
3612.00,0.0010
3611.00,0.0010
3610.00,0.0010
3609.00,0.0010
3608.00,0.0011
3607.00,0.0012
3606.00,0.0012
3605.00,0.0012
3604.00,0.0012
3603.00,0.0012
3602.00,0.0012
3601.00,0.0012
3600.00,0.0012
3599.00,0.0013
3598.00,0.0013
3597.00,0.0013
3596.00,0.0013
3595.00,0.0013
3594.00,0.0013
3593.00,0.0013
3592.00,0.0013
3591.00,0.0014
3590.00,0.0014
3589.00,0.0014
3588.00,0.0014
3587.00,0.0015
3586.00,0.0016
3585.00,0.0017
3584.00,0.0017
3583.00,0.0017
3582.00,0.0018
3581.00,0.0018
3580.00,0.0018
3579.00,0.0018
3578.00,0.0019
3577.00,0.0019
3576.00,0.0020
3575.00,0.0020
3574.00,0.0021
3573.00,0.0021
3572.00,0.0021
3571.00,0.0021
3570.00,0.0021
3569.00,0.0021
3568.00,0.0021
3567.00,0.0021
3566.00,0.0021
3565.00,0.0021
3564.00,0.0022
3563.00,0.0022
3562.00,0.0022
3561.00,0.0022
3560.00,0.0022
3559.00,0.0022
3558.00,0.0023
3557.00,0.0023
3556.00,0.0024
3555.00,0.0024
3554.00,0.0024
3553.00,0.0024
3552.00,0.0024
3551.00,0.0024
3550.00,0.0024
3549.00,0.0024
3548.00,0.0025
3547.00,0.0025
3546.00,0.0025
3545.00,0.0026
3544.00,0.0026
3543.00,0.0026
3542.00,0.0026
3541.00,0.0027
3540.00,0.0027
3539.00,0.0027
3538.00,0.0027
3537.00,0.0027
3536.00,0.0028
3535.00,0.0028
3534.00,0.0028
3533.00,0.0028
3532.00,0.0028
3531.00,0.0028
3530.00,0.0028
3529.00,0.0028
3528.00,0.0028
3527.00,0.0029
3526.00,0.0029
3525.00,0.0030
3524.00,0.0030
3523.00,0.0030
3522.00,0.0030
3521.00,0.0029
3520.00,0.0029
3519.00,0.0030
3518.00,0.0030
3517.00,0.0031
3516.00,0.0031
3515.00,0.0031
3514.00,0.0031
3513.00,0.0032
3512.00,0.0032
3511.00,0.0032
3510.00,0.0033
3509.00,0.0033
3508.00,0.0033
3507.00,0.0033
3506.00,0.0033
3505.00,0.0033
3504.00,0.0033
3503.00,0.0033
3502.00,0.0033
3501.00,0.0033
3500.00,0.0034
3499.00,0.0034
3498.00,0.0034
3497.00,0.0034
3496.00,0.0034
3495.00,0.0035
3494.00,0.0035
3493.00,0.0035
3492.00,0.0036
3491.00,0.0036
3490.00,0.0036
3489.00,0.0037
3488.00,0.0037
3487.00,0.0037
3486.00,0.0037
3485.00,0.0037
3484.00,0.0037
3483.00,0.0037
3482.00,0.0037
3481.00,0.0037
3480.00,0.0037
3479.00,0.0037
3478.00,0.0038
3477.00,0.0038
3476.00,0.0038
3475.00,0.0038
3474.00,0.0038
3473.00,0.0039
3472.00,0.0039
3471.00,0.0039
3470.00,0.0040
3469.00,0.0040
3468.00,0.0040
3467.00,0.0040
3466.00,0.0040
3465.00,0.0040
3464.00,0.0040
3463.00,0.0040
3462.00,0.0040
3461.00,0.0040
3460.00,0.0040
3459.00,0.0040
3458.00,0.0041
3457.00,0.0041
3456.00,0.0041
3455.00,0.0041
3454.00,0.0042
3453.00,0.0042
3452.00,0.0042
3451.00,0.0042
3450.00,0.0042
3449.00,0.0042
3448.00,0.0042
3447.00,0.0043
3446.00,0.0043
3445.00,0.0043
3444.00,0.0043
3443.00,0.0044
3442.00,0.0044
3441.00,0.0044
3440.00,0.0044
3439.00,0.0045
3438.00,0.0045
3437.00,0.0045
3436.00,0.0045
3435.00,0.0045
3434.00,0.0045
3433.00,0.0046
3432.00,0.0046
3431.00,0.0046
3430.00,0.0046
3429.00,0.0047
3428.00,0.0047
3427.00,0.0048
3426.00,0.0048
3425.00,0.0048
3424.00,0.0048
3423.00,0.0048
3422.00,0.0048
3421.00,0.0049
3420.00,0.0049
3419.00,0.0049
3418.00,0.0050
3417.00,0.0051
3416.00,0.0051
3415.00,0.0052
3414.00,0.0052
3413.00,0.0052
3412.00,0.0053
3411.00,0.0053
3410.00,0.0054
3409.00,0.0054
3408.00,0.0055
3407.00,0.0055
3406.00,0.0056
3405.00,0.0057
3404.00,0.0058
3403.00,0.0059
3402.00,0.0060
3401.00,0.0061
3400.00,0.0062
3399.00,0.0063
3398.00,0.0065
3397.00,0.0066
3396.00,0.0066
3395.00,0.0066
3394.00,0.0065
3393.00,0.0064
3392.00,0.0063
3391.00,0.0063
3390.00,0.0062
3389.00,0.0061
3388.00,0.0061
3387.00,0.0060
3386.00,0.0059
3385.00,0.0058
3384.00,0.0058
3383.00,0.0057
3382.00,0.0057
3381.00,0.0056
3380.00,0.0056
3379.00,0.0056
3378.00,0.0056
3377.00,0.0056
3376.00,0.0055
3375.00,0.0055
3374.00,0.0054
3373.00,0.0054
3372.00,0.0054
3371.00,0.0054
3370.00,0.0054
3369.00,0.0054
3368.00,0.0054
3367.00,0.0053
3366.00,0.0053
3365.00,0.0053
3364.00,0.0052
3363.00,0.0052
3362.00,0.0052
3361.00,0.0053
3360.00,0.0053
3359.00,0.0053
3358.00,0.0053
3357.00,0.0053
3356.00,0.0053
3355.00,0.0053
3354.00,0.0052
3353.00,0.0052
3352.00,0.0052
3351.00,0.0052
3350.00,0.0052
3349.00,0.0052
3348.00,0.0051
3347.00,0.0051
3346.00,0.0051
3345.00,0.0051
3344.00,0.0051
3343.00,0.0051
3342.00,0.0051
3341.00,0.0051
3340.00,0.0051
3339.00,0.0051
3338.00,0.0051
3337.00,0.0051
3336.00,0.0051
3335.00,0.0051
3334.00,0.0051
3333.00,0.0050
3332.00,0.0050
3331.00,0.0050
3330.00,0.0050
3329.00,0.0050
3328.00,0.0050
3327.00,0.0050
3326.00,0.0049
3325.00,0.0049
3324.00,0.0049
3323.00,0.0049
3322.00,0.0050
3321.00,0.0050
3320.00,0.0049
3319.00,0.0049
3318.00,0.0049
3317.00,0.0049
3316.00,0.0049
3315.00,0.0049
3314.00,0.0049
3313.00,0.0049
3312.00,0.0049
3311.00,0.0049
3310.00,0.0049
3309.00,0.0050
3308.00,0.0050
3307.00,0.0050
3306.00,0.0050
3305.00,0.0050
3304.00,0.0049
3303.00,0.0049
3302.00,0.0049
3301.00,0.0049
3300.00,0.0049
3299.00,0.0049
3298.00,0.0048
3297.00,0.0048
3296.00,0.0048
3295.00,0.0048
3294.00,0.0047
3293.00,0.0047
3292.00,0.0047
3291.00,0.0047
3290.00,0.0046
3289.00,0.0046
3288.00,0.0046
3287.00,0.0045
3286.00,0.0045
3285.00,0.0045
3284.00,0.0045
3283.00,0.0045
3282.00,0.0045
3281.00,0.0045
3280.00,0.0044
3279.00,0.0044
3278.00,0.0044
3277.00,0.0043
3276.00,0.0043
3275.00,0.0043
3274.00,0.0042
3273.00,0.0042
3272.00,0.0042
3271.00,0.0042
3270.00,0.0042
3269.00,0.0042
3268.00,0.0042
3267.00,0.0043
3266.00,0.0043
3265.00,0.0043
3264.00,0.0043
3263.00,0.0042
3262.00,0.0042
3261.00,0.0042
3260.00,0.0042
3259.00,0.0041
3258.00,0.0041
3257.00,0.0040
3256.00,0.0040
3255.00,0.0040
3254.00,0.0040
3253.00,0.0040
3252.00,0.0040
3251.00,0.0040
3250.00,0.0040
3249.00,0.0040
3248.00,0.0040
3247.00,0.0039
3246.00,0.0039
3245.00,0.0039
3244.00,0.0039
3243.00,0.0039
3242.00,0.0039
3241.00,0.0040
3240.00,0.0040
3239.00,0.0040
3238.00,0.0040
3237.00,0.0040
3236.00,0.0040
3235.00,0.0040
3234.00,0.0041
3233.00,0.0041
3232.00,0.0041
3231.00,0.0041
3230.00,0.0041
3229.00,0.0042
3228.00,0.0042
3227.00,0.0042
3226.00,0.0042
3225.00,0.0042
3224.00,0.0042
3223.00,0.0042
3222.00,0.0042
3221.00,0.0042
3220.00,0.0043
3219.00,0.0043
3218.00,0.0043
3217.00,0.0044
3216.00,0.0044
3215.00,0.0045
3214.00,0.0045
3213.00,0.0046
3212.00,0.0046
3211.00,0.0046
3210.00,0.0046
3209.00,0.0046
3208.00,0.0046
3207.00,0.0047
3206.00,0.0047
3205.00,0.0048
3204.00,0.0048
3203.00,0.0049
3202.00,0.0049
3201.00,0.0049
3200.00,0.0049
3199.00,0.0049
3198.00,0.0049
3197.00,0.0049
3196.00,0.0050
3195.00,0.0050
3194.00,0.0050
3193.00,0.0050
3192.00,0.0050
3191.00,0.0050
3190.00,0.0050
3189.00,0.0050
3188.00,0.0051
3187.00,0.0051
3186.00,0.0051
3185.00,0.0051
3184.00,0.0050
3183.00,0.0050
3182.00,0.0049
3181.00,0.0048
3180.00,0.0048
3179.00,0.0048
3178.00,0.0048
3177.00,0.0048
3176.00,0.0047
3175.00,0.0047
3174.00,0.0046
3173.00,0.0046
3172.00,0.0045
3171.00,0.0045
3170.00,0.0044
3169.00,0.0044
3168.00,0.0044
3167.00,0.0043
3166.00,0.0043
3165.00,0.0043
3164.00,0.0042
3163.00,0.0042
3162.00,0.0042
3161.00,0.0042
3160.00,0.0042
3159.00,0.0041
3158.00,0.0041
3157.00,0.0040
3156.00,0.0040
3155.00,0.0040
3154.00,0.0039
3153.00,0.0039
3152.00,0.0039
3151.00,0.0039
3150.00,0.0039
3149.00,0.0039
3148.00,0.0039
3147.00,0.0039
3146.00,0.0039
3145.00,0.0038
3144.00,0.0038
3143.00,0.0037
3142.00,0.0037
3141.00,0.0037
3140.00,0.0037
3139.00,0.0036
3138.00,0.0036
3137.00,0.0036
3136.00,0.0036
3135.00,0.0036
3134.00,0.0036
3133.00,0.0035
3132.00,0.0034
3131.00,0.0034
3130.00,0.0034
3129.00,0.0034
3128.00,0.0034
3127.00,0.0034
3126.00,0.0033
3125.00,0.0033
3124.00,0.0033
3123.00,0.0033
3122.00,0.0033
3121.00,0.0033
3120.00,0.0033
3119.00,0.0033
3118.00,0.0032
3117.00,0.0032
3116.00,0.0031
3115.00,0.0031
3114.00,0.0031
3113.00,0.0031
3112.00,0.0031
3111.00,0.0031
3110.00,0.0031
3109.00,0.0031
3108.00,0.0031
3107.00,0.0031
3106.00,0.0031
3105.00,0.0031
3104.00,0.0031
3103.00,0.0031
3102.00,0.0031
3101.00,0.0031
3100.00,0.0030
3099.00,0.0030
3098.00,0.0030
3097.00,0.0029
3096.00,0.0029
3095.00,0.0029
3094.00,0.0029
3093.00,0.0030
3092.00,0.0030
3091.00,0.0030
3090.00,0.0030
3089.00,0.0030
3088.00,0.0030
3087.00,0.0030
3086.00,0.0030
3085.00,0.0030
3084.00,0.0030
3083.00,0.0030
3082.00,0.0030
3081.00,0.0030
3080.00,0.0030
3079.00,0.0030
3078.00,0.0030
3077.00,0.0030
3076.00,0.0030
3075.00,0.0030
3074.00,0.0030
3073.00,0.0031
3072.00,0.0031
3071.00,0.0031
3070.00,0.0031
3069.00,0.0031
3068.00,0.0031
3067.00,0.0031
3066.00,0.0032
3065.00,0.0032
3064.00,0.0032
3063.00,0.0033
3062.00,0.0033
3061.00,0.0033
3060.00,0.0033
3059.00,0.0033
3058.00,0.0033
3057.00,0.0033
3056.00,0.0033
3055.00,0.0034
3054.00,0.0034
3053.00,0.0035
3052.00,0.0035
3051.00,0.0035
3050.00,0.0034
3049.00,0.0034
3048.00,0.0034
3047.00,0.0035
3046.00,0.0035
3045.00,0.0036
3044.00,0.0037
3043.00,0.0037
3042.00,0.0037
3041.00,0.0037
3040.00,0.0038
3039.00,0.0038
3038.00,0.0038
3037.00,0.0039
3036.00,0.0039
3035.00,0.0039
3034.00,0.0039
3033.00,0.0040
3032.00,0.0040
3031.00,0.0041
3030.00,0.0041
3029.00,0.0042
3028.00,0.0042
3027.00,0.0043
3026.00,0.0043
3025.00,0.0044
3024.00,0.0044
3023.00,0.0045
3022.00,0.0046
3021.00,0.0047
3020.00,0.0047
3019.00,0.0048
3018.00,0.0049
3017.00,0.0049
3016.00,0.0050
3015.00,0.0051
3014.00,0.0052
3013.00,0.0053
3012.00,0.0053
3011.00,0.0054
3010.00,0.0055
3009.00,0.0056
3008.00,0.0057
3007.00,0.0059
3006.00,0.0059
3005.00,0.0061
3004.00,0.0062
3003.00,0.0063
3002.00,0.0065
3001.00,0.0066
3000.00,0.0068
2999.00,0.0070
2998.00,0.0072
2997.00,0.0075
2996.00,0.0078
2995.00,0.0082
2994.00,0.0085
2993.00,0.0090
2992.00,0.0094
2991.00,0.0099
2990.00,0.0104
2989.00,0.0110
2988.00,0.0117
2987.00,0.0124
2986.00,0.0132
2985.00,0.0141
2984.00,0.0151
2983.00,0.0162
2982.00,0.0175
2981.00,0.0190
2980.00,0.0209
2979.00,0.0230
2978.00,0.0253
2977.00,0.0280
2976.00,0.0310
2975.00,0.0343
2974.00,0.0382
2973.00,0.0426
2972.00,0.0476
2971.00,0.0532
2970.00,0.0595
2969.00,0.0664
2968.00,0.0739
2967.00,0.0818
2966.00,0.0902
2965.00,0.0987
2964.00,0.1070
2963.00,0.1149
2962.00,0.1219
2961.00,0.1279
2960.00,0.1328
2959.00,0.1370
2958.00,0.1409
2957.00,0.1448
2956.00,0.1493
2955.00,0.1546
2954.00,0.1605
2953.00,0.1666
2952.00,0.1720
2951.00,0.1758
2950.00,0.1769
2949.00,0.1748
2948.00,0.1691
2947.00,0.1605
2946.00,0.1499
2945.00,0.1387
2944.00,0.1280
2943.00,0.1188
2942.00,0.1118
2941.00,0.1071
2940.00,0.1046
2939.00,0.1043
2938.00,0.1058
2937.00,0.1091
2936.00,0.1138
2935.00,0.1199
2934.00,0.1274
2933.00,0.1360
2932.00,0.1458
2931.00,0.1564
2930.00,0.1677
2929.00,0.1794
2928.00,0.1912
2927.00,0.2028
2926.00,0.2143
2925.00,0.2255
2924.00,0.2366
2923.00,0.2475
2922.00,0.2583
2921.00,0.2685
2920.00,0.2776
2919.00,0.2846
2918.00,0.2883
2917.00,0.2880
2916.00,0.2831
2915.00,0.2744
2914.00,0.2629
2913.00,0.2502
2912.00,0.2375
2911.00,0.2258
2910.00,0.2154
2909.00,0.2062
2908.00,0.1980
2907.00,0.1904
2906.00,0.1832
2905.00,0.1761
2904.00,0.1691
2903.00,0.1623
2902.00,0.1555
2901.00,0.1490
2900.00,0.1426
2899.00,0.1366
2898.00,0.1309
2897.00,0.1258
2896.00,0.1211
2895.00,0.1170
2894.00,0.1135
2893.00,0.1106
2892.00,0.1082
2891.00,0.1064
2890.00,0.1050
2889.00,0.1042
2888.00,0.1036
2887.00,0.1035
2886.00,0.1036
2885.00,0.1041
2884.00,0.1050
2883.00,0.1065
2882.00,0.1084
2881.00,0.1108
2880.00,0.1133
2879.00,0.1154
2878.00,0.1170
2877.00,0.1177
2876.00,0.1176
2875.00,0.1171
2874.00,0.1166
2873.00,0.1164
2872.00,0.1169
2871.00,0.1181
2870.00,0.1197
2869.00,0.1213
2868.00,0.1222
2867.00,0.1219
2866.00,0.1198
2865.00,0.1157
2864.00,0.1100
2863.00,0.1034
2862.00,0.0969
2861.00,0.0913
2860.00,0.0871
2859.00,0.0843
2858.00,0.0831
2857.00,0.0831
2856.00,0.0843
2855.00,0.0865
2854.00,0.0893
2853.00,0.0925
2852.00,0.0957
2851.00,0.0983
2850.00,0.0999
2849.00,0.1002
2848.00,0.0995
2847.00,0.0985
2846.00,0.0982
2845.00,0.0989
2844.00,0.1011
2843.00,0.1045
2842.00,0.1087
2841.00,0.1129
2840.00,0.1165
2839.00,0.1185
2838.00,0.1182
2837.00,0.1151
2836.00,0.1091
2835.00,0.1008
2834.00,0.0909
2833.00,0.0806
2832.00,0.0707
2831.00,0.0618
2830.00,0.0543
2829.00,0.0481
2828.00,0.0430
2827.00,0.0390
2826.00,0.0357
2825.00,0.0330
2824.00,0.0307
2823.00,0.0287
2822.00,0.0270
2821.00,0.0256
2820.00,0.0243
2819.00,0.0232
2818.00,0.0223
2817.00,0.0214
2816.00,0.0207
2815.00,0.0200
2814.00,0.0194
2813.00,0.0188
2812.00,0.0182
2811.00,0.0177
2810.00,0.0171
2809.00,0.0166
2808.00,0.0160
2807.00,0.0154
2806.00,0.0147
2805.00,0.0141
2804.00,0.0135
2803.00,0.0130
2802.00,0.0125
2801.00,0.0120
2800.00,0.0116
2799.00,0.0113
2798.00,0.0110
2797.00,0.0108
2796.00,0.0105
2795.00,0.0103
2794.00,0.0100
2793.00,0.0098
2792.00,0.0095
2791.00,0.0092
2790.00,0.0089
2789.00,0.0086
2788.00,0.0083
2787.00,0.0080
2786.00,0.0078
2785.00,0.0075
2784.00,0.0073
2783.00,0.0071
2782.00,0.0069
2781.00,0.0067
2780.00,0.0066
2779.00,0.0064
2778.00,0.0063
2777.00,0.0061
2776.00,0.0060
2775.00,0.0059
2774.00,0.0058
2773.00,0.0057
2772.00,0.0057
2771.00,0.0056
2770.00,0.0056
2769.00,0.0056
2768.00,0.0056
2767.00,0.0055
2766.00,0.0055
2765.00,0.0055
2764.00,0.0054
2763.00,0.0054
2762.00,0.0054
2761.00,0.0053
2760.00,0.0053
2759.00,0.0052
2758.00,0.0052
2757.00,0.0052
2756.00,0.0052
2755.00,0.0051
2754.00,0.0051
2753.00,0.0051
2752.00,0.0051
2751.00,0.0051
2750.00,0.0051
2749.00,0.0051
2748.00,0.0051
2747.00,0.0051
2746.00,0.0052
2745.00,0.0052
2744.00,0.0053
2743.00,0.0054
2742.00,0.0055
2741.00,0.0056
2740.00,0.0057
2739.00,0.0058
2738.00,0.0059
2737.00,0.0060
2736.00,0.0062
2735.00,0.0063
2734.00,0.0065
2733.00,0.0066
2732.00,0.0068
2731.00,0.0069
2730.00,0.0071
2729.00,0.0073
2728.00,0.0076
2727.00,0.0079
2726.00,0.0081
2725.00,0.0084
2724.00,0.0085
2723.00,0.0085
2722.00,0.0084
2721.00,0.0082
2720.00,0.0079
2719.00,0.0077
2718.00,0.0074
2717.00,0.0071
2716.00,0.0068
2715.00,0.0066
2714.00,0.0063
2713.00,0.0061
2712.00,0.0059
2711.00,0.0057
2710.00,0.0056
2709.00,0.0054
2708.00,0.0053
2707.00,0.0052
2706.00,0.0051
2705.00,0.0050
2704.00,0.0049
2703.00,0.0048
2702.00,0.0047
2701.00,0.0046
2700.00,0.0045
2699.00,0.0044
2698.00,0.0044
2697.00,0.0044
2696.00,0.0044
2695.00,0.0045
2694.00,0.0045
2693.00,0.0045
2692.00,0.0045
2691.00,0.0045
2690.00,0.0045
2689.00,0.0045
2688.00,0.0045
2687.00,0.0045
2686.00,0.0044
2685.00,0.0044
2684.00,0.0044
2683.00,0.0044
2682.00,0.0044
2681.00,0.0044
2680.00,0.0044
2679.00,0.0045
2678.00,0.0045
2677.00,0.0045
2676.00,0.0045
2675.00,0.0044
2674.00,0.0044
2673.00,0.0044
2672.00,0.0045
2671.00,0.0045
2670.00,0.0045
2669.00,0.0045
2668.00,0.0045
2667.00,0.0045
2666.00,0.0045
2665.00,0.0045
2664.00,0.0046
2663.00,0.0047
2662.00,0.0047
2661.00,0.0047
2660.00,0.0047
2659.00,0.0047
2658.00,0.0047
2657.00,0.0047
2656.00,0.0047
2655.00,0.0047
2654.00,0.0046
2653.00,0.0046
2652.00,0.0045
2651.00,0.0045
2650.00,0.0044
2649.00,0.0044
2648.00,0.0043
2647.00,0.0043
2646.00,0.0043
2645.00,0.0042
2644.00,0.0042
2643.00,0.0042
2642.00,0.0041
2641.00,0.0041
2640.00,0.0040
2639.00,0.0040
2638.00,0.0039
2637.00,0.0039
2636.00,0.0039
2635.00,0.0039
2634.00,0.0039
2633.00,0.0039
2632.00,0.0040
2631.00,0.0040
2630.00,0.0040
2629.00,0.0040
2628.00,0.0040
2627.00,0.0040
2626.00,0.0040
2625.00,0.0040
2624.00,0.0040
2623.00,0.0040
2622.00,0.0040
2621.00,0.0040
2620.00,0.0041
2619.00,0.0041
2618.00,0.0041
2617.00,0.0041
2616.00,0.0040
2615.00,0.0040
2614.00,0.0039
2613.00,0.0039
2612.00,0.0039
2611.00,0.0038
2610.00,0.0038
2609.00,0.0037
2608.00,0.0036
2607.00,0.0035
2606.00,0.0035
2605.00,0.0034
2604.00,0.0034
2603.00,0.0033
2602.00,0.0033
2601.00,0.0032
2600.00,0.0032
2599.00,0.0031
2598.00,0.0031
2597.00,0.0031
2596.00,0.0031
2595.00,0.0031
2594.00,0.0031
2593.00,0.0032
2592.00,0.0032
2591.00,0.0033
2590.00,0.0034
2589.00,0.0035
2588.00,0.0036
2587.00,0.0036
2586.00,0.0037
2585.00,0.0038
2584.00,0.0038
2583.00,0.0039
2582.00,0.0039
2581.00,0.0039
2580.00,0.0038
2579.00,0.0037
2578.00,0.0036
2577.00,0.0035
2576.00,0.0033
2575.00,0.0032
2574.00,0.0031
2573.00,0.0031
2572.00,0.0030
2571.00,0.0029
2570.00,0.0028
2569.00,0.0028
2568.00,0.0027
2567.00,0.0026
2566.00,0.0025
2565.00,0.0024
2564.00,0.0024
2563.00,0.0023
2562.00,0.0024
2561.00,0.0024
2560.00,0.0024
2559.00,0.0023
2558.00,0.0023
2557.00,0.0022
2556.00,0.0022
2555.00,0.0022
2554.00,0.0022
2553.00,0.0022
2552.00,0.0022
2551.00,0.0022
2550.00,0.0022
2549.00,0.0021
2548.00,0.0020
2547.00,0.0019
2546.00,0.0019
2545.00,0.0019
2544.00,0.0018
2543.00,0.0018
2542.00,0.0017
2541.00,0.0017
2540.00,0.0017
2539.00,0.0016
2538.00,0.0016
2537.00,0.0016
2536.00,0.0016
2535.00,0.0016
2534.00,0.0016
2533.00,0.0016
2532.00,0.0016
2531.00,0.0016
2530.00,0.0016
2529.00,0.0016
2528.00,0.0015
2527.00,0.0015
2526.00,0.0015
2525.00,0.0015
2524.00,0.0015
2523.00,0.0014
2522.00,0.0014
2521.00,0.0014
2520.00,0.0013
2519.00,0.0013
2518.00,0.0013
2517.00,0.0013
2516.00,0.0012
2515.00,0.0012
2514.00,0.0011
2513.00,0.0011
2512.00,0.0011
2511.00,0.0010
2510.00,0.0010
2509.00,0.0010
2508.00,0.0010
2507.00,0.0010
2506.00,0.0011
2505.00,0.0011
2504.00,0.0011
2503.00,0.0011
2502.00,0.0011
2501.00,0.0011
2500.00,0.0011
2499.00,0.0011
2498.00,0.0012
2497.00,0.0012
2496.00,0.0012
2495.00,0.0012
2494.00,0.0013
2493.00,0.0013
2492.00,0.0013
2491.00,0.0013
2490.00,0.0013
2489.00,0.0012
2488.00,0.0011
2487.00,0.0011
2486.00,0.0010
2485.00,0.0010
2484.00,0.0010
2483.00,0.0010
2482.00,0.0011
2481.00,0.0011
2480.00,0.0012
2479.00,0.0011
2478.00,0.0010
2477.00,0.0010
2476.00,0.0010
2475.00,0.0010
2474.00,0.0010
2473.00,0.0010
2472.00,0.0009
2471.00,0.0009
2470.00,0.0009
2469.00,0.0009
2468.00,0.0009
2467.00,0.0010
2466.00,0.0010
2465.00,0.0010
2464.00,0.0009
2463.00,0.0009
2462.00,0.0009
2461.00,0.0009
2460.00,0.0009
2459.00,0.0010
2458.00,0.0011
2457.00,0.0011
2456.00,0.0011
2455.00,0.0010
2454.00,0.0010
2453.00,0.0010
2452.00,0.0011
2451.00,0.0011
2450.00,0.0011
2449.00,0.0011
2448.00,0.0012
2447.00,0.0012
2446.00,0.0011
2445.00,0.0011
2444.00,0.0011
2443.00,0.0011
2442.00,0.0011
2441.00,0.0011
2440.00,0.0011
2439.00,0.0010
2438.00,0.0010
2437.00,0.0010
2436.00,0.0010
2435.00,0.0010
2434.00,0.0010
2433.00,0.0010
2432.00,0.0011
2431.00,0.0011
2430.00,0.0012
2429.00,0.0013
2428.00,0.0013
2427.00,0.0013
2426.00,0.0012
2425.00,0.0012
2424.00,0.0011
2423.00,0.0011
2422.00,0.0011
2421.00,0.0012
2420.00,0.0012
2419.00,0.0011
2418.00,0.0011
2417.00,0.0011
2416.00,0.0011
2415.00,0.0011
2414.00,0.0011
2413.00,0.0011
2412.00,0.0011
2411.00,0.0011
2410.00,0.0011
2409.00,0.0012
2408.00,0.0011
2407.00,0.0011
2406.00,0.0010
2405.00,0.0010
2404.00,0.0010
2403.00,0.0009
2402.00,0.0009
2401.00,0.0008
2400.00,0.0007
2399.00,0.0008
2398.00,0.0008
2397.00,0.0008
2396.00,0.0008
2395.00,0.0008
2394.00,0.0008
2393.00,0.0008
2392.00,0.0009
2391.00,0.0009
2390.00,0.0009
2389.00,0.0008
2388.00,0.0008
2387.00,0.0007
2386.00,0.0006
2385.00,0.0006
2384.00,0.0006
2383.00,0.0005
2382.00,0.0004
2381.00,0.0004
2380.00,0.0003
2379.00,0.0003
2378.00,0.0003
2377.00,0.0004
2376.00,0.0004
2375.00,0.0005
2374.00,0.0005
2373.00,0.0003
2372.00,0.0002
2371.00,0.0000
2370.00,-0.0001
2369.00,-0.0001
2368.00,-0.0001
2367.00,-0.0000
2366.00,-0.0000
2365.00,-0.0000
2364.00,-0.0000
2363.00,0.0000
2362.00,0.0001
2361.00,0.0002
2360.00,0.0002
2359.00,0.0002
2358.00,0.0002
2357.00,0.0002
2356.00,0.0002
2355.00,0.0002
2354.00,0.0002
2353.00,0.0002
2352.00,0.0002
2351.00,0.0002
2350.00,0.0002
2349.00,0.0002
2348.00,0.0002
2347.00,0.0003
2346.00,0.0002
2345.00,0.0002
2344.00,0.0001
2343.00,0.0002
2342.00,0.0003
2341.00,0.0004
2340.00,0.0005
2339.00,0.0005
2338.00,0.0006
2337.00,0.0006
2336.00,0.0006
2335.00,0.0006
2334.00,0.0006
2333.00,0.0005
2332.00,0.0005
2331.00,0.0004
2330.00,0.0004
2329.00,0.0005
2328.00,0.0007
2327.00,0.0010
2326.00,0.0015
2325.00,0.0019
2324.00,0.0020
2323.00,0.0019
2322.00,0.0017
2321.00,0.0015
2320.00,0.0013
2319.00,0.0012
2318.00,0.0012
2317.00,0.0011
2316.00,0.0010
2315.00,0.0009
2314.00,0.0009
2313.00,0.0009
2312.00,0.0008
2311.00,0.0008
2310.00,0.0007
2309.00,0.0006
2308.00,0.0006
2307.00,0.0006
2306.00,0.0006
2305.00,0.0007
2304.00,0.0008
2303.00,0.0009
2302.00,0.0009
2301.00,0.0009
2300.00,0.0010
2299.00,0.0011
2298.00,0.0011
2297.00,0.0012
2296.00,0.0013
2295.00,0.0013
2294.00,0.0013
2293.00,0.0014
2292.00,0.0014
2291.00,0.0015
2290.00,0.0016
2289.00,0.0016
2288.00,0.0016
2287.00,0.0017
2286.00,0.0017
2285.00,0.0017
2284.00,0.0017
2283.00,0.0016
2282.00,0.0015
2281.00,0.0014
2280.00,0.0014
2279.00,0.0013
2278.00,0.0013
2277.00,0.0012
2276.00,0.0011
2275.00,0.0011
2274.00,0.0011
2273.00,0.0013
2272.00,0.0015
2271.00,0.0016
2270.00,0.0016
2269.00,0.0016
2268.00,0.0015
2267.00,0.0014
2266.00,0.0013
2265.00,0.0011
2264.00,0.0010
2263.00,0.0008
2262.00,0.0008
2261.00,0.0009
2260.00,0.0010
2259.00,0.0011
2258.00,0.0012
2257.00,0.0013
2256.00,0.0012
2255.00,0.0011
2254.00,0.0009
2253.00,0.0008
2252.00,0.0009
2251.00,0.0010
2250.00,0.0011
2249.00,0.0010
2248.00,0.0009
2247.00,0.0008
2246.00,0.0007
2245.00,0.0007
2244.00,0.0007
2243.00,0.0008
2242.00,0.0009
2241.00,0.0010
2240.00,0.0011
2239.00,0.0011
2238.00,0.0010
2237.00,0.0010
2236.00,0.0010
2235.00,0.0010
2234.00,0.0010
2233.00,0.0011
2232.00,0.0011
2231.00,0.0011
2230.00,0.0011
2229.00,0.0010
2228.00,0.0010
2227.00,0.0010
2226.00,0.0010
2225.00,0.0009
2224.00,0.0008
2223.00,0.0006
2222.00,0.0005
2221.00,0.0006
2220.00,0.0007
2219.00,0.0008
2218.00,0.0009
2217.00,0.0008
2216.00,0.0007
2215.00,0.0007
2214.00,0.0008
2213.00,0.0009
2212.00,0.0009
2211.00,0.0008
2210.00,0.0007
2209.00,0.0008
2208.00,0.0008
2207.00,0.0009
2206.00,0.0008
2205.00,0.0007
2204.00,0.0006
2203.00,0.0007
2202.00,0.0007
2201.00,0.0007
2200.00,0.0006
2199.00,0.0005
2198.00,0.0004
2197.00,0.0005
2196.00,0.0006
2195.00,0.0007
2194.00,0.0009
2193.00,0.0009
2192.00,0.0009
2191.00,0.0009
2190.00,0.0009
2189.00,0.0008
2188.00,0.0007
2187.00,0.0007
2186.00,0.0007
2185.00,0.0006
2184.00,0.0004
2183.00,0.0003
2182.00,0.0002
2181.00,0.0002
2180.00,0.0003
2179.00,0.0004
2178.00,0.0005
2177.00,0.0006
2176.00,0.0004
2175.00,0.0001
2174.00,-0.0002
2173.00,-0.0001
2172.00,0.0001
2171.00,0.0006
2170.00,0.0010
2169.00,0.0014
2168.00,0.0017
2167.00,0.0018
2166.00,0.0020
2165.00,0.0022
2164.00,0.0023
2163.00,0.0024
2162.00,0.0021
2161.00,0.0013
2160.00,0.0000
2159.00,-0.0013
2158.00,-0.0022
2157.00,-0.0026
2156.00,-0.0025
2155.00,-0.0022
2154.00,-0.0019
2153.00,-0.0015
2152.00,-0.0010
2151.00,-0.0007
2150.00,-0.0007
2149.00,-0.0008
2148.00,-0.0010
2147.00,-0.0012
2146.00,-0.0013
2145.00,-0.0013
2144.00,-0.0013
2143.00,-0.0013
2142.00,-0.0011
2141.00,-0.0010
2140.00,-0.0008
2139.00,-0.0009
2138.00,-0.0010
2137.00,-0.0011
2136.00,-0.0013
2135.00,-0.0014
2134.00,-0.0013
2133.00,-0.0012
2132.00,-0.0011
2131.00,-0.0009
2130.00,-0.0008
2129.00,-0.0007
2128.00,-0.0007
2127.00,-0.0007
2126.00,-0.0006
2125.00,-0.0006
2124.00,-0.0005
2123.00,-0.0004
2122.00,-0.0004
2121.00,-0.0003
2120.00,-0.0001
2119.00,0.0001
2118.00,0.0002
2117.00,0.0003
2116.00,0.0004
2115.00,0.0004
2114.00,0.0003
2113.00,0.0003
2112.00,0.0003
2111.00,0.0003
2110.00,0.0002
2109.00,0.0002
2108.00,0.0003
2107.00,0.0002
2106.00,0.0002
2105.00,0.0002
2104.00,0.0001
2103.00,0.0002
2102.00,0.0002
2101.00,0.0003
2100.00,0.0003
2099.00,0.0001
2098.00,-0.0000
2097.00,-0.0001
2096.00,-0.0002
2095.00,-0.0002
2094.00,-0.0002
2093.00,-0.0001
2092.00,0.0000
2091.00,0.0001
2090.00,0.0002
2089.00,0.0003
2088.00,0.0002
2087.00,0.0002
2086.00,0.0002
2085.00,0.0002
2084.00,0.0002
2083.00,0.0002
2082.00,0.0001
2081.00,0.0001
2080.00,0.0001
2079.00,0.0002
2078.00,0.0002
2077.00,0.0003
2076.00,0.0004
2075.00,0.0005
2074.00,0.0004
2073.00,0.0003
2072.00,0.0002
2071.00,0.0001
2070.00,0.0000
2069.00,-0.0001
2068.00,-0.0001
2067.00,-0.0001
2066.00,-0.0000
2065.00,0.0001
2064.00,0.0001
2063.00,0.0001
2062.00,0.0000
2061.00,0.0000
2060.00,0.0001
2059.00,0.0001
2058.00,0.0002
2057.00,0.0003
2056.00,0.0004
2055.00,0.0004
2054.00,0.0005
2053.00,0.0009
2052.00,0.0013
2051.00,0.0016
2050.00,0.0014
2049.00,0.0009
2048.00,0.0004
2047.00,-0.0000
2046.00,-0.0003
2045.00,-0.0004
2044.00,-0.0005
2043.00,-0.0006
2042.00,-0.0007
2041.00,-0.0006
2040.00,-0.0004
2039.00,-0.0002
2038.00,-0.0001
2037.00,-0.0002
2036.00,-0.0003
2035.00,-0.0004
2034.00,-0.0006
2033.00,-0.0008
2032.00,-0.0009
2031.00,-0.0009
2030.00,-0.0009
2029.00,-0.0009
2028.00,-0.0010
2027.00,-0.0010
2026.00,-0.0009
2025.00,-0.0007
2024.00,-0.0005
2023.00,-0.0005
2022.00,-0.0005
2021.00,-0.0007
2020.00,-0.0008
2019.00,-0.0009
2018.00,-0.0009
2017.00,-0.0009
2016.00,-0.0008
2015.00,-0.0006
2014.00,-0.0004
2013.00,-0.0002
2012.00,0.0000
2011.00,0.0000
2010.00,-0.0002
2009.00,-0.0006
2008.00,-0.0011
2007.00,-0.0015
2006.00,-0.0018
2005.00,-0.0018
2004.00,-0.0016
2003.00,-0.0014
2002.00,-0.0011
2001.00,-0.0010
2000.00,-0.0009
1999.00,-0.0008
1998.00,-0.0008
1997.00,-0.0009
1996.00,-0.0009
1995.00,-0.0010
1994.00,-0.0011
1993.00,-0.0010
1992.00,-0.0007
1991.00,-0.0004
1990.00,0.0000
1989.00,0.0003
1988.00,0.0004
1987.00,0.0003
1986.00,0.0003
1985.00,0.0003
1984.00,0.0005
1983.00,0.0006
1982.00,0.0008
1981.00,0.0009
1980.00,0.0010
1979.00,0.0006
1978.00,0.0000
1977.00,-0.0006
1976.00,-0.0010
1975.00,-0.0012
1974.00,-0.0013
1973.00,-0.0013
1972.00,-0.0010
1971.00,-0.0008
1970.00,-0.0007
1969.00,-0.0007
1968.00,-0.0006
1967.00,-0.0005
1966.00,-0.0006
1965.00,-0.0006
1964.00,-0.0007
1963.00,-0.0009
1962.00,-0.0010
1961.00,-0.0012
1960.00,-0.0014
1959.00,-0.0016
1958.00,-0.0017
1957.00,-0.0016
1956.00,-0.0015
1955.00,-0.0014
1954.00,-0.0012
1953.00,-0.0012
1952.00,-0.0012
1951.00,-0.0013
1950.00,-0.0014
1949.00,-0.0015
1948.00,-0.0014
1947.00,-0.0012
1946.00,-0.0011
1945.00,-0.0010
1944.00,-0.0010
1943.00,-0.0012
1942.00,-0.0014
1941.00,-0.0015
1940.00,-0.0015
1939.00,-0.0015
1938.00,-0.0015
1937.00,-0.0013
1936.00,-0.0011
1935.00,-0.0009
1934.00,-0.0008
1933.00,-0.0007
1932.00,-0.0006
1931.00,-0.0006
1930.00,-0.0006
1929.00,-0.0006
1928.00,-0.0006
1927.00,-0.0007
1926.00,-0.0006
1925.00,-0.0005
1924.00,-0.0004
1923.00,-0.0003
1922.00,-0.0002
1921.00,-0.0002
1920.00,-0.0003
1919.00,-0.0003
1918.00,-0.0003
1917.00,-0.0002
1916.00,-0.0001
1915.00,-0.0001
1914.00,-0.0002
1913.00,-0.0003
1912.00,-0.0004
1911.00,-0.0004
1910.00,-0.0003
1909.00,-0.0001
1908.00,-0.0001
1907.00,-0.0001
1906.00,-0.0001
1905.00,-0.0001
1904.00,-0.0000
1903.00,-0.0000
1902.00,-0.0001
1901.00,-0.0002
1900.00,-0.0002
1899.00,-0.0002
1898.00,-0.0001
1897.00,0.0000
1896.00,0.0001
1895.00,-0.0000
1894.00,-0.0001
1893.00,-0.0001
1892.00,-0.0000
1891.00,0.0001
1890.00,0.0002
1889.00,0.0003
1888.00,0.0003
1887.00,0.0003
1886.00,0.0002
1885.00,0.0000
1884.00,-0.0001
1883.00,-0.0002
1882.00,-0.0003
1881.00,-0.0002
1880.00,-0.0001
1879.00,-0.0000
1878.00,-0.0000
1877.00,0.0000
1876.00,0.0001
1875.00,0.0001
1874.00,0.0001
1873.00,0.0001
1872.00,0.0001
1871.00,0.0000
1870.00,0.0000
1869.00,0.0001
1868.00,0.0002
1867.00,0.0002
1866.00,0.0003
1865.00,0.0003
1864.00,0.0002
1863.00,0.0001
1862.00,0.0000
1861.00,-0.0000
1860.00,0.0000
1859.00,0.0001
1858.00,0.0002
1857.00,0.0002
1856.00,0.0002
1855.00,0.0002
1854.00,0.0002
1853.00,0.0003
1852.00,0.0004
1851.00,0.0004
1850.00,0.0004
1849.00,0.0003
1848.00,0.0003
1847.00,0.0002
1846.00,0.0002
1845.00,0.0003
1844.00,0.0003
1843.00,0.0003
1842.00,0.0002
1841.00,0.0002
1840.00,0.0002
1839.00,0.0002
1838.00,0.0003
1837.00,0.0003
1836.00,0.0004
1835.00,0.0004
1834.00,0.0005
1833.00,0.0005
1832.00,0.0005
1831.00,0.0005
1830.00,0.0005
1829.00,0.0005
1828.00,0.0004
1827.00,0.0003
1826.00,0.0002
1825.00,0.0002
1824.00,0.0003
1823.00,0.0003
1822.00,0.0003
1821.00,0.0002
1820.00,0.0002
1819.00,0.0001
1818.00,0.0001
1817.00,0.0001
1816.00,0.0002
1815.00,0.0003
1814.00,0.0003
1813.00,0.0003
1812.00,0.0003
1811.00,0.0003
1810.00,0.0003
1809.00,0.0003
1808.00,0.0004
1807.00,0.0004
1806.00,0.0005
1805.00,0.0006
1804.00,0.0007
1803.00,0.0007
1802.00,0.0007
1801.00,0.0007
1800.00,0.0006
1799.00,0.0006
1798.00,0.0006
1797.00,0.0006
1796.00,0.0006
1795.00,0.0006
1794.00,0.0006
1793.00,0.0006
1792.00,0.0007
1791.00,0.0008
1790.00,0.0008
1789.00,0.0008
1788.00,0.0009
1787.00,0.0009
1786.00,0.0009
1785.00,0.0009
1784.00,0.0008
1783.00,0.0008
1782.00,0.0008
1781.00,0.0009
1780.00,0.0009
1779.00,0.0009
1778.00,0.0009
1777.00,0.0009
1776.00,0.0009
1775.00,0.0009
1774.00,0.0009
1773.00,0.0009
1772.00,0.0010
1771.00,0.0011
1770.00,0.0011
1769.00,0.0012
1768.00,0.0012
1767.00,0.0012
1766.00,0.0012
1765.00,0.0012
1764.00,0.0012
1763.00,0.0012
1762.00,0.0012
1761.00,0.0013
1760.00,0.0013
1759.00,0.0013
1758.00,0.0013
1757.00,0.0014
1756.00,0.0014
1755.00,0.0015
1754.00,0.0015
1753.00,0.0015
1752.00,0.0016
1751.00,0.0017
1750.00,0.0018
1749.00,0.0019
1748.00,0.0019
1747.00,0.0019
1746.00,0.0019
1745.00,0.0020
1744.00,0.0021
1743.00,0.0022
1742.00,0.0023
1741.00,0.0023
1740.00,0.0024
1739.00,0.0024
1738.00,0.0024
1737.00,0.0025
1736.00,0.0026
1735.00,0.0026
1734.00,0.0025
1733.00,0.0025
1732.00,0.0025
1731.00,0.0024
1730.00,0.0024
1729.00,0.0024
1728.00,0.0025
1727.00,0.0025
1726.00,0.0025
1725.00,0.0026
1724.00,0.0026
1723.00,0.0026
1722.00,0.0026
1721.00,0.0026
1720.00,0.0026
1719.00,0.0025
1718.00,0.0024
1717.00,0.0024
1716.00,0.0024
1715.00,0.0024
1714.00,0.0024
1713.00,0.0024
1712.00,0.0024
1711.00,0.0024
1710.00,0.0023
1709.00,0.0023
1708.00,0.0023
1707.00,0.0024
1706.00,0.0024
1705.00,0.0025
1704.00,0.0025
1703.00,0.0026
1702.00,0.0026
1701.00,0.0026
1700.00,0.0027
1699.00,0.0028
1698.00,0.0028
1697.00,0.0028
1696.00,0.0028
1695.00,0.0028
1694.00,0.0029
1693.00,0.0030
1692.00,0.0030
1691.00,0.0030
1690.00,0.0031
1689.00,0.0032
1688.00,0.0033
1687.00,0.0034
1686.00,0.0034
1685.00,0.0034
1684.00,0.0035
1683.00,0.0036
1682.00,0.0037
1681.00,0.0038
1680.00,0.0039
1679.00,0.0039
1678.00,0.0040
1677.00,0.0041
1676.00,0.0042
1675.00,0.0042
1674.00,0.0043
1673.00,0.0043
1672.00,0.0044
1671.00,0.0044
1670.00,0.0044
1669.00,0.0045
1668.00,0.0045
1667.00,0.0045
1666.00,0.0046
1665.00,0.0046
1664.00,0.0047
1663.00,0.0048
1662.00,0.0049
1661.00,0.0049
1660.00,0.0050
1659.00,0.0050
1658.00,0.0051
1657.00,0.0053
1656.00,0.0055
1655.00,0.0057
1654.00,0.0060
1653.00,0.0066
1652.00,0.0071
1651.00,0.0074
1650.00,0.0078
1649.00,0.0083
1648.00,0.0089
1647.00,0.0095
1646.00,0.0098
1645.00,0.0097
1644.00,0.0094
1643.00,0.0091
1642.00,0.0087
1641.00,0.0083
1640.00,0.0081
1639.00,0.0080
1638.00,0.0080
1637.00,0.0079
1636.00,0.0079
1635.00,0.0079
1634.00,0.0080
1633.00,0.0080
1632.00,0.0080
1631.00,0.0080
1630.00,0.0080
1629.00,0.0080
1628.00,0.0079
1627.00,0.0078
1626.00,0.0077
1625.00,0.0076
1624.00,0.0075
1623.00,0.0072
1622.00,0.0070
1621.00,0.0069
1620.00,0.0068
1619.00,0.0067
1618.00,0.0065
1617.00,0.0064
1616.00,0.0064
1615.00,0.0064
1614.00,0.0063
1613.00,0.0063
1612.00,0.0062
1611.00,0.0061
1610.00,0.0060
1609.00,0.0060
1608.00,0.0060
1607.00,0.0060
1606.00,0.0060
1605.00,0.0061
1604.00,0.0061
1603.00,0.0061
1602.00,0.0061
1601.00,0.0062
1600.00,0.0063
1599.00,0.0063
1598.00,0.0063
1597.00,0.0064
1596.00,0.0065
1595.00,0.0066
1594.00,0.0067
1593.00,0.0068
1592.00,0.0070
1591.00,0.0072
1590.00,0.0074
1589.00,0.0078
1588.00,0.0082
1587.00,0.0087
1586.00,0.0092
1585.00,0.0099
1584.00,0.0107
1583.00,0.0116
1582.00,0.0126
1581.00,0.0136
1580.00,0.0145
1579.00,0.0153
1578.00,0.0158
1577.00,0.0161
1576.00,0.0159
1575.00,0.0155
1574.00,0.0149
1573.00,0.0143
1572.00,0.0137
1571.00,0.0129
1570.00,0.0120
1569.00,0.0112
1568.00,0.0106
1567.00,0.0102
1566.00,0.0098
1565.00,0.0095
1564.00,0.0092
1563.00,0.0091
1562.00,0.0089
1561.00,0.0088
1560.00,0.0087
1559.00,0.0087
1558.00,0.0087
1557.00,0.0088
1556.00,0.0088
1555.00,0.0089
1554.00,0.0090
1553.00,0.0092
1552.00,0.0095
1551.00,0.0100
1550.00,0.0105
1549.00,0.0111
1548.00,0.0117
1547.00,0.0124
1546.00,0.0133
1545.00,0.0144
1544.00,0.0156
1543.00,0.0167
1542.00,0.0175
1541.00,0.0179
1540.00,0.0176
1539.00,0.0167
1538.00,0.0157
1537.00,0.0148
1536.00,0.0140
1535.00,0.0129
1534.00,0.0116
1533.00,0.0104
1532.00,0.0096
1531.00,0.0091
1530.00,0.0086
1529.00,0.0082
1528.00,0.0079
1527.00,0.0077
1526.00,0.0075
1525.00,0.0075
1524.00,0.0075
1523.00,0.0075
1522.00,0.0074
1521.00,0.0074
1520.00,0.0074
1519.00,0.0074
1518.00,0.0073
1517.00,0.0073
1516.00,0.0073
1515.00,0.0073
1514.00,0.0072
1513.00,0.0072
1512.00,0.0073
1511.00,0.0074
1510.00,0.0074
1509.00,0.0075
1508.00,0.0077
1507.00,0.0078
1506.00,0.0078
1505.00,0.0078
1504.00,0.0079
1503.00,0.0080
1502.00,0.0082
1501.00,0.0086
1500.00,0.0089
1499.00,0.0092
1498.00,0.0095
1497.00,0.0099
1496.00,0.0104
1495.00,0.0108
1494.00,0.0111
1493.00,0.0115
1492.00,0.0120
1491.00,0.0124
1490.00,0.0131
1489.00,0.0139
1488.00,0.0148
1487.00,0.0155
1486.00,0.0163
1485.00,0.0173
1484.00,0.0184
1483.00,0.0197
1482.00,0.0211
1481.00,0.0229
1480.00,0.0247
1479.00,0.0265
1478.00,0.0284
1477.00,0.0307
1476.00,0.0334
1475.00,0.0365
1474.00,0.0405
1473.00,0.0460
1472.00,0.0525
1471.00,0.0588
1470.00,0.0647
1469.00,0.0710
1468.00,0.0776
1467.00,0.0848
1466.00,0.0930
1465.00,0.1017
1464.00,0.1093
1463.00,0.1143
1462.00,0.1173
1461.00,0.1192
1460.00,0.1203
1459.00,0.1209
1458.00,0.1212
1457.00,0.1213
1456.00,0.1208
1455.00,0.1197
1454.00,0.1182
1453.00,0.1162
1452.00,0.1133
1451.00,0.1093
1450.00,0.1041
1449.00,0.0971
1448.00,0.0883
1447.00,0.0790
1446.00,0.0707
1445.00,0.0636
1444.00,0.0577
1443.00,0.0529
1442.00,0.0494
1441.00,0.0470
1440.00,0.0456
1439.00,0.0452
1438.00,0.0457
1437.00,0.0462
1436.00,0.0457
1435.00,0.0436
1434.00,0.0402
1433.00,0.0360
1432.00,0.0316
1431.00,0.0276
1430.00,0.0245
1429.00,0.0223
1428.00,0.0208
1427.00,0.0199
1426.00,0.0195
1425.00,0.0191
1424.00,0.0188
1423.00,0.0186
1422.00,0.0186
1421.00,0.0184
1420.00,0.0180
1419.00,0.0176
1418.00,0.0171
1417.00,0.0165
1416.00,0.0159
1415.00,0.0155
1414.00,0.0151
1413.00,0.0147
1412.00,0.0142
1411.00,0.0139
1410.00,0.0137
1409.00,0.0135
1408.00,0.0132
1407.00,0.0131
1406.00,0.0130
1405.00,0.0129
1404.00,0.0127
1403.00,0.0126
1402.00,0.0127
1401.00,0.0126
1400.00,0.0126
1399.00,0.0127
1398.00,0.0129
1397.00,0.0130
1396.00,0.0131
1395.00,0.0133
1394.00,0.0138
1393.00,0.0142
1392.00,0.0147
1391.00,0.0155
1390.00,0.0165
1389.00,0.0178
1388.00,0.0198
1387.00,0.0227
1386.00,0.0268
1385.00,0.0321
1384.00,0.0395
1383.00,0.0502
1382.00,0.0649
1381.00,0.0842
1380.00,0.1083
1379.00,0.1356
1378.00,0.1617
1377.00,0.1803
1376.00,0.1859
1375.00,0.1756
1374.00,0.1528
1373.00,0.1257
1372.00,0.1012
1371.00,0.0812
1370.00,0.0654
1369.00,0.0535
1368.00,0.0454
1367.00,0.0403
1366.00,0.0376
1365.00,0.0365
1364.00,0.0367
1363.00,0.0380
1362.00,0.0401
1361.00,0.0423
1360.00,0.0440
1359.00,0.0446
1358.00,0.0436
1357.00,0.0412
1356.00,0.0378
1355.00,0.0339
1354.00,0.0302
1353.00,0.0270
1352.00,0.0244
1351.00,0.0223
1350.00,0.0206
1349.00,0.0192
1348.00,0.0180
1347.00,0.0170
1346.00,0.0162
1345.00,0.0154
1344.00,0.0148
1343.00,0.0143
1342.00,0.0139
1341.00,0.0136
1340.00,0.0134
1339.00,0.0132
1338.00,0.0131
1337.00,0.0130
1336.00,0.0131
1335.00,0.0132
1334.00,0.0135
1333.00,0.0139
1332.00,0.0143
1331.00,0.0146
1330.00,0.0147
1329.00,0.0146
1328.00,0.0143
1327.00,0.0138
1326.00,0.0133
1325.00,0.0127
1324.00,0.0121
1323.00,0.0117
1322.00,0.0113
1321.00,0.0110
1320.00,0.0108
1319.00,0.0106
1318.00,0.0104
1317.00,0.0102
1316.00,0.0100
1315.00,0.0099
1314.00,0.0098
1313.00,0.0098
1312.00,0.0099
1311.00,0.0101
1310.00,0.0105
1309.00,0.0111
1308.00,0.0119
1307.00,0.0129
1306.00,0.0139
1305.00,0.0146
1304.00,0.0148
1303.00,0.0146
1302.00,0.0142
1301.00,0.0138
1300.00,0.0137
1299.00,0.0137
1298.00,0.0137
1297.00,0.0138
1296.00,0.0137
1295.00,0.0134
1294.00,0.0130
1293.00,0.0125
1292.00,0.0120
1291.00,0.0115
1290.00,0.0110
1289.00,0.0106
1288.00,0.0103
1287.00,0.0099
1286.00,0.0096
1285.00,0.0094
1284.00,0.0092
1283.00,0.0090
1282.00,0.0089
1281.00,0.0088
1280.00,0.0087
1279.00,0.0086
1278.00,0.0086
1277.00,0.0085
1276.00,0.0085
1275.00,0.0084
1274.00,0.0084
1273.00,0.0083
1272.00,0.0083
1271.00,0.0083
1270.00,0.0084
1269.00,0.0086
1268.00,0.0087
1267.00,0.0088
1266.00,0.0089
1265.00,0.0091
1264.00,0.0093
1263.00,0.0096
1262.00,0.0099
1261.00,0.0103
1260.00,0.0108
1259.00,0.0114
1258.00,0.0120
1257.00,0.0126
1256.00,0.0128
1255.00,0.0126
1254.00,0.0121
1253.00,0.0114
1252.00,0.0107
1251.00,0.0101
1250.00,0.0096
1249.00,0.0094
1248.00,0.0092
1247.00,0.0091
1246.00,0.0090
1245.00,0.0089
1244.00,0.0088
1243.00,0.0087
1242.00,0.0086
1241.00,0.0085
1240.00,0.0085
1239.00,0.0086
1238.00,0.0086
1237.00,0.0087
1236.00,0.0087
1235.00,0.0088
1234.00,0.0088
1233.00,0.0089
1232.00,0.0090
1231.00,0.0092
1230.00,0.0094
1229.00,0.0096
1228.00,0.0098
1227.00,0.0100
1226.00,0.0103
1225.00,0.0106
1224.00,0.0111
1223.00,0.0115
1222.00,0.0119
1221.00,0.0123
1220.00,0.0125
1219.00,0.0126
1218.00,0.0126
1217.00,0.0125
1216.00,0.0123
1215.00,0.0120
1214.00,0.0116
1213.00,0.0113
1212.00,0.0109
1211.00,0.0106
1210.00,0.0104
1209.00,0.0102
1208.00,0.0101
1207.00,0.0100
1206.00,0.0100
1205.00,0.0099
1204.00,0.0099
1203.00,0.0099
1202.00,0.0099
1201.00,0.0099
1200.00,0.0099
1199.00,0.0100
1198.00,0.0101
1197.00,0.0102
1196.00,0.0102
1195.00,0.0102
1194.00,0.0102
1193.00,0.0102
1192.00,0.0102
1191.00,0.0101
1190.00,0.0100
1189.00,0.0099
1188.00,0.0099
1187.00,0.0099
1186.00,0.0099
1185.00,0.0099
1184.00,0.0100
1183.00,0.0100
1182.00,0.0101
1181.00,0.0103
1180.00,0.0105
1179.00,0.0108
1178.00,0.0112
1177.00,0.0119
1176.00,0.0128
1175.00,0.0139
1174.00,0.0155
1173.00,0.0175
1172.00,0.0199
1171.00,0.0227
1170.00,0.0254
1169.00,0.0276
1168.00,0.0289
1167.00,0.0291
1166.00,0.0284
1165.00,0.0270
1164.00,0.0254
1163.00,0.0239
1162.00,0.0226
1161.00,0.0215
1160.00,0.0207
1159.00,0.0200
1158.00,0.0196
1157.00,0.0194
1156.00,0.0192
1155.00,0.0191
1154.00,0.0190
1153.00,0.0188
1152.00,0.0184
1151.00,0.0178
1150.00,0.0170
1149.00,0.0161
1148.00,0.0151
1147.00,0.0142
1146.00,0.0134
1145.00,0.0127
1144.00,0.0120
1143.00,0.0115
1142.00,0.0110
1141.00,0.0105
1140.00,0.0102
1139.00,0.0099
1138.00,0.0096
1137.00,0.0093
1136.00,0.0090
1135.00,0.0088
1134.00,0.0087
1133.00,0.0087
1132.00,0.0087
1131.00,0.0088
1130.00,0.0089
1129.00,0.0090
1128.00,0.0091
1127.00,0.0092
1126.00,0.0093
1125.00,0.0094
1124.00,0.0095
1123.00,0.0096
1122.00,0.0097
1121.00,0.0097
1120.00,0.0097
1119.00,0.0098
1118.00,0.0098
1117.00,0.0098
1116.00,0.0099
1115.00,0.0101
1114.00,0.0103
1113.00,0.0105
1112.00,0.0106
1111.00,0.0108
1110.00,0.0109
1109.00,0.0112
1108.00,0.0115
1107.00,0.0119
1106.00,0.0125
1105.00,0.0131
1104.00,0.0136
1103.00,0.0138
1102.00,0.0137
1101.00,0.0133
1100.00,0.0127
1099.00,0.0120
1098.00,0.0114
1097.00,0.0108
1096.00,0.0103
1095.00,0.0098
1094.00,0.0095
1093.00,0.0093
1092.00,0.0091
1091.00,0.0090
1090.00,0.0089
1089.00,0.0087
1088.00,0.0086
1087.00,0.0085
1086.00,0.0085
1085.00,0.0085
1084.00,0.0085
1083.00,0.0085
1082.00,0.0085
1081.00,0.0084
1080.00,0.0082
1079.00,0.0081
1078.00,0.0080
1077.00,0.0079
1076.00,0.0079
1075.00,0.0080
1074.00,0.0080
1073.00,0.0080
1072.00,0.0080
1071.00,0.0079
1070.00,0.0079
1069.00,0.0078
1068.00,0.0078
1067.00,0.0078
1066.00,0.0078
1065.00,0.0078
1064.00,0.0080
1063.00,0.0081
1062.00,0.0083
1061.00,0.0084
1060.00,0.0085
1059.00,0.0085
1058.00,0.0086
1057.00,0.0087
1056.00,0.0088
1055.00,0.0090
1054.00,0.0092
1053.00,0.0095
1052.00,0.0099
1051.00,0.0103
1050.00,0.0108
1049.00,0.0112
1048.00,0.0115
1047.00,0.0118
1046.00,0.0121
1045.00,0.0124
1044.00,0.0125
1043.00,0.0126
1042.00,0.0125
1041.00,0.0124
1040.00,0.0124
1039.00,0.0126
1038.00,0.0130
1037.00,0.0133
1036.00,0.0134
1035.00,0.0132
1034.00,0.0129
1033.00,0.0126
1032.00,0.0122
1031.00,0.0119
1030.00,0.0118
1029.00,0.0117
1028.00,0.0117
1027.00,0.0117
1026.00,0.0118
1025.00,0.0120
1024.00,0.0121
1023.00,0.0123
1022.00,0.0125
1021.00,0.0127
1020.00,0.0129
1019.00,0.0131
1018.00,0.0133
1017.00,0.0135
1016.00,0.0137
1015.00,0.0139
1014.00,0.0141
1013.00,0.0144
1012.00,0.0145
1011.00,0.0145
1010.00,0.0144
1009.00,0.0143
1008.00,0.0142
1007.00,0.0144
1006.00,0.0149
1005.00,0.0157
1004.00,0.0170
1003.00,0.0189
1002.00,0.0214
1001.00,0.0246
1000.00,0.0280
999.00,0.0308
998.00,0.0321
997.00,0.0315
996.00,0.0291
995.00,0.0256
994.00,0.0221
993.00,0.0189
992.00,0.0165
991.00,0.0147
990.00,0.0135
989.00,0.0126
988.00,0.0120
987.00,0.0117
986.00,0.0116
985.00,0.0117
984.00,0.0121
983.00,0.0127
982.00,0.0136
981.00,0.0149
980.00,0.0169
979.00,0.0194
978.00,0.0227
977.00,0.0264
976.00,0.0304
975.00,0.0341
974.00,0.0368
973.00,0.0376
972.00,0.0362
971.00,0.0329
970.00,0.0284
969.00,0.0239
968.00,0.0201
967.00,0.0172
966.00,0.0150
965.00,0.0134
964.00,0.0122
963.00,0.0112
962.00,0.0105
961.00,0.0100
960.00,0.0097
959.00,0.0094
958.00,0.0090
957.00,0.0087
956.00,0.0084
955.00,0.0083
954.00,0.0082
953.00,0.0081
952.00,0.0080
951.00,0.0079
950.00,0.0079
949.00,0.0078
948.00,0.0078
947.00,0.0079
946.00,0.0080
945.00,0.0083
944.00,0.0087
943.00,0.0092
942.00,0.0095
941.00,0.0097
940.00,0.0096
939.00,0.0093
938.00,0.0088
937.00,0.0083
936.00,0.0078
935.00,0.0074
934.00,0.0073
933.00,0.0071
932.00,0.0070
931.00,0.0068
930.00,0.0067
929.00,0.0066
928.00,0.0065
927.00,0.0065
926.00,0.0064
925.00,0.0064
924.00,0.0064
923.00,0.0064
922.00,0.0064
921.00,0.0064
920.00,0.0064
919.00,0.0064
918.00,0.0065
917.00,0.0065
916.00,0.0066
915.00,0.0067
914.00,0.0068
913.00,0.0070
912.00,0.0072
911.00,0.0073
910.00,0.0075
909.00,0.0077
908.00,0.0080
907.00,0.0085
906.00,0.0092
905.00,0.0102
904.00,0.0115
903.00,0.0132
902.00,0.0152
901.00,0.0169
900.00,0.0181
899.00,0.0183
898.00,0.0174
897.00,0.0159
896.00,0.0140
895.00,0.0121
894.00,0.0107
893.00,0.0096
892.00,0.0089
891.00,0.0084
890.00,0.0082
889.00,0.0080
888.00,0.0078
887.00,0.0076
886.00,0.0074
885.00,0.0073
884.00,0.0072
883.00,0.0072
882.00,0.0073
881.00,0.0074
880.00,0.0075
879.00,0.0077
878.00,0.0078
877.00,0.0079
876.00,0.0080
875.00,0.0081
874.00,0.0081
873.00,0.0081
872.00,0.0080
871.00,0.0079
870.00,0.0078
869.00,0.0078
868.00,0.0077
867.00,0.0077
866.00,0.0077
865.00,0.0077
864.00,0.0079
863.00,0.0081
862.00,0.0083
861.00,0.0084
860.00,0.0085
859.00,0.0085
858.00,0.0086
857.00,0.0088
856.00,0.0089
855.00,0.0090
854.00,0.0091
853.00,0.0092
852.00,0.0095
851.00,0.0100
850.00,0.0104
849.00,0.0110
848.00,0.0117
847.00,0.0129
846.00,0.0148
845.00,0.0176
844.00,0.0216
843.00,0.0262
842.00,0.0299
841.00,0.0312
840.00,0.0293
839.00,0.0251
838.00,0.0204
837.00,0.0166
836.00,0.0141
835.00,0.0126
834.00,0.0119
833.00,0.0114
832.00,0.0110
831.00,0.0106
830.00,0.0104
829.00,0.0104
828.00,0.0104
827.00,0.0102
826.00,0.0100
825.00,0.0099
824.00,0.0099
823.00,0.0101
822.00,0.0103
821.00,0.0105
820.00,0.0107
819.00,0.0110
818.00,0.0113
817.00,0.0119
816.00,0.0126
815.00,0.0137
814.00,0.0150
813.00,0.0168
812.00,0.0188
811.00,0.0207
810.00,0.0222
809.00,0.0229
808.00,0.0226
807.00,0.0213
806.00,0.0195
805.00,0.0175
804.00,0.0157
803.00,0.0141
802.00,0.0129
801.00,0.0120
800.00,0.0114
799.00,0.0109
798.00,0.0105
797.00,0.0101
796.00,0.0098
795.00,0.0096
794.00,0.0094
793.00,0.0092
792.00,0.0090
791.00,0.0089
790.00,0.0088
789.00,0.0086
788.00,0.0084
787.00,0.0080
786.00,0.0078
785.00,0.0076
784.00,0.0074
783.00,0.0073
782.00,0.0071
781.00,0.0069
780.00,0.0068
779.00,0.0068
778.00,0.0068
777.00,0.0069
776.00,0.0069
775.00,0.0070
774.00,0.0071
773.00,0.0072
772.00,0.0074
771.00,0.0074
770.00,0.0074
769.00,0.0074
768.00,0.0073
767.00,0.0074
766.00,0.0076
765.00,0.0077
764.00,0.0077
763.00,0.0075
762.00,0.0073
761.00,0.0073
760.00,0.0074
759.00,0.0075
758.00,0.0076
757.00,0.0076
756.00,0.0077
755.00,0.0079
754.00,0.0082
753.00,0.0084
752.00,0.0084
751.00,0.0083
750.00,0.0082
749.00,0.0083
748.00,0.0085
747.00,0.0086
746.00,0.0088
745.00,0.0090
744.00,0.0093
743.00,0.0096
742.00,0.0099
741.00,0.0101
740.00,0.0105
739.00,0.0109
738.00,0.0115
737.00,0.0122
736.00,0.0128
735.00,0.0134
734.00,0.0139
733.00,0.0146
732.00,0.0153
731.00,0.0160
730.00,0.0166
729.00,0.0170
728.00,0.0172
727.00,0.0173
726.00,0.0174
725.00,0.0177
724.00,0.0183
723.00,0.0190
722.00,0.0197
721.00,0.0200
720.00,0.0196
719.00,0.0185
718.00,0.0170
717.00,0.0156
716.00,0.0145
715.00,0.0138
714.00,0.0132
713.00,0.0127
712.00,0.0123
711.00,0.0120
710.00,0.0119
709.00,0.0118
708.00,0.0117
707.00,0.0116
706.00,0.0114
705.00,0.0111
704.00,0.0109
703.00,0.0107
702.00,0.0106
701.00,0.0105
700.00,0.0104
699.00,0.0103
698.00,0.0102
697.00,0.0102
696.00,0.0102
695.00,0.0104
694.00,0.0106
693.00,0.0106
692.00,0.0106
691.00,0.0105
690.00,0.0105
689.00,0.0106
688.00,0.0107
687.00,0.0108
686.00,0.0109
685.00,0.0108
684.00,0.0107
683.00,0.0107
682.00,0.0109
681.00,0.0112
680.00,0.0115
679.00,0.0117
678.00,0.0118
677.00,0.0119
676.00,0.0118
675.00,0.0116
674.00,0.0114
673.00,0.0116
672.00,0.0119
671.00,0.0125
670.00,0.0131
669.00,0.0136
668.00,0.0137
667.00,0.0135
666.00,0.0129
665.00,0.0123
664.00,0.0119
663.00,0.0117
662.00,0.0115
661.00,0.0113
660.00,0.0110
659.00,0.0107
658.00,0.0105
657.00,0.0103
656.00,0.0101
655.00,0.0099
654.00,0.0099
653.00,0.0101
652.00,0.0103
651.00,0.0103
650.00,0.0103
649.00,0.0102
648.00,0.0103
647.00,0.0104
646.00,0.0104
645.00,0.0103
644.00,0.0101
643.00,0.0100
642.00,0.0098
641.00,0.0097
640.00,0.0097
639.00,0.0099
638.00,0.0101
637.00,0.0102
636.00,0.0101
635.00,0.0100
634.00,0.0100
633.00,0.0102
632.00,0.0104
631.00,0.0105
630.00,0.0105
629.00,0.0104
628.00,0.0103
627.00,0.0103
626.00,0.0103
625.00,0.0103
624.00,0.0101
623.00,0.0098
622.00,0.0096
621.00,0.0096
620.00,0.0097
619.00,0.0099
618.00,0.0100
617.00,0.0100
616.00,0.0099
615.00,0.0098
614.00,0.0097
613.00,0.0097
612.00,0.0098
611.00,0.0098
610.00,0.0097
609.00,0.0096
608.00,0.0094
607.00,0.0094
606.00,0.0094
605.00,0.0094
604.00,0.0093
603.00,0.0093
602.00,0.0093
601.00,0.0092
600.00,0.0091
599.00,0.0091
598.00,0.0091
597.00,0.0092
596.00,0.0093
595.00,0.0094
594.00,0.0094
593.00,0.0094
592.00,0.0094
591.00,0.0094
590.00,0.0093
589.00,0.0093
588.00,0.0091
587.00,0.0089
586.00,0.0088
585.00,0.0089
584.00,0.0093
583.00,0.0098
582.00,0.0100
581.00,0.0099
580.00,0.0097
579.00,0.0094
578.00,0.0091
577.00,0.0089
576.00,0.0090
575.00,0.0092
574.00,0.0093
573.00,0.0090
572.00,0.0087
571.00,0.0087
570.00,0.0090
569.00,0.0093
568.00,0.0093
567.00,0.0092
566.00,0.0090
565.00,0.0088
564.00,0.0086
563.00,0.0083
562.00,0.0083
561.00,0.0085
560.00,0.0089
559.00,0.0093
558.00,0.0096
557.00,0.0096
556.00,0.0093
555.00,0.0090
554.00,0.0088
553.00,0.0088
552.00,0.0090
551.00,0.0093
550.00,0.0098
549.00,0.0101
548.00,0.0101
547.00,0.0099
546.00,0.0098
545.00,0.0097
544.00,0.0099
543.00,0.0102
542.00,0.0107
541.00,0.0113
540.00,0.0117
539.00,0.0120
538.00,0.0123
537.00,0.0124
536.00,0.0123
535.00,0.0119
534.00,0.0117
533.00,0.0118
532.00,0.0120
531.00,0.0121
530.00,0.0118
529.00,0.0113
528.00,0.0110
527.00,0.0109
526.00,0.0108
525.00,0.0106
524.00,0.0105
523.00,0.0104
522.00,0.0105
521.00,0.0104
520.00,0.0103
519.00,0.0101
518.00,0.0096
517.00,0.0092
516.00,0.0089
515.00,0.0086
514.00,0.0082
513.00,0.0077
512.00,0.0074
511.00,0.0075
510.00,0.0079
509.00,0.0080
508.00,0.0079
507.00,0.0076
506.00,0.0074
505.00,0.0075
504.00,0.0079
503.00,0.0086
502.00,0.0092
501.00,0.0094
500.00,0.0092
499.00,0.0090
498.00,0.0086
497.00,0.0080
496.00,0.0074
495.00,0.0073
494.00,0.0078
493.00,0.0083
492.00,0.0087
491.00,0.0089
490.00,0.0091
489.00,0.0094
488.00,0.0096
487.00,0.0097
486.00,0.0098
485.00,0.0099
484.00,0.0102
483.00,0.0107
482.00,0.0114
481.00,0.0121
480.00,0.0124
479.00,0.0124
478.00,0.0121
477.00,0.0117
476.00,0.0117
475.00,0.0124
474.00,0.0136
473.00,0.0147
472.00,0.0149
471.00,0.0145
470.00,0.0141
469.00,0.0141
468.00,0.0146
467.00,0.0157
466.00,0.0169
465.00,0.0179
464.00,0.0186
463.00,0.0193
462.00,0.0202
461.00,0.0214
460.00,0.0230
459.00,0.0245
458.00,0.0254
457.00,0.0249
456.00,0.0233
455.00,0.0216
454.00,0.0206
453.00,0.0203
452.00,0.0202
451.00,0.0198
450.00,0.0188
