Created as New Dataset,Sample 075 By Administrator Date Wednesday, September 03 2025
cm-1,A
4000.00,0.0008
3999.00,0.0008
3998.00,0.0007
3997.00,0.0007
3996.00,0.0007
3995.00,0.0007
3994.00,0.0007
3993.00,0.0007
3992.00,0.0007
3991.00,0.0007
3990.00,0.0007
3989.00,0.0008
3988.00,0.0008
3987.00,0.0008
3986.00,0.0008
3985.00,0.0008
3984.00,0.0007
3983.00,0.0007
3982.00,0.0006
3981.00,0.0006
3980.00,0.0006
3979.00,0.0006
3978.00,0.0007
3977.00,0.0007
3976.00,0.0007
3975.00,0.0007
3974.00,0.0007
3973.00,0.0007
3972.00,0.0007
3971.00,0.0007
3970.00,0.0007
3969.00,0.0007
3968.00,0.0007
3967.00,0.0006
3966.00,0.0006
3965.00,0.0006
3964.00,0.0006
3963.00,0.0006
3962.00,0.0006
3961.00,0.0006
3960.00,0.0006
3959.00,0.0006
3958.00,0.0006
3957.00,0.0006
3956.00,0.0006
3955.00,0.0006
3954.00,0.0006
3953.00,0.0005
3952.00,0.0005
3951.00,0.0005
3950.00,0.0006
3949.00,0.0006
3948.00,0.0006
3947.00,0.0006
3946.00,0.0006
3945.00,0.0006
3944.00,0.0007
3943.00,0.0007
3942.00,0.0007
3941.00,0.0007
3940.00,0.0007
3939.00,0.0007
3938.00,0.0007
3937.00,0.0007
3936.00,0.0006
3935.00,0.0006
3934.00,0.0006
3933.00,0.0006
3932.00,0.0006
3931.00,0.0006
3930.00,0.0007
3929.00,0.0007
3928.00,0.0007
3927.00,0.0007
3926.00,0.0007
3925.00,0.0007
3924.00,0.0007
3923.00,0.0007
3922.00,0.0006
3921.00,0.0006
3920.00,0.0007
3919.00,0.0007
3918.00,0.0007
3917.00,0.0007
3916.00,0.0007
3915.00,0.0007
3914.00,0.0006
3913.00,0.0006
3912.00,0.0006
3911.00,0.0006
3910.00,0.0006
3909.00,0.0006
3908.00,0.0006
3907.00,0.0006
3906.00,0.0007
3905.00,0.0007
3904.00,0.0006
3903.00,0.0006
3902.00,0.0005
3901.00,0.0005
3900.00,0.0005
3899.00,0.0006
3898.00,0.0006
3897.00,0.0006
3896.00,0.0006
3895.00,0.0006
3894.00,0.0006
3893.00,0.0006
3892.00,0.0006
3891.00,0.0006
3890.00,0.0006
3889.00,0.0005
3888.00,0.0005
3887.00,0.0005
3886.00,0.0006
3885.00,0.0006
3884.00,0.0006
3883.00,0.0006
3882.00,0.0006
3881.00,0.0006
3880.00,0.0006
3879.00,0.0006
3878.00,0.0006
3877.00,0.0005
3876.00,0.0005
3875.00,0.0005
3874.00,0.0005
3873.00,0.0005
3872.00,0.0005
3871.00,0.0005
3870.00,0.0005
3869.00,0.0005
3868.00,0.0004
3867.00,0.0004
3866.00,0.0004
3865.00,0.0004
3864.00,0.0005
3863.00,0.0005
3862.00,0.0005
3861.00,0.0005
3860.00,0.0004
3859.00,0.0004
3858.00,0.0004
3857.00,0.0004
3856.00,0.0004
3855.00,0.0004
3854.00,0.0004
3853.00,0.0004
3852.00,0.0004
3851.00,0.0004
3850.00,0.0004
3849.00,0.0005
3848.00,0.0005
3847.00,0.0005
3846.00,0.0005
3845.00,0.0005
3844.00,0.0005
3843.00,0.0005
3842.00,0.0004
3841.00,0.0004
3840.00,0.0004
3839.00,0.0004
3838.00,0.0004
3837.00,0.0004
3836.00,0.0004
3835.00,0.0005
3834.00,0.0005
3833.00,0.0005
3832.00,0.0005
3831.00,0.0005
3830.00,0.0005
3829.00,0.0004
3828.00,0.0004
3827.00,0.0004
3826.00,0.0004
3825.00,0.0004
3824.00,0.0003
3823.00,0.0003
3822.00,0.0003
3821.00,0.0004
3820.00,0.0005
3819.00,0.0005
3818.00,0.0005
3817.00,0.0005
3816.00,0.0005
3815.00,0.0005
3814.00,0.0005
3813.00,0.0005
3812.00,0.0005
3811.00,0.0005
3810.00,0.0005
3809.00,0.0005
3808.00,0.0005
3807.00,0.0005
3806.00,0.0005
3805.00,0.0005
3804.00,0.0005
3803.00,0.0004
3802.00,0.0004
3801.00,0.0004
3800.00,0.0004
3799.00,0.0004
3798.00,0.0004
3797.00,0.0005
3796.00,0.0005
3795.00,0.0005
3794.00,0.0005
3793.00,0.0005
3792.00,0.0005
3791.00,0.0006
3790.00,0.0006
3789.00,0.0006
3788.00,0.0005
3787.00,0.0005
3786.00,0.0005
3785.00,0.0005
3784.00,0.0005
3783.00,0.0005
3782.00,0.0006
3781.00,0.0006
3780.00,0.0006
3779.00,0.0006
3778.00,0.0006
3777.00,0.0005
3776.00,0.0005
3775.00,0.0005
3774.00,0.0005
3773.00,0.0006
3772.00,0.0006
3771.00,0.0005
3770.00,0.0005
3769.00,0.0005
3768.00,0.0004
3767.00,0.0004
3766.00,0.0004
3765.00,0.0004
3764.00,0.0005
3763.00,0.0005
3762.00,0.0005
3761.00,0.0005
3760.00,0.0005
3759.00,0.0005
3758.00,0.0005
3757.00,0.0005
3756.00,0.0005
3755.00,0.0005
3754.00,0.0005
3753.00,0.0005
3752.00,0.0005
3751.00,0.0005
3750.00,0.0004
3749.00,0.0004
3748.00,0.0004
3747.00,0.0003
3746.00,0.0003
3745.00,0.0004
3744.00,0.0004
3743.00,0.0004
3742.00,0.0004
3741.00,0.0004
3740.00,0.0004
3739.00,0.0003
3738.00,0.0003
3737.00,0.0002
3736.00,0.0002
3735.00,0.0003
3734.00,0.0003
3733.00,0.0003
3732.00,0.0003
3731.00,0.0003
3730.00,0.0004
3729.00,0.0004
3728.00,0.0004
3727.00,0.0004
3726.00,0.0004
3725.00,0.0004
3724.00,0.0004
3723.00,0.0005
3722.00,0.0005
3721.00,0.0005
3720.00,0.0005
3719.00,0.0005
3718.00,0.0004
3717.00,0.0004
3716.00,0.0004
3715.00,0.0004
3714.00,0.0004
3713.00,0.0004
3712.00,0.0004
3711.00,0.0004
3710.00,0.0004
3709.00,0.0004
3708.00,0.0004
3707.00,0.0004
3706.00,0.0004
3705.00,0.0004
3704.00,0.0004
3703.00,0.0004
3702.00,0.0003
3701.00,0.0003
3700.00,0.0003
3699.00,0.0003
3698.00,0.0004
3697.00,0.0004
3696.00,0.0004
3695.00,0.0003
3694.00,0.0003
3693.00,0.0003
3692.00,0.0002
3691.00,0.0002
3690.00,0.0003
3689.00,0.0003
3688.00,0.0003
3687.00,0.0003
3686.00,0.0003
3685.00,0.0003
3684.00,0.0003
3683.00,0.0003
3682.00,0.0003
3681.00,0.0003
3680.00,0.0003
3679.00,0.0003
3678.00,0.0003
3677.00,0.0003
3676.00,0.0003
3675.00,0.0003
3674.00,0.0002
3673.00,0.0002
3672.00,0.0002
3671.00,0.0002
3670.00,0.0002
3669.00,0.0002
3668.00,0.0002
3667.00,0.0002
3666.00,0.0002
3665.00,0.0003
3664.00,0.0003
3663.00,0.0003
3662.00,0.0003
3661.00,0.0003
3660.00,0.0003
3659.00,0.0003
3658.00,0.0003
3657.00,0.0003
3656.00,0.0003
3655.00,0.0003
3654.00,0.0003
3653.00,0.0003
3652.00,0.0002
3651.00,0.0002
3650.00,0.0002
3649.00,0.0002
3648.00,0.0003
3647.00,0.0003
3646.00,0.0003
3645.00,0.0003
3644.00,0.0003
3643.00,0.0003
3642.00,0.0003
3641.00,0.0003
3640.00,0.0003
3639.00,0.0004
3638.00,0.0004
3637.00,0.0004
3636.00,0.0005
3635.00,0.0005
3634.00,0.0005
3633.00,0.0005
3632.00,0.0005
3631.00,0.0005
3630.00,0.0004
3629.00,0.0004
3628.00,0.0004
3627.00,0.0004
3626.00,0.0004
3625.00,0.0004
3624.00,0.0004
3623.00,0.0004
3622.00,0.0005
3621.00,0.0005
3620.00,0.0005
3619.00,0.0005
3618.00,0.0005
3617.00,0.0005
3616.00,0.0006
3615.00,0.0006
3614.00,0.0006
3613.00,0.0007
3612.00,0.0007
3611.00,0.0007
3610.00,0.0008
3609.00,0.0008
3608.00,0.0009
3607.00,0.0009
3606.00,0.0009
3605.00,0.0009
3604.00,0.0009
3603.00,0.0008
3602.00,0.0008
3601.00,0.0008
3600.00,0.0009
3599.00,0.0008
3598.00,0.0008
3597.00,0.0009
3596.00,0.0009
3595.00,0.0009
3594.00,0.0009
3593.00,0.0010
3592.00,0.0010
3591.00,0.0010
3590.00,0.0011
3589.00,0.0011
3588.00,0.0011
3587.00,0.0011
3586.00,0.0012
3585.00,0.0012
3584.00,0.0012
3583.00,0.0012
3582.00,0.0013
3581.00,0.0013
3580.00,0.0013
3579.00,0.0013
3578.00,0.0013
3577.00,0.0013
3576.00,0.0013
3575.00,0.0014
3574.00,0.0014
3573.00,0.0014
3572.00,0.0014
3571.00,0.0014
3570.00,0.0014
3569.00,0.0014
3568.00,0.0015
3567.00,0.0016
3566.00,0.0017
3565.00,0.0016
3564.00,0.0016
3563.00,0.0015
3562.00,0.0015
3561.00,0.0015
3560.00,0.0016
3559.00,0.0016
3558.00,0.0017
3557.00,0.0017
3556.00,0.0017
3555.00,0.0017
3554.00,0.0018
3553.00,0.0018
3552.00,0.0018
3551.00,0.0018
3550.00,0.0018
3549.00,0.0019
3548.00,0.0019
3547.00,0.0019
3546.00,0.0019
3545.00,0.0019
3544.00,0.0020
3543.00,0.0020
3542.00,0.0020
3541.00,0.0020
3540.00,0.0020
3539.00,0.0021
3538.00,0.0021
3537.00,0.0021
3536.00,0.0021
3535.00,0.0021
3534.00,0.0021
3533.00,0.0021
3532.00,0.0022
3531.00,0.0022
3530.00,0.0022
3529.00,0.0022
3528.00,0.0022
3527.00,0.0023
3526.00,0.0023
3525.00,0.0023
3524.00,0.0023
3523.00,0.0023
3522.00,0.0023
3521.00,0.0023
3520.00,0.0024
3519.00,0.0024
3518.00,0.0025
3517.00,0.0025
3516.00,0.0025
3515.00,0.0025
3514.00,0.0025
3513.00,0.0025
3512.00,0.0025
3511.00,0.0025
3510.00,0.0026
3509.00,0.0026
3508.00,0.0026
3507.00,0.0026
3506.00,0.0026
3505.00,0.0026
3504.00,0.0026
3503.00,0.0026
3502.00,0.0027
3501.00,0.0027
3500.00,0.0027
3499.00,0.0028
3498.00,0.0028
3497.00,0.0029
3496.00,0.0029
3495.00,0.0029
3494.00,0.0029
3493.00,0.0029
3492.00,0.0030
3491.00,0.0030
3490.00,0.0030
3489.00,0.0031
3488.00,0.0031
3487.00,0.0031
3486.00,0.0031
3485.00,0.0031
3484.00,0.0031
3483.00,0.0031
3482.00,0.0031
3481.00,0.0031
3480.00,0.0031
3479.00,0.0032
3478.00,0.0032
3477.00,0.0032
3476.00,0.0032
3475.00,0.0033
3474.00,0.0033
3473.00,0.0033
3472.00,0.0033
3471.00,0.0033
3470.00,0.0034
3469.00,0.0034
3468.00,0.0034
3467.00,0.0034
3466.00,0.0034
3465.00,0.0034
3464.00,0.0035
3463.00,0.0035
3462.00,0.0036
3461.00,0.0036
3460.00,0.0035
3459.00,0.0035
3458.00,0.0036
3457.00,0.0036
3456.00,0.0036
3455.00,0.0037
3454.00,0.0037
3453.00,0.0037
3452.00,0.0037
3451.00,0.0036
3450.00,0.0036
3449.00,0.0036
3448.00,0.0037
3447.00,0.0037
3446.00,0.0038
3445.00,0.0038
3444.00,0.0038
3443.00,0.0038
3442.00,0.0038
3441.00,0.0038
3440.00,0.0039
3439.00,0.0039
3438.00,0.0039
3437.00,0.0039
3436.00,0.0039
3435.00,0.0040
3434.00,0.0040
3433.00,0.0040
3432.00,0.0041
3431.00,0.0041
3430.00,0.0041
3429.00,0.0042
3428.00,0.0042
3427.00,0.0042
3426.00,0.0042
3425.00,0.0042
3424.00,0.0042
3423.00,0.0042
3422.00,0.0042
3421.00,0.0042
3420.00,0.0043
3419.00,0.0044
3418.00,0.0044
3417.00,0.0044
3416.00,0.0044
3415.00,0.0044
3414.00,0.0044
3413.00,0.0045
3412.00,0.0045
3411.00,0.0045
3410.00,0.0046
3409.00,0.0046
3408.00,0.0046
3407.00,0.0046
3406.00,0.0046
3405.00,0.0046
3404.00,0.0046
3403.00,0.0046
3402.00,0.0046
3401.00,0.0046
3400.00,0.0046
3399.00,0.0046
3398.00,0.0046
3397.00,0.0046
3396.00,0.0047
3395.00,0.0047
3394.00,0.0047
3393.00,0.0047
3392.00,0.0048
3391.00,0.0047
3390.00,0.0047
3389.00,0.0047
3388.00,0.0047
3387.00,0.0048
3386.00,0.0048
3385.00,0.0048
3384.00,0.0048
3383.00,0.0048
3382.00,0.0048
3381.00,0.0048
3380.00,0.0047
3379.00,0.0048
3378.00,0.0048
3377.00,0.0048
3376.00,0.0048
3375.00,0.0048
3374.00,0.0048
3373.00,0.0048
3372.00,0.0048
3371.00,0.0049
3370.00,0.0049
3369.00,0.0050
3368.00,0.0050
3367.00,0.0050
3366.00,0.0050
3365.00,0.0050
3364.00,0.0050
3363.00,0.0050
3362.00,0.0050
3361.00,0.0050
3360.00,0.0050
3359.00,0.0051
3358.00,0.0051
3357.00,0.0051
3356.00,0.0051
3355.00,0.0051
3354.00,0.0051
3353.00,0.0051
3352.00,0.0052
3351.00,0.0052
3350.00,0.0051
3349.00,0.0051
3348.00,0.0052
3347.00,0.0052
3346.00,0.0052
3345.00,0.0053
3344.00,0.0053
3343.00,0.0053
3342.00,0.0053
3341.00,0.0053
3340.00,0.0052
3339.00,0.0052
3338.00,0.0052
3337.00,0.0052
3336.00,0.0052
3335.00,0.0052
3334.00,0.0052
3333.00,0.0053
3332.00,0.0053
3331.00,0.0053
3330.00,0.0052
3329.00,0.0052
3328.00,0.0053
3327.00,0.0053
3326.00,0.0052
3325.00,0.0052
3324.00,0.0051
3323.00,0.0051
3322.00,0.0051
3321.00,0.0051
3320.00,0.0052
3319.00,0.0052
3318.00,0.0052
3317.00,0.0052
3316.00,0.0052
3315.00,0.0052
3314.00,0.0052
3313.00,0.0052
3312.00,0.0053
3311.00,0.0053
3310.00,0.0053
3309.00,0.0053
3308.00,0.0053
3307.00,0.0053
3306.00,0.0053
3305.00,0.0054
3304.00,0.0054
3303.00,0.0054
3302.00,0.0055
3301.00,0.0055
3300.00,0.0055
3299.00,0.0054
3298.00,0.0054
3297.00,0.0054
3296.00,0.0054
3295.00,0.0054
3294.00,0.0053
3293.00,0.0053
3292.00,0.0053
3291.00,0.0053
3290.00,0.0052
3289.00,0.0052
3288.00,0.0052
3287.00,0.0051
3286.00,0.0051
3285.00,0.0051
3284.00,0.0051
3283.00,0.0051
3282.00,0.0050
3281.00,0.0050
3280.00,0.0050
3279.00,0.0050
3278.00,0.0050
3277.00,0.0050
3276.00,0.0050
3275.00,0.0050
3274.00,0.0050
3273.00,0.0050
3272.00,0.0049
3271.00,0.0049
3270.00,0.0049
3269.00,0.0049
3268.00,0.0049
3267.00,0.0048
3266.00,0.0048
3265.00,0.0048
3264.00,0.0048
3263.00,0.0048
3262.00,0.0047
3261.00,0.0047
3260.00,0.0047
3259.00,0.0047
3258.00,0.0047
3257.00,0.0046
3256.00,0.0046
3255.00,0.0045
3254.00,0.0045
3253.00,0.0045
3252.00,0.0045
3251.00,0.0045
3250.00,0.0045
3249.00,0.0045
3248.00,0.0045
3247.00,0.0044
3246.00,0.0044
3245.00,0.0044
3244.00,0.0043
3243.00,0.0043
3242.00,0.0043
3241.00,0.0043
3240.00,0.0043
3239.00,0.0043
3238.00,0.0043
3237.00,0.0044
3236.00,0.0044
3235.00,0.0044
3234.00,0.0044
3233.00,0.0044
3232.00,0.0043
3231.00,0.0043
3230.00,0.0044
3229.00,0.0044
3228.00,0.0045
3227.00,0.0045
3226.00,0.0045
3225.00,0.0045
3224.00,0.0045
3223.00,0.0045
3222.00,0.0045
3221.00,0.0045
3220.00,0.0045
3219.00,0.0045
3218.00,0.0045
3217.00,0.0046
3216.00,0.0047
3215.00,0.0047
3214.00,0.0047
3213.00,0.0047
3212.00,0.0047
3211.00,0.0047
3210.00,0.0048
3209.00,0.0048
3208.00,0.0048
3207.00,0.0048
3206.00,0.0047
3205.00,0.0047
3204.00,0.0048
3203.00,0.0048
3202.00,0.0048
3201.00,0.0048
3200.00,0.0048
3199.00,0.0048
3198.00,0.0048
3197.00,0.0048
3196.00,0.0048
3195.00,0.0048
3194.00,0.0048
3193.00,0.0048
3192.00,0.0048
3191.00,0.0047
3190.00,0.0047
3189.00,0.0047
3188.00,0.0047
3187.00,0.0047
3186.00,0.0047
3185.00,0.0047
3184.00,0.0046
3183.00,0.0046
3182.00,0.0046
3181.00,0.0046
3180.00,0.0046
3179.00,0.0045
3178.00,0.0045
3177.00,0.0045
3176.00,0.0045
3175.00,0.0044
3174.00,0.0044
3173.00,0.0043
3172.00,0.0043
3171.00,0.0043
3170.00,0.0043
3169.00,0.0043
3168.00,0.0043
3167.00,0.0043
3166.00,0.0043
3165.00,0.0043
3164.00,0.0043
3163.00,0.0042
3162.00,0.0042
3161.00,0.0043
3160.00,0.0043
3159.00,0.0043
3158.00,0.0043
3157.00,0.0043
3156.00,0.0042
3155.00,0.0042
3154.00,0.0042
3153.00,0.0042
3152.00,0.0041
3151.00,0.0042
3150.00,0.0042
3149.00,0.0042
3148.00,0.0042
3147.00,0.0041
3146.00,0.0041
3145.00,0.0042
3144.00,0.0042
3143.00,0.0042
3142.00,0.0042
3141.00,0.0041
3140.00,0.0041
3139.00,0.0041
3138.00,0.0041
3137.00,0.0040
3136.00,0.0040
3135.00,0.0040
3134.00,0.0040
3133.00,0.0040
3132.00,0.0039
3131.00,0.0039
3130.00,0.0039
3129.00,0.0039
3128.00,0.0039
3127.00,0.0038
3126.00,0.0038
3125.00,0.0037
3124.00,0.0037
3123.00,0.0036
3122.00,0.0036
3121.00,0.0036
3120.00,0.0036
3119.00,0.0036
3118.00,0.0036
3117.00,0.0035
3116.00,0.0035
3115.00,0.0035
3114.00,0.0035
3113.00,0.0035
3112.00,0.0035
3111.00,0.0034
3110.00,0.0034
3109.00,0.0034
3108.00,0.0034
3107.00,0.0034
3106.00,0.0034
3105.00,0.0034
3104.00,0.0034
3103.00,0.0034
3102.00,0.0034
3101.00,0.0034
3100.00,0.0033
3099.00,0.0033
3098.00,0.0033
3097.00,0.0033
3096.00,0.0034
3095.00,0.0034
3094.00,0.0034
3093.00,0.0034
3092.00,0.0034
3091.00,0.0033
3090.00,0.0033
3089.00,0.0034
3088.00,0.0034
3087.00,0.0034
3086.00,0.0034
3085.00,0.0034
3084.00,0.0033
3083.00,0.0033
3082.00,0.0033
3081.00,0.0033
3080.00,0.0033
3079.00,0.0033
3078.00,0.0034
3077.00,0.0034
3076.00,0.0034
3075.00,0.0034
3074.00,0.0034
3073.00,0.0034
3072.00,0.0035
3071.00,0.0035
3070.00,0.0035
3069.00,0.0034
3068.00,0.0034
3067.00,0.0034
3066.00,0.0034
3065.00,0.0035
3064.00,0.0035
3063.00,0.0036
3062.00,0.0036
3061.00,0.0036
3060.00,0.0036
3059.00,0.0036
3058.00,0.0036
3057.00,0.0036
3056.00,0.0036
3055.00,0.0037
3054.00,0.0037
3053.00,0.0037
3052.00,0.0037
3051.00,0.0036
3050.00,0.0036
3049.00,0.0037
3048.00,0.0037
3047.00,0.0037
3046.00,0.0037
3045.00,0.0038
3044.00,0.0038
3043.00,0.0038
3042.00,0.0039
3041.00,0.0039
3040.00,0.0039
3039.00,0.0040
3038.00,0.0040
3037.00,0.0040
3036.00,0.0040
3035.00,0.0040
3034.00,0.0040
3033.00,0.0041
3032.00,0.0041
3031.00,0.0042
3030.00,0.0042
3029.00,0.0042
3028.00,0.0043
3027.00,0.0043
3026.00,0.0043
3025.00,0.0044
3024.00,0.0045
3023.00,0.0045
3022.00,0.0046
3021.00,0.0047
3020.00,0.0047
3019.00,0.0048
3018.00,0.0048
3017.00,0.0049
3016.00,0.0050
3015.00,0.0050
3014.00,0.0051
3013.00,0.0052
3012.00,0.0053
3011.00,0.0054
3010.00,0.0055
3009.00,0.0056
3008.00,0.0057
3007.00,0.0058
3006.00,0.0059
3005.00,0.0061
3004.00,0.0062
3003.00,0.0064
3002.00,0.0065
3001.00,0.0067
3000.00,0.0069
2999.00,0.0071
2998.00,0.0074
2997.00,0.0077
2996.00,0.0080
2995.00,0.0083
2994.00,0.0087
2993.00,0.0091
2992.00,0.0095
2991.00,0.0100
2990.00,0.0106
2989.00,0.0113
2988.00,0.0120
2987.00,0.0128
2986.00,0.0136
2985.00,0.0145
2984.00,0.0155
2983.00,0.0166
2982.00,0.0180
2981.00,0.0196
2980.00,0.0216
2979.00,0.0237
2978.00,0.0262
2977.00,0.0291
2976.00,0.0323
2975.00,0.0360
2974.00,0.0401
2973.00,0.0448
2972.00,0.0501
2971.00,0.0562
2970.00,0.0630
2969.00,0.0705
2968.00,0.0787
2967.00,0.0875
2966.00,0.0969
2965.00,0.1065
2964.00,0.1160
2963.00,0.1251
2962.00,0.1334
2961.00,0.1404
2960.00,0.1461
2959.00,0.1506
2958.00,0.1544
2957.00,0.1580
2956.00,0.1620
2955.00,0.1666
2954.00,0.1719
2953.00,0.1773
2952.00,0.1821
2951.00,0.1852
2950.00,0.1856
2949.00,0.1827
2948.00,0.1761
2947.00,0.1665
2946.00,0.1550
2945.00,0.1428
2944.00,0.1312
2943.00,0.1213
2942.00,0.1136
2941.00,0.1084
2940.00,0.1056
2939.00,0.1049
2938.00,0.1061
2937.00,0.1092
2936.00,0.1137
2935.00,0.1198
2934.00,0.1271
2933.00,0.1357
2932.00,0.1452
2931.00,0.1556
2930.00,0.1666
2929.00,0.1778
2928.00,0.1890
2927.00,0.1999
2926.00,0.2104
2925.00,0.2205
2924.00,0.2302
2923.00,0.2397
2922.00,0.2489
2921.00,0.2577
2920.00,0.2653
2919.00,0.2709
2918.00,0.2737
2917.00,0.2728
2916.00,0.2682
2915.00,0.2604
2914.00,0.2505
2913.00,0.2397
2912.00,0.2291
2911.00,0.2193
2910.00,0.2105
2909.00,0.2028
2908.00,0.1959
2907.00,0.1893
2906.00,0.1829
2905.00,0.1764
2904.00,0.1698
2903.00,0.1631
2902.00,0.1565
2901.00,0.1499
2900.00,0.1435
2899.00,0.1375
2898.00,0.1318
2897.00,0.1266
2896.00,0.1219
2895.00,0.1177
2894.00,0.1142
2893.00,0.1112
2892.00,0.1088
2891.00,0.1070
2890.00,0.1058
2889.00,0.1050
2888.00,0.1046
2887.00,0.1045
2886.00,0.1047
2885.00,0.1053
2884.00,0.1064
2883.00,0.1079
2882.00,0.1099
2881.00,0.1121
2880.00,0.1144
2879.00,0.1164
2878.00,0.1177
2877.00,0.1182
2876.00,0.1179
2875.00,0.1172
2874.00,0.1165
2873.00,0.1163
2872.00,0.1168
2871.00,0.1180
2870.00,0.1197
2869.00,0.1213
2868.00,0.1223
2867.00,0.1220
2866.00,0.1196
2865.00,0.1152
2864.00,0.1091
2863.00,0.1021
2862.00,0.0951
2861.00,0.0890
2860.00,0.0843
2859.00,0.0811
2858.00,0.0794
2857.00,0.0789
2856.00,0.0794
2855.00,0.0807
2854.00,0.0825
2853.00,0.0847
2852.00,0.0868
2851.00,0.0886
2850.00,0.0899
2849.00,0.0906
2848.00,0.0911
2847.00,0.0918
2846.00,0.0934
2845.00,0.0962
2844.00,0.1002
2843.00,0.1051
2842.00,0.1106
2841.00,0.1159
2840.00,0.1203
2839.00,0.1229
2838.00,0.1229
2837.00,0.1199
2836.00,0.1137
2835.00,0.1050
2834.00,0.0946
2833.00,0.0837
2832.00,0.0733
2831.00,0.0640
2830.00,0.0561
2829.00,0.0496
2828.00,0.0443
2827.00,0.0400
2826.00,0.0366
2825.00,0.0337
2824.00,0.0313
2823.00,0.0294
2822.00,0.0277
2821.00,0.0262
2820.00,0.0249
2819.00,0.0238
2818.00,0.0228
2817.00,0.0220
2816.00,0.0212
2815.00,0.0205
2814.00,0.0198
2813.00,0.0193
2812.00,0.0187
2811.00,0.0182
2810.00,0.0177
2809.00,0.0171
2808.00,0.0165
2807.00,0.0159
2806.00,0.0152
2805.00,0.0146
2804.00,0.0139
2803.00,0.0133
2802.00,0.0128
2801.00,0.0123
2800.00,0.0120
2799.00,0.0117
2798.00,0.0114
2797.00,0.0112
2796.00,0.0109
2795.00,0.0107
2794.00,0.0104
2793.00,0.0101
2792.00,0.0098
2791.00,0.0095
2790.00,0.0092
2789.00,0.0089
2788.00,0.0086
2787.00,0.0083
2786.00,0.0080
2785.00,0.0077
2784.00,0.0075
2783.00,0.0073
2782.00,0.0071
2781.00,0.0069
2780.00,0.0067
2779.00,0.0065
2778.00,0.0064
2777.00,0.0062
2776.00,0.0061
2775.00,0.0060
2774.00,0.0059
2773.00,0.0058
2772.00,0.0058
2771.00,0.0057
2770.00,0.0057
2769.00,0.0056
2768.00,0.0056
2767.00,0.0056
2766.00,0.0056
2765.00,0.0055
2764.00,0.0055
2763.00,0.0054
2762.00,0.0054
2761.00,0.0053
2760.00,0.0053
2759.00,0.0053
2758.00,0.0053
2757.00,0.0054
2756.00,0.0054
2755.00,0.0053
2754.00,0.0053
2753.00,0.0052
2752.00,0.0052
2751.00,0.0051
2750.00,0.0051
2749.00,0.0051
2748.00,0.0051
2747.00,0.0051
2746.00,0.0052
2745.00,0.0052
2744.00,0.0053
2743.00,0.0054
2742.00,0.0055
2741.00,0.0056
2740.00,0.0057
2739.00,0.0058
2738.00,0.0060
2737.00,0.0061
2736.00,0.0063
2735.00,0.0064
2734.00,0.0066
2733.00,0.0067
2732.00,0.0068
2731.00,0.0070
2730.00,0.0072
2729.00,0.0074
2728.00,0.0077
2727.00,0.0080
2726.00,0.0083
2725.00,0.0085
2724.00,0.0087
2723.00,0.0087
2722.00,0.0086
2721.00,0.0084
2720.00,0.0081
2719.00,0.0078
2718.00,0.0075
2717.00,0.0072
2716.00,0.0069
2715.00,0.0066
2714.00,0.0064
2713.00,0.0062
2712.00,0.0060
2711.00,0.0058
2710.00,0.0056
2709.00,0.0055
2708.00,0.0054
2707.00,0.0053
2706.00,0.0051
2705.00,0.0050
2704.00,0.0049
2703.00,0.0048
2702.00,0.0047
2701.00,0.0047
2700.00,0.0046
2699.00,0.0046
2698.00,0.0045
2697.00,0.0045
2696.00,0.0045
2695.00,0.0045
2694.00,0.0045
2693.00,0.0046
2692.00,0.0046
2691.00,0.0046
2690.00,0.0046
2689.00,0.0046
2688.00,0.0046
2687.00,0.0046
2686.00,0.0046
2685.00,0.0045
2684.00,0.0045
2683.00,0.0046
2682.00,0.0046
2681.00,0.0046
2680.00,0.0046
2679.00,0.0046
2678.00,0.0047
2677.00,0.0047
2676.00,0.0047
2675.00,0.0046
2674.00,0.0046
2673.00,0.0045
2672.00,0.0045
2671.00,0.0045
2670.00,0.0044
2669.00,0.0044
2668.00,0.0045
2667.00,0.0045
2666.00,0.0045
2665.00,0.0046
2664.00,0.0046
2663.00,0.0047
2662.00,0.0048
2661.00,0.0048
2660.00,0.0049
2659.00,0.0049
2658.00,0.0048
2657.00,0.0048
2656.00,0.0048
2655.00,0.0047
2654.00,0.0047
2653.00,0.0046
2652.00,0.0046
2651.00,0.0045
2650.00,0.0045
2649.00,0.0045
2648.00,0.0044
2647.00,0.0044
2646.00,0.0043
2645.00,0.0043
2644.00,0.0042
2643.00,0.0041
2642.00,0.0040
2641.00,0.0040
2640.00,0.0039
2639.00,0.0039
2638.00,0.0039
2637.00,0.0039
2636.00,0.0039
2635.00,0.0039
2634.00,0.0039
2633.00,0.0039
2632.00,0.0039
2631.00,0.0039
2630.00,0.0039
2629.00,0.0040
2628.00,0.0040
2627.00,0.0040
2626.00,0.0040
2625.00,0.0040
2624.00,0.0041
2623.00,0.0041
2622.00,0.0041
2621.00,0.0042
2620.00,0.0042
2619.00,0.0042
2618.00,0.0042
2617.00,0.0042
2616.00,0.0042
2615.00,0.0041
2614.00,0.0040
2613.00,0.0040
2612.00,0.0039
2611.00,0.0038
2610.00,0.0037
2609.00,0.0037
2608.00,0.0037
2607.00,0.0036
2606.00,0.0036
2605.00,0.0036
2604.00,0.0035
2603.00,0.0033
2602.00,0.0032
2601.00,0.0032
2600.00,0.0031
2599.00,0.0032
2598.00,0.0032
2597.00,0.0032
2596.00,0.0032
2595.00,0.0032
2594.00,0.0032
2593.00,0.0032
2592.00,0.0032
2591.00,0.0033
2590.00,0.0034
2589.00,0.0035
2588.00,0.0037
2587.00,0.0038
2586.00,0.0039
2585.00,0.0039
2584.00,0.0039
2583.00,0.0040
2582.00,0.0040
2581.00,0.0040
2580.00,0.0039
2579.00,0.0038
2578.00,0.0037
2577.00,0.0036
2576.00,0.0035
2575.00,0.0033
2574.00,0.0033
2573.00,0.0031
2572.00,0.0030
2571.00,0.0029
2570.00,0.0028
2569.00,0.0027
2568.00,0.0026
2567.00,0.0026
2566.00,0.0025
2565.00,0.0025
2564.00,0.0025
2563.00,0.0025
2562.00,0.0024
2561.00,0.0024
2560.00,0.0024
2559.00,0.0023
2558.00,0.0023
2557.00,0.0022
2556.00,0.0022
2555.00,0.0021
2554.00,0.0021
2553.00,0.0021
2552.00,0.0021
2551.00,0.0021
2550.00,0.0021
2549.00,0.0021
2548.00,0.0021
2547.00,0.0020
2546.00,0.0019
2545.00,0.0019
2544.00,0.0018
2543.00,0.0018
2542.00,0.0018
2541.00,0.0017
2540.00,0.0017
2539.00,0.0017
2538.00,0.0017
2537.00,0.0018
2536.00,0.0018
2535.00,0.0017
2534.00,0.0017
2533.00,0.0017
2532.00,0.0018
2531.00,0.0018
2530.00,0.0018
2529.00,0.0018
2528.00,0.0017
2527.00,0.0017
2526.00,0.0016
2525.00,0.0015
2524.00,0.0015
2523.00,0.0014
2522.00,0.0014
2521.00,0.0014
2520.00,0.0013
2519.00,0.0013
2518.00,0.0012
2517.00,0.0012
2516.00,0.0011
2515.00,0.0011
2514.00,0.0011
2513.00,0.0011
2512.00,0.0011
2511.00,0.0011
2510.00,0.0011
2509.00,0.0012
2508.00,0.0012
2507.00,0.0012
2506.00,0.0011
2505.00,0.0011
2504.00,0.0011
2503.00,0.0011
2502.00,0.0011
2501.00,0.0011
2500.00,0.0011
2499.00,0.0011
2498.00,0.0011
2497.00,0.0011
2496.00,0.0011
2495.00,0.0011
2494.00,0.0011
2493.00,0.0011
2492.00,0.0010
2491.00,0.0010
2490.00,0.0010
2489.00,0.0010
2488.00,0.0011
2487.00,0.0010
2486.00,0.0010
2485.00,0.0010
2484.00,0.0009
2483.00,0.0009
2482.00,0.0009
2481.00,0.0010
2480.00,0.0010
2479.00,0.0011
2478.00,0.0011
2477.00,0.0011
2476.00,0.0011
2475.00,0.0011
2474.00,0.0011
2473.00,0.0010
2472.00,0.0010
2471.00,0.0009
2470.00,0.0010
2469.00,0.0010
2468.00,0.0009
2467.00,0.0009
2466.00,0.0009
2465.00,0.0009
2464.00,0.0009
2463.00,0.0009
2462.00,0.0009
2461.00,0.0009
2460.00,0.0009
2459.00,0.0010
2458.00,0.0010
2457.00,0.0010
2456.00,0.0011
2455.00,0.0011
2454.00,0.0011
2453.00,0.0011
2452.00,0.0011
2451.00,0.0011
2450.00,0.0011
2449.00,0.0011
2448.00,0.0011
2447.00,0.0011
2446.00,0.0011
2445.00,0.0011
2444.00,0.0011
2443.00,0.0011
2442.00,0.0011
2441.00,0.0010
2440.00,0.0011
2439.00,0.0011
2438.00,0.0012
2437.00,0.0012
2436.00,0.0012
2435.00,0.0011
2434.00,0.0011
2433.00,0.0011
2432.00,0.0011
2431.00,0.0011
2430.00,0.0012
2429.00,0.0012
2428.00,0.0012
2427.00,0.0011
2426.00,0.0011
2425.00,0.0011
2424.00,0.0010
2423.00,0.0010
2422.00,0.0009
2421.00,0.0009
2420.00,0.0009
2419.00,0.0009
2418.00,0.0009
2417.00,0.0010
2416.00,0.0011
2415.00,0.0011
2414.00,0.0011
2413.00,0.0011
2412.00,0.0011
2411.00,0.0010
2410.00,0.0010
2409.00,0.0010
2408.00,0.0009
2407.00,0.0009
2406.00,0.0009
2405.00,0.0009
2404.00,0.0010
2403.00,0.0010
2402.00,0.0011
2401.00,0.0010
2400.00,0.0010
2399.00,0.0010
2398.00,0.0009
2397.00,0.0009
2396.00,0.0009
2395.00,0.0009
2394.00,0.0010
2393.00,0.0009
2392.00,0.0009
2391.00,0.0009
2390.00,0.0008
2389.00,0.0008
2388.00,0.0008
2387.00,0.0008
2386.00,0.0008
2385.00,0.0007
2384.00,0.0007
2383.00,0.0006
2382.00,0.0005
2381.00,0.0004
2380.00,0.0003
2379.00,0.0003
2378.00,0.0003
2377.00,0.0003
2376.00,0.0003
2375.00,0.0003
2374.00,0.0004
2373.00,0.0005
2372.00,0.0005
2371.00,0.0005
2370.00,0.0004
2369.00,0.0004
2368.00,0.0004
2367.00,0.0004
2366.00,0.0003
2365.00,0.0003
2364.00,0.0004
2363.00,0.0004
2362.00,0.0005
2361.00,0.0005
2360.00,0.0005
2359.00,0.0005
2358.00,0.0005
2357.00,0.0005
2356.00,0.0005
2355.00,0.0005
2354.00,0.0005
2353.00,0.0005
2352.00,0.0005
2351.00,0.0005
2350.00,0.0005
2349.00,0.0006
2348.00,0.0007
2347.00,0.0007
2346.00,0.0006
2345.00,0.0006
2344.00,0.0006
2343.00,0.0007
2342.00,0.0008
2341.00,0.0009
2340.00,0.0009
2339.00,0.0008
2338.00,0.0008
2337.00,0.0008
2336.00,0.0008
2335.00,0.0007
2334.00,0.0007
2333.00,0.0007
2332.00,0.0008
2331.00,0.0008
2330.00,0.0008
2329.00,0.0009
2328.00,0.0010
2327.00,0.0013
2326.00,0.0017
2325.00,0.0020
2324.00,0.0022
2323.00,0.0022
2322.00,0.0020
2321.00,0.0018
2320.00,0.0016
2319.00,0.0015
2318.00,0.0014
2317.00,0.0014
2316.00,0.0013
2315.00,0.0012
2314.00,0.0011
2313.00,0.0011
2312.00,0.0011
2311.00,0.0011
2310.00,0.0011
2309.00,0.0011
2308.00,0.0011
2307.00,0.0012
2306.00,0.0011
2305.00,0.0011
2304.00,0.0011
2303.00,0.0011
2302.00,0.0011
2301.00,0.0012
2300.00,0.0012
2299.00,0.0012
2298.00,0.0013
2297.00,0.0013
2296.00,0.0014
2295.00,0.0014
2294.00,0.0014
2293.00,0.0014
2292.00,0.0014
2291.00,0.0015
2290.00,0.0015
2289.00,0.0017
2288.00,0.0018
2287.00,0.0019
2286.00,0.0020
2285.00,0.0021
2284.00,0.0020
2283.00,0.0019
2282.00,0.0018
2281.00,0.0016
2280.00,0.0015
2279.00,0.0014
2278.00,0.0014
2277.00,0.0014
2276.00,0.0014
2275.00,0.0015
2274.00,0.0015
2273.00,0.0016
2272.00,0.0015
2271.00,0.0015
2270.00,0.0014
2269.00,0.0015
2268.00,0.0016
2267.00,0.0016
2266.00,0.0015
2265.00,0.0013
2264.00,0.0011
2263.00,0.0010
2262.00,0.0009
2261.00,0.0010
2260.00,0.0010
2259.00,0.0010
2258.00,0.0010
2257.00,0.0010
2256.00,0.0011
2255.00,0.0011
2254.00,0.0012
2253.00,0.0012
2252.00,0.0012
2251.00,0.0011
2250.00,0.0009
2249.00,0.0009
2248.00,0.0009
2247.00,0.0009
2246.00,0.0010
2245.00,0.0010
2244.00,0.0009
2243.00,0.0008
2242.00,0.0008
2241.00,0.0009
2240.00,0.0010
2239.00,0.0011
2238.00,0.0011
2237.00,0.0010
2236.00,0.0010
2235.00,0.0010
2234.00,0.0010
2233.00,0.0011
2232.00,0.0012
2231.00,0.0013
2230.00,0.0015
2229.00,0.0015
2228.00,0.0015
2227.00,0.0012
2226.00,0.0009
2225.00,0.0007
2224.00,0.0007
2223.00,0.0008
2222.00,0.0009
2221.00,0.0009
2220.00,0.0007
2219.00,0.0006
2218.00,0.0005
2217.00,0.0006
2216.00,0.0007
2215.00,0.0008
2214.00,0.0007
2213.00,0.0007
2212.00,0.0007
2211.00,0.0007
2210.00,0.0008
2209.00,0.0008
2208.00,0.0008
2207.00,0.0008
2206.00,0.0008
2205.00,0.0009
2204.00,0.0010
2203.00,0.0010
2202.00,0.0009
2201.00,0.0009
2200.00,0.0009
2199.00,0.0009
2198.00,0.0009
2197.00,0.0009
2196.00,0.0009
2195.00,0.0011
2194.00,0.0013
2193.00,0.0014
2192.00,0.0015
2191.00,0.0015
2190.00,0.0014
2189.00,0.0013
2188.00,0.0013
2187.00,0.0014
2186.00,0.0016
2185.00,0.0016
2184.00,0.0015
2183.00,0.0012
2182.00,0.0009
2181.00,0.0006
2180.00,0.0004
2179.00,0.0004
2178.00,0.0004
2177.00,0.0005
2176.00,0.0005
2175.00,0.0005
2174.00,0.0006
2173.00,0.0007
2172.00,0.0008
2171.00,0.0009
2170.00,0.0010
2169.00,0.0011
2168.00,0.0012
2167.00,0.0013
2166.00,0.0014
2165.00,0.0017
2164.00,0.0022
2163.00,0.0025
2162.00,0.0025
2161.00,0.0019
2160.00,0.0005
2159.00,-0.0011
2158.00,-0.0023
2157.00,-0.0027
2156.00,-0.0024
2155.00,-0.0019
2154.00,-0.0015
2153.00,-0.0013
2152.00,-0.0012
2151.00,-0.0011
2150.00,-0.0009
2149.00,-0.0007
2148.00,-0.0007
2147.00,-0.0007
2146.00,-0.0008
2145.00,-0.0008
2144.00,-0.0009
2143.00,-0.0011
2142.00,-0.0014
2141.00,-0.0017
2140.00,-0.0019
2139.00,-0.0020
2138.00,-0.0020
2137.00,-0.0020
2136.00,-0.0021
2135.00,-0.0022
2134.00,-0.0022
2133.00,-0.0021
2132.00,-0.0018
2131.00,-0.0015
2130.00,-0.0012
2129.00,-0.0010
2128.00,-0.0009
2127.00,-0.0010
2126.00,-0.0010
2125.00,-0.0009
2124.00,-0.0007
2123.00,-0.0006
2122.00,-0.0004
2121.00,-0.0003
2120.00,-0.0002
2119.00,-0.0002
2118.00,-0.0001
2117.00,0.0000
2116.00,0.0001
2115.00,0.0001
2114.00,0.0002
2113.00,0.0003
2112.00,0.0004
2111.00,0.0004
2110.00,0.0003
2109.00,0.0002
2108.00,0.0002
2107.00,0.0001
2106.00,0.0000
2105.00,-0.0001
2104.00,-0.0002
2103.00,-0.0002
2102.00,-0.0002
2101.00,-0.0001
2100.00,0.0001
2099.00,0.0002
2098.00,0.0003
2097.00,0.0003
2096.00,0.0001
2095.00,-0.0001
2094.00,-0.0002
2093.00,-0.0002
2092.00,-0.0001
2091.00,-0.0000
2090.00,0.0000
2089.00,0.0001
2088.00,0.0002
2087.00,0.0002
2086.00,0.0002
2085.00,0.0001
2084.00,0.0001
2083.00,0.0001
2082.00,0.0002
2081.00,0.0003
2080.00,0.0003
2079.00,0.0004
2078.00,0.0003
2077.00,0.0004
2076.00,0.0004
2075.00,0.0005
2074.00,0.0005
2073.00,0.0005
2072.00,0.0004
2071.00,0.0003
2070.00,0.0002
2069.00,0.0000
2068.00,-0.0000
2067.00,-0.0000
2066.00,-0.0001
2065.00,-0.0002
2064.00,-0.0003
2063.00,-0.0003
2062.00,-0.0003
2061.00,-0.0003
2060.00,-0.0003
2059.00,-0.0004
2058.00,-0.0004
2057.00,-0.0002
2056.00,-0.0000
2055.00,0.0002
2054.00,0.0004
2053.00,0.0007
2052.00,0.0011
2051.00,0.0013
2050.00,0.0013
2049.00,0.0010
2048.00,0.0007
2047.00,0.0005
2046.00,0.0004
2045.00,0.0004
2044.00,0.0003
2043.00,0.0001
2042.00,-0.0002
2041.00,-0.0005
2040.00,-0.0006
2039.00,-0.0005
2038.00,-0.0002
2037.00,0.0001
2036.00,0.0001
2035.00,-0.0002
2034.00,-0.0007
2033.00,-0.0012
2032.00,-0.0013
2031.00,-0.0013
2030.00,-0.0012
2029.00,-0.0011
2028.00,-0.0009
2027.00,-0.0007
2026.00,-0.0005
2025.00,-0.0004
2024.00,-0.0004
2023.00,-0.0007
2022.00,-0.0011
2021.00,-0.0014
2020.00,-0.0017
2019.00,-0.0019
2018.00,-0.0018
2017.00,-0.0014
2016.00,-0.0011
2015.00,-0.0010
2014.00,-0.0012
2013.00,-0.0014
2012.00,-0.0015
2011.00,-0.0015
2010.00,-0.0016
2009.00,-0.0017
2008.00,-0.0017
2007.00,-0.0016
2006.00,-0.0017
2005.00,-0.0017
2004.00,-0.0016
2003.00,-0.0016
2002.00,-0.0015
2001.00,-0.0015
2000.00,-0.0013
1999.00,-0.0011
1998.00,-0.0008
1997.00,-0.0008
1996.00,-0.0009
1995.00,-0.0012
1994.00,-0.0015
1993.00,-0.0016
1992.00,-0.0015
1991.00,-0.0012
1990.00,-0.0009
1989.00,-0.0006
1988.00,-0.0003
1987.00,-0.0001
1986.00,-0.0001
1985.00,-0.0001
1984.00,-0.0002
1983.00,-0.0000
1982.00,0.0002
1981.00,0.0005
1980.00,0.0004
1979.00,0.0000
1978.00,-0.0005
1977.00,-0.0009
1976.00,-0.0011
1975.00,-0.0011
1974.00,-0.0011
1973.00,-0.0012
1972.00,-0.0014
1971.00,-0.0017
1970.00,-0.0019
1969.00,-0.0020
1968.00,-0.0019
1967.00,-0.0018
1966.00,-0.0018
1965.00,-0.0017
1964.00,-0.0016
1963.00,-0.0014
1962.00,-0.0013
1961.00,-0.0014
1960.00,-0.0016
1959.00,-0.0019
1958.00,-0.0019
1957.00,-0.0018
1956.00,-0.0015
1955.00,-0.0013
1954.00,-0.0014
1953.00,-0.0015
1952.00,-0.0016
1951.00,-0.0016
1950.00,-0.0015
1949.00,-0.0013
1948.00,-0.0012
1947.00,-0.0012
1946.00,-0.0013
1945.00,-0.0013
1944.00,-0.0013
1943.00,-0.0012
1942.00,-0.0011
1941.00,-0.0010
1940.00,-0.0010
1939.00,-0.0011
1938.00,-0.0012
1937.00,-0.0013
1936.00,-0.0012
1935.00,-0.0010
1934.00,-0.0009
1933.00,-0.0007
1932.00,-0.0007
1931.00,-0.0008
1930.00,-0.0009
1929.00,-0.0009
1928.00,-0.0008
1927.00,-0.0007
1926.00,-0.0006
1925.00,-0.0005
1924.00,-0.0005
1923.00,-0.0006
1922.00,-0.0006
1921.00,-0.0005
1920.00,-0.0006
1919.00,-0.0006
1918.00,-0.0006
1917.00,-0.0005
1916.00,-0.0003
1915.00,-0.0002
1914.00,-0.0003
1913.00,-0.0003
1912.00,-0.0003
1911.00,-0.0002
1910.00,-0.0001
1909.00,0.0000
1908.00,0.0001
1907.00,0.0000
1906.00,-0.0000
1905.00,-0.0001
1904.00,-0.0001
1903.00,-0.0001
1902.00,-0.0001
1901.00,0.0001
1900.00,0.0002
1899.00,0.0003
1898.00,0.0003
1897.00,0.0004
1896.00,0.0004
1895.00,0.0003
1894.00,0.0003
1893.00,0.0002
1892.00,0.0002
1891.00,0.0002
1890.00,0.0002
1889.00,0.0002
1888.00,0.0002
1887.00,0.0001
1886.00,0.0001
1885.00,0.0001
1884.00,0.0002
1883.00,0.0002
1882.00,0.0001
1881.00,0.0000
1880.00,-0.0001
1879.00,-0.0002
1878.00,-0.0003
1877.00,-0.0003
1876.00,-0.0003
1875.00,-0.0002
1874.00,-0.0002
1873.00,-0.0002
1872.00,-0.0001
1871.00,-0.0001
1870.00,-0.0000
1869.00,0.0000
1868.00,0.0001
1867.00,0.0001
1866.00,0.0001
1865.00,0.0002
1864.00,0.0003
1863.00,0.0003
1862.00,0.0003
1861.00,0.0002
1860.00,0.0002
1859.00,0.0002
1858.00,0.0001
1857.00,0.0001
1856.00,0.0001
1855.00,0.0001
1854.00,0.0001
1853.00,0.0002
1852.00,0.0002
1851.00,0.0002
1850.00,0.0001
1849.00,0.0000
1848.00,0.0000
1847.00,-0.0000
1846.00,-0.0001
1845.00,-0.0001
1844.00,0.0001
1843.00,0.0002
1842.00,0.0003
1841.00,0.0003
1840.00,0.0003
1839.00,0.0003
1838.00,0.0003
1837.00,0.0003
1836.00,0.0003
1835.00,0.0004
1834.00,0.0004
1833.00,0.0004
1832.00,0.0004
1831.00,0.0004
1830.00,0.0004
1829.00,0.0005
1828.00,0.0006
1827.00,0.0006
1826.00,0.0005
1825.00,0.0005
1824.00,0.0006
1823.00,0.0005
1822.00,0.0005
1821.00,0.0004
1820.00,0.0003
1819.00,0.0002
1818.00,0.0001
1817.00,0.0000
1816.00,0.0000
1815.00,0.0001
1814.00,0.0002
1813.00,0.0002
1812.00,0.0003
1811.00,0.0003
1810.00,0.0003
1809.00,0.0004
1808.00,0.0005
1807.00,0.0005
1806.00,0.0005
1805.00,0.0006
1804.00,0.0006
1803.00,0.0006
1802.00,0.0006
1801.00,0.0006
1800.00,0.0005
1799.00,0.0005
1798.00,0.0005
1797.00,0.0006
1796.00,0.0007
1795.00,0.0007
1794.00,0.0007
1793.00,0.0006
1792.00,0.0007
1791.00,0.0007
1790.00,0.0007
1789.00,0.0006
1788.00,0.0006
1787.00,0.0006
1786.00,0.0007
1785.00,0.0007
1784.00,0.0008
1783.00,0.0008
1782.00,0.0008
1781.00,0.0007
1780.00,0.0007
1779.00,0.0007
1778.00,0.0008
1777.00,0.0008
1776.00,0.0009
1775.00,0.0010
1774.00,0.0010
1773.00,0.0009
1772.00,0.0009
1771.00,0.0010
1770.00,0.0011
1769.00,0.0011
1768.00,0.0011
1767.00,0.0011
1766.00,0.0011
1765.00,0.0012
1764.00,0.0012
1763.00,0.0012
1762.00,0.0011
1761.00,0.0012
1760.00,0.0013
1759.00,0.0013
1758.00,0.0014
1757.00,0.0014
1756.00,0.0015
1755.00,0.0015
1754.00,0.0016
1753.00,0.0016
1752.00,0.0017
1751.00,0.0017
1750.00,0.0018
1749.00,0.0018
1748.00,0.0019
1747.00,0.0019
1746.00,0.0020
1745.00,0.0021
1744.00,0.0021
1743.00,0.0022
1742.00,0.0022
1741.00,0.0022
1740.00,0.0022
1739.00,0.0023
1738.00,0.0023
1737.00,0.0023
1736.00,0.0023
1735.00,0.0022
1734.00,0.0022
1733.00,0.0022
1732.00,0.0023
1731.00,0.0023
1730.00,0.0024
1729.00,0.0024
1728.00,0.0024
1727.00,0.0024
1726.00,0.0023
1725.00,0.0024
1724.00,0.0024
1723.00,0.0024
1722.00,0.0024
1721.00,0.0024
1720.00,0.0024
1719.00,0.0023
1718.00,0.0021
1717.00,0.0021
1716.00,0.0022
1715.00,0.0022
1714.00,0.0022
1713.00,0.0021
1712.00,0.0020
1711.00,0.0019
1710.00,0.0018
1709.00,0.0018
1708.00,0.0017
1707.00,0.0017
1706.00,0.0017
1705.00,0.0018
1704.00,0.0019
1703.00,0.0020
1702.00,0.0019
1701.00,0.0019
1700.00,0.0020
1699.00,0.0021
1698.00,0.0021
1697.00,0.0021
1696.00,0.0023
1695.00,0.0026
1694.00,0.0027
1693.00,0.0028
1692.00,0.0029
1691.00,0.0030
1690.00,0.0032
1689.00,0.0034
1688.00,0.0036
1687.00,0.0037
1686.00,0.0038
1685.00,0.0039
1684.00,0.0042
1683.00,0.0045
1682.00,0.0046
1681.00,0.0047
1680.00,0.0048
1679.00,0.0048
1678.00,0.0048
1677.00,0.0049
1676.00,0.0049
1675.00,0.0049
1674.00,0.0050
1673.00,0.0050
1672.00,0.0051
1671.00,0.0051
1670.00,0.0052
1669.00,0.0052
1668.00,0.0052
1667.00,0.0052
1666.00,0.0051
1665.00,0.0051
1664.00,0.0051
1663.00,0.0051
1662.00,0.0052
1661.00,0.0053
1660.00,0.0054
1659.00,0.0054
1658.00,0.0054
1657.00,0.0055
1656.00,0.0055
1655.00,0.0056
1654.00,0.0058
1653.00,0.0063
1652.00,0.0066
1651.00,0.0066
1650.00,0.0066
1649.00,0.0067
1648.00,0.0068
1647.00,0.0070
1646.00,0.0073
1645.00,0.0075
1644.00,0.0075
1643.00,0.0076
1642.00,0.0076
1641.00,0.0077
1640.00,0.0077
1639.00,0.0078
1638.00,0.0079
1637.00,0.0080
1636.00,0.0081
1635.00,0.0082
1634.00,0.0082
1633.00,0.0081
1632.00,0.0081
1631.00,0.0081
1630.00,0.0080
1629.00,0.0079
1628.00,0.0078
1627.00,0.0078
1626.00,0.0077
1625.00,0.0076
1624.00,0.0075
1623.00,0.0075
1622.00,0.0074
1621.00,0.0074
1620.00,0.0074
1619.00,0.0072
1618.00,0.0071
1617.00,0.0070
1616.00,0.0070
1615.00,0.0071
1614.00,0.0071
1613.00,0.0070
1612.00,0.0070
1611.00,0.0069
1610.00,0.0069
1609.00,0.0069
1608.00,0.0070
1607.00,0.0070
1606.00,0.0070
1605.00,0.0070
1604.00,0.0069
1603.00,0.0069
1602.00,0.0068
1601.00,0.0068
1600.00,0.0068
1599.00,0.0068
1598.00,0.0068
1597.00,0.0068
1596.00,0.0068
1595.00,0.0068
1594.00,0.0068
1593.00,0.0068
1592.00,0.0070
1591.00,0.0071
1590.00,0.0072
1589.00,0.0073
1588.00,0.0075
1587.00,0.0077
1586.00,0.0079
1585.00,0.0082
1584.00,0.0085
1583.00,0.0088
1582.00,0.0092
1581.00,0.0096
1580.00,0.0100
1579.00,0.0103
1578.00,0.0105
1577.00,0.0105
1576.00,0.0105
1575.00,0.0103
1574.00,0.0101
1573.00,0.0100
1572.00,0.0098
1571.00,0.0095
1570.00,0.0092
1569.00,0.0090
1568.00,0.0088
1567.00,0.0086
1566.00,0.0085
1565.00,0.0084
1564.00,0.0084
1563.00,0.0084
1562.00,0.0085
1561.00,0.0085
1560.00,0.0085
1559.00,0.0084
1558.00,0.0085
1557.00,0.0085
1556.00,0.0086
1555.00,0.0087
1554.00,0.0088
1553.00,0.0089
1552.00,0.0091
1551.00,0.0093
1550.00,0.0095
1549.00,0.0098
1548.00,0.0100
1547.00,0.0103
1546.00,0.0106
1545.00,0.0111
1544.00,0.0116
1543.00,0.0121
1542.00,0.0124
1541.00,0.0126
1540.00,0.0126
1539.00,0.0123
1538.00,0.0118
1537.00,0.0114
1536.00,0.0110
1535.00,0.0106
1534.00,0.0101
1533.00,0.0097
1532.00,0.0094
1531.00,0.0091
1530.00,0.0088
1529.00,0.0086
1528.00,0.0086
1527.00,0.0085
1526.00,0.0084
1525.00,0.0084
1524.00,0.0084
1523.00,0.0083
1522.00,0.0081
1521.00,0.0080
1520.00,0.0080
1519.00,0.0080
1518.00,0.0079
1517.00,0.0080
1516.00,0.0080
1515.00,0.0080
1514.00,0.0080
1513.00,0.0080
1512.00,0.0080
1511.00,0.0080
1510.00,0.0080
1509.00,0.0080
1508.00,0.0080
1507.00,0.0080
1506.00,0.0081
1505.00,0.0081
1504.00,0.0081
1503.00,0.0082
1502.00,0.0083
1501.00,0.0084
1500.00,0.0087
1499.00,0.0089
1498.00,0.0091
1497.00,0.0095
1496.00,0.0100
1495.00,0.0103
1494.00,0.0106
1493.00,0.0110
1492.00,0.0113
1491.00,0.0115
1490.00,0.0118
1489.00,0.0123
1488.00,0.0129
1487.00,0.0134
1486.00,0.0139
1485.00,0.0146
1484.00,0.0154
1483.00,0.0162
1482.00,0.0173
1481.00,0.0185
1480.00,0.0199
1479.00,0.0213
1478.00,0.0229
1477.00,0.0250
1476.00,0.0276
1475.00,0.0306
1474.00,0.0345
1473.00,0.0400
1472.00,0.0466
1471.00,0.0529
1470.00,0.0590
1469.00,0.0654
1468.00,0.0723
1467.00,0.0799
1466.00,0.0885
1465.00,0.0978
1464.00,0.1058
1463.00,0.1113
1462.00,0.1147
1461.00,0.1170
1460.00,0.1185
1459.00,0.1194
1458.00,0.1201
1457.00,0.1207
1456.00,0.1206
1455.00,0.1199
1454.00,0.1188
1453.00,0.1172
1452.00,0.1146
1451.00,0.1109
1450.00,0.1058
1449.00,0.0987
1448.00,0.0897
1447.00,0.0801
1446.00,0.0714
1445.00,0.0640
1444.00,0.0577
1443.00,0.0526
1442.00,0.0488
1441.00,0.0461
1440.00,0.0446
1439.00,0.0440
1438.00,0.0442
1437.00,0.0444
1436.00,0.0436
1435.00,0.0412
1434.00,0.0377
1433.00,0.0334
1432.00,0.0290
1431.00,0.0251
1430.00,0.0220
1429.00,0.0198
1428.00,0.0182
1427.00,0.0173
1426.00,0.0167
1425.00,0.0161
1424.00,0.0157
1423.00,0.0154
1422.00,0.0153
1421.00,0.0151
1420.00,0.0148
1419.00,0.0146
1418.00,0.0144
1417.00,0.0141
1416.00,0.0138
1415.00,0.0135
1414.00,0.0133
1413.00,0.0130
1412.00,0.0128
1411.00,0.0127
1410.00,0.0126
1409.00,0.0125
1408.00,0.0123
1407.00,0.0123
1406.00,0.0123
1405.00,0.0122
1404.00,0.0121
1403.00,0.0121
1402.00,0.0122
1401.00,0.0123
1400.00,0.0123
1399.00,0.0125
1398.00,0.0127
1397.00,0.0128
1396.00,0.0129
1395.00,0.0133
1394.00,0.0138
1393.00,0.0142
1392.00,0.0147
1391.00,0.0153
1390.00,0.0163
1389.00,0.0177
1388.00,0.0198
1387.00,0.0230
1386.00,0.0272
1385.00,0.0326
1384.00,0.0402
1383.00,0.0511
1382.00,0.0659
1381.00,0.0853
1380.00,0.1092
1379.00,0.1361
1378.00,0.1614
1377.00,0.1791
1376.00,0.1839
1375.00,0.1733
1374.00,0.1505
1373.00,0.1239
1372.00,0.1000
1371.00,0.0804
1370.00,0.0650
1369.00,0.0533
1368.00,0.0452
1367.00,0.0402
1366.00,0.0374
1365.00,0.0362
1364.00,0.0364
1363.00,0.0377
1362.00,0.0398
1361.00,0.0420
1360.00,0.0436
1359.00,0.0441
1358.00,0.0431
1357.00,0.0407
1356.00,0.0373
1355.00,0.0335
1354.00,0.0298
1353.00,0.0267
1352.00,0.0241
1351.00,0.0220
1350.00,0.0203
1349.00,0.0189
1348.00,0.0177
1347.00,0.0168
1346.00,0.0159
1345.00,0.0152
1344.00,0.0146
1343.00,0.0141
1342.00,0.0137
1341.00,0.0134
1340.00,0.0131
1339.00,0.0130
1338.00,0.0129
1337.00,0.0128
1336.00,0.0128
1335.00,0.0129
1334.00,0.0132
1333.00,0.0135
1332.00,0.0140
1331.00,0.0143
1330.00,0.0145
1329.00,0.0144
1328.00,0.0141
1327.00,0.0136
1326.00,0.0130
1325.00,0.0124
1324.00,0.0118
1323.00,0.0113
1322.00,0.0109
1321.00,0.0106
1320.00,0.0104
1319.00,0.0103
1318.00,0.0102
1317.00,0.0100
1316.00,0.0099
1315.00,0.0099
1314.00,0.0098
1313.00,0.0099
1312.00,0.0100
1311.00,0.0103
1310.00,0.0107
1309.00,0.0114
1308.00,0.0123
1307.00,0.0135
1306.00,0.0146
1305.00,0.0153
1304.00,0.0155
1303.00,0.0151
1302.00,0.0146
1301.00,0.0141
1300.00,0.0138
1299.00,0.0138
1298.00,0.0138
1297.00,0.0139
1296.00,0.0138
1295.00,0.0135
1294.00,0.0131
1293.00,0.0125
1292.00,0.0119
1291.00,0.0114
1290.00,0.0109
1289.00,0.0105
1288.00,0.0101
1287.00,0.0099
1286.00,0.0096
1285.00,0.0095
1284.00,0.0093
1283.00,0.0092
1282.00,0.0091
1281.00,0.0090
1280.00,0.0090
1279.00,0.0089
1278.00,0.0088
1277.00,0.0087
1276.00,0.0086
1275.00,0.0086
1274.00,0.0085
1273.00,0.0085
1272.00,0.0086
1271.00,0.0087
1270.00,0.0087
1269.00,0.0088
1268.00,0.0089
1267.00,0.0090
1266.00,0.0092
1265.00,0.0094
1264.00,0.0097
1263.00,0.0100
1262.00,0.0103
1261.00,0.0107
1260.00,0.0113
1259.00,0.0120
1258.00,0.0128
1257.00,0.0134
1256.00,0.0137
1255.00,0.0135
1254.00,0.0129
1253.00,0.0120
1252.00,0.0112
1251.00,0.0105
1250.00,0.0100
1249.00,0.0096
1248.00,0.0093
1247.00,0.0091
1246.00,0.0089
1245.00,0.0087
1244.00,0.0085
1243.00,0.0084
1242.00,0.0083
1241.00,0.0082
1240.00,0.0082
1239.00,0.0081
1238.00,0.0081
1237.00,0.0080
1236.00,0.0080
1235.00,0.0080
1234.00,0.0081
1233.00,0.0082
1232.00,0.0083
1231.00,0.0085
1230.00,0.0086
1229.00,0.0088
1228.00,0.0089
1227.00,0.0091
1226.00,0.0094
1225.00,0.0097
1224.00,0.0101
1223.00,0.0105
1222.00,0.0109
1221.00,0.0113
1220.00,0.0116
1219.00,0.0117
1218.00,0.0116
1217.00,0.0114
1216.00,0.0111
1215.00,0.0108
1214.00,0.0105
1213.00,0.0102
1212.00,0.0099
1211.00,0.0097
1210.00,0.0095
1209.00,0.0093
1208.00,0.0092
1207.00,0.0090
1206.00,0.0089
1205.00,0.0089
1204.00,0.0088
1203.00,0.0088
1202.00,0.0088
1201.00,0.0088
1200.00,0.0089
1199.00,0.0089
1198.00,0.0090
1197.00,0.0090
1196.00,0.0090
1195.00,0.0091
1194.00,0.0091
1193.00,0.0090
1192.00,0.0090
1191.00,0.0090
1190.00,0.0090
1189.00,0.0090
1188.00,0.0090
1187.00,0.0090
1186.00,0.0090
1185.00,0.0090
1184.00,0.0091
1183.00,0.0092
1182.00,0.0093
1181.00,0.0095
1180.00,0.0098
1179.00,0.0103
1178.00,0.0109
1177.00,0.0118
1176.00,0.0129
1175.00,0.0143
1174.00,0.0162
1173.00,0.0186
1172.00,0.0216
1171.00,0.0248
1170.00,0.0280
1169.00,0.0305
1168.00,0.0320
1167.00,0.0322
1166.00,0.0313
1165.00,0.0297
1164.00,0.0279
1163.00,0.0261
1162.00,0.0245
1161.00,0.0232
1160.00,0.0222
1159.00,0.0214
1158.00,0.0209
1157.00,0.0204
1156.00,0.0201
1155.00,0.0199
1154.00,0.0197
1153.00,0.0195
1152.00,0.0191
1151.00,0.0184
1150.00,0.0176
1149.00,0.0166
1148.00,0.0157
1147.00,0.0149
1146.00,0.0140
1145.00,0.0132
1144.00,0.0125
1143.00,0.0119
1142.00,0.0114
1141.00,0.0109
1140.00,0.0104
1139.00,0.0100
1138.00,0.0097
1137.00,0.0093
1136.00,0.0091
1135.00,0.0089
1134.00,0.0088
1133.00,0.0087
1132.00,0.0087
1131.00,0.0087
1130.00,0.0087
1129.00,0.0087
1128.00,0.0088
1127.00,0.0089
1126.00,0.0091
1125.00,0.0092
1124.00,0.0092
1123.00,0.0091
1122.00,0.0090
1121.00,0.0090
1120.00,0.0091
1119.00,0.0092
1118.00,0.0093
1117.00,0.0095
1116.00,0.0096
1115.00,0.0097
1114.00,0.0098
1113.00,0.0099
1112.00,0.0100
1111.00,0.0103
1110.00,0.0106
1109.00,0.0111
1108.00,0.0116
1107.00,0.0122
1106.00,0.0128
1105.00,0.0134
1104.00,0.0138
1103.00,0.0140
1102.00,0.0139
1101.00,0.0135
1100.00,0.0129
1099.00,0.0122
1098.00,0.0116
1097.00,0.0110
1096.00,0.0105
1095.00,0.0102
1094.00,0.0100
1093.00,0.0098
1092.00,0.0096
1091.00,0.0094
1090.00,0.0093
1089.00,0.0092
1088.00,0.0091
1087.00,0.0090
1086.00,0.0090
1085.00,0.0090
1084.00,0.0090
1083.00,0.0091
1082.00,0.0090
1081.00,0.0089
1080.00,0.0087
1079.00,0.0085
1078.00,0.0084
1077.00,0.0083
1076.00,0.0083
1075.00,0.0083
1074.00,0.0083
1073.00,0.0083
1072.00,0.0083
1071.00,0.0082
1070.00,0.0082
1069.00,0.0082
1068.00,0.0082
1067.00,0.0083
1066.00,0.0083
1065.00,0.0084
1064.00,0.0085
1063.00,0.0086
1062.00,0.0087
1061.00,0.0088
1060.00,0.0089
1059.00,0.0090
1058.00,0.0091
1057.00,0.0092
1056.00,0.0093
1055.00,0.0095
1054.00,0.0097
1053.00,0.0100
1052.00,0.0103
1051.00,0.0106
1050.00,0.0110
1049.00,0.0115
1048.00,0.0121
1047.00,0.0127
1046.00,0.0131
1045.00,0.0133
1044.00,0.0134
1043.00,0.0133
1042.00,0.0131
1041.00,0.0130
1040.00,0.0129
1039.00,0.0129
1038.00,0.0129
1037.00,0.0130
1036.00,0.0129
1035.00,0.0128
1034.00,0.0125
1033.00,0.0123
1032.00,0.0121
1031.00,0.0120
1030.00,0.0120
1029.00,0.0120
1028.00,0.0120
1027.00,0.0120
1026.00,0.0122
1025.00,0.0123
1024.00,0.0125
1023.00,0.0127
1022.00,0.0129
1021.00,0.0131
1020.00,0.0133
1019.00,0.0135
1018.00,0.0137
1017.00,0.0139
1016.00,0.0140
1015.00,0.0141
1014.00,0.0141
1013.00,0.0142
1012.00,0.0143
1011.00,0.0144
1010.00,0.0144
1009.00,0.0145
1008.00,0.0146
1007.00,0.0149
1006.00,0.0156
1005.00,0.0167
1004.00,0.0183
1003.00,0.0206
1002.00,0.0236
1001.00,0.0274
1000.00,0.0314
999.00,0.0348
998.00,0.0365
997.00,0.0358
996.00,0.0331
995.00,0.0291
994.00,0.0249
993.00,0.0212
992.00,0.0183
991.00,0.0162
990.00,0.0147
989.00,0.0137
988.00,0.0130
987.00,0.0126
986.00,0.0125
985.00,0.0126
984.00,0.0130
983.00,0.0137
982.00,0.0147
981.00,0.0161
980.00,0.0181
979.00,0.0209
978.00,0.0244
977.00,0.0286
976.00,0.0332
975.00,0.0376
974.00,0.0408
973.00,0.0419
972.00,0.0404
971.00,0.0366
970.00,0.0314
969.00,0.0260
968.00,0.0215
967.00,0.0180
966.00,0.0155
965.00,0.0137
964.00,0.0125
963.00,0.0115
962.00,0.0108
961.00,0.0102
960.00,0.0098
959.00,0.0095
958.00,0.0093
957.00,0.0091
956.00,0.0089
955.00,0.0087
954.00,0.0085
953.00,0.0083
952.00,0.0081
951.00,0.0078
950.00,0.0076
949.00,0.0076
948.00,0.0078
947.00,0.0080
946.00,0.0082
945.00,0.0084
944.00,0.0087
943.00,0.0090
942.00,0.0092
941.00,0.0094
940.00,0.0095
939.00,0.0093
938.00,0.0089
937.00,0.0084
936.00,0.0079
935.00,0.0075
934.00,0.0072
933.00,0.0071
932.00,0.0070
931.00,0.0070
930.00,0.0069
929.00,0.0067
928.00,0.0066
927.00,0.0065
926.00,0.0064
925.00,0.0064
924.00,0.0064
923.00,0.0065
922.00,0.0065
921.00,0.0065
920.00,0.0065
919.00,0.0066
918.00,0.0066
917.00,0.0067
916.00,0.0066
915.00,0.0066
914.00,0.0067
913.00,0.0067
912.00,0.0069
911.00,0.0071
910.00,0.0073
909.00,0.0076
908.00,0.0081
907.00,0.0086
906.00,0.0094
905.00,0.0104
904.00,0.0117
903.00,0.0134
902.00,0.0153
901.00,0.0169
900.00,0.0180
899.00,0.0181
898.00,0.0172
897.00,0.0157
896.00,0.0140
895.00,0.0123
894.00,0.0109
893.00,0.0098
892.00,0.0091
891.00,0.0085
890.00,0.0082
889.00,0.0080
888.00,0.0079
887.00,0.0079
886.00,0.0078
885.00,0.0077
884.00,0.0076
883.00,0.0076
882.00,0.0075
881.00,0.0073
880.00,0.0072
879.00,0.0072
878.00,0.0073
877.00,0.0076
876.00,0.0079
875.00,0.0081
874.00,0.0081
873.00,0.0079
872.00,0.0077
871.00,0.0077
870.00,0.0077
869.00,0.0078
868.00,0.0079
867.00,0.0080
866.00,0.0080
865.00,0.0080
864.00,0.0081
863.00,0.0082
862.00,0.0084
861.00,0.0085
860.00,0.0087
859.00,0.0088
858.00,0.0089
857.00,0.0090
856.00,0.0092
855.00,0.0093
854.00,0.0094
853.00,0.0096
852.00,0.0098
851.00,0.0102
850.00,0.0108
849.00,0.0115
848.00,0.0123
847.00,0.0136
846.00,0.0157
845.00,0.0190
844.00,0.0239
843.00,0.0295
842.00,0.0343
841.00,0.0360
840.00,0.0339
839.00,0.0290
838.00,0.0234
837.00,0.0188
836.00,0.0157
835.00,0.0138
834.00,0.0127
833.00,0.0119
832.00,0.0115
831.00,0.0112
830.00,0.0109
829.00,0.0106
828.00,0.0104
827.00,0.0101
826.00,0.0099
825.00,0.0097
824.00,0.0097
823.00,0.0098
822.00,0.0098
821.00,0.0100
820.00,0.0101
819.00,0.0105
818.00,0.0109
817.00,0.0116
816.00,0.0125
815.00,0.0136
814.00,0.0152
813.00,0.0171
812.00,0.0192
811.00,0.0211
810.00,0.0224
809.00,0.0229
808.00,0.0224
807.00,0.0210
806.00,0.0191
805.00,0.0171
804.00,0.0154
803.00,0.0141
802.00,0.0131
801.00,0.0124
800.00,0.0118
799.00,0.0112
798.00,0.0107
797.00,0.0102
796.00,0.0099
795.00,0.0097
794.00,0.0094
793.00,0.0090
792.00,0.0086
791.00,0.0084
790.00,0.0084
789.00,0.0085
788.00,0.0084
787.00,0.0082
786.00,0.0080
785.00,0.0078
784.00,0.0075
783.00,0.0074
782.00,0.0072
781.00,0.0071
780.00,0.0071
779.00,0.0071
778.00,0.0071
777.00,0.0071
776.00,0.0071
775.00,0.0070
774.00,0.0070
773.00,0.0070
772.00,0.0072
771.00,0.0073
770.00,0.0073
769.00,0.0073
768.00,0.0073
767.00,0.0073
766.00,0.0074
765.00,0.0074
764.00,0.0075
763.00,0.0076
762.00,0.0077
761.00,0.0077
760.00,0.0076
759.00,0.0075
758.00,0.0076
757.00,0.0078
756.00,0.0079
755.00,0.0079
754.00,0.0081
753.00,0.0082
752.00,0.0084
751.00,0.0085
750.00,0.0085
749.00,0.0086
748.00,0.0086
747.00,0.0087
746.00,0.0088
745.00,0.0090
744.00,0.0092
743.00,0.0095
742.00,0.0099
741.00,0.0103
740.00,0.0107
739.00,0.0111
738.00,0.0114
737.00,0.0117
736.00,0.0121
735.00,0.0126
734.00,0.0131
733.00,0.0137
732.00,0.0145
731.00,0.0153
730.00,0.0158
729.00,0.0161
728.00,0.0162
727.00,0.0163
726.00,0.0164
725.00,0.0166
724.00,0.0171
723.00,0.0177
722.00,0.0184
721.00,0.0188
720.00,0.0187
719.00,0.0180
718.00,0.0168
717.00,0.0156
716.00,0.0146
715.00,0.0138
714.00,0.0133
713.00,0.0129
712.00,0.0126
711.00,0.0122
710.00,0.0120
709.00,0.0118
708.00,0.0116
707.00,0.0115
706.00,0.0113
705.00,0.0111
704.00,0.0110
703.00,0.0110
702.00,0.0110
701.00,0.0109
700.00,0.0109
699.00,0.0108
698.00,0.0106
697.00,0.0104
696.00,0.0103
695.00,0.0103
694.00,0.0103
693.00,0.0104
692.00,0.0104
691.00,0.0104
690.00,0.0105
689.00,0.0105
688.00,0.0104
687.00,0.0103
686.00,0.0102
685.00,0.0102
684.00,0.0103
683.00,0.0105
682.00,0.0106
681.00,0.0106
680.00,0.0105
679.00,0.0104
678.00,0.0103
677.00,0.0102
676.00,0.0103
675.00,0.0105
674.00,0.0109
673.00,0.0112
672.00,0.0116
671.00,0.0117
670.00,0.0117
669.00,0.0116
668.00,0.0114
667.00,0.0113
666.00,0.0112
665.00,0.0109
664.00,0.0105
663.00,0.0103
662.00,0.0101
661.00,0.0100
660.00,0.0099
659.00,0.0097
658.00,0.0095
657.00,0.0094
656.00,0.0094
655.00,0.0094
654.00,0.0095
653.00,0.0096
652.00,0.0096
651.00,0.0096
650.00,0.0094
649.00,0.0092
648.00,0.0090
647.00,0.0091
646.00,0.0093
645.00,0.0095
644.00,0.0096
643.00,0.0096
642.00,0.0097
641.00,0.0099
640.00,0.0099
639.00,0.0097
638.00,0.0095
637.00,0.0094
636.00,0.0094
635.00,0.0093
634.00,0.0093
633.00,0.0092
632.00,0.0094
631.00,0.0097
630.00,0.0099
629.00,0.0100
628.00,0.0099
627.00,0.0096
626.00,0.0094
625.00,0.0094
624.00,0.0096
623.00,0.0098
622.00,0.0099
621.00,0.0098
620.00,0.0098
619.00,0.0098
618.00,0.0098
617.00,0.0098
616.00,0.0096
615.00,0.0093
614.00,0.0090
613.00,0.0087
612.00,0.0086
611.00,0.0087
610.00,0.0090
609.00,0.0092
608.00,0.0094
607.00,0.0096
606.00,0.0098
605.00,0.0099
604.00,0.0096
603.00,0.0093
602.00,0.0090
601.00,0.0088
600.00,0.0087
599.00,0.0088
598.00,0.0090
597.00,0.0091
596.00,0.0093
595.00,0.0094
594.00,0.0095
593.00,0.0096
592.00,0.0095
591.00,0.0094
590.00,0.0093
589.00,0.0094
588.00,0.0094
587.00,0.0095
586.00,0.0098
585.00,0.0102
584.00,0.0105
583.00,0.0106
582.00,0.0104
581.00,0.0102
580.00,0.0102
579.00,0.0103
578.00,0.0102
577.00,0.0101
576.00,0.0099
575.00,0.0099
574.00,0.0099
573.00,0.0099
572.00,0.0097
571.00,0.0097
570.00,0.0098
569.00,0.0099
568.00,0.0099
567.00,0.0099
566.00,0.0100
565.00,0.0101
564.00,0.0102
563.00,0.0101
562.00,0.0099
561.00,0.0096
560.00,0.0093
559.00,0.0092
558.00,0.0092
557.00,0.0093
556.00,0.0094
555.00,0.0096
554.00,0.0100
553.00,0.0102
552.00,0.0101
551.00,0.0099
550.00,0.0096
549.00,0.0095
548.00,0.0094
547.00,0.0094
546.00,0.0098
545.00,0.0104
544.00,0.0109
543.00,0.0110
542.00,0.0109
541.00,0.0109
540.00,0.0111
539.00,0.0115
538.00,0.0118
537.00,0.0120
536.00,0.0121
535.00,0.0123
534.00,0.0123
533.00,0.0121
532.00,0.0119
531.00,0.0118
530.00,0.0120
529.00,0.0123
528.00,0.0124
527.00,0.0122
526.00,0.0121
525.00,0.0119
524.00,0.0117
523.00,0.0111
522.00,0.0103
521.00,0.0095
520.00,0.0092
519.00,0.0096
518.00,0.0103
517.00,0.0108
516.00,0.0106
515.00,0.0100
514.00,0.0093
513.00,0.0088
512.00,0.0087
511.00,0.0089
510.00,0.0094
509.00,0.0097
508.00,0.0098
507.00,0.0097
506.00,0.0098
505.00,0.0100
504.00,0.0102
503.00,0.0101
502.00,0.0099
501.00,0.0098
500.00,0.0098
499.00,0.0098
498.00,0.0099
497.00,0.0101
496.00,0.0102
495.00,0.0101
494.00,0.0095
493.00,0.0088
492.00,0.0085
491.00,0.0089
490.00,0.0095
489.00,0.0098
488.00,0.0094
487.00,0.0085
486.00,0.0079
485.00,0.0082
484.00,0.0093
483.00,0.0103
482.00,0.0107
481.00,0.0103
480.00,0.0096
479.00,0.0093
478.00,0.0097
477.00,0.0107
476.00,0.0121
475.00,0.0138
474.00,0.0152
473.00,0.0159
472.00,0.0161
471.00,0.0160
470.00,0.0159
469.00,0.0158
468.00,0.0156
467.00,0.0156
466.00,0.0161
465.00,0.0173
464.00,0.0185
463.00,0.0193
462.00,0.0197
461.00,0.0203
460.00,0.0213
459.00,0.0225
458.00,0.0227
457.00,0.0226
456.00,0.0220
455.00,0.0210
454.00,0.0197
453.00,0.0187
452.00,0.0185
451.00,0.0189
450.00,0.0192
