Created as New Dataset,Sample 076 By Administrator Date Wednesday, September 03 2025
cm-1,A
4000.00,0.0009
3999.00,0.0009
3998.00,0.0008
3997.00,0.0008
3996.00,0.0008
3995.00,0.0008
3994.00,0.0008
3993.00,0.0008
3992.00,0.0008
3991.00,0.0008
3990.00,0.0008
3989.00,0.0008
3988.00,0.0008
3987.00,0.0008
3986.00,0.0008
3985.00,0.0008
3984.00,0.0008
3983.00,0.0007
3982.00,0.0007
3981.00,0.0007
3980.00,0.0007
3979.00,0.0007
3978.00,0.0007
3977.00,0.0007
3976.00,0.0006
3975.00,0.0006
3974.00,0.0006
3973.00,0.0006
3972.00,0.0006
3971.00,0.0007
3970.00,0.0007
3969.00,0.0007
3968.00,0.0007
3967.00,0.0007
3966.00,0.0007
3965.00,0.0006
3964.00,0.0006
3963.00,0.0006
3962.00,0.0006
3961.00,0.0006
3960.00,0.0006
3959.00,0.0006
3958.00,0.0006
3957.00,0.0006
3956.00,0.0006
3955.00,0.0006
3954.00,0.0006
3953.00,0.0006
3952.00,0.0006
3951.00,0.0006
3950.00,0.0006
3949.00,0.0006
3948.00,0.0006
3947.00,0.0005
3946.00,0.0006
3945.00,0.0006
3944.00,0.0006
3943.00,0.0007
3942.00,0.0007
3941.00,0.0007
3940.00,0.0007
3939.00,0.0007
3938.00,0.0007
3937.00,0.0007
3936.00,0.0006
3935.00,0.0006
3934.00,0.0006
3933.00,0.0006
3932.00,0.0006
3931.00,0.0006
3930.00,0.0006
3929.00,0.0006
3928.00,0.0007
3927.00,0.0007
3926.00,0.0007
3925.00,0.0007
3924.00,0.0007
3923.00,0.0007
3922.00,0.0007
3921.00,0.0006
3920.00,0.0006
3919.00,0.0006
3918.00,0.0006
3917.00,0.0006
3916.00,0.0006
3915.00,0.0006
3914.00,0.0006
3913.00,0.0006
3912.00,0.0006
3911.00,0.0006
3910.00,0.0006
3909.00,0.0006
3908.00,0.0006
3907.00,0.0006
3906.00,0.0006
3905.00,0.0006
3904.00,0.0006
3903.00,0.0006
3902.00,0.0006
3901.00,0.0006
3900.00,0.0006
3899.00,0.0006
3898.00,0.0006
3897.00,0.0005
3896.00,0.0005
3895.00,0.0005
3894.00,0.0005
3893.00,0.0005
3892.00,0.0006
3891.00,0.0006
3890.00,0.0006
3889.00,0.0005
3888.00,0.0005
3887.00,0.0005
3886.00,0.0005
3885.00,0.0006
3884.00,0.0006
3883.00,0.0006
3882.00,0.0006
3881.00,0.0006
3880.00,0.0007
3879.00,0.0007
3878.00,0.0006
3877.00,0.0006
3876.00,0.0006
3875.00,0.0006
3874.00,0.0006
3873.00,0.0005
3872.00,0.0005
3871.00,0.0004
3870.00,0.0004
3869.00,0.0004
3868.00,0.0004
3867.00,0.0004
3866.00,0.0004
3865.00,0.0004
3864.00,0.0004
3863.00,0.0005
3862.00,0.0005
3861.00,0.0005
3860.00,0.0005
3859.00,0.0005
3858.00,0.0005
3857.00,0.0005
3856.00,0.0004
3855.00,0.0004
3854.00,0.0003
3853.00,0.0003
3852.00,0.0003
3851.00,0.0003
3850.00,0.0004
3849.00,0.0005
3848.00,0.0005
3847.00,0.0005
3846.00,0.0005
3845.00,0.0005
3844.00,0.0005
3843.00,0.0004
3842.00,0.0004
3841.00,0.0003
3840.00,0.0003
3839.00,0.0003
3838.00,0.0003
3837.00,0.0003
3836.00,0.0003
3835.00,0.0004
3834.00,0.0004
3833.00,0.0005
3832.00,0.0005
3831.00,0.0004
3830.00,0.0004
3829.00,0.0004
3828.00,0.0004
3827.00,0.0004
3826.00,0.0004
3825.00,0.0004
3824.00,0.0004
3823.00,0.0004
3822.00,0.0004
3821.00,0.0004
3820.00,0.0004
3819.00,0.0004
3818.00,0.0004
3817.00,0.0004
3816.00,0.0005
3815.00,0.0005
3814.00,0.0005
3813.00,0.0005
3812.00,0.0005
3811.00,0.0005
3810.00,0.0006
3809.00,0.0006
3808.00,0.0006
3807.00,0.0006
3806.00,0.0006
3805.00,0.0005
3804.00,0.0004
3803.00,0.0004
3802.00,0.0003
3801.00,0.0003
3800.00,0.0003
3799.00,0.0003
3798.00,0.0004
3797.00,0.0005
3796.00,0.0006
3795.00,0.0006
3794.00,0.0006
3793.00,0.0006
3792.00,0.0006
3791.00,0.0006
3790.00,0.0006
3789.00,0.0006
3788.00,0.0006
3787.00,0.0006
3786.00,0.0005
3785.00,0.0006
3784.00,0.0006
3783.00,0.0006
3782.00,0.0006
3781.00,0.0006
3780.00,0.0007
3779.00,0.0007
3778.00,0.0007
3777.00,0.0006
3776.00,0.0006
3775.00,0.0006
3774.00,0.0006
3773.00,0.0006
3772.00,0.0006
3771.00,0.0006
3770.00,0.0007
3769.00,0.0007
3768.00,0.0006
3767.00,0.0006
3766.00,0.0006
3765.00,0.0006
3764.00,0.0006
3763.00,0.0006
3762.00,0.0006
3761.00,0.0005
3760.00,0.0005
3759.00,0.0005
3758.00,0.0005
3757.00,0.0005
3756.00,0.0004
3755.00,0.0004
3754.00,0.0004
3753.00,0.0004
3752.00,0.0003
3751.00,0.0003
3750.00,0.0003
3749.00,0.0002
3748.00,0.0002
3747.00,0.0003
3746.00,0.0003
3745.00,0.0003
3744.00,0.0004
3743.00,0.0004
3742.00,0.0003
3741.00,0.0003
3740.00,0.0003
3739.00,0.0003
3738.00,0.0002
3737.00,0.0001
3736.00,0.0001
3735.00,0.0002
3734.00,0.0002
3733.00,0.0002
3732.00,0.0002
3731.00,0.0002
3730.00,0.0003
3729.00,0.0003
3728.00,0.0003
3727.00,0.0004
3726.00,0.0004
3725.00,0.0004
3724.00,0.0004
3723.00,0.0005
3722.00,0.0005
3721.00,0.0005
3720.00,0.0004
3719.00,0.0004
3718.00,0.0004
3717.00,0.0004
3716.00,0.0004
3715.00,0.0004
3714.00,0.0004
3713.00,0.0004
3712.00,0.0004
3711.00,0.0004
3710.00,0.0004
3709.00,0.0004
3708.00,0.0004
3707.00,0.0003
3706.00,0.0003
3705.00,0.0003
3704.00,0.0003
3703.00,0.0003
3702.00,0.0004
3701.00,0.0004
3700.00,0.0004
3699.00,0.0004
3698.00,0.0004
3697.00,0.0003
3696.00,0.0003
3695.00,0.0003
3694.00,0.0003
3693.00,0.0003
3692.00,0.0003
3691.00,0.0002
3690.00,0.0002
3689.00,0.0002
3688.00,0.0003
3687.00,0.0003
3686.00,0.0003
3685.00,0.0003
3684.00,0.0003
3683.00,0.0003
3682.00,0.0003
3681.00,0.0004
3680.00,0.0004
3679.00,0.0004
3678.00,0.0003
3677.00,0.0003
3676.00,0.0003
3675.00,0.0003
3674.00,0.0003
3673.00,0.0002
3672.00,0.0002
3671.00,0.0002
3670.00,0.0002
3669.00,0.0002
3668.00,0.0002
3667.00,0.0002
3666.00,0.0003
3665.00,0.0004
3664.00,0.0004
3663.00,0.0004
3662.00,0.0004
3661.00,0.0003
3660.00,0.0003
3659.00,0.0003
3658.00,0.0003
3657.00,0.0003
3656.00,0.0003
3655.00,0.0003
3654.00,0.0004
3653.00,0.0004
3652.00,0.0004
3651.00,0.0003
3650.00,0.0003
3649.00,0.0003
3648.00,0.0003
3647.00,0.0003
3646.00,0.0003
3645.00,0.0003
3644.00,0.0003
3643.00,0.0004
3642.00,0.0004
3641.00,0.0005
3640.00,0.0005
3639.00,0.0005
3638.00,0.0005
3637.00,0.0005
3636.00,0.0005
3635.00,0.0005
3634.00,0.0005
3633.00,0.0005
3632.00,0.0006
3631.00,0.0006
3630.00,0.0006
3629.00,0.0006
3628.00,0.0006
3627.00,0.0006
3626.00,0.0006
3625.00,0.0006
3624.00,0.0005
3623.00,0.0005
3622.00,0.0005
3621.00,0.0005
3620.00,0.0005
3619.00,0.0005
3618.00,0.0005
3617.00,0.0006
3616.00,0.0006
3615.00,0.0006
3614.00,0.0007
3613.00,0.0007
3612.00,0.0008
3611.00,0.0009
3610.00,0.0009
3609.00,0.0009
3608.00,0.0010
3607.00,0.0010
3606.00,0.0010
3605.00,0.0009
3604.00,0.0009
3603.00,0.0009
3602.00,0.0009
3601.00,0.0009
3600.00,0.0009
3599.00,0.0010
3598.00,0.0009
3597.00,0.0009
3596.00,0.0009
3595.00,0.0009
3594.00,0.0010
3593.00,0.0011
3592.00,0.0012
3591.00,0.0012
3590.00,0.0013
3589.00,0.0013
3588.00,0.0012
3587.00,0.0012
3586.00,0.0012
3585.00,0.0012
3584.00,0.0012
3583.00,0.0013
3582.00,0.0013
3581.00,0.0013
3580.00,0.0014
3579.00,0.0014
3578.00,0.0014
3577.00,0.0014
3576.00,0.0014
3575.00,0.0014
3574.00,0.0015
3573.00,0.0015
3572.00,0.0015
3571.00,0.0015
3570.00,0.0016
3569.00,0.0016
3568.00,0.0016
3567.00,0.0016
3566.00,0.0017
3565.00,0.0017
3564.00,0.0017
3563.00,0.0017
3562.00,0.0017
3561.00,0.0017
3560.00,0.0018
3559.00,0.0018
3558.00,0.0018
3557.00,0.0018
3556.00,0.0019
3555.00,0.0019
3554.00,0.0019
3553.00,0.0019
3552.00,0.0019
3551.00,0.0019
3550.00,0.0019
3549.00,0.0020
3548.00,0.0020
3547.00,0.0020
3546.00,0.0021
3545.00,0.0021
3544.00,0.0022
3543.00,0.0022
3542.00,0.0022
3541.00,0.0022
3540.00,0.0022
3539.00,0.0023
3538.00,0.0023
3537.00,0.0023
3536.00,0.0023
3535.00,0.0023
3534.00,0.0023
3533.00,0.0023
3532.00,0.0023
3531.00,0.0023
3530.00,0.0023
3529.00,0.0023
3528.00,0.0023
3527.00,0.0024
3526.00,0.0024
3525.00,0.0024
3524.00,0.0025
3523.00,0.0025
3522.00,0.0025
3521.00,0.0025
3520.00,0.0025
3519.00,0.0025
3518.00,0.0025
3517.00,0.0026
3516.00,0.0026
3515.00,0.0026
3514.00,0.0026
3513.00,0.0026
3512.00,0.0026
3511.00,0.0026
3510.00,0.0026
3509.00,0.0026
3508.00,0.0027
3507.00,0.0028
3506.00,0.0028
3505.00,0.0028
3504.00,0.0028
3503.00,0.0028
3502.00,0.0029
3501.00,0.0029
3500.00,0.0029
3499.00,0.0029
3498.00,0.0029
3497.00,0.0029
3496.00,0.0030
3495.00,0.0030
3494.00,0.0031
3493.00,0.0031
3492.00,0.0031
3491.00,0.0031
3490.00,0.0031
3489.00,0.0032
3488.00,0.0032
3487.00,0.0032
3486.00,0.0032
3485.00,0.0032
3484.00,0.0032
3483.00,0.0032
3482.00,0.0032
3481.00,0.0033
3480.00,0.0033
3479.00,0.0033
3478.00,0.0033
3477.00,0.0034
3476.00,0.0034
3475.00,0.0034
3474.00,0.0035
3473.00,0.0035
3472.00,0.0035
3471.00,0.0035
3470.00,0.0035
3469.00,0.0035
3468.00,0.0035
3467.00,0.0035
3466.00,0.0035
3465.00,0.0036
3464.00,0.0036
3463.00,0.0036
3462.00,0.0036
3461.00,0.0036
3460.00,0.0036
3459.00,0.0036
3458.00,0.0036
3457.00,0.0037
3456.00,0.0037
3455.00,0.0038
3454.00,0.0038
3453.00,0.0038
3452.00,0.0039
3451.00,0.0039
3450.00,0.0038
3449.00,0.0038
3448.00,0.0038
3447.00,0.0038
3446.00,0.0039
3445.00,0.0039
3444.00,0.0040
3443.00,0.0040
3442.00,0.0040
3441.00,0.0040
3440.00,0.0041
3439.00,0.0041
3438.00,0.0041
3437.00,0.0041
3436.00,0.0041
3435.00,0.0041
3434.00,0.0041
3433.00,0.0042
3432.00,0.0042
3431.00,0.0043
3430.00,0.0043
3429.00,0.0044
3428.00,0.0044
3427.00,0.0043
3426.00,0.0043
3425.00,0.0043
3424.00,0.0043
3423.00,0.0044
3422.00,0.0044
3421.00,0.0045
3420.00,0.0045
3419.00,0.0046
3418.00,0.0046
3417.00,0.0047
3416.00,0.0047
3415.00,0.0047
3414.00,0.0047
3413.00,0.0047
3412.00,0.0047
3411.00,0.0047
3410.00,0.0047
3409.00,0.0047
3408.00,0.0047
3407.00,0.0047
3406.00,0.0047
3405.00,0.0047
3404.00,0.0048
3403.00,0.0048
3402.00,0.0048
3401.00,0.0048
3400.00,0.0049
3399.00,0.0049
3398.00,0.0049
3397.00,0.0049
3396.00,0.0049
3395.00,0.0050
3394.00,0.0050
3393.00,0.0050
3392.00,0.0050
3391.00,0.0050
3390.00,0.0050
3389.00,0.0050
3388.00,0.0050
3387.00,0.0050
3386.00,0.0050
3385.00,0.0050
3384.00,0.0050
3383.00,0.0050
3382.00,0.0050
3381.00,0.0050
3380.00,0.0050
3379.00,0.0050
3378.00,0.0050
3377.00,0.0050
3376.00,0.0051
3375.00,0.0051
3374.00,0.0051
3373.00,0.0051
3372.00,0.0051
3371.00,0.0051
3370.00,0.0051
3369.00,0.0051
3368.00,0.0051
3367.00,0.0051
3366.00,0.0051
3365.00,0.0051
3364.00,0.0051
3363.00,0.0051
3362.00,0.0052
3361.00,0.0052
3360.00,0.0052
3359.00,0.0052
3358.00,0.0052
3357.00,0.0052
3356.00,0.0052
3355.00,0.0052
3354.00,0.0052
3353.00,0.0053
3352.00,0.0053
3351.00,0.0053
3350.00,0.0053
3349.00,0.0053
3348.00,0.0053
3347.00,0.0054
3346.00,0.0054
3345.00,0.0054
3344.00,0.0054
3343.00,0.0054
3342.00,0.0054
3341.00,0.0055
3340.00,0.0055
3339.00,0.0055
3338.00,0.0054
3337.00,0.0054
3336.00,0.0054
3335.00,0.0054
3334.00,0.0054
3333.00,0.0054
3332.00,0.0054
3331.00,0.0054
3330.00,0.0054
3329.00,0.0053
3328.00,0.0053
3327.00,0.0053
3326.00,0.0053
3325.00,0.0053
3324.00,0.0053
3323.00,0.0053
3322.00,0.0053
3321.00,0.0053
3320.00,0.0053
3319.00,0.0054
3318.00,0.0054
3317.00,0.0054
3316.00,0.0054
3315.00,0.0054
3314.00,0.0054
3313.00,0.0055
3312.00,0.0055
3311.00,0.0055
3310.00,0.0055
3309.00,0.0055
3308.00,0.0055
3307.00,0.0055
3306.00,0.0055
3305.00,0.0055
3304.00,0.0056
3303.00,0.0056
3302.00,0.0056
3301.00,0.0056
3300.00,0.0056
3299.00,0.0056
3298.00,0.0055
3297.00,0.0055
3296.00,0.0055
3295.00,0.0055
3294.00,0.0054
3293.00,0.0054
3292.00,0.0054
3291.00,0.0054
3290.00,0.0053
3289.00,0.0053
3288.00,0.0053
3287.00,0.0053
3286.00,0.0053
3285.00,0.0053
3284.00,0.0053
3283.00,0.0052
3282.00,0.0052
3281.00,0.0051
3280.00,0.0051
3279.00,0.0051
3278.00,0.0051
3277.00,0.0051
3276.00,0.0051
3275.00,0.0051
3274.00,0.0051
3273.00,0.0051
3272.00,0.0051
3271.00,0.0050
3270.00,0.0050
3269.00,0.0050
3268.00,0.0050
3267.00,0.0050
3266.00,0.0050
3265.00,0.0050
3264.00,0.0050
3263.00,0.0050
3262.00,0.0049
3261.00,0.0049
3260.00,0.0049
3259.00,0.0048
3258.00,0.0048
3257.00,0.0047
3256.00,0.0047
3255.00,0.0046
3254.00,0.0046
3253.00,0.0046
3252.00,0.0046
3251.00,0.0046
3250.00,0.0046
3249.00,0.0046
3248.00,0.0046
3247.00,0.0046
3246.00,0.0046
3245.00,0.0045
3244.00,0.0045
3243.00,0.0045
3242.00,0.0045
3241.00,0.0045
3240.00,0.0045
3239.00,0.0045
3238.00,0.0045
3237.00,0.0045
3236.00,0.0045
3235.00,0.0045
3234.00,0.0045
3233.00,0.0045
3232.00,0.0045
3231.00,0.0045
3230.00,0.0045
3229.00,0.0045
3228.00,0.0045
3227.00,0.0046
3226.00,0.0046
3225.00,0.0046
3224.00,0.0047
3223.00,0.0047
3222.00,0.0047
3221.00,0.0047
3220.00,0.0047
3219.00,0.0047
3218.00,0.0047
3217.00,0.0047
3216.00,0.0048
3215.00,0.0048
3214.00,0.0048
3213.00,0.0048
3212.00,0.0048
3211.00,0.0048
3210.00,0.0048
3209.00,0.0048
3208.00,0.0048
3207.00,0.0048
3206.00,0.0048
3205.00,0.0049
3204.00,0.0049
3203.00,0.0049
3202.00,0.0049
3201.00,0.0048
3200.00,0.0048
3199.00,0.0049
3198.00,0.0049
3197.00,0.0049
3196.00,0.0049
3195.00,0.0048
3194.00,0.0048
3193.00,0.0048
3192.00,0.0048
3191.00,0.0048
3190.00,0.0048
3189.00,0.0048
3188.00,0.0048
3187.00,0.0048
3186.00,0.0048
3185.00,0.0047
3184.00,0.0047
3183.00,0.0047
3182.00,0.0047
3181.00,0.0047
3180.00,0.0046
3179.00,0.0046
3178.00,0.0046
3177.00,0.0045
3176.00,0.0045
3175.00,0.0045
3174.00,0.0045
3173.00,0.0044
3172.00,0.0044
3171.00,0.0044
3170.00,0.0043
3169.00,0.0044
3168.00,0.0044
3167.00,0.0044
3166.00,0.0044
3165.00,0.0044
3164.00,0.0043
3163.00,0.0043
3162.00,0.0043
3161.00,0.0043
3160.00,0.0044
3159.00,0.0044
3158.00,0.0044
3157.00,0.0043
3156.00,0.0043
3155.00,0.0042
3154.00,0.0042
3153.00,0.0042
3152.00,0.0042
3151.00,0.0042
3150.00,0.0042
3149.00,0.0042
3148.00,0.0042
3147.00,0.0041
3146.00,0.0041
3145.00,0.0042
3144.00,0.0042
3143.00,0.0042
3142.00,0.0042
3141.00,0.0042
3140.00,0.0041
3139.00,0.0041
3138.00,0.0040
3137.00,0.0040
3136.00,0.0040
3135.00,0.0040
3134.00,0.0040
3133.00,0.0040
3132.00,0.0039
3131.00,0.0039
3130.00,0.0039
3129.00,0.0039
3128.00,0.0039
3127.00,0.0039
3126.00,0.0038
3125.00,0.0037
3124.00,0.0037
3123.00,0.0036
3122.00,0.0036
3121.00,0.0036
3120.00,0.0037
3119.00,0.0037
3118.00,0.0037
3117.00,0.0036
3116.00,0.0036
3115.00,0.0035
3114.00,0.0035
3113.00,0.0035
3112.00,0.0035
3111.00,0.0035
3110.00,0.0034
3109.00,0.0034
3108.00,0.0034
3107.00,0.0034
3106.00,0.0034
3105.00,0.0034
3104.00,0.0034
3103.00,0.0034
3102.00,0.0034
3101.00,0.0033
3100.00,0.0033
3099.00,0.0033
3098.00,0.0034
3097.00,0.0034
3096.00,0.0034
3095.00,0.0034
3094.00,0.0034
3093.00,0.0034
3092.00,0.0034
3091.00,0.0034
3090.00,0.0034
3089.00,0.0034
3088.00,0.0034
3087.00,0.0034
3086.00,0.0034
3085.00,0.0034
3084.00,0.0034
3083.00,0.0034
3082.00,0.0034
3081.00,0.0034
3080.00,0.0034
3079.00,0.0034
3078.00,0.0034
3077.00,0.0034
3076.00,0.0034
3075.00,0.0035
3074.00,0.0035
3073.00,0.0035
3072.00,0.0036
3071.00,0.0036
3070.00,0.0036
3069.00,0.0035
3068.00,0.0035
3067.00,0.0035
3066.00,0.0035
3065.00,0.0036
3064.00,0.0036
3063.00,0.0037
3062.00,0.0037
3061.00,0.0037
3060.00,0.0037
3059.00,0.0037
3058.00,0.0037
3057.00,0.0037
3056.00,0.0036
3055.00,0.0037
3054.00,0.0037
3053.00,0.0037
3052.00,0.0037
3051.00,0.0037
3050.00,0.0038
3049.00,0.0038
3048.00,0.0038
3047.00,0.0038
3046.00,0.0038
3045.00,0.0038
3044.00,0.0039
3043.00,0.0039
3042.00,0.0039
3041.00,0.0040
3040.00,0.0040
3039.00,0.0040
3038.00,0.0041
3037.00,0.0041
3036.00,0.0041
3035.00,0.0041
3034.00,0.0041
3033.00,0.0042
3032.00,0.0042
3031.00,0.0042
3030.00,0.0043
3029.00,0.0043
3028.00,0.0043
3027.00,0.0043
3026.00,0.0044
3025.00,0.0044
3024.00,0.0045
3023.00,0.0046
3022.00,0.0047
3021.00,0.0047
3020.00,0.0048
3019.00,0.0049
3018.00,0.0049
3017.00,0.0050
3016.00,0.0051
3015.00,0.0052
3014.00,0.0052
3013.00,0.0053
3012.00,0.0053
3011.00,0.0054
3010.00,0.0055
3009.00,0.0055
3008.00,0.0056
3007.00,0.0057
3006.00,0.0058
3005.00,0.0060
3004.00,0.0061
3003.00,0.0063
3002.00,0.0064
3001.00,0.0066
3000.00,0.0068
2999.00,0.0069
2998.00,0.0071
2997.00,0.0074
2996.00,0.0077
2995.00,0.0080
2994.00,0.0084
2993.00,0.0088
2992.00,0.0092
2991.00,0.0097
2990.00,0.0102
2989.00,0.0108
2988.00,0.0115
2987.00,0.0122
2986.00,0.0130
2985.00,0.0137
2984.00,0.0146
2983.00,0.0156
2982.00,0.0169
2981.00,0.0184
2980.00,0.0201
2979.00,0.0221
2978.00,0.0243
2977.00,0.0269
2976.00,0.0298
2975.00,0.0330
2974.00,0.0366
2973.00,0.0407
2972.00,0.0453
2971.00,0.0505
2970.00,0.0563
2969.00,0.0626
2968.00,0.0694
2967.00,0.0764
2966.00,0.0836
2965.00,0.0908
2964.00,0.0976
2963.00,0.1040
2962.00,0.1096
2961.00,0.1145
2960.00,0.1189
2959.00,0.1231
2958.00,0.1277
2957.00,0.1330
2956.00,0.1394
2955.00,0.1470
2954.00,0.1556
2953.00,0.1644
2952.00,0.1726
2951.00,0.1789
2950.00,0.1821
2949.00,0.1814
2948.00,0.1766
2947.00,0.1680
2946.00,0.1568
2945.00,0.1445
2944.00,0.1327
2943.00,0.1225
2942.00,0.1145
2941.00,0.1090
2940.00,0.1060
2939.00,0.1053
2938.00,0.1065
2937.00,0.1096
2936.00,0.1143
2935.00,0.1205
2934.00,0.1281
2933.00,0.1370
2932.00,0.1471
2931.00,0.1582
2930.00,0.1700
2929.00,0.1822
2928.00,0.1946
2927.00,0.2069
2926.00,0.2189
2925.00,0.2307
2924.00,0.2423
2923.00,0.2540
2922.00,0.2657
2921.00,0.2772
2920.00,0.2877
2919.00,0.2961
2918.00,0.3011
2917.00,0.3016
2916.00,0.2970
2915.00,0.2881
2914.00,0.2759
2913.00,0.2622
2912.00,0.2483
2911.00,0.2353
2910.00,0.2235
2909.00,0.2130
2908.00,0.2035
2907.00,0.1947
2906.00,0.1864
2905.00,0.1784
2904.00,0.1707
2903.00,0.1632
2902.00,0.1561
2901.00,0.1493
2900.00,0.1429
2899.00,0.1368
2898.00,0.1313
2897.00,0.1262
2896.00,0.1217
2895.00,0.1177
2894.00,0.1144
2893.00,0.1116
2892.00,0.1094
2891.00,0.1078
2890.00,0.1068
2889.00,0.1062
2888.00,0.1060
2887.00,0.1061
2886.00,0.1065
2885.00,0.1074
2884.00,0.1087
2883.00,0.1106
2882.00,0.1131
2881.00,0.1160
2880.00,0.1190
2879.00,0.1216
2878.00,0.1235
2877.00,0.1245
2876.00,0.1244
2875.00,0.1238
2874.00,0.1231
2873.00,0.1228
2872.00,0.1233
2871.00,0.1246
2870.00,0.1265
2869.00,0.1285
2868.00,0.1299
2867.00,0.1299
2866.00,0.1278
2865.00,0.1232
2864.00,0.1167
2863.00,0.1089
2862.00,0.1011
2861.00,0.0942
2860.00,0.0888
2859.00,0.0850
2858.00,0.0828
2857.00,0.0821
2856.00,0.0825
2855.00,0.0838
2854.00,0.0858
2853.00,0.0882
2852.00,0.0905
2851.00,0.0925
2850.00,0.0937
2849.00,0.0941
2848.00,0.0940
2847.00,0.0940
2846.00,0.0948
2845.00,0.0967
2844.00,0.0999
2843.00,0.1040
2842.00,0.1087
2841.00,0.1134
2840.00,0.1172
2839.00,0.1194
2838.00,0.1192
2837.00,0.1162
2836.00,0.1102
2835.00,0.1017
2834.00,0.0917
2833.00,0.0811
2832.00,0.0710
2831.00,0.0620
2830.00,0.0544
2829.00,0.0481
2828.00,0.0430
2827.00,0.0389
2826.00,0.0356
2825.00,0.0328
2824.00,0.0306
2823.00,0.0286
2822.00,0.0270
2821.00,0.0256
2820.00,0.0244
2819.00,0.0234
2818.00,0.0225
2817.00,0.0217
2816.00,0.0209
2815.00,0.0203
2814.00,0.0197
2813.00,0.0191
2812.00,0.0185
2811.00,0.0180
2810.00,0.0174
2809.00,0.0168
2808.00,0.0162
2807.00,0.0155
2806.00,0.0148
2805.00,0.0142
2804.00,0.0135
2803.00,0.0129
2802.00,0.0124
2801.00,0.0119
2800.00,0.0115
2799.00,0.0112
2798.00,0.0109
2797.00,0.0107
2796.00,0.0105
2795.00,0.0102
2794.00,0.0100
2793.00,0.0097
2792.00,0.0094
2791.00,0.0092
2790.00,0.0089
2789.00,0.0086
2788.00,0.0084
2787.00,0.0081
2786.00,0.0079
2785.00,0.0076
2784.00,0.0074
2783.00,0.0072
2782.00,0.0071
2781.00,0.0069
2780.00,0.0067
2779.00,0.0065
2778.00,0.0064
2777.00,0.0062
2776.00,0.0061
2775.00,0.0060
2774.00,0.0059
2773.00,0.0059
2772.00,0.0058
2771.00,0.0057
2770.00,0.0057
2769.00,0.0056
2768.00,0.0056
2767.00,0.0056
2766.00,0.0056
2765.00,0.0055
2764.00,0.0055
2763.00,0.0055
2762.00,0.0055
2761.00,0.0055
2760.00,0.0054
2759.00,0.0054
2758.00,0.0054
2757.00,0.0054
2756.00,0.0053
2755.00,0.0053
2754.00,0.0053
2753.00,0.0053
2752.00,0.0053
2751.00,0.0053
2750.00,0.0052
2749.00,0.0052
2748.00,0.0052
2747.00,0.0052
2746.00,0.0053
2745.00,0.0054
2744.00,0.0055
2743.00,0.0055
2742.00,0.0056
2741.00,0.0057
2740.00,0.0058
2739.00,0.0059
2738.00,0.0060
2737.00,0.0062
2736.00,0.0063
2735.00,0.0065
2734.00,0.0067
2733.00,0.0068
2732.00,0.0070
2731.00,0.0071
2730.00,0.0073
2729.00,0.0076
2728.00,0.0079
2727.00,0.0082
2726.00,0.0085
2725.00,0.0087
2724.00,0.0089
2723.00,0.0089
2722.00,0.0088
2721.00,0.0086
2720.00,0.0083
2719.00,0.0080
2718.00,0.0076
2717.00,0.0073
2716.00,0.0070
2715.00,0.0067
2714.00,0.0065
2713.00,0.0063
2712.00,0.0061
2711.00,0.0059
2710.00,0.0057
2709.00,0.0056
2708.00,0.0054
2707.00,0.0053
2706.00,0.0052
2705.00,0.0051
2704.00,0.0050
2703.00,0.0048
2702.00,0.0048
2701.00,0.0047
2700.00,0.0046
2699.00,0.0046
2698.00,0.0045
2697.00,0.0045
2696.00,0.0045
2695.00,0.0045
2694.00,0.0045
2693.00,0.0045
2692.00,0.0045
2691.00,0.0045
2690.00,0.0045
2689.00,0.0045
2688.00,0.0045
2687.00,0.0045
2686.00,0.0045
2685.00,0.0045
2684.00,0.0045
2683.00,0.0045
2682.00,0.0046
2681.00,0.0046
2680.00,0.0046
2679.00,0.0046
2678.00,0.0046
2677.00,0.0046
2676.00,0.0046
2675.00,0.0046
2674.00,0.0046
2673.00,0.0045
2672.00,0.0045
2671.00,0.0045
2670.00,0.0045
2669.00,0.0046
2668.00,0.0046
2667.00,0.0046
2666.00,0.0046
2665.00,0.0047
2664.00,0.0047
2663.00,0.0048
2662.00,0.0048
2661.00,0.0048
2660.00,0.0048
2659.00,0.0049
2658.00,0.0048
2657.00,0.0048
2656.00,0.0048
2655.00,0.0048
2654.00,0.0047
2653.00,0.0046
2652.00,0.0046
2651.00,0.0045
2650.00,0.0045
2649.00,0.0045
2648.00,0.0044
2647.00,0.0044
2646.00,0.0044
2645.00,0.0043
2644.00,0.0043
2643.00,0.0042
2642.00,0.0042
2641.00,0.0041
2640.00,0.0041
2639.00,0.0040
2638.00,0.0040
2637.00,0.0039
2636.00,0.0039
2635.00,0.0039
2634.00,0.0039
2633.00,0.0039
2632.00,0.0039
2631.00,0.0040
2630.00,0.0040
2629.00,0.0040
2628.00,0.0040
2627.00,0.0040
2626.00,0.0040
2625.00,0.0040
2624.00,0.0041
2623.00,0.0041
2622.00,0.0041
2621.00,0.0041
2620.00,0.0041
2619.00,0.0042
2618.00,0.0042
2617.00,0.0042
2616.00,0.0042
2615.00,0.0042
2614.00,0.0041
2613.00,0.0041
2612.00,0.0040
2611.00,0.0039
2610.00,0.0039
2609.00,0.0038
2608.00,0.0038
2607.00,0.0037
2606.00,0.0036
2605.00,0.0035
2604.00,0.0034
2603.00,0.0034
2602.00,0.0033
2601.00,0.0033
2600.00,0.0033
2599.00,0.0033
2598.00,0.0034
2597.00,0.0034
2596.00,0.0034
2595.00,0.0034
2594.00,0.0034
2593.00,0.0034
2592.00,0.0034
2591.00,0.0035
2590.00,0.0036
2589.00,0.0037
2588.00,0.0038
2587.00,0.0039
2586.00,0.0040
2585.00,0.0041
2584.00,0.0041
2583.00,0.0041
2582.00,0.0041
2581.00,0.0041
2580.00,0.0040
2579.00,0.0039
2578.00,0.0038
2577.00,0.0037
2576.00,0.0035
2575.00,0.0034
2574.00,0.0033
2573.00,0.0032
2572.00,0.0031
2571.00,0.0029
2570.00,0.0028
2569.00,0.0028
2568.00,0.0027
2567.00,0.0027
2566.00,0.0027
2565.00,0.0026
2564.00,0.0026
2563.00,0.0025
2562.00,0.0025
2561.00,0.0025
2560.00,0.0025
2559.00,0.0025
2558.00,0.0024
2557.00,0.0023
2556.00,0.0023
2555.00,0.0022
2554.00,0.0022
2553.00,0.0021
2552.00,0.0021
2551.00,0.0021
2550.00,0.0021
2549.00,0.0021
2548.00,0.0020
2547.00,0.0019
2546.00,0.0019
2545.00,0.0018
2544.00,0.0018
2543.00,0.0018
2542.00,0.0018
2541.00,0.0018
2540.00,0.0018
2539.00,0.0017
2538.00,0.0017
2537.00,0.0017
2536.00,0.0018
2535.00,0.0018
2534.00,0.0017
2533.00,0.0017
2532.00,0.0017
2531.00,0.0017
2530.00,0.0017
2529.00,0.0017
2528.00,0.0017
2527.00,0.0017
2526.00,0.0016
2525.00,0.0016
2524.00,0.0015
2523.00,0.0015
2522.00,0.0015
2521.00,0.0015
2520.00,0.0014
2519.00,0.0013
2518.00,0.0013
2517.00,0.0012
2516.00,0.0012
2515.00,0.0012
2514.00,0.0012
2513.00,0.0011
2512.00,0.0011
2511.00,0.0011
2510.00,0.0011
2509.00,0.0011
2508.00,0.0011
2507.00,0.0012
2506.00,0.0012
2505.00,0.0011
2504.00,0.0011
2503.00,0.0011
2502.00,0.0010
2501.00,0.0011
2500.00,0.0011
2499.00,0.0011
2498.00,0.0012
2497.00,0.0012
2496.00,0.0012
2495.00,0.0013
2494.00,0.0013
2493.00,0.0012
2492.00,0.0012
2491.00,0.0011
2490.00,0.0011
2489.00,0.0012
2488.00,0.0012
2487.00,0.0012
2486.00,0.0012
2485.00,0.0012
2484.00,0.0011
2483.00,0.0011
2482.00,0.0011
2481.00,0.0011
2480.00,0.0012
2479.00,0.0012
2478.00,0.0012
2477.00,0.0011
2476.00,0.0011
2475.00,0.0010
2474.00,0.0010
2473.00,0.0010
2472.00,0.0010
2471.00,0.0009
2470.00,0.0009
2469.00,0.0009
2468.00,0.0009
2467.00,0.0009
2466.00,0.0010
2465.00,0.0010
2464.00,0.0010
2463.00,0.0010
2462.00,0.0010
2461.00,0.0010
2460.00,0.0011
2459.00,0.0011
2458.00,0.0011
2457.00,0.0011
2456.00,0.0011
2455.00,0.0011
2454.00,0.0011
2453.00,0.0011
2452.00,0.0011
2451.00,0.0011
2450.00,0.0012
2449.00,0.0012
2448.00,0.0012
2447.00,0.0012
2446.00,0.0012
2445.00,0.0012
2444.00,0.0012
2443.00,0.0012
2442.00,0.0011
2441.00,0.0011
2440.00,0.0011
2439.00,0.0011
2438.00,0.0012
2437.00,0.0012
2436.00,0.0012
2435.00,0.0012
2434.00,0.0012
2433.00,0.0012
2432.00,0.0012
2431.00,0.0011
2430.00,0.0011
2429.00,0.0011
2428.00,0.0012
2427.00,0.0012
2426.00,0.0012
2425.00,0.0012
2424.00,0.0011
2423.00,0.0010
2422.00,0.0010
2421.00,0.0010
2420.00,0.0010
2419.00,0.0010
2418.00,0.0011
2417.00,0.0010
2416.00,0.0010
2415.00,0.0010
2414.00,0.0010
2413.00,0.0011
2412.00,0.0011
2411.00,0.0011
2410.00,0.0011
2409.00,0.0010
2408.00,0.0010
2407.00,0.0009
2406.00,0.0009
2405.00,0.0010
2404.00,0.0010
2403.00,0.0011
2402.00,0.0011
2401.00,0.0010
2400.00,0.0010
2399.00,0.0009
2398.00,0.0009
2397.00,0.0008
2396.00,0.0008
2395.00,0.0009
2394.00,0.0009
2393.00,0.0009
2392.00,0.0009
2391.00,0.0009
2390.00,0.0009
2389.00,0.0008
2388.00,0.0008
2387.00,0.0009
2386.00,0.0008
2385.00,0.0008
2384.00,0.0007
2383.00,0.0006
2382.00,0.0005
2381.00,0.0004
2380.00,0.0004
2379.00,0.0003
2378.00,0.0002
2377.00,0.0002
2376.00,0.0002
2375.00,0.0003
2374.00,0.0004
2373.00,0.0004
2372.00,0.0004
2371.00,0.0004
2370.00,0.0003
2369.00,0.0003
2368.00,0.0002
2367.00,0.0002
2366.00,0.0001
2365.00,0.0001
2364.00,0.0001
2363.00,0.0002
2362.00,0.0003
2361.00,0.0003
2360.00,0.0003
2359.00,0.0003
2358.00,0.0003
2357.00,0.0003
2356.00,0.0003
2355.00,0.0004
2354.00,0.0004
2353.00,0.0004
2352.00,0.0003
2351.00,0.0003
2350.00,0.0004
2349.00,0.0004
2348.00,0.0005
2347.00,0.0005
2346.00,0.0004
2345.00,0.0004
2344.00,0.0004
2343.00,0.0006
2342.00,0.0007
2341.00,0.0008
2340.00,0.0008
2339.00,0.0007
2338.00,0.0007
2337.00,0.0007
2336.00,0.0007
2335.00,0.0006
2334.00,0.0006
2333.00,0.0006
2332.00,0.0006
2331.00,0.0006
2330.00,0.0007
2329.00,0.0009
2328.00,0.0011
2327.00,0.0013
2326.00,0.0016
2325.00,0.0019
2324.00,0.0020
2323.00,0.0020
2322.00,0.0019
2321.00,0.0017
2320.00,0.0016
2319.00,0.0015
2318.00,0.0014
2317.00,0.0014
2316.00,0.0013
2315.00,0.0011
2314.00,0.0010
2313.00,0.0010
2312.00,0.0010
2311.00,0.0010
2310.00,0.0011
2309.00,0.0012
2308.00,0.0012
2307.00,0.0012
2306.00,0.0012
2305.00,0.0012
2304.00,0.0012
2303.00,0.0012
2302.00,0.0013
2301.00,0.0013
2300.00,0.0013
2299.00,0.0014
2298.00,0.0014
2297.00,0.0014
2296.00,0.0014
2295.00,0.0014
2294.00,0.0014
2293.00,0.0015
2292.00,0.0016
2291.00,0.0017
2290.00,0.0018
2289.00,0.0019
2288.00,0.0021
2287.00,0.0022
2286.00,0.0023
2285.00,0.0023
2284.00,0.0022
2283.00,0.0021
2282.00,0.0020
2281.00,0.0018
2280.00,0.0018
2279.00,0.0017
2278.00,0.0016
2277.00,0.0016
2276.00,0.0015
2275.00,0.0015
2274.00,0.0015
2273.00,0.0014
2272.00,0.0013
2271.00,0.0013
2270.00,0.0013
2269.00,0.0015
2268.00,0.0016
2267.00,0.0016
2266.00,0.0016
2265.00,0.0014
2264.00,0.0013
2263.00,0.0011
2262.00,0.0010
2261.00,0.0011
2260.00,0.0012
2259.00,0.0012
2258.00,0.0012
2257.00,0.0011
2256.00,0.0010
2255.00,0.0009
2254.00,0.0009
2253.00,0.0010
2252.00,0.0012
2251.00,0.0012
2250.00,0.0012
2249.00,0.0011
2248.00,0.0010
2247.00,0.0009
2246.00,0.0009
2245.00,0.0009
2244.00,0.0010
2243.00,0.0009
2242.00,0.0009
2241.00,0.0009
2240.00,0.0010
2239.00,0.0012
2238.00,0.0013
2237.00,0.0013
2236.00,0.0012
2235.00,0.0011
2234.00,0.0011
2233.00,0.0010
2232.00,0.0010
2231.00,0.0011
2230.00,0.0011
2229.00,0.0012
2228.00,0.0012
2227.00,0.0010
2226.00,0.0009
2225.00,0.0007
2224.00,0.0006
2223.00,0.0006
2222.00,0.0007
2221.00,0.0008
2220.00,0.0007
2219.00,0.0006
2218.00,0.0005
2217.00,0.0005
2216.00,0.0007
2215.00,0.0008
2214.00,0.0008
2213.00,0.0007
2212.00,0.0006
2211.00,0.0006
2210.00,0.0006
2209.00,0.0006
2208.00,0.0006
2207.00,0.0005
2206.00,0.0005
2205.00,0.0007
2204.00,0.0008
2203.00,0.0009
2202.00,0.0009
2201.00,0.0008
2200.00,0.0007
2199.00,0.0007
2198.00,0.0008
2197.00,0.0009
2196.00,0.0011
2195.00,0.0012
2194.00,0.0013
2193.00,0.0014
2192.00,0.0014
2191.00,0.0014
2190.00,0.0013
2189.00,0.0012
2188.00,0.0013
2187.00,0.0014
2186.00,0.0015
2185.00,0.0015
2184.00,0.0014
2183.00,0.0012
2182.00,0.0008
2181.00,0.0006
2180.00,0.0005
2179.00,0.0006
2178.00,0.0007
2177.00,0.0007
2176.00,0.0007
2175.00,0.0006
2174.00,0.0007
2173.00,0.0009
2172.00,0.0010
2171.00,0.0010
2170.00,0.0011
2169.00,0.0012
2168.00,0.0014
2167.00,0.0017
2166.00,0.0020
2165.00,0.0022
2164.00,0.0024
2163.00,0.0024
2162.00,0.0021
2161.00,0.0014
2160.00,0.0001
2159.00,-0.0015
2158.00,-0.0027
2157.00,-0.0031
2156.00,-0.0028
2155.00,-0.0022
2154.00,-0.0017
2153.00,-0.0014
2152.00,-0.0012
2151.00,-0.0011
2150.00,-0.0008
2149.00,-0.0005
2148.00,-0.0003
2147.00,-0.0003
2146.00,-0.0004
2145.00,-0.0005
2144.00,-0.0007
2143.00,-0.0008
2142.00,-0.0009
2141.00,-0.0010
2140.00,-0.0012
2139.00,-0.0013
2138.00,-0.0014
2137.00,-0.0016
2136.00,-0.0019
2135.00,-0.0021
2134.00,-0.0021
2133.00,-0.0019
2132.00,-0.0015
2131.00,-0.0011
2130.00,-0.0008
2129.00,-0.0007
2128.00,-0.0007
2127.00,-0.0008
2126.00,-0.0009
2125.00,-0.0009
2124.00,-0.0007
2123.00,-0.0006
2122.00,-0.0004
2121.00,-0.0003
2120.00,-0.0002
2119.00,-0.0002
2118.00,-0.0002
2117.00,-0.0001
2116.00,-0.0000
2115.00,0.0001
2114.00,0.0002
2113.00,0.0003
2112.00,0.0005
2111.00,0.0005
2110.00,0.0004
2109.00,0.0003
2108.00,0.0003
2107.00,0.0003
2106.00,0.0004
2105.00,0.0004
2104.00,0.0003
2103.00,0.0002
2102.00,0.0002
2101.00,0.0001
2100.00,0.0001
2099.00,0.0001
2098.00,0.0001
2097.00,0.0000
2096.00,-0.0001
2095.00,-0.0002
2094.00,-0.0002
2093.00,-0.0001
2092.00,-0.0000
2091.00,0.0000
2090.00,0.0000
2089.00,0.0001
2088.00,0.0001
2087.00,0.0002
2086.00,0.0002
2085.00,0.0002
2084.00,0.0002
2083.00,0.0002
2082.00,0.0002
2081.00,0.0003
2080.00,0.0004
2079.00,0.0004
2078.00,0.0004
2077.00,0.0004
2076.00,0.0004
2075.00,0.0003
2074.00,0.0003
2073.00,0.0003
2072.00,0.0004
2071.00,0.0005
2070.00,0.0005
2069.00,0.0005
2068.00,0.0005
2067.00,0.0003
2066.00,0.0001
2065.00,-0.0000
2064.00,-0.0001
2063.00,-0.0001
2062.00,0.0000
2061.00,0.0001
2060.00,-0.0000
2059.00,-0.0001
2058.00,-0.0002
2057.00,-0.0001
2056.00,-0.0000
2055.00,0.0000
2054.00,0.0001
2053.00,0.0004
2052.00,0.0008
2051.00,0.0010
2050.00,0.0010
2049.00,0.0009
2048.00,0.0007
2047.00,0.0005
2046.00,0.0004
2045.00,0.0004
2044.00,0.0003
2043.00,0.0002
2042.00,0.0000
2041.00,-0.0002
2040.00,-0.0003
2039.00,-0.0003
2038.00,-0.0002
2037.00,-0.0001
2036.00,0.0000
2035.00,-0.0000
2034.00,-0.0003
2033.00,-0.0007
2032.00,-0.0010
2031.00,-0.0011
2030.00,-0.0010
2029.00,-0.0008
2028.00,-0.0006
2027.00,-0.0006
2026.00,-0.0006
2025.00,-0.0005
2024.00,-0.0004
2023.00,-0.0004
2022.00,-0.0006
2021.00,-0.0009
2020.00,-0.0012
2019.00,-0.0014
2018.00,-0.0015
2017.00,-0.0014
2016.00,-0.0012
2015.00,-0.0012
2014.00,-0.0012
2013.00,-0.0012
2012.00,-0.0013
2011.00,-0.0014
2010.00,-0.0014
2009.00,-0.0013
2008.00,-0.0012
2007.00,-0.0011
2006.00,-0.0012
2005.00,-0.0012
2004.00,-0.0011
2003.00,-0.0010
2002.00,-0.0009
2001.00,-0.0007
2000.00,-0.0005
1999.00,-0.0004
1998.00,-0.0003
1997.00,-0.0004
1996.00,-0.0006
1995.00,-0.0008
1994.00,-0.0010
1993.00,-0.0009
1992.00,-0.0008
1991.00,-0.0005
1990.00,-0.0003
1989.00,-0.0000
1988.00,0.0002
1987.00,0.0003
1986.00,0.0002
1985.00,0.0002
1984.00,0.0002
1983.00,0.0003
1982.00,0.0005
1981.00,0.0007
1980.00,0.0007
1979.00,0.0004
1978.00,-0.0001
1977.00,-0.0005
1976.00,-0.0007
1975.00,-0.0007
1974.00,-0.0007
1973.00,-0.0009
1972.00,-0.0011
1971.00,-0.0014
1970.00,-0.0015
1969.00,-0.0015
1968.00,-0.0013
1967.00,-0.0012
1966.00,-0.0012
1965.00,-0.0013
1964.00,-0.0012
1963.00,-0.0010
1962.00,-0.0008
1961.00,-0.0008
1960.00,-0.0011
1959.00,-0.0014
1958.00,-0.0017
1957.00,-0.0017
1956.00,-0.0014
1955.00,-0.0012
1954.00,-0.0012
1953.00,-0.0011
1952.00,-0.0011
1951.00,-0.0011
1950.00,-0.0011
1949.00,-0.0011
1948.00,-0.0009
1947.00,-0.0008
1946.00,-0.0009
1945.00,-0.0010
1944.00,-0.0011
1943.00,-0.0012
1942.00,-0.0012
1941.00,-0.0011
1940.00,-0.0010
1939.00,-0.0011
1938.00,-0.0012
1937.00,-0.0012
1936.00,-0.0012
1935.00,-0.0010
1934.00,-0.0008
1933.00,-0.0006
1932.00,-0.0006
1931.00,-0.0006
1930.00,-0.0006
1929.00,-0.0006
1928.00,-0.0006
1927.00,-0.0005
1926.00,-0.0005
1925.00,-0.0005
1924.00,-0.0004
1923.00,-0.0004
1922.00,-0.0003
1921.00,-0.0003
1920.00,-0.0003
1919.00,-0.0002
1918.00,-0.0001
1917.00,0.0001
1916.00,0.0002
1915.00,0.0002
1914.00,0.0001
1913.00,-0.0001
1912.00,-0.0001
1911.00,-0.0002
1910.00,-0.0001
1909.00,-0.0000
1908.00,0.0001
1907.00,0.0001
1906.00,0.0001
1905.00,0.0001
1904.00,0.0001
1903.00,0.0001
1902.00,0.0002
1901.00,0.0003
1900.00,0.0004
1899.00,0.0004
1898.00,0.0004
1897.00,0.0004
1896.00,0.0004
1895.00,0.0004
1894.00,0.0004
1893.00,0.0003
1892.00,0.0003
1891.00,0.0002
1890.00,0.0001
1889.00,0.0000
1888.00,0.0000
1887.00,0.0000
1886.00,0.0001
1885.00,0.0001
1884.00,0.0002
1883.00,0.0002
1882.00,0.0001
1881.00,0.0001
1880.00,0.0000
1879.00,-0.0000
1878.00,-0.0001
1877.00,-0.0000
1876.00,-0.0000
1875.00,-0.0000
1874.00,-0.0000
1873.00,0.0000
1872.00,0.0001
1871.00,0.0002
1870.00,0.0002
1869.00,0.0002
1868.00,0.0002
1867.00,0.0002
1866.00,0.0001
1865.00,0.0001
1864.00,0.0002
1863.00,0.0003
1862.00,0.0003
1861.00,0.0003
1860.00,0.0003
1859.00,0.0003
1858.00,0.0002
1857.00,0.0003
1856.00,0.0003
1855.00,0.0003
1854.00,0.0002
1853.00,0.0002
1852.00,0.0002
1851.00,0.0002
1850.00,0.0003
1849.00,0.0003
1848.00,0.0003
1847.00,0.0002
1846.00,0.0000
1845.00,-0.0000
1844.00,0.0000
1843.00,0.0001
1842.00,0.0002
1841.00,0.0003
1840.00,0.0003
1839.00,0.0003
1838.00,0.0003
1837.00,0.0003
1836.00,0.0004
1835.00,0.0004
1834.00,0.0005
1833.00,0.0004
1832.00,0.0004
1831.00,0.0003
1830.00,0.0003
1829.00,0.0003
1828.00,0.0004
1827.00,0.0005
1826.00,0.0005
1825.00,0.0006
1824.00,0.0006
1823.00,0.0006
1822.00,0.0005
1821.00,0.0005
1820.00,0.0004
1819.00,0.0003
1818.00,0.0002
1817.00,0.0002
1816.00,0.0002
1815.00,0.0002
1814.00,0.0003
1813.00,0.0003
1812.00,0.0003
1811.00,0.0003
1810.00,0.0004
1809.00,0.0004
1808.00,0.0005
1807.00,0.0005
1806.00,0.0006
1805.00,0.0006
1804.00,0.0006
1803.00,0.0006
1802.00,0.0006
1801.00,0.0005
1800.00,0.0005
1799.00,0.0006
1798.00,0.0006
1797.00,0.0007
1796.00,0.0008
1795.00,0.0008
1794.00,0.0008
1793.00,0.0008
1792.00,0.0008
1791.00,0.0008
1790.00,0.0008
1789.00,0.0008
1788.00,0.0008
1787.00,0.0008
1786.00,0.0008
1785.00,0.0009
1784.00,0.0008
1783.00,0.0008
1782.00,0.0008
1781.00,0.0008
1780.00,0.0008
1779.00,0.0008
1778.00,0.0008
1777.00,0.0009
1776.00,0.0009
1775.00,0.0010
1774.00,0.0010
1773.00,0.0010
1772.00,0.0010
1771.00,0.0010
1770.00,0.0010
1769.00,0.0011
1768.00,0.0011
1767.00,0.0011
1766.00,0.0011
1765.00,0.0012
1764.00,0.0012
1763.00,0.0012
1762.00,0.0012
1761.00,0.0013
1760.00,0.0013
1759.00,0.0014
1758.00,0.0014
1757.00,0.0014
1756.00,0.0015
1755.00,0.0015
1754.00,0.0016
1753.00,0.0017
1752.00,0.0017
1751.00,0.0018
1750.00,0.0018
1749.00,0.0019
1748.00,0.0019
1747.00,0.0019
1746.00,0.0020
1745.00,0.0021
1744.00,0.0022
1743.00,0.0022
1742.00,0.0023
1741.00,0.0023
1740.00,0.0023
1739.00,0.0023
1738.00,0.0023
1737.00,0.0024
1736.00,0.0024
1735.00,0.0023
1734.00,0.0023
1733.00,0.0023
1732.00,0.0024
1731.00,0.0024
1730.00,0.0024
1729.00,0.0024
1728.00,0.0024
1727.00,0.0024
1726.00,0.0025
1725.00,0.0025
1724.00,0.0025
1723.00,0.0025
1722.00,0.0025
1721.00,0.0025
1720.00,0.0024
1719.00,0.0023
1718.00,0.0022
1717.00,0.0022
1716.00,0.0022
1715.00,0.0023
1714.00,0.0023
1713.00,0.0023
1712.00,0.0022
1711.00,0.0021
1710.00,0.0020
1709.00,0.0019
1708.00,0.0019
1707.00,0.0018
1706.00,0.0018
1705.00,0.0019
1704.00,0.0019
1703.00,0.0019
1702.00,0.0019
1701.00,0.0019
1700.00,0.0021
1699.00,0.0021
1698.00,0.0022
1697.00,0.0022
1696.00,0.0024
1695.00,0.0027
1694.00,0.0028
1693.00,0.0029
1692.00,0.0030
1691.00,0.0031
1690.00,0.0033
1689.00,0.0036
1688.00,0.0038
1687.00,0.0039
1686.00,0.0040
1685.00,0.0040
1684.00,0.0042
1683.00,0.0045
1682.00,0.0046
1681.00,0.0047
1680.00,0.0048
1679.00,0.0049
1678.00,0.0051
1677.00,0.0052
1676.00,0.0053
1675.00,0.0053
1674.00,0.0053
1673.00,0.0052
1672.00,0.0052
1671.00,0.0052
1670.00,0.0052
1669.00,0.0053
1668.00,0.0054
1667.00,0.0054
1666.00,0.0054
1665.00,0.0053
1664.00,0.0053
1663.00,0.0053
1662.00,0.0054
1661.00,0.0055
1660.00,0.0056
1659.00,0.0056
1658.00,0.0056
1657.00,0.0057
1656.00,0.0058
1655.00,0.0059
1654.00,0.0061
1653.00,0.0066
1652.00,0.0069
1651.00,0.0069
1650.00,0.0069
1649.00,0.0070
1648.00,0.0072
1647.00,0.0075
1646.00,0.0077
1645.00,0.0079
1644.00,0.0079
1643.00,0.0080
1642.00,0.0080
1641.00,0.0081
1640.00,0.0081
1639.00,0.0082
1638.00,0.0083
1637.00,0.0083
1636.00,0.0084
1635.00,0.0084
1634.00,0.0084
1633.00,0.0084
1632.00,0.0084
1631.00,0.0084
1630.00,0.0084
1629.00,0.0083
1628.00,0.0082
1627.00,0.0081
1626.00,0.0080
1625.00,0.0080
1624.00,0.0079
1623.00,0.0078
1622.00,0.0078
1621.00,0.0077
1620.00,0.0077
1619.00,0.0076
1618.00,0.0074
1617.00,0.0073
1616.00,0.0073
1615.00,0.0073
1614.00,0.0073
1613.00,0.0073
1612.00,0.0073
1611.00,0.0073
1610.00,0.0072
1609.00,0.0072
1608.00,0.0072
1607.00,0.0072
1606.00,0.0072
1605.00,0.0072
1604.00,0.0073
1603.00,0.0072
1602.00,0.0072
1601.00,0.0071
1600.00,0.0071
1599.00,0.0072
1598.00,0.0072
1597.00,0.0072
1596.00,0.0072
1595.00,0.0072
1594.00,0.0072
1593.00,0.0074
1592.00,0.0075
1591.00,0.0077
1590.00,0.0078
1589.00,0.0081
1588.00,0.0083
1587.00,0.0085
1586.00,0.0088
1585.00,0.0091
1584.00,0.0095
1583.00,0.0100
1582.00,0.0105
1581.00,0.0110
1580.00,0.0116
1579.00,0.0120
1578.00,0.0122
1577.00,0.0123
1576.00,0.0122
1575.00,0.0120
1574.00,0.0117
1573.00,0.0114
1572.00,0.0111
1571.00,0.0108
1570.00,0.0104
1569.00,0.0100
1568.00,0.0098
1567.00,0.0096
1566.00,0.0094
1565.00,0.0092
1564.00,0.0091
1563.00,0.0091
1562.00,0.0091
1561.00,0.0092
1560.00,0.0092
1559.00,0.0090
1558.00,0.0091
1557.00,0.0091
1556.00,0.0092
1555.00,0.0093
1554.00,0.0094
1553.00,0.0096
1552.00,0.0098
1551.00,0.0100
1550.00,0.0103
1549.00,0.0107
1548.00,0.0111
1547.00,0.0115
1546.00,0.0120
1545.00,0.0126
1544.00,0.0132
1543.00,0.0137
1542.00,0.0140
1541.00,0.0142
1540.00,0.0142
1539.00,0.0138
1538.00,0.0132
1537.00,0.0127
1536.00,0.0122
1535.00,0.0116
1534.00,0.0109
1533.00,0.0103
1532.00,0.0099
1531.00,0.0096
1530.00,0.0093
1529.00,0.0092
1528.00,0.0091
1527.00,0.0089
1526.00,0.0087
1525.00,0.0087
1524.00,0.0086
1523.00,0.0086
1522.00,0.0085
1521.00,0.0084
1520.00,0.0083
1519.00,0.0082
1518.00,0.0081
1517.00,0.0081
1516.00,0.0082
1515.00,0.0081
1514.00,0.0081
1513.00,0.0080
1512.00,0.0080
1511.00,0.0080
1510.00,0.0080
1509.00,0.0080
1508.00,0.0081
1507.00,0.0081
1506.00,0.0082
1505.00,0.0082
1504.00,0.0082
1503.00,0.0083
1502.00,0.0084
1501.00,0.0086
1500.00,0.0089
1499.00,0.0091
1498.00,0.0094
1497.00,0.0097
1496.00,0.0102
1495.00,0.0106
1494.00,0.0110
1493.00,0.0113
1492.00,0.0117
1491.00,0.0119
1490.00,0.0122
1489.00,0.0126
1488.00,0.0132
1487.00,0.0138
1486.00,0.0144
1485.00,0.0152
1484.00,0.0161
1483.00,0.0171
1482.00,0.0182
1481.00,0.0196
1480.00,0.0211
1479.00,0.0226
1478.00,0.0243
1477.00,0.0265
1476.00,0.0291
1475.00,0.0321
1474.00,0.0361
1473.00,0.0417
1472.00,0.0483
1471.00,0.0547
1470.00,0.0610
1469.00,0.0676
1468.00,0.0748
1467.00,0.0828
1466.00,0.0919
1465.00,0.1016
1464.00,0.1100
1463.00,0.1156
1462.00,0.1189
1461.00,0.1209
1460.00,0.1220
1459.00,0.1225
1458.00,0.1225
1457.00,0.1220
1456.00,0.1208
1455.00,0.1193
1454.00,0.1176
1453.00,0.1154
1452.00,0.1122
1451.00,0.1079
1450.00,0.1023
1449.00,0.0949
1448.00,0.0858
1447.00,0.0765
1446.00,0.0683
1445.00,0.0615
1444.00,0.0557
1443.00,0.0511
1442.00,0.0477
1441.00,0.0455
1440.00,0.0443
1439.00,0.0441
1438.00,0.0448
1437.00,0.0456
1436.00,0.0452
1435.00,0.0430
1434.00,0.0394
1433.00,0.0350
1432.00,0.0303
1431.00,0.0262
1430.00,0.0229
1429.00,0.0206
1428.00,0.0190
1427.00,0.0181
1426.00,0.0175
1425.00,0.0171
1424.00,0.0166
1423.00,0.0164
1422.00,0.0163
1421.00,0.0161
1420.00,0.0157
1419.00,0.0154
1418.00,0.0151
1417.00,0.0148
1416.00,0.0144
1415.00,0.0142
1414.00,0.0139
1413.00,0.0137
1412.00,0.0134
1411.00,0.0133
1410.00,0.0132
1409.00,0.0130
1408.00,0.0129
1407.00,0.0128
1406.00,0.0128
1405.00,0.0127
1404.00,0.0126
1403.00,0.0126
1402.00,0.0127
1401.00,0.0127
1400.00,0.0126
1399.00,0.0127
1398.00,0.0129
1397.00,0.0131
1396.00,0.0133
1395.00,0.0137
1394.00,0.0141
1393.00,0.0145
1392.00,0.0150
1391.00,0.0157
1390.00,0.0167
1389.00,0.0181
1388.00,0.0201
1387.00,0.0231
1386.00,0.0272
1385.00,0.0326
1384.00,0.0402
1383.00,0.0511
1382.00,0.0663
1381.00,0.0866
1380.00,0.1124
1379.00,0.1425
1378.00,0.1721
1377.00,0.1943
1376.00,0.2024
1375.00,0.1926
1374.00,0.1679
1373.00,0.1380
1372.00,0.1105
1371.00,0.0880
1370.00,0.0703
1369.00,0.0570
1368.00,0.0479
1367.00,0.0424
1366.00,0.0393
1365.00,0.0381
1364.00,0.0383
1363.00,0.0398
1362.00,0.0421
1361.00,0.0446
1360.00,0.0466
1359.00,0.0472
1358.00,0.0463
1357.00,0.0437
1356.00,0.0399
1355.00,0.0357
1354.00,0.0316
1353.00,0.0281
1352.00,0.0252
1351.00,0.0229
1350.00,0.0211
1349.00,0.0196
1348.00,0.0184
1347.00,0.0174
1346.00,0.0165
1345.00,0.0157
1344.00,0.0150
1343.00,0.0145
1342.00,0.0141
1341.00,0.0138
1340.00,0.0135
1339.00,0.0133
1338.00,0.0132
1337.00,0.0131
1336.00,0.0131
1335.00,0.0133
1334.00,0.0136
1333.00,0.0141
1332.00,0.0146
1331.00,0.0150
1330.00,0.0151
1329.00,0.0150
1328.00,0.0145
1327.00,0.0139
1326.00,0.0133
1325.00,0.0126
1324.00,0.0120
1323.00,0.0115
1322.00,0.0112
1321.00,0.0109
1320.00,0.0107
1319.00,0.0105
1318.00,0.0103
1317.00,0.0101
1316.00,0.0100
1315.00,0.0099
1314.00,0.0099
1313.00,0.0099
1312.00,0.0099
1311.00,0.0101
1310.00,0.0104
1309.00,0.0108
1308.00,0.0115
1307.00,0.0122
1306.00,0.0129
1305.00,0.0134
1304.00,0.0136
1303.00,0.0135
1302.00,0.0134
1301.00,0.0134
1300.00,0.0135
1299.00,0.0136
1298.00,0.0138
1297.00,0.0140
1296.00,0.0140
1295.00,0.0138
1294.00,0.0134
1293.00,0.0128
1292.00,0.0122
1291.00,0.0116
1290.00,0.0111
1289.00,0.0106
1288.00,0.0102
1287.00,0.0099
1286.00,0.0096
1285.00,0.0095
1284.00,0.0093
1283.00,0.0092
1282.00,0.0092
1281.00,0.0091
1280.00,0.0090
1279.00,0.0089
1278.00,0.0088
1277.00,0.0087
1276.00,0.0087
1275.00,0.0086
1274.00,0.0086
1273.00,0.0086
1272.00,0.0086
1271.00,0.0086
1270.00,0.0086
1269.00,0.0087
1268.00,0.0087
1267.00,0.0089
1266.00,0.0090
1265.00,0.0092
1264.00,0.0094
1263.00,0.0096
1262.00,0.0099
1261.00,0.0101
1260.00,0.0104
1259.00,0.0109
1258.00,0.0114
1257.00,0.0118
1256.00,0.0119
1255.00,0.0118
1254.00,0.0114
1253.00,0.0109
1252.00,0.0104
1251.00,0.0100
1250.00,0.0096
1249.00,0.0093
1248.00,0.0091
1247.00,0.0089
1246.00,0.0088
1245.00,0.0087
1244.00,0.0086
1243.00,0.0085
1242.00,0.0084
1241.00,0.0084
1240.00,0.0083
1239.00,0.0083
1238.00,0.0083
1237.00,0.0083
1236.00,0.0083
1235.00,0.0084
1234.00,0.0085
1233.00,0.0086
1232.00,0.0087
1231.00,0.0088
1230.00,0.0090
1229.00,0.0092
1228.00,0.0094
1227.00,0.0096
1226.00,0.0099
1225.00,0.0103
1224.00,0.0108
1223.00,0.0112
1222.00,0.0116
1221.00,0.0120
1220.00,0.0122
1219.00,0.0123
1218.00,0.0122
1217.00,0.0119
1216.00,0.0116
1215.00,0.0112
1214.00,0.0108
1213.00,0.0105
1212.00,0.0102
1211.00,0.0100
1210.00,0.0098
1209.00,0.0097
1208.00,0.0095
1207.00,0.0094
1206.00,0.0093
1205.00,0.0092
1204.00,0.0092
1203.00,0.0092
1202.00,0.0092
1201.00,0.0093
1200.00,0.0094
1199.00,0.0094
1198.00,0.0095
1197.00,0.0095
1196.00,0.0095
1195.00,0.0095
1194.00,0.0094
1193.00,0.0094
1192.00,0.0093
1191.00,0.0093
1190.00,0.0092
1189.00,0.0092
1188.00,0.0092
1187.00,0.0091
1186.00,0.0091
1185.00,0.0091
1184.00,0.0091
1183.00,0.0091
1182.00,0.0092
1181.00,0.0092
1180.00,0.0094
1179.00,0.0096
1178.00,0.0100
1177.00,0.0106
1176.00,0.0113
1175.00,0.0123
1174.00,0.0136
1173.00,0.0152
1172.00,0.0170
1171.00,0.0191
1170.00,0.0210
1169.00,0.0226
1168.00,0.0236
1167.00,0.0238
1166.00,0.0234
1165.00,0.0226
1164.00,0.0216
1163.00,0.0207
1162.00,0.0199
1161.00,0.0193
1160.00,0.0189
1159.00,0.0187
1158.00,0.0185
1157.00,0.0184
1156.00,0.0184
1155.00,0.0183
1154.00,0.0183
1153.00,0.0182
1152.00,0.0180
1151.00,0.0174
1150.00,0.0167
1149.00,0.0159
1148.00,0.0150
1147.00,0.0142
1146.00,0.0134
1145.00,0.0127
1144.00,0.0120
1143.00,0.0114
1142.00,0.0109
1141.00,0.0104
1140.00,0.0101
1139.00,0.0098
1138.00,0.0096
1137.00,0.0093
1136.00,0.0091
1135.00,0.0089
1134.00,0.0087
1133.00,0.0086
1132.00,0.0086
1131.00,0.0086
1130.00,0.0087
1129.00,0.0088
1128.00,0.0089
1127.00,0.0091
1126.00,0.0092
1125.00,0.0093
1124.00,0.0094
1123.00,0.0094
1122.00,0.0094
1121.00,0.0094
1120.00,0.0094
1119.00,0.0094
1118.00,0.0095
1117.00,0.0096
1116.00,0.0097
1115.00,0.0098
1114.00,0.0100
1113.00,0.0101
1112.00,0.0103
1111.00,0.0106
1110.00,0.0110
1109.00,0.0114
1108.00,0.0120
1107.00,0.0126
1106.00,0.0133
1105.00,0.0139
1104.00,0.0144
1103.00,0.0145
1102.00,0.0144
1101.00,0.0139
1100.00,0.0133
1099.00,0.0126
1098.00,0.0120
1097.00,0.0114
1096.00,0.0109
1095.00,0.0105
1094.00,0.0102
1093.00,0.0099
1092.00,0.0097
1091.00,0.0094
1090.00,0.0093
1089.00,0.0091
1088.00,0.0090
1087.00,0.0089
1086.00,0.0089
1085.00,0.0089
1084.00,0.0089
1083.00,0.0089
1082.00,0.0089
1081.00,0.0088
1080.00,0.0087
1079.00,0.0086
1078.00,0.0085
1077.00,0.0084
1076.00,0.0083
1075.00,0.0082
1074.00,0.0082
1073.00,0.0082
1072.00,0.0081
1071.00,0.0080
1070.00,0.0079
1069.00,0.0079
1068.00,0.0079
1067.00,0.0080
1066.00,0.0080
1065.00,0.0081
1064.00,0.0082
1063.00,0.0083
1062.00,0.0085
1061.00,0.0086
1060.00,0.0087
1059.00,0.0088
1058.00,0.0089
1057.00,0.0089
1056.00,0.0090
1055.00,0.0091
1054.00,0.0093
1053.00,0.0096
1052.00,0.0100
1051.00,0.0103
1050.00,0.0108
1049.00,0.0112
1048.00,0.0116
1047.00,0.0119
1046.00,0.0122
1045.00,0.0124
1044.00,0.0125
1043.00,0.0126
1042.00,0.0126
1041.00,0.0126
1040.00,0.0126
1039.00,0.0127
1038.00,0.0128
1037.00,0.0129
1036.00,0.0129
1035.00,0.0128
1034.00,0.0126
1033.00,0.0122
1032.00,0.0120
1031.00,0.0118
1030.00,0.0117
1029.00,0.0117
1028.00,0.0117
1027.00,0.0118
1026.00,0.0119
1025.00,0.0120
1024.00,0.0122
1023.00,0.0124
1022.00,0.0126
1021.00,0.0129
1020.00,0.0131
1019.00,0.0133
1018.00,0.0134
1017.00,0.0135
1016.00,0.0136
1015.00,0.0137
1014.00,0.0138
1013.00,0.0139
1012.00,0.0140
1011.00,0.0140
1010.00,0.0139
1009.00,0.0138
1008.00,0.0138
1007.00,0.0138
1006.00,0.0141
1005.00,0.0146
1004.00,0.0155
1003.00,0.0169
1002.00,0.0187
1001.00,0.0209
1000.00,0.0232
999.00,0.0249
998.00,0.0256
997.00,0.0249
996.00,0.0230
995.00,0.0205
994.00,0.0179
993.00,0.0158
992.00,0.0141
991.00,0.0129
990.00,0.0120
989.00,0.0114
988.00,0.0110
987.00,0.0108
986.00,0.0107
985.00,0.0109
984.00,0.0112
983.00,0.0117
982.00,0.0126
981.00,0.0138
980.00,0.0155
979.00,0.0176
978.00,0.0203
977.00,0.0234
976.00,0.0265
975.00,0.0293
974.00,0.0310
973.00,0.0313
972.00,0.0298
971.00,0.0270
970.00,0.0235
969.00,0.0200
968.00,0.0170
967.00,0.0148
966.00,0.0131
965.00,0.0120
964.00,0.0111
963.00,0.0105
962.00,0.0100
961.00,0.0095
960.00,0.0092
959.00,0.0089
958.00,0.0087
957.00,0.0085
956.00,0.0083
955.00,0.0082
954.00,0.0081
953.00,0.0080
952.00,0.0079
951.00,0.0077
950.00,0.0076
949.00,0.0075
948.00,0.0075
947.00,0.0077
946.00,0.0079
945.00,0.0082
944.00,0.0085
943.00,0.0089
942.00,0.0093
941.00,0.0096
940.00,0.0097
939.00,0.0095
938.00,0.0090
937.00,0.0085
936.00,0.0080
935.00,0.0076
934.00,0.0073
933.00,0.0070
932.00,0.0069
931.00,0.0068
930.00,0.0067
929.00,0.0067
928.00,0.0066
927.00,0.0065
926.00,0.0065
925.00,0.0064
924.00,0.0064
923.00,0.0065
922.00,0.0065
921.00,0.0064
920.00,0.0064
919.00,0.0065
918.00,0.0066
917.00,0.0067
916.00,0.0068
915.00,0.0069
914.00,0.0070
913.00,0.0071
912.00,0.0071
911.00,0.0073
910.00,0.0074
909.00,0.0078
908.00,0.0082
907.00,0.0088
906.00,0.0096
905.00,0.0106
904.00,0.0122
903.00,0.0141
902.00,0.0163
901.00,0.0183
900.00,0.0196
899.00,0.0197
898.00,0.0187
897.00,0.0168
896.00,0.0147
895.00,0.0128
894.00,0.0112
893.00,0.0100
892.00,0.0091
891.00,0.0085
890.00,0.0082
889.00,0.0080
888.00,0.0080
887.00,0.0079
886.00,0.0079
885.00,0.0078
884.00,0.0076
883.00,0.0075
882.00,0.0074
881.00,0.0074
880.00,0.0074
879.00,0.0074
878.00,0.0075
877.00,0.0077
876.00,0.0079
875.00,0.0080
874.00,0.0080
873.00,0.0079
872.00,0.0078
871.00,0.0078
870.00,0.0078
869.00,0.0078
868.00,0.0078
867.00,0.0078
866.00,0.0078
865.00,0.0078
864.00,0.0078
863.00,0.0079
862.00,0.0081
861.00,0.0083
860.00,0.0085
859.00,0.0086
858.00,0.0088
857.00,0.0090
856.00,0.0091
855.00,0.0091
854.00,0.0092
853.00,0.0093
852.00,0.0094
851.00,0.0096
850.00,0.0099
849.00,0.0103
848.00,0.0108
847.00,0.0116
846.00,0.0129
845.00,0.0149
844.00,0.0177
843.00,0.0208
842.00,0.0232
841.00,0.0239
840.00,0.0224
839.00,0.0195
838.00,0.0165
837.00,0.0140
836.00,0.0124
835.00,0.0113
834.00,0.0107
833.00,0.0103
832.00,0.0101
831.00,0.0100
830.00,0.0098
829.00,0.0098
828.00,0.0098
827.00,0.0099
826.00,0.0099
825.00,0.0098
824.00,0.0098
823.00,0.0098
822.00,0.0098
821.00,0.0100
820.00,0.0103
819.00,0.0106
818.00,0.0112
817.00,0.0119
816.00,0.0129
815.00,0.0142
814.00,0.0159
813.00,0.0180
812.00,0.0203
811.00,0.0224
810.00,0.0240
809.00,0.0246
808.00,0.0241
807.00,0.0224
806.00,0.0201
805.00,0.0177
804.00,0.0157
803.00,0.0142
802.00,0.0131
801.00,0.0123
800.00,0.0117
799.00,0.0112
798.00,0.0107
797.00,0.0104
796.00,0.0101
795.00,0.0099
794.00,0.0096
793.00,0.0092
792.00,0.0089
791.00,0.0086
790.00,0.0085
789.00,0.0083
788.00,0.0081
787.00,0.0079
786.00,0.0077
785.00,0.0076
784.00,0.0074
783.00,0.0072
782.00,0.0070
781.00,0.0068
780.00,0.0068
779.00,0.0069
778.00,0.0068
777.00,0.0068
776.00,0.0068
775.00,0.0069
774.00,0.0071
773.00,0.0073
772.00,0.0075
771.00,0.0077
770.00,0.0077
769.00,0.0077
768.00,0.0077
767.00,0.0076
766.00,0.0076
765.00,0.0076
764.00,0.0077
763.00,0.0078
762.00,0.0079
761.00,0.0079
760.00,0.0078
759.00,0.0077
758.00,0.0078
757.00,0.0080
756.00,0.0081
755.00,0.0083
754.00,0.0084
753.00,0.0085
752.00,0.0086
751.00,0.0086
750.00,0.0087
749.00,0.0088
748.00,0.0089
747.00,0.0089
746.00,0.0090
745.00,0.0091
744.00,0.0093
743.00,0.0096
742.00,0.0100
741.00,0.0105
740.00,0.0109
739.00,0.0113
738.00,0.0117
737.00,0.0121
736.00,0.0125
735.00,0.0130
734.00,0.0135
733.00,0.0141
732.00,0.0148
731.00,0.0155
730.00,0.0161
729.00,0.0165
728.00,0.0167
727.00,0.0167
726.00,0.0169
725.00,0.0172
724.00,0.0178
723.00,0.0185
722.00,0.0193
721.00,0.0198
720.00,0.0198
719.00,0.0190
718.00,0.0177
717.00,0.0162
716.00,0.0150
715.00,0.0141
714.00,0.0134
713.00,0.0130
712.00,0.0126
711.00,0.0123
710.00,0.0122
709.00,0.0121
708.00,0.0120
707.00,0.0119
706.00,0.0117
705.00,0.0116
704.00,0.0115
703.00,0.0115
702.00,0.0116
701.00,0.0116
700.00,0.0115
699.00,0.0114
698.00,0.0112
697.00,0.0110
696.00,0.0109
695.00,0.0108
694.00,0.0108
693.00,0.0108
692.00,0.0109
691.00,0.0111
690.00,0.0112
689.00,0.0111
688.00,0.0111
687.00,0.0110
686.00,0.0110
685.00,0.0110
684.00,0.0111
683.00,0.0111
682.00,0.0111
681.00,0.0111
680.00,0.0111
679.00,0.0110
678.00,0.0108
677.00,0.0106
676.00,0.0106
675.00,0.0109
674.00,0.0114
673.00,0.0119
672.00,0.0122
671.00,0.0122
670.00,0.0120
669.00,0.0118
668.00,0.0117
667.00,0.0117
666.00,0.0116
665.00,0.0113
664.00,0.0110
663.00,0.0107
662.00,0.0106
661.00,0.0106
660.00,0.0107
659.00,0.0106
658.00,0.0102
657.00,0.0099
656.00,0.0097
655.00,0.0097
654.00,0.0098
653.00,0.0099
652.00,0.0099
651.00,0.0099
650.00,0.0097
649.00,0.0095
648.00,0.0093
647.00,0.0093
646.00,0.0095
645.00,0.0098
644.00,0.0099
643.00,0.0099
642.00,0.0099
641.00,0.0099
640.00,0.0099
639.00,0.0098
638.00,0.0098
637.00,0.0099
636.00,0.0101
635.00,0.0101
634.00,0.0099
633.00,0.0096
632.00,0.0095
631.00,0.0096
630.00,0.0098
629.00,0.0100
628.00,0.0101
627.00,0.0101
626.00,0.0100
625.00,0.0099
624.00,0.0099
623.00,0.0099
622.00,0.0100
621.00,0.0101
620.00,0.0102
619.00,0.0103
618.00,0.0104
617.00,0.0102
616.00,0.0099
615.00,0.0094
614.00,0.0091
613.00,0.0089
612.00,0.0088
611.00,0.0089
610.00,0.0091
609.00,0.0092
608.00,0.0093
607.00,0.0093
606.00,0.0093
605.00,0.0093
604.00,0.0091
603.00,0.0090
602.00,0.0090
601.00,0.0090
600.00,0.0090
599.00,0.0090
598.00,0.0089
597.00,0.0089
596.00,0.0089
595.00,0.0087
594.00,0.0086
593.00,0.0086
592.00,0.0087
591.00,0.0089
590.00,0.0092
589.00,0.0095
588.00,0.0097
587.00,0.0097
586.00,0.0097
585.00,0.0097
584.00,0.0097
583.00,0.0095
582.00,0.0093
581.00,0.0090
580.00,0.0089
579.00,0.0090
578.00,0.0091
577.00,0.0091
576.00,0.0089
575.00,0.0089
574.00,0.0089
573.00,0.0090
572.00,0.0090
571.00,0.0091
570.00,0.0092
569.00,0.0091
568.00,0.0090
567.00,0.0090
566.00,0.0092
565.00,0.0095
564.00,0.0096
563.00,0.0096
562.00,0.0094
561.00,0.0092
560.00,0.0091
559.00,0.0090
558.00,0.0088
557.00,0.0087
556.00,0.0087
555.00,0.0088
554.00,0.0091
553.00,0.0093
552.00,0.0091
551.00,0.0089
550.00,0.0088
549.00,0.0089
548.00,0.0091
547.00,0.0093
546.00,0.0098
545.00,0.0104
544.00,0.0107
543.00,0.0107
542.00,0.0105
541.00,0.0105
540.00,0.0109
539.00,0.0114
538.00,0.0117
537.00,0.0120
536.00,0.0124
535.00,0.0129
534.00,0.0134
533.00,0.0136
532.00,0.0135
531.00,0.0131
530.00,0.0129
529.00,0.0129
528.00,0.0129
527.00,0.0128
526.00,0.0125
525.00,0.0121
524.00,0.0115
523.00,0.0107
522.00,0.0100
521.00,0.0095
520.00,0.0093
519.00,0.0094
518.00,0.0096
517.00,0.0096
516.00,0.0095
515.00,0.0093
514.00,0.0092
513.00,0.0092
512.00,0.0093
511.00,0.0096
510.00,0.0100
509.00,0.0104
508.00,0.0107
507.00,0.0110
506.00,0.0113
505.00,0.0115
504.00,0.0113
503.00,0.0104
502.00,0.0093
501.00,0.0087
500.00,0.0088
499.00,0.0092
498.00,0.0095
497.00,0.0094
496.00,0.0091
495.00,0.0088
494.00,0.0086
493.00,0.0084
492.00,0.0083
491.00,0.0084
490.00,0.0089
489.00,0.0094
488.00,0.0098
487.00,0.0098
486.00,0.0095
485.00,0.0093
484.00,0.0094
483.00,0.0098
482.00,0.0103
481.00,0.0105
480.00,0.0104
479.00,0.0101
478.00,0.0103
477.00,0.0111
476.00,0.0124
475.00,0.0137
474.00,0.0145
473.00,0.0148
472.00,0.0148
471.00,0.0149
470.00,0.0149
469.00,0.0149
468.00,0.0149
467.00,0.0150
466.00,0.0159
465.00,0.0174
464.00,0.0191
463.00,0.0206
462.00,0.0217
461.00,0.0227
460.00,0.0238
459.00,0.0247
458.00,0.0250
457.00,0.0245
456.00,0.0236
455.00,0.0227
454.00,0.0214
453.00,0.0196
452.00,0.0177
451.00,0.0162
450.00,0.0154
