Created as New Dataset,Sample 060 By Administrator Date Wednesday, September 03 2025
cm-1,A
4000.00,0.0009
3999.00,0.0009
3998.00,0.0009
3997.00,0.0008
3996.00,0.0008
3995.00,0.0008
3994.00,0.0008
3993.00,0.0008
3992.00,0.0008
3991.00,0.0008
3990.00,0.0008
3989.00,0.0008
3988.00,0.0008
3987.00,0.0009
3986.00,0.0009
3985.00,0.0008
3984.00,0.0008
3983.00,0.0008
3982.00,0.0007
3981.00,0.0007
3980.00,0.0007
3979.00,0.0007
3978.00,0.0008
3977.00,0.0008
3976.00,0.0008
3975.00,0.0008
3974.00,0.0007
3973.00,0.0007
3972.00,0.0007
3971.00,0.0007
3970.00,0.0007
3969.00,0.0007
3968.00,0.0007
3967.00,0.0007
3966.00,0.0007
3965.00,0.0007
3964.00,0.0007
3963.00,0.0007
3962.00,0.0007
3961.00,0.0007
3960.00,0.0007
3959.00,0.0007
3958.00,0.0007
3957.00,0.0007
3956.00,0.0007
3955.00,0.0007
3954.00,0.0007
3953.00,0.0007
3952.00,0.0007
3951.00,0.0007
3950.00,0.0007
3949.00,0.0007
3948.00,0.0007
3947.00,0.0007
3946.00,0.0007
3945.00,0.0007
3944.00,0.0007
3943.00,0.0008
3942.00,0.0008
3941.00,0.0007
3940.00,0.0007
3939.00,0.0007
3938.00,0.0007
3937.00,0.0007
3936.00,0.0007
3935.00,0.0007
3934.00,0.0007
3933.00,0.0007
3932.00,0.0007
3931.00,0.0007
3930.00,0.0008
3929.00,0.0008
3928.00,0.0008
3927.00,0.0008
3926.00,0.0008
3925.00,0.0007
3924.00,0.0007
3923.00,0.0007
3922.00,0.0007
3921.00,0.0007
3920.00,0.0008
3919.00,0.0008
3918.00,0.0008
3917.00,0.0008
3916.00,0.0007
3915.00,0.0007
3914.00,0.0007
3913.00,0.0007
3912.00,0.0007
3911.00,0.0007
3910.00,0.0007
3909.00,0.0007
3908.00,0.0007
3907.00,0.0008
3906.00,0.0008
3905.00,0.0008
3904.00,0.0008
3903.00,0.0008
3902.00,0.0008
3901.00,0.0008
3900.00,0.0008
3899.00,0.0008
3898.00,0.0007
3897.00,0.0007
3896.00,0.0007
3895.00,0.0007
3894.00,0.0007
3893.00,0.0007
3892.00,0.0007
3891.00,0.0008
3890.00,0.0008
3889.00,0.0007
3888.00,0.0007
3887.00,0.0007
3886.00,0.0008
3885.00,0.0008
3884.00,0.0008
3883.00,0.0008
3882.00,0.0008
3881.00,0.0008
3880.00,0.0008
3879.00,0.0008
3878.00,0.0008
3877.00,0.0008
3876.00,0.0007
3875.00,0.0007
3874.00,0.0007
3873.00,0.0007
3872.00,0.0007
3871.00,0.0007
3870.00,0.0007
3869.00,0.0007
3868.00,0.0007
3867.00,0.0007
3866.00,0.0008
3865.00,0.0008
3864.00,0.0008
3863.00,0.0008
3862.00,0.0007
3861.00,0.0007
3860.00,0.0007
3859.00,0.0007
3858.00,0.0007
3857.00,0.0007
3856.00,0.0008
3855.00,0.0008
3854.00,0.0008
3853.00,0.0008
3852.00,0.0008
3851.00,0.0008
3850.00,0.0007
3849.00,0.0007
3848.00,0.0007
3847.00,0.0007
3846.00,0.0007
3845.00,0.0007
3844.00,0.0008
3843.00,0.0008
3842.00,0.0008
3841.00,0.0007
3840.00,0.0007
3839.00,0.0007
3838.00,0.0006
3837.00,0.0007
3836.00,0.0007
3835.00,0.0007
3834.00,0.0007
3833.00,0.0008
3832.00,0.0008
3831.00,0.0008
3830.00,0.0008
3829.00,0.0007
3828.00,0.0007
3827.00,0.0007
3826.00,0.0007
3825.00,0.0008
3824.00,0.0008
3823.00,0.0008
3822.00,0.0008
3821.00,0.0008
3820.00,0.0008
3819.00,0.0008
3818.00,0.0008
3817.00,0.0008
3816.00,0.0008
3815.00,0.0008
3814.00,0.0008
3813.00,0.0008
3812.00,0.0008
3811.00,0.0008
3810.00,0.0008
3809.00,0.0009
3808.00,0.0009
3807.00,0.0009
3806.00,0.0010
3805.00,0.0010
3804.00,0.0010
3803.00,0.0009
3802.00,0.0009
3801.00,0.0008
3800.00,0.0008
3799.00,0.0008
3798.00,0.0008
3797.00,0.0008
3796.00,0.0008
3795.00,0.0008
3794.00,0.0008
3793.00,0.0007
3792.00,0.0007
3791.00,0.0007
3790.00,0.0007
3789.00,0.0007
3788.00,0.0007
3787.00,0.0007
3786.00,0.0007
3785.00,0.0007
3784.00,0.0007
3783.00,0.0007
3782.00,0.0007
3781.00,0.0008
3780.00,0.0008
3779.00,0.0008
3778.00,0.0008
3777.00,0.0008
3776.00,0.0007
3775.00,0.0007
3774.00,0.0007
3773.00,0.0007
3772.00,0.0008
3771.00,0.0008
3770.00,0.0009
3769.00,0.0008
3768.00,0.0008
3767.00,0.0008
3766.00,0.0008
3765.00,0.0007
3764.00,0.0007
3763.00,0.0007
3762.00,0.0006
3761.00,0.0006
3760.00,0.0006
3759.00,0.0007
3758.00,0.0008
3757.00,0.0008
3756.00,0.0008
3755.00,0.0008
3754.00,0.0008
3753.00,0.0008
3752.00,0.0008
3751.00,0.0008
3750.00,0.0009
3749.00,0.0009
3748.00,0.0009
3747.00,0.0008
3746.00,0.0008
3745.00,0.0008
3744.00,0.0008
3743.00,0.0007
3742.00,0.0007
3741.00,0.0006
3740.00,0.0006
3739.00,0.0005
3738.00,0.0005
3737.00,0.0005
3736.00,0.0005
3735.00,0.0005
3734.00,0.0005
3733.00,0.0006
3732.00,0.0006
3731.00,0.0006
3730.00,0.0006
3729.00,0.0006
3728.00,0.0006
3727.00,0.0006
3726.00,0.0007
3725.00,0.0007
3724.00,0.0007
3723.00,0.0006
3722.00,0.0006
3721.00,0.0006
3720.00,0.0006
3719.00,0.0006
3718.00,0.0006
3717.00,0.0006
3716.00,0.0007
3715.00,0.0008
3714.00,0.0008
3713.00,0.0008
3712.00,0.0007
3711.00,0.0007
3710.00,0.0007
3709.00,0.0006
3708.00,0.0006
3707.00,0.0006
3706.00,0.0006
3705.00,0.0006
3704.00,0.0006
3703.00,0.0005
3702.00,0.0005
3701.00,0.0005
3700.00,0.0005
3699.00,0.0004
3698.00,0.0004
3697.00,0.0004
3696.00,0.0004
3695.00,0.0004
3694.00,0.0004
3693.00,0.0005
3692.00,0.0005
3691.00,0.0006
3690.00,0.0006
3689.00,0.0006
3688.00,0.0006
3687.00,0.0006
3686.00,0.0005
3685.00,0.0005
3684.00,0.0005
3683.00,0.0005
3682.00,0.0005
3681.00,0.0006
3680.00,0.0006
3679.00,0.0007
3678.00,0.0007
3677.00,0.0007
3676.00,0.0007
3675.00,0.0007
3674.00,0.0007
3673.00,0.0006
3672.00,0.0006
3671.00,0.0006
3670.00,0.0006
3669.00,0.0005
3668.00,0.0005
3667.00,0.0005
3666.00,0.0005
3665.00,0.0005
3664.00,0.0005
3663.00,0.0005
3662.00,0.0005
3661.00,0.0004
3660.00,0.0004
3659.00,0.0005
3658.00,0.0005
3657.00,0.0006
3656.00,0.0006
3655.00,0.0006
3654.00,0.0006
3653.00,0.0007
3652.00,0.0007
3651.00,0.0007
3650.00,0.0007
3649.00,0.0007
3648.00,0.0007
3647.00,0.0006
3646.00,0.0006
3645.00,0.0006
3644.00,0.0005
3643.00,0.0005
3642.00,0.0005
3641.00,0.0005
3640.00,0.0005
3639.00,0.0005
3638.00,0.0005
3637.00,0.0005
3636.00,0.0005
3635.00,0.0005
3634.00,0.0005
3633.00,0.0005
3632.00,0.0005
3631.00,0.0005
3630.00,0.0005
3629.00,0.0004
3628.00,0.0005
3627.00,0.0005
3626.00,0.0005
3625.00,0.0005
3624.00,0.0005
3623.00,0.0005
3622.00,0.0005
3621.00,0.0006
3620.00,0.0006
3619.00,0.0005
3618.00,0.0005
3617.00,0.0006
3616.00,0.0006
3615.00,0.0006
3614.00,0.0006
3613.00,0.0005
3612.00,0.0005
3611.00,0.0006
3610.00,0.0006
3609.00,0.0006
3608.00,0.0006
3607.00,0.0006
3606.00,0.0006
3605.00,0.0006
3604.00,0.0006
3603.00,0.0005
3602.00,0.0005
3601.00,0.0005
3600.00,0.0005
3599.00,0.0005
3598.00,0.0005
3597.00,0.0005
3596.00,0.0004
3595.00,0.0004
3594.00,0.0005
3593.00,0.0005
3592.00,0.0005
3591.00,0.0005
3590.00,0.0005
3589.00,0.0005
3588.00,0.0005
3587.00,0.0005
3586.00,0.0006
3585.00,0.0006
3584.00,0.0007
3583.00,0.0007
3582.00,0.0007
3581.00,0.0008
3580.00,0.0008
3579.00,0.0007
3578.00,0.0007
3577.00,0.0007
3576.00,0.0007
3575.00,0.0007
3574.00,0.0007
3573.00,0.0007
3572.00,0.0007
3571.00,0.0007
3570.00,0.0007
3569.00,0.0008
3568.00,0.0009
3567.00,0.0009
3566.00,0.0009
3565.00,0.0009
3564.00,0.0009
3563.00,0.0008
3562.00,0.0008
3561.00,0.0008
3560.00,0.0008
3559.00,0.0008
3558.00,0.0008
3557.00,0.0008
3556.00,0.0009
3555.00,0.0009
3554.00,0.0009
3553.00,0.0008
3552.00,0.0008
3551.00,0.0008
3550.00,0.0008
3549.00,0.0008
3548.00,0.0008
3547.00,0.0009
3546.00,0.0009
3545.00,0.0009
3544.00,0.0009
3543.00,0.0009
3542.00,0.0009
3541.00,0.0009
3540.00,0.0010
3539.00,0.0010
3538.00,0.0010
3537.00,0.0010
3536.00,0.0010
3535.00,0.0010
3534.00,0.0010
3533.00,0.0010
3532.00,0.0010
3531.00,0.0010
3530.00,0.0010
3529.00,0.0010
3528.00,0.0011
3527.00,0.0011
3526.00,0.0011
3525.00,0.0011
3524.00,0.0011
3523.00,0.0011
3522.00,0.0011
3521.00,0.0011
3520.00,0.0011
3519.00,0.0011
3518.00,0.0012
3517.00,0.0012
3516.00,0.0012
3515.00,0.0012
3514.00,0.0012
3513.00,0.0012
3512.00,0.0011
3511.00,0.0011
3510.00,0.0011
3509.00,0.0011
3508.00,0.0011
3507.00,0.0011
3506.00,0.0012
3505.00,0.0012
3504.00,0.0012
3503.00,0.0012
3502.00,0.0012
3501.00,0.0012
3500.00,0.0012
3499.00,0.0012
3498.00,0.0012
3497.00,0.0012
3496.00,0.0012
3495.00,0.0012
3494.00,0.0013
3493.00,0.0013
3492.00,0.0013
3491.00,0.0013
3490.00,0.0013
3489.00,0.0012
3488.00,0.0013
3487.00,0.0013
3486.00,0.0013
3485.00,0.0014
3484.00,0.0014
3483.00,0.0014
3482.00,0.0014
3481.00,0.0014
3480.00,0.0014
3479.00,0.0014
3478.00,0.0014
3477.00,0.0015
3476.00,0.0015
3475.00,0.0015
3474.00,0.0015
3473.00,0.0015
3472.00,0.0015
3471.00,0.0014
3470.00,0.0014
3469.00,0.0014
3468.00,0.0014
3467.00,0.0014
3466.00,0.0014
3465.00,0.0015
3464.00,0.0015
3463.00,0.0015
3462.00,0.0015
3461.00,0.0014
3460.00,0.0014
3459.00,0.0014
3458.00,0.0015
3457.00,0.0015
3456.00,0.0015
3455.00,0.0015
3454.00,0.0016
3453.00,0.0016
3452.00,0.0016
3451.00,0.0016
3450.00,0.0015
3449.00,0.0015
3448.00,0.0016
3447.00,0.0016
3446.00,0.0016
3445.00,0.0016
3444.00,0.0016
3443.00,0.0016
3442.00,0.0016
3441.00,0.0016
3440.00,0.0016
3439.00,0.0016
3438.00,0.0016
3437.00,0.0016
3436.00,0.0016
3435.00,0.0017
3434.00,0.0017
3433.00,0.0017
3432.00,0.0017
3431.00,0.0017
3430.00,0.0017
3429.00,0.0017
3428.00,0.0018
3427.00,0.0018
3426.00,0.0018
3425.00,0.0018
3424.00,0.0018
3423.00,0.0018
3422.00,0.0017
3421.00,0.0017
3420.00,0.0018
3419.00,0.0018
3418.00,0.0019
3417.00,0.0019
3416.00,0.0019
3415.00,0.0019
3414.00,0.0018
3413.00,0.0019
3412.00,0.0019
3411.00,0.0019
3410.00,0.0019
3409.00,0.0019
3408.00,0.0019
3407.00,0.0019
3406.00,0.0019
3405.00,0.0018
3404.00,0.0018
3403.00,0.0018
3402.00,0.0018
3401.00,0.0018
3400.00,0.0018
3399.00,0.0018
3398.00,0.0018
3397.00,0.0018
3396.00,0.0018
3395.00,0.0019
3394.00,0.0019
3393.00,0.0019
3392.00,0.0019
3391.00,0.0019
3390.00,0.0019
3389.00,0.0019
3388.00,0.0019
3387.00,0.0019
3386.00,0.0019
3385.00,0.0019
3384.00,0.0019
3383.00,0.0018
3382.00,0.0018
3381.00,0.0018
3380.00,0.0018
3379.00,0.0018
3378.00,0.0018
3377.00,0.0019
3376.00,0.0019
3375.00,0.0019
3374.00,0.0019
3373.00,0.0019
3372.00,0.0019
3371.00,0.0019
3370.00,0.0019
3369.00,0.0019
3368.00,0.0020
3367.00,0.0020
3366.00,0.0020
3365.00,0.0020
3364.00,0.0020
3363.00,0.0019
3362.00,0.0019
3361.00,0.0019
3360.00,0.0019
3359.00,0.0019
3358.00,0.0020
3357.00,0.0020
3356.00,0.0020
3355.00,0.0019
3354.00,0.0019
3353.00,0.0020
3352.00,0.0020
3351.00,0.0020
3350.00,0.0020
3349.00,0.0020
3348.00,0.0020
3347.00,0.0020
3346.00,0.0020
3345.00,0.0021
3344.00,0.0021
3343.00,0.0021
3342.00,0.0021
3341.00,0.0021
3340.00,0.0021
3339.00,0.0020
3338.00,0.0020
3337.00,0.0020
3336.00,0.0020
3335.00,0.0020
3334.00,0.0020
3333.00,0.0020
3332.00,0.0020
3331.00,0.0020
3330.00,0.0020
3329.00,0.0020
3328.00,0.0020
3327.00,0.0020
3326.00,0.0019
3325.00,0.0019
3324.00,0.0019
3323.00,0.0019
3322.00,0.0018
3321.00,0.0018
3320.00,0.0019
3319.00,0.0019
3318.00,0.0019
3317.00,0.0019
3316.00,0.0019
3315.00,0.0019
3314.00,0.0020
3313.00,0.0020
3312.00,0.0020
3311.00,0.0019
3310.00,0.0019
3309.00,0.0019
3308.00,0.0019
3307.00,0.0019
3306.00,0.0020
3305.00,0.0020
3304.00,0.0020
3303.00,0.0020
3302.00,0.0020
3301.00,0.0020
3300.00,0.0020
3299.00,0.0020
3298.00,0.0020
3297.00,0.0020
3296.00,0.0020
3295.00,0.0020
3294.00,0.0020
3293.00,0.0019
3292.00,0.0019
3291.00,0.0019
3290.00,0.0019
3289.00,0.0019
3288.00,0.0019
3287.00,0.0019
3286.00,0.0019
3285.00,0.0019
3284.00,0.0019
3283.00,0.0019
3282.00,0.0018
3281.00,0.0018
3280.00,0.0018
3279.00,0.0018
3278.00,0.0018
3277.00,0.0018
3276.00,0.0018
3275.00,0.0018
3274.00,0.0018
3273.00,0.0018
3272.00,0.0018
3271.00,0.0018
3270.00,0.0018
3269.00,0.0018
3268.00,0.0018
3267.00,0.0019
3266.00,0.0019
3265.00,0.0019
3264.00,0.0019
3263.00,0.0019
3262.00,0.0018
3261.00,0.0018
3260.00,0.0018
3259.00,0.0018
3258.00,0.0018
3257.00,0.0017
3256.00,0.0017
3255.00,0.0017
3254.00,0.0017
3253.00,0.0017
3252.00,0.0017
3251.00,0.0017
3250.00,0.0017
3249.00,0.0017
3248.00,0.0017
3247.00,0.0017
3246.00,0.0017
3245.00,0.0017
3244.00,0.0017
3243.00,0.0017
3242.00,0.0017
3241.00,0.0017
3240.00,0.0017
3239.00,0.0017
3238.00,0.0017
3237.00,0.0017
3236.00,0.0018
3235.00,0.0018
3234.00,0.0018
3233.00,0.0018
3232.00,0.0017
3231.00,0.0017
3230.00,0.0017
3229.00,0.0018
3228.00,0.0018
3227.00,0.0018
3226.00,0.0018
3225.00,0.0019
3224.00,0.0019
3223.00,0.0019
3222.00,0.0019
3221.00,0.0019
3220.00,0.0019
3219.00,0.0019
3218.00,0.0019
3217.00,0.0020
3216.00,0.0020
3215.00,0.0021
3214.00,0.0021
3213.00,0.0021
3212.00,0.0021
3211.00,0.0021
3210.00,0.0021
3209.00,0.0021
3208.00,0.0021
3207.00,0.0021
3206.00,0.0021
3205.00,0.0021
3204.00,0.0021
3203.00,0.0021
3202.00,0.0022
3201.00,0.0022
3200.00,0.0022
3199.00,0.0022
3198.00,0.0022
3197.00,0.0022
3196.00,0.0022
3195.00,0.0022
3194.00,0.0022
3193.00,0.0022
3192.00,0.0022
3191.00,0.0022
3190.00,0.0021
3189.00,0.0021
3188.00,0.0021
3187.00,0.0021
3186.00,0.0020
3185.00,0.0021
3184.00,0.0021
3183.00,0.0021
3182.00,0.0021
3181.00,0.0021
3180.00,0.0021
3179.00,0.0021
3178.00,0.0021
3177.00,0.0021
3176.00,0.0021
3175.00,0.0020
3174.00,0.0020
3173.00,0.0020
3172.00,0.0019
3171.00,0.0019
3170.00,0.0020
3169.00,0.0020
3168.00,0.0020
3167.00,0.0020
3166.00,0.0020
3165.00,0.0019
3164.00,0.0019
3163.00,0.0019
3162.00,0.0019
3161.00,0.0019
3160.00,0.0019
3159.00,0.0019
3158.00,0.0019
3157.00,0.0019
3156.00,0.0019
3155.00,0.0019
3154.00,0.0019
3153.00,0.0019
3152.00,0.0019
3151.00,0.0019
3150.00,0.0019
3149.00,0.0020
3148.00,0.0020
3147.00,0.0020
3146.00,0.0020
3145.00,0.0020
3144.00,0.0020
3143.00,0.0020
3142.00,0.0020
3141.00,0.0020
3140.00,0.0020
3139.00,0.0019
3138.00,0.0019
3137.00,0.0019
3136.00,0.0019
3135.00,0.0019
3134.00,0.0019
3133.00,0.0019
3132.00,0.0019
3131.00,0.0019
3130.00,0.0019
3129.00,0.0019
3128.00,0.0019
3127.00,0.0018
3126.00,0.0018
3125.00,0.0017
3124.00,0.0017
3123.00,0.0017
3122.00,0.0017
3121.00,0.0017
3120.00,0.0017
3119.00,0.0017
3118.00,0.0017
3117.00,0.0016
3116.00,0.0016
3115.00,0.0016
3114.00,0.0016
3113.00,0.0016
3112.00,0.0016
3111.00,0.0016
3110.00,0.0016
3109.00,0.0016
3108.00,0.0016
3107.00,0.0017
3106.00,0.0017
3105.00,0.0016
3104.00,0.0016
3103.00,0.0016
3102.00,0.0016
3101.00,0.0016
3100.00,0.0016
3099.00,0.0016
3098.00,0.0016
3097.00,0.0016
3096.00,0.0016
3095.00,0.0016
3094.00,0.0016
3093.00,0.0016
3092.00,0.0016
3091.00,0.0016
3090.00,0.0016
3089.00,0.0017
3088.00,0.0017
3087.00,0.0017
3086.00,0.0017
3085.00,0.0017
3084.00,0.0017
3083.00,0.0016
3082.00,0.0017
3081.00,0.0017
3080.00,0.0017
3079.00,0.0017
3078.00,0.0017
3077.00,0.0017
3076.00,0.0017
3075.00,0.0018
3074.00,0.0018
3073.00,0.0018
3072.00,0.0018
3071.00,0.0018
3070.00,0.0018
3069.00,0.0018
3068.00,0.0018
3067.00,0.0018
3066.00,0.0018
3065.00,0.0018
3064.00,0.0018
3063.00,0.0019
3062.00,0.0019
3061.00,0.0019
3060.00,0.0019
3059.00,0.0019
3058.00,0.0019
3057.00,0.0019
3056.00,0.0019
3055.00,0.0019
3054.00,0.0019
3053.00,0.0019
3052.00,0.0020
3051.00,0.0019
3050.00,0.0019
3049.00,0.0020
3048.00,0.0020
3047.00,0.0020
3046.00,0.0020
3045.00,0.0020
3044.00,0.0021
3043.00,0.0021
3042.00,0.0021
3041.00,0.0022
3040.00,0.0022
3039.00,0.0022
3038.00,0.0022
3037.00,0.0022
3036.00,0.0022
3035.00,0.0022
3034.00,0.0022
3033.00,0.0023
3032.00,0.0023
3031.00,0.0024
3030.00,0.0024
3029.00,0.0024
3028.00,0.0024
3027.00,0.0024
3026.00,0.0025
3025.00,0.0025
3024.00,0.0026
3023.00,0.0027
3022.00,0.0027
3021.00,0.0028
3020.00,0.0028
3019.00,0.0029
3018.00,0.0030
3017.00,0.0031
3016.00,0.0031
3015.00,0.0032
3014.00,0.0033
3013.00,0.0033
3012.00,0.0034
3011.00,0.0035
3010.00,0.0036
3009.00,0.0037
3008.00,0.0039
3007.00,0.0040
3006.00,0.0041
3005.00,0.0043
3004.00,0.0044
3003.00,0.0046
3002.00,0.0047
3001.00,0.0049
3000.00,0.0050
2999.00,0.0052
2998.00,0.0054
2997.00,0.0056
2996.00,0.0059
2995.00,0.0062
2994.00,0.0064
2993.00,0.0067
2992.00,0.0071
2991.00,0.0075
2990.00,0.0080
2989.00,0.0085
2988.00,0.0091
2987.00,0.0097
2986.00,0.0104
2985.00,0.0111
2984.00,0.0120
2983.00,0.0129
2982.00,0.0140
2981.00,0.0153
2980.00,0.0167
2979.00,0.0182
2978.00,0.0200
2977.00,0.0221
2976.00,0.0245
2975.00,0.0272
2974.00,0.0302
2973.00,0.0337
2972.00,0.0377
2971.00,0.0421
2970.00,0.0472
2969.00,0.0527
2968.00,0.0588
2967.00,0.0653
2966.00,0.0722
2965.00,0.0793
2964.00,0.0862
2963.00,0.0929
2962.00,0.0988
2961.00,0.1038
2960.00,0.1078
2959.00,0.1109
2958.00,0.1134
2957.00,0.1156
2956.00,0.1179
2955.00,0.1205
2954.00,0.1236
2953.00,0.1268
2952.00,0.1295
2951.00,0.1312
2950.00,0.1310
2949.00,0.1285
2948.00,0.1237
2947.00,0.1168
2946.00,0.1086
2945.00,0.1001
2944.00,0.0920
2943.00,0.0850
2942.00,0.0797
2941.00,0.0760
2940.00,0.0740
2939.00,0.0735
2938.00,0.0744
2937.00,0.0765
2936.00,0.0797
2935.00,0.0839
2934.00,0.0889
2933.00,0.0948
2932.00,0.1013
2931.00,0.1084
2930.00,0.1157
2929.00,0.1232
2928.00,0.1306
2927.00,0.1377
2926.00,0.1444
2925.00,0.1508
2924.00,0.1569
2923.00,0.1629
2922.00,0.1686
2921.00,0.1740
2920.00,0.1786
2919.00,0.1819
2918.00,0.1834
2917.00,0.1827
2916.00,0.1797
2915.00,0.1749
2914.00,0.1688
2913.00,0.1622
2912.00,0.1556
2911.00,0.1495
2910.00,0.1441
2909.00,0.1393
2908.00,0.1349
2907.00,0.1307
2906.00,0.1266
2905.00,0.1224
2904.00,0.1181
2903.00,0.1136
2902.00,0.1092
2901.00,0.1047
2900.00,0.1003
2899.00,0.0962
2898.00,0.0922
2897.00,0.0886
2896.00,0.0854
2895.00,0.0826
2894.00,0.0802
2893.00,0.0782
2892.00,0.0766
2891.00,0.0754
2890.00,0.0745
2889.00,0.0740
2888.00,0.0737
2887.00,0.0737
2886.00,0.0738
2885.00,0.0742
2884.00,0.0750
2883.00,0.0761
2882.00,0.0774
2881.00,0.0789
2880.00,0.0805
2879.00,0.0818
2878.00,0.0826
2877.00,0.0828
2876.00,0.0825
2875.00,0.0820
2874.00,0.0815
2873.00,0.0813
2872.00,0.0817
2871.00,0.0825
2870.00,0.0837
2869.00,0.0848
2868.00,0.0854
2867.00,0.0850
2866.00,0.0832
2865.00,0.0800
2864.00,0.0756
2863.00,0.0706
2862.00,0.0656
2861.00,0.0613
2860.00,0.0579
2859.00,0.0556
2858.00,0.0544
2857.00,0.0540
2856.00,0.0544
2855.00,0.0552
2854.00,0.0565
2853.00,0.0580
2852.00,0.0595
2851.00,0.0609
2850.00,0.0618
2849.00,0.0625
2848.00,0.0631
2847.00,0.0640
2846.00,0.0654
2845.00,0.0677
2844.00,0.0708
2843.00,0.0745
2842.00,0.0786
2841.00,0.0826
2840.00,0.0858
2839.00,0.0878
2838.00,0.0879
2837.00,0.0858
2836.00,0.0814
2835.00,0.0752
2834.00,0.0678
2833.00,0.0600
2832.00,0.0525
2831.00,0.0458
2830.00,0.0401
2829.00,0.0355
2828.00,0.0317
2827.00,0.0287
2826.00,0.0262
2825.00,0.0241
2824.00,0.0224
2823.00,0.0210
2822.00,0.0198
2821.00,0.0187
2820.00,0.0178
2819.00,0.0170
2818.00,0.0163
2817.00,0.0157
2816.00,0.0151
2815.00,0.0146
2814.00,0.0142
2813.00,0.0137
2812.00,0.0134
2811.00,0.0130
2810.00,0.0126
2809.00,0.0123
2808.00,0.0118
2807.00,0.0114
2806.00,0.0109
2805.00,0.0105
2804.00,0.0100
2803.00,0.0096
2802.00,0.0092
2801.00,0.0089
2800.00,0.0086
2799.00,0.0084
2798.00,0.0082
2797.00,0.0081
2796.00,0.0079
2795.00,0.0077
2794.00,0.0075
2793.00,0.0073
2792.00,0.0071
2791.00,0.0069
2790.00,0.0066
2789.00,0.0064
2788.00,0.0062
2787.00,0.0059
2786.00,0.0057
2785.00,0.0055
2784.00,0.0054
2783.00,0.0052
2782.00,0.0051
2781.00,0.0050
2780.00,0.0049
2779.00,0.0047
2778.00,0.0046
2777.00,0.0045
2776.00,0.0044
2775.00,0.0043
2774.00,0.0042
2773.00,0.0042
2772.00,0.0041
2771.00,0.0041
2770.00,0.0041
2769.00,0.0041
2768.00,0.0041
2767.00,0.0040
2766.00,0.0040
2765.00,0.0040
2764.00,0.0039
2763.00,0.0039
2762.00,0.0039
2761.00,0.0039
2760.00,0.0039
2759.00,0.0039
2758.00,0.0039
2757.00,0.0039
2756.00,0.0039
2755.00,0.0039
2754.00,0.0039
2753.00,0.0039
2752.00,0.0039
2751.00,0.0038
2750.00,0.0038
2749.00,0.0037
2748.00,0.0037
2747.00,0.0037
2746.00,0.0038
2745.00,0.0038
2744.00,0.0039
2743.00,0.0040
2742.00,0.0040
2741.00,0.0041
2740.00,0.0042
2739.00,0.0043
2738.00,0.0044
2737.00,0.0045
2736.00,0.0046
2735.00,0.0047
2734.00,0.0048
2733.00,0.0049
2732.00,0.0050
2731.00,0.0051
2730.00,0.0052
2729.00,0.0054
2728.00,0.0056
2727.00,0.0058
2726.00,0.0060
2725.00,0.0062
2724.00,0.0063
2723.00,0.0064
2722.00,0.0063
2721.00,0.0062
2720.00,0.0059
2719.00,0.0057
2718.00,0.0054
2717.00,0.0052
2716.00,0.0050
2715.00,0.0048
2714.00,0.0047
2713.00,0.0045
2712.00,0.0044
2711.00,0.0043
2710.00,0.0042
2709.00,0.0041
2708.00,0.0041
2707.00,0.0040
2706.00,0.0039
2705.00,0.0038
2704.00,0.0037
2703.00,0.0036
2702.00,0.0035
2701.00,0.0034
2700.00,0.0034
2699.00,0.0033
2698.00,0.0033
2697.00,0.0033
2696.00,0.0033
2695.00,0.0033
2694.00,0.0033
2693.00,0.0033
2692.00,0.0033
2691.00,0.0034
2690.00,0.0034
2689.00,0.0034
2688.00,0.0034
2687.00,0.0034
2686.00,0.0035
2685.00,0.0035
2684.00,0.0035
2683.00,0.0035
2682.00,0.0035
2681.00,0.0035
2680.00,0.0035
2679.00,0.0035
2678.00,0.0035
2677.00,0.0035
2676.00,0.0035
2675.00,0.0034
2674.00,0.0034
2673.00,0.0034
2672.00,0.0033
2671.00,0.0033
2670.00,0.0033
2669.00,0.0034
2668.00,0.0034
2667.00,0.0034
2666.00,0.0034
2665.00,0.0034
2664.00,0.0035
2663.00,0.0035
2662.00,0.0036
2661.00,0.0037
2660.00,0.0037
2659.00,0.0037
2658.00,0.0037
2657.00,0.0037
2656.00,0.0037
2655.00,0.0036
2654.00,0.0036
2653.00,0.0035
2652.00,0.0035
2651.00,0.0034
2650.00,0.0034
2649.00,0.0034
2648.00,0.0034
2647.00,0.0033
2646.00,0.0033
2645.00,0.0033
2644.00,0.0032
2643.00,0.0032
2642.00,0.0031
2641.00,0.0030
2640.00,0.0030
2639.00,0.0030
2638.00,0.0029
2637.00,0.0029
2636.00,0.0029
2635.00,0.0028
2634.00,0.0028
2633.00,0.0028
2632.00,0.0029
2631.00,0.0029
2630.00,0.0030
2629.00,0.0030
2628.00,0.0030
2627.00,0.0030
2626.00,0.0030
2625.00,0.0030
2624.00,0.0030
2623.00,0.0031
2622.00,0.0031
2621.00,0.0031
2620.00,0.0031
2619.00,0.0031
2618.00,0.0031
2617.00,0.0031
2616.00,0.0031
2615.00,0.0031
2614.00,0.0031
2613.00,0.0030
2612.00,0.0030
2611.00,0.0029
2610.00,0.0029
2609.00,0.0029
2608.00,0.0028
2607.00,0.0028
2606.00,0.0027
2605.00,0.0026
2604.00,0.0026
2603.00,0.0025
2602.00,0.0024
2601.00,0.0023
2600.00,0.0023
2599.00,0.0023
2598.00,0.0023
2597.00,0.0023
2596.00,0.0023
2595.00,0.0024
2594.00,0.0024
2593.00,0.0024
2592.00,0.0025
2591.00,0.0025
2590.00,0.0026
2589.00,0.0027
2588.00,0.0028
2587.00,0.0029
2586.00,0.0029
2585.00,0.0030
2584.00,0.0030
2583.00,0.0030
2582.00,0.0030
2581.00,0.0030
2580.00,0.0030
2579.00,0.0029
2578.00,0.0028
2577.00,0.0027
2576.00,0.0026
2575.00,0.0025
2574.00,0.0024
2573.00,0.0023
2572.00,0.0022
2571.00,0.0021
2570.00,0.0020
2569.00,0.0020
2568.00,0.0019
2567.00,0.0019
2566.00,0.0019
2565.00,0.0019
2564.00,0.0019
2563.00,0.0018
2562.00,0.0018
2561.00,0.0019
2560.00,0.0019
2559.00,0.0019
2558.00,0.0018
2557.00,0.0018
2556.00,0.0017
2555.00,0.0017
2554.00,0.0016
2553.00,0.0016
2552.00,0.0016
2551.00,0.0016
2550.00,0.0016
2549.00,0.0016
2548.00,0.0016
2547.00,0.0015
2546.00,0.0015
2545.00,0.0015
2544.00,0.0015
2543.00,0.0014
2542.00,0.0013
2541.00,0.0013
2540.00,0.0012
2539.00,0.0012
2538.00,0.0012
2537.00,0.0013
2536.00,0.0014
2535.00,0.0014
2534.00,0.0014
2533.00,0.0013
2532.00,0.0013
2531.00,0.0013
2530.00,0.0013
2529.00,0.0013
2528.00,0.0012
2527.00,0.0011
2526.00,0.0011
2525.00,0.0011
2524.00,0.0011
2523.00,0.0011
2522.00,0.0011
2521.00,0.0010
2520.00,0.0009
2519.00,0.0009
2518.00,0.0009
2517.00,0.0009
2516.00,0.0009
2515.00,0.0008
2514.00,0.0008
2513.00,0.0008
2512.00,0.0008
2511.00,0.0008
2510.00,0.0008
2509.00,0.0009
2508.00,0.0009
2507.00,0.0009
2506.00,0.0009
2505.00,0.0008
2504.00,0.0008
2503.00,0.0008
2502.00,0.0008
2501.00,0.0008
2500.00,0.0009
2499.00,0.0009
2498.00,0.0009
2497.00,0.0009
2496.00,0.0009
2495.00,0.0009
2494.00,0.0009
2493.00,0.0009
2492.00,0.0009
2491.00,0.0008
2490.00,0.0008
2489.00,0.0008
2488.00,0.0008
2487.00,0.0008
2486.00,0.0008
2485.00,0.0008
2484.00,0.0008
2483.00,0.0008
2482.00,0.0008
2481.00,0.0008
2480.00,0.0008
2479.00,0.0008
2478.00,0.0008
2477.00,0.0007
2476.00,0.0007
2475.00,0.0007
2474.00,0.0007
2473.00,0.0007
2472.00,0.0007
2471.00,0.0007
2470.00,0.0007
2469.00,0.0007
2468.00,0.0007
2467.00,0.0008
2466.00,0.0007
2465.00,0.0007
2464.00,0.0007
2463.00,0.0007
2462.00,0.0007
2461.00,0.0007
2460.00,0.0007
2459.00,0.0007
2458.00,0.0007
2457.00,0.0008
2456.00,0.0008
2455.00,0.0008
2454.00,0.0008
2453.00,0.0008
2452.00,0.0008
2451.00,0.0009
2450.00,0.0009
2449.00,0.0009
2448.00,0.0009
2447.00,0.0009
2446.00,0.0009
2445.00,0.0009
2444.00,0.0009
2443.00,0.0009
2442.00,0.0009
2441.00,0.0009
2440.00,0.0009
2439.00,0.0009
2438.00,0.0009
2437.00,0.0009
2436.00,0.0009
2435.00,0.0009
2434.00,0.0008
2433.00,0.0008
2432.00,0.0008
2431.00,0.0009
2430.00,0.0009
2429.00,0.0009
2428.00,0.0010
2427.00,0.0010
2426.00,0.0010
2425.00,0.0009
2424.00,0.0008
2423.00,0.0007
2422.00,0.0007
2421.00,0.0007
2420.00,0.0008
2419.00,0.0008
2418.00,0.0007
2417.00,0.0007
2416.00,0.0007
2415.00,0.0007
2414.00,0.0008
2413.00,0.0008
2412.00,0.0009
2411.00,0.0009
2410.00,0.0009
2409.00,0.0009
2408.00,0.0008
2407.00,0.0008
2406.00,0.0007
2405.00,0.0008
2404.00,0.0008
2403.00,0.0008
2402.00,0.0008
2401.00,0.0008
2400.00,0.0007
2399.00,0.0007
2398.00,0.0007
2397.00,0.0006
2396.00,0.0006
2395.00,0.0006
2394.00,0.0007
2393.00,0.0008
2392.00,0.0008
2391.00,0.0007
2390.00,0.0006
2389.00,0.0005
2388.00,0.0005
2387.00,0.0005
2386.00,0.0005
2385.00,0.0005
2384.00,0.0004
2383.00,0.0004
2382.00,0.0003
2381.00,0.0003
2380.00,0.0002
2379.00,0.0001
2378.00,0.0001
2377.00,0.0001
2376.00,0.0000
2375.00,0.0001
2374.00,0.0001
2373.00,0.0001
2372.00,0.0001
2371.00,0.0001
2370.00,0.0002
2369.00,0.0002
2368.00,0.0002
2367.00,0.0001
2366.00,0.0000
2365.00,-0.0000
2364.00,-0.0000
2363.00,0.0000
2362.00,0.0001
2361.00,0.0001
2360.00,0.0001
2359.00,0.0001
2358.00,0.0002
2357.00,0.0002
2356.00,0.0002
2355.00,0.0002
2354.00,0.0002
2353.00,0.0002
2352.00,0.0002
2351.00,0.0001
2350.00,0.0001
2349.00,0.0002
2348.00,0.0002
2347.00,0.0003
2346.00,0.0003
2345.00,0.0003
2344.00,0.0002
2343.00,0.0003
2342.00,0.0003
2341.00,0.0004
2340.00,0.0004
2339.00,0.0005
2338.00,0.0004
2337.00,0.0004
2336.00,0.0004
2335.00,0.0004
2334.00,0.0004
2333.00,0.0004
2332.00,0.0004
2331.00,0.0004
2330.00,0.0004
2329.00,0.0005
2328.00,0.0006
2327.00,0.0009
2326.00,0.0012
2325.00,0.0015
2324.00,0.0017
2323.00,0.0017
2322.00,0.0016
2321.00,0.0013
2320.00,0.0011
2319.00,0.0009
2318.00,0.0008
2317.00,0.0008
2316.00,0.0008
2315.00,0.0007
2314.00,0.0007
2313.00,0.0007
2312.00,0.0007
2311.00,0.0008
2310.00,0.0008
2309.00,0.0009
2308.00,0.0009
2307.00,0.0008
2306.00,0.0008
2305.00,0.0008
2304.00,0.0008
2303.00,0.0008
2302.00,0.0009
2301.00,0.0009
2300.00,0.0009
2299.00,0.0009
2298.00,0.0009
2297.00,0.0010
2296.00,0.0011
2295.00,0.0011
2294.00,0.0011
2293.00,0.0011
2292.00,0.0011
2291.00,0.0012
2290.00,0.0012
2289.00,0.0013
2288.00,0.0014
2287.00,0.0015
2286.00,0.0016
2285.00,0.0016
2284.00,0.0016
2283.00,0.0015
2282.00,0.0014
2281.00,0.0013
2280.00,0.0012
2279.00,0.0012
2278.00,0.0011
2277.00,0.0011
2276.00,0.0011
2275.00,0.0012
2274.00,0.0012
2273.00,0.0012
2272.00,0.0011
2271.00,0.0011
2270.00,0.0011
2269.00,0.0012
2268.00,0.0013
2267.00,0.0013
2266.00,0.0012
2265.00,0.0012
2264.00,0.0011
2263.00,0.0010
2262.00,0.0009
2261.00,0.0009
2260.00,0.0010
2259.00,0.0011
2258.00,0.0011
2257.00,0.0011
2256.00,0.0009
2255.00,0.0008
2254.00,0.0007
2253.00,0.0008
2252.00,0.0008
2251.00,0.0008
2250.00,0.0007
2249.00,0.0006
2248.00,0.0006
2247.00,0.0006
2246.00,0.0007
2245.00,0.0008
2244.00,0.0008
2243.00,0.0007
2242.00,0.0006
2241.00,0.0006
2240.00,0.0006
2239.00,0.0008
2238.00,0.0009
2237.00,0.0009
2236.00,0.0008
2235.00,0.0006
2234.00,0.0005
2233.00,0.0005
2232.00,0.0006
2231.00,0.0007
2230.00,0.0008
2229.00,0.0008
2228.00,0.0009
2227.00,0.0009
2226.00,0.0009
2225.00,0.0008
2224.00,0.0007
2223.00,0.0007
2222.00,0.0006
2221.00,0.0005
2220.00,0.0004
2219.00,0.0003
2218.00,0.0003
2217.00,0.0003
2216.00,0.0004
2215.00,0.0004
2214.00,0.0004
2213.00,0.0004
2212.00,0.0005
2211.00,0.0006
2210.00,0.0006
2209.00,0.0006
2208.00,0.0005
2207.00,0.0004
2206.00,0.0004
2205.00,0.0005
2204.00,0.0007
2203.00,0.0008
2202.00,0.0008
2201.00,0.0007
2200.00,0.0006
2199.00,0.0006
2198.00,0.0006
2197.00,0.0007
2196.00,0.0008
2195.00,0.0009
2194.00,0.0009
2193.00,0.0009
2192.00,0.0008
2191.00,0.0006
2190.00,0.0003
2189.00,0.0002
2188.00,0.0002
2187.00,0.0005
2186.00,0.0008
2185.00,0.0010
2184.00,0.0009
2183.00,0.0006
2182.00,0.0002
2181.00,-0.0000
2180.00,-0.0001
2179.00,-0.0001
2178.00,0.0000
2177.00,0.0001
2176.00,0.0001
2175.00,0.0002
2174.00,0.0004
2173.00,0.0007
2172.00,0.0008
2171.00,0.0008
2170.00,0.0007
2169.00,0.0007
2168.00,0.0009
2167.00,0.0010
2166.00,0.0010
2165.00,0.0010
2164.00,0.0012
2163.00,0.0015
2162.00,0.0018
2161.00,0.0015
2160.00,0.0006
2159.00,-0.0008
2158.00,-0.0018
2157.00,-0.0022
2156.00,-0.0020
2155.00,-0.0016
2154.00,-0.0014
2153.00,-0.0012
2152.00,-0.0011
2151.00,-0.0009
2150.00,-0.0007
2149.00,-0.0006
2148.00,-0.0007
2147.00,-0.0009
2146.00,-0.0010
2145.00,-0.0011
2144.00,-0.0010
2143.00,-0.0011
2142.00,-0.0011
2141.00,-0.0012
2140.00,-0.0013
2139.00,-0.0013
2138.00,-0.0014
2137.00,-0.0016
2136.00,-0.0018
2135.00,-0.0019
2134.00,-0.0019
2133.00,-0.0017
2132.00,-0.0014
2131.00,-0.0012
2130.00,-0.0011
2129.00,-0.0011
2128.00,-0.0011
2127.00,-0.0010
2126.00,-0.0009
2125.00,-0.0008
2124.00,-0.0007
2123.00,-0.0005
2122.00,-0.0004
2121.00,-0.0004
2120.00,-0.0003
2119.00,-0.0002
2118.00,-0.0002
2117.00,-0.0002
2116.00,-0.0002
2115.00,-0.0003
2114.00,-0.0003
2113.00,-0.0002
2112.00,-0.0000
2111.00,0.0001
2110.00,0.0002
2109.00,0.0002
2108.00,0.0003
2107.00,0.0004
2106.00,0.0004
2105.00,0.0002
2104.00,0.0001
2103.00,-0.0001
2102.00,-0.0001
2101.00,-0.0001
2100.00,-0.0001
2099.00,-0.0001
2098.00,0.0000
2097.00,0.0001
2096.00,0.0001
2095.00,-0.0001
2094.00,-0.0003
2093.00,-0.0004
2092.00,-0.0004
2091.00,-0.0002
2090.00,-0.0000
2089.00,0.0001
2088.00,0.0001
2087.00,0.0002
2086.00,0.0001
2085.00,0.0001
2084.00,0.0000
2083.00,-0.0000
2082.00,0.0000
2081.00,0.0002
2080.00,0.0003
2079.00,0.0004
2078.00,0.0004
2077.00,0.0004
2076.00,0.0004
2075.00,0.0004
2074.00,0.0004
2073.00,0.0003
2072.00,0.0003
2071.00,0.0001
2070.00,-0.0001
2069.00,-0.0003
2068.00,-0.0003
2067.00,-0.0002
2066.00,-0.0002
2065.00,-0.0001
2064.00,-0.0001
2063.00,0.0000
2062.00,0.0000
2061.00,0.0000
2060.00,-0.0001
2059.00,-0.0001
2058.00,-0.0000
2057.00,0.0000
2056.00,0.0000
2055.00,-0.0001
2054.00,-0.0002
2053.00,-0.0000
2052.00,0.0003
2051.00,0.0006
2050.00,0.0007
2049.00,0.0006
2048.00,0.0005
2047.00,0.0004
2046.00,0.0003
2045.00,0.0002
2044.00,0.0000
2043.00,-0.0001
2042.00,-0.0002
2041.00,-0.0001
2040.00,-0.0001
2039.00,-0.0001
2038.00,-0.0002
2037.00,-0.0003
2036.00,-0.0003
2035.00,-0.0004
2034.00,-0.0005
2033.00,-0.0006
2032.00,-0.0008
2031.00,-0.0009
2030.00,-0.0008
2029.00,-0.0006
2028.00,-0.0004
2027.00,-0.0003
2026.00,-0.0004
2025.00,-0.0006
2024.00,-0.0009
2023.00,-0.0012
2022.00,-0.0015
2021.00,-0.0017
2020.00,-0.0019
2019.00,-0.0020
2018.00,-0.0018
2017.00,-0.0013
2016.00,-0.0010
2015.00,-0.0009
2014.00,-0.0010
2013.00,-0.0012
2012.00,-0.0012
2011.00,-0.0013
2010.00,-0.0013
2009.00,-0.0013
2008.00,-0.0012
2007.00,-0.0013
2006.00,-0.0014
2005.00,-0.0017
2004.00,-0.0019
2003.00,-0.0020
2002.00,-0.0018
2001.00,-0.0015
2000.00,-0.0012
1999.00,-0.0009
1998.00,-0.0007
1997.00,-0.0006
1996.00,-0.0006
1995.00,-0.0006
1994.00,-0.0007
1993.00,-0.0008
1992.00,-0.0008
1991.00,-0.0009
1990.00,-0.0008
1989.00,-0.0007
1988.00,-0.0004
1987.00,-0.0002
1986.00,-0.0002
1985.00,-0.0002
1984.00,-0.0003
1983.00,-0.0002
1982.00,-0.0000
1981.00,0.0003
1980.00,0.0004
1979.00,0.0003
1978.00,-0.0002
1977.00,-0.0006
1976.00,-0.0008
1975.00,-0.0007
1974.00,-0.0006
1973.00,-0.0006
1972.00,-0.0008
1971.00,-0.0011
1970.00,-0.0015
1969.00,-0.0016
1968.00,-0.0014
1967.00,-0.0011
1966.00,-0.0008
1965.00,-0.0006
1964.00,-0.0006
1963.00,-0.0006
1962.00,-0.0008
1961.00,-0.0009
1960.00,-0.0011
1959.00,-0.0012
1958.00,-0.0013
1957.00,-0.0014
1956.00,-0.0014
1955.00,-0.0015
1954.00,-0.0014
1953.00,-0.0013
1952.00,-0.0011
1951.00,-0.0010
1950.00,-0.0011
1949.00,-0.0011
1948.00,-0.0011
1947.00,-0.0011
1946.00,-0.0011
1945.00,-0.0012
1944.00,-0.0012
1943.00,-0.0012
1942.00,-0.0012
1941.00,-0.0011
1940.00,-0.0011
1939.00,-0.0011
1938.00,-0.0013
1937.00,-0.0013
1936.00,-0.0012
1935.00,-0.0011
1934.00,-0.0010
1933.00,-0.0009
1932.00,-0.0009
1931.00,-0.0009
1930.00,-0.0009
1929.00,-0.0009
1928.00,-0.0008
1927.00,-0.0007
1926.00,-0.0008
1925.00,-0.0009
1924.00,-0.0009
1923.00,-0.0009
1922.00,-0.0007
1921.00,-0.0005
1920.00,-0.0004
1919.00,-0.0002
1918.00,-0.0001
1917.00,-0.0001
1916.00,-0.0001
1915.00,-0.0002
1914.00,-0.0003
1913.00,-0.0004
1912.00,-0.0004
1911.00,-0.0004
1910.00,-0.0004
1909.00,-0.0004
1908.00,-0.0003
1907.00,-0.0003
1906.00,-0.0002
1905.00,-0.0002
1904.00,-0.0002
1903.00,-0.0002
1902.00,-0.0001
1901.00,0.0000
1900.00,0.0001
1899.00,0.0001
1898.00,0.0001
1897.00,0.0001
1896.00,0.0001
1895.00,0.0001
1894.00,0.0001
1893.00,0.0001
1892.00,0.0001
1891.00,0.0001
1890.00,0.0001
1889.00,-0.0000
1888.00,-0.0001
1887.00,-0.0002
1886.00,-0.0002
1885.00,-0.0001
1884.00,-0.0000
1883.00,-0.0000
1882.00,-0.0001
1881.00,-0.0003
1880.00,-0.0004
1879.00,-0.0004
1878.00,-0.0004
1877.00,-0.0004
1876.00,-0.0003
1875.00,-0.0002
1874.00,-0.0002
1873.00,-0.0002
1872.00,-0.0001
1871.00,-0.0001
1870.00,-0.0001
1869.00,-0.0000
1868.00,-0.0000
1867.00,-0.0000
1866.00,-0.0001
1865.00,-0.0001
1864.00,-0.0001
1863.00,-0.0001
1862.00,-0.0001
1861.00,-0.0001
1860.00,-0.0001
1859.00,-0.0000
1858.00,-0.0000
1857.00,-0.0001
1856.00,-0.0001
1855.00,-0.0001
1854.00,-0.0001
1853.00,-0.0001
1852.00,-0.0001
1851.00,-0.0001
1850.00,-0.0001
1849.00,-0.0000
1848.00,-0.0001
1847.00,-0.0001
1846.00,-0.0002
1845.00,-0.0003
1844.00,-0.0002
1843.00,-0.0001
1842.00,0.0001
1841.00,0.0002
1840.00,0.0002
1839.00,0.0002
1838.00,0.0002
1837.00,0.0002
1836.00,0.0002
1835.00,0.0002
1834.00,0.0003
1833.00,0.0003
1832.00,0.0003
1831.00,0.0003
1830.00,0.0003
1829.00,0.0003
1828.00,0.0003
1827.00,0.0003
1826.00,0.0003
1825.00,0.0003
1824.00,0.0003
1823.00,0.0003
1822.00,0.0003
1821.00,0.0003
1820.00,0.0002
1819.00,0.0002
1818.00,0.0001
1817.00,0.0000
1816.00,0.0000
1815.00,-0.0000
1814.00,0.0000
1813.00,0.0000
1812.00,0.0001
1811.00,0.0001
1810.00,0.0001
1809.00,0.0002
1808.00,0.0003
1807.00,0.0003
1806.00,0.0003
1805.00,0.0004
1804.00,0.0004
1803.00,0.0004
1802.00,0.0004
1801.00,0.0003
1800.00,0.0003
1799.00,0.0003
1798.00,0.0003
1797.00,0.0004
1796.00,0.0004
1795.00,0.0004
1794.00,0.0004
1793.00,0.0004
1792.00,0.0004
1791.00,0.0005
1790.00,0.0006
1789.00,0.0006
1788.00,0.0005
1787.00,0.0005
1786.00,0.0005
1785.00,0.0005
1784.00,0.0005
1783.00,0.0005
1782.00,0.0005
1781.00,0.0005
1780.00,0.0005
1779.00,0.0005
1778.00,0.0005
1777.00,0.0006
1776.00,0.0006
1775.00,0.0007
1774.00,0.0008
1773.00,0.0008
1772.00,0.0008
1771.00,0.0008
1770.00,0.0007
1769.00,0.0007
1768.00,0.0008
1767.00,0.0008
1766.00,0.0009
1765.00,0.0009
1764.00,0.0010
1763.00,0.0010
1762.00,0.0010
1761.00,0.0010
1760.00,0.0011
1759.00,0.0011
1758.00,0.0011
1757.00,0.0012
1756.00,0.0013
1755.00,0.0013
1754.00,0.0014
1753.00,0.0014
1752.00,0.0015
1751.00,0.0016
1750.00,0.0017
1749.00,0.0017
1748.00,0.0018
1747.00,0.0018
1746.00,0.0019
1745.00,0.0019
1744.00,0.0019
1743.00,0.0019
1742.00,0.0019
1741.00,0.0019
1740.00,0.0019
1739.00,0.0018
1738.00,0.0019
1737.00,0.0019
1736.00,0.0018
1735.00,0.0018
1734.00,0.0018
1733.00,0.0018
1732.00,0.0018
1731.00,0.0019
1730.00,0.0018
1729.00,0.0018
1728.00,0.0018
1727.00,0.0018
1726.00,0.0017
1725.00,0.0017
1724.00,0.0017
1723.00,0.0017
1722.00,0.0017
1721.00,0.0016
1720.00,0.0016
1719.00,0.0016
1718.00,0.0015
1717.00,0.0015
1716.00,0.0015
1715.00,0.0015
1714.00,0.0015
1713.00,0.0014
1712.00,0.0013
1711.00,0.0012
1710.00,0.0011
1709.00,0.0010
1708.00,0.0009
1707.00,0.0008
1706.00,0.0007
1705.00,0.0007
1704.00,0.0007
1703.00,0.0007
1702.00,0.0007
1701.00,0.0007
1700.00,0.0008
1699.00,0.0008
1698.00,0.0008
1697.00,0.0007
1696.00,0.0009
1695.00,0.0010
1694.00,0.0011
1693.00,0.0012
1692.00,0.0012
1691.00,0.0013
1690.00,0.0014
1689.00,0.0015
1688.00,0.0016
1687.00,0.0017
1686.00,0.0018
1685.00,0.0018
1684.00,0.0019
1683.00,0.0019
1682.00,0.0020
1681.00,0.0020
1680.00,0.0021
1679.00,0.0021
1678.00,0.0021
1677.00,0.0022
1676.00,0.0022
1675.00,0.0022
1674.00,0.0021
1673.00,0.0021
1672.00,0.0020
1671.00,0.0019
1670.00,0.0019
1669.00,0.0019
1668.00,0.0019
1667.00,0.0018
1666.00,0.0018
1665.00,0.0017
1664.00,0.0016
1663.00,0.0015
1662.00,0.0015
1661.00,0.0015
1660.00,0.0015
1659.00,0.0015
1658.00,0.0014
1657.00,0.0014
1656.00,0.0014
1655.00,0.0015
1654.00,0.0017
1653.00,0.0021
1652.00,0.0023
1651.00,0.0024
1650.00,0.0023
1649.00,0.0023
1648.00,0.0024
1647.00,0.0026
1646.00,0.0028
1645.00,0.0030
1644.00,0.0030
1643.00,0.0030
1642.00,0.0030
1641.00,0.0030
1640.00,0.0031
1639.00,0.0031
1638.00,0.0032
1637.00,0.0033
1636.00,0.0033
1635.00,0.0034
1634.00,0.0035
1633.00,0.0035
1632.00,0.0035
1631.00,0.0035
1630.00,0.0035
1629.00,0.0035
1628.00,0.0035
1627.00,0.0034
1626.00,0.0034
1625.00,0.0033
1624.00,0.0033
1623.00,0.0033
1622.00,0.0033
1621.00,0.0033
1620.00,0.0033
1619.00,0.0032
1618.00,0.0032
1617.00,0.0032
1616.00,0.0033
1615.00,0.0033
1614.00,0.0033
1613.00,0.0032
1612.00,0.0032
1611.00,0.0031
1610.00,0.0031
1609.00,0.0032
1608.00,0.0032
1607.00,0.0032
1606.00,0.0032
1605.00,0.0032
1604.00,0.0032
1603.00,0.0032
1602.00,0.0032
1601.00,0.0031
1600.00,0.0031
1599.00,0.0032
1598.00,0.0032
1597.00,0.0032
1596.00,0.0033
1595.00,0.0032
1594.00,0.0032
1593.00,0.0032
1592.00,0.0033
1591.00,0.0033
1590.00,0.0034
1589.00,0.0036
1588.00,0.0037
1587.00,0.0039
1586.00,0.0041
1585.00,0.0043
1584.00,0.0045
1583.00,0.0047
1582.00,0.0050
1581.00,0.0053
1580.00,0.0056
1579.00,0.0059
1578.00,0.0060
1577.00,0.0061
1576.00,0.0061
1575.00,0.0060
1574.00,0.0059
1573.00,0.0057
1572.00,0.0055
1571.00,0.0053
1570.00,0.0050
1569.00,0.0048
1568.00,0.0047
1567.00,0.0046
1566.00,0.0044
1565.00,0.0044
1564.00,0.0043
1563.00,0.0043
1562.00,0.0044
1561.00,0.0045
1560.00,0.0045
1559.00,0.0044
1558.00,0.0042
1557.00,0.0042
1556.00,0.0042
1555.00,0.0042
1554.00,0.0042
1553.00,0.0043
1552.00,0.0043
1551.00,0.0044
1550.00,0.0046
1549.00,0.0048
1548.00,0.0050
1547.00,0.0052
1546.00,0.0054
1545.00,0.0058
1544.00,0.0061
1543.00,0.0065
1542.00,0.0067
1541.00,0.0069
1540.00,0.0070
1539.00,0.0068
1538.00,0.0066
1537.00,0.0064
1536.00,0.0062
1535.00,0.0059
1534.00,0.0055
1533.00,0.0052
1532.00,0.0049
1531.00,0.0048
1530.00,0.0047
1529.00,0.0047
1528.00,0.0047
1527.00,0.0047
1526.00,0.0046
1525.00,0.0046
1524.00,0.0046
1523.00,0.0046
1522.00,0.0046
1521.00,0.0045
1520.00,0.0045
1519.00,0.0045
1518.00,0.0045
1517.00,0.0046
1516.00,0.0047
1515.00,0.0047
1514.00,0.0047
1513.00,0.0048
1512.00,0.0048
1511.00,0.0049
1510.00,0.0049
1509.00,0.0050
1508.00,0.0050
1507.00,0.0050
1506.00,0.0050
1505.00,0.0052
1504.00,0.0053
1503.00,0.0053
1502.00,0.0054
1501.00,0.0055
1500.00,0.0057
1499.00,0.0058
1498.00,0.0059
1497.00,0.0061
1496.00,0.0064
1495.00,0.0067
1494.00,0.0068
1493.00,0.0071
1492.00,0.0073
1491.00,0.0076
1490.00,0.0079
1489.00,0.0084
1488.00,0.0088
1487.00,0.0091
1486.00,0.0096
1485.00,0.0101
1484.00,0.0107
1483.00,0.0114
1482.00,0.0122
1481.00,0.0131
1480.00,0.0142
1479.00,0.0153
1478.00,0.0165
1477.00,0.0181
1476.00,0.0200
1475.00,0.0222
1474.00,0.0252
1473.00,0.0295
1472.00,0.0346
1471.00,0.0395
1470.00,0.0442
1469.00,0.0490
1468.00,0.0543
1467.00,0.0600
1466.00,0.0666
1465.00,0.0736
1464.00,0.0797
1463.00,0.0838
1462.00,0.0863
1461.00,0.0878
1460.00,0.0888
1459.00,0.0894
1458.00,0.0902
1457.00,0.0910
1456.00,0.0913
1455.00,0.0909
1454.00,0.0900
1453.00,0.0887
1452.00,0.0867
1451.00,0.0839
1450.00,0.0800
1449.00,0.0746
1448.00,0.0678
1447.00,0.0606
1446.00,0.0541
1445.00,0.0484
1444.00,0.0436
1443.00,0.0396
1442.00,0.0367
1441.00,0.0347
1440.00,0.0335
1439.00,0.0330
1438.00,0.0331
1437.00,0.0333
1436.00,0.0326
1435.00,0.0307
1434.00,0.0280
1433.00,0.0247
1432.00,0.0213
1431.00,0.0184
1430.00,0.0161
1429.00,0.0145
1428.00,0.0133
1427.00,0.0126
1426.00,0.0122
1425.00,0.0118
1424.00,0.0114
1423.00,0.0112
1422.00,0.0111
1421.00,0.0109
1420.00,0.0106
1419.00,0.0105
1418.00,0.0104
1417.00,0.0102
1416.00,0.0099
1415.00,0.0097
1414.00,0.0095
1413.00,0.0093
1412.00,0.0092
1411.00,0.0091
1410.00,0.0091
1409.00,0.0090
1408.00,0.0089
1407.00,0.0088
1406.00,0.0088
1405.00,0.0087
1404.00,0.0087
1403.00,0.0088
1402.00,0.0089
1401.00,0.0090
1400.00,0.0091
1399.00,0.0092
1398.00,0.0094
1397.00,0.0095
1396.00,0.0097
1395.00,0.0101
1394.00,0.0105
1393.00,0.0109
1392.00,0.0112
1391.00,0.0118
1390.00,0.0126
1389.00,0.0137
1388.00,0.0154
1387.00,0.0179
1386.00,0.0212
1385.00,0.0255
1384.00,0.0315
1383.00,0.0400
1382.00,0.0516
1381.00,0.0666
1380.00,0.0849
1379.00,0.1050
1378.00,0.1234
1377.00,0.1357
1376.00,0.1384
1375.00,0.1300
1374.00,0.1129
1373.00,0.0930
1372.00,0.0750
1371.00,0.0603
1370.00,0.0487
1369.00,0.0400
1368.00,0.0340
1367.00,0.0303
1366.00,0.0282
1365.00,0.0274
1364.00,0.0275
1363.00,0.0284
1362.00,0.0299
1361.00,0.0316
1360.00,0.0328
1359.00,0.0331
1358.00,0.0323
1357.00,0.0304
1356.00,0.0279
1355.00,0.0250
1354.00,0.0222
1353.00,0.0198
1352.00,0.0179
1351.00,0.0163
1350.00,0.0150
1349.00,0.0139
1348.00,0.0131
1347.00,0.0123
1346.00,0.0117
1345.00,0.0112
1344.00,0.0108
1343.00,0.0104
1342.00,0.0101
1341.00,0.0099
1340.00,0.0097
1339.00,0.0096
1338.00,0.0095
1337.00,0.0094
1336.00,0.0095
1335.00,0.0096
1334.00,0.0098
1333.00,0.0101
1332.00,0.0104
1331.00,0.0107
1330.00,0.0108
1329.00,0.0106
1328.00,0.0103
1327.00,0.0099
1326.00,0.0095
1325.00,0.0091
1324.00,0.0087
1323.00,0.0083
1322.00,0.0080
1321.00,0.0078
1320.00,0.0077
1319.00,0.0075
1318.00,0.0074
1317.00,0.0074
1316.00,0.0073
1315.00,0.0072
1314.00,0.0072
1313.00,0.0072
1312.00,0.0074
1311.00,0.0076
1310.00,0.0079
1309.00,0.0085
1308.00,0.0093
1307.00,0.0103
1306.00,0.0112
1305.00,0.0118
1304.00,0.0119
1303.00,0.0116
1302.00,0.0111
1301.00,0.0107
1300.00,0.0104
1299.00,0.0103
1298.00,0.0103
1297.00,0.0103
1296.00,0.0102
1295.00,0.0100
1294.00,0.0097
1293.00,0.0093
1292.00,0.0088
1291.00,0.0084
1290.00,0.0080
1289.00,0.0077
1288.00,0.0075
1287.00,0.0073
1286.00,0.0071
1285.00,0.0070
1284.00,0.0069
1283.00,0.0068
1282.00,0.0068
1281.00,0.0067
1280.00,0.0067
1279.00,0.0067
1278.00,0.0066
1277.00,0.0066
1276.00,0.0065
1275.00,0.0065
1274.00,0.0065
1273.00,0.0066
1272.00,0.0066
1271.00,0.0067
1270.00,0.0068
1269.00,0.0068
1268.00,0.0069
1267.00,0.0070
1266.00,0.0071
1265.00,0.0072
1264.00,0.0074
1263.00,0.0077
1262.00,0.0080
1261.00,0.0083
1260.00,0.0088
1259.00,0.0094
1258.00,0.0101
1257.00,0.0106
1256.00,0.0108
1255.00,0.0106
1254.00,0.0101
1253.00,0.0094
1252.00,0.0086
1251.00,0.0080
1250.00,0.0076
1249.00,0.0073
1248.00,0.0070
1247.00,0.0069
1246.00,0.0067
1245.00,0.0066
1244.00,0.0064
1243.00,0.0063
1242.00,0.0062
1241.00,0.0061
1240.00,0.0061
1239.00,0.0061
1238.00,0.0061
1237.00,0.0061
1236.00,0.0060
1235.00,0.0061
1234.00,0.0061
1233.00,0.0062
1232.00,0.0063
1231.00,0.0064
1230.00,0.0065
1229.00,0.0066
1228.00,0.0067
1227.00,0.0069
1226.00,0.0071
1225.00,0.0073
1224.00,0.0076
1223.00,0.0078
1222.00,0.0080
1221.00,0.0082
1220.00,0.0084
1219.00,0.0084
1218.00,0.0084
1217.00,0.0083
1216.00,0.0081
1215.00,0.0078
1214.00,0.0076
1213.00,0.0073
1212.00,0.0072
1211.00,0.0070
1210.00,0.0070
1209.00,0.0069
1208.00,0.0068
1207.00,0.0067
1206.00,0.0066
1205.00,0.0065
1204.00,0.0065
1203.00,0.0064
1202.00,0.0064
1201.00,0.0065
1200.00,0.0065
1199.00,0.0065
1198.00,0.0066
1197.00,0.0066
1196.00,0.0067
1195.00,0.0067
1194.00,0.0067
1193.00,0.0067
1192.00,0.0067
1191.00,0.0067
1190.00,0.0067
1189.00,0.0068
1188.00,0.0068
1187.00,0.0068
1186.00,0.0069
1185.00,0.0069
1184.00,0.0070
1183.00,0.0071
1182.00,0.0073
1181.00,0.0075
1180.00,0.0078
1179.00,0.0082
1178.00,0.0087
1177.00,0.0094
1176.00,0.0104
1175.00,0.0116
1174.00,0.0133
1173.00,0.0154
1172.00,0.0178
1171.00,0.0205
1170.00,0.0231
1169.00,0.0252
1168.00,0.0263
1167.00,0.0265
1166.00,0.0257
1165.00,0.0243
1164.00,0.0227
1163.00,0.0211
1162.00,0.0197
1161.00,0.0186
1160.00,0.0177
1159.00,0.0170
1158.00,0.0166
1157.00,0.0162
1156.00,0.0159
1155.00,0.0157
1154.00,0.0155
1153.00,0.0153
1152.00,0.0149
1151.00,0.0144
1150.00,0.0137
1149.00,0.0129
1148.00,0.0122
1147.00,0.0114
1146.00,0.0108
1145.00,0.0101
1144.00,0.0095
1143.00,0.0090
1142.00,0.0085
1141.00,0.0082
1140.00,0.0078
1139.00,0.0076
1138.00,0.0073
1137.00,0.0069
1136.00,0.0067
1135.00,0.0065
1134.00,0.0064
1133.00,0.0063
1132.00,0.0062
1131.00,0.0062
1130.00,0.0062
1129.00,0.0061
1128.00,0.0062
1127.00,0.0062
1126.00,0.0063
1125.00,0.0063
1124.00,0.0063
1123.00,0.0063
1122.00,0.0063
1121.00,0.0062
1120.00,0.0062
1119.00,0.0063
1118.00,0.0064
1117.00,0.0065
1116.00,0.0066
1115.00,0.0067
1114.00,0.0067
1113.00,0.0068
1112.00,0.0070
1111.00,0.0072
1110.00,0.0074
1109.00,0.0078
1108.00,0.0081
1107.00,0.0086
1106.00,0.0091
1105.00,0.0095
1104.00,0.0098
1103.00,0.0099
1102.00,0.0098
1101.00,0.0095
1100.00,0.0091
1099.00,0.0086
1098.00,0.0081
1097.00,0.0077
1096.00,0.0073
1095.00,0.0071
1094.00,0.0069
1093.00,0.0067
1092.00,0.0066
1091.00,0.0065
1090.00,0.0064
1089.00,0.0063
1088.00,0.0063
1087.00,0.0063
1086.00,0.0063
1085.00,0.0063
1084.00,0.0064
1083.00,0.0064
1082.00,0.0064
1081.00,0.0064
1080.00,0.0063
1079.00,0.0062
1078.00,0.0061
1077.00,0.0061
1076.00,0.0060
1075.00,0.0060
1074.00,0.0059
1073.00,0.0058
1072.00,0.0058
1071.00,0.0058
1070.00,0.0058
1069.00,0.0058
1068.00,0.0058
1067.00,0.0058
1066.00,0.0059
1065.00,0.0059
1064.00,0.0060
1063.00,0.0062
1062.00,0.0063
1061.00,0.0064
1060.00,0.0065
1059.00,0.0067
1058.00,0.0068
1057.00,0.0069
1056.00,0.0069
1055.00,0.0071
1054.00,0.0072
1053.00,0.0075
1052.00,0.0078
1051.00,0.0081
1050.00,0.0083
1049.00,0.0086
1048.00,0.0090
1047.00,0.0094
1046.00,0.0098
1045.00,0.0101
1044.00,0.0103
1043.00,0.0103
1042.00,0.0101
1041.00,0.0098
1040.00,0.0096
1039.00,0.0095
1038.00,0.0095
1037.00,0.0095
1036.00,0.0095
1035.00,0.0094
1034.00,0.0092
1033.00,0.0090
1032.00,0.0089
1031.00,0.0089
1030.00,0.0090
1029.00,0.0090
1028.00,0.0091
1027.00,0.0092
1026.00,0.0093
1025.00,0.0094
1024.00,0.0095
1023.00,0.0097
1022.00,0.0100
1021.00,0.0102
1020.00,0.0104
1019.00,0.0106
1018.00,0.0107
1017.00,0.0107
1016.00,0.0107
1015.00,0.0107
1014.00,0.0108
1013.00,0.0109
1012.00,0.0110
1011.00,0.0111
1010.00,0.0112
1009.00,0.0114
1008.00,0.0116
1007.00,0.0120
1006.00,0.0126
1005.00,0.0135
1004.00,0.0148
1003.00,0.0168
1002.00,0.0194
1001.00,0.0227
1000.00,0.0261
999.00,0.0290
998.00,0.0305
997.00,0.0299
996.00,0.0276
995.00,0.0242
994.00,0.0206
993.00,0.0175
992.00,0.0151
991.00,0.0133
990.00,0.0121
989.00,0.0113
988.00,0.0108
987.00,0.0104
986.00,0.0103
985.00,0.0103
984.00,0.0107
983.00,0.0112
982.00,0.0121
981.00,0.0134
980.00,0.0151
979.00,0.0174
978.00,0.0204
977.00,0.0240
976.00,0.0279
975.00,0.0318
974.00,0.0346
973.00,0.0356
972.00,0.0343
971.00,0.0310
970.00,0.0266
969.00,0.0220
968.00,0.0182
967.00,0.0152
966.00,0.0132
965.00,0.0117
964.00,0.0107
963.00,0.0099
962.00,0.0093
961.00,0.0088
960.00,0.0085
959.00,0.0082
958.00,0.0080
957.00,0.0077
956.00,0.0076
955.00,0.0074
954.00,0.0072
953.00,0.0071
952.00,0.0069
951.00,0.0067
950.00,0.0066
949.00,0.0066
948.00,0.0066
947.00,0.0067
946.00,0.0068
945.00,0.0071
944.00,0.0073
943.00,0.0076
942.00,0.0078
941.00,0.0079
940.00,0.0079
939.00,0.0077
938.00,0.0074
937.00,0.0070
936.00,0.0066
935.00,0.0063
934.00,0.0061
933.00,0.0059
932.00,0.0058
931.00,0.0058
930.00,0.0057
929.00,0.0056
928.00,0.0055
927.00,0.0053
926.00,0.0053
925.00,0.0052
924.00,0.0053
923.00,0.0054
922.00,0.0055
921.00,0.0054
920.00,0.0053
919.00,0.0053
918.00,0.0053
917.00,0.0054
916.00,0.0055
915.00,0.0055
914.00,0.0056
913.00,0.0057
912.00,0.0057
911.00,0.0058
910.00,0.0059
909.00,0.0061
908.00,0.0064
907.00,0.0068
906.00,0.0074
905.00,0.0082
904.00,0.0093
903.00,0.0108
902.00,0.0124
901.00,0.0138
900.00,0.0145
899.00,0.0144
898.00,0.0136
897.00,0.0122
896.00,0.0108
895.00,0.0096
894.00,0.0087
893.00,0.0080
892.00,0.0074
891.00,0.0069
890.00,0.0066
889.00,0.0064
888.00,0.0063
887.00,0.0063
886.00,0.0063
885.00,0.0063
884.00,0.0062
883.00,0.0061
882.00,0.0060
881.00,0.0060
880.00,0.0059
879.00,0.0059
878.00,0.0060
877.00,0.0062
876.00,0.0065
875.00,0.0067
874.00,0.0068
873.00,0.0067
872.00,0.0066
871.00,0.0066
870.00,0.0067
869.00,0.0067
868.00,0.0067
867.00,0.0067
866.00,0.0067
865.00,0.0066
864.00,0.0066
863.00,0.0067
862.00,0.0069
861.00,0.0072
860.00,0.0074
859.00,0.0076
858.00,0.0077
857.00,0.0078
856.00,0.0079
855.00,0.0080
854.00,0.0080
853.00,0.0081
852.00,0.0082
851.00,0.0086
850.00,0.0091
849.00,0.0097
848.00,0.0104
847.00,0.0116
846.00,0.0135
845.00,0.0165
844.00,0.0208
843.00,0.0257
842.00,0.0298
841.00,0.0311
840.00,0.0291
839.00,0.0247
838.00,0.0198
837.00,0.0158
836.00,0.0131
835.00,0.0115
834.00,0.0105
833.00,0.0099
832.00,0.0095
831.00,0.0092
830.00,0.0090
829.00,0.0087
828.00,0.0085
827.00,0.0083
826.00,0.0082
825.00,0.0081
824.00,0.0082
823.00,0.0082
822.00,0.0084
821.00,0.0086
820.00,0.0088
819.00,0.0090
818.00,0.0094
817.00,0.0098
816.00,0.0103
815.00,0.0111
814.00,0.0122
813.00,0.0137
812.00,0.0154
811.00,0.0169
810.00,0.0180
809.00,0.0183
808.00,0.0179
807.00,0.0169
806.00,0.0154
805.00,0.0138
804.00,0.0124
803.00,0.0113
802.00,0.0105
801.00,0.0100
800.00,0.0095
799.00,0.0091
798.00,0.0087
797.00,0.0084
796.00,0.0082
795.00,0.0080
794.00,0.0078
793.00,0.0074
792.00,0.0070
791.00,0.0068
790.00,0.0067
789.00,0.0066
788.00,0.0064
787.00,0.0061
786.00,0.0059
785.00,0.0059
784.00,0.0059
783.00,0.0058
782.00,0.0056
781.00,0.0055
780.00,0.0054
779.00,0.0054
778.00,0.0054
777.00,0.0054
776.00,0.0053
775.00,0.0053
774.00,0.0054
773.00,0.0056
772.00,0.0058
771.00,0.0059
770.00,0.0059
769.00,0.0059
768.00,0.0058
767.00,0.0057
766.00,0.0057
765.00,0.0058
764.00,0.0059
763.00,0.0061
762.00,0.0061
761.00,0.0060
760.00,0.0058
759.00,0.0058
758.00,0.0058
757.00,0.0059
756.00,0.0060
755.00,0.0061
754.00,0.0063
753.00,0.0064
752.00,0.0065
751.00,0.0065
750.00,0.0066
749.00,0.0066
748.00,0.0066
747.00,0.0065
746.00,0.0066
745.00,0.0067
744.00,0.0068
743.00,0.0071
742.00,0.0074
741.00,0.0078
740.00,0.0081
739.00,0.0083
738.00,0.0086
737.00,0.0090
736.00,0.0095
735.00,0.0100
734.00,0.0104
733.00,0.0108
732.00,0.0113
731.00,0.0119
730.00,0.0123
729.00,0.0126
728.00,0.0126
727.00,0.0126
726.00,0.0126
725.00,0.0128
724.00,0.0132
723.00,0.0138
722.00,0.0145
721.00,0.0149
720.00,0.0149
719.00,0.0143
718.00,0.0134
717.00,0.0125
716.00,0.0116
715.00,0.0110
714.00,0.0106
713.00,0.0102
712.00,0.0099
711.00,0.0094
710.00,0.0090
709.00,0.0088
708.00,0.0087
707.00,0.0087
706.00,0.0087
705.00,0.0087
704.00,0.0086
703.00,0.0085
702.00,0.0085
701.00,0.0085
700.00,0.0085
699.00,0.0085
698.00,0.0083
697.00,0.0081
696.00,0.0079
695.00,0.0078
694.00,0.0078
693.00,0.0078
692.00,0.0078
691.00,0.0079
690.00,0.0080
689.00,0.0080
688.00,0.0081
687.00,0.0082
686.00,0.0083
685.00,0.0083
684.00,0.0083
683.00,0.0084
682.00,0.0084
681.00,0.0084
680.00,0.0083
679.00,0.0082
678.00,0.0080
677.00,0.0080
676.00,0.0082
675.00,0.0085
674.00,0.0088
673.00,0.0091
672.00,0.0092
671.00,0.0092
670.00,0.0092
669.00,0.0090
668.00,0.0087
667.00,0.0085
666.00,0.0084
665.00,0.0082
664.00,0.0080
663.00,0.0078
662.00,0.0078
661.00,0.0079
660.00,0.0079
659.00,0.0079
658.00,0.0076
657.00,0.0073
656.00,0.0071
655.00,0.0071
654.00,0.0073
653.00,0.0076
652.00,0.0078
651.00,0.0078
650.00,0.0076
649.00,0.0072
648.00,0.0068
647.00,0.0066
646.00,0.0065
645.00,0.0066
644.00,0.0066
643.00,0.0067
642.00,0.0070
641.00,0.0074
640.00,0.0076
639.00,0.0076
638.00,0.0073
637.00,0.0072
636.00,0.0072
635.00,0.0073
634.00,0.0073
633.00,0.0071
632.00,0.0070
631.00,0.0072
630.00,0.0074
629.00,0.0077
628.00,0.0077
627.00,0.0075
626.00,0.0072
625.00,0.0070
624.00,0.0070
623.00,0.0071
622.00,0.0074
621.00,0.0075
620.00,0.0075
619.00,0.0074
618.00,0.0073
617.00,0.0072
616.00,0.0071
615.00,0.0069
614.00,0.0068
613.00,0.0069
612.00,0.0071
611.00,0.0074
610.00,0.0076
609.00,0.0076
608.00,0.0074
607.00,0.0071
606.00,0.0069
605.00,0.0067
604.00,0.0065
603.00,0.0066
602.00,0.0068
601.00,0.0070
600.00,0.0072
599.00,0.0074
598.00,0.0076
597.00,0.0076
596.00,0.0075
595.00,0.0072
594.00,0.0071
593.00,0.0070
592.00,0.0070
591.00,0.0069
590.00,0.0068
589.00,0.0067
588.00,0.0067
587.00,0.0069
586.00,0.0073
585.00,0.0077
584.00,0.0079
583.00,0.0078
582.00,0.0075
581.00,0.0074
580.00,0.0076
579.00,0.0081
578.00,0.0083
577.00,0.0081
576.00,0.0078
575.00,0.0076
574.00,0.0076
573.00,0.0077
572.00,0.0078
571.00,0.0078
570.00,0.0077
569.00,0.0078
568.00,0.0078
567.00,0.0080
566.00,0.0084
565.00,0.0086
564.00,0.0087
563.00,0.0085
562.00,0.0081
561.00,0.0077
560.00,0.0074
559.00,0.0073
558.00,0.0072
557.00,0.0072
556.00,0.0073
555.00,0.0076
554.00,0.0077
553.00,0.0077
552.00,0.0074
551.00,0.0071
550.00,0.0068
549.00,0.0068
548.00,0.0069
547.00,0.0074
546.00,0.0081
545.00,0.0088
544.00,0.0091
543.00,0.0089
542.00,0.0085
541.00,0.0084
540.00,0.0088
539.00,0.0094
538.00,0.0100
537.00,0.0103
536.00,0.0102
535.00,0.0100
534.00,0.0098
533.00,0.0097
532.00,0.0095
531.00,0.0094
530.00,0.0095
529.00,0.0098
528.00,0.0101
527.00,0.0102
526.00,0.0100
525.00,0.0097
524.00,0.0092
523.00,0.0089
522.00,0.0086
521.00,0.0084
520.00,0.0081
519.00,0.0077
518.00,0.0075
517.00,0.0075
516.00,0.0077
515.00,0.0076
514.00,0.0074
513.00,0.0072
512.00,0.0074
511.00,0.0079
510.00,0.0087
509.00,0.0094
508.00,0.0097
507.00,0.0096
506.00,0.0093
505.00,0.0091
504.00,0.0089
503.00,0.0086
502.00,0.0083
501.00,0.0082
500.00,0.0083
499.00,0.0084
498.00,0.0083
497.00,0.0083
496.00,0.0084
495.00,0.0084
494.00,0.0080
493.00,0.0074
492.00,0.0068
491.00,0.0065
490.00,0.0066
489.00,0.0072
488.00,0.0079
487.00,0.0083
486.00,0.0082
485.00,0.0083
484.00,0.0087
483.00,0.0093
482.00,0.0096
481.00,0.0094
480.00,0.0091
479.00,0.0092
478.00,0.0098
477.00,0.0106
476.00,0.0115
475.00,0.0125
474.00,0.0130
473.00,0.0132
472.00,0.0134
471.00,0.0136
470.00,0.0138
469.00,0.0137
468.00,0.0132
467.00,0.0128
466.00,0.0132
465.00,0.0144
464.00,0.0162
463.00,0.0178
462.00,0.0187
461.00,0.0191
460.00,0.0191
459.00,0.0186
458.00,0.0176
457.00,0.0165
456.00,0.0158
455.00,0.0156
454.00,0.0153
453.00,0.0150
452.00,0.0148
451.00,0.0148
450.00,0.0147
