Created as New Dataset,Sample 072 By Administrator Date Wednesday, September 03 2025
cm-1,A
4000.00,0.0009
3999.00,0.0009
3998.00,0.0009
3997.00,0.0009
3996.00,0.0009
3995.00,0.0009
3994.00,0.0009
3993.00,0.0009
3992.00,0.0009
3991.00,0.0009
3990.00,0.0009
3989.00,0.0009
3988.00,0.0009
3987.00,0.0009
3986.00,0.0009
3985.00,0.0009
3984.00,0.0009
3983.00,0.0008
3982.00,0.0008
3981.00,0.0008
3980.00,0.0008
3979.00,0.0008
3978.00,0.0008
3977.00,0.0008
3976.00,0.0008
3975.00,0.0008
3974.00,0.0007
3973.00,0.0007
3972.00,0.0007
3971.00,0.0007
3970.00,0.0007
3969.00,0.0007
3968.00,0.0007
3967.00,0.0007
3966.00,0.0007
3965.00,0.0007
3964.00,0.0007
3963.00,0.0007
3962.00,0.0007
3961.00,0.0007
3960.00,0.0007
3959.00,0.0008
3958.00,0.0007
3957.00,0.0007
3956.00,0.0007
3955.00,0.0007
3954.00,0.0007
3953.00,0.0007
3952.00,0.0007
3951.00,0.0008
3950.00,0.0008
3949.00,0.0008
3948.00,0.0007
3947.00,0.0007
3946.00,0.0007
3945.00,0.0007
3944.00,0.0007
3943.00,0.0008
3942.00,0.0008
3941.00,0.0007
3940.00,0.0007
3939.00,0.0007
3938.00,0.0007
3937.00,0.0007
3936.00,0.0007
3935.00,0.0007
3934.00,0.0008
3933.00,0.0008
3932.00,0.0008
3931.00,0.0008
3930.00,0.0008
3929.00,0.0008
3928.00,0.0008
3927.00,0.0009
3926.00,0.0009
3925.00,0.0009
3924.00,0.0008
3923.00,0.0008
3922.00,0.0008
3921.00,0.0008
3920.00,0.0008
3919.00,0.0008
3918.00,0.0008
3917.00,0.0008
3916.00,0.0008
3915.00,0.0008
3914.00,0.0007
3913.00,0.0007
3912.00,0.0007
3911.00,0.0007
3910.00,0.0007
3909.00,0.0007
3908.00,0.0008
3907.00,0.0008
3906.00,0.0009
3905.00,0.0009
3904.00,0.0009
3903.00,0.0009
3902.00,0.0009
3901.00,0.0008
3900.00,0.0008
3899.00,0.0008
3898.00,0.0008
3897.00,0.0007
3896.00,0.0007
3895.00,0.0007
3894.00,0.0007
3893.00,0.0007
3892.00,0.0007
3891.00,0.0008
3890.00,0.0008
3889.00,0.0008
3888.00,0.0008
3887.00,0.0007
3886.00,0.0007
3885.00,0.0007
3884.00,0.0007
3883.00,0.0007
3882.00,0.0007
3881.00,0.0008
3880.00,0.0008
3879.00,0.0008
3878.00,0.0008
3877.00,0.0007
3876.00,0.0007
3875.00,0.0007
3874.00,0.0007
3873.00,0.0007
3872.00,0.0007
3871.00,0.0007
3870.00,0.0007
3869.00,0.0007
3868.00,0.0007
3867.00,0.0007
3866.00,0.0007
3865.00,0.0006
3864.00,0.0006
3863.00,0.0006
3862.00,0.0006
3861.00,0.0005
3860.00,0.0005
3859.00,0.0005
3858.00,0.0006
3857.00,0.0006
3856.00,0.0007
3855.00,0.0007
3854.00,0.0006
3853.00,0.0005
3852.00,0.0005
3851.00,0.0005
3850.00,0.0005
3849.00,0.0005
3848.00,0.0006
3847.00,0.0007
3846.00,0.0007
3845.00,0.0007
3844.00,0.0007
3843.00,0.0007
3842.00,0.0006
3841.00,0.0006
3840.00,0.0006
3839.00,0.0006
3838.00,0.0006
3837.00,0.0006
3836.00,0.0006
3835.00,0.0006
3834.00,0.0007
3833.00,0.0006
3832.00,0.0006
3831.00,0.0006
3830.00,0.0006
3829.00,0.0006
3828.00,0.0005
3827.00,0.0006
3826.00,0.0006
3825.00,0.0006
3824.00,0.0007
3823.00,0.0007
3822.00,0.0007
3821.00,0.0007
3820.00,0.0007
3819.00,0.0007
3818.00,0.0007
3817.00,0.0007
3816.00,0.0007
3815.00,0.0007
3814.00,0.0007
3813.00,0.0007
3812.00,0.0007
3811.00,0.0007
3810.00,0.0007
3809.00,0.0007
3808.00,0.0007
3807.00,0.0007
3806.00,0.0007
3805.00,0.0007
3804.00,0.0007
3803.00,0.0007
3802.00,0.0007
3801.00,0.0007
3800.00,0.0007
3799.00,0.0007
3798.00,0.0007
3797.00,0.0007
3796.00,0.0007
3795.00,0.0007
3794.00,0.0007
3793.00,0.0007
3792.00,0.0007
3791.00,0.0007
3790.00,0.0007
3789.00,0.0007
3788.00,0.0007
3787.00,0.0007
3786.00,0.0007
3785.00,0.0007
3784.00,0.0007
3783.00,0.0007
3782.00,0.0008
3781.00,0.0008
3780.00,0.0008
3779.00,0.0008
3778.00,0.0007
3777.00,0.0007
3776.00,0.0007
3775.00,0.0007
3774.00,0.0007
3773.00,0.0007
3772.00,0.0007
3771.00,0.0008
3770.00,0.0008
3769.00,0.0007
3768.00,0.0007
3767.00,0.0007
3766.00,0.0007
3765.00,0.0007
3764.00,0.0008
3763.00,0.0008
3762.00,0.0008
3761.00,0.0008
3760.00,0.0008
3759.00,0.0008
3758.00,0.0007
3757.00,0.0007
3756.00,0.0007
3755.00,0.0007
3754.00,0.0007
3753.00,0.0007
3752.00,0.0006
3751.00,0.0006
3750.00,0.0005
3749.00,0.0005
3748.00,0.0005
3747.00,0.0005
3746.00,0.0005
3745.00,0.0005
3744.00,0.0005
3743.00,0.0005
3742.00,0.0006
3741.00,0.0006
3740.00,0.0006
3739.00,0.0006
3738.00,0.0006
3737.00,0.0006
3736.00,0.0006
3735.00,0.0007
3734.00,0.0007
3733.00,0.0006
3732.00,0.0006
3731.00,0.0005
3730.00,0.0005
3729.00,0.0006
3728.00,0.0006
3727.00,0.0006
3726.00,0.0006
3725.00,0.0007
3724.00,0.0007
3723.00,0.0007
3722.00,0.0007
3721.00,0.0007
3720.00,0.0007
3719.00,0.0007
3718.00,0.0006
3717.00,0.0006
3716.00,0.0006
3715.00,0.0006
3714.00,0.0006
3713.00,0.0005
3712.00,0.0005
3711.00,0.0006
3710.00,0.0006
3709.00,0.0006
3708.00,0.0006
3707.00,0.0006
3706.00,0.0005
3705.00,0.0005
3704.00,0.0005
3703.00,0.0005
3702.00,0.0004
3701.00,0.0004
3700.00,0.0005
3699.00,0.0005
3698.00,0.0005
3697.00,0.0005
3696.00,0.0005
3695.00,0.0004
3694.00,0.0004
3693.00,0.0004
3692.00,0.0005
3691.00,0.0005
3690.00,0.0005
3689.00,0.0005
3688.00,0.0005
3687.00,0.0005
3686.00,0.0005
3685.00,0.0005
3684.00,0.0004
3683.00,0.0004
3682.00,0.0004
3681.00,0.0005
3680.00,0.0005
3679.00,0.0006
3678.00,0.0006
3677.00,0.0006
3676.00,0.0006
3675.00,0.0005
3674.00,0.0005
3673.00,0.0005
3672.00,0.0004
3671.00,0.0004
3670.00,0.0004
3669.00,0.0004
3668.00,0.0004
3667.00,0.0004
3666.00,0.0004
3665.00,0.0005
3664.00,0.0005
3663.00,0.0004
3662.00,0.0004
3661.00,0.0003
3660.00,0.0003
3659.00,0.0003
3658.00,0.0004
3657.00,0.0005
3656.00,0.0005
3655.00,0.0005
3654.00,0.0005
3653.00,0.0005
3652.00,0.0005
3651.00,0.0005
3650.00,0.0005
3649.00,0.0005
3648.00,0.0005
3647.00,0.0005
3646.00,0.0005
3645.00,0.0005
3644.00,0.0004
3643.00,0.0004
3642.00,0.0004
3641.00,0.0004
3640.00,0.0004
3639.00,0.0005
3638.00,0.0005
3637.00,0.0005
3636.00,0.0005
3635.00,0.0006
3634.00,0.0006
3633.00,0.0006
3632.00,0.0006
3631.00,0.0007
3630.00,0.0006
3629.00,0.0007
3628.00,0.0007
3627.00,0.0007
3626.00,0.0007
3625.00,0.0007
3624.00,0.0007
3623.00,0.0007
3622.00,0.0007
3621.00,0.0007
3620.00,0.0007
3619.00,0.0007
3618.00,0.0007
3617.00,0.0007
3616.00,0.0008
3615.00,0.0008
3614.00,0.0007
3613.00,0.0007
3612.00,0.0007
3611.00,0.0007
3610.00,0.0007
3609.00,0.0008
3608.00,0.0009
3607.00,0.0009
3606.00,0.0010
3605.00,0.0009
3604.00,0.0009
3603.00,0.0009
3602.00,0.0009
3601.00,0.0009
3600.00,0.0009
3599.00,0.0009
3598.00,0.0009
3597.00,0.0009
3596.00,0.0009
3595.00,0.0009
3594.00,0.0010
3593.00,0.0010
3592.00,0.0010
3591.00,0.0010
3590.00,0.0010
3589.00,0.0010
3588.00,0.0010
3587.00,0.0010
3586.00,0.0010
3585.00,0.0010
3584.00,0.0010
3583.00,0.0011
3582.00,0.0012
3581.00,0.0012
3580.00,0.0012
3579.00,0.0012
3578.00,0.0012
3577.00,0.0012
3576.00,0.0012
3575.00,0.0012
3574.00,0.0012
3573.00,0.0012
3572.00,0.0013
3571.00,0.0013
3570.00,0.0013
3569.00,0.0013
3568.00,0.0014
3567.00,0.0015
3566.00,0.0015
3565.00,0.0015
3564.00,0.0015
3563.00,0.0014
3562.00,0.0014
3561.00,0.0014
3560.00,0.0014
3559.00,0.0015
3558.00,0.0015
3557.00,0.0015
3556.00,0.0015
3555.00,0.0015
3554.00,0.0016
3553.00,0.0016
3552.00,0.0016
3551.00,0.0016
3550.00,0.0016
3549.00,0.0017
3548.00,0.0017
3547.00,0.0018
3546.00,0.0019
3545.00,0.0019
3544.00,0.0019
3543.00,0.0018
3542.00,0.0018
3541.00,0.0018
3540.00,0.0018
3539.00,0.0018
3538.00,0.0019
3537.00,0.0020
3536.00,0.0020
3535.00,0.0020
3534.00,0.0020
3533.00,0.0019
3532.00,0.0019
3531.00,0.0019
3530.00,0.0020
3529.00,0.0020
3528.00,0.0020
3527.00,0.0021
3526.00,0.0021
3525.00,0.0021
3524.00,0.0021
3523.00,0.0021
3522.00,0.0021
3521.00,0.0021
3520.00,0.0021
3519.00,0.0022
3518.00,0.0022
3517.00,0.0022
3516.00,0.0023
3515.00,0.0023
3514.00,0.0023
3513.00,0.0023
3512.00,0.0023
3511.00,0.0024
3510.00,0.0024
3509.00,0.0024
3508.00,0.0024
3507.00,0.0024
3506.00,0.0025
3505.00,0.0025
3504.00,0.0025
3503.00,0.0026
3502.00,0.0026
3501.00,0.0026
3500.00,0.0026
3499.00,0.0025
3498.00,0.0025
3497.00,0.0026
3496.00,0.0026
3495.00,0.0026
3494.00,0.0026
3493.00,0.0027
3492.00,0.0027
3491.00,0.0027
3490.00,0.0027
3489.00,0.0028
3488.00,0.0028
3487.00,0.0028
3486.00,0.0028
3485.00,0.0029
3484.00,0.0028
3483.00,0.0028
3482.00,0.0028
3481.00,0.0028
3480.00,0.0029
3479.00,0.0029
3478.00,0.0029
3477.00,0.0030
3476.00,0.0030
3475.00,0.0030
3474.00,0.0030
3473.00,0.0030
3472.00,0.0030
3471.00,0.0030
3470.00,0.0030
3469.00,0.0030
3468.00,0.0030
3467.00,0.0030
3466.00,0.0031
3465.00,0.0031
3464.00,0.0032
3463.00,0.0032
3462.00,0.0032
3461.00,0.0032
3460.00,0.0032
3459.00,0.0032
3458.00,0.0032
3457.00,0.0032
3456.00,0.0033
3455.00,0.0033
3454.00,0.0033
3453.00,0.0033
3452.00,0.0033
3451.00,0.0034
3450.00,0.0034
3449.00,0.0034
3448.00,0.0034
3447.00,0.0035
3446.00,0.0035
3445.00,0.0035
3444.00,0.0035
3443.00,0.0034
3442.00,0.0034
3441.00,0.0034
3440.00,0.0034
3439.00,0.0034
3438.00,0.0035
3437.00,0.0035
3436.00,0.0036
3435.00,0.0036
3434.00,0.0036
3433.00,0.0037
3432.00,0.0037
3431.00,0.0038
3430.00,0.0038
3429.00,0.0039
3428.00,0.0039
3427.00,0.0038
3426.00,0.0038
3425.00,0.0038
3424.00,0.0038
3423.00,0.0038
3422.00,0.0039
3421.00,0.0039
3420.00,0.0040
3419.00,0.0040
3418.00,0.0040
3417.00,0.0041
3416.00,0.0041
3415.00,0.0041
3414.00,0.0041
3413.00,0.0041
3412.00,0.0041
3411.00,0.0041
3410.00,0.0041
3409.00,0.0041
3408.00,0.0041
3407.00,0.0041
3406.00,0.0041
3405.00,0.0041
3404.00,0.0042
3403.00,0.0042
3402.00,0.0042
3401.00,0.0042
3400.00,0.0042
3399.00,0.0042
3398.00,0.0042
3397.00,0.0042
3396.00,0.0042
3395.00,0.0043
3394.00,0.0043
3393.00,0.0043
3392.00,0.0043
3391.00,0.0043
3390.00,0.0043
3389.00,0.0043
3388.00,0.0043
3387.00,0.0043
3386.00,0.0044
3385.00,0.0044
3384.00,0.0044
3383.00,0.0044
3382.00,0.0044
3381.00,0.0043
3380.00,0.0043
3379.00,0.0043
3378.00,0.0043
3377.00,0.0044
3376.00,0.0044
3375.00,0.0044
3374.00,0.0044
3373.00,0.0044
3372.00,0.0044
3371.00,0.0044
3370.00,0.0045
3369.00,0.0045
3368.00,0.0045
3367.00,0.0045
3366.00,0.0045
3365.00,0.0045
3364.00,0.0045
3363.00,0.0045
3362.00,0.0045
3361.00,0.0046
3360.00,0.0046
3359.00,0.0046
3358.00,0.0047
3357.00,0.0047
3356.00,0.0047
3355.00,0.0047
3354.00,0.0047
3353.00,0.0047
3352.00,0.0047
3351.00,0.0047
3350.00,0.0047
3349.00,0.0047
3348.00,0.0047
3347.00,0.0047
3346.00,0.0048
3345.00,0.0048
3344.00,0.0048
3343.00,0.0048
3342.00,0.0048
3341.00,0.0048
3340.00,0.0048
3339.00,0.0048
3338.00,0.0048
3337.00,0.0047
3336.00,0.0047
3335.00,0.0047
3334.00,0.0048
3333.00,0.0048
3332.00,0.0048
3331.00,0.0048
3330.00,0.0048
3329.00,0.0047
3328.00,0.0047
3327.00,0.0047
3326.00,0.0047
3325.00,0.0047
3324.00,0.0047
3323.00,0.0047
3322.00,0.0047
3321.00,0.0047
3320.00,0.0047
3319.00,0.0048
3318.00,0.0048
3317.00,0.0048
3316.00,0.0048
3315.00,0.0049
3314.00,0.0049
3313.00,0.0050
3312.00,0.0049
3311.00,0.0049
3310.00,0.0049
3309.00,0.0049
3308.00,0.0049
3307.00,0.0049
3306.00,0.0050
3305.00,0.0050
3304.00,0.0050
3303.00,0.0051
3302.00,0.0050
3301.00,0.0050
3300.00,0.0050
3299.00,0.0050
3298.00,0.0049
3297.00,0.0049
3296.00,0.0049
3295.00,0.0049
3294.00,0.0049
3293.00,0.0049
3292.00,0.0049
3291.00,0.0049
3290.00,0.0049
3289.00,0.0048
3288.00,0.0048
3287.00,0.0048
3286.00,0.0048
3285.00,0.0048
3284.00,0.0048
3283.00,0.0047
3282.00,0.0046
3281.00,0.0046
3280.00,0.0046
3279.00,0.0046
3278.00,0.0046
3277.00,0.0046
3276.00,0.0047
3275.00,0.0047
3274.00,0.0046
3273.00,0.0046
3272.00,0.0045
3271.00,0.0045
3270.00,0.0045
3269.00,0.0045
3268.00,0.0045
3267.00,0.0044
3266.00,0.0044
3265.00,0.0044
3264.00,0.0045
3263.00,0.0045
3262.00,0.0045
3261.00,0.0044
3260.00,0.0044
3259.00,0.0044
3258.00,0.0044
3257.00,0.0043
3256.00,0.0043
3255.00,0.0042
3254.00,0.0042
3253.00,0.0042
3252.00,0.0042
3251.00,0.0042
3250.00,0.0041
3249.00,0.0041
3248.00,0.0041
3247.00,0.0041
3246.00,0.0041
3245.00,0.0041
3244.00,0.0041
3243.00,0.0041
3242.00,0.0041
3241.00,0.0041
3240.00,0.0041
3239.00,0.0041
3238.00,0.0041
3237.00,0.0042
3236.00,0.0042
3235.00,0.0042
3234.00,0.0042
3233.00,0.0042
3232.00,0.0041
3231.00,0.0041
3230.00,0.0041
3229.00,0.0042
3228.00,0.0042
3227.00,0.0043
3226.00,0.0043
3225.00,0.0043
3224.00,0.0043
3223.00,0.0043
3222.00,0.0043
3221.00,0.0043
3220.00,0.0043
3219.00,0.0043
3218.00,0.0043
3217.00,0.0043
3216.00,0.0044
3215.00,0.0044
3214.00,0.0044
3213.00,0.0045
3212.00,0.0045
3211.00,0.0045
3210.00,0.0045
3209.00,0.0045
3208.00,0.0045
3207.00,0.0045
3206.00,0.0045
3205.00,0.0045
3204.00,0.0045
3203.00,0.0045
3202.00,0.0045
3201.00,0.0045
3200.00,0.0045
3199.00,0.0045
3198.00,0.0045
3197.00,0.0045
3196.00,0.0045
3195.00,0.0045
3194.00,0.0045
3193.00,0.0044
3192.00,0.0044
3191.00,0.0044
3190.00,0.0044
3189.00,0.0045
3188.00,0.0045
3187.00,0.0044
3186.00,0.0044
3185.00,0.0044
3184.00,0.0044
3183.00,0.0043
3182.00,0.0043
3181.00,0.0043
3180.00,0.0043
3179.00,0.0043
3178.00,0.0043
3177.00,0.0042
3176.00,0.0042
3175.00,0.0042
3174.00,0.0041
3173.00,0.0041
3172.00,0.0040
3171.00,0.0040
3170.00,0.0040
3169.00,0.0040
3168.00,0.0040
3167.00,0.0040
3166.00,0.0040
3165.00,0.0040
3164.00,0.0040
3163.00,0.0040
3162.00,0.0040
3161.00,0.0040
3160.00,0.0040
3159.00,0.0040
3158.00,0.0040
3157.00,0.0040
3156.00,0.0040
3155.00,0.0039
3154.00,0.0039
3153.00,0.0039
3152.00,0.0039
3151.00,0.0039
3150.00,0.0040
3149.00,0.0040
3148.00,0.0040
3147.00,0.0039
3146.00,0.0039
3145.00,0.0039
3144.00,0.0039
3143.00,0.0039
3142.00,0.0040
3141.00,0.0039
3140.00,0.0039
3139.00,0.0039
3138.00,0.0038
3137.00,0.0038
3136.00,0.0038
3135.00,0.0038
3134.00,0.0038
3133.00,0.0037
3132.00,0.0037
3131.00,0.0037
3130.00,0.0037
3129.00,0.0037
3128.00,0.0037
3127.00,0.0036
3126.00,0.0036
3125.00,0.0036
3124.00,0.0035
3123.00,0.0035
3122.00,0.0035
3121.00,0.0035
3120.00,0.0034
3119.00,0.0034
3118.00,0.0034
3117.00,0.0033
3116.00,0.0033
3115.00,0.0033
3114.00,0.0033
3113.00,0.0033
3112.00,0.0033
3111.00,0.0033
3110.00,0.0033
3109.00,0.0033
3108.00,0.0033
3107.00,0.0033
3106.00,0.0033
3105.00,0.0033
3104.00,0.0032
3103.00,0.0032
3102.00,0.0032
3101.00,0.0031
3100.00,0.0031
3099.00,0.0031
3098.00,0.0032
3097.00,0.0032
3096.00,0.0032
3095.00,0.0032
3094.00,0.0032
3093.00,0.0032
3092.00,0.0032
3091.00,0.0032
3090.00,0.0032
3089.00,0.0033
3088.00,0.0033
3087.00,0.0033
3086.00,0.0033
3085.00,0.0032
3084.00,0.0032
3083.00,0.0032
3082.00,0.0032
3081.00,0.0032
3080.00,0.0032
3079.00,0.0032
3078.00,0.0032
3077.00,0.0032
3076.00,0.0032
3075.00,0.0032
3074.00,0.0033
3073.00,0.0033
3072.00,0.0033
3071.00,0.0033
3070.00,0.0033
3069.00,0.0033
3068.00,0.0033
3067.00,0.0033
3066.00,0.0034
3065.00,0.0034
3064.00,0.0034
3063.00,0.0034
3062.00,0.0035
3061.00,0.0035
3060.00,0.0035
3059.00,0.0035
3058.00,0.0035
3057.00,0.0035
3056.00,0.0035
3055.00,0.0035
3054.00,0.0035
3053.00,0.0036
3052.00,0.0036
3051.00,0.0036
3050.00,0.0036
3049.00,0.0036
3048.00,0.0036
3047.00,0.0036
3046.00,0.0036
3045.00,0.0036
3044.00,0.0037
3043.00,0.0037
3042.00,0.0037
3041.00,0.0038
3040.00,0.0038
3039.00,0.0038
3038.00,0.0038
3037.00,0.0039
3036.00,0.0039
3035.00,0.0039
3034.00,0.0040
3033.00,0.0040
3032.00,0.0041
3031.00,0.0041
3030.00,0.0041
3029.00,0.0041
3028.00,0.0042
3027.00,0.0042
3026.00,0.0042
3025.00,0.0043
3024.00,0.0044
3023.00,0.0044
3022.00,0.0045
3021.00,0.0046
3020.00,0.0047
3019.00,0.0047
3018.00,0.0048
3017.00,0.0049
3016.00,0.0049
3015.00,0.0050
3014.00,0.0051
3013.00,0.0052
3012.00,0.0053
3011.00,0.0053
3010.00,0.0055
3009.00,0.0056
3008.00,0.0057
3007.00,0.0058
3006.00,0.0060
3005.00,0.0061
3004.00,0.0063
3003.00,0.0065
3002.00,0.0066
3001.00,0.0068
3000.00,0.0070
2999.00,0.0072
2998.00,0.0075
2997.00,0.0078
2996.00,0.0081
2995.00,0.0084
2994.00,0.0088
2993.00,0.0092
2992.00,0.0097
2991.00,0.0102
2990.00,0.0108
2989.00,0.0115
2988.00,0.0123
2987.00,0.0131
2986.00,0.0139
2985.00,0.0148
2984.00,0.0158
2983.00,0.0170
2982.00,0.0183
2981.00,0.0199
2980.00,0.0218
2979.00,0.0239
2978.00,0.0263
2977.00,0.0290
2976.00,0.0321
2975.00,0.0356
2974.00,0.0397
2973.00,0.0442
2972.00,0.0493
2971.00,0.0551
2970.00,0.0615
2969.00,0.0685
2968.00,0.0762
2967.00,0.0843
2966.00,0.0927
2965.00,0.1013
2964.00,0.1095
2963.00,0.1171
2962.00,0.1238
2961.00,0.1293
2960.00,0.1338
2959.00,0.1377
2958.00,0.1416
2957.00,0.1459
2956.00,0.1512
2955.00,0.1578
2954.00,0.1654
2953.00,0.1734
2952.00,0.1807
2951.00,0.1861
2950.00,0.1884
2949.00,0.1866
2948.00,0.1806
2947.00,0.1710
2946.00,0.1591
2945.00,0.1462
2944.00,0.1340
2943.00,0.1235
2942.00,0.1153
2941.00,0.1097
2940.00,0.1065
2939.00,0.1056
2938.00,0.1067
2937.00,0.1097
2936.00,0.1142
2935.00,0.1204
2934.00,0.1279
2933.00,0.1366
2932.00,0.1465
2931.00,0.1573
2930.00,0.1688
2929.00,0.1807
2928.00,0.1927
2927.00,0.2045
2926.00,0.2160
2925.00,0.2271
2924.00,0.2379
2923.00,0.2487
2922.00,0.2594
2921.00,0.2698
2920.00,0.2790
2919.00,0.2861
2918.00,0.2898
2917.00,0.2893
2916.00,0.2844
2915.00,0.2757
2914.00,0.2645
2913.00,0.2522
2912.00,0.2399
2911.00,0.2286
2910.00,0.2185
2909.00,0.2095
2908.00,0.2014
2907.00,0.1938
2906.00,0.1865
2905.00,0.1792
2904.00,0.1720
2903.00,0.1649
2902.00,0.1579
2901.00,0.1511
2900.00,0.1446
2899.00,0.1385
2898.00,0.1328
2897.00,0.1276
2896.00,0.1230
2895.00,0.1189
2894.00,0.1155
2893.00,0.1126
2892.00,0.1104
2891.00,0.1087
2890.00,0.1076
2889.00,0.1070
2888.00,0.1068
2887.00,0.1069
2886.00,0.1072
2885.00,0.1080
2884.00,0.1092
2883.00,0.1109
2882.00,0.1131
2881.00,0.1157
2880.00,0.1182
2879.00,0.1204
2878.00,0.1219
2877.00,0.1224
2876.00,0.1220
2875.00,0.1213
2874.00,0.1206
2873.00,0.1204
2872.00,0.1210
2871.00,0.1224
2870.00,0.1244
2869.00,0.1263
2868.00,0.1276
2867.00,0.1274
2866.00,0.1250
2865.00,0.1203
2864.00,0.1137
2863.00,0.1059
2862.00,0.0982
2861.00,0.0913
2860.00,0.0859
2859.00,0.0821
2858.00,0.0799
2857.00,0.0790
2856.00,0.0792
2855.00,0.0802
2854.00,0.0817
2853.00,0.0836
2852.00,0.0856
2851.00,0.0873
2850.00,0.0886
2849.00,0.0895
2848.00,0.0903
2847.00,0.0915
2846.00,0.0934
2845.00,0.0965
2844.00,0.1006
2843.00,0.1056
2842.00,0.1110
2841.00,0.1162
2840.00,0.1202
2839.00,0.1224
2838.00,0.1221
2837.00,0.1187
2836.00,0.1123
2835.00,0.1035
2834.00,0.0931
2833.00,0.0823
2832.00,0.0721
2831.00,0.0630
2830.00,0.0553
2829.00,0.0489
2828.00,0.0438
2827.00,0.0396
2826.00,0.0363
2825.00,0.0335
2824.00,0.0311
2823.00,0.0292
2822.00,0.0275
2821.00,0.0261
2820.00,0.0249
2819.00,0.0238
2818.00,0.0228
2817.00,0.0220
2816.00,0.0213
2815.00,0.0206
2814.00,0.0200
2813.00,0.0194
2812.00,0.0188
2811.00,0.0183
2810.00,0.0177
2809.00,0.0171
2808.00,0.0165
2807.00,0.0159
2806.00,0.0152
2805.00,0.0145
2804.00,0.0139
2803.00,0.0133
2802.00,0.0127
2801.00,0.0123
2800.00,0.0119
2799.00,0.0116
2798.00,0.0113
2797.00,0.0111
2796.00,0.0109
2795.00,0.0106
2794.00,0.0103
2793.00,0.0100
2792.00,0.0097
2791.00,0.0095
2790.00,0.0092
2789.00,0.0089
2788.00,0.0086
2787.00,0.0083
2786.00,0.0080
2785.00,0.0077
2784.00,0.0075
2783.00,0.0073
2782.00,0.0071
2781.00,0.0069
2780.00,0.0068
2779.00,0.0066
2778.00,0.0065
2777.00,0.0063
2776.00,0.0062
2775.00,0.0061
2774.00,0.0060
2773.00,0.0060
2772.00,0.0059
2771.00,0.0058
2770.00,0.0058
2769.00,0.0057
2768.00,0.0057
2767.00,0.0057
2766.00,0.0057
2765.00,0.0056
2764.00,0.0056
2763.00,0.0055
2762.00,0.0055
2761.00,0.0055
2760.00,0.0055
2759.00,0.0055
2758.00,0.0054
2757.00,0.0054
2756.00,0.0054
2755.00,0.0054
2754.00,0.0054
2753.00,0.0054
2752.00,0.0053
2751.00,0.0053
2750.00,0.0052
2749.00,0.0052
2748.00,0.0053
2747.00,0.0053
2746.00,0.0054
2745.00,0.0054
2744.00,0.0055
2743.00,0.0056
2742.00,0.0056
2741.00,0.0057
2740.00,0.0058
2739.00,0.0060
2738.00,0.0061
2737.00,0.0063
2736.00,0.0064
2735.00,0.0066
2734.00,0.0067
2733.00,0.0068
2732.00,0.0070
2731.00,0.0072
2730.00,0.0074
2729.00,0.0076
2728.00,0.0079
2727.00,0.0082
2726.00,0.0085
2725.00,0.0088
2724.00,0.0089
2723.00,0.0090
2722.00,0.0089
2721.00,0.0087
2720.00,0.0084
2719.00,0.0081
2718.00,0.0078
2717.00,0.0075
2716.00,0.0071
2715.00,0.0068
2714.00,0.0066
2713.00,0.0064
2712.00,0.0062
2711.00,0.0060
2710.00,0.0058
2709.00,0.0057
2708.00,0.0056
2707.00,0.0055
2706.00,0.0053
2705.00,0.0052
2704.00,0.0051
2703.00,0.0050
2702.00,0.0048
2701.00,0.0048
2700.00,0.0047
2699.00,0.0046
2698.00,0.0046
2697.00,0.0046
2696.00,0.0045
2695.00,0.0045
2694.00,0.0046
2693.00,0.0046
2692.00,0.0046
2691.00,0.0047
2690.00,0.0047
2689.00,0.0047
2688.00,0.0047
2687.00,0.0047
2686.00,0.0047
2685.00,0.0047
2684.00,0.0047
2683.00,0.0047
2682.00,0.0047
2681.00,0.0047
2680.00,0.0048
2679.00,0.0048
2678.00,0.0048
2677.00,0.0047
2676.00,0.0047
2675.00,0.0047
2674.00,0.0047
2673.00,0.0046
2672.00,0.0046
2671.00,0.0046
2670.00,0.0046
2669.00,0.0046
2668.00,0.0046
2667.00,0.0046
2666.00,0.0047
2665.00,0.0047
2664.00,0.0048
2663.00,0.0048
2662.00,0.0049
2661.00,0.0049
2660.00,0.0050
2659.00,0.0050
2658.00,0.0050
2657.00,0.0049
2656.00,0.0049
2655.00,0.0049
2654.00,0.0048
2653.00,0.0047
2652.00,0.0047
2651.00,0.0046
2650.00,0.0046
2649.00,0.0045
2648.00,0.0045
2647.00,0.0045
2646.00,0.0045
2645.00,0.0044
2644.00,0.0043
2643.00,0.0043
2642.00,0.0042
2641.00,0.0041
2640.00,0.0041
2639.00,0.0040
2638.00,0.0040
2637.00,0.0040
2636.00,0.0039
2635.00,0.0039
2634.00,0.0039
2633.00,0.0040
2632.00,0.0040
2631.00,0.0040
2630.00,0.0041
2629.00,0.0041
2628.00,0.0041
2627.00,0.0041
2626.00,0.0041
2625.00,0.0041
2624.00,0.0041
2623.00,0.0042
2622.00,0.0042
2621.00,0.0042
2620.00,0.0042
2619.00,0.0042
2618.00,0.0042
2617.00,0.0042
2616.00,0.0042
2615.00,0.0042
2614.00,0.0042
2613.00,0.0041
2612.00,0.0041
2611.00,0.0040
2610.00,0.0040
2609.00,0.0039
2608.00,0.0038
2607.00,0.0038
2606.00,0.0037
2605.00,0.0037
2604.00,0.0036
2603.00,0.0035
2602.00,0.0035
2601.00,0.0034
2600.00,0.0034
2599.00,0.0033
2598.00,0.0033
2597.00,0.0033
2596.00,0.0033
2595.00,0.0033
2594.00,0.0033
2593.00,0.0034
2592.00,0.0035
2591.00,0.0036
2590.00,0.0037
2589.00,0.0038
2588.00,0.0039
2587.00,0.0040
2586.00,0.0041
2585.00,0.0041
2584.00,0.0041
2583.00,0.0041
2582.00,0.0041
2581.00,0.0041
2580.00,0.0040
2579.00,0.0040
2578.00,0.0039
2577.00,0.0037
2576.00,0.0036
2575.00,0.0035
2574.00,0.0034
2573.00,0.0033
2572.00,0.0032
2571.00,0.0031
2570.00,0.0030
2569.00,0.0029
2568.00,0.0028
2567.00,0.0028
2566.00,0.0028
2565.00,0.0027
2564.00,0.0027
2563.00,0.0027
2562.00,0.0026
2561.00,0.0025
2560.00,0.0025
2559.00,0.0024
2558.00,0.0024
2557.00,0.0023
2556.00,0.0023
2555.00,0.0023
2554.00,0.0023
2553.00,0.0023
2552.00,0.0023
2551.00,0.0023
2550.00,0.0023
2549.00,0.0022
2548.00,0.0021
2547.00,0.0021
2546.00,0.0020
2545.00,0.0019
2544.00,0.0019
2543.00,0.0019
2542.00,0.0019
2541.00,0.0018
2540.00,0.0018
2539.00,0.0019
2538.00,0.0019
2537.00,0.0019
2536.00,0.0019
2535.00,0.0019
2534.00,0.0018
2533.00,0.0018
2532.00,0.0018
2531.00,0.0018
2530.00,0.0018
2529.00,0.0018
2528.00,0.0018
2527.00,0.0018
2526.00,0.0017
2525.00,0.0017
2524.00,0.0016
2523.00,0.0016
2522.00,0.0015
2521.00,0.0015
2520.00,0.0015
2519.00,0.0015
2518.00,0.0014
2517.00,0.0014
2516.00,0.0013
2515.00,0.0013
2514.00,0.0013
2513.00,0.0013
2512.00,0.0012
2511.00,0.0012
2510.00,0.0012
2509.00,0.0012
2508.00,0.0012
2507.00,0.0013
2506.00,0.0013
2505.00,0.0013
2504.00,0.0013
2503.00,0.0012
2502.00,0.0011
2501.00,0.0011
2500.00,0.0011
2499.00,0.0012
2498.00,0.0012
2497.00,0.0013
2496.00,0.0013
2495.00,0.0013
2494.00,0.0012
2493.00,0.0012
2492.00,0.0012
2491.00,0.0012
2490.00,0.0012
2489.00,0.0011
2488.00,0.0011
2487.00,0.0011
2486.00,0.0011
2485.00,0.0011
2484.00,0.0011
2483.00,0.0011
2482.00,0.0011
2481.00,0.0011
2480.00,0.0012
2479.00,0.0012
2478.00,0.0012
2477.00,0.0012
2476.00,0.0012
2475.00,0.0011
2474.00,0.0011
2473.00,0.0011
2472.00,0.0010
2471.00,0.0010
2470.00,0.0010
2469.00,0.0010
2468.00,0.0010
2467.00,0.0010
2466.00,0.0011
2465.00,0.0012
2464.00,0.0012
2463.00,0.0012
2462.00,0.0012
2461.00,0.0012
2460.00,0.0012
2459.00,0.0012
2458.00,0.0013
2457.00,0.0013
2456.00,0.0013
2455.00,0.0013
2454.00,0.0012
2453.00,0.0012
2452.00,0.0011
2451.00,0.0011
2450.00,0.0012
2449.00,0.0013
2448.00,0.0013
2447.00,0.0013
2446.00,0.0014
2445.00,0.0014
2444.00,0.0014
2443.00,0.0013
2442.00,0.0013
2441.00,0.0013
2440.00,0.0013
2439.00,0.0013
2438.00,0.0013
2437.00,0.0013
2436.00,0.0013
2435.00,0.0013
2434.00,0.0012
2433.00,0.0012
2432.00,0.0012
2431.00,0.0012
2430.00,0.0012
2429.00,0.0013
2428.00,0.0013
2427.00,0.0013
2426.00,0.0013
2425.00,0.0012
2424.00,0.0011
2423.00,0.0011
2422.00,0.0011
2421.00,0.0011
2420.00,0.0012
2419.00,0.0012
2418.00,0.0013
2417.00,0.0013
2416.00,0.0013
2415.00,0.0013
2414.00,0.0013
2413.00,0.0012
2412.00,0.0012
2411.00,0.0012
2410.00,0.0011
2409.00,0.0011
2408.00,0.0011
2407.00,0.0011
2406.00,0.0010
2405.00,0.0010
2404.00,0.0010
2403.00,0.0011
2402.00,0.0011
2401.00,0.0011
2400.00,0.0011
2399.00,0.0011
2398.00,0.0010
2397.00,0.0010
2396.00,0.0010
2395.00,0.0010
2394.00,0.0010
2393.00,0.0010
2392.00,0.0010
2391.00,0.0010
2390.00,0.0009
2389.00,0.0009
2388.00,0.0009
2387.00,0.0009
2386.00,0.0009
2385.00,0.0009
2384.00,0.0008
2383.00,0.0007
2382.00,0.0006
2381.00,0.0005
2380.00,0.0004
2379.00,0.0004
2378.00,0.0003
2377.00,0.0003
2376.00,0.0003
2375.00,0.0004
2374.00,0.0005
2373.00,0.0005
2372.00,0.0005
2371.00,0.0004
2370.00,0.0003
2369.00,0.0002
2368.00,0.0002
2367.00,0.0002
2366.00,0.0002
2365.00,0.0003
2364.00,0.0004
2363.00,0.0005
2362.00,0.0006
2361.00,0.0006
2360.00,0.0006
2359.00,0.0006
2358.00,0.0005
2357.00,0.0005
2356.00,0.0005
2355.00,0.0005
2354.00,0.0006
2353.00,0.0006
2352.00,0.0006
2351.00,0.0005
2350.00,0.0005
2349.00,0.0006
2348.00,0.0006
2347.00,0.0006
2346.00,0.0006
2345.00,0.0006
2344.00,0.0006
2343.00,0.0007
2342.00,0.0008
2341.00,0.0009
2340.00,0.0009
2339.00,0.0009
2338.00,0.0009
2337.00,0.0008
2336.00,0.0008
2335.00,0.0007
2334.00,0.0006
2333.00,0.0005
2332.00,0.0005
2331.00,0.0005
2330.00,0.0006
2329.00,0.0007
2328.00,0.0009
2327.00,0.0012
2326.00,0.0015
2325.00,0.0019
2324.00,0.0020
2323.00,0.0020
2322.00,0.0018
2321.00,0.0016
2320.00,0.0015
2319.00,0.0014
2318.00,0.0013
2317.00,0.0013
2316.00,0.0013
2315.00,0.0012
2314.00,0.0011
2313.00,0.0011
2312.00,0.0011
2311.00,0.0011
2310.00,0.0010
2309.00,0.0010
2308.00,0.0010
2307.00,0.0010
2306.00,0.0011
2305.00,0.0011
2304.00,0.0011
2303.00,0.0011
2302.00,0.0011
2301.00,0.0012
2300.00,0.0012
2299.00,0.0013
2298.00,0.0014
2297.00,0.0014
2296.00,0.0015
2295.00,0.0015
2294.00,0.0015
2293.00,0.0016
2292.00,0.0016
2291.00,0.0017
2290.00,0.0018
2289.00,0.0019
2288.00,0.0019
2287.00,0.0020
2286.00,0.0020
2285.00,0.0020
2284.00,0.0020
2283.00,0.0020
2282.00,0.0019
2281.00,0.0018
2280.00,0.0017
2279.00,0.0016
2278.00,0.0015
2277.00,0.0014
2276.00,0.0014
2275.00,0.0014
2274.00,0.0015
2273.00,0.0015
2272.00,0.0015
2271.00,0.0015
2270.00,0.0015
2269.00,0.0016
2268.00,0.0016
2267.00,0.0016
2266.00,0.0015
2265.00,0.0014
2264.00,0.0014
2263.00,0.0013
2262.00,0.0013
2261.00,0.0013
2260.00,0.0013
2259.00,0.0014
2258.00,0.0014
2257.00,0.0014
2256.00,0.0013
2255.00,0.0012
2254.00,0.0012
2253.00,0.0012
2252.00,0.0013
2251.00,0.0012
2250.00,0.0011
2249.00,0.0009
2248.00,0.0009
2247.00,0.0009
2246.00,0.0009
2245.00,0.0010
2244.00,0.0009
2243.00,0.0009
2242.00,0.0008
2241.00,0.0008
2240.00,0.0008
2239.00,0.0009
2238.00,0.0009
2237.00,0.0010
2236.00,0.0009
2235.00,0.0009
2234.00,0.0009
2233.00,0.0009
2232.00,0.0009
2231.00,0.0010
2230.00,0.0011
2229.00,0.0012
2228.00,0.0012
2227.00,0.0011
2226.00,0.0011
2225.00,0.0012
2224.00,0.0013
2223.00,0.0014
2222.00,0.0013
2221.00,0.0011
2220.00,0.0008
2219.00,0.0006
2218.00,0.0004
2217.00,0.0004
2216.00,0.0005
2215.00,0.0006
2214.00,0.0007
2213.00,0.0007
2212.00,0.0007
2211.00,0.0008
2210.00,0.0008
2209.00,0.0008
2208.00,0.0009
2207.00,0.0009
2206.00,0.0008
2205.00,0.0009
2204.00,0.0009
2203.00,0.0011
2202.00,0.0012
2201.00,0.0013
2200.00,0.0013
2199.00,0.0013
2198.00,0.0012
2197.00,0.0012
2196.00,0.0012
2195.00,0.0013
2194.00,0.0014
2193.00,0.0015
2192.00,0.0015
2191.00,0.0013
2190.00,0.0010
2189.00,0.0008
2188.00,0.0010
2187.00,0.0013
2186.00,0.0016
2185.00,0.0018
2184.00,0.0016
2183.00,0.0014
2182.00,0.0010
2181.00,0.0008
2180.00,0.0007
2179.00,0.0007
2178.00,0.0008
2177.00,0.0007
2176.00,0.0007
2175.00,0.0006
2174.00,0.0006
2173.00,0.0007
2172.00,0.0008
2171.00,0.0009
2170.00,0.0010
2169.00,0.0012
2168.00,0.0015
2167.00,0.0018
2166.00,0.0021
2165.00,0.0025
2164.00,0.0027
2163.00,0.0029
2162.00,0.0027
2161.00,0.0020
2160.00,0.0006
2159.00,-0.0010
2158.00,-0.0022
2157.00,-0.0025
2156.00,-0.0023
2155.00,-0.0019
2154.00,-0.0016
2153.00,-0.0015
2152.00,-0.0013
2151.00,-0.0011
2150.00,-0.0009
2149.00,-0.0007
2148.00,-0.0006
2147.00,-0.0007
2146.00,-0.0007
2145.00,-0.0007
2144.00,-0.0007
2143.00,-0.0008
2142.00,-0.0009
2141.00,-0.0010
2140.00,-0.0010
2139.00,-0.0009
2138.00,-0.0010
2137.00,-0.0011
2136.00,-0.0014
2135.00,-0.0017
2134.00,-0.0019
2133.00,-0.0019
2132.00,-0.0017
2131.00,-0.0014
2130.00,-0.0011
2129.00,-0.0009
2128.00,-0.0008
2127.00,-0.0008
2126.00,-0.0008
2125.00,-0.0008
2124.00,-0.0008
2123.00,-0.0007
2122.00,-0.0006
2121.00,-0.0004
2120.00,-0.0003
2119.00,-0.0002
2118.00,-0.0002
2117.00,-0.0001
2116.00,-0.0001
2115.00,-0.0001
2114.00,-0.0001
2113.00,0.0000
2112.00,0.0002
2111.00,0.0003
2110.00,0.0003
2109.00,0.0004
2108.00,0.0004
2107.00,0.0005
2106.00,0.0005
2105.00,0.0004
2104.00,0.0003
2103.00,0.0001
2102.00,0.0000
2101.00,0.0000
2100.00,0.0002
2099.00,0.0003
2098.00,0.0004
2097.00,0.0003
2096.00,0.0001
2095.00,-0.0001
2094.00,-0.0004
2093.00,-0.0006
2092.00,-0.0005
2091.00,-0.0003
2090.00,-0.0001
2089.00,0.0002
2088.00,0.0004
2087.00,0.0005
2086.00,0.0005
2085.00,0.0004
2084.00,0.0003
2083.00,0.0002
2082.00,0.0003
2081.00,0.0005
2080.00,0.0007
2079.00,0.0008
2078.00,0.0007
2077.00,0.0005
2076.00,0.0004
2075.00,0.0003
2074.00,0.0003
2073.00,0.0003
2072.00,0.0004
2071.00,0.0005
2070.00,0.0005
2069.00,0.0004
2068.00,0.0004
2067.00,0.0003
2066.00,0.0002
2065.00,0.0000
2064.00,-0.0001
2063.00,-0.0001
2062.00,-0.0001
2061.00,0.0000
2060.00,0.0000
2059.00,0.0001
2058.00,0.0001
2057.00,0.0001
2056.00,0.0000
2055.00,-0.0001
2054.00,-0.0001
2053.00,0.0001
2052.00,0.0006
2051.00,0.0009
2050.00,0.0010
2049.00,0.0008
2048.00,0.0006
2047.00,0.0005
2046.00,0.0006
2045.00,0.0006
2044.00,0.0006
2043.00,0.0004
2042.00,0.0001
2041.00,-0.0002
2040.00,-0.0003
2039.00,-0.0001
2038.00,0.0003
2037.00,0.0005
2036.00,0.0005
2035.00,0.0002
2034.00,-0.0002
2033.00,-0.0006
2032.00,-0.0010
2031.00,-0.0012
2030.00,-0.0012
2029.00,-0.0011
2028.00,-0.0009
2027.00,-0.0007
2026.00,-0.0005
2025.00,-0.0004
2024.00,-0.0004
2023.00,-0.0006
2022.00,-0.0010
2021.00,-0.0013
2020.00,-0.0014
2019.00,-0.0015
2018.00,-0.0014
2017.00,-0.0011
2016.00,-0.0009
2015.00,-0.0008
2014.00,-0.0009
2013.00,-0.0011
2012.00,-0.0012
2011.00,-0.0011
2010.00,-0.0010
2009.00,-0.0008
2008.00,-0.0006
2007.00,-0.0007
2006.00,-0.0009
2005.00,-0.0011
2004.00,-0.0011
2003.00,-0.0011
2002.00,-0.0010
2001.00,-0.0009
2000.00,-0.0008
1999.00,-0.0007
1998.00,-0.0006
1997.00,-0.0005
1996.00,-0.0006
1995.00,-0.0009
1994.00,-0.0011
1993.00,-0.0012
1992.00,-0.0011
1991.00,-0.0009
1990.00,-0.0005
1989.00,-0.0001
1988.00,0.0002
1987.00,0.0003
1986.00,0.0001
1985.00,-0.0003
1984.00,-0.0006
1983.00,-0.0006
1982.00,-0.0001
1981.00,0.0006
1980.00,0.0009
1979.00,0.0006
1978.00,-0.0001
1977.00,-0.0007
1976.00,-0.0010
1975.00,-0.0011
1974.00,-0.0010
1973.00,-0.0009
1972.00,-0.0009
1971.00,-0.0011
1970.00,-0.0013
1969.00,-0.0014
1968.00,-0.0015
1967.00,-0.0015
1966.00,-0.0016
1965.00,-0.0016
1964.00,-0.0015
1963.00,-0.0014
1962.00,-0.0012
1961.00,-0.0011
1960.00,-0.0011
1959.00,-0.0012
1958.00,-0.0014
1957.00,-0.0015
1956.00,-0.0015
1955.00,-0.0015
1954.00,-0.0015
1953.00,-0.0016
1952.00,-0.0017
1951.00,-0.0016
1950.00,-0.0013
1949.00,-0.0011
1948.00,-0.0010
1947.00,-0.0010
1946.00,-0.0011
1945.00,-0.0011
1944.00,-0.0011
1943.00,-0.0011
1942.00,-0.0010
1941.00,-0.0009
1940.00,-0.0008
1939.00,-0.0008
1938.00,-0.0009
1937.00,-0.0010
1936.00,-0.0010
1935.00,-0.0010
1934.00,-0.0009
1933.00,-0.0008
1932.00,-0.0008
1931.00,-0.0008
1930.00,-0.0008
1929.00,-0.0007
1928.00,-0.0005
1927.00,-0.0004
1926.00,-0.0004
1925.00,-0.0004
1924.00,-0.0005
1923.00,-0.0006
1922.00,-0.0006
1921.00,-0.0006
1920.00,-0.0005
1919.00,-0.0003
1918.00,-0.0002
1917.00,-0.0000
1916.00,0.0000
1915.00,0.0000
1914.00,-0.0001
1913.00,-0.0001
1912.00,-0.0001
1911.00,-0.0000
1910.00,0.0000
1909.00,0.0000
1908.00,-0.0000
1907.00,-0.0000
1906.00,-0.0000
1905.00,0.0000
1904.00,0.0001
1903.00,0.0001
1902.00,0.0002
1901.00,0.0003
1900.00,0.0005
1899.00,0.0006
1898.00,0.0006
1897.00,0.0006
1896.00,0.0005
1895.00,0.0004
1894.00,0.0004
1893.00,0.0004
1892.00,0.0004
1891.00,0.0004
1890.00,0.0003
1889.00,0.0002
1888.00,0.0001
1887.00,0.0001
1886.00,0.0001
1885.00,0.0002
1884.00,0.0002
1883.00,0.0002
1882.00,0.0001
1881.00,0.0000
1880.00,-0.0000
1879.00,-0.0000
1878.00,-0.0000
1877.00,0.0000
1876.00,0.0000
1875.00,-0.0000
1874.00,-0.0000
1873.00,0.0000
1872.00,0.0001
1871.00,0.0001
1870.00,0.0002
1869.00,0.0002
1868.00,0.0002
1867.00,0.0002
1866.00,0.0002
1865.00,0.0002
1864.00,0.0002
1863.00,0.0002
1862.00,0.0002
1861.00,0.0002
1860.00,0.0002
1859.00,0.0003
1858.00,0.0003
1857.00,0.0003
1856.00,0.0002
1855.00,0.0002
1854.00,0.0001
1853.00,0.0001
1852.00,0.0001
1851.00,0.0001
1850.00,0.0002
1849.00,0.0002
1848.00,0.0002
1847.00,0.0001
1846.00,0.0000
1845.00,0.0000
1844.00,0.0001
1843.00,0.0002
1842.00,0.0003
1841.00,0.0004
1840.00,0.0003
1839.00,0.0003
1838.00,0.0004
1837.00,0.0004
1836.00,0.0005
1835.00,0.0005
1834.00,0.0006
1833.00,0.0006
1832.00,0.0005
1831.00,0.0005
1830.00,0.0005
1829.00,0.0006
1828.00,0.0007
1827.00,0.0007
1826.00,0.0007
1825.00,0.0006
1824.00,0.0006
1823.00,0.0006
1822.00,0.0005
1821.00,0.0004
1820.00,0.0004
1819.00,0.0004
1818.00,0.0003
1817.00,0.0002
1816.00,0.0002
1815.00,0.0002
1814.00,0.0003
1813.00,0.0003
1812.00,0.0004
1811.00,0.0005
1810.00,0.0006
1809.00,0.0007
1808.00,0.0007
1807.00,0.0007
1806.00,0.0007
1805.00,0.0007
1804.00,0.0007
1803.00,0.0007
1802.00,0.0008
1801.00,0.0007
1800.00,0.0007
1799.00,0.0007
1798.00,0.0007
1797.00,0.0008
1796.00,0.0008
1795.00,0.0008
1794.00,0.0008
1793.00,0.0008
1792.00,0.0008
1791.00,0.0008
1790.00,0.0008
1789.00,0.0008
1788.00,0.0008
1787.00,0.0009
1786.00,0.0009
1785.00,0.0010
1784.00,0.0010
1783.00,0.0009
1782.00,0.0008
1781.00,0.0008
1780.00,0.0008
1779.00,0.0009
1778.00,0.0009
1777.00,0.0009
1776.00,0.0010
1775.00,0.0010
1774.00,0.0010
1773.00,0.0010
1772.00,0.0010
1771.00,0.0011
1770.00,0.0011
1769.00,0.0012
1768.00,0.0013
1767.00,0.0013
1766.00,0.0012
1765.00,0.0012
1764.00,0.0013
1763.00,0.0013
1762.00,0.0013
1761.00,0.0013
1760.00,0.0014
1759.00,0.0014
1758.00,0.0014
1757.00,0.0015
1756.00,0.0015
1755.00,0.0015
1754.00,0.0016
1753.00,0.0017
1752.00,0.0017
1751.00,0.0018
1750.00,0.0018
1749.00,0.0018
1748.00,0.0018
1747.00,0.0019
1746.00,0.0020
1745.00,0.0021
1744.00,0.0022
1743.00,0.0022
1742.00,0.0023
1741.00,0.0023
1740.00,0.0023
1739.00,0.0023
1738.00,0.0023
1737.00,0.0023
1736.00,0.0023
1735.00,0.0022
1734.00,0.0022
1733.00,0.0023
1732.00,0.0024
1731.00,0.0025
1730.00,0.0025
1729.00,0.0024
1728.00,0.0024
1727.00,0.0024
1726.00,0.0024
1725.00,0.0025
1724.00,0.0025
1723.00,0.0026
1722.00,0.0026
1721.00,0.0026
1720.00,0.0025
1719.00,0.0024
1718.00,0.0022
1717.00,0.0022
1716.00,0.0023
1715.00,0.0023
1714.00,0.0023
1713.00,0.0023
1712.00,0.0022
1711.00,0.0021
1710.00,0.0020
1709.00,0.0019
1708.00,0.0019
1707.00,0.0018
1706.00,0.0018
1705.00,0.0018
1704.00,0.0019
1703.00,0.0019
1702.00,0.0018
1701.00,0.0018
1700.00,0.0019
1699.00,0.0020
1698.00,0.0020
1697.00,0.0021
1696.00,0.0023
1695.00,0.0026
1694.00,0.0028
1693.00,0.0028
1692.00,0.0029
1691.00,0.0030
1690.00,0.0032
1689.00,0.0034
1688.00,0.0037
1687.00,0.0039
1686.00,0.0039
1685.00,0.0039
1684.00,0.0041
1683.00,0.0044
1682.00,0.0045
1681.00,0.0046
1680.00,0.0047
1679.00,0.0048
1678.00,0.0049
1677.00,0.0049
1676.00,0.0049
1675.00,0.0050
1674.00,0.0050
1673.00,0.0050
1672.00,0.0050
1671.00,0.0050
1670.00,0.0050
1669.00,0.0051
1668.00,0.0051
1667.00,0.0051
1666.00,0.0050
1665.00,0.0049
1664.00,0.0049
1663.00,0.0049
1662.00,0.0050
1661.00,0.0051
1660.00,0.0051
1659.00,0.0051
1658.00,0.0051
1657.00,0.0052
1656.00,0.0053
1655.00,0.0054
1654.00,0.0056
1653.00,0.0060
1652.00,0.0062
1651.00,0.0063
1650.00,0.0063
1649.00,0.0064
1648.00,0.0065
1647.00,0.0067
1646.00,0.0070
1645.00,0.0071
1644.00,0.0072
1643.00,0.0072
1642.00,0.0072
1641.00,0.0073
1640.00,0.0074
1639.00,0.0075
1638.00,0.0075
1637.00,0.0075
1636.00,0.0076
1635.00,0.0077
1634.00,0.0077
1633.00,0.0077
1632.00,0.0077
1631.00,0.0076
1630.00,0.0075
1629.00,0.0075
1628.00,0.0074
1627.00,0.0073
1626.00,0.0072
1625.00,0.0072
1624.00,0.0071
1623.00,0.0071
1622.00,0.0070
1621.00,0.0070
1620.00,0.0069
1619.00,0.0068
1618.00,0.0066
1617.00,0.0065
1616.00,0.0065
1615.00,0.0065
1614.00,0.0066
1613.00,0.0066
1612.00,0.0065
1611.00,0.0065
1610.00,0.0065
1609.00,0.0065
1608.00,0.0066
1607.00,0.0066
1606.00,0.0066
1605.00,0.0066
1604.00,0.0065
1603.00,0.0065
1602.00,0.0064
1601.00,0.0064
1600.00,0.0063
1599.00,0.0063
1598.00,0.0063
1597.00,0.0063
1596.00,0.0063
1595.00,0.0063
1594.00,0.0063
1593.00,0.0063
1592.00,0.0064
1591.00,0.0065
1590.00,0.0065
1589.00,0.0066
1588.00,0.0067
1587.00,0.0068
1586.00,0.0070
1585.00,0.0071
1584.00,0.0073
1583.00,0.0074
1582.00,0.0076
1581.00,0.0079
1580.00,0.0081
1579.00,0.0083
1578.00,0.0085
1577.00,0.0085
1576.00,0.0084
1575.00,0.0084
1574.00,0.0083
1573.00,0.0083
1572.00,0.0082
1571.00,0.0081
1570.00,0.0079
1569.00,0.0078
1568.00,0.0078
1567.00,0.0077
1566.00,0.0076
1565.00,0.0076
1564.00,0.0076
1563.00,0.0076
1562.00,0.0077
1561.00,0.0079
1560.00,0.0079
1559.00,0.0079
1558.00,0.0079
1557.00,0.0079
1556.00,0.0079
1555.00,0.0079
1554.00,0.0080
1553.00,0.0081
1552.00,0.0082
1551.00,0.0083
1550.00,0.0085
1549.00,0.0087
1548.00,0.0088
1547.00,0.0089
1546.00,0.0091
1545.00,0.0094
1544.00,0.0097
1543.00,0.0100
1542.00,0.0101
1541.00,0.0101
1540.00,0.0101
1539.00,0.0099
1538.00,0.0097
1537.00,0.0096
1536.00,0.0094
1535.00,0.0092
1534.00,0.0089
1533.00,0.0086
1532.00,0.0085
1531.00,0.0083
1530.00,0.0081
1529.00,0.0081
1528.00,0.0081
1527.00,0.0080
1526.00,0.0079
1525.00,0.0079
1524.00,0.0079
1523.00,0.0078
1522.00,0.0077
1521.00,0.0077
1520.00,0.0077
1519.00,0.0077
1518.00,0.0077
1517.00,0.0077
1516.00,0.0078
1515.00,0.0078
1514.00,0.0077
1513.00,0.0077
1512.00,0.0077
1511.00,0.0077
1510.00,0.0078
1509.00,0.0078
1508.00,0.0079
1507.00,0.0079
1506.00,0.0079
1505.00,0.0080
1504.00,0.0080
1503.00,0.0081
1502.00,0.0082
1501.00,0.0083
1500.00,0.0085
1499.00,0.0086
1498.00,0.0088
1497.00,0.0092
1496.00,0.0096
1495.00,0.0100
1494.00,0.0102
1493.00,0.0105
1492.00,0.0109
1491.00,0.0112
1490.00,0.0116
1489.00,0.0120
1488.00,0.0125
1487.00,0.0129
1486.00,0.0133
1485.00,0.0139
1484.00,0.0146
1483.00,0.0153
1482.00,0.0163
1481.00,0.0175
1480.00,0.0188
1479.00,0.0201
1478.00,0.0217
1477.00,0.0238
1476.00,0.0263
1475.00,0.0293
1474.00,0.0333
1473.00,0.0390
1472.00,0.0458
1471.00,0.0523
1470.00,0.0586
1469.00,0.0652
1468.00,0.0724
1467.00,0.0804
1466.00,0.0894
1465.00,0.0991
1464.00,0.1075
1463.00,0.1132
1462.00,0.1168
1461.00,0.1191
1460.00,0.1206
1459.00,0.1214
1458.00,0.1219
1457.00,0.1221
1456.00,0.1215
1455.00,0.1204
1454.00,0.1189
1453.00,0.1168
1452.00,0.1139
1451.00,0.1099
1450.00,0.1046
1449.00,0.0974
1448.00,0.0884
1447.00,0.0789
1446.00,0.0704
1445.00,0.0632
1444.00,0.0570
1443.00,0.0520
1442.00,0.0484
1441.00,0.0459
1440.00,0.0444
1439.00,0.0440
1438.00,0.0444
1437.00,0.0450
1436.00,0.0443
1435.00,0.0420
1434.00,0.0384
1433.00,0.0340
1432.00,0.0294
1431.00,0.0254
1430.00,0.0223
1429.00,0.0200
1428.00,0.0184
1427.00,0.0174
1426.00,0.0167
1425.00,0.0162
1424.00,0.0157
1423.00,0.0154
1422.00,0.0152
1421.00,0.0150
1420.00,0.0147
1419.00,0.0145
1418.00,0.0144
1417.00,0.0141
1416.00,0.0138
1415.00,0.0135
1414.00,0.0133
1413.00,0.0131
1412.00,0.0128
1411.00,0.0127
1410.00,0.0126
1409.00,0.0125
1408.00,0.0123
1407.00,0.0123
1406.00,0.0124
1405.00,0.0123
1404.00,0.0123
1403.00,0.0123
1402.00,0.0124
1401.00,0.0125
1400.00,0.0125
1399.00,0.0127
1398.00,0.0129
1397.00,0.0131
1396.00,0.0133
1395.00,0.0137
1394.00,0.0142
1393.00,0.0146
1392.00,0.0150
1391.00,0.0157
1390.00,0.0167
1389.00,0.0181
1388.00,0.0202
1387.00,0.0233
1386.00,0.0275
1385.00,0.0329
1384.00,0.0405
1383.00,0.0514
1382.00,0.0664
1381.00,0.0861
1380.00,0.1109
1379.00,0.1396
1378.00,0.1676
1377.00,0.1883
1376.00,0.1956
1375.00,0.1858
1374.00,0.1621
1373.00,0.1334
1372.00,0.1073
1371.00,0.0858
1370.00,0.0688
1369.00,0.0560
1368.00,0.0471
1367.00,0.0417
1366.00,0.0388
1365.00,0.0376
1364.00,0.0378
1363.00,0.0393
1362.00,0.0415
1361.00,0.0438
1360.00,0.0456
1359.00,0.0461
1358.00,0.0451
1357.00,0.0425
1356.00,0.0389
1355.00,0.0349
1354.00,0.0310
1353.00,0.0275
1352.00,0.0248
1351.00,0.0225
1350.00,0.0207
1349.00,0.0192
1348.00,0.0180
1347.00,0.0169
1346.00,0.0160
1345.00,0.0153
1344.00,0.0147
1343.00,0.0142
1342.00,0.0138
1341.00,0.0135
1340.00,0.0133
1339.00,0.0131
1338.00,0.0130
1337.00,0.0129
1336.00,0.0129
1335.00,0.0131
1334.00,0.0133
1333.00,0.0137
1332.00,0.0141
1331.00,0.0145
1330.00,0.0146
1329.00,0.0145
1328.00,0.0141
1327.00,0.0136
1326.00,0.0130
1325.00,0.0124
1324.00,0.0119
1323.00,0.0114
1322.00,0.0110
1321.00,0.0107
1320.00,0.0105
1319.00,0.0103
1318.00,0.0101
1317.00,0.0100
1316.00,0.0098
1315.00,0.0098
1314.00,0.0098
1313.00,0.0098
1312.00,0.0099
1311.00,0.0100
1310.00,0.0103
1309.00,0.0109
1308.00,0.0117
1307.00,0.0126
1306.00,0.0135
1305.00,0.0142
1304.00,0.0144
1303.00,0.0142
1302.00,0.0138
1301.00,0.0135
1300.00,0.0134
1299.00,0.0135
1298.00,0.0136
1297.00,0.0137
1296.00,0.0136
1295.00,0.0134
1294.00,0.0130
1293.00,0.0124
1292.00,0.0119
1291.00,0.0114
1290.00,0.0109
1289.00,0.0104
1288.00,0.0100
1287.00,0.0097
1286.00,0.0095
1285.00,0.0093
1284.00,0.0092
1283.00,0.0092
1282.00,0.0091
1281.00,0.0090
1280.00,0.0089
1279.00,0.0088
1278.00,0.0087
1277.00,0.0086
1276.00,0.0085
1275.00,0.0085
1274.00,0.0085
1273.00,0.0085
1272.00,0.0085
1271.00,0.0086
1270.00,0.0086
1269.00,0.0087
1268.00,0.0088
1267.00,0.0089
1266.00,0.0091
1265.00,0.0093
1264.00,0.0095
1263.00,0.0098
1262.00,0.0100
1261.00,0.0104
1260.00,0.0108
1259.00,0.0113
1258.00,0.0120
1257.00,0.0125
1256.00,0.0127
1255.00,0.0126
1254.00,0.0121
1253.00,0.0114
1252.00,0.0107
1251.00,0.0101
1250.00,0.0097
1249.00,0.0093
1248.00,0.0090
1247.00,0.0088
1246.00,0.0086
1245.00,0.0085
1244.00,0.0084
1243.00,0.0083
1242.00,0.0082
1241.00,0.0081
1240.00,0.0080
1239.00,0.0080
1238.00,0.0079
1237.00,0.0079
1236.00,0.0079
1235.00,0.0079
1234.00,0.0079
1233.00,0.0080
1232.00,0.0081
1231.00,0.0083
1230.00,0.0084
1229.00,0.0085
1228.00,0.0087
1227.00,0.0088
1226.00,0.0091
1225.00,0.0094
1224.00,0.0097
1223.00,0.0101
1222.00,0.0105
1221.00,0.0108
1220.00,0.0110
1219.00,0.0111
1218.00,0.0110
1217.00,0.0108
1216.00,0.0105
1215.00,0.0102
1214.00,0.0098
1213.00,0.0096
1212.00,0.0093
1211.00,0.0091
1210.00,0.0090
1209.00,0.0088
1208.00,0.0087
1207.00,0.0085
1206.00,0.0084
1205.00,0.0084
1204.00,0.0083
1203.00,0.0083
1202.00,0.0084
1201.00,0.0084
1200.00,0.0084
1199.00,0.0084
1198.00,0.0085
1197.00,0.0085
1196.00,0.0084
1195.00,0.0084
1194.00,0.0083
1193.00,0.0083
1192.00,0.0083
1191.00,0.0083
1190.00,0.0083
1189.00,0.0083
1188.00,0.0082
1187.00,0.0082
1186.00,0.0083
1185.00,0.0083
1184.00,0.0084
1183.00,0.0086
1182.00,0.0087
1181.00,0.0089
1180.00,0.0092
1179.00,0.0096
1178.00,0.0101
1177.00,0.0108
1176.00,0.0117
1175.00,0.0130
1174.00,0.0146
1173.00,0.0167
1172.00,0.0191
1171.00,0.0218
1170.00,0.0244
1169.00,0.0265
1168.00,0.0278
1167.00,0.0280
1166.00,0.0274
1165.00,0.0261
1164.00,0.0247
1163.00,0.0233
1162.00,0.0221
1161.00,0.0212
1160.00,0.0204
1159.00,0.0199
1158.00,0.0196
1157.00,0.0194
1156.00,0.0192
1155.00,0.0191
1154.00,0.0190
1153.00,0.0188
1152.00,0.0185
1151.00,0.0179
1150.00,0.0171
1149.00,0.0162
1148.00,0.0153
1147.00,0.0145
1146.00,0.0137
1145.00,0.0129
1144.00,0.0122
1143.00,0.0116
1142.00,0.0111
1141.00,0.0106
1140.00,0.0101
1139.00,0.0097
1138.00,0.0094
1137.00,0.0091
1136.00,0.0090
1135.00,0.0088
1134.00,0.0087
1133.00,0.0085
1132.00,0.0085
1131.00,0.0084
1130.00,0.0084
1129.00,0.0084
1128.00,0.0084
1127.00,0.0085
1126.00,0.0086
1125.00,0.0087
1124.00,0.0087
1123.00,0.0087
1122.00,0.0087
1121.00,0.0088
1120.00,0.0088
1119.00,0.0089
1118.00,0.0090
1117.00,0.0091
1116.00,0.0093
1115.00,0.0094
1114.00,0.0096
1113.00,0.0097
1112.00,0.0098
1111.00,0.0100
1110.00,0.0104
1109.00,0.0109
1108.00,0.0114
1107.00,0.0121
1106.00,0.0127
1105.00,0.0133
1104.00,0.0137
1103.00,0.0139
1102.00,0.0138
1101.00,0.0134
1100.00,0.0128
1099.00,0.0122
1098.00,0.0116
1097.00,0.0109
1096.00,0.0104
1095.00,0.0101
1094.00,0.0098
1093.00,0.0096
1092.00,0.0094
1091.00,0.0092
1090.00,0.0091
1089.00,0.0091
1088.00,0.0091
1087.00,0.0091
1086.00,0.0091
1085.00,0.0090
1084.00,0.0090
1083.00,0.0090
1082.00,0.0090
1081.00,0.0089
1080.00,0.0087
1079.00,0.0086
1078.00,0.0085
1077.00,0.0084
1076.00,0.0084
1075.00,0.0083
1074.00,0.0083
1073.00,0.0083
1072.00,0.0082
1071.00,0.0081
1070.00,0.0081
1069.00,0.0081
1068.00,0.0081
1067.00,0.0082
1066.00,0.0083
1065.00,0.0083
1064.00,0.0084
1063.00,0.0085
1062.00,0.0087
1061.00,0.0088
1060.00,0.0089
1059.00,0.0089
1058.00,0.0090
1057.00,0.0090
1056.00,0.0092
1055.00,0.0093
1054.00,0.0095
1053.00,0.0098
1052.00,0.0102
1051.00,0.0105
1050.00,0.0109
1049.00,0.0113
1048.00,0.0118
1047.00,0.0122
1046.00,0.0126
1045.00,0.0129
1044.00,0.0130
1043.00,0.0129
1042.00,0.0128
1041.00,0.0127
1040.00,0.0126
1039.00,0.0125
1038.00,0.0125
1037.00,0.0125
1036.00,0.0124
1035.00,0.0123
1034.00,0.0121
1033.00,0.0119
1032.00,0.0119
1031.00,0.0118
1030.00,0.0118
1029.00,0.0118
1028.00,0.0118
1027.00,0.0119
1026.00,0.0119
1025.00,0.0120
1024.00,0.0122
1023.00,0.0125
1022.00,0.0128
1021.00,0.0131
1020.00,0.0133
1019.00,0.0134
1018.00,0.0135
1017.00,0.0136
1016.00,0.0137
1015.00,0.0136
1014.00,0.0136
1013.00,0.0136
1012.00,0.0136
1011.00,0.0136
1010.00,0.0137
1009.00,0.0138
1008.00,0.0140
1007.00,0.0143
1006.00,0.0148
1005.00,0.0157
1004.00,0.0171
1003.00,0.0190
1002.00,0.0215
1001.00,0.0245
1000.00,0.0277
999.00,0.0302
998.00,0.0314
997.00,0.0306
996.00,0.0281
995.00,0.0248
994.00,0.0213
993.00,0.0184
992.00,0.0162
991.00,0.0146
990.00,0.0135
989.00,0.0127
988.00,0.0121
987.00,0.0118
986.00,0.0117
985.00,0.0118
984.00,0.0121
983.00,0.0128
982.00,0.0137
981.00,0.0151
980.00,0.0170
979.00,0.0195
978.00,0.0227
977.00,0.0264
976.00,0.0302
975.00,0.0338
974.00,0.0362
973.00,0.0369
972.00,0.0354
971.00,0.0320
970.00,0.0276
969.00,0.0232
968.00,0.0194
967.00,0.0166
966.00,0.0145
965.00,0.0131
964.00,0.0121
963.00,0.0113
962.00,0.0107
961.00,0.0102
960.00,0.0098
959.00,0.0094
958.00,0.0091
957.00,0.0088
956.00,0.0086
955.00,0.0085
954.00,0.0083
953.00,0.0082
952.00,0.0081
951.00,0.0080
950.00,0.0078
949.00,0.0077
948.00,0.0077
947.00,0.0079
946.00,0.0082
945.00,0.0085
944.00,0.0088
943.00,0.0091
942.00,0.0094
941.00,0.0096
940.00,0.0096
939.00,0.0093
938.00,0.0089
937.00,0.0084
936.00,0.0080
935.00,0.0077
934.00,0.0074
933.00,0.0072
932.00,0.0071
931.00,0.0070
930.00,0.0069
929.00,0.0068
928.00,0.0066
927.00,0.0065
926.00,0.0064
925.00,0.0064
924.00,0.0065
923.00,0.0066
922.00,0.0067
921.00,0.0067
920.00,0.0066
919.00,0.0066
918.00,0.0067
917.00,0.0068
916.00,0.0069
915.00,0.0069
914.00,0.0069
913.00,0.0069
912.00,0.0070
911.00,0.0071
910.00,0.0073
909.00,0.0076
908.00,0.0080
907.00,0.0086
906.00,0.0093
905.00,0.0103
904.00,0.0117
903.00,0.0136
902.00,0.0158
901.00,0.0177
900.00,0.0189
899.00,0.0190
898.00,0.0180
897.00,0.0163
896.00,0.0144
895.00,0.0126
894.00,0.0111
893.00,0.0099
892.00,0.0091
891.00,0.0085
890.00,0.0082
889.00,0.0080
888.00,0.0079
887.00,0.0079
886.00,0.0078
885.00,0.0076
884.00,0.0075
883.00,0.0073
882.00,0.0073
881.00,0.0073
880.00,0.0074
879.00,0.0073
878.00,0.0074
877.00,0.0075
876.00,0.0077
875.00,0.0079
874.00,0.0080
873.00,0.0079
872.00,0.0077
871.00,0.0076
870.00,0.0076
869.00,0.0077
868.00,0.0077
867.00,0.0078
866.00,0.0079
865.00,0.0079
864.00,0.0080
863.00,0.0082
862.00,0.0084
861.00,0.0086
860.00,0.0087
859.00,0.0088
858.00,0.0089
857.00,0.0090
856.00,0.0091
855.00,0.0092
854.00,0.0093
853.00,0.0094
852.00,0.0097
851.00,0.0101
850.00,0.0105
849.00,0.0110
848.00,0.0116
847.00,0.0126
846.00,0.0143
845.00,0.0171
844.00,0.0209
843.00,0.0253
842.00,0.0288
841.00,0.0299
840.00,0.0279
839.00,0.0239
838.00,0.0194
837.00,0.0160
836.00,0.0137
835.00,0.0124
834.00,0.0116
833.00,0.0112
832.00,0.0108
831.00,0.0105
830.00,0.0103
829.00,0.0101
828.00,0.0098
827.00,0.0097
826.00,0.0096
825.00,0.0096
824.00,0.0098
823.00,0.0100
822.00,0.0101
821.00,0.0102
820.00,0.0105
819.00,0.0109
818.00,0.0114
817.00,0.0120
816.00,0.0128
815.00,0.0139
814.00,0.0154
813.00,0.0175
812.00,0.0197
811.00,0.0217
810.00,0.0231
809.00,0.0236
808.00,0.0231
807.00,0.0216
806.00,0.0196
805.00,0.0176
804.00,0.0158
803.00,0.0144
802.00,0.0133
801.00,0.0126
800.00,0.0119
799.00,0.0114
798.00,0.0109
797.00,0.0105
796.00,0.0102
795.00,0.0100
794.00,0.0097
793.00,0.0093
792.00,0.0089
791.00,0.0086
790.00,0.0084
789.00,0.0082
788.00,0.0080
787.00,0.0077
786.00,0.0074
785.00,0.0074
784.00,0.0074
783.00,0.0073
782.00,0.0072
781.00,0.0070
780.00,0.0069
779.00,0.0069
778.00,0.0069
777.00,0.0068
776.00,0.0068
775.00,0.0067
774.00,0.0067
773.00,0.0068
772.00,0.0070
771.00,0.0071
770.00,0.0072
769.00,0.0071
768.00,0.0070
767.00,0.0070
766.00,0.0070
765.00,0.0072
764.00,0.0075
763.00,0.0077
762.00,0.0078
761.00,0.0077
760.00,0.0075
759.00,0.0074
758.00,0.0075
757.00,0.0076
756.00,0.0077
755.00,0.0078
754.00,0.0079
753.00,0.0080
752.00,0.0081
751.00,0.0082
750.00,0.0084
749.00,0.0086
748.00,0.0087
747.00,0.0086
746.00,0.0086
745.00,0.0087
744.00,0.0089
743.00,0.0092
742.00,0.0096
741.00,0.0101
740.00,0.0105
739.00,0.0107
738.00,0.0110
737.00,0.0114
736.00,0.0119
735.00,0.0123
734.00,0.0127
733.00,0.0133
732.00,0.0139
731.00,0.0147
730.00,0.0155
729.00,0.0160
728.00,0.0162
727.00,0.0162
726.00,0.0162
725.00,0.0163
724.00,0.0168
723.00,0.0174
722.00,0.0181
721.00,0.0186
720.00,0.0186
719.00,0.0179
718.00,0.0167
717.00,0.0153
716.00,0.0142
715.00,0.0133
714.00,0.0128
713.00,0.0124
712.00,0.0120
711.00,0.0116
710.00,0.0113
709.00,0.0111
708.00,0.0110
707.00,0.0110
706.00,0.0110
705.00,0.0111
704.00,0.0111
703.00,0.0110
702.00,0.0109
701.00,0.0108
700.00,0.0108
699.00,0.0107
698.00,0.0105
697.00,0.0102
696.00,0.0101
695.00,0.0101
694.00,0.0101
693.00,0.0102
692.00,0.0102
691.00,0.0103
690.00,0.0103
689.00,0.0103
688.00,0.0103
687.00,0.0103
686.00,0.0103
685.00,0.0102
684.00,0.0102
683.00,0.0103
682.00,0.0103
681.00,0.0102
680.00,0.0101
679.00,0.0102
678.00,0.0103
677.00,0.0104
676.00,0.0106
675.00,0.0109
674.00,0.0113
673.00,0.0117
672.00,0.0118
671.00,0.0118
670.00,0.0115
669.00,0.0111
668.00,0.0107
667.00,0.0107
666.00,0.0107
665.00,0.0106
664.00,0.0105
663.00,0.0104
662.00,0.0104
661.00,0.0104
660.00,0.0103
659.00,0.0100
658.00,0.0098
657.00,0.0096
656.00,0.0094
655.00,0.0094
654.00,0.0093
653.00,0.0092
652.00,0.0091
651.00,0.0089
650.00,0.0088
649.00,0.0086
648.00,0.0085
647.00,0.0086
646.00,0.0089
645.00,0.0091
644.00,0.0093
643.00,0.0093
642.00,0.0094
641.00,0.0093
640.00,0.0091
639.00,0.0088
638.00,0.0086
637.00,0.0087
636.00,0.0090
635.00,0.0093
634.00,0.0094
633.00,0.0093
632.00,0.0091
631.00,0.0091
630.00,0.0093
629.00,0.0094
628.00,0.0095
627.00,0.0095
626.00,0.0094
625.00,0.0094
624.00,0.0094
623.00,0.0094
622.00,0.0094
621.00,0.0093
620.00,0.0094
619.00,0.0095
618.00,0.0095
617.00,0.0093
616.00,0.0090
615.00,0.0088
614.00,0.0087
613.00,0.0086
612.00,0.0086
611.00,0.0086
610.00,0.0088
609.00,0.0089
608.00,0.0090
607.00,0.0091
606.00,0.0091
605.00,0.0090
604.00,0.0089
603.00,0.0088
602.00,0.0089
601.00,0.0091
600.00,0.0092
599.00,0.0092
598.00,0.0092
597.00,0.0091
596.00,0.0088
595.00,0.0084
594.00,0.0081
593.00,0.0081
592.00,0.0084
591.00,0.0088
590.00,0.0090
589.00,0.0092
588.00,0.0094
587.00,0.0095
586.00,0.0095
585.00,0.0094
584.00,0.0093
583.00,0.0093
582.00,0.0092
581.00,0.0091
580.00,0.0091
579.00,0.0091
578.00,0.0091
577.00,0.0090
576.00,0.0088
575.00,0.0086
574.00,0.0086
573.00,0.0087
572.00,0.0088
571.00,0.0089
570.00,0.0089
569.00,0.0090
568.00,0.0092
567.00,0.0095
566.00,0.0098
565.00,0.0100
564.00,0.0101
563.00,0.0099
562.00,0.0096
561.00,0.0094
560.00,0.0091
559.00,0.0089
558.00,0.0087
557.00,0.0085
556.00,0.0083
555.00,0.0085
554.00,0.0091
553.00,0.0098
552.00,0.0103
551.00,0.0104
550.00,0.0102
549.00,0.0096
548.00,0.0092
547.00,0.0090
546.00,0.0093
545.00,0.0099
544.00,0.0104
543.00,0.0107
542.00,0.0108
541.00,0.0108
540.00,0.0109
539.00,0.0111
538.00,0.0113
537.00,0.0117
536.00,0.0122
535.00,0.0128
534.00,0.0132
533.00,0.0133
532.00,0.0130
531.00,0.0126
530.00,0.0122
529.00,0.0119
528.00,0.0117
527.00,0.0116
526.00,0.0115
525.00,0.0114
524.00,0.0112
523.00,0.0107
522.00,0.0102
521.00,0.0098
520.00,0.0093
519.00,0.0092
518.00,0.0092
517.00,0.0093
516.00,0.0090
515.00,0.0084
514.00,0.0079
513.00,0.0077
512.00,0.0079
511.00,0.0085
510.00,0.0093
509.00,0.0100
508.00,0.0105
507.00,0.0106
506.00,0.0105
505.00,0.0103
504.00,0.0100
503.00,0.0097
502.00,0.0094
501.00,0.0093
500.00,0.0095
499.00,0.0098
498.00,0.0099
497.00,0.0100
496.00,0.0100
495.00,0.0099
494.00,0.0096
493.00,0.0091
492.00,0.0087
491.00,0.0086
490.00,0.0090
489.00,0.0095
488.00,0.0095
487.00,0.0089
486.00,0.0084
485.00,0.0084
484.00,0.0089
483.00,0.0094
482.00,0.0097
481.00,0.0099
480.00,0.0103
479.00,0.0109
478.00,0.0113
477.00,0.0119
476.00,0.0128
475.00,0.0141
474.00,0.0155
473.00,0.0165
472.00,0.0170
471.00,0.0171
470.00,0.0168
469.00,0.0164
468.00,0.0160
467.00,0.0161
466.00,0.0168
465.00,0.0179
464.00,0.0190
463.00,0.0200
462.00,0.0208
461.00,0.0215
460.00,0.0223
459.00,0.0228
458.00,0.0227
457.00,0.0222
456.00,0.0214
455.00,0.0203
454.00,0.0191
453.00,0.0180
452.00,0.0171
451.00,0.0160
450.00,0.0144
