Created as New Dataset,Sample 064 By Administrator Date Wednesday, September 03 2025
cm-1,A
4000.00,0.0009
3999.00,0.0008
3998.00,0.0008
3997.00,0.0008
3996.00,0.0007
3995.00,0.0007
3994.00,0.0007
3993.00,0.0007
3992.00,0.0007
3991.00,0.0007
3990.00,0.0008
3989.00,0.0008
3988.00,0.0008
3987.00,0.0008
3986.00,0.0008
3985.00,0.0008
3984.00,0.0007
3983.00,0.0007
3982.00,0.0007
3981.00,0.0006
3980.00,0.0006
3979.00,0.0006
3978.00,0.0006
3977.00,0.0006
3976.00,0.0006
3975.00,0.0006
3974.00,0.0006
3973.00,0.0006
3972.00,0.0006
3971.00,0.0006
3970.00,0.0006
3969.00,0.0006
3968.00,0.0006
3967.00,0.0006
3966.00,0.0006
3965.00,0.0006
3964.00,0.0006
3963.00,0.0006
3962.00,0.0006
3961.00,0.0007
3960.00,0.0007
3959.00,0.0007
3958.00,0.0007
3957.00,0.0006
3956.00,0.0006
3955.00,0.0006
3954.00,0.0006
3953.00,0.0006
3952.00,0.0006
3951.00,0.0006
3950.00,0.0006
3949.00,0.0005
3948.00,0.0005
3947.00,0.0005
3946.00,0.0005
3945.00,0.0006
3944.00,0.0006
3943.00,0.0006
3942.00,0.0006
3941.00,0.0006
3940.00,0.0006
3939.00,0.0006
3938.00,0.0006
3937.00,0.0006
3936.00,0.0006
3935.00,0.0006
3934.00,0.0006
3933.00,0.0006
3932.00,0.0006
3931.00,0.0006
3930.00,0.0006
3929.00,0.0007
3928.00,0.0007
3927.00,0.0007
3926.00,0.0007
3925.00,0.0006
3924.00,0.0006
3923.00,0.0006
3922.00,0.0006
3921.00,0.0006
3920.00,0.0006
3919.00,0.0006
3918.00,0.0006
3917.00,0.0006
3916.00,0.0006
3915.00,0.0006
3914.00,0.0006
3913.00,0.0006
3912.00,0.0006
3911.00,0.0006
3910.00,0.0006
3909.00,0.0006
3908.00,0.0006
3907.00,0.0006
3906.00,0.0007
3905.00,0.0007
3904.00,0.0006
3903.00,0.0006
3902.00,0.0005
3901.00,0.0004
3900.00,0.0005
3899.00,0.0005
3898.00,0.0005
3897.00,0.0006
3896.00,0.0006
3895.00,0.0006
3894.00,0.0006
3893.00,0.0006
3892.00,0.0006
3891.00,0.0006
3890.00,0.0006
3889.00,0.0006
3888.00,0.0006
3887.00,0.0006
3886.00,0.0006
3885.00,0.0006
3884.00,0.0006
3883.00,0.0005
3882.00,0.0005
3881.00,0.0005
3880.00,0.0006
3879.00,0.0006
3878.00,0.0006
3877.00,0.0006
3876.00,0.0006
3875.00,0.0006
3874.00,0.0006
3873.00,0.0005
3872.00,0.0005
3871.00,0.0004
3870.00,0.0004
3869.00,0.0005
3868.00,0.0005
3867.00,0.0005
3866.00,0.0005
3865.00,0.0005
3864.00,0.0005
3863.00,0.0005
3862.00,0.0005
3861.00,0.0004
3860.00,0.0004
3859.00,0.0005
3858.00,0.0005
3857.00,0.0005
3856.00,0.0005
3855.00,0.0005
3854.00,0.0005
3853.00,0.0005
3852.00,0.0004
3851.00,0.0003
3850.00,0.0003
3849.00,0.0004
3848.00,0.0005
3847.00,0.0005
3846.00,0.0006
3845.00,0.0006
3844.00,0.0006
3843.00,0.0006
3842.00,0.0005
3841.00,0.0005
3840.00,0.0004
3839.00,0.0004
3838.00,0.0004
3837.00,0.0004
3836.00,0.0004
3835.00,0.0004
3834.00,0.0004
3833.00,0.0005
3832.00,0.0005
3831.00,0.0005
3830.00,0.0005
3829.00,0.0005
3828.00,0.0004
3827.00,0.0004
3826.00,0.0005
3825.00,0.0005
3824.00,0.0006
3823.00,0.0006
3822.00,0.0006
3821.00,0.0007
3820.00,0.0006
3819.00,0.0006
3818.00,0.0005
3817.00,0.0005
3816.00,0.0005
3815.00,0.0005
3814.00,0.0005
3813.00,0.0005
3812.00,0.0005
3811.00,0.0005
3810.00,0.0006
3809.00,0.0006
3808.00,0.0007
3807.00,0.0007
3806.00,0.0007
3805.00,0.0007
3804.00,0.0006
3803.00,0.0006
3802.00,0.0005
3801.00,0.0005
3800.00,0.0005
3799.00,0.0004
3798.00,0.0004
3797.00,0.0005
3796.00,0.0006
3795.00,0.0006
3794.00,0.0006
3793.00,0.0006
3792.00,0.0006
3791.00,0.0006
3790.00,0.0006
3789.00,0.0006
3788.00,0.0006
3787.00,0.0006
3786.00,0.0006
3785.00,0.0006
3784.00,0.0006
3783.00,0.0007
3782.00,0.0007
3781.00,0.0008
3780.00,0.0008
3779.00,0.0008
3778.00,0.0007
3777.00,0.0007
3776.00,0.0007
3775.00,0.0006
3774.00,0.0007
3773.00,0.0007
3772.00,0.0007
3771.00,0.0007
3770.00,0.0007
3769.00,0.0006
3768.00,0.0006
3767.00,0.0005
3766.00,0.0005
3765.00,0.0006
3764.00,0.0006
3763.00,0.0006
3762.00,0.0006
3761.00,0.0006
3760.00,0.0006
3759.00,0.0006
3758.00,0.0007
3757.00,0.0006
3756.00,0.0006
3755.00,0.0006
3754.00,0.0006
3753.00,0.0006
3752.00,0.0005
3751.00,0.0005
3750.00,0.0004
3749.00,0.0004
3748.00,0.0004
3747.00,0.0003
3746.00,0.0003
3745.00,0.0003
3744.00,0.0003
3743.00,0.0003
3742.00,0.0002
3741.00,0.0002
3740.00,0.0003
3739.00,0.0003
3738.00,0.0003
3737.00,0.0002
3736.00,0.0002
3735.00,0.0002
3734.00,0.0002
3733.00,0.0002
3732.00,0.0003
3731.00,0.0003
3730.00,0.0003
3729.00,0.0003
3728.00,0.0003
3727.00,0.0004
3726.00,0.0004
3725.00,0.0004
3724.00,0.0004
3723.00,0.0004
3722.00,0.0005
3721.00,0.0005
3720.00,0.0005
3719.00,0.0005
3718.00,0.0005
3717.00,0.0005
3716.00,0.0005
3715.00,0.0005
3714.00,0.0005
3713.00,0.0005
3712.00,0.0005
3711.00,0.0004
3710.00,0.0004
3709.00,0.0003
3708.00,0.0003
3707.00,0.0003
3706.00,0.0003
3705.00,0.0003
3704.00,0.0003
3703.00,0.0004
3702.00,0.0004
3701.00,0.0003
3700.00,0.0003
3699.00,0.0003
3698.00,0.0003
3697.00,0.0003
3696.00,0.0003
3695.00,0.0003
3694.00,0.0003
3693.00,0.0003
3692.00,0.0003
3691.00,0.0003
3690.00,0.0003
3689.00,0.0003
3688.00,0.0003
3687.00,0.0003
3686.00,0.0003
3685.00,0.0003
3684.00,0.0003
3683.00,0.0004
3682.00,0.0004
3681.00,0.0005
3680.00,0.0005
3679.00,0.0005
3678.00,0.0005
3677.00,0.0004
3676.00,0.0004
3675.00,0.0004
3674.00,0.0003
3673.00,0.0002
3672.00,0.0002
3671.00,0.0002
3670.00,0.0002
3669.00,0.0002
3668.00,0.0003
3667.00,0.0003
3666.00,0.0004
3665.00,0.0004
3664.00,0.0005
3663.00,0.0005
3662.00,0.0005
3661.00,0.0005
3660.00,0.0005
3659.00,0.0005
3658.00,0.0005
3657.00,0.0005
3656.00,0.0006
3655.00,0.0005
3654.00,0.0005
3653.00,0.0004
3652.00,0.0004
3651.00,0.0003
3650.00,0.0003
3649.00,0.0003
3648.00,0.0003
3647.00,0.0003
3646.00,0.0003
3645.00,0.0003
3644.00,0.0003
3643.00,0.0004
3642.00,0.0004
3641.00,0.0004
3640.00,0.0004
3639.00,0.0005
3638.00,0.0005
3637.00,0.0005
3636.00,0.0005
3635.00,0.0005
3634.00,0.0005
3633.00,0.0005
3632.00,0.0005
3631.00,0.0004
3630.00,0.0003
3629.00,0.0003
3628.00,0.0003
3627.00,0.0003
3626.00,0.0003
3625.00,0.0003
3624.00,0.0003
3623.00,0.0003
3622.00,0.0003
3621.00,0.0003
3620.00,0.0003
3619.00,0.0003
3618.00,0.0003
3617.00,0.0003
3616.00,0.0003
3615.00,0.0004
3614.00,0.0004
3613.00,0.0004
3612.00,0.0004
3611.00,0.0005
3610.00,0.0005
3609.00,0.0006
3608.00,0.0006
3607.00,0.0006
3606.00,0.0007
3605.00,0.0006
3604.00,0.0006
3603.00,0.0006
3602.00,0.0006
3601.00,0.0006
3600.00,0.0006
3599.00,0.0006
3598.00,0.0006
3597.00,0.0005
3596.00,0.0005
3595.00,0.0005
3594.00,0.0005
3593.00,0.0005
3592.00,0.0006
3591.00,0.0006
3590.00,0.0006
3589.00,0.0006
3588.00,0.0006
3587.00,0.0006
3586.00,0.0006
3585.00,0.0006
3584.00,0.0006
3583.00,0.0007
3582.00,0.0008
3581.00,0.0008
3580.00,0.0009
3579.00,0.0009
3578.00,0.0008
3577.00,0.0008
3576.00,0.0008
3575.00,0.0009
3574.00,0.0009
3573.00,0.0009
3572.00,0.0010
3571.00,0.0010
3570.00,0.0009
3569.00,0.0009
3568.00,0.0009
3567.00,0.0009
3566.00,0.0009
3565.00,0.0009
3564.00,0.0009
3563.00,0.0009
3562.00,0.0009
3561.00,0.0009
3560.00,0.0009
3559.00,0.0009
3558.00,0.0010
3557.00,0.0010
3556.00,0.0011
3555.00,0.0011
3554.00,0.0011
3553.00,0.0011
3552.00,0.0011
3551.00,0.0012
3550.00,0.0011
3549.00,0.0011
3548.00,0.0011
3547.00,0.0012
3546.00,0.0012
3545.00,0.0012
3544.00,0.0012
3543.00,0.0012
3542.00,0.0012
3541.00,0.0012
3540.00,0.0012
3539.00,0.0012
3538.00,0.0013
3537.00,0.0013
3536.00,0.0013
3535.00,0.0013
3534.00,0.0013
3533.00,0.0013
3532.00,0.0014
3531.00,0.0014
3530.00,0.0014
3529.00,0.0014
3528.00,0.0014
3527.00,0.0014
3526.00,0.0015
3525.00,0.0015
3524.00,0.0015
3523.00,0.0015
3522.00,0.0015
3521.00,0.0015
3520.00,0.0015
3519.00,0.0015
3518.00,0.0015
3517.00,0.0015
3516.00,0.0016
3515.00,0.0016
3514.00,0.0016
3513.00,0.0016
3512.00,0.0016
3511.00,0.0016
3510.00,0.0016
3509.00,0.0016
3508.00,0.0017
3507.00,0.0017
3506.00,0.0018
3505.00,0.0018
3504.00,0.0018
3503.00,0.0018
3502.00,0.0018
3501.00,0.0017
3500.00,0.0017
3499.00,0.0017
3498.00,0.0017
3497.00,0.0017
3496.00,0.0017
3495.00,0.0018
3494.00,0.0018
3493.00,0.0018
3492.00,0.0019
3491.00,0.0019
3490.00,0.0019
3489.00,0.0019
3488.00,0.0019
3487.00,0.0020
3486.00,0.0020
3485.00,0.0020
3484.00,0.0020
3483.00,0.0020
3482.00,0.0020
3481.00,0.0020
3480.00,0.0020
3479.00,0.0020
3478.00,0.0020
3477.00,0.0020
3476.00,0.0020
3475.00,0.0020
3474.00,0.0021
3473.00,0.0021
3472.00,0.0021
3471.00,0.0021
3470.00,0.0021
3469.00,0.0021
3468.00,0.0021
3467.00,0.0022
3466.00,0.0022
3465.00,0.0022
3464.00,0.0022
3463.00,0.0022
3462.00,0.0022
3461.00,0.0022
3460.00,0.0022
3459.00,0.0022
3458.00,0.0022
3457.00,0.0022
3456.00,0.0023
3455.00,0.0023
3454.00,0.0023
3453.00,0.0023
3452.00,0.0024
3451.00,0.0024
3450.00,0.0024
3449.00,0.0023
3448.00,0.0023
3447.00,0.0023
3446.00,0.0023
3445.00,0.0023
3444.00,0.0023
3443.00,0.0023
3442.00,0.0024
3441.00,0.0024
3440.00,0.0024
3439.00,0.0024
3438.00,0.0024
3437.00,0.0025
3436.00,0.0025
3435.00,0.0025
3434.00,0.0026
3433.00,0.0026
3432.00,0.0026
3431.00,0.0027
3430.00,0.0027
3429.00,0.0027
3428.00,0.0028
3427.00,0.0028
3426.00,0.0027
3425.00,0.0027
3424.00,0.0027
3423.00,0.0026
3422.00,0.0026
3421.00,0.0027
3420.00,0.0027
3419.00,0.0028
3418.00,0.0028
3417.00,0.0028
3416.00,0.0029
3415.00,0.0029
3414.00,0.0029
3413.00,0.0029
3412.00,0.0029
3411.00,0.0029
3410.00,0.0029
3409.00,0.0029
3408.00,0.0029
3407.00,0.0029
3406.00,0.0029
3405.00,0.0029
3404.00,0.0029
3403.00,0.0028
3402.00,0.0029
3401.00,0.0029
3400.00,0.0029
3399.00,0.0029
3398.00,0.0029
3397.00,0.0029
3396.00,0.0029
3395.00,0.0029
3394.00,0.0029
3393.00,0.0029
3392.00,0.0030
3391.00,0.0030
3390.00,0.0030
3389.00,0.0030
3388.00,0.0030
3387.00,0.0030
3386.00,0.0030
3385.00,0.0030
3384.00,0.0029
3383.00,0.0029
3382.00,0.0029
3381.00,0.0029
3380.00,0.0029
3379.00,0.0029
3378.00,0.0029
3377.00,0.0029
3376.00,0.0029
3375.00,0.0029
3374.00,0.0029
3373.00,0.0029
3372.00,0.0030
3371.00,0.0030
3370.00,0.0030
3369.00,0.0030
3368.00,0.0030
3367.00,0.0030
3366.00,0.0031
3365.00,0.0031
3364.00,0.0031
3363.00,0.0031
3362.00,0.0031
3361.00,0.0031
3360.00,0.0031
3359.00,0.0031
3358.00,0.0031
3357.00,0.0031
3356.00,0.0031
3355.00,0.0031
3354.00,0.0031
3353.00,0.0031
3352.00,0.0031
3351.00,0.0031
3350.00,0.0031
3349.00,0.0031
3348.00,0.0032
3347.00,0.0032
3346.00,0.0032
3345.00,0.0032
3344.00,0.0032
3343.00,0.0032
3342.00,0.0033
3341.00,0.0033
3340.00,0.0033
3339.00,0.0032
3338.00,0.0032
3337.00,0.0031
3336.00,0.0031
3335.00,0.0031
3334.00,0.0031
3333.00,0.0031
3332.00,0.0031
3331.00,0.0031
3330.00,0.0031
3329.00,0.0031
3328.00,0.0031
3327.00,0.0031
3326.00,0.0030
3325.00,0.0030
3324.00,0.0030
3323.00,0.0029
3322.00,0.0029
3321.00,0.0029
3320.00,0.0029
3319.00,0.0030
3318.00,0.0030
3317.00,0.0030
3316.00,0.0030
3315.00,0.0030
3314.00,0.0031
3313.00,0.0031
3312.00,0.0032
3311.00,0.0032
3310.00,0.0031
3309.00,0.0031
3308.00,0.0031
3307.00,0.0031
3306.00,0.0031
3305.00,0.0032
3304.00,0.0033
3303.00,0.0033
3302.00,0.0032
3301.00,0.0032
3300.00,0.0032
3299.00,0.0031
3298.00,0.0031
3297.00,0.0031
3296.00,0.0031
3295.00,0.0031
3294.00,0.0031
3293.00,0.0031
3292.00,0.0031
3291.00,0.0031
3290.00,0.0031
3289.00,0.0030
3288.00,0.0030
3287.00,0.0030
3286.00,0.0029
3285.00,0.0029
3284.00,0.0029
3283.00,0.0028
3282.00,0.0028
3281.00,0.0028
3280.00,0.0028
3279.00,0.0029
3278.00,0.0029
3277.00,0.0030
3276.00,0.0030
3275.00,0.0030
3274.00,0.0029
3273.00,0.0029
3272.00,0.0028
3271.00,0.0028
3270.00,0.0027
3269.00,0.0028
3268.00,0.0028
3267.00,0.0028
3266.00,0.0029
3265.00,0.0029
3264.00,0.0029
3263.00,0.0028
3262.00,0.0028
3261.00,0.0027
3260.00,0.0027
3259.00,0.0027
3258.00,0.0027
3257.00,0.0027
3256.00,0.0027
3255.00,0.0026
3254.00,0.0026
3253.00,0.0026
3252.00,0.0026
3251.00,0.0027
3250.00,0.0027
3249.00,0.0027
3248.00,0.0026
3247.00,0.0026
3246.00,0.0026
3245.00,0.0026
3244.00,0.0026
3243.00,0.0026
3242.00,0.0025
3241.00,0.0026
3240.00,0.0026
3239.00,0.0026
3238.00,0.0026
3237.00,0.0026
3236.00,0.0026
3235.00,0.0026
3234.00,0.0026
3233.00,0.0027
3232.00,0.0027
3231.00,0.0027
3230.00,0.0027
3229.00,0.0027
3228.00,0.0028
3227.00,0.0028
3226.00,0.0028
3225.00,0.0028
3224.00,0.0028
3223.00,0.0029
3222.00,0.0029
3221.00,0.0030
3220.00,0.0030
3219.00,0.0030
3218.00,0.0030
3217.00,0.0030
3216.00,0.0029
3215.00,0.0030
3214.00,0.0030
3213.00,0.0030
3212.00,0.0030
3211.00,0.0030
3210.00,0.0030
3209.00,0.0030
3208.00,0.0030
3207.00,0.0030
3206.00,0.0031
3205.00,0.0031
3204.00,0.0031
3203.00,0.0031
3202.00,0.0031
3201.00,0.0031
3200.00,0.0032
3199.00,0.0032
3198.00,0.0032
3197.00,0.0032
3196.00,0.0032
3195.00,0.0032
3194.00,0.0032
3193.00,0.0031
3192.00,0.0031
3191.00,0.0031
3190.00,0.0031
3189.00,0.0032
3188.00,0.0031
3187.00,0.0031
3186.00,0.0031
3185.00,0.0030
3184.00,0.0030
3183.00,0.0030
3182.00,0.0030
3181.00,0.0030
3180.00,0.0030
3179.00,0.0030
3178.00,0.0029
3177.00,0.0029
3176.00,0.0029
3175.00,0.0029
3174.00,0.0029
3173.00,0.0028
3172.00,0.0028
3171.00,0.0028
3170.00,0.0029
3169.00,0.0029
3168.00,0.0029
3167.00,0.0029
3166.00,0.0029
3165.00,0.0029
3164.00,0.0029
3163.00,0.0029
3162.00,0.0028
3161.00,0.0029
3160.00,0.0029
3159.00,0.0029
3158.00,0.0029
3157.00,0.0029
3156.00,0.0029
3155.00,0.0029
3154.00,0.0029
3153.00,0.0029
3152.00,0.0029
3151.00,0.0029
3150.00,0.0029
3149.00,0.0028
3148.00,0.0028
3147.00,0.0028
3146.00,0.0028
3145.00,0.0028
3144.00,0.0028
3143.00,0.0029
3142.00,0.0029
3141.00,0.0029
3140.00,0.0029
3139.00,0.0028
3138.00,0.0028
3137.00,0.0028
3136.00,0.0027
3135.00,0.0027
3134.00,0.0027
3133.00,0.0026
3132.00,0.0026
3131.00,0.0026
3130.00,0.0026
3129.00,0.0026
3128.00,0.0026
3127.00,0.0026
3126.00,0.0026
3125.00,0.0025
3124.00,0.0025
3123.00,0.0025
3122.00,0.0025
3121.00,0.0025
3120.00,0.0025
3119.00,0.0025
3118.00,0.0025
3117.00,0.0025
3116.00,0.0024
3115.00,0.0024
3114.00,0.0023
3113.00,0.0023
3112.00,0.0023
3111.00,0.0023
3110.00,0.0023
3109.00,0.0023
3108.00,0.0023
3107.00,0.0023
3106.00,0.0024
3105.00,0.0024
3104.00,0.0023
3103.00,0.0023
3102.00,0.0023
3101.00,0.0022
3100.00,0.0022
3099.00,0.0022
3098.00,0.0023
3097.00,0.0023
3096.00,0.0023
3095.00,0.0023
3094.00,0.0023
3093.00,0.0023
3092.00,0.0023
3091.00,0.0023
3090.00,0.0023
3089.00,0.0024
3088.00,0.0024
3087.00,0.0024
3086.00,0.0024
3085.00,0.0024
3084.00,0.0024
3083.00,0.0024
3082.00,0.0024
3081.00,0.0024
3080.00,0.0024
3079.00,0.0024
3078.00,0.0024
3077.00,0.0024
3076.00,0.0024
3075.00,0.0024
3074.00,0.0025
3073.00,0.0025
3072.00,0.0025
3071.00,0.0025
3070.00,0.0026
3069.00,0.0026
3068.00,0.0026
3067.00,0.0026
3066.00,0.0026
3065.00,0.0026
3064.00,0.0026
3063.00,0.0026
3062.00,0.0027
3061.00,0.0027
3060.00,0.0027
3059.00,0.0027
3058.00,0.0027
3057.00,0.0027
3056.00,0.0027
3055.00,0.0027
3054.00,0.0028
3053.00,0.0028
3052.00,0.0029
3051.00,0.0029
3050.00,0.0029
3049.00,0.0029
3048.00,0.0029
3047.00,0.0029
3046.00,0.0029
3045.00,0.0030
3044.00,0.0030
3043.00,0.0030
3042.00,0.0030
3041.00,0.0030
3040.00,0.0030
3039.00,0.0031
3038.00,0.0031
3037.00,0.0031
3036.00,0.0032
3035.00,0.0032
3034.00,0.0032
3033.00,0.0032
3032.00,0.0033
3031.00,0.0034
3030.00,0.0034
3029.00,0.0035
3028.00,0.0035
3027.00,0.0035
3026.00,0.0036
3025.00,0.0037
3024.00,0.0037
3023.00,0.0038
3022.00,0.0039
3021.00,0.0040
3020.00,0.0040
3019.00,0.0041
3018.00,0.0042
3017.00,0.0043
3016.00,0.0044
3015.00,0.0046
3014.00,0.0047
3013.00,0.0048
3012.00,0.0049
3011.00,0.0050
3010.00,0.0052
3009.00,0.0053
3008.00,0.0055
3007.00,0.0056
3006.00,0.0058
3005.00,0.0060
3004.00,0.0062
3003.00,0.0065
3002.00,0.0067
3001.00,0.0069
3000.00,0.0071
2999.00,0.0073
2998.00,0.0076
2997.00,0.0079
2996.00,0.0082
2995.00,0.0086
2994.00,0.0090
2993.00,0.0094
2992.00,0.0099
2991.00,0.0104
2990.00,0.0110
2989.00,0.0117
2988.00,0.0124
2987.00,0.0132
2986.00,0.0141
2985.00,0.0151
2984.00,0.0162
2983.00,0.0175
2982.00,0.0189
2981.00,0.0205
2980.00,0.0222
2979.00,0.0242
2978.00,0.0264
2977.00,0.0290
2976.00,0.0319
2975.00,0.0352
2974.00,0.0390
2973.00,0.0433
2972.00,0.0482
2971.00,0.0535
2970.00,0.0595
2969.00,0.0660
2968.00,0.0729
2967.00,0.0803
2966.00,0.0878
2965.00,0.0953
2964.00,0.1026
2963.00,0.1092
2962.00,0.1152
2961.00,0.1203
2960.00,0.1249
2959.00,0.1292
2958.00,0.1339
2957.00,0.1391
2956.00,0.1454
2955.00,0.1528
2954.00,0.1611
2953.00,0.1696
2952.00,0.1773
2951.00,0.1832
2950.00,0.1859
2949.00,0.1848
2948.00,0.1795
2947.00,0.1705
2946.00,0.1590
2945.00,0.1464
2944.00,0.1343
2943.00,0.1238
2942.00,0.1155
2941.00,0.1099
2940.00,0.1067
2939.00,0.1059
2938.00,0.1072
2937.00,0.1103
2936.00,0.1151
2935.00,0.1214
2934.00,0.1291
2933.00,0.1381
2932.00,0.1482
2931.00,0.1592
2930.00,0.1710
2929.00,0.1831
2928.00,0.1953
2927.00,0.2074
2926.00,0.2192
2925.00,0.2307
2924.00,0.2420
2923.00,0.2533
2922.00,0.2646
2921.00,0.2757
2920.00,0.2859
2919.00,0.2941
2918.00,0.2991
2917.00,0.2998
2916.00,0.2958
2915.00,0.2876
2914.00,0.2763
2913.00,0.2634
2912.00,0.2502
2911.00,0.2376
2910.00,0.2261
2909.00,0.2158
2908.00,0.2064
2907.00,0.1977
2906.00,0.1894
2905.00,0.1814
2904.00,0.1736
2903.00,0.1661
2902.00,0.1588
2901.00,0.1518
2900.00,0.1453
2899.00,0.1391
2898.00,0.1334
2897.00,0.1282
2896.00,0.1236
2895.00,0.1195
2894.00,0.1161
2893.00,0.1132
2892.00,0.1110
2891.00,0.1093
2890.00,0.1083
2889.00,0.1077
2888.00,0.1074
2887.00,0.1075
2886.00,0.1080
2885.00,0.1089
2884.00,0.1102
2883.00,0.1121
2882.00,0.1146
2881.00,0.1175
2880.00,0.1205
2879.00,0.1231
2878.00,0.1251
2877.00,0.1260
2876.00,0.1260
2875.00,0.1253
2874.00,0.1246
2873.00,0.1243
2872.00,0.1248
2871.00,0.1260
2870.00,0.1278
2869.00,0.1297
2868.00,0.1309
2867.00,0.1306
2866.00,0.1282
2865.00,0.1233
2864.00,0.1164
2863.00,0.1084
2862.00,0.1003
2861.00,0.0932
2860.00,0.0875
2859.00,0.0836
2858.00,0.0813
2857.00,0.0804
2856.00,0.0806
2855.00,0.0817
2854.00,0.0835
2853.00,0.0856
2852.00,0.0877
2851.00,0.0895
2850.00,0.0906
2849.00,0.0912
2848.00,0.0916
2847.00,0.0922
2846.00,0.0936
2845.00,0.0961
2844.00,0.0998
2843.00,0.1044
2842.00,0.1096
2841.00,0.1146
2840.00,0.1188
2839.00,0.1213
2838.00,0.1213
2837.00,0.1184
2836.00,0.1125
2835.00,0.1040
2834.00,0.0937
2833.00,0.0829
2832.00,0.0725
2831.00,0.0632
2830.00,0.0554
2829.00,0.0489
2828.00,0.0436
2827.00,0.0393
2826.00,0.0359
2825.00,0.0330
2824.00,0.0307
2823.00,0.0287
2822.00,0.0270
2821.00,0.0256
2820.00,0.0244
2819.00,0.0233
2818.00,0.0224
2817.00,0.0216
2816.00,0.0208
2815.00,0.0202
2814.00,0.0195
2813.00,0.0189
2812.00,0.0184
2811.00,0.0179
2810.00,0.0173
2809.00,0.0167
2808.00,0.0161
2807.00,0.0154
2806.00,0.0147
2805.00,0.0141
2804.00,0.0134
2803.00,0.0128
2802.00,0.0122
2801.00,0.0117
2800.00,0.0113
2799.00,0.0110
2798.00,0.0107
2797.00,0.0105
2796.00,0.0103
2795.00,0.0100
2794.00,0.0098
2793.00,0.0095
2792.00,0.0092
2791.00,0.0089
2790.00,0.0086
2789.00,0.0083
2788.00,0.0081
2787.00,0.0078
2786.00,0.0076
2785.00,0.0073
2784.00,0.0071
2783.00,0.0069
2782.00,0.0068
2781.00,0.0066
2780.00,0.0064
2779.00,0.0063
2778.00,0.0061
2777.00,0.0060
2776.00,0.0059
2775.00,0.0058
2774.00,0.0057
2773.00,0.0056
2772.00,0.0055
2771.00,0.0055
2770.00,0.0054
2769.00,0.0054
2768.00,0.0054
2767.00,0.0053
2766.00,0.0053
2765.00,0.0053
2764.00,0.0053
2763.00,0.0052
2762.00,0.0052
2761.00,0.0052
2760.00,0.0052
2759.00,0.0051
2758.00,0.0051
2757.00,0.0051
2756.00,0.0051
2755.00,0.0051
2754.00,0.0051
2753.00,0.0050
2752.00,0.0050
2751.00,0.0050
2750.00,0.0049
2749.00,0.0049
2748.00,0.0049
2747.00,0.0049
2746.00,0.0050
2745.00,0.0051
2744.00,0.0051
2743.00,0.0052
2742.00,0.0053
2741.00,0.0054
2740.00,0.0056
2739.00,0.0057
2738.00,0.0058
2737.00,0.0060
2736.00,0.0061
2735.00,0.0063
2734.00,0.0065
2733.00,0.0066
2732.00,0.0068
2731.00,0.0070
2730.00,0.0072
2729.00,0.0074
2728.00,0.0077
2727.00,0.0080
2726.00,0.0083
2725.00,0.0085
2724.00,0.0087
2723.00,0.0088
2722.00,0.0087
2721.00,0.0085
2720.00,0.0082
2719.00,0.0078
2718.00,0.0075
2717.00,0.0071
2716.00,0.0068
2715.00,0.0066
2714.00,0.0063
2713.00,0.0061
2712.00,0.0058
2711.00,0.0057
2710.00,0.0055
2709.00,0.0054
2708.00,0.0052
2707.00,0.0051
2706.00,0.0050
2705.00,0.0049
2704.00,0.0047
2703.00,0.0046
2702.00,0.0045
2701.00,0.0045
2700.00,0.0044
2699.00,0.0043
2698.00,0.0043
2697.00,0.0043
2696.00,0.0042
2695.00,0.0042
2694.00,0.0043
2693.00,0.0043
2692.00,0.0043
2691.00,0.0043
2690.00,0.0043
2689.00,0.0043
2688.00,0.0044
2687.00,0.0044
2686.00,0.0043
2685.00,0.0043
2684.00,0.0043
2683.00,0.0044
2682.00,0.0044
2681.00,0.0044
2680.00,0.0044
2679.00,0.0044
2678.00,0.0044
2677.00,0.0045
2676.00,0.0045
2675.00,0.0045
2674.00,0.0044
2673.00,0.0044
2672.00,0.0044
2671.00,0.0044
2670.00,0.0044
2669.00,0.0044
2668.00,0.0044
2667.00,0.0044
2666.00,0.0045
2665.00,0.0045
2664.00,0.0045
2663.00,0.0046
2662.00,0.0047
2661.00,0.0047
2660.00,0.0047
2659.00,0.0047
2658.00,0.0047
2657.00,0.0047
2656.00,0.0047
2655.00,0.0047
2654.00,0.0046
2653.00,0.0045
2652.00,0.0045
2651.00,0.0044
2650.00,0.0044
2649.00,0.0044
2648.00,0.0043
2647.00,0.0043
2646.00,0.0043
2645.00,0.0042
2644.00,0.0041
2643.00,0.0041
2642.00,0.0040
2641.00,0.0039
2640.00,0.0039
2639.00,0.0038
2638.00,0.0038
2637.00,0.0038
2636.00,0.0038
2635.00,0.0037
2634.00,0.0037
2633.00,0.0038
2632.00,0.0038
2631.00,0.0038
2630.00,0.0038
2629.00,0.0038
2628.00,0.0038
2627.00,0.0039
2626.00,0.0039
2625.00,0.0039
2624.00,0.0039
2623.00,0.0039
2622.00,0.0039
2621.00,0.0039
2620.00,0.0039
2619.00,0.0039
2618.00,0.0040
2617.00,0.0040
2616.00,0.0040
2615.00,0.0039
2614.00,0.0039
2613.00,0.0039
2612.00,0.0039
2611.00,0.0038
2610.00,0.0038
2609.00,0.0038
2608.00,0.0037
2607.00,0.0036
2606.00,0.0035
2605.00,0.0034
2604.00,0.0034
2603.00,0.0033
2602.00,0.0032
2601.00,0.0032
2600.00,0.0032
2599.00,0.0032
2598.00,0.0031
2597.00,0.0031
2596.00,0.0031
2595.00,0.0032
2594.00,0.0032
2593.00,0.0032
2592.00,0.0033
2591.00,0.0033
2590.00,0.0034
2589.00,0.0035
2588.00,0.0037
2587.00,0.0038
2586.00,0.0040
2585.00,0.0040
2584.00,0.0041
2583.00,0.0041
2582.00,0.0041
2581.00,0.0041
2580.00,0.0040
2579.00,0.0039
2578.00,0.0038
2577.00,0.0037
2576.00,0.0036
2575.00,0.0034
2574.00,0.0033
2573.00,0.0031
2572.00,0.0029
2571.00,0.0028
2570.00,0.0027
2569.00,0.0026
2568.00,0.0026
2567.00,0.0025
2566.00,0.0024
2565.00,0.0024
2564.00,0.0023
2563.00,0.0023
2562.00,0.0023
2561.00,0.0023
2560.00,0.0023
2559.00,0.0022
2558.00,0.0022
2557.00,0.0022
2556.00,0.0021
2555.00,0.0021
2554.00,0.0021
2553.00,0.0020
2552.00,0.0020
2551.00,0.0020
2550.00,0.0020
2549.00,0.0020
2548.00,0.0020
2547.00,0.0019
2546.00,0.0019
2545.00,0.0018
2544.00,0.0018
2543.00,0.0017
2542.00,0.0017
2541.00,0.0016
2540.00,0.0016
2539.00,0.0016
2538.00,0.0016
2537.00,0.0016
2536.00,0.0016
2535.00,0.0016
2534.00,0.0016
2533.00,0.0016
2532.00,0.0016
2531.00,0.0016
2530.00,0.0016
2529.00,0.0016
2528.00,0.0015
2527.00,0.0015
2526.00,0.0014
2525.00,0.0013
2524.00,0.0013
2523.00,0.0014
2522.00,0.0014
2521.00,0.0013
2520.00,0.0012
2519.00,0.0012
2518.00,0.0011
2517.00,0.0011
2516.00,0.0011
2515.00,0.0011
2514.00,0.0011
2513.00,0.0011
2512.00,0.0010
2511.00,0.0010
2510.00,0.0010
2509.00,0.0010
2508.00,0.0010
2507.00,0.0010
2506.00,0.0010
2505.00,0.0010
2504.00,0.0009
2503.00,0.0009
2502.00,0.0009
2501.00,0.0009
2500.00,0.0009
2499.00,0.0010
2498.00,0.0010
2497.00,0.0011
2496.00,0.0011
2495.00,0.0011
2494.00,0.0011
2493.00,0.0011
2492.00,0.0010
2491.00,0.0010
2490.00,0.0010
2489.00,0.0010
2488.00,0.0010
2487.00,0.0010
2486.00,0.0010
2485.00,0.0009
2484.00,0.0009
2483.00,0.0009
2482.00,0.0009
2481.00,0.0010
2480.00,0.0010
2479.00,0.0010
2478.00,0.0010
2477.00,0.0010
2476.00,0.0009
2475.00,0.0008
2474.00,0.0008
2473.00,0.0008
2472.00,0.0008
2471.00,0.0008
2470.00,0.0008
2469.00,0.0009
2468.00,0.0009
2467.00,0.0009
2466.00,0.0010
2465.00,0.0010
2464.00,0.0010
2463.00,0.0010
2462.00,0.0010
2461.00,0.0010
2460.00,0.0010
2459.00,0.0010
2458.00,0.0010
2457.00,0.0010
2456.00,0.0010
2455.00,0.0010
2454.00,0.0011
2453.00,0.0011
2452.00,0.0011
2451.00,0.0012
2450.00,0.0012
2449.00,0.0012
2448.00,0.0012
2447.00,0.0012
2446.00,0.0011
2445.00,0.0012
2444.00,0.0011
2443.00,0.0011
2442.00,0.0010
2441.00,0.0009
2440.00,0.0009
2439.00,0.0010
2438.00,0.0010
2437.00,0.0011
2436.00,0.0010
2435.00,0.0009
2434.00,0.0009
2433.00,0.0008
2432.00,0.0008
2431.00,0.0009
2430.00,0.0009
2429.00,0.0010
2428.00,0.0011
2427.00,0.0011
2426.00,0.0011
2425.00,0.0011
2424.00,0.0011
2423.00,0.0010
2422.00,0.0010
2421.00,0.0009
2420.00,0.0009
2419.00,0.0009
2418.00,0.0010
2417.00,0.0010
2416.00,0.0010
2415.00,0.0010
2414.00,0.0009
2413.00,0.0009
2412.00,0.0009
2411.00,0.0010
2410.00,0.0010
2409.00,0.0010
2408.00,0.0010
2407.00,0.0009
2406.00,0.0009
2405.00,0.0009
2404.00,0.0009
2403.00,0.0010
2402.00,0.0010
2401.00,0.0010
2400.00,0.0009
2399.00,0.0009
2398.00,0.0008
2397.00,0.0008
2396.00,0.0008
2395.00,0.0008
2394.00,0.0008
2393.00,0.0009
2392.00,0.0009
2391.00,0.0009
2390.00,0.0008
2389.00,0.0008
2388.00,0.0008
2387.00,0.0008
2386.00,0.0008
2385.00,0.0007
2384.00,0.0006
2383.00,0.0004
2382.00,0.0003
2381.00,0.0002
2380.00,0.0002
2379.00,0.0001
2378.00,0.0001
2377.00,0.0001
2376.00,0.0001
2375.00,0.0001
2374.00,0.0001
2373.00,0.0002
2372.00,0.0002
2371.00,0.0001
2370.00,-0.0000
2369.00,-0.0001
2368.00,-0.0002
2367.00,-0.0002
2366.00,-0.0003
2365.00,-0.0003
2364.00,-0.0003
2363.00,-0.0003
2362.00,-0.0002
2361.00,-0.0001
2360.00,-0.0001
2359.00,-0.0000
2358.00,0.0000
2357.00,0.0001
2356.00,0.0001
2355.00,0.0001
2354.00,0.0001
2353.00,0.0001
2352.00,0.0001
2351.00,0.0000
2350.00,-0.0000
2349.00,0.0000
2348.00,0.0001
2347.00,0.0001
2346.00,0.0001
2345.00,0.0000
2344.00,0.0000
2343.00,0.0001
2342.00,0.0002
2341.00,0.0003
2340.00,0.0004
2339.00,0.0004
2338.00,0.0004
2337.00,0.0004
2336.00,0.0005
2335.00,0.0004
2334.00,0.0004
2333.00,0.0005
2332.00,0.0005
2331.00,0.0004
2330.00,0.0004
2329.00,0.0005
2328.00,0.0006
2327.00,0.0010
2326.00,0.0014
2325.00,0.0017
2324.00,0.0019
2323.00,0.0018
2322.00,0.0016
2321.00,0.0013
2320.00,0.0012
2319.00,0.0011
2318.00,0.0011
2317.00,0.0011
2316.00,0.0011
2315.00,0.0010
2314.00,0.0009
2313.00,0.0008
2312.00,0.0008
2311.00,0.0007
2310.00,0.0007
2309.00,0.0008
2308.00,0.0008
2307.00,0.0008
2306.00,0.0008
2305.00,0.0008
2304.00,0.0008
2303.00,0.0009
2302.00,0.0010
2301.00,0.0011
2300.00,0.0012
2299.00,0.0012
2298.00,0.0012
2297.00,0.0012
2296.00,0.0013
2295.00,0.0013
2294.00,0.0013
2293.00,0.0013
2292.00,0.0013
2291.00,0.0014
2290.00,0.0015
2289.00,0.0017
2288.00,0.0018
2287.00,0.0018
2286.00,0.0019
2285.00,0.0019
2284.00,0.0019
2283.00,0.0019
2282.00,0.0019
2281.00,0.0018
2280.00,0.0017
2279.00,0.0017
2278.00,0.0016
2277.00,0.0015
2276.00,0.0014
2275.00,0.0014
2274.00,0.0015
2273.00,0.0015
2272.00,0.0015
2271.00,0.0015
2270.00,0.0015
2269.00,0.0015
2268.00,0.0016
2267.00,0.0015
2266.00,0.0014
2265.00,0.0012
2264.00,0.0012
2263.00,0.0011
2262.00,0.0011
2261.00,0.0011
2260.00,0.0012
2259.00,0.0011
2258.00,0.0011
2257.00,0.0010
2256.00,0.0009
2255.00,0.0008
2254.00,0.0008
2253.00,0.0009
2252.00,0.0010
2251.00,0.0009
2250.00,0.0008
2249.00,0.0008
2248.00,0.0008
2247.00,0.0009
2246.00,0.0010
2245.00,0.0010
2244.00,0.0010
2243.00,0.0009
2242.00,0.0008
2241.00,0.0008
2240.00,0.0009
2239.00,0.0010
2238.00,0.0011
2237.00,0.0011
2236.00,0.0010
2235.00,0.0010
2234.00,0.0009
2233.00,0.0009
2232.00,0.0010
2231.00,0.0011
2230.00,0.0011
2229.00,0.0012
2228.00,0.0011
2227.00,0.0010
2226.00,0.0008
2225.00,0.0007
2224.00,0.0007
2223.00,0.0009
2222.00,0.0009
2221.00,0.0009
2220.00,0.0007
2219.00,0.0005
2218.00,0.0003
2217.00,0.0003
2216.00,0.0004
2215.00,0.0004
2214.00,0.0005
2213.00,0.0004
2212.00,0.0004
2211.00,0.0004
2210.00,0.0005
2209.00,0.0006
2208.00,0.0007
2207.00,0.0007
2206.00,0.0008
2205.00,0.0009
2204.00,0.0011
2203.00,0.0011
2202.00,0.0010
2201.00,0.0008
2200.00,0.0006
2199.00,0.0005
2198.00,0.0005
2197.00,0.0007
2196.00,0.0008
2195.00,0.0009
2194.00,0.0009
2193.00,0.0009
2192.00,0.0010
2191.00,0.0010
2190.00,0.0010
2189.00,0.0009
2188.00,0.0009
2187.00,0.0009
2186.00,0.0011
2185.00,0.0013
2184.00,0.0013
2183.00,0.0010
2182.00,0.0006
2181.00,0.0003
2180.00,0.0001
2179.00,0.0002
2178.00,0.0004
2177.00,0.0005
2176.00,0.0005
2175.00,0.0006
2174.00,0.0008
2173.00,0.0010
2172.00,0.0010
2171.00,0.0008
2170.00,0.0006
2169.00,0.0005
2168.00,0.0007
2167.00,0.0012
2166.00,0.0018
2165.00,0.0023
2164.00,0.0027
2163.00,0.0029
2162.00,0.0026
2161.00,0.0018
2160.00,0.0004
2159.00,-0.0014
2158.00,-0.0027
2157.00,-0.0031
2156.00,-0.0028
2155.00,-0.0023
2154.00,-0.0019
2153.00,-0.0016
2152.00,-0.0014
2151.00,-0.0012
2150.00,-0.0009
2149.00,-0.0007
2148.00,-0.0008
2147.00,-0.0011
2146.00,-0.0013
2145.00,-0.0013
2144.00,-0.0012
2143.00,-0.0011
2142.00,-0.0011
2141.00,-0.0012
2140.00,-0.0013
2139.00,-0.0014
2138.00,-0.0016
2137.00,-0.0017
2136.00,-0.0018
2135.00,-0.0018
2134.00,-0.0018
2133.00,-0.0017
2132.00,-0.0016
2131.00,-0.0014
2130.00,-0.0013
2129.00,-0.0012
2128.00,-0.0011
2127.00,-0.0010
2126.00,-0.0009
2125.00,-0.0007
2124.00,-0.0006
2123.00,-0.0005
2122.00,-0.0005
2121.00,-0.0005
2120.00,-0.0005
2119.00,-0.0004
2118.00,-0.0004
2117.00,-0.0003
2116.00,-0.0002
2115.00,-0.0001
2114.00,0.0001
2113.00,0.0002
2112.00,0.0002
2111.00,0.0002
2110.00,0.0002
2109.00,0.0001
2108.00,0.0002
2107.00,0.0003
2106.00,0.0004
2105.00,0.0004
2104.00,0.0003
2103.00,0.0002
2102.00,0.0001
2101.00,0.0001
2100.00,0.0000
2099.00,-0.0000
2098.00,-0.0001
2097.00,-0.0002
2096.00,-0.0003
2095.00,-0.0004
2094.00,-0.0004
2093.00,-0.0004
2092.00,-0.0003
2091.00,-0.0002
2090.00,-0.0002
2089.00,-0.0002
2088.00,-0.0001
2087.00,0.0000
2086.00,0.0001
2085.00,0.0000
2084.00,-0.0001
2083.00,-0.0002
2082.00,-0.0002
2081.00,-0.0001
2080.00,-0.0000
2079.00,0.0001
2078.00,0.0002
2077.00,0.0003
2076.00,0.0003
2075.00,0.0004
2074.00,0.0004
2073.00,0.0004
2072.00,0.0005
2071.00,0.0005
2070.00,0.0005
2069.00,0.0003
2068.00,0.0001
2067.00,-0.0001
2066.00,-0.0003
2065.00,-0.0004
2064.00,-0.0004
2063.00,-0.0003
2062.00,-0.0002
2061.00,-0.0001
2060.00,-0.0001
2059.00,-0.0000
2058.00,0.0001
2057.00,0.0001
2056.00,0.0001
2055.00,0.0001
2054.00,0.0002
2053.00,0.0005
2052.00,0.0010
2051.00,0.0014
2050.00,0.0015
2049.00,0.0013
2048.00,0.0008
2047.00,0.0003
2046.00,-0.0000
2045.00,-0.0000
2044.00,0.0001
2043.00,0.0002
2042.00,0.0001
2041.00,-0.0001
2040.00,-0.0004
2039.00,-0.0004
2038.00,-0.0003
2037.00,-0.0001
2036.00,0.0000
2035.00,-0.0002
2034.00,-0.0006
2033.00,-0.0011
2032.00,-0.0013
2031.00,-0.0014
2030.00,-0.0012
2029.00,-0.0010
2028.00,-0.0007
2027.00,-0.0006
2026.00,-0.0003
2025.00,-0.0001
2024.00,-0.0001
2023.00,-0.0005
2022.00,-0.0010
2021.00,-0.0013
2020.00,-0.0013
2019.00,-0.0012
2018.00,-0.0009
2017.00,-0.0007
2016.00,-0.0005
2015.00,-0.0006
2014.00,-0.0007
2013.00,-0.0009
2012.00,-0.0010
2011.00,-0.0010
2010.00,-0.0011
2009.00,-0.0011
2008.00,-0.0010
2007.00,-0.0011
2006.00,-0.0012
2005.00,-0.0015
2004.00,-0.0016
2003.00,-0.0015
2002.00,-0.0013
2001.00,-0.0010
2000.00,-0.0009
1999.00,-0.0009
1998.00,-0.0009
1997.00,-0.0009
1996.00,-0.0010
1995.00,-0.0011
1994.00,-0.0012
1993.00,-0.0012
1992.00,-0.0011
1991.00,-0.0008
1990.00,-0.0006
1989.00,-0.0003
1988.00,-0.0001
1987.00,0.0000
1986.00,-0.0000
1985.00,-0.0000
1984.00,0.0001
1983.00,0.0004
1982.00,0.0008
1981.00,0.0012
1980.00,0.0014
1979.00,0.0011
1978.00,0.0004
1977.00,-0.0003
1976.00,-0.0008
1975.00,-0.0010
1974.00,-0.0011
1973.00,-0.0011
1972.00,-0.0013
1971.00,-0.0015
1970.00,-0.0016
1969.00,-0.0015
1968.00,-0.0014
1967.00,-0.0015
1966.00,-0.0016
1965.00,-0.0016
1964.00,-0.0015
1963.00,-0.0013
1962.00,-0.0013
1961.00,-0.0014
1960.00,-0.0016
1959.00,-0.0018
1958.00,-0.0018
1957.00,-0.0017
1956.00,-0.0015
1955.00,-0.0015
1954.00,-0.0017
1953.00,-0.0017
1952.00,-0.0017
1951.00,-0.0015
1950.00,-0.0013
1949.00,-0.0011
1948.00,-0.0010
1947.00,-0.0011
1946.00,-0.0012
1945.00,-0.0013
1944.00,-0.0013
1943.00,-0.0012
1942.00,-0.0012
1941.00,-0.0012
1940.00,-0.0012
1939.00,-0.0013
1938.00,-0.0013
1937.00,-0.0012
1936.00,-0.0012
1935.00,-0.0010
1934.00,-0.0009
1933.00,-0.0008
1932.00,-0.0009
1931.00,-0.0010
1930.00,-0.0011
1929.00,-0.0011
1928.00,-0.0010
1927.00,-0.0009
1926.00,-0.0009
1925.00,-0.0010
1924.00,-0.0009
1923.00,-0.0008
1922.00,-0.0008
1921.00,-0.0007
1920.00,-0.0007
1919.00,-0.0007
1918.00,-0.0005
1917.00,-0.0003
1916.00,-0.0002
1915.00,-0.0002
1914.00,-0.0003
1913.00,-0.0004
1912.00,-0.0004
1911.00,-0.0003
1910.00,-0.0002
1909.00,-0.0001
1908.00,0.0000
1907.00,0.0000
1906.00,-0.0000
1905.00,-0.0001
1904.00,-0.0001
1903.00,-0.0002
1902.00,-0.0001
1901.00,0.0000
1900.00,0.0002
1899.00,0.0003
1898.00,0.0002
1897.00,0.0002
1896.00,0.0001
1895.00,0.0001
1894.00,0.0001
1893.00,0.0002
1892.00,0.0002
1891.00,0.0002
1890.00,0.0001
1889.00,-0.0000
1888.00,-0.0002
1887.00,-0.0002
1886.00,-0.0002
1885.00,-0.0001
1884.00,-0.0001
1883.00,-0.0000
1882.00,-0.0001
1881.00,-0.0001
1880.00,-0.0001
1879.00,-0.0001
1878.00,-0.0001
1877.00,-0.0001
1876.00,-0.0001
1875.00,-0.0001
1874.00,-0.0000
1873.00,-0.0000
1872.00,0.0001
1871.00,0.0001
1870.00,0.0002
1869.00,0.0001
1868.00,0.0001
1867.00,-0.0000
1866.00,-0.0001
1865.00,-0.0001
1864.00,-0.0001
1863.00,-0.0001
1862.00,-0.0000
1861.00,-0.0000
1860.00,0.0000
1859.00,0.0001
1858.00,0.0000
1857.00,-0.0001
1856.00,-0.0001
1855.00,-0.0001
1854.00,-0.0001
1853.00,-0.0001
1852.00,-0.0000
1851.00,-0.0000
1850.00,-0.0001
1849.00,-0.0001
1848.00,-0.0001
1847.00,-0.0000
1846.00,-0.0000
1845.00,-0.0000
1844.00,0.0000
1843.00,0.0001
1842.00,0.0001
1841.00,0.0001
1840.00,0.0001
1839.00,0.0001
1838.00,0.0001
1837.00,0.0002
1836.00,0.0003
1835.00,0.0003
1834.00,0.0003
1833.00,0.0003
1832.00,0.0003
1831.00,0.0002
1830.00,0.0002
1829.00,0.0002
1828.00,0.0002
1827.00,0.0002
1826.00,0.0003
1825.00,0.0004
1824.00,0.0004
1823.00,0.0005
1822.00,0.0005
1821.00,0.0004
1820.00,0.0004
1819.00,0.0002
1818.00,0.0001
1817.00,0.0000
1816.00,-0.0000
1815.00,-0.0001
1814.00,-0.0000
1813.00,0.0000
1812.00,0.0001
1811.00,0.0001
1810.00,0.0002
1809.00,0.0003
1808.00,0.0004
1807.00,0.0005
1806.00,0.0005
1805.00,0.0005
1804.00,0.0005
1803.00,0.0005
1802.00,0.0004
1801.00,0.0004
1800.00,0.0004
1799.00,0.0004
1798.00,0.0004
1797.00,0.0005
1796.00,0.0005
1795.00,0.0006
1794.00,0.0007
1793.00,0.0007
1792.00,0.0007
1791.00,0.0007
1790.00,0.0007
1789.00,0.0006
1788.00,0.0006
1787.00,0.0006
1786.00,0.0006
1785.00,0.0007
1784.00,0.0007
1783.00,0.0007
1782.00,0.0007
1781.00,0.0007
1780.00,0.0007
1779.00,0.0007
1778.00,0.0008
1777.00,0.0008
1776.00,0.0008
1775.00,0.0009
1774.00,0.0009
1773.00,0.0009
1772.00,0.0009
1771.00,0.0009
1770.00,0.0009
1769.00,0.0010
1768.00,0.0010
1767.00,0.0010
1766.00,0.0011
1765.00,0.0011
1764.00,0.0011
1763.00,0.0012
1762.00,0.0012
1761.00,0.0012
1760.00,0.0013
1759.00,0.0014
1758.00,0.0014
1757.00,0.0015
1756.00,0.0016
1755.00,0.0017
1754.00,0.0018
1753.00,0.0020
1752.00,0.0021
1751.00,0.0023
1750.00,0.0023
1749.00,0.0024
1748.00,0.0024
1747.00,0.0025
1746.00,0.0026
1745.00,0.0026
1744.00,0.0027
1743.00,0.0027
1742.00,0.0028
1741.00,0.0028
1740.00,0.0029
1739.00,0.0029
1738.00,0.0028
1737.00,0.0028
1736.00,0.0028
1735.00,0.0027
1734.00,0.0026
1733.00,0.0027
1732.00,0.0027
1731.00,0.0028
1730.00,0.0028
1729.00,0.0028
1728.00,0.0028
1727.00,0.0027
1726.00,0.0027
1725.00,0.0027
1724.00,0.0027
1723.00,0.0027
1722.00,0.0026
1721.00,0.0025
1720.00,0.0024
1719.00,0.0023
1718.00,0.0022
1717.00,0.0021
1716.00,0.0021
1715.00,0.0020
1714.00,0.0019
1713.00,0.0018
1712.00,0.0018
1711.00,0.0017
1710.00,0.0016
1709.00,0.0015
1708.00,0.0014
1707.00,0.0013
1706.00,0.0013
1705.00,0.0013
1704.00,0.0013
1703.00,0.0013
1702.00,0.0013
1701.00,0.0013
1700.00,0.0014
1699.00,0.0014
1698.00,0.0014
1697.00,0.0015
1696.00,0.0017
1695.00,0.0018
1694.00,0.0019
1693.00,0.0019
1692.00,0.0019
1691.00,0.0020
1690.00,0.0021
1689.00,0.0023
1688.00,0.0024
1687.00,0.0026
1686.00,0.0027
1685.00,0.0027
1684.00,0.0027
1683.00,0.0028
1682.00,0.0029
1681.00,0.0029
1680.00,0.0030
1679.00,0.0030
1678.00,0.0030
1677.00,0.0030
1676.00,0.0030
1675.00,0.0030
1674.00,0.0030
1673.00,0.0030
1672.00,0.0030
1671.00,0.0029
1670.00,0.0029
1669.00,0.0030
1668.00,0.0030
1667.00,0.0029
1666.00,0.0028
1665.00,0.0028
1664.00,0.0027
1663.00,0.0027
1662.00,0.0027
1661.00,0.0027
1660.00,0.0027
1659.00,0.0027
1658.00,0.0027
1657.00,0.0027
1656.00,0.0028
1655.00,0.0029
1654.00,0.0031
1653.00,0.0034
1652.00,0.0037
1651.00,0.0038
1650.00,0.0038
1649.00,0.0038
1648.00,0.0039
1647.00,0.0041
1646.00,0.0043
1645.00,0.0044
1644.00,0.0045
1643.00,0.0045
1642.00,0.0045
1641.00,0.0046
1640.00,0.0047
1639.00,0.0048
1638.00,0.0048
1637.00,0.0048
1636.00,0.0049
1635.00,0.0049
1634.00,0.0050
1633.00,0.0051
1632.00,0.0051
1631.00,0.0051
1630.00,0.0051
1629.00,0.0050
1628.00,0.0050
1627.00,0.0049
1626.00,0.0048
1625.00,0.0048
1624.00,0.0047
1623.00,0.0047
1622.00,0.0047
1621.00,0.0047
1620.00,0.0047
1619.00,0.0047
1618.00,0.0046
1617.00,0.0046
1616.00,0.0046
1615.00,0.0046
1614.00,0.0046
1613.00,0.0046
1612.00,0.0046
1611.00,0.0046
1610.00,0.0046
1609.00,0.0046
1608.00,0.0046
1607.00,0.0046
1606.00,0.0046
1605.00,0.0046
1604.00,0.0046
1603.00,0.0046
1602.00,0.0045
1601.00,0.0045
1600.00,0.0045
1599.00,0.0045
1598.00,0.0045
1597.00,0.0046
1596.00,0.0046
1595.00,0.0046
1594.00,0.0045
1593.00,0.0045
1592.00,0.0046
1591.00,0.0046
1590.00,0.0048
1589.00,0.0049
1588.00,0.0051
1587.00,0.0053
1586.00,0.0054
1585.00,0.0056
1584.00,0.0059
1583.00,0.0062
1582.00,0.0065
1581.00,0.0068
1580.00,0.0071
1579.00,0.0074
1578.00,0.0076
1577.00,0.0077
1576.00,0.0076
1575.00,0.0075
1574.00,0.0073
1573.00,0.0072
1572.00,0.0070
1571.00,0.0068
1570.00,0.0065
1569.00,0.0063
1568.00,0.0062
1567.00,0.0061
1566.00,0.0060
1565.00,0.0059
1564.00,0.0058
1563.00,0.0057
1562.00,0.0058
1561.00,0.0059
1560.00,0.0059
1559.00,0.0058
1558.00,0.0057
1557.00,0.0057
1556.00,0.0057
1555.00,0.0057
1554.00,0.0058
1553.00,0.0058
1552.00,0.0059
1551.00,0.0060
1550.00,0.0062
1549.00,0.0064
1548.00,0.0066
1547.00,0.0068
1546.00,0.0071
1545.00,0.0075
1544.00,0.0079
1543.00,0.0082
1542.00,0.0084
1541.00,0.0086
1540.00,0.0086
1539.00,0.0084
1538.00,0.0081
1537.00,0.0079
1536.00,0.0076
1535.00,0.0072
1534.00,0.0068
1533.00,0.0065
1532.00,0.0063
1531.00,0.0062
1530.00,0.0060
1529.00,0.0060
1528.00,0.0060
1527.00,0.0060
1526.00,0.0059
1525.00,0.0059
1524.00,0.0060
1523.00,0.0060
1522.00,0.0059
1521.00,0.0059
1520.00,0.0059
1519.00,0.0059
1518.00,0.0059
1517.00,0.0059
1516.00,0.0060
1515.00,0.0060
1514.00,0.0059
1513.00,0.0060
1512.00,0.0061
1511.00,0.0061
1510.00,0.0062
1509.00,0.0063
1508.00,0.0064
1507.00,0.0065
1506.00,0.0065
1505.00,0.0066
1504.00,0.0067
1503.00,0.0067
1502.00,0.0069
1501.00,0.0070
1500.00,0.0073
1499.00,0.0075
1498.00,0.0077
1497.00,0.0081
1496.00,0.0085
1495.00,0.0088
1494.00,0.0091
1493.00,0.0094
1492.00,0.0097
1491.00,0.0101
1490.00,0.0104
1489.00,0.0109
1488.00,0.0115
1487.00,0.0119
1486.00,0.0124
1485.00,0.0131
1484.00,0.0139
1483.00,0.0148
1482.00,0.0158
1481.00,0.0171
1480.00,0.0185
1479.00,0.0199
1478.00,0.0215
1477.00,0.0236
1476.00,0.0262
1475.00,0.0292
1474.00,0.0333
1473.00,0.0391
1472.00,0.0459
1471.00,0.0524
1470.00,0.0587
1469.00,0.0654
1468.00,0.0727
1467.00,0.0808
1466.00,0.0900
1465.00,0.1000
1464.00,0.1087
1463.00,0.1145
1462.00,0.1181
1461.00,0.1202
1460.00,0.1215
1459.00,0.1220
1458.00,0.1220
1457.00,0.1217
1456.00,0.1207
1455.00,0.1193
1454.00,0.1175
1453.00,0.1152
1452.00,0.1119
1451.00,0.1075
1450.00,0.1018
1449.00,0.0943
1448.00,0.0851
1447.00,0.0757
1446.00,0.0674
1445.00,0.0605
1444.00,0.0546
1443.00,0.0499
1442.00,0.0465
1441.00,0.0442
1440.00,0.0429
1439.00,0.0427
1438.00,0.0434
1437.00,0.0442
1436.00,0.0438
1435.00,0.0415
1434.00,0.0378
1433.00,0.0333
1432.00,0.0286
1431.00,0.0244
1430.00,0.0212
1429.00,0.0189
1428.00,0.0172
1427.00,0.0163
1426.00,0.0157
1425.00,0.0151
1424.00,0.0146
1423.00,0.0143
1422.00,0.0141
1421.00,0.0140
1420.00,0.0137
1419.00,0.0135
1418.00,0.0133
1417.00,0.0130
1416.00,0.0126
1415.00,0.0124
1414.00,0.0122
1413.00,0.0120
1412.00,0.0118
1411.00,0.0117
1410.00,0.0116
1409.00,0.0115
1408.00,0.0113
1407.00,0.0113
1406.00,0.0113
1405.00,0.0112
1404.00,0.0112
1403.00,0.0113
1402.00,0.0114
1401.00,0.0116
1400.00,0.0117
1399.00,0.0119
1398.00,0.0121
1397.00,0.0123
1396.00,0.0125
1395.00,0.0129
1394.00,0.0134
1393.00,0.0139
1392.00,0.0144
1391.00,0.0152
1390.00,0.0162
1389.00,0.0176
1388.00,0.0197
1387.00,0.0228
1386.00,0.0270
1385.00,0.0326
1384.00,0.0404
1383.00,0.0517
1382.00,0.0673
1381.00,0.0881
1380.00,0.1144
1379.00,0.1447
1378.00,0.1742
1377.00,0.1960
1376.00,0.2034
1375.00,0.1929
1374.00,0.1677
1373.00,0.1375
1372.00,0.1100
1371.00,0.0875
1370.00,0.0698
1369.00,0.0564
1368.00,0.0473
1367.00,0.0416
1366.00,0.0386
1365.00,0.0374
1364.00,0.0376
1363.00,0.0391
1362.00,0.0414
1361.00,0.0438
1360.00,0.0457
1359.00,0.0463
1358.00,0.0453
1357.00,0.0427
1356.00,0.0390
1355.00,0.0347
1354.00,0.0305
1353.00,0.0270
1352.00,0.0241
1351.00,0.0219
1350.00,0.0200
1349.00,0.0184
1348.00,0.0172
1347.00,0.0162
1346.00,0.0153
1345.00,0.0145
1344.00,0.0139
1343.00,0.0134
1342.00,0.0130
1341.00,0.0127
1340.00,0.0124
1339.00,0.0122
1338.00,0.0120
1337.00,0.0119
1336.00,0.0120
1335.00,0.0122
1334.00,0.0126
1333.00,0.0130
1332.00,0.0135
1331.00,0.0139
1330.00,0.0140
1329.00,0.0138
1328.00,0.0134
1327.00,0.0128
1326.00,0.0122
1325.00,0.0116
1324.00,0.0110
1323.00,0.0105
1322.00,0.0101
1321.00,0.0098
1320.00,0.0096
1319.00,0.0094
1318.00,0.0093
1317.00,0.0091
1316.00,0.0090
1315.00,0.0089
1314.00,0.0089
1313.00,0.0089
1312.00,0.0089
1311.00,0.0090
1310.00,0.0093
1309.00,0.0097
1308.00,0.0103
1307.00,0.0111
1306.00,0.0119
1305.00,0.0124
1304.00,0.0127
1303.00,0.0126
1302.00,0.0125
1301.00,0.0124
1300.00,0.0124
1299.00,0.0125
1298.00,0.0128
1297.00,0.0129
1296.00,0.0129
1295.00,0.0127
1294.00,0.0123
1293.00,0.0117
1292.00,0.0111
1291.00,0.0106
1290.00,0.0101
1289.00,0.0097
1288.00,0.0093
1287.00,0.0090
1286.00,0.0088
1285.00,0.0087
1284.00,0.0085
1283.00,0.0085
1282.00,0.0084
1281.00,0.0084
1280.00,0.0083
1279.00,0.0082
1278.00,0.0082
1277.00,0.0081
1276.00,0.0081
1275.00,0.0080
1274.00,0.0080
1273.00,0.0081
1272.00,0.0081
1271.00,0.0082
1270.00,0.0083
1269.00,0.0083
1268.00,0.0084
1267.00,0.0085
1266.00,0.0087
1265.00,0.0089
1264.00,0.0091
1263.00,0.0093
1262.00,0.0095
1261.00,0.0098
1260.00,0.0101
1259.00,0.0106
1258.00,0.0111
1257.00,0.0115
1256.00,0.0116
1255.00,0.0115
1254.00,0.0111
1253.00,0.0105
1252.00,0.0099
1251.00,0.0094
1250.00,0.0090
1249.00,0.0087
1248.00,0.0085
1247.00,0.0083
1246.00,0.0082
1245.00,0.0081
1244.00,0.0080
1243.00,0.0079
1242.00,0.0078
1241.00,0.0077
1240.00,0.0076
1239.00,0.0076
1238.00,0.0075
1237.00,0.0075
1236.00,0.0075
1235.00,0.0076
1234.00,0.0076
1233.00,0.0077
1232.00,0.0078
1231.00,0.0079
1230.00,0.0080
1229.00,0.0081
1228.00,0.0082
1227.00,0.0084
1226.00,0.0087
1225.00,0.0090
1224.00,0.0094
1223.00,0.0098
1222.00,0.0103
1221.00,0.0106
1220.00,0.0109
1219.00,0.0110
1218.00,0.0109
1217.00,0.0107
1216.00,0.0104
1215.00,0.0100
1214.00,0.0096
1213.00,0.0093
1212.00,0.0091
1211.00,0.0088
1210.00,0.0086
1209.00,0.0085
1208.00,0.0083
1207.00,0.0082
1206.00,0.0081
1205.00,0.0080
1204.00,0.0080
1203.00,0.0080
1202.00,0.0080
1201.00,0.0080
1200.00,0.0080
1199.00,0.0080
1198.00,0.0081
1197.00,0.0081
1196.00,0.0081
1195.00,0.0081
1194.00,0.0080
1193.00,0.0080
1192.00,0.0080
1191.00,0.0079
1190.00,0.0080
1189.00,0.0080
1188.00,0.0080
1187.00,0.0080
1186.00,0.0081
1185.00,0.0081
1184.00,0.0081
1183.00,0.0082
1182.00,0.0084
1181.00,0.0085
1180.00,0.0088
1179.00,0.0091
1178.00,0.0095
1177.00,0.0101
1176.00,0.0109
1175.00,0.0120
1174.00,0.0133
1173.00,0.0150
1172.00,0.0170
1171.00,0.0191
1170.00,0.0212
1169.00,0.0229
1168.00,0.0239
1167.00,0.0242
1166.00,0.0238
1165.00,0.0230
1164.00,0.0220
1163.00,0.0210
1162.00,0.0202
1161.00,0.0195
1160.00,0.0191
1159.00,0.0187
1158.00,0.0185
1157.00,0.0184
1156.00,0.0183
1155.00,0.0182
1154.00,0.0182
1153.00,0.0181
1152.00,0.0178
1151.00,0.0173
1150.00,0.0165
1149.00,0.0156
1148.00,0.0147
1147.00,0.0139
1146.00,0.0130
1145.00,0.0123
1144.00,0.0116
1143.00,0.0110
1142.00,0.0105
1141.00,0.0100
1140.00,0.0096
1139.00,0.0091
1138.00,0.0088
1137.00,0.0084
1136.00,0.0082
1135.00,0.0079
1134.00,0.0078
1133.00,0.0076
1132.00,0.0075
1131.00,0.0075
1130.00,0.0076
1129.00,0.0076
1128.00,0.0077
1127.00,0.0077
1126.00,0.0078
1125.00,0.0078
1124.00,0.0078
1123.00,0.0078
1122.00,0.0078
1121.00,0.0078
1120.00,0.0079
1119.00,0.0080
1118.00,0.0081
1117.00,0.0082
1116.00,0.0084
1115.00,0.0085
1114.00,0.0086
1113.00,0.0088
1112.00,0.0089
1111.00,0.0092
1110.00,0.0096
1109.00,0.0101
1108.00,0.0106
1107.00,0.0112
1106.00,0.0118
1105.00,0.0124
1104.00,0.0129
1103.00,0.0131
1102.00,0.0131
1101.00,0.0127
1100.00,0.0122
1099.00,0.0116
1098.00,0.0110
1097.00,0.0103
1096.00,0.0098
1095.00,0.0094
1094.00,0.0091
1093.00,0.0089
1092.00,0.0088
1091.00,0.0086
1090.00,0.0084
1089.00,0.0083
1088.00,0.0082
1087.00,0.0082
1086.00,0.0081
1085.00,0.0081
1084.00,0.0081
1083.00,0.0081
1082.00,0.0080
1081.00,0.0078
1080.00,0.0077
1079.00,0.0076
1078.00,0.0076
1077.00,0.0076
1076.00,0.0076
1075.00,0.0076
1074.00,0.0076
1073.00,0.0076
1072.00,0.0075
1071.00,0.0075
1070.00,0.0074
1069.00,0.0074
1068.00,0.0074
1067.00,0.0074
1066.00,0.0074
1065.00,0.0074
1064.00,0.0074
1063.00,0.0075
1062.00,0.0076
1061.00,0.0077
1060.00,0.0078
1059.00,0.0080
1058.00,0.0081
1057.00,0.0082
1056.00,0.0082
1055.00,0.0082
1054.00,0.0084
1053.00,0.0086
1052.00,0.0090
1051.00,0.0094
1050.00,0.0098
1049.00,0.0101
1048.00,0.0105
1047.00,0.0109
1046.00,0.0112
1045.00,0.0113
1044.00,0.0115
1043.00,0.0115
1042.00,0.0114
1041.00,0.0113
1040.00,0.0112
1039.00,0.0112
1038.00,0.0112
1037.00,0.0113
1036.00,0.0113
1035.00,0.0112
1034.00,0.0111
1033.00,0.0109
1032.00,0.0108
1031.00,0.0107
1030.00,0.0107
1029.00,0.0108
1028.00,0.0108
1027.00,0.0108
1026.00,0.0108
1025.00,0.0109
1024.00,0.0111
1023.00,0.0114
1022.00,0.0117
1021.00,0.0120
1020.00,0.0122
1019.00,0.0125
1018.00,0.0127
1017.00,0.0128
1016.00,0.0129
1015.00,0.0129
1014.00,0.0129
1013.00,0.0128
1012.00,0.0128
1011.00,0.0128
1010.00,0.0128
1009.00,0.0128
1008.00,0.0128
1007.00,0.0130
1006.00,0.0133
1005.00,0.0139
1004.00,0.0149
1003.00,0.0163
1002.00,0.0182
1001.00,0.0206
1000.00,0.0230
999.00,0.0249
998.00,0.0257
997.00,0.0251
996.00,0.0232
995.00,0.0206
994.00,0.0179
993.00,0.0156
992.00,0.0137
991.00,0.0125
990.00,0.0116
989.00,0.0110
988.00,0.0106
987.00,0.0104
986.00,0.0103
985.00,0.0105
984.00,0.0108
983.00,0.0115
982.00,0.0124
981.00,0.0138
980.00,0.0155
979.00,0.0178
978.00,0.0206
977.00,0.0237
976.00,0.0269
975.00,0.0297
974.00,0.0315
973.00,0.0319
972.00,0.0304
971.00,0.0276
970.00,0.0240
969.00,0.0204
968.00,0.0173
967.00,0.0150
966.00,0.0134
965.00,0.0123
964.00,0.0114
963.00,0.0106
962.00,0.0100
961.00,0.0096
960.00,0.0093
959.00,0.0090
958.00,0.0088
957.00,0.0087
956.00,0.0085
955.00,0.0083
954.00,0.0082
953.00,0.0080
952.00,0.0079
951.00,0.0078
950.00,0.0077
949.00,0.0076
948.00,0.0076
947.00,0.0077
946.00,0.0080
945.00,0.0082
944.00,0.0086
943.00,0.0091
942.00,0.0095
941.00,0.0097
940.00,0.0097
939.00,0.0094
938.00,0.0089
937.00,0.0083
936.00,0.0078
935.00,0.0074
934.00,0.0070
933.00,0.0067
932.00,0.0065
931.00,0.0064
930.00,0.0063
929.00,0.0062
928.00,0.0061
927.00,0.0060
926.00,0.0059
925.00,0.0059
924.00,0.0059
923.00,0.0060
922.00,0.0061
921.00,0.0061
920.00,0.0060
919.00,0.0060
918.00,0.0061
917.00,0.0062
916.00,0.0063
915.00,0.0064
914.00,0.0065
913.00,0.0065
912.00,0.0066
911.00,0.0067
910.00,0.0069
909.00,0.0072
908.00,0.0076
907.00,0.0081
906.00,0.0089
905.00,0.0101
904.00,0.0118
903.00,0.0139
902.00,0.0161
901.00,0.0180
900.00,0.0191
899.00,0.0191
898.00,0.0180
897.00,0.0162
896.00,0.0141
895.00,0.0123
894.00,0.0108
893.00,0.0097
892.00,0.0088
891.00,0.0082
890.00,0.0077
889.00,0.0074
888.00,0.0072
887.00,0.0071
886.00,0.0071
885.00,0.0071
884.00,0.0070
883.00,0.0069
882.00,0.0069
881.00,0.0068
880.00,0.0067
879.00,0.0067
878.00,0.0067
877.00,0.0069
876.00,0.0072
875.00,0.0073
874.00,0.0074
873.00,0.0073
872.00,0.0073
871.00,0.0072
870.00,0.0073
869.00,0.0074
868.00,0.0074
867.00,0.0074
866.00,0.0073
865.00,0.0073
864.00,0.0073
863.00,0.0074
862.00,0.0076
861.00,0.0078
860.00,0.0079
859.00,0.0080
858.00,0.0081
857.00,0.0083
856.00,0.0085
855.00,0.0086
854.00,0.0086
853.00,0.0087
852.00,0.0088
851.00,0.0091
850.00,0.0094
849.00,0.0098
848.00,0.0103
847.00,0.0110
846.00,0.0123
845.00,0.0143
844.00,0.0172
843.00,0.0205
842.00,0.0230
841.00,0.0238
840.00,0.0224
839.00,0.0195
838.00,0.0163
837.00,0.0137
836.00,0.0120
835.00,0.0110
834.00,0.0103
833.00,0.0099
832.00,0.0097
831.00,0.0095
830.00,0.0094
829.00,0.0093
828.00,0.0092
827.00,0.0090
826.00,0.0089
825.00,0.0088
824.00,0.0089
823.00,0.0091
822.00,0.0093
821.00,0.0096
820.00,0.0099
819.00,0.0103
818.00,0.0108
817.00,0.0114
816.00,0.0123
815.00,0.0136
814.00,0.0153
813.00,0.0174
812.00,0.0197
811.00,0.0219
810.00,0.0235
809.00,0.0241
808.00,0.0236
807.00,0.0220
806.00,0.0198
805.00,0.0174
804.00,0.0154
803.00,0.0139
802.00,0.0128
801.00,0.0120
800.00,0.0114
799.00,0.0108
798.00,0.0103
797.00,0.0098
796.00,0.0094
795.00,0.0092
794.00,0.0090
793.00,0.0087
792.00,0.0084
791.00,0.0081
790.00,0.0079
789.00,0.0077
788.00,0.0074
787.00,0.0070
786.00,0.0067
785.00,0.0066
784.00,0.0065
783.00,0.0065
782.00,0.0064
781.00,0.0063
780.00,0.0062
779.00,0.0062
778.00,0.0062
777.00,0.0062
776.00,0.0061
775.00,0.0061
774.00,0.0061
773.00,0.0062
772.00,0.0064
771.00,0.0065
770.00,0.0066
769.00,0.0066
768.00,0.0065
767.00,0.0064
766.00,0.0065
765.00,0.0066
764.00,0.0068
763.00,0.0069
762.00,0.0068
761.00,0.0066
760.00,0.0065
759.00,0.0065
758.00,0.0067
757.00,0.0068
756.00,0.0068
755.00,0.0069
754.00,0.0070
753.00,0.0071
752.00,0.0073
751.00,0.0074
750.00,0.0075
749.00,0.0076
748.00,0.0076
747.00,0.0076
746.00,0.0078
745.00,0.0080
744.00,0.0083
743.00,0.0086
742.00,0.0089
741.00,0.0093
740.00,0.0095
739.00,0.0097
738.00,0.0100
737.00,0.0105
736.00,0.0111
735.00,0.0116
734.00,0.0122
733.00,0.0128
732.00,0.0134
731.00,0.0141
730.00,0.0147
729.00,0.0151
728.00,0.0153
727.00,0.0154
726.00,0.0154
725.00,0.0156
724.00,0.0161
723.00,0.0168
722.00,0.0176
721.00,0.0181
720.00,0.0181
719.00,0.0174
718.00,0.0162
717.00,0.0148
716.00,0.0135
715.00,0.0126
714.00,0.0120
713.00,0.0117
712.00,0.0115
711.00,0.0113
710.00,0.0110
709.00,0.0107
708.00,0.0104
707.00,0.0103
706.00,0.0101
705.00,0.0100
704.00,0.0098
703.00,0.0098
702.00,0.0099
701.00,0.0100
700.00,0.0100
699.00,0.0100
698.00,0.0097
697.00,0.0094
696.00,0.0092
695.00,0.0090
694.00,0.0091
693.00,0.0092
692.00,0.0094
691.00,0.0095
690.00,0.0097
689.00,0.0097
688.00,0.0097
687.00,0.0097
686.00,0.0097
685.00,0.0097
684.00,0.0097
683.00,0.0097
682.00,0.0097
681.00,0.0096
680.00,0.0096
679.00,0.0095
678.00,0.0095
677.00,0.0095
676.00,0.0096
675.00,0.0098
674.00,0.0102
673.00,0.0106
672.00,0.0109
671.00,0.0109
670.00,0.0109
669.00,0.0107
668.00,0.0104
667.00,0.0102
666.00,0.0099
665.00,0.0095
664.00,0.0092
663.00,0.0090
662.00,0.0091
661.00,0.0091
660.00,0.0090
659.00,0.0089
658.00,0.0087
657.00,0.0086
656.00,0.0085
655.00,0.0086
654.00,0.0087
653.00,0.0088
652.00,0.0089
651.00,0.0090
650.00,0.0088
649.00,0.0085
648.00,0.0082
647.00,0.0080
646.00,0.0078
645.00,0.0079
644.00,0.0080
643.00,0.0081
642.00,0.0082
641.00,0.0083
640.00,0.0083
639.00,0.0082
638.00,0.0081
637.00,0.0082
636.00,0.0083
635.00,0.0083
634.00,0.0081
633.00,0.0079
632.00,0.0078
631.00,0.0079
630.00,0.0082
629.00,0.0084
628.00,0.0084
627.00,0.0083
626.00,0.0082
625.00,0.0082
624.00,0.0083
623.00,0.0085
622.00,0.0085
621.00,0.0084
620.00,0.0083
619.00,0.0082
618.00,0.0081
617.00,0.0081
616.00,0.0080
615.00,0.0078
614.00,0.0075
613.00,0.0073
612.00,0.0074
611.00,0.0076
610.00,0.0078
609.00,0.0079
608.00,0.0078
607.00,0.0078
606.00,0.0078
605.00,0.0077
604.00,0.0075
603.00,0.0073
602.00,0.0073
601.00,0.0074
600.00,0.0075
599.00,0.0076
598.00,0.0077
597.00,0.0077
596.00,0.0076
595.00,0.0073
594.00,0.0071
593.00,0.0072
592.00,0.0075
591.00,0.0079
590.00,0.0081
589.00,0.0080
588.00,0.0078
587.00,0.0077
586.00,0.0077
585.00,0.0078
584.00,0.0078
583.00,0.0079
582.00,0.0080
581.00,0.0083
580.00,0.0085
579.00,0.0086
578.00,0.0084
577.00,0.0079
576.00,0.0075
575.00,0.0075
574.00,0.0077
573.00,0.0079
572.00,0.0079
571.00,0.0077
570.00,0.0077
569.00,0.0079
568.00,0.0080
567.00,0.0081
566.00,0.0081
565.00,0.0081
564.00,0.0083
563.00,0.0084
562.00,0.0084
561.00,0.0082
560.00,0.0079
559.00,0.0076
558.00,0.0074
557.00,0.0072
556.00,0.0072
555.00,0.0075
554.00,0.0078
553.00,0.0081
552.00,0.0082
551.00,0.0083
550.00,0.0083
549.00,0.0082
548.00,0.0080
547.00,0.0077
546.00,0.0078
545.00,0.0082
544.00,0.0088
543.00,0.0092
542.00,0.0094
541.00,0.0095
540.00,0.0096
539.00,0.0098
538.00,0.0098
537.00,0.0098
536.00,0.0100
535.00,0.0103
534.00,0.0106
533.00,0.0104
532.00,0.0100
531.00,0.0097
530.00,0.0099
529.00,0.0104
528.00,0.0108
527.00,0.0108
526.00,0.0105
525.00,0.0102
524.00,0.0097
523.00,0.0091
522.00,0.0085
521.00,0.0080
520.00,0.0079
519.00,0.0081
518.00,0.0085
517.00,0.0087
516.00,0.0086
515.00,0.0083
514.00,0.0081
513.00,0.0081
512.00,0.0082
511.00,0.0085
510.00,0.0088
509.00,0.0091
508.00,0.0093
507.00,0.0091
506.00,0.0087
505.00,0.0084
504.00,0.0085
503.00,0.0087
502.00,0.0089
501.00,0.0091
500.00,0.0092
499.00,0.0091
498.00,0.0089
497.00,0.0088
496.00,0.0089
495.00,0.0088
494.00,0.0085
493.00,0.0079
492.00,0.0074
491.00,0.0075
490.00,0.0079
489.00,0.0083
488.00,0.0083
487.00,0.0081
486.00,0.0079
485.00,0.0081
484.00,0.0087
483.00,0.0093
482.00,0.0097
481.00,0.0099
480.00,0.0097
479.00,0.0093
478.00,0.0089
477.00,0.0091
476.00,0.0101
475.00,0.0115
474.00,0.0129
473.00,0.0139
472.00,0.0145
471.00,0.0146
470.00,0.0144
469.00,0.0141
468.00,0.0138
467.00,0.0140
466.00,0.0147
465.00,0.0160
464.00,0.0175
463.00,0.0187
462.00,0.0196
461.00,0.0206
460.00,0.0218
459.00,0.0225
458.00,0.0221
457.00,0.0209
456.00,0.0200
455.00,0.0195
454.00,0.0189
453.00,0.0183
452.00,0.0178
451.00,0.0176
450.00,0.0171
