Created as New Dataset,Sample 059 By Administrator Date Wednesday, September 03 2025
cm-1,A
4000.00,0.0006
3999.00,0.0006
3998.00,0.0006
3997.00,0.0006
3996.00,0.0006
3995.00,0.0006
3994.00,0.0006
3993.00,0.0006
3992.00,0.0006
3991.00,0.0006
3990.00,0.0006
3989.00,0.0006
3988.00,0.0006
3987.00,0.0007
3986.00,0.0007
3985.00,0.0007
3984.00,0.0006
3983.00,0.0006
3982.00,0.0005
3981.00,0.0005
3980.00,0.0005
3979.00,0.0005
3978.00,0.0005
3977.00,0.0005
3976.00,0.0005
3975.00,0.0005
3974.00,0.0005
3973.00,0.0005
3972.00,0.0005
3971.00,0.0005
3970.00,0.0005
3969.00,0.0005
3968.00,0.0005
3967.00,0.0005
3966.00,0.0005
3965.00,0.0005
3964.00,0.0005
3963.00,0.0005
3962.00,0.0005
3961.00,0.0005
3960.00,0.0005
3959.00,0.0005
3958.00,0.0005
3957.00,0.0005
3956.00,0.0005
3955.00,0.0005
3954.00,0.0005
3953.00,0.0005
3952.00,0.0004
3951.00,0.0004
3950.00,0.0004
3949.00,0.0004
3948.00,0.0004
3947.00,0.0004
3946.00,0.0004
3945.00,0.0004
3944.00,0.0004
3943.00,0.0004
3942.00,0.0005
3941.00,0.0005
3940.00,0.0005
3939.00,0.0005
3938.00,0.0005
3937.00,0.0005
3936.00,0.0005
3935.00,0.0005
3934.00,0.0005
3933.00,0.0005
3932.00,0.0005
3931.00,0.0005
3930.00,0.0005
3929.00,0.0005
3928.00,0.0005
3927.00,0.0006
3926.00,0.0006
3925.00,0.0005
3924.00,0.0005
3923.00,0.0004
3922.00,0.0004
3921.00,0.0005
3920.00,0.0005
3919.00,0.0005
3918.00,0.0005
3917.00,0.0005
3916.00,0.0005
3915.00,0.0005
3914.00,0.0005
3913.00,0.0005
3912.00,0.0005
3911.00,0.0005
3910.00,0.0005
3909.00,0.0005
3908.00,0.0005
3907.00,0.0006
3906.00,0.0006
3905.00,0.0006
3904.00,0.0005
3903.00,0.0005
3902.00,0.0005
3901.00,0.0004
3900.00,0.0004
3899.00,0.0004
3898.00,0.0004
3897.00,0.0004
3896.00,0.0004
3895.00,0.0004
3894.00,0.0004
3893.00,0.0004
3892.00,0.0005
3891.00,0.0005
3890.00,0.0005
3889.00,0.0006
3888.00,0.0005
3887.00,0.0005
3886.00,0.0005
3885.00,0.0005
3884.00,0.0006
3883.00,0.0006
3882.00,0.0006
3881.00,0.0006
3880.00,0.0006
3879.00,0.0006
3878.00,0.0005
3877.00,0.0005
3876.00,0.0005
3875.00,0.0005
3874.00,0.0005
3873.00,0.0005
3872.00,0.0005
3871.00,0.0006
3870.00,0.0006
3869.00,0.0006
3868.00,0.0006
3867.00,0.0006
3866.00,0.0006
3865.00,0.0006
3864.00,0.0005
3863.00,0.0005
3862.00,0.0005
3861.00,0.0005
3860.00,0.0005
3859.00,0.0004
3858.00,0.0005
3857.00,0.0005
3856.00,0.0005
3855.00,0.0005
3854.00,0.0005
3853.00,0.0005
3852.00,0.0006
3851.00,0.0006
3850.00,0.0006
3849.00,0.0006
3848.00,0.0006
3847.00,0.0005
3846.00,0.0005
3845.00,0.0005
3844.00,0.0005
3843.00,0.0005
3842.00,0.0005
3841.00,0.0005
3840.00,0.0006
3839.00,0.0006
3838.00,0.0007
3837.00,0.0007
3836.00,0.0007
3835.00,0.0007
3834.00,0.0006
3833.00,0.0006
3832.00,0.0006
3831.00,0.0006
3830.00,0.0005
3829.00,0.0005
3828.00,0.0005
3827.00,0.0005
3826.00,0.0005
3825.00,0.0005
3824.00,0.0005
3823.00,0.0006
3822.00,0.0006
3821.00,0.0006
3820.00,0.0007
3819.00,0.0007
3818.00,0.0007
3817.00,0.0007
3816.00,0.0007
3815.00,0.0007
3814.00,0.0007
3813.00,0.0006
3812.00,0.0006
3811.00,0.0006
3810.00,0.0006
3809.00,0.0006
3808.00,0.0006
3807.00,0.0007
3806.00,0.0007
3805.00,0.0007
3804.00,0.0007
3803.00,0.0007
3802.00,0.0006
3801.00,0.0006
3800.00,0.0006
3799.00,0.0006
3798.00,0.0006
3797.00,0.0006
3796.00,0.0006
3795.00,0.0006
3794.00,0.0006
3793.00,0.0005
3792.00,0.0005
3791.00,0.0005
3790.00,0.0005
3789.00,0.0004
3788.00,0.0004
3787.00,0.0004
3786.00,0.0004
3785.00,0.0005
3784.00,0.0005
3783.00,0.0006
3782.00,0.0006
3781.00,0.0006
3780.00,0.0006
3779.00,0.0006
3778.00,0.0006
3777.00,0.0006
3776.00,0.0005
3775.00,0.0005
3774.00,0.0005
3773.00,0.0005
3772.00,0.0005
3771.00,0.0006
3770.00,0.0006
3769.00,0.0006
3768.00,0.0006
3767.00,0.0006
3766.00,0.0006
3765.00,0.0006
3764.00,0.0006
3763.00,0.0006
3762.00,0.0006
3761.00,0.0005
3760.00,0.0005
3759.00,0.0006
3758.00,0.0006
3757.00,0.0006
3756.00,0.0006
3755.00,0.0006
3754.00,0.0006
3753.00,0.0007
3752.00,0.0007
3751.00,0.0007
3750.00,0.0007
3749.00,0.0007
3748.00,0.0007
3747.00,0.0007
3746.00,0.0006
3745.00,0.0006
3744.00,0.0006
3743.00,0.0006
3742.00,0.0006
3741.00,0.0005
3740.00,0.0005
3739.00,0.0005
3738.00,0.0005
3737.00,0.0004
3736.00,0.0004
3735.00,0.0004
3734.00,0.0004
3733.00,0.0004
3732.00,0.0004
3731.00,0.0003
3730.00,0.0003
3729.00,0.0003
3728.00,0.0004
3727.00,0.0004
3726.00,0.0004
3725.00,0.0004
3724.00,0.0003
3723.00,0.0003
3722.00,0.0003
3721.00,0.0003
3720.00,0.0003
3719.00,0.0003
3718.00,0.0003
3717.00,0.0004
3716.00,0.0004
3715.00,0.0004
3714.00,0.0004
3713.00,0.0004
3712.00,0.0004
3711.00,0.0004
3710.00,0.0004
3709.00,0.0004
3708.00,0.0004
3707.00,0.0003
3706.00,0.0002
3705.00,0.0002
3704.00,0.0002
3703.00,0.0001
3702.00,0.0001
3701.00,0.0001
3700.00,0.0001
3699.00,0.0002
3698.00,0.0002
3697.00,0.0002
3696.00,0.0002
3695.00,0.0002
3694.00,0.0002
3693.00,0.0002
3692.00,0.0003
3691.00,0.0003
3690.00,0.0004
3689.00,0.0005
3688.00,0.0005
3687.00,0.0005
3686.00,0.0005
3685.00,0.0004
3684.00,0.0003
3683.00,0.0002
3682.00,0.0002
3681.00,0.0003
3680.00,0.0004
3679.00,0.0005
3678.00,0.0006
3677.00,0.0006
3676.00,0.0006
3675.00,0.0006
3674.00,0.0006
3673.00,0.0006
3672.00,0.0005
3671.00,0.0005
3670.00,0.0004
3669.00,0.0003
3668.00,0.0003
3667.00,0.0003
3666.00,0.0004
3665.00,0.0004
3664.00,0.0004
3663.00,0.0003
3662.00,0.0003
3661.00,0.0003
3660.00,0.0003
3659.00,0.0003
3658.00,0.0003
3657.00,0.0003
3656.00,0.0004
3655.00,0.0004
3654.00,0.0004
3653.00,0.0004
3652.00,0.0004
3651.00,0.0004
3650.00,0.0004
3649.00,0.0004
3648.00,0.0004
3647.00,0.0003
3646.00,0.0003
3645.00,0.0003
3644.00,0.0003
3643.00,0.0003
3642.00,0.0003
3641.00,0.0003
3640.00,0.0003
3639.00,0.0003
3638.00,0.0003
3637.00,0.0002
3636.00,0.0002
3635.00,0.0002
3634.00,0.0002
3633.00,0.0002
3632.00,0.0002
3631.00,0.0002
3630.00,0.0002
3629.00,0.0002
3628.00,0.0002
3627.00,0.0002
3626.00,0.0002
3625.00,0.0002
3624.00,0.0002
3623.00,0.0002
3622.00,0.0002
3621.00,0.0002
3620.00,0.0002
3619.00,0.0002
3618.00,0.0002
3617.00,0.0002
3616.00,0.0003
3615.00,0.0003
3614.00,0.0003
3613.00,0.0002
3612.00,0.0002
3611.00,0.0002
3610.00,0.0002
3609.00,0.0003
3608.00,0.0003
3607.00,0.0003
3606.00,0.0003
3605.00,0.0003
3604.00,0.0003
3603.00,0.0003
3602.00,0.0003
3601.00,0.0003
3600.00,0.0003
3599.00,0.0003
3598.00,0.0003
3597.00,0.0002
3596.00,0.0002
3595.00,0.0002
3594.00,0.0002
3593.00,0.0002
3592.00,0.0003
3591.00,0.0004
3590.00,0.0004
3589.00,0.0003
3588.00,0.0003
3587.00,0.0003
3586.00,0.0003
3585.00,0.0003
3584.00,0.0004
3583.00,0.0004
3582.00,0.0005
3581.00,0.0005
3580.00,0.0005
3579.00,0.0005
3578.00,0.0005
3577.00,0.0005
3576.00,0.0005
3575.00,0.0005
3574.00,0.0005
3573.00,0.0005
3572.00,0.0005
3571.00,0.0005
3570.00,0.0005
3569.00,0.0005
3568.00,0.0005
3567.00,0.0005
3566.00,0.0006
3565.00,0.0006
3564.00,0.0005
3563.00,0.0005
3562.00,0.0004
3561.00,0.0004
3560.00,0.0004
3559.00,0.0004
3558.00,0.0005
3557.00,0.0005
3556.00,0.0006
3555.00,0.0006
3554.00,0.0006
3553.00,0.0006
3552.00,0.0006
3551.00,0.0006
3550.00,0.0006
3549.00,0.0006
3548.00,0.0006
3547.00,0.0007
3546.00,0.0007
3545.00,0.0007
3544.00,0.0007
3543.00,0.0007
3542.00,0.0007
3541.00,0.0007
3540.00,0.0007
3539.00,0.0007
3538.00,0.0007
3537.00,0.0007
3536.00,0.0007
3535.00,0.0007
3534.00,0.0007
3533.00,0.0008
3532.00,0.0008
3531.00,0.0008
3530.00,0.0008
3529.00,0.0008
3528.00,0.0008
3527.00,0.0008
3526.00,0.0008
3525.00,0.0008
3524.00,0.0008
3523.00,0.0008
3522.00,0.0008
3521.00,0.0008
3520.00,0.0009
3519.00,0.0009
3518.00,0.0010
3517.00,0.0010
3516.00,0.0010
3515.00,0.0010
3514.00,0.0010
3513.00,0.0009
3512.00,0.0009
3511.00,0.0009
3510.00,0.0009
3509.00,0.0009
3508.00,0.0009
3507.00,0.0010
3506.00,0.0010
3505.00,0.0010
3504.00,0.0010
3503.00,0.0010
3502.00,0.0010
3501.00,0.0010
3500.00,0.0010
3499.00,0.0010
3498.00,0.0010
3497.00,0.0010
3496.00,0.0010
3495.00,0.0011
3494.00,0.0011
3493.00,0.0011
3492.00,0.0011
3491.00,0.0011
3490.00,0.0011
3489.00,0.0011
3488.00,0.0011
3487.00,0.0011
3486.00,0.0012
3485.00,0.0012
3484.00,0.0012
3483.00,0.0011
3482.00,0.0011
3481.00,0.0011
3480.00,0.0011
3479.00,0.0011
3478.00,0.0011
3477.00,0.0012
3476.00,0.0012
3475.00,0.0012
3474.00,0.0012
3473.00,0.0012
3472.00,0.0012
3471.00,0.0012
3470.00,0.0012
3469.00,0.0012
3468.00,0.0012
3467.00,0.0012
3466.00,0.0012
3465.00,0.0013
3464.00,0.0013
3463.00,0.0013
3462.00,0.0013
3461.00,0.0012
3460.00,0.0012
3459.00,0.0012
3458.00,0.0012
3457.00,0.0012
3456.00,0.0013
3455.00,0.0013
3454.00,0.0013
3453.00,0.0014
3452.00,0.0014
3451.00,0.0014
3450.00,0.0014
3449.00,0.0013
3448.00,0.0013
3447.00,0.0013
3446.00,0.0013
3445.00,0.0013
3444.00,0.0013
3443.00,0.0013
3442.00,0.0013
3441.00,0.0013
3440.00,0.0014
3439.00,0.0014
3438.00,0.0014
3437.00,0.0014
3436.00,0.0014
3435.00,0.0015
3434.00,0.0015
3433.00,0.0015
3432.00,0.0015
3431.00,0.0015
3430.00,0.0016
3429.00,0.0016
3428.00,0.0016
3427.00,0.0017
3426.00,0.0016
3425.00,0.0016
3424.00,0.0016
3423.00,0.0016
3422.00,0.0016
3421.00,0.0015
3420.00,0.0016
3419.00,0.0016
3418.00,0.0016
3417.00,0.0016
3416.00,0.0016
3415.00,0.0017
3414.00,0.0017
3413.00,0.0017
3412.00,0.0017
3411.00,0.0017
3410.00,0.0017
3409.00,0.0017
3408.00,0.0017
3407.00,0.0017
3406.00,0.0017
3405.00,0.0017
3404.00,0.0017
3403.00,0.0017
3402.00,0.0017
3401.00,0.0017
3400.00,0.0017
3399.00,0.0017
3398.00,0.0017
3397.00,0.0017
3396.00,0.0017
3395.00,0.0017
3394.00,0.0017
3393.00,0.0018
3392.00,0.0018
3391.00,0.0018
3390.00,0.0018
3389.00,0.0018
3388.00,0.0017
3387.00,0.0017
3386.00,0.0017
3385.00,0.0017
3384.00,0.0017
3383.00,0.0017
3382.00,0.0017
3381.00,0.0017
3380.00,0.0016
3379.00,0.0016
3378.00,0.0016
3377.00,0.0016
3376.00,0.0017
3375.00,0.0017
3374.00,0.0017
3373.00,0.0017
3372.00,0.0017
3371.00,0.0017
3370.00,0.0017
3369.00,0.0018
3368.00,0.0018
3367.00,0.0018
3366.00,0.0018
3365.00,0.0018
3364.00,0.0018
3363.00,0.0017
3362.00,0.0017
3361.00,0.0018
3360.00,0.0018
3359.00,0.0018
3358.00,0.0018
3357.00,0.0018
3356.00,0.0018
3355.00,0.0018
3354.00,0.0018
3353.00,0.0018
3352.00,0.0018
3351.00,0.0018
3350.00,0.0018
3349.00,0.0018
3348.00,0.0019
3347.00,0.0019
3346.00,0.0019
3345.00,0.0018
3344.00,0.0018
3343.00,0.0018
3342.00,0.0018
3341.00,0.0018
3340.00,0.0018
3339.00,0.0018
3338.00,0.0018
3337.00,0.0017
3336.00,0.0017
3335.00,0.0018
3334.00,0.0018
3333.00,0.0018
3332.00,0.0018
3331.00,0.0018
3330.00,0.0018
3329.00,0.0018
3328.00,0.0017
3327.00,0.0017
3326.00,0.0017
3325.00,0.0016
3324.00,0.0016
3323.00,0.0016
3322.00,0.0016
3321.00,0.0016
3320.00,0.0016
3319.00,0.0016
3318.00,0.0016
3317.00,0.0017
3316.00,0.0017
3315.00,0.0017
3314.00,0.0018
3313.00,0.0018
3312.00,0.0018
3311.00,0.0018
3310.00,0.0018
3309.00,0.0017
3308.00,0.0017
3307.00,0.0017
3306.00,0.0017
3305.00,0.0018
3304.00,0.0018
3303.00,0.0018
3302.00,0.0018
3301.00,0.0018
3300.00,0.0018
3299.00,0.0018
3298.00,0.0018
3297.00,0.0018
3296.00,0.0018
3295.00,0.0019
3294.00,0.0019
3293.00,0.0019
3292.00,0.0019
3291.00,0.0018
3290.00,0.0018
3289.00,0.0018
3288.00,0.0017
3287.00,0.0017
3286.00,0.0016
3285.00,0.0016
3284.00,0.0016
3283.00,0.0016
3282.00,0.0016
3281.00,0.0016
3280.00,0.0016
3279.00,0.0016
3278.00,0.0016
3277.00,0.0016
3276.00,0.0016
3275.00,0.0017
3274.00,0.0017
3273.00,0.0017
3272.00,0.0016
3271.00,0.0016
3270.00,0.0016
3269.00,0.0016
3268.00,0.0016
3267.00,0.0016
3266.00,0.0017
3265.00,0.0017
3264.00,0.0016
3263.00,0.0016
3262.00,0.0016
3261.00,0.0016
3260.00,0.0016
3259.00,0.0016
3258.00,0.0015
3257.00,0.0015
3256.00,0.0015
3255.00,0.0014
3254.00,0.0014
3253.00,0.0015
3252.00,0.0015
3251.00,0.0015
3250.00,0.0015
3249.00,0.0015
3248.00,0.0015
3247.00,0.0014
3246.00,0.0014
3245.00,0.0014
3244.00,0.0014
3243.00,0.0015
3242.00,0.0015
3241.00,0.0015
3240.00,0.0016
3239.00,0.0016
3238.00,0.0016
3237.00,0.0016
3236.00,0.0016
3235.00,0.0016
3234.00,0.0016
3233.00,0.0016
3232.00,0.0016
3231.00,0.0016
3230.00,0.0016
3229.00,0.0016
3228.00,0.0016
3227.00,0.0017
3226.00,0.0017
3225.00,0.0017
3224.00,0.0018
3223.00,0.0018
3222.00,0.0018
3221.00,0.0019
3220.00,0.0019
3219.00,0.0020
3218.00,0.0020
3217.00,0.0020
3216.00,0.0020
3215.00,0.0020
3214.00,0.0020
3213.00,0.0020
3212.00,0.0020
3211.00,0.0020
3210.00,0.0020
3209.00,0.0021
3208.00,0.0021
3207.00,0.0021
3206.00,0.0021
3205.00,0.0021
3204.00,0.0021
3203.00,0.0021
3202.00,0.0022
3201.00,0.0022
3200.00,0.0022
3199.00,0.0022
3198.00,0.0023
3197.00,0.0023
3196.00,0.0023
3195.00,0.0023
3194.00,0.0023
3193.00,0.0022
3192.00,0.0022
3191.00,0.0021
3190.00,0.0022
3189.00,0.0022
3188.00,0.0022
3187.00,0.0022
3186.00,0.0022
3185.00,0.0022
3184.00,0.0021
3183.00,0.0021
3182.00,0.0021
3181.00,0.0021
3180.00,0.0021
3179.00,0.0021
3178.00,0.0020
3177.00,0.0020
3176.00,0.0020
3175.00,0.0020
3174.00,0.0020
3173.00,0.0020
3172.00,0.0020
3171.00,0.0020
3170.00,0.0020
3169.00,0.0020
3168.00,0.0020
3167.00,0.0019
3166.00,0.0019
3165.00,0.0019
3164.00,0.0019
3163.00,0.0019
3162.00,0.0019
3161.00,0.0020
3160.00,0.0020
3159.00,0.0020
3158.00,0.0020
3157.00,0.0020
3156.00,0.0020
3155.00,0.0020
3154.00,0.0020
3153.00,0.0020
3152.00,0.0020
3151.00,0.0020
3150.00,0.0020
3149.00,0.0020
3148.00,0.0020
3147.00,0.0020
3146.00,0.0020
3145.00,0.0021
3144.00,0.0021
3143.00,0.0021
3142.00,0.0021
3141.00,0.0021
3140.00,0.0021
3139.00,0.0020
3138.00,0.0020
3137.00,0.0020
3136.00,0.0020
3135.00,0.0020
3134.00,0.0020
3133.00,0.0019
3132.00,0.0019
3131.00,0.0019
3130.00,0.0020
3129.00,0.0019
3128.00,0.0019
3127.00,0.0019
3126.00,0.0018
3125.00,0.0018
3124.00,0.0018
3123.00,0.0018
3122.00,0.0018
3121.00,0.0018
3120.00,0.0018
3119.00,0.0018
3118.00,0.0017
3117.00,0.0017
3116.00,0.0017
3115.00,0.0016
3114.00,0.0016
3113.00,0.0016
3112.00,0.0016
3111.00,0.0016
3110.00,0.0016
3109.00,0.0016
3108.00,0.0016
3107.00,0.0017
3106.00,0.0017
3105.00,0.0017
3104.00,0.0017
3103.00,0.0017
3102.00,0.0016
3101.00,0.0016
3100.00,0.0016
3099.00,0.0016
3098.00,0.0016
3097.00,0.0017
3096.00,0.0017
3095.00,0.0017
3094.00,0.0017
3093.00,0.0017
3092.00,0.0016
3091.00,0.0016
3090.00,0.0017
3089.00,0.0017
3088.00,0.0017
3087.00,0.0018
3086.00,0.0018
3085.00,0.0018
3084.00,0.0018
3083.00,0.0018
3082.00,0.0018
3081.00,0.0018
3080.00,0.0018
3079.00,0.0018
3078.00,0.0018
3077.00,0.0018
3076.00,0.0018
3075.00,0.0018
3074.00,0.0019
3073.00,0.0019
3072.00,0.0019
3071.00,0.0019
3070.00,0.0019
3069.00,0.0019
3068.00,0.0019
3067.00,0.0019
3066.00,0.0019
3065.00,0.0020
3064.00,0.0020
3063.00,0.0021
3062.00,0.0021
3061.00,0.0022
3060.00,0.0022
3059.00,0.0022
3058.00,0.0022
3057.00,0.0022
3056.00,0.0022
3055.00,0.0022
3054.00,0.0022
3053.00,0.0022
3052.00,0.0022
3051.00,0.0022
3050.00,0.0022
3049.00,0.0023
3048.00,0.0023
3047.00,0.0023
3046.00,0.0024
3045.00,0.0024
3044.00,0.0024
3043.00,0.0024
3042.00,0.0024
3041.00,0.0024
3040.00,0.0025
3039.00,0.0025
3038.00,0.0025
3037.00,0.0025
3036.00,0.0026
3035.00,0.0026
3034.00,0.0026
3033.00,0.0027
3032.00,0.0027
3031.00,0.0028
3030.00,0.0028
3029.00,0.0028
3028.00,0.0029
3027.00,0.0029
3026.00,0.0030
3025.00,0.0031
3024.00,0.0032
3023.00,0.0033
3022.00,0.0034
3021.00,0.0034
3020.00,0.0035
3019.00,0.0036
3018.00,0.0037
3017.00,0.0038
3016.00,0.0039
3015.00,0.0040
3014.00,0.0041
3013.00,0.0042
3012.00,0.0043
3011.00,0.0044
3010.00,0.0045
3009.00,0.0047
3008.00,0.0048
3007.00,0.0050
3006.00,0.0052
3005.00,0.0054
3004.00,0.0056
3003.00,0.0058
3002.00,0.0060
3001.00,0.0062
3000.00,0.0064
2999.00,0.0067
2998.00,0.0070
2997.00,0.0073
2996.00,0.0076
2995.00,0.0080
2994.00,0.0084
2993.00,0.0088
2992.00,0.0093
2991.00,0.0098
2990.00,0.0104
2989.00,0.0111
2988.00,0.0119
2987.00,0.0127
2986.00,0.0136
2985.00,0.0146
2984.00,0.0157
2983.00,0.0169
2982.00,0.0184
2981.00,0.0200
2980.00,0.0219
2979.00,0.0239
2978.00,0.0263
2977.00,0.0291
2976.00,0.0322
2975.00,0.0357
2974.00,0.0397
2973.00,0.0443
2972.00,0.0494
2971.00,0.0552
2970.00,0.0617
2969.00,0.0688
2968.00,0.0765
2967.00,0.0846
2966.00,0.0931
2965.00,0.1016
2964.00,0.1099
2963.00,0.1176
2962.00,0.1244
2961.00,0.1301
2960.00,0.1349
2959.00,0.1392
2958.00,0.1434
2957.00,0.1481
2956.00,0.1537
2955.00,0.1605
2954.00,0.1682
2953.00,0.1763
2952.00,0.1836
2951.00,0.1890
2950.00,0.1913
2949.00,0.1896
2948.00,0.1836
2947.00,0.1739
2946.00,0.1617
2945.00,0.1485
2944.00,0.1359
2943.00,0.1250
2942.00,0.1165
2941.00,0.1106
2940.00,0.1073
2939.00,0.1064
2938.00,0.1075
2937.00,0.1105
2936.00,0.1152
2935.00,0.1214
2934.00,0.1290
2933.00,0.1380
2932.00,0.1482
2931.00,0.1594
2930.00,0.1712
2929.00,0.1835
2928.00,0.1958
2927.00,0.2079
2926.00,0.2196
2925.00,0.2310
2924.00,0.2422
2923.00,0.2533
2922.00,0.2644
2921.00,0.2752
2920.00,0.2848
2919.00,0.2923
2918.00,0.2964
2917.00,0.2962
2916.00,0.2914
2915.00,0.2827
2914.00,0.2712
2913.00,0.2585
2912.00,0.2458
2911.00,0.2339
2910.00,0.2233
2909.00,0.2138
2908.00,0.2052
2907.00,0.1972
2906.00,0.1895
2905.00,0.1819
2904.00,0.1745
2903.00,0.1671
2902.00,0.1599
2901.00,0.1530
2900.00,0.1463
2899.00,0.1401
2898.00,0.1342
2897.00,0.1289
2896.00,0.1242
2895.00,0.1200
2894.00,0.1166
2893.00,0.1137
2892.00,0.1115
2891.00,0.1098
2890.00,0.1087
2889.00,0.1081
2888.00,0.1079
2887.00,0.1080
2886.00,0.1084
2885.00,0.1093
2884.00,0.1106
2883.00,0.1124
2882.00,0.1147
2881.00,0.1174
2880.00,0.1202
2879.00,0.1226
2878.00,0.1243
2877.00,0.1249
2876.00,0.1247
2875.00,0.1239
2874.00,0.1232
2873.00,0.1229
2872.00,0.1234
2871.00,0.1247
2870.00,0.1265
2869.00,0.1285
2868.00,0.1297
2867.00,0.1294
2866.00,0.1269
2865.00,0.1220
2864.00,0.1151
2863.00,0.1070
2862.00,0.0989
2861.00,0.0917
2860.00,0.0861
2859.00,0.0821
2858.00,0.0798
2857.00,0.0789
2856.00,0.0791
2855.00,0.0802
2854.00,0.0819
2853.00,0.0841
2852.00,0.0863
2851.00,0.0882
2850.00,0.0896
2849.00,0.0904
2848.00,0.0911
2847.00,0.0920
2846.00,0.0939
2845.00,0.0969
2844.00,0.1011
2843.00,0.1062
2842.00,0.1119
2841.00,0.1173
2840.00,0.1218
2839.00,0.1244
2838.00,0.1244
2837.00,0.1213
2836.00,0.1150
2835.00,0.1060
2834.00,0.0954
2833.00,0.0843
2832.00,0.0737
2831.00,0.0642
2830.00,0.0561
2829.00,0.0495
2828.00,0.0441
2827.00,0.0398
2826.00,0.0363
2825.00,0.0334
2824.00,0.0309
2823.00,0.0289
2822.00,0.0272
2821.00,0.0257
2820.00,0.0244
2819.00,0.0233
2818.00,0.0224
2817.00,0.0215
2816.00,0.0208
2815.00,0.0201
2814.00,0.0195
2813.00,0.0189
2812.00,0.0183
2811.00,0.0178
2810.00,0.0172
2809.00,0.0166
2808.00,0.0160
2807.00,0.0153
2806.00,0.0146
2805.00,0.0140
2804.00,0.0133
2803.00,0.0127
2802.00,0.0122
2801.00,0.0117
2800.00,0.0113
2799.00,0.0110
2798.00,0.0107
2797.00,0.0104
2796.00,0.0102
2795.00,0.0100
2794.00,0.0098
2793.00,0.0095
2792.00,0.0091
2791.00,0.0088
2790.00,0.0085
2789.00,0.0082
2788.00,0.0079
2787.00,0.0076
2786.00,0.0074
2785.00,0.0072
2784.00,0.0069
2783.00,0.0068
2782.00,0.0066
2781.00,0.0064
2780.00,0.0062
2779.00,0.0061
2778.00,0.0059
2777.00,0.0057
2776.00,0.0056
2775.00,0.0055
2774.00,0.0054
2773.00,0.0054
2772.00,0.0053
2771.00,0.0052
2770.00,0.0052
2769.00,0.0051
2768.00,0.0051
2767.00,0.0051
2766.00,0.0051
2765.00,0.0051
2764.00,0.0051
2763.00,0.0050
2762.00,0.0050
2761.00,0.0049
2760.00,0.0049
2759.00,0.0049
2758.00,0.0048
2757.00,0.0048
2756.00,0.0048
2755.00,0.0048
2754.00,0.0048
2753.00,0.0048
2752.00,0.0047
2751.00,0.0047
2750.00,0.0047
2749.00,0.0047
2748.00,0.0047
2747.00,0.0047
2746.00,0.0048
2745.00,0.0048
2744.00,0.0049
2743.00,0.0050
2742.00,0.0051
2741.00,0.0052
2740.00,0.0053
2739.00,0.0054
2738.00,0.0056
2737.00,0.0057
2736.00,0.0059
2735.00,0.0061
2734.00,0.0063
2733.00,0.0064
2732.00,0.0066
2731.00,0.0067
2730.00,0.0069
2729.00,0.0072
2728.00,0.0075
2727.00,0.0078
2726.00,0.0081
2725.00,0.0084
2724.00,0.0085
2723.00,0.0086
2722.00,0.0085
2721.00,0.0083
2720.00,0.0080
2719.00,0.0077
2718.00,0.0073
2717.00,0.0070
2716.00,0.0067
2715.00,0.0064
2714.00,0.0061
2713.00,0.0059
2712.00,0.0057
2711.00,0.0055
2710.00,0.0053
2709.00,0.0052
2708.00,0.0051
2707.00,0.0049
2706.00,0.0048
2705.00,0.0046
2704.00,0.0045
2703.00,0.0044
2702.00,0.0044
2701.00,0.0043
2700.00,0.0043
2699.00,0.0042
2698.00,0.0042
2697.00,0.0041
2696.00,0.0041
2695.00,0.0041
2694.00,0.0041
2693.00,0.0041
2692.00,0.0041
2691.00,0.0042
2690.00,0.0042
2689.00,0.0042
2688.00,0.0042
2687.00,0.0042
2686.00,0.0042
2685.00,0.0042
2684.00,0.0042
2683.00,0.0041
2682.00,0.0041
2681.00,0.0042
2680.00,0.0042
2679.00,0.0042
2678.00,0.0043
2677.00,0.0043
2676.00,0.0043
2675.00,0.0043
2674.00,0.0043
2673.00,0.0042
2672.00,0.0042
2671.00,0.0042
2670.00,0.0042
2669.00,0.0042
2668.00,0.0042
2667.00,0.0042
2666.00,0.0043
2665.00,0.0043
2664.00,0.0044
2663.00,0.0044
2662.00,0.0045
2661.00,0.0045
2660.00,0.0046
2659.00,0.0046
2658.00,0.0046
2657.00,0.0046
2656.00,0.0045
2655.00,0.0044
2654.00,0.0043
2653.00,0.0043
2652.00,0.0042
2651.00,0.0042
2650.00,0.0042
2649.00,0.0042
2648.00,0.0042
2647.00,0.0041
2646.00,0.0041
2645.00,0.0040
2644.00,0.0040
2643.00,0.0039
2642.00,0.0038
2641.00,0.0038
2640.00,0.0037
2639.00,0.0037
2638.00,0.0036
2637.00,0.0036
2636.00,0.0036
2635.00,0.0035
2634.00,0.0035
2633.00,0.0036
2632.00,0.0036
2631.00,0.0037
2630.00,0.0037
2629.00,0.0037
2628.00,0.0037
2627.00,0.0037
2626.00,0.0037
2625.00,0.0038
2624.00,0.0038
2623.00,0.0038
2622.00,0.0038
2621.00,0.0038
2620.00,0.0038
2619.00,0.0038
2618.00,0.0038
2617.00,0.0038
2616.00,0.0038
2615.00,0.0038
2614.00,0.0038
2613.00,0.0038
2612.00,0.0037
2611.00,0.0037
2610.00,0.0036
2609.00,0.0035
2608.00,0.0034
2607.00,0.0033
2606.00,0.0033
2605.00,0.0032
2604.00,0.0032
2603.00,0.0031
2602.00,0.0030
2601.00,0.0030
2600.00,0.0030
2599.00,0.0029
2598.00,0.0030
2597.00,0.0030
2596.00,0.0030
2595.00,0.0031
2594.00,0.0031
2593.00,0.0031
2592.00,0.0031
2591.00,0.0032
2590.00,0.0033
2589.00,0.0034
2588.00,0.0036
2587.00,0.0037
2586.00,0.0038
2585.00,0.0038
2584.00,0.0038
2583.00,0.0038
2582.00,0.0038
2581.00,0.0037
2580.00,0.0037
2579.00,0.0036
2578.00,0.0035
2577.00,0.0034
2576.00,0.0033
2575.00,0.0032
2574.00,0.0030
2573.00,0.0029
2572.00,0.0028
2571.00,0.0026
2570.00,0.0025
2569.00,0.0024
2568.00,0.0024
2567.00,0.0023
2566.00,0.0023
2565.00,0.0022
2564.00,0.0022
2563.00,0.0022
2562.00,0.0021
2561.00,0.0021
2560.00,0.0020
2559.00,0.0020
2558.00,0.0019
2557.00,0.0019
2556.00,0.0018
2555.00,0.0018
2554.00,0.0018
2553.00,0.0019
2552.00,0.0019
2551.00,0.0020
2550.00,0.0019
2549.00,0.0019
2548.00,0.0017
2547.00,0.0017
2546.00,0.0016
2545.00,0.0016
2544.00,0.0015
2543.00,0.0014
2542.00,0.0014
2541.00,0.0013
2540.00,0.0013
2539.00,0.0014
2538.00,0.0014
2537.00,0.0015
2536.00,0.0015
2535.00,0.0015
2534.00,0.0015
2533.00,0.0014
2532.00,0.0014
2531.00,0.0014
2530.00,0.0014
2529.00,0.0014
2528.00,0.0014
2527.00,0.0013
2526.00,0.0013
2525.00,0.0013
2524.00,0.0012
2523.00,0.0012
2522.00,0.0011
2521.00,0.0011
2520.00,0.0010
2519.00,0.0010
2518.00,0.0009
2517.00,0.0009
2516.00,0.0009
2515.00,0.0008
2514.00,0.0008
2513.00,0.0008
2512.00,0.0008
2511.00,0.0008
2510.00,0.0009
2509.00,0.0009
2508.00,0.0009
2507.00,0.0009
2506.00,0.0009
2505.00,0.0008
2504.00,0.0007
2503.00,0.0007
2502.00,0.0007
2501.00,0.0007
2500.00,0.0007
2499.00,0.0008
2498.00,0.0009
2497.00,0.0009
2496.00,0.0009
2495.00,0.0009
2494.00,0.0009
2493.00,0.0008
2492.00,0.0008
2491.00,0.0008
2490.00,0.0008
2489.00,0.0008
2488.00,0.0008
2487.00,0.0008
2486.00,0.0007
2485.00,0.0007
2484.00,0.0007
2483.00,0.0007
2482.00,0.0007
2481.00,0.0007
2480.00,0.0007
2479.00,0.0007
2478.00,0.0007
2477.00,0.0007
2476.00,0.0007
2475.00,0.0007
2474.00,0.0008
2473.00,0.0008
2472.00,0.0007
2471.00,0.0007
2470.00,0.0007
2469.00,0.0007
2468.00,0.0007
2467.00,0.0008
2466.00,0.0008
2465.00,0.0008
2464.00,0.0007
2463.00,0.0007
2462.00,0.0007
2461.00,0.0007
2460.00,0.0007
2459.00,0.0008
2458.00,0.0008
2457.00,0.0008
2456.00,0.0008
2455.00,0.0008
2454.00,0.0008
2453.00,0.0008
2452.00,0.0008
2451.00,0.0008
2450.00,0.0008
2449.00,0.0009
2448.00,0.0009
2447.00,0.0009
2446.00,0.0009
2445.00,0.0009
2444.00,0.0009
2443.00,0.0009
2442.00,0.0008
2441.00,0.0007
2440.00,0.0008
2439.00,0.0008
2438.00,0.0009
2437.00,0.0010
2436.00,0.0010
2435.00,0.0009
2434.00,0.0009
2433.00,0.0009
2432.00,0.0009
2431.00,0.0009
2430.00,0.0009
2429.00,0.0009
2428.00,0.0010
2427.00,0.0010
2426.00,0.0010
2425.00,0.0010
2424.00,0.0009
2423.00,0.0009
2422.00,0.0008
2421.00,0.0008
2420.00,0.0008
2419.00,0.0008
2418.00,0.0008
2417.00,0.0008
2416.00,0.0008
2415.00,0.0008
2414.00,0.0008
2413.00,0.0008
2412.00,0.0008
2411.00,0.0008
2410.00,0.0008
2409.00,0.0008
2408.00,0.0008
2407.00,0.0007
2406.00,0.0007
2405.00,0.0008
2404.00,0.0008
2403.00,0.0008
2402.00,0.0008
2401.00,0.0008
2400.00,0.0008
2399.00,0.0007
2398.00,0.0006
2397.00,0.0006
2396.00,0.0006
2395.00,0.0006
2394.00,0.0006
2393.00,0.0007
2392.00,0.0007
2391.00,0.0006
2390.00,0.0005
2389.00,0.0004
2388.00,0.0004
2387.00,0.0005
2386.00,0.0005
2385.00,0.0004
2384.00,0.0004
2383.00,0.0003
2382.00,0.0002
2381.00,0.0001
2380.00,0.0000
2379.00,0.0000
2378.00,0.0000
2377.00,0.0000
2376.00,0.0001
2375.00,0.0001
2374.00,0.0001
2373.00,0.0001
2372.00,0.0001
2371.00,0.0000
2370.00,0.0001
2369.00,0.0001
2368.00,0.0001
2367.00,0.0001
2366.00,-0.0001
2365.00,-0.0002
2364.00,-0.0003
2363.00,-0.0002
2362.00,-0.0002
2361.00,-0.0001
2360.00,-0.0000
2359.00,0.0000
2358.00,0.0001
2357.00,0.0001
2356.00,0.0002
2355.00,0.0002
2354.00,0.0003
2353.00,0.0003
2352.00,0.0002
2351.00,0.0002
2350.00,0.0001
2349.00,0.0001
2348.00,0.0002
2347.00,0.0002
2346.00,0.0002
2345.00,0.0002
2344.00,0.0001
2343.00,0.0002
2342.00,0.0002
2341.00,0.0003
2340.00,0.0004
2339.00,0.0004
2338.00,0.0005
2337.00,0.0005
2336.00,0.0005
2335.00,0.0004
2334.00,0.0004
2333.00,0.0004
2332.00,0.0005
2331.00,0.0005
2330.00,0.0005
2329.00,0.0005
2328.00,0.0006
2327.00,0.0008
2326.00,0.0012
2325.00,0.0016
2324.00,0.0018
2323.00,0.0018
2322.00,0.0017
2321.00,0.0014
2320.00,0.0012
2319.00,0.0010
2318.00,0.0008
2317.00,0.0007
2316.00,0.0007
2315.00,0.0007
2314.00,0.0007
2313.00,0.0006
2312.00,0.0006
2311.00,0.0005
2310.00,0.0005
2309.00,0.0005
2308.00,0.0005
2307.00,0.0005
2306.00,0.0005
2305.00,0.0005
2304.00,0.0005
2303.00,0.0006
2302.00,0.0007
2301.00,0.0007
2300.00,0.0007
2299.00,0.0008
2298.00,0.0009
2297.00,0.0009
2296.00,0.0010
2295.00,0.0010
2294.00,0.0010
2293.00,0.0010
2292.00,0.0011
2291.00,0.0012
2290.00,0.0014
2289.00,0.0015
2288.00,0.0016
2287.00,0.0017
2286.00,0.0016
2285.00,0.0016
2284.00,0.0016
2283.00,0.0015
2282.00,0.0015
2281.00,0.0014
2280.00,0.0014
2279.00,0.0013
2278.00,0.0013
2277.00,0.0012
2276.00,0.0011
2275.00,0.0011
2274.00,0.0011
2273.00,0.0011
2272.00,0.0011
2271.00,0.0011
2270.00,0.0011
2269.00,0.0012
2268.00,0.0012
2267.00,0.0011
2266.00,0.0011
2265.00,0.0010
2264.00,0.0010
2263.00,0.0009
2262.00,0.0009
2261.00,0.0009
2260.00,0.0010
2259.00,0.0011
2258.00,0.0011
2257.00,0.0010
2256.00,0.0009
2255.00,0.0009
2254.00,0.0009
2253.00,0.0009
2252.00,0.0010
2251.00,0.0009
2250.00,0.0007
2249.00,0.0006
2248.00,0.0006
2247.00,0.0007
2246.00,0.0008
2245.00,0.0008
2244.00,0.0008
2243.00,0.0007
2242.00,0.0006
2241.00,0.0006
2240.00,0.0007
2239.00,0.0007
2238.00,0.0007
2237.00,0.0007
2236.00,0.0006
2235.00,0.0007
2234.00,0.0008
2233.00,0.0009
2232.00,0.0009
2231.00,0.0009
2230.00,0.0009
2229.00,0.0010
2228.00,0.0010
2227.00,0.0009
2226.00,0.0006
2225.00,0.0005
2224.00,0.0005
2223.00,0.0006
2222.00,0.0007
2221.00,0.0006
2220.00,0.0005
2219.00,0.0003
2218.00,0.0002
2217.00,0.0003
2216.00,0.0004
2215.00,0.0006
2214.00,0.0007
2213.00,0.0007
2212.00,0.0007
2211.00,0.0007
2210.00,0.0007
2209.00,0.0006
2208.00,0.0005
2207.00,0.0004
2206.00,0.0004
2205.00,0.0005
2204.00,0.0008
2203.00,0.0009
2202.00,0.0010
2201.00,0.0008
2200.00,0.0007
2199.00,0.0006
2198.00,0.0007
2197.00,0.0008
2196.00,0.0009
2195.00,0.0010
2194.00,0.0011
2193.00,0.0012
2192.00,0.0011
2191.00,0.0009
2190.00,0.0006
2189.00,0.0004
2188.00,0.0004
2187.00,0.0006
2186.00,0.0009
2185.00,0.0010
2184.00,0.0009
2183.00,0.0006
2182.00,0.0003
2181.00,0.0001
2180.00,0.0002
2179.00,0.0003
2178.00,0.0003
2177.00,0.0002
2176.00,0.0001
2175.00,0.0002
2174.00,0.0004
2173.00,0.0005
2172.00,0.0005
2171.00,0.0005
2170.00,0.0005
2169.00,0.0007
2168.00,0.0011
2167.00,0.0016
2166.00,0.0020
2165.00,0.0024
2164.00,0.0025
2163.00,0.0025
2162.00,0.0023
2161.00,0.0016
2160.00,0.0003
2159.00,-0.0013
2158.00,-0.0027
2157.00,-0.0033
2156.00,-0.0031
2155.00,-0.0026
2154.00,-0.0021
2153.00,-0.0017
2152.00,-0.0014
2151.00,-0.0012
2150.00,-0.0011
2149.00,-0.0010
2148.00,-0.0010
2147.00,-0.0010
2146.00,-0.0011
2145.00,-0.0011
2144.00,-0.0011
2143.00,-0.0012
2142.00,-0.0013
2141.00,-0.0014
2140.00,-0.0015
2139.00,-0.0016
2138.00,-0.0017
2137.00,-0.0018
2136.00,-0.0020
2135.00,-0.0023
2134.00,-0.0024
2133.00,-0.0024
2132.00,-0.0021
2131.00,-0.0019
2130.00,-0.0016
2129.00,-0.0014
2128.00,-0.0013
2127.00,-0.0012
2126.00,-0.0012
2125.00,-0.0012
2124.00,-0.0011
2123.00,-0.0010
2122.00,-0.0009
2121.00,-0.0007
2120.00,-0.0005
2119.00,-0.0004
2118.00,-0.0003
2117.00,-0.0003
2116.00,-0.0002
2115.00,-0.0001
2114.00,0.0000
2113.00,0.0002
2112.00,0.0003
2111.00,0.0003
2110.00,0.0002
2109.00,0.0000
2108.00,-0.0001
2107.00,-0.0001
2106.00,-0.0002
2105.00,-0.0002
2104.00,-0.0002
2103.00,-0.0003
2102.00,-0.0003
2101.00,-0.0003
2100.00,-0.0002
2099.00,-0.0001
2098.00,-0.0001
2097.00,-0.0001
2096.00,-0.0002
2095.00,-0.0005
2094.00,-0.0006
2093.00,-0.0007
2092.00,-0.0006
2091.00,-0.0004
2090.00,-0.0003
2089.00,-0.0002
2088.00,-0.0001
2087.00,-0.0000
2086.00,-0.0000
2085.00,-0.0000
2084.00,-0.0000
2083.00,-0.0000
2082.00,0.0000
2081.00,0.0000
2080.00,0.0001
2079.00,0.0002
2078.00,0.0002
2077.00,0.0002
2076.00,0.0002
2075.00,0.0001
2074.00,0.0001
2073.00,0.0001
2072.00,0.0002
2071.00,0.0001
2070.00,-0.0000
2069.00,-0.0002
2068.00,-0.0003
2067.00,-0.0003
2066.00,-0.0004
2065.00,-0.0004
2064.00,-0.0004
2063.00,-0.0004
2062.00,-0.0004
2061.00,-0.0003
2060.00,-0.0003
2059.00,-0.0003
2058.00,-0.0004
2057.00,-0.0004
2056.00,-0.0005
2055.00,-0.0005
2054.00,-0.0004
2053.00,-0.0001
2052.00,0.0002
2051.00,0.0004
2050.00,0.0004
2049.00,0.0003
2048.00,0.0001
2047.00,0.0001
2046.00,0.0001
2045.00,0.0001
2044.00,0.0002
2043.00,0.0001
2042.00,-0.0000
2041.00,-0.0002
2040.00,-0.0003
2039.00,-0.0003
2038.00,-0.0002
2037.00,-0.0000
2036.00,-0.0000
2035.00,-0.0003
2034.00,-0.0008
2033.00,-0.0012
2032.00,-0.0015
2031.00,-0.0015
2030.00,-0.0013
2029.00,-0.0010
2028.00,-0.0008
2027.00,-0.0008
2026.00,-0.0008
2025.00,-0.0007
2024.00,-0.0008
2023.00,-0.0011
2022.00,-0.0014
2021.00,-0.0016
2020.00,-0.0016
2019.00,-0.0015
2018.00,-0.0014
2017.00,-0.0013
2016.00,-0.0011
2015.00,-0.0011
2014.00,-0.0013
2013.00,-0.0015
2012.00,-0.0017
2011.00,-0.0017
2010.00,-0.0017
2009.00,-0.0017
2008.00,-0.0018
2007.00,-0.0018
2006.00,-0.0017
2005.00,-0.0016
2004.00,-0.0013
2003.00,-0.0011
2002.00,-0.0009
2001.00,-0.0010
2000.00,-0.0011
1999.00,-0.0012
1998.00,-0.0012
1997.00,-0.0012
1996.00,-0.0012
1995.00,-0.0013
1994.00,-0.0016
1993.00,-0.0018
1992.00,-0.0019
1991.00,-0.0018
1990.00,-0.0015
1989.00,-0.0012
1988.00,-0.0009
1987.00,-0.0006
1986.00,-0.0004
1985.00,-0.0002
1984.00,-0.0000
1983.00,0.0004
1982.00,0.0009
1981.00,0.0014
1980.00,0.0013
1979.00,0.0006
1978.00,-0.0005
1977.00,-0.0013
1976.00,-0.0016
1975.00,-0.0016
1974.00,-0.0015
1973.00,-0.0015
1972.00,-0.0016
1971.00,-0.0016
1970.00,-0.0017
1969.00,-0.0016
1968.00,-0.0015
1967.00,-0.0015
1966.00,-0.0017
1965.00,-0.0017
1964.00,-0.0016
1963.00,-0.0014
1962.00,-0.0012
1961.00,-0.0012
1960.00,-0.0013
1959.00,-0.0016
1958.00,-0.0018
1957.00,-0.0018
1956.00,-0.0017
1955.00,-0.0015
1954.00,-0.0016
1953.00,-0.0017
1952.00,-0.0018
1951.00,-0.0018
1950.00,-0.0018
1949.00,-0.0018
1948.00,-0.0018
1947.00,-0.0019
1946.00,-0.0019
1945.00,-0.0019
1944.00,-0.0018
1943.00,-0.0017
1942.00,-0.0015
1941.00,-0.0015
1940.00,-0.0016
1939.00,-0.0017
1938.00,-0.0019
1937.00,-0.0018
1936.00,-0.0017
1935.00,-0.0016
1934.00,-0.0015
1933.00,-0.0014
1932.00,-0.0013
1931.00,-0.0013
1930.00,-0.0012
1929.00,-0.0011
1928.00,-0.0011
1927.00,-0.0012
1926.00,-0.0012
1925.00,-0.0012
1924.00,-0.0011
1923.00,-0.0010
1922.00,-0.0009
1921.00,-0.0009
1920.00,-0.0008
1919.00,-0.0008
1918.00,-0.0007
1917.00,-0.0006
1916.00,-0.0005
1915.00,-0.0005
1914.00,-0.0006
1913.00,-0.0007
1912.00,-0.0007
1911.00,-0.0005
1910.00,-0.0004
1909.00,-0.0003
1908.00,-0.0004
1907.00,-0.0004
1906.00,-0.0005
1905.00,-0.0005
1904.00,-0.0004
1903.00,-0.0004
1902.00,-0.0004
1901.00,-0.0003
1900.00,-0.0002
1899.00,-0.0001
1898.00,-0.0001
1897.00,-0.0001
1896.00,-0.0001
1895.00,-0.0001
1894.00,-0.0001
1893.00,-0.0001
1892.00,-0.0001
1891.00,-0.0001
1890.00,-0.0001
1889.00,-0.0001
1888.00,-0.0002
1887.00,-0.0002
1886.00,-0.0002
1885.00,-0.0001
1884.00,-0.0000
1883.00,-0.0001
1882.00,-0.0001
1881.00,-0.0003
1880.00,-0.0003
1879.00,-0.0003
1878.00,-0.0003
1877.00,-0.0003
1876.00,-0.0003
1875.00,-0.0004
1874.00,-0.0004
1873.00,-0.0004
1872.00,-0.0003
1871.00,-0.0003
1870.00,-0.0002
1869.00,-0.0002
1868.00,-0.0002
1867.00,-0.0002
1866.00,-0.0002
1865.00,-0.0002
1864.00,-0.0002
1863.00,-0.0001
1862.00,-0.0002
1861.00,-0.0002
1860.00,-0.0002
1859.00,-0.0002
1858.00,-0.0002
1857.00,-0.0001
1856.00,-0.0000
1855.00,0.0000
1854.00,0.0000
1853.00,0.0000
1852.00,-0.0000
1851.00,-0.0000
1850.00,-0.0001
1849.00,-0.0001
1848.00,-0.0002
1847.00,-0.0002
1846.00,-0.0003
1845.00,-0.0003
1844.00,-0.0003
1843.00,-0.0002
1842.00,-0.0001
1841.00,-0.0001
1840.00,-0.0000
1839.00,-0.0000
1838.00,-0.0000
1837.00,0.0000
1836.00,0.0001
1835.00,0.0001
1834.00,0.0001
1833.00,0.0001
1832.00,0.0000
1831.00,0.0000
1830.00,0.0000
1829.00,0.0001
1828.00,0.0002
1827.00,0.0002
1826.00,0.0002
1825.00,0.0002
1824.00,0.0002
1823.00,0.0002
1822.00,0.0002
1821.00,0.0002
1820.00,0.0002
1819.00,0.0000
1818.00,-0.0001
1817.00,-0.0002
1816.00,-0.0003
1815.00,-0.0003
1814.00,-0.0002
1813.00,-0.0001
1812.00,-0.0001
1811.00,0.0000
1810.00,0.0001
1809.00,0.0001
1808.00,0.0002
1807.00,0.0002
1806.00,0.0002
1805.00,0.0002
1804.00,0.0002
1803.00,0.0002
1802.00,0.0002
1801.00,0.0002
1800.00,0.0002
1799.00,0.0002
1798.00,0.0002
1797.00,0.0002
1796.00,0.0003
1795.00,0.0003
1794.00,0.0003
1793.00,0.0003
1792.00,0.0003
1791.00,0.0003
1790.00,0.0004
1789.00,0.0004
1788.00,0.0005
1787.00,0.0005
1786.00,0.0005
1785.00,0.0005
1784.00,0.0005
1783.00,0.0005
1782.00,0.0005
1781.00,0.0004
1780.00,0.0004
1779.00,0.0004
1778.00,0.0005
1777.00,0.0005
1776.00,0.0006
1775.00,0.0006
1774.00,0.0007
1773.00,0.0007
1772.00,0.0007
1771.00,0.0008
1770.00,0.0008
1769.00,0.0009
1768.00,0.0009
1767.00,0.0009
1766.00,0.0009
1765.00,0.0010
1764.00,0.0010
1763.00,0.0011
1762.00,0.0011
1761.00,0.0011
1760.00,0.0012
1759.00,0.0013
1758.00,0.0014
1757.00,0.0015
1756.00,0.0016
1755.00,0.0017
1754.00,0.0018
1753.00,0.0019
1752.00,0.0020
1751.00,0.0021
1750.00,0.0022
1749.00,0.0023
1748.00,0.0024
1747.00,0.0024
1746.00,0.0024
1745.00,0.0025
1744.00,0.0025
1743.00,0.0025
1742.00,0.0025
1741.00,0.0025
1740.00,0.0025
1739.00,0.0024
1738.00,0.0023
1737.00,0.0023
1736.00,0.0023
1735.00,0.0022
1734.00,0.0021
1733.00,0.0021
1732.00,0.0021
1731.00,0.0021
1730.00,0.0021
1729.00,0.0021
1728.00,0.0020
1727.00,0.0020
1726.00,0.0020
1725.00,0.0020
1724.00,0.0021
1723.00,0.0020
1722.00,0.0020
1721.00,0.0020
1720.00,0.0019
1719.00,0.0018
1718.00,0.0018
1717.00,0.0017
1716.00,0.0018
1715.00,0.0018
1714.00,0.0018
1713.00,0.0017
1712.00,0.0017
1711.00,0.0016
1710.00,0.0015
1709.00,0.0014
1708.00,0.0014
1707.00,0.0014
1706.00,0.0014
1705.00,0.0014
1704.00,0.0014
1703.00,0.0013
1702.00,0.0013
1701.00,0.0013
1700.00,0.0013
1699.00,0.0013
1698.00,0.0013
1697.00,0.0013
1696.00,0.0014
1695.00,0.0015
1694.00,0.0016
1693.00,0.0016
1692.00,0.0016
1691.00,0.0017
1690.00,0.0018
1689.00,0.0019
1688.00,0.0020
1687.00,0.0021
1686.00,0.0021
1685.00,0.0021
1684.00,0.0021
1683.00,0.0021
1682.00,0.0022
1681.00,0.0023
1680.00,0.0023
1679.00,0.0024
1678.00,0.0024
1677.00,0.0024
1676.00,0.0024
1675.00,0.0025
1674.00,0.0025
1673.00,0.0025
1672.00,0.0025
1671.00,0.0024
1670.00,0.0024
1669.00,0.0023
1668.00,0.0022
1667.00,0.0022
1666.00,0.0021
1665.00,0.0021
1664.00,0.0020
1663.00,0.0020
1662.00,0.0019
1661.00,0.0019
1660.00,0.0019
1659.00,0.0019
1658.00,0.0019
1657.00,0.0019
1656.00,0.0019
1655.00,0.0020
1654.00,0.0021
1653.00,0.0023
1652.00,0.0025
1651.00,0.0026
1650.00,0.0026
1649.00,0.0026
1648.00,0.0027
1647.00,0.0029
1646.00,0.0030
1645.00,0.0032
1644.00,0.0032
1643.00,0.0032
1642.00,0.0032
1641.00,0.0033
1640.00,0.0034
1639.00,0.0034
1638.00,0.0035
1637.00,0.0035
1636.00,0.0036
1635.00,0.0036
1634.00,0.0037
1633.00,0.0037
1632.00,0.0037
1631.00,0.0037
1630.00,0.0037
1629.00,0.0037
1628.00,0.0037
1627.00,0.0037
1626.00,0.0036
1625.00,0.0036
1624.00,0.0035
1623.00,0.0035
1622.00,0.0035
1621.00,0.0035
1620.00,0.0035
1619.00,0.0034
1618.00,0.0033
1617.00,0.0032
1616.00,0.0033
1615.00,0.0033
1614.00,0.0033
1613.00,0.0033
1612.00,0.0033
1611.00,0.0033
1610.00,0.0033
1609.00,0.0033
1608.00,0.0033
1607.00,0.0034
1606.00,0.0034
1605.00,0.0033
1604.00,0.0033
1603.00,0.0032
1602.00,0.0032
1601.00,0.0032
1600.00,0.0032
1599.00,0.0032
1598.00,0.0033
1597.00,0.0033
1596.00,0.0034
1595.00,0.0034
1594.00,0.0034
1593.00,0.0034
1592.00,0.0035
1591.00,0.0035
1590.00,0.0036
1589.00,0.0038
1588.00,0.0039
1587.00,0.0040
1586.00,0.0042
1585.00,0.0044
1584.00,0.0046
1583.00,0.0048
1582.00,0.0051
1581.00,0.0054
1580.00,0.0057
1579.00,0.0060
1578.00,0.0062
1577.00,0.0062
1576.00,0.0062
1575.00,0.0062
1574.00,0.0060
1573.00,0.0059
1572.00,0.0058
1571.00,0.0056
1570.00,0.0053
1569.00,0.0051
1568.00,0.0049
1567.00,0.0048
1566.00,0.0047
1565.00,0.0046
1564.00,0.0045
1563.00,0.0045
1562.00,0.0045
1561.00,0.0046
1560.00,0.0046
1559.00,0.0045
1558.00,0.0043
1557.00,0.0043
1556.00,0.0043
1555.00,0.0043
1554.00,0.0043
1553.00,0.0044
1552.00,0.0045
1551.00,0.0046
1550.00,0.0047
1549.00,0.0049
1548.00,0.0050
1547.00,0.0052
1546.00,0.0055
1545.00,0.0058
1544.00,0.0061
1543.00,0.0065
1542.00,0.0068
1541.00,0.0070
1540.00,0.0071
1539.00,0.0069
1538.00,0.0067
1537.00,0.0064
1536.00,0.0061
1535.00,0.0058
1534.00,0.0054
1533.00,0.0051
1532.00,0.0049
1531.00,0.0048
1530.00,0.0047
1529.00,0.0047
1528.00,0.0047
1527.00,0.0047
1526.00,0.0047
1525.00,0.0048
1524.00,0.0049
1523.00,0.0049
1522.00,0.0048
1521.00,0.0047
1520.00,0.0046
1519.00,0.0046
1518.00,0.0046
1517.00,0.0047
1516.00,0.0049
1515.00,0.0049
1514.00,0.0049
1513.00,0.0050
1512.00,0.0051
1511.00,0.0051
1510.00,0.0052
1509.00,0.0052
1508.00,0.0053
1507.00,0.0053
1506.00,0.0054
1505.00,0.0055
1504.00,0.0057
1503.00,0.0058
1502.00,0.0059
1501.00,0.0061
1500.00,0.0064
1499.00,0.0066
1498.00,0.0068
1497.00,0.0070
1496.00,0.0073
1495.00,0.0075
1494.00,0.0077
1493.00,0.0079
1492.00,0.0083
1491.00,0.0086
1490.00,0.0089
1489.00,0.0094
1488.00,0.0100
1487.00,0.0106
1486.00,0.0111
1485.00,0.0119
1484.00,0.0127
1483.00,0.0135
1482.00,0.0145
1481.00,0.0158
1480.00,0.0171
1479.00,0.0185
1478.00,0.0201
1477.00,0.0222
1476.00,0.0248
1475.00,0.0278
1474.00,0.0318
1473.00,0.0376
1472.00,0.0443
1471.00,0.0508
1470.00,0.0572
1469.00,0.0640
1468.00,0.0713
1467.00,0.0794
1466.00,0.0887
1465.00,0.0986
1464.00,0.1072
1463.00,0.1131
1462.00,0.1166
1461.00,0.1188
1460.00,0.1201
1459.00,0.1208
1458.00,0.1210
1457.00,0.1209
1456.00,0.1202
1455.00,0.1191
1454.00,0.1176
1453.00,0.1156
1452.00,0.1127
1451.00,0.1086
1450.00,0.1032
1449.00,0.0957
1448.00,0.0864
1447.00,0.0767
1446.00,0.0681
1445.00,0.0608
1444.00,0.0546
1443.00,0.0497
1442.00,0.0460
1441.00,0.0436
1440.00,0.0422
1439.00,0.0417
1438.00,0.0422
1437.00,0.0427
1436.00,0.0421
1435.00,0.0399
1434.00,0.0362
1433.00,0.0318
1432.00,0.0272
1431.00,0.0231
1430.00,0.0199
1429.00,0.0176
1428.00,0.0160
1427.00,0.0150
1426.00,0.0143
1425.00,0.0137
1424.00,0.0132
1423.00,0.0129
1422.00,0.0128
1421.00,0.0126
1420.00,0.0123
1419.00,0.0120
1418.00,0.0118
1417.00,0.0115
1416.00,0.0112
1415.00,0.0110
1414.00,0.0108
1413.00,0.0107
1412.00,0.0105
1411.00,0.0104
1410.00,0.0104
1409.00,0.0103
1408.00,0.0102
1407.00,0.0102
1406.00,0.0102
1405.00,0.0102
1404.00,0.0101
1403.00,0.0102
1402.00,0.0103
1401.00,0.0104
1400.00,0.0105
1399.00,0.0106
1398.00,0.0109
1397.00,0.0111
1396.00,0.0113
1395.00,0.0118
1394.00,0.0124
1393.00,0.0128
1392.00,0.0133
1391.00,0.0140
1390.00,0.0151
1389.00,0.0165
1388.00,0.0186
1387.00,0.0218
1386.00,0.0261
1385.00,0.0317
1384.00,0.0396
1383.00,0.0508
1382.00,0.0663
1381.00,0.0868
1380.00,0.1125
1379.00,0.1421
1378.00,0.1708
1377.00,0.1917
1376.00,0.1986
1375.00,0.1879
1374.00,0.1632
1373.00,0.1336
1372.00,0.1068
1371.00,0.0849
1370.00,0.0677
1369.00,0.0548
1368.00,0.0460
1367.00,0.0406
1366.00,0.0376
1365.00,0.0363
1364.00,0.0365
1363.00,0.0379
1362.00,0.0401
1361.00,0.0425
1360.00,0.0444
1359.00,0.0450
1358.00,0.0440
1357.00,0.0414
1356.00,0.0376
1355.00,0.0335
1354.00,0.0294
1353.00,0.0260
1352.00,0.0232
1351.00,0.0209
1350.00,0.0191
1349.00,0.0176
1348.00,0.0163
1347.00,0.0153
1346.00,0.0144
1345.00,0.0137
1344.00,0.0131
1343.00,0.0126
1342.00,0.0122
1341.00,0.0118
1340.00,0.0116
1339.00,0.0114
1338.00,0.0112
1337.00,0.0112
1336.00,0.0113
1335.00,0.0115
1334.00,0.0118
1333.00,0.0123
1332.00,0.0128
1331.00,0.0131
1330.00,0.0133
1329.00,0.0131
1328.00,0.0127
1327.00,0.0122
1326.00,0.0116
1325.00,0.0109
1324.00,0.0103
1323.00,0.0098
1322.00,0.0095
1321.00,0.0092
1320.00,0.0089
1319.00,0.0088
1318.00,0.0086
1317.00,0.0084
1316.00,0.0083
1315.00,0.0082
1314.00,0.0082
1313.00,0.0082
1312.00,0.0084
1311.00,0.0086
1310.00,0.0089
1309.00,0.0094
1308.00,0.0102
1307.00,0.0112
1306.00,0.0121
1305.00,0.0127
1304.00,0.0129
1303.00,0.0128
1302.00,0.0124
1301.00,0.0122
1300.00,0.0121
1299.00,0.0122
1298.00,0.0123
1297.00,0.0124
1296.00,0.0124
1295.00,0.0121
1294.00,0.0117
1293.00,0.0111
1292.00,0.0106
1291.00,0.0100
1290.00,0.0096
1289.00,0.0092
1288.00,0.0088
1287.00,0.0085
1286.00,0.0083
1285.00,0.0081
1284.00,0.0080
1283.00,0.0079
1282.00,0.0078
1281.00,0.0078
1280.00,0.0077
1279.00,0.0076
1278.00,0.0075
1277.00,0.0074
1276.00,0.0074
1275.00,0.0073
1274.00,0.0073
1273.00,0.0073
1272.00,0.0074
1271.00,0.0074
1270.00,0.0075
1269.00,0.0075
1268.00,0.0076
1267.00,0.0077
1266.00,0.0079
1265.00,0.0081
1264.00,0.0083
1263.00,0.0086
1262.00,0.0088
1261.00,0.0091
1260.00,0.0096
1259.00,0.0102
1258.00,0.0108
1257.00,0.0113
1256.00,0.0115
1255.00,0.0113
1254.00,0.0108
1253.00,0.0102
1252.00,0.0095
1251.00,0.0089
1250.00,0.0084
1249.00,0.0081
1248.00,0.0078
1247.00,0.0076
1246.00,0.0075
1245.00,0.0074
1244.00,0.0073
1243.00,0.0072
1242.00,0.0071
1241.00,0.0071
1240.00,0.0070
1239.00,0.0069
1238.00,0.0069
1237.00,0.0069
1236.00,0.0069
1235.00,0.0069
1234.00,0.0069
1233.00,0.0070
1232.00,0.0071
1231.00,0.0073
1230.00,0.0075
1229.00,0.0076
1228.00,0.0077
1227.00,0.0079
1226.00,0.0081
1225.00,0.0084
1224.00,0.0088
1223.00,0.0092
1222.00,0.0096
1221.00,0.0099
1220.00,0.0101
1219.00,0.0101
1218.00,0.0100
1217.00,0.0098
1216.00,0.0095
1215.00,0.0092
1214.00,0.0088
1213.00,0.0086
1212.00,0.0084
1211.00,0.0082
1210.00,0.0081
1209.00,0.0079
1208.00,0.0077
1207.00,0.0076
1206.00,0.0075
1205.00,0.0074
1204.00,0.0074
1203.00,0.0073
1202.00,0.0073
1201.00,0.0074
1200.00,0.0074
1199.00,0.0075
1198.00,0.0075
1197.00,0.0075
1196.00,0.0075
1195.00,0.0075
1194.00,0.0075
1193.00,0.0074
1192.00,0.0074
1191.00,0.0074
1190.00,0.0075
1189.00,0.0075
1188.00,0.0075
1187.00,0.0075
1186.00,0.0075
1185.00,0.0075
1184.00,0.0076
1183.00,0.0078
1182.00,0.0079
1181.00,0.0082
1180.00,0.0085
1179.00,0.0089
1178.00,0.0095
1177.00,0.0102
1176.00,0.0112
1175.00,0.0124
1174.00,0.0140
1173.00,0.0160
1172.00,0.0184
1171.00,0.0210
1170.00,0.0236
1169.00,0.0256
1168.00,0.0268
1167.00,0.0270
1166.00,0.0264
1165.00,0.0251
1164.00,0.0237
1163.00,0.0223
1162.00,0.0212
1161.00,0.0203
1160.00,0.0196
1159.00,0.0191
1158.00,0.0187
1157.00,0.0184
1156.00,0.0183
1155.00,0.0182
1154.00,0.0182
1153.00,0.0180
1152.00,0.0176
1151.00,0.0170
1150.00,0.0162
1149.00,0.0152
1148.00,0.0143
1147.00,0.0133
1146.00,0.0124
1145.00,0.0117
1144.00,0.0110
1143.00,0.0103
1142.00,0.0097
1141.00,0.0091
1140.00,0.0086
1139.00,0.0082
1138.00,0.0079
1137.00,0.0076
1136.00,0.0074
1135.00,0.0072
1134.00,0.0070
1133.00,0.0068
1132.00,0.0067
1131.00,0.0067
1130.00,0.0067
1129.00,0.0067
1128.00,0.0067
1127.00,0.0068
1126.00,0.0068
1125.00,0.0068
1124.00,0.0068
1123.00,0.0067
1122.00,0.0067
1121.00,0.0067
1120.00,0.0067
1119.00,0.0068
1118.00,0.0068
1117.00,0.0069
1116.00,0.0071
1115.00,0.0073
1114.00,0.0075
1113.00,0.0076
1112.00,0.0078
1111.00,0.0080
1110.00,0.0083
1109.00,0.0087
1108.00,0.0093
1107.00,0.0099
1106.00,0.0106
1105.00,0.0113
1104.00,0.0117
1103.00,0.0119
1102.00,0.0118
1101.00,0.0114
1100.00,0.0108
1099.00,0.0102
1098.00,0.0095
1097.00,0.0089
1096.00,0.0084
1095.00,0.0081
1094.00,0.0078
1093.00,0.0075
1092.00,0.0073
1091.00,0.0072
1090.00,0.0071
1089.00,0.0070
1088.00,0.0069
1087.00,0.0068
1086.00,0.0067
1085.00,0.0067
1084.00,0.0068
1083.00,0.0068
1082.00,0.0068
1081.00,0.0067
1080.00,0.0067
1079.00,0.0066
1078.00,0.0065
1077.00,0.0065
1076.00,0.0065
1075.00,0.0065
1074.00,0.0065
1073.00,0.0065
1072.00,0.0065
1071.00,0.0064
1070.00,0.0064
1069.00,0.0064
1068.00,0.0064
1067.00,0.0065
1066.00,0.0066
1065.00,0.0066
1064.00,0.0066
1063.00,0.0066
1062.00,0.0067
1061.00,0.0068
1060.00,0.0069
1059.00,0.0070
1058.00,0.0072
1057.00,0.0073
1056.00,0.0074
1055.00,0.0075
1054.00,0.0077
1053.00,0.0080
1052.00,0.0083
1051.00,0.0087
1050.00,0.0091
1049.00,0.0095
1048.00,0.0099
1047.00,0.0103
1046.00,0.0107
1045.00,0.0110
1044.00,0.0111
1043.00,0.0112
1042.00,0.0111
1041.00,0.0110
1040.00,0.0108
1039.00,0.0107
1038.00,0.0107
1037.00,0.0107
1036.00,0.0107
1035.00,0.0105
1034.00,0.0103
1033.00,0.0101
1032.00,0.0099
1031.00,0.0099
1030.00,0.0099
1029.00,0.0100
1028.00,0.0101
1027.00,0.0102
1026.00,0.0103
1025.00,0.0105
1024.00,0.0107
1023.00,0.0109
1022.00,0.0113
1021.00,0.0115
1020.00,0.0117
1019.00,0.0119
1018.00,0.0121
1017.00,0.0122
1016.00,0.0122
1015.00,0.0122
1014.00,0.0121
1013.00,0.0121
1012.00,0.0122
1011.00,0.0123
1010.00,0.0124
1009.00,0.0125
1008.00,0.0127
1007.00,0.0130
1006.00,0.0135
1005.00,0.0143
1004.00,0.0155
1003.00,0.0173
1002.00,0.0198
1001.00,0.0229
1000.00,0.0260
999.00,0.0285
998.00,0.0296
997.00,0.0288
996.00,0.0264
995.00,0.0232
994.00,0.0199
993.00,0.0171
992.00,0.0149
991.00,0.0133
990.00,0.0123
989.00,0.0115
988.00,0.0110
987.00,0.0108
986.00,0.0107
985.00,0.0108
984.00,0.0112
983.00,0.0118
982.00,0.0128
981.00,0.0143
980.00,0.0162
979.00,0.0186
978.00,0.0217
977.00,0.0253
976.00,0.0291
975.00,0.0326
974.00,0.0351
973.00,0.0357
972.00,0.0343
971.00,0.0309
970.00,0.0266
969.00,0.0222
968.00,0.0185
967.00,0.0158
966.00,0.0139
965.00,0.0125
964.00,0.0114
963.00,0.0105
962.00,0.0099
961.00,0.0094
960.00,0.0090
959.00,0.0087
958.00,0.0084
957.00,0.0082
956.00,0.0081
955.00,0.0079
954.00,0.0077
953.00,0.0075
952.00,0.0073
951.00,0.0071
950.00,0.0071
949.00,0.0072
948.00,0.0073
947.00,0.0075
946.00,0.0077
945.00,0.0079
944.00,0.0082
943.00,0.0086
942.00,0.0089
941.00,0.0091
940.00,0.0091
939.00,0.0088
938.00,0.0083
937.00,0.0077
936.00,0.0073
935.00,0.0069
934.00,0.0066
933.00,0.0064
932.00,0.0061
931.00,0.0060
930.00,0.0059
929.00,0.0058
928.00,0.0058
927.00,0.0057
926.00,0.0056
925.00,0.0056
924.00,0.0056
923.00,0.0057
922.00,0.0058
921.00,0.0058
920.00,0.0058
919.00,0.0058
918.00,0.0058
917.00,0.0059
916.00,0.0060
915.00,0.0060
914.00,0.0061
913.00,0.0062
912.00,0.0063
911.00,0.0064
910.00,0.0065
909.00,0.0068
908.00,0.0071
907.00,0.0077
906.00,0.0084
905.00,0.0096
904.00,0.0111
903.00,0.0131
902.00,0.0153
901.00,0.0172
900.00,0.0183
899.00,0.0184
898.00,0.0173
897.00,0.0155
896.00,0.0135
895.00,0.0116
894.00,0.0101
893.00,0.0090
892.00,0.0082
891.00,0.0076
890.00,0.0072
889.00,0.0070
888.00,0.0070
887.00,0.0070
886.00,0.0070
885.00,0.0068
884.00,0.0066
883.00,0.0063
882.00,0.0061
881.00,0.0060
880.00,0.0060
879.00,0.0060
878.00,0.0062
877.00,0.0064
876.00,0.0067
875.00,0.0070
874.00,0.0071
873.00,0.0070
872.00,0.0070
871.00,0.0069
870.00,0.0069
869.00,0.0069
868.00,0.0070
867.00,0.0071
866.00,0.0072
865.00,0.0073
864.00,0.0074
863.00,0.0074
862.00,0.0075
861.00,0.0076
860.00,0.0077
859.00,0.0079
858.00,0.0080
857.00,0.0080
856.00,0.0082
855.00,0.0083
854.00,0.0084
853.00,0.0085
852.00,0.0088
851.00,0.0091
850.00,0.0095
849.00,0.0100
848.00,0.0105
847.00,0.0115
846.00,0.0132
845.00,0.0159
844.00,0.0196
843.00,0.0239
842.00,0.0272
841.00,0.0283
840.00,0.0264
839.00,0.0225
838.00,0.0183
837.00,0.0150
836.00,0.0129
835.00,0.0116
834.00,0.0108
833.00,0.0102
832.00,0.0098
831.00,0.0095
830.00,0.0093
829.00,0.0092
828.00,0.0091
827.00,0.0090
826.00,0.0089
825.00,0.0088
824.00,0.0087
823.00,0.0088
822.00,0.0089
821.00,0.0091
820.00,0.0095
819.00,0.0099
818.00,0.0104
817.00,0.0110
816.00,0.0118
815.00,0.0130
814.00,0.0146
813.00,0.0166
812.00,0.0189
811.00,0.0210
810.00,0.0225
809.00,0.0230
808.00,0.0224
807.00,0.0208
806.00,0.0186
805.00,0.0164
804.00,0.0144
803.00,0.0129
802.00,0.0119
801.00,0.0112
800.00,0.0106
799.00,0.0102
798.00,0.0098
797.00,0.0094
796.00,0.0091
795.00,0.0088
794.00,0.0085
793.00,0.0081
792.00,0.0077
791.00,0.0075
790.00,0.0073
789.00,0.0073
788.00,0.0071
787.00,0.0069
786.00,0.0066
785.00,0.0064
784.00,0.0063
783.00,0.0061
782.00,0.0060
781.00,0.0058
780.00,0.0058
779.00,0.0058
778.00,0.0058
777.00,0.0057
776.00,0.0056
775.00,0.0056
774.00,0.0056
773.00,0.0058
772.00,0.0059
771.00,0.0059
770.00,0.0060
769.00,0.0060
768.00,0.0060
767.00,0.0060
766.00,0.0061
765.00,0.0063
764.00,0.0064
763.00,0.0066
762.00,0.0066
761.00,0.0065
760.00,0.0064
759.00,0.0064
758.00,0.0065
757.00,0.0066
756.00,0.0067
755.00,0.0068
754.00,0.0069
753.00,0.0070
752.00,0.0071
751.00,0.0071
750.00,0.0072
749.00,0.0073
748.00,0.0073
747.00,0.0074
746.00,0.0074
745.00,0.0075
744.00,0.0075
743.00,0.0076
742.00,0.0079
741.00,0.0083
740.00,0.0087
739.00,0.0092
738.00,0.0096
737.00,0.0100
736.00,0.0105
735.00,0.0110
734.00,0.0115
733.00,0.0121
732.00,0.0127
731.00,0.0134
730.00,0.0140
729.00,0.0143
728.00,0.0144
727.00,0.0144
726.00,0.0144
725.00,0.0146
724.00,0.0151
723.00,0.0159
722.00,0.0166
721.00,0.0171
720.00,0.0171
719.00,0.0164
718.00,0.0153
717.00,0.0140
716.00,0.0128
715.00,0.0119
714.00,0.0113
713.00,0.0110
712.00,0.0106
711.00,0.0103
710.00,0.0100
709.00,0.0097
708.00,0.0095
707.00,0.0093
706.00,0.0092
705.00,0.0091
704.00,0.0091
703.00,0.0091
702.00,0.0092
701.00,0.0093
700.00,0.0092
699.00,0.0090
698.00,0.0088
697.00,0.0085
696.00,0.0084
695.00,0.0084
694.00,0.0085
693.00,0.0086
692.00,0.0086
691.00,0.0084
690.00,0.0083
689.00,0.0082
688.00,0.0082
687.00,0.0085
686.00,0.0087
685.00,0.0090
684.00,0.0091
683.00,0.0091
682.00,0.0091
681.00,0.0089
680.00,0.0088
679.00,0.0087
678.00,0.0087
677.00,0.0088
676.00,0.0090
675.00,0.0093
674.00,0.0096
673.00,0.0098
672.00,0.0100
671.00,0.0100
670.00,0.0099
669.00,0.0099
668.00,0.0099
667.00,0.0098
666.00,0.0095
665.00,0.0089
664.00,0.0086
663.00,0.0085
662.00,0.0085
661.00,0.0084
660.00,0.0082
659.00,0.0080
658.00,0.0079
657.00,0.0077
656.00,0.0076
655.00,0.0075
654.00,0.0075
653.00,0.0077
652.00,0.0079
651.00,0.0080
650.00,0.0080
649.00,0.0077
648.00,0.0075
647.00,0.0074
646.00,0.0074
645.00,0.0075
644.00,0.0076
643.00,0.0076
642.00,0.0076
641.00,0.0076
640.00,0.0075
639.00,0.0074
638.00,0.0073
637.00,0.0073
636.00,0.0074
635.00,0.0075
634.00,0.0074
633.00,0.0073
632.00,0.0073
631.00,0.0074
630.00,0.0076
629.00,0.0077
628.00,0.0077
627.00,0.0075
626.00,0.0074
625.00,0.0074
624.00,0.0074
623.00,0.0076
622.00,0.0078
621.00,0.0079
620.00,0.0080
619.00,0.0080
618.00,0.0079
617.00,0.0079
616.00,0.0078
615.00,0.0076
614.00,0.0073
613.00,0.0070
612.00,0.0069
611.00,0.0070
610.00,0.0072
609.00,0.0074
608.00,0.0075
607.00,0.0076
606.00,0.0076
605.00,0.0075
604.00,0.0072
603.00,0.0069
602.00,0.0069
601.00,0.0071
600.00,0.0072
599.00,0.0071
598.00,0.0070
597.00,0.0068
596.00,0.0068
595.00,0.0069
594.00,0.0069
593.00,0.0067
592.00,0.0065
591.00,0.0065
590.00,0.0067
589.00,0.0071
588.00,0.0075
587.00,0.0076
586.00,0.0075
585.00,0.0073
584.00,0.0070
583.00,0.0067
582.00,0.0066
581.00,0.0069
580.00,0.0073
579.00,0.0077
578.00,0.0076
577.00,0.0073
576.00,0.0070
575.00,0.0070
574.00,0.0073
573.00,0.0075
572.00,0.0076
571.00,0.0075
570.00,0.0075
569.00,0.0075
568.00,0.0076
567.00,0.0077
566.00,0.0078
565.00,0.0080
564.00,0.0081
563.00,0.0080
562.00,0.0078
561.00,0.0075
560.00,0.0071
559.00,0.0069
558.00,0.0067
557.00,0.0067
556.00,0.0069
555.00,0.0072
554.00,0.0075
553.00,0.0075
552.00,0.0072
551.00,0.0067
550.00,0.0065
549.00,0.0066
548.00,0.0070
547.00,0.0074
546.00,0.0079
545.00,0.0084
544.00,0.0089
543.00,0.0093
542.00,0.0094
541.00,0.0093
540.00,0.0094
539.00,0.0096
538.00,0.0099
537.00,0.0102
536.00,0.0104
535.00,0.0106
534.00,0.0106
533.00,0.0106
532.00,0.0104
531.00,0.0102
530.00,0.0103
529.00,0.0106
528.00,0.0109
527.00,0.0107
526.00,0.0101
525.00,0.0096
524.00,0.0092
523.00,0.0089
522.00,0.0085
521.00,0.0079
520.00,0.0074
519.00,0.0072
518.00,0.0075
517.00,0.0078
516.00,0.0078
515.00,0.0074
514.00,0.0070
513.00,0.0068
512.00,0.0071
511.00,0.0076
510.00,0.0081
509.00,0.0085
508.00,0.0085
507.00,0.0084
506.00,0.0083
505.00,0.0081
504.00,0.0079
503.00,0.0074
502.00,0.0070
501.00,0.0068
500.00,0.0070
499.00,0.0073
498.00,0.0077
497.00,0.0081
496.00,0.0086
495.00,0.0089
494.00,0.0086
493.00,0.0079
492.00,0.0073
491.00,0.0073
490.00,0.0080
489.00,0.0089
488.00,0.0094
487.00,0.0092
486.00,0.0087
485.00,0.0086
484.00,0.0090
483.00,0.0099
482.00,0.0105
481.00,0.0105
480.00,0.0099
479.00,0.0092
478.00,0.0086
477.00,0.0088
476.00,0.0096
475.00,0.0109
474.00,0.0121
473.00,0.0129
472.00,0.0133
471.00,0.0137
470.00,0.0139
469.00,0.0138
468.00,0.0139
467.00,0.0146
466.00,0.0160
465.00,0.0176
464.00,0.0190
463.00,0.0199
462.00,0.0205
461.00,0.0205
460.00,0.0204
459.00,0.0202
458.00,0.0202
457.00,0.0201
456.00,0.0196
455.00,0.0190
454.00,0.0185
453.00,0.0186
452.00,0.0190
451.00,0.0193
450.00,0.0190
