Created as New Dataset,Sample 069 By Administrator Date Wednesday, September 03 2025
cm-1,A
4000.00,0.0008
3999.00,0.0008
3998.00,0.0008
3997.00,0.0007
3996.00,0.0007
3995.00,0.0007
3994.00,0.0007
3993.00,0.0007
3992.00,0.0007
3991.00,0.0008
3990.00,0.0008
3989.00,0.0008
3988.00,0.0008
3987.00,0.0008
3986.00,0.0008
3985.00,0.0008
3984.00,0.0008
3983.00,0.0007
3982.00,0.0007
3981.00,0.0006
3980.00,0.0006
3979.00,0.0006
3978.00,0.0006
3977.00,0.0007
3976.00,0.0007
3975.00,0.0007
3974.00,0.0007
3973.00,0.0007
3972.00,0.0007
3971.00,0.0007
3970.00,0.0007
3969.00,0.0006
3968.00,0.0006
3967.00,0.0006
3966.00,0.0006
3965.00,0.0006
3964.00,0.0006
3963.00,0.0006
3962.00,0.0006
3961.00,0.0005
3960.00,0.0005
3959.00,0.0005
3958.00,0.0006
3957.00,0.0006
3956.00,0.0006
3955.00,0.0006
3954.00,0.0006
3953.00,0.0006
3952.00,0.0006
3951.00,0.0006
3950.00,0.0006
3949.00,0.0006
3948.00,0.0006
3947.00,0.0006
3946.00,0.0006
3945.00,0.0006
3944.00,0.0006
3943.00,0.0007
3942.00,0.0007
3941.00,0.0007
3940.00,0.0006
3939.00,0.0006
3938.00,0.0006
3937.00,0.0006
3936.00,0.0006
3935.00,0.0006
3934.00,0.0006
3933.00,0.0006
3932.00,0.0006
3931.00,0.0006
3930.00,0.0006
3929.00,0.0006
3928.00,0.0007
3927.00,0.0007
3926.00,0.0007
3925.00,0.0007
3924.00,0.0007
3923.00,0.0007
3922.00,0.0006
3921.00,0.0006
3920.00,0.0006
3919.00,0.0007
3918.00,0.0007
3917.00,0.0006
3916.00,0.0006
3915.00,0.0006
3914.00,0.0006
3913.00,0.0006
3912.00,0.0005
3911.00,0.0005
3910.00,0.0006
3909.00,0.0006
3908.00,0.0006
3907.00,0.0006
3906.00,0.0007
3905.00,0.0007
3904.00,0.0007
3903.00,0.0006
3902.00,0.0006
3901.00,0.0006
3900.00,0.0006
3899.00,0.0006
3898.00,0.0006
3897.00,0.0006
3896.00,0.0005
3895.00,0.0005
3894.00,0.0005
3893.00,0.0006
3892.00,0.0006
3891.00,0.0006
3890.00,0.0006
3889.00,0.0006
3888.00,0.0006
3887.00,0.0006
3886.00,0.0006
3885.00,0.0006
3884.00,0.0006
3883.00,0.0006
3882.00,0.0006
3881.00,0.0006
3880.00,0.0006
3879.00,0.0006
3878.00,0.0006
3877.00,0.0006
3876.00,0.0006
3875.00,0.0006
3874.00,0.0006
3873.00,0.0005
3872.00,0.0005
3871.00,0.0005
3870.00,0.0004
3869.00,0.0004
3868.00,0.0004
3867.00,0.0004
3866.00,0.0004
3865.00,0.0005
3864.00,0.0005
3863.00,0.0005
3862.00,0.0005
3861.00,0.0004
3860.00,0.0004
3859.00,0.0004
3858.00,0.0004
3857.00,0.0004
3856.00,0.0004
3855.00,0.0004
3854.00,0.0004
3853.00,0.0005
3852.00,0.0005
3851.00,0.0005
3850.00,0.0006
3849.00,0.0006
3848.00,0.0006
3847.00,0.0006
3846.00,0.0006
3845.00,0.0006
3844.00,0.0006
3843.00,0.0005
3842.00,0.0005
3841.00,0.0004
3840.00,0.0004
3839.00,0.0004
3838.00,0.0004
3837.00,0.0004
3836.00,0.0004
3835.00,0.0004
3834.00,0.0004
3833.00,0.0005
3832.00,0.0005
3831.00,0.0005
3830.00,0.0005
3829.00,0.0005
3828.00,0.0005
3827.00,0.0005
3826.00,0.0005
3825.00,0.0005
3824.00,0.0005
3823.00,0.0005
3822.00,0.0005
3821.00,0.0005
3820.00,0.0005
3819.00,0.0005
3818.00,0.0005
3817.00,0.0005
3816.00,0.0005
3815.00,0.0005
3814.00,0.0005
3813.00,0.0005
3812.00,0.0005
3811.00,0.0005
3810.00,0.0005
3809.00,0.0005
3808.00,0.0005
3807.00,0.0005
3806.00,0.0005
3805.00,0.0005
3804.00,0.0005
3803.00,0.0005
3802.00,0.0005
3801.00,0.0005
3800.00,0.0005
3799.00,0.0005
3798.00,0.0005
3797.00,0.0006
3796.00,0.0006
3795.00,0.0006
3794.00,0.0006
3793.00,0.0006
3792.00,0.0006
3791.00,0.0006
3790.00,0.0006
3789.00,0.0006
3788.00,0.0006
3787.00,0.0006
3786.00,0.0006
3785.00,0.0006
3784.00,0.0006
3783.00,0.0006
3782.00,0.0006
3781.00,0.0006
3780.00,0.0007
3779.00,0.0007
3778.00,0.0007
3777.00,0.0007
3776.00,0.0006
3775.00,0.0006
3774.00,0.0006
3773.00,0.0006
3772.00,0.0006
3771.00,0.0006
3770.00,0.0006
3769.00,0.0006
3768.00,0.0006
3767.00,0.0006
3766.00,0.0006
3765.00,0.0006
3764.00,0.0006
3763.00,0.0006
3762.00,0.0006
3761.00,0.0006
3760.00,0.0005
3759.00,0.0006
3758.00,0.0006
3757.00,0.0006
3756.00,0.0006
3755.00,0.0006
3754.00,0.0006
3753.00,0.0005
3752.00,0.0005
3751.00,0.0005
3750.00,0.0005
3749.00,0.0004
3748.00,0.0004
3747.00,0.0004
3746.00,0.0004
3745.00,0.0004
3744.00,0.0005
3743.00,0.0005
3742.00,0.0005
3741.00,0.0005
3740.00,0.0005
3739.00,0.0004
3738.00,0.0004
3737.00,0.0003
3736.00,0.0003
3735.00,0.0004
3734.00,0.0004
3733.00,0.0003
3732.00,0.0003
3731.00,0.0003
3730.00,0.0003
3729.00,0.0004
3728.00,0.0004
3727.00,0.0004
3726.00,0.0005
3725.00,0.0005
3724.00,0.0005
3723.00,0.0005
3722.00,0.0005
3721.00,0.0005
3720.00,0.0004
3719.00,0.0004
3718.00,0.0004
3717.00,0.0004
3716.00,0.0004
3715.00,0.0004
3714.00,0.0004
3713.00,0.0004
3712.00,0.0004
3711.00,0.0004
3710.00,0.0004
3709.00,0.0004
3708.00,0.0004
3707.00,0.0003
3706.00,0.0003
3705.00,0.0003
3704.00,0.0003
3703.00,0.0004
3702.00,0.0004
3701.00,0.0004
3700.00,0.0004
3699.00,0.0004
3698.00,0.0004
3697.00,0.0004
3696.00,0.0004
3695.00,0.0004
3694.00,0.0003
3693.00,0.0003
3692.00,0.0003
3691.00,0.0003
3690.00,0.0003
3689.00,0.0004
3688.00,0.0004
3687.00,0.0004
3686.00,0.0004
3685.00,0.0004
3684.00,0.0003
3683.00,0.0003
3682.00,0.0004
3681.00,0.0004
3680.00,0.0004
3679.00,0.0005
3678.00,0.0005
3677.00,0.0005
3676.00,0.0004
3675.00,0.0004
3674.00,0.0004
3673.00,0.0004
3672.00,0.0004
3671.00,0.0004
3670.00,0.0004
3669.00,0.0004
3668.00,0.0004
3667.00,0.0004
3666.00,0.0005
3665.00,0.0005
3664.00,0.0006
3663.00,0.0006
3662.00,0.0005
3661.00,0.0005
3660.00,0.0004
3659.00,0.0004
3658.00,0.0005
3657.00,0.0005
3656.00,0.0005
3655.00,0.0005
3654.00,0.0005
3653.00,0.0004
3652.00,0.0004
3651.00,0.0004
3650.00,0.0004
3649.00,0.0004
3648.00,0.0004
3647.00,0.0004
3646.00,0.0004
3645.00,0.0004
3644.00,0.0004
3643.00,0.0004
3642.00,0.0004
3641.00,0.0005
3640.00,0.0005
3639.00,0.0005
3638.00,0.0005
3637.00,0.0005
3636.00,0.0005
3635.00,0.0005
3634.00,0.0005
3633.00,0.0005
3632.00,0.0005
3631.00,0.0004
3630.00,0.0003
3629.00,0.0003
3628.00,0.0004
3627.00,0.0005
3626.00,0.0005
3625.00,0.0005
3624.00,0.0005
3623.00,0.0006
3622.00,0.0006
3621.00,0.0005
3620.00,0.0005
3619.00,0.0005
3618.00,0.0005
3617.00,0.0005
3616.00,0.0005
3615.00,0.0006
3614.00,0.0006
3613.00,0.0006
3612.00,0.0006
3611.00,0.0006
3610.00,0.0006
3609.00,0.0007
3608.00,0.0008
3607.00,0.0008
3606.00,0.0008
3605.00,0.0008
3604.00,0.0008
3603.00,0.0008
3602.00,0.0008
3601.00,0.0008
3600.00,0.0008
3599.00,0.0008
3598.00,0.0008
3597.00,0.0007
3596.00,0.0007
3595.00,0.0007
3594.00,0.0007
3593.00,0.0008
3592.00,0.0008
3591.00,0.0009
3590.00,0.0009
3589.00,0.0009
3588.00,0.0009
3587.00,0.0009
3586.00,0.0009
3585.00,0.0009
3584.00,0.0010
3583.00,0.0010
3582.00,0.0011
3581.00,0.0011
3580.00,0.0011
3579.00,0.0011
3578.00,0.0010
3577.00,0.0010
3576.00,0.0010
3575.00,0.0010
3574.00,0.0011
3573.00,0.0011
3572.00,0.0011
3571.00,0.0012
3570.00,0.0012
3569.00,0.0012
3568.00,0.0013
3567.00,0.0014
3566.00,0.0014
3565.00,0.0014
3564.00,0.0014
3563.00,0.0013
3562.00,0.0012
3561.00,0.0012
3560.00,0.0012
3559.00,0.0013
3558.00,0.0013
3557.00,0.0013
3556.00,0.0014
3555.00,0.0014
3554.00,0.0014
3553.00,0.0015
3552.00,0.0015
3551.00,0.0015
3550.00,0.0015
3549.00,0.0015
3548.00,0.0015
3547.00,0.0015
3546.00,0.0016
3545.00,0.0017
3544.00,0.0017
3543.00,0.0017
3542.00,0.0017
3541.00,0.0017
3540.00,0.0017
3539.00,0.0016
3538.00,0.0017
3537.00,0.0017
3536.00,0.0017
3535.00,0.0018
3534.00,0.0018
3533.00,0.0018
3532.00,0.0018
3531.00,0.0018
3530.00,0.0018
3529.00,0.0019
3528.00,0.0019
3527.00,0.0019
3526.00,0.0019
3525.00,0.0020
3524.00,0.0020
3523.00,0.0020
3522.00,0.0020
3521.00,0.0020
3520.00,0.0020
3519.00,0.0021
3518.00,0.0021
3517.00,0.0021
3516.00,0.0022
3515.00,0.0022
3514.00,0.0021
3513.00,0.0021
3512.00,0.0021
3511.00,0.0021
3510.00,0.0022
3509.00,0.0022
3508.00,0.0023
3507.00,0.0024
3506.00,0.0024
3505.00,0.0024
3504.00,0.0024
3503.00,0.0024
3502.00,0.0024
3501.00,0.0024
3500.00,0.0024
3499.00,0.0023
3498.00,0.0024
3497.00,0.0024
3496.00,0.0025
3495.00,0.0025
3494.00,0.0026
3493.00,0.0026
3492.00,0.0026
3491.00,0.0026
3490.00,0.0026
3489.00,0.0027
3488.00,0.0027
3487.00,0.0027
3486.00,0.0027
3485.00,0.0027
3484.00,0.0027
3483.00,0.0027
3482.00,0.0027
3481.00,0.0027
3480.00,0.0028
3479.00,0.0028
3478.00,0.0028
3477.00,0.0028
3476.00,0.0028
3475.00,0.0028
3474.00,0.0028
3473.00,0.0028
3472.00,0.0029
3471.00,0.0029
3470.00,0.0029
3469.00,0.0029
3468.00,0.0029
3467.00,0.0029
3466.00,0.0029
3465.00,0.0030
3464.00,0.0030
3463.00,0.0030
3462.00,0.0030
3461.00,0.0030
3460.00,0.0031
3459.00,0.0031
3458.00,0.0031
3457.00,0.0031
3456.00,0.0031
3455.00,0.0031
3454.00,0.0032
3453.00,0.0032
3452.00,0.0032
3451.00,0.0033
3450.00,0.0033
3449.00,0.0033
3448.00,0.0033
3447.00,0.0033
3446.00,0.0033
3445.00,0.0034
3444.00,0.0034
3443.00,0.0033
3442.00,0.0033
3441.00,0.0033
3440.00,0.0033
3439.00,0.0034
3438.00,0.0034
3437.00,0.0034
3436.00,0.0035
3435.00,0.0035
3434.00,0.0036
3433.00,0.0036
3432.00,0.0036
3431.00,0.0036
3430.00,0.0036
3429.00,0.0036
3428.00,0.0036
3427.00,0.0036
3426.00,0.0036
3425.00,0.0037
3424.00,0.0037
3423.00,0.0037
3422.00,0.0037
3421.00,0.0037
3420.00,0.0038
3419.00,0.0038
3418.00,0.0038
3417.00,0.0039
3416.00,0.0039
3415.00,0.0039
3414.00,0.0039
3413.00,0.0040
3412.00,0.0040
3411.00,0.0040
3410.00,0.0040
3409.00,0.0040
3408.00,0.0040
3407.00,0.0040
3406.00,0.0039
3405.00,0.0039
3404.00,0.0039
3403.00,0.0039
3402.00,0.0039
3401.00,0.0040
3400.00,0.0040
3399.00,0.0040
3398.00,0.0040
3397.00,0.0041
3396.00,0.0041
3395.00,0.0041
3394.00,0.0041
3393.00,0.0041
3392.00,0.0042
3391.00,0.0043
3390.00,0.0043
3389.00,0.0042
3388.00,0.0042
3387.00,0.0042
3386.00,0.0042
3385.00,0.0042
3384.00,0.0042
3383.00,0.0042
3382.00,0.0042
3381.00,0.0042
3380.00,0.0042
3379.00,0.0042
3378.00,0.0042
3377.00,0.0043
3376.00,0.0043
3375.00,0.0043
3374.00,0.0043
3373.00,0.0043
3372.00,0.0043
3371.00,0.0043
3370.00,0.0043
3369.00,0.0044
3368.00,0.0044
3367.00,0.0044
3366.00,0.0044
3365.00,0.0044
3364.00,0.0044
3363.00,0.0044
3362.00,0.0044
3361.00,0.0044
3360.00,0.0044
3359.00,0.0044
3358.00,0.0044
3357.00,0.0044
3356.00,0.0044
3355.00,0.0044
3354.00,0.0044
3353.00,0.0044
3352.00,0.0044
3351.00,0.0045
3350.00,0.0045
3349.00,0.0045
3348.00,0.0045
3347.00,0.0045
3346.00,0.0045
3345.00,0.0046
3344.00,0.0046
3343.00,0.0046
3342.00,0.0046
3341.00,0.0045
3340.00,0.0045
3339.00,0.0045
3338.00,0.0045
3337.00,0.0045
3336.00,0.0045
3335.00,0.0045
3334.00,0.0046
3333.00,0.0046
3332.00,0.0046
3331.00,0.0046
3330.00,0.0046
3329.00,0.0045
3328.00,0.0045
3327.00,0.0045
3326.00,0.0045
3325.00,0.0045
3324.00,0.0045
3323.00,0.0045
3322.00,0.0045
3321.00,0.0045
3320.00,0.0045
3319.00,0.0045
3318.00,0.0045
3317.00,0.0045
3316.00,0.0045
3315.00,0.0046
3314.00,0.0046
3313.00,0.0047
3312.00,0.0047
3311.00,0.0047
3310.00,0.0046
3309.00,0.0046
3308.00,0.0046
3307.00,0.0046
3306.00,0.0047
3305.00,0.0047
3304.00,0.0048
3303.00,0.0048
3302.00,0.0048
3301.00,0.0048
3300.00,0.0048
3299.00,0.0048
3298.00,0.0047
3297.00,0.0047
3296.00,0.0047
3295.00,0.0047
3294.00,0.0046
3293.00,0.0046
3292.00,0.0046
3291.00,0.0046
3290.00,0.0045
3289.00,0.0045
3288.00,0.0044
3287.00,0.0044
3286.00,0.0044
3285.00,0.0044
3284.00,0.0044
3283.00,0.0044
3282.00,0.0043
3281.00,0.0043
3280.00,0.0043
3279.00,0.0043
3278.00,0.0043
3277.00,0.0043
3276.00,0.0043
3275.00,0.0043
3274.00,0.0043
3273.00,0.0043
3272.00,0.0042
3271.00,0.0042
3270.00,0.0042
3269.00,0.0042
3268.00,0.0042
3267.00,0.0042
3266.00,0.0042
3265.00,0.0042
3264.00,0.0042
3263.00,0.0042
3262.00,0.0042
3261.00,0.0041
3260.00,0.0041
3259.00,0.0041
3258.00,0.0041
3257.00,0.0040
3256.00,0.0040
3255.00,0.0039
3254.00,0.0039
3253.00,0.0039
3252.00,0.0038
3251.00,0.0038
3250.00,0.0039
3249.00,0.0039
3248.00,0.0039
3247.00,0.0039
3246.00,0.0039
3245.00,0.0038
3244.00,0.0038
3243.00,0.0038
3242.00,0.0038
3241.00,0.0038
3240.00,0.0038
3239.00,0.0038
3238.00,0.0038
3237.00,0.0038
3236.00,0.0038
3235.00,0.0038
3234.00,0.0038
3233.00,0.0038
3232.00,0.0038
3231.00,0.0038
3230.00,0.0038
3229.00,0.0039
3228.00,0.0039
3227.00,0.0039
3226.00,0.0039
3225.00,0.0039
3224.00,0.0040
3223.00,0.0040
3222.00,0.0040
3221.00,0.0040
3220.00,0.0040
3219.00,0.0040
3218.00,0.0040
3217.00,0.0040
3216.00,0.0040
3215.00,0.0040
3214.00,0.0041
3213.00,0.0041
3212.00,0.0041
3211.00,0.0042
3210.00,0.0042
3209.00,0.0042
3208.00,0.0042
3207.00,0.0042
3206.00,0.0042
3205.00,0.0042
3204.00,0.0042
3203.00,0.0042
3202.00,0.0042
3201.00,0.0042
3200.00,0.0042
3199.00,0.0042
3198.00,0.0042
3197.00,0.0042
3196.00,0.0042
3195.00,0.0042
3194.00,0.0042
3193.00,0.0042
3192.00,0.0042
3191.00,0.0042
3190.00,0.0042
3189.00,0.0042
3188.00,0.0041
3187.00,0.0041
3186.00,0.0041
3185.00,0.0041
3184.00,0.0040
3183.00,0.0040
3182.00,0.0040
3181.00,0.0040
3180.00,0.0040
3179.00,0.0040
3178.00,0.0040
3177.00,0.0039
3176.00,0.0039
3175.00,0.0039
3174.00,0.0038
3173.00,0.0038
3172.00,0.0038
3171.00,0.0038
3170.00,0.0038
3169.00,0.0038
3168.00,0.0038
3167.00,0.0038
3166.00,0.0037
3165.00,0.0037
3164.00,0.0036
3163.00,0.0036
3162.00,0.0036
3161.00,0.0037
3160.00,0.0037
3159.00,0.0038
3158.00,0.0038
3157.00,0.0037
3156.00,0.0037
3155.00,0.0037
3154.00,0.0037
3153.00,0.0037
3152.00,0.0037
3151.00,0.0037
3150.00,0.0037
3149.00,0.0037
3148.00,0.0036
3147.00,0.0036
3146.00,0.0036
3145.00,0.0036
3144.00,0.0037
3143.00,0.0037
3142.00,0.0037
3141.00,0.0037
3140.00,0.0036
3139.00,0.0036
3138.00,0.0036
3137.00,0.0035
3136.00,0.0035
3135.00,0.0035
3134.00,0.0035
3133.00,0.0035
3132.00,0.0035
3131.00,0.0035
3130.00,0.0034
3129.00,0.0034
3128.00,0.0034
3127.00,0.0033
3126.00,0.0033
3125.00,0.0032
3124.00,0.0032
3123.00,0.0032
3122.00,0.0032
3121.00,0.0032
3120.00,0.0032
3119.00,0.0032
3118.00,0.0031
3117.00,0.0031
3116.00,0.0031
3115.00,0.0030
3114.00,0.0030
3113.00,0.0030
3112.00,0.0030
3111.00,0.0030
3110.00,0.0030
3109.00,0.0030
3108.00,0.0030
3107.00,0.0030
3106.00,0.0030
3105.00,0.0030
3104.00,0.0030
3103.00,0.0030
3102.00,0.0030
3101.00,0.0029
3100.00,0.0029
3099.00,0.0029
3098.00,0.0029
3097.00,0.0029
3096.00,0.0029
3095.00,0.0030
3094.00,0.0030
3093.00,0.0029
3092.00,0.0029
3091.00,0.0029
3090.00,0.0029
3089.00,0.0030
3088.00,0.0030
3087.00,0.0031
3086.00,0.0031
3085.00,0.0031
3084.00,0.0030
3083.00,0.0030
3082.00,0.0030
3081.00,0.0029
3080.00,0.0029
3079.00,0.0029
3078.00,0.0029
3077.00,0.0029
3076.00,0.0030
3075.00,0.0030
3074.00,0.0030
3073.00,0.0031
3072.00,0.0031
3071.00,0.0031
3070.00,0.0031
3069.00,0.0032
3068.00,0.0031
3067.00,0.0031
3066.00,0.0031
3065.00,0.0031
3064.00,0.0031
3063.00,0.0032
3062.00,0.0032
3061.00,0.0032
3060.00,0.0032
3059.00,0.0033
3058.00,0.0033
3057.00,0.0033
3056.00,0.0033
3055.00,0.0033
3054.00,0.0033
3053.00,0.0033
3052.00,0.0033
3051.00,0.0033
3050.00,0.0033
3049.00,0.0033
3048.00,0.0034
3047.00,0.0034
3046.00,0.0034
3045.00,0.0035
3044.00,0.0035
3043.00,0.0035
3042.00,0.0036
3041.00,0.0036
3040.00,0.0036
3039.00,0.0037
3038.00,0.0037
3037.00,0.0037
3036.00,0.0037
3035.00,0.0037
3034.00,0.0038
3033.00,0.0038
3032.00,0.0038
3031.00,0.0038
3030.00,0.0039
3029.00,0.0039
3028.00,0.0039
3027.00,0.0039
3026.00,0.0040
3025.00,0.0040
3024.00,0.0041
3023.00,0.0042
3022.00,0.0043
3021.00,0.0044
3020.00,0.0045
3019.00,0.0045
3018.00,0.0046
3017.00,0.0047
3016.00,0.0048
3015.00,0.0049
3014.00,0.0050
3013.00,0.0051
3012.00,0.0052
3011.00,0.0053
3010.00,0.0054
3009.00,0.0055
3008.00,0.0057
3007.00,0.0058
3006.00,0.0060
3005.00,0.0062
3004.00,0.0063
3003.00,0.0065
3002.00,0.0067
3001.00,0.0069
3000.00,0.0071
2999.00,0.0074
2998.00,0.0076
2997.00,0.0079
2996.00,0.0082
2995.00,0.0085
2994.00,0.0089
2993.00,0.0093
2992.00,0.0098
2991.00,0.0104
2990.00,0.0110
2989.00,0.0117
2988.00,0.0124
2987.00,0.0131
2986.00,0.0140
2985.00,0.0148
2984.00,0.0159
2983.00,0.0171
2982.00,0.0184
2981.00,0.0200
2980.00,0.0218
2979.00,0.0239
2978.00,0.0262
2977.00,0.0289
2976.00,0.0320
2975.00,0.0354
2974.00,0.0394
2973.00,0.0438
2972.00,0.0488
2971.00,0.0545
2970.00,0.0608
2969.00,0.0677
2968.00,0.0752
2967.00,0.0831
2966.00,0.0914
2965.00,0.0996
2964.00,0.1077
2963.00,0.1151
2962.00,0.1217
2961.00,0.1273
2960.00,0.1320
2959.00,0.1363
2958.00,0.1405
2957.00,0.1451
2956.00,0.1507
2955.00,0.1573
2954.00,0.1648
2953.00,0.1726
2952.00,0.1796
2951.00,0.1847
2950.00,0.1868
2949.00,0.1851
2948.00,0.1794
2947.00,0.1701
2946.00,0.1584
2945.00,0.1459
2944.00,0.1339
2943.00,0.1235
2942.00,0.1154
2941.00,0.1098
2940.00,0.1068
2939.00,0.1060
2938.00,0.1072
2937.00,0.1103
2936.00,0.1150
2935.00,0.1212
2934.00,0.1288
2933.00,0.1377
2932.00,0.1478
2931.00,0.1588
2930.00,0.1704
2929.00,0.1824
2928.00,0.1944
2927.00,0.2062
2926.00,0.2177
2925.00,0.2287
2924.00,0.2395
2923.00,0.2501
2922.00,0.2606
2921.00,0.2707
2920.00,0.2798
2919.00,0.2868
2918.00,0.2906
2917.00,0.2902
2916.00,0.2855
2915.00,0.2771
2914.00,0.2661
2913.00,0.2539
2912.00,0.2417
2911.00,0.2303
2910.00,0.2199
2909.00,0.2106
2908.00,0.2021
2907.00,0.1942
2906.00,0.1867
2905.00,0.1793
2904.00,0.1720
2903.00,0.1648
2902.00,0.1577
2901.00,0.1509
2900.00,0.1444
2899.00,0.1383
2898.00,0.1327
2897.00,0.1275
2896.00,0.1228
2895.00,0.1188
2894.00,0.1153
2893.00,0.1125
2892.00,0.1102
2891.00,0.1086
2890.00,0.1075
2889.00,0.1069
2888.00,0.1066
2887.00,0.1067
2886.00,0.1071
2885.00,0.1079
2884.00,0.1092
2883.00,0.1109
2882.00,0.1132
2881.00,0.1159
2880.00,0.1187
2879.00,0.1212
2878.00,0.1230
2877.00,0.1238
2876.00,0.1237
2875.00,0.1230
2874.00,0.1223
2873.00,0.1220
2872.00,0.1224
2871.00,0.1236
2870.00,0.1254
2869.00,0.1273
2868.00,0.1285
2867.00,0.1282
2866.00,0.1258
2865.00,0.1211
2864.00,0.1145
2863.00,0.1068
2862.00,0.0991
2861.00,0.0923
2860.00,0.0870
2859.00,0.0833
2858.00,0.0811
2857.00,0.0803
2856.00,0.0805
2855.00,0.0816
2854.00,0.0832
2853.00,0.0852
2852.00,0.0871
2851.00,0.0887
2850.00,0.0898
2849.00,0.0903
2848.00,0.0907
2847.00,0.0915
2846.00,0.0931
2845.00,0.0959
2844.00,0.0998
2843.00,0.1047
2842.00,0.1102
2841.00,0.1154
2840.00,0.1198
2839.00,0.1224
2838.00,0.1225
2837.00,0.1196
2836.00,0.1135
2835.00,0.1049
2834.00,0.0945
2833.00,0.0836
2832.00,0.0731
2831.00,0.0638
2830.00,0.0559
2829.00,0.0494
2828.00,0.0441
2827.00,0.0399
2826.00,0.0364
2825.00,0.0335
2824.00,0.0311
2823.00,0.0291
2822.00,0.0274
2821.00,0.0260
2820.00,0.0248
2819.00,0.0237
2818.00,0.0227
2817.00,0.0219
2816.00,0.0211
2815.00,0.0205
2814.00,0.0198
2813.00,0.0193
2812.00,0.0187
2811.00,0.0182
2810.00,0.0176
2809.00,0.0170
2808.00,0.0164
2807.00,0.0157
2806.00,0.0150
2805.00,0.0143
2804.00,0.0136
2803.00,0.0130
2802.00,0.0125
2801.00,0.0121
2800.00,0.0117
2799.00,0.0114
2798.00,0.0111
2797.00,0.0109
2796.00,0.0106
2795.00,0.0104
2794.00,0.0101
2793.00,0.0098
2792.00,0.0095
2791.00,0.0092
2790.00,0.0089
2789.00,0.0086
2788.00,0.0083
2787.00,0.0080
2786.00,0.0078
2785.00,0.0076
2784.00,0.0074
2783.00,0.0072
2782.00,0.0070
2781.00,0.0068
2780.00,0.0066
2779.00,0.0065
2778.00,0.0063
2777.00,0.0062
2776.00,0.0060
2775.00,0.0060
2774.00,0.0059
2773.00,0.0058
2772.00,0.0058
2771.00,0.0057
2770.00,0.0056
2769.00,0.0056
2768.00,0.0056
2767.00,0.0055
2766.00,0.0055
2765.00,0.0055
2764.00,0.0054
2763.00,0.0054
2762.00,0.0054
2761.00,0.0054
2760.00,0.0053
2759.00,0.0053
2758.00,0.0053
2757.00,0.0052
2756.00,0.0052
2755.00,0.0052
2754.00,0.0052
2753.00,0.0052
2752.00,0.0052
2751.00,0.0051
2750.00,0.0051
2749.00,0.0051
2748.00,0.0051
2747.00,0.0051
2746.00,0.0052
2745.00,0.0053
2744.00,0.0054
2743.00,0.0055
2742.00,0.0056
2741.00,0.0056
2740.00,0.0058
2739.00,0.0059
2738.00,0.0060
2737.00,0.0062
2736.00,0.0063
2735.00,0.0065
2734.00,0.0066
2733.00,0.0067
2732.00,0.0069
2731.00,0.0071
2730.00,0.0073
2729.00,0.0075
2728.00,0.0078
2727.00,0.0081
2726.00,0.0084
2725.00,0.0086
2724.00,0.0088
2723.00,0.0088
2722.00,0.0088
2721.00,0.0086
2720.00,0.0083
2719.00,0.0080
2718.00,0.0076
2717.00,0.0073
2716.00,0.0069
2715.00,0.0067
2714.00,0.0064
2713.00,0.0062
2712.00,0.0060
2711.00,0.0058
2710.00,0.0057
2709.00,0.0056
2708.00,0.0054
2707.00,0.0053
2706.00,0.0052
2705.00,0.0050
2704.00,0.0049
2703.00,0.0048
2702.00,0.0047
2701.00,0.0046
2700.00,0.0046
2699.00,0.0045
2698.00,0.0045
2697.00,0.0044
2696.00,0.0044
2695.00,0.0044
2694.00,0.0045
2693.00,0.0045
2692.00,0.0045
2691.00,0.0045
2690.00,0.0045
2689.00,0.0045
2688.00,0.0045
2687.00,0.0045
2686.00,0.0045
2685.00,0.0045
2684.00,0.0045
2683.00,0.0045
2682.00,0.0045
2681.00,0.0045
2680.00,0.0045
2679.00,0.0045
2678.00,0.0046
2677.00,0.0046
2676.00,0.0046
2675.00,0.0046
2674.00,0.0046
2673.00,0.0045
2672.00,0.0045
2671.00,0.0045
2670.00,0.0045
2669.00,0.0045
2668.00,0.0045
2667.00,0.0045
2666.00,0.0045
2665.00,0.0046
2664.00,0.0046
2663.00,0.0047
2662.00,0.0047
2661.00,0.0048
2660.00,0.0048
2659.00,0.0048
2658.00,0.0048
2657.00,0.0048
2656.00,0.0048
2655.00,0.0047
2654.00,0.0046
2653.00,0.0046
2652.00,0.0045
2651.00,0.0045
2650.00,0.0044
2649.00,0.0044
2648.00,0.0043
2647.00,0.0043
2646.00,0.0043
2645.00,0.0043
2644.00,0.0042
2643.00,0.0041
2642.00,0.0040
2641.00,0.0039
2640.00,0.0039
2639.00,0.0039
2638.00,0.0038
2637.00,0.0038
2636.00,0.0038
2635.00,0.0038
2634.00,0.0038
2633.00,0.0038
2632.00,0.0038
2631.00,0.0038
2630.00,0.0039
2629.00,0.0039
2628.00,0.0039
2627.00,0.0039
2626.00,0.0039
2625.00,0.0040
2624.00,0.0040
2623.00,0.0041
2622.00,0.0041
2621.00,0.0041
2620.00,0.0041
2619.00,0.0041
2618.00,0.0041
2617.00,0.0041
2616.00,0.0041
2615.00,0.0041
2614.00,0.0041
2613.00,0.0040
2612.00,0.0040
2611.00,0.0039
2610.00,0.0038
2609.00,0.0038
2608.00,0.0037
2607.00,0.0037
2606.00,0.0036
2605.00,0.0035
2604.00,0.0034
2603.00,0.0032
2602.00,0.0032
2601.00,0.0031
2600.00,0.0031
2599.00,0.0032
2598.00,0.0032
2597.00,0.0032
2596.00,0.0033
2595.00,0.0033
2594.00,0.0034
2593.00,0.0034
2592.00,0.0034
2591.00,0.0035
2590.00,0.0035
2589.00,0.0036
2588.00,0.0038
2587.00,0.0039
2586.00,0.0040
2585.00,0.0040
2584.00,0.0041
2583.00,0.0041
2582.00,0.0041
2581.00,0.0040
2580.00,0.0039
2579.00,0.0038
2578.00,0.0037
2577.00,0.0036
2576.00,0.0034
2575.00,0.0033
2574.00,0.0032
2573.00,0.0031
2572.00,0.0030
2571.00,0.0029
2570.00,0.0028
2569.00,0.0027
2568.00,0.0027
2567.00,0.0026
2566.00,0.0025
2565.00,0.0024
2564.00,0.0024
2563.00,0.0023
2562.00,0.0023
2561.00,0.0023
2560.00,0.0023
2559.00,0.0023
2558.00,0.0023
2557.00,0.0023
2556.00,0.0023
2555.00,0.0022
2554.00,0.0022
2553.00,0.0022
2552.00,0.0022
2551.00,0.0021
2550.00,0.0021
2549.00,0.0021
2548.00,0.0020
2547.00,0.0019
2546.00,0.0018
2545.00,0.0018
2544.00,0.0018
2543.00,0.0018
2542.00,0.0018
2541.00,0.0018
2540.00,0.0018
2539.00,0.0017
2538.00,0.0017
2537.00,0.0018
2536.00,0.0018
2535.00,0.0017
2534.00,0.0017
2533.00,0.0017
2532.00,0.0017
2531.00,0.0017
2530.00,0.0017
2529.00,0.0017
2528.00,0.0016
2527.00,0.0016
2526.00,0.0015
2525.00,0.0015
2524.00,0.0014
2523.00,0.0013
2522.00,0.0013
2521.00,0.0013
2520.00,0.0012
2519.00,0.0012
2518.00,0.0013
2517.00,0.0013
2516.00,0.0013
2515.00,0.0012
2514.00,0.0011
2513.00,0.0011
2512.00,0.0010
2511.00,0.0011
2510.00,0.0011
2509.00,0.0011
2508.00,0.0012
2507.00,0.0011
2506.00,0.0011
2505.00,0.0010
2504.00,0.0010
2503.00,0.0009
2502.00,0.0008
2501.00,0.0008
2500.00,0.0009
2499.00,0.0010
2498.00,0.0010
2497.00,0.0011
2496.00,0.0011
2495.00,0.0011
2494.00,0.0011
2493.00,0.0011
2492.00,0.0010
2491.00,0.0010
2490.00,0.0010
2489.00,0.0010
2488.00,0.0010
2487.00,0.0011
2486.00,0.0011
2485.00,0.0011
2484.00,0.0011
2483.00,0.0011
2482.00,0.0011
2481.00,0.0011
2480.00,0.0011
2479.00,0.0011
2478.00,0.0011
2477.00,0.0010
2476.00,0.0010
2475.00,0.0009
2474.00,0.0009
2473.00,0.0009
2472.00,0.0009
2471.00,0.0009
2470.00,0.0010
2469.00,0.0010
2468.00,0.0010
2467.00,0.0010
2466.00,0.0010
2465.00,0.0010
2464.00,0.0010
2463.00,0.0009
2462.00,0.0009
2461.00,0.0010
2460.00,0.0010
2459.00,0.0010
2458.00,0.0010
2457.00,0.0010
2456.00,0.0010
2455.00,0.0011
2454.00,0.0011
2453.00,0.0011
2452.00,0.0011
2451.00,0.0011
2450.00,0.0011
2449.00,0.0011
2448.00,0.0011
2447.00,0.0011
2446.00,0.0011
2445.00,0.0012
2444.00,0.0012
2443.00,0.0011
2442.00,0.0011
2441.00,0.0011
2440.00,0.0011
2439.00,0.0011
2438.00,0.0011
2437.00,0.0012
2436.00,0.0012
2435.00,0.0012
2434.00,0.0011
2433.00,0.0011
2432.00,0.0011
2431.00,0.0011
2430.00,0.0010
2429.00,0.0011
2428.00,0.0011
2427.00,0.0011
2426.00,0.0011
2425.00,0.0011
2424.00,0.0011
2423.00,0.0010
2422.00,0.0010
2421.00,0.0010
2420.00,0.0010
2419.00,0.0009
2418.00,0.0009
2417.00,0.0009
2416.00,0.0009
2415.00,0.0010
2414.00,0.0010
2413.00,0.0010
2412.00,0.0010
2411.00,0.0010
2410.00,0.0010
2409.00,0.0010
2408.00,0.0010
2407.00,0.0010
2406.00,0.0010
2405.00,0.0011
2404.00,0.0011
2403.00,0.0011
2402.00,0.0010
2401.00,0.0009
2400.00,0.0009
2399.00,0.0008
2398.00,0.0008
2397.00,0.0008
2396.00,0.0008
2395.00,0.0009
2394.00,0.0009
2393.00,0.0009
2392.00,0.0009
2391.00,0.0008
2390.00,0.0008
2389.00,0.0007
2388.00,0.0007
2387.00,0.0008
2386.00,0.0008
2385.00,0.0007
2384.00,0.0007
2383.00,0.0007
2382.00,0.0007
2381.00,0.0006
2380.00,0.0006
2379.00,0.0006
2378.00,0.0006
2377.00,0.0006
2376.00,0.0006
2375.00,0.0006
2374.00,0.0006
2373.00,0.0006
2372.00,0.0006
2371.00,0.0006
2370.00,0.0005
2369.00,0.0005
2368.00,0.0004
2367.00,0.0004
2366.00,0.0003
2365.00,0.0003
2364.00,0.0003
2363.00,0.0004
2362.00,0.0006
2361.00,0.0006
2360.00,0.0007
2359.00,0.0006
2358.00,0.0006
2357.00,0.0006
2356.00,0.0006
2355.00,0.0006
2354.00,0.0007
2353.00,0.0007
2352.00,0.0007
2351.00,0.0006
2350.00,0.0006
2349.00,0.0007
2348.00,0.0007
2347.00,0.0008
2346.00,0.0008
2345.00,0.0007
2344.00,0.0007
2343.00,0.0007
2342.00,0.0008
2341.00,0.0009
2340.00,0.0010
2339.00,0.0010
2338.00,0.0009
2337.00,0.0009
2336.00,0.0008
2335.00,0.0008
2334.00,0.0008
2333.00,0.0008
2332.00,0.0008
2331.00,0.0009
2330.00,0.0009
2329.00,0.0010
2328.00,0.0011
2327.00,0.0014
2326.00,0.0017
2325.00,0.0021
2324.00,0.0023
2323.00,0.0023
2322.00,0.0021
2321.00,0.0018
2320.00,0.0016
2319.00,0.0015
2318.00,0.0014
2317.00,0.0013
2316.00,0.0013
2315.00,0.0012
2314.00,0.0011
2313.00,0.0010
2312.00,0.0010
2311.00,0.0011
2310.00,0.0011
2309.00,0.0011
2308.00,0.0011
2307.00,0.0011
2306.00,0.0011
2305.00,0.0011
2304.00,0.0012
2303.00,0.0012
2302.00,0.0012
2301.00,0.0012
2300.00,0.0012
2299.00,0.0012
2298.00,0.0013
2297.00,0.0014
2296.00,0.0014
2295.00,0.0014
2294.00,0.0014
2293.00,0.0014
2292.00,0.0015
2291.00,0.0016
2290.00,0.0017
2289.00,0.0018
2288.00,0.0019
2287.00,0.0019
2286.00,0.0019
2285.00,0.0019
2284.00,0.0019
2283.00,0.0019
2282.00,0.0018
2281.00,0.0016
2280.00,0.0015
2279.00,0.0014
2278.00,0.0014
2277.00,0.0014
2276.00,0.0015
2275.00,0.0015
2274.00,0.0016
2273.00,0.0016
2272.00,0.0015
2271.00,0.0014
2270.00,0.0014
2269.00,0.0015
2268.00,0.0015
2267.00,0.0015
2266.00,0.0014
2265.00,0.0012
2264.00,0.0011
2263.00,0.0011
2262.00,0.0011
2261.00,0.0011
2260.00,0.0012
2259.00,0.0012
2258.00,0.0013
2257.00,0.0013
2256.00,0.0012
2255.00,0.0012
2254.00,0.0011
2253.00,0.0011
2252.00,0.0011
2251.00,0.0010
2250.00,0.0009
2249.00,0.0008
2248.00,0.0008
2247.00,0.0008
2246.00,0.0009
2245.00,0.0009
2244.00,0.0008
2243.00,0.0008
2242.00,0.0008
2241.00,0.0008
2240.00,0.0010
2239.00,0.0011
2238.00,0.0012
2237.00,0.0012
2236.00,0.0011
2235.00,0.0011
2234.00,0.0011
2233.00,0.0011
2232.00,0.0011
2231.00,0.0012
2230.00,0.0013
2229.00,0.0014
2228.00,0.0014
2227.00,0.0013
2226.00,0.0011
2225.00,0.0009
2224.00,0.0009
2223.00,0.0009
2222.00,0.0009
2221.00,0.0008
2220.00,0.0005
2219.00,0.0002
2218.00,0.0001
2217.00,-0.0000
2216.00,0.0001
2215.00,0.0003
2214.00,0.0005
2213.00,0.0007
2212.00,0.0007
2211.00,0.0007
2210.00,0.0007
2209.00,0.0007
2208.00,0.0007
2207.00,0.0007
2206.00,0.0006
2205.00,0.0006
2204.00,0.0007
2203.00,0.0007
2202.00,0.0007
2201.00,0.0007
2200.00,0.0006
2199.00,0.0006
2198.00,0.0006
2197.00,0.0006
2196.00,0.0007
2195.00,0.0009
2194.00,0.0012
2193.00,0.0014
2192.00,0.0015
2191.00,0.0013
2190.00,0.0010
2189.00,0.0008
2188.00,0.0008
2187.00,0.0009
2186.00,0.0011
2185.00,0.0013
2184.00,0.0013
2183.00,0.0011
2182.00,0.0007
2181.00,0.0004
2180.00,0.0002
2179.00,0.0001
2178.00,0.0002
2177.00,0.0004
2176.00,0.0006
2175.00,0.0007
2174.00,0.0008
2173.00,0.0009
2172.00,0.0010
2171.00,0.0010
2170.00,0.0011
2169.00,0.0012
2168.00,0.0015
2167.00,0.0017
2166.00,0.0020
2165.00,0.0023
2164.00,0.0024
2163.00,0.0024
2162.00,0.0022
2161.00,0.0016
2160.00,0.0004
2159.00,-0.0012
2158.00,-0.0025
2157.00,-0.0031
2156.00,-0.0028
2155.00,-0.0023
2154.00,-0.0018
2153.00,-0.0014
2152.00,-0.0011
2151.00,-0.0009
2150.00,-0.0008
2149.00,-0.0008
2148.00,-0.0009
2147.00,-0.0009
2146.00,-0.0009
2145.00,-0.0008
2144.00,-0.0007
2143.00,-0.0008
2142.00,-0.0010
2141.00,-0.0012
2140.00,-0.0013
2139.00,-0.0013
2138.00,-0.0013
2137.00,-0.0013
2136.00,-0.0015
2135.00,-0.0017
2134.00,-0.0019
2133.00,-0.0018
2132.00,-0.0016
2131.00,-0.0014
2130.00,-0.0012
2129.00,-0.0010
2128.00,-0.0009
2127.00,-0.0008
2126.00,-0.0007
2125.00,-0.0006
2124.00,-0.0006
2123.00,-0.0005
2122.00,-0.0005
2121.00,-0.0005
2120.00,-0.0004
2119.00,-0.0003
2118.00,-0.0002
2117.00,-0.0002
2116.00,-0.0001
2115.00,-0.0001
2114.00,-0.0000
2113.00,0.0001
2112.00,0.0003
2111.00,0.0003
2110.00,0.0003
2109.00,0.0003
2108.00,0.0003
2107.00,0.0003
2106.00,0.0003
2105.00,0.0002
2104.00,0.0002
2103.00,0.0002
2102.00,0.0002
2101.00,0.0003
2100.00,0.0003
2099.00,0.0003
2098.00,0.0003
2097.00,0.0001
2096.00,-0.0000
2095.00,-0.0002
2094.00,-0.0004
2093.00,-0.0003
2092.00,-0.0002
2091.00,0.0000
2090.00,0.0002
2089.00,0.0002
2088.00,0.0002
2087.00,0.0002
2086.00,0.0002
2085.00,0.0001
2084.00,0.0000
2083.00,-0.0000
2082.00,0.0001
2081.00,0.0003
2080.00,0.0005
2079.00,0.0007
2078.00,0.0007
2077.00,0.0006
2076.00,0.0004
2075.00,0.0003
2074.00,0.0003
2073.00,0.0004
2072.00,0.0005
2071.00,0.0006
2070.00,0.0005
2069.00,0.0004
2068.00,0.0003
2067.00,0.0002
2066.00,-0.0001
2065.00,-0.0004
2064.00,-0.0006
2063.00,-0.0006
2062.00,-0.0005
2061.00,-0.0005
2060.00,-0.0005
2059.00,-0.0005
2058.00,-0.0004
2057.00,-0.0002
2056.00,-0.0000
2055.00,0.0001
2054.00,0.0001
2053.00,0.0003
2052.00,0.0006
2051.00,0.0007
2050.00,0.0007
2049.00,0.0005
2048.00,0.0004
2047.00,0.0002
2046.00,0.0001
2045.00,-0.0001
2044.00,-0.0002
2043.00,-0.0003
2042.00,-0.0003
2041.00,-0.0004
2040.00,-0.0004
2039.00,-0.0003
2038.00,-0.0002
2037.00,-0.0000
2036.00,0.0001
2035.00,-0.0001
2034.00,-0.0004
2033.00,-0.0007
2032.00,-0.0010
2031.00,-0.0011
2030.00,-0.0011
2029.00,-0.0010
2028.00,-0.0009
2027.00,-0.0008
2026.00,-0.0005
2025.00,-0.0001
2024.00,0.0002
2023.00,0.0001
2022.00,-0.0003
2021.00,-0.0008
2020.00,-0.0012
2019.00,-0.0014
2018.00,-0.0014
2017.00,-0.0013
2016.00,-0.0012
2015.00,-0.0012
2014.00,-0.0012
2013.00,-0.0013
2012.00,-0.0013
2011.00,-0.0014
2010.00,-0.0015
2009.00,-0.0017
2008.00,-0.0017
2007.00,-0.0017
2006.00,-0.0016
2005.00,-0.0017
2004.00,-0.0017
2003.00,-0.0018
2002.00,-0.0018
2001.00,-0.0018
2000.00,-0.0017
1999.00,-0.0017
1998.00,-0.0016
1997.00,-0.0015
1996.00,-0.0014
1995.00,-0.0014
1994.00,-0.0015
1993.00,-0.0015
1992.00,-0.0013
1991.00,-0.0009
1990.00,-0.0005
1989.00,-0.0002
1988.00,-0.0000
1987.00,-0.0001
1986.00,-0.0002
1985.00,-0.0002
1984.00,0.0000
1983.00,0.0004
1982.00,0.0010
1981.00,0.0014
1980.00,0.0016
1979.00,0.0012
1978.00,0.0006
1977.00,0.0001
1976.00,-0.0002
1975.00,-0.0004
1974.00,-0.0005
1973.00,-0.0007
1972.00,-0.0010
1971.00,-0.0013
1970.00,-0.0015
1969.00,-0.0015
1968.00,-0.0014
1967.00,-0.0013
1966.00,-0.0012
1965.00,-0.0011
1964.00,-0.0008
1963.00,-0.0005
1962.00,-0.0003
1961.00,-0.0004
1960.00,-0.0008
1959.00,-0.0013
1958.00,-0.0017
1957.00,-0.0018
1956.00,-0.0017
1955.00,-0.0017
1954.00,-0.0016
1953.00,-0.0016
1952.00,-0.0014
1951.00,-0.0013
1950.00,-0.0012
1949.00,-0.0011
1948.00,-0.0010
1947.00,-0.0011
1946.00,-0.0011
1945.00,-0.0012
1944.00,-0.0012
1943.00,-0.0011
1942.00,-0.0011
1941.00,-0.0010
1940.00,-0.0011
1939.00,-0.0012
1938.00,-0.0012
1937.00,-0.0012
1936.00,-0.0010
1935.00,-0.0009
1934.00,-0.0008
1933.00,-0.0006
1932.00,-0.0006
1931.00,-0.0006
1930.00,-0.0008
1929.00,-0.0009
1928.00,-0.0010
1927.00,-0.0009
1926.00,-0.0007
1925.00,-0.0006
1924.00,-0.0005
1923.00,-0.0005
1922.00,-0.0004
1921.00,-0.0003
1920.00,-0.0002
1919.00,-0.0001
1918.00,-0.0000
1917.00,0.0001
1916.00,0.0001
1915.00,0.0000
1914.00,-0.0001
1913.00,-0.0002
1912.00,-0.0002
1911.00,-0.0001
1910.00,-0.0000
1909.00,0.0000
1908.00,0.0001
1907.00,0.0001
1906.00,0.0000
1905.00,-0.0000
1904.00,-0.0001
1903.00,-0.0001
1902.00,-0.0001
1901.00,0.0001
1900.00,0.0002
1899.00,0.0004
1898.00,0.0005
1897.00,0.0004
1896.00,0.0004
1895.00,0.0003
1894.00,0.0002
1893.00,0.0002
1892.00,0.0003
1891.00,0.0002
1890.00,0.0002
1889.00,0.0001
1888.00,0.0001
1887.00,0.0000
1886.00,0.0001
1885.00,0.0001
1884.00,0.0001
1883.00,0.0001
1882.00,-0.0000
1881.00,-0.0001
1880.00,-0.0002
1879.00,-0.0003
1878.00,-0.0002
1877.00,-0.0002
1876.00,-0.0001
1875.00,-0.0001
1874.00,-0.0001
1873.00,-0.0001
1872.00,-0.0001
1871.00,-0.0001
1870.00,-0.0001
1869.00,-0.0000
1868.00,0.0000
1867.00,0.0000
1866.00,0.0001
1865.00,0.0001
1864.00,0.0002
1863.00,0.0002
1862.00,0.0002
1861.00,0.0002
1860.00,0.0002
1859.00,0.0002
1858.00,0.0001
1857.00,0.0001
1856.00,0.0002
1855.00,0.0001
1854.00,0.0001
1853.00,0.0001
1852.00,0.0002
1851.00,0.0002
1850.00,0.0002
1849.00,0.0001
1848.00,0.0000
1847.00,-0.0001
1846.00,-0.0001
1845.00,-0.0000
1844.00,0.0001
1843.00,0.0002
1842.00,0.0003
1841.00,0.0003
1840.00,0.0003
1839.00,0.0003
1838.00,0.0003
1837.00,0.0004
1836.00,0.0005
1835.00,0.0005
1834.00,0.0005
1833.00,0.0004
1832.00,0.0004
1831.00,0.0004
1830.00,0.0004
1829.00,0.0005
1828.00,0.0005
1827.00,0.0005
1826.00,0.0005
1825.00,0.0005
1824.00,0.0005
1823.00,0.0005
1822.00,0.0004
1821.00,0.0004
1820.00,0.0004
1819.00,0.0003
1818.00,0.0001
1817.00,0.0000
1816.00,0.0000
1815.00,0.0001
1814.00,0.0002
1813.00,0.0002
1812.00,0.0003
1811.00,0.0004
1810.00,0.0005
1809.00,0.0006
1808.00,0.0006
1807.00,0.0006
1806.00,0.0006
1805.00,0.0006
1804.00,0.0006
1803.00,0.0006
1802.00,0.0006
1801.00,0.0006
1800.00,0.0005
1799.00,0.0006
1798.00,0.0006
1797.00,0.0006
1796.00,0.0006
1795.00,0.0006
1794.00,0.0006
1793.00,0.0007
1792.00,0.0008
1791.00,0.0008
1790.00,0.0008
1789.00,0.0008
1788.00,0.0008
1787.00,0.0008
1786.00,0.0008
1785.00,0.0009
1784.00,0.0009
1783.00,0.0008
1782.00,0.0008
1781.00,0.0008
1780.00,0.0008
1779.00,0.0008
1778.00,0.0008
1777.00,0.0008
1776.00,0.0009
1775.00,0.0009
1774.00,0.0010
1773.00,0.0010
1772.00,0.0010
1771.00,0.0010
1770.00,0.0011
1769.00,0.0011
1768.00,0.0011
1767.00,0.0012
1766.00,0.0012
1765.00,0.0012
1764.00,0.0012
1763.00,0.0012
1762.00,0.0013
1761.00,0.0013
1760.00,0.0013
1759.00,0.0013
1758.00,0.0013
1757.00,0.0014
1756.00,0.0015
1755.00,0.0016
1754.00,0.0016
1753.00,0.0017
1752.00,0.0018
1751.00,0.0019
1750.00,0.0020
1749.00,0.0021
1748.00,0.0021
1747.00,0.0022
1746.00,0.0022
1745.00,0.0023
1744.00,0.0024
1743.00,0.0024
1742.00,0.0024
1741.00,0.0024
1740.00,0.0025
1739.00,0.0025
1738.00,0.0025
1737.00,0.0025
1736.00,0.0025
1735.00,0.0025
1734.00,0.0024
1733.00,0.0025
1732.00,0.0025
1731.00,0.0025
1730.00,0.0025
1729.00,0.0025
1728.00,0.0025
1727.00,0.0025
1726.00,0.0025
1725.00,0.0025
1724.00,0.0025
1723.00,0.0025
1722.00,0.0025
1721.00,0.0025
1720.00,0.0024
1719.00,0.0023
1718.00,0.0022
1717.00,0.0021
1716.00,0.0021
1715.00,0.0021
1714.00,0.0021
1713.00,0.0021
1712.00,0.0020
1711.00,0.0019
1710.00,0.0018
1709.00,0.0017
1708.00,0.0017
1707.00,0.0016
1706.00,0.0016
1705.00,0.0017
1704.00,0.0017
1703.00,0.0016
1702.00,0.0016
1701.00,0.0016
1700.00,0.0017
1699.00,0.0018
1698.00,0.0018
1697.00,0.0018
1696.00,0.0021
1695.00,0.0023
1694.00,0.0025
1693.00,0.0026
1692.00,0.0026
1691.00,0.0027
1690.00,0.0029
1689.00,0.0031
1688.00,0.0032
1687.00,0.0033
1686.00,0.0034
1685.00,0.0035
1684.00,0.0037
1683.00,0.0039
1682.00,0.0040
1681.00,0.0041
1680.00,0.0042
1679.00,0.0043
1678.00,0.0043
1677.00,0.0043
1676.00,0.0044
1675.00,0.0044
1674.00,0.0044
1673.00,0.0044
1672.00,0.0044
1671.00,0.0044
1670.00,0.0044
1669.00,0.0045
1668.00,0.0045
1667.00,0.0045
1666.00,0.0044
1665.00,0.0044
1664.00,0.0043
1663.00,0.0043
1662.00,0.0044
1661.00,0.0044
1660.00,0.0045
1659.00,0.0044
1658.00,0.0044
1657.00,0.0045
1656.00,0.0045
1655.00,0.0046
1654.00,0.0048
1653.00,0.0051
1652.00,0.0054
1651.00,0.0055
1650.00,0.0055
1649.00,0.0056
1648.00,0.0058
1647.00,0.0060
1646.00,0.0062
1645.00,0.0064
1644.00,0.0065
1643.00,0.0065
1642.00,0.0065
1641.00,0.0066
1640.00,0.0067
1639.00,0.0068
1638.00,0.0069
1637.00,0.0069
1636.00,0.0070
1635.00,0.0071
1634.00,0.0071
1633.00,0.0071
1632.00,0.0070
1631.00,0.0069
1630.00,0.0069
1629.00,0.0068
1628.00,0.0067
1627.00,0.0066
1626.00,0.0065
1625.00,0.0065
1624.00,0.0064
1623.00,0.0063
1622.00,0.0063
1621.00,0.0063
1620.00,0.0063
1619.00,0.0062
1618.00,0.0061
1617.00,0.0060
1616.00,0.0060
1615.00,0.0061
1614.00,0.0061
1613.00,0.0061
1612.00,0.0061
1611.00,0.0060
1610.00,0.0060
1609.00,0.0060
1608.00,0.0061
1607.00,0.0061
1606.00,0.0060
1605.00,0.0060
1604.00,0.0060
1603.00,0.0059
1602.00,0.0059
1601.00,0.0058
1600.00,0.0058
1599.00,0.0058
1598.00,0.0058
1597.00,0.0058
1596.00,0.0058
1595.00,0.0058
1594.00,0.0057
1593.00,0.0057
1592.00,0.0058
1591.00,0.0058
1590.00,0.0059
1589.00,0.0060
1588.00,0.0061
1587.00,0.0062
1586.00,0.0063
1585.00,0.0064
1584.00,0.0065
1583.00,0.0067
1582.00,0.0069
1581.00,0.0071
1580.00,0.0073
1579.00,0.0075
1578.00,0.0075
1577.00,0.0076
1576.00,0.0075
1575.00,0.0075
1574.00,0.0074
1573.00,0.0074
1572.00,0.0074
1571.00,0.0074
1570.00,0.0073
1569.00,0.0072
1568.00,0.0071
1567.00,0.0070
1566.00,0.0069
1565.00,0.0068
1564.00,0.0068
1563.00,0.0068
1562.00,0.0069
1561.00,0.0069
1560.00,0.0070
1559.00,0.0069
1558.00,0.0069
1557.00,0.0070
1556.00,0.0070
1555.00,0.0071
1554.00,0.0071
1553.00,0.0072
1552.00,0.0073
1551.00,0.0074
1550.00,0.0075
1549.00,0.0076
1548.00,0.0077
1547.00,0.0078
1546.00,0.0080
1545.00,0.0082
1544.00,0.0084
1543.00,0.0086
1542.00,0.0087
1541.00,0.0087
1540.00,0.0087
1539.00,0.0086
1538.00,0.0085
1537.00,0.0084
1536.00,0.0082
1535.00,0.0080
1534.00,0.0078
1533.00,0.0076
1532.00,0.0074
1531.00,0.0073
1530.00,0.0072
1529.00,0.0071
1528.00,0.0072
1527.00,0.0072
1526.00,0.0072
1525.00,0.0071
1524.00,0.0071
1523.00,0.0070
1522.00,0.0069
1521.00,0.0069
1520.00,0.0069
1519.00,0.0068
1518.00,0.0068
1517.00,0.0068
1516.00,0.0068
1515.00,0.0068
1514.00,0.0068
1513.00,0.0068
1512.00,0.0069
1511.00,0.0069
1510.00,0.0070
1509.00,0.0070
1508.00,0.0070
1507.00,0.0070
1506.00,0.0071
1505.00,0.0071
1504.00,0.0071
1503.00,0.0072
1502.00,0.0073
1501.00,0.0075
1500.00,0.0078
1499.00,0.0080
1498.00,0.0082
1497.00,0.0086
1496.00,0.0090
1495.00,0.0094
1494.00,0.0096
1493.00,0.0099
1492.00,0.0103
1491.00,0.0106
1490.00,0.0109
1489.00,0.0113
1488.00,0.0118
1487.00,0.0122
1486.00,0.0126
1485.00,0.0132
1484.00,0.0139
1483.00,0.0146
1482.00,0.0155
1481.00,0.0166
1480.00,0.0179
1479.00,0.0192
1478.00,0.0208
1477.00,0.0229
1476.00,0.0254
1475.00,0.0284
1474.00,0.0324
1473.00,0.0382
1472.00,0.0450
1471.00,0.0515
1470.00,0.0578
1469.00,0.0645
1468.00,0.0717
1467.00,0.0797
1466.00,0.0888
1465.00,0.0986
1464.00,0.1071
1463.00,0.1128
1462.00,0.1163
1461.00,0.1186
1460.00,0.1199
1459.00,0.1206
1458.00,0.1209
1457.00,0.1210
1456.00,0.1204
1455.00,0.1192
1454.00,0.1177
1453.00,0.1157
1452.00,0.1128
1451.00,0.1087
1450.00,0.1032
1449.00,0.0958
1448.00,0.0866
1447.00,0.0771
1446.00,0.0686
1445.00,0.0614
1444.00,0.0554
1443.00,0.0505
1442.00,0.0469
1441.00,0.0445
1440.00,0.0432
1439.00,0.0428
1438.00,0.0433
1437.00,0.0439
1436.00,0.0433
1435.00,0.0409
1434.00,0.0373
1433.00,0.0328
1432.00,0.0282
1431.00,0.0241
1430.00,0.0210
1429.00,0.0186
1428.00,0.0170
1427.00,0.0161
1426.00,0.0155
1425.00,0.0149
1424.00,0.0145
1423.00,0.0142
1422.00,0.0141
1421.00,0.0139
1420.00,0.0136
1419.00,0.0134
1418.00,0.0132
1417.00,0.0129
1416.00,0.0126
1415.00,0.0125
1414.00,0.0123
1413.00,0.0121
1412.00,0.0119
1411.00,0.0118
1410.00,0.0118
1409.00,0.0117
1408.00,0.0116
1407.00,0.0116
1406.00,0.0116
1405.00,0.0116
1404.00,0.0116
1403.00,0.0117
1402.00,0.0119
1401.00,0.0119
1400.00,0.0120
1399.00,0.0122
1398.00,0.0124
1397.00,0.0126
1396.00,0.0127
1395.00,0.0131
1394.00,0.0137
1393.00,0.0141
1392.00,0.0146
1391.00,0.0153
1390.00,0.0163
1389.00,0.0177
1388.00,0.0198
1387.00,0.0229
1386.00,0.0271
1385.00,0.0327
1384.00,0.0404
1383.00,0.0516
1382.00,0.0670
1381.00,0.0874
1380.00,0.1130
1379.00,0.1424
1378.00,0.1707
1377.00,0.1912
1376.00,0.1977
1375.00,0.1869
1374.00,0.1623
1373.00,0.1331
1372.00,0.1067
1371.00,0.0852
1370.00,0.0683
1369.00,0.0556
1368.00,0.0468
1367.00,0.0414
1366.00,0.0384
1365.00,0.0372
1364.00,0.0374
1363.00,0.0388
1362.00,0.0411
1361.00,0.0434
1360.00,0.0452
1359.00,0.0458
1358.00,0.0448
1357.00,0.0423
1356.00,0.0387
1355.00,0.0346
1354.00,0.0306
1353.00,0.0272
1352.00,0.0244
1351.00,0.0221
1350.00,0.0203
1349.00,0.0188
1348.00,0.0176
1347.00,0.0166
1346.00,0.0157
1345.00,0.0149
1344.00,0.0143
1343.00,0.0138
1342.00,0.0134
1341.00,0.0131
1340.00,0.0129
1339.00,0.0127
1338.00,0.0126
1337.00,0.0125
1336.00,0.0125
1335.00,0.0126
1334.00,0.0129
1333.00,0.0134
1332.00,0.0139
1331.00,0.0143
1330.00,0.0144
1329.00,0.0143
1328.00,0.0138
1327.00,0.0132
1326.00,0.0126
1325.00,0.0120
1324.00,0.0114
1323.00,0.0109
1322.00,0.0105
1321.00,0.0102
1320.00,0.0100
1319.00,0.0099
1318.00,0.0097
1317.00,0.0096
1316.00,0.0094
1315.00,0.0094
1314.00,0.0094
1313.00,0.0094
1312.00,0.0095
1311.00,0.0096
1310.00,0.0100
1309.00,0.0105
1308.00,0.0112
1307.00,0.0122
1306.00,0.0130
1305.00,0.0136
1304.00,0.0138
1303.00,0.0137
1302.00,0.0135
1301.00,0.0132
1300.00,0.0132
1299.00,0.0133
1298.00,0.0134
1297.00,0.0135
1296.00,0.0134
1295.00,0.0132
1294.00,0.0127
1293.00,0.0122
1292.00,0.0116
1291.00,0.0111
1290.00,0.0106
1289.00,0.0102
1288.00,0.0098
1287.00,0.0095
1286.00,0.0093
1285.00,0.0091
1284.00,0.0090
1283.00,0.0088
1282.00,0.0087
1281.00,0.0087
1280.00,0.0086
1279.00,0.0085
1278.00,0.0085
1277.00,0.0084
1276.00,0.0083
1275.00,0.0083
1274.00,0.0083
1273.00,0.0082
1272.00,0.0083
1271.00,0.0083
1270.00,0.0084
1269.00,0.0085
1268.00,0.0086
1267.00,0.0087
1266.00,0.0089
1265.00,0.0091
1264.00,0.0094
1263.00,0.0096
1262.00,0.0099
1261.00,0.0102
1260.00,0.0106
1259.00,0.0112
1258.00,0.0118
1257.00,0.0123
1256.00,0.0125
1255.00,0.0123
1254.00,0.0119
1253.00,0.0112
1252.00,0.0106
1251.00,0.0100
1250.00,0.0096
1249.00,0.0093
1248.00,0.0090
1247.00,0.0088
1246.00,0.0086
1245.00,0.0085
1244.00,0.0083
1243.00,0.0081
1242.00,0.0080
1241.00,0.0080
1240.00,0.0079
1239.00,0.0079
1238.00,0.0078
1237.00,0.0078
1236.00,0.0078
1235.00,0.0078
1234.00,0.0079
1233.00,0.0079
1232.00,0.0080
1231.00,0.0082
1230.00,0.0083
1229.00,0.0085
1228.00,0.0086
1227.00,0.0088
1226.00,0.0090
1225.00,0.0094
1224.00,0.0097
1223.00,0.0101
1222.00,0.0105
1221.00,0.0109
1220.00,0.0112
1219.00,0.0113
1218.00,0.0112
1217.00,0.0109
1216.00,0.0106
1215.00,0.0102
1214.00,0.0098
1213.00,0.0095
1212.00,0.0092
1211.00,0.0090
1210.00,0.0089
1209.00,0.0088
1208.00,0.0087
1207.00,0.0085
1206.00,0.0084
1205.00,0.0083
1204.00,0.0082
1203.00,0.0082
1202.00,0.0082
1201.00,0.0083
1200.00,0.0083
1199.00,0.0083
1198.00,0.0083
1197.00,0.0084
1196.00,0.0084
1195.00,0.0084
1194.00,0.0084
1193.00,0.0084
1192.00,0.0083
1191.00,0.0082
1190.00,0.0082
1189.00,0.0082
1188.00,0.0082
1187.00,0.0082
1186.00,0.0082
1185.00,0.0083
1184.00,0.0083
1183.00,0.0084
1182.00,0.0085
1181.00,0.0087
1180.00,0.0090
1179.00,0.0093
1178.00,0.0099
1177.00,0.0106
1176.00,0.0115
1175.00,0.0128
1174.00,0.0143
1173.00,0.0163
1172.00,0.0187
1171.00,0.0213
1170.00,0.0237
1169.00,0.0257
1168.00,0.0268
1167.00,0.0270
1166.00,0.0263
1165.00,0.0251
1164.00,0.0238
1163.00,0.0226
1162.00,0.0215
1161.00,0.0207
1160.00,0.0201
1159.00,0.0196
1158.00,0.0192
1157.00,0.0190
1156.00,0.0188
1155.00,0.0187
1154.00,0.0187
1153.00,0.0185
1152.00,0.0181
1151.00,0.0175
1150.00,0.0167
1149.00,0.0158
1148.00,0.0150
1147.00,0.0141
1146.00,0.0134
1145.00,0.0126
1144.00,0.0120
1143.00,0.0114
1142.00,0.0109
1141.00,0.0104
1140.00,0.0099
1139.00,0.0095
1138.00,0.0092
1137.00,0.0089
1136.00,0.0088
1135.00,0.0086
1134.00,0.0084
1133.00,0.0082
1132.00,0.0081
1131.00,0.0081
1130.00,0.0081
1129.00,0.0081
1128.00,0.0082
1127.00,0.0083
1126.00,0.0084
1125.00,0.0086
1124.00,0.0087
1123.00,0.0087
1122.00,0.0086
1121.00,0.0086
1120.00,0.0086
1119.00,0.0087
1118.00,0.0088
1117.00,0.0090
1116.00,0.0091
1115.00,0.0092
1114.00,0.0093
1113.00,0.0093
1112.00,0.0095
1111.00,0.0098
1110.00,0.0102
1109.00,0.0107
1108.00,0.0112
1107.00,0.0119
1106.00,0.0126
1105.00,0.0133
1104.00,0.0138
1103.00,0.0140
1102.00,0.0139
1101.00,0.0135
1100.00,0.0129
1099.00,0.0122
1098.00,0.0115
1097.00,0.0109
1096.00,0.0104
1095.00,0.0100
1094.00,0.0097
1093.00,0.0095
1092.00,0.0094
1091.00,0.0092
1090.00,0.0090
1089.00,0.0088
1088.00,0.0087
1087.00,0.0087
1086.00,0.0087
1085.00,0.0088
1084.00,0.0089
1083.00,0.0089
1082.00,0.0089
1081.00,0.0087
1080.00,0.0086
1079.00,0.0085
1078.00,0.0084
1077.00,0.0084
1076.00,0.0083
1075.00,0.0083
1074.00,0.0082
1073.00,0.0082
1072.00,0.0081
1071.00,0.0080
1070.00,0.0080
1069.00,0.0080
1068.00,0.0080
1067.00,0.0080
1066.00,0.0081
1065.00,0.0081
1064.00,0.0082
1063.00,0.0082
1062.00,0.0083
1061.00,0.0084
1060.00,0.0085
1059.00,0.0086
1058.00,0.0086
1057.00,0.0087
1056.00,0.0088
1055.00,0.0089
1054.00,0.0092
1053.00,0.0094
1052.00,0.0098
1051.00,0.0102
1050.00,0.0105
1049.00,0.0109
1048.00,0.0113
1047.00,0.0118
1046.00,0.0121
1045.00,0.0124
1044.00,0.0125
1043.00,0.0125
1042.00,0.0124
1041.00,0.0123
1040.00,0.0122
1039.00,0.0122
1038.00,0.0122
1037.00,0.0123
1036.00,0.0122
1035.00,0.0121
1034.00,0.0119
1033.00,0.0116
1032.00,0.0115
1031.00,0.0114
1030.00,0.0114
1029.00,0.0115
1028.00,0.0115
1027.00,0.0116
1026.00,0.0117
1025.00,0.0119
1024.00,0.0121
1023.00,0.0123
1022.00,0.0126
1021.00,0.0128
1020.00,0.0130
1019.00,0.0132
1018.00,0.0134
1017.00,0.0136
1016.00,0.0137
1015.00,0.0137
1014.00,0.0136
1013.00,0.0135
1012.00,0.0134
1011.00,0.0134
1010.00,0.0135
1009.00,0.0135
1008.00,0.0137
1007.00,0.0140
1006.00,0.0145
1005.00,0.0153
1004.00,0.0166
1003.00,0.0183
1002.00,0.0206
1001.00,0.0235
1000.00,0.0265
999.00,0.0290
998.00,0.0301
997.00,0.0294
996.00,0.0271
995.00,0.0240
994.00,0.0208
993.00,0.0180
992.00,0.0158
991.00,0.0142
990.00,0.0131
989.00,0.0124
988.00,0.0119
987.00,0.0116
986.00,0.0115
985.00,0.0116
984.00,0.0119
983.00,0.0124
982.00,0.0134
981.00,0.0147
980.00,0.0166
979.00,0.0191
978.00,0.0221
977.00,0.0257
976.00,0.0294
975.00,0.0328
974.00,0.0351
973.00,0.0356
972.00,0.0340
971.00,0.0308
970.00,0.0266
969.00,0.0224
968.00,0.0189
967.00,0.0163
966.00,0.0143
965.00,0.0129
964.00,0.0119
963.00,0.0110
962.00,0.0104
961.00,0.0098
960.00,0.0095
959.00,0.0092
958.00,0.0091
957.00,0.0089
956.00,0.0086
955.00,0.0084
954.00,0.0083
953.00,0.0082
952.00,0.0081
951.00,0.0079
950.00,0.0078
949.00,0.0077
948.00,0.0077
947.00,0.0078
946.00,0.0080
945.00,0.0083
944.00,0.0087
943.00,0.0090
942.00,0.0094
941.00,0.0096
940.00,0.0096
939.00,0.0094
938.00,0.0090
937.00,0.0085
936.00,0.0079
935.00,0.0075
934.00,0.0072
933.00,0.0070
932.00,0.0069
931.00,0.0069
930.00,0.0068
929.00,0.0067
928.00,0.0065
927.00,0.0064
926.00,0.0064
925.00,0.0064
924.00,0.0065
923.00,0.0065
922.00,0.0065
921.00,0.0064
920.00,0.0063
919.00,0.0062
918.00,0.0063
917.00,0.0064
916.00,0.0066
915.00,0.0067
914.00,0.0068
913.00,0.0069
912.00,0.0070
911.00,0.0070
910.00,0.0072
909.00,0.0074
908.00,0.0077
907.00,0.0083
906.00,0.0090
905.00,0.0101
904.00,0.0116
903.00,0.0135
902.00,0.0157
901.00,0.0176
900.00,0.0188
899.00,0.0189
898.00,0.0179
897.00,0.0161
896.00,0.0141
895.00,0.0123
894.00,0.0108
893.00,0.0097
892.00,0.0089
891.00,0.0084
890.00,0.0081
889.00,0.0079
888.00,0.0078
887.00,0.0078
886.00,0.0077
885.00,0.0076
884.00,0.0074
883.00,0.0072
882.00,0.0071
881.00,0.0070
880.00,0.0069
879.00,0.0069
878.00,0.0069
877.00,0.0070
876.00,0.0072
875.00,0.0074
874.00,0.0075
873.00,0.0075
872.00,0.0075
871.00,0.0075
870.00,0.0076
869.00,0.0076
868.00,0.0076
867.00,0.0076
866.00,0.0076
865.00,0.0077
864.00,0.0077
863.00,0.0078
862.00,0.0080
861.00,0.0082
860.00,0.0084
859.00,0.0086
858.00,0.0087
857.00,0.0088
856.00,0.0089
855.00,0.0090
854.00,0.0091
853.00,0.0092
852.00,0.0094
851.00,0.0097
850.00,0.0101
849.00,0.0106
848.00,0.0113
847.00,0.0123
846.00,0.0139
845.00,0.0164
844.00,0.0201
843.00,0.0242
842.00,0.0275
841.00,0.0285
840.00,0.0267
839.00,0.0228
838.00,0.0187
837.00,0.0154
836.00,0.0133
835.00,0.0120
834.00,0.0111
833.00,0.0106
832.00,0.0104
831.00,0.0103
830.00,0.0101
829.00,0.0100
828.00,0.0097
827.00,0.0094
826.00,0.0092
825.00,0.0092
824.00,0.0094
823.00,0.0096
822.00,0.0098
821.00,0.0100
820.00,0.0102
819.00,0.0104
818.00,0.0109
817.00,0.0116
816.00,0.0125
815.00,0.0137
814.00,0.0153
813.00,0.0174
812.00,0.0198
811.00,0.0219
810.00,0.0234
809.00,0.0239
808.00,0.0234
807.00,0.0218
806.00,0.0197
805.00,0.0175
804.00,0.0155
803.00,0.0140
802.00,0.0129
801.00,0.0121
800.00,0.0115
799.00,0.0110
798.00,0.0105
797.00,0.0101
796.00,0.0098
795.00,0.0096
794.00,0.0093
793.00,0.0090
792.00,0.0087
791.00,0.0084
790.00,0.0083
789.00,0.0081
788.00,0.0079
787.00,0.0076
786.00,0.0073
785.00,0.0071
784.00,0.0070
783.00,0.0068
782.00,0.0067
781.00,0.0065
780.00,0.0064
779.00,0.0063
778.00,0.0062
777.00,0.0063
776.00,0.0064
775.00,0.0065
774.00,0.0066
773.00,0.0067
772.00,0.0068
771.00,0.0070
770.00,0.0070
769.00,0.0069
768.00,0.0068
767.00,0.0067
766.00,0.0068
765.00,0.0070
764.00,0.0071
763.00,0.0072
762.00,0.0071
761.00,0.0070
760.00,0.0070
759.00,0.0070
758.00,0.0072
757.00,0.0074
756.00,0.0076
755.00,0.0077
754.00,0.0078
753.00,0.0079
752.00,0.0080
751.00,0.0081
750.00,0.0082
749.00,0.0083
748.00,0.0083
747.00,0.0083
746.00,0.0083
745.00,0.0083
744.00,0.0085
743.00,0.0089
742.00,0.0094
741.00,0.0099
740.00,0.0103
739.00,0.0106
738.00,0.0109
737.00,0.0113
736.00,0.0118
735.00,0.0123
734.00,0.0128
733.00,0.0134
732.00,0.0141
731.00,0.0148
730.00,0.0153
729.00,0.0157
728.00,0.0158
727.00,0.0159
726.00,0.0159
725.00,0.0161
724.00,0.0165
723.00,0.0172
722.00,0.0179
721.00,0.0184
720.00,0.0183
719.00,0.0176
718.00,0.0164
717.00,0.0151
716.00,0.0139
715.00,0.0130
714.00,0.0124
713.00,0.0120
712.00,0.0117
711.00,0.0115
710.00,0.0113
709.00,0.0111
708.00,0.0110
707.00,0.0109
706.00,0.0108
705.00,0.0106
704.00,0.0105
703.00,0.0104
702.00,0.0104
701.00,0.0105
700.00,0.0105
699.00,0.0104
698.00,0.0100
697.00,0.0097
696.00,0.0095
695.00,0.0095
694.00,0.0097
693.00,0.0098
692.00,0.0100
691.00,0.0102
690.00,0.0102
689.00,0.0101
688.00,0.0100
687.00,0.0100
686.00,0.0101
685.00,0.0101
684.00,0.0102
683.00,0.0102
682.00,0.0101
681.00,0.0100
680.00,0.0099
679.00,0.0098
678.00,0.0097
677.00,0.0097
676.00,0.0099
675.00,0.0102
674.00,0.0106
673.00,0.0108
672.00,0.0110
671.00,0.0110
670.00,0.0110
669.00,0.0109
668.00,0.0107
667.00,0.0105
666.00,0.0103
665.00,0.0102
664.00,0.0100
663.00,0.0098
662.00,0.0097
661.00,0.0096
660.00,0.0096
659.00,0.0095
658.00,0.0092
657.00,0.0089
656.00,0.0087
655.00,0.0087
654.00,0.0089
653.00,0.0091
652.00,0.0091
651.00,0.0090
650.00,0.0087
649.00,0.0084
648.00,0.0082
647.00,0.0082
646.00,0.0084
645.00,0.0086
644.00,0.0086
643.00,0.0086
642.00,0.0087
641.00,0.0090
640.00,0.0092
639.00,0.0092
638.00,0.0090
637.00,0.0088
636.00,0.0088
635.00,0.0088
634.00,0.0087
633.00,0.0086
632.00,0.0085
631.00,0.0086
630.00,0.0088
629.00,0.0090
628.00,0.0090
627.00,0.0089
626.00,0.0088
625.00,0.0087
624.00,0.0087
623.00,0.0088
622.00,0.0088
621.00,0.0089
620.00,0.0090
619.00,0.0091
618.00,0.0091
617.00,0.0091
616.00,0.0088
615.00,0.0084
614.00,0.0080
613.00,0.0078
612.00,0.0078
611.00,0.0079
610.00,0.0080
609.00,0.0080
608.00,0.0080
607.00,0.0081
606.00,0.0083
605.00,0.0083
604.00,0.0083
603.00,0.0083
602.00,0.0085
601.00,0.0088
600.00,0.0090
599.00,0.0091
598.00,0.0089
597.00,0.0087
596.00,0.0085
595.00,0.0083
594.00,0.0082
593.00,0.0080
592.00,0.0080
591.00,0.0081
590.00,0.0081
589.00,0.0081
588.00,0.0081
587.00,0.0081
586.00,0.0083
585.00,0.0084
584.00,0.0085
583.00,0.0086
582.00,0.0088
581.00,0.0090
580.00,0.0091
579.00,0.0091
578.00,0.0088
577.00,0.0084
576.00,0.0080
575.00,0.0080
574.00,0.0081
573.00,0.0083
572.00,0.0084
571.00,0.0085
570.00,0.0087
569.00,0.0088
568.00,0.0089
567.00,0.0089
566.00,0.0090
565.00,0.0091
564.00,0.0090
563.00,0.0088
562.00,0.0085
561.00,0.0083
560.00,0.0082
559.00,0.0081
558.00,0.0081
557.00,0.0080
556.00,0.0081
555.00,0.0085
554.00,0.0090
553.00,0.0094
552.00,0.0095
551.00,0.0092
550.00,0.0089
549.00,0.0086
548.00,0.0084
547.00,0.0085
546.00,0.0089
545.00,0.0095
544.00,0.0100
543.00,0.0102
542.00,0.0101
541.00,0.0100
540.00,0.0101
539.00,0.0103
538.00,0.0105
537.00,0.0107
536.00,0.0108
535.00,0.0109
534.00,0.0111
533.00,0.0113
532.00,0.0113
531.00,0.0111
530.00,0.0108
529.00,0.0107
528.00,0.0110
527.00,0.0113
526.00,0.0114
525.00,0.0112
524.00,0.0107
523.00,0.0101
522.00,0.0095
521.00,0.0091
520.00,0.0092
519.00,0.0097
518.00,0.0103
517.00,0.0103
516.00,0.0096
515.00,0.0084
514.00,0.0073
513.00,0.0068
512.00,0.0069
511.00,0.0076
510.00,0.0085
509.00,0.0091
508.00,0.0093
507.00,0.0092
506.00,0.0091
505.00,0.0091
504.00,0.0091
503.00,0.0091
502.00,0.0089
501.00,0.0087
500.00,0.0088
499.00,0.0089
498.00,0.0091
497.00,0.0092
496.00,0.0094
495.00,0.0094
494.00,0.0090
493.00,0.0083
492.00,0.0079
491.00,0.0081
490.00,0.0089
489.00,0.0098
488.00,0.0102
487.00,0.0103
486.00,0.0103
485.00,0.0106
484.00,0.0109
483.00,0.0110
482.00,0.0106
481.00,0.0100
480.00,0.0095
479.00,0.0094
478.00,0.0097
477.00,0.0103
476.00,0.0110
475.00,0.0119
474.00,0.0127
473.00,0.0133
472.00,0.0137
471.00,0.0143
470.00,0.0150
469.00,0.0154
468.00,0.0156
467.00,0.0160
466.00,0.0170
465.00,0.0186
464.00,0.0201
463.00,0.0212
462.00,0.0217
461.00,0.0221
460.00,0.0225
459.00,0.0229
458.00,0.0224
457.00,0.0218
456.00,0.0209
455.00,0.0199
454.00,0.0189
453.00,0.0180
452.00,0.0176
451.00,0.0177
450.00,0.0177
