Created as New Dataset,Sample 067 By Administrator Date Wednesday, September 03 2025
cm-1,A
4000.00,0.0008
3999.00,0.0008
3998.00,0.0007
3997.00,0.0007
3996.00,0.0007
3995.00,0.0007
3994.00,0.0007
3993.00,0.0007
3992.00,0.0007
3991.00,0.0007
3990.00,0.0007
3989.00,0.0007
3988.00,0.0007
3987.00,0.0008
3986.00,0.0008
3985.00,0.0008
3984.00,0.0008
3983.00,0.0008
3982.00,0.0007
3981.00,0.0007
3980.00,0.0007
3979.00,0.0007
3978.00,0.0007
3977.00,0.0007
3976.00,0.0007
3975.00,0.0007
3974.00,0.0007
3973.00,0.0007
3972.00,0.0006
3971.00,0.0006
3970.00,0.0006
3969.00,0.0006
3968.00,0.0006
3967.00,0.0006
3966.00,0.0006
3965.00,0.0006
3964.00,0.0006
3963.00,0.0006
3962.00,0.0006
3961.00,0.0006
3960.00,0.0006
3959.00,0.0006
3958.00,0.0006
3957.00,0.0006
3956.00,0.0006
3955.00,0.0006
3954.00,0.0006
3953.00,0.0006
3952.00,0.0006
3951.00,0.0006
3950.00,0.0006
3949.00,0.0006
3948.00,0.0006
3947.00,0.0006
3946.00,0.0006
3945.00,0.0006
3944.00,0.0007
3943.00,0.0007
3942.00,0.0007
3941.00,0.0007
3940.00,0.0006
3939.00,0.0006
3938.00,0.0006
3937.00,0.0006
3936.00,0.0006
3935.00,0.0006
3934.00,0.0006
3933.00,0.0006
3932.00,0.0006
3931.00,0.0006
3930.00,0.0006
3929.00,0.0006
3928.00,0.0007
3927.00,0.0007
3926.00,0.0007
3925.00,0.0007
3924.00,0.0007
3923.00,0.0006
3922.00,0.0006
3921.00,0.0006
3920.00,0.0006
3919.00,0.0006
3918.00,0.0006
3917.00,0.0006
3916.00,0.0006
3915.00,0.0006
3914.00,0.0006
3913.00,0.0006
3912.00,0.0006
3911.00,0.0005
3910.00,0.0005
3909.00,0.0005
3908.00,0.0006
3907.00,0.0006
3906.00,0.0006
3905.00,0.0007
3904.00,0.0007
3903.00,0.0007
3902.00,0.0007
3901.00,0.0007
3900.00,0.0007
3899.00,0.0007
3898.00,0.0006
3897.00,0.0006
3896.00,0.0005
3895.00,0.0005
3894.00,0.0005
3893.00,0.0005
3892.00,0.0006
3891.00,0.0006
3890.00,0.0006
3889.00,0.0006
3888.00,0.0006
3887.00,0.0006
3886.00,0.0006
3885.00,0.0006
3884.00,0.0006
3883.00,0.0006
3882.00,0.0006
3881.00,0.0007
3880.00,0.0007
3879.00,0.0007
3878.00,0.0006
3877.00,0.0006
3876.00,0.0006
3875.00,0.0005
3874.00,0.0005
3873.00,0.0004
3872.00,0.0003
3871.00,0.0003
3870.00,0.0003
3869.00,0.0004
3868.00,0.0004
3867.00,0.0004
3866.00,0.0005
3865.00,0.0005
3864.00,0.0006
3863.00,0.0006
3862.00,0.0006
3861.00,0.0005
3860.00,0.0005
3859.00,0.0005
3858.00,0.0004
3857.00,0.0004
3856.00,0.0003
3855.00,0.0003
3854.00,0.0003
3853.00,0.0003
3852.00,0.0003
3851.00,0.0003
3850.00,0.0004
3849.00,0.0004
3848.00,0.0005
3847.00,0.0006
3846.00,0.0006
3845.00,0.0006
3844.00,0.0005
3843.00,0.0005
3842.00,0.0004
3841.00,0.0003
3840.00,0.0003
3839.00,0.0003
3838.00,0.0002
3837.00,0.0002
3836.00,0.0003
3835.00,0.0003
3834.00,0.0004
3833.00,0.0005
3832.00,0.0005
3831.00,0.0005
3830.00,0.0005
3829.00,0.0004
3828.00,0.0004
3827.00,0.0004
3826.00,0.0004
3825.00,0.0005
3824.00,0.0005
3823.00,0.0005
3822.00,0.0006
3821.00,0.0006
3820.00,0.0006
3819.00,0.0005
3818.00,0.0004
3817.00,0.0004
3816.00,0.0004
3815.00,0.0004
3814.00,0.0004
3813.00,0.0005
3812.00,0.0005
3811.00,0.0005
3810.00,0.0005
3809.00,0.0005
3808.00,0.0005
3807.00,0.0005
3806.00,0.0005
3805.00,0.0005
3804.00,0.0005
3803.00,0.0005
3802.00,0.0005
3801.00,0.0005
3800.00,0.0005
3799.00,0.0005
3798.00,0.0005
3797.00,0.0006
3796.00,0.0006
3795.00,0.0006
3794.00,0.0006
3793.00,0.0006
3792.00,0.0006
3791.00,0.0006
3790.00,0.0006
3789.00,0.0005
3788.00,0.0005
3787.00,0.0005
3786.00,0.0006
3785.00,0.0006
3784.00,0.0006
3783.00,0.0006
3782.00,0.0005
3781.00,0.0006
3780.00,0.0006
3779.00,0.0006
3778.00,0.0007
3777.00,0.0007
3776.00,0.0006
3775.00,0.0006
3774.00,0.0006
3773.00,0.0005
3772.00,0.0006
3771.00,0.0006
3770.00,0.0006
3769.00,0.0006
3768.00,0.0006
3767.00,0.0006
3766.00,0.0006
3765.00,0.0006
3764.00,0.0006
3763.00,0.0006
3762.00,0.0006
3761.00,0.0006
3760.00,0.0006
3759.00,0.0006
3758.00,0.0006
3757.00,0.0006
3756.00,0.0005
3755.00,0.0005
3754.00,0.0004
3753.00,0.0003
3752.00,0.0003
3751.00,0.0002
3750.00,0.0002
3749.00,0.0002
3748.00,0.0003
3747.00,0.0003
3746.00,0.0003
3745.00,0.0003
3744.00,0.0003
3743.00,0.0003
3742.00,0.0003
3741.00,0.0003
3740.00,0.0004
3739.00,0.0004
3738.00,0.0004
3737.00,0.0004
3736.00,0.0004
3735.00,0.0004
3734.00,0.0004
3733.00,0.0004
3732.00,0.0004
3731.00,0.0004
3730.00,0.0004
3729.00,0.0004
3728.00,0.0004
3727.00,0.0004
3726.00,0.0004
3725.00,0.0004
3724.00,0.0004
3723.00,0.0005
3722.00,0.0005
3721.00,0.0005
3720.00,0.0004
3719.00,0.0004
3718.00,0.0004
3717.00,0.0004
3716.00,0.0004
3715.00,0.0005
3714.00,0.0005
3713.00,0.0005
3712.00,0.0005
3711.00,0.0005
3710.00,0.0005
3709.00,0.0004
3708.00,0.0004
3707.00,0.0004
3706.00,0.0003
3705.00,0.0003
3704.00,0.0003
3703.00,0.0003
3702.00,0.0003
3701.00,0.0003
3700.00,0.0003
3699.00,0.0004
3698.00,0.0004
3697.00,0.0004
3696.00,0.0004
3695.00,0.0003
3694.00,0.0003
3693.00,0.0002
3692.00,0.0002
3691.00,0.0002
3690.00,0.0002
3689.00,0.0002
3688.00,0.0003
3687.00,0.0003
3686.00,0.0004
3685.00,0.0004
3684.00,0.0005
3683.00,0.0005
3682.00,0.0005
3681.00,0.0005
3680.00,0.0004
3679.00,0.0004
3678.00,0.0003
3677.00,0.0002
3676.00,0.0002
3675.00,0.0002
3674.00,0.0001
3673.00,0.0001
3672.00,0.0001
3671.00,0.0002
3670.00,0.0002
3669.00,0.0003
3668.00,0.0004
3667.00,0.0004
3666.00,0.0004
3665.00,0.0004
3664.00,0.0004
3663.00,0.0004
3662.00,0.0004
3661.00,0.0004
3660.00,0.0003
3659.00,0.0003
3658.00,0.0004
3657.00,0.0004
3656.00,0.0004
3655.00,0.0004
3654.00,0.0004
3653.00,0.0004
3652.00,0.0004
3651.00,0.0004
3650.00,0.0005
3649.00,0.0005
3648.00,0.0004
3647.00,0.0004
3646.00,0.0004
3645.00,0.0004
3644.00,0.0004
3643.00,0.0004
3642.00,0.0004
3641.00,0.0005
3640.00,0.0005
3639.00,0.0005
3638.00,0.0005
3637.00,0.0006
3636.00,0.0006
3635.00,0.0006
3634.00,0.0006
3633.00,0.0005
3632.00,0.0005
3631.00,0.0005
3630.00,0.0004
3629.00,0.0005
3628.00,0.0005
3627.00,0.0005
3626.00,0.0005
3625.00,0.0005
3624.00,0.0004
3623.00,0.0004
3622.00,0.0004
3621.00,0.0004
3620.00,0.0004
3619.00,0.0004
3618.00,0.0004
3617.00,0.0005
3616.00,0.0005
3615.00,0.0005
3614.00,0.0005
3613.00,0.0006
3612.00,0.0006
3611.00,0.0006
3610.00,0.0006
3609.00,0.0007
3608.00,0.0007
3607.00,0.0008
3606.00,0.0007
3605.00,0.0007
3604.00,0.0007
3603.00,0.0006
3602.00,0.0006
3601.00,0.0006
3600.00,0.0006
3599.00,0.0006
3598.00,0.0006
3597.00,0.0006
3596.00,0.0006
3595.00,0.0006
3594.00,0.0007
3593.00,0.0007
3592.00,0.0007
3591.00,0.0008
3590.00,0.0008
3589.00,0.0008
3588.00,0.0008
3587.00,0.0008
3586.00,0.0008
3585.00,0.0008
3584.00,0.0009
3583.00,0.0009
3582.00,0.0010
3581.00,0.0010
3580.00,0.0010
3579.00,0.0010
3578.00,0.0009
3577.00,0.0009
3576.00,0.0009
3575.00,0.0009
3574.00,0.0010
3573.00,0.0010
3572.00,0.0010
3571.00,0.0010
3570.00,0.0011
3569.00,0.0011
3568.00,0.0012
3567.00,0.0012
3566.00,0.0012
3565.00,0.0012
3564.00,0.0012
3563.00,0.0012
3562.00,0.0011
3561.00,0.0011
3560.00,0.0011
3559.00,0.0011
3558.00,0.0012
3557.00,0.0012
3556.00,0.0012
3555.00,0.0013
3554.00,0.0013
3553.00,0.0013
3552.00,0.0013
3551.00,0.0013
3550.00,0.0014
3549.00,0.0014
3548.00,0.0014
3547.00,0.0014
3546.00,0.0015
3545.00,0.0015
3544.00,0.0016
3543.00,0.0016
3542.00,0.0016
3541.00,0.0016
3540.00,0.0016
3539.00,0.0016
3538.00,0.0016
3537.00,0.0016
3536.00,0.0016
3535.00,0.0016
3534.00,0.0016
3533.00,0.0016
3532.00,0.0017
3531.00,0.0017
3530.00,0.0017
3529.00,0.0017
3528.00,0.0017
3527.00,0.0018
3526.00,0.0018
3525.00,0.0018
3524.00,0.0019
3523.00,0.0018
3522.00,0.0018
3521.00,0.0018
3520.00,0.0018
3519.00,0.0019
3518.00,0.0019
3517.00,0.0019
3516.00,0.0019
3515.00,0.0020
3514.00,0.0020
3513.00,0.0020
3512.00,0.0020
3511.00,0.0020
3510.00,0.0020
3509.00,0.0020
3508.00,0.0020
3507.00,0.0021
3506.00,0.0021
3505.00,0.0021
3504.00,0.0021
3503.00,0.0021
3502.00,0.0022
3501.00,0.0022
3500.00,0.0022
3499.00,0.0022
3498.00,0.0022
3497.00,0.0021
3496.00,0.0021
3495.00,0.0021
3494.00,0.0022
3493.00,0.0023
3492.00,0.0023
3491.00,0.0024
3490.00,0.0024
3489.00,0.0024
3488.00,0.0024
3487.00,0.0024
3486.00,0.0024
3485.00,0.0024
3484.00,0.0024
3483.00,0.0024
3482.00,0.0025
3481.00,0.0025
3480.00,0.0025
3479.00,0.0025
3478.00,0.0025
3477.00,0.0025
3476.00,0.0025
3475.00,0.0025
3474.00,0.0025
3473.00,0.0026
3472.00,0.0026
3471.00,0.0026
3470.00,0.0026
3469.00,0.0026
3468.00,0.0026
3467.00,0.0026
3466.00,0.0026
3465.00,0.0027
3464.00,0.0027
3463.00,0.0027
3462.00,0.0027
3461.00,0.0027
3460.00,0.0027
3459.00,0.0027
3458.00,0.0027
3457.00,0.0028
3456.00,0.0028
3455.00,0.0029
3454.00,0.0029
3453.00,0.0029
3452.00,0.0029
3451.00,0.0029
3450.00,0.0029
3449.00,0.0029
3448.00,0.0029
3447.00,0.0029
3446.00,0.0029
3445.00,0.0029
3444.00,0.0029
3443.00,0.0030
3442.00,0.0030
3441.00,0.0030
3440.00,0.0030
3439.00,0.0030
3438.00,0.0030
3437.00,0.0030
3436.00,0.0030
3435.00,0.0031
3434.00,0.0031
3433.00,0.0031
3432.00,0.0031
3431.00,0.0032
3430.00,0.0032
3429.00,0.0033
3428.00,0.0033
3427.00,0.0033
3426.00,0.0033
3425.00,0.0033
3424.00,0.0033
3423.00,0.0034
3422.00,0.0034
3421.00,0.0034
3420.00,0.0035
3419.00,0.0035
3418.00,0.0035
3417.00,0.0036
3416.00,0.0035
3415.00,0.0035
3414.00,0.0036
3413.00,0.0036
3412.00,0.0036
3411.00,0.0036
3410.00,0.0036
3409.00,0.0036
3408.00,0.0035
3407.00,0.0035
3406.00,0.0035
3405.00,0.0035
3404.00,0.0035
3403.00,0.0035
3402.00,0.0036
3401.00,0.0036
3400.00,0.0036
3399.00,0.0036
3398.00,0.0036
3397.00,0.0036
3396.00,0.0036
3395.00,0.0036
3394.00,0.0036
3393.00,0.0037
3392.00,0.0037
3391.00,0.0037
3390.00,0.0037
3389.00,0.0037
3388.00,0.0037
3387.00,0.0038
3386.00,0.0038
3385.00,0.0038
3384.00,0.0038
3383.00,0.0037
3382.00,0.0037
3381.00,0.0037
3380.00,0.0037
3379.00,0.0037
3378.00,0.0037
3377.00,0.0037
3376.00,0.0037
3375.00,0.0037
3374.00,0.0037
3373.00,0.0038
3372.00,0.0038
3371.00,0.0038
3370.00,0.0038
3369.00,0.0039
3368.00,0.0039
3367.00,0.0039
3366.00,0.0039
3365.00,0.0039
3364.00,0.0039
3363.00,0.0039
3362.00,0.0039
3361.00,0.0039
3360.00,0.0039
3359.00,0.0039
3358.00,0.0039
3357.00,0.0039
3356.00,0.0039
3355.00,0.0039
3354.00,0.0039
3353.00,0.0039
3352.00,0.0039
3351.00,0.0039
3350.00,0.0039
3349.00,0.0039
3348.00,0.0040
3347.00,0.0040
3346.00,0.0041
3345.00,0.0041
3344.00,0.0040
3343.00,0.0040
3342.00,0.0040
3341.00,0.0040
3340.00,0.0040
3339.00,0.0040
3338.00,0.0040
3337.00,0.0040
3336.00,0.0040
3335.00,0.0040
3334.00,0.0040
3333.00,0.0040
3332.00,0.0040
3331.00,0.0040
3330.00,0.0040
3329.00,0.0040
3328.00,0.0040
3327.00,0.0040
3326.00,0.0040
3325.00,0.0039
3324.00,0.0039
3323.00,0.0039
3322.00,0.0038
3321.00,0.0039
3320.00,0.0039
3319.00,0.0039
3318.00,0.0039
3317.00,0.0039
3316.00,0.0039
3315.00,0.0040
3314.00,0.0040
3313.00,0.0040
3312.00,0.0041
3311.00,0.0041
3310.00,0.0041
3309.00,0.0040
3308.00,0.0040
3307.00,0.0040
3306.00,0.0040
3305.00,0.0041
3304.00,0.0041
3303.00,0.0041
3302.00,0.0041
3301.00,0.0042
3300.00,0.0042
3299.00,0.0042
3298.00,0.0042
3297.00,0.0042
3296.00,0.0041
3295.00,0.0041
3294.00,0.0041
3293.00,0.0040
3292.00,0.0040
3291.00,0.0040
3290.00,0.0040
3289.00,0.0040
3288.00,0.0039
3287.00,0.0039
3286.00,0.0038
3285.00,0.0038
3284.00,0.0038
3283.00,0.0037
3282.00,0.0037
3281.00,0.0036
3280.00,0.0036
3279.00,0.0037
3278.00,0.0037
3277.00,0.0037
3276.00,0.0038
3275.00,0.0038
3274.00,0.0038
3273.00,0.0037
3272.00,0.0037
3271.00,0.0037
3270.00,0.0036
3269.00,0.0036
3268.00,0.0036
3267.00,0.0036
3266.00,0.0036
3265.00,0.0036
3264.00,0.0035
3263.00,0.0035
3262.00,0.0035
3261.00,0.0035
3260.00,0.0035
3259.00,0.0035
3258.00,0.0035
3257.00,0.0034
3256.00,0.0034
3255.00,0.0033
3254.00,0.0033
3253.00,0.0034
3252.00,0.0034
3251.00,0.0034
3250.00,0.0034
3249.00,0.0034
3248.00,0.0034
3247.00,0.0034
3246.00,0.0033
3245.00,0.0033
3244.00,0.0033
3243.00,0.0033
3242.00,0.0034
3241.00,0.0034
3240.00,0.0034
3239.00,0.0034
3238.00,0.0034
3237.00,0.0034
3236.00,0.0034
3235.00,0.0034
3234.00,0.0034
3233.00,0.0034
3232.00,0.0034
3231.00,0.0034
3230.00,0.0034
3229.00,0.0034
3228.00,0.0034
3227.00,0.0034
3226.00,0.0035
3225.00,0.0035
3224.00,0.0035
3223.00,0.0036
3222.00,0.0036
3221.00,0.0037
3220.00,0.0037
3219.00,0.0037
3218.00,0.0037
3217.00,0.0037
3216.00,0.0037
3215.00,0.0037
3214.00,0.0037
3213.00,0.0037
3212.00,0.0037
3211.00,0.0037
3210.00,0.0037
3209.00,0.0038
3208.00,0.0038
3207.00,0.0038
3206.00,0.0038
3205.00,0.0038
3204.00,0.0038
3203.00,0.0039
3202.00,0.0039
3201.00,0.0039
3200.00,0.0039
3199.00,0.0039
3198.00,0.0040
3197.00,0.0040
3196.00,0.0040
3195.00,0.0040
3194.00,0.0039
3193.00,0.0039
3192.00,0.0039
3191.00,0.0039
3190.00,0.0040
3189.00,0.0040
3188.00,0.0040
3187.00,0.0039
3186.00,0.0039
3185.00,0.0038
3184.00,0.0038
3183.00,0.0038
3182.00,0.0038
3181.00,0.0037
3180.00,0.0037
3179.00,0.0037
3178.00,0.0037
3177.00,0.0037
3176.00,0.0037
3175.00,0.0036
3174.00,0.0036
3173.00,0.0035
3172.00,0.0035
3171.00,0.0035
3170.00,0.0035
3169.00,0.0035
3168.00,0.0035
3167.00,0.0035
3166.00,0.0035
3165.00,0.0035
3164.00,0.0034
3163.00,0.0034
3162.00,0.0034
3161.00,0.0034
3160.00,0.0035
3159.00,0.0035
3158.00,0.0035
3157.00,0.0035
3156.00,0.0034
3155.00,0.0034
3154.00,0.0034
3153.00,0.0034
3152.00,0.0034
3151.00,0.0034
3150.00,0.0034
3149.00,0.0034
3148.00,0.0034
3147.00,0.0034
3146.00,0.0034
3145.00,0.0034
3144.00,0.0034
3143.00,0.0034
3142.00,0.0035
3141.00,0.0035
3140.00,0.0034
3139.00,0.0034
3138.00,0.0033
3137.00,0.0033
3136.00,0.0033
3135.00,0.0032
3134.00,0.0032
3133.00,0.0032
3132.00,0.0032
3131.00,0.0032
3130.00,0.0032
3129.00,0.0032
3128.00,0.0032
3127.00,0.0032
3126.00,0.0031
3125.00,0.0030
3124.00,0.0030
3123.00,0.0029
3122.00,0.0029
3121.00,0.0029
3120.00,0.0029
3119.00,0.0029
3118.00,0.0029
3117.00,0.0028
3116.00,0.0028
3115.00,0.0028
3114.00,0.0029
3113.00,0.0029
3112.00,0.0028
3111.00,0.0028
3110.00,0.0028
3109.00,0.0028
3108.00,0.0028
3107.00,0.0028
3106.00,0.0028
3105.00,0.0028
3104.00,0.0028
3103.00,0.0028
3102.00,0.0028
3101.00,0.0028
3100.00,0.0027
3099.00,0.0027
3098.00,0.0027
3097.00,0.0027
3096.00,0.0027
3095.00,0.0027
3094.00,0.0027
3093.00,0.0027
3092.00,0.0027
3091.00,0.0027
3090.00,0.0028
3089.00,0.0028
3088.00,0.0028
3087.00,0.0028
3086.00,0.0028
3085.00,0.0027
3084.00,0.0027
3083.00,0.0027
3082.00,0.0027
3081.00,0.0028
3080.00,0.0028
3079.00,0.0028
3078.00,0.0028
3077.00,0.0028
3076.00,0.0028
3075.00,0.0028
3074.00,0.0028
3073.00,0.0028
3072.00,0.0028
3071.00,0.0028
3070.00,0.0028
3069.00,0.0028
3068.00,0.0028
3067.00,0.0029
3066.00,0.0029
3065.00,0.0029
3064.00,0.0030
3063.00,0.0030
3062.00,0.0030
3061.00,0.0030
3060.00,0.0030
3059.00,0.0030
3058.00,0.0030
3057.00,0.0030
3056.00,0.0030
3055.00,0.0031
3054.00,0.0031
3053.00,0.0031
3052.00,0.0031
3051.00,0.0031
3050.00,0.0031
3049.00,0.0032
3048.00,0.0032
3047.00,0.0032
3046.00,0.0032
3045.00,0.0032
3044.00,0.0033
3043.00,0.0033
3042.00,0.0033
3041.00,0.0034
3040.00,0.0035
3039.00,0.0035
3038.00,0.0035
3037.00,0.0035
3036.00,0.0035
3035.00,0.0035
3034.00,0.0035
3033.00,0.0036
3032.00,0.0036
3031.00,0.0036
3030.00,0.0037
3029.00,0.0037
3028.00,0.0038
3027.00,0.0038
3026.00,0.0039
3025.00,0.0040
3024.00,0.0041
3023.00,0.0042
3022.00,0.0042
3021.00,0.0043
3020.00,0.0044
3019.00,0.0044
3018.00,0.0045
3017.00,0.0046
3016.00,0.0047
3015.00,0.0048
3014.00,0.0049
3013.00,0.0050
3012.00,0.0051
3011.00,0.0052
3010.00,0.0053
3009.00,0.0055
3008.00,0.0056
3007.00,0.0058
3006.00,0.0060
3005.00,0.0062
3004.00,0.0064
3003.00,0.0066
3002.00,0.0068
3001.00,0.0070
3000.00,0.0072
2999.00,0.0075
2998.00,0.0078
2997.00,0.0081
2996.00,0.0085
2995.00,0.0089
2994.00,0.0093
2993.00,0.0097
2992.00,0.0102
2991.00,0.0107
2990.00,0.0113
2989.00,0.0121
2988.00,0.0129
2987.00,0.0138
2986.00,0.0147
2985.00,0.0157
2984.00,0.0168
2983.00,0.0181
2982.00,0.0196
2981.00,0.0214
2980.00,0.0233
2979.00,0.0255
2978.00,0.0281
2977.00,0.0310
2976.00,0.0343
2975.00,0.0381
2974.00,0.0424
2973.00,0.0474
2972.00,0.0530
2971.00,0.0593
2970.00,0.0664
2969.00,0.0743
2968.00,0.0829
2967.00,0.0923
2966.00,0.1022
2965.00,0.1126
2964.00,0.1229
2963.00,0.1328
2962.00,0.1418
2961.00,0.1493
2960.00,0.1552
2959.00,0.1597
2958.00,0.1631
2957.00,0.1660
2956.00,0.1691
2955.00,0.1728
2954.00,0.1772
2953.00,0.1819
2952.00,0.1859
2951.00,0.1884
2950.00,0.1882
2949.00,0.1846
2948.00,0.1775
2947.00,0.1675
2946.00,0.1555
2945.00,0.1431
2944.00,0.1314
2943.00,0.1215
2942.00,0.1138
2941.00,0.1085
2940.00,0.1056
2939.00,0.1048
2938.00,0.1060
2937.00,0.1088
2936.00,0.1132
2935.00,0.1191
2934.00,0.1262
2933.00,0.1345
2932.00,0.1439
2931.00,0.1540
2930.00,0.1647
2929.00,0.1757
2928.00,0.1865
2927.00,0.1971
2926.00,0.2072
2925.00,0.2168
2924.00,0.2261
2923.00,0.2351
2922.00,0.2439
2921.00,0.2521
2920.00,0.2592
2919.00,0.2644
2918.00,0.2668
2917.00,0.2658
2916.00,0.2614
2915.00,0.2542
2914.00,0.2450
2913.00,0.2351
2912.00,0.2254
2911.00,0.2166
2910.00,0.2087
2909.00,0.2018
2908.00,0.1955
2907.00,0.1895
2906.00,0.1835
2905.00,0.1773
2904.00,0.1708
2903.00,0.1642
2902.00,0.1576
2901.00,0.1510
2900.00,0.1445
2899.00,0.1384
2898.00,0.1326
2897.00,0.1273
2896.00,0.1225
2895.00,0.1184
2894.00,0.1149
2893.00,0.1120
2892.00,0.1096
2891.00,0.1078
2890.00,0.1065
2889.00,0.1057
2888.00,0.1052
2887.00,0.1050
2886.00,0.1052
2885.00,0.1057
2884.00,0.1066
2883.00,0.1080
2882.00,0.1097
2881.00,0.1117
2880.00,0.1137
2879.00,0.1153
2878.00,0.1163
2877.00,0.1165
2876.00,0.1160
2875.00,0.1153
2874.00,0.1146
2873.00,0.1145
2872.00,0.1151
2871.00,0.1164
2870.00,0.1181
2869.00,0.1198
2868.00,0.1208
2867.00,0.1203
2866.00,0.1180
2865.00,0.1136
2864.00,0.1074
2863.00,0.1004
2862.00,0.0934
2861.00,0.0873
2860.00,0.0826
2859.00,0.0794
2858.00,0.0776
2857.00,0.0770
2856.00,0.0774
2855.00,0.0785
2854.00,0.0801
2853.00,0.0820
2852.00,0.0840
2851.00,0.0857
2850.00,0.0872
2849.00,0.0883
2848.00,0.0893
2847.00,0.0908
2846.00,0.0931
2845.00,0.0965
2844.00,0.1011
2843.00,0.1064
2842.00,0.1122
2841.00,0.1176
2840.00,0.1219
2839.00,0.1243
2838.00,0.1239
2837.00,0.1205
2836.00,0.1139
2835.00,0.1048
2834.00,0.0943
2833.00,0.0833
2832.00,0.0729
2831.00,0.0636
2830.00,0.0558
2829.00,0.0494
2828.00,0.0442
2827.00,0.0400
2826.00,0.0366
2825.00,0.0337
2824.00,0.0313
2823.00,0.0293
2822.00,0.0276
2821.00,0.0262
2820.00,0.0249
2819.00,0.0237
2818.00,0.0227
2817.00,0.0219
2816.00,0.0211
2815.00,0.0204
2814.00,0.0197
2813.00,0.0191
2812.00,0.0186
2811.00,0.0181
2810.00,0.0176
2809.00,0.0170
2808.00,0.0164
2807.00,0.0158
2806.00,0.0152
2805.00,0.0145
2804.00,0.0139
2803.00,0.0133
2802.00,0.0127
2801.00,0.0122
2800.00,0.0119
2799.00,0.0116
2798.00,0.0114
2797.00,0.0111
2796.00,0.0109
2795.00,0.0107
2794.00,0.0105
2793.00,0.0102
2792.00,0.0098
2791.00,0.0095
2790.00,0.0091
2789.00,0.0088
2788.00,0.0085
2787.00,0.0082
2786.00,0.0079
2785.00,0.0076
2784.00,0.0074
2783.00,0.0072
2782.00,0.0070
2781.00,0.0068
2780.00,0.0066
2779.00,0.0064
2778.00,0.0063
2777.00,0.0061
2776.00,0.0060
2775.00,0.0059
2774.00,0.0058
2773.00,0.0057
2772.00,0.0057
2771.00,0.0056
2770.00,0.0055
2769.00,0.0055
2768.00,0.0055
2767.00,0.0054
2766.00,0.0054
2765.00,0.0054
2764.00,0.0053
2763.00,0.0053
2762.00,0.0053
2761.00,0.0053
2760.00,0.0052
2759.00,0.0052
2758.00,0.0052
2757.00,0.0052
2756.00,0.0052
2755.00,0.0052
2754.00,0.0052
2753.00,0.0051
2752.00,0.0051
2751.00,0.0050
2750.00,0.0050
2749.00,0.0050
2748.00,0.0050
2747.00,0.0050
2746.00,0.0051
2745.00,0.0052
2744.00,0.0053
2743.00,0.0053
2742.00,0.0054
2741.00,0.0055
2740.00,0.0056
2739.00,0.0057
2738.00,0.0058
2737.00,0.0060
2736.00,0.0062
2735.00,0.0063
2734.00,0.0064
2733.00,0.0066
2732.00,0.0067
2731.00,0.0069
2730.00,0.0071
2729.00,0.0073
2728.00,0.0076
2727.00,0.0079
2726.00,0.0082
2725.00,0.0084
2724.00,0.0085
2723.00,0.0086
2722.00,0.0085
2721.00,0.0083
2720.00,0.0080
2719.00,0.0077
2718.00,0.0074
2717.00,0.0071
2716.00,0.0068
2715.00,0.0065
2714.00,0.0063
2713.00,0.0061
2712.00,0.0059
2711.00,0.0057
2710.00,0.0056
2709.00,0.0055
2708.00,0.0053
2707.00,0.0052
2706.00,0.0051
2705.00,0.0050
2704.00,0.0049
2703.00,0.0048
2702.00,0.0047
2701.00,0.0047
2700.00,0.0046
2699.00,0.0045
2698.00,0.0045
2697.00,0.0044
2696.00,0.0044
2695.00,0.0044
2694.00,0.0044
2693.00,0.0045
2692.00,0.0045
2691.00,0.0045
2690.00,0.0045
2689.00,0.0045
2688.00,0.0045
2687.00,0.0045
2686.00,0.0045
2685.00,0.0045
2684.00,0.0045
2683.00,0.0045
2682.00,0.0045
2681.00,0.0045
2680.00,0.0045
2679.00,0.0045
2678.00,0.0045
2677.00,0.0046
2676.00,0.0046
2675.00,0.0046
2674.00,0.0045
2673.00,0.0045
2672.00,0.0044
2671.00,0.0044
2670.00,0.0044
2669.00,0.0044
2668.00,0.0044
2667.00,0.0044
2666.00,0.0045
2665.00,0.0046
2664.00,0.0046
2663.00,0.0046
2662.00,0.0047
2661.00,0.0047
2660.00,0.0048
2659.00,0.0048
2658.00,0.0048
2657.00,0.0048
2656.00,0.0047
2655.00,0.0047
2654.00,0.0046
2653.00,0.0045
2652.00,0.0045
2651.00,0.0044
2650.00,0.0044
2649.00,0.0044
2648.00,0.0044
2647.00,0.0044
2646.00,0.0043
2645.00,0.0043
2644.00,0.0042
2643.00,0.0041
2642.00,0.0040
2641.00,0.0039
2640.00,0.0038
2639.00,0.0038
2638.00,0.0038
2637.00,0.0038
2636.00,0.0038
2635.00,0.0037
2634.00,0.0038
2633.00,0.0038
2632.00,0.0038
2631.00,0.0039
2630.00,0.0039
2629.00,0.0039
2628.00,0.0039
2627.00,0.0039
2626.00,0.0040
2625.00,0.0040
2624.00,0.0040
2623.00,0.0040
2622.00,0.0041
2621.00,0.0041
2620.00,0.0041
2619.00,0.0041
2618.00,0.0041
2617.00,0.0041
2616.00,0.0040
2615.00,0.0040
2614.00,0.0040
2613.00,0.0039
2612.00,0.0038
2611.00,0.0038
2610.00,0.0037
2609.00,0.0037
2608.00,0.0036
2607.00,0.0035
2606.00,0.0034
2605.00,0.0034
2604.00,0.0033
2603.00,0.0033
2602.00,0.0032
2601.00,0.0032
2600.00,0.0032
2599.00,0.0032
2598.00,0.0032
2597.00,0.0032
2596.00,0.0032
2595.00,0.0032
2594.00,0.0032
2593.00,0.0032
2592.00,0.0032
2591.00,0.0033
2590.00,0.0034
2589.00,0.0035
2588.00,0.0036
2587.00,0.0037
2586.00,0.0038
2585.00,0.0038
2584.00,0.0038
2583.00,0.0038
2582.00,0.0038
2581.00,0.0038
2580.00,0.0038
2579.00,0.0036
2578.00,0.0035
2577.00,0.0034
2576.00,0.0033
2575.00,0.0032
2574.00,0.0031
2573.00,0.0030
2572.00,0.0030
2571.00,0.0029
2570.00,0.0028
2569.00,0.0027
2568.00,0.0026
2567.00,0.0025
2566.00,0.0025
2565.00,0.0024
2564.00,0.0024
2563.00,0.0024
2562.00,0.0024
2561.00,0.0024
2560.00,0.0023
2559.00,0.0023
2558.00,0.0022
2557.00,0.0022
2556.00,0.0021
2555.00,0.0021
2554.00,0.0020
2553.00,0.0020
2552.00,0.0020
2551.00,0.0021
2550.00,0.0021
2549.00,0.0020
2548.00,0.0020
2547.00,0.0019
2546.00,0.0019
2545.00,0.0019
2544.00,0.0018
2543.00,0.0018
2542.00,0.0018
2541.00,0.0017
2540.00,0.0017
2539.00,0.0017
2538.00,0.0017
2537.00,0.0017
2536.00,0.0018
2535.00,0.0018
2534.00,0.0018
2533.00,0.0017
2532.00,0.0017
2531.00,0.0016
2530.00,0.0016
2529.00,0.0016
2528.00,0.0016
2527.00,0.0015
2526.00,0.0015
2525.00,0.0014
2524.00,0.0014
2523.00,0.0014
2522.00,0.0014
2521.00,0.0014
2520.00,0.0013
2519.00,0.0013
2518.00,0.0012
2517.00,0.0012
2516.00,0.0012
2515.00,0.0011
2514.00,0.0011
2513.00,0.0011
2512.00,0.0010
2511.00,0.0010
2510.00,0.0010
2509.00,0.0010
2508.00,0.0010
2507.00,0.0010
2506.00,0.0010
2505.00,0.0010
2504.00,0.0010
2503.00,0.0010
2502.00,0.0009
2501.00,0.0009
2500.00,0.0010
2499.00,0.0010
2498.00,0.0011
2497.00,0.0011
2496.00,0.0012
2495.00,0.0012
2494.00,0.0012
2493.00,0.0011
2492.00,0.0011
2491.00,0.0011
2490.00,0.0011
2489.00,0.0011
2488.00,0.0011
2487.00,0.0010
2486.00,0.0010
2485.00,0.0010
2484.00,0.0009
2483.00,0.0009
2482.00,0.0009
2481.00,0.0009
2480.00,0.0009
2479.00,0.0010
2478.00,0.0010
2477.00,0.0009
2476.00,0.0009
2475.00,0.0009
2474.00,0.0009
2473.00,0.0009
2472.00,0.0009
2471.00,0.0010
2470.00,0.0009
2469.00,0.0009
2468.00,0.0009
2467.00,0.0008
2466.00,0.0008
2465.00,0.0008
2464.00,0.0008
2463.00,0.0009
2462.00,0.0009
2461.00,0.0010
2460.00,0.0010
2459.00,0.0010
2458.00,0.0010
2457.00,0.0010
2456.00,0.0010
2455.00,0.0010
2454.00,0.0010
2453.00,0.0011
2452.00,0.0011
2451.00,0.0011
2450.00,0.0011
2449.00,0.0011
2448.00,0.0011
2447.00,0.0010
2446.00,0.0010
2445.00,0.0011
2444.00,0.0011
2443.00,0.0011
2442.00,0.0011
2441.00,0.0011
2440.00,0.0011
2439.00,0.0011
2438.00,0.0012
2437.00,0.0012
2436.00,0.0012
2435.00,0.0011
2434.00,0.0011
2433.00,0.0011
2432.00,0.0011
2431.00,0.0011
2430.00,0.0011
2429.00,0.0012
2428.00,0.0012
2427.00,0.0012
2426.00,0.0012
2425.00,0.0011
2424.00,0.0010
2423.00,0.0010
2422.00,0.0009
2421.00,0.0009
2420.00,0.0009
2419.00,0.0009
2418.00,0.0009
2417.00,0.0009
2416.00,0.0009
2415.00,0.0010
2414.00,0.0010
2413.00,0.0010
2412.00,0.0010
2411.00,0.0010
2410.00,0.0010
2409.00,0.0009
2408.00,0.0009
2407.00,0.0009
2406.00,0.0009
2405.00,0.0009
2404.00,0.0009
2403.00,0.0010
2402.00,0.0010
2401.00,0.0010
2400.00,0.0010
2399.00,0.0009
2398.00,0.0008
2397.00,0.0008
2396.00,0.0008
2395.00,0.0009
2394.00,0.0009
2393.00,0.0009
2392.00,0.0008
2391.00,0.0008
2390.00,0.0008
2389.00,0.0008
2388.00,0.0008
2387.00,0.0008
2386.00,0.0008
2385.00,0.0008
2384.00,0.0007
2383.00,0.0007
2382.00,0.0007
2381.00,0.0007
2380.00,0.0006
2379.00,0.0006
2378.00,0.0006
2377.00,0.0006
2376.00,0.0006
2375.00,0.0006
2374.00,0.0006
2373.00,0.0006
2372.00,0.0006
2371.00,0.0006
2370.00,0.0006
2369.00,0.0006
2368.00,0.0006
2367.00,0.0006
2366.00,0.0005
2365.00,0.0005
2364.00,0.0005
2363.00,0.0006
2362.00,0.0006
2361.00,0.0006
2360.00,0.0007
2359.00,0.0007
2358.00,0.0008
2357.00,0.0008
2356.00,0.0008
2355.00,0.0008
2354.00,0.0007
2353.00,0.0007
2352.00,0.0007
2351.00,0.0006
2350.00,0.0006
2349.00,0.0007
2348.00,0.0007
2347.00,0.0008
2346.00,0.0008
2345.00,0.0007
2344.00,0.0007
2343.00,0.0007
2342.00,0.0008
2341.00,0.0009
2340.00,0.0010
2339.00,0.0010
2338.00,0.0010
2337.00,0.0009
2336.00,0.0009
2335.00,0.0008
2334.00,0.0008
2333.00,0.0009
2332.00,0.0009
2331.00,0.0009
2330.00,0.0009
2329.00,0.0010
2328.00,0.0011
2327.00,0.0014
2326.00,0.0018
2325.00,0.0022
2324.00,0.0024
2323.00,0.0024
2322.00,0.0023
2321.00,0.0020
2320.00,0.0018
2319.00,0.0017
2318.00,0.0016
2317.00,0.0015
2316.00,0.0015
2315.00,0.0014
2314.00,0.0014
2313.00,0.0013
2312.00,0.0013
2311.00,0.0013
2310.00,0.0013
2309.00,0.0013
2308.00,0.0013
2307.00,0.0013
2306.00,0.0013
2305.00,0.0012
2304.00,0.0012
2303.00,0.0012
2302.00,0.0012
2301.00,0.0013
2300.00,0.0013
2299.00,0.0012
2298.00,0.0012
2297.00,0.0013
2296.00,0.0013
2295.00,0.0014
2294.00,0.0014
2293.00,0.0014
2292.00,0.0015
2291.00,0.0015
2290.00,0.0016
2289.00,0.0017
2288.00,0.0018
2287.00,0.0019
2286.00,0.0019
2285.00,0.0019
2284.00,0.0018
2283.00,0.0018
2282.00,0.0017
2281.00,0.0016
2280.00,0.0016
2279.00,0.0015
2278.00,0.0015
2277.00,0.0015
2276.00,0.0015
2275.00,0.0015
2274.00,0.0015
2273.00,0.0015
2272.00,0.0015
2271.00,0.0014
2270.00,0.0014
2269.00,0.0014
2268.00,0.0015
2267.00,0.0014
2266.00,0.0013
2265.00,0.0011
2264.00,0.0010
2263.00,0.0010
2262.00,0.0011
2261.00,0.0011
2260.00,0.0011
2259.00,0.0010
2258.00,0.0009
2257.00,0.0009
2256.00,0.0009
2255.00,0.0011
2254.00,0.0012
2253.00,0.0013
2252.00,0.0012
2251.00,0.0011
2250.00,0.0009
2249.00,0.0008
2248.00,0.0008
2247.00,0.0008
2246.00,0.0008
2245.00,0.0008
2244.00,0.0008
2243.00,0.0007
2242.00,0.0006
2241.00,0.0005
2240.00,0.0006
2239.00,0.0008
2238.00,0.0009
2237.00,0.0010
2236.00,0.0010
2235.00,0.0010
2234.00,0.0011
2233.00,0.0011
2232.00,0.0012
2231.00,0.0013
2230.00,0.0013
2229.00,0.0013
2228.00,0.0012
2227.00,0.0011
2226.00,0.0009
2225.00,0.0008
2224.00,0.0008
2223.00,0.0009
2222.00,0.0009
2221.00,0.0008
2220.00,0.0006
2219.00,0.0004
2218.00,0.0002
2217.00,0.0002
2216.00,0.0003
2215.00,0.0006
2214.00,0.0008
2213.00,0.0007
2212.00,0.0005
2211.00,0.0003
2210.00,0.0002
2209.00,0.0003
2208.00,0.0004
2207.00,0.0006
2206.00,0.0008
2205.00,0.0009
2204.00,0.0010
2203.00,0.0009
2202.00,0.0008
2201.00,0.0008
2200.00,0.0007
2199.00,0.0007
2198.00,0.0007
2197.00,0.0006
2196.00,0.0006
2195.00,0.0007
2194.00,0.0008
2193.00,0.0009
2192.00,0.0010
2191.00,0.0010
2190.00,0.0009
2189.00,0.0009
2188.00,0.0010
2187.00,0.0012
2186.00,0.0015
2185.00,0.0017
2184.00,0.0016
2183.00,0.0013
2182.00,0.0009
2181.00,0.0005
2180.00,0.0003
2179.00,0.0003
2178.00,0.0004
2177.00,0.0005
2176.00,0.0005
2175.00,0.0006
2174.00,0.0006
2173.00,0.0008
2172.00,0.0009
2171.00,0.0011
2170.00,0.0011
2169.00,0.0012
2168.00,0.0013
2167.00,0.0014
2166.00,0.0015
2165.00,0.0016
2164.00,0.0017
2163.00,0.0017
2162.00,0.0016
2161.00,0.0011
2160.00,-0.0001
2159.00,-0.0017
2158.00,-0.0030
2157.00,-0.0035
2156.00,-0.0034
2155.00,-0.0029
2154.00,-0.0023
2153.00,-0.0019
2152.00,-0.0015
2151.00,-0.0012
2150.00,-0.0010
2149.00,-0.0009
2148.00,-0.0010
2147.00,-0.0012
2146.00,-0.0013
2145.00,-0.0013
2144.00,-0.0012
2143.00,-0.0013
2142.00,-0.0013
2141.00,-0.0013
2140.00,-0.0013
2139.00,-0.0012
2138.00,-0.0013
2137.00,-0.0014
2136.00,-0.0016
2135.00,-0.0018
2134.00,-0.0020
2133.00,-0.0021
2132.00,-0.0019
2131.00,-0.0016
2130.00,-0.0013
2129.00,-0.0011
2128.00,-0.0010
2127.00,-0.0011
2126.00,-0.0010
2125.00,-0.0009
2124.00,-0.0007
2123.00,-0.0006
2122.00,-0.0005
2121.00,-0.0004
2120.00,-0.0003
2119.00,-0.0002
2118.00,-0.0001
2117.00,0.0001
2116.00,0.0002
2115.00,0.0003
2114.00,0.0003
2113.00,0.0004
2112.00,0.0004
2111.00,0.0003
2110.00,0.0002
2109.00,0.0002
2108.00,0.0003
2107.00,0.0003
2106.00,0.0003
2105.00,0.0001
2104.00,-0.0000
2103.00,-0.0001
2102.00,-0.0002
2101.00,-0.0002
2100.00,-0.0001
2099.00,0.0001
2098.00,0.0002
2097.00,0.0003
2096.00,0.0001
2095.00,-0.0002
2094.00,-0.0004
2093.00,-0.0005
2092.00,-0.0004
2091.00,-0.0002
2090.00,-0.0000
2089.00,0.0001
2088.00,0.0002
2087.00,0.0001
2086.00,0.0001
2085.00,0.0000
2084.00,0.0001
2083.00,0.0002
2082.00,0.0003
2081.00,0.0004
2080.00,0.0004
2079.00,0.0003
2078.00,0.0003
2077.00,0.0003
2076.00,0.0002
2075.00,0.0002
2074.00,0.0001
2073.00,0.0002
2072.00,0.0002
2071.00,0.0003
2070.00,0.0003
2069.00,0.0002
2068.00,0.0002
2067.00,0.0002
2066.00,-0.0000
2065.00,-0.0003
2064.00,-0.0005
2063.00,-0.0006
2062.00,-0.0004
2061.00,-0.0002
2060.00,-0.0002
2059.00,-0.0002
2058.00,-0.0001
2057.00,-0.0001
2056.00,-0.0001
2055.00,-0.0002
2054.00,-0.0001
2053.00,0.0002
2052.00,0.0006
2051.00,0.0009
2050.00,0.0010
2049.00,0.0008
2048.00,0.0006
2047.00,0.0004
2046.00,0.0004
2045.00,0.0004
2044.00,0.0003
2043.00,0.0001
2042.00,-0.0001
2041.00,-0.0002
2040.00,-0.0003
2039.00,-0.0004
2038.00,-0.0004
2037.00,-0.0004
2036.00,-0.0002
2035.00,-0.0002
2034.00,-0.0003
2033.00,-0.0004
2032.00,-0.0004
2031.00,-0.0003
2030.00,-0.0002
2029.00,-0.0003
2028.00,-0.0005
2027.00,-0.0008
2026.00,-0.0009
2025.00,-0.0008
2024.00,-0.0008
2023.00,-0.0010
2022.00,-0.0013
2021.00,-0.0016
2020.00,-0.0017
2019.00,-0.0015
2018.00,-0.0012
2017.00,-0.0009
2016.00,-0.0007
2015.00,-0.0008
2014.00,-0.0010
2013.00,-0.0012
2012.00,-0.0014
2011.00,-0.0015
2010.00,-0.0016
2009.00,-0.0016
2008.00,-0.0014
2007.00,-0.0011
2006.00,-0.0009
2005.00,-0.0008
2004.00,-0.0009
2003.00,-0.0012
2002.00,-0.0013
2001.00,-0.0013
2000.00,-0.0013
1999.00,-0.0013
1998.00,-0.0013
1997.00,-0.0013
1996.00,-0.0014
1995.00,-0.0015
1994.00,-0.0016
1993.00,-0.0017
1992.00,-0.0016
1991.00,-0.0013
1990.00,-0.0010
1989.00,-0.0005
1988.00,-0.0001
1987.00,-0.0000
1986.00,-0.0001
1985.00,-0.0003
1984.00,-0.0003
1983.00,-0.0002
1982.00,0.0003
1981.00,0.0008
1980.00,0.0010
1979.00,0.0007
1978.00,0.0001
1977.00,-0.0005
1976.00,-0.0009
1975.00,-0.0009
1974.00,-0.0008
1973.00,-0.0009
1972.00,-0.0011
1971.00,-0.0014
1970.00,-0.0016
1969.00,-0.0016
1968.00,-0.0014
1967.00,-0.0012
1966.00,-0.0012
1965.00,-0.0012
1964.00,-0.0012
1963.00,-0.0012
1962.00,-0.0013
1961.00,-0.0014
1960.00,-0.0016
1959.00,-0.0019
1958.00,-0.0022
1957.00,-0.0024
1956.00,-0.0023
1955.00,-0.0022
1954.00,-0.0021
1953.00,-0.0019
1952.00,-0.0017
1951.00,-0.0015
1950.00,-0.0014
1949.00,-0.0013
1948.00,-0.0012
1947.00,-0.0013
1946.00,-0.0013
1945.00,-0.0014
1944.00,-0.0013
1943.00,-0.0012
1942.00,-0.0011
1941.00,-0.0011
1940.00,-0.0012
1939.00,-0.0013
1938.00,-0.0014
1937.00,-0.0014
1936.00,-0.0013
1935.00,-0.0012
1934.00,-0.0010
1933.00,-0.0009
1932.00,-0.0009
1931.00,-0.0009
1930.00,-0.0010
1929.00,-0.0010
1928.00,-0.0009
1927.00,-0.0008
1926.00,-0.0007
1925.00,-0.0006
1924.00,-0.0006
1923.00,-0.0006
1922.00,-0.0006
1921.00,-0.0006
1920.00,-0.0006
1919.00,-0.0005
1918.00,-0.0003
1917.00,-0.0001
1916.00,-0.0001
1915.00,-0.0002
1914.00,-0.0004
1913.00,-0.0004
1912.00,-0.0003
1911.00,-0.0002
1910.00,-0.0001
1909.00,-0.0000
1908.00,-0.0001
1907.00,-0.0002
1906.00,-0.0002
1905.00,-0.0002
1904.00,-0.0001
1903.00,-0.0001
1902.00,-0.0000
1901.00,0.0000
1900.00,0.0001
1899.00,0.0002
1898.00,0.0002
1897.00,0.0003
1896.00,0.0003
1895.00,0.0003
1894.00,0.0003
1893.00,0.0002
1892.00,0.0001
1891.00,-0.0000
1890.00,-0.0001
1889.00,-0.0002
1888.00,-0.0002
1887.00,-0.0001
1886.00,-0.0001
1885.00,-0.0001
1884.00,-0.0001
1883.00,-0.0001
1882.00,-0.0001
1881.00,-0.0002
1880.00,-0.0002
1879.00,-0.0002
1878.00,-0.0002
1877.00,-0.0002
1876.00,-0.0001
1875.00,-0.0001
1874.00,-0.0001
1873.00,-0.0001
1872.00,-0.0001
1871.00,-0.0000
1870.00,-0.0000
1869.00,-0.0001
1868.00,-0.0001
1867.00,-0.0002
1866.00,-0.0002
1865.00,-0.0001
1864.00,-0.0000
1863.00,0.0000
1862.00,-0.0000
1861.00,-0.0000
1860.00,-0.0000
1859.00,0.0000
1858.00,0.0001
1857.00,0.0001
1856.00,0.0001
1855.00,0.0001
1854.00,0.0000
1853.00,0.0000
1852.00,0.0001
1851.00,0.0001
1850.00,0.0001
1849.00,0.0001
1848.00,0.0001
1847.00,0.0001
1846.00,-0.0000
1845.00,-0.0000
1844.00,0.0000
1843.00,0.0001
1842.00,0.0002
1841.00,0.0002
1840.00,0.0002
1839.00,0.0002
1838.00,0.0002
1837.00,0.0003
1836.00,0.0003
1835.00,0.0003
1834.00,0.0002
1833.00,0.0002
1832.00,0.0002
1831.00,0.0002
1830.00,0.0003
1829.00,0.0004
1828.00,0.0004
1827.00,0.0004
1826.00,0.0004
1825.00,0.0004
1824.00,0.0004
1823.00,0.0004
1822.00,0.0003
1821.00,0.0003
1820.00,0.0003
1819.00,0.0003
1818.00,0.0001
1817.00,-0.0000
1816.00,-0.0001
1815.00,-0.0001
1814.00,-0.0001
1813.00,-0.0000
1812.00,0.0001
1811.00,0.0002
1810.00,0.0003
1809.00,0.0004
1808.00,0.0005
1807.00,0.0005
1806.00,0.0004
1805.00,0.0004
1804.00,0.0004
1803.00,0.0004
1802.00,0.0004
1801.00,0.0003
1800.00,0.0003
1799.00,0.0003
1798.00,0.0004
1797.00,0.0005
1796.00,0.0006
1795.00,0.0006
1794.00,0.0006
1793.00,0.0006
1792.00,0.0006
1791.00,0.0007
1790.00,0.0007
1789.00,0.0007
1788.00,0.0007
1787.00,0.0007
1786.00,0.0007
1785.00,0.0007
1784.00,0.0007
1783.00,0.0007
1782.00,0.0007
1781.00,0.0006
1780.00,0.0006
1779.00,0.0006
1778.00,0.0006
1777.00,0.0007
1776.00,0.0008
1775.00,0.0009
1774.00,0.0010
1773.00,0.0010
1772.00,0.0009
1771.00,0.0009
1770.00,0.0009
1769.00,0.0010
1768.00,0.0010
1767.00,0.0010
1766.00,0.0011
1765.00,0.0011
1764.00,0.0011
1763.00,0.0011
1762.00,0.0011
1761.00,0.0012
1760.00,0.0012
1759.00,0.0012
1758.00,0.0013
1757.00,0.0013
1756.00,0.0013
1755.00,0.0014
1754.00,0.0014
1753.00,0.0015
1752.00,0.0016
1751.00,0.0017
1750.00,0.0018
1749.00,0.0018
1748.00,0.0019
1747.00,0.0019
1746.00,0.0020
1745.00,0.0020
1744.00,0.0021
1743.00,0.0020
1742.00,0.0020
1741.00,0.0020
1740.00,0.0020
1739.00,0.0021
1738.00,0.0021
1737.00,0.0022
1736.00,0.0022
1735.00,0.0022
1734.00,0.0022
1733.00,0.0023
1732.00,0.0023
1731.00,0.0024
1730.00,0.0024
1729.00,0.0024
1728.00,0.0024
1727.00,0.0024
1726.00,0.0023
1725.00,0.0023
1724.00,0.0023
1723.00,0.0022
1722.00,0.0022
1721.00,0.0021
1720.00,0.0021
1719.00,0.0021
1718.00,0.0021
1717.00,0.0021
1716.00,0.0022
1715.00,0.0021
1714.00,0.0020
1713.00,0.0019
1712.00,0.0018
1711.00,0.0017
1710.00,0.0016
1709.00,0.0015
1708.00,0.0015
1707.00,0.0014
1706.00,0.0014
1705.00,0.0014
1704.00,0.0015
1703.00,0.0015
1702.00,0.0015
1701.00,0.0015
1700.00,0.0016
1699.00,0.0016
1698.00,0.0016
1697.00,0.0017
1696.00,0.0019
1695.00,0.0020
1694.00,0.0021
1693.00,0.0022
1692.00,0.0022
1691.00,0.0023
1690.00,0.0024
1689.00,0.0026
1688.00,0.0028
1687.00,0.0030
1686.00,0.0030
1685.00,0.0031
1684.00,0.0031
1683.00,0.0033
1682.00,0.0034
1681.00,0.0034
1680.00,0.0035
1679.00,0.0036
1678.00,0.0037
1677.00,0.0037
1676.00,0.0037
1675.00,0.0038
1674.00,0.0038
1673.00,0.0037
1672.00,0.0037
1671.00,0.0037
1670.00,0.0038
1669.00,0.0038
1668.00,0.0038
1667.00,0.0037
1666.00,0.0036
1665.00,0.0036
1664.00,0.0036
1663.00,0.0036
1662.00,0.0036
1661.00,0.0037
1660.00,0.0037
1659.00,0.0037
1658.00,0.0037
1657.00,0.0037
1656.00,0.0038
1655.00,0.0039
1654.00,0.0041
1653.00,0.0044
1652.00,0.0047
1651.00,0.0048
1650.00,0.0048
1649.00,0.0049
1648.00,0.0051
1647.00,0.0054
1646.00,0.0056
1645.00,0.0057
1644.00,0.0057
1643.00,0.0057
1642.00,0.0058
1641.00,0.0058
1640.00,0.0059
1639.00,0.0061
1638.00,0.0062
1637.00,0.0063
1636.00,0.0063
1635.00,0.0064
1634.00,0.0063
1633.00,0.0063
1632.00,0.0062
1631.00,0.0062
1630.00,0.0061
1629.00,0.0061
1628.00,0.0061
1627.00,0.0061
1626.00,0.0060
1625.00,0.0059
1624.00,0.0059
1623.00,0.0058
1622.00,0.0057
1621.00,0.0057
1620.00,0.0057
1619.00,0.0056
1618.00,0.0055
1617.00,0.0055
1616.00,0.0056
1615.00,0.0056
1614.00,0.0056
1613.00,0.0056
1612.00,0.0056
1611.00,0.0056
1610.00,0.0055
1609.00,0.0056
1608.00,0.0056
1607.00,0.0056
1606.00,0.0056
1605.00,0.0056
1604.00,0.0056
1603.00,0.0056
1602.00,0.0055
1601.00,0.0054
1600.00,0.0054
1599.00,0.0054
1598.00,0.0055
1597.00,0.0055
1596.00,0.0056
1595.00,0.0056
1594.00,0.0055
1593.00,0.0055
1592.00,0.0056
1591.00,0.0056
1590.00,0.0057
1589.00,0.0058
1588.00,0.0059
1587.00,0.0060
1586.00,0.0061
1585.00,0.0063
1584.00,0.0065
1583.00,0.0067
1582.00,0.0069
1581.00,0.0072
1580.00,0.0075
1579.00,0.0077
1578.00,0.0079
1577.00,0.0079
1576.00,0.0079
1575.00,0.0078
1574.00,0.0077
1573.00,0.0076
1572.00,0.0075
1571.00,0.0074
1570.00,0.0072
1569.00,0.0070
1568.00,0.0069
1567.00,0.0068
1566.00,0.0067
1565.00,0.0066
1564.00,0.0066
1563.00,0.0066
1562.00,0.0066
1561.00,0.0067
1560.00,0.0066
1559.00,0.0065
1558.00,0.0064
1557.00,0.0065
1556.00,0.0066
1555.00,0.0067
1554.00,0.0067
1553.00,0.0068
1552.00,0.0069
1551.00,0.0069
1550.00,0.0071
1549.00,0.0072
1548.00,0.0074
1547.00,0.0075
1546.00,0.0077
1545.00,0.0080
1544.00,0.0083
1543.00,0.0086
1542.00,0.0089
1541.00,0.0091
1540.00,0.0091
1539.00,0.0088
1538.00,0.0086
1537.00,0.0085
1536.00,0.0083
1535.00,0.0081
1534.00,0.0078
1533.00,0.0075
1532.00,0.0073
1531.00,0.0071
1530.00,0.0069
1529.00,0.0068
1528.00,0.0068
1527.00,0.0067
1526.00,0.0067
1525.00,0.0066
1524.00,0.0066
1523.00,0.0066
1522.00,0.0065
1521.00,0.0065
1520.00,0.0065
1519.00,0.0065
1518.00,0.0065
1517.00,0.0066
1516.00,0.0066
1515.00,0.0066
1514.00,0.0065
1513.00,0.0066
1512.00,0.0066
1511.00,0.0066
1510.00,0.0067
1509.00,0.0067
1508.00,0.0068
1507.00,0.0068
1506.00,0.0068
1505.00,0.0069
1504.00,0.0070
1503.00,0.0071
1502.00,0.0073
1501.00,0.0075
1500.00,0.0077
1499.00,0.0080
1498.00,0.0082
1497.00,0.0085
1496.00,0.0089
1495.00,0.0092
1494.00,0.0095
1493.00,0.0098
1492.00,0.0101
1491.00,0.0104
1490.00,0.0108
1489.00,0.0113
1488.00,0.0118
1487.00,0.0122
1486.00,0.0127
1485.00,0.0133
1484.00,0.0140
1483.00,0.0148
1482.00,0.0157
1481.00,0.0169
1480.00,0.0182
1479.00,0.0195
1478.00,0.0211
1477.00,0.0232
1476.00,0.0257
1475.00,0.0287
1474.00,0.0327
1473.00,0.0382
1472.00,0.0448
1471.00,0.0511
1470.00,0.0572
1469.00,0.0636
1468.00,0.0706
1467.00,0.0782
1466.00,0.0868
1465.00,0.0960
1464.00,0.1040
1463.00,0.1096
1462.00,0.1132
1461.00,0.1156
1460.00,0.1173
1459.00,0.1184
1458.00,0.1193
1457.00,0.1201
1456.00,0.1202
1455.00,0.1196
1454.00,0.1187
1453.00,0.1172
1452.00,0.1148
1451.00,0.1113
1450.00,0.1064
1449.00,0.0994
1448.00,0.0904
1447.00,0.0807
1446.00,0.0719
1445.00,0.0644
1444.00,0.0580
1443.00,0.0527
1442.00,0.0487
1441.00,0.0459
1440.00,0.0442
1439.00,0.0435
1438.00,0.0435
1437.00,0.0434
1436.00,0.0424
1435.00,0.0400
1434.00,0.0365
1433.00,0.0323
1432.00,0.0279
1431.00,0.0241
1430.00,0.0211
1429.00,0.0189
1428.00,0.0174
1427.00,0.0165
1426.00,0.0159
1425.00,0.0153
1424.00,0.0148
1423.00,0.0145
1422.00,0.0144
1421.00,0.0142
1420.00,0.0138
1419.00,0.0136
1418.00,0.0134
1417.00,0.0131
1416.00,0.0128
1415.00,0.0126
1414.00,0.0125
1413.00,0.0123
1412.00,0.0121
1411.00,0.0120
1410.00,0.0119
1409.00,0.0118
1408.00,0.0117
1407.00,0.0117
1406.00,0.0117
1405.00,0.0117
1404.00,0.0116
1403.00,0.0117
1402.00,0.0119
1401.00,0.0119
1400.00,0.0120
1399.00,0.0121
1398.00,0.0123
1397.00,0.0124
1396.00,0.0127
1395.00,0.0131
1394.00,0.0136
1393.00,0.0141
1392.00,0.0146
1391.00,0.0153
1390.00,0.0163
1389.00,0.0177
1388.00,0.0198
1387.00,0.0230
1386.00,0.0272
1385.00,0.0327
1384.00,0.0403
1383.00,0.0511
1382.00,0.0657
1381.00,0.0845
1380.00,0.1076
1379.00,0.1334
1378.00,0.1578
1377.00,0.1750
1376.00,0.1798
1375.00,0.1698
1374.00,0.1480
1373.00,0.1222
1372.00,0.0987
1371.00,0.0795
1370.00,0.0642
1369.00,0.0527
1368.00,0.0447
1367.00,0.0397
1366.00,0.0370
1365.00,0.0358
1364.00,0.0360
1363.00,0.0372
1362.00,0.0391
1361.00,0.0412
1360.00,0.0427
1359.00,0.0432
1358.00,0.0422
1357.00,0.0399
1356.00,0.0365
1355.00,0.0328
1354.00,0.0292
1353.00,0.0260
1352.00,0.0235
1351.00,0.0214
1350.00,0.0197
1349.00,0.0183
1348.00,0.0172
1347.00,0.0162
1346.00,0.0154
1345.00,0.0147
1344.00,0.0141
1343.00,0.0137
1342.00,0.0133
1341.00,0.0129
1340.00,0.0126
1339.00,0.0124
1338.00,0.0123
1337.00,0.0122
1336.00,0.0123
1335.00,0.0124
1334.00,0.0127
1333.00,0.0131
1332.00,0.0135
1331.00,0.0138
1330.00,0.0140
1329.00,0.0138
1328.00,0.0135
1327.00,0.0130
1326.00,0.0125
1325.00,0.0119
1324.00,0.0114
1323.00,0.0109
1322.00,0.0105
1321.00,0.0101
1320.00,0.0099
1319.00,0.0098
1318.00,0.0096
1317.00,0.0095
1316.00,0.0094
1315.00,0.0093
1314.00,0.0093
1313.00,0.0094
1312.00,0.0095
1311.00,0.0098
1310.00,0.0102
1309.00,0.0109
1308.00,0.0119
1307.00,0.0132
1306.00,0.0144
1305.00,0.0152
1304.00,0.0154
1303.00,0.0150
1302.00,0.0144
1301.00,0.0138
1300.00,0.0134
1299.00,0.0132
1298.00,0.0132
1297.00,0.0132
1296.00,0.0130
1295.00,0.0127
1294.00,0.0123
1293.00,0.0118
1292.00,0.0112
1291.00,0.0107
1290.00,0.0103
1289.00,0.0099
1288.00,0.0095
1287.00,0.0093
1286.00,0.0091
1285.00,0.0089
1284.00,0.0088
1283.00,0.0087
1282.00,0.0086
1281.00,0.0085
1280.00,0.0084
1279.00,0.0083
1278.00,0.0083
1277.00,0.0082
1276.00,0.0082
1275.00,0.0082
1274.00,0.0082
1273.00,0.0082
1272.00,0.0082
1271.00,0.0082
1270.00,0.0083
1269.00,0.0084
1268.00,0.0085
1267.00,0.0087
1266.00,0.0090
1265.00,0.0092
1264.00,0.0095
1263.00,0.0099
1262.00,0.0103
1261.00,0.0107
1260.00,0.0114
1259.00,0.0121
1258.00,0.0130
1257.00,0.0136
1256.00,0.0139
1255.00,0.0137
1254.00,0.0130
1253.00,0.0121
1252.00,0.0112
1251.00,0.0104
1250.00,0.0098
1249.00,0.0094
1248.00,0.0090
1247.00,0.0087
1246.00,0.0085
1245.00,0.0084
1244.00,0.0082
1243.00,0.0081
1242.00,0.0081
1241.00,0.0080
1240.00,0.0079
1239.00,0.0078
1238.00,0.0077
1237.00,0.0077
1236.00,0.0077
1235.00,0.0077
1234.00,0.0078
1233.00,0.0078
1232.00,0.0079
1231.00,0.0080
1230.00,0.0081
1229.00,0.0083
1228.00,0.0084
1227.00,0.0086
1226.00,0.0089
1225.00,0.0092
1224.00,0.0095
1223.00,0.0099
1222.00,0.0102
1221.00,0.0105
1220.00,0.0107
1219.00,0.0108
1218.00,0.0107
1217.00,0.0105
1216.00,0.0103
1215.00,0.0099
1214.00,0.0096
1213.00,0.0093
1212.00,0.0091
1211.00,0.0089
1210.00,0.0088
1209.00,0.0086
1208.00,0.0085
1207.00,0.0084
1206.00,0.0083
1205.00,0.0082
1204.00,0.0082
1203.00,0.0082
1202.00,0.0082
1201.00,0.0082
1200.00,0.0083
1199.00,0.0084
1198.00,0.0085
1197.00,0.0085
1196.00,0.0085
1195.00,0.0085
1194.00,0.0085
1193.00,0.0084
1192.00,0.0084
1191.00,0.0084
1190.00,0.0084
1189.00,0.0084
1188.00,0.0084
1187.00,0.0085
1186.00,0.0085
1185.00,0.0086
1184.00,0.0087
1183.00,0.0088
1182.00,0.0090
1181.00,0.0092
1180.00,0.0096
1179.00,0.0101
1178.00,0.0108
1177.00,0.0117
1176.00,0.0130
1175.00,0.0146
1174.00,0.0167
1173.00,0.0194
1172.00,0.0226
1171.00,0.0261
1170.00,0.0296
1169.00,0.0323
1168.00,0.0340
1167.00,0.0342
1166.00,0.0332
1165.00,0.0314
1164.00,0.0293
1163.00,0.0272
1162.00,0.0254
1161.00,0.0239
1160.00,0.0228
1159.00,0.0219
1158.00,0.0213
1157.00,0.0208
1156.00,0.0204
1155.00,0.0202
1154.00,0.0200
1153.00,0.0196
1152.00,0.0192
1151.00,0.0185
1150.00,0.0177
1149.00,0.0167
1148.00,0.0157
1147.00,0.0148
1146.00,0.0139
1145.00,0.0132
1144.00,0.0125
1143.00,0.0119
1142.00,0.0113
1141.00,0.0107
1140.00,0.0103
1139.00,0.0098
1138.00,0.0095
1137.00,0.0092
1136.00,0.0089
1135.00,0.0087
1134.00,0.0086
1133.00,0.0084
1132.00,0.0083
1131.00,0.0082
1130.00,0.0082
1129.00,0.0082
1128.00,0.0082
1127.00,0.0083
1126.00,0.0084
1125.00,0.0084
1124.00,0.0084
1123.00,0.0085
1122.00,0.0085
1121.00,0.0085
1120.00,0.0085
1119.00,0.0085
1118.00,0.0086
1117.00,0.0088
1116.00,0.0089
1115.00,0.0091
1114.00,0.0092
1113.00,0.0092
1112.00,0.0093
1111.00,0.0096
1110.00,0.0100
1109.00,0.0104
1108.00,0.0109
1107.00,0.0115
1106.00,0.0121
1105.00,0.0127
1104.00,0.0131
1103.00,0.0132
1102.00,0.0131
1101.00,0.0127
1100.00,0.0122
1099.00,0.0116
1098.00,0.0110
1097.00,0.0105
1096.00,0.0101
1095.00,0.0099
1094.00,0.0097
1093.00,0.0095
1092.00,0.0093
1091.00,0.0091
1090.00,0.0090
1089.00,0.0090
1088.00,0.0089
1087.00,0.0089
1086.00,0.0089
1085.00,0.0088
1084.00,0.0088
1083.00,0.0088
1082.00,0.0087
1081.00,0.0086
1080.00,0.0085
1079.00,0.0085
1078.00,0.0085
1077.00,0.0084
1076.00,0.0084
1075.00,0.0083
1074.00,0.0083
1073.00,0.0082
1072.00,0.0081
1071.00,0.0079
1070.00,0.0079
1069.00,0.0079
1068.00,0.0080
1067.00,0.0081
1066.00,0.0081
1065.00,0.0082
1064.00,0.0082
1063.00,0.0083
1062.00,0.0084
1061.00,0.0085
1060.00,0.0085
1059.00,0.0086
1058.00,0.0087
1057.00,0.0088
1056.00,0.0089
1055.00,0.0091
1054.00,0.0093
1053.00,0.0097
1052.00,0.0102
1051.00,0.0106
1050.00,0.0110
1049.00,0.0114
1048.00,0.0119
1047.00,0.0124
1046.00,0.0128
1045.00,0.0131
1044.00,0.0132
1043.00,0.0132
1042.00,0.0131
1041.00,0.0128
1040.00,0.0125
1039.00,0.0123
1038.00,0.0122
1037.00,0.0122
1036.00,0.0123
1035.00,0.0122
1034.00,0.0120
1033.00,0.0118
1032.00,0.0117
1031.00,0.0115
1030.00,0.0115
1029.00,0.0115
1028.00,0.0116
1027.00,0.0117
1026.00,0.0118
1025.00,0.0119
1024.00,0.0122
1023.00,0.0125
1022.00,0.0128
1021.00,0.0130
1020.00,0.0133
1019.00,0.0134
1018.00,0.0136
1017.00,0.0137
1016.00,0.0138
1015.00,0.0138
1014.00,0.0138
1013.00,0.0139
1012.00,0.0140
1011.00,0.0141
1010.00,0.0142
1009.00,0.0144
1008.00,0.0146
1007.00,0.0151
1006.00,0.0159
1005.00,0.0171
1004.00,0.0189
1003.00,0.0214
1002.00,0.0247
1001.00,0.0289
1000.00,0.0333
999.00,0.0371
998.00,0.0390
997.00,0.0384
996.00,0.0353
995.00,0.0308
994.00,0.0262
993.00,0.0222
992.00,0.0192
991.00,0.0170
990.00,0.0155
989.00,0.0145
988.00,0.0138
987.00,0.0133
986.00,0.0131
985.00,0.0131
984.00,0.0133
983.00,0.0140
982.00,0.0151
981.00,0.0167
980.00,0.0190
979.00,0.0219
978.00,0.0257
977.00,0.0302
976.00,0.0351
975.00,0.0398
974.00,0.0435
973.00,0.0450
972.00,0.0435
971.00,0.0394
970.00,0.0338
969.00,0.0280
968.00,0.0230
967.00,0.0192
966.00,0.0165
965.00,0.0146
964.00,0.0132
963.00,0.0122
962.00,0.0114
961.00,0.0109
960.00,0.0104
959.00,0.0101
958.00,0.0098
957.00,0.0095
956.00,0.0093
955.00,0.0091
954.00,0.0089
953.00,0.0086
952.00,0.0084
951.00,0.0082
950.00,0.0081
949.00,0.0081
948.00,0.0082
947.00,0.0083
946.00,0.0085
945.00,0.0087
944.00,0.0090
943.00,0.0092
942.00,0.0095
941.00,0.0096
940.00,0.0095
939.00,0.0092
938.00,0.0088
937.00,0.0083
936.00,0.0079
935.00,0.0076
934.00,0.0073
933.00,0.0071
932.00,0.0069
931.00,0.0069
930.00,0.0068
929.00,0.0067
928.00,0.0066
927.00,0.0064
926.00,0.0063
925.00,0.0063
924.00,0.0063
923.00,0.0064
922.00,0.0065
921.00,0.0065
920.00,0.0064
919.00,0.0064
918.00,0.0064
917.00,0.0064
916.00,0.0065
915.00,0.0065
914.00,0.0065
913.00,0.0066
912.00,0.0068
911.00,0.0069
910.00,0.0072
909.00,0.0075
908.00,0.0079
907.00,0.0084
906.00,0.0091
905.00,0.0101
904.00,0.0114
903.00,0.0130
902.00,0.0149
901.00,0.0165
900.00,0.0175
899.00,0.0176
898.00,0.0167
897.00,0.0152
896.00,0.0134
895.00,0.0118
894.00,0.0105
893.00,0.0094
892.00,0.0087
891.00,0.0082
890.00,0.0079
889.00,0.0077
888.00,0.0076
887.00,0.0075
886.00,0.0075
885.00,0.0074
884.00,0.0073
883.00,0.0071
882.00,0.0071
881.00,0.0070
880.00,0.0070
879.00,0.0071
878.00,0.0072
877.00,0.0074
876.00,0.0077
875.00,0.0079
874.00,0.0080
873.00,0.0079
872.00,0.0078
871.00,0.0077
870.00,0.0077
869.00,0.0078
868.00,0.0078
867.00,0.0078
866.00,0.0077
865.00,0.0078
864.00,0.0079
863.00,0.0081
862.00,0.0083
861.00,0.0085
860.00,0.0086
859.00,0.0088
858.00,0.0089
857.00,0.0091
856.00,0.0091
855.00,0.0092
854.00,0.0094
853.00,0.0097
852.00,0.0101
851.00,0.0106
850.00,0.0112
849.00,0.0119
848.00,0.0127
847.00,0.0140
846.00,0.0163
845.00,0.0199
844.00,0.0252
843.00,0.0313
842.00,0.0365
841.00,0.0384
840.00,0.0360
839.00,0.0305
838.00,0.0243
837.00,0.0194
836.00,0.0161
835.00,0.0141
834.00,0.0129
833.00,0.0121
832.00,0.0115
831.00,0.0111
830.00,0.0107
829.00,0.0104
828.00,0.0101
827.00,0.0099
826.00,0.0098
825.00,0.0098
824.00,0.0098
823.00,0.0099
822.00,0.0100
821.00,0.0101
820.00,0.0104
819.00,0.0106
818.00,0.0110
817.00,0.0116
816.00,0.0123
815.00,0.0133
814.00,0.0147
813.00,0.0165
812.00,0.0185
811.00,0.0203
810.00,0.0217
809.00,0.0222
808.00,0.0218
807.00,0.0205
806.00,0.0185
805.00,0.0165
804.00,0.0149
803.00,0.0136
802.00,0.0127
801.00,0.0121
800.00,0.0115
799.00,0.0110
798.00,0.0105
797.00,0.0101
796.00,0.0098
795.00,0.0095
794.00,0.0093
793.00,0.0090
792.00,0.0087
791.00,0.0085
790.00,0.0083
789.00,0.0081
788.00,0.0079
787.00,0.0075
786.00,0.0073
785.00,0.0071
784.00,0.0069
783.00,0.0067
782.00,0.0065
781.00,0.0064
780.00,0.0065
779.00,0.0066
778.00,0.0066
777.00,0.0066
776.00,0.0065
775.00,0.0064
774.00,0.0065
773.00,0.0065
772.00,0.0066
771.00,0.0066
770.00,0.0067
769.00,0.0067
768.00,0.0067
767.00,0.0068
766.00,0.0068
765.00,0.0069
764.00,0.0069
763.00,0.0069
762.00,0.0069
761.00,0.0069
760.00,0.0069
759.00,0.0070
758.00,0.0072
757.00,0.0074
756.00,0.0075
755.00,0.0076
754.00,0.0077
753.00,0.0077
752.00,0.0078
751.00,0.0079
750.00,0.0080
749.00,0.0081
748.00,0.0082
747.00,0.0082
746.00,0.0083
745.00,0.0085
744.00,0.0087
743.00,0.0089
742.00,0.0091
741.00,0.0094
740.00,0.0098
739.00,0.0102
738.00,0.0107
737.00,0.0112
736.00,0.0117
735.00,0.0121
734.00,0.0125
733.00,0.0130
732.00,0.0137
731.00,0.0145
730.00,0.0152
729.00,0.0155
728.00,0.0156
727.00,0.0155
726.00,0.0155
725.00,0.0157
724.00,0.0162
723.00,0.0170
722.00,0.0177
721.00,0.0182
720.00,0.0180
719.00,0.0172
718.00,0.0160
717.00,0.0148
716.00,0.0136
715.00,0.0127
714.00,0.0121
713.00,0.0117
712.00,0.0114
711.00,0.0111
710.00,0.0108
709.00,0.0107
708.00,0.0106
707.00,0.0105
706.00,0.0103
705.00,0.0101
704.00,0.0100
703.00,0.0099
702.00,0.0099
701.00,0.0099
700.00,0.0099
699.00,0.0099
698.00,0.0098
697.00,0.0097
696.00,0.0096
695.00,0.0097
694.00,0.0098
693.00,0.0099
692.00,0.0100
691.00,0.0100
690.00,0.0099
689.00,0.0097
688.00,0.0096
687.00,0.0097
686.00,0.0099
685.00,0.0100
684.00,0.0100
683.00,0.0099
682.00,0.0098
681.00,0.0097
680.00,0.0096
679.00,0.0095
678.00,0.0094
677.00,0.0093
676.00,0.0095
675.00,0.0098
674.00,0.0102
673.00,0.0107
672.00,0.0110
671.00,0.0112
670.00,0.0114
669.00,0.0113
668.00,0.0110
667.00,0.0107
666.00,0.0103
665.00,0.0100
664.00,0.0098
663.00,0.0097
662.00,0.0096
661.00,0.0094
660.00,0.0092
659.00,0.0091
658.00,0.0089
657.00,0.0088
656.00,0.0087
655.00,0.0087
654.00,0.0087
653.00,0.0088
652.00,0.0088
651.00,0.0087
650.00,0.0085
649.00,0.0084
648.00,0.0084
647.00,0.0085
646.00,0.0086
645.00,0.0086
644.00,0.0086
643.00,0.0086
642.00,0.0087
641.00,0.0088
640.00,0.0089
639.00,0.0088
638.00,0.0087
637.00,0.0086
636.00,0.0085
635.00,0.0085
634.00,0.0083
633.00,0.0082
632.00,0.0082
631.00,0.0084
630.00,0.0088
629.00,0.0090
628.00,0.0089
627.00,0.0087
626.00,0.0084
625.00,0.0083
624.00,0.0084
623.00,0.0086
622.00,0.0087
621.00,0.0088
620.00,0.0088
619.00,0.0088
618.00,0.0088
617.00,0.0087
616.00,0.0085
615.00,0.0083
614.00,0.0081
613.00,0.0081
612.00,0.0082
611.00,0.0083
610.00,0.0084
609.00,0.0083
608.00,0.0082
607.00,0.0084
606.00,0.0086
605.00,0.0088
604.00,0.0087
603.00,0.0086
602.00,0.0086
601.00,0.0087
600.00,0.0089
599.00,0.0090
598.00,0.0089
597.00,0.0087
596.00,0.0084
595.00,0.0083
594.00,0.0083
593.00,0.0084
592.00,0.0085
591.00,0.0086
590.00,0.0087
589.00,0.0088
588.00,0.0090
587.00,0.0091
586.00,0.0093
585.00,0.0093
584.00,0.0092
583.00,0.0089
582.00,0.0087
581.00,0.0086
580.00,0.0087
579.00,0.0089
578.00,0.0089
577.00,0.0086
576.00,0.0082
575.00,0.0080
574.00,0.0081
573.00,0.0082
572.00,0.0083
571.00,0.0084
570.00,0.0086
569.00,0.0088
568.00,0.0091
567.00,0.0094
566.00,0.0097
565.00,0.0098
564.00,0.0098
563.00,0.0095
562.00,0.0092
561.00,0.0089
560.00,0.0087
559.00,0.0086
558.00,0.0085
557.00,0.0084
556.00,0.0084
555.00,0.0088
554.00,0.0093
553.00,0.0096
552.00,0.0094
551.00,0.0090
550.00,0.0087
549.00,0.0087
548.00,0.0088
547.00,0.0090
546.00,0.0092
545.00,0.0096
544.00,0.0100
543.00,0.0102
542.00,0.0103
541.00,0.0104
540.00,0.0105
539.00,0.0106
538.00,0.0107
537.00,0.0109
536.00,0.0112
535.00,0.0116
534.00,0.0119
533.00,0.0119
532.00,0.0116
531.00,0.0113
530.00,0.0112
529.00,0.0113
528.00,0.0113
527.00,0.0110
526.00,0.0106
525.00,0.0102
524.00,0.0098
523.00,0.0093
522.00,0.0090
521.00,0.0090
520.00,0.0093
519.00,0.0097
518.00,0.0098
517.00,0.0097
516.00,0.0093
515.00,0.0086
514.00,0.0079
513.00,0.0074
512.00,0.0074
511.00,0.0077
510.00,0.0083
509.00,0.0088
508.00,0.0091
507.00,0.0092
506.00,0.0094
505.00,0.0097
504.00,0.0101
503.00,0.0102
502.00,0.0100
501.00,0.0096
500.00,0.0091
499.00,0.0087
498.00,0.0087
497.00,0.0092
496.00,0.0099
495.00,0.0101
494.00,0.0096
493.00,0.0088
492.00,0.0084
491.00,0.0088
490.00,0.0097
489.00,0.0105
488.00,0.0106
487.00,0.0101
486.00,0.0094
485.00,0.0091
484.00,0.0094
483.00,0.0102
482.00,0.0110
481.00,0.0114
480.00,0.0113
479.00,0.0111
478.00,0.0112
477.00,0.0119
476.00,0.0127
475.00,0.0133
474.00,0.0135
473.00,0.0139
472.00,0.0148
471.00,0.0160
470.00,0.0167
469.00,0.0166
468.00,0.0160
467.00,0.0153
466.00,0.0153
465.00,0.0162
464.00,0.0179
463.00,0.0194
462.00,0.0201
461.00,0.0199
460.00,0.0197
459.00,0.0198
458.00,0.0207
457.00,0.0216
456.00,0.0220
455.00,0.0213
454.00,0.0200
453.00,0.0187
452.00,0.0178
451.00,0.0175
450.00,0.0172
