Created as New Dataset,Sample 089 By Administrator Date Wednesday, September 03 2025
cm-1,A
4000.00,0.0009
3999.00,0.0009
3998.00,0.0009
3997.00,0.0009
3996.00,0.0009
3995.00,0.0009
3994.00,0.0009
3993.00,0.0008
3992.00,0.0008
3991.00,0.0008
3990.00,0.0008
3989.00,0.0008
3988.00,0.0008
3987.00,0.0008
3986.00,0.0007
3985.00,0.0007
3984.00,0.0007
3983.00,0.0007
3982.00,0.0008
3981.00,0.0008
3980.00,0.0007
3979.00,0.0007
3978.00,0.0007
3977.00,0.0007
3976.00,0.0007
3975.00,0.0007
3974.00,0.0008
3973.00,0.0008
3972.00,0.0008
3971.00,0.0008
3970.00,0.0008
3969.00,0.0007
3968.00,0.0007
3967.00,0.0007
3966.00,0.0007
3965.00,0.0006
3964.00,0.0006
3963.00,0.0006
3962.00,0.0007
3961.00,0.0007
3960.00,0.0007
3959.00,0.0007
3958.00,0.0007
3957.00,0.0007
3956.00,0.0007
3955.00,0.0007
3954.00,0.0007
3953.00,0.0007
3952.00,0.0006
3951.00,0.0006
3950.00,0.0006
3949.00,0.0006
3948.00,0.0007
3947.00,0.0007
3946.00,0.0006
3945.00,0.0006
3944.00,0.0006
3943.00,0.0006
3942.00,0.0006
3941.00,0.0006
3940.00,0.0007
3939.00,0.0007
3938.00,0.0007
3937.00,0.0007
3936.00,0.0007
3935.00,0.0007
3934.00,0.0007
3933.00,0.0007
3932.00,0.0006
3931.00,0.0007
3930.00,0.0007
3929.00,0.0007
3928.00,0.0007
3927.00,0.0007
3926.00,0.0008
3925.00,0.0008
3924.00,0.0008
3923.00,0.0008
3922.00,0.0008
3921.00,0.0008
3920.00,0.0007
3919.00,0.0007
3918.00,0.0007
3917.00,0.0007
3916.00,0.0007
3915.00,0.0007
3914.00,0.0007
3913.00,0.0007
3912.00,0.0007
3911.00,0.0007
3910.00,0.0007
3909.00,0.0007
3908.00,0.0006
3907.00,0.0006
3906.00,0.0006
3905.00,0.0005
3904.00,0.0005
3903.00,0.0005
3902.00,0.0005
3901.00,0.0006
3900.00,0.0006
3899.00,0.0007
3898.00,0.0007
3897.00,0.0007
3896.00,0.0007
3895.00,0.0008
3894.00,0.0008
3893.00,0.0008
3892.00,0.0007
3891.00,0.0007
3890.00,0.0007
3889.00,0.0007
3888.00,0.0007
3887.00,0.0007
3886.00,0.0007
3885.00,0.0007
3884.00,0.0007
3883.00,0.0007
3882.00,0.0007
3881.00,0.0007
3880.00,0.0008
3879.00,0.0008
3878.00,0.0008
3877.00,0.0008
3876.00,0.0008
3875.00,0.0007
3874.00,0.0007
3873.00,0.0007
3872.00,0.0007
3871.00,0.0007
3870.00,0.0007
3869.00,0.0007
3868.00,0.0007
3867.00,0.0007
3866.00,0.0007
3865.00,0.0007
3864.00,0.0007
3863.00,0.0007
3862.00,0.0007
3861.00,0.0007
3860.00,0.0007
3859.00,0.0007
3858.00,0.0007
3857.00,0.0007
3856.00,0.0007
3855.00,0.0007
3854.00,0.0007
3853.00,0.0008
3852.00,0.0007
3851.00,0.0007
3850.00,0.0007
3849.00,0.0007
3848.00,0.0007
3847.00,0.0007
3846.00,0.0007
3845.00,0.0007
3844.00,0.0007
3843.00,0.0007
3842.00,0.0007
3841.00,0.0007
3840.00,0.0008
3839.00,0.0008
3838.00,0.0008
3837.00,0.0008
3836.00,0.0008
3835.00,0.0007
3834.00,0.0007
3833.00,0.0007
3832.00,0.0007
3831.00,0.0007
3830.00,0.0007
3829.00,0.0007
3828.00,0.0007
3827.00,0.0008
3826.00,0.0007
3825.00,0.0007
3824.00,0.0007
3823.00,0.0007
3822.00,0.0007
3821.00,0.0008
3820.00,0.0008
3819.00,0.0008
3818.00,0.0008
3817.00,0.0007
3816.00,0.0007
3815.00,0.0007
3814.00,0.0007
3813.00,0.0007
3812.00,0.0007
3811.00,0.0007
3810.00,0.0007
3809.00,0.0007
3808.00,0.0007
3807.00,0.0007
3806.00,0.0007
3805.00,0.0007
3804.00,0.0007
3803.00,0.0007
3802.00,0.0007
3801.00,0.0007
3800.00,0.0007
3799.00,0.0007
3798.00,0.0007
3797.00,0.0008
3796.00,0.0008
3795.00,0.0008
3794.00,0.0008
3793.00,0.0007
3792.00,0.0007
3791.00,0.0007
3790.00,0.0007
3789.00,0.0007
3788.00,0.0008
3787.00,0.0008
3786.00,0.0008
3785.00,0.0008
3784.00,0.0007
3783.00,0.0007
3782.00,0.0007
3781.00,0.0007
3780.00,0.0007
3779.00,0.0007
3778.00,0.0007
3777.00,0.0007
3776.00,0.0007
3775.00,0.0007
3774.00,0.0007
3773.00,0.0007
3772.00,0.0007
3771.00,0.0008
3770.00,0.0008
3769.00,0.0008
3768.00,0.0008
3767.00,0.0008
3766.00,0.0008
3765.00,0.0008
3764.00,0.0008
3763.00,0.0008
3762.00,0.0008
3761.00,0.0008
3760.00,0.0008
3759.00,0.0008
3758.00,0.0008
3757.00,0.0008
3756.00,0.0009
3755.00,0.0009
3754.00,0.0009
3753.00,0.0009
3752.00,0.0009
3751.00,0.0009
3750.00,0.0008
3749.00,0.0008
3748.00,0.0007
3747.00,0.0007
3746.00,0.0006
3745.00,0.0005
3744.00,0.0004
3743.00,0.0004
3742.00,0.0005
3741.00,0.0005
3740.00,0.0006
3739.00,0.0006
3738.00,0.0006
3737.00,0.0006
3736.00,0.0006
3735.00,0.0006
3734.00,0.0006
3733.00,0.0006
3732.00,0.0005
3731.00,0.0004
3730.00,0.0004
3729.00,0.0004
3728.00,0.0004
3727.00,0.0004
3726.00,0.0004
3725.00,0.0005
3724.00,0.0005
3723.00,0.0006
3722.00,0.0006
3721.00,0.0006
3720.00,0.0006
3719.00,0.0006
3718.00,0.0006
3717.00,0.0006
3716.00,0.0005
3715.00,0.0005
3714.00,0.0005
3713.00,0.0005
3712.00,0.0005
3711.00,0.0005
3710.00,0.0006
3709.00,0.0006
3708.00,0.0006
3707.00,0.0006
3706.00,0.0006
3705.00,0.0005
3704.00,0.0005
3703.00,0.0005
3702.00,0.0006
3701.00,0.0005
3700.00,0.0005
3699.00,0.0004
3698.00,0.0004
3697.00,0.0004
3696.00,0.0004
3695.00,0.0004
3694.00,0.0005
3693.00,0.0005
3692.00,0.0005
3691.00,0.0005
3690.00,0.0005
3689.00,0.0006
3688.00,0.0006
3687.00,0.0006
3686.00,0.0006
3685.00,0.0007
3684.00,0.0007
3683.00,0.0007
3682.00,0.0006
3681.00,0.0006
3680.00,0.0006
3679.00,0.0006
3678.00,0.0006
3677.00,0.0006
3676.00,0.0006
3675.00,0.0007
3674.00,0.0007
3673.00,0.0006
3672.00,0.0006
3671.00,0.0006
3670.00,0.0006
3669.00,0.0006
3668.00,0.0006
3667.00,0.0006
3666.00,0.0006
3665.00,0.0006
3664.00,0.0006
3663.00,0.0006
3662.00,0.0006
3661.00,0.0005
3660.00,0.0005
3659.00,0.0005
3658.00,0.0005
3657.00,0.0005
3656.00,0.0005
3655.00,0.0005
3654.00,0.0005
3653.00,0.0005
3652.00,0.0005
3651.00,0.0005
3650.00,0.0006
3649.00,0.0006
3648.00,0.0006
3647.00,0.0005
3646.00,0.0005
3645.00,0.0005
3644.00,0.0006
3643.00,0.0006
3642.00,0.0006
3641.00,0.0006
3640.00,0.0005
3639.00,0.0005
3638.00,0.0005
3637.00,0.0005
3636.00,0.0005
3635.00,0.0005
3634.00,0.0005
3633.00,0.0005
3632.00,0.0005
3631.00,0.0005
3630.00,0.0005
3629.00,0.0005
3628.00,0.0006
3627.00,0.0006
3626.00,0.0006
3625.00,0.0005
3624.00,0.0005
3623.00,0.0004
3622.00,0.0004
3621.00,0.0004
3620.00,0.0004
3619.00,0.0005
3618.00,0.0005
3617.00,0.0006
3616.00,0.0006
3615.00,0.0006
3614.00,0.0007
3613.00,0.0007
3612.00,0.0006
3611.00,0.0006
3610.00,0.0005
3609.00,0.0005
3608.00,0.0005
3607.00,0.0006
3606.00,0.0007
3605.00,0.0007
3604.00,0.0008
3603.00,0.0008
3602.00,0.0008
3601.00,0.0009
3600.00,0.0009
3599.00,0.0010
3598.00,0.0009
3597.00,0.0009
3596.00,0.0008
3595.00,0.0008
3594.00,0.0007
3593.00,0.0007
3592.00,0.0007
3591.00,0.0007
3590.00,0.0008
3589.00,0.0008
3588.00,0.0008
3587.00,0.0008
3586.00,0.0009
3585.00,0.0009
3584.00,0.0009
3583.00,0.0009
3582.00,0.0009
3581.00,0.0010
3580.00,0.0010
3579.00,0.0010
3578.00,0.0011
3577.00,0.0011
3576.00,0.0011
3575.00,0.0011
3574.00,0.0011
3573.00,0.0011
3572.00,0.0011
3571.00,0.0011
3570.00,0.0011
3569.00,0.0011
3568.00,0.0011
3567.00,0.0011
3566.00,0.0011
3565.00,0.0012
3564.00,0.0012
3563.00,0.0012
3562.00,0.0013
3561.00,0.0013
3560.00,0.0014
3559.00,0.0014
3558.00,0.0014
3557.00,0.0014
3556.00,0.0014
3555.00,0.0014
3554.00,0.0014
3553.00,0.0014
3552.00,0.0014
3551.00,0.0014
3550.00,0.0014
3549.00,0.0014
3548.00,0.0013
3547.00,0.0013
3546.00,0.0013
3545.00,0.0014
3544.00,0.0015
3543.00,0.0015
3542.00,0.0015
3541.00,0.0016
3540.00,0.0016
3539.00,0.0016
3538.00,0.0016
3537.00,0.0016
3536.00,0.0016
3535.00,0.0016
3534.00,0.0017
3533.00,0.0017
3532.00,0.0017
3531.00,0.0017
3530.00,0.0018
3529.00,0.0018
3528.00,0.0018
3527.00,0.0018
3526.00,0.0018
3525.00,0.0018
3524.00,0.0018
3523.00,0.0018
3522.00,0.0018
3521.00,0.0018
3520.00,0.0018
3519.00,0.0018
3518.00,0.0019
3517.00,0.0019
3516.00,0.0019
3515.00,0.0019
3514.00,0.0019
3513.00,0.0019
3512.00,0.0019
3511.00,0.0019
3510.00,0.0019
3509.00,0.0020
3508.00,0.0020
3507.00,0.0020
3506.00,0.0020
3505.00,0.0020
3504.00,0.0020
3503.00,0.0020
3502.00,0.0020
3501.00,0.0021
3500.00,0.0021
3499.00,0.0021
3498.00,0.0022
3497.00,0.0021
3496.00,0.0021
3495.00,0.0021
3494.00,0.0021
3493.00,0.0021
3492.00,0.0021
3491.00,0.0021
3490.00,0.0021
3489.00,0.0022
3488.00,0.0022
3487.00,0.0022
3486.00,0.0022
3485.00,0.0022
3484.00,0.0023
3483.00,0.0023
3482.00,0.0023
3481.00,0.0023
3480.00,0.0023
3479.00,0.0023
3478.00,0.0023
3477.00,0.0024
3476.00,0.0024
3475.00,0.0024
3474.00,0.0024
3473.00,0.0024
3472.00,0.0024
3471.00,0.0024
3470.00,0.0024
3469.00,0.0024
3468.00,0.0025
3467.00,0.0025
3466.00,0.0025
3465.00,0.0025
3464.00,0.0026
3463.00,0.0026
3462.00,0.0026
3461.00,0.0026
3460.00,0.0026
3459.00,0.0026
3458.00,0.0026
3457.00,0.0026
3456.00,0.0026
3455.00,0.0026
3454.00,0.0026
3453.00,0.0026
3452.00,0.0026
3451.00,0.0025
3450.00,0.0025
3449.00,0.0026
3448.00,0.0026
3447.00,0.0026
3446.00,0.0026
3445.00,0.0026
3444.00,0.0026
3443.00,0.0026
3442.00,0.0026
3441.00,0.0027
3440.00,0.0027
3439.00,0.0027
3438.00,0.0028
3437.00,0.0028
3436.00,0.0029
3435.00,0.0029
3434.00,0.0029
3433.00,0.0029
3432.00,0.0029
3431.00,0.0029
3430.00,0.0029
3429.00,0.0030
3428.00,0.0030
3427.00,0.0030
3426.00,0.0030
3425.00,0.0030
3424.00,0.0029
3423.00,0.0029
3422.00,0.0029
3421.00,0.0029
3420.00,0.0028
3419.00,0.0029
3418.00,0.0029
3417.00,0.0030
3416.00,0.0030
3415.00,0.0031
3414.00,0.0031
3413.00,0.0031
3412.00,0.0031
3411.00,0.0031
3410.00,0.0032
3409.00,0.0032
3408.00,0.0032
3407.00,0.0032
3406.00,0.0032
3405.00,0.0032
3404.00,0.0032
3403.00,0.0031
3402.00,0.0031
3401.00,0.0031
3400.00,0.0031
3399.00,0.0031
3398.00,0.0031
3397.00,0.0031
3396.00,0.0031
3395.00,0.0031
3394.00,0.0031
3393.00,0.0031
3392.00,0.0032
3391.00,0.0032
3390.00,0.0032
3389.00,0.0031
3388.00,0.0031
3387.00,0.0031
3386.00,0.0031
3385.00,0.0031
3384.00,0.0031
3383.00,0.0031
3382.00,0.0031
3381.00,0.0031
3380.00,0.0031
3379.00,0.0031
3378.00,0.0032
3377.00,0.0032
3376.00,0.0032
3375.00,0.0032
3374.00,0.0031
3373.00,0.0032
3372.00,0.0032
3371.00,0.0032
3370.00,0.0032
3369.00,0.0032
3368.00,0.0032
3367.00,0.0032
3366.00,0.0032
3365.00,0.0032
3364.00,0.0032
3363.00,0.0032
3362.00,0.0032
3361.00,0.0033
3360.00,0.0033
3359.00,0.0033
3358.00,0.0032
3357.00,0.0032
3356.00,0.0032
3355.00,0.0032
3354.00,0.0032
3353.00,0.0032
3352.00,0.0032
3351.00,0.0033
3350.00,0.0033
3349.00,0.0032
3348.00,0.0032
3347.00,0.0032
3346.00,0.0032
3345.00,0.0032
3344.00,0.0032
3343.00,0.0032
3342.00,0.0032
3341.00,0.0032
3340.00,0.0032
3339.00,0.0032
3338.00,0.0032
3337.00,0.0032
3336.00,0.0032
3335.00,0.0032
3334.00,0.0032
3333.00,0.0032
3332.00,0.0032
3331.00,0.0031
3330.00,0.0031
3329.00,0.0031
3328.00,0.0031
3327.00,0.0031
3326.00,0.0031
3325.00,0.0031
3324.00,0.0031
3323.00,0.0031
3322.00,0.0030
3321.00,0.0030
3320.00,0.0030
3319.00,0.0030
3318.00,0.0030
3317.00,0.0030
3316.00,0.0030
3315.00,0.0030
3314.00,0.0030
3313.00,0.0030
3312.00,0.0030
3311.00,0.0031
3310.00,0.0031
3309.00,0.0031
3308.00,0.0031
3307.00,0.0031
3306.00,0.0031
3305.00,0.0031
3304.00,0.0031
3303.00,0.0031
3302.00,0.0031
3301.00,0.0031
3300.00,0.0031
3299.00,0.0030
3298.00,0.0030
3297.00,0.0030
3296.00,0.0030
3295.00,0.0030
3294.00,0.0030
3293.00,0.0030
3292.00,0.0030
3291.00,0.0030
3290.00,0.0030
3289.00,0.0030
3288.00,0.0030
3287.00,0.0030
3286.00,0.0030
3285.00,0.0030
3284.00,0.0030
3283.00,0.0030
3282.00,0.0030
3281.00,0.0029
3280.00,0.0029
3279.00,0.0029
3278.00,0.0029
3277.00,0.0028
3276.00,0.0028
3275.00,0.0028
3274.00,0.0028
3273.00,0.0028
3272.00,0.0028
3271.00,0.0028
3270.00,0.0027
3269.00,0.0027
3268.00,0.0027
3267.00,0.0027
3266.00,0.0027
3265.00,0.0027
3264.00,0.0027
3263.00,0.0027
3262.00,0.0027
3261.00,0.0027
3260.00,0.0027
3259.00,0.0027
3258.00,0.0026
3257.00,0.0026
3256.00,0.0026
3255.00,0.0026
3254.00,0.0026
3253.00,0.0026
3252.00,0.0025
3251.00,0.0025
3250.00,0.0025
3249.00,0.0025
3248.00,0.0025
3247.00,0.0025
3246.00,0.0026
3245.00,0.0026
3244.00,0.0026
3243.00,0.0026
3242.00,0.0026
3241.00,0.0026
3240.00,0.0026
3239.00,0.0026
3238.00,0.0025
3237.00,0.0025
3236.00,0.0025
3235.00,0.0025
3234.00,0.0025
3233.00,0.0025
3232.00,0.0025
3231.00,0.0025
3230.00,0.0026
3229.00,0.0026
3228.00,0.0026
3227.00,0.0026
3226.00,0.0027
3225.00,0.0027
3224.00,0.0027
3223.00,0.0027
3222.00,0.0027
3221.00,0.0027
3220.00,0.0027
3219.00,0.0027
3218.00,0.0028
3217.00,0.0028
3216.00,0.0028
3215.00,0.0029
3214.00,0.0029
3213.00,0.0029
3212.00,0.0029
3211.00,0.0029
3210.00,0.0030
3209.00,0.0030
3208.00,0.0030
3207.00,0.0030
3206.00,0.0030
3205.00,0.0030
3204.00,0.0030
3203.00,0.0030
3202.00,0.0030
3201.00,0.0030
3200.00,0.0030
3199.00,0.0030
3198.00,0.0030
3197.00,0.0030
3196.00,0.0030
3195.00,0.0030
3194.00,0.0031
3193.00,0.0031
3192.00,0.0031
3191.00,0.0031
3190.00,0.0031
3189.00,0.0030
3188.00,0.0029
3187.00,0.0029
3186.00,0.0029
3185.00,0.0029
3184.00,0.0029
3183.00,0.0029
3182.00,0.0029
3181.00,0.0029
3180.00,0.0029
3179.00,0.0028
3178.00,0.0028
3177.00,0.0028
3176.00,0.0028
3175.00,0.0028
3174.00,0.0027
3173.00,0.0027
3172.00,0.0027
3171.00,0.0027
3170.00,0.0027
3169.00,0.0027
3168.00,0.0027
3167.00,0.0027
3166.00,0.0028
3165.00,0.0028
3164.00,0.0027
3163.00,0.0027
3162.00,0.0027
3161.00,0.0027
3160.00,0.0027
3159.00,0.0027
3158.00,0.0027
3157.00,0.0028
3156.00,0.0028
3155.00,0.0027
3154.00,0.0027
3153.00,0.0027
3152.00,0.0027
3151.00,0.0027
3150.00,0.0027
3149.00,0.0027
3148.00,0.0027
3147.00,0.0027
3146.00,0.0027
3145.00,0.0027
3144.00,0.0027
3143.00,0.0027
3142.00,0.0027
3141.00,0.0026
3140.00,0.0026
3139.00,0.0026
3138.00,0.0026
3137.00,0.0026
3136.00,0.0026
3135.00,0.0026
3134.00,0.0026
3133.00,0.0026
3132.00,0.0026
3131.00,0.0026
3130.00,0.0026
3129.00,0.0025
3128.00,0.0025
3127.00,0.0024
3126.00,0.0024
3125.00,0.0024
3124.00,0.0024
3123.00,0.0024
3122.00,0.0024
3121.00,0.0024
3120.00,0.0024
3119.00,0.0024
3118.00,0.0023
3117.00,0.0023
3116.00,0.0023
3115.00,0.0022
3114.00,0.0022
3113.00,0.0022
3112.00,0.0022
3111.00,0.0022
3110.00,0.0022
3109.00,0.0022
3108.00,0.0022
3107.00,0.0022
3106.00,0.0022
3105.00,0.0022
3104.00,0.0023
3103.00,0.0023
3102.00,0.0023
3101.00,0.0023
3100.00,0.0023
3099.00,0.0023
3098.00,0.0023
3097.00,0.0023
3096.00,0.0023
3095.00,0.0023
3094.00,0.0023
3093.00,0.0023
3092.00,0.0023
3091.00,0.0023
3090.00,0.0023
3089.00,0.0023
3088.00,0.0023
3087.00,0.0023
3086.00,0.0023
3085.00,0.0022
3084.00,0.0022
3083.00,0.0022
3082.00,0.0022
3081.00,0.0022
3080.00,0.0022
3079.00,0.0022
3078.00,0.0023
3077.00,0.0023
3076.00,0.0024
3075.00,0.0024
3074.00,0.0024
3073.00,0.0024
3072.00,0.0024
3071.00,0.0024
3070.00,0.0024
3069.00,0.0024
3068.00,0.0024
3067.00,0.0025
3066.00,0.0025
3065.00,0.0026
3064.00,0.0026
3063.00,0.0026
3062.00,0.0026
3061.00,0.0026
3060.00,0.0026
3059.00,0.0026
3058.00,0.0026
3057.00,0.0026
3056.00,0.0027
3055.00,0.0027
3054.00,0.0027
3053.00,0.0027
3052.00,0.0027
3051.00,0.0027
3050.00,0.0028
3049.00,0.0028
3048.00,0.0028
3047.00,0.0029
3046.00,0.0029
3045.00,0.0029
3044.00,0.0030
3043.00,0.0030
3042.00,0.0030
3041.00,0.0031
3040.00,0.0031
3039.00,0.0031
3038.00,0.0031
3037.00,0.0032
3036.00,0.0032
3035.00,0.0032
3034.00,0.0032
3033.00,0.0033
3032.00,0.0034
3031.00,0.0034
3030.00,0.0035
3029.00,0.0035
3028.00,0.0036
3027.00,0.0036
3026.00,0.0036
3025.00,0.0037
3024.00,0.0037
3023.00,0.0038
3022.00,0.0039
3021.00,0.0040
3020.00,0.0041
3019.00,0.0041
3018.00,0.0042
3017.00,0.0043
3016.00,0.0044
3015.00,0.0045
3014.00,0.0046
3013.00,0.0047
3012.00,0.0048
3011.00,0.0049
3010.00,0.0051
3009.00,0.0052
3008.00,0.0053
3007.00,0.0055
3006.00,0.0056
3005.00,0.0058
3004.00,0.0060
3003.00,0.0062
3002.00,0.0064
3001.00,0.0066
3000.00,0.0068
2999.00,0.0071
2998.00,0.0074
2997.00,0.0078
2996.00,0.0081
2995.00,0.0085
2994.00,0.0089
2993.00,0.0094
2992.00,0.0098
2991.00,0.0104
2990.00,0.0110
2989.00,0.0117
2988.00,0.0124
2987.00,0.0132
2986.00,0.0141
2985.00,0.0150
2984.00,0.0161
2983.00,0.0174
2982.00,0.0188
2981.00,0.0204
2980.00,0.0222
2979.00,0.0243
2978.00,0.0266
2977.00,0.0292
2976.00,0.0322
2975.00,0.0356
2974.00,0.0394
2973.00,0.0438
2972.00,0.0488
2971.00,0.0543
2970.00,0.0604
2969.00,0.0671
2968.00,0.0742
2967.00,0.0818
2966.00,0.0895
2965.00,0.0972
2964.00,0.1045
2963.00,0.1112
2962.00,0.1169
2961.00,0.1218
2960.00,0.1260
2959.00,0.1300
2958.00,0.1343
2957.00,0.1396
2956.00,0.1460
2955.00,0.1539
2954.00,0.1629
2953.00,0.1722
2952.00,0.1808
2951.00,0.1872
2950.00,0.1902
2949.00,0.1889
2948.00,0.1831
2947.00,0.1734
2946.00,0.1612
2945.00,0.1480
2944.00,0.1354
2943.00,0.1245
2942.00,0.1160
2941.00,0.1101
2940.00,0.1067
2939.00,0.1057
2938.00,0.1068
2937.00,0.1097
2936.00,0.1143
2935.00,0.1205
2934.00,0.1281
2933.00,0.1371
2932.00,0.1473
2931.00,0.1585
2930.00,0.1705
2929.00,0.1830
2928.00,0.1957
2927.00,0.2083
2926.00,0.2207
2925.00,0.2330
2924.00,0.2451
2923.00,0.2574
2922.00,0.2698
2921.00,0.2819
2920.00,0.2930
2919.00,0.3018
2918.00,0.3069
2917.00,0.3071
2916.00,0.3021
2915.00,0.2926
2914.00,0.2800
2913.00,0.2660
2912.00,0.2520
2911.00,0.2390
2910.00,0.2274
2909.00,0.2171
2908.00,0.2078
2907.00,0.1991
2906.00,0.1908
2905.00,0.1828
2904.00,0.1750
2903.00,0.1674
2902.00,0.1602
2901.00,0.1532
2900.00,0.1466
2899.00,0.1404
2898.00,0.1346
2897.00,0.1293
2896.00,0.1246
2895.00,0.1205
2894.00,0.1170
2893.00,0.1142
2892.00,0.1120
2891.00,0.1104
2890.00,0.1093
2889.00,0.1086
2888.00,0.1084
2887.00,0.1085
2886.00,0.1090
2885.00,0.1099
2884.00,0.1112
2883.00,0.1130
2882.00,0.1153
2881.00,0.1180
2880.00,0.1207
2879.00,0.1230
2878.00,0.1246
2877.00,0.1252
2876.00,0.1249
2875.00,0.1242
2874.00,0.1236
2873.00,0.1234
2872.00,0.1241
2871.00,0.1256
2870.00,0.1276
2869.00,0.1297
2868.00,0.1310
2867.00,0.1308
2866.00,0.1282
2865.00,0.1233
2864.00,0.1162
2863.00,0.1080
2862.00,0.0998
2861.00,0.0925
2860.00,0.0868
2859.00,0.0829
2858.00,0.0806
2857.00,0.0798
2856.00,0.0802
2855.00,0.0816
2854.00,0.0837
2853.00,0.0863
2852.00,0.0890
2851.00,0.0913
2850.00,0.0930
2849.00,0.0938
2848.00,0.0943
2847.00,0.0948
2846.00,0.0961
2845.00,0.0985
2844.00,0.1021
2843.00,0.1066
2842.00,0.1115
2841.00,0.1162
2840.00,0.1200
2839.00,0.1219
2838.00,0.1214
2837.00,0.1179
2836.00,0.1114
2835.00,0.1025
2834.00,0.0922
2833.00,0.0815
2832.00,0.0713
2831.00,0.0623
2830.00,0.0546
2829.00,0.0483
2828.00,0.0431
2827.00,0.0390
2826.00,0.0356
2825.00,0.0329
2824.00,0.0306
2823.00,0.0286
2822.00,0.0270
2821.00,0.0256
2820.00,0.0243
2819.00,0.0232
2818.00,0.0223
2817.00,0.0215
2816.00,0.0208
2815.00,0.0202
2814.00,0.0196
2813.00,0.0190
2812.00,0.0184
2811.00,0.0179
2810.00,0.0173
2809.00,0.0167
2808.00,0.0160
2807.00,0.0153
2806.00,0.0146
2805.00,0.0140
2804.00,0.0134
2803.00,0.0128
2802.00,0.0123
2801.00,0.0118
2800.00,0.0114
2799.00,0.0111
2798.00,0.0108
2797.00,0.0105
2796.00,0.0103
2795.00,0.0101
2794.00,0.0098
2793.00,0.0096
2792.00,0.0093
2791.00,0.0090
2790.00,0.0087
2789.00,0.0085
2788.00,0.0082
2787.00,0.0079
2786.00,0.0077
2785.00,0.0074
2784.00,0.0072
2783.00,0.0069
2782.00,0.0067
2781.00,0.0065
2780.00,0.0063
2779.00,0.0062
2778.00,0.0060
2777.00,0.0059
2776.00,0.0058
2775.00,0.0057
2774.00,0.0056
2773.00,0.0056
2772.00,0.0055
2771.00,0.0055
2770.00,0.0054
2769.00,0.0054
2768.00,0.0054
2767.00,0.0053
2766.00,0.0053
2765.00,0.0053
2764.00,0.0052
2763.00,0.0052
2762.00,0.0052
2761.00,0.0052
2760.00,0.0051
2759.00,0.0051
2758.00,0.0050
2757.00,0.0050
2756.00,0.0049
2755.00,0.0049
2754.00,0.0050
2753.00,0.0050
2752.00,0.0050
2751.00,0.0050
2750.00,0.0050
2749.00,0.0049
2748.00,0.0049
2747.00,0.0050
2746.00,0.0050
2745.00,0.0051
2744.00,0.0052
2743.00,0.0053
2742.00,0.0054
2741.00,0.0055
2740.00,0.0055
2739.00,0.0057
2738.00,0.0058
2737.00,0.0059
2736.00,0.0061
2735.00,0.0062
2734.00,0.0064
2733.00,0.0066
2732.00,0.0068
2731.00,0.0070
2730.00,0.0072
2729.00,0.0075
2728.00,0.0077
2727.00,0.0080
2726.00,0.0083
2725.00,0.0085
2724.00,0.0087
2723.00,0.0087
2722.00,0.0086
2721.00,0.0084
2720.00,0.0081
2719.00,0.0078
2718.00,0.0075
2717.00,0.0072
2716.00,0.0069
2715.00,0.0066
2714.00,0.0064
2713.00,0.0062
2712.00,0.0059
2711.00,0.0057
2710.00,0.0055
2709.00,0.0053
2708.00,0.0052
2707.00,0.0050
2706.00,0.0049
2705.00,0.0048
2704.00,0.0047
2703.00,0.0046
2702.00,0.0045
2701.00,0.0045
2700.00,0.0044
2699.00,0.0043
2698.00,0.0043
2697.00,0.0043
2696.00,0.0042
2695.00,0.0043
2694.00,0.0043
2693.00,0.0043
2692.00,0.0043
2691.00,0.0043
2690.00,0.0043
2689.00,0.0043
2688.00,0.0043
2687.00,0.0043
2686.00,0.0043
2685.00,0.0043
2684.00,0.0043
2683.00,0.0043
2682.00,0.0043
2681.00,0.0044
2680.00,0.0044
2679.00,0.0044
2678.00,0.0044
2677.00,0.0044
2676.00,0.0044
2675.00,0.0044
2674.00,0.0044
2673.00,0.0044
2672.00,0.0043
2671.00,0.0043
2670.00,0.0042
2669.00,0.0042
2668.00,0.0043
2667.00,0.0043
2666.00,0.0043
2665.00,0.0043
2664.00,0.0044
2663.00,0.0045
2662.00,0.0045
2661.00,0.0046
2660.00,0.0047
2659.00,0.0047
2658.00,0.0047
2657.00,0.0046
2656.00,0.0046
2655.00,0.0045
2654.00,0.0045
2653.00,0.0044
2652.00,0.0044
2651.00,0.0044
2650.00,0.0043
2649.00,0.0043
2648.00,0.0043
2647.00,0.0042
2646.00,0.0041
2645.00,0.0041
2644.00,0.0040
2643.00,0.0039
2642.00,0.0039
2641.00,0.0039
2640.00,0.0039
2639.00,0.0038
2638.00,0.0038
2637.00,0.0037
2636.00,0.0037
2635.00,0.0037
2634.00,0.0038
2633.00,0.0038
2632.00,0.0038
2631.00,0.0038
2630.00,0.0039
2629.00,0.0039
2628.00,0.0039
2627.00,0.0039
2626.00,0.0038
2625.00,0.0038
2624.00,0.0038
2623.00,0.0039
2622.00,0.0039
2621.00,0.0039
2620.00,0.0039
2619.00,0.0039
2618.00,0.0039
2617.00,0.0039
2616.00,0.0039
2615.00,0.0039
2614.00,0.0039
2613.00,0.0039
2612.00,0.0038
2611.00,0.0038
2610.00,0.0037
2609.00,0.0037
2608.00,0.0036
2607.00,0.0036
2606.00,0.0035
2605.00,0.0034
2604.00,0.0033
2603.00,0.0033
2602.00,0.0032
2601.00,0.0031
2600.00,0.0031
2599.00,0.0031
2598.00,0.0031
2597.00,0.0032
2596.00,0.0032
2595.00,0.0032
2594.00,0.0032
2593.00,0.0032
2592.00,0.0032
2591.00,0.0033
2590.00,0.0034
2589.00,0.0035
2588.00,0.0036
2587.00,0.0036
2586.00,0.0037
2585.00,0.0038
2584.00,0.0039
2583.00,0.0040
2582.00,0.0040
2581.00,0.0039
2580.00,0.0038
2579.00,0.0037
2578.00,0.0036
2577.00,0.0035
2576.00,0.0034
2575.00,0.0032
2574.00,0.0031
2573.00,0.0030
2572.00,0.0029
2571.00,0.0027
2570.00,0.0026
2569.00,0.0025
2568.00,0.0024
2567.00,0.0023
2566.00,0.0023
2565.00,0.0023
2564.00,0.0023
2563.00,0.0023
2562.00,0.0023
2561.00,0.0023
2560.00,0.0023
2559.00,0.0023
2558.00,0.0023
2557.00,0.0023
2556.00,0.0022
2555.00,0.0021
2554.00,0.0020
2553.00,0.0019
2552.00,0.0018
2551.00,0.0018
2550.00,0.0018
2549.00,0.0019
2548.00,0.0019
2547.00,0.0019
2546.00,0.0019
2545.00,0.0018
2544.00,0.0017
2543.00,0.0017
2542.00,0.0016
2541.00,0.0016
2540.00,0.0016
2539.00,0.0016
2538.00,0.0016
2537.00,0.0016
2536.00,0.0016
2535.00,0.0016
2534.00,0.0016
2533.00,0.0016
2532.00,0.0015
2531.00,0.0015
2530.00,0.0015
2529.00,0.0016
2528.00,0.0015
2527.00,0.0015
2526.00,0.0014
2525.00,0.0014
2524.00,0.0014
2523.00,0.0014
2522.00,0.0014
2521.00,0.0013
2520.00,0.0013
2519.00,0.0012
2518.00,0.0011
2517.00,0.0011
2516.00,0.0010
2515.00,0.0010
2514.00,0.0010
2513.00,0.0010
2512.00,0.0010
2511.00,0.0010
2510.00,0.0010
2509.00,0.0010
2508.00,0.0010
2507.00,0.0010
2506.00,0.0010
2505.00,0.0010
2504.00,0.0010
2503.00,0.0010
2502.00,0.0010
2501.00,0.0010
2500.00,0.0010
2499.00,0.0010
2498.00,0.0010
2497.00,0.0010
2496.00,0.0011
2495.00,0.0010
2494.00,0.0010
2493.00,0.0010
2492.00,0.0010
2491.00,0.0010
2490.00,0.0010
2489.00,0.0010
2488.00,0.0010
2487.00,0.0010
2486.00,0.0010
2485.00,0.0010
2484.00,0.0010
2483.00,0.0010
2482.00,0.0011
2481.00,0.0010
2480.00,0.0009
2479.00,0.0009
2478.00,0.0008
2477.00,0.0009
2476.00,0.0009
2475.00,0.0010
2474.00,0.0010
2473.00,0.0009
2472.00,0.0009
2471.00,0.0008
2470.00,0.0008
2469.00,0.0009
2468.00,0.0010
2467.00,0.0010
2466.00,0.0011
2465.00,0.0011
2464.00,0.0010
2463.00,0.0010
2462.00,0.0009
2461.00,0.0009
2460.00,0.0009
2459.00,0.0010
2458.00,0.0010
2457.00,0.0010
2456.00,0.0010
2455.00,0.0010
2454.00,0.0010
2453.00,0.0010
2452.00,0.0011
2451.00,0.0011
2450.00,0.0011
2449.00,0.0012
2448.00,0.0012
2447.00,0.0011
2446.00,0.0011
2445.00,0.0010
2444.00,0.0010
2443.00,0.0010
2442.00,0.0009
2441.00,0.0009
2440.00,0.0009
2439.00,0.0009
2438.00,0.0009
2437.00,0.0010
2436.00,0.0011
2435.00,0.0012
2434.00,0.0012
2433.00,0.0012
2432.00,0.0012
2431.00,0.0011
2430.00,0.0011
2429.00,0.0011
2428.00,0.0011
2427.00,0.0012
2426.00,0.0012
2425.00,0.0012
2424.00,0.0011
2423.00,0.0011
2422.00,0.0011
2421.00,0.0010
2420.00,0.0009
2419.00,0.0009
2418.00,0.0009
2417.00,0.0009
2416.00,0.0009
2415.00,0.0009
2414.00,0.0010
2413.00,0.0010
2412.00,0.0010
2411.00,0.0010
2410.00,0.0010
2409.00,0.0010
2408.00,0.0010
2407.00,0.0009
2406.00,0.0009
2405.00,0.0008
2404.00,0.0008
2403.00,0.0008
2402.00,0.0008
2401.00,0.0008
2400.00,0.0008
2399.00,0.0008
2398.00,0.0008
2397.00,0.0008
2396.00,0.0008
2395.00,0.0008
2394.00,0.0007
2393.00,0.0007
2392.00,0.0007
2391.00,0.0007
2390.00,0.0007
2389.00,0.0007
2388.00,0.0007
2387.00,0.0007
2386.00,0.0006
2385.00,0.0006
2384.00,0.0006
2383.00,0.0005
2382.00,0.0004
2381.00,0.0003
2380.00,0.0002
2379.00,0.0002
2378.00,0.0002
2377.00,0.0002
2376.00,0.0003
2375.00,0.0003
2374.00,0.0004
2373.00,0.0004
2372.00,0.0004
2371.00,0.0004
2370.00,0.0003
2369.00,0.0003
2368.00,0.0002
2367.00,0.0002
2366.00,0.0001
2365.00,0.0001
2364.00,0.0001
2363.00,0.0002
2362.00,0.0003
2361.00,0.0004
2360.00,0.0004
2359.00,0.0003
2358.00,0.0004
2357.00,0.0004
2356.00,0.0005
2355.00,0.0005
2354.00,0.0005
2353.00,0.0004
2352.00,0.0003
2351.00,0.0003
2350.00,0.0003
2349.00,0.0004
2348.00,0.0005
2347.00,0.0006
2346.00,0.0005
2345.00,0.0005
2344.00,0.0005
2343.00,0.0006
2342.00,0.0007
2341.00,0.0007
2340.00,0.0007
2339.00,0.0007
2338.00,0.0007
2337.00,0.0008
2336.00,0.0008
2335.00,0.0008
2334.00,0.0007
2333.00,0.0005
2332.00,0.0004
2331.00,0.0004
2330.00,0.0004
2329.00,0.0005
2328.00,0.0007
2327.00,0.0010
2326.00,0.0014
2325.00,0.0018
2324.00,0.0021
2323.00,0.0021
2322.00,0.0019
2321.00,0.0017
2320.00,0.0015
2319.00,0.0013
2318.00,0.0012
2317.00,0.0011
2316.00,0.0011
2315.00,0.0010
2314.00,0.0010
2313.00,0.0009
2312.00,0.0009
2311.00,0.0008
2310.00,0.0008
2309.00,0.0008
2308.00,0.0008
2307.00,0.0009
2306.00,0.0009
2305.00,0.0009
2304.00,0.0009
2303.00,0.0009
2302.00,0.0010
2301.00,0.0010
2300.00,0.0010
2299.00,0.0011
2298.00,0.0011
2297.00,0.0012
2296.00,0.0012
2295.00,0.0012
2294.00,0.0012
2293.00,0.0013
2292.00,0.0014
2291.00,0.0014
2290.00,0.0015
2289.00,0.0016
2288.00,0.0017
2287.00,0.0017
2286.00,0.0018
2285.00,0.0018
2284.00,0.0017
2283.00,0.0017
2282.00,0.0016
2281.00,0.0016
2280.00,0.0015
2279.00,0.0015
2278.00,0.0014
2277.00,0.0013
2276.00,0.0013
2275.00,0.0012
2274.00,0.0012
2273.00,0.0012
2272.00,0.0011
2271.00,0.0011
2270.00,0.0011
2269.00,0.0011
2268.00,0.0012
2267.00,0.0012
2266.00,0.0011
2265.00,0.0011
2264.00,0.0011
2263.00,0.0011
2262.00,0.0012
2261.00,0.0012
2260.00,0.0012
2259.00,0.0013
2258.00,0.0013
2257.00,0.0013
2256.00,0.0012
2255.00,0.0010
2254.00,0.0009
2253.00,0.0008
2252.00,0.0008
2251.00,0.0009
2250.00,0.0009
2249.00,0.0009
2248.00,0.0009
2247.00,0.0008
2246.00,0.0008
2245.00,0.0007
2244.00,0.0007
2243.00,0.0006
2242.00,0.0004
2241.00,0.0003
2240.00,0.0004
2239.00,0.0005
2238.00,0.0006
2237.00,0.0007
2236.00,0.0007
2235.00,0.0007
2234.00,0.0008
2233.00,0.0010
2232.00,0.0012
2231.00,0.0013
2230.00,0.0012
2229.00,0.0011
2228.00,0.0010
2227.00,0.0009
2226.00,0.0008
2225.00,0.0009
2224.00,0.0009
2223.00,0.0009
2222.00,0.0007
2221.00,0.0005
2220.00,0.0002
2219.00,0.0000
2218.00,-0.0001
2217.00,-0.0000
2216.00,0.0001
2215.00,0.0001
2214.00,0.0001
2213.00,0.0003
2212.00,0.0004
2211.00,0.0006
2210.00,0.0006
2209.00,0.0006
2208.00,0.0005
2207.00,0.0005
2206.00,0.0005
2205.00,0.0006
2204.00,0.0008
2203.00,0.0009
2202.00,0.0010
2201.00,0.0012
2200.00,0.0012
2199.00,0.0011
2198.00,0.0009
2197.00,0.0006
2196.00,0.0004
2195.00,0.0002
2194.00,0.0000
2193.00,0.0001
2192.00,0.0003
2191.00,0.0006
2190.00,0.0008
2189.00,0.0009
2188.00,0.0009
2187.00,0.0007
2186.00,0.0007
2185.00,0.0007
2184.00,0.0006
2183.00,0.0005
2182.00,0.0004
2181.00,0.0005
2180.00,0.0007
2179.00,0.0009
2178.00,0.0009
2177.00,0.0007
2176.00,0.0003
2175.00,0.0000
2174.00,-0.0000
2173.00,0.0001
2172.00,0.0004
2171.00,0.0007
2170.00,0.0012
2169.00,0.0017
2168.00,0.0021
2167.00,0.0024
2166.00,0.0025
2165.00,0.0024
2164.00,0.0024
2163.00,0.0023
2162.00,0.0020
2161.00,0.0012
2160.00,-0.0001
2159.00,-0.0016
2158.00,-0.0029
2157.00,-0.0035
2156.00,-0.0034
2155.00,-0.0029
2154.00,-0.0023
2153.00,-0.0019
2152.00,-0.0016
2151.00,-0.0015
2150.00,-0.0014
2149.00,-0.0014
2148.00,-0.0014
2147.00,-0.0015
2146.00,-0.0015
2145.00,-0.0014
2144.00,-0.0012
2143.00,-0.0011
2142.00,-0.0011
2141.00,-0.0011
2140.00,-0.0012
2139.00,-0.0013
2138.00,-0.0013
2137.00,-0.0013
2136.00,-0.0014
2135.00,-0.0016
2134.00,-0.0018
2133.00,-0.0017
2132.00,-0.0016
2131.00,-0.0014
2130.00,-0.0013
2129.00,-0.0012
2128.00,-0.0012
2127.00,-0.0012
2126.00,-0.0011
2125.00,-0.0010
2124.00,-0.0009
2123.00,-0.0010
2122.00,-0.0010
2121.00,-0.0010
2120.00,-0.0009
2119.00,-0.0008
2118.00,-0.0006
2117.00,-0.0004
2116.00,-0.0001
2115.00,-0.0000
2114.00,0.0000
2113.00,0.0000
2112.00,0.0001
2111.00,0.0001
2110.00,0.0002
2109.00,0.0002
2108.00,0.0002
2107.00,0.0002
2106.00,0.0001
2105.00,0.0001
2104.00,0.0001
2103.00,0.0002
2102.00,0.0003
2101.00,0.0004
2100.00,0.0004
2099.00,0.0003
2098.00,0.0002
2097.00,0.0000
2096.00,-0.0001
2095.00,-0.0001
2094.00,-0.0002
2093.00,-0.0002
2092.00,-0.0002
2091.00,-0.0003
2090.00,-0.0003
2089.00,-0.0003
2088.00,-0.0002
2087.00,-0.0002
2086.00,-0.0002
2085.00,-0.0001
2084.00,0.0002
2083.00,0.0003
2082.00,0.0004
2081.00,0.0004
2080.00,0.0003
2079.00,0.0002
2078.00,0.0002
2077.00,0.0002
2076.00,0.0002
2075.00,0.0002
2074.00,0.0002
2073.00,0.0004
2072.00,0.0004
2071.00,0.0004
2070.00,0.0003
2069.00,0.0001
2068.00,0.0001
2067.00,0.0002
2066.00,0.0003
2065.00,0.0003
2064.00,0.0002
2063.00,-0.0001
2062.00,-0.0003
2061.00,-0.0005
2060.00,-0.0005
2059.00,-0.0004
2058.00,-0.0003
2057.00,-0.0001
2056.00,0.0001
2055.00,0.0003
2054.00,0.0005
2053.00,0.0009
2052.00,0.0014
2051.00,0.0016
2050.00,0.0016
2049.00,0.0012
2048.00,0.0007
2047.00,0.0002
2046.00,-0.0000
2045.00,-0.0001
2044.00,-0.0001
2043.00,0.0000
2042.00,0.0001
2041.00,0.0003
2040.00,0.0004
2039.00,0.0006
2038.00,0.0007
2037.00,0.0007
2036.00,0.0006
2035.00,0.0004
2034.00,-0.0000
2033.00,-0.0005
2032.00,-0.0008
2031.00,-0.0010
2030.00,-0.0009
2029.00,-0.0008
2028.00,-0.0008
2027.00,-0.0009
2026.00,-0.0010
2025.00,-0.0009
2024.00,-0.0007
2023.00,-0.0005
2022.00,-0.0003
2021.00,-0.0002
2020.00,-0.0003
2019.00,-0.0005
2018.00,-0.0007
2017.00,-0.0010
2016.00,-0.0012
2015.00,-0.0013
2014.00,-0.0013
2013.00,-0.0011
2012.00,-0.0009
2011.00,-0.0009
2010.00,-0.0009
2009.00,-0.0010
2008.00,-0.0014
2007.00,-0.0018
2006.00,-0.0021
2005.00,-0.0020
2004.00,-0.0016
2003.00,-0.0012
2002.00,-0.0012
2001.00,-0.0013
2000.00,-0.0014
1999.00,-0.0015
1998.00,-0.0015
1997.00,-0.0014
1996.00,-0.0012
1995.00,-0.0012
1994.00,-0.0013
1993.00,-0.0014
1992.00,-0.0015
1991.00,-0.0015
1990.00,-0.0013
1989.00,-0.0010
1988.00,-0.0007
1987.00,-0.0004
1986.00,-0.0002
1985.00,-0.0000
1984.00,-0.0000
1983.00,-0.0000
1982.00,0.0000
1981.00,0.0003
1980.00,0.0005
1979.00,0.0004
1978.00,-0.0001
1977.00,-0.0008
1976.00,-0.0012
1975.00,-0.0013
1974.00,-0.0011
1973.00,-0.0008
1972.00,-0.0006
1971.00,-0.0008
1970.00,-0.0011
1969.00,-0.0013
1968.00,-0.0015
1967.00,-0.0016
1966.00,-0.0015
1965.00,-0.0013
1964.00,-0.0011
1963.00,-0.0010
1962.00,-0.0011
1961.00,-0.0013
1960.00,-0.0014
1959.00,-0.0017
1958.00,-0.0018
1957.00,-0.0018
1956.00,-0.0016
1955.00,-0.0012
1954.00,-0.0009
1953.00,-0.0007
1952.00,-0.0006
1951.00,-0.0007
1950.00,-0.0009
1949.00,-0.0011
1948.00,-0.0012
1947.00,-0.0012
1946.00,-0.0013
1945.00,-0.0013
1944.00,-0.0013
1943.00,-0.0013
1942.00,-0.0013
1941.00,-0.0012
1940.00,-0.0011
1939.00,-0.0011
1938.00,-0.0011
1937.00,-0.0012
1936.00,-0.0012
1935.00,-0.0012
1934.00,-0.0011
1933.00,-0.0010
1932.00,-0.0008
1931.00,-0.0008
1930.00,-0.0008
1929.00,-0.0008
1928.00,-0.0007
1927.00,-0.0006
1926.00,-0.0005
1925.00,-0.0005
1924.00,-0.0005
1923.00,-0.0004
1922.00,-0.0004
1921.00,-0.0005
1920.00,-0.0005
1919.00,-0.0005
1918.00,-0.0004
1917.00,-0.0003
1916.00,-0.0003
1915.00,-0.0003
1914.00,-0.0004
1913.00,-0.0004
1912.00,-0.0004
1911.00,-0.0004
1910.00,-0.0003
1909.00,-0.0003
1908.00,-0.0003
1907.00,-0.0002
1906.00,-0.0002
1905.00,-0.0002
1904.00,-0.0002
1903.00,-0.0002
1902.00,-0.0001
1901.00,-0.0000
1900.00,-0.0000
1899.00,-0.0001
1898.00,-0.0003
1897.00,-0.0003
1896.00,-0.0002
1895.00,-0.0001
1894.00,-0.0000
1893.00,-0.0000
1892.00,-0.0000
1891.00,-0.0001
1890.00,-0.0001
1889.00,-0.0001
1888.00,-0.0001
1887.00,-0.0000
1886.00,-0.0001
1885.00,-0.0001
1884.00,-0.0001
1883.00,-0.0001
1882.00,-0.0001
1881.00,-0.0001
1880.00,-0.0001
1879.00,-0.0001
1878.00,-0.0002
1877.00,-0.0002
1876.00,-0.0002
1875.00,-0.0002
1874.00,-0.0002
1873.00,-0.0002
1872.00,-0.0002
1871.00,-0.0001
1870.00,-0.0001
1869.00,-0.0000
1868.00,-0.0000
1867.00,-0.0000
1866.00,0.0000
1865.00,0.0001
1864.00,0.0001
1863.00,0.0001
1862.00,0.0001
1861.00,0.0000
1860.00,0.0000
1859.00,0.0000
1858.00,-0.0000
1857.00,-0.0000
1856.00,0.0000
1855.00,0.0001
1854.00,0.0001
1853.00,0.0001
1852.00,0.0001
1851.00,0.0001
1850.00,0.0001
1849.00,0.0001
1848.00,0.0001
1847.00,0.0001
1846.00,0.0001
1845.00,0.0002
1844.00,0.0002
1843.00,0.0003
1842.00,0.0003
1841.00,0.0002
1840.00,0.0002
1839.00,0.0001
1838.00,0.0000
1837.00,0.0001
1836.00,0.0002
1835.00,0.0003
1834.00,0.0003
1833.00,0.0003
1832.00,0.0003
1831.00,0.0003
1830.00,0.0004
1829.00,0.0005
1828.00,0.0006
1827.00,0.0006
1826.00,0.0006
1825.00,0.0005
1824.00,0.0004
1823.00,0.0004
1822.00,0.0003
1821.00,0.0003
1820.00,0.0003
1819.00,0.0001
1818.00,-0.0000
1817.00,-0.0001
1816.00,-0.0001
1815.00,0.0000
1814.00,0.0001
1813.00,0.0002
1812.00,0.0002
1811.00,0.0003
1810.00,0.0003
1809.00,0.0003
1808.00,0.0003
1807.00,0.0003
1806.00,0.0003
1805.00,0.0003
1804.00,0.0004
1803.00,0.0004
1802.00,0.0004
1801.00,0.0004
1800.00,0.0004
1799.00,0.0004
1798.00,0.0004
1797.00,0.0004
1796.00,0.0005
1795.00,0.0006
1794.00,0.0006
1793.00,0.0007
1792.00,0.0007
1791.00,0.0008
1790.00,0.0007
1789.00,0.0007
1788.00,0.0007
1787.00,0.0007
1786.00,0.0007
1785.00,0.0007
1784.00,0.0008
1783.00,0.0008
1782.00,0.0008
1781.00,0.0008
1780.00,0.0007
1779.00,0.0007
1778.00,0.0007
1777.00,0.0007
1776.00,0.0007
1775.00,0.0007
1774.00,0.0007
1773.00,0.0007
1772.00,0.0008
1771.00,0.0008
1770.00,0.0009
1769.00,0.0009
1768.00,0.0009
1767.00,0.0009
1766.00,0.0009
1765.00,0.0009
1764.00,0.0009
1763.00,0.0009
1762.00,0.0009
1761.00,0.0010
1760.00,0.0011
1759.00,0.0011
1758.00,0.0012
1757.00,0.0012
1756.00,0.0012
1755.00,0.0012
1754.00,0.0012
1753.00,0.0013
1752.00,0.0013
1751.00,0.0014
1750.00,0.0014
1749.00,0.0015
1748.00,0.0015
1747.00,0.0015
1746.00,0.0015
1745.00,0.0016
1744.00,0.0016
1743.00,0.0017
1742.00,0.0017
1741.00,0.0016
1740.00,0.0016
1739.00,0.0015
1738.00,0.0016
1737.00,0.0016
1736.00,0.0017
1735.00,0.0017
1734.00,0.0016
1733.00,0.0016
1732.00,0.0017
1731.00,0.0017
1730.00,0.0017
1729.00,0.0017
1728.00,0.0017
1727.00,0.0018
1726.00,0.0018
1725.00,0.0019
1724.00,0.0019
1723.00,0.0020
1722.00,0.0020
1721.00,0.0019
1720.00,0.0019
1719.00,0.0019
1718.00,0.0018
1717.00,0.0019
1716.00,0.0020
1715.00,0.0020
1714.00,0.0020
1713.00,0.0020
1712.00,0.0019
1711.00,0.0019
1710.00,0.0018
1709.00,0.0018
1708.00,0.0019
1707.00,0.0020
1706.00,0.0021
1705.00,0.0022
1704.00,0.0022
1703.00,0.0021
1702.00,0.0021
1701.00,0.0021
1700.00,0.0021
1699.00,0.0022
1698.00,0.0022
1697.00,0.0022
1696.00,0.0023
1695.00,0.0023
1694.00,0.0023
1693.00,0.0023
1692.00,0.0023
1691.00,0.0023
1690.00,0.0024
1689.00,0.0025
1688.00,0.0026
1687.00,0.0026
1686.00,0.0026
1685.00,0.0026
1684.00,0.0027
1683.00,0.0028
1682.00,0.0028
1681.00,0.0029
1680.00,0.0029
1679.00,0.0030
1678.00,0.0030
1677.00,0.0030
1676.00,0.0031
1675.00,0.0031
1674.00,0.0031
1673.00,0.0031
1672.00,0.0031
1671.00,0.0031
1670.00,0.0031
1669.00,0.0031
1668.00,0.0031
1667.00,0.0031
1666.00,0.0032
1665.00,0.0032
1664.00,0.0032
1663.00,0.0033
1662.00,0.0033
1661.00,0.0033
1660.00,0.0034
1659.00,0.0034
1658.00,0.0035
1657.00,0.0036
1656.00,0.0038
1655.00,0.0039
1654.00,0.0039
1653.00,0.0040
1652.00,0.0039
1651.00,0.0039
1650.00,0.0039
1649.00,0.0040
1648.00,0.0041
1647.00,0.0042
1646.00,0.0042
1645.00,0.0043
1644.00,0.0043
1643.00,0.0043
1642.00,0.0044
1641.00,0.0044
1640.00,0.0045
1639.00,0.0046
1638.00,0.0047
1637.00,0.0047
1636.00,0.0047
1635.00,0.0048
1634.00,0.0047
1633.00,0.0047
1632.00,0.0047
1631.00,0.0047
1630.00,0.0046
1629.00,0.0046
1628.00,0.0046
1627.00,0.0045
1626.00,0.0045
1625.00,0.0045
1624.00,0.0045
1623.00,0.0045
1622.00,0.0045
1621.00,0.0044
1620.00,0.0044
1619.00,0.0044
1618.00,0.0043
1617.00,0.0042
1616.00,0.0042
1615.00,0.0042
1614.00,0.0042
1613.00,0.0042
1612.00,0.0042
1611.00,0.0042
1610.00,0.0041
1609.00,0.0041
1608.00,0.0042
1607.00,0.0042
1606.00,0.0043
1605.00,0.0043
1604.00,0.0042
1603.00,0.0042
1602.00,0.0042
1601.00,0.0042
1600.00,0.0042
1599.00,0.0042
1598.00,0.0042
1597.00,0.0043
1596.00,0.0043
1595.00,0.0044
1594.00,0.0045
1593.00,0.0045
1592.00,0.0046
1591.00,0.0047
1590.00,0.0047
1589.00,0.0049
1588.00,0.0051
1587.00,0.0053
1586.00,0.0055
1585.00,0.0058
1584.00,0.0061
1583.00,0.0064
1582.00,0.0068
1581.00,0.0073
1580.00,0.0078
1579.00,0.0082
1578.00,0.0084
1577.00,0.0086
1576.00,0.0085
1575.00,0.0083
1574.00,0.0081
1573.00,0.0079
1572.00,0.0077
1571.00,0.0074
1570.00,0.0070
1569.00,0.0066
1568.00,0.0064
1567.00,0.0062
1566.00,0.0060
1565.00,0.0059
1564.00,0.0058
1563.00,0.0058
1562.00,0.0058
1561.00,0.0059
1560.00,0.0059
1559.00,0.0059
1558.00,0.0059
1557.00,0.0060
1556.00,0.0060
1555.00,0.0060
1554.00,0.0060
1553.00,0.0061
1552.00,0.0062
1551.00,0.0064
1550.00,0.0066
1549.00,0.0069
1548.00,0.0072
1547.00,0.0075
1546.00,0.0079
1545.00,0.0084
1544.00,0.0089
1543.00,0.0094
1542.00,0.0097
1541.00,0.0099
1540.00,0.0099
1539.00,0.0095
1538.00,0.0090
1537.00,0.0086
1536.00,0.0082
1535.00,0.0077
1534.00,0.0072
1533.00,0.0067
1532.00,0.0064
1531.00,0.0062
1530.00,0.0060
1529.00,0.0058
1528.00,0.0057
1527.00,0.0056
1526.00,0.0055
1525.00,0.0055
1524.00,0.0055
1523.00,0.0055
1522.00,0.0055
1521.00,0.0056
1520.00,0.0057
1519.00,0.0057
1518.00,0.0057
1517.00,0.0058
1516.00,0.0059
1515.00,0.0060
1514.00,0.0060
1513.00,0.0060
1512.00,0.0061
1511.00,0.0061
1510.00,0.0062
1509.00,0.0063
1508.00,0.0065
1507.00,0.0066
1506.00,0.0067
1505.00,0.0068
1504.00,0.0068
1503.00,0.0069
1502.00,0.0070
1501.00,0.0073
1500.00,0.0075
1499.00,0.0078
1498.00,0.0080
1497.00,0.0084
1496.00,0.0088
1495.00,0.0091
1494.00,0.0094
1493.00,0.0098
1492.00,0.0102
1491.00,0.0106
1490.00,0.0110
1489.00,0.0116
1488.00,0.0122
1487.00,0.0128
1486.00,0.0134
1485.00,0.0141
1484.00,0.0150
1483.00,0.0159
1482.00,0.0171
1481.00,0.0184
1480.00,0.0199
1479.00,0.0214
1478.00,0.0230
1477.00,0.0252
1476.00,0.0278
1475.00,0.0309
1474.00,0.0349
1473.00,0.0407
1472.00,0.0473
1471.00,0.0537
1470.00,0.0599
1469.00,0.0666
1468.00,0.0738
1467.00,0.0819
1466.00,0.0911
1465.00,0.1010
1464.00,0.1095
1463.00,0.1153
1462.00,0.1187
1461.00,0.1209
1460.00,0.1222
1459.00,0.1227
1458.00,0.1228
1457.00,0.1224
1456.00,0.1213
1455.00,0.1196
1454.00,0.1178
1453.00,0.1154
1452.00,0.1120
1451.00,0.1077
1450.00,0.1020
1449.00,0.0947
1448.00,0.0857
1447.00,0.0764
1446.00,0.0682
1445.00,0.0613
1444.00,0.0554
1443.00,0.0507
1442.00,0.0472
1441.00,0.0448
1440.00,0.0436
1439.00,0.0433
1438.00,0.0438
1437.00,0.0444
1436.00,0.0439
1435.00,0.0417
1434.00,0.0381
1433.00,0.0337
1432.00,0.0290
1431.00,0.0250
1430.00,0.0218
1429.00,0.0194
1428.00,0.0178
1427.00,0.0168
1426.00,0.0161
1425.00,0.0155
1424.00,0.0150
1423.00,0.0146
1422.00,0.0144
1421.00,0.0141
1420.00,0.0138
1419.00,0.0135
1418.00,0.0132
1417.00,0.0129
1416.00,0.0125
1415.00,0.0123
1414.00,0.0121
1413.00,0.0119
1412.00,0.0117
1411.00,0.0115
1410.00,0.0114
1409.00,0.0114
1408.00,0.0113
1407.00,0.0113
1406.00,0.0114
1405.00,0.0113
1404.00,0.0113
1403.00,0.0113
1402.00,0.0114
1401.00,0.0114
1400.00,0.0114
1399.00,0.0116
1398.00,0.0119
1397.00,0.0121
1396.00,0.0123
1395.00,0.0126
1394.00,0.0131
1393.00,0.0135
1392.00,0.0140
1391.00,0.0147
1390.00,0.0157
1389.00,0.0171
1388.00,0.0192
1387.00,0.0224
1386.00,0.0266
1385.00,0.0321
1384.00,0.0399
1383.00,0.0509
1382.00,0.0662
1381.00,0.0863
1380.00,0.1118
1379.00,0.1413
1378.00,0.1706
1377.00,0.1928
1376.00,0.2012
1375.00,0.1918
1374.00,0.1674
1373.00,0.1375
1372.00,0.1099
1371.00,0.0873
1370.00,0.0695
1369.00,0.0561
1368.00,0.0470
1367.00,0.0414
1366.00,0.0385
1365.00,0.0373
1364.00,0.0376
1363.00,0.0391
1362.00,0.0414
1361.00,0.0438
1360.00,0.0456
1359.00,0.0462
1358.00,0.0451
1357.00,0.0425
1356.00,0.0387
1355.00,0.0345
1354.00,0.0304
1353.00,0.0269
1352.00,0.0241
1351.00,0.0218
1350.00,0.0199
1349.00,0.0183
1348.00,0.0170
1347.00,0.0160
1346.00,0.0151
1345.00,0.0143
1344.00,0.0137
1343.00,0.0132
1342.00,0.0127
1341.00,0.0124
1340.00,0.0122
1339.00,0.0120
1338.00,0.0118
1337.00,0.0118
1336.00,0.0119
1335.00,0.0120
1334.00,0.0123
1333.00,0.0128
1332.00,0.0132
1331.00,0.0136
1330.00,0.0137
1329.00,0.0135
1328.00,0.0131
1327.00,0.0125
1326.00,0.0118
1325.00,0.0113
1324.00,0.0107
1323.00,0.0103
1322.00,0.0099
1321.00,0.0096
1320.00,0.0094
1319.00,0.0092
1318.00,0.0091
1317.00,0.0089
1316.00,0.0088
1315.00,0.0087
1314.00,0.0086
1313.00,0.0086
1312.00,0.0086
1311.00,0.0087
1310.00,0.0089
1309.00,0.0094
1308.00,0.0100
1307.00,0.0109
1306.00,0.0117
1305.00,0.0123
1304.00,0.0126
1303.00,0.0125
1302.00,0.0123
1301.00,0.0121
1300.00,0.0121
1299.00,0.0122
1298.00,0.0124
1297.00,0.0125
1296.00,0.0125
1295.00,0.0123
1294.00,0.0119
1293.00,0.0114
1292.00,0.0109
1291.00,0.0104
1290.00,0.0099
1289.00,0.0094
1288.00,0.0091
1287.00,0.0088
1286.00,0.0086
1285.00,0.0083
1284.00,0.0081
1283.00,0.0080
1282.00,0.0079
1281.00,0.0078
1280.00,0.0077
1279.00,0.0077
1278.00,0.0076
1277.00,0.0075
1276.00,0.0074
1275.00,0.0074
1274.00,0.0073
1273.00,0.0074
1272.00,0.0075
1271.00,0.0075
1270.00,0.0076
1269.00,0.0077
1268.00,0.0078
1267.00,0.0079
1266.00,0.0081
1265.00,0.0083
1264.00,0.0086
1263.00,0.0088
1262.00,0.0091
1261.00,0.0093
1260.00,0.0097
1259.00,0.0102
1258.00,0.0107
1257.00,0.0111
1256.00,0.0113
1255.00,0.0111
1254.00,0.0106
1253.00,0.0100
1252.00,0.0095
1251.00,0.0091
1250.00,0.0087
1249.00,0.0084
1248.00,0.0081
1247.00,0.0079
1246.00,0.0078
1245.00,0.0076
1244.00,0.0075
1243.00,0.0074
1242.00,0.0073
1241.00,0.0073
1240.00,0.0072
1239.00,0.0072
1238.00,0.0072
1237.00,0.0073
1236.00,0.0073
1235.00,0.0073
1234.00,0.0074
1233.00,0.0074
1232.00,0.0075
1231.00,0.0076
1230.00,0.0077
1229.00,0.0078
1228.00,0.0080
1227.00,0.0082
1226.00,0.0085
1225.00,0.0088
1224.00,0.0092
1223.00,0.0096
1222.00,0.0099
1221.00,0.0102
1220.00,0.0104
1219.00,0.0104
1218.00,0.0103
1217.00,0.0101
1216.00,0.0098
1215.00,0.0095
1214.00,0.0092
1213.00,0.0088
1212.00,0.0085
1211.00,0.0083
1210.00,0.0081
1209.00,0.0080
1208.00,0.0079
1207.00,0.0078
1206.00,0.0078
1205.00,0.0077
1204.00,0.0077
1203.00,0.0076
1202.00,0.0077
1201.00,0.0077
1200.00,0.0077
1199.00,0.0077
1198.00,0.0077
1197.00,0.0077
1196.00,0.0076
1195.00,0.0076
1194.00,0.0076
1193.00,0.0076
1192.00,0.0076
1191.00,0.0076
1190.00,0.0075
1189.00,0.0075
1188.00,0.0074
1187.00,0.0074
1186.00,0.0073
1185.00,0.0073
1184.00,0.0073
1183.00,0.0074
1182.00,0.0075
1181.00,0.0077
1180.00,0.0079
1179.00,0.0082
1178.00,0.0087
1177.00,0.0093
1176.00,0.0100
1175.00,0.0111
1174.00,0.0124
1173.00,0.0141
1172.00,0.0162
1171.00,0.0185
1170.00,0.0207
1169.00,0.0226
1168.00,0.0237
1167.00,0.0240
1166.00,0.0236
1165.00,0.0227
1164.00,0.0217
1163.00,0.0207
1162.00,0.0198
1161.00,0.0192
1160.00,0.0187
1159.00,0.0184
1158.00,0.0181
1157.00,0.0180
1156.00,0.0180
1155.00,0.0181
1154.00,0.0182
1153.00,0.0181
1152.00,0.0178
1151.00,0.0172
1150.00,0.0164
1149.00,0.0154
1148.00,0.0144
1147.00,0.0134
1146.00,0.0126
1145.00,0.0119
1144.00,0.0112
1143.00,0.0106
1142.00,0.0100
1141.00,0.0095
1140.00,0.0091
1139.00,0.0087
1138.00,0.0084
1137.00,0.0080
1136.00,0.0078
1135.00,0.0075
1134.00,0.0074
1133.00,0.0073
1132.00,0.0072
1131.00,0.0071
1130.00,0.0071
1129.00,0.0071
1128.00,0.0071
1127.00,0.0072
1126.00,0.0073
1125.00,0.0074
1124.00,0.0075
1123.00,0.0076
1122.00,0.0076
1121.00,0.0076
1120.00,0.0076
1119.00,0.0077
1118.00,0.0077
1117.00,0.0078
1116.00,0.0078
1115.00,0.0079
1114.00,0.0081
1113.00,0.0083
1112.00,0.0085
1111.00,0.0088
1110.00,0.0091
1109.00,0.0095
1108.00,0.0100
1107.00,0.0106
1106.00,0.0113
1105.00,0.0120
1104.00,0.0125
1103.00,0.0127
1102.00,0.0126
1101.00,0.0122
1100.00,0.0116
1099.00,0.0109
1098.00,0.0103
1097.00,0.0098
1096.00,0.0093
1095.00,0.0089
1094.00,0.0086
1093.00,0.0083
1092.00,0.0081
1091.00,0.0079
1090.00,0.0077
1089.00,0.0075
1088.00,0.0075
1087.00,0.0074
1086.00,0.0074
1085.00,0.0073
1084.00,0.0073
1083.00,0.0072
1082.00,0.0072
1081.00,0.0071
1080.00,0.0071
1079.00,0.0070
1078.00,0.0069
1077.00,0.0068
1076.00,0.0068
1075.00,0.0067
1074.00,0.0066
1073.00,0.0065
1072.00,0.0064
1071.00,0.0064
1070.00,0.0065
1069.00,0.0065
1068.00,0.0064
1067.00,0.0064
1066.00,0.0064
1065.00,0.0064
1064.00,0.0064
1063.00,0.0065
1062.00,0.0065
1061.00,0.0065
1060.00,0.0065
1059.00,0.0066
1058.00,0.0066
1057.00,0.0066
1056.00,0.0067
1055.00,0.0068
1054.00,0.0069
1053.00,0.0069
1052.00,0.0069
1051.00,0.0069
1050.00,0.0070
1049.00,0.0072
1048.00,0.0074
1047.00,0.0076
1046.00,0.0078
1045.00,0.0079
1044.00,0.0079
1043.00,0.0079
1042.00,0.0078
1041.00,0.0077
1040.00,0.0077
1039.00,0.0078
1038.00,0.0080
1037.00,0.0081
1036.00,0.0082
1035.00,0.0082
1034.00,0.0081
1033.00,0.0079
1032.00,0.0077
1031.00,0.0074
1030.00,0.0073
1029.00,0.0071
1028.00,0.0071
1027.00,0.0071
1026.00,0.0071
1025.00,0.0071
1024.00,0.0071
1023.00,0.0071
1022.00,0.0070
1021.00,0.0070
1020.00,0.0070
1019.00,0.0072
1018.00,0.0073
1017.00,0.0075
1016.00,0.0077
1015.00,0.0079
1014.00,0.0081
1013.00,0.0083
1012.00,0.0086
1011.00,0.0088
1010.00,0.0090
1009.00,0.0093
1008.00,0.0096
1007.00,0.0099
1006.00,0.0105
1005.00,0.0111
1004.00,0.0122
1003.00,0.0137
1002.00,0.0157
1001.00,0.0182
1000.00,0.0209
999.00,0.0231
998.00,0.0241
997.00,0.0236
996.00,0.0218
995.00,0.0192
994.00,0.0166
993.00,0.0143
992.00,0.0124
991.00,0.0111
990.00,0.0102
989.00,0.0096
988.00,0.0093
987.00,0.0091
986.00,0.0090
985.00,0.0092
984.00,0.0096
983.00,0.0102
982.00,0.0112
981.00,0.0125
980.00,0.0144
979.00,0.0168
978.00,0.0197
977.00,0.0230
976.00,0.0265
975.00,0.0296
974.00,0.0316
973.00,0.0320
972.00,0.0305
971.00,0.0275
970.00,0.0237
969.00,0.0200
968.00,0.0170
967.00,0.0146
966.00,0.0129
965.00,0.0117
964.00,0.0109
963.00,0.0103
962.00,0.0098
961.00,0.0093
960.00,0.0089
959.00,0.0086
958.00,0.0083
957.00,0.0081
956.00,0.0079
955.00,0.0078
954.00,0.0077
953.00,0.0075
952.00,0.0074
951.00,0.0073
950.00,0.0072
949.00,0.0072
948.00,0.0072
947.00,0.0073
946.00,0.0075
945.00,0.0078
944.00,0.0082
943.00,0.0086
942.00,0.0090
941.00,0.0092
940.00,0.0093
939.00,0.0091
938.00,0.0087
937.00,0.0081
936.00,0.0076
935.00,0.0071
934.00,0.0067
933.00,0.0064
932.00,0.0061
931.00,0.0060
930.00,0.0059
929.00,0.0058
928.00,0.0058
927.00,0.0058
926.00,0.0059
925.00,0.0059
924.00,0.0059
923.00,0.0059
922.00,0.0058
921.00,0.0057
920.00,0.0057
919.00,0.0057
918.00,0.0057
917.00,0.0058
916.00,0.0060
915.00,0.0061
914.00,0.0061
913.00,0.0062
912.00,0.0064
911.00,0.0066
910.00,0.0069
909.00,0.0072
908.00,0.0075
907.00,0.0080
906.00,0.0086
905.00,0.0097
904.00,0.0112
903.00,0.0131
902.00,0.0153
901.00,0.0173
900.00,0.0187
899.00,0.0190
898.00,0.0181
897.00,0.0165
896.00,0.0145
895.00,0.0125
894.00,0.0109
893.00,0.0096
892.00,0.0086
891.00,0.0080
890.00,0.0076
889.00,0.0073
888.00,0.0071
887.00,0.0070
886.00,0.0070
885.00,0.0069
884.00,0.0068
883.00,0.0068
882.00,0.0068
881.00,0.0069
880.00,0.0070
879.00,0.0072
878.00,0.0073
877.00,0.0075
876.00,0.0075
875.00,0.0075
874.00,0.0076
873.00,0.0076
872.00,0.0075
871.00,0.0075
870.00,0.0074
869.00,0.0074
868.00,0.0073
867.00,0.0073
866.00,0.0073
865.00,0.0074
864.00,0.0076
863.00,0.0078
862.00,0.0079
861.00,0.0078
860.00,0.0078
859.00,0.0079
858.00,0.0080
857.00,0.0083
856.00,0.0085
855.00,0.0088
854.00,0.0090
853.00,0.0091
852.00,0.0091
851.00,0.0092
850.00,0.0093
849.00,0.0097
848.00,0.0102
847.00,0.0111
846.00,0.0125
845.00,0.0145
844.00,0.0175
843.00,0.0208
842.00,0.0234
841.00,0.0241
840.00,0.0224
839.00,0.0193
838.00,0.0161
837.00,0.0137
836.00,0.0121
835.00,0.0113
834.00,0.0108
833.00,0.0105
832.00,0.0103
831.00,0.0100
830.00,0.0097
829.00,0.0094
828.00,0.0092
827.00,0.0091
826.00,0.0092
825.00,0.0094
824.00,0.0096
823.00,0.0097
822.00,0.0099
821.00,0.0100
820.00,0.0101
819.00,0.0103
818.00,0.0107
817.00,0.0114
816.00,0.0122
815.00,0.0134
814.00,0.0150
813.00,0.0171
812.00,0.0193
811.00,0.0214
810.00,0.0229
809.00,0.0234
808.00,0.0229
807.00,0.0216
806.00,0.0197
805.00,0.0175
804.00,0.0156
803.00,0.0140
802.00,0.0130
801.00,0.0122
800.00,0.0115
799.00,0.0109
798.00,0.0104
797.00,0.0101
796.00,0.0098
795.00,0.0096
794.00,0.0092
793.00,0.0089
792.00,0.0086
791.00,0.0084
790.00,0.0081
789.00,0.0079
788.00,0.0075
787.00,0.0072
786.00,0.0069
785.00,0.0068
784.00,0.0067
783.00,0.0066
782.00,0.0066
781.00,0.0065
780.00,0.0064
779.00,0.0064
778.00,0.0064
777.00,0.0065
776.00,0.0066
775.00,0.0066
774.00,0.0066
773.00,0.0065
772.00,0.0065
771.00,0.0064
770.00,0.0065
769.00,0.0066
768.00,0.0067
767.00,0.0067
766.00,0.0066
765.00,0.0064
764.00,0.0063
763.00,0.0064
762.00,0.0066
761.00,0.0067
760.00,0.0068
759.00,0.0068
758.00,0.0067
757.00,0.0067
756.00,0.0066
755.00,0.0067
754.00,0.0069
753.00,0.0071
752.00,0.0072
751.00,0.0074
750.00,0.0075
749.00,0.0077
748.00,0.0079
747.00,0.0081
746.00,0.0083
745.00,0.0084
744.00,0.0085
743.00,0.0087
742.00,0.0091
741.00,0.0096
740.00,0.0100
739.00,0.0102
738.00,0.0103
737.00,0.0106
736.00,0.0109
735.00,0.0114
734.00,0.0120
733.00,0.0127
732.00,0.0136
731.00,0.0145
730.00,0.0152
729.00,0.0156
728.00,0.0156
727.00,0.0156
726.00,0.0158
725.00,0.0162
724.00,0.0169
723.00,0.0177
722.00,0.0184
721.00,0.0188
720.00,0.0186
719.00,0.0177
718.00,0.0163
717.00,0.0148
716.00,0.0136
715.00,0.0127
714.00,0.0121
713.00,0.0116
712.00,0.0111
711.00,0.0107
710.00,0.0104
709.00,0.0102
708.00,0.0101
707.00,0.0101
706.00,0.0100
705.00,0.0099
704.00,0.0099
703.00,0.0098
702.00,0.0097
701.00,0.0097
700.00,0.0096
699.00,0.0095
698.00,0.0095
697.00,0.0095
696.00,0.0095
695.00,0.0095
694.00,0.0094
693.00,0.0093
692.00,0.0092
691.00,0.0091
690.00,0.0089
689.00,0.0087
688.00,0.0087
687.00,0.0088
686.00,0.0089
685.00,0.0090
684.00,0.0090
683.00,0.0091
682.00,0.0091
681.00,0.0092
680.00,0.0092
679.00,0.0091
678.00,0.0091
677.00,0.0090
676.00,0.0090
675.00,0.0092
674.00,0.0092
673.00,0.0092
672.00,0.0091
671.00,0.0089
670.00,0.0086
669.00,0.0083
668.00,0.0080
667.00,0.0081
666.00,0.0082
665.00,0.0084
664.00,0.0085
663.00,0.0086
662.00,0.0086
661.00,0.0085
660.00,0.0084
659.00,0.0083
658.00,0.0083
657.00,0.0082
656.00,0.0080
655.00,0.0078
654.00,0.0077
653.00,0.0078
652.00,0.0080
651.00,0.0082
650.00,0.0083
649.00,0.0083
648.00,0.0083
647.00,0.0084
646.00,0.0085
645.00,0.0084
644.00,0.0082
643.00,0.0079
642.00,0.0077
641.00,0.0076
640.00,0.0076
639.00,0.0079
638.00,0.0082
637.00,0.0085
636.00,0.0087
635.00,0.0086
634.00,0.0084
633.00,0.0082
632.00,0.0082
631.00,0.0083
630.00,0.0085
629.00,0.0086
628.00,0.0086
627.00,0.0085
626.00,0.0085
625.00,0.0085
624.00,0.0087
623.00,0.0089
622.00,0.0089
621.00,0.0087
620.00,0.0084
619.00,0.0082
618.00,0.0080
617.00,0.0080
616.00,0.0080
615.00,0.0080
614.00,0.0080
613.00,0.0080
612.00,0.0080
611.00,0.0080
610.00,0.0080
609.00,0.0081
608.00,0.0081
607.00,0.0082
606.00,0.0084
605.00,0.0085
604.00,0.0085
603.00,0.0083
602.00,0.0080
601.00,0.0077
600.00,0.0076
599.00,0.0077
598.00,0.0079
597.00,0.0080
596.00,0.0081
595.00,0.0081
594.00,0.0079
593.00,0.0076
592.00,0.0075
591.00,0.0075
590.00,0.0076
589.00,0.0076
588.00,0.0074
587.00,0.0072
586.00,0.0069
585.00,0.0067
584.00,0.0066
583.00,0.0069
582.00,0.0075
581.00,0.0080
580.00,0.0078
579.00,0.0074
578.00,0.0070
577.00,0.0070
576.00,0.0073
575.00,0.0075
574.00,0.0075
573.00,0.0074
572.00,0.0075
571.00,0.0078
570.00,0.0084
569.00,0.0087
568.00,0.0086
567.00,0.0081
566.00,0.0076
565.00,0.0073
564.00,0.0073
563.00,0.0073
562.00,0.0074
561.00,0.0075
560.00,0.0077
559.00,0.0078
558.00,0.0078
557.00,0.0076
556.00,0.0075
555.00,0.0076
554.00,0.0077
553.00,0.0077
552.00,0.0076
551.00,0.0074
550.00,0.0072
549.00,0.0071
548.00,0.0070
547.00,0.0071
546.00,0.0073
545.00,0.0074
544.00,0.0073
543.00,0.0073
542.00,0.0075
541.00,0.0078
540.00,0.0079
539.00,0.0079
538.00,0.0079
537.00,0.0082
536.00,0.0087
535.00,0.0091
534.00,0.0092
533.00,0.0088
532.00,0.0084
531.00,0.0083
530.00,0.0086
529.00,0.0092
528.00,0.0095
527.00,0.0093
526.00,0.0088
525.00,0.0084
524.00,0.0081
523.00,0.0079
522.00,0.0078
521.00,0.0079
520.00,0.0077
519.00,0.0073
518.00,0.0069
517.00,0.0069
516.00,0.0073
515.00,0.0076
514.00,0.0077
513.00,0.0077
512.00,0.0076
511.00,0.0077
510.00,0.0081
509.00,0.0085
508.00,0.0088
507.00,0.0088
506.00,0.0086
505.00,0.0088
504.00,0.0092
503.00,0.0097
502.00,0.0100
501.00,0.0098
500.00,0.0093
499.00,0.0084
498.00,0.0075
497.00,0.0068
496.00,0.0065
495.00,0.0066
494.00,0.0068
493.00,0.0068
492.00,0.0067
491.00,0.0063
490.00,0.0060
489.00,0.0061
488.00,0.0066
487.00,0.0074
486.00,0.0079
485.00,0.0079
484.00,0.0075
483.00,0.0070
482.00,0.0067
481.00,0.0069
480.00,0.0077
479.00,0.0086
478.00,0.0092
477.00,0.0093
476.00,0.0088
475.00,0.0080
474.00,0.0071
473.00,0.0065
472.00,0.0068
471.00,0.0077
470.00,0.0085
469.00,0.0089
468.00,0.0092
467.00,0.0096
466.00,0.0104
465.00,0.0115
464.00,0.0132
463.00,0.0153
462.00,0.0172
461.00,0.0182
460.00,0.0178
459.00,0.0165
458.00,0.0150
457.00,0.0138
456.00,0.0133
455.00,0.0136
454.00,0.0140
453.00,0.0137
452.00,0.0125
451.00,0.0105
450.00,0.0091
