Created as New Dataset,Sample 095 By Administrator Date Wednesday, September 03 2025
cm-1,A
4000.00,0.0018
3999.00,0.0018
3998.00,0.0018
3997.00,0.0018
3996.00,0.0019
3995.00,0.0019
3994.00,0.0019
3993.00,0.0019
3992.00,0.0019
3991.00,0.0018
3990.00,0.0018
3989.00,0.0018
3988.00,0.0018
3987.00,0.0017
3986.00,0.0017
3985.00,0.0017
3984.00,0.0017
3983.00,0.0018
3982.00,0.0018
3981.00,0.0018
3980.00,0.0018
3979.00,0.0018
3978.00,0.0018
3977.00,0.0018
3976.00,0.0018
3975.00,0.0018
3974.00,0.0018
3973.00,0.0018
3972.00,0.0018
3971.00,0.0018
3970.00,0.0018
3969.00,0.0018
3968.00,0.0017
3967.00,0.0017
3966.00,0.0017
3965.00,0.0017
3964.00,0.0017
3963.00,0.0017
3962.00,0.0017
3961.00,0.0017
3960.00,0.0017
3959.00,0.0017
3958.00,0.0017
3957.00,0.0017
3956.00,0.0017
3955.00,0.0017
3954.00,0.0017
3953.00,0.0017
3952.00,0.0017
3951.00,0.0016
3950.00,0.0016
3949.00,0.0016
3948.00,0.0016
3947.00,0.0016
3946.00,0.0016
3945.00,0.0016
3944.00,0.0016
3943.00,0.0016
3942.00,0.0016
3941.00,0.0016
3940.00,0.0016
3939.00,0.0016
3938.00,0.0016
3937.00,0.0016
3936.00,0.0016
3935.00,0.0017
3934.00,0.0017
3933.00,0.0017
3932.00,0.0017
3931.00,0.0017
3930.00,0.0017
3929.00,0.0017
3928.00,0.0017
3927.00,0.0018
3926.00,0.0018
3925.00,0.0018
3924.00,0.0018
3923.00,0.0018
3922.00,0.0017
3921.00,0.0017
3920.00,0.0017
3919.00,0.0017
3918.00,0.0017
3917.00,0.0017
3916.00,0.0017
3915.00,0.0017
3914.00,0.0017
3913.00,0.0017
3912.00,0.0017
3911.00,0.0016
3910.00,0.0016
3909.00,0.0016
3908.00,0.0016
3907.00,0.0016
3906.00,0.0016
3905.00,0.0016
3904.00,0.0016
3903.00,0.0016
3902.00,0.0016
3901.00,0.0016
3900.00,0.0016
3899.00,0.0016
3898.00,0.0016
3897.00,0.0016
3896.00,0.0017
3895.00,0.0017
3894.00,0.0017
3893.00,0.0017
3892.00,0.0017
3891.00,0.0017
3890.00,0.0016
3889.00,0.0016
3888.00,0.0016
3887.00,0.0016
3886.00,0.0016
3885.00,0.0016
3884.00,0.0016
3883.00,0.0016
3882.00,0.0016
3881.00,0.0016
3880.00,0.0017
3879.00,0.0017
3878.00,0.0017
3877.00,0.0017
3876.00,0.0017
3875.00,0.0017
3874.00,0.0017
3873.00,0.0017
3872.00,0.0017
3871.00,0.0016
3870.00,0.0017
3869.00,0.0017
3868.00,0.0017
3867.00,0.0017
3866.00,0.0016
3865.00,0.0016
3864.00,0.0016
3863.00,0.0016
3862.00,0.0017
3861.00,0.0017
3860.00,0.0017
3859.00,0.0017
3858.00,0.0017
3857.00,0.0017
3856.00,0.0017
3855.00,0.0017
3854.00,0.0017
3853.00,0.0016
3852.00,0.0016
3851.00,0.0016
3850.00,0.0016
3849.00,0.0016
3848.00,0.0016
3847.00,0.0016
3846.00,0.0017
3845.00,0.0017
3844.00,0.0017
3843.00,0.0017
3842.00,0.0017
3841.00,0.0017
3840.00,0.0017
3839.00,0.0017
3838.00,0.0017
3837.00,0.0017
3836.00,0.0017
3835.00,0.0017
3834.00,0.0017
3833.00,0.0017
3832.00,0.0017
3831.00,0.0016
3830.00,0.0016
3829.00,0.0017
3828.00,0.0017
3827.00,0.0017
3826.00,0.0017
3825.00,0.0017
3824.00,0.0017
3823.00,0.0016
3822.00,0.0017
3821.00,0.0018
3820.00,0.0018
3819.00,0.0018
3818.00,0.0018
3817.00,0.0017
3816.00,0.0016
3815.00,0.0016
3814.00,0.0016
3813.00,0.0016
3812.00,0.0016
3811.00,0.0016
3810.00,0.0017
3809.00,0.0017
3808.00,0.0017
3807.00,0.0017
3806.00,0.0017
3805.00,0.0018
3804.00,0.0018
3803.00,0.0018
3802.00,0.0017
3801.00,0.0017
3800.00,0.0016
3799.00,0.0016
3798.00,0.0016
3797.00,0.0016
3796.00,0.0016
3795.00,0.0016
3794.00,0.0016
3793.00,0.0016
3792.00,0.0016
3791.00,0.0016
3790.00,0.0016
3789.00,0.0017
3788.00,0.0017
3787.00,0.0017
3786.00,0.0017
3785.00,0.0017
3784.00,0.0017
3783.00,0.0017
3782.00,0.0017
3781.00,0.0017
3780.00,0.0017
3779.00,0.0017
3778.00,0.0017
3777.00,0.0017
3776.00,0.0017
3775.00,0.0016
3774.00,0.0016
3773.00,0.0016
3772.00,0.0016
3771.00,0.0016
3770.00,0.0016
3769.00,0.0017
3768.00,0.0017
3767.00,0.0017
3766.00,0.0017
3765.00,0.0017
3764.00,0.0017
3763.00,0.0017
3762.00,0.0017
3761.00,0.0017
3760.00,0.0017
3759.00,0.0017
3758.00,0.0017
3757.00,0.0017
3756.00,0.0017
3755.00,0.0017
3754.00,0.0017
3753.00,0.0017
3752.00,0.0017
3751.00,0.0017
3750.00,0.0016
3749.00,0.0016
3748.00,0.0016
3747.00,0.0015
3746.00,0.0015
3745.00,0.0014
3744.00,0.0013
3743.00,0.0014
3742.00,0.0014
3741.00,0.0014
3740.00,0.0014
3739.00,0.0014
3738.00,0.0014
3737.00,0.0014
3736.00,0.0015
3735.00,0.0015
3734.00,0.0016
3733.00,0.0015
3732.00,0.0014
3731.00,0.0014
3730.00,0.0014
3729.00,0.0014
3728.00,0.0014
3727.00,0.0014
3726.00,0.0014
3725.00,0.0015
3724.00,0.0015
3723.00,0.0015
3722.00,0.0015
3721.00,0.0015
3720.00,0.0015
3719.00,0.0015
3718.00,0.0015
3717.00,0.0015
3716.00,0.0015
3715.00,0.0015
3714.00,0.0015
3713.00,0.0014
3712.00,0.0014
3711.00,0.0015
3710.00,0.0015
3709.00,0.0015
3708.00,0.0015
3707.00,0.0015
3706.00,0.0015
3705.00,0.0015
3704.00,0.0015
3703.00,0.0015
3702.00,0.0015
3701.00,0.0015
3700.00,0.0015
3699.00,0.0015
3698.00,0.0014
3697.00,0.0014
3696.00,0.0014
3695.00,0.0015
3694.00,0.0015
3693.00,0.0015
3692.00,0.0015
3691.00,0.0015
3690.00,0.0015
3689.00,0.0015
3688.00,0.0015
3687.00,0.0015
3686.00,0.0015
3685.00,0.0015
3684.00,0.0015
3683.00,0.0015
3682.00,0.0015
3681.00,0.0015
3680.00,0.0016
3679.00,0.0017
3678.00,0.0017
3677.00,0.0017
3676.00,0.0017
3675.00,0.0017
3674.00,0.0016
3673.00,0.0015
3672.00,0.0015
3671.00,0.0014
3670.00,0.0014
3669.00,0.0014
3668.00,0.0014
3667.00,0.0014
3666.00,0.0015
3665.00,0.0015
3664.00,0.0015
3663.00,0.0014
3662.00,0.0014
3661.00,0.0013
3660.00,0.0013
3659.00,0.0013
3658.00,0.0013
3657.00,0.0013
3656.00,0.0014
3655.00,0.0015
3654.00,0.0015
3653.00,0.0016
3652.00,0.0016
3651.00,0.0016
3650.00,0.0015
3649.00,0.0015
3648.00,0.0015
3647.00,0.0015
3646.00,0.0015
3645.00,0.0015
3644.00,0.0016
3643.00,0.0016
3642.00,0.0017
3641.00,0.0017
3640.00,0.0017
3639.00,0.0017
3638.00,0.0016
3637.00,0.0016
3636.00,0.0016
3635.00,0.0016
3634.00,0.0016
3633.00,0.0016
3632.00,0.0016
3631.00,0.0016
3630.00,0.0016
3629.00,0.0016
3628.00,0.0016
3627.00,0.0016
3626.00,0.0017
3625.00,0.0017
3624.00,0.0017
3623.00,0.0018
3622.00,0.0018
3621.00,0.0018
3620.00,0.0018
3619.00,0.0018
3618.00,0.0018
3617.00,0.0018
3616.00,0.0018
3615.00,0.0019
3614.00,0.0019
3613.00,0.0019
3612.00,0.0019
3611.00,0.0019
3610.00,0.0018
3609.00,0.0018
3608.00,0.0019
3607.00,0.0020
3606.00,0.0021
3605.00,0.0021
3604.00,0.0022
3603.00,0.0022
3602.00,0.0022
3601.00,0.0023
3600.00,0.0023
3599.00,0.0023
3598.00,0.0023
3597.00,0.0023
3596.00,0.0023
3595.00,0.0023
3594.00,0.0023
3593.00,0.0023
3592.00,0.0022
3591.00,0.0022
3590.00,0.0022
3589.00,0.0023
3588.00,0.0023
3587.00,0.0024
3586.00,0.0024
3585.00,0.0024
3584.00,0.0024
3583.00,0.0025
3582.00,0.0025
3581.00,0.0025
3580.00,0.0026
3579.00,0.0027
3578.00,0.0027
3577.00,0.0027
3576.00,0.0027
3575.00,0.0027
3574.00,0.0026
3573.00,0.0026
3572.00,0.0026
3571.00,0.0027
3570.00,0.0027
3569.00,0.0027
3568.00,0.0028
3567.00,0.0028
3566.00,0.0028
3565.00,0.0029
3564.00,0.0029
3563.00,0.0029
3562.00,0.0030
3561.00,0.0031
3560.00,0.0031
3559.00,0.0031
3558.00,0.0032
3557.00,0.0032
3556.00,0.0031
3555.00,0.0031
3554.00,0.0032
3553.00,0.0032
3552.00,0.0032
3551.00,0.0033
3550.00,0.0033
3549.00,0.0033
3548.00,0.0033
3547.00,0.0033
3546.00,0.0034
3545.00,0.0034
3544.00,0.0035
3543.00,0.0035
3542.00,0.0036
3541.00,0.0036
3540.00,0.0036
3539.00,0.0037
3538.00,0.0037
3537.00,0.0037
3536.00,0.0037
3535.00,0.0037
3534.00,0.0037
3533.00,0.0038
3532.00,0.0038
3531.00,0.0039
3530.00,0.0039
3529.00,0.0039
3528.00,0.0039
3527.00,0.0039
3526.00,0.0039
3525.00,0.0039
3524.00,0.0039
3523.00,0.0040
3522.00,0.0040
3521.00,0.0041
3520.00,0.0041
3519.00,0.0041
3518.00,0.0042
3517.00,0.0042
3516.00,0.0042
3515.00,0.0042
3514.00,0.0042
3513.00,0.0043
3512.00,0.0043
3511.00,0.0044
3510.00,0.0044
3509.00,0.0045
3508.00,0.0045
3507.00,0.0045
3506.00,0.0045
3505.00,0.0045
3504.00,0.0046
3503.00,0.0046
3502.00,0.0046
3501.00,0.0046
3500.00,0.0047
3499.00,0.0047
3498.00,0.0047
3497.00,0.0047
3496.00,0.0047
3495.00,0.0048
3494.00,0.0048
3493.00,0.0048
3492.00,0.0049
3491.00,0.0049
3490.00,0.0049
3489.00,0.0050
3488.00,0.0050
3487.00,0.0050
3486.00,0.0050
3485.00,0.0050
3484.00,0.0051
3483.00,0.0051
3482.00,0.0051
3481.00,0.0052
3480.00,0.0053
3479.00,0.0053
3478.00,0.0054
3477.00,0.0054
3476.00,0.0054
3475.00,0.0054
3474.00,0.0055
3473.00,0.0055
3472.00,0.0055
3471.00,0.0055
3470.00,0.0056
3469.00,0.0056
3468.00,0.0056
3467.00,0.0057
3466.00,0.0057
3465.00,0.0058
3464.00,0.0058
3463.00,0.0059
3462.00,0.0059
3461.00,0.0059
3460.00,0.0059
3459.00,0.0060
3458.00,0.0060
3457.00,0.0060
3456.00,0.0061
3455.00,0.0061
3454.00,0.0062
3453.00,0.0062
3452.00,0.0062
3451.00,0.0062
3450.00,0.0062
3449.00,0.0062
3448.00,0.0062
3447.00,0.0063
3446.00,0.0064
3445.00,0.0064
3444.00,0.0065
3443.00,0.0065
3442.00,0.0065
3441.00,0.0065
3440.00,0.0065
3439.00,0.0066
3438.00,0.0067
3437.00,0.0067
3436.00,0.0068
3435.00,0.0068
3434.00,0.0069
3433.00,0.0069
3432.00,0.0069
3431.00,0.0070
3430.00,0.0070
3429.00,0.0070
3428.00,0.0071
3427.00,0.0071
3426.00,0.0071
3425.00,0.0072
3424.00,0.0072
3423.00,0.0073
3422.00,0.0073
3421.00,0.0074
3420.00,0.0074
3419.00,0.0075
3418.00,0.0075
3417.00,0.0075
3416.00,0.0076
3415.00,0.0076
3414.00,0.0077
3413.00,0.0077
3412.00,0.0078
3411.00,0.0078
3410.00,0.0078
3409.00,0.0079
3408.00,0.0079
3407.00,0.0079
3406.00,0.0080
3405.00,0.0080
3404.00,0.0080
3403.00,0.0080
3402.00,0.0080
3401.00,0.0080
3400.00,0.0080
3399.00,0.0080
3398.00,0.0080
3397.00,0.0080
3396.00,0.0080
3395.00,0.0080
3394.00,0.0080
3393.00,0.0080
3392.00,0.0081
3391.00,0.0082
3390.00,0.0082
3389.00,0.0082
3388.00,0.0082
3387.00,0.0082
3386.00,0.0083
3385.00,0.0083
3384.00,0.0083
3383.00,0.0083
3382.00,0.0083
3381.00,0.0084
3380.00,0.0084
3379.00,0.0084
3378.00,0.0085
3377.00,0.0085
3376.00,0.0085
3375.00,0.0085
3374.00,0.0085
3373.00,0.0085
3372.00,0.0086
3371.00,0.0086
3370.00,0.0087
3369.00,0.0087
3368.00,0.0087
3367.00,0.0088
3366.00,0.0088
3365.00,0.0088
3364.00,0.0088
3363.00,0.0088
3362.00,0.0088
3361.00,0.0089
3360.00,0.0089
3359.00,0.0090
3358.00,0.0091
3357.00,0.0091
3356.00,0.0092
3355.00,0.0092
3354.00,0.0092
3353.00,0.0093
3352.00,0.0093
3351.00,0.0094
3350.00,0.0094
3349.00,0.0094
3348.00,0.0094
3347.00,0.0094
3346.00,0.0094
3345.00,0.0094
3344.00,0.0094
3343.00,0.0094
3342.00,0.0095
3341.00,0.0095
3340.00,0.0095
3339.00,0.0095
3338.00,0.0095
3337.00,0.0095
3336.00,0.0095
3335.00,0.0095
3334.00,0.0094
3333.00,0.0094
3332.00,0.0094
3331.00,0.0094
3330.00,0.0094
3329.00,0.0093
3328.00,0.0093
3327.00,0.0092
3326.00,0.0092
3325.00,0.0091
3324.00,0.0091
3323.00,0.0091
3322.00,0.0091
3321.00,0.0090
3320.00,0.0090
3319.00,0.0089
3318.00,0.0089
3317.00,0.0089
3316.00,0.0089
3315.00,0.0089
3314.00,0.0090
3313.00,0.0090
3312.00,0.0090
3311.00,0.0090
3310.00,0.0090
3309.00,0.0091
3308.00,0.0091
3307.00,0.0091
3306.00,0.0091
3305.00,0.0091
3304.00,0.0091
3303.00,0.0091
3302.00,0.0092
3301.00,0.0091
3300.00,0.0091
3299.00,0.0091
3298.00,0.0090
3297.00,0.0090
3296.00,0.0090
3295.00,0.0090
3294.00,0.0090
3293.00,0.0090
3292.00,0.0090
3291.00,0.0090
3290.00,0.0090
3289.00,0.0090
3288.00,0.0090
3287.00,0.0089
3286.00,0.0089
3285.00,0.0089
3284.00,0.0089
3283.00,0.0089
3282.00,0.0088
3281.00,0.0088
3280.00,0.0088
3279.00,0.0088
3278.00,0.0087
3277.00,0.0087
3276.00,0.0086
3275.00,0.0086
3274.00,0.0085
3273.00,0.0085
3272.00,0.0085
3271.00,0.0085
3270.00,0.0084
3269.00,0.0084
3268.00,0.0084
3267.00,0.0083
3266.00,0.0083
3265.00,0.0082
3264.00,0.0081
3263.00,0.0080
3262.00,0.0080
3261.00,0.0080
3260.00,0.0080
3259.00,0.0079
3258.00,0.0079
3257.00,0.0078
3256.00,0.0077
3255.00,0.0077
3254.00,0.0076
3253.00,0.0075
3252.00,0.0075
3251.00,0.0075
3250.00,0.0074
3249.00,0.0074
3248.00,0.0073
3247.00,0.0073
3246.00,0.0073
3245.00,0.0073
3244.00,0.0072
3243.00,0.0072
3242.00,0.0072
3241.00,0.0072
3240.00,0.0072
3239.00,0.0072
3238.00,0.0071
3237.00,0.0071
3236.00,0.0070
3235.00,0.0070
3234.00,0.0070
3233.00,0.0069
3232.00,0.0069
3231.00,0.0069
3230.00,0.0069
3229.00,0.0069
3228.00,0.0069
3227.00,0.0069
3226.00,0.0068
3225.00,0.0068
3224.00,0.0068
3223.00,0.0068
3222.00,0.0068
3221.00,0.0068
3220.00,0.0068
3219.00,0.0068
3218.00,0.0069
3217.00,0.0069
3216.00,0.0069
3215.00,0.0068
3214.00,0.0068
3213.00,0.0067
3212.00,0.0067
3211.00,0.0067
3210.00,0.0068
3209.00,0.0068
3208.00,0.0068
3207.00,0.0068
3206.00,0.0068
3205.00,0.0068
3204.00,0.0067
3203.00,0.0067
3202.00,0.0067
3201.00,0.0067
3200.00,0.0067
3199.00,0.0067
3198.00,0.0067
3197.00,0.0066
3196.00,0.0066
3195.00,0.0066
3194.00,0.0066
3193.00,0.0065
3192.00,0.0065
3191.00,0.0065
3190.00,0.0065
3189.00,0.0064
3188.00,0.0064
3187.00,0.0063
3186.00,0.0063
3185.00,0.0062
3184.00,0.0062
3183.00,0.0062
3182.00,0.0061
3181.00,0.0061
3180.00,0.0061
3179.00,0.0061
3178.00,0.0061
3177.00,0.0061
3176.00,0.0061
3175.00,0.0060
3174.00,0.0059
3173.00,0.0059
3172.00,0.0059
3171.00,0.0058
3170.00,0.0058
3169.00,0.0058
3168.00,0.0058
3167.00,0.0058
3166.00,0.0058
3165.00,0.0058
3164.00,0.0058
3163.00,0.0057
3162.00,0.0057
3161.00,0.0057
3160.00,0.0057
3159.00,0.0057
3158.00,0.0057
3157.00,0.0057
3156.00,0.0056
3155.00,0.0056
3154.00,0.0056
3153.00,0.0056
3152.00,0.0056
3151.00,0.0056
3150.00,0.0056
3149.00,0.0056
3148.00,0.0056
3147.00,0.0055
3146.00,0.0055
3145.00,0.0055
3144.00,0.0055
3143.00,0.0055
3142.00,0.0055
3141.00,0.0054
3140.00,0.0054
3139.00,0.0053
3138.00,0.0053
3137.00,0.0053
3136.00,0.0052
3135.00,0.0052
3134.00,0.0052
3133.00,0.0052
3132.00,0.0052
3131.00,0.0052
3130.00,0.0051
3129.00,0.0051
3128.00,0.0051
3127.00,0.0050
3126.00,0.0050
3125.00,0.0049
3124.00,0.0049
3123.00,0.0048
3122.00,0.0048
3121.00,0.0048
3120.00,0.0048
3119.00,0.0047
3118.00,0.0047
3117.00,0.0047
3116.00,0.0047
3115.00,0.0047
3114.00,0.0047
3113.00,0.0046
3112.00,0.0046
3111.00,0.0046
3110.00,0.0046
3109.00,0.0045
3108.00,0.0045
3107.00,0.0045
3106.00,0.0045
3105.00,0.0045
3104.00,0.0045
3103.00,0.0046
3102.00,0.0046
3101.00,0.0046
3100.00,0.0046
3099.00,0.0046
3098.00,0.0046
3097.00,0.0045
3096.00,0.0045
3095.00,0.0044
3094.00,0.0044
3093.00,0.0044
3092.00,0.0044
3091.00,0.0044
3090.00,0.0044
3089.00,0.0044
3088.00,0.0044
3087.00,0.0044
3086.00,0.0043
3085.00,0.0043
3084.00,0.0043
3083.00,0.0043
3082.00,0.0043
3081.00,0.0043
3080.00,0.0043
3079.00,0.0043
3078.00,0.0044
3077.00,0.0044
3076.00,0.0044
3075.00,0.0044
3074.00,0.0044
3073.00,0.0044
3072.00,0.0043
3071.00,0.0043
3070.00,0.0043
3069.00,0.0043
3068.00,0.0044
3067.00,0.0044
3066.00,0.0045
3065.00,0.0045
3064.00,0.0045
3063.00,0.0045
3062.00,0.0045
3061.00,0.0045
3060.00,0.0045
3059.00,0.0044
3058.00,0.0044
3057.00,0.0045
3056.00,0.0045
3055.00,0.0045
3054.00,0.0045
3053.00,0.0045
3052.00,0.0045
3051.00,0.0045
3050.00,0.0045
3049.00,0.0045
3048.00,0.0046
3047.00,0.0046
3046.00,0.0046
3045.00,0.0047
3044.00,0.0047
3043.00,0.0048
3042.00,0.0048
3041.00,0.0048
3040.00,0.0048
3039.00,0.0049
3038.00,0.0049
3037.00,0.0049
3036.00,0.0049
3035.00,0.0049
3034.00,0.0049
3033.00,0.0049
3032.00,0.0050
3031.00,0.0050
3030.00,0.0051
3029.00,0.0051
3028.00,0.0051
3027.00,0.0052
3026.00,0.0052
3025.00,0.0052
3024.00,0.0052
3023.00,0.0053
3022.00,0.0053
3021.00,0.0054
3020.00,0.0055
3019.00,0.0056
3018.00,0.0056
3017.00,0.0057
3016.00,0.0058
3015.00,0.0059
3014.00,0.0060
3013.00,0.0061
3012.00,0.0062
3011.00,0.0062
3010.00,0.0063
3009.00,0.0064
3008.00,0.0065
3007.00,0.0067
3006.00,0.0068
3005.00,0.0069
3004.00,0.0070
3003.00,0.0072
3002.00,0.0073
3001.00,0.0075
3000.00,0.0078
2999.00,0.0080
2998.00,0.0082
2997.00,0.0085
2996.00,0.0088
2995.00,0.0092
2994.00,0.0096
2993.00,0.0100
2992.00,0.0104
2991.00,0.0110
2990.00,0.0116
2989.00,0.0122
2988.00,0.0130
2987.00,0.0137
2986.00,0.0145
2985.00,0.0154
2984.00,0.0164
2983.00,0.0176
2982.00,0.0190
2981.00,0.0206
2980.00,0.0224
2979.00,0.0246
2978.00,0.0270
2977.00,0.0297
2976.00,0.0328
2975.00,0.0363
2974.00,0.0402
2973.00,0.0447
2972.00,0.0498
2971.00,0.0555
2970.00,0.0618
2969.00,0.0687
2968.00,0.0761
2967.00,0.0840
2966.00,0.0923
2965.00,0.1007
2964.00,0.1090
2963.00,0.1165
2962.00,0.1231
2961.00,0.1283
2960.00,0.1323
2959.00,0.1354
2958.00,0.1381
2957.00,0.1410
2956.00,0.1447
2955.00,0.1494
2954.00,0.1550
2953.00,0.1609
2952.00,0.1661
2951.00,0.1696
2950.00,0.1702
2949.00,0.1675
2948.00,0.1613
2947.00,0.1524
2946.00,0.1417
2945.00,0.1306
2944.00,0.1202
2943.00,0.1112
2942.00,0.1043
2941.00,0.0996
2940.00,0.0970
2939.00,0.0964
2938.00,0.0975
2937.00,0.1001
2936.00,0.1042
2935.00,0.1095
2934.00,0.1160
2933.00,0.1236
2932.00,0.1321
2931.00,0.1413
2930.00,0.1512
2929.00,0.1612
2928.00,0.1713
2927.00,0.1811
2926.00,0.1905
2925.00,0.1996
2924.00,0.2084
2923.00,0.2170
2922.00,0.2255
2921.00,0.2335
2920.00,0.2405
2919.00,0.2455
2918.00,0.2479
2917.00,0.2470
2916.00,0.2428
2915.00,0.2357
2914.00,0.2269
2913.00,0.2174
2912.00,0.2081
2911.00,0.1997
2910.00,0.1921
2909.00,0.1855
2908.00,0.1794
2907.00,0.1735
2906.00,0.1678
2905.00,0.1619
2904.00,0.1560
2903.00,0.1500
2902.00,0.1441
2901.00,0.1383
2900.00,0.1327
2899.00,0.1273
2898.00,0.1222
2897.00,0.1176
2896.00,0.1134
2895.00,0.1098
2894.00,0.1066
2893.00,0.1040
2892.00,0.1019
2891.00,0.1003
2890.00,0.0992
2889.00,0.0985
2888.00,0.0981
2887.00,0.0980
2886.00,0.0983
2885.00,0.0988
2884.00,0.0997
2883.00,0.1009
2882.00,0.1025
2881.00,0.1042
2880.00,0.1058
2879.00,0.1071
2878.00,0.1077
2877.00,0.1077
2876.00,0.1072
2875.00,0.1065
2874.00,0.1061
2873.00,0.1063
2872.00,0.1071
2871.00,0.1085
2870.00,0.1102
2869.00,0.1117
2868.00,0.1125
2867.00,0.1119
2866.00,0.1094
2865.00,0.1050
2864.00,0.0992
2863.00,0.0926
2862.00,0.0861
2861.00,0.0806
2860.00,0.0763
2859.00,0.0734
2858.00,0.0718
2857.00,0.0714
2856.00,0.0719
2855.00,0.0730
2854.00,0.0746
2853.00,0.0765
2852.00,0.0784
2851.00,0.0800
2850.00,0.0813
2849.00,0.0824
2848.00,0.0833
2847.00,0.0846
2846.00,0.0866
2845.00,0.0895
2844.00,0.0933
2843.00,0.0978
2842.00,0.1025
2841.00,0.1067
2840.00,0.1098
2839.00,0.1111
2838.00,0.1101
2837.00,0.1064
2836.00,0.1002
2835.00,0.0921
2834.00,0.0830
2833.00,0.0736
2832.00,0.0648
2831.00,0.0570
2830.00,0.0504
2829.00,0.0450
2828.00,0.0406
2827.00,0.0370
2826.00,0.0341
2825.00,0.0317
2824.00,0.0297
2823.00,0.0280
2822.00,0.0265
2821.00,0.0252
2820.00,0.0240
2819.00,0.0230
2818.00,0.0221
2817.00,0.0214
2816.00,0.0207
2815.00,0.0201
2814.00,0.0195
2813.00,0.0190
2812.00,0.0185
2811.00,0.0180
2810.00,0.0175
2809.00,0.0170
2808.00,0.0164
2807.00,0.0158
2806.00,0.0153
2805.00,0.0147
2804.00,0.0142
2803.00,0.0136
2802.00,0.0132
2801.00,0.0128
2800.00,0.0124
2799.00,0.0121
2798.00,0.0118
2797.00,0.0116
2796.00,0.0114
2795.00,0.0112
2794.00,0.0110
2793.00,0.0107
2792.00,0.0104
2791.00,0.0101
2790.00,0.0098
2789.00,0.0095
2788.00,0.0093
2787.00,0.0090
2786.00,0.0088
2785.00,0.0086
2784.00,0.0084
2783.00,0.0081
2782.00,0.0079
2781.00,0.0077
2780.00,0.0075
2779.00,0.0073
2778.00,0.0072
2777.00,0.0071
2776.00,0.0070
2775.00,0.0070
2774.00,0.0069
2773.00,0.0068
2772.00,0.0068
2771.00,0.0067
2770.00,0.0066
2769.00,0.0066
2768.00,0.0065
2767.00,0.0065
2766.00,0.0065
2765.00,0.0065
2764.00,0.0065
2763.00,0.0064
2762.00,0.0064
2761.00,0.0063
2760.00,0.0063
2759.00,0.0063
2758.00,0.0062
2757.00,0.0062
2756.00,0.0062
2755.00,0.0062
2754.00,0.0062
2753.00,0.0062
2752.00,0.0062
2751.00,0.0062
2750.00,0.0062
2749.00,0.0061
2748.00,0.0061
2747.00,0.0061
2746.00,0.0062
2745.00,0.0062
2744.00,0.0063
2743.00,0.0064
2742.00,0.0065
2741.00,0.0066
2740.00,0.0067
2739.00,0.0068
2738.00,0.0069
2737.00,0.0070
2736.00,0.0071
2735.00,0.0073
2734.00,0.0074
2733.00,0.0075
2732.00,0.0077
2731.00,0.0078
2730.00,0.0080
2729.00,0.0082
2728.00,0.0084
2727.00,0.0087
2726.00,0.0089
2725.00,0.0091
2724.00,0.0092
2723.00,0.0092
2722.00,0.0092
2721.00,0.0090
2720.00,0.0088
2719.00,0.0085
2718.00,0.0082
2717.00,0.0080
2716.00,0.0077
2715.00,0.0075
2714.00,0.0073
2713.00,0.0071
2712.00,0.0069
2711.00,0.0067
2710.00,0.0065
2709.00,0.0064
2708.00,0.0063
2707.00,0.0062
2706.00,0.0061
2705.00,0.0060
2704.00,0.0059
2703.00,0.0058
2702.00,0.0057
2701.00,0.0057
2700.00,0.0056
2699.00,0.0055
2698.00,0.0055
2697.00,0.0055
2696.00,0.0055
2695.00,0.0055
2694.00,0.0055
2693.00,0.0055
2692.00,0.0055
2691.00,0.0055
2690.00,0.0055
2689.00,0.0055
2688.00,0.0055
2687.00,0.0054
2686.00,0.0054
2685.00,0.0055
2684.00,0.0055
2683.00,0.0055
2682.00,0.0055
2681.00,0.0055
2680.00,0.0055
2679.00,0.0055
2678.00,0.0055
2677.00,0.0055
2676.00,0.0055
2675.00,0.0054
2674.00,0.0054
2673.00,0.0054
2672.00,0.0053
2671.00,0.0053
2670.00,0.0053
2669.00,0.0053
2668.00,0.0053
2667.00,0.0053
2666.00,0.0053
2665.00,0.0054
2664.00,0.0054
2663.00,0.0055
2662.00,0.0056
2661.00,0.0056
2660.00,0.0057
2659.00,0.0057
2658.00,0.0057
2657.00,0.0056
2656.00,0.0056
2655.00,0.0055
2654.00,0.0055
2653.00,0.0055
2652.00,0.0054
2651.00,0.0054
2650.00,0.0054
2649.00,0.0054
2648.00,0.0054
2647.00,0.0053
2646.00,0.0052
2645.00,0.0051
2644.00,0.0050
2643.00,0.0050
2642.00,0.0049
2641.00,0.0049
2640.00,0.0049
2639.00,0.0049
2638.00,0.0049
2637.00,0.0048
2636.00,0.0048
2635.00,0.0047
2634.00,0.0047
2633.00,0.0048
2632.00,0.0048
2631.00,0.0049
2630.00,0.0049
2629.00,0.0049
2628.00,0.0049
2627.00,0.0048
2626.00,0.0048
2625.00,0.0048
2624.00,0.0048
2623.00,0.0049
2622.00,0.0050
2621.00,0.0050
2620.00,0.0050
2619.00,0.0050
2618.00,0.0050
2617.00,0.0049
2616.00,0.0049
2615.00,0.0048
2614.00,0.0048
2613.00,0.0048
2612.00,0.0048
2611.00,0.0047
2610.00,0.0047
2609.00,0.0046
2608.00,0.0046
2607.00,0.0045
2606.00,0.0045
2605.00,0.0045
2604.00,0.0044
2603.00,0.0043
2602.00,0.0042
2601.00,0.0042
2600.00,0.0042
2599.00,0.0042
2598.00,0.0042
2597.00,0.0042
2596.00,0.0041
2595.00,0.0041
2594.00,0.0041
2593.00,0.0042
2592.00,0.0042
2591.00,0.0043
2590.00,0.0044
2589.00,0.0044
2588.00,0.0045
2587.00,0.0045
2586.00,0.0045
2585.00,0.0046
2584.00,0.0047
2583.00,0.0048
2582.00,0.0048
2581.00,0.0048
2580.00,0.0047
2579.00,0.0046
2578.00,0.0045
2577.00,0.0044
2576.00,0.0043
2575.00,0.0043
2574.00,0.0042
2573.00,0.0041
2572.00,0.0040
2571.00,0.0039
2570.00,0.0038
2569.00,0.0038
2568.00,0.0037
2567.00,0.0036
2566.00,0.0035
2565.00,0.0034
2564.00,0.0034
2563.00,0.0035
2562.00,0.0035
2561.00,0.0035
2560.00,0.0035
2559.00,0.0034
2558.00,0.0034
2557.00,0.0033
2556.00,0.0032
2555.00,0.0032
2554.00,0.0031
2553.00,0.0031
2552.00,0.0030
2551.00,0.0030
2550.00,0.0030
2549.00,0.0030
2548.00,0.0030
2547.00,0.0030
2546.00,0.0030
2545.00,0.0029
2544.00,0.0029
2543.00,0.0028
2542.00,0.0028
2541.00,0.0028
2540.00,0.0028
2539.00,0.0027
2538.00,0.0027
2537.00,0.0027
2536.00,0.0027
2535.00,0.0028
2534.00,0.0028
2533.00,0.0028
2532.00,0.0028
2531.00,0.0028
2530.00,0.0027
2529.00,0.0027
2528.00,0.0027
2527.00,0.0027
2526.00,0.0027
2525.00,0.0027
2524.00,0.0026
2523.00,0.0026
2522.00,0.0025
2521.00,0.0025
2520.00,0.0025
2519.00,0.0025
2518.00,0.0025
2517.00,0.0024
2516.00,0.0024
2515.00,0.0023
2514.00,0.0023
2513.00,0.0024
2512.00,0.0024
2511.00,0.0024
2510.00,0.0024
2509.00,0.0023
2508.00,0.0023
2507.00,0.0023
2506.00,0.0023
2505.00,0.0023
2504.00,0.0024
2503.00,0.0024
2502.00,0.0024
2501.00,0.0024
2500.00,0.0023
2499.00,0.0023
2498.00,0.0023
2497.00,0.0023
2496.00,0.0024
2495.00,0.0024
2494.00,0.0024
2493.00,0.0023
2492.00,0.0023
2491.00,0.0023
2490.00,0.0023
2489.00,0.0023
2488.00,0.0023
2487.00,0.0022
2486.00,0.0021
2485.00,0.0020
2484.00,0.0020
2483.00,0.0021
2482.00,0.0021
2481.00,0.0021
2480.00,0.0021
2479.00,0.0020
2478.00,0.0020
2477.00,0.0020
2476.00,0.0020
2475.00,0.0021
2474.00,0.0021
2473.00,0.0021
2472.00,0.0021
2471.00,0.0021
2470.00,0.0021
2469.00,0.0021
2468.00,0.0020
2467.00,0.0021
2466.00,0.0021
2465.00,0.0022
2464.00,0.0022
2463.00,0.0022
2462.00,0.0021
2461.00,0.0021
2460.00,0.0021
2459.00,0.0020
2458.00,0.0020
2457.00,0.0020
2456.00,0.0020
2455.00,0.0021
2454.00,0.0021
2453.00,0.0021
2452.00,0.0021
2451.00,0.0021
2450.00,0.0021
2449.00,0.0022
2448.00,0.0022
2447.00,0.0023
2446.00,0.0023
2445.00,0.0022
2444.00,0.0021
2443.00,0.0020
2442.00,0.0020
2441.00,0.0020
2440.00,0.0020
2439.00,0.0020
2438.00,0.0020
2437.00,0.0020
2436.00,0.0021
2435.00,0.0022
2434.00,0.0022
2433.00,0.0022
2432.00,0.0021
2431.00,0.0021
2430.00,0.0021
2429.00,0.0021
2428.00,0.0021
2427.00,0.0021
2426.00,0.0021
2425.00,0.0022
2424.00,0.0022
2423.00,0.0022
2422.00,0.0022
2421.00,0.0021
2420.00,0.0021
2419.00,0.0020
2418.00,0.0019
2417.00,0.0019
2416.00,0.0020
2415.00,0.0021
2414.00,0.0021
2413.00,0.0021
2412.00,0.0021
2411.00,0.0020
2410.00,0.0020
2409.00,0.0020
2408.00,0.0019
2407.00,0.0019
2406.00,0.0019
2405.00,0.0018
2404.00,0.0018
2403.00,0.0018
2402.00,0.0018
2401.00,0.0018
2400.00,0.0019
2399.00,0.0019
2398.00,0.0019
2397.00,0.0019
2396.00,0.0019
2395.00,0.0018
2394.00,0.0018
2393.00,0.0018
2392.00,0.0018
2391.00,0.0018
2390.00,0.0018
2389.00,0.0018
2388.00,0.0018
2387.00,0.0018
2386.00,0.0017
2385.00,0.0017
2384.00,0.0017
2383.00,0.0017
2382.00,0.0016
2381.00,0.0016
2380.00,0.0015
2379.00,0.0014
2378.00,0.0014
2377.00,0.0014
2376.00,0.0015
2375.00,0.0016
2374.00,0.0017
2373.00,0.0017
2372.00,0.0017
2371.00,0.0016
2370.00,0.0015
2369.00,0.0014
2368.00,0.0014
2367.00,0.0014
2366.00,0.0014
2365.00,0.0014
2364.00,0.0015
2363.00,0.0015
2362.00,0.0016
2361.00,0.0016
2360.00,0.0016
2359.00,0.0016
2358.00,0.0017
2357.00,0.0017
2356.00,0.0017
2355.00,0.0017
2354.00,0.0016
2353.00,0.0016
2352.00,0.0015
2351.00,0.0016
2350.00,0.0016
2349.00,0.0017
2348.00,0.0017
2347.00,0.0017
2346.00,0.0017
2345.00,0.0018
2344.00,0.0018
2343.00,0.0018
2342.00,0.0019
2341.00,0.0019
2340.00,0.0019
2339.00,0.0018
2338.00,0.0019
2337.00,0.0019
2336.00,0.0020
2335.00,0.0019
2334.00,0.0018
2333.00,0.0017
2332.00,0.0017
2331.00,0.0017
2330.00,0.0017
2329.00,0.0018
2328.00,0.0020
2327.00,0.0023
2326.00,0.0027
2325.00,0.0031
2324.00,0.0033
2323.00,0.0032
2322.00,0.0030
2321.00,0.0028
2320.00,0.0026
2319.00,0.0025
2318.00,0.0025
2317.00,0.0024
2316.00,0.0023
2315.00,0.0023
2314.00,0.0022
2313.00,0.0023
2312.00,0.0023
2311.00,0.0023
2310.00,0.0022
2309.00,0.0022
2308.00,0.0022
2307.00,0.0022
2306.00,0.0022
2305.00,0.0022
2304.00,0.0022
2303.00,0.0021
2302.00,0.0022
2301.00,0.0022
2300.00,0.0023
2299.00,0.0023
2298.00,0.0023
2297.00,0.0023
2296.00,0.0023
2295.00,0.0024
2294.00,0.0025
2293.00,0.0026
2292.00,0.0026
2291.00,0.0026
2290.00,0.0027
2289.00,0.0028
2288.00,0.0029
2287.00,0.0029
2286.00,0.0029
2285.00,0.0028
2284.00,0.0027
2283.00,0.0026
2282.00,0.0025
2281.00,0.0025
2280.00,0.0024
2279.00,0.0024
2278.00,0.0023
2277.00,0.0023
2276.00,0.0022
2275.00,0.0022
2274.00,0.0023
2273.00,0.0023
2272.00,0.0023
2271.00,0.0023
2270.00,0.0023
2269.00,0.0024
2268.00,0.0025
2267.00,0.0025
2266.00,0.0025
2265.00,0.0024
2264.00,0.0023
2263.00,0.0023
2262.00,0.0022
2261.00,0.0023
2260.00,0.0023
2259.00,0.0024
2258.00,0.0023
2257.00,0.0023
2256.00,0.0021
2255.00,0.0020
2254.00,0.0018
2253.00,0.0018
2252.00,0.0018
2251.00,0.0019
2250.00,0.0019
2249.00,0.0019
2248.00,0.0018
2247.00,0.0017
2246.00,0.0015
2245.00,0.0015
2244.00,0.0015
2243.00,0.0016
2242.00,0.0017
2241.00,0.0018
2240.00,0.0019
2239.00,0.0020
2238.00,0.0020
2237.00,0.0020
2236.00,0.0020
2235.00,0.0020
2234.00,0.0020
2233.00,0.0019
2232.00,0.0019
2231.00,0.0018
2230.00,0.0017
2229.00,0.0017
2228.00,0.0017
2227.00,0.0016
2226.00,0.0016
2225.00,0.0015
2224.00,0.0016
2223.00,0.0016
2222.00,0.0015
2221.00,0.0015
2220.00,0.0014
2219.00,0.0014
2218.00,0.0014
2217.00,0.0015
2216.00,0.0015
2215.00,0.0014
2214.00,0.0013
2213.00,0.0011
2212.00,0.0011
2211.00,0.0011
2210.00,0.0012
2209.00,0.0013
2208.00,0.0013
2207.00,0.0013
2206.00,0.0013
2205.00,0.0014
2204.00,0.0015
2203.00,0.0016
2202.00,0.0017
2201.00,0.0018
2200.00,0.0018
2199.00,0.0018
2198.00,0.0018
2197.00,0.0018
2196.00,0.0018
2195.00,0.0017
2194.00,0.0016
2193.00,0.0014
2192.00,0.0015
2191.00,0.0016
2190.00,0.0019
2189.00,0.0021
2188.00,0.0020
2187.00,0.0018
2186.00,0.0016
2185.00,0.0014
2184.00,0.0013
2183.00,0.0014
2182.00,0.0016
2181.00,0.0018
2180.00,0.0020
2179.00,0.0021
2178.00,0.0019
2177.00,0.0016
2176.00,0.0013
2175.00,0.0010
2174.00,0.0010
2173.00,0.0012
2172.00,0.0015
2171.00,0.0018
2170.00,0.0022
2169.00,0.0027
2168.00,0.0033
2167.00,0.0036
2166.00,0.0036
2165.00,0.0034
2164.00,0.0032
2163.00,0.0030
2162.00,0.0027
2161.00,0.0021
2160.00,0.0011
2159.00,-0.0002
2158.00,-0.0012
2157.00,-0.0015
2156.00,-0.0013
2155.00,-0.0009
2154.00,-0.0007
2153.00,-0.0005
2152.00,-0.0003
2151.00,-0.0002
2150.00,-0.0002
2149.00,-0.0004
2148.00,-0.0006
2147.00,-0.0008
2146.00,-0.0008
2145.00,-0.0007
2144.00,-0.0005
2143.00,-0.0003
2142.00,-0.0002
2141.00,-0.0003
2140.00,-0.0004
2139.00,-0.0005
2138.00,-0.0005
2137.00,-0.0005
2136.00,-0.0006
2135.00,-0.0008
2134.00,-0.0008
2133.00,-0.0007
2132.00,-0.0006
2131.00,-0.0004
2130.00,-0.0003
2129.00,-0.0001
2128.00,-0.0000
2127.00,0.0001
2126.00,0.0001
2125.00,0.0001
2124.00,0.0001
2123.00,0.0000
2122.00,0.0000
2121.00,0.0001
2120.00,0.0001
2119.00,0.0001
2118.00,0.0002
2117.00,0.0005
2116.00,0.0008
2115.00,0.0011
2114.00,0.0013
2113.00,0.0014
2112.00,0.0013
2111.00,0.0012
2110.00,0.0011
2109.00,0.0011
2108.00,0.0011
2107.00,0.0011
2106.00,0.0011
2105.00,0.0012
2104.00,0.0013
2103.00,0.0012
2102.00,0.0012
2101.00,0.0011
2100.00,0.0011
2099.00,0.0011
2098.00,0.0012
2097.00,0.0011
2096.00,0.0009
2095.00,0.0008
2094.00,0.0007
2093.00,0.0007
2092.00,0.0008
2091.00,0.0009
2090.00,0.0009
2089.00,0.0010
2088.00,0.0009
2087.00,0.0009
2086.00,0.0008
2085.00,0.0009
2084.00,0.0011
2083.00,0.0013
2082.00,0.0014
2081.00,0.0014
2080.00,0.0014
2079.00,0.0013
2078.00,0.0013
2077.00,0.0012
2076.00,0.0012
2075.00,0.0011
2074.00,0.0012
2073.00,0.0013
2072.00,0.0013
2071.00,0.0012
2070.00,0.0011
2069.00,0.0010
2068.00,0.0010
2067.00,0.0010
2066.00,0.0010
2065.00,0.0011
2064.00,0.0012
2063.00,0.0011
2062.00,0.0011
2061.00,0.0010
2060.00,0.0011
2059.00,0.0011
2058.00,0.0011
2057.00,0.0012
2056.00,0.0011
2055.00,0.0010
2054.00,0.0011
2053.00,0.0014
2052.00,0.0018
2051.00,0.0021
2050.00,0.0022
2049.00,0.0020
2048.00,0.0017
2047.00,0.0012
2046.00,0.0009
2045.00,0.0006
2044.00,0.0006
2043.00,0.0006
2042.00,0.0008
2041.00,0.0009
2040.00,0.0011
2039.00,0.0013
2038.00,0.0016
2037.00,0.0018
2036.00,0.0018
2035.00,0.0015
2034.00,0.0009
2033.00,0.0002
2032.00,-0.0005
2031.00,-0.0008
2030.00,-0.0007
2029.00,-0.0004
2028.00,-0.0001
2027.00,-0.0001
2026.00,-0.0002
2025.00,-0.0002
2024.00,-0.0001
2023.00,0.0001
2022.00,0.0003
2021.00,0.0004
2020.00,0.0004
2019.00,0.0003
2018.00,0.0001
2017.00,0.0001
2016.00,0.0002
2015.00,0.0004
2014.00,0.0005
2013.00,0.0005
2012.00,0.0003
2011.00,0.0002
2010.00,0.0001
2009.00,-0.0000
2008.00,-0.0001
2007.00,-0.0003
2006.00,-0.0003
2005.00,-0.0003
2004.00,-0.0003
2003.00,-0.0003
2002.00,-0.0004
2001.00,-0.0004
2000.00,-0.0004
1999.00,-0.0003
1998.00,-0.0002
1997.00,-0.0001
1996.00,-0.0001
1995.00,-0.0002
1994.00,-0.0004
1993.00,-0.0005
1992.00,-0.0004
1991.00,-0.0003
1990.00,-0.0001
1989.00,0.0000
1988.00,0.0001
1987.00,0.0001
1986.00,0.0002
1985.00,0.0004
1984.00,0.0008
1983.00,0.0012
1982.00,0.0015
1981.00,0.0017
1980.00,0.0015
1979.00,0.0010
1978.00,0.0004
1977.00,-0.0001
1976.00,-0.0005
1975.00,-0.0007
1974.00,-0.0007
1973.00,-0.0006
1972.00,-0.0005
1971.00,-0.0006
1970.00,-0.0007
1969.00,-0.0007
1968.00,-0.0007
1967.00,-0.0007
1966.00,-0.0007
1965.00,-0.0006
1964.00,-0.0005
1963.00,-0.0003
1962.00,-0.0001
1961.00,-0.0000
1960.00,-0.0002
1959.00,-0.0005
1958.00,-0.0009
1957.00,-0.0010
1956.00,-0.0009
1955.00,-0.0006
1954.00,-0.0002
1953.00,0.0002
1952.00,0.0004
1951.00,0.0003
1950.00,0.0001
1949.00,-0.0000
1948.00,-0.0001
1947.00,-0.0000
1946.00,-0.0001
1945.00,-0.0002
1944.00,-0.0004
1943.00,-0.0006
1942.00,-0.0008
1941.00,-0.0008
1940.00,-0.0006
1939.00,-0.0005
1938.00,-0.0003
1937.00,-0.0002
1936.00,-0.0002
1935.00,-0.0002
1934.00,-0.0002
1933.00,-0.0001
1932.00,0.0001
1931.00,0.0002
1930.00,0.0002
1929.00,0.0001
1928.00,0.0001
1927.00,0.0001
1926.00,0.0001
1925.00,0.0002
1924.00,0.0003
1923.00,0.0005
1922.00,0.0006
1921.00,0.0007
1920.00,0.0008
1919.00,0.0007
1918.00,0.0006
1917.00,0.0005
1916.00,0.0005
1915.00,0.0006
1914.00,0.0006
1913.00,0.0007
1912.00,0.0007
1911.00,0.0008
1910.00,0.0008
1909.00,0.0008
1908.00,0.0008
1907.00,0.0008
1906.00,0.0008
1905.00,0.0008
1904.00,0.0008
1903.00,0.0008
1902.00,0.0008
1901.00,0.0008
1900.00,0.0009
1899.00,0.0009
1898.00,0.0010
1897.00,0.0010
1896.00,0.0011
1895.00,0.0011
1894.00,0.0010
1893.00,0.0010
1892.00,0.0010
1891.00,0.0009
1890.00,0.0008
1889.00,0.0008
1888.00,0.0009
1887.00,0.0010
1886.00,0.0010
1885.00,0.0010
1884.00,0.0010
1883.00,0.0009
1882.00,0.0010
1881.00,0.0011
1880.00,0.0011
1879.00,0.0011
1878.00,0.0010
1877.00,0.0009
1876.00,0.0008
1875.00,0.0008
1874.00,0.0008
1873.00,0.0008
1872.00,0.0009
1871.00,0.0010
1870.00,0.0010
1869.00,0.0009
1868.00,0.0008
1867.00,0.0008
1866.00,0.0008
1865.00,0.0009
1864.00,0.0011
1863.00,0.0011
1862.00,0.0012
1861.00,0.0012
1860.00,0.0012
1859.00,0.0011
1858.00,0.0011
1857.00,0.0010
1856.00,0.0010
1855.00,0.0010
1854.00,0.0010
1853.00,0.0010
1852.00,0.0010
1851.00,0.0010
1850.00,0.0010
1849.00,0.0010
1848.00,0.0010
1847.00,0.0010
1846.00,0.0010
1845.00,0.0011
1844.00,0.0011
1843.00,0.0011
1842.00,0.0011
1841.00,0.0010
1840.00,0.0011
1839.00,0.0011
1838.00,0.0012
1837.00,0.0013
1836.00,0.0014
1835.00,0.0014
1834.00,0.0014
1833.00,0.0015
1832.00,0.0015
1831.00,0.0015
1830.00,0.0015
1829.00,0.0015
1828.00,0.0015
1827.00,0.0015
1826.00,0.0014
1825.00,0.0014
1824.00,0.0014
1823.00,0.0014
1822.00,0.0014
1821.00,0.0014
1820.00,0.0013
1819.00,0.0012
1818.00,0.0011
1817.00,0.0010
1816.00,0.0010
1815.00,0.0011
1814.00,0.0012
1813.00,0.0014
1812.00,0.0014
1811.00,0.0014
1810.00,0.0014
1809.00,0.0014
1808.00,0.0014
1807.00,0.0014
1806.00,0.0015
1805.00,0.0015
1804.00,0.0016
1803.00,0.0016
1802.00,0.0016
1801.00,0.0016
1800.00,0.0016
1799.00,0.0016
1798.00,0.0016
1797.00,0.0017
1796.00,0.0018
1795.00,0.0018
1794.00,0.0018
1793.00,0.0018
1792.00,0.0018
1791.00,0.0019
1790.00,0.0019
1789.00,0.0019
1788.00,0.0019
1787.00,0.0019
1786.00,0.0019
1785.00,0.0019
1784.00,0.0018
1783.00,0.0018
1782.00,0.0018
1781.00,0.0018
1780.00,0.0018
1779.00,0.0018
1778.00,0.0018
1777.00,0.0018
1776.00,0.0018
1775.00,0.0018
1774.00,0.0018
1773.00,0.0018
1772.00,0.0018
1771.00,0.0019
1770.00,0.0020
1769.00,0.0020
1768.00,0.0021
1767.00,0.0021
1766.00,0.0022
1765.00,0.0023
1764.00,0.0023
1763.00,0.0024
1762.00,0.0025
1761.00,0.0025
1760.00,0.0026
1759.00,0.0027
1758.00,0.0028
1757.00,0.0029
1756.00,0.0030
1755.00,0.0031
1754.00,0.0032
1753.00,0.0034
1752.00,0.0036
1751.00,0.0037
1750.00,0.0038
1749.00,0.0039
1748.00,0.0039
1747.00,0.0039
1746.00,0.0040
1745.00,0.0040
1744.00,0.0040
1743.00,0.0040
1742.00,0.0039
1741.00,0.0039
1740.00,0.0039
1739.00,0.0038
1738.00,0.0038
1737.00,0.0038
1736.00,0.0038
1735.00,0.0037
1734.00,0.0036
1733.00,0.0036
1732.00,0.0036
1731.00,0.0036
1730.00,0.0036
1729.00,0.0036
1728.00,0.0036
1727.00,0.0035
1726.00,0.0035
1725.00,0.0036
1724.00,0.0036
1723.00,0.0036
1722.00,0.0036
1721.00,0.0036
1720.00,0.0035
1719.00,0.0034
1718.00,0.0033
1717.00,0.0033
1716.00,0.0034
1715.00,0.0034
1714.00,0.0034
1713.00,0.0034
1712.00,0.0033
1711.00,0.0033
1710.00,0.0033
1709.00,0.0033
1708.00,0.0033
1707.00,0.0034
1706.00,0.0035
1705.00,0.0035
1704.00,0.0036
1703.00,0.0036
1702.00,0.0036
1701.00,0.0036
1700.00,0.0037
1699.00,0.0037
1698.00,0.0037
1697.00,0.0037
1696.00,0.0038
1695.00,0.0039
1694.00,0.0040
1693.00,0.0040
1692.00,0.0041
1691.00,0.0041
1690.00,0.0042
1689.00,0.0043
1688.00,0.0044
1687.00,0.0044
1686.00,0.0045
1685.00,0.0045
1684.00,0.0046
1683.00,0.0047
1682.00,0.0048
1681.00,0.0049
1680.00,0.0050
1679.00,0.0051
1678.00,0.0052
1677.00,0.0052
1676.00,0.0053
1675.00,0.0054
1674.00,0.0055
1673.00,0.0055
1672.00,0.0056
1671.00,0.0056
1670.00,0.0056
1669.00,0.0057
1668.00,0.0058
1667.00,0.0059
1666.00,0.0059
1665.00,0.0060
1664.00,0.0061
1663.00,0.0060
1662.00,0.0060
1661.00,0.0061
1660.00,0.0062
1659.00,0.0063
1658.00,0.0064
1657.00,0.0065
1656.00,0.0066
1655.00,0.0067
1654.00,0.0068
1653.00,0.0068
1652.00,0.0070
1651.00,0.0070
1650.00,0.0070
1649.00,0.0070
1648.00,0.0070
1647.00,0.0070
1646.00,0.0071
1645.00,0.0072
1644.00,0.0072
1643.00,0.0072
1642.00,0.0073
1641.00,0.0073
1640.00,0.0074
1639.00,0.0074
1638.00,0.0074
1637.00,0.0074
1636.00,0.0073
1635.00,0.0074
1634.00,0.0074
1633.00,0.0074
1632.00,0.0074
1631.00,0.0074
1630.00,0.0073
1629.00,0.0073
1628.00,0.0073
1627.00,0.0072
1626.00,0.0072
1625.00,0.0072
1624.00,0.0072
1623.00,0.0072
1622.00,0.0071
1621.00,0.0071
1620.00,0.0070
1619.00,0.0070
1618.00,0.0069
1617.00,0.0069
1616.00,0.0069
1615.00,0.0069
1614.00,0.0070
1613.00,0.0070
1612.00,0.0070
1611.00,0.0069
1610.00,0.0069
1609.00,0.0068
1608.00,0.0069
1607.00,0.0069
1606.00,0.0070
1605.00,0.0070
1604.00,0.0070
1603.00,0.0070
1602.00,0.0069
1601.00,0.0069
1600.00,0.0069
1599.00,0.0070
1598.00,0.0070
1597.00,0.0070
1596.00,0.0070
1595.00,0.0071
1594.00,0.0071
1593.00,0.0072
1592.00,0.0073
1591.00,0.0074
1590.00,0.0074
1589.00,0.0075
1588.00,0.0076
1587.00,0.0078
1586.00,0.0079
1585.00,0.0081
1584.00,0.0083
1583.00,0.0085
1582.00,0.0088
1581.00,0.0091
1580.00,0.0094
1579.00,0.0095
1578.00,0.0096
1577.00,0.0096
1576.00,0.0096
1575.00,0.0096
1574.00,0.0095
1573.00,0.0094
1572.00,0.0093
1571.00,0.0092
1570.00,0.0090
1569.00,0.0088
1568.00,0.0088
1567.00,0.0087
1566.00,0.0086
1565.00,0.0086
1564.00,0.0085
1563.00,0.0085
1562.00,0.0086
1561.00,0.0088
1560.00,0.0088
1559.00,0.0087
1558.00,0.0088
1557.00,0.0089
1556.00,0.0090
1555.00,0.0091
1554.00,0.0092
1553.00,0.0093
1552.00,0.0095
1551.00,0.0097
1550.00,0.0099
1549.00,0.0101
1548.00,0.0103
1547.00,0.0105
1546.00,0.0108
1545.00,0.0111
1544.00,0.0115
1543.00,0.0117
1542.00,0.0118
1541.00,0.0118
1540.00,0.0117
1539.00,0.0115
1538.00,0.0112
1537.00,0.0111
1536.00,0.0108
1535.00,0.0105
1534.00,0.0101
1533.00,0.0098
1532.00,0.0096
1531.00,0.0095
1530.00,0.0094
1529.00,0.0094
1528.00,0.0093
1527.00,0.0093
1526.00,0.0092
1525.00,0.0092
1524.00,0.0092
1523.00,0.0092
1522.00,0.0093
1521.00,0.0094
1520.00,0.0096
1519.00,0.0097
1518.00,0.0097
1517.00,0.0098
1516.00,0.0100
1515.00,0.0102
1514.00,0.0103
1513.00,0.0105
1512.00,0.0106
1511.00,0.0107
1510.00,0.0108
1509.00,0.0108
1508.00,0.0109
1507.00,0.0111
1506.00,0.0114
1505.00,0.0118
1504.00,0.0120
1503.00,0.0122
1502.00,0.0123
1501.00,0.0126
1500.00,0.0129
1499.00,0.0132
1498.00,0.0135
1497.00,0.0139
1496.00,0.0145
1495.00,0.0150
1494.00,0.0154
1493.00,0.0158
1492.00,0.0163
1491.00,0.0167
1490.00,0.0172
1489.00,0.0178
1488.00,0.0185
1487.00,0.0192
1486.00,0.0199
1485.00,0.0206
1484.00,0.0215
1483.00,0.0223
1482.00,0.0233
1481.00,0.0246
1480.00,0.0260
1479.00,0.0273
1478.00,0.0288
1477.00,0.0308
1476.00,0.0333
1475.00,0.0361
1474.00,0.0399
1473.00,0.0453
1472.00,0.0517
1471.00,0.0577
1470.00,0.0633
1469.00,0.0691
1468.00,0.0754
1467.00,0.0823
1466.00,0.0901
1465.00,0.0985
1464.00,0.1061
1463.00,0.1113
1462.00,0.1145
1461.00,0.1167
1460.00,0.1182
1459.00,0.1193
1458.00,0.1205
1457.00,0.1218
1456.00,0.1221
1455.00,0.1213
1454.00,0.1200
1453.00,0.1183
1452.00,0.1159
1451.00,0.1125
1450.00,0.1081
1449.00,0.1021
1448.00,0.0947
1447.00,0.0868
1446.00,0.0795
1445.00,0.0732
1444.00,0.0678
1443.00,0.0633
1442.00,0.0600
1441.00,0.0576
1440.00,0.0561
1439.00,0.0555
1438.00,0.0555
1437.00,0.0557
1436.00,0.0551
1435.00,0.0531
1434.00,0.0500
1433.00,0.0462
1432.00,0.0423
1431.00,0.0389
1430.00,0.0362
1429.00,0.0342
1428.00,0.0328
1427.00,0.0318
1426.00,0.0310
1425.00,0.0303
1424.00,0.0296
1423.00,0.0290
1422.00,0.0286
1421.00,0.0282
1420.00,0.0277
1419.00,0.0271
1418.00,0.0265
1417.00,0.0259
1416.00,0.0252
1415.00,0.0246
1414.00,0.0241
1413.00,0.0235
1412.00,0.0229
1411.00,0.0224
1410.00,0.0220
1409.00,0.0215
1408.00,0.0210
1407.00,0.0206
1406.00,0.0203
1405.00,0.0200
1404.00,0.0197
1403.00,0.0196
1402.00,0.0195
1401.00,0.0193
1400.00,0.0191
1399.00,0.0189
1398.00,0.0189
1397.00,0.0188
1396.00,0.0188
1395.00,0.0190
1394.00,0.0192
1393.00,0.0195
1392.00,0.0197
1391.00,0.0202
1390.00,0.0210
1389.00,0.0221
1388.00,0.0238
1387.00,0.0265
1386.00,0.0303
1385.00,0.0354
1384.00,0.0424
1383.00,0.0523
1382.00,0.0656
1381.00,0.0828
1380.00,0.1040
1379.00,0.1277
1378.00,0.1505
1377.00,0.1667
1376.00,0.1717
1375.00,0.1630
1374.00,0.1431
1373.00,0.1192
1372.00,0.0974
1371.00,0.0793
1370.00,0.0649
1369.00,0.0540
1368.00,0.0465
1367.00,0.0418
1366.00,0.0393
1365.00,0.0383
1364.00,0.0385
1363.00,0.0396
1362.00,0.0414
1361.00,0.0432
1360.00,0.0445
1359.00,0.0448
1358.00,0.0437
1357.00,0.0414
1356.00,0.0382
1355.00,0.0346
1354.00,0.0313
1353.00,0.0284
1352.00,0.0260
1351.00,0.0241
1350.00,0.0225
1349.00,0.0211
1348.00,0.0200
1347.00,0.0191
1346.00,0.0184
1345.00,0.0178
1344.00,0.0173
1343.00,0.0169
1342.00,0.0166
1341.00,0.0164
1340.00,0.0162
1339.00,0.0160
1338.00,0.0160
1337.00,0.0160
1336.00,0.0160
1335.00,0.0162
1334.00,0.0164
1333.00,0.0167
1332.00,0.0169
1331.00,0.0171
1330.00,0.0171
1329.00,0.0169
1328.00,0.0165
1327.00,0.0160
1326.00,0.0156
1325.00,0.0151
1324.00,0.0147
1323.00,0.0144
1322.00,0.0142
1321.00,0.0140
1320.00,0.0139
1319.00,0.0138
1318.00,0.0138
1317.00,0.0137
1316.00,0.0136
1315.00,0.0136
1314.00,0.0135
1313.00,0.0134
1312.00,0.0134
1311.00,0.0134
1310.00,0.0136
1309.00,0.0141
1308.00,0.0148
1307.00,0.0157
1306.00,0.0166
1305.00,0.0171
1304.00,0.0172
1303.00,0.0169
1302.00,0.0164
1301.00,0.0158
1300.00,0.0155
1299.00,0.0154
1298.00,0.0153
1297.00,0.0153
1296.00,0.0152
1295.00,0.0150
1294.00,0.0147
1293.00,0.0143
1292.00,0.0138
1291.00,0.0134
1290.00,0.0130
1289.00,0.0126
1288.00,0.0123
1287.00,0.0121
1286.00,0.0119
1285.00,0.0117
1284.00,0.0116
1283.00,0.0115
1282.00,0.0114
1281.00,0.0114
1280.00,0.0113
1279.00,0.0112
1278.00,0.0111
1277.00,0.0110
1276.00,0.0109
1275.00,0.0108
1274.00,0.0108
1273.00,0.0108
1272.00,0.0109
1271.00,0.0109
1270.00,0.0110
1269.00,0.0110
1268.00,0.0111
1267.00,0.0112
1266.00,0.0114
1265.00,0.0116
1264.00,0.0119
1263.00,0.0122
1262.00,0.0125
1261.00,0.0129
1260.00,0.0134
1259.00,0.0140
1258.00,0.0147
1257.00,0.0152
1256.00,0.0154
1255.00,0.0152
1254.00,0.0146
1253.00,0.0139
1252.00,0.0132
1251.00,0.0126
1250.00,0.0122
1249.00,0.0118
1248.00,0.0115
1247.00,0.0112
1246.00,0.0110
1245.00,0.0109
1244.00,0.0107
1243.00,0.0106
1242.00,0.0105
1241.00,0.0104
1240.00,0.0104
1239.00,0.0104
1238.00,0.0103
1237.00,0.0103
1236.00,0.0103
1235.00,0.0103
1234.00,0.0104
1233.00,0.0105
1232.00,0.0106
1231.00,0.0106
1230.00,0.0107
1229.00,0.0107
1228.00,0.0108
1227.00,0.0109
1226.00,0.0111
1225.00,0.0113
1224.00,0.0116
1223.00,0.0119
1222.00,0.0121
1221.00,0.0123
1220.00,0.0125
1219.00,0.0125
1218.00,0.0124
1217.00,0.0122
1216.00,0.0120
1215.00,0.0117
1214.00,0.0115
1213.00,0.0113
1212.00,0.0112
1211.00,0.0111
1210.00,0.0110
1209.00,0.0110
1208.00,0.0110
1207.00,0.0109
1206.00,0.0109
1205.00,0.0109
1204.00,0.0109
1203.00,0.0109
1202.00,0.0109
1201.00,0.0108
1200.00,0.0107
1199.00,0.0107
1198.00,0.0106
1197.00,0.0106
1196.00,0.0106
1195.00,0.0107
1194.00,0.0108
1193.00,0.0108
1192.00,0.0108
1191.00,0.0108
1190.00,0.0107
1189.00,0.0106
1188.00,0.0105
1187.00,0.0105
1186.00,0.0106
1185.00,0.0107
1184.00,0.0109
1183.00,0.0110
1182.00,0.0112
1181.00,0.0115
1180.00,0.0119
1179.00,0.0124
1178.00,0.0131
1177.00,0.0140
1176.00,0.0151
1175.00,0.0166
1174.00,0.0184
1173.00,0.0208
1172.00,0.0235
1171.00,0.0266
1170.00,0.0296
1169.00,0.0321
1168.00,0.0336
1167.00,0.0341
1166.00,0.0336
1165.00,0.0325
1164.00,0.0311
1163.00,0.0298
1162.00,0.0286
1161.00,0.0275
1160.00,0.0266
1159.00,0.0259
1158.00,0.0253
1157.00,0.0249
1156.00,0.0246
1155.00,0.0244
1154.00,0.0242
1153.00,0.0239
1152.00,0.0234
1151.00,0.0227
1150.00,0.0218
1149.00,0.0209
1148.00,0.0199
1147.00,0.0190
1146.00,0.0182
1145.00,0.0174
1144.00,0.0166
1143.00,0.0159
1142.00,0.0153
1141.00,0.0147
1140.00,0.0142
1139.00,0.0138
1138.00,0.0136
1137.00,0.0134
1136.00,0.0131
1135.00,0.0129
1134.00,0.0128
1133.00,0.0128
1132.00,0.0129
1131.00,0.0129
1130.00,0.0130
1129.00,0.0131
1128.00,0.0133
1127.00,0.0135
1126.00,0.0138
1125.00,0.0140
1124.00,0.0142
1123.00,0.0144
1122.00,0.0145
1121.00,0.0147
1120.00,0.0150
1119.00,0.0152
1118.00,0.0155
1117.00,0.0158
1116.00,0.0161
1115.00,0.0166
1114.00,0.0170
1113.00,0.0174
1112.00,0.0179
1111.00,0.0182
1110.00,0.0185
1109.00,0.0188
1108.00,0.0191
1107.00,0.0195
1106.00,0.0201
1105.00,0.0205
1104.00,0.0208
1103.00,0.0210
1102.00,0.0209
1101.00,0.0204
1100.00,0.0198
1099.00,0.0190
1098.00,0.0183
1097.00,0.0177
1096.00,0.0172
1095.00,0.0167
1094.00,0.0162
1093.00,0.0159
1092.00,0.0156
1091.00,0.0154
1090.00,0.0153
1089.00,0.0152
1088.00,0.0150
1087.00,0.0149
1086.00,0.0148
1085.00,0.0147
1084.00,0.0147
1083.00,0.0147
1082.00,0.0147
1081.00,0.0147
1080.00,0.0147
1079.00,0.0147
1078.00,0.0147
1077.00,0.0147
1076.00,0.0147
1075.00,0.0147
1074.00,0.0147
1073.00,0.0148
1072.00,0.0148
1071.00,0.0149
1070.00,0.0150
1069.00,0.0152
1068.00,0.0154
1067.00,0.0156
1066.00,0.0160
1065.00,0.0163
1064.00,0.0167
1063.00,0.0171
1062.00,0.0175
1061.00,0.0178
1060.00,0.0181
1059.00,0.0183
1058.00,0.0185
1057.00,0.0186
1056.00,0.0187
1055.00,0.0189
1054.00,0.0190
1053.00,0.0191
1052.00,0.0191
1051.00,0.0191
1050.00,0.0191
1049.00,0.0191
1048.00,0.0191
1047.00,0.0190
1046.00,0.0190
1045.00,0.0188
1044.00,0.0187
1043.00,0.0186
1042.00,0.0185
1041.00,0.0184
1040.00,0.0183
1039.00,0.0184
1038.00,0.0187
1037.00,0.0190
1036.00,0.0193
1035.00,0.0195
1034.00,0.0196
1033.00,0.0195
1032.00,0.0194
1031.00,0.0191
1030.00,0.0189
1029.00,0.0188
1028.00,0.0186
1027.00,0.0185
1026.00,0.0184
1025.00,0.0182
1024.00,0.0181
1023.00,0.0179
1022.00,0.0178
1021.00,0.0177
1020.00,0.0176
1019.00,0.0176
1018.00,0.0177
1017.00,0.0179
1016.00,0.0180
1015.00,0.0181
1014.00,0.0182
1013.00,0.0183
1012.00,0.0185
1011.00,0.0187
1010.00,0.0189
1009.00,0.0193
1008.00,0.0198
1007.00,0.0204
1006.00,0.0211
1005.00,0.0221
1004.00,0.0235
1003.00,0.0256
1002.00,0.0285
1001.00,0.0320
1000.00,0.0356
999.00,0.0385
998.00,0.0398
997.00,0.0390
996.00,0.0362
995.00,0.0325
994.00,0.0286
993.00,0.0253
992.00,0.0227
991.00,0.0208
990.00,0.0194
989.00,0.0185
988.00,0.0179
987.00,0.0176
986.00,0.0176
985.00,0.0177
984.00,0.0180
983.00,0.0185
982.00,0.0194
981.00,0.0206
980.00,0.0223
979.00,0.0247
978.00,0.0278
977.00,0.0314
976.00,0.0354
975.00,0.0391
974.00,0.0418
973.00,0.0425
972.00,0.0407
971.00,0.0369
970.00,0.0320
969.00,0.0272
968.00,0.0231
967.00,0.0200
966.00,0.0178
965.00,0.0163
964.00,0.0152
963.00,0.0143
962.00,0.0136
961.00,0.0130
960.00,0.0125
959.00,0.0121
958.00,0.0118
957.00,0.0115
956.00,0.0112
955.00,0.0108
954.00,0.0105
953.00,0.0103
952.00,0.0101
951.00,0.0100
950.00,0.0099
949.00,0.0097
948.00,0.0097
947.00,0.0097
946.00,0.0099
945.00,0.0102
944.00,0.0105
943.00,0.0109
942.00,0.0112
941.00,0.0113
940.00,0.0113
939.00,0.0109
938.00,0.0104
937.00,0.0100
936.00,0.0095
935.00,0.0092
934.00,0.0090
933.00,0.0088
932.00,0.0086
931.00,0.0086
930.00,0.0086
929.00,0.0085
928.00,0.0084
927.00,0.0084
926.00,0.0083
925.00,0.0083
924.00,0.0083
923.00,0.0083
922.00,0.0083
921.00,0.0082
920.00,0.0083
919.00,0.0083
918.00,0.0085
917.00,0.0086
916.00,0.0087
915.00,0.0087
914.00,0.0088
913.00,0.0089
912.00,0.0090
911.00,0.0092
910.00,0.0094
909.00,0.0097
908.00,0.0100
907.00,0.0105
906.00,0.0111
905.00,0.0121
904.00,0.0132
903.00,0.0147
902.00,0.0164
901.00,0.0180
900.00,0.0191
899.00,0.0194
898.00,0.0188
897.00,0.0176
896.00,0.0160
895.00,0.0144
894.00,0.0130
893.00,0.0119
892.00,0.0111
891.00,0.0105
890.00,0.0102
889.00,0.0099
888.00,0.0098
887.00,0.0098
886.00,0.0099
885.00,0.0102
884.00,0.0105
883.00,0.0110
882.00,0.0115
881.00,0.0121
880.00,0.0129
879.00,0.0136
878.00,0.0142
877.00,0.0146
876.00,0.0147
875.00,0.0144
874.00,0.0140
873.00,0.0134
872.00,0.0126
871.00,0.0119
870.00,0.0112
869.00,0.0106
868.00,0.0102
867.00,0.0100
866.00,0.0099
865.00,0.0099
864.00,0.0101
863.00,0.0102
862.00,0.0103
861.00,0.0103
860.00,0.0103
859.00,0.0103
858.00,0.0105
857.00,0.0107
856.00,0.0109
855.00,0.0112
854.00,0.0114
853.00,0.0115
852.00,0.0116
851.00,0.0119
850.00,0.0122
849.00,0.0127
848.00,0.0135
847.00,0.0147
846.00,0.0165
845.00,0.0193
844.00,0.0234
843.00,0.0281
842.00,0.0320
841.00,0.0333
840.00,0.0312
839.00,0.0269
838.00,0.0221
837.00,0.0183
836.00,0.0159
835.00,0.0145
834.00,0.0136
833.00,0.0130
832.00,0.0124
831.00,0.0120
830.00,0.0117
829.00,0.0116
828.00,0.0117
827.00,0.0119
826.00,0.0120
825.00,0.0120
824.00,0.0120
823.00,0.0119
822.00,0.0119
821.00,0.0119
820.00,0.0121
819.00,0.0123
818.00,0.0128
817.00,0.0134
816.00,0.0141
815.00,0.0151
814.00,0.0164
813.00,0.0180
812.00,0.0198
811.00,0.0215
810.00,0.0228
809.00,0.0233
808.00,0.0229
807.00,0.0218
806.00,0.0202
805.00,0.0187
804.00,0.0172
803.00,0.0161
802.00,0.0151
801.00,0.0143
800.00,0.0136
799.00,0.0130
798.00,0.0126
797.00,0.0124
796.00,0.0121
795.00,0.0118
794.00,0.0114
793.00,0.0111
792.00,0.0110
791.00,0.0110
790.00,0.0110
789.00,0.0110
788.00,0.0107
787.00,0.0103
786.00,0.0098
785.00,0.0095
784.00,0.0093
783.00,0.0092
782.00,0.0091
781.00,0.0090
780.00,0.0088
779.00,0.0088
778.00,0.0088
777.00,0.0090
776.00,0.0091
775.00,0.0091
774.00,0.0091
773.00,0.0091
772.00,0.0091
771.00,0.0092
770.00,0.0092
769.00,0.0092
768.00,0.0091
767.00,0.0091
766.00,0.0091
765.00,0.0091
764.00,0.0092
763.00,0.0093
762.00,0.0095
761.00,0.0096
760.00,0.0097
759.00,0.0096
758.00,0.0096
757.00,0.0096
756.00,0.0096
755.00,0.0097
754.00,0.0098
753.00,0.0099
752.00,0.0101
751.00,0.0103
750.00,0.0105
749.00,0.0107
748.00,0.0109
747.00,0.0110
746.00,0.0112
745.00,0.0114
744.00,0.0116
743.00,0.0118
742.00,0.0121
741.00,0.0125
740.00,0.0127
739.00,0.0129
738.00,0.0131
737.00,0.0134
736.00,0.0139
735.00,0.0144
734.00,0.0150
733.00,0.0157
732.00,0.0165
731.00,0.0174
730.00,0.0181
729.00,0.0185
728.00,0.0186
727.00,0.0186
726.00,0.0187
725.00,0.0191
724.00,0.0198
723.00,0.0205
722.00,0.0213
721.00,0.0219
720.00,0.0220
719.00,0.0215
718.00,0.0205
717.00,0.0194
716.00,0.0184
715.00,0.0178
714.00,0.0173
713.00,0.0170
712.00,0.0166
711.00,0.0163
710.00,0.0160
709.00,0.0157
708.00,0.0155
707.00,0.0154
706.00,0.0153
705.00,0.0153
704.00,0.0152
703.00,0.0151
702.00,0.0151
701.00,0.0151
700.00,0.0149
699.00,0.0146
698.00,0.0143
697.00,0.0141
696.00,0.0140
695.00,0.0141
694.00,0.0142
693.00,0.0142
692.00,0.0141
691.00,0.0139
690.00,0.0138
689.00,0.0137
688.00,0.0137
687.00,0.0138
686.00,0.0138
685.00,0.0139
684.00,0.0140
683.00,0.0141
682.00,0.0142
681.00,0.0143
680.00,0.0143
679.00,0.0142
678.00,0.0140
677.00,0.0140
676.00,0.0142
675.00,0.0146
674.00,0.0150
673.00,0.0153
672.00,0.0153
671.00,0.0152
670.00,0.0150
669.00,0.0148
668.00,0.0149
667.00,0.0152
666.00,0.0153
665.00,0.0153
664.00,0.0152
663.00,0.0150
662.00,0.0148
661.00,0.0147
660.00,0.0147
659.00,0.0148
658.00,0.0147
657.00,0.0144
656.00,0.0141
655.00,0.0138
654.00,0.0138
653.00,0.0140
652.00,0.0142
651.00,0.0142
650.00,0.0140
649.00,0.0139
648.00,0.0139
647.00,0.0140
646.00,0.0142
645.00,0.0142
644.00,0.0141
643.00,0.0139
642.00,0.0138
641.00,0.0138
640.00,0.0140
639.00,0.0142
638.00,0.0144
637.00,0.0147
636.00,0.0148
635.00,0.0149
634.00,0.0149
633.00,0.0148
632.00,0.0148
631.00,0.0148
630.00,0.0148
629.00,0.0150
628.00,0.0151
627.00,0.0153
626.00,0.0153
625.00,0.0152
624.00,0.0151
623.00,0.0151
622.00,0.0153
621.00,0.0154
620.00,0.0152
619.00,0.0150
618.00,0.0149
617.00,0.0150
616.00,0.0152
615.00,0.0153
614.00,0.0153
613.00,0.0151
612.00,0.0151
611.00,0.0153
610.00,0.0156
609.00,0.0159
608.00,0.0159
607.00,0.0156
606.00,0.0154
605.00,0.0154
604.00,0.0156
603.00,0.0156
602.00,0.0154
601.00,0.0151
600.00,0.0147
599.00,0.0144
598.00,0.0143
597.00,0.0145
596.00,0.0147
595.00,0.0148
594.00,0.0149
593.00,0.0150
592.00,0.0151
591.00,0.0152
590.00,0.0152
589.00,0.0152
588.00,0.0152
587.00,0.0153
586.00,0.0154
585.00,0.0153
584.00,0.0152
583.00,0.0151
582.00,0.0153
581.00,0.0154
580.00,0.0153
579.00,0.0151
578.00,0.0150
577.00,0.0151
576.00,0.0153
575.00,0.0154
574.00,0.0154
573.00,0.0154
572.00,0.0155
571.00,0.0158
570.00,0.0161
569.00,0.0163
568.00,0.0163
567.00,0.0160
566.00,0.0156
565.00,0.0154
564.00,0.0155
563.00,0.0156
562.00,0.0156
561.00,0.0157
560.00,0.0158
559.00,0.0158
558.00,0.0157
557.00,0.0157
556.00,0.0159
555.00,0.0159
554.00,0.0158
553.00,0.0155
552.00,0.0151
551.00,0.0146
550.00,0.0141
549.00,0.0138
548.00,0.0138
547.00,0.0139
546.00,0.0140
545.00,0.0141
544.00,0.0142
543.00,0.0142
542.00,0.0141
541.00,0.0140
540.00,0.0140
539.00,0.0139
538.00,0.0141
537.00,0.0144
536.00,0.0148
535.00,0.0149
534.00,0.0149
533.00,0.0146
532.00,0.0144
531.00,0.0144
530.00,0.0145
529.00,0.0146
528.00,0.0147
527.00,0.0145
526.00,0.0145
525.00,0.0148
524.00,0.0155
523.00,0.0161
522.00,0.0162
521.00,0.0158
520.00,0.0150
519.00,0.0142
518.00,0.0136
517.00,0.0134
516.00,0.0136
515.00,0.0139
514.00,0.0139
513.00,0.0136
512.00,0.0132
511.00,0.0131
510.00,0.0135
509.00,0.0141
508.00,0.0147
507.00,0.0147
506.00,0.0144
505.00,0.0140
504.00,0.0138
503.00,0.0140
502.00,0.0145
501.00,0.0153
500.00,0.0157
499.00,0.0154
498.00,0.0143
497.00,0.0131
496.00,0.0126
495.00,0.0127
494.00,0.0132
493.00,0.0137
492.00,0.0138
491.00,0.0135
490.00,0.0129
489.00,0.0124
488.00,0.0124
487.00,0.0127
486.00,0.0128
485.00,0.0123
484.00,0.0113
483.00,0.0104
482.00,0.0101
481.00,0.0108
480.00,0.0120
479.00,0.0131
478.00,0.0135
477.00,0.0135
476.00,0.0134
475.00,0.0131
474.00,0.0126
473.00,0.0124
472.00,0.0129
471.00,0.0140
470.00,0.0152
469.00,0.0158
468.00,0.0160
467.00,0.0160
466.00,0.0163
465.00,0.0171
464.00,0.0185
463.00,0.0197
462.00,0.0201
461.00,0.0199
460.00,0.0201
459.00,0.0209
458.00,0.0217
457.00,0.0217
456.00,0.0211
455.00,0.0205
454.00,0.0199
453.00,0.0192
452.00,0.0182
451.00,0.0173
450.00,0.0163
