Created as New Dataset,Sample 088 By Administrator Date Wednesday, September 03 2025
cm-1,A
4000.00,0.0009
3999.00,0.0009
3998.00,0.0009
3997.00,0.0009
3996.00,0.0010
3995.00,0.0010
3994.00,0.0010
3993.00,0.0010
3992.00,0.0010
3991.00,0.0009
3990.00,0.0009
3989.00,0.0009
3988.00,0.0009
3987.00,0.0009
3986.00,0.0008
3985.00,0.0008
3984.00,0.0008
3983.00,0.0008
3982.00,0.0008
3981.00,0.0008
3980.00,0.0008
3979.00,0.0008
3978.00,0.0007
3977.00,0.0007
3976.00,0.0007
3975.00,0.0007
3974.00,0.0007
3973.00,0.0007
3972.00,0.0008
3971.00,0.0008
3970.00,0.0008
3969.00,0.0008
3968.00,0.0008
3967.00,0.0008
3966.00,0.0008
3965.00,0.0008
3964.00,0.0008
3963.00,0.0008
3962.00,0.0007
3961.00,0.0007
3960.00,0.0007
3959.00,0.0007
3958.00,0.0007
3957.00,0.0007
3956.00,0.0008
3955.00,0.0008
3954.00,0.0008
3953.00,0.0007
3952.00,0.0007
3951.00,0.0007
3950.00,0.0006
3949.00,0.0006
3948.00,0.0007
3947.00,0.0007
3946.00,0.0007
3945.00,0.0007
3944.00,0.0007
3943.00,0.0007
3942.00,0.0007
3941.00,0.0007
3940.00,0.0007
3939.00,0.0007
3938.00,0.0007
3937.00,0.0007
3936.00,0.0007
3935.00,0.0007
3934.00,0.0007
3933.00,0.0007
3932.00,0.0007
3931.00,0.0007
3930.00,0.0007
3929.00,0.0007
3928.00,0.0008
3927.00,0.0008
3926.00,0.0008
3925.00,0.0009
3924.00,0.0009
3923.00,0.0009
3922.00,0.0008
3921.00,0.0008
3920.00,0.0008
3919.00,0.0008
3918.00,0.0008
3917.00,0.0007
3916.00,0.0007
3915.00,0.0007
3914.00,0.0007
3913.00,0.0007
3912.00,0.0007
3911.00,0.0007
3910.00,0.0007
3909.00,0.0007
3908.00,0.0006
3907.00,0.0006
3906.00,0.0006
3905.00,0.0006
3904.00,0.0006
3903.00,0.0006
3902.00,0.0006
3901.00,0.0007
3900.00,0.0007
3899.00,0.0007
3898.00,0.0007
3897.00,0.0007
3896.00,0.0007
3895.00,0.0007
3894.00,0.0007
3893.00,0.0007
3892.00,0.0007
3891.00,0.0007
3890.00,0.0007
3889.00,0.0007
3888.00,0.0007
3887.00,0.0007
3886.00,0.0007
3885.00,0.0007
3884.00,0.0007
3883.00,0.0007
3882.00,0.0007
3881.00,0.0007
3880.00,0.0007
3879.00,0.0007
3878.00,0.0007
3877.00,0.0007
3876.00,0.0007
3875.00,0.0007
3874.00,0.0007
3873.00,0.0007
3872.00,0.0007
3871.00,0.0007
3870.00,0.0007
3869.00,0.0008
3868.00,0.0008
3867.00,0.0008
3866.00,0.0007
3865.00,0.0007
3864.00,0.0007
3863.00,0.0007
3862.00,0.0007
3861.00,0.0007
3860.00,0.0007
3859.00,0.0007
3858.00,0.0007
3857.00,0.0007
3856.00,0.0008
3855.00,0.0008
3854.00,0.0008
3853.00,0.0008
3852.00,0.0008
3851.00,0.0008
3850.00,0.0007
3849.00,0.0007
3848.00,0.0007
3847.00,0.0006
3846.00,0.0006
3845.00,0.0006
3844.00,0.0006
3843.00,0.0007
3842.00,0.0007
3841.00,0.0007
3840.00,0.0007
3839.00,0.0008
3838.00,0.0008
3837.00,0.0008
3836.00,0.0008
3835.00,0.0008
3834.00,0.0008
3833.00,0.0008
3832.00,0.0008
3831.00,0.0008
3830.00,0.0008
3829.00,0.0008
3828.00,0.0008
3827.00,0.0008
3826.00,0.0007
3825.00,0.0007
3824.00,0.0006
3823.00,0.0006
3822.00,0.0006
3821.00,0.0007
3820.00,0.0007
3819.00,0.0007
3818.00,0.0007
3817.00,0.0007
3816.00,0.0007
3815.00,0.0008
3814.00,0.0008
3813.00,0.0008
3812.00,0.0007
3811.00,0.0007
3810.00,0.0007
3809.00,0.0008
3808.00,0.0008
3807.00,0.0008
3806.00,0.0008
3805.00,0.0008
3804.00,0.0008
3803.00,0.0008
3802.00,0.0008
3801.00,0.0007
3800.00,0.0007
3799.00,0.0007
3798.00,0.0006
3797.00,0.0007
3796.00,0.0007
3795.00,0.0007
3794.00,0.0007
3793.00,0.0007
3792.00,0.0007
3791.00,0.0007
3790.00,0.0008
3789.00,0.0008
3788.00,0.0008
3787.00,0.0008
3786.00,0.0007
3785.00,0.0007
3784.00,0.0007
3783.00,0.0007
3782.00,0.0006
3781.00,0.0006
3780.00,0.0007
3779.00,0.0007
3778.00,0.0008
3777.00,0.0008
3776.00,0.0008
3775.00,0.0008
3774.00,0.0007
3773.00,0.0007
3772.00,0.0007
3771.00,0.0007
3770.00,0.0007
3769.00,0.0007
3768.00,0.0007
3767.00,0.0007
3766.00,0.0008
3765.00,0.0008
3764.00,0.0008
3763.00,0.0008
3762.00,0.0009
3761.00,0.0009
3760.00,0.0009
3759.00,0.0009
3758.00,0.0008
3757.00,0.0008
3756.00,0.0008
3755.00,0.0008
3754.00,0.0008
3753.00,0.0008
3752.00,0.0007
3751.00,0.0007
3750.00,0.0007
3749.00,0.0007
3748.00,0.0007
3747.00,0.0007
3746.00,0.0007
3745.00,0.0006
3744.00,0.0006
3743.00,0.0006
3742.00,0.0006
3741.00,0.0006
3740.00,0.0006
3739.00,0.0006
3738.00,0.0006
3737.00,0.0006
3736.00,0.0006
3735.00,0.0006
3734.00,0.0006
3733.00,0.0006
3732.00,0.0005
3731.00,0.0005
3730.00,0.0005
3729.00,0.0005
3728.00,0.0005
3727.00,0.0005
3726.00,0.0006
3725.00,0.0006
3724.00,0.0006
3723.00,0.0006
3722.00,0.0006
3721.00,0.0006
3720.00,0.0006
3719.00,0.0006
3718.00,0.0005
3717.00,0.0006
3716.00,0.0006
3715.00,0.0005
3714.00,0.0005
3713.00,0.0005
3712.00,0.0005
3711.00,0.0005
3710.00,0.0005
3709.00,0.0006
3708.00,0.0006
3707.00,0.0005
3706.00,0.0005
3705.00,0.0005
3704.00,0.0005
3703.00,0.0005
3702.00,0.0006
3701.00,0.0005
3700.00,0.0005
3699.00,0.0004
3698.00,0.0004
3697.00,0.0004
3696.00,0.0005
3695.00,0.0005
3694.00,0.0006
3693.00,0.0006
3692.00,0.0006
3691.00,0.0006
3690.00,0.0006
3689.00,0.0006
3688.00,0.0005
3687.00,0.0005
3686.00,0.0005
3685.00,0.0005
3684.00,0.0005
3683.00,0.0005
3682.00,0.0005
3681.00,0.0006
3680.00,0.0006
3679.00,0.0006
3678.00,0.0006
3677.00,0.0006
3676.00,0.0006
3675.00,0.0006
3674.00,0.0007
3673.00,0.0007
3672.00,0.0007
3671.00,0.0007
3670.00,0.0007
3669.00,0.0007
3668.00,0.0006
3667.00,0.0006
3666.00,0.0006
3665.00,0.0006
3664.00,0.0006
3663.00,0.0006
3662.00,0.0005
3661.00,0.0005
3660.00,0.0004
3659.00,0.0004
3658.00,0.0005
3657.00,0.0005
3656.00,0.0006
3655.00,0.0006
3654.00,0.0006
3653.00,0.0006
3652.00,0.0006
3651.00,0.0006
3650.00,0.0006
3649.00,0.0006
3648.00,0.0006
3647.00,0.0005
3646.00,0.0005
3645.00,0.0005
3644.00,0.0006
3643.00,0.0006
3642.00,0.0006
3641.00,0.0006
3640.00,0.0006
3639.00,0.0006
3638.00,0.0005
3637.00,0.0005
3636.00,0.0006
3635.00,0.0006
3634.00,0.0006
3633.00,0.0006
3632.00,0.0006
3631.00,0.0005
3630.00,0.0005
3629.00,0.0005
3628.00,0.0005
3627.00,0.0005
3626.00,0.0005
3625.00,0.0005
3624.00,0.0005
3623.00,0.0005
3622.00,0.0005
3621.00,0.0004
3620.00,0.0004
3619.00,0.0004
3618.00,0.0004
3617.00,0.0005
3616.00,0.0005
3615.00,0.0006
3614.00,0.0006
3613.00,0.0006
3612.00,0.0006
3611.00,0.0006
3610.00,0.0005
3609.00,0.0005
3608.00,0.0005
3607.00,0.0006
3606.00,0.0007
3605.00,0.0007
3604.00,0.0008
3603.00,0.0008
3602.00,0.0008
3601.00,0.0008
3600.00,0.0008
3599.00,0.0007
3598.00,0.0007
3597.00,0.0008
3596.00,0.0008
3595.00,0.0008
3594.00,0.0008
3593.00,0.0007
3592.00,0.0007
3591.00,0.0007
3590.00,0.0007
3589.00,0.0007
3588.00,0.0007
3587.00,0.0008
3586.00,0.0008
3585.00,0.0008
3584.00,0.0009
3583.00,0.0009
3582.00,0.0009
3581.00,0.0009
3580.00,0.0010
3579.00,0.0010
3578.00,0.0010
3577.00,0.0011
3576.00,0.0011
3575.00,0.0010
3574.00,0.0010
3573.00,0.0010
3572.00,0.0010
3571.00,0.0010
3570.00,0.0010
3569.00,0.0010
3568.00,0.0011
3567.00,0.0011
3566.00,0.0011
3565.00,0.0011
3564.00,0.0010
3563.00,0.0011
3562.00,0.0011
3561.00,0.0012
3560.00,0.0012
3559.00,0.0013
3558.00,0.0013
3557.00,0.0013
3556.00,0.0012
3555.00,0.0012
3554.00,0.0012
3553.00,0.0012
3552.00,0.0012
3551.00,0.0012
3550.00,0.0013
3549.00,0.0013
3548.00,0.0013
3547.00,0.0013
3546.00,0.0013
3545.00,0.0013
3544.00,0.0013
3543.00,0.0014
3542.00,0.0014
3541.00,0.0014
3540.00,0.0015
3539.00,0.0015
3538.00,0.0015
3537.00,0.0015
3536.00,0.0015
3535.00,0.0015
3534.00,0.0015
3533.00,0.0015
3532.00,0.0016
3531.00,0.0016
3530.00,0.0017
3529.00,0.0017
3528.00,0.0017
3527.00,0.0017
3526.00,0.0017
3525.00,0.0017
3524.00,0.0017
3523.00,0.0017
3522.00,0.0017
3521.00,0.0017
3520.00,0.0017
3519.00,0.0018
3518.00,0.0018
3517.00,0.0018
3516.00,0.0018
3515.00,0.0018
3514.00,0.0018
3513.00,0.0018
3512.00,0.0018
3511.00,0.0018
3510.00,0.0019
3509.00,0.0019
3508.00,0.0019
3507.00,0.0018
3506.00,0.0018
3505.00,0.0018
3504.00,0.0019
3503.00,0.0019
3502.00,0.0019
3501.00,0.0019
3500.00,0.0019
3499.00,0.0019
3498.00,0.0019
3497.00,0.0020
3496.00,0.0020
3495.00,0.0020
3494.00,0.0020
3493.00,0.0020
3492.00,0.0020
3491.00,0.0020
3490.00,0.0020
3489.00,0.0020
3488.00,0.0020
3487.00,0.0020
3486.00,0.0020
3485.00,0.0020
3484.00,0.0020
3483.00,0.0020
3482.00,0.0020
3481.00,0.0021
3480.00,0.0021
3479.00,0.0021
3478.00,0.0022
3477.00,0.0022
3476.00,0.0022
3475.00,0.0022
3474.00,0.0022
3473.00,0.0022
3472.00,0.0022
3471.00,0.0022
3470.00,0.0022
3469.00,0.0022
3468.00,0.0023
3467.00,0.0023
3466.00,0.0023
3465.00,0.0024
3464.00,0.0024
3463.00,0.0024
3462.00,0.0024
3461.00,0.0025
3460.00,0.0025
3459.00,0.0025
3458.00,0.0024
3457.00,0.0024
3456.00,0.0024
3455.00,0.0025
3454.00,0.0025
3453.00,0.0025
3452.00,0.0025
3451.00,0.0024
3450.00,0.0024
3449.00,0.0025
3448.00,0.0025
3447.00,0.0025
3446.00,0.0025
3445.00,0.0025
3444.00,0.0025
3443.00,0.0026
3442.00,0.0026
3441.00,0.0026
3440.00,0.0026
3439.00,0.0026
3438.00,0.0026
3437.00,0.0027
3436.00,0.0027
3435.00,0.0027
3434.00,0.0027
3433.00,0.0027
3432.00,0.0027
3431.00,0.0027
3430.00,0.0027
3429.00,0.0027
3428.00,0.0027
3427.00,0.0027
3426.00,0.0027
3425.00,0.0027
3424.00,0.0027
3423.00,0.0028
3422.00,0.0028
3421.00,0.0028
3420.00,0.0028
3419.00,0.0028
3418.00,0.0028
3417.00,0.0028
3416.00,0.0029
3415.00,0.0029
3414.00,0.0029
3413.00,0.0030
3412.00,0.0030
3411.00,0.0029
3410.00,0.0029
3409.00,0.0029
3408.00,0.0029
3407.00,0.0030
3406.00,0.0030
3405.00,0.0030
3404.00,0.0030
3403.00,0.0030
3402.00,0.0030
3401.00,0.0030
3400.00,0.0029
3399.00,0.0029
3398.00,0.0029
3397.00,0.0029
3396.00,0.0029
3395.00,0.0029
3394.00,0.0029
3393.00,0.0029
3392.00,0.0030
3391.00,0.0030
3390.00,0.0030
3389.00,0.0030
3388.00,0.0029
3387.00,0.0029
3386.00,0.0029
3385.00,0.0029
3384.00,0.0030
3383.00,0.0030
3382.00,0.0030
3381.00,0.0030
3380.00,0.0030
3379.00,0.0030
3378.00,0.0031
3377.00,0.0031
3376.00,0.0031
3375.00,0.0030
3374.00,0.0030
3373.00,0.0030
3372.00,0.0030
3371.00,0.0031
3370.00,0.0031
3369.00,0.0031
3368.00,0.0031
3367.00,0.0030
3366.00,0.0030
3365.00,0.0030
3364.00,0.0030
3363.00,0.0030
3362.00,0.0030
3361.00,0.0031
3360.00,0.0031
3359.00,0.0031
3358.00,0.0031
3357.00,0.0031
3356.00,0.0031
3355.00,0.0031
3354.00,0.0031
3353.00,0.0031
3352.00,0.0031
3351.00,0.0031
3350.00,0.0031
3349.00,0.0031
3348.00,0.0031
3347.00,0.0031
3346.00,0.0031
3345.00,0.0031
3344.00,0.0031
3343.00,0.0030
3342.00,0.0030
3341.00,0.0030
3340.00,0.0030
3339.00,0.0030
3338.00,0.0030
3337.00,0.0030
3336.00,0.0030
3335.00,0.0030
3334.00,0.0030
3333.00,0.0029
3332.00,0.0029
3331.00,0.0029
3330.00,0.0029
3329.00,0.0029
3328.00,0.0029
3327.00,0.0029
3326.00,0.0029
3325.00,0.0029
3324.00,0.0028
3323.00,0.0028
3322.00,0.0028
3321.00,0.0028
3320.00,0.0029
3319.00,0.0029
3318.00,0.0029
3317.00,0.0028
3316.00,0.0028
3315.00,0.0028
3314.00,0.0029
3313.00,0.0029
3312.00,0.0029
3311.00,0.0029
3310.00,0.0029
3309.00,0.0029
3308.00,0.0029
3307.00,0.0029
3306.00,0.0029
3305.00,0.0029
3304.00,0.0030
3303.00,0.0030
3302.00,0.0031
3301.00,0.0031
3300.00,0.0030
3299.00,0.0030
3298.00,0.0029
3297.00,0.0029
3296.00,0.0028
3295.00,0.0028
3294.00,0.0029
3293.00,0.0029
3292.00,0.0029
3291.00,0.0029
3290.00,0.0029
3289.00,0.0029
3288.00,0.0028
3287.00,0.0028
3286.00,0.0028
3285.00,0.0028
3284.00,0.0029
3283.00,0.0028
3282.00,0.0028
3281.00,0.0028
3280.00,0.0027
3279.00,0.0027
3278.00,0.0027
3277.00,0.0027
3276.00,0.0027
3275.00,0.0027
3274.00,0.0026
3273.00,0.0026
3272.00,0.0026
3271.00,0.0026
3270.00,0.0026
3269.00,0.0026
3268.00,0.0026
3267.00,0.0026
3266.00,0.0026
3265.00,0.0025
3264.00,0.0025
3263.00,0.0025
3262.00,0.0025
3261.00,0.0025
3260.00,0.0025
3259.00,0.0025
3258.00,0.0025
3257.00,0.0025
3256.00,0.0024
3255.00,0.0024
3254.00,0.0024
3253.00,0.0024
3252.00,0.0023
3251.00,0.0023
3250.00,0.0023
3249.00,0.0023
3248.00,0.0023
3247.00,0.0024
3246.00,0.0024
3245.00,0.0024
3244.00,0.0024
3243.00,0.0024
3242.00,0.0024
3241.00,0.0024
3240.00,0.0024
3239.00,0.0024
3238.00,0.0024
3237.00,0.0024
3236.00,0.0024
3235.00,0.0024
3234.00,0.0024
3233.00,0.0023
3232.00,0.0024
3231.00,0.0024
3230.00,0.0024
3229.00,0.0024
3228.00,0.0025
3227.00,0.0025
3226.00,0.0026
3225.00,0.0026
3224.00,0.0026
3223.00,0.0026
3222.00,0.0026
3221.00,0.0026
3220.00,0.0026
3219.00,0.0027
3218.00,0.0027
3217.00,0.0028
3216.00,0.0028
3215.00,0.0028
3214.00,0.0028
3213.00,0.0028
3212.00,0.0028
3211.00,0.0028
3210.00,0.0029
3209.00,0.0029
3208.00,0.0029
3207.00,0.0029
3206.00,0.0029
3205.00,0.0029
3204.00,0.0029
3203.00,0.0029
3202.00,0.0029
3201.00,0.0029
3200.00,0.0029
3199.00,0.0029
3198.00,0.0029
3197.00,0.0029
3196.00,0.0029
3195.00,0.0029
3194.00,0.0029
3193.00,0.0029
3192.00,0.0029
3191.00,0.0029
3190.00,0.0029
3189.00,0.0029
3188.00,0.0028
3187.00,0.0028
3186.00,0.0028
3185.00,0.0028
3184.00,0.0028
3183.00,0.0028
3182.00,0.0028
3181.00,0.0028
3180.00,0.0028
3179.00,0.0028
3178.00,0.0028
3177.00,0.0028
3176.00,0.0027
3175.00,0.0026
3174.00,0.0026
3173.00,0.0026
3172.00,0.0026
3171.00,0.0026
3170.00,0.0026
3169.00,0.0026
3168.00,0.0026
3167.00,0.0027
3166.00,0.0027
3165.00,0.0027
3164.00,0.0027
3163.00,0.0027
3162.00,0.0027
3161.00,0.0027
3160.00,0.0026
3159.00,0.0026
3158.00,0.0026
3157.00,0.0026
3156.00,0.0026
3155.00,0.0026
3154.00,0.0026
3153.00,0.0026
3152.00,0.0026
3151.00,0.0026
3150.00,0.0026
3149.00,0.0027
3148.00,0.0027
3147.00,0.0027
3146.00,0.0027
3145.00,0.0026
3144.00,0.0026
3143.00,0.0026
3142.00,0.0026
3141.00,0.0026
3140.00,0.0026
3139.00,0.0025
3138.00,0.0025
3137.00,0.0025
3136.00,0.0026
3135.00,0.0026
3134.00,0.0026
3133.00,0.0026
3132.00,0.0026
3131.00,0.0025
3130.00,0.0025
3129.00,0.0025
3128.00,0.0025
3127.00,0.0024
3126.00,0.0024
3125.00,0.0023
3124.00,0.0023
3123.00,0.0023
3122.00,0.0023
3121.00,0.0023
3120.00,0.0023
3119.00,0.0023
3118.00,0.0023
3117.00,0.0023
3116.00,0.0022
3115.00,0.0022
3114.00,0.0022
3113.00,0.0022
3112.00,0.0022
3111.00,0.0021
3110.00,0.0021
3109.00,0.0022
3108.00,0.0022
3107.00,0.0022
3106.00,0.0022
3105.00,0.0021
3104.00,0.0021
3103.00,0.0022
3102.00,0.0022
3101.00,0.0022
3100.00,0.0022
3099.00,0.0022
3098.00,0.0022
3097.00,0.0022
3096.00,0.0022
3095.00,0.0022
3094.00,0.0022
3093.00,0.0022
3092.00,0.0022
3091.00,0.0023
3090.00,0.0023
3089.00,0.0023
3088.00,0.0023
3087.00,0.0022
3086.00,0.0022
3085.00,0.0022
3084.00,0.0022
3083.00,0.0022
3082.00,0.0022
3081.00,0.0022
3080.00,0.0022
3079.00,0.0023
3078.00,0.0023
3077.00,0.0023
3076.00,0.0024
3075.00,0.0024
3074.00,0.0024
3073.00,0.0024
3072.00,0.0023
3071.00,0.0023
3070.00,0.0023
3069.00,0.0023
3068.00,0.0024
3067.00,0.0025
3066.00,0.0025
3065.00,0.0025
3064.00,0.0025
3063.00,0.0025
3062.00,0.0025
3061.00,0.0025
3060.00,0.0025
3059.00,0.0025
3058.00,0.0026
3057.00,0.0026
3056.00,0.0027
3055.00,0.0027
3054.00,0.0027
3053.00,0.0027
3052.00,0.0027
3051.00,0.0027
3050.00,0.0027
3049.00,0.0028
3048.00,0.0028
3047.00,0.0028
3046.00,0.0029
3045.00,0.0029
3044.00,0.0030
3043.00,0.0030
3042.00,0.0030
3041.00,0.0031
3040.00,0.0031
3039.00,0.0031
3038.00,0.0031
3037.00,0.0031
3036.00,0.0031
3035.00,0.0032
3034.00,0.0032
3033.00,0.0033
3032.00,0.0033
3031.00,0.0034
3030.00,0.0034
3029.00,0.0034
3028.00,0.0035
3027.00,0.0035
3026.00,0.0036
3025.00,0.0036
3024.00,0.0036
3023.00,0.0037
3022.00,0.0038
3021.00,0.0039
3020.00,0.0040
3019.00,0.0041
3018.00,0.0042
3017.00,0.0043
3016.00,0.0044
3015.00,0.0045
3014.00,0.0046
3013.00,0.0047
3012.00,0.0048
3011.00,0.0049
3010.00,0.0051
3009.00,0.0052
3008.00,0.0054
3007.00,0.0055
3006.00,0.0057
3005.00,0.0059
3004.00,0.0060
3003.00,0.0062
3002.00,0.0064
3001.00,0.0066
3000.00,0.0069
2999.00,0.0071
2998.00,0.0074
2997.00,0.0077
2996.00,0.0081
2995.00,0.0085
2994.00,0.0090
2993.00,0.0094
2992.00,0.0099
2991.00,0.0104
2990.00,0.0110
2989.00,0.0116
2988.00,0.0123
2987.00,0.0132
2986.00,0.0141
2985.00,0.0151
2984.00,0.0163
2983.00,0.0175
2982.00,0.0190
2981.00,0.0206
2980.00,0.0224
2979.00,0.0244
2978.00,0.0268
2977.00,0.0294
2976.00,0.0324
2975.00,0.0358
2974.00,0.0397
2973.00,0.0441
2972.00,0.0490
2971.00,0.0546
2970.00,0.0607
2969.00,0.0673
2968.00,0.0745
2967.00,0.0820
2966.00,0.0897
2965.00,0.0974
2964.00,0.1047
2963.00,0.1113
2962.00,0.1169
2961.00,0.1218
2960.00,0.1259
2959.00,0.1299
2958.00,0.1343
2957.00,0.1396
2956.00,0.1462
2955.00,0.1542
2954.00,0.1633
2953.00,0.1728
2952.00,0.1814
2951.00,0.1880
2950.00,0.1910
2949.00,0.1897
2948.00,0.1838
2947.00,0.1741
2946.00,0.1618
2945.00,0.1485
2944.00,0.1359
2943.00,0.1249
2942.00,0.1164
2941.00,0.1104
2940.00,0.1070
2939.00,0.1060
2938.00,0.1070
2937.00,0.1099
2936.00,0.1146
2935.00,0.1208
2934.00,0.1285
2933.00,0.1375
2932.00,0.1478
2931.00,0.1591
2930.00,0.1712
2929.00,0.1837
2928.00,0.1965
2927.00,0.2091
2926.00,0.2216
2925.00,0.2338
2924.00,0.2461
2923.00,0.2584
2922.00,0.2709
2921.00,0.2832
2920.00,0.2944
2919.00,0.3033
2918.00,0.3085
2917.00,0.3087
2916.00,0.3037
2915.00,0.2941
2914.00,0.2815
2913.00,0.2675
2912.00,0.2535
2911.00,0.2406
2910.00,0.2289
2909.00,0.2185
2908.00,0.2091
2907.00,0.2003
2906.00,0.1920
2905.00,0.1840
2904.00,0.1762
2903.00,0.1686
2902.00,0.1612
2901.00,0.1542
2900.00,0.1475
2899.00,0.1413
2898.00,0.1355
2897.00,0.1303
2896.00,0.1255
2895.00,0.1214
2894.00,0.1179
2893.00,0.1150
2892.00,0.1128
2891.00,0.1111
2890.00,0.1100
2889.00,0.1093
2888.00,0.1091
2887.00,0.1092
2886.00,0.1096
2885.00,0.1105
2884.00,0.1118
2883.00,0.1136
2882.00,0.1159
2881.00,0.1185
2880.00,0.1212
2879.00,0.1235
2878.00,0.1250
2877.00,0.1256
2876.00,0.1253
2875.00,0.1246
2874.00,0.1240
2873.00,0.1239
2872.00,0.1246
2871.00,0.1261
2870.00,0.1282
2869.00,0.1302
2868.00,0.1315
2867.00,0.1313
2866.00,0.1288
2865.00,0.1238
2864.00,0.1167
2863.00,0.1084
2862.00,0.1002
2861.00,0.0929
2860.00,0.0872
2859.00,0.0832
2858.00,0.0809
2857.00,0.0801
2856.00,0.0806
2855.00,0.0820
2854.00,0.0841
2853.00,0.0866
2852.00,0.0893
2851.00,0.0916
2850.00,0.0933
2849.00,0.0942
2848.00,0.0947
2847.00,0.0953
2846.00,0.0966
2845.00,0.0991
2844.00,0.1027
2843.00,0.1073
2842.00,0.1122
2841.00,0.1169
2840.00,0.1206
2839.00,0.1224
2838.00,0.1217
2837.00,0.1181
2836.00,0.1115
2835.00,0.1026
2834.00,0.0923
2833.00,0.0816
2832.00,0.0714
2831.00,0.0624
2830.00,0.0547
2829.00,0.0484
2828.00,0.0433
2827.00,0.0392
2826.00,0.0358
2825.00,0.0331
2824.00,0.0308
2823.00,0.0288
2822.00,0.0272
2821.00,0.0257
2820.00,0.0245
2819.00,0.0234
2818.00,0.0225
2817.00,0.0217
2816.00,0.0209
2815.00,0.0203
2814.00,0.0197
2813.00,0.0191
2812.00,0.0185
2811.00,0.0180
2810.00,0.0174
2809.00,0.0168
2808.00,0.0162
2807.00,0.0155
2806.00,0.0148
2805.00,0.0141
2804.00,0.0134
2803.00,0.0128
2802.00,0.0123
2801.00,0.0119
2800.00,0.0115
2799.00,0.0112
2798.00,0.0109
2797.00,0.0107
2796.00,0.0104
2795.00,0.0101
2794.00,0.0099
2793.00,0.0096
2792.00,0.0093
2791.00,0.0090
2790.00,0.0087
2789.00,0.0084
2788.00,0.0082
2787.00,0.0080
2786.00,0.0078
2785.00,0.0075
2784.00,0.0073
2783.00,0.0071
2782.00,0.0068
2781.00,0.0066
2780.00,0.0064
2779.00,0.0062
2778.00,0.0061
2777.00,0.0060
2776.00,0.0058
2775.00,0.0057
2774.00,0.0057
2773.00,0.0056
2772.00,0.0055
2771.00,0.0055
2770.00,0.0054
2769.00,0.0054
2768.00,0.0054
2767.00,0.0054
2766.00,0.0054
2765.00,0.0054
2764.00,0.0053
2763.00,0.0053
2762.00,0.0053
2761.00,0.0052
2760.00,0.0051
2759.00,0.0051
2758.00,0.0051
2757.00,0.0050
2756.00,0.0050
2755.00,0.0050
2754.00,0.0050
2753.00,0.0050
2752.00,0.0050
2751.00,0.0050
2750.00,0.0050
2749.00,0.0050
2748.00,0.0050
2747.00,0.0050
2746.00,0.0050
2745.00,0.0051
2744.00,0.0051
2743.00,0.0052
2742.00,0.0054
2741.00,0.0055
2740.00,0.0056
2739.00,0.0057
2738.00,0.0058
2737.00,0.0060
2736.00,0.0061
2735.00,0.0063
2734.00,0.0065
2733.00,0.0067
2732.00,0.0069
2731.00,0.0071
2730.00,0.0073
2729.00,0.0075
2728.00,0.0078
2727.00,0.0081
2726.00,0.0083
2725.00,0.0086
2724.00,0.0087
2723.00,0.0088
2722.00,0.0087
2721.00,0.0085
2720.00,0.0082
2719.00,0.0079
2718.00,0.0076
2717.00,0.0073
2716.00,0.0070
2715.00,0.0067
2714.00,0.0065
2713.00,0.0062
2712.00,0.0060
2711.00,0.0058
2710.00,0.0056
2709.00,0.0054
2708.00,0.0052
2707.00,0.0051
2706.00,0.0050
2705.00,0.0049
2704.00,0.0048
2703.00,0.0047
2702.00,0.0046
2701.00,0.0045
2700.00,0.0044
2699.00,0.0044
2698.00,0.0043
2697.00,0.0043
2696.00,0.0043
2695.00,0.0043
2694.00,0.0043
2693.00,0.0043
2692.00,0.0043
2691.00,0.0043
2690.00,0.0043
2689.00,0.0043
2688.00,0.0043
2687.00,0.0043
2686.00,0.0043
2685.00,0.0043
2684.00,0.0043
2683.00,0.0043
2682.00,0.0044
2681.00,0.0044
2680.00,0.0044
2679.00,0.0044
2678.00,0.0044
2677.00,0.0044
2676.00,0.0044
2675.00,0.0044
2674.00,0.0044
2673.00,0.0044
2672.00,0.0044
2671.00,0.0043
2670.00,0.0043
2669.00,0.0043
2668.00,0.0043
2667.00,0.0043
2666.00,0.0044
2665.00,0.0044
2664.00,0.0045
2663.00,0.0046
2662.00,0.0047
2661.00,0.0047
2660.00,0.0047
2659.00,0.0047
2658.00,0.0047
2657.00,0.0047
2656.00,0.0047
2655.00,0.0046
2654.00,0.0045
2653.00,0.0045
2652.00,0.0044
2651.00,0.0044
2650.00,0.0044
2649.00,0.0044
2648.00,0.0044
2647.00,0.0043
2646.00,0.0042
2645.00,0.0041
2644.00,0.0041
2643.00,0.0040
2642.00,0.0040
2641.00,0.0039
2640.00,0.0039
2639.00,0.0038
2638.00,0.0038
2637.00,0.0038
2636.00,0.0038
2635.00,0.0038
2634.00,0.0038
2633.00,0.0038
2632.00,0.0038
2631.00,0.0039
2630.00,0.0039
2629.00,0.0039
2628.00,0.0039
2627.00,0.0039
2626.00,0.0039
2625.00,0.0039
2624.00,0.0039
2623.00,0.0039
2622.00,0.0039
2621.00,0.0039
2620.00,0.0039
2619.00,0.0039
2618.00,0.0039
2617.00,0.0039
2616.00,0.0039
2615.00,0.0039
2614.00,0.0039
2613.00,0.0039
2612.00,0.0038
2611.00,0.0038
2610.00,0.0037
2609.00,0.0037
2608.00,0.0036
2607.00,0.0035
2606.00,0.0035
2605.00,0.0034
2604.00,0.0034
2603.00,0.0033
2602.00,0.0032
2601.00,0.0031
2600.00,0.0031
2599.00,0.0032
2598.00,0.0032
2597.00,0.0032
2596.00,0.0032
2595.00,0.0032
2594.00,0.0032
2593.00,0.0033
2592.00,0.0033
2591.00,0.0034
2590.00,0.0034
2589.00,0.0035
2588.00,0.0036
2587.00,0.0037
2586.00,0.0038
2585.00,0.0039
2584.00,0.0040
2583.00,0.0040
2582.00,0.0040
2581.00,0.0039
2580.00,0.0039
2579.00,0.0038
2578.00,0.0037
2577.00,0.0036
2576.00,0.0035
2575.00,0.0033
2574.00,0.0032
2573.00,0.0031
2572.00,0.0030
2571.00,0.0029
2570.00,0.0028
2569.00,0.0027
2568.00,0.0025
2567.00,0.0024
2566.00,0.0023
2565.00,0.0023
2564.00,0.0023
2563.00,0.0023
2562.00,0.0024
2561.00,0.0024
2560.00,0.0023
2559.00,0.0023
2558.00,0.0023
2557.00,0.0023
2556.00,0.0023
2555.00,0.0022
2554.00,0.0022
2553.00,0.0021
2552.00,0.0020
2551.00,0.0020
2550.00,0.0020
2549.00,0.0020
2548.00,0.0020
2547.00,0.0019
2546.00,0.0018
2545.00,0.0017
2544.00,0.0016
2543.00,0.0016
2542.00,0.0017
2541.00,0.0017
2540.00,0.0017
2539.00,0.0017
2538.00,0.0016
2537.00,0.0016
2536.00,0.0015
2535.00,0.0015
2534.00,0.0016
2533.00,0.0016
2532.00,0.0016
2531.00,0.0016
2530.00,0.0016
2529.00,0.0016
2528.00,0.0016
2527.00,0.0015
2526.00,0.0015
2525.00,0.0014
2524.00,0.0014
2523.00,0.0013
2522.00,0.0013
2521.00,0.0013
2520.00,0.0012
2519.00,0.0012
2518.00,0.0012
2517.00,0.0012
2516.00,0.0011
2515.00,0.0011
2514.00,0.0010
2513.00,0.0010
2512.00,0.0010
2511.00,0.0010
2510.00,0.0010
2509.00,0.0010
2508.00,0.0010
2507.00,0.0010
2506.00,0.0010
2505.00,0.0010
2504.00,0.0011
2503.00,0.0012
2502.00,0.0012
2501.00,0.0011
2500.00,0.0010
2499.00,0.0010
2498.00,0.0010
2497.00,0.0011
2496.00,0.0012
2495.00,0.0012
2494.00,0.0012
2493.00,0.0011
2492.00,0.0011
2491.00,0.0011
2490.00,0.0010
2489.00,0.0010
2488.00,0.0010
2487.00,0.0010
2486.00,0.0010
2485.00,0.0009
2484.00,0.0009
2483.00,0.0009
2482.00,0.0009
2481.00,0.0009
2480.00,0.0009
2479.00,0.0009
2478.00,0.0009
2477.00,0.0009
2476.00,0.0009
2475.00,0.0010
2474.00,0.0010
2473.00,0.0010
2472.00,0.0009
2471.00,0.0009
2470.00,0.0010
2469.00,0.0010
2468.00,0.0010
2467.00,0.0010
2466.00,0.0010
2465.00,0.0010
2464.00,0.0010
2463.00,0.0010
2462.00,0.0010
2461.00,0.0010
2460.00,0.0011
2459.00,0.0011
2458.00,0.0011
2457.00,0.0011
2456.00,0.0011
2455.00,0.0011
2454.00,0.0011
2453.00,0.0011
2452.00,0.0010
2451.00,0.0010
2450.00,0.0010
2449.00,0.0010
2448.00,0.0010
2447.00,0.0011
2446.00,0.0011
2445.00,0.0011
2444.00,0.0011
2443.00,0.0011
2442.00,0.0010
2441.00,0.0010
2440.00,0.0010
2439.00,0.0010
2438.00,0.0010
2437.00,0.0010
2436.00,0.0011
2435.00,0.0011
2434.00,0.0011
2433.00,0.0010
2432.00,0.0010
2431.00,0.0010
2430.00,0.0010
2429.00,0.0011
2428.00,0.0012
2427.00,0.0012
2426.00,0.0012
2425.00,0.0012
2424.00,0.0011
2423.00,0.0011
2422.00,0.0010
2421.00,0.0010
2420.00,0.0009
2419.00,0.0008
2418.00,0.0008
2417.00,0.0008
2416.00,0.0008
2415.00,0.0009
2414.00,0.0009
2413.00,0.0009
2412.00,0.0009
2411.00,0.0009
2410.00,0.0009
2409.00,0.0009
2408.00,0.0009
2407.00,0.0008
2406.00,0.0008
2405.00,0.0008
2404.00,0.0009
2403.00,0.0009
2402.00,0.0009
2401.00,0.0008
2400.00,0.0008
2399.00,0.0007
2398.00,0.0007
2397.00,0.0007
2396.00,0.0007
2395.00,0.0007
2394.00,0.0006
2393.00,0.0006
2392.00,0.0006
2391.00,0.0007
2390.00,0.0007
2389.00,0.0007
2388.00,0.0008
2387.00,0.0008
2386.00,0.0008
2385.00,0.0007
2384.00,0.0007
2383.00,0.0006
2382.00,0.0006
2381.00,0.0005
2380.00,0.0005
2379.00,0.0005
2378.00,0.0005
2377.00,0.0005
2376.00,0.0006
2375.00,0.0006
2374.00,0.0006
2373.00,0.0006
2372.00,0.0006
2371.00,0.0006
2370.00,0.0006
2369.00,0.0005
2368.00,0.0005
2367.00,0.0005
2366.00,0.0006
2365.00,0.0006
2364.00,0.0006
2363.00,0.0006
2362.00,0.0007
2361.00,0.0007
2360.00,0.0008
2359.00,0.0008
2358.00,0.0009
2357.00,0.0009
2356.00,0.0009
2355.00,0.0008
2354.00,0.0008
2353.00,0.0007
2352.00,0.0007
2351.00,0.0007
2350.00,0.0007
2349.00,0.0008
2348.00,0.0009
2347.00,0.0009
2346.00,0.0009
2345.00,0.0009
2344.00,0.0010
2343.00,0.0010
2342.00,0.0010
2341.00,0.0010
2340.00,0.0010
2339.00,0.0010
2338.00,0.0010
2337.00,0.0010
2336.00,0.0010
2335.00,0.0009
2334.00,0.0009
2333.00,0.0008
2332.00,0.0008
2331.00,0.0008
2330.00,0.0009
2329.00,0.0010
2328.00,0.0011
2327.00,0.0014
2326.00,0.0018
2325.00,0.0022
2324.00,0.0024
2323.00,0.0024
2322.00,0.0022
2321.00,0.0019
2320.00,0.0018
2319.00,0.0017
2318.00,0.0015
2317.00,0.0015
2316.00,0.0014
2315.00,0.0014
2314.00,0.0013
2313.00,0.0013
2312.00,0.0013
2311.00,0.0012
2310.00,0.0012
2309.00,0.0012
2308.00,0.0012
2307.00,0.0012
2306.00,0.0012
2305.00,0.0012
2304.00,0.0011
2303.00,0.0011
2302.00,0.0011
2301.00,0.0012
2300.00,0.0012
2299.00,0.0012
2298.00,0.0012
2297.00,0.0012
2296.00,0.0012
2295.00,0.0013
2294.00,0.0014
2293.00,0.0015
2292.00,0.0016
2291.00,0.0016
2290.00,0.0017
2289.00,0.0017
2288.00,0.0018
2287.00,0.0018
2286.00,0.0018
2285.00,0.0018
2284.00,0.0018
2283.00,0.0017
2282.00,0.0016
2281.00,0.0016
2280.00,0.0016
2279.00,0.0015
2278.00,0.0015
2277.00,0.0015
2276.00,0.0015
2275.00,0.0014
2274.00,0.0013
2273.00,0.0013
2272.00,0.0012
2271.00,0.0012
2270.00,0.0012
2269.00,0.0012
2268.00,0.0012
2267.00,0.0013
2266.00,0.0013
2265.00,0.0012
2264.00,0.0012
2263.00,0.0012
2262.00,0.0012
2261.00,0.0012
2260.00,0.0012
2259.00,0.0012
2258.00,0.0012
2257.00,0.0012
2256.00,0.0012
2255.00,0.0011
2254.00,0.0009
2253.00,0.0009
2252.00,0.0009
2251.00,0.0010
2250.00,0.0011
2249.00,0.0011
2248.00,0.0011
2247.00,0.0009
2246.00,0.0008
2245.00,0.0008
2244.00,0.0008
2243.00,0.0008
2242.00,0.0007
2241.00,0.0006
2240.00,0.0006
2239.00,0.0006
2238.00,0.0007
2237.00,0.0008
2236.00,0.0008
2235.00,0.0008
2234.00,0.0009
2233.00,0.0009
2232.00,0.0010
2231.00,0.0010
2230.00,0.0010
2229.00,0.0010
2228.00,0.0009
2227.00,0.0008
2226.00,0.0007
2225.00,0.0007
2224.00,0.0006
2223.00,0.0005
2222.00,0.0004
2221.00,0.0003
2220.00,0.0003
2219.00,0.0002
2218.00,0.0002
2217.00,0.0002
2216.00,0.0003
2215.00,0.0004
2214.00,0.0004
2213.00,0.0005
2212.00,0.0005
2211.00,0.0005
2210.00,0.0004
2209.00,0.0003
2208.00,0.0002
2207.00,0.0001
2206.00,0.0000
2205.00,-0.0000
2204.00,0.0001
2203.00,0.0003
2202.00,0.0006
2201.00,0.0010
2200.00,0.0012
2199.00,0.0013
2198.00,0.0013
2197.00,0.0011
2196.00,0.0010
2195.00,0.0009
2194.00,0.0008
2193.00,0.0009
2192.00,0.0009
2191.00,0.0009
2190.00,0.0009
2189.00,0.0009
2188.00,0.0009
2187.00,0.0009
2186.00,0.0008
2185.00,0.0006
2184.00,0.0004
2183.00,0.0002
2182.00,0.0001
2181.00,0.0002
2180.00,0.0004
2179.00,0.0006
2178.00,0.0007
2177.00,0.0007
2176.00,0.0005
2175.00,0.0004
2174.00,0.0003
2173.00,0.0004
2172.00,0.0007
2171.00,0.0009
2170.00,0.0013
2169.00,0.0016
2168.00,0.0018
2167.00,0.0019
2166.00,0.0019
2165.00,0.0019
2164.00,0.0020
2163.00,0.0021
2162.00,0.0021
2161.00,0.0016
2160.00,0.0005
2159.00,-0.0010
2158.00,-0.0022
2157.00,-0.0028
2156.00,-0.0027
2155.00,-0.0023
2154.00,-0.0020
2153.00,-0.0018
2152.00,-0.0017
2151.00,-0.0016
2150.00,-0.0016
2149.00,-0.0016
2148.00,-0.0016
2147.00,-0.0017
2146.00,-0.0016
2145.00,-0.0015
2144.00,-0.0014
2143.00,-0.0013
2142.00,-0.0013
2141.00,-0.0013
2140.00,-0.0013
2139.00,-0.0012
2138.00,-0.0012
2137.00,-0.0012
2136.00,-0.0014
2135.00,-0.0015
2134.00,-0.0016
2133.00,-0.0016
2132.00,-0.0016
2131.00,-0.0015
2130.00,-0.0014
2129.00,-0.0013
2128.00,-0.0012
2127.00,-0.0011
2126.00,-0.0010
2125.00,-0.0009
2124.00,-0.0008
2123.00,-0.0008
2122.00,-0.0008
2121.00,-0.0007
2120.00,-0.0006
2119.00,-0.0006
2118.00,-0.0004
2117.00,-0.0002
2116.00,0.0001
2115.00,0.0003
2114.00,0.0003
2113.00,0.0003
2112.00,0.0003
2111.00,0.0004
2110.00,0.0004
2109.00,0.0004
2108.00,0.0003
2107.00,0.0003
2106.00,0.0003
2105.00,0.0004
2104.00,0.0005
2103.00,0.0005
2102.00,0.0006
2101.00,0.0006
2100.00,0.0006
2099.00,0.0004
2098.00,0.0003
2097.00,0.0001
2096.00,-0.0000
2095.00,-0.0001
2094.00,-0.0000
2093.00,-0.0000
2092.00,-0.0000
2091.00,-0.0001
2090.00,-0.0001
2089.00,-0.0001
2088.00,-0.0000
2087.00,0.0000
2086.00,0.0001
2085.00,0.0001
2084.00,0.0001
2083.00,0.0001
2082.00,0.0002
2081.00,0.0002
2080.00,0.0002
2079.00,0.0003
2078.00,0.0003
2077.00,0.0003
2076.00,0.0003
2075.00,0.0002
2074.00,0.0002
2073.00,0.0003
2072.00,0.0004
2071.00,0.0003
2070.00,0.0002
2069.00,0.0000
2068.00,-0.0000
2067.00,-0.0001
2066.00,0.0000
2065.00,0.0001
2064.00,0.0002
2063.00,0.0001
2062.00,0.0001
2061.00,0.0001
2060.00,0.0002
2059.00,0.0001
2058.00,0.0001
2057.00,0.0001
2056.00,0.0002
2055.00,0.0004
2054.00,0.0006
2053.00,0.0009
2052.00,0.0012
2051.00,0.0014
2050.00,0.0013
2049.00,0.0009
2048.00,0.0005
2047.00,0.0003
2046.00,0.0003
2045.00,0.0004
2044.00,0.0004
2043.00,0.0003
2042.00,0.0001
2041.00,-0.0000
2040.00,-0.0000
2039.00,0.0001
2038.00,0.0003
2037.00,0.0005
2036.00,0.0006
2035.00,0.0004
2034.00,-0.0001
2033.00,-0.0006
2032.00,-0.0011
2031.00,-0.0014
2030.00,-0.0015
2029.00,-0.0015
2028.00,-0.0014
2027.00,-0.0014
2026.00,-0.0013
2025.00,-0.0012
2024.00,-0.0011
2023.00,-0.0009
2022.00,-0.0010
2021.00,-0.0011
2020.00,-0.0013
2019.00,-0.0014
2018.00,-0.0015
2017.00,-0.0014
2016.00,-0.0012
2015.00,-0.0011
2014.00,-0.0011
2013.00,-0.0011
2012.00,-0.0011
2011.00,-0.0011
2010.00,-0.0012
2009.00,-0.0014
2008.00,-0.0018
2007.00,-0.0022
2006.00,-0.0024
2005.00,-0.0021
2004.00,-0.0017
2003.00,-0.0013
2002.00,-0.0012
2001.00,-0.0014
2000.00,-0.0015
1999.00,-0.0016
1998.00,-0.0015
1997.00,-0.0012
1996.00,-0.0009
1995.00,-0.0006
1994.00,-0.0006
1993.00,-0.0008
1992.00,-0.0010
1991.00,-0.0010
1990.00,-0.0009
1989.00,-0.0007
1988.00,-0.0005
1987.00,-0.0003
1986.00,-0.0001
1985.00,0.0002
1984.00,0.0003
1983.00,0.0005
1982.00,0.0008
1981.00,0.0011
1980.00,0.0010
1979.00,0.0004
1978.00,-0.0005
1977.00,-0.0012
1976.00,-0.0015
1975.00,-0.0014
1974.00,-0.0012
1973.00,-0.0011
1972.00,-0.0010
1971.00,-0.0012
1970.00,-0.0013
1969.00,-0.0014
1968.00,-0.0014
1967.00,-0.0014
1966.00,-0.0013
1965.00,-0.0012
1964.00,-0.0010
1963.00,-0.0009
1962.00,-0.0009
1961.00,-0.0011
1960.00,-0.0014
1959.00,-0.0018
1958.00,-0.0020
1957.00,-0.0020
1956.00,-0.0019
1955.00,-0.0017
1954.00,-0.0015
1953.00,-0.0012
1952.00,-0.0011
1951.00,-0.0011
1950.00,-0.0011
1949.00,-0.0012
1948.00,-0.0013
1947.00,-0.0013
1946.00,-0.0014
1945.00,-0.0014
1944.00,-0.0014
1943.00,-0.0013
1942.00,-0.0013
1941.00,-0.0012
1940.00,-0.0012
1939.00,-0.0012
1938.00,-0.0013
1937.00,-0.0014
1936.00,-0.0014
1935.00,-0.0013
1934.00,-0.0012
1933.00,-0.0010
1932.00,-0.0008
1931.00,-0.0007
1930.00,-0.0007
1929.00,-0.0008
1928.00,-0.0007
1927.00,-0.0007
1926.00,-0.0007
1925.00,-0.0007
1924.00,-0.0006
1923.00,-0.0005
1922.00,-0.0005
1921.00,-0.0003
1920.00,-0.0002
1919.00,-0.0002
1918.00,-0.0002
1917.00,-0.0001
1916.00,-0.0001
1915.00,-0.0001
1914.00,-0.0002
1913.00,-0.0003
1912.00,-0.0003
1911.00,-0.0003
1910.00,-0.0002
1909.00,-0.0002
1908.00,-0.0002
1907.00,-0.0003
1906.00,-0.0003
1905.00,-0.0004
1904.00,-0.0004
1903.00,-0.0003
1902.00,-0.0003
1901.00,-0.0003
1900.00,-0.0003
1899.00,-0.0003
1898.00,-0.0003
1897.00,-0.0003
1896.00,-0.0002
1895.00,-0.0001
1894.00,-0.0001
1893.00,-0.0001
1892.00,-0.0001
1891.00,-0.0002
1890.00,-0.0003
1889.00,-0.0003
1888.00,-0.0002
1887.00,-0.0002
1886.00,-0.0001
1885.00,-0.0001
1884.00,-0.0001
1883.00,-0.0002
1882.00,-0.0002
1881.00,-0.0001
1880.00,-0.0001
1879.00,-0.0001
1878.00,-0.0002
1877.00,-0.0002
1876.00,-0.0003
1875.00,-0.0004
1874.00,-0.0004
1873.00,-0.0003
1872.00,-0.0001
1871.00,0.0001
1870.00,0.0002
1869.00,0.0002
1868.00,0.0002
1867.00,0.0001
1866.00,0.0001
1865.00,0.0001
1864.00,0.0001
1863.00,0.0001
1862.00,0.0001
1861.00,0.0000
1860.00,-0.0000
1859.00,-0.0000
1858.00,-0.0000
1857.00,0.0000
1856.00,0.0001
1855.00,0.0001
1854.00,0.0001
1853.00,0.0001
1852.00,0.0001
1851.00,0.0001
1850.00,0.0001
1849.00,0.0001
1848.00,0.0001
1847.00,0.0001
1846.00,0.0001
1845.00,0.0002
1844.00,0.0002
1843.00,0.0002
1842.00,0.0002
1841.00,0.0002
1840.00,0.0002
1839.00,0.0002
1838.00,0.0002
1837.00,0.0002
1836.00,0.0003
1835.00,0.0002
1834.00,0.0002
1833.00,0.0003
1832.00,0.0003
1831.00,0.0004
1830.00,0.0004
1829.00,0.0004
1828.00,0.0004
1827.00,0.0004
1826.00,0.0004
1825.00,0.0004
1824.00,0.0004
1823.00,0.0003
1822.00,0.0003
1821.00,0.0003
1820.00,0.0002
1819.00,0.0001
1818.00,-0.0001
1817.00,-0.0002
1816.00,-0.0002
1815.00,-0.0001
1814.00,0.0000
1813.00,0.0002
1812.00,0.0002
1811.00,0.0003
1810.00,0.0003
1809.00,0.0003
1808.00,0.0003
1807.00,0.0003
1806.00,0.0003
1805.00,0.0003
1804.00,0.0004
1803.00,0.0004
1802.00,0.0004
1801.00,0.0005
1800.00,0.0005
1799.00,0.0005
1798.00,0.0004
1797.00,0.0004
1796.00,0.0005
1795.00,0.0006
1794.00,0.0006
1793.00,0.0007
1792.00,0.0008
1791.00,0.0008
1790.00,0.0008
1789.00,0.0007
1788.00,0.0007
1787.00,0.0007
1786.00,0.0007
1785.00,0.0007
1784.00,0.0007
1783.00,0.0007
1782.00,0.0007
1781.00,0.0008
1780.00,0.0008
1779.00,0.0008
1778.00,0.0008
1777.00,0.0007
1776.00,0.0008
1775.00,0.0008
1774.00,0.0008
1773.00,0.0008
1772.00,0.0008
1771.00,0.0008
1770.00,0.0008
1769.00,0.0009
1768.00,0.0009
1767.00,0.0009
1766.00,0.0009
1765.00,0.0009
1764.00,0.0009
1763.00,0.0010
1762.00,0.0010
1761.00,0.0010
1760.00,0.0011
1759.00,0.0011
1758.00,0.0012
1757.00,0.0012
1756.00,0.0012
1755.00,0.0012
1754.00,0.0012
1753.00,0.0012
1752.00,0.0013
1751.00,0.0013
1750.00,0.0014
1749.00,0.0015
1748.00,0.0016
1747.00,0.0016
1746.00,0.0016
1745.00,0.0015
1744.00,0.0016
1743.00,0.0016
1742.00,0.0016
1741.00,0.0015
1740.00,0.0015
1739.00,0.0014
1738.00,0.0015
1737.00,0.0016
1736.00,0.0016
1735.00,0.0016
1734.00,0.0016
1733.00,0.0016
1732.00,0.0017
1731.00,0.0017
1730.00,0.0018
1729.00,0.0018
1728.00,0.0018
1727.00,0.0018
1726.00,0.0019
1725.00,0.0019
1724.00,0.0020
1723.00,0.0020
1722.00,0.0020
1721.00,0.0021
1720.00,0.0021
1719.00,0.0020
1718.00,0.0020
1717.00,0.0020
1716.00,0.0020
1715.00,0.0020
1714.00,0.0019
1713.00,0.0019
1712.00,0.0018
1711.00,0.0018
1710.00,0.0018
1709.00,0.0018
1708.00,0.0018
1707.00,0.0019
1706.00,0.0019
1705.00,0.0020
1704.00,0.0020
1703.00,0.0021
1702.00,0.0021
1701.00,0.0021
1700.00,0.0021
1699.00,0.0022
1698.00,0.0022
1697.00,0.0022
1696.00,0.0023
1695.00,0.0023
1694.00,0.0023
1693.00,0.0023
1692.00,0.0023
1691.00,0.0024
1690.00,0.0024
1689.00,0.0025
1688.00,0.0025
1687.00,0.0025
1686.00,0.0025
1685.00,0.0025
1684.00,0.0025
1683.00,0.0026
1682.00,0.0027
1681.00,0.0028
1680.00,0.0028
1679.00,0.0029
1678.00,0.0029
1677.00,0.0030
1676.00,0.0030
1675.00,0.0030
1674.00,0.0030
1673.00,0.0030
1672.00,0.0030
1671.00,0.0030
1670.00,0.0030
1669.00,0.0030
1668.00,0.0029
1667.00,0.0029
1666.00,0.0029
1665.00,0.0030
1664.00,0.0030
1663.00,0.0031
1662.00,0.0031
1661.00,0.0032
1660.00,0.0032
1659.00,0.0032
1658.00,0.0033
1657.00,0.0034
1656.00,0.0036
1655.00,0.0038
1654.00,0.0039
1653.00,0.0039
1652.00,0.0038
1651.00,0.0037
1650.00,0.0037
1649.00,0.0037
1648.00,0.0037
1647.00,0.0038
1646.00,0.0039
1645.00,0.0040
1644.00,0.0041
1643.00,0.0041
1642.00,0.0041
1641.00,0.0042
1640.00,0.0043
1639.00,0.0044
1638.00,0.0045
1637.00,0.0045
1636.00,0.0045
1635.00,0.0045
1634.00,0.0045
1633.00,0.0045
1632.00,0.0045
1631.00,0.0044
1630.00,0.0044
1629.00,0.0043
1628.00,0.0043
1627.00,0.0043
1626.00,0.0042
1625.00,0.0042
1624.00,0.0042
1623.00,0.0041
1622.00,0.0041
1621.00,0.0041
1620.00,0.0041
1619.00,0.0041
1618.00,0.0041
1617.00,0.0040
1616.00,0.0040
1615.00,0.0040
1614.00,0.0040
1613.00,0.0040
1612.00,0.0040
1611.00,0.0040
1610.00,0.0039
1609.00,0.0039
1608.00,0.0039
1607.00,0.0039
1606.00,0.0039
1605.00,0.0040
1604.00,0.0039
1603.00,0.0039
1602.00,0.0038
1601.00,0.0038
1600.00,0.0039
1599.00,0.0039
1598.00,0.0039
1597.00,0.0040
1596.00,0.0040
1595.00,0.0041
1594.00,0.0041
1593.00,0.0042
1592.00,0.0042
1591.00,0.0042
1590.00,0.0043
1589.00,0.0044
1588.00,0.0046
1587.00,0.0047
1586.00,0.0050
1585.00,0.0052
1584.00,0.0055
1583.00,0.0058
1582.00,0.0061
1581.00,0.0064
1580.00,0.0068
1579.00,0.0071
1578.00,0.0073
1577.00,0.0074
1576.00,0.0073
1575.00,0.0072
1574.00,0.0071
1573.00,0.0070
1572.00,0.0068
1571.00,0.0065
1570.00,0.0062
1569.00,0.0059
1568.00,0.0058
1567.00,0.0057
1566.00,0.0055
1565.00,0.0054
1564.00,0.0053
1563.00,0.0053
1562.00,0.0053
1561.00,0.0053
1560.00,0.0053
1559.00,0.0053
1558.00,0.0054
1557.00,0.0055
1556.00,0.0055
1555.00,0.0055
1554.00,0.0055
1553.00,0.0056
1552.00,0.0057
1551.00,0.0058
1550.00,0.0060
1549.00,0.0063
1548.00,0.0065
1547.00,0.0068
1546.00,0.0071
1545.00,0.0075
1544.00,0.0079
1543.00,0.0082
1542.00,0.0085
1541.00,0.0086
1540.00,0.0086
1539.00,0.0083
1538.00,0.0079
1537.00,0.0076
1536.00,0.0073
1535.00,0.0069
1534.00,0.0065
1533.00,0.0061
1532.00,0.0059
1531.00,0.0057
1530.00,0.0055
1529.00,0.0054
1528.00,0.0053
1527.00,0.0052
1526.00,0.0051
1525.00,0.0051
1524.00,0.0051
1523.00,0.0052
1522.00,0.0052
1521.00,0.0052
1520.00,0.0053
1519.00,0.0053
1518.00,0.0054
1517.00,0.0055
1516.00,0.0056
1515.00,0.0057
1514.00,0.0057
1513.00,0.0058
1512.00,0.0059
1511.00,0.0059
1510.00,0.0059
1509.00,0.0060
1508.00,0.0062
1507.00,0.0063
1506.00,0.0064
1505.00,0.0064
1504.00,0.0065
1503.00,0.0065
1502.00,0.0067
1501.00,0.0069
1500.00,0.0072
1499.00,0.0074
1498.00,0.0076
1497.00,0.0080
1496.00,0.0083
1495.00,0.0086
1494.00,0.0089
1493.00,0.0092
1492.00,0.0096
1491.00,0.0100
1490.00,0.0104
1489.00,0.0110
1488.00,0.0117
1487.00,0.0122
1486.00,0.0128
1485.00,0.0135
1484.00,0.0143
1483.00,0.0151
1482.00,0.0162
1481.00,0.0175
1480.00,0.0189
1479.00,0.0202
1478.00,0.0219
1477.00,0.0240
1476.00,0.0267
1475.00,0.0299
1474.00,0.0340
1473.00,0.0399
1472.00,0.0466
1471.00,0.0531
1470.00,0.0594
1469.00,0.0661
1468.00,0.0734
1467.00,0.0815
1466.00,0.0908
1465.00,0.1007
1464.00,0.1093
1463.00,0.1151
1462.00,0.1185
1461.00,0.1205
1460.00,0.1217
1459.00,0.1221
1458.00,0.1221
1457.00,0.1216
1456.00,0.1204
1455.00,0.1189
1454.00,0.1171
1453.00,0.1148
1452.00,0.1115
1451.00,0.1072
1450.00,0.1016
1449.00,0.0943
1448.00,0.0854
1447.00,0.0761
1446.00,0.0679
1445.00,0.0609
1444.00,0.0550
1443.00,0.0502
1442.00,0.0466
1441.00,0.0443
1440.00,0.0430
1439.00,0.0427
1438.00,0.0432
1437.00,0.0438
1436.00,0.0433
1435.00,0.0411
1434.00,0.0375
1433.00,0.0330
1432.00,0.0284
1431.00,0.0242
1430.00,0.0210
1429.00,0.0187
1428.00,0.0171
1427.00,0.0161
1426.00,0.0154
1425.00,0.0148
1424.00,0.0142
1423.00,0.0139
1422.00,0.0137
1421.00,0.0135
1420.00,0.0131
1419.00,0.0128
1418.00,0.0126
1417.00,0.0123
1416.00,0.0120
1415.00,0.0118
1414.00,0.0117
1413.00,0.0115
1412.00,0.0113
1411.00,0.0112
1410.00,0.0112
1409.00,0.0110
1408.00,0.0109
1407.00,0.0109
1406.00,0.0110
1405.00,0.0110
1404.00,0.0110
1403.00,0.0110
1402.00,0.0111
1401.00,0.0112
1400.00,0.0112
1399.00,0.0114
1398.00,0.0116
1397.00,0.0118
1396.00,0.0121
1395.00,0.0125
1394.00,0.0130
1393.00,0.0135
1392.00,0.0140
1391.00,0.0147
1390.00,0.0157
1389.00,0.0172
1388.00,0.0192
1387.00,0.0223
1386.00,0.0265
1385.00,0.0320
1384.00,0.0397
1383.00,0.0508
1382.00,0.0661
1381.00,0.0862
1380.00,0.1116
1379.00,0.1412
1378.00,0.1705
1377.00,0.1929
1376.00,0.2016
1375.00,0.1924
1374.00,0.1682
1373.00,0.1383
1372.00,0.1107
1371.00,0.0880
1370.00,0.0699
1369.00,0.0565
1368.00,0.0473
1367.00,0.0417
1366.00,0.0387
1365.00,0.0375
1364.00,0.0378
1363.00,0.0392
1362.00,0.0415
1361.00,0.0439
1360.00,0.0458
1359.00,0.0463
1358.00,0.0453
1357.00,0.0426
1356.00,0.0387
1355.00,0.0344
1354.00,0.0303
1353.00,0.0268
1352.00,0.0239
1351.00,0.0216
1350.00,0.0197
1349.00,0.0182
1348.00,0.0169
1347.00,0.0158
1346.00,0.0149
1345.00,0.0142
1344.00,0.0136
1343.00,0.0131
1342.00,0.0127
1341.00,0.0123
1340.00,0.0121
1339.00,0.0119
1338.00,0.0118
1337.00,0.0117
1336.00,0.0118
1335.00,0.0120
1334.00,0.0123
1333.00,0.0127
1332.00,0.0131
1331.00,0.0135
1330.00,0.0136
1329.00,0.0134
1328.00,0.0130
1327.00,0.0124
1326.00,0.0118
1325.00,0.0112
1324.00,0.0106
1323.00,0.0102
1322.00,0.0098
1321.00,0.0095
1320.00,0.0093
1319.00,0.0091
1318.00,0.0089
1317.00,0.0088
1316.00,0.0086
1315.00,0.0086
1314.00,0.0085
1313.00,0.0085
1312.00,0.0085
1311.00,0.0087
1310.00,0.0089
1309.00,0.0093
1308.00,0.0100
1307.00,0.0107
1306.00,0.0115
1305.00,0.0120
1304.00,0.0123
1303.00,0.0123
1302.00,0.0121
1301.00,0.0120
1300.00,0.0120
1299.00,0.0121
1298.00,0.0123
1297.00,0.0124
1296.00,0.0124
1295.00,0.0122
1294.00,0.0119
1293.00,0.0114
1292.00,0.0108
1291.00,0.0103
1290.00,0.0098
1289.00,0.0093
1288.00,0.0090
1287.00,0.0087
1286.00,0.0085
1285.00,0.0083
1284.00,0.0081
1283.00,0.0079
1282.00,0.0078
1281.00,0.0077
1280.00,0.0076
1279.00,0.0076
1278.00,0.0075
1277.00,0.0074
1276.00,0.0074
1275.00,0.0073
1274.00,0.0073
1273.00,0.0073
1272.00,0.0074
1271.00,0.0075
1270.00,0.0075
1269.00,0.0076
1268.00,0.0077
1267.00,0.0078
1266.00,0.0080
1265.00,0.0082
1264.00,0.0085
1263.00,0.0087
1262.00,0.0090
1261.00,0.0093
1260.00,0.0096
1259.00,0.0101
1258.00,0.0106
1257.00,0.0110
1256.00,0.0111
1255.00,0.0109
1254.00,0.0105
1253.00,0.0099
1252.00,0.0094
1251.00,0.0090
1250.00,0.0086
1249.00,0.0083
1248.00,0.0080
1247.00,0.0078
1246.00,0.0076
1245.00,0.0075
1244.00,0.0074
1243.00,0.0073
1242.00,0.0072
1241.00,0.0072
1240.00,0.0071
1239.00,0.0071
1238.00,0.0071
1237.00,0.0071
1236.00,0.0071
1235.00,0.0071
1234.00,0.0072
1233.00,0.0072
1232.00,0.0073
1231.00,0.0074
1230.00,0.0075
1229.00,0.0076
1228.00,0.0077
1227.00,0.0079
1226.00,0.0082
1225.00,0.0085
1224.00,0.0089
1223.00,0.0093
1222.00,0.0096
1221.00,0.0100
1220.00,0.0101
1219.00,0.0101
1218.00,0.0099
1217.00,0.0096
1216.00,0.0093
1215.00,0.0090
1214.00,0.0086
1213.00,0.0084
1212.00,0.0082
1211.00,0.0080
1210.00,0.0078
1209.00,0.0077
1208.00,0.0076
1207.00,0.0076
1206.00,0.0075
1205.00,0.0074
1204.00,0.0073
1203.00,0.0072
1202.00,0.0072
1201.00,0.0072
1200.00,0.0072
1199.00,0.0073
1198.00,0.0073
1197.00,0.0073
1196.00,0.0073
1195.00,0.0073
1194.00,0.0073
1193.00,0.0073
1192.00,0.0073
1191.00,0.0073
1190.00,0.0072
1189.00,0.0072
1188.00,0.0071
1187.00,0.0071
1186.00,0.0071
1185.00,0.0072
1184.00,0.0072
1183.00,0.0073
1182.00,0.0075
1181.00,0.0076
1180.00,0.0079
1179.00,0.0082
1178.00,0.0086
1177.00,0.0091
1176.00,0.0099
1175.00,0.0109
1174.00,0.0123
1173.00,0.0140
1172.00,0.0161
1171.00,0.0184
1170.00,0.0206
1169.00,0.0224
1168.00,0.0235
1167.00,0.0239
1166.00,0.0235
1165.00,0.0227
1164.00,0.0217
1163.00,0.0207
1162.00,0.0199
1161.00,0.0192
1160.00,0.0187
1159.00,0.0183
1158.00,0.0181
1157.00,0.0179
1156.00,0.0179
1155.00,0.0180
1154.00,0.0181
1153.00,0.0181
1152.00,0.0178
1151.00,0.0173
1150.00,0.0164
1149.00,0.0154
1148.00,0.0144
1147.00,0.0135
1146.00,0.0127
1145.00,0.0119
1144.00,0.0112
1143.00,0.0105
1142.00,0.0099
1141.00,0.0094
1140.00,0.0090
1139.00,0.0086
1138.00,0.0083
1137.00,0.0080
1136.00,0.0077
1135.00,0.0075
1134.00,0.0073
1133.00,0.0072
1132.00,0.0071
1131.00,0.0071
1130.00,0.0071
1129.00,0.0071
1128.00,0.0071
1127.00,0.0071
1126.00,0.0072
1125.00,0.0072
1124.00,0.0072
1123.00,0.0072
1122.00,0.0073
1121.00,0.0073
1120.00,0.0074
1119.00,0.0074
1118.00,0.0075
1117.00,0.0075
1116.00,0.0076
1115.00,0.0078
1114.00,0.0079
1113.00,0.0082
1112.00,0.0085
1111.00,0.0088
1110.00,0.0091
1109.00,0.0094
1108.00,0.0099
1107.00,0.0105
1106.00,0.0112
1105.00,0.0119
1104.00,0.0124
1103.00,0.0126
1102.00,0.0125
1101.00,0.0122
1100.00,0.0116
1099.00,0.0109
1098.00,0.0103
1097.00,0.0098
1096.00,0.0093
1095.00,0.0089
1094.00,0.0086
1093.00,0.0082
1092.00,0.0079
1091.00,0.0077
1090.00,0.0075
1089.00,0.0075
1088.00,0.0074
1087.00,0.0074
1086.00,0.0074
1085.00,0.0073
1084.00,0.0074
1083.00,0.0073
1082.00,0.0073
1081.00,0.0072
1080.00,0.0071
1079.00,0.0070
1078.00,0.0069
1077.00,0.0068
1076.00,0.0067
1075.00,0.0066
1074.00,0.0066
1073.00,0.0066
1072.00,0.0066
1071.00,0.0066
1070.00,0.0065
1069.00,0.0065
1068.00,0.0065
1067.00,0.0064
1066.00,0.0063
1065.00,0.0064
1064.00,0.0064
1063.00,0.0065
1062.00,0.0066
1061.00,0.0066
1060.00,0.0066
1059.00,0.0065
1058.00,0.0066
1057.00,0.0066
1056.00,0.0067
1055.00,0.0068
1054.00,0.0069
1053.00,0.0069
1052.00,0.0069
1051.00,0.0070
1050.00,0.0071
1049.00,0.0072
1048.00,0.0074
1047.00,0.0075
1046.00,0.0077
1045.00,0.0079
1044.00,0.0080
1043.00,0.0080
1042.00,0.0080
1041.00,0.0079
1040.00,0.0077
1039.00,0.0077
1038.00,0.0077
1037.00,0.0079
1036.00,0.0079
1035.00,0.0079
1034.00,0.0078
1033.00,0.0076
1032.00,0.0074
1031.00,0.0072
1030.00,0.0071
1029.00,0.0070
1028.00,0.0070
1027.00,0.0071
1026.00,0.0071
1025.00,0.0071
1024.00,0.0071
1023.00,0.0071
1022.00,0.0070
1021.00,0.0070
1020.00,0.0070
1019.00,0.0071
1018.00,0.0073
1017.00,0.0075
1016.00,0.0076
1015.00,0.0078
1014.00,0.0080
1013.00,0.0082
1012.00,0.0084
1011.00,0.0086
1010.00,0.0088
1009.00,0.0091
1008.00,0.0095
1007.00,0.0099
1006.00,0.0105
1005.00,0.0112
1004.00,0.0123
1003.00,0.0138
1002.00,0.0159
1001.00,0.0183
1000.00,0.0208
999.00,0.0229
998.00,0.0239
997.00,0.0234
996.00,0.0215
995.00,0.0190
994.00,0.0164
993.00,0.0141
992.00,0.0123
991.00,0.0110
990.00,0.0100
989.00,0.0094
988.00,0.0091
987.00,0.0090
986.00,0.0090
985.00,0.0092
984.00,0.0096
983.00,0.0102
982.00,0.0112
981.00,0.0126
980.00,0.0144
979.00,0.0168
978.00,0.0198
977.00,0.0232
976.00,0.0266
975.00,0.0296
974.00,0.0316
973.00,0.0319
972.00,0.0304
971.00,0.0274
970.00,0.0238
969.00,0.0201
968.00,0.0171
967.00,0.0147
966.00,0.0130
965.00,0.0118
964.00,0.0109
963.00,0.0102
962.00,0.0097
961.00,0.0092
960.00,0.0089
959.00,0.0086
958.00,0.0084
957.00,0.0082
956.00,0.0079
955.00,0.0078
954.00,0.0076
953.00,0.0075
952.00,0.0074
951.00,0.0074
950.00,0.0073
949.00,0.0072
948.00,0.0072
947.00,0.0072
946.00,0.0073
945.00,0.0076
944.00,0.0081
943.00,0.0086
942.00,0.0091
941.00,0.0094
940.00,0.0093
939.00,0.0090
938.00,0.0085
937.00,0.0079
936.00,0.0074
935.00,0.0069
934.00,0.0065
933.00,0.0062
932.00,0.0060
931.00,0.0059
930.00,0.0059
929.00,0.0059
928.00,0.0059
927.00,0.0058
926.00,0.0058
925.00,0.0058
924.00,0.0058
923.00,0.0058
922.00,0.0058
921.00,0.0057
920.00,0.0057
919.00,0.0057
918.00,0.0058
917.00,0.0059
916.00,0.0061
915.00,0.0062
914.00,0.0063
913.00,0.0064
912.00,0.0066
911.00,0.0068
910.00,0.0071
909.00,0.0074
908.00,0.0077
907.00,0.0082
906.00,0.0090
905.00,0.0100
904.00,0.0115
903.00,0.0133
902.00,0.0154
901.00,0.0173
900.00,0.0186
899.00,0.0189
898.00,0.0181
897.00,0.0164
896.00,0.0143
895.00,0.0124
894.00,0.0107
893.00,0.0095
892.00,0.0087
891.00,0.0080
890.00,0.0076
889.00,0.0073
888.00,0.0070
887.00,0.0068
886.00,0.0067
885.00,0.0067
884.00,0.0067
883.00,0.0068
882.00,0.0069
881.00,0.0070
880.00,0.0071
879.00,0.0072
878.00,0.0072
877.00,0.0072
876.00,0.0073
875.00,0.0074
874.00,0.0074
873.00,0.0074
872.00,0.0074
871.00,0.0074
870.00,0.0074
869.00,0.0074
868.00,0.0074
867.00,0.0074
866.00,0.0074
865.00,0.0074
864.00,0.0075
863.00,0.0077
862.00,0.0078
861.00,0.0078
860.00,0.0078
859.00,0.0079
858.00,0.0080
857.00,0.0083
856.00,0.0085
855.00,0.0086
854.00,0.0087
853.00,0.0088
852.00,0.0089
851.00,0.0091
850.00,0.0093
849.00,0.0097
848.00,0.0103
847.00,0.0111
846.00,0.0124
845.00,0.0143
844.00,0.0171
843.00,0.0203
842.00,0.0229
841.00,0.0236
840.00,0.0221
839.00,0.0192
838.00,0.0160
837.00,0.0135
836.00,0.0119
835.00,0.0110
834.00,0.0104
833.00,0.0101
832.00,0.0099
831.00,0.0097
830.00,0.0095
829.00,0.0093
828.00,0.0092
827.00,0.0092
826.00,0.0094
825.00,0.0095
824.00,0.0097
823.00,0.0097
822.00,0.0097
821.00,0.0097
820.00,0.0099
819.00,0.0102
818.00,0.0107
817.00,0.0114
816.00,0.0123
815.00,0.0135
814.00,0.0151
813.00,0.0172
812.00,0.0194
811.00,0.0215
810.00,0.0230
809.00,0.0235
808.00,0.0230
807.00,0.0215
806.00,0.0197
805.00,0.0177
804.00,0.0160
803.00,0.0145
802.00,0.0132
801.00,0.0122
800.00,0.0115
799.00,0.0109
798.00,0.0105
797.00,0.0101
796.00,0.0099
795.00,0.0095
794.00,0.0091
793.00,0.0088
792.00,0.0085
791.00,0.0084
790.00,0.0082
789.00,0.0080
788.00,0.0077
787.00,0.0074
786.00,0.0071
785.00,0.0067
784.00,0.0064
783.00,0.0063
782.00,0.0062
781.00,0.0062
780.00,0.0062
779.00,0.0063
778.00,0.0064
777.00,0.0065
776.00,0.0065
775.00,0.0065
774.00,0.0064
773.00,0.0064
772.00,0.0064
771.00,0.0065
770.00,0.0065
769.00,0.0065
768.00,0.0065
767.00,0.0065
766.00,0.0064
765.00,0.0064
764.00,0.0065
763.00,0.0066
762.00,0.0068
761.00,0.0070
760.00,0.0070
759.00,0.0070
758.00,0.0069
757.00,0.0068
756.00,0.0068
755.00,0.0068
754.00,0.0068
753.00,0.0068
752.00,0.0069
751.00,0.0071
750.00,0.0074
749.00,0.0077
748.00,0.0080
747.00,0.0083
746.00,0.0084
745.00,0.0084
744.00,0.0084
743.00,0.0085
742.00,0.0087
741.00,0.0091
740.00,0.0095
739.00,0.0098
738.00,0.0100
737.00,0.0103
736.00,0.0107
735.00,0.0112
734.00,0.0118
733.00,0.0125
732.00,0.0134
731.00,0.0143
730.00,0.0150
729.00,0.0154
728.00,0.0154
727.00,0.0154
726.00,0.0155
725.00,0.0158
724.00,0.0165
723.00,0.0173
722.00,0.0181
721.00,0.0186
720.00,0.0186
719.00,0.0178
718.00,0.0164
717.00,0.0149
716.00,0.0136
715.00,0.0128
714.00,0.0122
713.00,0.0116
712.00,0.0110
711.00,0.0105
710.00,0.0102
709.00,0.0101
708.00,0.0101
707.00,0.0100
706.00,0.0098
705.00,0.0096
704.00,0.0095
703.00,0.0094
702.00,0.0094
701.00,0.0093
700.00,0.0092
699.00,0.0090
698.00,0.0090
697.00,0.0090
696.00,0.0091
695.00,0.0092
694.00,0.0093
693.00,0.0093
692.00,0.0093
691.00,0.0092
690.00,0.0091
689.00,0.0090
688.00,0.0089
687.00,0.0089
686.00,0.0090
685.00,0.0090
684.00,0.0089
683.00,0.0089
682.00,0.0088
681.00,0.0087
680.00,0.0086
679.00,0.0085
678.00,0.0085
677.00,0.0086
676.00,0.0088
675.00,0.0090
674.00,0.0092
673.00,0.0093
672.00,0.0093
671.00,0.0092
670.00,0.0091
669.00,0.0089
668.00,0.0088
667.00,0.0087
666.00,0.0086
665.00,0.0085
664.00,0.0084
663.00,0.0084
662.00,0.0085
661.00,0.0087
660.00,0.0087
659.00,0.0086
658.00,0.0084
657.00,0.0081
656.00,0.0078
655.00,0.0076
654.00,0.0077
653.00,0.0079
652.00,0.0081
651.00,0.0082
650.00,0.0083
649.00,0.0084
648.00,0.0084
647.00,0.0084
646.00,0.0082
645.00,0.0079
644.00,0.0077
643.00,0.0076
642.00,0.0075
641.00,0.0076
640.00,0.0078
639.00,0.0080
638.00,0.0082
637.00,0.0084
636.00,0.0084
635.00,0.0084
634.00,0.0083
633.00,0.0082
632.00,0.0081
631.00,0.0081
630.00,0.0081
629.00,0.0082
628.00,0.0084
627.00,0.0087
626.00,0.0088
625.00,0.0087
624.00,0.0086
623.00,0.0084
622.00,0.0083
621.00,0.0082
620.00,0.0080
619.00,0.0078
618.00,0.0076
617.00,0.0075
616.00,0.0075
615.00,0.0074
614.00,0.0075
613.00,0.0076
612.00,0.0077
611.00,0.0078
610.00,0.0079
609.00,0.0080
608.00,0.0079
607.00,0.0077
606.00,0.0078
605.00,0.0080
604.00,0.0081
603.00,0.0080
602.00,0.0078
601.00,0.0076
600.00,0.0076
599.00,0.0076
598.00,0.0077
597.00,0.0077
596.00,0.0079
595.00,0.0082
594.00,0.0085
593.00,0.0085
592.00,0.0084
591.00,0.0082
590.00,0.0079
589.00,0.0076
588.00,0.0073
587.00,0.0071
586.00,0.0069
585.00,0.0068
584.00,0.0070
583.00,0.0073
582.00,0.0077
581.00,0.0080
580.00,0.0079
579.00,0.0076
578.00,0.0074
577.00,0.0076
576.00,0.0079
575.00,0.0081
574.00,0.0081
573.00,0.0080
572.00,0.0079
571.00,0.0080
570.00,0.0083
569.00,0.0086
568.00,0.0087
567.00,0.0084
566.00,0.0079
565.00,0.0074
564.00,0.0071
563.00,0.0071
562.00,0.0072
561.00,0.0075
560.00,0.0076
559.00,0.0077
558.00,0.0076
557.00,0.0076
556.00,0.0077
555.00,0.0079
554.00,0.0078
553.00,0.0075
552.00,0.0070
551.00,0.0066
550.00,0.0065
549.00,0.0067
548.00,0.0071
547.00,0.0073
546.00,0.0075
545.00,0.0074
544.00,0.0074
543.00,0.0074
542.00,0.0076
541.00,0.0077
540.00,0.0076
539.00,0.0073
538.00,0.0068
537.00,0.0066
536.00,0.0069
535.00,0.0075
534.00,0.0080
533.00,0.0081
532.00,0.0078
531.00,0.0078
530.00,0.0081
529.00,0.0087
528.00,0.0090
527.00,0.0090
526.00,0.0088
525.00,0.0087
524.00,0.0087
523.00,0.0087
522.00,0.0085
521.00,0.0084
520.00,0.0081
519.00,0.0075
518.00,0.0069
517.00,0.0064
516.00,0.0063
515.00,0.0063
514.00,0.0063
513.00,0.0062
512.00,0.0061
511.00,0.0062
510.00,0.0068
509.00,0.0075
508.00,0.0081
507.00,0.0084
506.00,0.0084
505.00,0.0083
504.00,0.0084
503.00,0.0087
502.00,0.0092
501.00,0.0094
500.00,0.0093
499.00,0.0087
498.00,0.0079
497.00,0.0073
496.00,0.0070
495.00,0.0071
494.00,0.0075
493.00,0.0078
492.00,0.0074
491.00,0.0066
490.00,0.0059
489.00,0.0058
488.00,0.0063
487.00,0.0066
486.00,0.0063
485.00,0.0053
484.00,0.0042
483.00,0.0036
482.00,0.0038
481.00,0.0045
480.00,0.0053
479.00,0.0060
478.00,0.0067
477.00,0.0075
476.00,0.0083
475.00,0.0089
474.00,0.0090
473.00,0.0089
472.00,0.0087
471.00,0.0084
470.00,0.0079
469.00,0.0075
468.00,0.0077
467.00,0.0087
466.00,0.0102
465.00,0.0118
464.00,0.0132
463.00,0.0147
462.00,0.0158
461.00,0.0163
460.00,0.0162
459.00,0.0158
458.00,0.0152
457.00,0.0142
456.00,0.0136
455.00,0.0132
454.00,0.0131
453.00,0.0130
452.00,0.0125
451.00,0.0116
450.00,0.0107
