Created as New Dataset,Sample 086 By Administrator Date Wednesday, September 03 2025
cm-1,A
4000.00,0.0009
3999.00,0.0010
3998.00,0.0010
3997.00,0.0010
3996.00,0.0010
3995.00,0.0010
3994.00,0.0010
3993.00,0.0010
3992.00,0.0009
3991.00,0.0009
3990.00,0.0009
3989.00,0.0009
3988.00,0.0009
3987.00,0.0009
3986.00,0.0009
3985.00,0.0008
3984.00,0.0008
3983.00,0.0008
3982.00,0.0008
3981.00,0.0008
3980.00,0.0008
3979.00,0.0008
3978.00,0.0008
3977.00,0.0008
3976.00,0.0008
3975.00,0.0008
3974.00,0.0008
3973.00,0.0008
3972.00,0.0008
3971.00,0.0008
3970.00,0.0008
3969.00,0.0009
3968.00,0.0008
3967.00,0.0008
3966.00,0.0008
3965.00,0.0008
3964.00,0.0008
3963.00,0.0007
3962.00,0.0007
3961.00,0.0007
3960.00,0.0007
3959.00,0.0007
3958.00,0.0007
3957.00,0.0008
3956.00,0.0008
3955.00,0.0008
3954.00,0.0008
3953.00,0.0008
3952.00,0.0007
3951.00,0.0007
3950.00,0.0006
3949.00,0.0006
3948.00,0.0006
3947.00,0.0006
3946.00,0.0006
3945.00,0.0006
3944.00,0.0006
3943.00,0.0006
3942.00,0.0007
3941.00,0.0007
3940.00,0.0007
3939.00,0.0007
3938.00,0.0007
3937.00,0.0007
3936.00,0.0007
3935.00,0.0007
3934.00,0.0007
3933.00,0.0008
3932.00,0.0008
3931.00,0.0008
3930.00,0.0008
3929.00,0.0008
3928.00,0.0008
3927.00,0.0008
3926.00,0.0008
3925.00,0.0008
3924.00,0.0008
3923.00,0.0008
3922.00,0.0008
3921.00,0.0008
3920.00,0.0008
3919.00,0.0008
3918.00,0.0008
3917.00,0.0008
3916.00,0.0008
3915.00,0.0007
3914.00,0.0007
3913.00,0.0007
3912.00,0.0007
3911.00,0.0007
3910.00,0.0007
3909.00,0.0007
3908.00,0.0007
3907.00,0.0007
3906.00,0.0007
3905.00,0.0008
3904.00,0.0008
3903.00,0.0008
3902.00,0.0008
3901.00,0.0008
3900.00,0.0008
3899.00,0.0008
3898.00,0.0008
3897.00,0.0008
3896.00,0.0008
3895.00,0.0008
3894.00,0.0008
3893.00,0.0008
3892.00,0.0007
3891.00,0.0007
3890.00,0.0007
3889.00,0.0007
3888.00,0.0008
3887.00,0.0008
3886.00,0.0007
3885.00,0.0007
3884.00,0.0007
3883.00,0.0007
3882.00,0.0007
3881.00,0.0008
3880.00,0.0008
3879.00,0.0008
3878.00,0.0008
3877.00,0.0008
3876.00,0.0008
3875.00,0.0008
3874.00,0.0007
3873.00,0.0007
3872.00,0.0007
3871.00,0.0007
3870.00,0.0007
3869.00,0.0007
3868.00,0.0007
3867.00,0.0007
3866.00,0.0007
3865.00,0.0007
3864.00,0.0007
3863.00,0.0007
3862.00,0.0007
3861.00,0.0007
3860.00,0.0008
3859.00,0.0008
3858.00,0.0008
3857.00,0.0008
3856.00,0.0008
3855.00,0.0009
3854.00,0.0008
3853.00,0.0008
3852.00,0.0008
3851.00,0.0008
3850.00,0.0008
3849.00,0.0008
3848.00,0.0008
3847.00,0.0008
3846.00,0.0007
3845.00,0.0007
3844.00,0.0007
3843.00,0.0006
3842.00,0.0006
3841.00,0.0006
3840.00,0.0007
3839.00,0.0007
3838.00,0.0007
3837.00,0.0007
3836.00,0.0008
3835.00,0.0008
3834.00,0.0008
3833.00,0.0008
3832.00,0.0008
3831.00,0.0008
3830.00,0.0008
3829.00,0.0008
3828.00,0.0008
3827.00,0.0008
3826.00,0.0007
3825.00,0.0007
3824.00,0.0007
3823.00,0.0007
3822.00,0.0007
3821.00,0.0008
3820.00,0.0008
3819.00,0.0008
3818.00,0.0009
3817.00,0.0008
3816.00,0.0008
3815.00,0.0008
3814.00,0.0008
3813.00,0.0008
3812.00,0.0008
3811.00,0.0007
3810.00,0.0007
3809.00,0.0007
3808.00,0.0007
3807.00,0.0008
3806.00,0.0008
3805.00,0.0008
3804.00,0.0007
3803.00,0.0007
3802.00,0.0006
3801.00,0.0006
3800.00,0.0006
3799.00,0.0007
3798.00,0.0007
3797.00,0.0007
3796.00,0.0007
3795.00,0.0007
3794.00,0.0007
3793.00,0.0007
3792.00,0.0007
3791.00,0.0007
3790.00,0.0008
3789.00,0.0008
3788.00,0.0008
3787.00,0.0008
3786.00,0.0008
3785.00,0.0008
3784.00,0.0007
3783.00,0.0007
3782.00,0.0006
3781.00,0.0006
3780.00,0.0006
3779.00,0.0007
3778.00,0.0007
3777.00,0.0008
3776.00,0.0008
3775.00,0.0008
3774.00,0.0008
3773.00,0.0008
3772.00,0.0008
3771.00,0.0008
3770.00,0.0008
3769.00,0.0008
3768.00,0.0008
3767.00,0.0008
3766.00,0.0008
3765.00,0.0008
3764.00,0.0008
3763.00,0.0008
3762.00,0.0008
3761.00,0.0008
3760.00,0.0008
3759.00,0.0008
3758.00,0.0008
3757.00,0.0008
3756.00,0.0007
3755.00,0.0007
3754.00,0.0008
3753.00,0.0008
3752.00,0.0008
3751.00,0.0008
3750.00,0.0008
3749.00,0.0008
3748.00,0.0008
3747.00,0.0008
3746.00,0.0008
3745.00,0.0007
3744.00,0.0007
3743.00,0.0007
3742.00,0.0006
3741.00,0.0006
3740.00,0.0006
3739.00,0.0006
3738.00,0.0006
3737.00,0.0006
3736.00,0.0006
3735.00,0.0006
3734.00,0.0006
3733.00,0.0006
3732.00,0.0006
3731.00,0.0006
3730.00,0.0006
3729.00,0.0006
3728.00,0.0006
3727.00,0.0006
3726.00,0.0006
3725.00,0.0006
3724.00,0.0006
3723.00,0.0006
3722.00,0.0006
3721.00,0.0006
3720.00,0.0006
3719.00,0.0006
3718.00,0.0006
3717.00,0.0006
3716.00,0.0006
3715.00,0.0007
3714.00,0.0007
3713.00,0.0006
3712.00,0.0005
3711.00,0.0005
3710.00,0.0006
3709.00,0.0006
3708.00,0.0006
3707.00,0.0006
3706.00,0.0006
3705.00,0.0005
3704.00,0.0005
3703.00,0.0005
3702.00,0.0005
3701.00,0.0005
3700.00,0.0005
3699.00,0.0005
3698.00,0.0005
3697.00,0.0005
3696.00,0.0005
3695.00,0.0005
3694.00,0.0005
3693.00,0.0006
3692.00,0.0006
3691.00,0.0006
3690.00,0.0006
3689.00,0.0006
3688.00,0.0007
3687.00,0.0007
3686.00,0.0007
3685.00,0.0007
3684.00,0.0007
3683.00,0.0007
3682.00,0.0006
3681.00,0.0006
3680.00,0.0006
3679.00,0.0006
3678.00,0.0006
3677.00,0.0006
3676.00,0.0006
3675.00,0.0006
3674.00,0.0007
3673.00,0.0007
3672.00,0.0007
3671.00,0.0007
3670.00,0.0006
3669.00,0.0005
3668.00,0.0005
3667.00,0.0006
3666.00,0.0006
3665.00,0.0006
3664.00,0.0005
3663.00,0.0005
3662.00,0.0005
3661.00,0.0004
3660.00,0.0004
3659.00,0.0003
3658.00,0.0003
3657.00,0.0004
3656.00,0.0004
3655.00,0.0004
3654.00,0.0005
3653.00,0.0005
3652.00,0.0005
3651.00,0.0005
3650.00,0.0005
3649.00,0.0005
3648.00,0.0005
3647.00,0.0005
3646.00,0.0006
3645.00,0.0006
3644.00,0.0006
3643.00,0.0006
3642.00,0.0006
3641.00,0.0006
3640.00,0.0005
3639.00,0.0005
3638.00,0.0005
3637.00,0.0004
3636.00,0.0004
3635.00,0.0004
3634.00,0.0004
3633.00,0.0004
3632.00,0.0004
3631.00,0.0004
3630.00,0.0004
3629.00,0.0004
3628.00,0.0004
3627.00,0.0005
3626.00,0.0005
3625.00,0.0004
3624.00,0.0003
3623.00,0.0003
3622.00,0.0002
3621.00,0.0002
3620.00,0.0003
3619.00,0.0003
3618.00,0.0004
3617.00,0.0004
3616.00,0.0004
3615.00,0.0004
3614.00,0.0004
3613.00,0.0004
3612.00,0.0004
3611.00,0.0004
3610.00,0.0004
3609.00,0.0004
3608.00,0.0004
3607.00,0.0005
3606.00,0.0005
3605.00,0.0006
3604.00,0.0006
3603.00,0.0006
3602.00,0.0005
3601.00,0.0005
3600.00,0.0005
3599.00,0.0005
3598.00,0.0005
3597.00,0.0005
3596.00,0.0005
3595.00,0.0005
3594.00,0.0005
3593.00,0.0005
3592.00,0.0006
3591.00,0.0006
3590.00,0.0005
3589.00,0.0005
3588.00,0.0005
3587.00,0.0005
3586.00,0.0006
3585.00,0.0006
3584.00,0.0006
3583.00,0.0006
3582.00,0.0006
3581.00,0.0006
3580.00,0.0007
3579.00,0.0007
3578.00,0.0007
3577.00,0.0008
3576.00,0.0008
3575.00,0.0007
3574.00,0.0007
3573.00,0.0007
3572.00,0.0007
3571.00,0.0007
3570.00,0.0007
3569.00,0.0007
3568.00,0.0006
3567.00,0.0006
3566.00,0.0006
3565.00,0.0006
3564.00,0.0007
3563.00,0.0007
3562.00,0.0008
3561.00,0.0008
3560.00,0.0009
3559.00,0.0009
3558.00,0.0009
3557.00,0.0009
3556.00,0.0008
3555.00,0.0008
3554.00,0.0007
3553.00,0.0007
3552.00,0.0007
3551.00,0.0008
3550.00,0.0008
3549.00,0.0009
3548.00,0.0009
3547.00,0.0009
3546.00,0.0010
3545.00,0.0010
3544.00,0.0010
3543.00,0.0010
3542.00,0.0011
3541.00,0.0011
3540.00,0.0011
3539.00,0.0011
3538.00,0.0011
3537.00,0.0011
3536.00,0.0011
3535.00,0.0011
3534.00,0.0011
3533.00,0.0011
3532.00,0.0011
3531.00,0.0012
3530.00,0.0012
3529.00,0.0012
3528.00,0.0012
3527.00,0.0012
3526.00,0.0013
3525.00,0.0013
3524.00,0.0013
3523.00,0.0013
3522.00,0.0013
3521.00,0.0013
3520.00,0.0013
3519.00,0.0013
3518.00,0.0013
3517.00,0.0013
3516.00,0.0013
3515.00,0.0013
3514.00,0.0013
3513.00,0.0014
3512.00,0.0014
3511.00,0.0014
3510.00,0.0014
3509.00,0.0014
3508.00,0.0014
3507.00,0.0014
3506.00,0.0014
3505.00,0.0014
3504.00,0.0014
3503.00,0.0014
3502.00,0.0015
3501.00,0.0015
3500.00,0.0015
3499.00,0.0015
3498.00,0.0015
3497.00,0.0015
3496.00,0.0015
3495.00,0.0015
3494.00,0.0015
3493.00,0.0015
3492.00,0.0015
3491.00,0.0015
3490.00,0.0015
3489.00,0.0015
3488.00,0.0015
3487.00,0.0016
3486.00,0.0016
3485.00,0.0016
3484.00,0.0015
3483.00,0.0015
3482.00,0.0016
3481.00,0.0016
3480.00,0.0016
3479.00,0.0016
3478.00,0.0016
3477.00,0.0017
3476.00,0.0017
3475.00,0.0017
3474.00,0.0018
3473.00,0.0018
3472.00,0.0018
3471.00,0.0018
3470.00,0.0017
3469.00,0.0018
3468.00,0.0018
3467.00,0.0018
3466.00,0.0019
3465.00,0.0019
3464.00,0.0019
3463.00,0.0019
3462.00,0.0019
3461.00,0.0019
3460.00,0.0019
3459.00,0.0019
3458.00,0.0019
3457.00,0.0019
3456.00,0.0019
3455.00,0.0019
3454.00,0.0019
3453.00,0.0019
3452.00,0.0019
3451.00,0.0019
3450.00,0.0019
3449.00,0.0019
3448.00,0.0020
3447.00,0.0020
3446.00,0.0020
3445.00,0.0020
3444.00,0.0020
3443.00,0.0020
3442.00,0.0020
3441.00,0.0020
3440.00,0.0020
3439.00,0.0021
3438.00,0.0021
3437.00,0.0021
3436.00,0.0022
3435.00,0.0022
3434.00,0.0022
3433.00,0.0022
3432.00,0.0022
3431.00,0.0022
3430.00,0.0022
3429.00,0.0022
3428.00,0.0022
3427.00,0.0022
3426.00,0.0022
3425.00,0.0022
3424.00,0.0022
3423.00,0.0022
3422.00,0.0022
3421.00,0.0022
3420.00,0.0022
3419.00,0.0022
3418.00,0.0022
3417.00,0.0022
3416.00,0.0022
3415.00,0.0023
3414.00,0.0023
3413.00,0.0023
3412.00,0.0023
3411.00,0.0023
3410.00,0.0023
3409.00,0.0023
3408.00,0.0024
3407.00,0.0024
3406.00,0.0024
3405.00,0.0024
3404.00,0.0024
3403.00,0.0024
3402.00,0.0024
3401.00,0.0024
3400.00,0.0023
3399.00,0.0023
3398.00,0.0023
3397.00,0.0023
3396.00,0.0023
3395.00,0.0023
3394.00,0.0023
3393.00,0.0023
3392.00,0.0023
3391.00,0.0023
3390.00,0.0023
3389.00,0.0023
3388.00,0.0023
3387.00,0.0023
3386.00,0.0023
3385.00,0.0024
3384.00,0.0024
3383.00,0.0024
3382.00,0.0024
3381.00,0.0024
3380.00,0.0023
3379.00,0.0024
3378.00,0.0024
3377.00,0.0024
3376.00,0.0024
3375.00,0.0023
3374.00,0.0023
3373.00,0.0023
3372.00,0.0024
3371.00,0.0024
3370.00,0.0024
3369.00,0.0024
3368.00,0.0024
3367.00,0.0023
3366.00,0.0023
3365.00,0.0023
3364.00,0.0023
3363.00,0.0023
3362.00,0.0024
3361.00,0.0024
3360.00,0.0025
3359.00,0.0025
3358.00,0.0025
3357.00,0.0024
3356.00,0.0024
3355.00,0.0024
3354.00,0.0024
3353.00,0.0024
3352.00,0.0025
3351.00,0.0025
3350.00,0.0025
3349.00,0.0025
3348.00,0.0025
3347.00,0.0024
3346.00,0.0024
3345.00,0.0024
3344.00,0.0024
3343.00,0.0024
3342.00,0.0024
3341.00,0.0024
3340.00,0.0024
3339.00,0.0023
3338.00,0.0023
3337.00,0.0023
3336.00,0.0023
3335.00,0.0023
3334.00,0.0023
3333.00,0.0023
3332.00,0.0023
3331.00,0.0023
3330.00,0.0023
3329.00,0.0023
3328.00,0.0023
3327.00,0.0023
3326.00,0.0023
3325.00,0.0023
3324.00,0.0023
3323.00,0.0023
3322.00,0.0023
3321.00,0.0022
3320.00,0.0022
3319.00,0.0022
3318.00,0.0022
3317.00,0.0021
3316.00,0.0021
3315.00,0.0021
3314.00,0.0021
3313.00,0.0022
3312.00,0.0022
3311.00,0.0022
3310.00,0.0022
3309.00,0.0023
3308.00,0.0023
3307.00,0.0023
3306.00,0.0023
3305.00,0.0023
3304.00,0.0023
3303.00,0.0023
3302.00,0.0024
3301.00,0.0024
3300.00,0.0024
3299.00,0.0024
3298.00,0.0023
3297.00,0.0023
3296.00,0.0023
3295.00,0.0023
3294.00,0.0023
3293.00,0.0023
3292.00,0.0023
3291.00,0.0023
3290.00,0.0022
3289.00,0.0022
3288.00,0.0022
3287.00,0.0022
3286.00,0.0022
3285.00,0.0022
3284.00,0.0023
3283.00,0.0022
3282.00,0.0022
3281.00,0.0022
3280.00,0.0021
3279.00,0.0021
3278.00,0.0021
3277.00,0.0021
3276.00,0.0021
3275.00,0.0021
3274.00,0.0021
3273.00,0.0021
3272.00,0.0021
3271.00,0.0021
3270.00,0.0021
3269.00,0.0021
3268.00,0.0021
3267.00,0.0021
3266.00,0.0020
3265.00,0.0020
3264.00,0.0020
3263.00,0.0020
3262.00,0.0020
3261.00,0.0020
3260.00,0.0020
3259.00,0.0020
3258.00,0.0020
3257.00,0.0020
3256.00,0.0020
3255.00,0.0019
3254.00,0.0019
3253.00,0.0019
3252.00,0.0019
3251.00,0.0019
3250.00,0.0019
3249.00,0.0019
3248.00,0.0019
3247.00,0.0019
3246.00,0.0019
3245.00,0.0019
3244.00,0.0019
3243.00,0.0019
3242.00,0.0019
3241.00,0.0019
3240.00,0.0019
3239.00,0.0019
3238.00,0.0019
3237.00,0.0020
3236.00,0.0020
3235.00,0.0020
3234.00,0.0020
3233.00,0.0020
3232.00,0.0020
3231.00,0.0020
3230.00,0.0021
3229.00,0.0021
3228.00,0.0022
3227.00,0.0022
3226.00,0.0022
3225.00,0.0022
3224.00,0.0022
3223.00,0.0022
3222.00,0.0022
3221.00,0.0022
3220.00,0.0022
3219.00,0.0023
3218.00,0.0023
3217.00,0.0024
3216.00,0.0024
3215.00,0.0024
3214.00,0.0024
3213.00,0.0024
3212.00,0.0024
3211.00,0.0025
3210.00,0.0025
3209.00,0.0025
3208.00,0.0025
3207.00,0.0025
3206.00,0.0025
3205.00,0.0026
3204.00,0.0026
3203.00,0.0026
3202.00,0.0026
3201.00,0.0026
3200.00,0.0026
3199.00,0.0026
3198.00,0.0026
3197.00,0.0026
3196.00,0.0026
3195.00,0.0026
3194.00,0.0026
3193.00,0.0026
3192.00,0.0026
3191.00,0.0026
3190.00,0.0027
3189.00,0.0027
3188.00,0.0027
3187.00,0.0026
3186.00,0.0026
3185.00,0.0026
3184.00,0.0026
3183.00,0.0026
3182.00,0.0025
3181.00,0.0025
3180.00,0.0025
3179.00,0.0025
3178.00,0.0025
3177.00,0.0025
3176.00,0.0025
3175.00,0.0025
3174.00,0.0024
3173.00,0.0024
3172.00,0.0024
3171.00,0.0023
3170.00,0.0023
3169.00,0.0024
3168.00,0.0024
3167.00,0.0024
3166.00,0.0025
3165.00,0.0025
3164.00,0.0024
3163.00,0.0024
3162.00,0.0024
3161.00,0.0024
3160.00,0.0024
3159.00,0.0024
3158.00,0.0024
3157.00,0.0024
3156.00,0.0024
3155.00,0.0024
3154.00,0.0024
3153.00,0.0024
3152.00,0.0024
3151.00,0.0024
3150.00,0.0024
3149.00,0.0025
3148.00,0.0025
3147.00,0.0025
3146.00,0.0025
3145.00,0.0024
3144.00,0.0024
3143.00,0.0024
3142.00,0.0024
3141.00,0.0024
3140.00,0.0023
3139.00,0.0023
3138.00,0.0023
3137.00,0.0024
3136.00,0.0024
3135.00,0.0024
3134.00,0.0024
3133.00,0.0024
3132.00,0.0024
3131.00,0.0024
3130.00,0.0024
3129.00,0.0024
3128.00,0.0023
3127.00,0.0023
3126.00,0.0023
3125.00,0.0022
3124.00,0.0022
3123.00,0.0022
3122.00,0.0021
3121.00,0.0021
3120.00,0.0021
3119.00,0.0021
3118.00,0.0021
3117.00,0.0021
3116.00,0.0021
3115.00,0.0021
3114.00,0.0020
3113.00,0.0020
3112.00,0.0020
3111.00,0.0020
3110.00,0.0020
3109.00,0.0020
3108.00,0.0021
3107.00,0.0021
3106.00,0.0020
3105.00,0.0021
3104.00,0.0021
3103.00,0.0021
3102.00,0.0021
3101.00,0.0021
3100.00,0.0021
3099.00,0.0021
3098.00,0.0020
3097.00,0.0020
3096.00,0.0020
3095.00,0.0020
3094.00,0.0020
3093.00,0.0020
3092.00,0.0021
3091.00,0.0021
3090.00,0.0021
3089.00,0.0021
3088.00,0.0021
3087.00,0.0021
3086.00,0.0021
3085.00,0.0021
3084.00,0.0021
3083.00,0.0021
3082.00,0.0020
3081.00,0.0020
3080.00,0.0020
3079.00,0.0020
3078.00,0.0021
3077.00,0.0021
3076.00,0.0022
3075.00,0.0022
3074.00,0.0022
3073.00,0.0022
3072.00,0.0022
3071.00,0.0022
3070.00,0.0022
3069.00,0.0022
3068.00,0.0022
3067.00,0.0023
3066.00,0.0023
3065.00,0.0023
3064.00,0.0023
3063.00,0.0024
3062.00,0.0024
3061.00,0.0024
3060.00,0.0023
3059.00,0.0024
3058.00,0.0024
3057.00,0.0024
3056.00,0.0025
3055.00,0.0025
3054.00,0.0025
3053.00,0.0025
3052.00,0.0025
3051.00,0.0025
3050.00,0.0026
3049.00,0.0026
3048.00,0.0026
3047.00,0.0027
3046.00,0.0027
3045.00,0.0027
3044.00,0.0027
3043.00,0.0028
3042.00,0.0028
3041.00,0.0028
3040.00,0.0029
3039.00,0.0029
3038.00,0.0029
3037.00,0.0029
3036.00,0.0030
3035.00,0.0030
3034.00,0.0030
3033.00,0.0031
3032.00,0.0031
3031.00,0.0032
3030.00,0.0032
3029.00,0.0033
3028.00,0.0033
3027.00,0.0034
3026.00,0.0034
3025.00,0.0035
3024.00,0.0036
3023.00,0.0036
3022.00,0.0037
3021.00,0.0038
3020.00,0.0039
3019.00,0.0040
3018.00,0.0041
3017.00,0.0042
3016.00,0.0043
3015.00,0.0044
3014.00,0.0045
3013.00,0.0046
3012.00,0.0048
3011.00,0.0049
3010.00,0.0050
3009.00,0.0051
3008.00,0.0053
3007.00,0.0055
3006.00,0.0057
3005.00,0.0059
3004.00,0.0061
3003.00,0.0063
3002.00,0.0065
3001.00,0.0068
3000.00,0.0070
2999.00,0.0073
2998.00,0.0077
2997.00,0.0080
2996.00,0.0084
2995.00,0.0088
2994.00,0.0093
2993.00,0.0098
2992.00,0.0103
2991.00,0.0109
2990.00,0.0115
2989.00,0.0123
2988.00,0.0131
2987.00,0.0140
2986.00,0.0150
2985.00,0.0161
2984.00,0.0174
2983.00,0.0188
2982.00,0.0204
2981.00,0.0222
2980.00,0.0242
2979.00,0.0266
2978.00,0.0292
2977.00,0.0323
2976.00,0.0358
2975.00,0.0398
2974.00,0.0444
2973.00,0.0498
2972.00,0.0558
2971.00,0.0626
2970.00,0.0702
2969.00,0.0787
2968.00,0.0880
2967.00,0.0981
2966.00,0.1090
2965.00,0.1204
2964.00,0.1319
2963.00,0.1429
2962.00,0.1530
2961.00,0.1615
2960.00,0.1682
2959.00,0.1730
2958.00,0.1765
2957.00,0.1790
2956.00,0.1813
2955.00,0.1839
2954.00,0.1868
2953.00,0.1899
2952.00,0.1923
2951.00,0.1931
2950.00,0.1913
2949.00,0.1864
2948.00,0.1783
2947.00,0.1677
2946.00,0.1554
2945.00,0.1429
2944.00,0.1312
2943.00,0.1211
2942.00,0.1133
2941.00,0.1079
2940.00,0.1049
2939.00,0.1040
2938.00,0.1051
2937.00,0.1078
2936.00,0.1121
2935.00,0.1178
2934.00,0.1247
2933.00,0.1328
2932.00,0.1419
2931.00,0.1518
2930.00,0.1621
2929.00,0.1726
2928.00,0.1830
2927.00,0.1930
2926.00,0.2026
2925.00,0.2117
2924.00,0.2203
2923.00,0.2286
2922.00,0.2366
2921.00,0.2440
2920.00,0.2503
2919.00,0.2547
2918.00,0.2567
2917.00,0.2555
2916.00,0.2514
2915.00,0.2448
2914.00,0.2368
2913.00,0.2282
2912.00,0.2199
2911.00,0.2124
2910.00,0.2059
2909.00,0.2001
2908.00,0.1947
2907.00,0.1895
2906.00,0.1842
2905.00,0.1785
2904.00,0.1724
2903.00,0.1659
2902.00,0.1593
2901.00,0.1527
2900.00,0.1462
2899.00,0.1400
2898.00,0.1341
2897.00,0.1287
2896.00,0.1239
2895.00,0.1196
2894.00,0.1159
2893.00,0.1129
2892.00,0.1104
2891.00,0.1085
2890.00,0.1070
2889.00,0.1060
2888.00,0.1054
2887.00,0.1051
2886.00,0.1052
2885.00,0.1056
2884.00,0.1064
2883.00,0.1075
2882.00,0.1089
2881.00,0.1105
2880.00,0.1121
2879.00,0.1133
2878.00,0.1140
2877.00,0.1139
2876.00,0.1134
2875.00,0.1126
2874.00,0.1120
2873.00,0.1120
2872.00,0.1126
2871.00,0.1140
2870.00,0.1157
2869.00,0.1172
2868.00,0.1179
2867.00,0.1172
2866.00,0.1145
2865.00,0.1098
2864.00,0.1035
2863.00,0.0965
2862.00,0.0897
2861.00,0.0838
2860.00,0.0793
2859.00,0.0763
2858.00,0.0747
2857.00,0.0744
2856.00,0.0750
2855.00,0.0763
2854.00,0.0781
2853.00,0.0802
2852.00,0.0824
2851.00,0.0843
2850.00,0.0860
2849.00,0.0873
2848.00,0.0887
2847.00,0.0906
2846.00,0.0933
2845.00,0.0971
2844.00,0.1020
2843.00,0.1077
2842.00,0.1137
2841.00,0.1194
2840.00,0.1238
2839.00,0.1261
2838.00,0.1256
2837.00,0.1219
2836.00,0.1151
2835.00,0.1058
2834.00,0.0951
2833.00,0.0840
2832.00,0.0734
2831.00,0.0641
2830.00,0.0562
2829.00,0.0497
2828.00,0.0444
2827.00,0.0402
2826.00,0.0367
2825.00,0.0339
2824.00,0.0315
2823.00,0.0294
2822.00,0.0277
2821.00,0.0261
2820.00,0.0248
2819.00,0.0236
2818.00,0.0226
2817.00,0.0218
2816.00,0.0210
2815.00,0.0203
2814.00,0.0197
2813.00,0.0191
2812.00,0.0186
2811.00,0.0180
2810.00,0.0175
2809.00,0.0170
2808.00,0.0164
2807.00,0.0158
2806.00,0.0152
2805.00,0.0145
2804.00,0.0139
2803.00,0.0133
2802.00,0.0128
2801.00,0.0124
2800.00,0.0120
2799.00,0.0117
2798.00,0.0114
2797.00,0.0111
2796.00,0.0109
2795.00,0.0107
2794.00,0.0105
2793.00,0.0103
2792.00,0.0099
2791.00,0.0096
2790.00,0.0093
2789.00,0.0089
2788.00,0.0086
2787.00,0.0082
2786.00,0.0079
2785.00,0.0076
2784.00,0.0073
2783.00,0.0071
2782.00,0.0068
2781.00,0.0066
2780.00,0.0064
2779.00,0.0062
2778.00,0.0061
2777.00,0.0059
2776.00,0.0058
2775.00,0.0057
2774.00,0.0056
2773.00,0.0055
2772.00,0.0055
2771.00,0.0054
2770.00,0.0054
2769.00,0.0054
2768.00,0.0053
2767.00,0.0053
2766.00,0.0053
2765.00,0.0053
2764.00,0.0053
2763.00,0.0053
2762.00,0.0053
2761.00,0.0052
2760.00,0.0051
2759.00,0.0051
2758.00,0.0051
2757.00,0.0050
2756.00,0.0050
2755.00,0.0050
2754.00,0.0050
2753.00,0.0050
2752.00,0.0050
2751.00,0.0050
2750.00,0.0050
2749.00,0.0050
2748.00,0.0050
2747.00,0.0050
2746.00,0.0050
2745.00,0.0051
2744.00,0.0051
2743.00,0.0052
2742.00,0.0053
2741.00,0.0054
2740.00,0.0056
2739.00,0.0057
2738.00,0.0058
2737.00,0.0059
2736.00,0.0060
2735.00,0.0062
2734.00,0.0063
2733.00,0.0065
2732.00,0.0067
2731.00,0.0069
2730.00,0.0071
2729.00,0.0073
2728.00,0.0075
2727.00,0.0078
2726.00,0.0080
2725.00,0.0082
2724.00,0.0084
2723.00,0.0085
2722.00,0.0084
2721.00,0.0082
2720.00,0.0080
2719.00,0.0077
2718.00,0.0074
2717.00,0.0071
2716.00,0.0068
2715.00,0.0066
2714.00,0.0063
2713.00,0.0061
2712.00,0.0059
2711.00,0.0057
2710.00,0.0056
2709.00,0.0054
2708.00,0.0053
2707.00,0.0051
2706.00,0.0050
2705.00,0.0050
2704.00,0.0049
2703.00,0.0048
2702.00,0.0047
2701.00,0.0046
2700.00,0.0045
2699.00,0.0045
2698.00,0.0045
2697.00,0.0045
2696.00,0.0045
2695.00,0.0044
2694.00,0.0044
2693.00,0.0044
2692.00,0.0044
2691.00,0.0044
2690.00,0.0044
2689.00,0.0044
2688.00,0.0044
2687.00,0.0044
2686.00,0.0044
2685.00,0.0044
2684.00,0.0044
2683.00,0.0044
2682.00,0.0045
2681.00,0.0045
2680.00,0.0045
2679.00,0.0044
2678.00,0.0044
2677.00,0.0044
2676.00,0.0044
2675.00,0.0044
2674.00,0.0044
2673.00,0.0044
2672.00,0.0043
2671.00,0.0043
2670.00,0.0043
2669.00,0.0043
2668.00,0.0043
2667.00,0.0043
2666.00,0.0043
2665.00,0.0044
2664.00,0.0044
2663.00,0.0045
2662.00,0.0046
2661.00,0.0046
2660.00,0.0046
2659.00,0.0047
2658.00,0.0047
2657.00,0.0047
2656.00,0.0046
2655.00,0.0045
2654.00,0.0044
2653.00,0.0044
2652.00,0.0044
2651.00,0.0044
2650.00,0.0044
2649.00,0.0044
2648.00,0.0044
2647.00,0.0043
2646.00,0.0042
2645.00,0.0041
2644.00,0.0040
2643.00,0.0040
2642.00,0.0039
2641.00,0.0039
2640.00,0.0039
2639.00,0.0038
2638.00,0.0038
2637.00,0.0037
2636.00,0.0037
2635.00,0.0037
2634.00,0.0038
2633.00,0.0038
2632.00,0.0038
2631.00,0.0039
2630.00,0.0039
2629.00,0.0039
2628.00,0.0039
2627.00,0.0039
2626.00,0.0039
2625.00,0.0039
2624.00,0.0039
2623.00,0.0039
2622.00,0.0040
2621.00,0.0040
2620.00,0.0040
2619.00,0.0040
2618.00,0.0039
2617.00,0.0039
2616.00,0.0038
2615.00,0.0038
2614.00,0.0038
2613.00,0.0038
2612.00,0.0038
2611.00,0.0037
2610.00,0.0037
2609.00,0.0036
2608.00,0.0036
2607.00,0.0035
2606.00,0.0035
2605.00,0.0034
2604.00,0.0033
2603.00,0.0032
2602.00,0.0031
2601.00,0.0031
2600.00,0.0030
2599.00,0.0031
2598.00,0.0031
2597.00,0.0031
2596.00,0.0031
2595.00,0.0031
2594.00,0.0031
2593.00,0.0031
2592.00,0.0032
2591.00,0.0033
2590.00,0.0033
2589.00,0.0034
2588.00,0.0035
2587.00,0.0035
2586.00,0.0036
2585.00,0.0036
2584.00,0.0037
2583.00,0.0038
2582.00,0.0038
2581.00,0.0038
2580.00,0.0037
2579.00,0.0036
2578.00,0.0035
2577.00,0.0034
2576.00,0.0033
2575.00,0.0032
2574.00,0.0031
2573.00,0.0030
2572.00,0.0029
2571.00,0.0028
2570.00,0.0027
2569.00,0.0026
2568.00,0.0025
2567.00,0.0025
2566.00,0.0024
2565.00,0.0024
2564.00,0.0024
2563.00,0.0024
2562.00,0.0024
2561.00,0.0024
2560.00,0.0024
2559.00,0.0024
2558.00,0.0024
2557.00,0.0023
2556.00,0.0023
2555.00,0.0022
2554.00,0.0021
2553.00,0.0021
2552.00,0.0020
2551.00,0.0020
2550.00,0.0020
2549.00,0.0020
2548.00,0.0019
2547.00,0.0019
2546.00,0.0018
2545.00,0.0017
2544.00,0.0017
2543.00,0.0016
2542.00,0.0016
2541.00,0.0017
2540.00,0.0017
2539.00,0.0017
2538.00,0.0017
2537.00,0.0017
2536.00,0.0017
2535.00,0.0016
2534.00,0.0016
2533.00,0.0016
2532.00,0.0017
2531.00,0.0017
2530.00,0.0016
2529.00,0.0016
2528.00,0.0016
2527.00,0.0016
2526.00,0.0016
2525.00,0.0015
2524.00,0.0014
2523.00,0.0014
2522.00,0.0013
2521.00,0.0013
2520.00,0.0013
2519.00,0.0012
2518.00,0.0012
2517.00,0.0011
2516.00,0.0011
2515.00,0.0010
2514.00,0.0010
2513.00,0.0010
2512.00,0.0011
2511.00,0.0011
2510.00,0.0011
2509.00,0.0010
2508.00,0.0010
2507.00,0.0010
2506.00,0.0010
2505.00,0.0011
2504.00,0.0011
2503.00,0.0011
2502.00,0.0011
2501.00,0.0011
2500.00,0.0010
2499.00,0.0010
2498.00,0.0010
2497.00,0.0010
2496.00,0.0010
2495.00,0.0010
2494.00,0.0010
2493.00,0.0010
2492.00,0.0010
2491.00,0.0010
2490.00,0.0010
2489.00,0.0010
2488.00,0.0010
2487.00,0.0010
2486.00,0.0010
2485.00,0.0010
2484.00,0.0010
2483.00,0.0010
2482.00,0.0011
2481.00,0.0010
2480.00,0.0010
2479.00,0.0009
2478.00,0.0009
2477.00,0.0009
2476.00,0.0009
2475.00,0.0009
2474.00,0.0010
2473.00,0.0010
2472.00,0.0010
2471.00,0.0010
2470.00,0.0010
2469.00,0.0009
2468.00,0.0009
2467.00,0.0010
2466.00,0.0010
2465.00,0.0010
2464.00,0.0009
2463.00,0.0009
2462.00,0.0009
2461.00,0.0009
2460.00,0.0010
2459.00,0.0010
2458.00,0.0011
2457.00,0.0011
2456.00,0.0012
2455.00,0.0012
2454.00,0.0012
2453.00,0.0012
2452.00,0.0011
2451.00,0.0011
2450.00,0.0011
2449.00,0.0011
2448.00,0.0011
2447.00,0.0012
2446.00,0.0012
2445.00,0.0011
2444.00,0.0011
2443.00,0.0011
2442.00,0.0011
2441.00,0.0011
2440.00,0.0010
2439.00,0.0010
2438.00,0.0010
2437.00,0.0010
2436.00,0.0011
2435.00,0.0012
2434.00,0.0012
2433.00,0.0012
2432.00,0.0011
2431.00,0.0011
2430.00,0.0011
2429.00,0.0012
2428.00,0.0012
2427.00,0.0012
2426.00,0.0012
2425.00,0.0012
2424.00,0.0012
2423.00,0.0012
2422.00,0.0012
2421.00,0.0011
2420.00,0.0011
2419.00,0.0010
2418.00,0.0010
2417.00,0.0010
2416.00,0.0010
2415.00,0.0010
2414.00,0.0011
2413.00,0.0011
2412.00,0.0011
2411.00,0.0011
2410.00,0.0011
2409.00,0.0010
2408.00,0.0010
2407.00,0.0009
2406.00,0.0009
2405.00,0.0008
2404.00,0.0008
2403.00,0.0009
2402.00,0.0009
2401.00,0.0009
2400.00,0.0009
2399.00,0.0009
2398.00,0.0010
2397.00,0.0010
2396.00,0.0009
2395.00,0.0008
2394.00,0.0007
2393.00,0.0007
2392.00,0.0007
2391.00,0.0007
2390.00,0.0007
2389.00,0.0007
2388.00,0.0007
2387.00,0.0007
2386.00,0.0008
2385.00,0.0008
2384.00,0.0007
2383.00,0.0007
2382.00,0.0006
2381.00,0.0005
2380.00,0.0005
2379.00,0.0004
2378.00,0.0003
2377.00,0.0003
2376.00,0.0003
2375.00,0.0003
2374.00,0.0003
2373.00,0.0004
2372.00,0.0004
2371.00,0.0004
2370.00,0.0003
2369.00,0.0002
2368.00,0.0001
2367.00,0.0000
2366.00,0.0000
2365.00,0.0000
2364.00,0.0001
2363.00,0.0001
2362.00,0.0002
2361.00,0.0002
2360.00,0.0002
2359.00,0.0002
2358.00,0.0003
2357.00,0.0003
2356.00,0.0003
2355.00,0.0003
2354.00,0.0003
2353.00,0.0003
2352.00,0.0002
2351.00,0.0002
2350.00,0.0003
2349.00,0.0004
2348.00,0.0005
2347.00,0.0005
2346.00,0.0004
2345.00,0.0002
2344.00,0.0002
2343.00,0.0003
2342.00,0.0005
2341.00,0.0006
2340.00,0.0006
2339.00,0.0006
2338.00,0.0006
2337.00,0.0006
2336.00,0.0007
2335.00,0.0007
2334.00,0.0006
2333.00,0.0006
2332.00,0.0005
2331.00,0.0005
2330.00,0.0005
2329.00,0.0006
2328.00,0.0008
2327.00,0.0011
2326.00,0.0015
2325.00,0.0019
2324.00,0.0021
2323.00,0.0021
2322.00,0.0019
2321.00,0.0017
2320.00,0.0015
2319.00,0.0014
2318.00,0.0013
2317.00,0.0012
2316.00,0.0012
2315.00,0.0011
2314.00,0.0011
2313.00,0.0011
2312.00,0.0011
2311.00,0.0011
2310.00,0.0011
2309.00,0.0011
2308.00,0.0012
2307.00,0.0012
2306.00,0.0012
2305.00,0.0011
2304.00,0.0011
2303.00,0.0011
2302.00,0.0012
2301.00,0.0012
2300.00,0.0012
2299.00,0.0012
2298.00,0.0012
2297.00,0.0013
2296.00,0.0013
2295.00,0.0014
2294.00,0.0015
2293.00,0.0016
2292.00,0.0016
2291.00,0.0016
2290.00,0.0016
2289.00,0.0017
2288.00,0.0017
2287.00,0.0018
2286.00,0.0018
2285.00,0.0018
2284.00,0.0018
2283.00,0.0017
2282.00,0.0016
2281.00,0.0016
2280.00,0.0015
2279.00,0.0014
2278.00,0.0014
2277.00,0.0013
2276.00,0.0012
2275.00,0.0012
2274.00,0.0012
2273.00,0.0013
2272.00,0.0013
2271.00,0.0013
2270.00,0.0013
2269.00,0.0013
2268.00,0.0013
2267.00,0.0012
2266.00,0.0011
2265.00,0.0010
2264.00,0.0010
2263.00,0.0011
2262.00,0.0011
2261.00,0.0011
2260.00,0.0012
2259.00,0.0014
2258.00,0.0015
2257.00,0.0016
2256.00,0.0016
2255.00,0.0014
2254.00,0.0012
2253.00,0.0010
2252.00,0.0009
2251.00,0.0009
2250.00,0.0009
2249.00,0.0008
2248.00,0.0008
2247.00,0.0008
2246.00,0.0008
2245.00,0.0008
2244.00,0.0009
2243.00,0.0009
2242.00,0.0009
2241.00,0.0009
2240.00,0.0009
2239.00,0.0008
2238.00,0.0008
2237.00,0.0008
2236.00,0.0009
2235.00,0.0009
2234.00,0.0009
2233.00,0.0008
2232.00,0.0007
2231.00,0.0006
2230.00,0.0005
2229.00,0.0006
2228.00,0.0006
2227.00,0.0006
2226.00,0.0006
2225.00,0.0006
2224.00,0.0006
2223.00,0.0005
2222.00,0.0003
2221.00,0.0002
2220.00,0.0001
2219.00,0.0001
2218.00,0.0003
2217.00,0.0004
2216.00,0.0005
2215.00,0.0004
2214.00,0.0003
2213.00,0.0003
2212.00,0.0004
2211.00,0.0005
2210.00,0.0005
2209.00,0.0004
2208.00,0.0003
2207.00,0.0003
2206.00,0.0003
2205.00,0.0004
2204.00,0.0006
2203.00,0.0007
2202.00,0.0008
2201.00,0.0010
2200.00,0.0011
2199.00,0.0011
2198.00,0.0010
2197.00,0.0010
2196.00,0.0011
2195.00,0.0011
2194.00,0.0011
2193.00,0.0009
2192.00,0.0008
2191.00,0.0007
2190.00,0.0008
2189.00,0.0009
2188.00,0.0011
2187.00,0.0012
2186.00,0.0012
2185.00,0.0012
2184.00,0.0011
2183.00,0.0009
2182.00,0.0008
2181.00,0.0007
2180.00,0.0007
2179.00,0.0007
2178.00,0.0007
2177.00,0.0005
2176.00,0.0002
2175.00,0.0001
2174.00,0.0002
2173.00,0.0005
2172.00,0.0008
2171.00,0.0011
2170.00,0.0014
2169.00,0.0016
2168.00,0.0018
2167.00,0.0019
2166.00,0.0019
2165.00,0.0020
2164.00,0.0021
2163.00,0.0021
2162.00,0.0019
2161.00,0.0013
2160.00,0.0002
2159.00,-0.0012
2158.00,-0.0023
2157.00,-0.0026
2156.00,-0.0024
2155.00,-0.0020
2154.00,-0.0017
2153.00,-0.0017
2152.00,-0.0017
2151.00,-0.0019
2150.00,-0.0020
2149.00,-0.0020
2148.00,-0.0020
2147.00,-0.0020
2146.00,-0.0018
2145.00,-0.0015
2144.00,-0.0012
2143.00,-0.0010
2142.00,-0.0009
2141.00,-0.0011
2140.00,-0.0012
2139.00,-0.0013
2138.00,-0.0012
2137.00,-0.0010
2136.00,-0.0011
2135.00,-0.0013
2134.00,-0.0015
2133.00,-0.0017
2132.00,-0.0017
2131.00,-0.0015
2130.00,-0.0013
2129.00,-0.0011
2128.00,-0.0010
2127.00,-0.0010
2126.00,-0.0011
2125.00,-0.0011
2124.00,-0.0010
2123.00,-0.0009
2122.00,-0.0009
2121.00,-0.0008
2120.00,-0.0008
2119.00,-0.0007
2118.00,-0.0006
2117.00,-0.0004
2116.00,-0.0001
2115.00,0.0001
2114.00,0.0002
2113.00,0.0003
2112.00,0.0004
2111.00,0.0004
2110.00,0.0004
2109.00,0.0003
2108.00,0.0002
2107.00,0.0002
2106.00,0.0002
2105.00,0.0003
2104.00,0.0004
2103.00,0.0005
2102.00,0.0005
2101.00,0.0005
2100.00,0.0003
2099.00,0.0002
2098.00,0.0000
2097.00,-0.0001
2096.00,-0.0001
2095.00,-0.0002
2094.00,-0.0002
2093.00,-0.0001
2092.00,-0.0000
2091.00,0.0000
2090.00,0.0000
2089.00,0.0001
2088.00,0.0001
2087.00,0.0002
2086.00,0.0003
2085.00,0.0003
2084.00,0.0004
2083.00,0.0004
2082.00,0.0003
2081.00,0.0002
2080.00,0.0002
2079.00,0.0002
2078.00,0.0002
2077.00,0.0001
2076.00,0.0001
2075.00,0.0002
2074.00,0.0003
2073.00,0.0003
2072.00,0.0003
2071.00,0.0003
2070.00,0.0002
2069.00,0.0001
2068.00,0.0001
2067.00,0.0001
2066.00,0.0001
2065.00,0.0002
2064.00,0.0002
2063.00,0.0001
2062.00,0.0000
2061.00,-0.0001
2060.00,-0.0000
2059.00,0.0001
2058.00,0.0002
2057.00,0.0003
2056.00,0.0004
2055.00,0.0004
2054.00,0.0004
2053.00,0.0006
2052.00,0.0010
2051.00,0.0013
2050.00,0.0013
2049.00,0.0010
2048.00,0.0006
2047.00,0.0003
2046.00,0.0001
2045.00,0.0001
2044.00,0.0000
2043.00,0.0000
2042.00,-0.0000
2041.00,0.0000
2040.00,0.0001
2039.00,0.0003
2038.00,0.0005
2037.00,0.0006
2036.00,0.0005
2035.00,0.0000
2034.00,-0.0007
2033.00,-0.0012
2032.00,-0.0015
2031.00,-0.0015
2030.00,-0.0013
2029.00,-0.0010
2028.00,-0.0009
2027.00,-0.0010
2026.00,-0.0012
2025.00,-0.0012
2024.00,-0.0010
2023.00,-0.0007
2022.00,-0.0004
2021.00,-0.0002
2020.00,-0.0001
2019.00,-0.0003
2018.00,-0.0005
2017.00,-0.0006
2016.00,-0.0007
2015.00,-0.0007
2014.00,-0.0006
2013.00,-0.0006
2012.00,-0.0006
2011.00,-0.0006
2010.00,-0.0008
2009.00,-0.0010
2008.00,-0.0013
2007.00,-0.0016
2006.00,-0.0018
2005.00,-0.0018
2004.00,-0.0016
2003.00,-0.0015
2002.00,-0.0013
2001.00,-0.0013
2000.00,-0.0013
1999.00,-0.0013
1998.00,-0.0012
1997.00,-0.0012
1996.00,-0.0012
1995.00,-0.0013
1994.00,-0.0015
1993.00,-0.0017
1992.00,-0.0017
1991.00,-0.0016
1990.00,-0.0014
1989.00,-0.0011
1988.00,-0.0008
1987.00,-0.0005
1986.00,-0.0002
1985.00,-0.0001
1984.00,0.0000
1983.00,0.0001
1982.00,0.0004
1981.00,0.0008
1980.00,0.0010
1979.00,0.0006
1978.00,-0.0002
1977.00,-0.0010
1976.00,-0.0015
1975.00,-0.0015
1974.00,-0.0012
1973.00,-0.0007
1972.00,-0.0005
1971.00,-0.0006
1970.00,-0.0009
1969.00,-0.0013
1968.00,-0.0015
1967.00,-0.0016
1966.00,-0.0016
1965.00,-0.0014
1964.00,-0.0012
1963.00,-0.0011
1962.00,-0.0011
1961.00,-0.0011
1960.00,-0.0013
1959.00,-0.0015
1958.00,-0.0017
1957.00,-0.0016
1956.00,-0.0015
1955.00,-0.0014
1954.00,-0.0012
1953.00,-0.0011
1952.00,-0.0011
1951.00,-0.0011
1950.00,-0.0013
1949.00,-0.0014
1948.00,-0.0015
1947.00,-0.0015
1946.00,-0.0015
1945.00,-0.0015
1944.00,-0.0015
1943.00,-0.0015
1942.00,-0.0016
1941.00,-0.0015
1940.00,-0.0014
1939.00,-0.0013
1938.00,-0.0012
1937.00,-0.0011
1936.00,-0.0011
1935.00,-0.0011
1934.00,-0.0011
1933.00,-0.0010
1932.00,-0.0009
1931.00,-0.0009
1930.00,-0.0008
1929.00,-0.0007
1928.00,-0.0007
1927.00,-0.0006
1926.00,-0.0006
1925.00,-0.0006
1924.00,-0.0006
1923.00,-0.0006
1922.00,-0.0006
1921.00,-0.0005
1920.00,-0.0005
1919.00,-0.0005
1918.00,-0.0005
1917.00,-0.0005
1916.00,-0.0005
1915.00,-0.0004
1914.00,-0.0004
1913.00,-0.0005
1912.00,-0.0005
1911.00,-0.0005
1910.00,-0.0005
1909.00,-0.0004
1908.00,-0.0004
1907.00,-0.0004
1906.00,-0.0004
1905.00,-0.0004
1904.00,-0.0003
1903.00,-0.0003
1902.00,-0.0002
1901.00,-0.0002
1900.00,-0.0001
1899.00,-0.0002
1898.00,-0.0003
1897.00,-0.0003
1896.00,-0.0003
1895.00,-0.0002
1894.00,-0.0002
1893.00,-0.0002
1892.00,-0.0002
1891.00,-0.0003
1890.00,-0.0003
1889.00,-0.0003
1888.00,-0.0002
1887.00,-0.0001
1886.00,0.0000
1885.00,0.0000
1884.00,0.0000
1883.00,-0.0000
1882.00,-0.0001
1881.00,-0.0001
1880.00,-0.0000
1879.00,-0.0000
1878.00,-0.0000
1877.00,-0.0000
1876.00,-0.0001
1875.00,-0.0002
1874.00,-0.0003
1873.00,-0.0003
1872.00,-0.0002
1871.00,-0.0001
1870.00,-0.0000
1869.00,0.0001
1868.00,0.0001
1867.00,0.0000
1866.00,0.0001
1865.00,0.0002
1864.00,0.0002
1863.00,0.0001
1862.00,0.0001
1861.00,-0.0000
1860.00,-0.0000
1859.00,-0.0001
1858.00,-0.0001
1857.00,-0.0000
1856.00,0.0000
1855.00,0.0001
1854.00,0.0002
1853.00,0.0002
1852.00,0.0001
1851.00,0.0000
1850.00,-0.0001
1849.00,-0.0001
1848.00,-0.0001
1847.00,-0.0000
1846.00,0.0001
1845.00,0.0001
1844.00,0.0002
1843.00,0.0002
1842.00,0.0002
1841.00,0.0001
1840.00,0.0002
1839.00,0.0002
1838.00,0.0002
1837.00,0.0002
1836.00,0.0003
1835.00,0.0003
1834.00,0.0003
1833.00,0.0003
1832.00,0.0003
1831.00,0.0003
1830.00,0.0003
1829.00,0.0004
1828.00,0.0004
1827.00,0.0004
1826.00,0.0004
1825.00,0.0004
1824.00,0.0004
1823.00,0.0003
1822.00,0.0002
1821.00,0.0001
1820.00,0.0001
1819.00,-0.0000
1818.00,-0.0001
1817.00,-0.0001
1816.00,-0.0001
1815.00,0.0000
1814.00,0.0001
1813.00,0.0002
1812.00,0.0003
1811.00,0.0003
1810.00,0.0003
1809.00,0.0002
1808.00,0.0002
1807.00,0.0002
1806.00,0.0002
1805.00,0.0003
1804.00,0.0003
1803.00,0.0004
1802.00,0.0004
1801.00,0.0004
1800.00,0.0004
1799.00,0.0004
1798.00,0.0004
1797.00,0.0004
1796.00,0.0004
1795.00,0.0004
1794.00,0.0004
1793.00,0.0005
1792.00,0.0005
1791.00,0.0006
1790.00,0.0006
1789.00,0.0007
1788.00,0.0007
1787.00,0.0007
1786.00,0.0007
1785.00,0.0006
1784.00,0.0007
1783.00,0.0007
1782.00,0.0007
1781.00,0.0007
1780.00,0.0007
1779.00,0.0007
1778.00,0.0007
1777.00,0.0007
1776.00,0.0007
1775.00,0.0007
1774.00,0.0007
1773.00,0.0007
1772.00,0.0007
1771.00,0.0008
1770.00,0.0008
1769.00,0.0008
1768.00,0.0009
1767.00,0.0009
1766.00,0.0010
1765.00,0.0010
1764.00,0.0010
1763.00,0.0009
1762.00,0.0010
1761.00,0.0010
1760.00,0.0011
1759.00,0.0012
1758.00,0.0012
1757.00,0.0013
1756.00,0.0013
1755.00,0.0012
1754.00,0.0012
1753.00,0.0012
1752.00,0.0013
1751.00,0.0014
1750.00,0.0015
1749.00,0.0016
1748.00,0.0017
1747.00,0.0017
1746.00,0.0017
1745.00,0.0017
1744.00,0.0017
1743.00,0.0017
1742.00,0.0017
1741.00,0.0017
1740.00,0.0018
1739.00,0.0018
1738.00,0.0019
1737.00,0.0020
1736.00,0.0020
1735.00,0.0020
1734.00,0.0020
1733.00,0.0021
1732.00,0.0022
1731.00,0.0023
1730.00,0.0023
1729.00,0.0024
1728.00,0.0024
1727.00,0.0025
1726.00,0.0025
1725.00,0.0026
1724.00,0.0027
1723.00,0.0027
1722.00,0.0028
1721.00,0.0028
1720.00,0.0029
1719.00,0.0028
1718.00,0.0028
1717.00,0.0028
1716.00,0.0029
1715.00,0.0029
1714.00,0.0029
1713.00,0.0029
1712.00,0.0029
1711.00,0.0029
1710.00,0.0028
1709.00,0.0028
1708.00,0.0028
1707.00,0.0028
1706.00,0.0028
1705.00,0.0028
1704.00,0.0027
1703.00,0.0026
1702.00,0.0026
1701.00,0.0025
1700.00,0.0026
1699.00,0.0025
1698.00,0.0025
1697.00,0.0024
1696.00,0.0024
1695.00,0.0024
1694.00,0.0024
1693.00,0.0024
1692.00,0.0024
1691.00,0.0024
1690.00,0.0025
1689.00,0.0025
1688.00,0.0025
1687.00,0.0025
1686.00,0.0024
1685.00,0.0023
1684.00,0.0023
1683.00,0.0024
1682.00,0.0025
1681.00,0.0026
1680.00,0.0026
1679.00,0.0027
1678.00,0.0027
1677.00,0.0027
1676.00,0.0027
1675.00,0.0027
1674.00,0.0027
1673.00,0.0027
1672.00,0.0028
1671.00,0.0028
1670.00,0.0028
1669.00,0.0027
1668.00,0.0027
1667.00,0.0027
1666.00,0.0027
1665.00,0.0027
1664.00,0.0028
1663.00,0.0028
1662.00,0.0028
1661.00,0.0028
1660.00,0.0029
1659.00,0.0030
1658.00,0.0030
1657.00,0.0031
1656.00,0.0031
1655.00,0.0031
1654.00,0.0032
1653.00,0.0032
1652.00,0.0033
1651.00,0.0032
1650.00,0.0032
1649.00,0.0032
1648.00,0.0033
1647.00,0.0033
1646.00,0.0033
1645.00,0.0034
1644.00,0.0035
1643.00,0.0035
1642.00,0.0035
1641.00,0.0036
1640.00,0.0036
1639.00,0.0037
1638.00,0.0037
1637.00,0.0037
1636.00,0.0037
1635.00,0.0038
1634.00,0.0038
1633.00,0.0038
1632.00,0.0037
1631.00,0.0037
1630.00,0.0036
1629.00,0.0036
1628.00,0.0036
1627.00,0.0035
1626.00,0.0035
1625.00,0.0034
1624.00,0.0034
1623.00,0.0034
1622.00,0.0034
1621.00,0.0034
1620.00,0.0034
1619.00,0.0033
1618.00,0.0033
1617.00,0.0032
1616.00,0.0033
1615.00,0.0033
1614.00,0.0033
1613.00,0.0032
1612.00,0.0032
1611.00,0.0032
1610.00,0.0031
1609.00,0.0031
1608.00,0.0031
1607.00,0.0032
1606.00,0.0032
1605.00,0.0032
1604.00,0.0032
1603.00,0.0032
1602.00,0.0031
1601.00,0.0031
1600.00,0.0032
1599.00,0.0032
1598.00,0.0032
1597.00,0.0032
1596.00,0.0031
1595.00,0.0031
1594.00,0.0031
1593.00,0.0031
1592.00,0.0032
1591.00,0.0031
1590.00,0.0031
1589.00,0.0032
1588.00,0.0032
1587.00,0.0033
1586.00,0.0034
1585.00,0.0034
1584.00,0.0035
1583.00,0.0035
1582.00,0.0035
1581.00,0.0036
1580.00,0.0037
1579.00,0.0038
1578.00,0.0038
1577.00,0.0039
1576.00,0.0039
1575.00,0.0039
1574.00,0.0039
1573.00,0.0039
1572.00,0.0039
1571.00,0.0039
1570.00,0.0039
1569.00,0.0039
1568.00,0.0039
1567.00,0.0039
1566.00,0.0038
1565.00,0.0038
1564.00,0.0037
1563.00,0.0037
1562.00,0.0037
1561.00,0.0037
1560.00,0.0037
1559.00,0.0037
1558.00,0.0037
1557.00,0.0038
1556.00,0.0038
1555.00,0.0039
1554.00,0.0039
1553.00,0.0039
1552.00,0.0040
1551.00,0.0040
1550.00,0.0040
1549.00,0.0041
1548.00,0.0042
1547.00,0.0043
1546.00,0.0043
1545.00,0.0044
1544.00,0.0044
1543.00,0.0045
1542.00,0.0045
1541.00,0.0045
1540.00,0.0045
1539.00,0.0045
1538.00,0.0045
1537.00,0.0044
1536.00,0.0044
1535.00,0.0043
1534.00,0.0042
1533.00,0.0042
1532.00,0.0042
1531.00,0.0042
1530.00,0.0041
1529.00,0.0041
1528.00,0.0040
1527.00,0.0040
1526.00,0.0039
1525.00,0.0039
1524.00,0.0040
1523.00,0.0040
1522.00,0.0041
1521.00,0.0042
1520.00,0.0043
1519.00,0.0043
1518.00,0.0043
1517.00,0.0044
1516.00,0.0046
1515.00,0.0046
1514.00,0.0046
1513.00,0.0047
1512.00,0.0048
1511.00,0.0049
1510.00,0.0049
1509.00,0.0049
1508.00,0.0051
1507.00,0.0052
1506.00,0.0054
1505.00,0.0056
1504.00,0.0057
1503.00,0.0058
1502.00,0.0059
1501.00,0.0060
1500.00,0.0063
1499.00,0.0064
1498.00,0.0066
1497.00,0.0069
1496.00,0.0072
1495.00,0.0074
1494.00,0.0077
1493.00,0.0080
1492.00,0.0083
1491.00,0.0086
1490.00,0.0089
1489.00,0.0094
1488.00,0.0099
1487.00,0.0104
1486.00,0.0109
1485.00,0.0115
1484.00,0.0121
1483.00,0.0128
1482.00,0.0136
1481.00,0.0147
1480.00,0.0159
1479.00,0.0171
1478.00,0.0185
1477.00,0.0205
1476.00,0.0231
1475.00,0.0260
1474.00,0.0300
1473.00,0.0357
1472.00,0.0423
1471.00,0.0487
1470.00,0.0549
1469.00,0.0613
1468.00,0.0682
1467.00,0.0757
1466.00,0.0842
1465.00,0.0933
1464.00,0.1013
1463.00,0.1068
1462.00,0.1104
1461.00,0.1129
1460.00,0.1147
1459.00,0.1160
1458.00,0.1172
1457.00,0.1184
1456.00,0.1188
1455.00,0.1184
1454.00,0.1175
1453.00,0.1161
1452.00,0.1138
1451.00,0.1104
1450.00,0.1054
1449.00,0.0985
1448.00,0.0895
1447.00,0.0800
1446.00,0.0712
1445.00,0.0637
1444.00,0.0571
1443.00,0.0516
1442.00,0.0475
1441.00,0.0446
1440.00,0.0427
1439.00,0.0417
1438.00,0.0413
1437.00,0.0409
1436.00,0.0396
1435.00,0.0372
1434.00,0.0337
1433.00,0.0297
1432.00,0.0255
1431.00,0.0218
1430.00,0.0189
1429.00,0.0168
1428.00,0.0152
1427.00,0.0143
1426.00,0.0136
1425.00,0.0130
1424.00,0.0123
1423.00,0.0119
1422.00,0.0117
1421.00,0.0114
1420.00,0.0110
1419.00,0.0108
1418.00,0.0107
1417.00,0.0105
1416.00,0.0104
1415.00,0.0104
1414.00,0.0104
1413.00,0.0103
1412.00,0.0102
1411.00,0.0101
1410.00,0.0102
1409.00,0.0101
1408.00,0.0101
1407.00,0.0101
1406.00,0.0102
1405.00,0.0102
1404.00,0.0102
1403.00,0.0103
1402.00,0.0104
1401.00,0.0104
1400.00,0.0104
1399.00,0.0104
1398.00,0.0106
1397.00,0.0108
1396.00,0.0110
1395.00,0.0115
1394.00,0.0121
1393.00,0.0126
1392.00,0.0132
1391.00,0.0140
1390.00,0.0151
1389.00,0.0165
1388.00,0.0186
1387.00,0.0218
1386.00,0.0261
1385.00,0.0318
1384.00,0.0396
1383.00,0.0505
1382.00,0.0651
1381.00,0.0834
1380.00,0.1055
1379.00,0.1297
1378.00,0.1521
1377.00,0.1673
1376.00,0.1709
1375.00,0.1608
1374.00,0.1398
1373.00,0.1154
1372.00,0.0935
1371.00,0.0755
1370.00,0.0611
1369.00,0.0502
1368.00,0.0427
1367.00,0.0379
1366.00,0.0353
1365.00,0.0342
1364.00,0.0343
1363.00,0.0354
1362.00,0.0371
1361.00,0.0391
1360.00,0.0405
1359.00,0.0409
1358.00,0.0400
1357.00,0.0378
1356.00,0.0346
1355.00,0.0310
1354.00,0.0275
1353.00,0.0246
1352.00,0.0222
1351.00,0.0203
1350.00,0.0187
1349.00,0.0173
1348.00,0.0161
1347.00,0.0152
1346.00,0.0144
1345.00,0.0138
1344.00,0.0132
1343.00,0.0128
1342.00,0.0123
1341.00,0.0120
1340.00,0.0117
1339.00,0.0116
1338.00,0.0115
1337.00,0.0115
1336.00,0.0115
1335.00,0.0116
1334.00,0.0118
1333.00,0.0121
1332.00,0.0124
1331.00,0.0127
1330.00,0.0129
1329.00,0.0127
1328.00,0.0124
1327.00,0.0120
1326.00,0.0114
1325.00,0.0109
1324.00,0.0104
1323.00,0.0100
1322.00,0.0096
1321.00,0.0093
1320.00,0.0091
1319.00,0.0089
1318.00,0.0087
1317.00,0.0086
1316.00,0.0085
1315.00,0.0085
1314.00,0.0085
1313.00,0.0086
1312.00,0.0087
1311.00,0.0090
1310.00,0.0095
1309.00,0.0103
1308.00,0.0114
1307.00,0.0128
1306.00,0.0141
1305.00,0.0150
1304.00,0.0152
1303.00,0.0149
1302.00,0.0142
1301.00,0.0134
1300.00,0.0129
1299.00,0.0126
1298.00,0.0125
1297.00,0.0125
1296.00,0.0123
1295.00,0.0121
1294.00,0.0118
1293.00,0.0113
1292.00,0.0108
1291.00,0.0104
1290.00,0.0100
1289.00,0.0096
1288.00,0.0093
1287.00,0.0091
1286.00,0.0089
1285.00,0.0087
1284.00,0.0085
1283.00,0.0084
1282.00,0.0083
1281.00,0.0082
1280.00,0.0082
1279.00,0.0081
1278.00,0.0081
1277.00,0.0080
1276.00,0.0079
1275.00,0.0079
1274.00,0.0079
1273.00,0.0080
1272.00,0.0081
1271.00,0.0083
1270.00,0.0085
1269.00,0.0086
1268.00,0.0087
1267.00,0.0089
1266.00,0.0091
1265.00,0.0094
1264.00,0.0097
1263.00,0.0101
1262.00,0.0106
1261.00,0.0112
1260.00,0.0119
1259.00,0.0127
1258.00,0.0136
1257.00,0.0144
1256.00,0.0148
1255.00,0.0146
1254.00,0.0138
1253.00,0.0128
1252.00,0.0118
1251.00,0.0110
1250.00,0.0104
1249.00,0.0099
1248.00,0.0094
1247.00,0.0091
1246.00,0.0089
1245.00,0.0088
1244.00,0.0086
1243.00,0.0085
1242.00,0.0084
1241.00,0.0083
1240.00,0.0083
1239.00,0.0082
1238.00,0.0082
1237.00,0.0082
1236.00,0.0081
1235.00,0.0081
1234.00,0.0080
1233.00,0.0080
1232.00,0.0080
1231.00,0.0080
1230.00,0.0081
1229.00,0.0082
1228.00,0.0083
1227.00,0.0085
1226.00,0.0087
1225.00,0.0089
1224.00,0.0091
1223.00,0.0094
1222.00,0.0097
1221.00,0.0099
1220.00,0.0100
1219.00,0.0099
1218.00,0.0098
1217.00,0.0095
1216.00,0.0092
1215.00,0.0090
1214.00,0.0087
1213.00,0.0085
1212.00,0.0083
1211.00,0.0081
1210.00,0.0080
1209.00,0.0078
1208.00,0.0077
1207.00,0.0076
1206.00,0.0076
1205.00,0.0075
1204.00,0.0075
1203.00,0.0075
1202.00,0.0075
1201.00,0.0075
1200.00,0.0075
1199.00,0.0075
1198.00,0.0075
1197.00,0.0075
1196.00,0.0074
1195.00,0.0074
1194.00,0.0075
1193.00,0.0075
1192.00,0.0075
1191.00,0.0075
1190.00,0.0074
1189.00,0.0074
1188.00,0.0074
1187.00,0.0075
1186.00,0.0076
1185.00,0.0076
1184.00,0.0077
1183.00,0.0079
1182.00,0.0081
1181.00,0.0085
1180.00,0.0089
1179.00,0.0095
1178.00,0.0103
1177.00,0.0113
1176.00,0.0126
1175.00,0.0144
1174.00,0.0168
1173.00,0.0197
1172.00,0.0232
1171.00,0.0271
1170.00,0.0310
1169.00,0.0341
1168.00,0.0360
1167.00,0.0363
1166.00,0.0352
1165.00,0.0331
1164.00,0.0307
1163.00,0.0284
1162.00,0.0263
1161.00,0.0246
1160.00,0.0232
1159.00,0.0222
1158.00,0.0215
1157.00,0.0209
1156.00,0.0204
1155.00,0.0201
1154.00,0.0198
1153.00,0.0195
1152.00,0.0190
1151.00,0.0183
1150.00,0.0174
1149.00,0.0163
1148.00,0.0153
1147.00,0.0143
1146.00,0.0134
1145.00,0.0126
1144.00,0.0118
1143.00,0.0111
1142.00,0.0105
1141.00,0.0100
1140.00,0.0095
1139.00,0.0091
1138.00,0.0088
1137.00,0.0085
1136.00,0.0082
1135.00,0.0080
1134.00,0.0079
1133.00,0.0078
1132.00,0.0077
1131.00,0.0076
1130.00,0.0075
1129.00,0.0075
1128.00,0.0074
1127.00,0.0074
1126.00,0.0074
1125.00,0.0075
1124.00,0.0075
1123.00,0.0076
1122.00,0.0077
1121.00,0.0077
1120.00,0.0077
1119.00,0.0077
1118.00,0.0078
1117.00,0.0078
1116.00,0.0080
1115.00,0.0081
1114.00,0.0083
1113.00,0.0085
1112.00,0.0088
1111.00,0.0090
1110.00,0.0093
1109.00,0.0096
1108.00,0.0100
1107.00,0.0106
1106.00,0.0112
1105.00,0.0118
1104.00,0.0122
1103.00,0.0124
1102.00,0.0123
1101.00,0.0119
1100.00,0.0114
1099.00,0.0108
1098.00,0.0103
1097.00,0.0099
1096.00,0.0096
1095.00,0.0093
1094.00,0.0091
1093.00,0.0089
1092.00,0.0087
1091.00,0.0085
1090.00,0.0083
1089.00,0.0082
1088.00,0.0082
1087.00,0.0081
1086.00,0.0080
1085.00,0.0080
1084.00,0.0080
1083.00,0.0080
1082.00,0.0080
1081.00,0.0079
1080.00,0.0078
1079.00,0.0077
1078.00,0.0076
1077.00,0.0075
1076.00,0.0074
1075.00,0.0073
1074.00,0.0072
1073.00,0.0071
1072.00,0.0071
1071.00,0.0071
1070.00,0.0070
1069.00,0.0070
1068.00,0.0069
1067.00,0.0069
1066.00,0.0069
1065.00,0.0070
1064.00,0.0070
1063.00,0.0071
1062.00,0.0070
1061.00,0.0070
1060.00,0.0070
1059.00,0.0070
1058.00,0.0070
1057.00,0.0071
1056.00,0.0072
1055.00,0.0073
1054.00,0.0073
1053.00,0.0074
1052.00,0.0076
1051.00,0.0078
1050.00,0.0080
1049.00,0.0083
1048.00,0.0086
1047.00,0.0089
1046.00,0.0092
1045.00,0.0095
1044.00,0.0095
1043.00,0.0094
1042.00,0.0092
1041.00,0.0088
1040.00,0.0085
1039.00,0.0083
1038.00,0.0083
1037.00,0.0083
1036.00,0.0084
1035.00,0.0083
1034.00,0.0082
1033.00,0.0080
1032.00,0.0078
1031.00,0.0077
1030.00,0.0076
1029.00,0.0076
1028.00,0.0076
1027.00,0.0076
1026.00,0.0075
1025.00,0.0075
1024.00,0.0076
1023.00,0.0077
1022.00,0.0078
1021.00,0.0079
1020.00,0.0081
1019.00,0.0084
1018.00,0.0086
1017.00,0.0088
1016.00,0.0090
1015.00,0.0091
1014.00,0.0092
1013.00,0.0093
1012.00,0.0095
1011.00,0.0099
1010.00,0.0102
1009.00,0.0107
1008.00,0.0113
1007.00,0.0122
1006.00,0.0132
1005.00,0.0147
1004.00,0.0168
1003.00,0.0197
1002.00,0.0235
1001.00,0.0282
1000.00,0.0332
999.00,0.0376
998.00,0.0399
997.00,0.0395
996.00,0.0364
995.00,0.0317
994.00,0.0267
993.00,0.0223
992.00,0.0187
991.00,0.0161
990.00,0.0143
989.00,0.0131
988.00,0.0123
987.00,0.0119
986.00,0.0118
985.00,0.0120
984.00,0.0124
983.00,0.0132
982.00,0.0143
981.00,0.0160
980.00,0.0185
979.00,0.0218
978.00,0.0259
977.00,0.0309
976.00,0.0365
975.00,0.0419
974.00,0.0461
973.00,0.0479
972.00,0.0464
971.00,0.0420
970.00,0.0359
969.00,0.0295
968.00,0.0241
967.00,0.0199
966.00,0.0169
965.00,0.0148
964.00,0.0133
963.00,0.0122
962.00,0.0114
961.00,0.0107
960.00,0.0101
959.00,0.0097
958.00,0.0092
957.00,0.0089
956.00,0.0085
955.00,0.0083
954.00,0.0081
953.00,0.0079
952.00,0.0078
951.00,0.0078
950.00,0.0077
949.00,0.0076
948.00,0.0076
947.00,0.0075
946.00,0.0077
945.00,0.0079
944.00,0.0082
943.00,0.0086
942.00,0.0088
941.00,0.0090
940.00,0.0089
939.00,0.0087
938.00,0.0083
937.00,0.0079
936.00,0.0074
935.00,0.0070
934.00,0.0067
933.00,0.0065
932.00,0.0063
931.00,0.0062
930.00,0.0062
929.00,0.0062
928.00,0.0062
927.00,0.0062
926.00,0.0062
925.00,0.0062
924.00,0.0062
923.00,0.0061
922.00,0.0060
921.00,0.0059
920.00,0.0059
919.00,0.0059
918.00,0.0060
917.00,0.0061
916.00,0.0062
915.00,0.0062
914.00,0.0063
913.00,0.0063
912.00,0.0065
911.00,0.0067
910.00,0.0069
909.00,0.0072
908.00,0.0076
907.00,0.0080
906.00,0.0086
905.00,0.0095
904.00,0.0107
903.00,0.0123
902.00,0.0139
901.00,0.0154
900.00,0.0164
899.00,0.0167
898.00,0.0160
897.00,0.0148
896.00,0.0132
895.00,0.0117
894.00,0.0104
893.00,0.0093
892.00,0.0085
891.00,0.0079
890.00,0.0076
889.00,0.0073
888.00,0.0071
887.00,0.0069
886.00,0.0069
885.00,0.0069
884.00,0.0069
883.00,0.0069
882.00,0.0070
881.00,0.0070
880.00,0.0071
879.00,0.0073
878.00,0.0075
877.00,0.0075
876.00,0.0076
875.00,0.0076
874.00,0.0076
873.00,0.0077
872.00,0.0077
871.00,0.0077
870.00,0.0077
869.00,0.0077
868.00,0.0078
867.00,0.0079
866.00,0.0080
865.00,0.0081
864.00,0.0082
863.00,0.0083
862.00,0.0084
861.00,0.0085
860.00,0.0086
859.00,0.0087
858.00,0.0088
857.00,0.0090
856.00,0.0092
855.00,0.0095
854.00,0.0098
853.00,0.0101
852.00,0.0104
851.00,0.0107
850.00,0.0112
849.00,0.0119
848.00,0.0130
847.00,0.0146
846.00,0.0173
845.00,0.0213
844.00,0.0270
843.00,0.0337
842.00,0.0395
841.00,0.0416
840.00,0.0390
839.00,0.0329
838.00,0.0262
837.00,0.0207
836.00,0.0171
835.00,0.0149
834.00,0.0135
833.00,0.0126
832.00,0.0120
831.00,0.0116
830.00,0.0111
829.00,0.0108
828.00,0.0105
827.00,0.0104
826.00,0.0103
825.00,0.0103
824.00,0.0103
823.00,0.0102
822.00,0.0102
821.00,0.0103
820.00,0.0105
819.00,0.0108
818.00,0.0111
817.00,0.0115
816.00,0.0121
815.00,0.0130
814.00,0.0143
813.00,0.0159
812.00,0.0178
811.00,0.0194
810.00,0.0205
809.00,0.0209
808.00,0.0204
807.00,0.0194
806.00,0.0181
805.00,0.0167
804.00,0.0153
803.00,0.0141
802.00,0.0131
801.00,0.0122
800.00,0.0115
799.00,0.0108
798.00,0.0103
797.00,0.0100
796.00,0.0098
795.00,0.0096
794.00,0.0094
793.00,0.0091
792.00,0.0089
791.00,0.0087
790.00,0.0084
789.00,0.0081
788.00,0.0078
787.00,0.0074
786.00,0.0071
785.00,0.0069
784.00,0.0068
783.00,0.0066
782.00,0.0064
781.00,0.0062
780.00,0.0060
779.00,0.0059
778.00,0.0059
777.00,0.0060
776.00,0.0060
775.00,0.0060
774.00,0.0060
773.00,0.0061
772.00,0.0063
771.00,0.0063
770.00,0.0064
769.00,0.0064
768.00,0.0063
767.00,0.0063
766.00,0.0062
765.00,0.0061
764.00,0.0061
763.00,0.0061
762.00,0.0062
761.00,0.0064
760.00,0.0065
759.00,0.0065
758.00,0.0064
757.00,0.0063
756.00,0.0064
755.00,0.0065
754.00,0.0066
753.00,0.0068
752.00,0.0069
751.00,0.0071
750.00,0.0073
749.00,0.0075
748.00,0.0078
747.00,0.0080
746.00,0.0081
745.00,0.0082
744.00,0.0084
743.00,0.0085
742.00,0.0088
741.00,0.0092
740.00,0.0095
739.00,0.0097
738.00,0.0099
737.00,0.0102
736.00,0.0106
735.00,0.0112
734.00,0.0119
733.00,0.0127
732.00,0.0136
731.00,0.0145
730.00,0.0153
729.00,0.0157
728.00,0.0157
727.00,0.0156
726.00,0.0156
725.00,0.0160
724.00,0.0166
723.00,0.0173
722.00,0.0181
721.00,0.0186
720.00,0.0185
719.00,0.0177
718.00,0.0163
717.00,0.0149
716.00,0.0137
715.00,0.0128
714.00,0.0121
713.00,0.0116
712.00,0.0111
711.00,0.0106
710.00,0.0102
709.00,0.0100
708.00,0.0099
707.00,0.0098
706.00,0.0097
705.00,0.0096
704.00,0.0095
703.00,0.0094
702.00,0.0093
701.00,0.0092
700.00,0.0092
699.00,0.0090
698.00,0.0088
697.00,0.0087
696.00,0.0087
695.00,0.0087
694.00,0.0086
693.00,0.0084
692.00,0.0083
691.00,0.0082
690.00,0.0082
689.00,0.0081
688.00,0.0081
687.00,0.0082
686.00,0.0082
685.00,0.0082
684.00,0.0081
683.00,0.0080
682.00,0.0080
681.00,0.0079
680.00,0.0078
679.00,0.0076
678.00,0.0075
677.00,0.0075
676.00,0.0076
675.00,0.0078
674.00,0.0079
673.00,0.0080
672.00,0.0081
671.00,0.0081
670.00,0.0080
669.00,0.0080
668.00,0.0079
667.00,0.0080
666.00,0.0081
665.00,0.0081
664.00,0.0081
663.00,0.0081
662.00,0.0081
661.00,0.0079
660.00,0.0078
659.00,0.0077
658.00,0.0076
657.00,0.0075
656.00,0.0072
655.00,0.0071
654.00,0.0073
653.00,0.0076
652.00,0.0079
651.00,0.0081
650.00,0.0081
649.00,0.0079
648.00,0.0078
647.00,0.0077
646.00,0.0077
645.00,0.0077
644.00,0.0076
643.00,0.0074
642.00,0.0074
641.00,0.0075
640.00,0.0077
639.00,0.0080
638.00,0.0081
637.00,0.0081
636.00,0.0082
635.00,0.0084
634.00,0.0085
633.00,0.0085
632.00,0.0082
631.00,0.0079
630.00,0.0077
629.00,0.0077
628.00,0.0079
627.00,0.0082
626.00,0.0084
625.00,0.0085
624.00,0.0085
623.00,0.0086
622.00,0.0086
621.00,0.0084
620.00,0.0081
619.00,0.0078
618.00,0.0076
617.00,0.0075
616.00,0.0075
615.00,0.0075
614.00,0.0075
613.00,0.0075
612.00,0.0075
611.00,0.0075
610.00,0.0077
609.00,0.0078
608.00,0.0078
607.00,0.0078
606.00,0.0078
605.00,0.0078
604.00,0.0077
603.00,0.0074
602.00,0.0072
601.00,0.0072
600.00,0.0073
599.00,0.0074
598.00,0.0075
597.00,0.0076
596.00,0.0076
595.00,0.0077
594.00,0.0076
593.00,0.0073
592.00,0.0071
591.00,0.0069
590.00,0.0070
589.00,0.0071
588.00,0.0072
587.00,0.0071
586.00,0.0070
585.00,0.0070
584.00,0.0071
583.00,0.0074
582.00,0.0078
581.00,0.0079
580.00,0.0076
579.00,0.0072
578.00,0.0071
577.00,0.0074
576.00,0.0078
575.00,0.0080
574.00,0.0080
573.00,0.0079
572.00,0.0079
571.00,0.0080
570.00,0.0082
569.00,0.0083
568.00,0.0083
567.00,0.0082
566.00,0.0080
565.00,0.0078
564.00,0.0076
563.00,0.0075
562.00,0.0077
561.00,0.0080
560.00,0.0082
559.00,0.0082
558.00,0.0082
557.00,0.0082
556.00,0.0083
555.00,0.0084
554.00,0.0085
553.00,0.0084
552.00,0.0081
551.00,0.0077
550.00,0.0074
549.00,0.0073
548.00,0.0074
547.00,0.0075
546.00,0.0075
545.00,0.0074
544.00,0.0073
543.00,0.0075
542.00,0.0077
541.00,0.0079
540.00,0.0080
539.00,0.0080
538.00,0.0083
537.00,0.0087
536.00,0.0091
535.00,0.0092
534.00,0.0091
533.00,0.0088
532.00,0.0085
531.00,0.0086
530.00,0.0090
529.00,0.0093
528.00,0.0091
527.00,0.0085
526.00,0.0078
525.00,0.0076
524.00,0.0078
523.00,0.0083
522.00,0.0090
521.00,0.0094
520.00,0.0095
519.00,0.0090
518.00,0.0083
517.00,0.0079
516.00,0.0080
515.00,0.0082
514.00,0.0084
513.00,0.0083
512.00,0.0080
511.00,0.0076
510.00,0.0075
509.00,0.0078
508.00,0.0082
507.00,0.0083
506.00,0.0079
505.00,0.0075
504.00,0.0074
503.00,0.0077
502.00,0.0084
501.00,0.0091
500.00,0.0094
499.00,0.0091
498.00,0.0086
497.00,0.0081
496.00,0.0079
495.00,0.0079
494.00,0.0080
493.00,0.0081
492.00,0.0082
491.00,0.0083
490.00,0.0080
489.00,0.0077
488.00,0.0076
487.00,0.0076
486.00,0.0075
485.00,0.0068
484.00,0.0058
483.00,0.0050
482.00,0.0049
481.00,0.0054
480.00,0.0063
479.00,0.0072
478.00,0.0081
477.00,0.0087
476.00,0.0090
475.00,0.0088
474.00,0.0084
473.00,0.0081
472.00,0.0082
471.00,0.0086
470.00,0.0088
469.00,0.0084
468.00,0.0080
467.00,0.0081
466.00,0.0090
465.00,0.0105
464.00,0.0122
463.00,0.0138
462.00,0.0149
461.00,0.0154
460.00,0.0152
459.00,0.0146
458.00,0.0137
457.00,0.0129
456.00,0.0123
455.00,0.0122
454.00,0.0125
453.00,0.0126
452.00,0.0115
451.00,0.0095
450.00,0.0076
