Created as New Dataset,Sample 094 By Administrator Date Wednesday, September 03 2025
cm-1,A
4000.00,0.0011
3999.00,0.0011
3998.00,0.0012
3997.00,0.0012
3996.00,0.0012
3995.00,0.0012
3994.00,0.0012
3993.00,0.0012
3992.00,0.0012
3991.00,0.0012
3990.00,0.0012
3989.00,0.0012
3988.00,0.0012
3987.00,0.0012
3986.00,0.0011
3985.00,0.0011
3984.00,0.0011
3983.00,0.0011
3982.00,0.0011
3981.00,0.0011
3980.00,0.0011
3979.00,0.0011
3978.00,0.0011
3977.00,0.0011
3976.00,0.0011
3975.00,0.0011
3974.00,0.0011
3973.00,0.0011
3972.00,0.0011
3971.00,0.0011
3970.00,0.0011
3969.00,0.0011
3968.00,0.0010
3967.00,0.0010
3966.00,0.0010
3965.00,0.0009
3964.00,0.0009
3963.00,0.0010
3962.00,0.0010
3961.00,0.0010
3960.00,0.0010
3959.00,0.0010
3958.00,0.0010
3957.00,0.0010
3956.00,0.0010
3955.00,0.0010
3954.00,0.0010
3953.00,0.0009
3952.00,0.0009
3951.00,0.0009
3950.00,0.0009
3949.00,0.0009
3948.00,0.0009
3947.00,0.0010
3946.00,0.0009
3945.00,0.0009
3944.00,0.0009
3943.00,0.0009
3942.00,0.0009
3941.00,0.0009
3940.00,0.0010
3939.00,0.0010
3938.00,0.0010
3937.00,0.0010
3936.00,0.0010
3935.00,0.0010
3934.00,0.0009
3933.00,0.0009
3932.00,0.0010
3931.00,0.0010
3930.00,0.0010
3929.00,0.0011
3928.00,0.0011
3927.00,0.0011
3926.00,0.0011
3925.00,0.0011
3924.00,0.0010
3923.00,0.0010
3922.00,0.0010
3921.00,0.0010
3920.00,0.0010
3919.00,0.0010
3918.00,0.0010
3917.00,0.0010
3916.00,0.0010
3915.00,0.0009
3914.00,0.0009
3913.00,0.0010
3912.00,0.0010
3911.00,0.0010
3910.00,0.0010
3909.00,0.0009
3908.00,0.0009
3907.00,0.0008
3906.00,0.0008
3905.00,0.0008
3904.00,0.0008
3903.00,0.0008
3902.00,0.0008
3901.00,0.0008
3900.00,0.0008
3899.00,0.0008
3898.00,0.0009
3897.00,0.0010
3896.00,0.0010
3895.00,0.0010
3894.00,0.0011
3893.00,0.0011
3892.00,0.0010
3891.00,0.0010
3890.00,0.0010
3889.00,0.0010
3888.00,0.0009
3887.00,0.0009
3886.00,0.0009
3885.00,0.0009
3884.00,0.0010
3883.00,0.0009
3882.00,0.0009
3881.00,0.0009
3880.00,0.0009
3879.00,0.0010
3878.00,0.0010
3877.00,0.0010
3876.00,0.0010
3875.00,0.0010
3874.00,0.0010
3873.00,0.0010
3872.00,0.0010
3871.00,0.0010
3870.00,0.0010
3869.00,0.0010
3868.00,0.0009
3867.00,0.0009
3866.00,0.0009
3865.00,0.0009
3864.00,0.0009
3863.00,0.0009
3862.00,0.0009
3861.00,0.0009
3860.00,0.0009
3859.00,0.0009
3858.00,0.0010
3857.00,0.0009
3856.00,0.0009
3855.00,0.0009
3854.00,0.0009
3853.00,0.0009
3852.00,0.0009
3851.00,0.0009
3850.00,0.0008
3849.00,0.0008
3848.00,0.0008
3847.00,0.0009
3846.00,0.0009
3845.00,0.0009
3844.00,0.0009
3843.00,0.0009
3842.00,0.0009
3841.00,0.0009
3840.00,0.0009
3839.00,0.0009
3838.00,0.0009
3837.00,0.0009
3836.00,0.0009
3835.00,0.0009
3834.00,0.0009
3833.00,0.0009
3832.00,0.0009
3831.00,0.0009
3830.00,0.0009
3829.00,0.0009
3828.00,0.0009
3827.00,0.0009
3826.00,0.0009
3825.00,0.0009
3824.00,0.0009
3823.00,0.0009
3822.00,0.0010
3821.00,0.0010
3820.00,0.0010
3819.00,0.0009
3818.00,0.0009
3817.00,0.0009
3816.00,0.0009
3815.00,0.0009
3814.00,0.0009
3813.00,0.0009
3812.00,0.0009
3811.00,0.0009
3810.00,0.0009
3809.00,0.0009
3808.00,0.0009
3807.00,0.0009
3806.00,0.0009
3805.00,0.0010
3804.00,0.0010
3803.00,0.0009
3802.00,0.0009
3801.00,0.0009
3800.00,0.0008
3799.00,0.0008
3798.00,0.0008
3797.00,0.0008
3796.00,0.0009
3795.00,0.0009
3794.00,0.0009
3793.00,0.0009
3792.00,0.0009
3791.00,0.0009
3790.00,0.0009
3789.00,0.0010
3788.00,0.0010
3787.00,0.0010
3786.00,0.0010
3785.00,0.0010
3784.00,0.0009
3783.00,0.0009
3782.00,0.0009
3781.00,0.0009
3780.00,0.0009
3779.00,0.0010
3778.00,0.0010
3777.00,0.0010
3776.00,0.0010
3775.00,0.0010
3774.00,0.0010
3773.00,0.0010
3772.00,0.0010
3771.00,0.0010
3770.00,0.0010
3769.00,0.0010
3768.00,0.0010
3767.00,0.0010
3766.00,0.0010
3765.00,0.0010
3764.00,0.0010
3763.00,0.0010
3762.00,0.0011
3761.00,0.0011
3760.00,0.0011
3759.00,0.0011
3758.00,0.0011
3757.00,0.0010
3756.00,0.0010
3755.00,0.0010
3754.00,0.0011
3753.00,0.0011
3752.00,0.0011
3751.00,0.0010
3750.00,0.0009
3749.00,0.0009
3748.00,0.0009
3747.00,0.0009
3746.00,0.0008
3745.00,0.0007
3744.00,0.0007
3743.00,0.0007
3742.00,0.0007
3741.00,0.0008
3740.00,0.0008
3739.00,0.0008
3738.00,0.0008
3737.00,0.0008
3736.00,0.0009
3735.00,0.0009
3734.00,0.0009
3733.00,0.0008
3732.00,0.0008
3731.00,0.0007
3730.00,0.0007
3729.00,0.0007
3728.00,0.0008
3727.00,0.0008
3726.00,0.0008
3725.00,0.0009
3724.00,0.0009
3723.00,0.0009
3722.00,0.0009
3721.00,0.0009
3720.00,0.0008
3719.00,0.0008
3718.00,0.0008
3717.00,0.0008
3716.00,0.0008
3715.00,0.0008
3714.00,0.0008
3713.00,0.0008
3712.00,0.0007
3711.00,0.0007
3710.00,0.0007
3709.00,0.0008
3708.00,0.0008
3707.00,0.0008
3706.00,0.0008
3705.00,0.0008
3704.00,0.0008
3703.00,0.0008
3702.00,0.0008
3701.00,0.0008
3700.00,0.0008
3699.00,0.0008
3698.00,0.0008
3697.00,0.0008
3696.00,0.0008
3695.00,0.0008
3694.00,0.0008
3693.00,0.0008
3692.00,0.0009
3691.00,0.0009
3690.00,0.0009
3689.00,0.0009
3688.00,0.0009
3687.00,0.0009
3686.00,0.0009
3685.00,0.0009
3684.00,0.0009
3683.00,0.0009
3682.00,0.0008
3681.00,0.0008
3680.00,0.0008
3679.00,0.0009
3678.00,0.0009
3677.00,0.0009
3676.00,0.0008
3675.00,0.0008
3674.00,0.0008
3673.00,0.0007
3672.00,0.0007
3671.00,0.0006
3670.00,0.0006
3669.00,0.0007
3668.00,0.0007
3667.00,0.0008
3666.00,0.0008
3665.00,0.0009
3664.00,0.0009
3663.00,0.0008
3662.00,0.0008
3661.00,0.0007
3660.00,0.0007
3659.00,0.0007
3658.00,0.0008
3657.00,0.0008
3656.00,0.0008
3655.00,0.0009
3654.00,0.0009
3653.00,0.0009
3652.00,0.0008
3651.00,0.0008
3650.00,0.0007
3649.00,0.0007
3648.00,0.0007
3647.00,0.0007
3646.00,0.0007
3645.00,0.0007
3644.00,0.0008
3643.00,0.0009
3642.00,0.0009
3641.00,0.0009
3640.00,0.0010
3639.00,0.0010
3638.00,0.0009
3637.00,0.0009
3636.00,0.0009
3635.00,0.0010
3634.00,0.0010
3633.00,0.0010
3632.00,0.0010
3631.00,0.0010
3630.00,0.0009
3629.00,0.0009
3628.00,0.0009
3627.00,0.0009
3626.00,0.0009
3625.00,0.0009
3624.00,0.0009
3623.00,0.0010
3622.00,0.0010
3621.00,0.0010
3620.00,0.0011
3619.00,0.0011
3618.00,0.0011
3617.00,0.0011
3616.00,0.0011
3615.00,0.0011
3614.00,0.0011
3613.00,0.0011
3612.00,0.0011
3611.00,0.0011
3610.00,0.0011
3609.00,0.0011
3608.00,0.0011
3607.00,0.0012
3606.00,0.0013
3605.00,0.0014
3604.00,0.0014
3603.00,0.0015
3602.00,0.0015
3601.00,0.0015
3600.00,0.0016
3599.00,0.0016
3598.00,0.0015
3597.00,0.0016
3596.00,0.0016
3595.00,0.0016
3594.00,0.0017
3593.00,0.0017
3592.00,0.0017
3591.00,0.0017
3590.00,0.0017
3589.00,0.0016
3588.00,0.0016
3587.00,0.0016
3586.00,0.0016
3585.00,0.0017
3584.00,0.0017
3583.00,0.0017
3582.00,0.0017
3581.00,0.0018
3580.00,0.0018
3579.00,0.0019
3578.00,0.0020
3577.00,0.0020
3576.00,0.0020
3575.00,0.0020
3574.00,0.0020
3573.00,0.0020
3572.00,0.0019
3571.00,0.0019
3570.00,0.0019
3569.00,0.0019
3568.00,0.0020
3567.00,0.0020
3566.00,0.0021
3565.00,0.0021
3564.00,0.0022
3563.00,0.0022
3562.00,0.0023
3561.00,0.0023
3560.00,0.0024
3559.00,0.0025
3558.00,0.0025
3557.00,0.0025
3556.00,0.0025
3555.00,0.0025
3554.00,0.0025
3553.00,0.0025
3552.00,0.0026
3551.00,0.0026
3550.00,0.0027
3549.00,0.0027
3548.00,0.0027
3547.00,0.0027
3546.00,0.0027
3545.00,0.0027
3544.00,0.0028
3543.00,0.0028
3542.00,0.0028
3541.00,0.0029
3540.00,0.0029
3539.00,0.0029
3538.00,0.0030
3537.00,0.0030
3536.00,0.0030
3535.00,0.0030
3534.00,0.0030
3533.00,0.0031
3532.00,0.0031
3531.00,0.0031
3530.00,0.0032
3529.00,0.0032
3528.00,0.0032
3527.00,0.0032
3526.00,0.0032
3525.00,0.0033
3524.00,0.0033
3523.00,0.0033
3522.00,0.0034
3521.00,0.0034
3520.00,0.0035
3519.00,0.0035
3518.00,0.0035
3517.00,0.0036
3516.00,0.0036
3515.00,0.0036
3514.00,0.0036
3513.00,0.0037
3512.00,0.0037
3511.00,0.0037
3510.00,0.0037
3509.00,0.0038
3508.00,0.0038
3507.00,0.0038
3506.00,0.0038
3505.00,0.0039
3504.00,0.0039
3503.00,0.0040
3502.00,0.0040
3501.00,0.0040
3500.00,0.0041
3499.00,0.0041
3498.00,0.0041
3497.00,0.0042
3496.00,0.0042
3495.00,0.0042
3494.00,0.0042
3493.00,0.0043
3492.00,0.0043
3491.00,0.0043
3490.00,0.0043
3489.00,0.0044
3488.00,0.0044
3487.00,0.0044
3486.00,0.0045
3485.00,0.0045
3484.00,0.0045
3483.00,0.0045
3482.00,0.0045
3481.00,0.0045
3480.00,0.0046
3479.00,0.0046
3478.00,0.0047
3477.00,0.0047
3476.00,0.0048
3475.00,0.0048
3474.00,0.0049
3473.00,0.0049
3472.00,0.0049
3471.00,0.0050
3470.00,0.0050
3469.00,0.0050
3468.00,0.0051
3467.00,0.0051
3466.00,0.0052
3465.00,0.0052
3464.00,0.0052
3463.00,0.0053
3462.00,0.0053
3461.00,0.0053
3460.00,0.0053
3459.00,0.0054
3458.00,0.0054
3457.00,0.0054
3456.00,0.0055
3455.00,0.0055
3454.00,0.0055
3453.00,0.0055
3452.00,0.0055
3451.00,0.0056
3450.00,0.0056
3449.00,0.0056
3448.00,0.0057
3447.00,0.0057
3446.00,0.0058
3445.00,0.0058
3444.00,0.0058
3443.00,0.0058
3442.00,0.0059
3441.00,0.0059
3440.00,0.0059
3439.00,0.0060
3438.00,0.0060
3437.00,0.0061
3436.00,0.0062
3435.00,0.0062
3434.00,0.0063
3433.00,0.0063
3432.00,0.0063
3431.00,0.0063
3430.00,0.0063
3429.00,0.0064
3428.00,0.0064
3427.00,0.0065
3426.00,0.0065
3425.00,0.0066
3424.00,0.0066
3423.00,0.0067
3422.00,0.0067
3421.00,0.0067
3420.00,0.0068
3419.00,0.0068
3418.00,0.0069
3417.00,0.0069
3416.00,0.0070
3415.00,0.0070
3414.00,0.0071
3413.00,0.0071
3412.00,0.0071
3411.00,0.0071
3410.00,0.0072
3409.00,0.0072
3408.00,0.0073
3407.00,0.0073
3406.00,0.0074
3405.00,0.0074
3404.00,0.0074
3403.00,0.0074
3402.00,0.0074
3401.00,0.0074
3400.00,0.0074
3399.00,0.0074
3398.00,0.0074
3397.00,0.0074
3396.00,0.0074
3395.00,0.0074
3394.00,0.0075
3393.00,0.0075
3392.00,0.0075
3391.00,0.0075
3390.00,0.0075
3389.00,0.0075
3388.00,0.0075
3387.00,0.0076
3386.00,0.0076
3385.00,0.0076
3384.00,0.0076
3383.00,0.0076
3382.00,0.0076
3381.00,0.0076
3380.00,0.0077
3379.00,0.0078
3378.00,0.0078
3377.00,0.0078
3376.00,0.0078
3375.00,0.0078
3374.00,0.0078
3373.00,0.0079
3372.00,0.0079
3371.00,0.0080
3370.00,0.0080
3369.00,0.0080
3368.00,0.0080
3367.00,0.0080
3366.00,0.0080
3365.00,0.0080
3364.00,0.0081
3363.00,0.0082
3362.00,0.0082
3361.00,0.0083
3360.00,0.0083
3359.00,0.0084
3358.00,0.0084
3357.00,0.0085
3356.00,0.0085
3355.00,0.0086
3354.00,0.0086
3353.00,0.0086
3352.00,0.0087
3351.00,0.0087
3350.00,0.0087
3349.00,0.0088
3348.00,0.0088
3347.00,0.0089
3346.00,0.0089
3345.00,0.0089
3344.00,0.0089
3343.00,0.0088
3342.00,0.0088
3341.00,0.0088
3340.00,0.0088
3339.00,0.0088
3338.00,0.0088
3337.00,0.0088
3336.00,0.0088
3335.00,0.0088
3334.00,0.0087
3333.00,0.0087
3332.00,0.0087
3331.00,0.0086
3330.00,0.0086
3329.00,0.0086
3328.00,0.0085
3327.00,0.0085
3326.00,0.0084
3325.00,0.0084
3324.00,0.0084
3323.00,0.0084
3322.00,0.0083
3321.00,0.0083
3320.00,0.0083
3319.00,0.0083
3318.00,0.0082
3317.00,0.0082
3316.00,0.0082
3315.00,0.0082
3314.00,0.0082
3313.00,0.0082
3312.00,0.0082
3311.00,0.0082
3310.00,0.0082
3309.00,0.0083
3308.00,0.0084
3307.00,0.0084
3306.00,0.0085
3305.00,0.0085
3304.00,0.0085
3303.00,0.0085
3302.00,0.0085
3301.00,0.0085
3300.00,0.0085
3299.00,0.0084
3298.00,0.0084
3297.00,0.0083
3296.00,0.0083
3295.00,0.0083
3294.00,0.0083
3293.00,0.0083
3292.00,0.0083
3291.00,0.0083
3290.00,0.0083
3289.00,0.0083
3288.00,0.0082
3287.00,0.0082
3286.00,0.0082
3285.00,0.0081
3284.00,0.0081
3283.00,0.0081
3282.00,0.0081
3281.00,0.0080
3280.00,0.0080
3279.00,0.0080
3278.00,0.0080
3277.00,0.0080
3276.00,0.0079
3275.00,0.0078
3274.00,0.0078
3273.00,0.0078
3272.00,0.0077
3271.00,0.0077
3270.00,0.0076
3269.00,0.0076
3268.00,0.0076
3267.00,0.0076
3266.00,0.0075
3265.00,0.0075
3264.00,0.0074
3263.00,0.0073
3262.00,0.0073
3261.00,0.0073
3260.00,0.0073
3259.00,0.0072
3258.00,0.0071
3257.00,0.0071
3256.00,0.0070
3255.00,0.0070
3254.00,0.0069
3253.00,0.0069
3252.00,0.0068
3251.00,0.0067
3250.00,0.0067
3249.00,0.0066
3248.00,0.0066
3247.00,0.0066
3246.00,0.0066
3245.00,0.0065
3244.00,0.0065
3243.00,0.0065
3242.00,0.0064
3241.00,0.0064
3240.00,0.0064
3239.00,0.0064
3238.00,0.0064
3237.00,0.0064
3236.00,0.0063
3235.00,0.0063
3234.00,0.0063
3233.00,0.0063
3232.00,0.0063
3231.00,0.0063
3230.00,0.0063
3229.00,0.0062
3228.00,0.0062
3227.00,0.0061
3226.00,0.0061
3225.00,0.0061
3224.00,0.0061
3223.00,0.0061
3222.00,0.0061
3221.00,0.0061
3220.00,0.0061
3219.00,0.0062
3218.00,0.0062
3217.00,0.0062
3216.00,0.0062
3215.00,0.0061
3214.00,0.0061
3213.00,0.0061
3212.00,0.0061
3211.00,0.0061
3210.00,0.0061
3209.00,0.0061
3208.00,0.0061
3207.00,0.0061
3206.00,0.0060
3205.00,0.0060
3204.00,0.0060
3203.00,0.0060
3202.00,0.0060
3201.00,0.0060
3200.00,0.0060
3199.00,0.0059
3198.00,0.0059
3197.00,0.0059
3196.00,0.0059
3195.00,0.0059
3194.00,0.0059
3193.00,0.0059
3192.00,0.0058
3191.00,0.0058
3190.00,0.0058
3189.00,0.0057
3188.00,0.0057
3187.00,0.0056
3186.00,0.0056
3185.00,0.0056
3184.00,0.0056
3183.00,0.0055
3182.00,0.0055
3181.00,0.0055
3180.00,0.0055
3179.00,0.0055
3178.00,0.0055
3177.00,0.0054
3176.00,0.0054
3175.00,0.0053
3174.00,0.0052
3173.00,0.0052
3172.00,0.0052
3171.00,0.0052
3170.00,0.0052
3169.00,0.0051
3168.00,0.0051
3167.00,0.0051
3166.00,0.0051
3165.00,0.0051
3164.00,0.0051
3163.00,0.0051
3162.00,0.0051
3161.00,0.0051
3160.00,0.0050
3159.00,0.0050
3158.00,0.0050
3157.00,0.0050
3156.00,0.0050
3155.00,0.0050
3154.00,0.0049
3153.00,0.0049
3152.00,0.0049
3151.00,0.0048
3150.00,0.0048
3149.00,0.0048
3148.00,0.0048
3147.00,0.0048
3146.00,0.0048
3145.00,0.0048
3144.00,0.0048
3143.00,0.0048
3142.00,0.0048
3141.00,0.0048
3140.00,0.0047
3139.00,0.0047
3138.00,0.0046
3137.00,0.0046
3136.00,0.0046
3135.00,0.0046
3134.00,0.0046
3133.00,0.0046
3132.00,0.0046
3131.00,0.0045
3130.00,0.0045
3129.00,0.0044
3128.00,0.0044
3127.00,0.0044
3126.00,0.0043
3125.00,0.0043
3124.00,0.0043
3123.00,0.0043
3122.00,0.0043
3121.00,0.0043
3120.00,0.0042
3119.00,0.0042
3118.00,0.0042
3117.00,0.0042
3116.00,0.0041
3115.00,0.0041
3114.00,0.0040
3113.00,0.0040
3112.00,0.0040
3111.00,0.0040
3110.00,0.0040
3109.00,0.0040
3108.00,0.0040
3107.00,0.0040
3106.00,0.0040
3105.00,0.0039
3104.00,0.0039
3103.00,0.0040
3102.00,0.0040
3101.00,0.0039
3100.00,0.0039
3099.00,0.0039
3098.00,0.0038
3097.00,0.0038
3096.00,0.0038
3095.00,0.0038
3094.00,0.0038
3093.00,0.0038
3092.00,0.0038
3091.00,0.0038
3090.00,0.0039
3089.00,0.0039
3088.00,0.0039
3087.00,0.0038
3086.00,0.0038
3085.00,0.0038
3084.00,0.0037
3083.00,0.0037
3082.00,0.0037
3081.00,0.0036
3080.00,0.0036
3079.00,0.0037
3078.00,0.0037
3077.00,0.0037
3076.00,0.0037
3075.00,0.0038
3074.00,0.0038
3073.00,0.0038
3072.00,0.0038
3071.00,0.0038
3070.00,0.0038
3069.00,0.0038
3068.00,0.0038
3067.00,0.0038
3066.00,0.0038
3065.00,0.0038
3064.00,0.0039
3063.00,0.0039
3062.00,0.0040
3061.00,0.0040
3060.00,0.0040
3059.00,0.0040
3058.00,0.0040
3057.00,0.0040
3056.00,0.0040
3055.00,0.0040
3054.00,0.0040
3053.00,0.0040
3052.00,0.0040
3051.00,0.0041
3050.00,0.0041
3049.00,0.0041
3048.00,0.0041
3047.00,0.0041
3046.00,0.0041
3045.00,0.0041
3044.00,0.0041
3043.00,0.0042
3042.00,0.0042
3041.00,0.0043
3040.00,0.0043
3039.00,0.0043
3038.00,0.0044
3037.00,0.0044
3036.00,0.0044
3035.00,0.0044
3034.00,0.0044
3033.00,0.0044
3032.00,0.0045
3031.00,0.0045
3030.00,0.0045
3029.00,0.0046
3028.00,0.0046
3027.00,0.0047
3026.00,0.0047
3025.00,0.0048
3024.00,0.0048
3023.00,0.0049
3022.00,0.0049
3021.00,0.0050
3020.00,0.0051
3019.00,0.0051
3018.00,0.0052
3017.00,0.0053
3016.00,0.0054
3015.00,0.0055
3014.00,0.0056
3013.00,0.0056
3012.00,0.0057
3011.00,0.0058
3010.00,0.0059
3009.00,0.0060
3008.00,0.0062
3007.00,0.0063
3006.00,0.0064
3005.00,0.0065
3004.00,0.0066
3003.00,0.0068
3002.00,0.0070
3001.00,0.0072
3000.00,0.0074
2999.00,0.0076
2998.00,0.0079
2997.00,0.0082
2996.00,0.0085
2995.00,0.0088
2994.00,0.0092
2993.00,0.0097
2992.00,0.0101
2991.00,0.0107
2990.00,0.0113
2989.00,0.0119
2988.00,0.0126
2987.00,0.0134
2986.00,0.0142
2985.00,0.0151
2984.00,0.0162
2983.00,0.0173
2982.00,0.0187
2981.00,0.0202
2980.00,0.0220
2979.00,0.0241
2978.00,0.0264
2977.00,0.0291
2976.00,0.0321
2975.00,0.0355
2974.00,0.0393
2973.00,0.0436
2972.00,0.0485
2971.00,0.0541
2970.00,0.0603
2969.00,0.0671
2968.00,0.0744
2967.00,0.0821
2966.00,0.0900
2965.00,0.0980
2964.00,0.1056
2963.00,0.1126
2962.00,0.1186
2961.00,0.1236
2960.00,0.1278
2959.00,0.1315
2958.00,0.1354
2957.00,0.1400
2956.00,0.1457
2955.00,0.1526
2954.00,0.1606
2953.00,0.1689
2952.00,0.1764
2951.00,0.1820
2950.00,0.1845
2949.00,0.1829
2948.00,0.1771
2947.00,0.1679
2946.00,0.1563
2945.00,0.1438
2944.00,0.1319
2943.00,0.1216
2942.00,0.1136
2941.00,0.1080
2940.00,0.1049
2939.00,0.1041
2938.00,0.1051
2937.00,0.1080
2936.00,0.1124
2935.00,0.1184
2934.00,0.1257
2933.00,0.1342
2932.00,0.1440
2931.00,0.1547
2930.00,0.1661
2929.00,0.1779
2928.00,0.1898
2927.00,0.2015
2926.00,0.2130
2925.00,0.2242
2924.00,0.2352
2923.00,0.2463
2922.00,0.2573
2921.00,0.2680
2920.00,0.2777
2919.00,0.2852
2918.00,0.2894
2917.00,0.2892
2916.00,0.2844
2915.00,0.2758
2914.00,0.2645
2913.00,0.2521
2912.00,0.2398
2911.00,0.2284
2910.00,0.2182
2909.00,0.2090
2908.00,0.2007
2907.00,0.1930
2906.00,0.1855
2905.00,0.1782
2904.00,0.1710
2903.00,0.1639
2902.00,0.1570
2901.00,0.1503
2900.00,0.1440
2899.00,0.1380
2898.00,0.1324
2897.00,0.1273
2896.00,0.1227
2895.00,0.1187
2894.00,0.1153
2893.00,0.1125
2892.00,0.1102
2891.00,0.1086
2890.00,0.1074
2889.00,0.1067
2888.00,0.1064
2887.00,0.1064
2886.00,0.1068
2885.00,0.1075
2884.00,0.1086
2883.00,0.1103
2882.00,0.1124
2881.00,0.1148
2880.00,0.1173
2879.00,0.1194
2878.00,0.1208
2877.00,0.1213
2876.00,0.1210
2875.00,0.1203
2874.00,0.1197
2873.00,0.1197
2872.00,0.1204
2871.00,0.1218
2870.00,0.1237
2869.00,0.1256
2868.00,0.1268
2867.00,0.1265
2866.00,0.1242
2865.00,0.1196
2864.00,0.1131
2863.00,0.1055
2862.00,0.0979
2861.00,0.0912
2860.00,0.0859
2859.00,0.0822
2858.00,0.0802
2857.00,0.0794
2856.00,0.0798
2855.00,0.0810
2854.00,0.0828
2853.00,0.0850
2852.00,0.0872
2851.00,0.0892
2850.00,0.0905
2849.00,0.0913
2848.00,0.0918
2847.00,0.0925
2846.00,0.0940
2845.00,0.0966
2844.00,0.1002
2843.00,0.1046
2842.00,0.1095
2841.00,0.1141
2840.00,0.1177
2839.00,0.1196
2838.00,0.1190
2837.00,0.1157
2836.00,0.1094
2835.00,0.1009
2834.00,0.0910
2833.00,0.0806
2832.00,0.0708
2831.00,0.0620
2830.00,0.0545
2829.00,0.0483
2828.00,0.0434
2827.00,0.0394
2826.00,0.0361
2825.00,0.0334
2824.00,0.0311
2823.00,0.0292
2822.00,0.0276
2821.00,0.0262
2820.00,0.0249
2819.00,0.0239
2818.00,0.0229
2817.00,0.0221
2816.00,0.0214
2815.00,0.0207
2814.00,0.0201
2813.00,0.0196
2812.00,0.0190
2811.00,0.0185
2810.00,0.0179
2809.00,0.0173
2808.00,0.0167
2807.00,0.0161
2806.00,0.0155
2805.00,0.0148
2804.00,0.0142
2803.00,0.0136
2802.00,0.0131
2801.00,0.0126
2800.00,0.0123
2799.00,0.0119
2798.00,0.0116
2797.00,0.0114
2796.00,0.0111
2795.00,0.0109
2794.00,0.0106
2793.00,0.0103
2792.00,0.0101
2791.00,0.0098
2790.00,0.0095
2789.00,0.0093
2788.00,0.0090
2787.00,0.0088
2786.00,0.0085
2785.00,0.0083
2784.00,0.0080
2783.00,0.0078
2782.00,0.0075
2781.00,0.0073
2780.00,0.0071
2779.00,0.0070
2778.00,0.0068
2777.00,0.0067
2776.00,0.0066
2775.00,0.0066
2774.00,0.0065
2773.00,0.0064
2772.00,0.0063
2771.00,0.0063
2770.00,0.0062
2769.00,0.0062
2768.00,0.0061
2767.00,0.0061
2766.00,0.0061
2765.00,0.0061
2764.00,0.0061
2763.00,0.0060
2762.00,0.0060
2761.00,0.0060
2760.00,0.0060
2759.00,0.0059
2758.00,0.0058
2757.00,0.0058
2756.00,0.0058
2755.00,0.0058
2754.00,0.0058
2753.00,0.0058
2752.00,0.0058
2751.00,0.0058
2750.00,0.0058
2749.00,0.0058
2748.00,0.0058
2747.00,0.0058
2746.00,0.0058
2745.00,0.0059
2744.00,0.0059
2743.00,0.0060
2742.00,0.0061
2741.00,0.0062
2740.00,0.0063
2739.00,0.0064
2738.00,0.0065
2737.00,0.0067
2736.00,0.0068
2735.00,0.0070
2734.00,0.0071
2733.00,0.0073
2732.00,0.0074
2731.00,0.0076
2730.00,0.0079
2729.00,0.0081
2728.00,0.0083
2727.00,0.0086
2726.00,0.0088
2725.00,0.0091
2724.00,0.0092
2723.00,0.0093
2722.00,0.0092
2721.00,0.0090
2720.00,0.0088
2719.00,0.0085
2718.00,0.0081
2717.00,0.0078
2716.00,0.0076
2715.00,0.0073
2714.00,0.0070
2713.00,0.0068
2712.00,0.0066
2711.00,0.0064
2710.00,0.0062
2709.00,0.0060
2708.00,0.0059
2707.00,0.0058
2706.00,0.0057
2705.00,0.0056
2704.00,0.0055
2703.00,0.0054
2702.00,0.0053
2701.00,0.0052
2700.00,0.0052
2699.00,0.0051
2698.00,0.0051
2697.00,0.0050
2696.00,0.0050
2695.00,0.0050
2694.00,0.0050
2693.00,0.0050
2692.00,0.0049
2691.00,0.0049
2690.00,0.0050
2689.00,0.0050
2688.00,0.0050
2687.00,0.0050
2686.00,0.0050
2685.00,0.0050
2684.00,0.0050
2683.00,0.0050
2682.00,0.0050
2681.00,0.0050
2680.00,0.0050
2679.00,0.0050
2678.00,0.0050
2677.00,0.0050
2676.00,0.0050
2675.00,0.0050
2674.00,0.0050
2673.00,0.0050
2672.00,0.0050
2671.00,0.0049
2670.00,0.0049
2669.00,0.0049
2668.00,0.0049
2667.00,0.0049
2666.00,0.0050
2665.00,0.0050
2664.00,0.0050
2663.00,0.0051
2662.00,0.0052
2661.00,0.0052
2660.00,0.0053
2659.00,0.0053
2658.00,0.0053
2657.00,0.0053
2656.00,0.0052
2655.00,0.0051
2654.00,0.0051
2653.00,0.0050
2652.00,0.0050
2651.00,0.0049
2650.00,0.0049
2649.00,0.0049
2648.00,0.0049
2647.00,0.0048
2646.00,0.0047
2645.00,0.0046
2644.00,0.0046
2643.00,0.0046
2642.00,0.0045
2641.00,0.0045
2640.00,0.0045
2639.00,0.0044
2638.00,0.0044
2637.00,0.0043
2636.00,0.0043
2635.00,0.0042
2634.00,0.0042
2633.00,0.0042
2632.00,0.0043
2631.00,0.0043
2630.00,0.0044
2629.00,0.0044
2628.00,0.0044
2627.00,0.0044
2626.00,0.0043
2625.00,0.0043
2624.00,0.0043
2623.00,0.0043
2622.00,0.0043
2621.00,0.0043
2620.00,0.0044
2619.00,0.0044
2618.00,0.0044
2617.00,0.0044
2616.00,0.0044
2615.00,0.0044
2614.00,0.0043
2613.00,0.0043
2612.00,0.0043
2611.00,0.0043
2610.00,0.0042
2609.00,0.0042
2608.00,0.0042
2607.00,0.0041
2606.00,0.0040
2605.00,0.0040
2604.00,0.0039
2603.00,0.0038
2602.00,0.0037
2601.00,0.0037
2600.00,0.0037
2599.00,0.0037
2598.00,0.0038
2597.00,0.0038
2596.00,0.0037
2595.00,0.0037
2594.00,0.0037
2593.00,0.0037
2592.00,0.0037
2591.00,0.0038
2590.00,0.0039
2589.00,0.0040
2588.00,0.0040
2587.00,0.0041
2586.00,0.0042
2585.00,0.0043
2584.00,0.0044
2583.00,0.0045
2582.00,0.0045
2581.00,0.0044
2580.00,0.0043
2579.00,0.0042
2578.00,0.0041
2577.00,0.0040
2576.00,0.0039
2575.00,0.0038
2574.00,0.0037
2573.00,0.0036
2572.00,0.0035
2571.00,0.0033
2570.00,0.0032
2569.00,0.0031
2568.00,0.0030
2567.00,0.0029
2566.00,0.0029
2565.00,0.0028
2564.00,0.0029
2563.00,0.0029
2562.00,0.0029
2561.00,0.0029
2560.00,0.0029
2559.00,0.0029
2558.00,0.0029
2557.00,0.0028
2556.00,0.0028
2555.00,0.0027
2554.00,0.0027
2553.00,0.0026
2552.00,0.0026
2551.00,0.0025
2550.00,0.0025
2549.00,0.0025
2548.00,0.0025
2547.00,0.0025
2546.00,0.0024
2545.00,0.0023
2544.00,0.0022
2543.00,0.0022
2542.00,0.0022
2541.00,0.0022
2540.00,0.0022
2539.00,0.0022
2538.00,0.0022
2537.00,0.0021
2536.00,0.0021
2535.00,0.0021
2534.00,0.0021
2533.00,0.0021
2532.00,0.0021
2531.00,0.0022
2530.00,0.0022
2529.00,0.0022
2528.00,0.0022
2527.00,0.0021
2526.00,0.0020
2525.00,0.0020
2524.00,0.0020
2523.00,0.0020
2522.00,0.0020
2521.00,0.0020
2520.00,0.0019
2519.00,0.0018
2518.00,0.0018
2517.00,0.0017
2516.00,0.0017
2515.00,0.0017
2514.00,0.0017
2513.00,0.0017
2512.00,0.0016
2511.00,0.0016
2510.00,0.0016
2509.00,0.0015
2508.00,0.0015
2507.00,0.0014
2506.00,0.0014
2505.00,0.0015
2504.00,0.0015
2503.00,0.0016
2502.00,0.0016
2501.00,0.0016
2500.00,0.0016
2499.00,0.0016
2498.00,0.0016
2497.00,0.0016
2496.00,0.0016
2495.00,0.0016
2494.00,0.0015
2493.00,0.0015
2492.00,0.0015
2491.00,0.0015
2490.00,0.0015
2489.00,0.0015
2488.00,0.0015
2487.00,0.0015
2486.00,0.0014
2485.00,0.0014
2484.00,0.0013
2483.00,0.0014
2482.00,0.0014
2481.00,0.0014
2480.00,0.0014
2479.00,0.0014
2478.00,0.0014
2477.00,0.0014
2476.00,0.0014
2475.00,0.0014
2474.00,0.0014
2473.00,0.0013
2472.00,0.0013
2471.00,0.0013
2470.00,0.0014
2469.00,0.0014
2468.00,0.0015
2467.00,0.0015
2466.00,0.0015
2465.00,0.0015
2464.00,0.0015
2463.00,0.0015
2462.00,0.0015
2461.00,0.0015
2460.00,0.0015
2459.00,0.0015
2458.00,0.0015
2457.00,0.0015
2456.00,0.0016
2455.00,0.0016
2454.00,0.0015
2453.00,0.0015
2452.00,0.0015
2451.00,0.0015
2450.00,0.0015
2449.00,0.0015
2448.00,0.0014
2447.00,0.0015
2446.00,0.0015
2445.00,0.0015
2444.00,0.0015
2443.00,0.0016
2442.00,0.0016
2441.00,0.0015
2440.00,0.0015
2439.00,0.0015
2438.00,0.0014
2437.00,0.0014
2436.00,0.0015
2435.00,0.0015
2434.00,0.0015
2433.00,0.0016
2432.00,0.0015
2431.00,0.0015
2430.00,0.0015
2429.00,0.0016
2428.00,0.0016
2427.00,0.0016
2426.00,0.0016
2425.00,0.0015
2424.00,0.0015
2423.00,0.0014
2422.00,0.0014
2421.00,0.0014
2420.00,0.0014
2419.00,0.0014
2418.00,0.0013
2417.00,0.0013
2416.00,0.0013
2415.00,0.0014
2414.00,0.0014
2413.00,0.0014
2412.00,0.0014
2411.00,0.0014
2410.00,0.0014
2409.00,0.0014
2408.00,0.0013
2407.00,0.0013
2406.00,0.0012
2405.00,0.0012
2404.00,0.0012
2403.00,0.0012
2402.00,0.0013
2401.00,0.0013
2400.00,0.0012
2399.00,0.0012
2398.00,0.0012
2397.00,0.0012
2396.00,0.0013
2395.00,0.0013
2394.00,0.0012
2393.00,0.0012
2392.00,0.0011
2391.00,0.0011
2390.00,0.0011
2389.00,0.0011
2388.00,0.0011
2387.00,0.0011
2386.00,0.0012
2385.00,0.0012
2384.00,0.0012
2383.00,0.0011
2382.00,0.0010
2381.00,0.0009
2380.00,0.0008
2379.00,0.0008
2378.00,0.0008
2377.00,0.0008
2376.00,0.0009
2375.00,0.0009
2374.00,0.0009
2373.00,0.0009
2372.00,0.0008
2371.00,0.0008
2370.00,0.0007
2369.00,0.0006
2368.00,0.0005
2367.00,0.0006
2366.00,0.0006
2365.00,0.0007
2364.00,0.0008
2363.00,0.0008
2362.00,0.0008
2361.00,0.0009
2360.00,0.0009
2359.00,0.0008
2358.00,0.0009
2357.00,0.0009
2356.00,0.0009
2355.00,0.0008
2354.00,0.0008
2353.00,0.0007
2352.00,0.0007
2351.00,0.0008
2350.00,0.0008
2349.00,0.0009
2348.00,0.0010
2347.00,0.0010
2346.00,0.0010
2345.00,0.0010
2344.00,0.0011
2343.00,0.0011
2342.00,0.0011
2341.00,0.0011
2340.00,0.0011
2339.00,0.0011
2338.00,0.0012
2337.00,0.0012
2336.00,0.0012
2335.00,0.0011
2334.00,0.0010
2333.00,0.0008
2332.00,0.0008
2331.00,0.0009
2330.00,0.0010
2329.00,0.0012
2328.00,0.0014
2327.00,0.0017
2326.00,0.0021
2325.00,0.0025
2324.00,0.0026
2323.00,0.0026
2322.00,0.0024
2321.00,0.0022
2320.00,0.0021
2319.00,0.0020
2318.00,0.0019
2317.00,0.0018
2316.00,0.0016
2315.00,0.0016
2314.00,0.0016
2313.00,0.0016
2312.00,0.0017
2311.00,0.0017
2310.00,0.0016
2309.00,0.0016
2308.00,0.0016
2307.00,0.0016
2306.00,0.0016
2305.00,0.0016
2304.00,0.0016
2303.00,0.0017
2302.00,0.0017
2301.00,0.0018
2300.00,0.0018
2299.00,0.0018
2298.00,0.0018
2297.00,0.0018
2296.00,0.0017
2295.00,0.0018
2294.00,0.0018
2293.00,0.0019
2292.00,0.0019
2291.00,0.0020
2290.00,0.0021
2289.00,0.0022
2288.00,0.0023
2287.00,0.0023
2286.00,0.0023
2285.00,0.0023
2284.00,0.0023
2283.00,0.0022
2282.00,0.0022
2281.00,0.0021
2280.00,0.0020
2279.00,0.0018
2278.00,0.0017
2277.00,0.0016
2276.00,0.0016
2275.00,0.0016
2274.00,0.0017
2273.00,0.0018
2272.00,0.0018
2271.00,0.0017
2270.00,0.0017
2269.00,0.0017
2268.00,0.0018
2267.00,0.0017
2266.00,0.0016
2265.00,0.0016
2264.00,0.0015
2263.00,0.0015
2262.00,0.0015
2261.00,0.0015
2260.00,0.0016
2259.00,0.0017
2258.00,0.0018
2257.00,0.0018
2256.00,0.0017
2255.00,0.0015
2254.00,0.0013
2253.00,0.0011
2252.00,0.0012
2251.00,0.0012
2250.00,0.0013
2249.00,0.0014
2248.00,0.0013
2247.00,0.0012
2246.00,0.0012
2245.00,0.0012
2244.00,0.0014
2243.00,0.0014
2242.00,0.0013
2241.00,0.0012
2240.00,0.0011
2239.00,0.0011
2238.00,0.0012
2237.00,0.0013
2236.00,0.0014
2235.00,0.0015
2234.00,0.0014
2233.00,0.0013
2232.00,0.0013
2231.00,0.0012
2230.00,0.0013
2229.00,0.0014
2228.00,0.0014
2227.00,0.0014
2226.00,0.0014
2225.00,0.0013
2224.00,0.0014
2223.00,0.0014
2222.00,0.0013
2221.00,0.0012
2220.00,0.0011
2219.00,0.0010
2218.00,0.0009
2217.00,0.0009
2216.00,0.0009
2215.00,0.0009
2214.00,0.0009
2213.00,0.0010
2212.00,0.0010
2211.00,0.0010
2210.00,0.0009
2209.00,0.0008
2208.00,0.0006
2207.00,0.0006
2206.00,0.0007
2205.00,0.0008
2204.00,0.0010
2203.00,0.0012
2202.00,0.0013
2201.00,0.0013
2200.00,0.0013
2199.00,0.0012
2198.00,0.0011
2197.00,0.0010
2196.00,0.0011
2195.00,0.0012
2194.00,0.0014
2193.00,0.0015
2192.00,0.0015
2191.00,0.0014
2190.00,0.0013
2189.00,0.0012
2188.00,0.0011
2187.00,0.0011
2186.00,0.0010
2185.00,0.0010
2184.00,0.0009
2183.00,0.0008
2182.00,0.0007
2181.00,0.0008
2180.00,0.0010
2179.00,0.0011
2178.00,0.0011
2177.00,0.0009
2176.00,0.0007
2175.00,0.0005
2174.00,0.0006
2173.00,0.0009
2172.00,0.0012
2171.00,0.0014
2170.00,0.0016
2169.00,0.0018
2168.00,0.0021
2167.00,0.0022
2166.00,0.0022
2165.00,0.0022
2164.00,0.0023
2163.00,0.0026
2162.00,0.0027
2161.00,0.0024
2160.00,0.0014
2159.00,-0.0002
2158.00,-0.0017
2157.00,-0.0023
2156.00,-0.0023
2155.00,-0.0020
2154.00,-0.0017
2153.00,-0.0016
2152.00,-0.0015
2151.00,-0.0014
2150.00,-0.0012
2149.00,-0.0011
2148.00,-0.0011
2147.00,-0.0012
2146.00,-0.0013
2145.00,-0.0012
2144.00,-0.0011
2143.00,-0.0010
2142.00,-0.0009
2141.00,-0.0008
2140.00,-0.0008
2139.00,-0.0007
2138.00,-0.0007
2137.00,-0.0007
2136.00,-0.0009
2135.00,-0.0011
2134.00,-0.0012
2133.00,-0.0011
2132.00,-0.0011
2131.00,-0.0010
2130.00,-0.0010
2129.00,-0.0008
2128.00,-0.0006
2127.00,-0.0004
2126.00,-0.0003
2125.00,-0.0002
2124.00,-0.0002
2123.00,-0.0004
2122.00,-0.0005
2121.00,-0.0005
2120.00,-0.0004
2119.00,-0.0003
2118.00,-0.0001
2117.00,0.0002
2116.00,0.0005
2115.00,0.0007
2114.00,0.0008
2113.00,0.0007
2112.00,0.0007
2111.00,0.0006
2110.00,0.0007
2109.00,0.0007
2108.00,0.0007
2107.00,0.0007
2106.00,0.0007
2105.00,0.0008
2104.00,0.0008
2103.00,0.0008
2102.00,0.0008
2101.00,0.0008
2100.00,0.0007
2099.00,0.0006
2098.00,0.0004
2097.00,0.0003
2096.00,0.0003
2095.00,0.0002
2094.00,0.0002
2093.00,0.0002
2092.00,0.0002
2091.00,0.0002
2090.00,0.0001
2089.00,0.0001
2088.00,0.0002
2087.00,0.0002
2086.00,0.0003
2085.00,0.0003
2084.00,0.0005
2083.00,0.0006
2082.00,0.0006
2081.00,0.0006
2080.00,0.0005
2079.00,0.0004
2078.00,0.0003
2077.00,0.0004
2076.00,0.0006
2075.00,0.0007
2074.00,0.0007
2073.00,0.0007
2072.00,0.0006
2071.00,0.0006
2070.00,0.0005
2069.00,0.0005
2068.00,0.0005
2067.00,0.0005
2066.00,0.0006
2065.00,0.0007
2064.00,0.0007
2063.00,0.0007
2062.00,0.0006
2061.00,0.0005
2060.00,0.0005
2059.00,0.0005
2058.00,0.0006
2057.00,0.0007
2056.00,0.0008
2055.00,0.0008
2054.00,0.0009
2053.00,0.0011
2052.00,0.0015
2051.00,0.0017
2050.00,0.0016
2049.00,0.0012
2048.00,0.0008
2047.00,0.0004
2046.00,0.0002
2045.00,0.0001
2044.00,0.0001
2043.00,0.0002
2042.00,0.0004
2041.00,0.0005
2040.00,0.0006
2039.00,0.0006
2038.00,0.0006
2037.00,0.0006
2036.00,0.0004
2035.00,0.0000
2034.00,-0.0004
2033.00,-0.0009
2032.00,-0.0012
2031.00,-0.0013
2030.00,-0.0014
2029.00,-0.0013
2028.00,-0.0012
2027.00,-0.0011
2026.00,-0.0010
2025.00,-0.0008
2024.00,-0.0006
2023.00,-0.0004
2022.00,-0.0002
2021.00,-0.0000
2020.00,0.0000
2019.00,-0.0002
2018.00,-0.0006
2017.00,-0.0009
2016.00,-0.0010
2015.00,-0.0008
2014.00,-0.0005
2013.00,-0.0001
2012.00,-0.0000
2011.00,-0.0001
2010.00,-0.0003
2009.00,-0.0006
2008.00,-0.0010
2007.00,-0.0013
2006.00,-0.0013
2005.00,-0.0012
2004.00,-0.0009
2003.00,-0.0007
2002.00,-0.0007
2001.00,-0.0008
2000.00,-0.0009
1999.00,-0.0010
1998.00,-0.0010
1997.00,-0.0009
1996.00,-0.0007
1995.00,-0.0005
1994.00,-0.0004
1993.00,-0.0003
1992.00,-0.0003
1991.00,-0.0003
1990.00,-0.0005
1989.00,-0.0007
1988.00,-0.0007
1987.00,-0.0005
1986.00,-0.0002
1985.00,0.0001
1984.00,0.0002
1983.00,0.0002
1982.00,0.0004
1981.00,0.0007
1980.00,0.0008
1979.00,0.0006
1978.00,0.0001
1977.00,-0.0006
1976.00,-0.0011
1975.00,-0.0013
1974.00,-0.0012
1973.00,-0.0008
1972.00,-0.0006
1971.00,-0.0007
1970.00,-0.0009
1969.00,-0.0012
1968.00,-0.0013
1967.00,-0.0013
1966.00,-0.0012
1965.00,-0.0011
1964.00,-0.0010
1963.00,-0.0009
1962.00,-0.0009
1961.00,-0.0009
1960.00,-0.0011
1959.00,-0.0013
1958.00,-0.0013
1957.00,-0.0012
1956.00,-0.0010
1955.00,-0.0008
1954.00,-0.0007
1953.00,-0.0006
1952.00,-0.0005
1951.00,-0.0005
1950.00,-0.0006
1949.00,-0.0007
1948.00,-0.0008
1947.00,-0.0009
1946.00,-0.0009
1945.00,-0.0009
1944.00,-0.0010
1943.00,-0.0010
1942.00,-0.0011
1941.00,-0.0011
1940.00,-0.0009
1939.00,-0.0008
1938.00,-0.0007
1937.00,-0.0007
1936.00,-0.0008
1935.00,-0.0008
1934.00,-0.0008
1933.00,-0.0006
1932.00,-0.0004
1931.00,-0.0003
1930.00,-0.0003
1929.00,-0.0003
1928.00,-0.0003
1927.00,-0.0003
1926.00,-0.0002
1925.00,-0.0000
1924.00,0.0000
1923.00,0.0001
1922.00,0.0001
1921.00,0.0000
1920.00,0.0000
1919.00,-0.0000
1918.00,0.0000
1917.00,0.0001
1916.00,0.0002
1915.00,0.0002
1914.00,0.0002
1913.00,0.0002
1912.00,0.0002
1911.00,0.0003
1910.00,0.0003
1909.00,0.0003
1908.00,0.0002
1907.00,0.0002
1906.00,0.0001
1905.00,0.0001
1904.00,0.0001
1903.00,0.0001
1902.00,0.0002
1901.00,0.0003
1900.00,0.0004
1899.00,0.0004
1898.00,0.0004
1897.00,0.0005
1896.00,0.0005
1895.00,0.0005
1894.00,0.0005
1893.00,0.0005
1892.00,0.0005
1891.00,0.0004
1890.00,0.0004
1889.00,0.0003
1888.00,0.0003
1887.00,0.0003
1886.00,0.0003
1885.00,0.0004
1884.00,0.0004
1883.00,0.0004
1882.00,0.0005
1881.00,0.0004
1880.00,0.0004
1879.00,0.0004
1878.00,0.0004
1877.00,0.0003
1876.00,0.0002
1875.00,0.0002
1874.00,0.0001
1873.00,0.0002
1872.00,0.0003
1871.00,0.0004
1870.00,0.0005
1869.00,0.0005
1868.00,0.0004
1867.00,0.0003
1866.00,0.0003
1865.00,0.0004
1864.00,0.0005
1863.00,0.0005
1862.00,0.0005
1861.00,0.0005
1860.00,0.0005
1859.00,0.0005
1858.00,0.0005
1857.00,0.0005
1856.00,0.0005
1855.00,0.0005
1854.00,0.0006
1853.00,0.0006
1852.00,0.0006
1851.00,0.0006
1850.00,0.0006
1849.00,0.0006
1848.00,0.0006
1847.00,0.0006
1846.00,0.0005
1845.00,0.0005
1844.00,0.0005
1843.00,0.0005
1842.00,0.0005
1841.00,0.0005
1840.00,0.0006
1839.00,0.0007
1838.00,0.0007
1837.00,0.0007
1836.00,0.0007
1835.00,0.0007
1834.00,0.0006
1833.00,0.0006
1832.00,0.0007
1831.00,0.0007
1830.00,0.0008
1829.00,0.0008
1828.00,0.0009
1827.00,0.0009
1826.00,0.0008
1825.00,0.0008
1824.00,0.0008
1823.00,0.0008
1822.00,0.0008
1821.00,0.0008
1820.00,0.0008
1819.00,0.0006
1818.00,0.0004
1817.00,0.0003
1816.00,0.0003
1815.00,0.0004
1814.00,0.0006
1813.00,0.0007
1812.00,0.0007
1811.00,0.0007
1810.00,0.0007
1809.00,0.0007
1808.00,0.0007
1807.00,0.0007
1806.00,0.0008
1805.00,0.0008
1804.00,0.0009
1803.00,0.0009
1802.00,0.0009
1801.00,0.0009
1800.00,0.0009
1799.00,0.0009
1798.00,0.0010
1797.00,0.0010
1796.00,0.0010
1795.00,0.0011
1794.00,0.0011
1793.00,0.0011
1792.00,0.0011
1791.00,0.0011
1790.00,0.0011
1789.00,0.0011
1788.00,0.0011
1787.00,0.0012
1786.00,0.0012
1785.00,0.0012
1784.00,0.0012
1783.00,0.0012
1782.00,0.0012
1781.00,0.0011
1780.00,0.0011
1779.00,0.0011
1778.00,0.0012
1777.00,0.0012
1776.00,0.0012
1775.00,0.0012
1774.00,0.0012
1773.00,0.0012
1772.00,0.0013
1771.00,0.0013
1770.00,0.0014
1769.00,0.0014
1768.00,0.0014
1767.00,0.0014
1766.00,0.0014
1765.00,0.0015
1764.00,0.0015
1763.00,0.0016
1762.00,0.0016
1761.00,0.0016
1760.00,0.0017
1759.00,0.0017
1758.00,0.0018
1757.00,0.0019
1756.00,0.0019
1755.00,0.0018
1754.00,0.0018
1753.00,0.0019
1752.00,0.0020
1751.00,0.0021
1750.00,0.0022
1749.00,0.0022
1748.00,0.0023
1747.00,0.0023
1746.00,0.0023
1745.00,0.0023
1744.00,0.0024
1743.00,0.0024
1742.00,0.0024
1741.00,0.0024
1740.00,0.0024
1739.00,0.0024
1738.00,0.0024
1737.00,0.0024
1736.00,0.0024
1735.00,0.0024
1734.00,0.0024
1733.00,0.0025
1732.00,0.0025
1731.00,0.0025
1730.00,0.0026
1729.00,0.0026
1728.00,0.0027
1727.00,0.0027
1726.00,0.0027
1725.00,0.0028
1724.00,0.0029
1723.00,0.0029
1722.00,0.0029
1721.00,0.0029
1720.00,0.0028
1719.00,0.0028
1718.00,0.0028
1717.00,0.0028
1716.00,0.0028
1715.00,0.0028
1714.00,0.0028
1713.00,0.0027
1712.00,0.0027
1711.00,0.0027
1710.00,0.0027
1709.00,0.0027
1708.00,0.0027
1707.00,0.0028
1706.00,0.0028
1705.00,0.0028
1704.00,0.0028
1703.00,0.0028
1702.00,0.0029
1701.00,0.0030
1700.00,0.0031
1699.00,0.0031
1698.00,0.0031
1697.00,0.0031
1696.00,0.0032
1695.00,0.0033
1694.00,0.0034
1693.00,0.0034
1692.00,0.0034
1691.00,0.0035
1690.00,0.0036
1689.00,0.0037
1688.00,0.0037
1687.00,0.0038
1686.00,0.0038
1685.00,0.0038
1684.00,0.0038
1683.00,0.0039
1682.00,0.0040
1681.00,0.0041
1680.00,0.0042
1679.00,0.0042
1678.00,0.0043
1677.00,0.0044
1676.00,0.0045
1675.00,0.0046
1674.00,0.0046
1673.00,0.0047
1672.00,0.0047
1671.00,0.0047
1670.00,0.0047
1669.00,0.0048
1668.00,0.0049
1667.00,0.0050
1666.00,0.0050
1665.00,0.0050
1664.00,0.0051
1663.00,0.0052
1662.00,0.0053
1661.00,0.0054
1660.00,0.0055
1659.00,0.0055
1658.00,0.0056
1657.00,0.0057
1656.00,0.0057
1655.00,0.0059
1654.00,0.0060
1653.00,0.0060
1652.00,0.0062
1651.00,0.0062
1650.00,0.0062
1649.00,0.0062
1648.00,0.0062
1647.00,0.0062
1646.00,0.0062
1645.00,0.0063
1644.00,0.0064
1643.00,0.0064
1642.00,0.0065
1641.00,0.0065
1640.00,0.0066
1639.00,0.0067
1638.00,0.0068
1637.00,0.0068
1636.00,0.0068
1635.00,0.0068
1634.00,0.0068
1633.00,0.0068
1632.00,0.0067
1631.00,0.0066
1630.00,0.0066
1629.00,0.0066
1628.00,0.0066
1627.00,0.0065
1626.00,0.0065
1625.00,0.0065
1624.00,0.0064
1623.00,0.0063
1622.00,0.0063
1621.00,0.0062
1620.00,0.0062
1619.00,0.0061
1618.00,0.0060
1617.00,0.0060
1616.00,0.0060
1615.00,0.0061
1614.00,0.0061
1613.00,0.0061
1612.00,0.0061
1611.00,0.0060
1610.00,0.0060
1609.00,0.0059
1608.00,0.0059
1607.00,0.0060
1606.00,0.0060
1605.00,0.0060
1604.00,0.0060
1603.00,0.0060
1602.00,0.0059
1601.00,0.0059
1600.00,0.0059
1599.00,0.0059
1598.00,0.0059
1597.00,0.0060
1596.00,0.0060
1595.00,0.0060
1594.00,0.0060
1593.00,0.0061
1592.00,0.0061
1591.00,0.0061
1590.00,0.0061
1589.00,0.0062
1588.00,0.0063
1587.00,0.0064
1586.00,0.0065
1585.00,0.0066
1584.00,0.0068
1583.00,0.0070
1582.00,0.0072
1581.00,0.0074
1580.00,0.0076
1579.00,0.0078
1578.00,0.0079
1577.00,0.0080
1576.00,0.0080
1575.00,0.0080
1574.00,0.0079
1573.00,0.0079
1572.00,0.0078
1571.00,0.0077
1570.00,0.0075
1569.00,0.0074
1568.00,0.0073
1567.00,0.0072
1566.00,0.0072
1565.00,0.0072
1564.00,0.0071
1563.00,0.0071
1562.00,0.0072
1561.00,0.0073
1560.00,0.0074
1559.00,0.0073
1558.00,0.0072
1557.00,0.0073
1556.00,0.0074
1555.00,0.0074
1554.00,0.0075
1553.00,0.0076
1552.00,0.0078
1551.00,0.0080
1550.00,0.0081
1549.00,0.0082
1548.00,0.0083
1547.00,0.0085
1546.00,0.0087
1545.00,0.0089
1544.00,0.0091
1543.00,0.0093
1542.00,0.0093
1541.00,0.0093
1540.00,0.0092
1539.00,0.0090
1538.00,0.0088
1537.00,0.0086
1536.00,0.0084
1535.00,0.0081
1534.00,0.0077
1533.00,0.0074
1532.00,0.0073
1531.00,0.0071
1530.00,0.0070
1529.00,0.0069
1528.00,0.0069
1527.00,0.0067
1526.00,0.0066
1525.00,0.0065
1524.00,0.0065
1523.00,0.0065
1522.00,0.0064
1521.00,0.0065
1520.00,0.0065
1519.00,0.0065
1518.00,0.0065
1517.00,0.0066
1516.00,0.0067
1515.00,0.0067
1514.00,0.0068
1513.00,0.0069
1512.00,0.0070
1511.00,0.0071
1510.00,0.0070
1509.00,0.0071
1508.00,0.0071
1507.00,0.0071
1506.00,0.0072
1505.00,0.0074
1504.00,0.0076
1503.00,0.0077
1502.00,0.0078
1501.00,0.0081
1500.00,0.0083
1499.00,0.0086
1498.00,0.0088
1497.00,0.0091
1496.00,0.0094
1495.00,0.0097
1494.00,0.0100
1493.00,0.0104
1492.00,0.0109
1491.00,0.0113
1490.00,0.0117
1489.00,0.0122
1488.00,0.0127
1487.00,0.0133
1486.00,0.0138
1485.00,0.0145
1484.00,0.0153
1483.00,0.0161
1482.00,0.0170
1481.00,0.0181
1480.00,0.0194
1479.00,0.0207
1478.00,0.0223
1477.00,0.0243
1476.00,0.0269
1475.00,0.0299
1474.00,0.0340
1473.00,0.0397
1472.00,0.0463
1471.00,0.0527
1470.00,0.0588
1469.00,0.0653
1468.00,0.0724
1467.00,0.0802
1466.00,0.0891
1465.00,0.0986
1464.00,0.1068
1463.00,0.1125
1462.00,0.1160
1461.00,0.1182
1460.00,0.1196
1459.00,0.1204
1458.00,0.1206
1457.00,0.1203
1456.00,0.1194
1455.00,0.1181
1454.00,0.1165
1453.00,0.1144
1452.00,0.1114
1451.00,0.1074
1450.00,0.1022
1449.00,0.0951
1448.00,0.0864
1447.00,0.0773
1446.00,0.0693
1445.00,0.0624
1444.00,0.0566
1443.00,0.0519
1442.00,0.0483
1441.00,0.0459
1440.00,0.0445
1439.00,0.0442
1438.00,0.0446
1437.00,0.0451
1436.00,0.0445
1435.00,0.0423
1434.00,0.0389
1433.00,0.0347
1432.00,0.0302
1431.00,0.0263
1430.00,0.0233
1429.00,0.0210
1428.00,0.0195
1427.00,0.0185
1426.00,0.0178
1425.00,0.0172
1424.00,0.0165
1423.00,0.0161
1422.00,0.0159
1421.00,0.0156
1420.00,0.0153
1419.00,0.0150
1418.00,0.0147
1417.00,0.0144
1416.00,0.0140
1415.00,0.0138
1414.00,0.0136
1413.00,0.0134
1412.00,0.0132
1411.00,0.0131
1410.00,0.0130
1409.00,0.0129
1408.00,0.0128
1407.00,0.0128
1406.00,0.0128
1405.00,0.0128
1404.00,0.0127
1403.00,0.0128
1402.00,0.0129
1401.00,0.0129
1400.00,0.0129
1399.00,0.0130
1398.00,0.0132
1397.00,0.0134
1396.00,0.0136
1395.00,0.0139
1394.00,0.0144
1393.00,0.0149
1392.00,0.0154
1391.00,0.0161
1390.00,0.0171
1389.00,0.0185
1388.00,0.0205
1387.00,0.0235
1386.00,0.0275
1385.00,0.0329
1384.00,0.0404
1383.00,0.0511
1382.00,0.0659
1381.00,0.0852
1380.00,0.1094
1379.00,0.1373
1378.00,0.1647
1377.00,0.1853
1376.00,0.1930
1375.00,0.1841
1374.00,0.1613
1373.00,0.1333
1372.00,0.1075
1371.00,0.0863
1370.00,0.0695
1369.00,0.0568
1368.00,0.0482
1367.00,0.0429
1366.00,0.0400
1365.00,0.0389
1364.00,0.0392
1363.00,0.0406
1362.00,0.0428
1361.00,0.0451
1360.00,0.0468
1359.00,0.0473
1358.00,0.0463
1357.00,0.0438
1356.00,0.0402
1355.00,0.0362
1354.00,0.0323
1353.00,0.0289
1352.00,0.0261
1351.00,0.0239
1350.00,0.0221
1349.00,0.0206
1348.00,0.0194
1347.00,0.0184
1346.00,0.0176
1345.00,0.0170
1344.00,0.0164
1343.00,0.0160
1342.00,0.0156
1341.00,0.0153
1340.00,0.0151
1339.00,0.0150
1338.00,0.0149
1337.00,0.0149
1336.00,0.0150
1335.00,0.0151
1334.00,0.0154
1333.00,0.0158
1332.00,0.0162
1331.00,0.0165
1330.00,0.0166
1329.00,0.0164
1328.00,0.0160
1327.00,0.0154
1326.00,0.0148
1325.00,0.0143
1324.00,0.0138
1323.00,0.0134
1322.00,0.0131
1321.00,0.0129
1320.00,0.0128
1319.00,0.0126
1318.00,0.0126
1317.00,0.0125
1316.00,0.0124
1315.00,0.0123
1314.00,0.0123
1313.00,0.0122
1312.00,0.0122
1311.00,0.0122
1310.00,0.0124
1309.00,0.0128
1308.00,0.0134
1307.00,0.0141
1306.00,0.0148
1305.00,0.0154
1304.00,0.0155
1303.00,0.0153
1302.00,0.0150
1301.00,0.0147
1300.00,0.0145
1299.00,0.0146
1298.00,0.0147
1297.00,0.0147
1296.00,0.0147
1295.00,0.0144
1294.00,0.0140
1293.00,0.0135
1292.00,0.0130
1291.00,0.0125
1290.00,0.0121
1289.00,0.0117
1288.00,0.0114
1287.00,0.0111
1286.00,0.0109
1285.00,0.0107
1284.00,0.0106
1283.00,0.0104
1282.00,0.0103
1281.00,0.0102
1280.00,0.0101
1279.00,0.0100
1278.00,0.0099
1277.00,0.0099
1276.00,0.0098
1275.00,0.0098
1274.00,0.0097
1273.00,0.0097
1272.00,0.0097
1271.00,0.0097
1270.00,0.0098
1269.00,0.0099
1268.00,0.0100
1267.00,0.0101
1266.00,0.0103
1265.00,0.0105
1264.00,0.0108
1263.00,0.0111
1262.00,0.0114
1261.00,0.0117
1260.00,0.0120
1259.00,0.0125
1258.00,0.0130
1257.00,0.0134
1256.00,0.0135
1255.00,0.0133
1254.00,0.0129
1253.00,0.0123
1252.00,0.0117
1251.00,0.0112
1250.00,0.0108
1249.00,0.0105
1248.00,0.0102
1247.00,0.0100
1246.00,0.0099
1245.00,0.0097
1244.00,0.0096
1243.00,0.0094
1242.00,0.0093
1241.00,0.0092
1240.00,0.0091
1239.00,0.0091
1238.00,0.0091
1237.00,0.0091
1236.00,0.0091
1235.00,0.0091
1234.00,0.0091
1233.00,0.0092
1232.00,0.0093
1231.00,0.0093
1230.00,0.0094
1229.00,0.0095
1228.00,0.0096
1227.00,0.0097
1226.00,0.0100
1225.00,0.0102
1224.00,0.0106
1223.00,0.0109
1222.00,0.0113
1221.00,0.0116
1220.00,0.0117
1219.00,0.0117
1218.00,0.0116
1217.00,0.0114
1216.00,0.0111
1215.00,0.0108
1214.00,0.0105
1213.00,0.0102
1212.00,0.0100
1211.00,0.0099
1210.00,0.0098
1209.00,0.0098
1208.00,0.0097
1207.00,0.0097
1206.00,0.0096
1205.00,0.0096
1204.00,0.0095
1203.00,0.0095
1202.00,0.0095
1201.00,0.0095
1200.00,0.0094
1199.00,0.0094
1198.00,0.0093
1197.00,0.0092
1196.00,0.0091
1195.00,0.0091
1194.00,0.0091
1193.00,0.0092
1192.00,0.0092
1191.00,0.0092
1190.00,0.0091
1189.00,0.0090
1188.00,0.0090
1187.00,0.0089
1186.00,0.0089
1185.00,0.0090
1184.00,0.0090
1183.00,0.0092
1182.00,0.0094
1181.00,0.0097
1180.00,0.0100
1179.00,0.0104
1178.00,0.0109
1177.00,0.0116
1176.00,0.0125
1175.00,0.0137
1174.00,0.0153
1173.00,0.0172
1172.00,0.0196
1171.00,0.0221
1170.00,0.0247
1169.00,0.0269
1168.00,0.0284
1167.00,0.0289
1166.00,0.0286
1165.00,0.0279
1164.00,0.0268
1163.00,0.0258
1162.00,0.0249
1161.00,0.0241
1160.00,0.0235
1159.00,0.0231
1158.00,0.0227
1157.00,0.0224
1156.00,0.0222
1155.00,0.0221
1154.00,0.0220
1153.00,0.0219
1152.00,0.0215
1151.00,0.0209
1150.00,0.0201
1149.00,0.0191
1148.00,0.0181
1147.00,0.0172
1146.00,0.0164
1145.00,0.0157
1144.00,0.0149
1143.00,0.0142
1142.00,0.0135
1141.00,0.0129
1140.00,0.0125
1139.00,0.0121
1138.00,0.0117
1137.00,0.0114
1136.00,0.0112
1135.00,0.0110
1134.00,0.0110
1133.00,0.0110
1132.00,0.0111
1131.00,0.0112
1130.00,0.0113
1129.00,0.0114
1128.00,0.0116
1127.00,0.0118
1126.00,0.0120
1125.00,0.0122
1124.00,0.0124
1123.00,0.0125
1122.00,0.0127
1121.00,0.0129
1120.00,0.0131
1119.00,0.0133
1118.00,0.0135
1117.00,0.0138
1116.00,0.0142
1115.00,0.0147
1114.00,0.0152
1113.00,0.0155
1112.00,0.0159
1111.00,0.0162
1110.00,0.0165
1109.00,0.0168
1108.00,0.0172
1107.00,0.0178
1106.00,0.0185
1105.00,0.0191
1104.00,0.0195
1103.00,0.0196
1102.00,0.0194
1101.00,0.0189
1100.00,0.0182
1099.00,0.0174
1098.00,0.0167
1097.00,0.0160
1096.00,0.0154
1095.00,0.0149
1094.00,0.0144
1093.00,0.0139
1092.00,0.0136
1091.00,0.0134
1090.00,0.0133
1089.00,0.0131
1088.00,0.0130
1087.00,0.0129
1086.00,0.0128
1085.00,0.0128
1084.00,0.0128
1083.00,0.0128
1082.00,0.0127
1081.00,0.0127
1080.00,0.0127
1079.00,0.0127
1078.00,0.0127
1077.00,0.0127
1076.00,0.0127
1075.00,0.0127
1074.00,0.0127
1073.00,0.0128
1072.00,0.0129
1071.00,0.0130
1070.00,0.0131
1069.00,0.0133
1068.00,0.0134
1067.00,0.0136
1066.00,0.0139
1065.00,0.0142
1064.00,0.0146
1063.00,0.0149
1062.00,0.0153
1061.00,0.0156
1060.00,0.0159
1059.00,0.0161
1058.00,0.0162
1057.00,0.0164
1056.00,0.0165
1055.00,0.0165
1054.00,0.0165
1053.00,0.0165
1052.00,0.0165
1051.00,0.0165
1050.00,0.0165
1049.00,0.0165
1048.00,0.0165
1047.00,0.0165
1046.00,0.0166
1045.00,0.0167
1044.00,0.0167
1043.00,0.0166
1042.00,0.0164
1041.00,0.0162
1040.00,0.0162
1039.00,0.0162
1038.00,0.0165
1037.00,0.0168
1036.00,0.0172
1035.00,0.0174
1034.00,0.0174
1033.00,0.0173
1032.00,0.0171
1031.00,0.0169
1030.00,0.0167
1029.00,0.0165
1028.00,0.0163
1027.00,0.0162
1026.00,0.0160
1025.00,0.0159
1024.00,0.0157
1023.00,0.0156
1022.00,0.0155
1021.00,0.0154
1020.00,0.0154
1019.00,0.0154
1018.00,0.0155
1017.00,0.0156
1016.00,0.0157
1015.00,0.0159
1014.00,0.0160
1013.00,0.0162
1012.00,0.0164
1011.00,0.0166
1010.00,0.0168
1009.00,0.0171
1008.00,0.0174
1007.00,0.0179
1006.00,0.0186
1005.00,0.0195
1004.00,0.0208
1003.00,0.0226
1002.00,0.0249
1001.00,0.0276
1000.00,0.0305
999.00,0.0328
998.00,0.0337
997.00,0.0330
996.00,0.0308
995.00,0.0278
994.00,0.0247
993.00,0.0219
992.00,0.0198
991.00,0.0182
990.00,0.0171
989.00,0.0164
988.00,0.0159
987.00,0.0158
986.00,0.0158
985.00,0.0160
984.00,0.0162
983.00,0.0167
982.00,0.0174
981.00,0.0184
980.00,0.0200
979.00,0.0222
978.00,0.0249
977.00,0.0281
976.00,0.0316
975.00,0.0348
974.00,0.0369
973.00,0.0374
972.00,0.0358
971.00,0.0325
970.00,0.0284
969.00,0.0243
968.00,0.0209
967.00,0.0183
966.00,0.0164
965.00,0.0150
964.00,0.0139
963.00,0.0131
962.00,0.0125
961.00,0.0119
960.00,0.0114
959.00,0.0110
958.00,0.0107
957.00,0.0104
956.00,0.0102
955.00,0.0100
954.00,0.0098
953.00,0.0097
952.00,0.0095
951.00,0.0094
950.00,0.0093
949.00,0.0091
948.00,0.0090
947.00,0.0091
946.00,0.0092
945.00,0.0095
944.00,0.0099
943.00,0.0104
942.00,0.0108
941.00,0.0110
940.00,0.0109
939.00,0.0106
938.00,0.0102
937.00,0.0097
936.00,0.0093
935.00,0.0089
934.00,0.0086
933.00,0.0083
932.00,0.0081
931.00,0.0080
930.00,0.0079
929.00,0.0079
928.00,0.0079
927.00,0.0079
926.00,0.0079
925.00,0.0080
924.00,0.0079
923.00,0.0078
922.00,0.0077
921.00,0.0077
920.00,0.0077
919.00,0.0077
918.00,0.0078
917.00,0.0079
916.00,0.0080
915.00,0.0080
914.00,0.0081
913.00,0.0081
912.00,0.0083
911.00,0.0085
910.00,0.0088
909.00,0.0091
908.00,0.0096
907.00,0.0102
906.00,0.0109
905.00,0.0119
904.00,0.0133
903.00,0.0150
902.00,0.0170
901.00,0.0188
900.00,0.0200
899.00,0.0203
898.00,0.0196
897.00,0.0181
896.00,0.0162
895.00,0.0143
894.00,0.0128
893.00,0.0116
892.00,0.0107
891.00,0.0100
890.00,0.0095
889.00,0.0092
888.00,0.0090
887.00,0.0088
886.00,0.0087
885.00,0.0086
884.00,0.0085
883.00,0.0084
882.00,0.0084
881.00,0.0084
880.00,0.0085
879.00,0.0086
878.00,0.0087
877.00,0.0088
876.00,0.0089
875.00,0.0090
874.00,0.0091
873.00,0.0091
872.00,0.0090
871.00,0.0090
870.00,0.0090
869.00,0.0090
868.00,0.0090
867.00,0.0089
866.00,0.0089
865.00,0.0090
864.00,0.0092
863.00,0.0093
862.00,0.0094
861.00,0.0094
860.00,0.0094
859.00,0.0094
858.00,0.0096
857.00,0.0098
856.00,0.0100
855.00,0.0101
854.00,0.0102
853.00,0.0102
852.00,0.0104
851.00,0.0106
850.00,0.0110
849.00,0.0115
848.00,0.0122
847.00,0.0131
846.00,0.0145
845.00,0.0167
844.00,0.0199
843.00,0.0237
842.00,0.0268
841.00,0.0277
840.00,0.0260
839.00,0.0225
838.00,0.0188
837.00,0.0160
836.00,0.0141
835.00,0.0130
834.00,0.0122
833.00,0.0117
832.00,0.0113
831.00,0.0112
830.00,0.0111
829.00,0.0110
828.00,0.0110
827.00,0.0110
826.00,0.0110
825.00,0.0110
824.00,0.0110
823.00,0.0111
822.00,0.0113
821.00,0.0114
820.00,0.0116
819.00,0.0118
818.00,0.0123
817.00,0.0129
816.00,0.0137
815.00,0.0148
814.00,0.0164
813.00,0.0183
812.00,0.0204
811.00,0.0223
810.00,0.0237
809.00,0.0242
808.00,0.0238
807.00,0.0227
806.00,0.0211
805.00,0.0193
804.00,0.0176
803.00,0.0161
802.00,0.0150
801.00,0.0140
800.00,0.0131
799.00,0.0125
798.00,0.0120
797.00,0.0117
796.00,0.0115
795.00,0.0112
794.00,0.0108
793.00,0.0105
792.00,0.0103
791.00,0.0103
790.00,0.0102
789.00,0.0100
788.00,0.0097
787.00,0.0093
786.00,0.0090
785.00,0.0088
784.00,0.0086
783.00,0.0084
782.00,0.0083
781.00,0.0082
780.00,0.0081
779.00,0.0081
778.00,0.0081
777.00,0.0082
776.00,0.0083
775.00,0.0083
774.00,0.0083
773.00,0.0084
772.00,0.0086
771.00,0.0087
770.00,0.0088
769.00,0.0087
768.00,0.0087
767.00,0.0086
766.00,0.0085
765.00,0.0085
764.00,0.0086
763.00,0.0087
762.00,0.0090
761.00,0.0091
760.00,0.0091
759.00,0.0089
758.00,0.0087
757.00,0.0086
756.00,0.0086
755.00,0.0088
754.00,0.0090
753.00,0.0093
752.00,0.0096
751.00,0.0098
750.00,0.0100
749.00,0.0102
748.00,0.0103
747.00,0.0105
746.00,0.0107
745.00,0.0108
744.00,0.0110
743.00,0.0111
742.00,0.0114
741.00,0.0118
740.00,0.0123
739.00,0.0127
738.00,0.0130
737.00,0.0134
736.00,0.0139
735.00,0.0144
734.00,0.0151
733.00,0.0159
732.00,0.0168
731.00,0.0178
730.00,0.0186
729.00,0.0190
728.00,0.0190
727.00,0.0188
726.00,0.0189
725.00,0.0192
724.00,0.0200
723.00,0.0209
722.00,0.0218
721.00,0.0224
720.00,0.0225
719.00,0.0217
718.00,0.0203
717.00,0.0187
716.00,0.0174
715.00,0.0166
714.00,0.0161
713.00,0.0158
712.00,0.0154
711.00,0.0151
710.00,0.0148
709.00,0.0146
708.00,0.0146
707.00,0.0146
706.00,0.0147
705.00,0.0146
704.00,0.0145
703.00,0.0143
702.00,0.0142
701.00,0.0140
700.00,0.0139
699.00,0.0138
698.00,0.0136
697.00,0.0135
696.00,0.0134
695.00,0.0134
694.00,0.0134
693.00,0.0134
692.00,0.0136
691.00,0.0136
690.00,0.0135
689.00,0.0133
688.00,0.0130
687.00,0.0129
686.00,0.0129
685.00,0.0131
684.00,0.0133
683.00,0.0134
682.00,0.0135
681.00,0.0136
680.00,0.0136
679.00,0.0135
678.00,0.0134
677.00,0.0135
676.00,0.0136
675.00,0.0137
674.00,0.0139
673.00,0.0139
672.00,0.0140
671.00,0.0140
670.00,0.0139
669.00,0.0138
668.00,0.0139
667.00,0.0141
666.00,0.0143
665.00,0.0143
664.00,0.0142
663.00,0.0140
662.00,0.0140
661.00,0.0140
660.00,0.0141
659.00,0.0141
658.00,0.0139
657.00,0.0137
656.00,0.0134
655.00,0.0132
654.00,0.0131
653.00,0.0133
652.00,0.0135
651.00,0.0137
650.00,0.0137
649.00,0.0135
648.00,0.0132
647.00,0.0131
646.00,0.0133
645.00,0.0135
644.00,0.0135
643.00,0.0134
642.00,0.0132
641.00,0.0130
640.00,0.0131
639.00,0.0133
638.00,0.0137
637.00,0.0140
636.00,0.0141
635.00,0.0142
634.00,0.0141
633.00,0.0140
632.00,0.0141
631.00,0.0142
630.00,0.0144
629.00,0.0146
628.00,0.0147
627.00,0.0147
626.00,0.0145
625.00,0.0144
624.00,0.0143
623.00,0.0142
622.00,0.0141
621.00,0.0140
620.00,0.0140
619.00,0.0141
618.00,0.0142
617.00,0.0143
616.00,0.0143
615.00,0.0143
614.00,0.0144
613.00,0.0145
612.00,0.0147
611.00,0.0149
610.00,0.0149
609.00,0.0147
608.00,0.0144
607.00,0.0142
606.00,0.0142
605.00,0.0144
604.00,0.0144
603.00,0.0142
602.00,0.0139
601.00,0.0136
600.00,0.0136
599.00,0.0136
598.00,0.0138
597.00,0.0139
596.00,0.0140
595.00,0.0141
594.00,0.0140
593.00,0.0140
592.00,0.0139
591.00,0.0139
590.00,0.0139
589.00,0.0139
588.00,0.0140
587.00,0.0140
586.00,0.0139
585.00,0.0136
584.00,0.0135
583.00,0.0137
582.00,0.0140
581.00,0.0142
580.00,0.0142
579.00,0.0139
578.00,0.0137
577.00,0.0136
576.00,0.0137
575.00,0.0138
574.00,0.0140
573.00,0.0140
572.00,0.0141
571.00,0.0143
570.00,0.0146
569.00,0.0146
568.00,0.0144
567.00,0.0140
566.00,0.0137
565.00,0.0137
564.00,0.0138
563.00,0.0140
562.00,0.0143
561.00,0.0146
560.00,0.0148
559.00,0.0150
558.00,0.0151
557.00,0.0151
556.00,0.0150
555.00,0.0149
554.00,0.0148
553.00,0.0145
552.00,0.0140
551.00,0.0137
550.00,0.0135
549.00,0.0136
548.00,0.0137
547.00,0.0137
546.00,0.0135
545.00,0.0132
544.00,0.0131
543.00,0.0132
542.00,0.0135
541.00,0.0137
540.00,0.0135
539.00,0.0131
538.00,0.0130
537.00,0.0134
536.00,0.0139
535.00,0.0144
534.00,0.0144
533.00,0.0142
532.00,0.0139
531.00,0.0138
530.00,0.0141
529.00,0.0144
528.00,0.0146
527.00,0.0144
526.00,0.0140
525.00,0.0137
524.00,0.0137
523.00,0.0139
522.00,0.0141
521.00,0.0144
520.00,0.0145
519.00,0.0142
518.00,0.0137
517.00,0.0134
516.00,0.0135
515.00,0.0136
514.00,0.0135
513.00,0.0131
512.00,0.0126
511.00,0.0122
510.00,0.0122
509.00,0.0126
508.00,0.0132
507.00,0.0135
506.00,0.0134
505.00,0.0130
504.00,0.0127
503.00,0.0128
502.00,0.0134
501.00,0.0141
500.00,0.0140
499.00,0.0129
498.00,0.0116
497.00,0.0108
496.00,0.0110
495.00,0.0116
494.00,0.0122
493.00,0.0122
492.00,0.0117
491.00,0.0109
490.00,0.0102
489.00,0.0100
488.00,0.0104
487.00,0.0107
486.00,0.0107
485.00,0.0103
484.00,0.0100
483.00,0.0097
482.00,0.0096
481.00,0.0101
480.00,0.0112
479.00,0.0123
478.00,0.0130
477.00,0.0129
476.00,0.0123
475.00,0.0115
474.00,0.0107
473.00,0.0102
472.00,0.0103
471.00,0.0107
470.00,0.0110
469.00,0.0110
468.00,0.0111
467.00,0.0116
466.00,0.0124
465.00,0.0133
464.00,0.0143
463.00,0.0157
462.00,0.0173
461.00,0.0190
460.00,0.0206
459.00,0.0219
458.00,0.0226
457.00,0.0221
456.00,0.0206
455.00,0.0186
454.00,0.0167
453.00,0.0152
452.00,0.0137
451.00,0.0121
450.00,0.0112
