Created as New Dataset,Sample 106 By Administrator Date Wednesday, September 03 2025
cm-1,A
4000.00,0.0012
3999.00,0.0012
3998.00,0.0012
3997.00,0.0012
3996.00,0.0012
3995.00,0.0012
3994.00,0.0012
3993.00,0.0012
3992.00,0.0012
3991.00,0.0012
3990.00,0.0012
3989.00,0.0012
3988.00,0.0012
3987.00,0.0012
3986.00,0.0011
3985.00,0.0011
3984.00,0.0011
3983.00,0.0011
3982.00,0.0011
3981.00,0.0011
3980.00,0.0011
3979.00,0.0011
3978.00,0.0011
3977.00,0.0011
3976.00,0.0011
3975.00,0.0011
3974.00,0.0011
3973.00,0.0011
3972.00,0.0011
3971.00,0.0011
3970.00,0.0011
3969.00,0.0010
3968.00,0.0010
3967.00,0.0010
3966.00,0.0010
3965.00,0.0010
3964.00,0.0010
3963.00,0.0010
3962.00,0.0010
3961.00,0.0010
3960.00,0.0010
3959.00,0.0010
3958.00,0.0009
3957.00,0.0009
3956.00,0.0009
3955.00,0.0009
3954.00,0.0009
3953.00,0.0009
3952.00,0.0009
3951.00,0.0009
3950.00,0.0009
3949.00,0.0009
3948.00,0.0009
3947.00,0.0009
3946.00,0.0010
3945.00,0.0010
3944.00,0.0010
3943.00,0.0010
3942.00,0.0009
3941.00,0.0009
3940.00,0.0009
3939.00,0.0009
3938.00,0.0009
3937.00,0.0009
3936.00,0.0009
3935.00,0.0010
3934.00,0.0010
3933.00,0.0010
3932.00,0.0010
3931.00,0.0010
3930.00,0.0011
3929.00,0.0011
3928.00,0.0011
3927.00,0.0011
3926.00,0.0011
3925.00,0.0010
3924.00,0.0010
3923.00,0.0010
3922.00,0.0010
3921.00,0.0010
3920.00,0.0010
3919.00,0.0010
3918.00,0.0010
3917.00,0.0009
3916.00,0.0009
3915.00,0.0009
3914.00,0.0009
3913.00,0.0009
3912.00,0.0009
3911.00,0.0010
3910.00,0.0010
3909.00,0.0010
3908.00,0.0010
3907.00,0.0010
3906.00,0.0010
3905.00,0.0010
3904.00,0.0010
3903.00,0.0010
3902.00,0.0010
3901.00,0.0010
3900.00,0.0009
3899.00,0.0009
3898.00,0.0009
3897.00,0.0009
3896.00,0.0008
3895.00,0.0008
3894.00,0.0008
3893.00,0.0008
3892.00,0.0009
3891.00,0.0009
3890.00,0.0009
3889.00,0.0009
3888.00,0.0010
3887.00,0.0010
3886.00,0.0010
3885.00,0.0010
3884.00,0.0010
3883.00,0.0010
3882.00,0.0010
3881.00,0.0010
3880.00,0.0010
3879.00,0.0010
3878.00,0.0010
3877.00,0.0010
3876.00,0.0010
3875.00,0.0010
3874.00,0.0010
3873.00,0.0010
3872.00,0.0011
3871.00,0.0011
3870.00,0.0011
3869.00,0.0011
3868.00,0.0011
3867.00,0.0011
3866.00,0.0011
3865.00,0.0010
3864.00,0.0010
3863.00,0.0010
3862.00,0.0010
3861.00,0.0010
3860.00,0.0011
3859.00,0.0011
3858.00,0.0011
3857.00,0.0011
3856.00,0.0011
3855.00,0.0011
3854.00,0.0011
3853.00,0.0011
3852.00,0.0011
3851.00,0.0011
3850.00,0.0011
3849.00,0.0011
3848.00,0.0010
3847.00,0.0010
3846.00,0.0010
3845.00,0.0010
3844.00,0.0009
3843.00,0.0009
3842.00,0.0009
3841.00,0.0009
3840.00,0.0009
3839.00,0.0009
3838.00,0.0009
3837.00,0.0009
3836.00,0.0009
3835.00,0.0009
3834.00,0.0009
3833.00,0.0009
3832.00,0.0009
3831.00,0.0009
3830.00,0.0009
3829.00,0.0009
3828.00,0.0009
3827.00,0.0009
3826.00,0.0009
3825.00,0.0009
3824.00,0.0009
3823.00,0.0010
3822.00,0.0010
3821.00,0.0010
3820.00,0.0010
3819.00,0.0010
3818.00,0.0010
3817.00,0.0010
3816.00,0.0010
3815.00,0.0010
3814.00,0.0010
3813.00,0.0009
3812.00,0.0009
3811.00,0.0009
3810.00,0.0009
3809.00,0.0010
3808.00,0.0010
3807.00,0.0011
3806.00,0.0011
3805.00,0.0011
3804.00,0.0011
3803.00,0.0010
3802.00,0.0010
3801.00,0.0009
3800.00,0.0009
3799.00,0.0009
3798.00,0.0009
3797.00,0.0009
3796.00,0.0009
3795.00,0.0010
3794.00,0.0010
3793.00,0.0010
3792.00,0.0010
3791.00,0.0009
3790.00,0.0009
3789.00,0.0009
3788.00,0.0009
3787.00,0.0009
3786.00,0.0009
3785.00,0.0009
3784.00,0.0010
3783.00,0.0010
3782.00,0.0010
3781.00,0.0010
3780.00,0.0010
3779.00,0.0010
3778.00,0.0010
3777.00,0.0010
3776.00,0.0010
3775.00,0.0010
3774.00,0.0010
3773.00,0.0010
3772.00,0.0010
3771.00,0.0010
3770.00,0.0010
3769.00,0.0010
3768.00,0.0010
3767.00,0.0010
3766.00,0.0010
3765.00,0.0010
3764.00,0.0010
3763.00,0.0010
3762.00,0.0010
3761.00,0.0010
3760.00,0.0010
3759.00,0.0010
3758.00,0.0010
3757.00,0.0010
3756.00,0.0010
3755.00,0.0010
3754.00,0.0010
3753.00,0.0009
3752.00,0.0010
3751.00,0.0010
3750.00,0.0011
3749.00,0.0011
3748.00,0.0011
3747.00,0.0011
3746.00,0.0011
3745.00,0.0011
3744.00,0.0011
3743.00,0.0011
3742.00,0.0010
3741.00,0.0010
3740.00,0.0009
3739.00,0.0009
3738.00,0.0009
3737.00,0.0010
3736.00,0.0010
3735.00,0.0009
3734.00,0.0009
3733.00,0.0008
3732.00,0.0008
3731.00,0.0008
3730.00,0.0008
3729.00,0.0008
3728.00,0.0008
3727.00,0.0008
3726.00,0.0008
3725.00,0.0008
3724.00,0.0008
3723.00,0.0008
3722.00,0.0008
3721.00,0.0008
3720.00,0.0008
3719.00,0.0008
3718.00,0.0008
3717.00,0.0008
3716.00,0.0008
3715.00,0.0009
3714.00,0.0009
3713.00,0.0009
3712.00,0.0009
3711.00,0.0009
3710.00,0.0009
3709.00,0.0009
3708.00,0.0008
3707.00,0.0008
3706.00,0.0008
3705.00,0.0007
3704.00,0.0007
3703.00,0.0007
3702.00,0.0008
3701.00,0.0008
3700.00,0.0008
3699.00,0.0008
3698.00,0.0008
3697.00,0.0007
3696.00,0.0007
3695.00,0.0007
3694.00,0.0008
3693.00,0.0008
3692.00,0.0008
3691.00,0.0008
3690.00,0.0009
3689.00,0.0009
3688.00,0.0009
3687.00,0.0010
3686.00,0.0010
3685.00,0.0009
3684.00,0.0009
3683.00,0.0009
3682.00,0.0009
3681.00,0.0009
3680.00,0.0009
3679.00,0.0009
3678.00,0.0009
3677.00,0.0009
3676.00,0.0008
3675.00,0.0008
3674.00,0.0008
3673.00,0.0009
3672.00,0.0010
3671.00,0.0011
3670.00,0.0011
3669.00,0.0011
3668.00,0.0011
3667.00,0.0011
3666.00,0.0010
3665.00,0.0010
3664.00,0.0009
3663.00,0.0009
3662.00,0.0010
3661.00,0.0010
3660.00,0.0010
3659.00,0.0010
3658.00,0.0010
3657.00,0.0010
3656.00,0.0010
3655.00,0.0010
3654.00,0.0010
3653.00,0.0011
3652.00,0.0011
3651.00,0.0011
3650.00,0.0011
3649.00,0.0011
3648.00,0.0011
3647.00,0.0011
3646.00,0.0010
3645.00,0.0010
3644.00,0.0010
3643.00,0.0010
3642.00,0.0010
3641.00,0.0010
3640.00,0.0010
3639.00,0.0010
3638.00,0.0009
3637.00,0.0009
3636.00,0.0009
3635.00,0.0009
3634.00,0.0009
3633.00,0.0009
3632.00,0.0009
3631.00,0.0009
3630.00,0.0009
3629.00,0.0009
3628.00,0.0008
3627.00,0.0008
3626.00,0.0008
3625.00,0.0008
3624.00,0.0008
3623.00,0.0008
3622.00,0.0008
3621.00,0.0009
3620.00,0.0009
3619.00,0.0010
3618.00,0.0010
3617.00,0.0010
3616.00,0.0011
3615.00,0.0011
3614.00,0.0011
3613.00,0.0011
3612.00,0.0011
3611.00,0.0011
3610.00,0.0011
3609.00,0.0011
3608.00,0.0011
3607.00,0.0011
3606.00,0.0012
3605.00,0.0012
3604.00,0.0012
3603.00,0.0012
3602.00,0.0012
3601.00,0.0012
3600.00,0.0012
3599.00,0.0012
3598.00,0.0012
3597.00,0.0012
3596.00,0.0012
3595.00,0.0012
3594.00,0.0012
3593.00,0.0012
3592.00,0.0012
3591.00,0.0012
3590.00,0.0012
3589.00,0.0012
3588.00,0.0012
3587.00,0.0012
3586.00,0.0012
3585.00,0.0012
3584.00,0.0012
3583.00,0.0012
3582.00,0.0012
3581.00,0.0013
3580.00,0.0013
3579.00,0.0013
3578.00,0.0014
3577.00,0.0014
3576.00,0.0014
3575.00,0.0014
3574.00,0.0014
3573.00,0.0014
3572.00,0.0014
3571.00,0.0014
3570.00,0.0014
3569.00,0.0014
3568.00,0.0014
3567.00,0.0014
3566.00,0.0014
3565.00,0.0014
3564.00,0.0015
3563.00,0.0015
3562.00,0.0016
3561.00,0.0016
3560.00,0.0016
3559.00,0.0017
3558.00,0.0017
3557.00,0.0017
3556.00,0.0017
3555.00,0.0017
3554.00,0.0018
3553.00,0.0018
3552.00,0.0018
3551.00,0.0018
3550.00,0.0018
3549.00,0.0018
3548.00,0.0018
3547.00,0.0018
3546.00,0.0019
3545.00,0.0018
3544.00,0.0018
3543.00,0.0018
3542.00,0.0018
3541.00,0.0018
3540.00,0.0018
3539.00,0.0018
3538.00,0.0018
3537.00,0.0018
3536.00,0.0018
3535.00,0.0018
3534.00,0.0018
3533.00,0.0019
3532.00,0.0019
3531.00,0.0019
3530.00,0.0019
3529.00,0.0019
3528.00,0.0019
3527.00,0.0019
3526.00,0.0019
3525.00,0.0019
3524.00,0.0019
3523.00,0.0019
3522.00,0.0019
3521.00,0.0019
3520.00,0.0019
3519.00,0.0020
3518.00,0.0020
3517.00,0.0020
3516.00,0.0020
3515.00,0.0020
3514.00,0.0020
3513.00,0.0020
3512.00,0.0020
3511.00,0.0020
3510.00,0.0020
3509.00,0.0020
3508.00,0.0020
3507.00,0.0021
3506.00,0.0021
3505.00,0.0021
3504.00,0.0021
3503.00,0.0021
3502.00,0.0021
3501.00,0.0021
3500.00,0.0021
3499.00,0.0021
3498.00,0.0020
3497.00,0.0020
3496.00,0.0021
3495.00,0.0021
3494.00,0.0022
3493.00,0.0022
3492.00,0.0022
3491.00,0.0022
3490.00,0.0022
3489.00,0.0022
3488.00,0.0022
3487.00,0.0022
3486.00,0.0023
3485.00,0.0023
3484.00,0.0024
3483.00,0.0024
3482.00,0.0024
3481.00,0.0023
3480.00,0.0023
3479.00,0.0023
3478.00,0.0023
3477.00,0.0023
3476.00,0.0023
3475.00,0.0023
3474.00,0.0023
3473.00,0.0023
3472.00,0.0023
3471.00,0.0023
3470.00,0.0023
3469.00,0.0024
3468.00,0.0024
3467.00,0.0024
3466.00,0.0024
3465.00,0.0024
3464.00,0.0024
3463.00,0.0024
3462.00,0.0024
3461.00,0.0024
3460.00,0.0025
3459.00,0.0025
3458.00,0.0025
3457.00,0.0025
3456.00,0.0026
3455.00,0.0026
3454.00,0.0026
3453.00,0.0026
3452.00,0.0026
3451.00,0.0026
3450.00,0.0026
3449.00,0.0026
3448.00,0.0026
3447.00,0.0026
3446.00,0.0026
3445.00,0.0026
3444.00,0.0026
3443.00,0.0027
3442.00,0.0027
3441.00,0.0027
3440.00,0.0028
3439.00,0.0028
3438.00,0.0028
3437.00,0.0028
3436.00,0.0028
3435.00,0.0028
3434.00,0.0028
3433.00,0.0029
3432.00,0.0029
3431.00,0.0029
3430.00,0.0029
3429.00,0.0029
3428.00,0.0029
3427.00,0.0029
3426.00,0.0029
3425.00,0.0029
3424.00,0.0029
3423.00,0.0029
3422.00,0.0029
3421.00,0.0029
3420.00,0.0030
3419.00,0.0030
3418.00,0.0030
3417.00,0.0030
3416.00,0.0030
3415.00,0.0029
3414.00,0.0029
3413.00,0.0029
3412.00,0.0029
3411.00,0.0029
3410.00,0.0030
3409.00,0.0030
3408.00,0.0030
3407.00,0.0030
3406.00,0.0030
3405.00,0.0030
3404.00,0.0030
3403.00,0.0030
3402.00,0.0030
3401.00,0.0030
3400.00,0.0030
3399.00,0.0030
3398.00,0.0030
3397.00,0.0030
3396.00,0.0030
3395.00,0.0030
3394.00,0.0030
3393.00,0.0030
3392.00,0.0030
3391.00,0.0030
3390.00,0.0030
3389.00,0.0030
3388.00,0.0030
3387.00,0.0030
3386.00,0.0031
3385.00,0.0031
3384.00,0.0031
3383.00,0.0030
3382.00,0.0030
3381.00,0.0030
3380.00,0.0030
3379.00,0.0031
3378.00,0.0031
3377.00,0.0031
3376.00,0.0031
3375.00,0.0031
3374.00,0.0031
3373.00,0.0030
3372.00,0.0030
3371.00,0.0030
3370.00,0.0030
3369.00,0.0030
3368.00,0.0031
3367.00,0.0031
3366.00,0.0031
3365.00,0.0031
3364.00,0.0031
3363.00,0.0031
3362.00,0.0031
3361.00,0.0031
3360.00,0.0031
3359.00,0.0032
3358.00,0.0032
3357.00,0.0032
3356.00,0.0032
3355.00,0.0032
3354.00,0.0032
3353.00,0.0032
3352.00,0.0032
3351.00,0.0032
3350.00,0.0032
3349.00,0.0032
3348.00,0.0032
3347.00,0.0032
3346.00,0.0032
3345.00,0.0032
3344.00,0.0031
3343.00,0.0031
3342.00,0.0031
3341.00,0.0031
3340.00,0.0032
3339.00,0.0032
3338.00,0.0032
3337.00,0.0032
3336.00,0.0032
3335.00,0.0032
3334.00,0.0032
3333.00,0.0032
3332.00,0.0031
3331.00,0.0031
3330.00,0.0031
3329.00,0.0031
3328.00,0.0031
3327.00,0.0031
3326.00,0.0030
3325.00,0.0030
3324.00,0.0030
3323.00,0.0030
3322.00,0.0029
3321.00,0.0029
3320.00,0.0029
3319.00,0.0029
3318.00,0.0030
3317.00,0.0030
3316.00,0.0030
3315.00,0.0030
3314.00,0.0030
3313.00,0.0030
3312.00,0.0030
3311.00,0.0030
3310.00,0.0031
3309.00,0.0031
3308.00,0.0032
3307.00,0.0032
3306.00,0.0031
3305.00,0.0031
3304.00,0.0031
3303.00,0.0031
3302.00,0.0031
3301.00,0.0031
3300.00,0.0031
3299.00,0.0030
3298.00,0.0030
3297.00,0.0030
3296.00,0.0030
3295.00,0.0030
3294.00,0.0030
3293.00,0.0030
3292.00,0.0030
3291.00,0.0030
3290.00,0.0029
3289.00,0.0029
3288.00,0.0029
3287.00,0.0029
3286.00,0.0028
3285.00,0.0028
3284.00,0.0028
3283.00,0.0028
3282.00,0.0029
3281.00,0.0029
3280.00,0.0029
3279.00,0.0029
3278.00,0.0028
3277.00,0.0028
3276.00,0.0028
3275.00,0.0028
3274.00,0.0028
3273.00,0.0028
3272.00,0.0028
3271.00,0.0027
3270.00,0.0027
3269.00,0.0028
3268.00,0.0028
3267.00,0.0027
3266.00,0.0027
3265.00,0.0027
3264.00,0.0027
3263.00,0.0027
3262.00,0.0027
3261.00,0.0027
3260.00,0.0027
3259.00,0.0027
3258.00,0.0027
3257.00,0.0026
3256.00,0.0026
3255.00,0.0026
3254.00,0.0026
3253.00,0.0026
3252.00,0.0026
3251.00,0.0026
3250.00,0.0026
3249.00,0.0026
3248.00,0.0026
3247.00,0.0026
3246.00,0.0026
3245.00,0.0026
3244.00,0.0026
3243.00,0.0026
3242.00,0.0026
3241.00,0.0025
3240.00,0.0025
3239.00,0.0025
3238.00,0.0026
3237.00,0.0026
3236.00,0.0026
3235.00,0.0025
3234.00,0.0025
3233.00,0.0025
3232.00,0.0025
3231.00,0.0026
3230.00,0.0027
3229.00,0.0027
3228.00,0.0028
3227.00,0.0029
3226.00,0.0029
3225.00,0.0029
3224.00,0.0029
3223.00,0.0029
3222.00,0.0029
3221.00,0.0029
3220.00,0.0029
3219.00,0.0029
3218.00,0.0029
3217.00,0.0030
3216.00,0.0030
3215.00,0.0030
3214.00,0.0030
3213.00,0.0030
3212.00,0.0030
3211.00,0.0031
3210.00,0.0031
3209.00,0.0031
3208.00,0.0032
3207.00,0.0032
3206.00,0.0032
3205.00,0.0031
3204.00,0.0031
3203.00,0.0032
3202.00,0.0032
3201.00,0.0032
3200.00,0.0032
3199.00,0.0032
3198.00,0.0032
3197.00,0.0032
3196.00,0.0032
3195.00,0.0032
3194.00,0.0032
3193.00,0.0032
3192.00,0.0032
3191.00,0.0032
3190.00,0.0032
3189.00,0.0032
3188.00,0.0032
3187.00,0.0032
3186.00,0.0032
3185.00,0.0031
3184.00,0.0031
3183.00,0.0030
3182.00,0.0030
3181.00,0.0030
3180.00,0.0030
3179.00,0.0030
3178.00,0.0030
3177.00,0.0030
3176.00,0.0030
3175.00,0.0030
3174.00,0.0030
3173.00,0.0030
3172.00,0.0030
3171.00,0.0030
3170.00,0.0030
3169.00,0.0029
3168.00,0.0030
3167.00,0.0030
3166.00,0.0030
3165.00,0.0030
3164.00,0.0030
3163.00,0.0030
3162.00,0.0029
3161.00,0.0029
3160.00,0.0029
3159.00,0.0029
3158.00,0.0029
3157.00,0.0030
3156.00,0.0030
3155.00,0.0030
3154.00,0.0030
3153.00,0.0029
3152.00,0.0029
3151.00,0.0028
3150.00,0.0029
3149.00,0.0029
3148.00,0.0029
3147.00,0.0029
3146.00,0.0029
3145.00,0.0029
3144.00,0.0029
3143.00,0.0029
3142.00,0.0029
3141.00,0.0029
3140.00,0.0029
3139.00,0.0029
3138.00,0.0029
3137.00,0.0029
3136.00,0.0028
3135.00,0.0028
3134.00,0.0028
3133.00,0.0027
3132.00,0.0027
3131.00,0.0027
3130.00,0.0027
3129.00,0.0027
3128.00,0.0027
3127.00,0.0027
3126.00,0.0027
3125.00,0.0027
3124.00,0.0027
3123.00,0.0027
3122.00,0.0027
3121.00,0.0026
3120.00,0.0026
3119.00,0.0026
3118.00,0.0026
3117.00,0.0026
3116.00,0.0026
3115.00,0.0026
3114.00,0.0026
3113.00,0.0026
3112.00,0.0026
3111.00,0.0025
3110.00,0.0025
3109.00,0.0025
3108.00,0.0024
3107.00,0.0024
3106.00,0.0025
3105.00,0.0025
3104.00,0.0025
3103.00,0.0025
3102.00,0.0025
3101.00,0.0025
3100.00,0.0025
3099.00,0.0025
3098.00,0.0025
3097.00,0.0025
3096.00,0.0026
3095.00,0.0026
3094.00,0.0025
3093.00,0.0025
3092.00,0.0025
3091.00,0.0024
3090.00,0.0024
3089.00,0.0025
3088.00,0.0025
3087.00,0.0025
3086.00,0.0025
3085.00,0.0025
3084.00,0.0025
3083.00,0.0026
3082.00,0.0026
3081.00,0.0026
3080.00,0.0026
3079.00,0.0026
3078.00,0.0026
3077.00,0.0026
3076.00,0.0026
3075.00,0.0025
3074.00,0.0025
3073.00,0.0025
3072.00,0.0025
3071.00,0.0026
3070.00,0.0026
3069.00,0.0027
3068.00,0.0027
3067.00,0.0027
3066.00,0.0028
3065.00,0.0028
3064.00,0.0028
3063.00,0.0028
3062.00,0.0028
3061.00,0.0028
3060.00,0.0028
3059.00,0.0028
3058.00,0.0028
3057.00,0.0029
3056.00,0.0029
3055.00,0.0029
3054.00,0.0030
3053.00,0.0030
3052.00,0.0030
3051.00,0.0030
3050.00,0.0030
3049.00,0.0030
3048.00,0.0031
3047.00,0.0031
3046.00,0.0032
3045.00,0.0032
3044.00,0.0032
3043.00,0.0032
3042.00,0.0032
3041.00,0.0033
3040.00,0.0033
3039.00,0.0034
3038.00,0.0034
3037.00,0.0034
3036.00,0.0034
3035.00,0.0034
3034.00,0.0035
3033.00,0.0035
3032.00,0.0035
3031.00,0.0035
3030.00,0.0036
3029.00,0.0036
3028.00,0.0037
3027.00,0.0037
3026.00,0.0038
3025.00,0.0038
3024.00,0.0039
3023.00,0.0040
3022.00,0.0040
3021.00,0.0041
3020.00,0.0042
3019.00,0.0043
3018.00,0.0044
3017.00,0.0044
3016.00,0.0046
3015.00,0.0047
3014.00,0.0049
3013.00,0.0051
3012.00,0.0052
3011.00,0.0054
3010.00,0.0056
3009.00,0.0057
3008.00,0.0059
3007.00,0.0061
3006.00,0.0064
3005.00,0.0066
3004.00,0.0068
3003.00,0.0071
3002.00,0.0074
3001.00,0.0076
3000.00,0.0079
2999.00,0.0082
2998.00,0.0085
2997.00,0.0089
2996.00,0.0093
2995.00,0.0097
2994.00,0.0101
2993.00,0.0106
2992.00,0.0111
2991.00,0.0117
2990.00,0.0124
2989.00,0.0131
2988.00,0.0139
2987.00,0.0148
2986.00,0.0159
2985.00,0.0171
2984.00,0.0184
2983.00,0.0199
2982.00,0.0215
2981.00,0.0233
2980.00,0.0252
2979.00,0.0273
2978.00,0.0297
2977.00,0.0324
2976.00,0.0356
2975.00,0.0393
2974.00,0.0436
2973.00,0.0485
2972.00,0.0540
2971.00,0.0602
2970.00,0.0671
2969.00,0.0747
2968.00,0.0831
2967.00,0.0920
2966.00,0.1015
2965.00,0.1112
2964.00,0.1209
2963.00,0.1300
2962.00,0.1382
2961.00,0.1451
2960.00,0.1505
2959.00,0.1547
2958.00,0.1581
2957.00,0.1613
2956.00,0.1648
2955.00,0.1691
2954.00,0.1741
2953.00,0.1793
2952.00,0.1837
2951.00,0.1865
2950.00,0.1864
2949.00,0.1830
2948.00,0.1761
2947.00,0.1662
2946.00,0.1545
2945.00,0.1423
2944.00,0.1308
2943.00,0.1210
2942.00,0.1134
2941.00,0.1082
2940.00,0.1054
2939.00,0.1047
2938.00,0.1060
2937.00,0.1090
2936.00,0.1135
2935.00,0.1195
2934.00,0.1268
2933.00,0.1353
2932.00,0.1448
2931.00,0.1552
2930.00,0.1662
2929.00,0.1775
2928.00,0.1888
2927.00,0.1999
2926.00,0.2107
2925.00,0.2211
2924.00,0.2314
2923.00,0.2415
2922.00,0.2515
2921.00,0.2609
2920.00,0.2692
2919.00,0.2753
2918.00,0.2782
2917.00,0.2773
2916.00,0.2724
2915.00,0.2643
2914.00,0.2539
2913.00,0.2428
2912.00,0.2319
2911.00,0.2219
2910.00,0.2132
2909.00,0.2055
2908.00,0.1986
2907.00,0.1922
2906.00,0.1858
2905.00,0.1793
2904.00,0.1728
2903.00,0.1661
2902.00,0.1594
2901.00,0.1528
2900.00,0.1464
2899.00,0.1402
2898.00,0.1344
2897.00,0.1291
2896.00,0.1243
2895.00,0.1201
2894.00,0.1165
2893.00,0.1135
2892.00,0.1111
2891.00,0.1092
2890.00,0.1078
2889.00,0.1068
2888.00,0.1062
2887.00,0.1060
2886.00,0.1060
2885.00,0.1065
2884.00,0.1073
2883.00,0.1086
2882.00,0.1102
2881.00,0.1122
2880.00,0.1141
2879.00,0.1156
2878.00,0.1166
2877.00,0.1167
2876.00,0.1162
2875.00,0.1155
2874.00,0.1149
2873.00,0.1148
2872.00,0.1155
2871.00,0.1168
2870.00,0.1184
2869.00,0.1200
2868.00,0.1208
2867.00,0.1202
2866.00,0.1178
2865.00,0.1132
2864.00,0.1071
2863.00,0.1001
2862.00,0.0934
2861.00,0.0876
2860.00,0.0832
2859.00,0.0804
2858.00,0.0791
2857.00,0.0790
2856.00,0.0801
2855.00,0.0820
2854.00,0.0845
2853.00,0.0875
2852.00,0.0904
2851.00,0.0929
2850.00,0.0947
2849.00,0.0955
2848.00,0.0958
2847.00,0.0962
2846.00,0.0973
2845.00,0.0996
2844.00,0.1031
2843.00,0.1075
2842.00,0.1124
2841.00,0.1171
2840.00,0.1208
2839.00,0.1227
2838.00,0.1221
2837.00,0.1185
2836.00,0.1119
2835.00,0.1031
2834.00,0.0928
2833.00,0.0821
2832.00,0.0720
2831.00,0.0629
2830.00,0.0552
2829.00,0.0489
2828.00,0.0438
2827.00,0.0397
2826.00,0.0363
2825.00,0.0335
2824.00,0.0312
2823.00,0.0291
2822.00,0.0274
2821.00,0.0259
2820.00,0.0247
2819.00,0.0236
2818.00,0.0226
2817.00,0.0218
2816.00,0.0210
2815.00,0.0203
2814.00,0.0197
2813.00,0.0191
2812.00,0.0186
2811.00,0.0180
2810.00,0.0174
2809.00,0.0169
2808.00,0.0163
2807.00,0.0157
2806.00,0.0151
2805.00,0.0145
2804.00,0.0139
2803.00,0.0133
2802.00,0.0128
2801.00,0.0123
2800.00,0.0119
2799.00,0.0116
2798.00,0.0113
2797.00,0.0111
2796.00,0.0108
2795.00,0.0106
2794.00,0.0104
2793.00,0.0101
2792.00,0.0099
2791.00,0.0096
2790.00,0.0092
2789.00,0.0089
2788.00,0.0086
2787.00,0.0083
2786.00,0.0080
2785.00,0.0078
2784.00,0.0075
2783.00,0.0073
2782.00,0.0071
2781.00,0.0069
2780.00,0.0068
2779.00,0.0066
2778.00,0.0064
2777.00,0.0062
2776.00,0.0061
2775.00,0.0060
2774.00,0.0059
2773.00,0.0058
2772.00,0.0057
2771.00,0.0057
2770.00,0.0057
2769.00,0.0057
2768.00,0.0056
2767.00,0.0056
2766.00,0.0055
2765.00,0.0055
2764.00,0.0055
2763.00,0.0055
2762.00,0.0054
2761.00,0.0054
2760.00,0.0054
2759.00,0.0053
2758.00,0.0053
2757.00,0.0053
2756.00,0.0052
2755.00,0.0052
2754.00,0.0053
2753.00,0.0053
2752.00,0.0053
2751.00,0.0053
2750.00,0.0052
2749.00,0.0052
2748.00,0.0052
2747.00,0.0052
2746.00,0.0053
2745.00,0.0053
2744.00,0.0054
2743.00,0.0055
2742.00,0.0056
2741.00,0.0057
2740.00,0.0058
2739.00,0.0059
2738.00,0.0060
2737.00,0.0061
2736.00,0.0063
2735.00,0.0064
2734.00,0.0066
2733.00,0.0067
2732.00,0.0069
2731.00,0.0070
2730.00,0.0072
2729.00,0.0074
2728.00,0.0077
2727.00,0.0080
2726.00,0.0082
2725.00,0.0085
2724.00,0.0086
2723.00,0.0087
2722.00,0.0086
2721.00,0.0084
2720.00,0.0082
2719.00,0.0079
2718.00,0.0076
2717.00,0.0072
2716.00,0.0069
2715.00,0.0067
2714.00,0.0064
2713.00,0.0062
2712.00,0.0060
2711.00,0.0058
2710.00,0.0057
2709.00,0.0055
2708.00,0.0054
2707.00,0.0053
2706.00,0.0052
2705.00,0.0051
2704.00,0.0049
2703.00,0.0048
2702.00,0.0047
2701.00,0.0047
2700.00,0.0046
2699.00,0.0046
2698.00,0.0046
2697.00,0.0045
2696.00,0.0045
2695.00,0.0045
2694.00,0.0045
2693.00,0.0046
2692.00,0.0046
2691.00,0.0046
2690.00,0.0046
2689.00,0.0046
2688.00,0.0046
2687.00,0.0047
2686.00,0.0047
2685.00,0.0047
2684.00,0.0046
2683.00,0.0046
2682.00,0.0046
2681.00,0.0047
2680.00,0.0047
2679.00,0.0047
2678.00,0.0047
2677.00,0.0046
2676.00,0.0046
2675.00,0.0046
2674.00,0.0046
2673.00,0.0046
2672.00,0.0046
2671.00,0.0046
2670.00,0.0046
2669.00,0.0046
2668.00,0.0046
2667.00,0.0046
2666.00,0.0046
2665.00,0.0047
2664.00,0.0048
2663.00,0.0048
2662.00,0.0048
2661.00,0.0049
2660.00,0.0049
2659.00,0.0049
2658.00,0.0049
2657.00,0.0049
2656.00,0.0049
2655.00,0.0048
2654.00,0.0047
2653.00,0.0047
2652.00,0.0046
2651.00,0.0045
2650.00,0.0045
2649.00,0.0044
2648.00,0.0044
2647.00,0.0044
2646.00,0.0043
2645.00,0.0043
2644.00,0.0043
2643.00,0.0043
2642.00,0.0042
2641.00,0.0041
2640.00,0.0041
2639.00,0.0040
2638.00,0.0039
2637.00,0.0039
2636.00,0.0039
2635.00,0.0039
2634.00,0.0039
2633.00,0.0039
2632.00,0.0039
2631.00,0.0039
2630.00,0.0039
2629.00,0.0040
2628.00,0.0040
2627.00,0.0041
2626.00,0.0041
2625.00,0.0041
2624.00,0.0040
2623.00,0.0040
2622.00,0.0040
2621.00,0.0040
2620.00,0.0040
2619.00,0.0040
2618.00,0.0040
2617.00,0.0040
2616.00,0.0040
2615.00,0.0040
2614.00,0.0040
2613.00,0.0041
2612.00,0.0040
2611.00,0.0040
2610.00,0.0039
2609.00,0.0037
2608.00,0.0036
2607.00,0.0035
2606.00,0.0034
2605.00,0.0034
2604.00,0.0034
2603.00,0.0034
2602.00,0.0033
2601.00,0.0033
2600.00,0.0033
2599.00,0.0033
2598.00,0.0033
2597.00,0.0033
2596.00,0.0033
2595.00,0.0032
2594.00,0.0032
2593.00,0.0033
2592.00,0.0033
2591.00,0.0034
2590.00,0.0035
2589.00,0.0036
2588.00,0.0037
2587.00,0.0038
2586.00,0.0039
2585.00,0.0040
2584.00,0.0040
2583.00,0.0040
2582.00,0.0040
2581.00,0.0039
2580.00,0.0038
2579.00,0.0037
2578.00,0.0036
2577.00,0.0036
2576.00,0.0035
2575.00,0.0033
2574.00,0.0032
2573.00,0.0031
2572.00,0.0030
2571.00,0.0029
2570.00,0.0028
2569.00,0.0027
2568.00,0.0027
2567.00,0.0026
2566.00,0.0026
2565.00,0.0025
2564.00,0.0025
2563.00,0.0025
2562.00,0.0025
2561.00,0.0025
2560.00,0.0025
2559.00,0.0025
2558.00,0.0024
2557.00,0.0024
2556.00,0.0023
2555.00,0.0023
2554.00,0.0023
2553.00,0.0022
2552.00,0.0022
2551.00,0.0022
2550.00,0.0021
2549.00,0.0021
2548.00,0.0020
2547.00,0.0020
2546.00,0.0019
2545.00,0.0019
2544.00,0.0019
2543.00,0.0019
2542.00,0.0019
2541.00,0.0019
2540.00,0.0019
2539.00,0.0019
2538.00,0.0020
2537.00,0.0020
2536.00,0.0019
2535.00,0.0019
2534.00,0.0018
2533.00,0.0017
2532.00,0.0017
2531.00,0.0017
2530.00,0.0016
2529.00,0.0016
2528.00,0.0016
2527.00,0.0016
2526.00,0.0016
2525.00,0.0016
2524.00,0.0016
2523.00,0.0016
2522.00,0.0016
2521.00,0.0015
2520.00,0.0015
2519.00,0.0014
2518.00,0.0013
2517.00,0.0012
2516.00,0.0012
2515.00,0.0012
2514.00,0.0012
2513.00,0.0012
2512.00,0.0012
2511.00,0.0013
2510.00,0.0013
2509.00,0.0012
2508.00,0.0012
2507.00,0.0011
2506.00,0.0011
2505.00,0.0011
2504.00,0.0011
2503.00,0.0011
2502.00,0.0012
2501.00,0.0012
2500.00,0.0012
2499.00,0.0011
2498.00,0.0011
2497.00,0.0010
2496.00,0.0010
2495.00,0.0010
2494.00,0.0011
2493.00,0.0011
2492.00,0.0012
2491.00,0.0012
2490.00,0.0013
2489.00,0.0013
2488.00,0.0013
2487.00,0.0012
2486.00,0.0012
2485.00,0.0011
2484.00,0.0011
2483.00,0.0010
2482.00,0.0010
2481.00,0.0010
2480.00,0.0010
2479.00,0.0010
2478.00,0.0010
2477.00,0.0010
2476.00,0.0011
2475.00,0.0010
2474.00,0.0010
2473.00,0.0010
2472.00,0.0010
2471.00,0.0010
2470.00,0.0010
2469.00,0.0010
2468.00,0.0010
2467.00,0.0011
2466.00,0.0011
2465.00,0.0011
2464.00,0.0011
2463.00,0.0011
2462.00,0.0011
2461.00,0.0012
2460.00,0.0012
2459.00,0.0012
2458.00,0.0012
2457.00,0.0012
2456.00,0.0013
2455.00,0.0013
2454.00,0.0013
2453.00,0.0013
2452.00,0.0012
2451.00,0.0011
2450.00,0.0011
2449.00,0.0011
2448.00,0.0011
2447.00,0.0011
2446.00,0.0011
2445.00,0.0011
2444.00,0.0011
2443.00,0.0011
2442.00,0.0012
2441.00,0.0012
2440.00,0.0012
2439.00,0.0013
2438.00,0.0012
2437.00,0.0012
2436.00,0.0012
2435.00,0.0012
2434.00,0.0012
2433.00,0.0012
2432.00,0.0012
2431.00,0.0013
2430.00,0.0013
2429.00,0.0014
2428.00,0.0014
2427.00,0.0014
2426.00,0.0014
2425.00,0.0013
2424.00,0.0012
2423.00,0.0012
2422.00,0.0012
2421.00,0.0011
2420.00,0.0011
2419.00,0.0010
2418.00,0.0010
2417.00,0.0010
2416.00,0.0011
2415.00,0.0012
2414.00,0.0013
2413.00,0.0013
2412.00,0.0012
2411.00,0.0012
2410.00,0.0012
2409.00,0.0012
2408.00,0.0012
2407.00,0.0012
2406.00,0.0012
2405.00,0.0011
2404.00,0.0010
2403.00,0.0009
2402.00,0.0009
2401.00,0.0009
2400.00,0.0010
2399.00,0.0010
2398.00,0.0010
2397.00,0.0010
2396.00,0.0009
2395.00,0.0009
2394.00,0.0009
2393.00,0.0009
2392.00,0.0010
2391.00,0.0010
2390.00,0.0010
2389.00,0.0009
2388.00,0.0009
2387.00,0.0008
2386.00,0.0008
2385.00,0.0008
2384.00,0.0008
2383.00,0.0007
2382.00,0.0006
2381.00,0.0006
2380.00,0.0006
2379.00,0.0006
2378.00,0.0006
2377.00,0.0006
2376.00,0.0006
2375.00,0.0006
2374.00,0.0006
2373.00,0.0006
2372.00,0.0005
2371.00,0.0005
2370.00,0.0005
2369.00,0.0004
2368.00,0.0004
2367.00,0.0004
2366.00,0.0004
2365.00,0.0005
2364.00,0.0005
2363.00,0.0005
2362.00,0.0005
2361.00,0.0005
2360.00,0.0005
2359.00,0.0005
2358.00,0.0005
2357.00,0.0005
2356.00,0.0005
2355.00,0.0006
2354.00,0.0006
2353.00,0.0006
2352.00,0.0005
2351.00,0.0005
2350.00,0.0005
2349.00,0.0005
2348.00,0.0006
2347.00,0.0007
2346.00,0.0008
2345.00,0.0008
2344.00,0.0008
2343.00,0.0007
2342.00,0.0007
2341.00,0.0007
2340.00,0.0007
2339.00,0.0007
2338.00,0.0008
2337.00,0.0008
2336.00,0.0009
2335.00,0.0009
2334.00,0.0009
2333.00,0.0009
2332.00,0.0008
2331.00,0.0008
2330.00,0.0007
2329.00,0.0007
2328.00,0.0008
2327.00,0.0011
2326.00,0.0015
2325.00,0.0019
2324.00,0.0021
2323.00,0.0021
2322.00,0.0019
2321.00,0.0017
2320.00,0.0015
2319.00,0.0014
2318.00,0.0013
2317.00,0.0012
2316.00,0.0012
2315.00,0.0012
2314.00,0.0011
2313.00,0.0010
2312.00,0.0009
2311.00,0.0009
2310.00,0.0008
2309.00,0.0007
2308.00,0.0007
2307.00,0.0007
2306.00,0.0007
2305.00,0.0008
2304.00,0.0009
2303.00,0.0010
2302.00,0.0011
2301.00,0.0011
2300.00,0.0011
2299.00,0.0011
2298.00,0.0011
2297.00,0.0012
2296.00,0.0013
2295.00,0.0014
2294.00,0.0015
2293.00,0.0017
2292.00,0.0017
2291.00,0.0018
2290.00,0.0018
2289.00,0.0018
2288.00,0.0018
2287.00,0.0018
2286.00,0.0018
2285.00,0.0017
2284.00,0.0016
2283.00,0.0015
2282.00,0.0014
2281.00,0.0014
2280.00,0.0015
2279.00,0.0015
2278.00,0.0016
2277.00,0.0016
2276.00,0.0017
2275.00,0.0016
2274.00,0.0016
2273.00,0.0015
2272.00,0.0013
2271.00,0.0012
2270.00,0.0011
2269.00,0.0011
2268.00,0.0011
2267.00,0.0011
2266.00,0.0011
2265.00,0.0010
2264.00,0.0008
2263.00,0.0007
2262.00,0.0007
2261.00,0.0007
2260.00,0.0008
2259.00,0.0009
2258.00,0.0011
2257.00,0.0012
2256.00,0.0012
2255.00,0.0010
2254.00,0.0008
2253.00,0.0007
2252.00,0.0008
2251.00,0.0008
2250.00,0.0008
2249.00,0.0008
2248.00,0.0008
2247.00,0.0008
2246.00,0.0008
2245.00,0.0009
2244.00,0.0009
2243.00,0.0009
2242.00,0.0008
2241.00,0.0007
2240.00,0.0007
2239.00,0.0007
2238.00,0.0008
2237.00,0.0010
2236.00,0.0011
2235.00,0.0012
2234.00,0.0012
2233.00,0.0012
2232.00,0.0011
2231.00,0.0009
2230.00,0.0009
2229.00,0.0009
2228.00,0.0009
2227.00,0.0008
2226.00,0.0008
2225.00,0.0008
2224.00,0.0008
2223.00,0.0009
2222.00,0.0010
2221.00,0.0010
2220.00,0.0010
2219.00,0.0008
2218.00,0.0007
2217.00,0.0005
2216.00,0.0005
2215.00,0.0005
2214.00,0.0004
2213.00,0.0004
2212.00,0.0005
2211.00,0.0005
2210.00,0.0006
2209.00,0.0006
2208.00,0.0006
2207.00,0.0005
2206.00,0.0004
2205.00,0.0003
2204.00,0.0002
2203.00,0.0002
2202.00,0.0002
2201.00,0.0002
2200.00,0.0002
2199.00,0.0004
2198.00,0.0006
2197.00,0.0007
2196.00,0.0008
2195.00,0.0007
2194.00,0.0007
2193.00,0.0008
2192.00,0.0010
2191.00,0.0011
2190.00,0.0010
2189.00,0.0009
2188.00,0.0008
2187.00,0.0008
2186.00,0.0008
2185.00,0.0009
2184.00,0.0010
2183.00,0.0011
2182.00,0.0011
2181.00,0.0010
2180.00,0.0008
2179.00,0.0005
2178.00,0.0002
2177.00,-0.0000
2176.00,-0.0001
2175.00,-0.0001
2174.00,0.0001
2173.00,0.0003
2172.00,0.0006
2171.00,0.0010
2170.00,0.0013
2169.00,0.0015
2168.00,0.0015
2167.00,0.0013
2166.00,0.0011
2165.00,0.0011
2164.00,0.0013
2163.00,0.0017
2162.00,0.0019
2161.00,0.0016
2160.00,0.0005
2159.00,-0.0011
2158.00,-0.0024
2157.00,-0.0029
2156.00,-0.0028
2155.00,-0.0023
2154.00,-0.0018
2153.00,-0.0013
2152.00,-0.0009
2151.00,-0.0008
2150.00,-0.0008
2149.00,-0.0010
2148.00,-0.0012
2147.00,-0.0012
2146.00,-0.0011
2145.00,-0.0011
2144.00,-0.0011
2143.00,-0.0011
2142.00,-0.0012
2141.00,-0.0013
2140.00,-0.0014
2139.00,-0.0015
2138.00,-0.0014
2137.00,-0.0013
2136.00,-0.0012
2135.00,-0.0012
2134.00,-0.0013
2133.00,-0.0013
2132.00,-0.0011
2131.00,-0.0009
2130.00,-0.0007
2129.00,-0.0007
2128.00,-0.0007
2127.00,-0.0007
2126.00,-0.0007
2125.00,-0.0006
2124.00,-0.0006
2123.00,-0.0005
2122.00,-0.0005
2121.00,-0.0003
2120.00,-0.0001
2119.00,0.0001
2118.00,0.0002
2117.00,0.0003
2116.00,0.0003
2115.00,0.0003
2114.00,0.0003
2113.00,0.0004
2112.00,0.0005
2111.00,0.0005
2110.00,0.0005
2109.00,0.0005
2108.00,0.0004
2107.00,0.0003
2106.00,0.0003
2105.00,0.0003
2104.00,0.0003
2103.00,0.0004
2102.00,0.0004
2101.00,0.0004
2100.00,0.0004
2099.00,0.0004
2098.00,0.0004
2097.00,0.0003
2096.00,0.0001
2095.00,-0.0002
2094.00,-0.0004
2093.00,-0.0004
2092.00,-0.0004
2091.00,-0.0003
2090.00,-0.0001
2089.00,0.0000
2088.00,0.0001
2087.00,0.0001
2086.00,0.0001
2085.00,0.0001
2084.00,0.0002
2083.00,0.0002
2082.00,0.0002
2081.00,0.0003
2080.00,0.0004
2079.00,0.0005
2078.00,0.0006
2077.00,0.0006
2076.00,0.0006
2075.00,0.0005
2074.00,0.0005
2073.00,0.0004
2072.00,0.0003
2071.00,0.0002
2070.00,0.0002
2069.00,0.0002
2068.00,0.0003
2067.00,0.0002
2066.00,0.0000
2065.00,-0.0000
2064.00,-0.0000
2063.00,0.0000
2062.00,0.0000
2061.00,0.0000
2060.00,-0.0001
2059.00,-0.0001
2058.00,-0.0001
2057.00,0.0000
2056.00,0.0001
2055.00,0.0002
2054.00,0.0004
2053.00,0.0007
2052.00,0.0012
2051.00,0.0013
2050.00,0.0012
2049.00,0.0008
2048.00,0.0005
2047.00,0.0003
2046.00,0.0003
2045.00,0.0002
2044.00,0.0001
2043.00,0.0001
2042.00,0.0001
2041.00,0.0002
2040.00,0.0003
2039.00,0.0003
2038.00,0.0002
2037.00,0.0002
2036.00,0.0001
2035.00,0.0000
2034.00,-0.0001
2033.00,-0.0002
2032.00,-0.0003
2031.00,-0.0003
2030.00,-0.0004
2029.00,-0.0005
2028.00,-0.0007
2027.00,-0.0006
2026.00,-0.0002
2025.00,0.0003
2024.00,0.0006
2023.00,0.0006
2022.00,0.0004
2021.00,0.0002
2020.00,0.0001
2019.00,0.0000
2018.00,-0.0001
2017.00,-0.0003
2016.00,-0.0005
2015.00,-0.0006
2014.00,-0.0007
2013.00,-0.0006
2012.00,-0.0005
2011.00,-0.0003
2010.00,-0.0003
2009.00,-0.0004
2008.00,-0.0006
2007.00,-0.0008
2006.00,-0.0009
2005.00,-0.0010
2004.00,-0.0011
2003.00,-0.0011
2002.00,-0.0012
2001.00,-0.0013
2000.00,-0.0013
1999.00,-0.0013
1998.00,-0.0012
1997.00,-0.0010
1996.00,-0.0009
1995.00,-0.0008
1994.00,-0.0007
1993.00,-0.0007
1992.00,-0.0006
1991.00,-0.0004
1990.00,-0.0003
1989.00,-0.0001
1988.00,-0.0000
1987.00,0.0000
1986.00,0.0001
1985.00,0.0002
1984.00,0.0004
1983.00,0.0005
1982.00,0.0006
1981.00,0.0009
1980.00,0.0009
1979.00,0.0007
1978.00,0.0002
1977.00,-0.0003
1976.00,-0.0005
1975.00,-0.0006
1974.00,-0.0006
1973.00,-0.0006
1972.00,-0.0007
1971.00,-0.0009
1970.00,-0.0010
1969.00,-0.0011
1968.00,-0.0011
1967.00,-0.0011
1966.00,-0.0010
1965.00,-0.0009
1964.00,-0.0008
1963.00,-0.0009
1962.00,-0.0011
1961.00,-0.0013
1960.00,-0.0014
1959.00,-0.0016
1958.00,-0.0016
1957.00,-0.0015
1956.00,-0.0015
1955.00,-0.0014
1954.00,-0.0014
1953.00,-0.0014
1952.00,-0.0015
1951.00,-0.0016
1950.00,-0.0017
1949.00,-0.0017
1948.00,-0.0016
1947.00,-0.0015
1946.00,-0.0016
1945.00,-0.0016
1944.00,-0.0016
1943.00,-0.0015
1942.00,-0.0014
1941.00,-0.0011
1940.00,-0.0009
1939.00,-0.0008
1938.00,-0.0007
1937.00,-0.0005
1936.00,-0.0005
1935.00,-0.0005
1934.00,-0.0005
1933.00,-0.0006
1932.00,-0.0006
1931.00,-0.0007
1930.00,-0.0007
1929.00,-0.0007
1928.00,-0.0008
1927.00,-0.0007
1926.00,-0.0007
1925.00,-0.0006
1924.00,-0.0004
1923.00,-0.0002
1922.00,-0.0001
1921.00,-0.0001
1920.00,-0.0001
1919.00,-0.0001
1918.00,-0.0001
1917.00,-0.0001
1916.00,-0.0001
1915.00,-0.0000
1914.00,-0.0000
1913.00,-0.0000
1912.00,-0.0000
1911.00,-0.0000
1910.00,-0.0000
1909.00,0.0000
1908.00,0.0000
1907.00,0.0000
1906.00,0.0000
1905.00,0.0001
1904.00,0.0001
1903.00,0.0001
1902.00,0.0001
1901.00,0.0002
1900.00,0.0002
1899.00,0.0002
1898.00,0.0001
1897.00,0.0001
1896.00,0.0000
1895.00,0.0000
1894.00,0.0000
1893.00,0.0001
1892.00,0.0002
1891.00,0.0003
1890.00,0.0002
1889.00,0.0002
1888.00,0.0002
1887.00,0.0002
1886.00,0.0002
1885.00,0.0001
1884.00,0.0001
1883.00,0.0000
1882.00,-0.0001
1881.00,-0.0001
1880.00,-0.0001
1879.00,-0.0000
1878.00,0.0000
1877.00,0.0001
1876.00,0.0002
1875.00,0.0002
1874.00,0.0001
1873.00,0.0001
1872.00,0.0000
1871.00,-0.0000
1870.00,0.0000
1869.00,0.0001
1868.00,0.0002
1867.00,0.0002
1866.00,0.0002
1865.00,0.0001
1864.00,0.0001
1863.00,0.0001
1862.00,0.0001
1861.00,0.0001
1860.00,0.0001
1859.00,0.0002
1858.00,0.0002
1857.00,0.0003
1856.00,0.0003
1855.00,0.0003
1854.00,0.0003
1853.00,0.0002
1852.00,0.0003
1851.00,0.0003
1850.00,0.0003
1849.00,0.0003
1848.00,0.0003
1847.00,0.0004
1846.00,0.0005
1845.00,0.0005
1844.00,0.0006
1843.00,0.0005
1842.00,0.0005
1841.00,0.0005
1840.00,0.0005
1839.00,0.0006
1838.00,0.0006
1837.00,0.0007
1836.00,0.0006
1835.00,0.0006
1834.00,0.0005
1833.00,0.0005
1832.00,0.0005
1831.00,0.0005
1830.00,0.0005
1829.00,0.0005
1828.00,0.0005
1827.00,0.0005
1826.00,0.0005
1825.00,0.0005
1824.00,0.0005
1823.00,0.0005
1822.00,0.0005
1821.00,0.0004
1820.00,0.0003
1819.00,0.0002
1818.00,0.0002
1817.00,0.0001
1816.00,0.0001
1815.00,0.0002
1814.00,0.0003
1813.00,0.0004
1812.00,0.0005
1811.00,0.0005
1810.00,0.0006
1809.00,0.0006
1808.00,0.0006
1807.00,0.0006
1806.00,0.0006
1805.00,0.0006
1804.00,0.0006
1803.00,0.0007
1802.00,0.0007
1801.00,0.0008
1800.00,0.0008
1799.00,0.0008
1798.00,0.0008
1797.00,0.0008
1796.00,0.0008
1795.00,0.0008
1794.00,0.0008
1793.00,0.0008
1792.00,0.0008
1791.00,0.0008
1790.00,0.0008
1789.00,0.0008
1788.00,0.0008
1787.00,0.0008
1786.00,0.0008
1785.00,0.0009
1784.00,0.0009
1783.00,0.0010
1782.00,0.0010
1781.00,0.0010
1780.00,0.0011
1779.00,0.0011
1778.00,0.0011
1777.00,0.0010
1776.00,0.0010
1775.00,0.0010
1774.00,0.0010
1773.00,0.0010
1772.00,0.0010
1771.00,0.0010
1770.00,0.0010
1769.00,0.0011
1768.00,0.0012
1767.00,0.0012
1766.00,0.0012
1765.00,0.0013
1764.00,0.0013
1763.00,0.0014
1762.00,0.0014
1761.00,0.0014
1760.00,0.0014
1759.00,0.0014
1758.00,0.0014
1757.00,0.0015
1756.00,0.0016
1755.00,0.0017
1754.00,0.0018
1753.00,0.0018
1752.00,0.0019
1751.00,0.0020
1750.00,0.0021
1749.00,0.0022
1748.00,0.0023
1747.00,0.0023
1746.00,0.0022
1745.00,0.0022
1744.00,0.0022
1743.00,0.0022
1742.00,0.0022
1741.00,0.0022
1740.00,0.0022
1739.00,0.0022
1738.00,0.0022
1737.00,0.0022
1736.00,0.0022
1735.00,0.0022
1734.00,0.0022
1733.00,0.0021
1732.00,0.0021
1731.00,0.0020
1730.00,0.0020
1729.00,0.0020
1728.00,0.0021
1727.00,0.0022
1726.00,0.0022
1725.00,0.0022
1724.00,0.0022
1723.00,0.0023
1722.00,0.0023
1721.00,0.0023
1720.00,0.0023
1719.00,0.0022
1718.00,0.0021
1717.00,0.0021
1716.00,0.0021
1715.00,0.0022
1714.00,0.0022
1713.00,0.0021
1712.00,0.0021
1711.00,0.0021
1710.00,0.0021
1709.00,0.0022
1708.00,0.0023
1707.00,0.0023
1706.00,0.0024
1705.00,0.0024
1704.00,0.0024
1703.00,0.0024
1702.00,0.0024
1701.00,0.0025
1700.00,0.0025
1699.00,0.0026
1698.00,0.0026
1697.00,0.0026
1696.00,0.0026
1695.00,0.0027
1694.00,0.0027
1693.00,0.0027
1692.00,0.0028
1691.00,0.0028
1690.00,0.0028
1689.00,0.0028
1688.00,0.0028
1687.00,0.0029
1686.00,0.0029
1685.00,0.0029
1684.00,0.0029
1683.00,0.0029
1682.00,0.0029
1681.00,0.0030
1680.00,0.0030
1679.00,0.0031
1678.00,0.0031
1677.00,0.0032
1676.00,0.0032
1675.00,0.0032
1674.00,0.0033
1673.00,0.0033
1672.00,0.0033
1671.00,0.0033
1670.00,0.0033
1669.00,0.0034
1668.00,0.0034
1667.00,0.0035
1666.00,0.0035
1665.00,0.0035
1664.00,0.0036
1663.00,0.0036
1662.00,0.0036
1661.00,0.0037
1660.00,0.0038
1659.00,0.0038
1658.00,0.0039
1657.00,0.0039
1656.00,0.0040
1655.00,0.0041
1654.00,0.0041
1653.00,0.0042
1652.00,0.0042
1651.00,0.0042
1650.00,0.0042
1649.00,0.0043
1648.00,0.0043
1647.00,0.0044
1646.00,0.0044
1645.00,0.0045
1644.00,0.0046
1643.00,0.0047
1642.00,0.0047
1641.00,0.0047
1640.00,0.0048
1639.00,0.0049
1638.00,0.0049
1637.00,0.0050
1636.00,0.0052
1635.00,0.0052
1634.00,0.0052
1633.00,0.0052
1632.00,0.0052
1631.00,0.0052
1630.00,0.0052
1629.00,0.0052
1628.00,0.0052
1627.00,0.0051
1626.00,0.0051
1625.00,0.0050
1624.00,0.0050
1623.00,0.0049
1622.00,0.0049
1621.00,0.0049
1620.00,0.0049
1619.00,0.0049
1618.00,0.0048
1617.00,0.0047
1616.00,0.0047
1615.00,0.0047
1614.00,0.0047
1613.00,0.0047
1612.00,0.0047
1611.00,0.0047
1610.00,0.0046
1609.00,0.0046
1608.00,0.0046
1607.00,0.0046
1606.00,0.0047
1605.00,0.0047
1604.00,0.0048
1603.00,0.0048
1602.00,0.0048
1601.00,0.0049
1600.00,0.0049
1599.00,0.0050
1598.00,0.0050
1597.00,0.0051
1596.00,0.0052
1595.00,0.0052
1594.00,0.0053
1593.00,0.0054
1592.00,0.0056
1591.00,0.0058
1590.00,0.0060
1589.00,0.0063
1588.00,0.0066
1587.00,0.0070
1586.00,0.0074
1585.00,0.0079
1584.00,0.0085
1583.00,0.0092
1582.00,0.0099
1581.00,0.0106
1580.00,0.0113
1579.00,0.0117
1578.00,0.0120
1577.00,0.0120
1576.00,0.0118
1575.00,0.0115
1574.00,0.0111
1573.00,0.0107
1572.00,0.0103
1571.00,0.0098
1570.00,0.0092
1569.00,0.0086
1568.00,0.0082
1567.00,0.0079
1566.00,0.0077
1565.00,0.0074
1564.00,0.0072
1563.00,0.0070
1562.00,0.0069
1561.00,0.0069
1560.00,0.0068
1559.00,0.0067
1558.00,0.0068
1557.00,0.0070
1556.00,0.0071
1555.00,0.0073
1554.00,0.0074
1553.00,0.0077
1552.00,0.0079
1551.00,0.0083
1550.00,0.0087
1549.00,0.0091
1548.00,0.0097
1547.00,0.0103
1546.00,0.0110
1545.00,0.0118
1544.00,0.0127
1543.00,0.0134
1542.00,0.0140
1541.00,0.0142
1540.00,0.0139
1539.00,0.0132
1538.00,0.0124
1537.00,0.0118
1536.00,0.0112
1535.00,0.0105
1534.00,0.0096
1533.00,0.0088
1532.00,0.0081
1531.00,0.0077
1530.00,0.0074
1529.00,0.0072
1528.00,0.0071
1527.00,0.0069
1526.00,0.0067
1525.00,0.0066
1524.00,0.0065
1523.00,0.0065
1522.00,0.0064
1521.00,0.0065
1520.00,0.0066
1519.00,0.0066
1518.00,0.0066
1517.00,0.0066
1516.00,0.0067
1515.00,0.0067
1514.00,0.0067
1513.00,0.0068
1512.00,0.0069
1511.00,0.0069
1510.00,0.0070
1509.00,0.0072
1508.00,0.0074
1507.00,0.0074
1506.00,0.0074
1505.00,0.0075
1504.00,0.0076
1503.00,0.0078
1502.00,0.0080
1501.00,0.0083
1500.00,0.0086
1499.00,0.0088
1498.00,0.0090
1497.00,0.0093
1496.00,0.0096
1495.00,0.0099
1494.00,0.0101
1493.00,0.0104
1492.00,0.0108
1491.00,0.0113
1490.00,0.0117
1489.00,0.0124
1488.00,0.0132
1487.00,0.0139
1486.00,0.0146
1485.00,0.0155
1484.00,0.0165
1483.00,0.0176
1482.00,0.0189
1481.00,0.0204
1480.00,0.0220
1479.00,0.0236
1478.00,0.0255
1477.00,0.0278
1476.00,0.0306
1475.00,0.0337
1474.00,0.0378
1473.00,0.0433
1472.00,0.0497
1471.00,0.0558
1470.00,0.0618
1469.00,0.0681
1468.00,0.0750
1467.00,0.0825
1466.00,0.0910
1465.00,0.1000
1464.00,0.1078
1463.00,0.1131
1462.00,0.1164
1461.00,0.1185
1460.00,0.1199
1459.00,0.1206
1458.00,0.1212
1457.00,0.1216
1456.00,0.1215
1455.00,0.1208
1454.00,0.1195
1453.00,0.1177
1452.00,0.1149
1451.00,0.1111
1450.00,0.1060
1449.00,0.0990
1448.00,0.0902
1447.00,0.0809
1446.00,0.0725
1445.00,0.0653
1444.00,0.0591
1443.00,0.0541
1442.00,0.0503
1441.00,0.0477
1440.00,0.0461
1439.00,0.0454
1438.00,0.0455
1437.00,0.0456
1436.00,0.0447
1435.00,0.0424
1434.00,0.0390
1433.00,0.0349
1432.00,0.0306
1431.00,0.0268
1430.00,0.0238
1429.00,0.0215
1428.00,0.0199
1427.00,0.0189
1426.00,0.0183
1425.00,0.0177
1424.00,0.0172
1423.00,0.0169
1422.00,0.0167
1421.00,0.0164
1420.00,0.0161
1419.00,0.0157
1418.00,0.0154
1417.00,0.0150
1416.00,0.0147
1415.00,0.0144
1414.00,0.0142
1413.00,0.0140
1412.00,0.0137
1411.00,0.0136
1410.00,0.0134
1409.00,0.0133
1408.00,0.0131
1407.00,0.0130
1406.00,0.0130
1405.00,0.0128
1404.00,0.0127
1403.00,0.0127
1402.00,0.0128
1401.00,0.0128
1400.00,0.0129
1399.00,0.0130
1398.00,0.0132
1397.00,0.0134
1396.00,0.0135
1395.00,0.0138
1394.00,0.0143
1393.00,0.0147
1392.00,0.0152
1391.00,0.0160
1390.00,0.0170
1389.00,0.0183
1388.00,0.0204
1387.00,0.0235
1386.00,0.0278
1385.00,0.0334
1384.00,0.0412
1383.00,0.0522
1382.00,0.0668
1381.00,0.0856
1380.00,0.1086
1379.00,0.1343
1378.00,0.1586
1377.00,0.1756
1376.00,0.1803
1375.00,0.1702
1374.00,0.1482
1373.00,0.1223
1372.00,0.0987
1371.00,0.0795
1370.00,0.0643
1369.00,0.0528
1368.00,0.0449
1367.00,0.0400
1366.00,0.0373
1365.00,0.0362
1364.00,0.0363
1363.00,0.0374
1362.00,0.0392
1361.00,0.0412
1360.00,0.0428
1359.00,0.0432
1358.00,0.0422
1357.00,0.0398
1356.00,0.0365
1355.00,0.0328
1354.00,0.0292
1353.00,0.0262
1352.00,0.0237
1351.00,0.0216
1350.00,0.0199
1349.00,0.0184
1348.00,0.0172
1347.00,0.0163
1346.00,0.0154
1345.00,0.0147
1344.00,0.0141
1343.00,0.0136
1342.00,0.0132
1341.00,0.0129
1340.00,0.0127
1339.00,0.0125
1338.00,0.0124
1337.00,0.0123
1336.00,0.0124
1335.00,0.0125
1334.00,0.0128
1333.00,0.0131
1332.00,0.0135
1331.00,0.0138
1330.00,0.0139
1329.00,0.0138
1328.00,0.0135
1327.00,0.0131
1326.00,0.0125
1325.00,0.0119
1324.00,0.0114
1323.00,0.0109
1322.00,0.0106
1321.00,0.0103
1320.00,0.0101
1319.00,0.0099
1318.00,0.0097
1317.00,0.0096
1316.00,0.0094
1315.00,0.0093
1314.00,0.0093
1313.00,0.0093
1312.00,0.0094
1311.00,0.0096
1310.00,0.0100
1309.00,0.0107
1308.00,0.0116
1307.00,0.0128
1306.00,0.0139
1305.00,0.0147
1304.00,0.0149
1303.00,0.0146
1302.00,0.0140
1301.00,0.0134
1300.00,0.0131
1299.00,0.0130
1298.00,0.0130
1297.00,0.0130
1296.00,0.0129
1295.00,0.0126
1294.00,0.0121
1293.00,0.0116
1292.00,0.0111
1291.00,0.0106
1290.00,0.0102
1289.00,0.0099
1288.00,0.0096
1287.00,0.0094
1286.00,0.0092
1285.00,0.0090
1284.00,0.0088
1283.00,0.0087
1282.00,0.0086
1281.00,0.0085
1280.00,0.0084
1279.00,0.0084
1278.00,0.0083
1277.00,0.0083
1276.00,0.0082
1275.00,0.0082
1274.00,0.0082
1273.00,0.0082
1272.00,0.0082
1271.00,0.0083
1270.00,0.0085
1269.00,0.0086
1268.00,0.0088
1267.00,0.0091
1266.00,0.0094
1265.00,0.0097
1264.00,0.0100
1263.00,0.0103
1262.00,0.0106
1261.00,0.0111
1260.00,0.0116
1259.00,0.0122
1258.00,0.0129
1257.00,0.0135
1256.00,0.0138
1255.00,0.0136
1254.00,0.0130
1253.00,0.0121
1252.00,0.0113
1251.00,0.0106
1250.00,0.0101
1249.00,0.0097
1248.00,0.0094
1247.00,0.0092
1246.00,0.0090
1245.00,0.0088
1244.00,0.0087
1243.00,0.0087
1242.00,0.0086
1241.00,0.0086
1240.00,0.0085
1239.00,0.0085
1238.00,0.0085
1237.00,0.0085
1236.00,0.0085
1235.00,0.0085
1234.00,0.0085
1233.00,0.0086
1232.00,0.0086
1231.00,0.0088
1230.00,0.0089
1229.00,0.0091
1228.00,0.0093
1227.00,0.0095
1226.00,0.0097
1225.00,0.0099
1224.00,0.0102
1223.00,0.0106
1222.00,0.0109
1221.00,0.0111
1220.00,0.0112
1219.00,0.0113
1218.00,0.0113
1217.00,0.0111
1216.00,0.0109
1215.00,0.0106
1214.00,0.0103
1213.00,0.0100
1212.00,0.0097
1211.00,0.0095
1210.00,0.0093
1209.00,0.0093
1208.00,0.0092
1207.00,0.0091
1206.00,0.0091
1205.00,0.0091
1204.00,0.0090
1203.00,0.0090
1202.00,0.0090
1201.00,0.0090
1200.00,0.0091
1199.00,0.0091
1198.00,0.0092
1197.00,0.0092
1196.00,0.0092
1195.00,0.0093
1194.00,0.0094
1193.00,0.0094
1192.00,0.0094
1191.00,0.0094
1190.00,0.0094
1189.00,0.0094
1188.00,0.0094
1187.00,0.0094
1186.00,0.0094
1185.00,0.0094
1184.00,0.0095
1183.00,0.0097
1182.00,0.0099
1181.00,0.0101
1180.00,0.0104
1179.00,0.0109
1178.00,0.0115
1177.00,0.0123
1176.00,0.0134
1175.00,0.0149
1174.00,0.0168
1173.00,0.0193
1172.00,0.0224
1171.00,0.0258
1170.00,0.0290
1169.00,0.0316
1168.00,0.0330
1167.00,0.0332
1166.00,0.0323
1165.00,0.0307
1164.00,0.0288
1163.00,0.0269
1162.00,0.0253
1161.00,0.0240
1160.00,0.0229
1159.00,0.0222
1158.00,0.0217
1157.00,0.0213
1156.00,0.0210
1155.00,0.0207
1154.00,0.0205
1153.00,0.0202
1152.00,0.0198
1151.00,0.0191
1150.00,0.0182
1149.00,0.0172
1148.00,0.0162
1147.00,0.0152
1146.00,0.0143
1145.00,0.0134
1144.00,0.0127
1143.00,0.0120
1142.00,0.0115
1141.00,0.0110
1140.00,0.0106
1139.00,0.0102
1138.00,0.0100
1137.00,0.0097
1136.00,0.0095
1135.00,0.0094
1134.00,0.0092
1133.00,0.0090
1132.00,0.0089
1131.00,0.0088
1130.00,0.0088
1129.00,0.0089
1128.00,0.0089
1127.00,0.0089
1126.00,0.0088
1125.00,0.0087
1124.00,0.0087
1123.00,0.0087
1122.00,0.0087
1121.00,0.0087
1120.00,0.0086
1119.00,0.0086
1118.00,0.0087
1117.00,0.0088
1116.00,0.0090
1115.00,0.0091
1114.00,0.0093
1113.00,0.0095
1112.00,0.0097
1111.00,0.0100
1110.00,0.0103
1109.00,0.0106
1108.00,0.0109
1107.00,0.0115
1106.00,0.0121
1105.00,0.0126
1104.00,0.0130
1103.00,0.0132
1102.00,0.0131
1101.00,0.0127
1100.00,0.0121
1099.00,0.0115
1098.00,0.0109
1097.00,0.0103
1096.00,0.0099
1095.00,0.0096
1094.00,0.0094
1093.00,0.0092
1092.00,0.0090
1091.00,0.0088
1090.00,0.0086
1089.00,0.0084
1088.00,0.0083
1087.00,0.0082
1086.00,0.0081
1085.00,0.0081
1084.00,0.0083
1083.00,0.0084
1082.00,0.0085
1081.00,0.0084
1080.00,0.0083
1079.00,0.0081
1078.00,0.0079
1077.00,0.0078
1076.00,0.0077
1075.00,0.0076
1074.00,0.0075
1073.00,0.0074
1072.00,0.0073
1071.00,0.0074
1070.00,0.0075
1069.00,0.0075
1068.00,0.0074
1067.00,0.0074
1066.00,0.0074
1065.00,0.0074
1064.00,0.0075
1063.00,0.0076
1062.00,0.0077
1061.00,0.0077
1060.00,0.0077
1059.00,0.0077
1058.00,0.0078
1057.00,0.0079
1056.00,0.0080
1055.00,0.0081
1054.00,0.0081
1053.00,0.0082
1052.00,0.0083
1051.00,0.0085
1050.00,0.0087
1049.00,0.0090
1048.00,0.0092
1047.00,0.0095
1046.00,0.0098
1045.00,0.0099
1044.00,0.0099
1043.00,0.0098
1042.00,0.0096
1041.00,0.0094
1040.00,0.0094
1039.00,0.0095
1038.00,0.0096
1037.00,0.0097
1036.00,0.0097
1035.00,0.0095
1034.00,0.0092
1033.00,0.0089
1032.00,0.0085
1031.00,0.0083
1030.00,0.0082
1029.00,0.0081
1028.00,0.0081
1027.00,0.0081
1026.00,0.0081
1025.00,0.0081
1024.00,0.0081
1023.00,0.0082
1022.00,0.0083
1021.00,0.0084
1020.00,0.0086
1019.00,0.0088
1018.00,0.0089
1017.00,0.0090
1016.00,0.0093
1015.00,0.0096
1014.00,0.0101
1013.00,0.0104
1012.00,0.0107
1011.00,0.0109
1010.00,0.0110
1009.00,0.0113
1008.00,0.0116
1007.00,0.0121
1006.00,0.0129
1005.00,0.0140
1004.00,0.0156
1003.00,0.0180
1002.00,0.0212
1001.00,0.0251
1000.00,0.0293
999.00,0.0329
998.00,0.0347
997.00,0.0340
996.00,0.0312
995.00,0.0271
994.00,0.0229
993.00,0.0192
992.00,0.0163
991.00,0.0143
990.00,0.0129
989.00,0.0119
988.00,0.0113
987.00,0.0110
986.00,0.0110
985.00,0.0112
984.00,0.0116
983.00,0.0124
982.00,0.0134
981.00,0.0150
980.00,0.0173
979.00,0.0202
978.00,0.0240
977.00,0.0284
976.00,0.0333
975.00,0.0378
974.00,0.0412
973.00,0.0424
972.00,0.0409
971.00,0.0370
970.00,0.0318
969.00,0.0264
968.00,0.0218
967.00,0.0184
966.00,0.0159
965.00,0.0141
964.00,0.0128
963.00,0.0118
962.00,0.0109
961.00,0.0103
960.00,0.0098
959.00,0.0095
958.00,0.0092
957.00,0.0090
956.00,0.0088
955.00,0.0087
954.00,0.0086
953.00,0.0084
952.00,0.0082
951.00,0.0081
950.00,0.0080
949.00,0.0080
948.00,0.0080
947.00,0.0081
946.00,0.0082
945.00,0.0084
944.00,0.0087
943.00,0.0090
942.00,0.0093
941.00,0.0095
940.00,0.0095
939.00,0.0093
938.00,0.0090
937.00,0.0085
936.00,0.0080
935.00,0.0075
934.00,0.0070
933.00,0.0067
932.00,0.0065
931.00,0.0065
930.00,0.0065
929.00,0.0065
928.00,0.0064
927.00,0.0063
926.00,0.0061
925.00,0.0061
924.00,0.0060
923.00,0.0060
922.00,0.0060
921.00,0.0059
920.00,0.0058
919.00,0.0059
918.00,0.0061
917.00,0.0062
916.00,0.0063
915.00,0.0064
914.00,0.0064
913.00,0.0064
912.00,0.0064
911.00,0.0064
910.00,0.0066
909.00,0.0069
908.00,0.0073
907.00,0.0078
906.00,0.0086
905.00,0.0096
904.00,0.0109
903.00,0.0126
902.00,0.0143
901.00,0.0159
900.00,0.0169
899.00,0.0171
898.00,0.0165
897.00,0.0151
896.00,0.0133
895.00,0.0115
894.00,0.0101
893.00,0.0092
892.00,0.0085
891.00,0.0081
890.00,0.0077
889.00,0.0075
888.00,0.0074
887.00,0.0073
886.00,0.0073
885.00,0.0072
884.00,0.0072
883.00,0.0072
882.00,0.0073
881.00,0.0075
880.00,0.0077
879.00,0.0079
878.00,0.0080
877.00,0.0081
876.00,0.0082
875.00,0.0082
874.00,0.0081
873.00,0.0080
872.00,0.0078
871.00,0.0077
870.00,0.0076
869.00,0.0076
868.00,0.0077
867.00,0.0077
866.00,0.0078
865.00,0.0079
864.00,0.0080
863.00,0.0081
862.00,0.0081
861.00,0.0082
860.00,0.0083
859.00,0.0085
858.00,0.0087
857.00,0.0088
856.00,0.0090
855.00,0.0091
854.00,0.0093
853.00,0.0094
852.00,0.0097
851.00,0.0100
850.00,0.0106
849.00,0.0113
848.00,0.0123
847.00,0.0138
846.00,0.0160
845.00,0.0193
844.00,0.0240
843.00,0.0295
842.00,0.0340
841.00,0.0355
840.00,0.0331
839.00,0.0281
838.00,0.0226
837.00,0.0182
836.00,0.0154
835.00,0.0138
834.00,0.0129
833.00,0.0122
832.00,0.0117
831.00,0.0112
830.00,0.0109
829.00,0.0108
828.00,0.0108
827.00,0.0107
826.00,0.0107
825.00,0.0106
824.00,0.0105
823.00,0.0104
822.00,0.0104
821.00,0.0105
820.00,0.0107
819.00,0.0109
818.00,0.0113
817.00,0.0118
816.00,0.0126
815.00,0.0137
814.00,0.0151
813.00,0.0167
812.00,0.0186
811.00,0.0203
810.00,0.0216
809.00,0.0221
808.00,0.0217
807.00,0.0205
806.00,0.0189
805.00,0.0172
804.00,0.0157
803.00,0.0143
802.00,0.0134
801.00,0.0127
800.00,0.0121
799.00,0.0116
798.00,0.0110
797.00,0.0106
796.00,0.0102
795.00,0.0098
794.00,0.0095
793.00,0.0092
792.00,0.0088
791.00,0.0086
790.00,0.0084
789.00,0.0083
788.00,0.0081
787.00,0.0079
786.00,0.0078
785.00,0.0076
784.00,0.0073
783.00,0.0070
782.00,0.0067
781.00,0.0066
780.00,0.0065
779.00,0.0064
778.00,0.0064
777.00,0.0064
776.00,0.0063
775.00,0.0064
774.00,0.0066
773.00,0.0067
772.00,0.0068
771.00,0.0068
770.00,0.0068
769.00,0.0069
768.00,0.0070
767.00,0.0070
766.00,0.0071
765.00,0.0070
764.00,0.0070
763.00,0.0069
762.00,0.0069
761.00,0.0070
760.00,0.0071
759.00,0.0072
758.00,0.0072
757.00,0.0072
756.00,0.0072
755.00,0.0073
754.00,0.0074
753.00,0.0075
752.00,0.0078
751.00,0.0080
750.00,0.0082
749.00,0.0083
748.00,0.0084
747.00,0.0084
746.00,0.0086
745.00,0.0086
744.00,0.0087
743.00,0.0089
742.00,0.0092
741.00,0.0096
740.00,0.0100
739.00,0.0103
738.00,0.0106
737.00,0.0110
736.00,0.0113
735.00,0.0117
734.00,0.0123
733.00,0.0130
732.00,0.0139
731.00,0.0147
730.00,0.0153
729.00,0.0157
728.00,0.0160
727.00,0.0162
726.00,0.0165
725.00,0.0170
724.00,0.0175
723.00,0.0181
722.00,0.0187
721.00,0.0190
720.00,0.0188
719.00,0.0180
718.00,0.0167
717.00,0.0152
716.00,0.0139
715.00,0.0130
714.00,0.0122
713.00,0.0117
712.00,0.0113
711.00,0.0110
710.00,0.0109
709.00,0.0107
708.00,0.0105
707.00,0.0103
706.00,0.0102
705.00,0.0101
704.00,0.0101
703.00,0.0101
702.00,0.0100
701.00,0.0098
700.00,0.0095
699.00,0.0092
698.00,0.0092
697.00,0.0092
696.00,0.0092
695.00,0.0091
694.00,0.0090
693.00,0.0090
692.00,0.0091
691.00,0.0093
690.00,0.0094
689.00,0.0096
688.00,0.0098
687.00,0.0099
686.00,0.0100
685.00,0.0100
684.00,0.0100
683.00,0.0101
682.00,0.0101
681.00,0.0100
680.00,0.0097
679.00,0.0094
678.00,0.0092
677.00,0.0091
676.00,0.0092
675.00,0.0095
674.00,0.0097
673.00,0.0099
672.00,0.0098
671.00,0.0096
670.00,0.0095
669.00,0.0094
668.00,0.0094
667.00,0.0094
666.00,0.0094
665.00,0.0093
664.00,0.0092
663.00,0.0091
662.00,0.0090
661.00,0.0089
660.00,0.0088
659.00,0.0086
658.00,0.0085
657.00,0.0085
656.00,0.0085
655.00,0.0085
654.00,0.0084
653.00,0.0082
652.00,0.0080
651.00,0.0079
650.00,0.0079
649.00,0.0079
648.00,0.0080
647.00,0.0081
646.00,0.0082
645.00,0.0083
644.00,0.0084
643.00,0.0083
642.00,0.0083
641.00,0.0082
640.00,0.0082
639.00,0.0082
638.00,0.0083
637.00,0.0084
636.00,0.0084
635.00,0.0084
634.00,0.0084
633.00,0.0083
632.00,0.0083
631.00,0.0084
630.00,0.0084
629.00,0.0085
628.00,0.0085
627.00,0.0085
626.00,0.0086
625.00,0.0086
624.00,0.0086
623.00,0.0085
622.00,0.0085
621.00,0.0087
620.00,0.0088
619.00,0.0090
618.00,0.0090
617.00,0.0088
616.00,0.0087
615.00,0.0087
614.00,0.0088
613.00,0.0089
612.00,0.0091
611.00,0.0091
610.00,0.0090
609.00,0.0087
608.00,0.0085
607.00,0.0084
606.00,0.0082
605.00,0.0079
604.00,0.0078
603.00,0.0079
602.00,0.0082
601.00,0.0086
600.00,0.0088
599.00,0.0088
598.00,0.0087
597.00,0.0085
596.00,0.0083
595.00,0.0081
594.00,0.0080
593.00,0.0079
592.00,0.0080
591.00,0.0083
590.00,0.0087
589.00,0.0089
588.00,0.0089
587.00,0.0087
586.00,0.0085
585.00,0.0083
584.00,0.0083
583.00,0.0085
582.00,0.0087
581.00,0.0088
580.00,0.0087
579.00,0.0086
578.00,0.0085
577.00,0.0087
576.00,0.0089
575.00,0.0092
574.00,0.0091
573.00,0.0088
572.00,0.0085
571.00,0.0083
570.00,0.0083
569.00,0.0085
568.00,0.0087
567.00,0.0088
566.00,0.0088
565.00,0.0086
564.00,0.0084
563.00,0.0083
562.00,0.0082
561.00,0.0081
560.00,0.0080
559.00,0.0081
558.00,0.0083
557.00,0.0087
556.00,0.0090
555.00,0.0093
554.00,0.0095
553.00,0.0096
552.00,0.0096
551.00,0.0094
550.00,0.0091
549.00,0.0087
548.00,0.0085
547.00,0.0084
546.00,0.0085
545.00,0.0086
544.00,0.0090
543.00,0.0094
542.00,0.0099
541.00,0.0101
540.00,0.0101
539.00,0.0099
538.00,0.0098
537.00,0.0098
536.00,0.0099
535.00,0.0100
534.00,0.0101
533.00,0.0101
532.00,0.0101
531.00,0.0103
530.00,0.0106
529.00,0.0108
528.00,0.0104
527.00,0.0094
526.00,0.0084
525.00,0.0077
524.00,0.0075
523.00,0.0078
522.00,0.0083
521.00,0.0089
520.00,0.0095
519.00,0.0100
518.00,0.0102
517.00,0.0098
516.00,0.0092
515.00,0.0086
514.00,0.0085
513.00,0.0089
512.00,0.0094
511.00,0.0096
510.00,0.0093
509.00,0.0086
508.00,0.0080
507.00,0.0078
506.00,0.0082
505.00,0.0087
504.00,0.0089
503.00,0.0086
502.00,0.0081
501.00,0.0075
500.00,0.0072
499.00,0.0072
498.00,0.0075
497.00,0.0079
496.00,0.0081
495.00,0.0082
494.00,0.0083
493.00,0.0086
492.00,0.0086
491.00,0.0082
490.00,0.0073
489.00,0.0065
488.00,0.0063
487.00,0.0068
486.00,0.0076
485.00,0.0080
484.00,0.0076
483.00,0.0070
482.00,0.0068
481.00,0.0069
480.00,0.0071
479.00,0.0072
478.00,0.0075
477.00,0.0079
476.00,0.0081
475.00,0.0083
474.00,0.0085
473.00,0.0091
472.00,0.0096
471.00,0.0099
470.00,0.0103
469.00,0.0107
468.00,0.0109
467.00,0.0105
466.00,0.0098
465.00,0.0093
464.00,0.0093
463.00,0.0100
462.00,0.0112
461.00,0.0129
460.00,0.0144
459.00,0.0152
458.00,0.0145
457.00,0.0129
456.00,0.0115
455.00,0.0109
454.00,0.0110
453.00,0.0113
452.00,0.0109
451.00,0.0099
450.00,0.0091
