Created as New Dataset,Sample 093 By Administrator Date Wednesday, September 03 2025
cm-1,A
4000.00,0.0012
3999.00,0.0012
3998.00,0.0012
3997.00,0.0012
3996.00,0.0012
3995.00,0.0012
3994.00,0.0012
3993.00,0.0012
3992.00,0.0012
3991.00,0.0012
3990.00,0.0012
3989.00,0.0011
3988.00,0.0011
3987.00,0.0011
3986.00,0.0011
3985.00,0.0011
3984.00,0.0011
3983.00,0.0011
3982.00,0.0012
3981.00,0.0011
3980.00,0.0011
3979.00,0.0011
3978.00,0.0010
3977.00,0.0010
3976.00,0.0010
3975.00,0.0010
3974.00,0.0011
3973.00,0.0011
3972.00,0.0011
3971.00,0.0011
3970.00,0.0011
3969.00,0.0011
3968.00,0.0010
3967.00,0.0010
3966.00,0.0010
3965.00,0.0010
3964.00,0.0011
3963.00,0.0011
3962.00,0.0011
3961.00,0.0010
3960.00,0.0010
3959.00,0.0009
3958.00,0.0010
3957.00,0.0010
3956.00,0.0010
3955.00,0.0011
3954.00,0.0011
3953.00,0.0010
3952.00,0.0010
3951.00,0.0010
3950.00,0.0009
3949.00,0.0010
3948.00,0.0010
3947.00,0.0010
3946.00,0.0010
3945.00,0.0010
3944.00,0.0010
3943.00,0.0010
3942.00,0.0010
3941.00,0.0010
3940.00,0.0010
3939.00,0.0010
3938.00,0.0010
3937.00,0.0010
3936.00,0.0010
3935.00,0.0010
3934.00,0.0010
3933.00,0.0010
3932.00,0.0010
3931.00,0.0011
3930.00,0.0011
3929.00,0.0011
3928.00,0.0011
3927.00,0.0011
3926.00,0.0011
3925.00,0.0011
3924.00,0.0011
3923.00,0.0011
3922.00,0.0011
3921.00,0.0010
3920.00,0.0010
3919.00,0.0010
3918.00,0.0011
3917.00,0.0011
3916.00,0.0011
3915.00,0.0011
3914.00,0.0011
3913.00,0.0011
3912.00,0.0010
3911.00,0.0010
3910.00,0.0010
3909.00,0.0010
3908.00,0.0010
3907.00,0.0010
3906.00,0.0009
3905.00,0.0009
3904.00,0.0010
3903.00,0.0010
3902.00,0.0010
3901.00,0.0010
3900.00,0.0010
3899.00,0.0010
3898.00,0.0010
3897.00,0.0010
3896.00,0.0011
3895.00,0.0011
3894.00,0.0011
3893.00,0.0011
3892.00,0.0011
3891.00,0.0010
3890.00,0.0010
3889.00,0.0010
3888.00,0.0009
3887.00,0.0009
3886.00,0.0009
3885.00,0.0009
3884.00,0.0010
3883.00,0.0009
3882.00,0.0009
3881.00,0.0010
3880.00,0.0010
3879.00,0.0010
3878.00,0.0010
3877.00,0.0010
3876.00,0.0010
3875.00,0.0010
3874.00,0.0010
3873.00,0.0010
3872.00,0.0009
3871.00,0.0009
3870.00,0.0009
3869.00,0.0009
3868.00,0.0009
3867.00,0.0008
3866.00,0.0008
3865.00,0.0009
3864.00,0.0009
3863.00,0.0009
3862.00,0.0009
3861.00,0.0009
3860.00,0.0010
3859.00,0.0010
3858.00,0.0010
3857.00,0.0010
3856.00,0.0010
3855.00,0.0010
3854.00,0.0010
3853.00,0.0010
3852.00,0.0010
3851.00,0.0010
3850.00,0.0010
3849.00,0.0010
3848.00,0.0010
3847.00,0.0010
3846.00,0.0010
3845.00,0.0010
3844.00,0.0010
3843.00,0.0010
3842.00,0.0010
3841.00,0.0010
3840.00,0.0010
3839.00,0.0010
3838.00,0.0010
3837.00,0.0010
3836.00,0.0010
3835.00,0.0010
3834.00,0.0010
3833.00,0.0010
3832.00,0.0010
3831.00,0.0010
3830.00,0.0010
3829.00,0.0010
3828.00,0.0010
3827.00,0.0010
3826.00,0.0010
3825.00,0.0010
3824.00,0.0009
3823.00,0.0009
3822.00,0.0009
3821.00,0.0010
3820.00,0.0010
3819.00,0.0010
3818.00,0.0009
3817.00,0.0009
3816.00,0.0009
3815.00,0.0009
3814.00,0.0009
3813.00,0.0009
3812.00,0.0009
3811.00,0.0010
3810.00,0.0010
3809.00,0.0009
3808.00,0.0009
3807.00,0.0010
3806.00,0.0010
3805.00,0.0010
3804.00,0.0010
3803.00,0.0010
3802.00,0.0009
3801.00,0.0009
3800.00,0.0009
3799.00,0.0009
3798.00,0.0009
3797.00,0.0009
3796.00,0.0009
3795.00,0.0010
3794.00,0.0010
3793.00,0.0010
3792.00,0.0009
3791.00,0.0009
3790.00,0.0010
3789.00,0.0010
3788.00,0.0010
3787.00,0.0010
3786.00,0.0010
3785.00,0.0010
3784.00,0.0009
3783.00,0.0009
3782.00,0.0009
3781.00,0.0009
3780.00,0.0010
3779.00,0.0010
3778.00,0.0010
3777.00,0.0010
3776.00,0.0010
3775.00,0.0010
3774.00,0.0010
3773.00,0.0010
3772.00,0.0010
3771.00,0.0009
3770.00,0.0010
3769.00,0.0010
3768.00,0.0010
3767.00,0.0010
3766.00,0.0010
3765.00,0.0010
3764.00,0.0011
3763.00,0.0011
3762.00,0.0011
3761.00,0.0011
3760.00,0.0011
3759.00,0.0010
3758.00,0.0010
3757.00,0.0010
3756.00,0.0010
3755.00,0.0010
3754.00,0.0010
3753.00,0.0010
3752.00,0.0010
3751.00,0.0010
3750.00,0.0010
3749.00,0.0010
3748.00,0.0009
3747.00,0.0009
3746.00,0.0008
3745.00,0.0007
3744.00,0.0007
3743.00,0.0008
3742.00,0.0008
3741.00,0.0008
3740.00,0.0008
3739.00,0.0008
3738.00,0.0009
3737.00,0.0009
3736.00,0.0010
3735.00,0.0010
3734.00,0.0009
3733.00,0.0008
3732.00,0.0008
3731.00,0.0007
3730.00,0.0008
3729.00,0.0008
3728.00,0.0008
3727.00,0.0008
3726.00,0.0008
3725.00,0.0008
3724.00,0.0008
3723.00,0.0008
3722.00,0.0009
3721.00,0.0009
3720.00,0.0009
3719.00,0.0009
3718.00,0.0009
3717.00,0.0009
3716.00,0.0009
3715.00,0.0009
3714.00,0.0008
3713.00,0.0008
3712.00,0.0007
3711.00,0.0008
3710.00,0.0008
3709.00,0.0008
3708.00,0.0008
3707.00,0.0008
3706.00,0.0008
3705.00,0.0008
3704.00,0.0008
3703.00,0.0008
3702.00,0.0008
3701.00,0.0007
3700.00,0.0007
3699.00,0.0007
3698.00,0.0007
3697.00,0.0007
3696.00,0.0008
3695.00,0.0008
3694.00,0.0009
3693.00,0.0008
3692.00,0.0008
3691.00,0.0008
3690.00,0.0008
3689.00,0.0008
3688.00,0.0008
3687.00,0.0008
3686.00,0.0008
3685.00,0.0009
3684.00,0.0009
3683.00,0.0009
3682.00,0.0009
3681.00,0.0009
3680.00,0.0009
3679.00,0.0009
3678.00,0.0009
3677.00,0.0009
3676.00,0.0009
3675.00,0.0009
3674.00,0.0009
3673.00,0.0009
3672.00,0.0009
3671.00,0.0008
3670.00,0.0007
3669.00,0.0007
3668.00,0.0008
3667.00,0.0008
3666.00,0.0008
3665.00,0.0008
3664.00,0.0008
3663.00,0.0008
3662.00,0.0007
3661.00,0.0007
3660.00,0.0007
3659.00,0.0006
3658.00,0.0006
3657.00,0.0007
3656.00,0.0007
3655.00,0.0008
3654.00,0.0008
3653.00,0.0008
3652.00,0.0009
3651.00,0.0009
3650.00,0.0009
3649.00,0.0009
3648.00,0.0008
3647.00,0.0008
3646.00,0.0009
3645.00,0.0009
3644.00,0.0009
3643.00,0.0010
3642.00,0.0010
3641.00,0.0010
3640.00,0.0009
3639.00,0.0009
3638.00,0.0009
3637.00,0.0009
3636.00,0.0009
3635.00,0.0009
3634.00,0.0010
3633.00,0.0010
3632.00,0.0010
3631.00,0.0010
3630.00,0.0010
3629.00,0.0010
3628.00,0.0010
3627.00,0.0010
3626.00,0.0009
3625.00,0.0010
3624.00,0.0010
3623.00,0.0010
3622.00,0.0010
3621.00,0.0010
3620.00,0.0010
3619.00,0.0010
3618.00,0.0011
3617.00,0.0011
3616.00,0.0012
3615.00,0.0012
3614.00,0.0012
3613.00,0.0012
3612.00,0.0011
3611.00,0.0011
3610.00,0.0010
3609.00,0.0011
3608.00,0.0011
3607.00,0.0012
3606.00,0.0013
3605.00,0.0014
3604.00,0.0014
3603.00,0.0014
3602.00,0.0014
3601.00,0.0015
3600.00,0.0015
3599.00,0.0015
3598.00,0.0015
3597.00,0.0015
3596.00,0.0015
3595.00,0.0015
3594.00,0.0015
3593.00,0.0016
3592.00,0.0016
3591.00,0.0016
3590.00,0.0016
3589.00,0.0016
3588.00,0.0016
3587.00,0.0016
3586.00,0.0017
3585.00,0.0017
3584.00,0.0017
3583.00,0.0017
3582.00,0.0017
3581.00,0.0018
3580.00,0.0018
3579.00,0.0019
3578.00,0.0019
3577.00,0.0020
3576.00,0.0020
3575.00,0.0019
3574.00,0.0019
3573.00,0.0019
3572.00,0.0019
3571.00,0.0020
3570.00,0.0020
3569.00,0.0021
3568.00,0.0021
3567.00,0.0022
3566.00,0.0022
3565.00,0.0022
3564.00,0.0022
3563.00,0.0022
3562.00,0.0022
3561.00,0.0023
3560.00,0.0023
3559.00,0.0024
3558.00,0.0024
3557.00,0.0023
3556.00,0.0023
3555.00,0.0023
3554.00,0.0024
3553.00,0.0024
3552.00,0.0024
3551.00,0.0025
3550.00,0.0025
3549.00,0.0026
3548.00,0.0026
3547.00,0.0027
3546.00,0.0027
3545.00,0.0027
3544.00,0.0028
3543.00,0.0028
3542.00,0.0028
3541.00,0.0028
3540.00,0.0028
3539.00,0.0028
3538.00,0.0028
3537.00,0.0029
3536.00,0.0029
3535.00,0.0029
3534.00,0.0030
3533.00,0.0030
3532.00,0.0030
3531.00,0.0031
3530.00,0.0031
3529.00,0.0031
3528.00,0.0031
3527.00,0.0031
3526.00,0.0032
3525.00,0.0032
3524.00,0.0032
3523.00,0.0033
3522.00,0.0033
3521.00,0.0033
3520.00,0.0033
3519.00,0.0033
3518.00,0.0034
3517.00,0.0034
3516.00,0.0034
3515.00,0.0034
3514.00,0.0034
3513.00,0.0035
3512.00,0.0035
3511.00,0.0036
3510.00,0.0036
3509.00,0.0036
3508.00,0.0036
3507.00,0.0036
3506.00,0.0036
3505.00,0.0037
3504.00,0.0037
3503.00,0.0038
3502.00,0.0038
3501.00,0.0039
3500.00,0.0039
3499.00,0.0039
3498.00,0.0040
3497.00,0.0040
3496.00,0.0040
3495.00,0.0040
3494.00,0.0040
3493.00,0.0041
3492.00,0.0041
3491.00,0.0041
3490.00,0.0041
3489.00,0.0042
3488.00,0.0042
3487.00,0.0043
3486.00,0.0043
3485.00,0.0043
3484.00,0.0043
3483.00,0.0043
3482.00,0.0044
3481.00,0.0044
3480.00,0.0044
3479.00,0.0044
3478.00,0.0045
3477.00,0.0045
3476.00,0.0045
3475.00,0.0046
3474.00,0.0046
3473.00,0.0046
3472.00,0.0046
3471.00,0.0046
3470.00,0.0047
3469.00,0.0047
3468.00,0.0048
3467.00,0.0048
3466.00,0.0049
3465.00,0.0049
3464.00,0.0050
3463.00,0.0050
3462.00,0.0051
3461.00,0.0051
3460.00,0.0051
3459.00,0.0051
3458.00,0.0051
3457.00,0.0052
3456.00,0.0052
3455.00,0.0052
3454.00,0.0053
3453.00,0.0053
3452.00,0.0053
3451.00,0.0053
3450.00,0.0053
3449.00,0.0054
3448.00,0.0054
3447.00,0.0054
3446.00,0.0055
3445.00,0.0055
3444.00,0.0055
3443.00,0.0055
3442.00,0.0056
3441.00,0.0056
3440.00,0.0057
3439.00,0.0057
3438.00,0.0058
3437.00,0.0058
3436.00,0.0059
3435.00,0.0059
3434.00,0.0059
3433.00,0.0060
3432.00,0.0060
3431.00,0.0060
3430.00,0.0061
3429.00,0.0061
3428.00,0.0061
3427.00,0.0062
3426.00,0.0062
3425.00,0.0062
3424.00,0.0063
3423.00,0.0063
3422.00,0.0064
3421.00,0.0064
3420.00,0.0065
3419.00,0.0065
3418.00,0.0066
3417.00,0.0066
3416.00,0.0067
3415.00,0.0067
3414.00,0.0067
3413.00,0.0067
3412.00,0.0068
3411.00,0.0068
3410.00,0.0068
3409.00,0.0068
3408.00,0.0069
3407.00,0.0069
3406.00,0.0070
3405.00,0.0070
3404.00,0.0070
3403.00,0.0070
3402.00,0.0070
3401.00,0.0070
3400.00,0.0070
3399.00,0.0070
3398.00,0.0070
3397.00,0.0070
3396.00,0.0070
3395.00,0.0070
3394.00,0.0070
3393.00,0.0071
3392.00,0.0071
3391.00,0.0071
3390.00,0.0071
3389.00,0.0071
3388.00,0.0071
3387.00,0.0072
3386.00,0.0072
3385.00,0.0072
3384.00,0.0073
3383.00,0.0073
3382.00,0.0073
3381.00,0.0073
3380.00,0.0074
3379.00,0.0074
3378.00,0.0074
3377.00,0.0075
3376.00,0.0075
3375.00,0.0074
3374.00,0.0075
3373.00,0.0075
3372.00,0.0075
3371.00,0.0076
3370.00,0.0076
3369.00,0.0076
3368.00,0.0076
3367.00,0.0076
3366.00,0.0076
3365.00,0.0076
3364.00,0.0076
3363.00,0.0077
3362.00,0.0078
3361.00,0.0079
3360.00,0.0079
3359.00,0.0080
3358.00,0.0080
3357.00,0.0080
3356.00,0.0080
3355.00,0.0080
3354.00,0.0081
3353.00,0.0081
3352.00,0.0081
3351.00,0.0082
3350.00,0.0082
3349.00,0.0083
3348.00,0.0083
3347.00,0.0083
3346.00,0.0083
3345.00,0.0083
3344.00,0.0083
3343.00,0.0083
3342.00,0.0083
3341.00,0.0083
3340.00,0.0083
3339.00,0.0083
3338.00,0.0084
3337.00,0.0084
3336.00,0.0084
3335.00,0.0084
3334.00,0.0084
3333.00,0.0083
3332.00,0.0083
3331.00,0.0083
3330.00,0.0082
3329.00,0.0081
3328.00,0.0081
3327.00,0.0080
3326.00,0.0080
3325.00,0.0080
3324.00,0.0080
3323.00,0.0080
3322.00,0.0079
3321.00,0.0079
3320.00,0.0079
3319.00,0.0079
3318.00,0.0078
3317.00,0.0078
3316.00,0.0078
3315.00,0.0078
3314.00,0.0078
3313.00,0.0078
3312.00,0.0078
3311.00,0.0078
3310.00,0.0079
3309.00,0.0079
3308.00,0.0080
3307.00,0.0080
3306.00,0.0080
3305.00,0.0080
3304.00,0.0080
3303.00,0.0080
3302.00,0.0081
3301.00,0.0081
3300.00,0.0080
3299.00,0.0080
3298.00,0.0079
3297.00,0.0079
3296.00,0.0079
3295.00,0.0079
3294.00,0.0079
3293.00,0.0079
3292.00,0.0079
3291.00,0.0079
3290.00,0.0079
3289.00,0.0078
3288.00,0.0077
3287.00,0.0077
3286.00,0.0077
3285.00,0.0077
3284.00,0.0077
3283.00,0.0077
3282.00,0.0077
3281.00,0.0076
3280.00,0.0076
3279.00,0.0075
3278.00,0.0075
3277.00,0.0075
3276.00,0.0075
3275.00,0.0074
3274.00,0.0074
3273.00,0.0073
3272.00,0.0073
3271.00,0.0073
3270.00,0.0072
3269.00,0.0072
3268.00,0.0072
3267.00,0.0071
3266.00,0.0071
3265.00,0.0070
3264.00,0.0069
3263.00,0.0068
3262.00,0.0068
3261.00,0.0068
3260.00,0.0068
3259.00,0.0068
3258.00,0.0067
3257.00,0.0067
3256.00,0.0066
3255.00,0.0066
3254.00,0.0065
3253.00,0.0064
3252.00,0.0064
3251.00,0.0063
3250.00,0.0063
3249.00,0.0063
3248.00,0.0063
3247.00,0.0062
3246.00,0.0062
3245.00,0.0062
3244.00,0.0061
3243.00,0.0061
3242.00,0.0061
3241.00,0.0061
3240.00,0.0061
3239.00,0.0061
3238.00,0.0060
3237.00,0.0060
3236.00,0.0060
3235.00,0.0060
3234.00,0.0059
3233.00,0.0059
3232.00,0.0059
3231.00,0.0059
3230.00,0.0059
3229.00,0.0059
3228.00,0.0059
3227.00,0.0059
3226.00,0.0059
3225.00,0.0059
3224.00,0.0059
3223.00,0.0059
3222.00,0.0058
3221.00,0.0058
3220.00,0.0058
3219.00,0.0058
3218.00,0.0058
3217.00,0.0058
3216.00,0.0058
3215.00,0.0058
3214.00,0.0058
3213.00,0.0058
3212.00,0.0058
3211.00,0.0058
3210.00,0.0058
3209.00,0.0057
3208.00,0.0057
3207.00,0.0057
3206.00,0.0057
3205.00,0.0057
3204.00,0.0057
3203.00,0.0057
3202.00,0.0057
3201.00,0.0057
3200.00,0.0057
3199.00,0.0056
3198.00,0.0056
3197.00,0.0056
3196.00,0.0055
3195.00,0.0055
3194.00,0.0055
3193.00,0.0055
3192.00,0.0055
3191.00,0.0055
3190.00,0.0055
3189.00,0.0055
3188.00,0.0054
3187.00,0.0054
3186.00,0.0053
3185.00,0.0053
3184.00,0.0052
3183.00,0.0052
3182.00,0.0052
3181.00,0.0051
3180.00,0.0051
3179.00,0.0052
3178.00,0.0052
3177.00,0.0052
3176.00,0.0051
3175.00,0.0050
3174.00,0.0050
3173.00,0.0049
3172.00,0.0049
3171.00,0.0049
3170.00,0.0049
3169.00,0.0049
3168.00,0.0049
3167.00,0.0049
3166.00,0.0049
3165.00,0.0049
3164.00,0.0049
3163.00,0.0049
3162.00,0.0048
3161.00,0.0048
3160.00,0.0048
3159.00,0.0048
3158.00,0.0047
3157.00,0.0047
3156.00,0.0047
3155.00,0.0047
3154.00,0.0047
3153.00,0.0047
3152.00,0.0047
3151.00,0.0047
3150.00,0.0047
3149.00,0.0047
3148.00,0.0047
3147.00,0.0047
3146.00,0.0047
3145.00,0.0046
3144.00,0.0046
3143.00,0.0046
3142.00,0.0046
3141.00,0.0045
3140.00,0.0045
3139.00,0.0044
3138.00,0.0044
3137.00,0.0044
3136.00,0.0044
3135.00,0.0044
3134.00,0.0044
3133.00,0.0044
3132.00,0.0044
3131.00,0.0043
3130.00,0.0043
3129.00,0.0043
3128.00,0.0043
3127.00,0.0042
3126.00,0.0042
3125.00,0.0041
3124.00,0.0041
3123.00,0.0040
3122.00,0.0040
3121.00,0.0040
3120.00,0.0040
3119.00,0.0040
3118.00,0.0040
3117.00,0.0040
3116.00,0.0039
3115.00,0.0039
3114.00,0.0038
3113.00,0.0038
3112.00,0.0037
3111.00,0.0038
3110.00,0.0038
3109.00,0.0037
3108.00,0.0037
3107.00,0.0037
3106.00,0.0037
3105.00,0.0037
3104.00,0.0037
3103.00,0.0038
3102.00,0.0037
3101.00,0.0037
3100.00,0.0037
3099.00,0.0037
3098.00,0.0036
3097.00,0.0036
3096.00,0.0036
3095.00,0.0036
3094.00,0.0036
3093.00,0.0036
3092.00,0.0037
3091.00,0.0037
3090.00,0.0037
3089.00,0.0037
3088.00,0.0037
3087.00,0.0037
3086.00,0.0036
3085.00,0.0036
3084.00,0.0036
3083.00,0.0036
3082.00,0.0036
3081.00,0.0036
3080.00,0.0036
3079.00,0.0036
3078.00,0.0036
3077.00,0.0036
3076.00,0.0037
3075.00,0.0037
3074.00,0.0037
3073.00,0.0037
3072.00,0.0037
3071.00,0.0037
3070.00,0.0037
3069.00,0.0037
3068.00,0.0037
3067.00,0.0037
3066.00,0.0037
3065.00,0.0037
3064.00,0.0037
3063.00,0.0037
3062.00,0.0038
3061.00,0.0038
3060.00,0.0038
3059.00,0.0038
3058.00,0.0038
3057.00,0.0038
3056.00,0.0038
3055.00,0.0038
3054.00,0.0038
3053.00,0.0038
3052.00,0.0039
3051.00,0.0039
3050.00,0.0039
3049.00,0.0039
3048.00,0.0039
3047.00,0.0040
3046.00,0.0040
3045.00,0.0040
3044.00,0.0040
3043.00,0.0040
3042.00,0.0040
3041.00,0.0041
3040.00,0.0041
3039.00,0.0042
3038.00,0.0042
3037.00,0.0042
3036.00,0.0042
3035.00,0.0043
3034.00,0.0043
3033.00,0.0043
3032.00,0.0044
3031.00,0.0044
3030.00,0.0044
3029.00,0.0044
3028.00,0.0045
3027.00,0.0045
3026.00,0.0045
3025.00,0.0046
3024.00,0.0047
3023.00,0.0047
3022.00,0.0048
3021.00,0.0049
3020.00,0.0049
3019.00,0.0050
3018.00,0.0051
3017.00,0.0052
3016.00,0.0053
3015.00,0.0054
3014.00,0.0055
3013.00,0.0056
3012.00,0.0057
3011.00,0.0058
3010.00,0.0059
3009.00,0.0060
3008.00,0.0061
3007.00,0.0062
3006.00,0.0063
3005.00,0.0065
3004.00,0.0066
3003.00,0.0068
3002.00,0.0070
3001.00,0.0073
3000.00,0.0075
2999.00,0.0077
2998.00,0.0080
2997.00,0.0083
2996.00,0.0086
2995.00,0.0090
2994.00,0.0094
2993.00,0.0098
2992.00,0.0103
2991.00,0.0108
2990.00,0.0114
2989.00,0.0120
2988.00,0.0128
2987.00,0.0135
2986.00,0.0144
2985.00,0.0153
2984.00,0.0163
2983.00,0.0175
2982.00,0.0188
2981.00,0.0204
2980.00,0.0223
2979.00,0.0244
2978.00,0.0268
2977.00,0.0294
2976.00,0.0324
2975.00,0.0359
2974.00,0.0397
2973.00,0.0442
2972.00,0.0492
2971.00,0.0548
2970.00,0.0610
2969.00,0.0678
2968.00,0.0752
2967.00,0.0829
2966.00,0.0910
2965.00,0.0990
2964.00,0.1067
2963.00,0.1138
2962.00,0.1198
2961.00,0.1248
2960.00,0.1289
2959.00,0.1326
2958.00,0.1363
2957.00,0.1408
2956.00,0.1464
2955.00,0.1532
2954.00,0.1611
2953.00,0.1693
2952.00,0.1767
2951.00,0.1822
2950.00,0.1844
2949.00,0.1827
2948.00,0.1769
2947.00,0.1676
2946.00,0.1561
2945.00,0.1437
2944.00,0.1318
2943.00,0.1215
2942.00,0.1135
2941.00,0.1080
2940.00,0.1049
2939.00,0.1040
2938.00,0.1051
2937.00,0.1080
2936.00,0.1125
2935.00,0.1185
2934.00,0.1258
2933.00,0.1343
2932.00,0.1440
2931.00,0.1547
2930.00,0.1660
2929.00,0.1778
2928.00,0.1896
2927.00,0.2014
2926.00,0.2129
2925.00,0.2241
2924.00,0.2351
2923.00,0.2461
2922.00,0.2572
2921.00,0.2678
2920.00,0.2774
2919.00,0.2849
2918.00,0.2889
2917.00,0.2886
2916.00,0.2838
2915.00,0.2752
2914.00,0.2641
2913.00,0.2518
2912.00,0.2396
2911.00,0.2283
2910.00,0.2182
2909.00,0.2091
2908.00,0.2009
2907.00,0.1932
2906.00,0.1859
2905.00,0.1786
2904.00,0.1715
2903.00,0.1645
2902.00,0.1577
2901.00,0.1510
2900.00,0.1447
2899.00,0.1387
2898.00,0.1330
2897.00,0.1279
2896.00,0.1232
2895.00,0.1192
2894.00,0.1157
2893.00,0.1129
2892.00,0.1107
2891.00,0.1090
2890.00,0.1078
2889.00,0.1070
2888.00,0.1066
2887.00,0.1066
2886.00,0.1069
2885.00,0.1076
2884.00,0.1087
2883.00,0.1103
2882.00,0.1123
2881.00,0.1146
2880.00,0.1169
2879.00,0.1189
2878.00,0.1202
2877.00,0.1206
2876.00,0.1203
2875.00,0.1197
2874.00,0.1191
2873.00,0.1191
2872.00,0.1199
2871.00,0.1213
2870.00,0.1231
2869.00,0.1250
2868.00,0.1262
2867.00,0.1260
2866.00,0.1236
2865.00,0.1190
2864.00,0.1125
2863.00,0.1050
2862.00,0.0975
2861.00,0.0910
2860.00,0.0858
2859.00,0.0823
2858.00,0.0802
2857.00,0.0796
2856.00,0.0800
2855.00,0.0813
2854.00,0.0832
2853.00,0.0855
2852.00,0.0879
2851.00,0.0899
2850.00,0.0914
2849.00,0.0922
2848.00,0.0927
2847.00,0.0934
2846.00,0.0948
2845.00,0.0972
2844.00,0.1008
2843.00,0.1052
2842.00,0.1099
2841.00,0.1144
2840.00,0.1179
2839.00,0.1197
2838.00,0.1190
2837.00,0.1155
2836.00,0.1092
2835.00,0.1007
2834.00,0.0907
2833.00,0.0804
2832.00,0.0706
2831.00,0.0619
2830.00,0.0544
2829.00,0.0483
2828.00,0.0434
2827.00,0.0393
2826.00,0.0360
2825.00,0.0333
2824.00,0.0310
2823.00,0.0291
2822.00,0.0275
2821.00,0.0261
2820.00,0.0249
2819.00,0.0238
2818.00,0.0229
2817.00,0.0221
2816.00,0.0213
2815.00,0.0207
2814.00,0.0201
2813.00,0.0195
2812.00,0.0189
2811.00,0.0184
2810.00,0.0178
2809.00,0.0173
2808.00,0.0166
2807.00,0.0160
2806.00,0.0153
2805.00,0.0147
2804.00,0.0141
2803.00,0.0135
2802.00,0.0130
2801.00,0.0126
2800.00,0.0122
2799.00,0.0119
2798.00,0.0116
2797.00,0.0114
2796.00,0.0111
2795.00,0.0109
2794.00,0.0106
2793.00,0.0103
2792.00,0.0100
2791.00,0.0098
2790.00,0.0095
2789.00,0.0093
2788.00,0.0090
2787.00,0.0088
2786.00,0.0085
2785.00,0.0082
2784.00,0.0080
2783.00,0.0077
2782.00,0.0075
2781.00,0.0073
2780.00,0.0071
2779.00,0.0069
2778.00,0.0068
2777.00,0.0067
2776.00,0.0066
2775.00,0.0065
2774.00,0.0064
2773.00,0.0064
2772.00,0.0063
2771.00,0.0062
2770.00,0.0062
2769.00,0.0061
2768.00,0.0061
2767.00,0.0060
2766.00,0.0060
2765.00,0.0060
2764.00,0.0060
2763.00,0.0060
2762.00,0.0059
2761.00,0.0059
2760.00,0.0059
2759.00,0.0058
2758.00,0.0058
2757.00,0.0058
2756.00,0.0058
2755.00,0.0057
2754.00,0.0057
2753.00,0.0057
2752.00,0.0057
2751.00,0.0057
2750.00,0.0057
2749.00,0.0057
2748.00,0.0057
2747.00,0.0057
2746.00,0.0057
2745.00,0.0058
2744.00,0.0059
2743.00,0.0060
2742.00,0.0061
2741.00,0.0061
2740.00,0.0062
2739.00,0.0063
2738.00,0.0065
2737.00,0.0066
2736.00,0.0068
2735.00,0.0069
2734.00,0.0071
2733.00,0.0072
2732.00,0.0074
2731.00,0.0076
2730.00,0.0078
2729.00,0.0081
2728.00,0.0083
2727.00,0.0085
2726.00,0.0088
2725.00,0.0090
2724.00,0.0091
2723.00,0.0092
2722.00,0.0091
2721.00,0.0089
2720.00,0.0087
2719.00,0.0084
2718.00,0.0081
2717.00,0.0078
2716.00,0.0075
2715.00,0.0072
2714.00,0.0069
2713.00,0.0067
2712.00,0.0065
2711.00,0.0063
2710.00,0.0062
2709.00,0.0060
2708.00,0.0058
2707.00,0.0057
2706.00,0.0057
2705.00,0.0056
2704.00,0.0055
2703.00,0.0054
2702.00,0.0053
2701.00,0.0052
2700.00,0.0051
2699.00,0.0051
2698.00,0.0050
2697.00,0.0050
2696.00,0.0049
2695.00,0.0049
2694.00,0.0049
2693.00,0.0049
2692.00,0.0049
2691.00,0.0049
2690.00,0.0049
2689.00,0.0049
2688.00,0.0049
2687.00,0.0049
2686.00,0.0049
2685.00,0.0049
2684.00,0.0050
2683.00,0.0050
2682.00,0.0050
2681.00,0.0050
2680.00,0.0050
2679.00,0.0050
2678.00,0.0050
2677.00,0.0050
2676.00,0.0050
2675.00,0.0050
2674.00,0.0050
2673.00,0.0049
2672.00,0.0049
2671.00,0.0048
2670.00,0.0048
2669.00,0.0048
2668.00,0.0048
2667.00,0.0049
2666.00,0.0049
2665.00,0.0050
2664.00,0.0051
2663.00,0.0051
2662.00,0.0052
2661.00,0.0052
2660.00,0.0053
2659.00,0.0053
2658.00,0.0053
2657.00,0.0052
2656.00,0.0052
2655.00,0.0051
2654.00,0.0051
2653.00,0.0050
2652.00,0.0050
2651.00,0.0049
2650.00,0.0049
2649.00,0.0048
2648.00,0.0048
2647.00,0.0048
2646.00,0.0047
2645.00,0.0046
2644.00,0.0046
2643.00,0.0045
2642.00,0.0045
2641.00,0.0045
2640.00,0.0044
2639.00,0.0044
2638.00,0.0044
2637.00,0.0043
2636.00,0.0043
2635.00,0.0043
2634.00,0.0043
2633.00,0.0043
2632.00,0.0043
2631.00,0.0044
2630.00,0.0044
2629.00,0.0044
2628.00,0.0044
2627.00,0.0044
2626.00,0.0043
2625.00,0.0043
2624.00,0.0043
2623.00,0.0044
2622.00,0.0044
2621.00,0.0045
2620.00,0.0045
2619.00,0.0045
2618.00,0.0045
2617.00,0.0045
2616.00,0.0045
2615.00,0.0045
2614.00,0.0044
2613.00,0.0044
2612.00,0.0043
2611.00,0.0043
2610.00,0.0043
2609.00,0.0042
2608.00,0.0041
2607.00,0.0040
2606.00,0.0039
2605.00,0.0038
2604.00,0.0038
2603.00,0.0037
2602.00,0.0036
2601.00,0.0036
2600.00,0.0036
2599.00,0.0037
2598.00,0.0037
2597.00,0.0037
2596.00,0.0037
2595.00,0.0036
2594.00,0.0037
2593.00,0.0037
2592.00,0.0038
2591.00,0.0038
2590.00,0.0039
2589.00,0.0040
2588.00,0.0040
2587.00,0.0041
2586.00,0.0042
2585.00,0.0043
2584.00,0.0044
2583.00,0.0044
2582.00,0.0044
2581.00,0.0043
2580.00,0.0043
2579.00,0.0042
2578.00,0.0041
2577.00,0.0040
2576.00,0.0039
2575.00,0.0037
2574.00,0.0036
2573.00,0.0035
2572.00,0.0034
2571.00,0.0033
2570.00,0.0032
2569.00,0.0031
2568.00,0.0030
2567.00,0.0030
2566.00,0.0029
2565.00,0.0029
2564.00,0.0029
2563.00,0.0029
2562.00,0.0029
2561.00,0.0029
2560.00,0.0029
2559.00,0.0029
2558.00,0.0028
2557.00,0.0027
2556.00,0.0026
2555.00,0.0026
2554.00,0.0025
2553.00,0.0024
2552.00,0.0024
2551.00,0.0023
2550.00,0.0023
2549.00,0.0023
2548.00,0.0024
2547.00,0.0024
2546.00,0.0024
2545.00,0.0023
2544.00,0.0022
2543.00,0.0022
2542.00,0.0022
2541.00,0.0022
2540.00,0.0022
2539.00,0.0022
2538.00,0.0022
2537.00,0.0021
2536.00,0.0021
2535.00,0.0021
2534.00,0.0021
2533.00,0.0021
2532.00,0.0020
2531.00,0.0020
2530.00,0.0020
2529.00,0.0020
2528.00,0.0020
2527.00,0.0020
2526.00,0.0020
2525.00,0.0019
2524.00,0.0019
2523.00,0.0019
2522.00,0.0019
2521.00,0.0019
2520.00,0.0019
2519.00,0.0018
2518.00,0.0018
2517.00,0.0017
2516.00,0.0017
2515.00,0.0017
2514.00,0.0017
2513.00,0.0016
2512.00,0.0016
2511.00,0.0016
2510.00,0.0016
2509.00,0.0015
2508.00,0.0015
2507.00,0.0015
2506.00,0.0015
2505.00,0.0015
2504.00,0.0015
2503.00,0.0015
2502.00,0.0015
2501.00,0.0015
2500.00,0.0014
2499.00,0.0014
2498.00,0.0015
2497.00,0.0015
2496.00,0.0015
2495.00,0.0015
2494.00,0.0014
2493.00,0.0014
2492.00,0.0015
2491.00,0.0015
2490.00,0.0016
2489.00,0.0017
2488.00,0.0017
2487.00,0.0017
2486.00,0.0016
2485.00,0.0015
2484.00,0.0014
2483.00,0.0014
2482.00,0.0014
2481.00,0.0014
2480.00,0.0014
2479.00,0.0014
2478.00,0.0014
2477.00,0.0014
2476.00,0.0014
2475.00,0.0014
2474.00,0.0014
2473.00,0.0014
2472.00,0.0014
2471.00,0.0014
2470.00,0.0014
2469.00,0.0015
2468.00,0.0015
2467.00,0.0015
2466.00,0.0014
2465.00,0.0014
2464.00,0.0014
2463.00,0.0014
2462.00,0.0015
2461.00,0.0015
2460.00,0.0016
2459.00,0.0016
2458.00,0.0016
2457.00,0.0016
2456.00,0.0016
2455.00,0.0016
2454.00,0.0016
2453.00,0.0016
2452.00,0.0016
2451.00,0.0015
2450.00,0.0015
2449.00,0.0015
2448.00,0.0015
2447.00,0.0015
2446.00,0.0015
2445.00,0.0015
2444.00,0.0015
2443.00,0.0015
2442.00,0.0015
2441.00,0.0014
2440.00,0.0014
2439.00,0.0014
2438.00,0.0014
2437.00,0.0015
2436.00,0.0015
2435.00,0.0016
2434.00,0.0016
2433.00,0.0015
2432.00,0.0015
2431.00,0.0015
2430.00,0.0015
2429.00,0.0016
2428.00,0.0016
2427.00,0.0016
2426.00,0.0016
2425.00,0.0016
2424.00,0.0015
2423.00,0.0015
2422.00,0.0014
2421.00,0.0014
2420.00,0.0014
2419.00,0.0014
2418.00,0.0013
2417.00,0.0013
2416.00,0.0013
2415.00,0.0014
2414.00,0.0014
2413.00,0.0014
2412.00,0.0014
2411.00,0.0014
2410.00,0.0014
2409.00,0.0014
2408.00,0.0014
2407.00,0.0013
2406.00,0.0012
2405.00,0.0012
2404.00,0.0012
2403.00,0.0012
2402.00,0.0012
2401.00,0.0012
2400.00,0.0012
2399.00,0.0012
2398.00,0.0012
2397.00,0.0012
2396.00,0.0012
2395.00,0.0011
2394.00,0.0011
2393.00,0.0011
2392.00,0.0011
2391.00,0.0011
2390.00,0.0011
2389.00,0.0011
2388.00,0.0011
2387.00,0.0011
2386.00,0.0011
2385.00,0.0011
2384.00,0.0010
2383.00,0.0010
2382.00,0.0010
2381.00,0.0010
2380.00,0.0009
2379.00,0.0009
2378.00,0.0009
2377.00,0.0009
2376.00,0.0010
2375.00,0.0010
2374.00,0.0010
2373.00,0.0010
2372.00,0.0011
2371.00,0.0011
2370.00,0.0011
2369.00,0.0011
2368.00,0.0010
2367.00,0.0010
2366.00,0.0010
2365.00,0.0010
2364.00,0.0010
2363.00,0.0011
2362.00,0.0012
2361.00,0.0012
2360.00,0.0012
2359.00,0.0011
2358.00,0.0012
2357.00,0.0012
2356.00,0.0013
2355.00,0.0013
2354.00,0.0012
2353.00,0.0012
2352.00,0.0011
2351.00,0.0012
2350.00,0.0012
2349.00,0.0013
2348.00,0.0013
2347.00,0.0013
2346.00,0.0013
2345.00,0.0014
2344.00,0.0015
2343.00,0.0015
2342.00,0.0015
2341.00,0.0015
2340.00,0.0015
2339.00,0.0015
2338.00,0.0015
2337.00,0.0016
2336.00,0.0016
2335.00,0.0015
2334.00,0.0014
2333.00,0.0013
2332.00,0.0012
2331.00,0.0012
2330.00,0.0013
2329.00,0.0014
2328.00,0.0016
2327.00,0.0019
2326.00,0.0023
2325.00,0.0026
2324.00,0.0028
2323.00,0.0028
2322.00,0.0026
2321.00,0.0023
2320.00,0.0022
2319.00,0.0020
2318.00,0.0020
2317.00,0.0019
2316.00,0.0018
2315.00,0.0018
2314.00,0.0018
2313.00,0.0017
2312.00,0.0017
2311.00,0.0016
2310.00,0.0015
2309.00,0.0015
2308.00,0.0015
2307.00,0.0015
2306.00,0.0015
2305.00,0.0015
2304.00,0.0014
2303.00,0.0014
2302.00,0.0014
2301.00,0.0015
2300.00,0.0015
2299.00,0.0016
2298.00,0.0016
2297.00,0.0016
2296.00,0.0016
2295.00,0.0017
2294.00,0.0018
2293.00,0.0019
2292.00,0.0019
2291.00,0.0019
2290.00,0.0019
2289.00,0.0020
2288.00,0.0021
2287.00,0.0022
2286.00,0.0022
2285.00,0.0022
2284.00,0.0021
2283.00,0.0020
2282.00,0.0019
2281.00,0.0019
2280.00,0.0018
2279.00,0.0018
2278.00,0.0017
2277.00,0.0016
2276.00,0.0015
2275.00,0.0015
2274.00,0.0015
2273.00,0.0016
2272.00,0.0017
2271.00,0.0017
2270.00,0.0018
2269.00,0.0018
2268.00,0.0019
2267.00,0.0019
2266.00,0.0019
2265.00,0.0019
2264.00,0.0018
2263.00,0.0018
2262.00,0.0018
2261.00,0.0018
2260.00,0.0018
2259.00,0.0018
2258.00,0.0018
2257.00,0.0018
2256.00,0.0016
2255.00,0.0014
2254.00,0.0013
2253.00,0.0012
2252.00,0.0012
2251.00,0.0012
2250.00,0.0012
2249.00,0.0012
2248.00,0.0012
2247.00,0.0011
2246.00,0.0010
2245.00,0.0010
2244.00,0.0010
2243.00,0.0010
2242.00,0.0011
2241.00,0.0012
2240.00,0.0013
2239.00,0.0014
2238.00,0.0015
2237.00,0.0016
2236.00,0.0016
2235.00,0.0016
2234.00,0.0015
2233.00,0.0014
2232.00,0.0013
2231.00,0.0013
2230.00,0.0013
2229.00,0.0014
2228.00,0.0015
2227.00,0.0015
2226.00,0.0014
2225.00,0.0013
2224.00,0.0011
2223.00,0.0010
2222.00,0.0008
2221.00,0.0007
2220.00,0.0007
2219.00,0.0006
2218.00,0.0007
2217.00,0.0008
2216.00,0.0010
2215.00,0.0011
2214.00,0.0011
2213.00,0.0010
2212.00,0.0010
2211.00,0.0010
2210.00,0.0009
2209.00,0.0009
2208.00,0.0008
2207.00,0.0007
2206.00,0.0008
2205.00,0.0008
2204.00,0.0009
2203.00,0.0010
2202.00,0.0011
2201.00,0.0013
2200.00,0.0014
2199.00,0.0014
2198.00,0.0014
2197.00,0.0014
2196.00,0.0013
2195.00,0.0012
2194.00,0.0012
2193.00,0.0012
2192.00,0.0012
2191.00,0.0012
2190.00,0.0012
2189.00,0.0012
2188.00,0.0012
2187.00,0.0012
2186.00,0.0013
2185.00,0.0012
2184.00,0.0011
2183.00,0.0008
2182.00,0.0006
2181.00,0.0005
2180.00,0.0007
2179.00,0.0010
2178.00,0.0011
2177.00,0.0011
2176.00,0.0009
2175.00,0.0008
2174.00,0.0009
2173.00,0.0010
2172.00,0.0012
2171.00,0.0014
2170.00,0.0019
2169.00,0.0024
2168.00,0.0029
2167.00,0.0031
2166.00,0.0029
2165.00,0.0024
2164.00,0.0020
2163.00,0.0016
2162.00,0.0013
2161.00,0.0008
2160.00,-0.0002
2159.00,-0.0013
2158.00,-0.0021
2157.00,-0.0024
2156.00,-0.0022
2155.00,-0.0020
2154.00,-0.0017
2153.00,-0.0014
2152.00,-0.0012
2151.00,-0.0010
2150.00,-0.0009
2149.00,-0.0010
2148.00,-0.0011
2147.00,-0.0012
2146.00,-0.0012
2145.00,-0.0011
2144.00,-0.0010
2143.00,-0.0009
2142.00,-0.0009
2141.00,-0.0009
2140.00,-0.0009
2139.00,-0.0010
2138.00,-0.0011
2137.00,-0.0011
2136.00,-0.0012
2135.00,-0.0013
2134.00,-0.0013
2133.00,-0.0013
2132.00,-0.0012
2131.00,-0.0011
2130.00,-0.0010
2129.00,-0.0008
2128.00,-0.0007
2127.00,-0.0006
2126.00,-0.0005
2125.00,-0.0003
2124.00,-0.0002
2123.00,-0.0002
2122.00,-0.0003
2121.00,-0.0003
2120.00,-0.0002
2119.00,-0.0002
2118.00,-0.0000
2117.00,0.0002
2116.00,0.0004
2115.00,0.0006
2114.00,0.0007
2113.00,0.0007
2112.00,0.0007
2111.00,0.0006
2110.00,0.0005
2109.00,0.0005
2108.00,0.0006
2107.00,0.0006
2106.00,0.0006
2105.00,0.0007
2104.00,0.0007
2103.00,0.0007
2102.00,0.0007
2101.00,0.0006
2100.00,0.0006
2099.00,0.0005
2098.00,0.0004
2097.00,0.0003
2096.00,0.0003
2095.00,0.0002
2094.00,0.0001
2093.00,0.0001
2092.00,0.0001
2091.00,0.0001
2090.00,0.0001
2089.00,0.0002
2088.00,0.0003
2087.00,0.0003
2086.00,0.0004
2085.00,0.0004
2084.00,0.0005
2083.00,0.0005
2082.00,0.0005
2081.00,0.0005
2080.00,0.0006
2079.00,0.0007
2078.00,0.0007
2077.00,0.0007
2076.00,0.0007
2075.00,0.0007
2074.00,0.0006
2073.00,0.0006
2072.00,0.0006
2071.00,0.0006
2070.00,0.0005
2069.00,0.0005
2068.00,0.0005
2067.00,0.0004
2066.00,0.0004
2065.00,0.0005
2064.00,0.0005
2063.00,0.0004
2062.00,0.0002
2061.00,0.0000
2060.00,-0.0001
2059.00,-0.0000
2058.00,0.0001
2057.00,0.0003
2056.00,0.0004
2055.00,0.0005
2054.00,0.0006
2053.00,0.0009
2052.00,0.0013
2051.00,0.0016
2050.00,0.0017
2049.00,0.0014
2048.00,0.0009
2047.00,0.0005
2046.00,0.0002
2045.00,-0.0000
2044.00,-0.0001
2043.00,0.0000
2042.00,0.0001
2041.00,0.0003
2040.00,0.0004
2039.00,0.0005
2038.00,0.0008
2037.00,0.0011
2036.00,0.0011
2035.00,0.0007
2034.00,-0.0000
2033.00,-0.0007
2032.00,-0.0011
2031.00,-0.0011
2030.00,-0.0009
2029.00,-0.0007
2028.00,-0.0006
2027.00,-0.0007
2026.00,-0.0008
2025.00,-0.0007
2024.00,-0.0005
2023.00,-0.0003
2022.00,-0.0003
2021.00,-0.0003
2020.00,-0.0003
2019.00,-0.0004
2018.00,-0.0006
2017.00,-0.0007
2016.00,-0.0008
2015.00,-0.0008
2014.00,-0.0006
2013.00,-0.0004
2012.00,-0.0003
2011.00,-0.0003
2010.00,-0.0005
2009.00,-0.0009
2008.00,-0.0012
2007.00,-0.0014
2006.00,-0.0014
2005.00,-0.0012
2004.00,-0.0009
2003.00,-0.0007
2002.00,-0.0006
2001.00,-0.0006
2000.00,-0.0006
1999.00,-0.0007
1998.00,-0.0006
1997.00,-0.0006
1996.00,-0.0005
1995.00,-0.0006
1994.00,-0.0008
1993.00,-0.0010
1992.00,-0.0010
1991.00,-0.0009
1990.00,-0.0007
1989.00,-0.0006
1988.00,-0.0005
1987.00,-0.0004
1986.00,-0.0001
1985.00,0.0001
1984.00,0.0004
1983.00,0.0006
1982.00,0.0008
1981.00,0.0011
1980.00,0.0011
1979.00,0.0008
1978.00,0.0002
1977.00,-0.0004
1976.00,-0.0008
1975.00,-0.0008
1974.00,-0.0006
1973.00,-0.0004
1972.00,-0.0003
1971.00,-0.0004
1970.00,-0.0006
1969.00,-0.0007
1968.00,-0.0009
1967.00,-0.0011
1966.00,-0.0013
1965.00,-0.0012
1964.00,-0.0010
1963.00,-0.0009
1962.00,-0.0009
1961.00,-0.0011
1960.00,-0.0013
1959.00,-0.0015
1958.00,-0.0016
1957.00,-0.0016
1956.00,-0.0014
1955.00,-0.0013
1954.00,-0.0012
1953.00,-0.0010
1952.00,-0.0010
1951.00,-0.0009
1950.00,-0.0009
1949.00,-0.0008
1948.00,-0.0008
1947.00,-0.0009
1946.00,-0.0010
1945.00,-0.0012
1944.00,-0.0013
1943.00,-0.0013
1942.00,-0.0012
1941.00,-0.0011
1940.00,-0.0009
1939.00,-0.0008
1938.00,-0.0008
1937.00,-0.0008
1936.00,-0.0008
1935.00,-0.0007
1934.00,-0.0007
1933.00,-0.0006
1932.00,-0.0004
1931.00,-0.0004
1930.00,-0.0003
1929.00,-0.0002
1928.00,-0.0002
1927.00,-0.0002
1926.00,-0.0002
1925.00,-0.0002
1924.00,-0.0002
1923.00,-0.0002
1922.00,-0.0001
1921.00,0.0000
1920.00,0.0001
1919.00,0.0001
1918.00,0.0001
1917.00,-0.0000
1916.00,-0.0000
1915.00,-0.0000
1914.00,0.0000
1913.00,0.0001
1912.00,0.0001
1911.00,0.0002
1910.00,0.0002
1909.00,0.0002
1908.00,0.0002
1907.00,0.0001
1906.00,0.0001
1905.00,0.0001
1904.00,0.0001
1903.00,0.0002
1902.00,0.0002
1901.00,0.0003
1900.00,0.0004
1899.00,0.0004
1898.00,0.0004
1897.00,0.0004
1896.00,0.0005
1895.00,0.0005
1894.00,0.0005
1893.00,0.0004
1892.00,0.0003
1891.00,0.0002
1890.00,0.0001
1889.00,0.0001
1888.00,0.0002
1887.00,0.0003
1886.00,0.0004
1885.00,0.0004
1884.00,0.0003
1883.00,0.0003
1882.00,0.0002
1881.00,0.0003
1880.00,0.0003
1879.00,0.0003
1878.00,0.0002
1877.00,0.0002
1876.00,0.0002
1875.00,0.0001
1874.00,0.0002
1873.00,0.0002
1872.00,0.0003
1871.00,0.0004
1870.00,0.0004
1869.00,0.0004
1868.00,0.0003
1867.00,0.0003
1866.00,0.0003
1865.00,0.0003
1864.00,0.0004
1863.00,0.0005
1862.00,0.0004
1861.00,0.0004
1860.00,0.0005
1859.00,0.0005
1858.00,0.0005
1857.00,0.0005
1856.00,0.0005
1855.00,0.0005
1854.00,0.0005
1853.00,0.0005
1852.00,0.0005
1851.00,0.0005
1850.00,0.0006
1849.00,0.0006
1848.00,0.0006
1847.00,0.0005
1846.00,0.0005
1845.00,0.0005
1844.00,0.0006
1843.00,0.0006
1842.00,0.0006
1841.00,0.0006
1840.00,0.0007
1839.00,0.0007
1838.00,0.0007
1837.00,0.0006
1836.00,0.0006
1835.00,0.0006
1834.00,0.0007
1833.00,0.0008
1832.00,0.0008
1831.00,0.0008
1830.00,0.0007
1829.00,0.0007
1828.00,0.0007
1827.00,0.0007
1826.00,0.0007
1825.00,0.0008
1824.00,0.0008
1823.00,0.0007
1822.00,0.0007
1821.00,0.0007
1820.00,0.0006
1819.00,0.0005
1818.00,0.0004
1817.00,0.0004
1816.00,0.0004
1815.00,0.0005
1814.00,0.0006
1813.00,0.0007
1812.00,0.0007
1811.00,0.0007
1810.00,0.0006
1809.00,0.0006
1808.00,0.0006
1807.00,0.0006
1806.00,0.0007
1805.00,0.0008
1804.00,0.0008
1803.00,0.0009
1802.00,0.0009
1801.00,0.0009
1800.00,0.0009
1799.00,0.0009
1798.00,0.0009
1797.00,0.0009
1796.00,0.0009
1795.00,0.0009
1794.00,0.0010
1793.00,0.0010
1792.00,0.0011
1791.00,0.0011
1790.00,0.0011
1789.00,0.0011
1788.00,0.0011
1787.00,0.0011
1786.00,0.0011
1785.00,0.0011
1784.00,0.0011
1783.00,0.0012
1782.00,0.0012
1781.00,0.0012
1780.00,0.0012
1779.00,0.0012
1778.00,0.0012
1777.00,0.0012
1776.00,0.0012
1775.00,0.0012
1774.00,0.0011
1773.00,0.0011
1772.00,0.0011
1771.00,0.0012
1770.00,0.0012
1769.00,0.0013
1768.00,0.0013
1767.00,0.0014
1766.00,0.0014
1765.00,0.0014
1764.00,0.0014
1763.00,0.0014
1762.00,0.0014
1761.00,0.0015
1760.00,0.0015
1759.00,0.0016
1758.00,0.0017
1757.00,0.0018
1756.00,0.0018
1755.00,0.0018
1754.00,0.0019
1753.00,0.0019
1752.00,0.0020
1751.00,0.0021
1750.00,0.0021
1749.00,0.0021
1748.00,0.0021
1747.00,0.0021
1746.00,0.0021
1745.00,0.0021
1744.00,0.0022
1743.00,0.0022
1742.00,0.0022
1741.00,0.0022
1740.00,0.0022
1739.00,0.0022
1738.00,0.0023
1737.00,0.0023
1736.00,0.0023
1735.00,0.0024
1734.00,0.0025
1733.00,0.0025
1732.00,0.0026
1731.00,0.0026
1730.00,0.0027
1729.00,0.0027
1728.00,0.0027
1727.00,0.0027
1726.00,0.0028
1725.00,0.0028
1724.00,0.0028
1723.00,0.0028
1722.00,0.0028
1721.00,0.0028
1720.00,0.0028
1719.00,0.0027
1718.00,0.0026
1717.00,0.0026
1716.00,0.0026
1715.00,0.0026
1714.00,0.0026
1713.00,0.0026
1712.00,0.0026
1711.00,0.0025
1710.00,0.0025
1709.00,0.0026
1708.00,0.0026
1707.00,0.0027
1706.00,0.0028
1705.00,0.0028
1704.00,0.0029
1703.00,0.0028
1702.00,0.0029
1701.00,0.0029
1700.00,0.0030
1699.00,0.0030
1698.00,0.0029
1697.00,0.0029
1696.00,0.0030
1695.00,0.0031
1694.00,0.0032
1693.00,0.0033
1692.00,0.0033
1691.00,0.0033
1690.00,0.0034
1689.00,0.0035
1688.00,0.0035
1687.00,0.0036
1686.00,0.0036
1685.00,0.0037
1684.00,0.0037
1683.00,0.0039
1682.00,0.0039
1681.00,0.0040
1680.00,0.0040
1679.00,0.0041
1678.00,0.0042
1677.00,0.0043
1676.00,0.0044
1675.00,0.0044
1674.00,0.0045
1673.00,0.0045
1672.00,0.0045
1671.00,0.0046
1670.00,0.0047
1669.00,0.0047
1668.00,0.0048
1667.00,0.0048
1666.00,0.0048
1665.00,0.0049
1664.00,0.0050
1663.00,0.0051
1662.00,0.0051
1661.00,0.0052
1660.00,0.0052
1659.00,0.0053
1658.00,0.0054
1657.00,0.0055
1656.00,0.0056
1655.00,0.0057
1654.00,0.0058
1653.00,0.0058
1652.00,0.0059
1651.00,0.0059
1650.00,0.0059
1649.00,0.0059
1648.00,0.0059
1647.00,0.0059
1646.00,0.0060
1645.00,0.0061
1644.00,0.0061
1643.00,0.0062
1642.00,0.0062
1641.00,0.0063
1640.00,0.0064
1639.00,0.0065
1638.00,0.0066
1637.00,0.0066
1636.00,0.0066
1635.00,0.0066
1634.00,0.0066
1633.00,0.0065
1632.00,0.0065
1631.00,0.0064
1630.00,0.0064
1629.00,0.0064
1628.00,0.0064
1627.00,0.0063
1626.00,0.0062
1625.00,0.0062
1624.00,0.0062
1623.00,0.0062
1622.00,0.0061
1621.00,0.0061
1620.00,0.0061
1619.00,0.0060
1618.00,0.0059
1617.00,0.0059
1616.00,0.0058
1615.00,0.0058
1614.00,0.0058
1613.00,0.0058
1612.00,0.0058
1611.00,0.0058
1610.00,0.0057
1609.00,0.0057
1608.00,0.0057
1607.00,0.0057
1606.00,0.0058
1605.00,0.0058
1604.00,0.0058
1603.00,0.0058
1602.00,0.0057
1601.00,0.0057
1600.00,0.0057
1599.00,0.0058
1598.00,0.0058
1597.00,0.0058
1596.00,0.0058
1595.00,0.0058
1594.00,0.0058
1593.00,0.0058
1592.00,0.0059
1591.00,0.0059
1590.00,0.0060
1589.00,0.0060
1588.00,0.0062
1587.00,0.0063
1586.00,0.0064
1585.00,0.0066
1584.00,0.0068
1583.00,0.0070
1582.00,0.0073
1581.00,0.0076
1580.00,0.0078
1579.00,0.0080
1578.00,0.0081
1577.00,0.0081
1576.00,0.0082
1575.00,0.0081
1574.00,0.0081
1573.00,0.0080
1572.00,0.0079
1571.00,0.0078
1570.00,0.0075
1569.00,0.0073
1568.00,0.0072
1567.00,0.0071
1566.00,0.0071
1565.00,0.0070
1564.00,0.0070
1563.00,0.0069
1562.00,0.0069
1561.00,0.0070
1560.00,0.0071
1559.00,0.0070
1558.00,0.0070
1557.00,0.0071
1556.00,0.0072
1555.00,0.0073
1554.00,0.0073
1553.00,0.0074
1552.00,0.0076
1551.00,0.0077
1550.00,0.0078
1549.00,0.0079
1548.00,0.0081
1547.00,0.0083
1546.00,0.0086
1545.00,0.0089
1544.00,0.0092
1543.00,0.0094
1542.00,0.0096
1541.00,0.0096
1540.00,0.0094
1539.00,0.0091
1538.00,0.0088
1537.00,0.0086
1536.00,0.0084
1535.00,0.0081
1534.00,0.0077
1533.00,0.0074
1532.00,0.0071
1531.00,0.0069
1530.00,0.0068
1529.00,0.0066
1528.00,0.0065
1527.00,0.0064
1526.00,0.0063
1525.00,0.0063
1524.00,0.0063
1523.00,0.0063
1522.00,0.0063
1521.00,0.0063
1520.00,0.0064
1519.00,0.0064
1518.00,0.0064
1517.00,0.0065
1516.00,0.0066
1515.00,0.0066
1514.00,0.0066
1513.00,0.0067
1512.00,0.0068
1511.00,0.0069
1510.00,0.0069
1509.00,0.0069
1508.00,0.0069
1507.00,0.0069
1506.00,0.0069
1505.00,0.0072
1504.00,0.0074
1503.00,0.0075
1502.00,0.0077
1501.00,0.0079
1500.00,0.0082
1499.00,0.0084
1498.00,0.0087
1497.00,0.0090
1496.00,0.0094
1495.00,0.0098
1494.00,0.0101
1493.00,0.0105
1492.00,0.0110
1491.00,0.0113
1490.00,0.0117
1489.00,0.0122
1488.00,0.0128
1487.00,0.0133
1486.00,0.0139
1485.00,0.0146
1484.00,0.0154
1483.00,0.0162
1482.00,0.0172
1481.00,0.0184
1480.00,0.0197
1479.00,0.0210
1478.00,0.0226
1477.00,0.0247
1476.00,0.0272
1475.00,0.0302
1474.00,0.0343
1473.00,0.0399
1472.00,0.0466
1471.00,0.0529
1470.00,0.0591
1469.00,0.0656
1468.00,0.0727
1467.00,0.0805
1466.00,0.0893
1465.00,0.0988
1464.00,0.1069
1463.00,0.1125
1462.00,0.1160
1461.00,0.1182
1460.00,0.1196
1459.00,0.1202
1458.00,0.1204
1457.00,0.1202
1456.00,0.1194
1455.00,0.1182
1454.00,0.1166
1453.00,0.1145
1452.00,0.1115
1451.00,0.1075
1450.00,0.1022
1449.00,0.0953
1448.00,0.0866
1447.00,0.0775
1446.00,0.0695
1445.00,0.0626
1444.00,0.0568
1443.00,0.0521
1442.00,0.0485
1441.00,0.0462
1440.00,0.0448
1439.00,0.0444
1438.00,0.0448
1437.00,0.0452
1436.00,0.0445
1435.00,0.0424
1434.00,0.0389
1433.00,0.0348
1432.00,0.0304
1431.00,0.0265
1430.00,0.0234
1429.00,0.0212
1428.00,0.0196
1427.00,0.0186
1426.00,0.0179
1425.00,0.0173
1424.00,0.0167
1423.00,0.0163
1422.00,0.0161
1421.00,0.0158
1420.00,0.0155
1419.00,0.0151
1418.00,0.0149
1417.00,0.0145
1416.00,0.0142
1415.00,0.0139
1414.00,0.0137
1413.00,0.0135
1412.00,0.0133
1411.00,0.0132
1410.00,0.0132
1409.00,0.0131
1408.00,0.0129
1407.00,0.0129
1406.00,0.0129
1405.00,0.0128
1404.00,0.0128
1403.00,0.0128
1402.00,0.0130
1401.00,0.0130
1400.00,0.0130
1399.00,0.0131
1398.00,0.0132
1397.00,0.0133
1396.00,0.0135
1395.00,0.0139
1394.00,0.0144
1393.00,0.0149
1392.00,0.0154
1391.00,0.0161
1390.00,0.0171
1389.00,0.0185
1388.00,0.0204
1387.00,0.0234
1386.00,0.0275
1385.00,0.0329
1384.00,0.0405
1383.00,0.0512
1382.00,0.0658
1381.00,0.0850
1380.00,0.1089
1379.00,0.1365
1378.00,0.1637
1377.00,0.1841
1376.00,0.1917
1375.00,0.1829
1374.00,0.1603
1373.00,0.1326
1372.00,0.1071
1371.00,0.0860
1370.00,0.0693
1369.00,0.0567
1368.00,0.0481
1367.00,0.0427
1366.00,0.0398
1365.00,0.0386
1364.00,0.0388
1363.00,0.0402
1362.00,0.0424
1361.00,0.0447
1360.00,0.0465
1359.00,0.0470
1358.00,0.0460
1357.00,0.0435
1356.00,0.0399
1355.00,0.0359
1354.00,0.0320
1353.00,0.0286
1352.00,0.0259
1351.00,0.0238
1350.00,0.0220
1349.00,0.0205
1348.00,0.0193
1347.00,0.0183
1346.00,0.0175
1345.00,0.0168
1344.00,0.0163
1343.00,0.0159
1342.00,0.0155
1341.00,0.0152
1340.00,0.0149
1339.00,0.0148
1338.00,0.0147
1337.00,0.0147
1336.00,0.0149
1335.00,0.0151
1334.00,0.0153
1333.00,0.0157
1332.00,0.0160
1331.00,0.0163
1330.00,0.0164
1329.00,0.0162
1328.00,0.0158
1327.00,0.0153
1326.00,0.0147
1325.00,0.0142
1324.00,0.0137
1323.00,0.0133
1322.00,0.0130
1321.00,0.0128
1320.00,0.0127
1319.00,0.0126
1318.00,0.0125
1317.00,0.0124
1316.00,0.0123
1315.00,0.0123
1314.00,0.0122
1313.00,0.0121
1312.00,0.0121
1311.00,0.0121
1310.00,0.0123
1309.00,0.0126
1308.00,0.0132
1307.00,0.0140
1306.00,0.0147
1305.00,0.0153
1304.00,0.0154
1303.00,0.0153
1302.00,0.0149
1301.00,0.0146
1300.00,0.0144
1299.00,0.0144
1298.00,0.0145
1297.00,0.0146
1296.00,0.0145
1295.00,0.0143
1294.00,0.0139
1293.00,0.0134
1292.00,0.0129
1291.00,0.0124
1290.00,0.0120
1289.00,0.0116
1288.00,0.0113
1287.00,0.0111
1286.00,0.0109
1285.00,0.0107
1284.00,0.0105
1283.00,0.0103
1282.00,0.0102
1281.00,0.0102
1280.00,0.0101
1279.00,0.0101
1278.00,0.0100
1277.00,0.0099
1276.00,0.0098
1275.00,0.0097
1274.00,0.0096
1273.00,0.0096
1272.00,0.0096
1271.00,0.0096
1270.00,0.0098
1269.00,0.0099
1268.00,0.0100
1267.00,0.0102
1266.00,0.0104
1265.00,0.0106
1264.00,0.0108
1263.00,0.0110
1262.00,0.0113
1261.00,0.0117
1260.00,0.0121
1259.00,0.0126
1258.00,0.0131
1257.00,0.0135
1256.00,0.0136
1255.00,0.0134
1254.00,0.0130
1253.00,0.0123
1252.00,0.0117
1251.00,0.0112
1250.00,0.0109
1249.00,0.0105
1248.00,0.0102
1247.00,0.0100
1246.00,0.0098
1245.00,0.0097
1244.00,0.0095
1243.00,0.0094
1242.00,0.0092
1241.00,0.0091
1240.00,0.0091
1239.00,0.0091
1238.00,0.0091
1237.00,0.0092
1236.00,0.0092
1235.00,0.0092
1234.00,0.0092
1233.00,0.0092
1232.00,0.0092
1231.00,0.0093
1230.00,0.0093
1229.00,0.0094
1228.00,0.0094
1227.00,0.0096
1226.00,0.0099
1225.00,0.0102
1224.00,0.0106
1223.00,0.0109
1222.00,0.0112
1221.00,0.0115
1220.00,0.0116
1219.00,0.0116
1218.00,0.0115
1217.00,0.0112
1216.00,0.0109
1215.00,0.0106
1214.00,0.0104
1213.00,0.0102
1212.00,0.0100
1211.00,0.0099
1210.00,0.0098
1209.00,0.0097
1208.00,0.0096
1207.00,0.0096
1206.00,0.0096
1205.00,0.0096
1204.00,0.0095
1203.00,0.0095
1202.00,0.0095
1201.00,0.0094
1200.00,0.0094
1199.00,0.0093
1198.00,0.0092
1197.00,0.0091
1196.00,0.0091
1195.00,0.0090
1194.00,0.0091
1193.00,0.0091
1192.00,0.0091
1191.00,0.0091
1190.00,0.0090
1189.00,0.0090
1188.00,0.0089
1187.00,0.0089
1186.00,0.0089
1185.00,0.0090
1184.00,0.0091
1183.00,0.0092
1182.00,0.0094
1181.00,0.0096
1180.00,0.0099
1179.00,0.0104
1178.00,0.0109
1177.00,0.0116
1176.00,0.0125
1175.00,0.0137
1174.00,0.0153
1173.00,0.0173
1172.00,0.0197
1171.00,0.0223
1170.00,0.0250
1169.00,0.0272
1168.00,0.0287
1167.00,0.0292
1166.00,0.0289
1165.00,0.0280
1164.00,0.0269
1163.00,0.0259
1162.00,0.0250
1161.00,0.0243
1160.00,0.0237
1159.00,0.0232
1158.00,0.0228
1157.00,0.0224
1156.00,0.0223
1155.00,0.0222
1154.00,0.0221
1153.00,0.0219
1152.00,0.0215
1151.00,0.0209
1150.00,0.0201
1149.00,0.0191
1148.00,0.0181
1147.00,0.0172
1146.00,0.0163
1145.00,0.0155
1144.00,0.0148
1143.00,0.0140
1142.00,0.0133
1141.00,0.0128
1140.00,0.0123
1139.00,0.0120
1138.00,0.0117
1137.00,0.0114
1136.00,0.0112
1135.00,0.0110
1134.00,0.0109
1133.00,0.0109
1132.00,0.0110
1131.00,0.0110
1130.00,0.0111
1129.00,0.0112
1128.00,0.0114
1127.00,0.0116
1126.00,0.0119
1125.00,0.0121
1124.00,0.0123
1123.00,0.0125
1122.00,0.0127
1121.00,0.0129
1120.00,0.0130
1119.00,0.0132
1118.00,0.0134
1117.00,0.0137
1116.00,0.0141
1115.00,0.0145
1114.00,0.0149
1113.00,0.0153
1112.00,0.0157
1111.00,0.0160
1110.00,0.0163
1109.00,0.0167
1108.00,0.0171
1107.00,0.0176
1106.00,0.0182
1105.00,0.0188
1104.00,0.0192
1103.00,0.0194
1102.00,0.0192
1101.00,0.0187
1100.00,0.0180
1099.00,0.0172
1098.00,0.0165
1097.00,0.0158
1096.00,0.0153
1095.00,0.0147
1094.00,0.0143
1093.00,0.0140
1092.00,0.0137
1091.00,0.0134
1090.00,0.0132
1089.00,0.0130
1088.00,0.0129
1087.00,0.0128
1086.00,0.0127
1085.00,0.0127
1084.00,0.0127
1083.00,0.0127
1082.00,0.0126
1081.00,0.0126
1080.00,0.0125
1079.00,0.0125
1078.00,0.0125
1077.00,0.0125
1076.00,0.0125
1075.00,0.0126
1074.00,0.0127
1073.00,0.0127
1072.00,0.0128
1071.00,0.0128
1070.00,0.0129
1069.00,0.0130
1068.00,0.0131
1067.00,0.0133
1066.00,0.0137
1065.00,0.0141
1064.00,0.0145
1063.00,0.0148
1062.00,0.0151
1061.00,0.0153
1060.00,0.0155
1059.00,0.0158
1058.00,0.0160
1057.00,0.0161
1056.00,0.0163
1055.00,0.0163
1054.00,0.0164
1053.00,0.0164
1052.00,0.0164
1051.00,0.0164
1050.00,0.0163
1049.00,0.0163
1048.00,0.0163
1047.00,0.0164
1046.00,0.0164
1045.00,0.0164
1044.00,0.0163
1043.00,0.0163
1042.00,0.0162
1041.00,0.0160
1040.00,0.0160
1039.00,0.0160
1038.00,0.0161
1037.00,0.0164
1036.00,0.0167
1035.00,0.0170
1034.00,0.0170
1033.00,0.0170
1032.00,0.0168
1031.00,0.0166
1030.00,0.0164
1029.00,0.0162
1028.00,0.0161
1027.00,0.0160
1026.00,0.0158
1025.00,0.0156
1024.00,0.0155
1023.00,0.0153
1022.00,0.0152
1021.00,0.0151
1020.00,0.0151
1019.00,0.0152
1018.00,0.0153
1017.00,0.0155
1016.00,0.0156
1015.00,0.0158
1014.00,0.0159
1013.00,0.0160
1012.00,0.0161
1011.00,0.0163
1010.00,0.0165
1009.00,0.0168
1008.00,0.0172
1007.00,0.0177
1006.00,0.0183
1005.00,0.0192
1004.00,0.0205
1003.00,0.0223
1002.00,0.0247
1001.00,0.0275
1000.00,0.0304
999.00,0.0328
998.00,0.0339
997.00,0.0332
996.00,0.0309
995.00,0.0279
994.00,0.0247
993.00,0.0219
992.00,0.0196
991.00,0.0180
990.00,0.0169
989.00,0.0162
988.00,0.0159
987.00,0.0157
986.00,0.0157
985.00,0.0159
984.00,0.0161
983.00,0.0167
982.00,0.0175
981.00,0.0186
980.00,0.0203
979.00,0.0225
978.00,0.0253
977.00,0.0285
976.00,0.0320
975.00,0.0352
974.00,0.0374
973.00,0.0378
972.00,0.0363
971.00,0.0330
970.00,0.0288
969.00,0.0247
968.00,0.0212
967.00,0.0185
966.00,0.0165
965.00,0.0151
964.00,0.0141
963.00,0.0133
962.00,0.0127
961.00,0.0122
960.00,0.0117
959.00,0.0114
958.00,0.0110
957.00,0.0108
956.00,0.0105
955.00,0.0102
954.00,0.0099
953.00,0.0097
952.00,0.0095
951.00,0.0094
950.00,0.0094
949.00,0.0093
948.00,0.0092
947.00,0.0091
946.00,0.0093
945.00,0.0096
944.00,0.0100
943.00,0.0105
942.00,0.0109
941.00,0.0111
940.00,0.0111
939.00,0.0108
938.00,0.0103
937.00,0.0098
936.00,0.0094
935.00,0.0090
934.00,0.0086
933.00,0.0083
932.00,0.0081
931.00,0.0079
930.00,0.0079
929.00,0.0078
928.00,0.0077
927.00,0.0077
926.00,0.0076
925.00,0.0076
924.00,0.0076
923.00,0.0077
922.00,0.0077
921.00,0.0077
920.00,0.0077
919.00,0.0078
918.00,0.0078
917.00,0.0079
916.00,0.0080
915.00,0.0081
914.00,0.0081
913.00,0.0082
912.00,0.0084
911.00,0.0086
910.00,0.0090
909.00,0.0093
908.00,0.0097
907.00,0.0102
906.00,0.0109
905.00,0.0118
904.00,0.0130
903.00,0.0147
902.00,0.0166
901.00,0.0185
900.00,0.0198
899.00,0.0202
898.00,0.0194
897.00,0.0178
896.00,0.0159
895.00,0.0141
894.00,0.0126
893.00,0.0113
892.00,0.0104
891.00,0.0098
890.00,0.0094
889.00,0.0092
888.00,0.0091
887.00,0.0090
886.00,0.0089
885.00,0.0088
884.00,0.0087
883.00,0.0086
882.00,0.0086
881.00,0.0087
880.00,0.0088
879.00,0.0089
878.00,0.0091
877.00,0.0092
876.00,0.0092
875.00,0.0092
874.00,0.0092
873.00,0.0092
872.00,0.0092
871.00,0.0092
870.00,0.0092
869.00,0.0091
868.00,0.0091
867.00,0.0090
866.00,0.0090
865.00,0.0090
864.00,0.0092
863.00,0.0093
862.00,0.0094
861.00,0.0094
860.00,0.0094
859.00,0.0095
858.00,0.0097
857.00,0.0099
856.00,0.0101
855.00,0.0102
854.00,0.0103
853.00,0.0105
852.00,0.0107
851.00,0.0109
850.00,0.0112
849.00,0.0116
848.00,0.0122
847.00,0.0131
846.00,0.0145
845.00,0.0169
844.00,0.0202
843.00,0.0241
842.00,0.0273
841.00,0.0282
840.00,0.0264
839.00,0.0229
838.00,0.0191
837.00,0.0161
836.00,0.0142
835.00,0.0130
834.00,0.0123
833.00,0.0119
832.00,0.0116
831.00,0.0115
830.00,0.0114
829.00,0.0113
828.00,0.0112
827.00,0.0111
826.00,0.0111
825.00,0.0110
824.00,0.0111
823.00,0.0111
822.00,0.0112
821.00,0.0113
820.00,0.0114
819.00,0.0117
818.00,0.0122
817.00,0.0129
816.00,0.0139
815.00,0.0151
814.00,0.0166
813.00,0.0185
812.00,0.0206
811.00,0.0225
810.00,0.0240
809.00,0.0245
808.00,0.0240
807.00,0.0227
806.00,0.0208
805.00,0.0189
804.00,0.0171
803.00,0.0157
802.00,0.0147
801.00,0.0139
800.00,0.0133
799.00,0.0128
798.00,0.0123
797.00,0.0119
796.00,0.0116
795.00,0.0113
794.00,0.0110
793.00,0.0108
792.00,0.0105
791.00,0.0103
790.00,0.0100
789.00,0.0098
788.00,0.0095
787.00,0.0092
786.00,0.0090
785.00,0.0087
784.00,0.0085
783.00,0.0085
782.00,0.0085
781.00,0.0084
780.00,0.0082
779.00,0.0081
778.00,0.0082
777.00,0.0082
776.00,0.0083
775.00,0.0082
774.00,0.0083
773.00,0.0084
772.00,0.0086
771.00,0.0088
770.00,0.0089
769.00,0.0089
768.00,0.0088
767.00,0.0087
766.00,0.0086
765.00,0.0084
764.00,0.0084
763.00,0.0084
762.00,0.0086
761.00,0.0088
760.00,0.0089
759.00,0.0089
758.00,0.0088
757.00,0.0088
756.00,0.0088
755.00,0.0089
754.00,0.0090
753.00,0.0093
752.00,0.0095
751.00,0.0098
750.00,0.0100
749.00,0.0102
748.00,0.0104
747.00,0.0105
746.00,0.0106
745.00,0.0106
744.00,0.0106
743.00,0.0108
742.00,0.0111
741.00,0.0115
740.00,0.0119
739.00,0.0122
738.00,0.0125
737.00,0.0129
736.00,0.0134
735.00,0.0140
734.00,0.0148
733.00,0.0155
732.00,0.0164
731.00,0.0174
730.00,0.0181
729.00,0.0186
728.00,0.0187
727.00,0.0187
726.00,0.0188
725.00,0.0190
724.00,0.0196
723.00,0.0203
722.00,0.0212
721.00,0.0218
720.00,0.0219
719.00,0.0212
718.00,0.0200
717.00,0.0186
716.00,0.0175
715.00,0.0166
714.00,0.0161
713.00,0.0156
712.00,0.0152
711.00,0.0148
710.00,0.0146
709.00,0.0146
708.00,0.0147
707.00,0.0148
706.00,0.0147
705.00,0.0145
704.00,0.0144
703.00,0.0143
702.00,0.0142
701.00,0.0140
700.00,0.0138
699.00,0.0136
698.00,0.0134
697.00,0.0132
696.00,0.0130
695.00,0.0129
694.00,0.0130
693.00,0.0130
692.00,0.0130
691.00,0.0129
690.00,0.0128
689.00,0.0127
688.00,0.0128
687.00,0.0130
686.00,0.0133
685.00,0.0134
684.00,0.0133
683.00,0.0132
682.00,0.0131
681.00,0.0132
680.00,0.0133
679.00,0.0134
678.00,0.0135
677.00,0.0136
676.00,0.0138
675.00,0.0139
674.00,0.0140
673.00,0.0140
672.00,0.0140
671.00,0.0140
670.00,0.0140
669.00,0.0141
668.00,0.0143
667.00,0.0144
666.00,0.0143
665.00,0.0141
664.00,0.0141
663.00,0.0142
662.00,0.0142
661.00,0.0141
660.00,0.0140
659.00,0.0138
658.00,0.0136
657.00,0.0134
656.00,0.0131
655.00,0.0128
654.00,0.0125
653.00,0.0124
652.00,0.0124
651.00,0.0127
650.00,0.0130
649.00,0.0133
648.00,0.0135
647.00,0.0135
646.00,0.0134
645.00,0.0132
644.00,0.0130
643.00,0.0128
642.00,0.0128
641.00,0.0130
640.00,0.0132
639.00,0.0133
638.00,0.0133
637.00,0.0134
636.00,0.0135
635.00,0.0135
634.00,0.0135
633.00,0.0135
632.00,0.0134
631.00,0.0133
630.00,0.0132
629.00,0.0133
628.00,0.0135
627.00,0.0137
626.00,0.0139
625.00,0.0141
624.00,0.0141
623.00,0.0141
622.00,0.0141
621.00,0.0141
620.00,0.0141
619.00,0.0141
618.00,0.0142
617.00,0.0142
616.00,0.0143
615.00,0.0142
614.00,0.0141
613.00,0.0139
612.00,0.0139
611.00,0.0140
610.00,0.0143
609.00,0.0144
608.00,0.0142
607.00,0.0139
606.00,0.0138
605.00,0.0139
604.00,0.0139
603.00,0.0137
602.00,0.0134
601.00,0.0133
600.00,0.0134
599.00,0.0136
598.00,0.0137
597.00,0.0138
596.00,0.0138
595.00,0.0137
594.00,0.0137
593.00,0.0136
592.00,0.0136
591.00,0.0135
590.00,0.0134
589.00,0.0133
588.00,0.0133
587.00,0.0134
586.00,0.0135
585.00,0.0137
584.00,0.0138
583.00,0.0141
582.00,0.0142
581.00,0.0141
580.00,0.0140
579.00,0.0140
578.00,0.0141
577.00,0.0143
576.00,0.0144
575.00,0.0145
574.00,0.0144
573.00,0.0143
572.00,0.0141
571.00,0.0140
570.00,0.0141
569.00,0.0142
568.00,0.0143
567.00,0.0142
566.00,0.0140
565.00,0.0138
564.00,0.0137
563.00,0.0137
562.00,0.0138
561.00,0.0141
560.00,0.0144
559.00,0.0145
558.00,0.0145
557.00,0.0143
556.00,0.0142
555.00,0.0142
554.00,0.0142
553.00,0.0142
552.00,0.0141
551.00,0.0138
550.00,0.0135
549.00,0.0130
548.00,0.0128
547.00,0.0129
546.00,0.0131
545.00,0.0131
544.00,0.0129
543.00,0.0128
542.00,0.0128
541.00,0.0128
540.00,0.0127
539.00,0.0126
538.00,0.0128
537.00,0.0132
536.00,0.0137
535.00,0.0140
534.00,0.0143
533.00,0.0144
532.00,0.0144
531.00,0.0144
530.00,0.0143
529.00,0.0143
528.00,0.0141
527.00,0.0137
526.00,0.0133
525.00,0.0129
524.00,0.0128
523.00,0.0130
522.00,0.0134
521.00,0.0140
520.00,0.0143
519.00,0.0142
518.00,0.0137
517.00,0.0133
516.00,0.0134
515.00,0.0138
514.00,0.0142
513.00,0.0142
512.00,0.0137
511.00,0.0133
510.00,0.0132
509.00,0.0134
508.00,0.0137
507.00,0.0137
506.00,0.0132
505.00,0.0127
504.00,0.0124
503.00,0.0125
502.00,0.0130
501.00,0.0132
500.00,0.0128
499.00,0.0119
498.00,0.0110
497.00,0.0106
496.00,0.0108
495.00,0.0111
494.00,0.0115
493.00,0.0119
492.00,0.0121
491.00,0.0118
490.00,0.0112
489.00,0.0105
488.00,0.0101
487.00,0.0100
486.00,0.0101
485.00,0.0102
484.00,0.0100
483.00,0.0098
482.00,0.0098
481.00,0.0102
480.00,0.0111
479.00,0.0122
478.00,0.0130
477.00,0.0135
476.00,0.0134
475.00,0.0130
474.00,0.0125
473.00,0.0121
472.00,0.0123
471.00,0.0125
470.00,0.0125
469.00,0.0124
468.00,0.0125
467.00,0.0130
466.00,0.0137
465.00,0.0143
464.00,0.0152
463.00,0.0165
462.00,0.0180
461.00,0.0192
460.00,0.0200
459.00,0.0205
458.00,0.0208
457.00,0.0207
456.00,0.0202
455.00,0.0193
454.00,0.0182
453.00,0.0172
452.00,0.0162
451.00,0.0151
450.00,0.0140
