Created as New Dataset,Sample 105 By Administrator Date Wednesday, September 03 2025
cm-1,A
4000.00,0.0010
3999.00,0.0010
3998.00,0.0011
3997.00,0.0011
3996.00,0.0011
3995.00,0.0011
3994.00,0.0011
3993.00,0.0011
3992.00,0.0011
3991.00,0.0010
3990.00,0.0010
3989.00,0.0010
3988.00,0.0010
3987.00,0.0010
3986.00,0.0010
3985.00,0.0010
3984.00,0.0009
3983.00,0.0010
3982.00,0.0010
3981.00,0.0010
3980.00,0.0010
3979.00,0.0010
3978.00,0.0010
3977.00,0.0009
3976.00,0.0009
3975.00,0.0009
3974.00,0.0009
3973.00,0.0009
3972.00,0.0009
3971.00,0.0010
3970.00,0.0010
3969.00,0.0009
3968.00,0.0009
3967.00,0.0009
3966.00,0.0009
3965.00,0.0009
3964.00,0.0009
3963.00,0.0010
3962.00,0.0010
3961.00,0.0010
3960.00,0.0009
3959.00,0.0009
3958.00,0.0008
3957.00,0.0008
3956.00,0.0008
3955.00,0.0008
3954.00,0.0008
3953.00,0.0008
3952.00,0.0008
3951.00,0.0008
3950.00,0.0008
3949.00,0.0008
3948.00,0.0008
3947.00,0.0008
3946.00,0.0009
3945.00,0.0009
3944.00,0.0009
3943.00,0.0009
3942.00,0.0009
3941.00,0.0009
3940.00,0.0009
3939.00,0.0009
3938.00,0.0009
3937.00,0.0009
3936.00,0.0009
3935.00,0.0009
3934.00,0.0009
3933.00,0.0009
3932.00,0.0009
3931.00,0.0009
3930.00,0.0009
3929.00,0.0009
3928.00,0.0009
3927.00,0.0009
3926.00,0.0009
3925.00,0.0009
3924.00,0.0009
3923.00,0.0009
3922.00,0.0009
3921.00,0.0009
3920.00,0.0009
3919.00,0.0009
3918.00,0.0008
3917.00,0.0008
3916.00,0.0008
3915.00,0.0008
3914.00,0.0008
3913.00,0.0008
3912.00,0.0009
3911.00,0.0009
3910.00,0.0009
3909.00,0.0009
3908.00,0.0009
3907.00,0.0009
3906.00,0.0009
3905.00,0.0009
3904.00,0.0008
3903.00,0.0008
3902.00,0.0008
3901.00,0.0009
3900.00,0.0009
3899.00,0.0009
3898.00,0.0009
3897.00,0.0008
3896.00,0.0008
3895.00,0.0008
3894.00,0.0008
3893.00,0.0008
3892.00,0.0008
3891.00,0.0008
3890.00,0.0008
3889.00,0.0008
3888.00,0.0009
3887.00,0.0009
3886.00,0.0009
3885.00,0.0008
3884.00,0.0008
3883.00,0.0008
3882.00,0.0008
3881.00,0.0009
3880.00,0.0009
3879.00,0.0009
3878.00,0.0009
3877.00,0.0009
3876.00,0.0010
3875.00,0.0009
3874.00,0.0009
3873.00,0.0009
3872.00,0.0009
3871.00,0.0009
3870.00,0.0009
3869.00,0.0009
3868.00,0.0009
3867.00,0.0009
3866.00,0.0009
3865.00,0.0009
3864.00,0.0009
3863.00,0.0009
3862.00,0.0010
3861.00,0.0010
3860.00,0.0010
3859.00,0.0009
3858.00,0.0009
3857.00,0.0009
3856.00,0.0010
3855.00,0.0010
3854.00,0.0010
3853.00,0.0010
3852.00,0.0010
3851.00,0.0010
3850.00,0.0010
3849.00,0.0010
3848.00,0.0009
3847.00,0.0008
3846.00,0.0008
3845.00,0.0008
3844.00,0.0007
3843.00,0.0007
3842.00,0.0007
3841.00,0.0008
3840.00,0.0008
3839.00,0.0008
3838.00,0.0008
3837.00,0.0008
3836.00,0.0008
3835.00,0.0008
3834.00,0.0008
3833.00,0.0008
3832.00,0.0008
3831.00,0.0008
3830.00,0.0008
3829.00,0.0008
3828.00,0.0008
3827.00,0.0007
3826.00,0.0007
3825.00,0.0007
3824.00,0.0007
3823.00,0.0007
3822.00,0.0008
3821.00,0.0008
3820.00,0.0008
3819.00,0.0009
3818.00,0.0009
3817.00,0.0009
3816.00,0.0009
3815.00,0.0009
3814.00,0.0009
3813.00,0.0009
3812.00,0.0009
3811.00,0.0009
3810.00,0.0009
3809.00,0.0009
3808.00,0.0009
3807.00,0.0009
3806.00,0.0009
3805.00,0.0010
3804.00,0.0010
3803.00,0.0010
3802.00,0.0010
3801.00,0.0009
3800.00,0.0009
3799.00,0.0009
3798.00,0.0009
3797.00,0.0009
3796.00,0.0008
3795.00,0.0009
3794.00,0.0009
3793.00,0.0009
3792.00,0.0009
3791.00,0.0009
3790.00,0.0009
3789.00,0.0009
3788.00,0.0009
3787.00,0.0009
3786.00,0.0009
3785.00,0.0009
3784.00,0.0009
3783.00,0.0009
3782.00,0.0009
3781.00,0.0009
3780.00,0.0009
3779.00,0.0009
3778.00,0.0009
3777.00,0.0009
3776.00,0.0009
3775.00,0.0008
3774.00,0.0008
3773.00,0.0008
3772.00,0.0008
3771.00,0.0008
3770.00,0.0008
3769.00,0.0008
3768.00,0.0008
3767.00,0.0009
3766.00,0.0009
3765.00,0.0009
3764.00,0.0009
3763.00,0.0009
3762.00,0.0009
3761.00,0.0009
3760.00,0.0009
3759.00,0.0009
3758.00,0.0009
3757.00,0.0009
3756.00,0.0009
3755.00,0.0009
3754.00,0.0009
3753.00,0.0009
3752.00,0.0008
3751.00,0.0009
3750.00,0.0009
3749.00,0.0009
3748.00,0.0009
3747.00,0.0009
3746.00,0.0009
3745.00,0.0009
3744.00,0.0010
3743.00,0.0009
3742.00,0.0010
3741.00,0.0009
3740.00,0.0009
3739.00,0.0008
3738.00,0.0008
3737.00,0.0008
3736.00,0.0008
3735.00,0.0007
3734.00,0.0007
3733.00,0.0006
3732.00,0.0006
3731.00,0.0006
3730.00,0.0007
3729.00,0.0007
3728.00,0.0007
3727.00,0.0006
3726.00,0.0006
3725.00,0.0006
3724.00,0.0006
3723.00,0.0006
3722.00,0.0006
3721.00,0.0006
3720.00,0.0006
3719.00,0.0006
3718.00,0.0006
3717.00,0.0006
3716.00,0.0006
3715.00,0.0007
3714.00,0.0007
3713.00,0.0007
3712.00,0.0007
3711.00,0.0007
3710.00,0.0007
3709.00,0.0007
3708.00,0.0006
3707.00,0.0006
3706.00,0.0006
3705.00,0.0006
3704.00,0.0006
3703.00,0.0006
3702.00,0.0006
3701.00,0.0006
3700.00,0.0006
3699.00,0.0006
3698.00,0.0006
3697.00,0.0006
3696.00,0.0006
3695.00,0.0006
3694.00,0.0006
3693.00,0.0006
3692.00,0.0006
3691.00,0.0006
3690.00,0.0007
3689.00,0.0007
3688.00,0.0008
3687.00,0.0008
3686.00,0.0008
3685.00,0.0007
3684.00,0.0007
3683.00,0.0006
3682.00,0.0006
3681.00,0.0007
3680.00,0.0007
3679.00,0.0007
3678.00,0.0007
3677.00,0.0007
3676.00,0.0007
3675.00,0.0007
3674.00,0.0008
3673.00,0.0008
3672.00,0.0009
3671.00,0.0009
3670.00,0.0009
3669.00,0.0009
3668.00,0.0009
3667.00,0.0009
3666.00,0.0008
3665.00,0.0007
3664.00,0.0007
3663.00,0.0007
3662.00,0.0007
3661.00,0.0007
3660.00,0.0007
3659.00,0.0008
3658.00,0.0008
3657.00,0.0008
3656.00,0.0007
3655.00,0.0007
3654.00,0.0007
3653.00,0.0007
3652.00,0.0007
3651.00,0.0007
3650.00,0.0007
3649.00,0.0007
3648.00,0.0007
3647.00,0.0008
3646.00,0.0008
3645.00,0.0008
3644.00,0.0008
3643.00,0.0008
3642.00,0.0008
3641.00,0.0008
3640.00,0.0008
3639.00,0.0008
3638.00,0.0007
3637.00,0.0007
3636.00,0.0006
3635.00,0.0006
3634.00,0.0006
3633.00,0.0006
3632.00,0.0006
3631.00,0.0007
3630.00,0.0007
3629.00,0.0007
3628.00,0.0007
3627.00,0.0007
3626.00,0.0008
3625.00,0.0008
3624.00,0.0008
3623.00,0.0008
3622.00,0.0007
3621.00,0.0007
3620.00,0.0007
3619.00,0.0007
3618.00,0.0007
3617.00,0.0008
3616.00,0.0008
3615.00,0.0009
3614.00,0.0009
3613.00,0.0009
3612.00,0.0009
3611.00,0.0009
3610.00,0.0009
3609.00,0.0009
3608.00,0.0009
3607.00,0.0010
3606.00,0.0010
3605.00,0.0010
3604.00,0.0010
3603.00,0.0010
3602.00,0.0009
3601.00,0.0009
3600.00,0.0009
3599.00,0.0009
3598.00,0.0009
3597.00,0.0009
3596.00,0.0009
3595.00,0.0009
3594.00,0.0009
3593.00,0.0009
3592.00,0.0009
3591.00,0.0009
3590.00,0.0009
3589.00,0.0009
3588.00,0.0009
3587.00,0.0009
3586.00,0.0009
3585.00,0.0009
3584.00,0.0010
3583.00,0.0010
3582.00,0.0010
3581.00,0.0010
3580.00,0.0010
3579.00,0.0010
3578.00,0.0011
3577.00,0.0011
3576.00,0.0012
3575.00,0.0012
3574.00,0.0012
3573.00,0.0012
3572.00,0.0012
3571.00,0.0012
3570.00,0.0012
3569.00,0.0012
3568.00,0.0012
3567.00,0.0012
3566.00,0.0012
3565.00,0.0012
3564.00,0.0012
3563.00,0.0012
3562.00,0.0012
3561.00,0.0012
3560.00,0.0012
3559.00,0.0013
3558.00,0.0013
3557.00,0.0013
3556.00,0.0013
3555.00,0.0013
3554.00,0.0013
3553.00,0.0013
3552.00,0.0013
3551.00,0.0014
3550.00,0.0014
3549.00,0.0014
3548.00,0.0015
3547.00,0.0016
3546.00,0.0016
3545.00,0.0016
3544.00,0.0016
3543.00,0.0016
3542.00,0.0016
3541.00,0.0016
3540.00,0.0016
3539.00,0.0016
3538.00,0.0015
3537.00,0.0015
3536.00,0.0015
3535.00,0.0015
3534.00,0.0015
3533.00,0.0015
3532.00,0.0016
3531.00,0.0016
3530.00,0.0016
3529.00,0.0016
3528.00,0.0016
3527.00,0.0016
3526.00,0.0016
3525.00,0.0016
3524.00,0.0015
3523.00,0.0015
3522.00,0.0015
3521.00,0.0016
3520.00,0.0016
3519.00,0.0016
3518.00,0.0016
3517.00,0.0016
3516.00,0.0016
3515.00,0.0017
3514.00,0.0017
3513.00,0.0017
3512.00,0.0017
3511.00,0.0017
3510.00,0.0017
3509.00,0.0017
3508.00,0.0018
3507.00,0.0018
3506.00,0.0018
3505.00,0.0018
3504.00,0.0018
3503.00,0.0018
3502.00,0.0019
3501.00,0.0019
3500.00,0.0019
3499.00,0.0019
3498.00,0.0019
3497.00,0.0019
3496.00,0.0019
3495.00,0.0019
3494.00,0.0019
3493.00,0.0019
3492.00,0.0019
3491.00,0.0019
3490.00,0.0019
3489.00,0.0019
3488.00,0.0019
3487.00,0.0019
3486.00,0.0020
3485.00,0.0020
3484.00,0.0020
3483.00,0.0020
3482.00,0.0021
3481.00,0.0020
3480.00,0.0020
3479.00,0.0020
3478.00,0.0021
3477.00,0.0021
3476.00,0.0021
3475.00,0.0020
3474.00,0.0020
3473.00,0.0020
3472.00,0.0019
3471.00,0.0019
3470.00,0.0020
3469.00,0.0020
3468.00,0.0021
3467.00,0.0021
3466.00,0.0021
3465.00,0.0021
3464.00,0.0021
3463.00,0.0021
3462.00,0.0021
3461.00,0.0021
3460.00,0.0022
3459.00,0.0022
3458.00,0.0022
3457.00,0.0023
3456.00,0.0023
3455.00,0.0023
3454.00,0.0023
3453.00,0.0022
3452.00,0.0022
3451.00,0.0022
3450.00,0.0023
3449.00,0.0023
3448.00,0.0023
3447.00,0.0023
3446.00,0.0023
3445.00,0.0024
3444.00,0.0024
3443.00,0.0024
3442.00,0.0024
3441.00,0.0025
3440.00,0.0025
3439.00,0.0024
3438.00,0.0024
3437.00,0.0024
3436.00,0.0024
3435.00,0.0025
3434.00,0.0025
3433.00,0.0025
3432.00,0.0026
3431.00,0.0026
3430.00,0.0026
3429.00,0.0025
3428.00,0.0025
3427.00,0.0026
3426.00,0.0026
3425.00,0.0027
3424.00,0.0027
3423.00,0.0027
3422.00,0.0027
3421.00,0.0027
3420.00,0.0027
3419.00,0.0027
3418.00,0.0027
3417.00,0.0027
3416.00,0.0026
3415.00,0.0026
3414.00,0.0026
3413.00,0.0027
3412.00,0.0027
3411.00,0.0027
3410.00,0.0027
3409.00,0.0027
3408.00,0.0027
3407.00,0.0027
3406.00,0.0028
3405.00,0.0027
3404.00,0.0027
3403.00,0.0027
3402.00,0.0027
3401.00,0.0027
3400.00,0.0027
3399.00,0.0027
3398.00,0.0027
3397.00,0.0027
3396.00,0.0026
3395.00,0.0026
3394.00,0.0026
3393.00,0.0027
3392.00,0.0027
3391.00,0.0027
3390.00,0.0027
3389.00,0.0026
3388.00,0.0026
3387.00,0.0027
3386.00,0.0027
3385.00,0.0027
3384.00,0.0027
3383.00,0.0027
3382.00,0.0027
3381.00,0.0027
3380.00,0.0027
3379.00,0.0027
3378.00,0.0027
3377.00,0.0027
3376.00,0.0027
3375.00,0.0027
3374.00,0.0027
3373.00,0.0027
3372.00,0.0027
3371.00,0.0027
3370.00,0.0027
3369.00,0.0027
3368.00,0.0027
3367.00,0.0028
3366.00,0.0028
3365.00,0.0028
3364.00,0.0028
3363.00,0.0028
3362.00,0.0028
3361.00,0.0028
3360.00,0.0029
3359.00,0.0029
3358.00,0.0029
3357.00,0.0029
3356.00,0.0029
3355.00,0.0029
3354.00,0.0029
3353.00,0.0029
3352.00,0.0029
3351.00,0.0029
3350.00,0.0029
3349.00,0.0029
3348.00,0.0029
3347.00,0.0029
3346.00,0.0029
3345.00,0.0029
3344.00,0.0029
3343.00,0.0029
3342.00,0.0029
3341.00,0.0029
3340.00,0.0029
3339.00,0.0029
3338.00,0.0029
3337.00,0.0028
3336.00,0.0028
3335.00,0.0028
3334.00,0.0028
3333.00,0.0028
3332.00,0.0028
3331.00,0.0028
3330.00,0.0028
3329.00,0.0027
3328.00,0.0027
3327.00,0.0027
3326.00,0.0027
3325.00,0.0027
3324.00,0.0027
3323.00,0.0026
3322.00,0.0026
3321.00,0.0026
3320.00,0.0026
3319.00,0.0027
3318.00,0.0027
3317.00,0.0027
3316.00,0.0027
3315.00,0.0027
3314.00,0.0027
3313.00,0.0027
3312.00,0.0027
3311.00,0.0027
3310.00,0.0027
3309.00,0.0028
3308.00,0.0029
3307.00,0.0029
3306.00,0.0029
3305.00,0.0029
3304.00,0.0029
3303.00,0.0029
3302.00,0.0029
3301.00,0.0029
3300.00,0.0028
3299.00,0.0028
3298.00,0.0028
3297.00,0.0028
3296.00,0.0028
3295.00,0.0027
3294.00,0.0027
3293.00,0.0027
3292.00,0.0027
3291.00,0.0027
3290.00,0.0027
3289.00,0.0026
3288.00,0.0027
3287.00,0.0027
3286.00,0.0026
3285.00,0.0026
3284.00,0.0026
3283.00,0.0026
3282.00,0.0027
3281.00,0.0027
3280.00,0.0027
3279.00,0.0026
3278.00,0.0026
3277.00,0.0026
3276.00,0.0026
3275.00,0.0025
3274.00,0.0025
3273.00,0.0025
3272.00,0.0025
3271.00,0.0025
3270.00,0.0025
3269.00,0.0025
3268.00,0.0025
3267.00,0.0025
3266.00,0.0025
3265.00,0.0025
3264.00,0.0025
3263.00,0.0025
3262.00,0.0025
3261.00,0.0025
3260.00,0.0025
3259.00,0.0025
3258.00,0.0025
3257.00,0.0025
3256.00,0.0024
3255.00,0.0024
3254.00,0.0023
3253.00,0.0023
3252.00,0.0023
3251.00,0.0024
3250.00,0.0024
3249.00,0.0024
3248.00,0.0024
3247.00,0.0024
3246.00,0.0024
3245.00,0.0024
3244.00,0.0024
3243.00,0.0023
3242.00,0.0023
3241.00,0.0023
3240.00,0.0023
3239.00,0.0023
3238.00,0.0023
3237.00,0.0023
3236.00,0.0023
3235.00,0.0023
3234.00,0.0024
3233.00,0.0024
3232.00,0.0024
3231.00,0.0025
3230.00,0.0025
3229.00,0.0026
3228.00,0.0026
3227.00,0.0026
3226.00,0.0026
3225.00,0.0026
3224.00,0.0026
3223.00,0.0026
3222.00,0.0027
3221.00,0.0027
3220.00,0.0027
3219.00,0.0027
3218.00,0.0027
3217.00,0.0028
3216.00,0.0028
3215.00,0.0029
3214.00,0.0029
3213.00,0.0029
3212.00,0.0029
3211.00,0.0029
3210.00,0.0029
3209.00,0.0029
3208.00,0.0029
3207.00,0.0030
3206.00,0.0030
3205.00,0.0030
3204.00,0.0030
3203.00,0.0031
3202.00,0.0031
3201.00,0.0031
3200.00,0.0031
3199.00,0.0031
3198.00,0.0031
3197.00,0.0031
3196.00,0.0031
3195.00,0.0031
3194.00,0.0031
3193.00,0.0030
3192.00,0.0030
3191.00,0.0030
3190.00,0.0030
3189.00,0.0030
3188.00,0.0030
3187.00,0.0030
3186.00,0.0030
3185.00,0.0030
3184.00,0.0030
3183.00,0.0030
3182.00,0.0029
3181.00,0.0029
3180.00,0.0028
3179.00,0.0028
3178.00,0.0028
3177.00,0.0028
3176.00,0.0028
3175.00,0.0028
3174.00,0.0029
3173.00,0.0029
3172.00,0.0029
3171.00,0.0028
3170.00,0.0028
3169.00,0.0028
3168.00,0.0028
3167.00,0.0028
3166.00,0.0029
3165.00,0.0029
3164.00,0.0029
3163.00,0.0028
3162.00,0.0028
3161.00,0.0028
3160.00,0.0028
3159.00,0.0028
3158.00,0.0028
3157.00,0.0028
3156.00,0.0028
3155.00,0.0028
3154.00,0.0028
3153.00,0.0028
3152.00,0.0028
3151.00,0.0028
3150.00,0.0028
3149.00,0.0028
3148.00,0.0028
3147.00,0.0028
3146.00,0.0029
3145.00,0.0028
3144.00,0.0028
3143.00,0.0028
3142.00,0.0027
3141.00,0.0027
3140.00,0.0027
3139.00,0.0028
3138.00,0.0028
3137.00,0.0028
3136.00,0.0028
3135.00,0.0027
3134.00,0.0027
3133.00,0.0027
3132.00,0.0027
3131.00,0.0026
3130.00,0.0026
3129.00,0.0026
3128.00,0.0026
3127.00,0.0026
3126.00,0.0026
3125.00,0.0026
3124.00,0.0026
3123.00,0.0025
3122.00,0.0025
3121.00,0.0025
3120.00,0.0025
3119.00,0.0025
3118.00,0.0025
3117.00,0.0025
3116.00,0.0025
3115.00,0.0025
3114.00,0.0024
3113.00,0.0024
3112.00,0.0024
3111.00,0.0024
3110.00,0.0023
3109.00,0.0023
3108.00,0.0023
3107.00,0.0023
3106.00,0.0023
3105.00,0.0023
3104.00,0.0024
3103.00,0.0024
3102.00,0.0024
3101.00,0.0024
3100.00,0.0024
3099.00,0.0024
3098.00,0.0024
3097.00,0.0024
3096.00,0.0024
3095.00,0.0024
3094.00,0.0024
3093.00,0.0024
3092.00,0.0024
3091.00,0.0023
3090.00,0.0023
3089.00,0.0023
3088.00,0.0023
3087.00,0.0023
3086.00,0.0024
3085.00,0.0024
3084.00,0.0024
3083.00,0.0024
3082.00,0.0024
3081.00,0.0024
3080.00,0.0024
3079.00,0.0024
3078.00,0.0024
3077.00,0.0024
3076.00,0.0024
3075.00,0.0024
3074.00,0.0025
3073.00,0.0025
3072.00,0.0025
3071.00,0.0025
3070.00,0.0025
3069.00,0.0025
3068.00,0.0026
3067.00,0.0026
3066.00,0.0026
3065.00,0.0026
3064.00,0.0027
3063.00,0.0027
3062.00,0.0027
3061.00,0.0027
3060.00,0.0027
3059.00,0.0027
3058.00,0.0027
3057.00,0.0028
3056.00,0.0028
3055.00,0.0028
3054.00,0.0028
3053.00,0.0028
3052.00,0.0029
3051.00,0.0029
3050.00,0.0029
3049.00,0.0029
3048.00,0.0029
3047.00,0.0030
3046.00,0.0030
3045.00,0.0030
3044.00,0.0030
3043.00,0.0030
3042.00,0.0030
3041.00,0.0031
3040.00,0.0032
3039.00,0.0032
3038.00,0.0033
3037.00,0.0033
3036.00,0.0033
3035.00,0.0033
3034.00,0.0033
3033.00,0.0033
3032.00,0.0033
3031.00,0.0034
3030.00,0.0034
3029.00,0.0035
3028.00,0.0036
3027.00,0.0036
3026.00,0.0036
3025.00,0.0037
3024.00,0.0037
3023.00,0.0038
3022.00,0.0039
3021.00,0.0039
3020.00,0.0040
3019.00,0.0041
3018.00,0.0042
3017.00,0.0043
3016.00,0.0045
3015.00,0.0046
3014.00,0.0047
3013.00,0.0048
3012.00,0.0050
3011.00,0.0051
3010.00,0.0053
3009.00,0.0055
3008.00,0.0057
3007.00,0.0059
3006.00,0.0061
3005.00,0.0063
3004.00,0.0065
3003.00,0.0067
3002.00,0.0070
3001.00,0.0072
3000.00,0.0075
2999.00,0.0078
2998.00,0.0081
2997.00,0.0085
2996.00,0.0089
2995.00,0.0093
2994.00,0.0098
2993.00,0.0102
2992.00,0.0108
2991.00,0.0113
2990.00,0.0120
2989.00,0.0127
2988.00,0.0135
2987.00,0.0144
2986.00,0.0154
2985.00,0.0166
2984.00,0.0179
2983.00,0.0194
2982.00,0.0210
2981.00,0.0228
2980.00,0.0248
2979.00,0.0271
2978.00,0.0297
2977.00,0.0326
2976.00,0.0360
2975.00,0.0399
2974.00,0.0445
2973.00,0.0497
2972.00,0.0556
2971.00,0.0623
2970.00,0.0697
2969.00,0.0780
2968.00,0.0871
2967.00,0.0970
2966.00,0.1076
2965.00,0.1188
2964.00,0.1302
2963.00,0.1412
2962.00,0.1514
2961.00,0.1600
2960.00,0.1669
2959.00,0.1720
2958.00,0.1755
2957.00,0.1781
2956.00,0.1802
2955.00,0.1824
2954.00,0.1850
2953.00,0.1875
2952.00,0.1894
2951.00,0.1899
2950.00,0.1879
2949.00,0.1830
2948.00,0.1751
2947.00,0.1647
2946.00,0.1529
2945.00,0.1408
2944.00,0.1295
2943.00,0.1199
2942.00,0.1124
2941.00,0.1073
2940.00,0.1045
2939.00,0.1037
2938.00,0.1049
2937.00,0.1077
2936.00,0.1120
2935.00,0.1177
2934.00,0.1247
2933.00,0.1328
2932.00,0.1419
2931.00,0.1517
2930.00,0.1620
2929.00,0.1725
2928.00,0.1829
2927.00,0.1929
2926.00,0.2026
2925.00,0.2118
2924.00,0.2208
2923.00,0.2295
2922.00,0.2378
2921.00,0.2456
2920.00,0.2522
2919.00,0.2570
2918.00,0.2592
2917.00,0.2583
2916.00,0.2541
2915.00,0.2473
2914.00,0.2388
2913.00,0.2296
2912.00,0.2207
2911.00,0.2127
2910.00,0.2058
2909.00,0.1997
2908.00,0.1942
2907.00,0.1889
2906.00,0.1835
2905.00,0.1778
2904.00,0.1717
2903.00,0.1653
2902.00,0.1588
2901.00,0.1523
2900.00,0.1459
2899.00,0.1397
2898.00,0.1339
2897.00,0.1284
2896.00,0.1236
2895.00,0.1193
2894.00,0.1156
2893.00,0.1126
2892.00,0.1102
2891.00,0.1082
2890.00,0.1067
2889.00,0.1056
2888.00,0.1049
2887.00,0.1045
2886.00,0.1045
2885.00,0.1048
2884.00,0.1055
2883.00,0.1066
2882.00,0.1080
2881.00,0.1095
2880.00,0.1110
2879.00,0.1122
2878.00,0.1128
2877.00,0.1128
2876.00,0.1122
2875.00,0.1115
2874.00,0.1110
2873.00,0.1109
2872.00,0.1116
2871.00,0.1129
2870.00,0.1145
2869.00,0.1159
2868.00,0.1167
2867.00,0.1160
2866.00,0.1135
2865.00,0.1090
2864.00,0.1030
2863.00,0.0964
2862.00,0.0899
2861.00,0.0844
2860.00,0.0802
2859.00,0.0775
2858.00,0.0762
2857.00,0.0762
2856.00,0.0772
2855.00,0.0789
2854.00,0.0813
2853.00,0.0839
2852.00,0.0866
2851.00,0.0890
2850.00,0.0907
2849.00,0.0918
2848.00,0.0926
2847.00,0.0937
2846.00,0.0955
2845.00,0.0985
2844.00,0.1027
2843.00,0.1078
2842.00,0.1133
2841.00,0.1186
2840.00,0.1227
2839.00,0.1249
2838.00,0.1244
2837.00,0.1207
2836.00,0.1141
2835.00,0.1049
2834.00,0.0943
2833.00,0.0834
2832.00,0.0729
2831.00,0.0637
2830.00,0.0559
2829.00,0.0495
2828.00,0.0443
2827.00,0.0401
2826.00,0.0366
2825.00,0.0338
2824.00,0.0314
2823.00,0.0294
2822.00,0.0276
2821.00,0.0261
2820.00,0.0248
2819.00,0.0236
2818.00,0.0226
2817.00,0.0218
2816.00,0.0210
2815.00,0.0203
2814.00,0.0196
2813.00,0.0190
2812.00,0.0185
2811.00,0.0180
2810.00,0.0175
2809.00,0.0169
2808.00,0.0164
2807.00,0.0158
2806.00,0.0152
2805.00,0.0146
2804.00,0.0139
2803.00,0.0133
2802.00,0.0128
2801.00,0.0124
2800.00,0.0120
2799.00,0.0117
2798.00,0.0114
2797.00,0.0112
2796.00,0.0110
2795.00,0.0108
2794.00,0.0105
2793.00,0.0102
2792.00,0.0099
2791.00,0.0096
2790.00,0.0093
2789.00,0.0089
2788.00,0.0086
2787.00,0.0082
2786.00,0.0079
2785.00,0.0077
2784.00,0.0075
2783.00,0.0072
2782.00,0.0070
2781.00,0.0068
2780.00,0.0066
2779.00,0.0065
2778.00,0.0063
2777.00,0.0062
2776.00,0.0060
2775.00,0.0060
2774.00,0.0059
2773.00,0.0058
2772.00,0.0057
2771.00,0.0057
2770.00,0.0056
2769.00,0.0056
2768.00,0.0055
2767.00,0.0055
2766.00,0.0054
2765.00,0.0054
2764.00,0.0054
2763.00,0.0054
2762.00,0.0053
2761.00,0.0053
2760.00,0.0052
2759.00,0.0052
2758.00,0.0051
2757.00,0.0051
2756.00,0.0051
2755.00,0.0051
2754.00,0.0052
2753.00,0.0052
2752.00,0.0052
2751.00,0.0051
2750.00,0.0051
2749.00,0.0051
2748.00,0.0051
2747.00,0.0052
2746.00,0.0052
2745.00,0.0052
2744.00,0.0053
2743.00,0.0054
2742.00,0.0055
2741.00,0.0056
2740.00,0.0057
2739.00,0.0058
2738.00,0.0058
2737.00,0.0059
2736.00,0.0060
2735.00,0.0061
2734.00,0.0063
2733.00,0.0065
2732.00,0.0066
2731.00,0.0068
2730.00,0.0070
2729.00,0.0073
2728.00,0.0075
2727.00,0.0078
2726.00,0.0081
2725.00,0.0083
2724.00,0.0085
2723.00,0.0085
2722.00,0.0084
2721.00,0.0082
2720.00,0.0080
2719.00,0.0077
2718.00,0.0074
2717.00,0.0071
2716.00,0.0068
2715.00,0.0065
2714.00,0.0063
2713.00,0.0061
2712.00,0.0059
2711.00,0.0058
2710.00,0.0056
2709.00,0.0054
2708.00,0.0053
2707.00,0.0052
2706.00,0.0051
2705.00,0.0050
2704.00,0.0049
2703.00,0.0048
2702.00,0.0047
2701.00,0.0046
2700.00,0.0046
2699.00,0.0045
2698.00,0.0045
2697.00,0.0045
2696.00,0.0045
2695.00,0.0045
2694.00,0.0046
2693.00,0.0046
2692.00,0.0046
2691.00,0.0046
2690.00,0.0046
2689.00,0.0046
2688.00,0.0046
2687.00,0.0046
2686.00,0.0046
2685.00,0.0046
2684.00,0.0046
2683.00,0.0045
2682.00,0.0045
2681.00,0.0046
2680.00,0.0046
2679.00,0.0045
2678.00,0.0045
2677.00,0.0045
2676.00,0.0045
2675.00,0.0045
2674.00,0.0045
2673.00,0.0045
2672.00,0.0045
2671.00,0.0045
2670.00,0.0045
2669.00,0.0045
2668.00,0.0045
2667.00,0.0046
2666.00,0.0046
2665.00,0.0047
2664.00,0.0047
2663.00,0.0047
2662.00,0.0048
2661.00,0.0048
2660.00,0.0048
2659.00,0.0048
2658.00,0.0048
2657.00,0.0048
2656.00,0.0048
2655.00,0.0047
2654.00,0.0046
2653.00,0.0046
2652.00,0.0045
2651.00,0.0044
2650.00,0.0044
2649.00,0.0043
2648.00,0.0043
2647.00,0.0043
2646.00,0.0042
2645.00,0.0042
2644.00,0.0042
2643.00,0.0042
2642.00,0.0041
2641.00,0.0041
2640.00,0.0040
2639.00,0.0039
2638.00,0.0039
2637.00,0.0038
2636.00,0.0038
2635.00,0.0039
2634.00,0.0039
2633.00,0.0039
2632.00,0.0039
2631.00,0.0039
2630.00,0.0039
2629.00,0.0040
2628.00,0.0040
2627.00,0.0040
2626.00,0.0040
2625.00,0.0040
2624.00,0.0040
2623.00,0.0039
2622.00,0.0039
2621.00,0.0040
2620.00,0.0040
2619.00,0.0040
2618.00,0.0040
2617.00,0.0040
2616.00,0.0040
2615.00,0.0040
2614.00,0.0040
2613.00,0.0040
2612.00,0.0040
2611.00,0.0039
2610.00,0.0039
2609.00,0.0038
2608.00,0.0037
2607.00,0.0035
2606.00,0.0034
2605.00,0.0033
2604.00,0.0033
2603.00,0.0032
2602.00,0.0032
2601.00,0.0032
2600.00,0.0032
2599.00,0.0032
2598.00,0.0032
2597.00,0.0032
2596.00,0.0032
2595.00,0.0032
2594.00,0.0032
2593.00,0.0032
2592.00,0.0033
2591.00,0.0033
2590.00,0.0034
2589.00,0.0035
2588.00,0.0035
2587.00,0.0036
2586.00,0.0037
2585.00,0.0037
2584.00,0.0038
2583.00,0.0038
2582.00,0.0037
2581.00,0.0036
2580.00,0.0036
2579.00,0.0035
2578.00,0.0034
2577.00,0.0033
2576.00,0.0032
2575.00,0.0032
2574.00,0.0031
2573.00,0.0031
2572.00,0.0031
2571.00,0.0030
2570.00,0.0030
2569.00,0.0029
2568.00,0.0028
2567.00,0.0027
2566.00,0.0026
2565.00,0.0025
2564.00,0.0024
2563.00,0.0024
2562.00,0.0024
2561.00,0.0023
2560.00,0.0023
2559.00,0.0023
2558.00,0.0023
2557.00,0.0023
2556.00,0.0023
2555.00,0.0023
2554.00,0.0022
2553.00,0.0021
2552.00,0.0021
2551.00,0.0021
2550.00,0.0021
2549.00,0.0021
2548.00,0.0020
2547.00,0.0020
2546.00,0.0019
2545.00,0.0018
2544.00,0.0018
2543.00,0.0018
2542.00,0.0018
2541.00,0.0018
2540.00,0.0018
2539.00,0.0018
2538.00,0.0018
2537.00,0.0018
2536.00,0.0018
2535.00,0.0018
2534.00,0.0017
2533.00,0.0017
2532.00,0.0017
2531.00,0.0016
2530.00,0.0016
2529.00,0.0015
2528.00,0.0015
2527.00,0.0014
2526.00,0.0014
2525.00,0.0014
2524.00,0.0015
2523.00,0.0015
2522.00,0.0014
2521.00,0.0014
2520.00,0.0013
2519.00,0.0013
2518.00,0.0012
2517.00,0.0012
2516.00,0.0012
2515.00,0.0012
2514.00,0.0012
2513.00,0.0012
2512.00,0.0012
2511.00,0.0012
2510.00,0.0012
2509.00,0.0012
2508.00,0.0011
2507.00,0.0011
2506.00,0.0010
2505.00,0.0010
2504.00,0.0010
2503.00,0.0010
2502.00,0.0010
2501.00,0.0010
2500.00,0.0010
2499.00,0.0010
2498.00,0.0011
2497.00,0.0011
2496.00,0.0011
2495.00,0.0011
2494.00,0.0012
2493.00,0.0011
2492.00,0.0011
2491.00,0.0010
2490.00,0.0010
2489.00,0.0010
2488.00,0.0011
2487.00,0.0011
2486.00,0.0011
2485.00,0.0010
2484.00,0.0010
2483.00,0.0010
2482.00,0.0010
2481.00,0.0010
2480.00,0.0010
2479.00,0.0010
2478.00,0.0010
2477.00,0.0010
2476.00,0.0011
2475.00,0.0010
2474.00,0.0009
2473.00,0.0009
2472.00,0.0009
2471.00,0.0009
2470.00,0.0009
2469.00,0.0010
2468.00,0.0010
2467.00,0.0010
2466.00,0.0010
2465.00,0.0009
2464.00,0.0010
2463.00,0.0010
2462.00,0.0010
2461.00,0.0011
2460.00,0.0011
2459.00,0.0011
2458.00,0.0011
2457.00,0.0011
2456.00,0.0011
2455.00,0.0012
2454.00,0.0012
2453.00,0.0012
2452.00,0.0011
2451.00,0.0010
2450.00,0.0010
2449.00,0.0009
2448.00,0.0010
2447.00,0.0010
2446.00,0.0010
2445.00,0.0010
2444.00,0.0011
2443.00,0.0011
2442.00,0.0012
2441.00,0.0012
2440.00,0.0012
2439.00,0.0012
2438.00,0.0012
2437.00,0.0012
2436.00,0.0012
2435.00,0.0012
2434.00,0.0012
2433.00,0.0012
2432.00,0.0012
2431.00,0.0013
2430.00,0.0013
2429.00,0.0014
2428.00,0.0014
2427.00,0.0013
2426.00,0.0013
2425.00,0.0012
2424.00,0.0012
2423.00,0.0012
2422.00,0.0012
2421.00,0.0011
2420.00,0.0010
2419.00,0.0010
2418.00,0.0009
2417.00,0.0009
2416.00,0.0010
2415.00,0.0011
2414.00,0.0011
2413.00,0.0011
2412.00,0.0011
2411.00,0.0011
2410.00,0.0011
2409.00,0.0011
2408.00,0.0011
2407.00,0.0011
2406.00,0.0011
2405.00,0.0010
2404.00,0.0009
2403.00,0.0008
2402.00,0.0008
2401.00,0.0008
2400.00,0.0009
2399.00,0.0009
2398.00,0.0009
2397.00,0.0008
2396.00,0.0008
2395.00,0.0008
2394.00,0.0009
2393.00,0.0009
2392.00,0.0009
2391.00,0.0010
2390.00,0.0009
2389.00,0.0009
2388.00,0.0008
2387.00,0.0008
2386.00,0.0008
2385.00,0.0007
2384.00,0.0007
2383.00,0.0006
2382.00,0.0005
2381.00,0.0004
2380.00,0.0003
2379.00,0.0003
2378.00,0.0002
2377.00,0.0002
2376.00,0.0003
2375.00,0.0003
2374.00,0.0003
2373.00,0.0003
2372.00,0.0003
2371.00,0.0003
2370.00,0.0003
2369.00,0.0003
2368.00,0.0002
2367.00,0.0002
2366.00,0.0002
2365.00,0.0001
2364.00,0.0002
2363.00,0.0002
2362.00,0.0002
2361.00,0.0002
2360.00,0.0002
2359.00,0.0002
2358.00,0.0002
2357.00,0.0002
2356.00,0.0002
2355.00,0.0002
2354.00,0.0003
2353.00,0.0003
2352.00,0.0003
2351.00,0.0003
2350.00,0.0002
2349.00,0.0002
2348.00,0.0003
2347.00,0.0004
2346.00,0.0004
2345.00,0.0004
2344.00,0.0004
2343.00,0.0004
2342.00,0.0004
2341.00,0.0004
2340.00,0.0004
2339.00,0.0004
2338.00,0.0004
2337.00,0.0005
2336.00,0.0005
2335.00,0.0006
2334.00,0.0006
2333.00,0.0006
2332.00,0.0006
2331.00,0.0006
2330.00,0.0006
2329.00,0.0006
2328.00,0.0008
2327.00,0.0011
2326.00,0.0015
2325.00,0.0018
2324.00,0.0019
2323.00,0.0017
2322.00,0.0015
2321.00,0.0013
2320.00,0.0011
2319.00,0.0011
2318.00,0.0010
2317.00,0.0010
2316.00,0.0010
2315.00,0.0009
2314.00,0.0008
2313.00,0.0008
2312.00,0.0007
2311.00,0.0007
2310.00,0.0006
2309.00,0.0005
2308.00,0.0005
2307.00,0.0005
2306.00,0.0006
2305.00,0.0006
2304.00,0.0007
2303.00,0.0008
2302.00,0.0009
2301.00,0.0009
2300.00,0.0009
2299.00,0.0009
2298.00,0.0009
2297.00,0.0010
2296.00,0.0011
2295.00,0.0012
2294.00,0.0013
2293.00,0.0014
2292.00,0.0015
2291.00,0.0016
2290.00,0.0018
2289.00,0.0018
2288.00,0.0018
2287.00,0.0017
2286.00,0.0017
2285.00,0.0016
2284.00,0.0016
2283.00,0.0015
2282.00,0.0015
2281.00,0.0014
2280.00,0.0014
2279.00,0.0013
2278.00,0.0014
2277.00,0.0014
2276.00,0.0015
2275.00,0.0015
2274.00,0.0014
2273.00,0.0013
2272.00,0.0013
2271.00,0.0013
2270.00,0.0012
2269.00,0.0012
2268.00,0.0012
2267.00,0.0011
2266.00,0.0010
2265.00,0.0009
2264.00,0.0010
2263.00,0.0010
2262.00,0.0011
2261.00,0.0012
2260.00,0.0013
2259.00,0.0013
2258.00,0.0013
2257.00,0.0013
2256.00,0.0012
2255.00,0.0010
2254.00,0.0009
2253.00,0.0008
2252.00,0.0008
2251.00,0.0009
2250.00,0.0009
2249.00,0.0009
2248.00,0.0008
2247.00,0.0007
2246.00,0.0007
2245.00,0.0008
2244.00,0.0010
2243.00,0.0012
2242.00,0.0012
2241.00,0.0011
2240.00,0.0010
2239.00,0.0009
2238.00,0.0009
2237.00,0.0010
2236.00,0.0011
2235.00,0.0012
2234.00,0.0011
2233.00,0.0010
2232.00,0.0008
2231.00,0.0006
2230.00,0.0006
2229.00,0.0007
2228.00,0.0008
2227.00,0.0009
2226.00,0.0010
2225.00,0.0010
2224.00,0.0010
2223.00,0.0009
2222.00,0.0008
2221.00,0.0006
2220.00,0.0005
2219.00,0.0004
2218.00,0.0003
2217.00,0.0003
2216.00,0.0004
2215.00,0.0004
2214.00,0.0005
2213.00,0.0005
2212.00,0.0005
2211.00,0.0005
2210.00,0.0004
2209.00,0.0004
2208.00,0.0004
2207.00,0.0004
2206.00,0.0003
2205.00,0.0001
2204.00,0.0001
2203.00,0.0001
2202.00,0.0001
2201.00,0.0003
2200.00,0.0004
2199.00,0.0004
2198.00,0.0005
2197.00,0.0005
2196.00,0.0006
2195.00,0.0006
2194.00,0.0006
2193.00,0.0006
2192.00,0.0007
2191.00,0.0009
2190.00,0.0009
2189.00,0.0011
2188.00,0.0013
2187.00,0.0015
2186.00,0.0016
2185.00,0.0016
2184.00,0.0015
2183.00,0.0013
2182.00,0.0012
2181.00,0.0010
2180.00,0.0009
2179.00,0.0007
2178.00,0.0004
2177.00,0.0002
2176.00,-0.0000
2175.00,-0.0002
2174.00,-0.0002
2173.00,-0.0000
2172.00,0.0004
2171.00,0.0008
2170.00,0.0011
2169.00,0.0012
2168.00,0.0012
2167.00,0.0012
2166.00,0.0012
2165.00,0.0011
2164.00,0.0011
2163.00,0.0011
2162.00,0.0012
2161.00,0.0010
2160.00,0.0004
2159.00,-0.0008
2158.00,-0.0020
2157.00,-0.0028
2156.00,-0.0031
2155.00,-0.0029
2154.00,-0.0025
2153.00,-0.0019
2152.00,-0.0013
2151.00,-0.0010
2150.00,-0.0011
2149.00,-0.0012
2148.00,-0.0014
2147.00,-0.0013
2146.00,-0.0011
2145.00,-0.0009
2144.00,-0.0009
2143.00,-0.0011
2142.00,-0.0013
2141.00,-0.0015
2140.00,-0.0016
2139.00,-0.0016
2138.00,-0.0016
2137.00,-0.0016
2136.00,-0.0016
2135.00,-0.0017
2134.00,-0.0017
2133.00,-0.0016
2132.00,-0.0013
2131.00,-0.0010
2130.00,-0.0007
2129.00,-0.0005
2128.00,-0.0004
2127.00,-0.0004
2126.00,-0.0004
2125.00,-0.0004
2124.00,-0.0004
2123.00,-0.0003
2122.00,-0.0003
2121.00,-0.0003
2120.00,-0.0002
2119.00,-0.0001
2118.00,0.0000
2117.00,0.0002
2116.00,0.0003
2115.00,0.0003
2114.00,0.0003
2113.00,0.0003
2112.00,0.0003
2111.00,0.0003
2110.00,0.0004
2109.00,0.0005
2108.00,0.0007
2107.00,0.0007
2106.00,0.0005
2105.00,0.0002
2104.00,-0.0000
2103.00,-0.0002
2102.00,-0.0003
2101.00,-0.0002
2100.00,-0.0001
2099.00,0.0001
2098.00,0.0002
2097.00,0.0002
2096.00,0.0001
2095.00,-0.0001
2094.00,-0.0001
2093.00,-0.0001
2092.00,0.0001
2091.00,0.0002
2090.00,0.0003
2089.00,0.0003
2088.00,0.0002
2087.00,0.0001
2086.00,0.0001
2085.00,0.0001
2084.00,0.0001
2083.00,0.0002
2082.00,0.0004
2081.00,0.0006
2080.00,0.0007
2079.00,0.0008
2078.00,0.0008
2077.00,0.0008
2076.00,0.0007
2075.00,0.0006
2074.00,0.0004
2073.00,0.0002
2072.00,0.0002
2071.00,0.0001
2070.00,0.0002
2069.00,0.0002
2068.00,0.0002
2067.00,0.0002
2066.00,0.0002
2065.00,0.0002
2064.00,0.0002
2063.00,0.0002
2062.00,0.0003
2061.00,0.0003
2060.00,0.0003
2059.00,0.0003
2058.00,0.0004
2057.00,0.0004
2056.00,0.0004
2055.00,0.0002
2054.00,0.0002
2053.00,0.0004
2052.00,0.0010
2051.00,0.0014
2050.00,0.0014
2049.00,0.0011
2048.00,0.0007
2047.00,0.0005
2046.00,0.0004
2045.00,0.0003
2044.00,0.0002
2043.00,0.0000
2042.00,-0.0001
2041.00,-0.0000
2040.00,0.0002
2039.00,0.0004
2038.00,0.0004
2037.00,0.0003
2036.00,0.0002
2035.00,0.0001
2034.00,0.0001
2033.00,0.0001
2032.00,0.0000
2031.00,-0.0001
2030.00,-0.0003
2029.00,-0.0005
2028.00,-0.0007
2027.00,-0.0008
2026.00,-0.0008
2025.00,-0.0007
2024.00,-0.0006
2023.00,-0.0005
2022.00,-0.0006
2021.00,-0.0006
2020.00,-0.0006
2019.00,-0.0005
2018.00,-0.0004
2017.00,-0.0003
2016.00,-0.0003
2015.00,-0.0005
2014.00,-0.0006
2013.00,-0.0007
2012.00,-0.0008
2011.00,-0.0008
2010.00,-0.0010
2009.00,-0.0012
2008.00,-0.0015
2007.00,-0.0018
2006.00,-0.0020
2005.00,-0.0020
2004.00,-0.0018
2003.00,-0.0016
2002.00,-0.0014
2001.00,-0.0014
2000.00,-0.0014
1999.00,-0.0015
1998.00,-0.0016
1997.00,-0.0015
1996.00,-0.0015
1995.00,-0.0014
1994.00,-0.0014
1993.00,-0.0012
1992.00,-0.0009
1991.00,-0.0005
1990.00,-0.0002
1989.00,-0.0001
1988.00,-0.0001
1987.00,-0.0002
1986.00,-0.0004
1985.00,-0.0005
1984.00,-0.0004
1983.00,-0.0002
1982.00,0.0003
1981.00,0.0007
1980.00,0.0008
1979.00,0.0006
1978.00,0.0001
1977.00,-0.0003
1976.00,-0.0006
1975.00,-0.0007
1974.00,-0.0008
1973.00,-0.0010
1972.00,-0.0011
1971.00,-0.0012
1970.00,-0.0011
1969.00,-0.0010
1968.00,-0.0010
1967.00,-0.0010
1966.00,-0.0011
1965.00,-0.0012
1964.00,-0.0012
1963.00,-0.0012
1962.00,-0.0011
1961.00,-0.0011
1960.00,-0.0012
1959.00,-0.0013
1958.00,-0.0014
1957.00,-0.0014
1956.00,-0.0014
1955.00,-0.0014
1954.00,-0.0014
1953.00,-0.0015
1952.00,-0.0015
1951.00,-0.0017
1950.00,-0.0018
1949.00,-0.0019
1948.00,-0.0018
1947.00,-0.0018
1946.00,-0.0018
1945.00,-0.0018
1944.00,-0.0018
1943.00,-0.0017
1942.00,-0.0016
1941.00,-0.0014
1940.00,-0.0012
1939.00,-0.0011
1938.00,-0.0010
1937.00,-0.0008
1936.00,-0.0007
1935.00,-0.0006
1934.00,-0.0008
1933.00,-0.0009
1932.00,-0.0010
1931.00,-0.0010
1930.00,-0.0010
1929.00,-0.0009
1928.00,-0.0008
1927.00,-0.0008
1926.00,-0.0007
1925.00,-0.0007
1924.00,-0.0005
1923.00,-0.0003
1922.00,-0.0002
1921.00,-0.0001
1920.00,-0.0002
1919.00,-0.0004
1918.00,-0.0005
1917.00,-0.0006
1916.00,-0.0005
1915.00,-0.0004
1914.00,-0.0003
1913.00,-0.0002
1912.00,-0.0001
1911.00,-0.0001
1910.00,-0.0002
1909.00,-0.0002
1908.00,-0.0001
1907.00,-0.0000
1906.00,0.0000
1905.00,-0.0000
1904.00,-0.0001
1903.00,-0.0001
1902.00,-0.0001
1901.00,-0.0000
1900.00,0.0000
1899.00,0.0000
1898.00,-0.0000
1897.00,-0.0001
1896.00,-0.0001
1895.00,-0.0001
1894.00,-0.0001
1893.00,-0.0000
1892.00,0.0000
1891.00,0.0001
1890.00,0.0001
1889.00,0.0001
1888.00,0.0001
1887.00,-0.0000
1886.00,-0.0001
1885.00,-0.0002
1884.00,-0.0002
1883.00,-0.0002
1882.00,-0.0002
1881.00,-0.0001
1880.00,-0.0000
1879.00,-0.0001
1878.00,-0.0001
1877.00,-0.0002
1876.00,-0.0002
1875.00,-0.0002
1874.00,-0.0002
1873.00,-0.0002
1872.00,-0.0001
1871.00,-0.0000
1870.00,0.0001
1869.00,0.0001
1868.00,0.0002
1867.00,0.0002
1866.00,0.0002
1865.00,0.0002
1864.00,0.0001
1863.00,-0.0001
1862.00,-0.0002
1861.00,-0.0002
1860.00,-0.0002
1859.00,-0.0001
1858.00,0.0001
1857.00,0.0002
1856.00,0.0002
1855.00,0.0001
1854.00,0.0001
1853.00,0.0000
1852.00,0.0000
1851.00,0.0000
1850.00,0.0001
1849.00,0.0002
1848.00,0.0002
1847.00,0.0002
1846.00,0.0003
1845.00,0.0003
1844.00,0.0004
1843.00,0.0004
1842.00,0.0003
1841.00,0.0003
1840.00,0.0003
1839.00,0.0003
1838.00,0.0004
1837.00,0.0004
1836.00,0.0004
1835.00,0.0004
1834.00,0.0003
1833.00,0.0004
1832.00,0.0004
1831.00,0.0005
1830.00,0.0006
1829.00,0.0006
1828.00,0.0006
1827.00,0.0005
1826.00,0.0005
1825.00,0.0005
1824.00,0.0004
1823.00,0.0004
1822.00,0.0004
1821.00,0.0003
1820.00,0.0003
1819.00,0.0003
1818.00,0.0002
1817.00,0.0002
1816.00,0.0002
1815.00,0.0002
1814.00,0.0003
1813.00,0.0003
1812.00,0.0004
1811.00,0.0004
1810.00,0.0004
1809.00,0.0004
1808.00,0.0004
1807.00,0.0004
1806.00,0.0005
1805.00,0.0005
1804.00,0.0006
1803.00,0.0006
1802.00,0.0006
1801.00,0.0007
1800.00,0.0007
1799.00,0.0007
1798.00,0.0007
1797.00,0.0006
1796.00,0.0006
1795.00,0.0006
1794.00,0.0005
1793.00,0.0006
1792.00,0.0006
1791.00,0.0007
1790.00,0.0008
1789.00,0.0008
1788.00,0.0008
1787.00,0.0009
1786.00,0.0009
1785.00,0.0009
1784.00,0.0009
1783.00,0.0009
1782.00,0.0009
1781.00,0.0009
1780.00,0.0009
1779.00,0.0009
1778.00,0.0009
1777.00,0.0009
1776.00,0.0009
1775.00,0.0009
1774.00,0.0009
1773.00,0.0010
1772.00,0.0010
1771.00,0.0010
1770.00,0.0010
1769.00,0.0011
1768.00,0.0011
1767.00,0.0011
1766.00,0.0011
1765.00,0.0011
1764.00,0.0012
1763.00,0.0012
1762.00,0.0012
1761.00,0.0013
1760.00,0.0013
1759.00,0.0014
1758.00,0.0014
1757.00,0.0015
1756.00,0.0015
1755.00,0.0016
1754.00,0.0016
1753.00,0.0016
1752.00,0.0017
1751.00,0.0018
1750.00,0.0019
1749.00,0.0019
1748.00,0.0019
1747.00,0.0019
1746.00,0.0019
1745.00,0.0018
1744.00,0.0018
1743.00,0.0018
1742.00,0.0018
1741.00,0.0019
1740.00,0.0019
1739.00,0.0019
1738.00,0.0019
1737.00,0.0019
1736.00,0.0020
1735.00,0.0020
1734.00,0.0019
1733.00,0.0019
1732.00,0.0018
1731.00,0.0018
1730.00,0.0019
1729.00,0.0019
1728.00,0.0020
1727.00,0.0020
1726.00,0.0020
1725.00,0.0020
1724.00,0.0020
1723.00,0.0021
1722.00,0.0021
1721.00,0.0021
1720.00,0.0021
1719.00,0.0021
1718.00,0.0021
1717.00,0.0020
1716.00,0.0020
1715.00,0.0019
1714.00,0.0019
1713.00,0.0019
1712.00,0.0019
1711.00,0.0019
1710.00,0.0020
1709.00,0.0021
1708.00,0.0021
1707.00,0.0021
1706.00,0.0021
1705.00,0.0022
1704.00,0.0023
1703.00,0.0023
1702.00,0.0024
1701.00,0.0024
1700.00,0.0025
1699.00,0.0025
1698.00,0.0026
1697.00,0.0026
1696.00,0.0026
1695.00,0.0026
1694.00,0.0026
1693.00,0.0026
1692.00,0.0027
1691.00,0.0027
1690.00,0.0027
1689.00,0.0027
1688.00,0.0028
1687.00,0.0028
1686.00,0.0027
1685.00,0.0027
1684.00,0.0027
1683.00,0.0028
1682.00,0.0028
1681.00,0.0029
1680.00,0.0029
1679.00,0.0030
1678.00,0.0030
1677.00,0.0030
1676.00,0.0031
1675.00,0.0031
1674.00,0.0032
1673.00,0.0032
1672.00,0.0032
1671.00,0.0032
1670.00,0.0032
1669.00,0.0033
1668.00,0.0033
1667.00,0.0034
1666.00,0.0034
1665.00,0.0034
1664.00,0.0035
1663.00,0.0035
1662.00,0.0036
1661.00,0.0036
1660.00,0.0037
1659.00,0.0037
1658.00,0.0037
1657.00,0.0037
1656.00,0.0038
1655.00,0.0039
1654.00,0.0040
1653.00,0.0041
1652.00,0.0041
1651.00,0.0041
1650.00,0.0041
1649.00,0.0042
1648.00,0.0043
1647.00,0.0043
1646.00,0.0044
1645.00,0.0044
1644.00,0.0044
1643.00,0.0044
1642.00,0.0045
1641.00,0.0045
1640.00,0.0046
1639.00,0.0046
1638.00,0.0047
1637.00,0.0048
1636.00,0.0049
1635.00,0.0049
1634.00,0.0048
1633.00,0.0048
1632.00,0.0048
1631.00,0.0048
1630.00,0.0047
1629.00,0.0047
1628.00,0.0047
1627.00,0.0047
1626.00,0.0047
1625.00,0.0047
1624.00,0.0047
1623.00,0.0046
1622.00,0.0045
1621.00,0.0045
1620.00,0.0045
1619.00,0.0045
1618.00,0.0045
1617.00,0.0044
1616.00,0.0044
1615.00,0.0044
1614.00,0.0043
1613.00,0.0043
1612.00,0.0043
1611.00,0.0042
1610.00,0.0042
1609.00,0.0042
1608.00,0.0042
1607.00,0.0042
1606.00,0.0042
1605.00,0.0042
1604.00,0.0043
1603.00,0.0043
1602.00,0.0043
1601.00,0.0043
1600.00,0.0043
1599.00,0.0044
1598.00,0.0044
1597.00,0.0044
1596.00,0.0045
1595.00,0.0045
1594.00,0.0045
1593.00,0.0046
1592.00,0.0047
1591.00,0.0049
1590.00,0.0050
1589.00,0.0052
1588.00,0.0054
1587.00,0.0057
1586.00,0.0060
1585.00,0.0064
1584.00,0.0068
1583.00,0.0073
1582.00,0.0078
1581.00,0.0083
1580.00,0.0088
1579.00,0.0091
1578.00,0.0094
1577.00,0.0095
1576.00,0.0094
1575.00,0.0092
1574.00,0.0089
1573.00,0.0086
1572.00,0.0083
1571.00,0.0079
1570.00,0.0075
1569.00,0.0071
1568.00,0.0068
1567.00,0.0066
1566.00,0.0064
1565.00,0.0062
1564.00,0.0060
1563.00,0.0060
1562.00,0.0059
1561.00,0.0059
1560.00,0.0059
1559.00,0.0059
1558.00,0.0059
1557.00,0.0060
1556.00,0.0061
1555.00,0.0062
1554.00,0.0063
1553.00,0.0065
1552.00,0.0066
1551.00,0.0068
1550.00,0.0071
1549.00,0.0075
1548.00,0.0078
1547.00,0.0083
1546.00,0.0088
1545.00,0.0094
1544.00,0.0100
1543.00,0.0105
1542.00,0.0109
1541.00,0.0111
1540.00,0.0110
1539.00,0.0105
1538.00,0.0099
1537.00,0.0094
1536.00,0.0090
1535.00,0.0085
1534.00,0.0079
1533.00,0.0073
1532.00,0.0068
1531.00,0.0064
1530.00,0.0062
1529.00,0.0061
1528.00,0.0060
1527.00,0.0059
1526.00,0.0057
1525.00,0.0057
1524.00,0.0057
1523.00,0.0056
1522.00,0.0056
1521.00,0.0056
1520.00,0.0056
1519.00,0.0056
1518.00,0.0056
1517.00,0.0056
1516.00,0.0057
1515.00,0.0057
1514.00,0.0057
1513.00,0.0058
1512.00,0.0058
1511.00,0.0059
1510.00,0.0060
1509.00,0.0061
1508.00,0.0063
1507.00,0.0064
1506.00,0.0065
1505.00,0.0065
1504.00,0.0066
1503.00,0.0067
1502.00,0.0068
1501.00,0.0071
1500.00,0.0073
1499.00,0.0076
1498.00,0.0078
1497.00,0.0081
1496.00,0.0084
1495.00,0.0086
1494.00,0.0088
1493.00,0.0092
1492.00,0.0096
1491.00,0.0099
1490.00,0.0104
1489.00,0.0109
1488.00,0.0116
1487.00,0.0121
1486.00,0.0127
1485.00,0.0135
1484.00,0.0144
1483.00,0.0154
1482.00,0.0165
1481.00,0.0179
1480.00,0.0194
1479.00,0.0208
1478.00,0.0225
1477.00,0.0248
1476.00,0.0274
1475.00,0.0305
1474.00,0.0344
1473.00,0.0398
1472.00,0.0461
1471.00,0.0522
1470.00,0.0581
1469.00,0.0644
1468.00,0.0711
1467.00,0.0785
1466.00,0.0867
1465.00,0.0955
1464.00,0.1031
1463.00,0.1084
1462.00,0.1118
1461.00,0.1142
1460.00,0.1159
1459.00,0.1171
1458.00,0.1182
1457.00,0.1192
1456.00,0.1195
1455.00,0.1192
1454.00,0.1184
1453.00,0.1169
1452.00,0.1145
1451.00,0.1110
1450.00,0.1061
1449.00,0.0992
1448.00,0.0904
1447.00,0.0810
1446.00,0.0723
1445.00,0.0647
1444.00,0.0582
1443.00,0.0528
1442.00,0.0486
1441.00,0.0458
1440.00,0.0440
1439.00,0.0431
1438.00,0.0429
1437.00,0.0427
1436.00,0.0415
1435.00,0.0390
1434.00,0.0356
1433.00,0.0316
1432.00,0.0275
1431.00,0.0237
1430.00,0.0208
1429.00,0.0186
1428.00,0.0171
1427.00,0.0161
1426.00,0.0155
1425.00,0.0149
1424.00,0.0144
1423.00,0.0141
1422.00,0.0140
1421.00,0.0137
1420.00,0.0134
1419.00,0.0131
1418.00,0.0128
1417.00,0.0125
1416.00,0.0121
1415.00,0.0119
1414.00,0.0117
1413.00,0.0116
1412.00,0.0114
1411.00,0.0113
1410.00,0.0112
1409.00,0.0111
1408.00,0.0110
1407.00,0.0110
1406.00,0.0110
1405.00,0.0109
1404.00,0.0108
1403.00,0.0109
1402.00,0.0110
1401.00,0.0111
1400.00,0.0112
1399.00,0.0114
1398.00,0.0117
1397.00,0.0119
1396.00,0.0121
1395.00,0.0124
1394.00,0.0128
1393.00,0.0133
1392.00,0.0138
1391.00,0.0146
1390.00,0.0156
1389.00,0.0170
1388.00,0.0191
1387.00,0.0223
1386.00,0.0266
1385.00,0.0323
1384.00,0.0400
1383.00,0.0508
1382.00,0.0652
1381.00,0.0833
1380.00,0.1051
1379.00,0.1290
1378.00,0.1509
1377.00,0.1659
1376.00,0.1694
1375.00,0.1593
1374.00,0.1387
1373.00,0.1147
1372.00,0.0930
1371.00,0.0752
1370.00,0.0610
1369.00,0.0503
1368.00,0.0429
1367.00,0.0382
1366.00,0.0357
1365.00,0.0346
1364.00,0.0347
1363.00,0.0358
1362.00,0.0375
1361.00,0.0393
1360.00,0.0407
1359.00,0.0411
1358.00,0.0402
1357.00,0.0380
1356.00,0.0348
1355.00,0.0313
1354.00,0.0279
1353.00,0.0250
1352.00,0.0226
1351.00,0.0206
1350.00,0.0190
1349.00,0.0176
1348.00,0.0164
1347.00,0.0155
1346.00,0.0147
1345.00,0.0140
1344.00,0.0135
1343.00,0.0130
1342.00,0.0127
1341.00,0.0124
1340.00,0.0121
1339.00,0.0119
1338.00,0.0117
1337.00,0.0117
1336.00,0.0118
1335.00,0.0119
1334.00,0.0122
1333.00,0.0126
1332.00,0.0130
1331.00,0.0132
1330.00,0.0133
1329.00,0.0132
1328.00,0.0129
1327.00,0.0125
1326.00,0.0120
1325.00,0.0115
1324.00,0.0109
1323.00,0.0105
1322.00,0.0101
1321.00,0.0098
1320.00,0.0096
1319.00,0.0094
1318.00,0.0093
1317.00,0.0091
1316.00,0.0090
1315.00,0.0090
1314.00,0.0089
1313.00,0.0090
1312.00,0.0091
1311.00,0.0094
1310.00,0.0098
1309.00,0.0106
1308.00,0.0117
1307.00,0.0132
1306.00,0.0145
1305.00,0.0155
1304.00,0.0157
1303.00,0.0152
1302.00,0.0144
1301.00,0.0136
1300.00,0.0130
1299.00,0.0128
1298.00,0.0127
1297.00,0.0126
1296.00,0.0125
1295.00,0.0122
1294.00,0.0119
1293.00,0.0114
1292.00,0.0109
1291.00,0.0104
1290.00,0.0100
1289.00,0.0096
1288.00,0.0093
1287.00,0.0091
1286.00,0.0089
1285.00,0.0087
1284.00,0.0085
1283.00,0.0084
1282.00,0.0083
1281.00,0.0082
1280.00,0.0081
1279.00,0.0081
1278.00,0.0081
1277.00,0.0080
1276.00,0.0080
1275.00,0.0079
1274.00,0.0079
1273.00,0.0079
1272.00,0.0079
1271.00,0.0081
1270.00,0.0082
1269.00,0.0084
1268.00,0.0086
1267.00,0.0088
1266.00,0.0091
1265.00,0.0094
1264.00,0.0097
1263.00,0.0101
1262.00,0.0105
1261.00,0.0110
1260.00,0.0116
1259.00,0.0124
1258.00,0.0133
1257.00,0.0140
1256.00,0.0144
1255.00,0.0141
1254.00,0.0134
1253.00,0.0124
1252.00,0.0113
1251.00,0.0105
1250.00,0.0098
1249.00,0.0093
1248.00,0.0090
1247.00,0.0087
1246.00,0.0085
1245.00,0.0084
1244.00,0.0083
1243.00,0.0082
1242.00,0.0081
1241.00,0.0079
1240.00,0.0078
1239.00,0.0078
1238.00,0.0077
1237.00,0.0077
1236.00,0.0077
1235.00,0.0077
1234.00,0.0077
1233.00,0.0078
1232.00,0.0079
1231.00,0.0080
1230.00,0.0081
1229.00,0.0082
1228.00,0.0083
1227.00,0.0085
1226.00,0.0087
1225.00,0.0090
1224.00,0.0093
1223.00,0.0097
1222.00,0.0100
1221.00,0.0103
1220.00,0.0104
1219.00,0.0104
1218.00,0.0104
1217.00,0.0103
1216.00,0.0101
1215.00,0.0099
1214.00,0.0096
1213.00,0.0093
1212.00,0.0091
1211.00,0.0088
1210.00,0.0087
1209.00,0.0085
1208.00,0.0085
1207.00,0.0084
1206.00,0.0084
1205.00,0.0083
1204.00,0.0083
1203.00,0.0083
1202.00,0.0083
1201.00,0.0084
1200.00,0.0084
1199.00,0.0084
1198.00,0.0084
1197.00,0.0084
1196.00,0.0083
1195.00,0.0084
1194.00,0.0084
1193.00,0.0083
1192.00,0.0083
1191.00,0.0083
1190.00,0.0083
1189.00,0.0084
1188.00,0.0084
1187.00,0.0085
1186.00,0.0086
1185.00,0.0087
1184.00,0.0088
1183.00,0.0089
1182.00,0.0091
1181.00,0.0095
1180.00,0.0099
1179.00,0.0104
1178.00,0.0111
1177.00,0.0121
1176.00,0.0134
1175.00,0.0152
1174.00,0.0175
1173.00,0.0204
1172.00,0.0240
1171.00,0.0280
1170.00,0.0318
1169.00,0.0350
1168.00,0.0368
1167.00,0.0371
1166.00,0.0360
1165.00,0.0339
1164.00,0.0315
1163.00,0.0291
1162.00,0.0270
1161.00,0.0253
1160.00,0.0240
1159.00,0.0231
1158.00,0.0224
1157.00,0.0218
1156.00,0.0213
1155.00,0.0209
1154.00,0.0205
1153.00,0.0201
1152.00,0.0196
1151.00,0.0188
1150.00,0.0179
1149.00,0.0168
1148.00,0.0158
1147.00,0.0148
1146.00,0.0140
1145.00,0.0131
1144.00,0.0124
1143.00,0.0116
1142.00,0.0110
1141.00,0.0105
1140.00,0.0100
1139.00,0.0096
1138.00,0.0092
1137.00,0.0090
1136.00,0.0087
1135.00,0.0086
1134.00,0.0084
1133.00,0.0083
1132.00,0.0083
1131.00,0.0082
1130.00,0.0083
1129.00,0.0083
1128.00,0.0084
1127.00,0.0084
1126.00,0.0084
1125.00,0.0083
1124.00,0.0082
1123.00,0.0082
1122.00,0.0081
1121.00,0.0081
1120.00,0.0081
1119.00,0.0082
1118.00,0.0082
1117.00,0.0083
1116.00,0.0084
1115.00,0.0086
1114.00,0.0088
1113.00,0.0089
1112.00,0.0091
1111.00,0.0094
1110.00,0.0097
1109.00,0.0100
1108.00,0.0104
1107.00,0.0108
1106.00,0.0113
1105.00,0.0119
1104.00,0.0123
1103.00,0.0126
1102.00,0.0126
1101.00,0.0122
1100.00,0.0116
1099.00,0.0110
1098.00,0.0104
1097.00,0.0099
1096.00,0.0094
1095.00,0.0091
1094.00,0.0089
1093.00,0.0088
1092.00,0.0086
1091.00,0.0084
1090.00,0.0082
1089.00,0.0080
1088.00,0.0079
1087.00,0.0078
1086.00,0.0078
1085.00,0.0079
1084.00,0.0079
1083.00,0.0079
1082.00,0.0078
1081.00,0.0077
1080.00,0.0076
1079.00,0.0075
1078.00,0.0075
1077.00,0.0074
1076.00,0.0074
1075.00,0.0074
1074.00,0.0073
1073.00,0.0072
1072.00,0.0071
1071.00,0.0072
1070.00,0.0073
1069.00,0.0073
1068.00,0.0073
1067.00,0.0073
1066.00,0.0073
1065.00,0.0073
1064.00,0.0073
1063.00,0.0074
1062.00,0.0074
1061.00,0.0074
1060.00,0.0073
1059.00,0.0073
1058.00,0.0073
1057.00,0.0074
1056.00,0.0076
1055.00,0.0077
1054.00,0.0078
1053.00,0.0078
1052.00,0.0079
1051.00,0.0081
1050.00,0.0083
1049.00,0.0086
1048.00,0.0089
1047.00,0.0093
1046.00,0.0097
1045.00,0.0100
1044.00,0.0101
1043.00,0.0100
1042.00,0.0098
1041.00,0.0095
1040.00,0.0092
1039.00,0.0092
1038.00,0.0093
1037.00,0.0094
1036.00,0.0095
1035.00,0.0093
1034.00,0.0091
1033.00,0.0087
1032.00,0.0084
1031.00,0.0081
1030.00,0.0080
1029.00,0.0080
1028.00,0.0080
1027.00,0.0080
1026.00,0.0080
1025.00,0.0080
1024.00,0.0081
1023.00,0.0082
1022.00,0.0083
1021.00,0.0084
1020.00,0.0085
1019.00,0.0087
1018.00,0.0089
1017.00,0.0091
1016.00,0.0093
1015.00,0.0096
1014.00,0.0099
1013.00,0.0102
1012.00,0.0104
1011.00,0.0107
1010.00,0.0110
1009.00,0.0114
1008.00,0.0119
1007.00,0.0126
1006.00,0.0137
1005.00,0.0151
1004.00,0.0171
1003.00,0.0199
1002.00,0.0236
1001.00,0.0283
1000.00,0.0335
999.00,0.0379
998.00,0.0404
997.00,0.0399
996.00,0.0367
995.00,0.0319
994.00,0.0267
993.00,0.0222
992.00,0.0186
991.00,0.0160
990.00,0.0143
989.00,0.0131
988.00,0.0125
987.00,0.0121
986.00,0.0120
985.00,0.0121
984.00,0.0125
983.00,0.0132
982.00,0.0144
981.00,0.0162
980.00,0.0186
979.00,0.0219
978.00,0.0261
977.00,0.0310
976.00,0.0365
975.00,0.0419
974.00,0.0461
973.00,0.0479
972.00,0.0465
971.00,0.0422
970.00,0.0360
969.00,0.0297
968.00,0.0242
967.00,0.0200
966.00,0.0170
965.00,0.0149
964.00,0.0133
963.00,0.0121
962.00,0.0111
961.00,0.0105
960.00,0.0100
959.00,0.0096
958.00,0.0093
957.00,0.0090
956.00,0.0087
955.00,0.0085
954.00,0.0084
953.00,0.0083
952.00,0.0082
951.00,0.0081
950.00,0.0080
949.00,0.0079
948.00,0.0079
947.00,0.0079
946.00,0.0080
945.00,0.0081
944.00,0.0083
943.00,0.0085
942.00,0.0088
941.00,0.0090
940.00,0.0091
939.00,0.0089
938.00,0.0086
937.00,0.0081
936.00,0.0077
935.00,0.0072
934.00,0.0068
933.00,0.0065
932.00,0.0064
931.00,0.0064
930.00,0.0064
929.00,0.0063
928.00,0.0063
927.00,0.0061
926.00,0.0060
925.00,0.0060
924.00,0.0060
923.00,0.0060
922.00,0.0060
921.00,0.0059
920.00,0.0058
919.00,0.0059
918.00,0.0059
917.00,0.0060
916.00,0.0060
915.00,0.0060
914.00,0.0060
913.00,0.0061
912.00,0.0063
911.00,0.0065
910.00,0.0068
909.00,0.0071
908.00,0.0074
907.00,0.0078
906.00,0.0084
905.00,0.0092
904.00,0.0104
903.00,0.0119
902.00,0.0136
901.00,0.0151
900.00,0.0161
899.00,0.0163
898.00,0.0157
897.00,0.0144
896.00,0.0127
895.00,0.0111
894.00,0.0098
893.00,0.0087
892.00,0.0080
891.00,0.0076
890.00,0.0074
889.00,0.0074
888.00,0.0074
887.00,0.0074
886.00,0.0073
885.00,0.0072
884.00,0.0071
883.00,0.0070
882.00,0.0070
881.00,0.0071
880.00,0.0071
879.00,0.0072
878.00,0.0073
877.00,0.0073
876.00,0.0072
875.00,0.0072
874.00,0.0071
873.00,0.0071
872.00,0.0070
871.00,0.0070
870.00,0.0071
869.00,0.0072
868.00,0.0073
867.00,0.0075
866.00,0.0075
865.00,0.0076
864.00,0.0076
863.00,0.0078
862.00,0.0080
861.00,0.0081
860.00,0.0083
859.00,0.0085
858.00,0.0088
857.00,0.0090
856.00,0.0092
855.00,0.0094
854.00,0.0096
853.00,0.0099
852.00,0.0102
851.00,0.0107
850.00,0.0113
849.00,0.0121
848.00,0.0132
847.00,0.0148
846.00,0.0173
845.00,0.0212
844.00,0.0269
843.00,0.0337
842.00,0.0393
841.00,0.0415
840.00,0.0390
839.00,0.0331
838.00,0.0265
837.00,0.0211
836.00,0.0175
835.00,0.0152
834.00,0.0137
833.00,0.0127
832.00,0.0120
831.00,0.0115
830.00,0.0112
829.00,0.0110
828.00,0.0108
827.00,0.0106
826.00,0.0105
825.00,0.0104
824.00,0.0105
823.00,0.0105
822.00,0.0105
821.00,0.0106
820.00,0.0106
819.00,0.0108
818.00,0.0110
817.00,0.0115
816.00,0.0122
815.00,0.0132
814.00,0.0145
813.00,0.0161
812.00,0.0178
811.00,0.0194
810.00,0.0206
809.00,0.0210
808.00,0.0206
807.00,0.0195
806.00,0.0180
805.00,0.0164
804.00,0.0150
803.00,0.0139
802.00,0.0131
801.00,0.0125
800.00,0.0120
799.00,0.0115
798.00,0.0110
797.00,0.0106
796.00,0.0102
795.00,0.0099
794.00,0.0096
793.00,0.0093
792.00,0.0089
791.00,0.0085
790.00,0.0082
789.00,0.0079
788.00,0.0076
787.00,0.0075
786.00,0.0074
785.00,0.0073
784.00,0.0071
783.00,0.0068
782.00,0.0064
781.00,0.0062
780.00,0.0062
779.00,0.0063
778.00,0.0064
777.00,0.0065
776.00,0.0064
775.00,0.0063
774.00,0.0063
773.00,0.0063
772.00,0.0064
771.00,0.0065
770.00,0.0067
769.00,0.0068
768.00,0.0068
767.00,0.0067
766.00,0.0067
765.00,0.0067
764.00,0.0067
763.00,0.0067
762.00,0.0068
761.00,0.0067
760.00,0.0067
759.00,0.0068
758.00,0.0068
757.00,0.0069
756.00,0.0069
755.00,0.0069
754.00,0.0070
753.00,0.0072
752.00,0.0074
751.00,0.0077
750.00,0.0079
749.00,0.0080
748.00,0.0081
747.00,0.0082
746.00,0.0083
745.00,0.0084
744.00,0.0085
743.00,0.0086
742.00,0.0089
741.00,0.0093
740.00,0.0097
739.00,0.0099
738.00,0.0101
737.00,0.0103
736.00,0.0106
735.00,0.0111
734.00,0.0116
733.00,0.0123
732.00,0.0131
731.00,0.0139
730.00,0.0145
729.00,0.0148
728.00,0.0149
727.00,0.0151
726.00,0.0154
725.00,0.0159
724.00,0.0165
723.00,0.0172
722.00,0.0177
721.00,0.0180
720.00,0.0178
719.00,0.0170
718.00,0.0159
717.00,0.0146
716.00,0.0134
715.00,0.0124
714.00,0.0117
713.00,0.0112
712.00,0.0109
711.00,0.0106
710.00,0.0104
709.00,0.0101
708.00,0.0098
707.00,0.0095
706.00,0.0093
705.00,0.0092
704.00,0.0092
703.00,0.0093
702.00,0.0094
701.00,0.0093
700.00,0.0091
699.00,0.0089
698.00,0.0088
697.00,0.0089
696.00,0.0089
695.00,0.0089
694.00,0.0088
693.00,0.0088
692.00,0.0088
691.00,0.0088
690.00,0.0089
689.00,0.0089
688.00,0.0088
687.00,0.0087
686.00,0.0087
685.00,0.0088
684.00,0.0089
683.00,0.0091
682.00,0.0092
681.00,0.0091
680.00,0.0089
679.00,0.0087
678.00,0.0086
677.00,0.0086
676.00,0.0086
675.00,0.0086
674.00,0.0086
673.00,0.0086
672.00,0.0087
671.00,0.0088
670.00,0.0090
669.00,0.0094
668.00,0.0097
667.00,0.0096
666.00,0.0093
665.00,0.0088
664.00,0.0084
663.00,0.0083
662.00,0.0084
661.00,0.0086
660.00,0.0086
659.00,0.0085
658.00,0.0083
657.00,0.0083
656.00,0.0084
655.00,0.0085
654.00,0.0085
653.00,0.0081
652.00,0.0077
651.00,0.0074
650.00,0.0074
649.00,0.0075
648.00,0.0076
647.00,0.0077
646.00,0.0078
645.00,0.0079
644.00,0.0080
643.00,0.0080
642.00,0.0080
641.00,0.0080
640.00,0.0081
639.00,0.0080
638.00,0.0080
637.00,0.0079
636.00,0.0080
635.00,0.0080
634.00,0.0079
633.00,0.0077
632.00,0.0076
631.00,0.0077
630.00,0.0079
629.00,0.0079
628.00,0.0079
627.00,0.0080
626.00,0.0082
625.00,0.0086
624.00,0.0089
623.00,0.0090
622.00,0.0091
621.00,0.0093
620.00,0.0094
619.00,0.0095
618.00,0.0095
617.00,0.0093
616.00,0.0090
615.00,0.0087
614.00,0.0086
613.00,0.0086
612.00,0.0088
611.00,0.0091
610.00,0.0091
609.00,0.0089
608.00,0.0087
607.00,0.0086
606.00,0.0087
605.00,0.0087
604.00,0.0087
603.00,0.0085
602.00,0.0084
601.00,0.0084
600.00,0.0082
599.00,0.0080
598.00,0.0077
597.00,0.0076
596.00,0.0076
595.00,0.0078
594.00,0.0079
593.00,0.0079
592.00,0.0080
591.00,0.0081
590.00,0.0083
589.00,0.0085
588.00,0.0086
587.00,0.0086
586.00,0.0085
585.00,0.0083
584.00,0.0083
583.00,0.0085
582.00,0.0088
581.00,0.0090
580.00,0.0089
579.00,0.0086
578.00,0.0086
577.00,0.0088
576.00,0.0090
575.00,0.0091
574.00,0.0089
573.00,0.0087
572.00,0.0085
571.00,0.0085
570.00,0.0085
569.00,0.0084
568.00,0.0084
567.00,0.0083
566.00,0.0082
565.00,0.0081
564.00,0.0080
563.00,0.0081
562.00,0.0083
561.00,0.0084
560.00,0.0085
559.00,0.0085
558.00,0.0085
557.00,0.0084
556.00,0.0083
555.00,0.0083
554.00,0.0084
553.00,0.0086
552.00,0.0088
551.00,0.0089
550.00,0.0089
549.00,0.0092
548.00,0.0095
547.00,0.0096
546.00,0.0092
545.00,0.0086
544.00,0.0083
543.00,0.0085
542.00,0.0091
541.00,0.0097
540.00,0.0100
539.00,0.0098
538.00,0.0094
537.00,0.0091
536.00,0.0089
535.00,0.0087
534.00,0.0085
533.00,0.0085
532.00,0.0090
531.00,0.0097
530.00,0.0104
529.00,0.0106
528.00,0.0103
527.00,0.0096
526.00,0.0087
525.00,0.0077
524.00,0.0072
523.00,0.0073
522.00,0.0077
521.00,0.0079
520.00,0.0076
519.00,0.0072
518.00,0.0073
517.00,0.0078
516.00,0.0082
515.00,0.0085
514.00,0.0088
513.00,0.0093
512.00,0.0096
511.00,0.0096
510.00,0.0090
509.00,0.0083
508.00,0.0076
507.00,0.0070
506.00,0.0066
505.00,0.0066
504.00,0.0070
503.00,0.0074
502.00,0.0075
501.00,0.0071
500.00,0.0068
499.00,0.0069
498.00,0.0072
497.00,0.0075
496.00,0.0076
495.00,0.0079
494.00,0.0087
493.00,0.0096
492.00,0.0099
491.00,0.0091
490.00,0.0078
489.00,0.0067
488.00,0.0065
487.00,0.0069
486.00,0.0072
485.00,0.0073
484.00,0.0073
483.00,0.0075
482.00,0.0080
481.00,0.0083
480.00,0.0080
479.00,0.0075
478.00,0.0075
477.00,0.0078
476.00,0.0079
475.00,0.0077
474.00,0.0076
473.00,0.0083
472.00,0.0094
471.00,0.0101
470.00,0.0103
469.00,0.0103
468.00,0.0105
467.00,0.0107
466.00,0.0104
465.00,0.0098
464.00,0.0096
463.00,0.0101
462.00,0.0112
461.00,0.0125
460.00,0.0135
459.00,0.0141
458.00,0.0141
457.00,0.0137
456.00,0.0134
455.00,0.0134
454.00,0.0134
453.00,0.0128
452.00,0.0115
451.00,0.0099
450.00,0.0087
