Created as New Dataset,Sample 101 By Administrator Date Wednesday, September 03 2025
cm-1,A
4000.00,0.0012
3999.00,0.0012
3998.00,0.0012
3997.00,0.0012
3996.00,0.0012
3995.00,0.0012
3994.00,0.0012
3993.00,0.0012
3992.00,0.0012
3991.00,0.0012
3990.00,0.0012
3989.00,0.0011
3988.00,0.0011
3987.00,0.0011
3986.00,0.0011
3985.00,0.0011
3984.00,0.0011
3983.00,0.0011
3982.00,0.0011
3981.00,0.0011
3980.00,0.0010
3979.00,0.0010
3978.00,0.0010
3977.00,0.0010
3976.00,0.0010
3975.00,0.0011
3974.00,0.0011
3973.00,0.0011
3972.00,0.0012
3971.00,0.0012
3970.00,0.0011
3969.00,0.0011
3968.00,0.0011
3967.00,0.0011
3966.00,0.0010
3965.00,0.0010
3964.00,0.0010
3963.00,0.0010
3962.00,0.0010
3961.00,0.0009
3960.00,0.0009
3959.00,0.0010
3958.00,0.0010
3957.00,0.0010
3956.00,0.0010
3955.00,0.0010
3954.00,0.0010
3953.00,0.0010
3952.00,0.0010
3951.00,0.0009
3950.00,0.0009
3949.00,0.0009
3948.00,0.0009
3947.00,0.0010
3946.00,0.0010
3945.00,0.0010
3944.00,0.0010
3943.00,0.0010
3942.00,0.0010
3941.00,0.0009
3940.00,0.0009
3939.00,0.0009
3938.00,0.0009
3937.00,0.0009
3936.00,0.0009
3935.00,0.0009
3934.00,0.0009
3933.00,0.0009
3932.00,0.0010
3931.00,0.0010
3930.00,0.0010
3929.00,0.0010
3928.00,0.0011
3927.00,0.0011
3926.00,0.0011
3925.00,0.0011
3924.00,0.0011
3923.00,0.0011
3922.00,0.0010
3921.00,0.0010
3920.00,0.0010
3919.00,0.0010
3918.00,0.0010
3917.00,0.0010
3916.00,0.0010
3915.00,0.0010
3914.00,0.0010
3913.00,0.0010
3912.00,0.0010
3911.00,0.0009
3910.00,0.0009
3909.00,0.0009
3908.00,0.0008
3907.00,0.0008
3906.00,0.0008
3905.00,0.0008
3904.00,0.0008
3903.00,0.0009
3902.00,0.0009
3901.00,0.0009
3900.00,0.0009
3899.00,0.0009
3898.00,0.0009
3897.00,0.0009
3896.00,0.0009
3895.00,0.0010
3894.00,0.0010
3893.00,0.0010
3892.00,0.0010
3891.00,0.0010
3890.00,0.0010
3889.00,0.0009
3888.00,0.0009
3887.00,0.0008
3886.00,0.0008
3885.00,0.0008
3884.00,0.0009
3883.00,0.0009
3882.00,0.0009
3881.00,0.0009
3880.00,0.0009
3879.00,0.0009
3878.00,0.0009
3877.00,0.0009
3876.00,0.0009
3875.00,0.0009
3874.00,0.0009
3873.00,0.0008
3872.00,0.0008
3871.00,0.0008
3870.00,0.0008
3869.00,0.0008
3868.00,0.0009
3867.00,0.0008
3866.00,0.0008
3865.00,0.0008
3864.00,0.0008
3863.00,0.0008
3862.00,0.0008
3861.00,0.0009
3860.00,0.0009
3859.00,0.0009
3858.00,0.0009
3857.00,0.0009
3856.00,0.0009
3855.00,0.0009
3854.00,0.0009
3853.00,0.0008
3852.00,0.0008
3851.00,0.0008
3850.00,0.0008
3849.00,0.0008
3848.00,0.0008
3847.00,0.0008
3846.00,0.0009
3845.00,0.0009
3844.00,0.0009
3843.00,0.0009
3842.00,0.0009
3841.00,0.0009
3840.00,0.0009
3839.00,0.0009
3838.00,0.0009
3837.00,0.0009
3836.00,0.0009
3835.00,0.0009
3834.00,0.0009
3833.00,0.0009
3832.00,0.0009
3831.00,0.0009
3830.00,0.0009
3829.00,0.0009
3828.00,0.0009
3827.00,0.0010
3826.00,0.0010
3825.00,0.0009
3824.00,0.0009
3823.00,0.0009
3822.00,0.0009
3821.00,0.0009
3820.00,0.0010
3819.00,0.0010
3818.00,0.0009
3817.00,0.0009
3816.00,0.0009
3815.00,0.0009
3814.00,0.0009
3813.00,0.0009
3812.00,0.0008
3811.00,0.0008
3810.00,0.0009
3809.00,0.0009
3808.00,0.0009
3807.00,0.0009
3806.00,0.0008
3805.00,0.0008
3804.00,0.0008
3803.00,0.0008
3802.00,0.0009
3801.00,0.0009
3800.00,0.0008
3799.00,0.0008
3798.00,0.0008
3797.00,0.0008
3796.00,0.0009
3795.00,0.0009
3794.00,0.0009
3793.00,0.0009
3792.00,0.0009
3791.00,0.0009
3790.00,0.0009
3789.00,0.0009
3788.00,0.0009
3787.00,0.0009
3786.00,0.0009
3785.00,0.0009
3784.00,0.0009
3783.00,0.0008
3782.00,0.0009
3781.00,0.0009
3780.00,0.0010
3779.00,0.0010
3778.00,0.0010
3777.00,0.0010
3776.00,0.0010
3775.00,0.0010
3774.00,0.0010
3773.00,0.0010
3772.00,0.0009
3771.00,0.0009
3770.00,0.0009
3769.00,0.0009
3768.00,0.0009
3767.00,0.0009
3766.00,0.0009
3765.00,0.0009
3764.00,0.0009
3763.00,0.0010
3762.00,0.0010
3761.00,0.0010
3760.00,0.0010
3759.00,0.0010
3758.00,0.0010
3757.00,0.0010
3756.00,0.0009
3755.00,0.0009
3754.00,0.0008
3753.00,0.0008
3752.00,0.0007
3751.00,0.0007
3750.00,0.0007
3749.00,0.0007
3748.00,0.0007
3747.00,0.0007
3746.00,0.0006
3745.00,0.0006
3744.00,0.0006
3743.00,0.0006
3742.00,0.0006
3741.00,0.0006
3740.00,0.0006
3739.00,0.0006
3738.00,0.0006
3737.00,0.0007
3736.00,0.0008
3735.00,0.0008
3734.00,0.0009
3733.00,0.0008
3732.00,0.0007
3731.00,0.0007
3730.00,0.0007
3729.00,0.0007
3728.00,0.0007
3727.00,0.0007
3726.00,0.0008
3725.00,0.0009
3724.00,0.0009
3723.00,0.0009
3722.00,0.0009
3721.00,0.0009
3720.00,0.0009
3719.00,0.0009
3718.00,0.0009
3717.00,0.0009
3716.00,0.0008
3715.00,0.0008
3714.00,0.0007
3713.00,0.0007
3712.00,0.0007
3711.00,0.0007
3710.00,0.0008
3709.00,0.0008
3708.00,0.0008
3707.00,0.0008
3706.00,0.0007
3705.00,0.0007
3704.00,0.0007
3703.00,0.0007
3702.00,0.0007
3701.00,0.0007
3700.00,0.0007
3699.00,0.0007
3698.00,0.0007
3697.00,0.0008
3696.00,0.0008
3695.00,0.0009
3694.00,0.0009
3693.00,0.0009
3692.00,0.0008
3691.00,0.0008
3690.00,0.0008
3689.00,0.0008
3688.00,0.0008
3687.00,0.0008
3686.00,0.0008
3685.00,0.0008
3684.00,0.0008
3683.00,0.0008
3682.00,0.0008
3681.00,0.0008
3680.00,0.0008
3679.00,0.0008
3678.00,0.0008
3677.00,0.0008
3676.00,0.0009
3675.00,0.0009
3674.00,0.0008
3673.00,0.0007
3672.00,0.0007
3671.00,0.0007
3670.00,0.0007
3669.00,0.0007
3668.00,0.0007
3667.00,0.0007
3666.00,0.0008
3665.00,0.0008
3664.00,0.0008
3663.00,0.0007
3662.00,0.0007
3661.00,0.0007
3660.00,0.0007
3659.00,0.0007
3658.00,0.0007
3657.00,0.0007
3656.00,0.0007
3655.00,0.0007
3654.00,0.0007
3653.00,0.0007
3652.00,0.0008
3651.00,0.0007
3650.00,0.0007
3649.00,0.0007
3648.00,0.0007
3647.00,0.0007
3646.00,0.0007
3645.00,0.0008
3644.00,0.0008
3643.00,0.0009
3642.00,0.0010
3641.00,0.0010
3640.00,0.0010
3639.00,0.0010
3638.00,0.0010
3637.00,0.0010
3636.00,0.0010
3635.00,0.0011
3634.00,0.0011
3633.00,0.0011
3632.00,0.0011
3631.00,0.0011
3630.00,0.0011
3629.00,0.0012
3628.00,0.0012
3627.00,0.0012
3626.00,0.0012
3625.00,0.0012
3624.00,0.0012
3623.00,0.0012
3622.00,0.0012
3621.00,0.0012
3620.00,0.0012
3619.00,0.0012
3618.00,0.0013
3617.00,0.0013
3616.00,0.0013
3615.00,0.0014
3614.00,0.0014
3613.00,0.0014
3612.00,0.0014
3611.00,0.0014
3610.00,0.0014
3609.00,0.0014
3608.00,0.0015
3607.00,0.0016
3606.00,0.0017
3605.00,0.0018
3604.00,0.0018
3603.00,0.0019
3602.00,0.0019
3601.00,0.0019
3600.00,0.0019
3599.00,0.0019
3598.00,0.0019
3597.00,0.0019
3596.00,0.0019
3595.00,0.0019
3594.00,0.0019
3593.00,0.0019
3592.00,0.0019
3591.00,0.0019
3590.00,0.0019
3589.00,0.0019
3588.00,0.0020
3587.00,0.0020
3586.00,0.0020
3585.00,0.0021
3584.00,0.0021
3583.00,0.0022
3582.00,0.0023
3581.00,0.0023
3580.00,0.0024
3579.00,0.0025
3578.00,0.0025
3577.00,0.0026
3576.00,0.0026
3575.00,0.0026
3574.00,0.0026
3573.00,0.0026
3572.00,0.0026
3571.00,0.0026
3570.00,0.0027
3569.00,0.0027
3568.00,0.0027
3567.00,0.0028
3566.00,0.0028
3565.00,0.0028
3564.00,0.0028
3563.00,0.0028
3562.00,0.0029
3561.00,0.0030
3560.00,0.0030
3559.00,0.0031
3558.00,0.0031
3557.00,0.0031
3556.00,0.0031
3555.00,0.0032
3554.00,0.0032
3553.00,0.0032
3552.00,0.0032
3551.00,0.0033
3550.00,0.0033
3549.00,0.0033
3548.00,0.0033
3547.00,0.0033
3546.00,0.0034
3545.00,0.0034
3544.00,0.0035
3543.00,0.0035
3542.00,0.0035
3541.00,0.0036
3540.00,0.0036
3539.00,0.0036
3538.00,0.0037
3537.00,0.0038
3536.00,0.0038
3535.00,0.0038
3534.00,0.0039
3533.00,0.0039
3532.00,0.0039
3531.00,0.0039
3530.00,0.0040
3529.00,0.0040
3528.00,0.0040
3527.00,0.0040
3526.00,0.0041
3525.00,0.0041
3524.00,0.0042
3523.00,0.0042
3522.00,0.0043
3521.00,0.0043
3520.00,0.0043
3519.00,0.0044
3518.00,0.0044
3517.00,0.0044
3516.00,0.0045
3515.00,0.0045
3514.00,0.0045
3513.00,0.0046
3512.00,0.0047
3511.00,0.0047
3510.00,0.0048
3509.00,0.0048
3508.00,0.0047
3507.00,0.0047
3506.00,0.0047
3505.00,0.0048
3504.00,0.0049
3503.00,0.0049
3502.00,0.0050
3501.00,0.0050
3500.00,0.0051
3499.00,0.0051
3498.00,0.0051
3497.00,0.0051
3496.00,0.0051
3495.00,0.0052
3494.00,0.0052
3493.00,0.0053
3492.00,0.0053
3491.00,0.0053
3490.00,0.0054
3489.00,0.0054
3488.00,0.0055
3487.00,0.0055
3486.00,0.0055
3485.00,0.0055
3484.00,0.0056
3483.00,0.0056
3482.00,0.0056
3481.00,0.0057
3480.00,0.0057
3479.00,0.0058
3478.00,0.0058
3477.00,0.0059
3476.00,0.0060
3475.00,0.0060
3474.00,0.0060
3473.00,0.0061
3472.00,0.0061
3471.00,0.0061
3470.00,0.0062
3469.00,0.0062
3468.00,0.0062
3467.00,0.0063
3466.00,0.0063
3465.00,0.0064
3464.00,0.0064
3463.00,0.0064
3462.00,0.0065
3461.00,0.0065
3460.00,0.0065
3459.00,0.0066
3458.00,0.0066
3457.00,0.0066
3456.00,0.0067
3455.00,0.0067
3454.00,0.0068
3453.00,0.0068
3452.00,0.0068
3451.00,0.0068
3450.00,0.0068
3449.00,0.0068
3448.00,0.0069
3447.00,0.0069
3446.00,0.0070
3445.00,0.0070
3444.00,0.0070
3443.00,0.0071
3442.00,0.0071
3441.00,0.0072
3440.00,0.0072
3439.00,0.0073
3438.00,0.0074
3437.00,0.0074
3436.00,0.0075
3435.00,0.0075
3434.00,0.0075
3433.00,0.0075
3432.00,0.0076
3431.00,0.0076
3430.00,0.0076
3429.00,0.0077
3428.00,0.0077
3427.00,0.0077
3426.00,0.0078
3425.00,0.0078
3424.00,0.0079
3423.00,0.0079
3422.00,0.0080
3421.00,0.0080
3420.00,0.0081
3419.00,0.0081
3418.00,0.0081
3417.00,0.0082
3416.00,0.0082
3415.00,0.0083
3414.00,0.0083
3413.00,0.0084
3412.00,0.0084
3411.00,0.0085
3410.00,0.0085
3409.00,0.0085
3408.00,0.0086
3407.00,0.0086
3406.00,0.0087
3405.00,0.0087
3404.00,0.0087
3403.00,0.0087
3402.00,0.0087
3401.00,0.0086
3400.00,0.0086
3399.00,0.0086
3398.00,0.0086
3397.00,0.0087
3396.00,0.0087
3395.00,0.0087
3394.00,0.0088
3393.00,0.0088
3392.00,0.0088
3391.00,0.0089
3390.00,0.0088
3389.00,0.0088
3388.00,0.0088
3387.00,0.0088
3386.00,0.0088
3385.00,0.0089
3384.00,0.0089
3383.00,0.0089
3382.00,0.0089
3381.00,0.0089
3380.00,0.0090
3379.00,0.0090
3378.00,0.0091
3377.00,0.0091
3376.00,0.0091
3375.00,0.0091
3374.00,0.0091
3373.00,0.0091
3372.00,0.0091
3371.00,0.0092
3370.00,0.0093
3369.00,0.0093
3368.00,0.0093
3367.00,0.0093
3366.00,0.0093
3365.00,0.0093
3364.00,0.0093
3363.00,0.0093
3362.00,0.0094
3361.00,0.0094
3360.00,0.0094
3359.00,0.0095
3358.00,0.0095
3357.00,0.0096
3356.00,0.0096
3355.00,0.0097
3354.00,0.0097
3353.00,0.0097
3352.00,0.0097
3351.00,0.0098
3350.00,0.0098
3349.00,0.0099
3348.00,0.0099
3347.00,0.0099
3346.00,0.0099
3345.00,0.0099
3344.00,0.0099
3343.00,0.0099
3342.00,0.0099
3341.00,0.0099
3340.00,0.0099
3339.00,0.0099
3338.00,0.0099
3337.00,0.0099
3336.00,0.0098
3335.00,0.0098
3334.00,0.0097
3333.00,0.0097
3332.00,0.0097
3331.00,0.0097
3330.00,0.0096
3329.00,0.0096
3328.00,0.0096
3327.00,0.0095
3326.00,0.0095
3325.00,0.0095
3324.00,0.0095
3323.00,0.0094
3322.00,0.0094
3321.00,0.0093
3320.00,0.0093
3319.00,0.0092
3318.00,0.0092
3317.00,0.0092
3316.00,0.0093
3315.00,0.0093
3314.00,0.0093
3313.00,0.0093
3312.00,0.0093
3311.00,0.0093
3310.00,0.0093
3309.00,0.0094
3308.00,0.0094
3307.00,0.0094
3306.00,0.0094
3305.00,0.0095
3304.00,0.0095
3303.00,0.0095
3302.00,0.0095
3301.00,0.0095
3300.00,0.0095
3299.00,0.0094
3298.00,0.0093
3297.00,0.0093
3296.00,0.0093
3295.00,0.0093
3294.00,0.0093
3293.00,0.0093
3292.00,0.0093
3291.00,0.0092
3290.00,0.0092
3289.00,0.0091
3288.00,0.0091
3287.00,0.0090
3286.00,0.0090
3285.00,0.0090
3284.00,0.0089
3283.00,0.0089
3282.00,0.0089
3281.00,0.0088
3280.00,0.0088
3279.00,0.0088
3278.00,0.0088
3277.00,0.0088
3276.00,0.0087
3275.00,0.0087
3274.00,0.0086
3273.00,0.0086
3272.00,0.0085
3271.00,0.0085
3270.00,0.0084
3269.00,0.0084
3268.00,0.0084
3267.00,0.0083
3266.00,0.0083
3265.00,0.0082
3264.00,0.0081
3263.00,0.0081
3262.00,0.0080
3261.00,0.0080
3260.00,0.0080
3259.00,0.0080
3258.00,0.0080
3257.00,0.0079
3256.00,0.0078
3255.00,0.0078
3254.00,0.0077
3253.00,0.0076
3252.00,0.0076
3251.00,0.0076
3250.00,0.0075
3249.00,0.0074
3248.00,0.0074
3247.00,0.0074
3246.00,0.0074
3245.00,0.0074
3244.00,0.0073
3243.00,0.0073
3242.00,0.0072
3241.00,0.0072
3240.00,0.0072
3239.00,0.0072
3238.00,0.0071
3237.00,0.0071
3236.00,0.0070
3235.00,0.0070
3234.00,0.0070
3233.00,0.0069
3232.00,0.0069
3231.00,0.0069
3230.00,0.0069
3229.00,0.0069
3228.00,0.0070
3227.00,0.0070
3226.00,0.0069
3225.00,0.0069
3224.00,0.0068
3223.00,0.0068
3222.00,0.0068
3221.00,0.0067
3220.00,0.0068
3219.00,0.0068
3218.00,0.0069
3217.00,0.0069
3216.00,0.0070
3215.00,0.0070
3214.00,0.0069
3213.00,0.0069
3212.00,0.0069
3211.00,0.0069
3210.00,0.0069
3209.00,0.0069
3208.00,0.0068
3207.00,0.0068
3206.00,0.0068
3205.00,0.0068
3204.00,0.0067
3203.00,0.0067
3202.00,0.0067
3201.00,0.0066
3200.00,0.0066
3199.00,0.0066
3198.00,0.0066
3197.00,0.0066
3196.00,0.0066
3195.00,0.0066
3194.00,0.0066
3193.00,0.0065
3192.00,0.0065
3191.00,0.0065
3190.00,0.0065
3189.00,0.0065
3188.00,0.0064
3187.00,0.0063
3186.00,0.0063
3185.00,0.0062
3184.00,0.0062
3183.00,0.0062
3182.00,0.0062
3181.00,0.0062
3180.00,0.0062
3179.00,0.0062
3178.00,0.0061
3177.00,0.0061
3176.00,0.0060
3175.00,0.0059
3174.00,0.0058
3173.00,0.0057
3172.00,0.0057
3171.00,0.0058
3170.00,0.0058
3169.00,0.0058
3168.00,0.0058
3167.00,0.0058
3166.00,0.0058
3165.00,0.0057
3164.00,0.0057
3163.00,0.0057
3162.00,0.0057
3161.00,0.0057
3160.00,0.0057
3159.00,0.0056
3158.00,0.0056
3157.00,0.0056
3156.00,0.0056
3155.00,0.0055
3154.00,0.0055
3153.00,0.0055
3152.00,0.0054
3151.00,0.0054
3150.00,0.0054
3149.00,0.0054
3148.00,0.0054
3147.00,0.0054
3146.00,0.0054
3145.00,0.0054
3144.00,0.0053
3143.00,0.0053
3142.00,0.0053
3141.00,0.0052
3140.00,0.0051
3139.00,0.0051
3138.00,0.0051
3137.00,0.0050
3136.00,0.0050
3135.00,0.0051
3134.00,0.0051
3133.00,0.0051
3132.00,0.0051
3131.00,0.0051
3130.00,0.0050
3129.00,0.0050
3128.00,0.0049
3127.00,0.0048
3126.00,0.0048
3125.00,0.0047
3124.00,0.0047
3123.00,0.0047
3122.00,0.0047
3121.00,0.0046
3120.00,0.0046
3119.00,0.0046
3118.00,0.0046
3117.00,0.0046
3116.00,0.0045
3115.00,0.0045
3114.00,0.0044
3113.00,0.0044
3112.00,0.0044
3111.00,0.0044
3110.00,0.0044
3109.00,0.0044
3108.00,0.0044
3107.00,0.0044
3106.00,0.0044
3105.00,0.0044
3104.00,0.0044
3103.00,0.0044
3102.00,0.0044
3101.00,0.0044
3100.00,0.0043
3099.00,0.0043
3098.00,0.0043
3097.00,0.0043
3096.00,0.0043
3095.00,0.0043
3094.00,0.0043
3093.00,0.0042
3092.00,0.0042
3091.00,0.0042
3090.00,0.0042
3089.00,0.0042
3088.00,0.0043
3087.00,0.0042
3086.00,0.0042
3085.00,0.0042
3084.00,0.0042
3083.00,0.0041
3082.00,0.0041
3081.00,0.0041
3080.00,0.0041
3079.00,0.0041
3078.00,0.0042
3077.00,0.0042
3076.00,0.0042
3075.00,0.0043
3074.00,0.0043
3073.00,0.0043
3072.00,0.0043
3071.00,0.0042
3070.00,0.0042
3069.00,0.0042
3068.00,0.0043
3067.00,0.0043
3066.00,0.0043
3065.00,0.0044
3064.00,0.0044
3063.00,0.0045
3062.00,0.0045
3061.00,0.0044
3060.00,0.0044
3059.00,0.0044
3058.00,0.0044
3057.00,0.0044
3056.00,0.0045
3055.00,0.0045
3054.00,0.0045
3053.00,0.0045
3052.00,0.0045
3051.00,0.0045
3050.00,0.0045
3049.00,0.0045
3048.00,0.0046
3047.00,0.0046
3046.00,0.0046
3045.00,0.0046
3044.00,0.0046
3043.00,0.0047
3042.00,0.0047
3041.00,0.0048
3040.00,0.0048
3039.00,0.0049
3038.00,0.0049
3037.00,0.0049
3036.00,0.0049
3035.00,0.0049
3034.00,0.0050
3033.00,0.0050
3032.00,0.0051
3031.00,0.0051
3030.00,0.0051
3029.00,0.0051
3028.00,0.0051
3027.00,0.0052
3026.00,0.0052
3025.00,0.0052
3024.00,0.0053
3023.00,0.0054
3022.00,0.0054
3021.00,0.0055
3020.00,0.0055
3019.00,0.0056
3018.00,0.0056
3017.00,0.0057
3016.00,0.0058
3015.00,0.0059
3014.00,0.0060
3013.00,0.0061
3012.00,0.0061
3011.00,0.0062
3010.00,0.0062
3009.00,0.0063
3008.00,0.0064
3007.00,0.0065
3006.00,0.0066
3005.00,0.0067
3004.00,0.0068
3003.00,0.0069
3002.00,0.0070
3001.00,0.0072
3000.00,0.0073
2999.00,0.0075
2998.00,0.0078
2997.00,0.0080
2996.00,0.0083
2995.00,0.0087
2994.00,0.0091
2993.00,0.0095
2992.00,0.0099
2991.00,0.0104
2990.00,0.0109
2989.00,0.0115
2988.00,0.0121
2987.00,0.0128
2986.00,0.0136
2985.00,0.0144
2984.00,0.0153
2983.00,0.0164
2982.00,0.0176
2981.00,0.0191
2980.00,0.0209
2979.00,0.0229
2978.00,0.0252
2977.00,0.0278
2976.00,0.0306
2975.00,0.0339
2974.00,0.0375
2973.00,0.0416
2972.00,0.0463
2971.00,0.0515
2970.00,0.0574
2969.00,0.0637
2968.00,0.0706
2967.00,0.0777
2966.00,0.0851
2965.00,0.0924
2964.00,0.0994
2963.00,0.1059
2962.00,0.1115
2961.00,0.1163
2960.00,0.1205
2959.00,0.1244
2958.00,0.1286
2957.00,0.1334
2956.00,0.1393
2955.00,0.1463
2954.00,0.1542
2953.00,0.1622
2952.00,0.1696
2951.00,0.1750
2950.00,0.1774
2949.00,0.1762
2948.00,0.1711
2947.00,0.1626
2946.00,0.1520
2945.00,0.1404
2944.00,0.1294
2943.00,0.1199
2942.00,0.1124
2941.00,0.1074
2940.00,0.1047
2939.00,0.1041
2938.00,0.1055
2937.00,0.1086
2936.00,0.1132
2935.00,0.1193
2934.00,0.1267
2933.00,0.1353
2932.00,0.1451
2931.00,0.1557
2930.00,0.1671
2929.00,0.1789
2928.00,0.1908
2927.00,0.2027
2926.00,0.2142
2925.00,0.2256
2924.00,0.2367
2923.00,0.2479
2922.00,0.2590
2921.00,0.2698
2920.00,0.2796
2919.00,0.2872
2918.00,0.2915
2917.00,0.2914
2916.00,0.2867
2915.00,0.2780
2914.00,0.2666
2913.00,0.2538
2912.00,0.2409
2911.00,0.2289
2910.00,0.2180
2909.00,0.2083
2908.00,0.1996
2907.00,0.1915
2906.00,0.1838
2905.00,0.1763
2904.00,0.1691
2903.00,0.1620
2902.00,0.1552
2901.00,0.1486
2900.00,0.1424
2899.00,0.1365
2898.00,0.1310
2897.00,0.1260
2896.00,0.1214
2895.00,0.1174
2894.00,0.1140
2893.00,0.1112
2892.00,0.1090
2891.00,0.1072
2890.00,0.1060
2889.00,0.1052
2888.00,0.1049
2887.00,0.1048
2886.00,0.1051
2885.00,0.1057
2884.00,0.1068
2883.00,0.1084
2882.00,0.1106
2881.00,0.1131
2880.00,0.1157
2879.00,0.1180
2878.00,0.1197
2877.00,0.1205
2876.00,0.1205
2875.00,0.1200
2874.00,0.1195
2873.00,0.1195
2872.00,0.1200
2871.00,0.1213
2870.00,0.1231
2869.00,0.1248
2868.00,0.1260
2867.00,0.1258
2866.00,0.1237
2865.00,0.1194
2864.00,0.1133
2863.00,0.1062
2862.00,0.0991
2861.00,0.0929
2860.00,0.0881
2859.00,0.0850
2858.00,0.0833
2857.00,0.0829
2856.00,0.0836
2855.00,0.0852
2854.00,0.0874
2853.00,0.0899
2852.00,0.0923
2851.00,0.0944
2850.00,0.0956
2849.00,0.0959
2848.00,0.0956
2847.00,0.0954
2846.00,0.0958
2845.00,0.0972
2844.00,0.0998
2843.00,0.1033
2842.00,0.1075
2841.00,0.1115
2840.00,0.1148
2839.00,0.1165
2838.00,0.1160
2837.00,0.1128
2836.00,0.1070
2835.00,0.0989
2834.00,0.0893
2833.00,0.0793
2832.00,0.0697
2831.00,0.0611
2830.00,0.0538
2829.00,0.0477
2828.00,0.0428
2827.00,0.0389
2826.00,0.0356
2825.00,0.0329
2824.00,0.0307
2823.00,0.0288
2822.00,0.0273
2821.00,0.0259
2820.00,0.0247
2819.00,0.0237
2818.00,0.0227
2817.00,0.0219
2816.00,0.0212
2815.00,0.0206
2814.00,0.0200
2813.00,0.0194
2812.00,0.0189
2811.00,0.0184
2810.00,0.0178
2809.00,0.0172
2808.00,0.0166
2807.00,0.0159
2806.00,0.0153
2805.00,0.0146
2804.00,0.0140
2803.00,0.0135
2802.00,0.0130
2801.00,0.0126
2800.00,0.0122
2799.00,0.0118
2798.00,0.0115
2797.00,0.0112
2796.00,0.0110
2795.00,0.0108
2794.00,0.0105
2793.00,0.0103
2792.00,0.0100
2791.00,0.0097
2790.00,0.0095
2789.00,0.0092
2788.00,0.0090
2787.00,0.0087
2786.00,0.0085
2785.00,0.0082
2784.00,0.0080
2783.00,0.0078
2782.00,0.0076
2781.00,0.0074
2780.00,0.0072
2779.00,0.0070
2778.00,0.0069
2777.00,0.0067
2776.00,0.0066
2775.00,0.0065
2774.00,0.0065
2773.00,0.0064
2772.00,0.0063
2771.00,0.0063
2770.00,0.0062
2769.00,0.0062
2768.00,0.0062
2767.00,0.0061
2766.00,0.0061
2765.00,0.0061
2764.00,0.0061
2763.00,0.0061
2762.00,0.0060
2761.00,0.0060
2760.00,0.0060
2759.00,0.0059
2758.00,0.0058
2757.00,0.0058
2756.00,0.0058
2755.00,0.0058
2754.00,0.0058
2753.00,0.0058
2752.00,0.0058
2751.00,0.0057
2750.00,0.0057
2749.00,0.0057
2748.00,0.0057
2747.00,0.0057
2746.00,0.0058
2745.00,0.0059
2744.00,0.0059
2743.00,0.0060
2742.00,0.0061
2741.00,0.0062
2740.00,0.0063
2739.00,0.0064
2738.00,0.0065
2737.00,0.0067
2736.00,0.0068
2735.00,0.0069
2734.00,0.0071
2733.00,0.0072
2732.00,0.0074
2731.00,0.0076
2730.00,0.0078
2729.00,0.0080
2728.00,0.0082
2727.00,0.0085
2726.00,0.0087
2725.00,0.0090
2724.00,0.0091
2723.00,0.0091
2722.00,0.0091
2721.00,0.0089
2720.00,0.0087
2719.00,0.0084
2718.00,0.0081
2717.00,0.0078
2716.00,0.0075
2715.00,0.0072
2714.00,0.0070
2713.00,0.0068
2712.00,0.0066
2711.00,0.0064
2710.00,0.0062
2709.00,0.0060
2708.00,0.0059
2707.00,0.0058
2706.00,0.0057
2705.00,0.0055
2704.00,0.0054
2703.00,0.0053
2702.00,0.0052
2701.00,0.0052
2700.00,0.0051
2699.00,0.0050
2698.00,0.0050
2697.00,0.0050
2696.00,0.0050
2695.00,0.0050
2694.00,0.0050
2693.00,0.0049
2692.00,0.0049
2691.00,0.0049
2690.00,0.0049
2689.00,0.0049
2688.00,0.0049
2687.00,0.0049
2686.00,0.0049
2685.00,0.0049
2684.00,0.0049
2683.00,0.0050
2682.00,0.0050
2681.00,0.0050
2680.00,0.0050
2679.00,0.0050
2678.00,0.0050
2677.00,0.0050
2676.00,0.0050
2675.00,0.0050
2674.00,0.0050
2673.00,0.0049
2672.00,0.0049
2671.00,0.0048
2670.00,0.0048
2669.00,0.0049
2668.00,0.0049
2667.00,0.0049
2666.00,0.0049
2665.00,0.0050
2664.00,0.0050
2663.00,0.0051
2662.00,0.0051
2661.00,0.0052
2660.00,0.0052
2659.00,0.0052
2658.00,0.0052
2657.00,0.0052
2656.00,0.0052
2655.00,0.0051
2654.00,0.0051
2653.00,0.0050
2652.00,0.0050
2651.00,0.0050
2650.00,0.0050
2649.00,0.0049
2648.00,0.0049
2647.00,0.0048
2646.00,0.0047
2645.00,0.0047
2644.00,0.0046
2643.00,0.0046
2642.00,0.0046
2641.00,0.0045
2640.00,0.0045
2639.00,0.0044
2638.00,0.0044
2637.00,0.0043
2636.00,0.0043
2635.00,0.0043
2634.00,0.0043
2633.00,0.0043
2632.00,0.0043
2631.00,0.0044
2630.00,0.0044
2629.00,0.0044
2628.00,0.0044
2627.00,0.0044
2626.00,0.0044
2625.00,0.0044
2624.00,0.0044
2623.00,0.0044
2622.00,0.0044
2621.00,0.0044
2620.00,0.0044
2619.00,0.0044
2618.00,0.0044
2617.00,0.0044
2616.00,0.0044
2615.00,0.0044
2614.00,0.0043
2613.00,0.0043
2612.00,0.0043
2611.00,0.0043
2610.00,0.0042
2609.00,0.0042
2608.00,0.0041
2607.00,0.0041
2606.00,0.0040
2605.00,0.0039
2604.00,0.0039
2603.00,0.0038
2602.00,0.0037
2601.00,0.0036
2600.00,0.0036
2599.00,0.0036
2598.00,0.0037
2597.00,0.0037
2596.00,0.0037
2595.00,0.0037
2594.00,0.0036
2593.00,0.0036
2592.00,0.0037
2591.00,0.0038
2590.00,0.0039
2589.00,0.0040
2588.00,0.0040
2587.00,0.0041
2586.00,0.0042
2585.00,0.0043
2584.00,0.0044
2583.00,0.0044
2582.00,0.0044
2581.00,0.0044
2580.00,0.0043
2579.00,0.0042
2578.00,0.0041
2577.00,0.0040
2576.00,0.0039
2575.00,0.0038
2574.00,0.0037
2573.00,0.0037
2572.00,0.0036
2571.00,0.0034
2570.00,0.0033
2569.00,0.0032
2568.00,0.0030
2567.00,0.0030
2566.00,0.0029
2565.00,0.0029
2564.00,0.0029
2563.00,0.0029
2562.00,0.0029
2561.00,0.0029
2560.00,0.0028
2559.00,0.0028
2558.00,0.0027
2557.00,0.0027
2556.00,0.0026
2555.00,0.0026
2554.00,0.0026
2553.00,0.0025
2552.00,0.0025
2551.00,0.0025
2550.00,0.0025
2549.00,0.0025
2548.00,0.0025
2547.00,0.0025
2546.00,0.0025
2545.00,0.0024
2544.00,0.0023
2543.00,0.0022
2542.00,0.0022
2541.00,0.0022
2540.00,0.0022
2539.00,0.0022
2538.00,0.0022
2537.00,0.0021
2536.00,0.0021
2535.00,0.0021
2534.00,0.0021
2533.00,0.0021
2532.00,0.0021
2531.00,0.0021
2530.00,0.0021
2529.00,0.0021
2528.00,0.0021
2527.00,0.0020
2526.00,0.0020
2525.00,0.0019
2524.00,0.0019
2523.00,0.0019
2522.00,0.0018
2521.00,0.0018
2520.00,0.0018
2519.00,0.0018
2518.00,0.0017
2517.00,0.0017
2516.00,0.0016
2515.00,0.0016
2514.00,0.0016
2513.00,0.0016
2512.00,0.0016
2511.00,0.0015
2510.00,0.0015
2509.00,0.0015
2508.00,0.0015
2507.00,0.0015
2506.00,0.0016
2505.00,0.0016
2504.00,0.0017
2503.00,0.0018
2502.00,0.0017
2501.00,0.0017
2500.00,0.0016
2499.00,0.0016
2498.00,0.0015
2497.00,0.0015
2496.00,0.0015
2495.00,0.0015
2494.00,0.0015
2493.00,0.0016
2492.00,0.0016
2491.00,0.0016
2490.00,0.0016
2489.00,0.0015
2488.00,0.0015
2487.00,0.0015
2486.00,0.0015
2485.00,0.0015
2484.00,0.0015
2483.00,0.0015
2482.00,0.0014
2481.00,0.0014
2480.00,0.0013
2479.00,0.0013
2478.00,0.0014
2477.00,0.0014
2476.00,0.0014
2475.00,0.0015
2474.00,0.0015
2473.00,0.0015
2472.00,0.0014
2471.00,0.0014
2470.00,0.0014
2469.00,0.0014
2468.00,0.0014
2467.00,0.0014
2466.00,0.0015
2465.00,0.0015
2464.00,0.0015
2463.00,0.0015
2462.00,0.0015
2461.00,0.0015
2460.00,0.0015
2459.00,0.0015
2458.00,0.0015
2457.00,0.0015
2456.00,0.0016
2455.00,0.0016
2454.00,0.0016
2453.00,0.0016
2452.00,0.0016
2451.00,0.0016
2450.00,0.0016
2449.00,0.0016
2448.00,0.0017
2447.00,0.0017
2446.00,0.0017
2445.00,0.0016
2444.00,0.0016
2443.00,0.0015
2442.00,0.0014
2441.00,0.0014
2440.00,0.0014
2439.00,0.0014
2438.00,0.0014
2437.00,0.0015
2436.00,0.0015
2435.00,0.0015
2434.00,0.0015
2433.00,0.0015
2432.00,0.0015
2431.00,0.0015
2430.00,0.0016
2429.00,0.0016
2428.00,0.0017
2427.00,0.0017
2426.00,0.0017
2425.00,0.0016
2424.00,0.0016
2423.00,0.0015
2422.00,0.0015
2421.00,0.0014
2420.00,0.0014
2419.00,0.0014
2418.00,0.0014
2417.00,0.0014
2416.00,0.0014
2415.00,0.0014
2414.00,0.0014
2413.00,0.0014
2412.00,0.0015
2411.00,0.0015
2410.00,0.0015
2409.00,0.0014
2408.00,0.0014
2407.00,0.0013
2406.00,0.0012
2405.00,0.0012
2404.00,0.0012
2403.00,0.0013
2402.00,0.0013
2401.00,0.0013
2400.00,0.0013
2399.00,0.0013
2398.00,0.0013
2397.00,0.0013
2396.00,0.0013
2395.00,0.0012
2394.00,0.0012
2393.00,0.0011
2392.00,0.0011
2391.00,0.0011
2390.00,0.0011
2389.00,0.0011
2388.00,0.0011
2387.00,0.0010
2386.00,0.0010
2385.00,0.0010
2384.00,0.0010
2383.00,0.0010
2382.00,0.0010
2381.00,0.0009
2380.00,0.0009
2379.00,0.0009
2378.00,0.0009
2377.00,0.0010
2376.00,0.0010
2375.00,0.0009
2374.00,0.0009
2373.00,0.0009
2372.00,0.0010
2371.00,0.0010
2370.00,0.0010
2369.00,0.0010
2368.00,0.0009
2367.00,0.0009
2366.00,0.0009
2365.00,0.0009
2364.00,0.0009
2363.00,0.0009
2362.00,0.0010
2361.00,0.0010
2360.00,0.0010
2359.00,0.0010
2358.00,0.0011
2357.00,0.0011
2356.00,0.0011
2355.00,0.0011
2354.00,0.0011
2353.00,0.0011
2352.00,0.0011
2351.00,0.0011
2350.00,0.0012
2349.00,0.0012
2348.00,0.0012
2347.00,0.0012
2346.00,0.0012
2345.00,0.0012
2344.00,0.0012
2343.00,0.0013
2342.00,0.0014
2341.00,0.0014
2340.00,0.0014
2339.00,0.0014
2338.00,0.0014
2337.00,0.0014
2336.00,0.0014
2335.00,0.0014
2334.00,0.0013
2333.00,0.0012
2332.00,0.0012
2331.00,0.0013
2330.00,0.0013
2329.00,0.0014
2328.00,0.0015
2327.00,0.0018
2326.00,0.0022
2325.00,0.0025
2324.00,0.0028
2323.00,0.0027
2322.00,0.0026
2321.00,0.0024
2320.00,0.0022
2319.00,0.0021
2318.00,0.0020
2317.00,0.0019
2316.00,0.0018
2315.00,0.0018
2314.00,0.0017
2313.00,0.0017
2312.00,0.0016
2311.00,0.0015
2310.00,0.0015
2309.00,0.0015
2308.00,0.0015
2307.00,0.0015
2306.00,0.0015
2305.00,0.0015
2304.00,0.0015
2303.00,0.0015
2302.00,0.0015
2301.00,0.0016
2300.00,0.0017
2299.00,0.0017
2298.00,0.0017
2297.00,0.0017
2296.00,0.0017
2295.00,0.0018
2294.00,0.0019
2293.00,0.0020
2292.00,0.0021
2291.00,0.0021
2290.00,0.0022
2289.00,0.0022
2288.00,0.0023
2287.00,0.0023
2286.00,0.0023
2285.00,0.0023
2284.00,0.0022
2283.00,0.0020
2282.00,0.0020
2281.00,0.0019
2280.00,0.0019
2279.00,0.0019
2278.00,0.0018
2277.00,0.0017
2276.00,0.0017
2275.00,0.0017
2274.00,0.0017
2273.00,0.0018
2272.00,0.0018
2271.00,0.0017
2270.00,0.0017
2269.00,0.0016
2268.00,0.0016
2267.00,0.0017
2266.00,0.0017
2265.00,0.0017
2264.00,0.0017
2263.00,0.0016
2262.00,0.0016
2261.00,0.0017
2260.00,0.0018
2259.00,0.0019
2258.00,0.0019
2257.00,0.0019
2256.00,0.0017
2255.00,0.0015
2254.00,0.0014
2253.00,0.0013
2252.00,0.0013
2251.00,0.0014
2250.00,0.0015
2249.00,0.0015
2248.00,0.0015
2247.00,0.0014
2246.00,0.0013
2245.00,0.0012
2244.00,0.0013
2243.00,0.0014
2242.00,0.0014
2241.00,0.0015
2240.00,0.0015
2239.00,0.0015
2238.00,0.0014
2237.00,0.0014
2236.00,0.0014
2235.00,0.0015
2234.00,0.0016
2233.00,0.0016
2232.00,0.0016
2231.00,0.0016
2230.00,0.0015
2229.00,0.0013
2228.00,0.0012
2227.00,0.0012
2226.00,0.0013
2225.00,0.0015
2224.00,0.0016
2223.00,0.0015
2222.00,0.0012
2221.00,0.0010
2220.00,0.0009
2219.00,0.0009
2218.00,0.0009
2217.00,0.0009
2216.00,0.0010
2215.00,0.0010
2214.00,0.0011
2213.00,0.0011
2212.00,0.0012
2211.00,0.0013
2210.00,0.0013
2209.00,0.0013
2208.00,0.0012
2207.00,0.0011
2206.00,0.0009
2205.00,0.0009
2204.00,0.0010
2203.00,0.0012
2202.00,0.0013
2201.00,0.0014
2200.00,0.0014
2199.00,0.0013
2198.00,0.0012
2197.00,0.0012
2196.00,0.0012
2195.00,0.0012
2194.00,0.0012
2193.00,0.0011
2192.00,0.0011
2191.00,0.0011
2190.00,0.0011
2189.00,0.0011
2188.00,0.0011
2187.00,0.0011
2186.00,0.0011
2185.00,0.0010
2184.00,0.0009
2183.00,0.0008
2182.00,0.0007
2181.00,0.0007
2180.00,0.0009
2179.00,0.0010
2178.00,0.0009
2177.00,0.0007
2176.00,0.0004
2175.00,0.0003
2174.00,0.0004
2173.00,0.0008
2172.00,0.0012
2171.00,0.0016
2170.00,0.0020
2169.00,0.0024
2168.00,0.0027
2167.00,0.0029
2166.00,0.0030
2165.00,0.0029
2164.00,0.0026
2163.00,0.0023
2162.00,0.0020
2161.00,0.0014
2160.00,0.0005
2159.00,-0.0008
2158.00,-0.0019
2157.00,-0.0025
2156.00,-0.0026
2155.00,-0.0024
2154.00,-0.0022
2153.00,-0.0021
2152.00,-0.0020
2151.00,-0.0019
2150.00,-0.0016
2149.00,-0.0013
2148.00,-0.0011
2147.00,-0.0010
2146.00,-0.0010
2145.00,-0.0010
2144.00,-0.0010
2143.00,-0.0009
2142.00,-0.0009
2141.00,-0.0008
2140.00,-0.0008
2139.00,-0.0010
2138.00,-0.0011
2137.00,-0.0012
2136.00,-0.0012
2135.00,-0.0012
2134.00,-0.0012
2133.00,-0.0011
2132.00,-0.0011
2131.00,-0.0010
2130.00,-0.0009
2129.00,-0.0009
2128.00,-0.0008
2127.00,-0.0007
2126.00,-0.0006
2125.00,-0.0005
2124.00,-0.0004
2123.00,-0.0003
2122.00,-0.0003
2121.00,-0.0003
2120.00,-0.0003
2119.00,-0.0002
2118.00,-0.0001
2117.00,0.0002
2116.00,0.0004
2115.00,0.0005
2114.00,0.0005
2113.00,0.0006
2112.00,0.0006
2111.00,0.0007
2110.00,0.0007
2109.00,0.0006
2108.00,0.0006
2107.00,0.0006
2106.00,0.0006
2105.00,0.0006
2104.00,0.0007
2103.00,0.0008
2102.00,0.0008
2101.00,0.0008
2100.00,0.0007
2099.00,0.0006
2098.00,0.0006
2097.00,0.0005
2096.00,0.0004
2095.00,0.0002
2094.00,0.0002
2093.00,0.0002
2092.00,0.0002
2091.00,0.0002
2090.00,0.0001
2089.00,0.0002
2088.00,0.0003
2087.00,0.0005
2086.00,0.0006
2085.00,0.0007
2084.00,0.0008
2083.00,0.0009
2082.00,0.0008
2081.00,0.0008
2080.00,0.0007
2079.00,0.0006
2078.00,0.0005
2077.00,0.0003
2076.00,0.0002
2075.00,0.0002
2074.00,0.0002
2073.00,0.0003
2072.00,0.0005
2071.00,0.0005
2070.00,0.0005
2069.00,0.0004
2068.00,0.0003
2067.00,0.0003
2066.00,0.0004
2065.00,0.0005
2064.00,0.0006
2063.00,0.0005
2062.00,0.0004
2061.00,0.0003
2060.00,0.0004
2059.00,0.0005
2058.00,0.0006
2057.00,0.0007
2056.00,0.0007
2055.00,0.0006
2054.00,0.0006
2053.00,0.0008
2052.00,0.0011
2051.00,0.0014
2050.00,0.0014
2049.00,0.0012
2048.00,0.0008
2047.00,0.0003
2046.00,-0.0001
2045.00,-0.0002
2044.00,-0.0002
2043.00,-0.0001
2042.00,-0.0000
2041.00,0.0001
2040.00,0.0004
2039.00,0.0008
2038.00,0.0012
2037.00,0.0015
2036.00,0.0014
2035.00,0.0010
2034.00,0.0003
2033.00,-0.0004
2032.00,-0.0009
2031.00,-0.0011
2030.00,-0.0011
2029.00,-0.0011
2028.00,-0.0011
2027.00,-0.0012
2026.00,-0.0013
2025.00,-0.0010
2024.00,-0.0006
2023.00,-0.0002
2022.00,-0.0001
2021.00,-0.0003
2020.00,-0.0005
2019.00,-0.0007
2018.00,-0.0009
2017.00,-0.0009
2016.00,-0.0010
2015.00,-0.0010
2014.00,-0.0010
2013.00,-0.0009
2012.00,-0.0007
2011.00,-0.0006
2010.00,-0.0007
2009.00,-0.0009
2008.00,-0.0012
2007.00,-0.0015
2006.00,-0.0017
2005.00,-0.0017
2004.00,-0.0015
2003.00,-0.0012
2002.00,-0.0010
2001.00,-0.0008
2000.00,-0.0007
1999.00,-0.0008
1998.00,-0.0010
1997.00,-0.0011
1996.00,-0.0011
1995.00,-0.0011
1994.00,-0.0011
1993.00,-0.0011
1992.00,-0.0010
1991.00,-0.0009
1990.00,-0.0008
1989.00,-0.0007
1988.00,-0.0007
1987.00,-0.0007
1986.00,-0.0006
1985.00,-0.0005
1984.00,-0.0002
1983.00,0.0002
1982.00,0.0008
1981.00,0.0014
1980.00,0.0017
1979.00,0.0013
1978.00,0.0006
1977.00,-0.0002
1976.00,-0.0007
1975.00,-0.0008
1974.00,-0.0007
1973.00,-0.0005
1972.00,-0.0003
1971.00,-0.0004
1970.00,-0.0007
1969.00,-0.0009
1968.00,-0.0010
1967.00,-0.0011
1966.00,-0.0011
1965.00,-0.0010
1964.00,-0.0010
1963.00,-0.0010
1962.00,-0.0012
1961.00,-0.0014
1960.00,-0.0015
1959.00,-0.0016
1958.00,-0.0016
1957.00,-0.0014
1956.00,-0.0011
1955.00,-0.0009
1954.00,-0.0008
1953.00,-0.0007
1952.00,-0.0005
1951.00,-0.0004
1950.00,-0.0004
1949.00,-0.0005
1948.00,-0.0006
1947.00,-0.0007
1946.00,-0.0008
1945.00,-0.0008
1944.00,-0.0008
1943.00,-0.0008
1942.00,-0.0008
1941.00,-0.0006
1940.00,-0.0005
1939.00,-0.0004
1938.00,-0.0005
1937.00,-0.0006
1936.00,-0.0007
1935.00,-0.0008
1934.00,-0.0009
1933.00,-0.0008
1932.00,-0.0007
1931.00,-0.0006
1930.00,-0.0006
1929.00,-0.0005
1928.00,-0.0004
1927.00,-0.0004
1926.00,-0.0003
1925.00,-0.0003
1924.00,-0.0002
1923.00,-0.0000
1922.00,0.0001
1921.00,0.0002
1920.00,0.0002
1919.00,0.0001
1918.00,0.0000
1917.00,-0.0000
1916.00,-0.0000
1915.00,-0.0000
1914.00,0.0000
1913.00,0.0000
1912.00,0.0001
1911.00,0.0001
1910.00,0.0002
1909.00,0.0002
1908.00,0.0001
1907.00,0.0001
1906.00,0.0001
1905.00,0.0001
1904.00,0.0001
1903.00,0.0001
1902.00,0.0002
1901.00,0.0002
1900.00,0.0002
1899.00,0.0002
1898.00,0.0002
1897.00,0.0002
1896.00,0.0004
1895.00,0.0005
1894.00,0.0006
1893.00,0.0006
1892.00,0.0004
1891.00,0.0003
1890.00,0.0001
1889.00,0.0001
1888.00,0.0001
1887.00,0.0002
1886.00,0.0002
1885.00,0.0003
1884.00,0.0003
1883.00,0.0003
1882.00,0.0003
1881.00,0.0003
1880.00,0.0004
1879.00,0.0004
1878.00,0.0004
1877.00,0.0004
1876.00,0.0004
1875.00,0.0003
1874.00,0.0002
1873.00,0.0002
1872.00,0.0002
1871.00,0.0003
1870.00,0.0004
1869.00,0.0005
1868.00,0.0005
1867.00,0.0005
1866.00,0.0004
1865.00,0.0004
1864.00,0.0004
1863.00,0.0004
1862.00,0.0004
1861.00,0.0004
1860.00,0.0004
1859.00,0.0003
1858.00,0.0004
1857.00,0.0004
1856.00,0.0004
1855.00,0.0005
1854.00,0.0005
1853.00,0.0005
1852.00,0.0005
1851.00,0.0004
1850.00,0.0004
1849.00,0.0003
1848.00,0.0004
1847.00,0.0004
1846.00,0.0004
1845.00,0.0005
1844.00,0.0005
1843.00,0.0006
1842.00,0.0006
1841.00,0.0006
1840.00,0.0006
1839.00,0.0007
1838.00,0.0006
1837.00,0.0006
1836.00,0.0006
1835.00,0.0006
1834.00,0.0007
1833.00,0.0008
1832.00,0.0008
1831.00,0.0008
1830.00,0.0008
1829.00,0.0008
1828.00,0.0008
1827.00,0.0008
1826.00,0.0008
1825.00,0.0009
1824.00,0.0009
1823.00,0.0009
1822.00,0.0008
1821.00,0.0008
1820.00,0.0007
1819.00,0.0006
1818.00,0.0004
1817.00,0.0003
1816.00,0.0002
1815.00,0.0003
1814.00,0.0004
1813.00,0.0006
1812.00,0.0007
1811.00,0.0007
1810.00,0.0007
1809.00,0.0006
1808.00,0.0007
1807.00,0.0007
1806.00,0.0007
1805.00,0.0008
1804.00,0.0008
1803.00,0.0008
1802.00,0.0008
1801.00,0.0008
1800.00,0.0009
1799.00,0.0009
1798.00,0.0009
1797.00,0.0010
1796.00,0.0010
1795.00,0.0010
1794.00,0.0010
1793.00,0.0010
1792.00,0.0010
1791.00,0.0011
1790.00,0.0011
1789.00,0.0011
1788.00,0.0011
1787.00,0.0012
1786.00,0.0012
1785.00,0.0012
1784.00,0.0012
1783.00,0.0013
1782.00,0.0012
1781.00,0.0012
1780.00,0.0012
1779.00,0.0012
1778.00,0.0012
1777.00,0.0012
1776.00,0.0012
1775.00,0.0012
1774.00,0.0012
1773.00,0.0012
1772.00,0.0012
1771.00,0.0012
1770.00,0.0013
1769.00,0.0014
1768.00,0.0015
1767.00,0.0015
1766.00,0.0016
1765.00,0.0016
1764.00,0.0016
1763.00,0.0016
1762.00,0.0016
1761.00,0.0016
1760.00,0.0017
1759.00,0.0018
1758.00,0.0018
1757.00,0.0019
1756.00,0.0019
1755.00,0.0020
1754.00,0.0020
1753.00,0.0021
1752.00,0.0022
1751.00,0.0023
1750.00,0.0023
1749.00,0.0024
1748.00,0.0025
1747.00,0.0025
1746.00,0.0026
1745.00,0.0026
1744.00,0.0026
1743.00,0.0027
1742.00,0.0027
1741.00,0.0027
1740.00,0.0027
1739.00,0.0027
1738.00,0.0028
1737.00,0.0028
1736.00,0.0028
1735.00,0.0027
1734.00,0.0027
1733.00,0.0028
1732.00,0.0029
1731.00,0.0029
1730.00,0.0029
1729.00,0.0030
1728.00,0.0030
1727.00,0.0030
1726.00,0.0030
1725.00,0.0031
1724.00,0.0031
1723.00,0.0031
1722.00,0.0031
1721.00,0.0031
1720.00,0.0031
1719.00,0.0030
1718.00,0.0029
1717.00,0.0029
1716.00,0.0029
1715.00,0.0029
1714.00,0.0029
1713.00,0.0029
1712.00,0.0029
1711.00,0.0029
1710.00,0.0029
1709.00,0.0029
1708.00,0.0030
1707.00,0.0031
1706.00,0.0032
1705.00,0.0033
1704.00,0.0033
1703.00,0.0034
1702.00,0.0034
1701.00,0.0035
1700.00,0.0035
1699.00,0.0036
1698.00,0.0036
1697.00,0.0037
1696.00,0.0038
1695.00,0.0039
1694.00,0.0039
1693.00,0.0040
1692.00,0.0040
1691.00,0.0041
1690.00,0.0042
1689.00,0.0043
1688.00,0.0045
1687.00,0.0046
1686.00,0.0047
1685.00,0.0048
1684.00,0.0049
1683.00,0.0051
1682.00,0.0052
1681.00,0.0053
1680.00,0.0054
1679.00,0.0055
1678.00,0.0056
1677.00,0.0057
1676.00,0.0058
1675.00,0.0059
1674.00,0.0060
1673.00,0.0061
1672.00,0.0062
1671.00,0.0062
1670.00,0.0063
1669.00,0.0065
1668.00,0.0066
1667.00,0.0066
1666.00,0.0067
1665.00,0.0068
1664.00,0.0069
1663.00,0.0070
1662.00,0.0071
1661.00,0.0072
1660.00,0.0073
1659.00,0.0073
1658.00,0.0074
1657.00,0.0076
1656.00,0.0078
1655.00,0.0079
1654.00,0.0080
1653.00,0.0080
1652.00,0.0081
1651.00,0.0081
1650.00,0.0081
1649.00,0.0082
1648.00,0.0083
1647.00,0.0083
1646.00,0.0084
1645.00,0.0084
1644.00,0.0084
1643.00,0.0084
1642.00,0.0084
1641.00,0.0085
1640.00,0.0086
1639.00,0.0087
1638.00,0.0087
1637.00,0.0087
1636.00,0.0087
1635.00,0.0087
1634.00,0.0087
1633.00,0.0087
1632.00,0.0086
1631.00,0.0086
1630.00,0.0085
1629.00,0.0084
1628.00,0.0084
1627.00,0.0083
1626.00,0.0083
1625.00,0.0082
1624.00,0.0082
1623.00,0.0081
1622.00,0.0081
1621.00,0.0080
1620.00,0.0080
1619.00,0.0079
1618.00,0.0078
1617.00,0.0077
1616.00,0.0076
1615.00,0.0076
1614.00,0.0076
1613.00,0.0076
1612.00,0.0076
1611.00,0.0076
1610.00,0.0075
1609.00,0.0075
1608.00,0.0075
1607.00,0.0074
1606.00,0.0074
1605.00,0.0074
1604.00,0.0074
1603.00,0.0073
1602.00,0.0073
1601.00,0.0073
1600.00,0.0074
1599.00,0.0074
1598.00,0.0074
1597.00,0.0075
1596.00,0.0075
1595.00,0.0075
1594.00,0.0076
1593.00,0.0077
1592.00,0.0077
1591.00,0.0078
1590.00,0.0079
1589.00,0.0080
1588.00,0.0082
1587.00,0.0085
1586.00,0.0088
1585.00,0.0091
1584.00,0.0095
1583.00,0.0099
1582.00,0.0104
1581.00,0.0109
1580.00,0.0114
1579.00,0.0118
1578.00,0.0121
1577.00,0.0122
1576.00,0.0121
1575.00,0.0120
1574.00,0.0117
1573.00,0.0115
1572.00,0.0113
1571.00,0.0109
1570.00,0.0105
1569.00,0.0101
1568.00,0.0099
1567.00,0.0097
1566.00,0.0095
1565.00,0.0094
1564.00,0.0093
1563.00,0.0093
1562.00,0.0093
1561.00,0.0093
1560.00,0.0093
1559.00,0.0093
1558.00,0.0094
1557.00,0.0095
1556.00,0.0096
1555.00,0.0096
1554.00,0.0097
1553.00,0.0098
1552.00,0.0100
1551.00,0.0102
1550.00,0.0105
1549.00,0.0108
1548.00,0.0111
1547.00,0.0115
1546.00,0.0119
1545.00,0.0124
1544.00,0.0130
1543.00,0.0135
1542.00,0.0139
1541.00,0.0140
1540.00,0.0139
1539.00,0.0134
1538.00,0.0128
1537.00,0.0123
1536.00,0.0118
1535.00,0.0112
1534.00,0.0105
1533.00,0.0099
1532.00,0.0094
1531.00,0.0091
1530.00,0.0087
1529.00,0.0084
1528.00,0.0082
1527.00,0.0080
1526.00,0.0078
1525.00,0.0077
1524.00,0.0076
1523.00,0.0075
1522.00,0.0074
1521.00,0.0074
1520.00,0.0076
1519.00,0.0077
1518.00,0.0077
1517.00,0.0077
1516.00,0.0078
1515.00,0.0078
1514.00,0.0077
1513.00,0.0077
1512.00,0.0077
1511.00,0.0078
1510.00,0.0078
1509.00,0.0079
1508.00,0.0080
1507.00,0.0080
1506.00,0.0081
1505.00,0.0082
1504.00,0.0084
1503.00,0.0085
1502.00,0.0086
1501.00,0.0089
1500.00,0.0092
1499.00,0.0095
1498.00,0.0098
1497.00,0.0102
1496.00,0.0106
1495.00,0.0110
1494.00,0.0113
1493.00,0.0117
1492.00,0.0122
1491.00,0.0126
1490.00,0.0131
1489.00,0.0137
1488.00,0.0144
1487.00,0.0151
1486.00,0.0157
1485.00,0.0166
1484.00,0.0175
1483.00,0.0184
1482.00,0.0195
1481.00,0.0209
1480.00,0.0223
1479.00,0.0237
1478.00,0.0254
1477.00,0.0275
1476.00,0.0301
1475.00,0.0331
1474.00,0.0371
1473.00,0.0427
1472.00,0.0492
1471.00,0.0555
1470.00,0.0615
1469.00,0.0680
1468.00,0.0750
1467.00,0.0827
1466.00,0.0914
1465.00,0.1006
1464.00,0.1086
1463.00,0.1140
1462.00,0.1173
1461.00,0.1193
1460.00,0.1206
1459.00,0.1211
1458.00,0.1211
1457.00,0.1207
1456.00,0.1197
1455.00,0.1182
1454.00,0.1164
1453.00,0.1141
1452.00,0.1108
1451.00,0.1066
1450.00,0.1012
1449.00,0.0942
1448.00,0.0856
1447.00,0.0767
1446.00,0.0689
1445.00,0.0623
1444.00,0.0567
1443.00,0.0521
1442.00,0.0488
1441.00,0.0465
1440.00,0.0453
1439.00,0.0450
1438.00,0.0455
1437.00,0.0460
1436.00,0.0455
1435.00,0.0434
1434.00,0.0400
1433.00,0.0359
1432.00,0.0314
1431.00,0.0274
1430.00,0.0244
1429.00,0.0221
1428.00,0.0205
1427.00,0.0196
1426.00,0.0189
1425.00,0.0184
1424.00,0.0178
1423.00,0.0176
1422.00,0.0174
1421.00,0.0171
1420.00,0.0166
1419.00,0.0163
1418.00,0.0160
1417.00,0.0156
1416.00,0.0153
1415.00,0.0150
1414.00,0.0148
1413.00,0.0145
1412.00,0.0142
1411.00,0.0141
1410.00,0.0140
1409.00,0.0138
1408.00,0.0137
1407.00,0.0136
1406.00,0.0136
1405.00,0.0135
1404.00,0.0134
1403.00,0.0134
1402.00,0.0135
1401.00,0.0135
1400.00,0.0134
1399.00,0.0135
1398.00,0.0137
1397.00,0.0138
1396.00,0.0139
1395.00,0.0142
1394.00,0.0147
1393.00,0.0152
1392.00,0.0157
1391.00,0.0165
1390.00,0.0174
1389.00,0.0187
1388.00,0.0206
1387.00,0.0236
1386.00,0.0276
1385.00,0.0330
1384.00,0.0404
1383.00,0.0511
1382.00,0.0659
1381.00,0.0853
1380.00,0.1097
1379.00,0.1379
1378.00,0.1654
1377.00,0.1859
1376.00,0.1933
1375.00,0.1841
1374.00,0.1611
1373.00,0.1331
1372.00,0.1074
1371.00,0.0863
1370.00,0.0697
1369.00,0.0572
1368.00,0.0486
1367.00,0.0433
1366.00,0.0404
1365.00,0.0392
1364.00,0.0394
1363.00,0.0408
1362.00,0.0429
1361.00,0.0452
1360.00,0.0469
1359.00,0.0475
1358.00,0.0466
1357.00,0.0441
1356.00,0.0406
1355.00,0.0366
1354.00,0.0327
1353.00,0.0293
1352.00,0.0266
1351.00,0.0244
1350.00,0.0226
1349.00,0.0212
1348.00,0.0201
1347.00,0.0191
1346.00,0.0183
1345.00,0.0176
1344.00,0.0170
1343.00,0.0166
1342.00,0.0161
1341.00,0.0158
1340.00,0.0155
1339.00,0.0154
1338.00,0.0153
1337.00,0.0153
1336.00,0.0154
1335.00,0.0156
1334.00,0.0159
1333.00,0.0163
1332.00,0.0166
1331.00,0.0169
1330.00,0.0170
1329.00,0.0169
1328.00,0.0165
1327.00,0.0159
1326.00,0.0153
1325.00,0.0148
1324.00,0.0143
1323.00,0.0139
1322.00,0.0136
1321.00,0.0134
1320.00,0.0133
1319.00,0.0132
1318.00,0.0130
1317.00,0.0129
1316.00,0.0128
1315.00,0.0127
1314.00,0.0126
1313.00,0.0125
1312.00,0.0125
1311.00,0.0125
1310.00,0.0126
1309.00,0.0130
1308.00,0.0135
1307.00,0.0142
1306.00,0.0149
1305.00,0.0154
1304.00,0.0156
1303.00,0.0155
1302.00,0.0152
1301.00,0.0150
1300.00,0.0149
1299.00,0.0149
1298.00,0.0151
1297.00,0.0152
1296.00,0.0152
1295.00,0.0150
1294.00,0.0146
1293.00,0.0141
1292.00,0.0136
1291.00,0.0131
1290.00,0.0126
1289.00,0.0122
1288.00,0.0118
1287.00,0.0115
1286.00,0.0113
1285.00,0.0111
1284.00,0.0109
1283.00,0.0108
1282.00,0.0107
1281.00,0.0107
1280.00,0.0106
1279.00,0.0106
1278.00,0.0105
1277.00,0.0104
1276.00,0.0103
1275.00,0.0102
1274.00,0.0101
1273.00,0.0100
1272.00,0.0101
1271.00,0.0102
1270.00,0.0103
1269.00,0.0104
1268.00,0.0105
1267.00,0.0107
1266.00,0.0109
1265.00,0.0111
1264.00,0.0114
1263.00,0.0117
1262.00,0.0119
1261.00,0.0122
1260.00,0.0126
1259.00,0.0129
1258.00,0.0134
1257.00,0.0137
1256.00,0.0138
1255.00,0.0136
1254.00,0.0132
1253.00,0.0126
1252.00,0.0121
1251.00,0.0117
1250.00,0.0114
1249.00,0.0111
1248.00,0.0108
1247.00,0.0106
1246.00,0.0105
1245.00,0.0103
1244.00,0.0101
1243.00,0.0100
1242.00,0.0099
1241.00,0.0098
1240.00,0.0098
1239.00,0.0098
1238.00,0.0098
1237.00,0.0098
1236.00,0.0098
1235.00,0.0099
1234.00,0.0099
1233.00,0.0099
1232.00,0.0100
1231.00,0.0101
1230.00,0.0101
1229.00,0.0102
1228.00,0.0104
1227.00,0.0106
1226.00,0.0109
1225.00,0.0112
1224.00,0.0115
1223.00,0.0119
1222.00,0.0123
1221.00,0.0126
1220.00,0.0128
1219.00,0.0129
1218.00,0.0127
1217.00,0.0125
1216.00,0.0121
1215.00,0.0118
1214.00,0.0115
1213.00,0.0113
1212.00,0.0111
1211.00,0.0109
1210.00,0.0108
1209.00,0.0107
1208.00,0.0106
1207.00,0.0105
1206.00,0.0105
1205.00,0.0104
1204.00,0.0104
1203.00,0.0104
1202.00,0.0104
1201.00,0.0104
1200.00,0.0103
1199.00,0.0102
1198.00,0.0102
1197.00,0.0102
1196.00,0.0102
1195.00,0.0101
1194.00,0.0101
1193.00,0.0101
1192.00,0.0101
1191.00,0.0101
1190.00,0.0100
1189.00,0.0100
1188.00,0.0099
1187.00,0.0098
1186.00,0.0098
1185.00,0.0097
1184.00,0.0098
1183.00,0.0098
1182.00,0.0100
1181.00,0.0102
1180.00,0.0105
1179.00,0.0108
1178.00,0.0113
1177.00,0.0119
1176.00,0.0127
1175.00,0.0138
1174.00,0.0151
1173.00,0.0168
1172.00,0.0189
1171.00,0.0211
1170.00,0.0234
1169.00,0.0253
1168.00,0.0265
1167.00,0.0270
1166.00,0.0269
1165.00,0.0263
1164.00,0.0255
1163.00,0.0247
1162.00,0.0240
1161.00,0.0234
1160.00,0.0229
1159.00,0.0226
1158.00,0.0223
1157.00,0.0222
1156.00,0.0221
1155.00,0.0221
1154.00,0.0221
1153.00,0.0220
1152.00,0.0216
1151.00,0.0210
1150.00,0.0202
1149.00,0.0192
1148.00,0.0183
1147.00,0.0175
1146.00,0.0167
1145.00,0.0160
1144.00,0.0152
1143.00,0.0145
1142.00,0.0139
1141.00,0.0134
1140.00,0.0130
1139.00,0.0127
1138.00,0.0124
1137.00,0.0122
1136.00,0.0120
1135.00,0.0119
1134.00,0.0119
1133.00,0.0119
1132.00,0.0119
1131.00,0.0120
1130.00,0.0122
1129.00,0.0124
1128.00,0.0126
1127.00,0.0128
1126.00,0.0131
1125.00,0.0133
1124.00,0.0135
1123.00,0.0137
1122.00,0.0138
1121.00,0.0140
1120.00,0.0142
1119.00,0.0143
1118.00,0.0146
1117.00,0.0148
1116.00,0.0151
1115.00,0.0155
1114.00,0.0158
1113.00,0.0162
1112.00,0.0166
1111.00,0.0169
1110.00,0.0172
1109.00,0.0176
1108.00,0.0180
1107.00,0.0186
1106.00,0.0193
1105.00,0.0199
1104.00,0.0203
1103.00,0.0204
1102.00,0.0202
1101.00,0.0197
1100.00,0.0190
1099.00,0.0182
1098.00,0.0175
1097.00,0.0169
1096.00,0.0163
1095.00,0.0159
1094.00,0.0154
1093.00,0.0151
1092.00,0.0147
1091.00,0.0145
1090.00,0.0143
1089.00,0.0141
1088.00,0.0140
1087.00,0.0139
1086.00,0.0139
1085.00,0.0138
1084.00,0.0138
1083.00,0.0137
1082.00,0.0136
1081.00,0.0136
1080.00,0.0135
1079.00,0.0134
1078.00,0.0134
1077.00,0.0133
1076.00,0.0132
1075.00,0.0132
1074.00,0.0131
1073.00,0.0132
1072.00,0.0132
1071.00,0.0133
1070.00,0.0135
1069.00,0.0136
1068.00,0.0137
1067.00,0.0139
1066.00,0.0141
1065.00,0.0144
1064.00,0.0147
1063.00,0.0150
1062.00,0.0152
1061.00,0.0154
1060.00,0.0156
1059.00,0.0158
1058.00,0.0160
1057.00,0.0161
1056.00,0.0162
1055.00,0.0163
1054.00,0.0163
1053.00,0.0164
1052.00,0.0163
1051.00,0.0163
1050.00,0.0162
1049.00,0.0161
1048.00,0.0161
1047.00,0.0161
1046.00,0.0163
1045.00,0.0164
1044.00,0.0164
1043.00,0.0164
1042.00,0.0163
1041.00,0.0162
1040.00,0.0163
1039.00,0.0165
1038.00,0.0168
1037.00,0.0172
1036.00,0.0175
1035.00,0.0176
1034.00,0.0176
1033.00,0.0175
1032.00,0.0172
1031.00,0.0170
1030.00,0.0167
1029.00,0.0165
1028.00,0.0164
1027.00,0.0162
1026.00,0.0161
1025.00,0.0159
1024.00,0.0157
1023.00,0.0155
1022.00,0.0153
1021.00,0.0152
1020.00,0.0152
1019.00,0.0152
1018.00,0.0154
1017.00,0.0155
1016.00,0.0157
1015.00,0.0158
1014.00,0.0159
1013.00,0.0161
1012.00,0.0163
1011.00,0.0165
1010.00,0.0167
1009.00,0.0169
1008.00,0.0170
1007.00,0.0173
1006.00,0.0178
1005.00,0.0185
1004.00,0.0196
1003.00,0.0211
1002.00,0.0231
1001.00,0.0255
1000.00,0.0279
999.00,0.0298
998.00,0.0306
997.00,0.0300
996.00,0.0280
995.00,0.0254
994.00,0.0227
993.00,0.0203
992.00,0.0184
991.00,0.0170
990.00,0.0160
989.00,0.0154
988.00,0.0150
987.00,0.0148
986.00,0.0148
985.00,0.0150
984.00,0.0152
983.00,0.0157
982.00,0.0164
981.00,0.0175
980.00,0.0191
979.00,0.0211
978.00,0.0237
977.00,0.0267
976.00,0.0298
975.00,0.0325
974.00,0.0343
973.00,0.0346
972.00,0.0331
971.00,0.0302
970.00,0.0265
969.00,0.0229
968.00,0.0198
967.00,0.0174
966.00,0.0157
965.00,0.0144
964.00,0.0134
963.00,0.0128
962.00,0.0122
961.00,0.0118
960.00,0.0113
959.00,0.0109
958.00,0.0105
957.00,0.0102
956.00,0.0100
955.00,0.0098
954.00,0.0097
953.00,0.0096
952.00,0.0094
951.00,0.0093
950.00,0.0092
949.00,0.0091
948.00,0.0091
947.00,0.0092
946.00,0.0093
945.00,0.0096
944.00,0.0100
943.00,0.0105
942.00,0.0109
941.00,0.0111
940.00,0.0111
939.00,0.0108
938.00,0.0104
937.00,0.0099
936.00,0.0094
935.00,0.0090
934.00,0.0087
933.00,0.0084
932.00,0.0083
931.00,0.0083
930.00,0.0082
929.00,0.0082
928.00,0.0082
927.00,0.0082
926.00,0.0082
925.00,0.0081
924.00,0.0081
923.00,0.0080
922.00,0.0079
921.00,0.0079
920.00,0.0079
919.00,0.0079
918.00,0.0080
917.00,0.0081
916.00,0.0083
915.00,0.0084
914.00,0.0085
913.00,0.0086
912.00,0.0088
911.00,0.0090
910.00,0.0093
909.00,0.0097
908.00,0.0101
907.00,0.0106
906.00,0.0114
905.00,0.0124
904.00,0.0137
903.00,0.0155
902.00,0.0174
901.00,0.0192
900.00,0.0205
899.00,0.0207
898.00,0.0200
897.00,0.0184
896.00,0.0165
895.00,0.0146
894.00,0.0130
893.00,0.0118
892.00,0.0109
891.00,0.0103
890.00,0.0099
889.00,0.0096
888.00,0.0094
887.00,0.0092
886.00,0.0091
885.00,0.0090
884.00,0.0090
883.00,0.0090
882.00,0.0091
881.00,0.0092
880.00,0.0092
879.00,0.0093
878.00,0.0093
877.00,0.0094
876.00,0.0094
875.00,0.0094
874.00,0.0094
873.00,0.0093
872.00,0.0093
871.00,0.0093
870.00,0.0094
869.00,0.0093
868.00,0.0093
867.00,0.0092
866.00,0.0092
865.00,0.0092
864.00,0.0092
863.00,0.0093
862.00,0.0095
861.00,0.0096
860.00,0.0096
859.00,0.0097
858.00,0.0098
857.00,0.0100
856.00,0.0102
855.00,0.0105
854.00,0.0107
853.00,0.0107
852.00,0.0108
851.00,0.0109
850.00,0.0111
849.00,0.0114
848.00,0.0119
847.00,0.0127
846.00,0.0140
845.00,0.0160
844.00,0.0188
843.00,0.0220
842.00,0.0246
841.00,0.0252
840.00,0.0237
839.00,0.0208
838.00,0.0177
837.00,0.0153
836.00,0.0138
835.00,0.0129
834.00,0.0124
833.00,0.0120
832.00,0.0116
831.00,0.0114
830.00,0.0111
829.00,0.0110
828.00,0.0110
827.00,0.0110
826.00,0.0111
825.00,0.0113
824.00,0.0115
823.00,0.0116
822.00,0.0116
821.00,0.0117
820.00,0.0119
819.00,0.0122
818.00,0.0127
817.00,0.0134
816.00,0.0142
815.00,0.0154
814.00,0.0170
813.00,0.0190
812.00,0.0212
811.00,0.0232
810.00,0.0246
809.00,0.0251
808.00,0.0247
807.00,0.0234
806.00,0.0217
805.00,0.0199
804.00,0.0181
803.00,0.0166
802.00,0.0154
801.00,0.0145
800.00,0.0138
799.00,0.0133
798.00,0.0129
797.00,0.0125
796.00,0.0121
795.00,0.0117
794.00,0.0114
793.00,0.0111
792.00,0.0110
791.00,0.0110
790.00,0.0110
789.00,0.0109
788.00,0.0105
787.00,0.0100
786.00,0.0095
785.00,0.0092
784.00,0.0089
783.00,0.0088
782.00,0.0087
781.00,0.0087
780.00,0.0086
779.00,0.0087
778.00,0.0088
777.00,0.0089
776.00,0.0090
775.00,0.0090
774.00,0.0090
773.00,0.0090
772.00,0.0090
771.00,0.0091
770.00,0.0093
769.00,0.0094
768.00,0.0095
767.00,0.0095
766.00,0.0093
765.00,0.0091
764.00,0.0090
763.00,0.0090
762.00,0.0092
761.00,0.0093
760.00,0.0094
759.00,0.0094
758.00,0.0095
757.00,0.0095
756.00,0.0096
755.00,0.0097
754.00,0.0099
753.00,0.0100
752.00,0.0102
751.00,0.0103
750.00,0.0104
749.00,0.0106
748.00,0.0107
747.00,0.0109
746.00,0.0110
745.00,0.0111
744.00,0.0113
743.00,0.0115
742.00,0.0120
741.00,0.0125
740.00,0.0130
739.00,0.0134
738.00,0.0137
737.00,0.0140
736.00,0.0145
735.00,0.0151
734.00,0.0158
733.00,0.0166
732.00,0.0175
731.00,0.0184
730.00,0.0192
729.00,0.0196
728.00,0.0197
727.00,0.0197
726.00,0.0200
725.00,0.0206
724.00,0.0213
723.00,0.0221
722.00,0.0230
721.00,0.0235
720.00,0.0235
719.00,0.0226
718.00,0.0211
717.00,0.0196
716.00,0.0183
715.00,0.0175
714.00,0.0168
713.00,0.0162
712.00,0.0158
711.00,0.0154
710.00,0.0153
709.00,0.0152
708.00,0.0153
707.00,0.0153
706.00,0.0152
705.00,0.0152
704.00,0.0151
703.00,0.0149
702.00,0.0148
701.00,0.0146
700.00,0.0144
699.00,0.0143
698.00,0.0142
697.00,0.0142
696.00,0.0141
695.00,0.0141
694.00,0.0140
693.00,0.0140
692.00,0.0140
691.00,0.0140
690.00,0.0139
689.00,0.0138
688.00,0.0137
687.00,0.0136
686.00,0.0137
685.00,0.0137
684.00,0.0138
683.00,0.0139
682.00,0.0139
681.00,0.0140
680.00,0.0141
679.00,0.0141
678.00,0.0140
677.00,0.0140
676.00,0.0141
675.00,0.0142
674.00,0.0143
673.00,0.0144
672.00,0.0145
671.00,0.0145
670.00,0.0145
669.00,0.0144
668.00,0.0143
667.00,0.0143
666.00,0.0143
665.00,0.0143
664.00,0.0144
663.00,0.0144
662.00,0.0143
661.00,0.0141
660.00,0.0140
659.00,0.0138
658.00,0.0137
657.00,0.0135
656.00,0.0131
655.00,0.0127
654.00,0.0127
653.00,0.0129
652.00,0.0133
651.00,0.0135
650.00,0.0135
649.00,0.0134
648.00,0.0133
647.00,0.0132
646.00,0.0131
645.00,0.0132
644.00,0.0133
643.00,0.0134
642.00,0.0135
641.00,0.0136
640.00,0.0138
639.00,0.0140
638.00,0.0142
637.00,0.0144
636.00,0.0145
635.00,0.0144
634.00,0.0141
633.00,0.0138
632.00,0.0137
631.00,0.0138
630.00,0.0141
629.00,0.0144
628.00,0.0146
627.00,0.0146
626.00,0.0146
625.00,0.0145
624.00,0.0144
623.00,0.0145
622.00,0.0146
621.00,0.0146
620.00,0.0145
619.00,0.0144
618.00,0.0142
617.00,0.0141
616.00,0.0140
615.00,0.0140
614.00,0.0140
613.00,0.0140
612.00,0.0141
611.00,0.0142
610.00,0.0145
609.00,0.0145
608.00,0.0143
607.00,0.0142
606.00,0.0143
605.00,0.0147
604.00,0.0149
603.00,0.0147
602.00,0.0142
601.00,0.0136
600.00,0.0133
599.00,0.0134
598.00,0.0135
597.00,0.0136
596.00,0.0137
595.00,0.0138
594.00,0.0137
593.00,0.0136
592.00,0.0135
591.00,0.0135
590.00,0.0136
589.00,0.0136
588.00,0.0135
587.00,0.0132
586.00,0.0131
585.00,0.0130
584.00,0.0131
583.00,0.0134
582.00,0.0136
581.00,0.0135
580.00,0.0132
579.00,0.0130
578.00,0.0131
577.00,0.0134
576.00,0.0136
575.00,0.0138
574.00,0.0139
573.00,0.0142
572.00,0.0145
571.00,0.0148
570.00,0.0147
569.00,0.0144
568.00,0.0138
567.00,0.0133
566.00,0.0131
565.00,0.0133
564.00,0.0137
563.00,0.0141
562.00,0.0144
561.00,0.0146
560.00,0.0145
559.00,0.0143
558.00,0.0141
557.00,0.0142
556.00,0.0146
555.00,0.0148
554.00,0.0147
553.00,0.0142
552.00,0.0136
551.00,0.0133
550.00,0.0132
549.00,0.0131
548.00,0.0131
547.00,0.0131
546.00,0.0131
545.00,0.0132
544.00,0.0133
543.00,0.0133
542.00,0.0133
541.00,0.0130
540.00,0.0128
539.00,0.0127
538.00,0.0129
537.00,0.0132
536.00,0.0136
535.00,0.0140
534.00,0.0144
533.00,0.0145
532.00,0.0144
531.00,0.0142
530.00,0.0141
529.00,0.0141
528.00,0.0141
527.00,0.0140
526.00,0.0137
525.00,0.0135
524.00,0.0136
523.00,0.0140
522.00,0.0147
521.00,0.0153
520.00,0.0154
519.00,0.0149
518.00,0.0138
517.00,0.0128
516.00,0.0121
515.00,0.0120
514.00,0.0121
513.00,0.0121
512.00,0.0120
511.00,0.0119
510.00,0.0121
509.00,0.0126
508.00,0.0131
507.00,0.0131
506.00,0.0127
505.00,0.0122
504.00,0.0121
503.00,0.0124
502.00,0.0131
501.00,0.0137
500.00,0.0138
499.00,0.0134
498.00,0.0128
497.00,0.0124
496.00,0.0123
495.00,0.0125
494.00,0.0127
493.00,0.0128
492.00,0.0127
491.00,0.0122
490.00,0.0113
489.00,0.0107
488.00,0.0107
487.00,0.0110
486.00,0.0111
485.00,0.0106
484.00,0.0098
483.00,0.0090
482.00,0.0086
481.00,0.0089
480.00,0.0098
479.00,0.0113
478.00,0.0131
477.00,0.0146
476.00,0.0153
475.00,0.0146
474.00,0.0128
473.00,0.0107
472.00,0.0099
471.00,0.0109
470.00,0.0123
469.00,0.0130
468.00,0.0129
467.00,0.0127
466.00,0.0130
465.00,0.0136
464.00,0.0144
463.00,0.0153
462.00,0.0165
461.00,0.0180
460.00,0.0196
459.00,0.0207
458.00,0.0208
457.00,0.0201
456.00,0.0188
455.00,0.0186
454.00,0.0186
453.00,0.0186
452.00,0.0180
451.00,0.0167
450.00,0.0153
