Created as New Dataset,Sample 092 By Administrator Date Wednesday, September 03 2025
cm-1,A
4000.00,0.0013
3999.00,0.0013
3998.00,0.0013
3997.00,0.0013
3996.00,0.0013
3995.00,0.0013
3994.00,0.0013
3993.00,0.0013
3992.00,0.0013
3991.00,0.0013
3990.00,0.0012
3989.00,0.0012
3988.00,0.0012
3987.00,0.0012
3986.00,0.0011
3985.00,0.0011
3984.00,0.0012
3983.00,0.0012
3982.00,0.0012
3981.00,0.0013
3980.00,0.0013
3979.00,0.0013
3978.00,0.0012
3977.00,0.0012
3976.00,0.0012
3975.00,0.0012
3974.00,0.0012
3973.00,0.0012
3972.00,0.0012
3971.00,0.0012
3970.00,0.0012
3969.00,0.0012
3968.00,0.0011
3967.00,0.0011
3966.00,0.0011
3965.00,0.0011
3964.00,0.0011
3963.00,0.0011
3962.00,0.0011
3961.00,0.0011
3960.00,0.0011
3959.00,0.0011
3958.00,0.0011
3957.00,0.0011
3956.00,0.0011
3955.00,0.0012
3954.00,0.0011
3953.00,0.0011
3952.00,0.0011
3951.00,0.0010
3950.00,0.0010
3949.00,0.0010
3948.00,0.0010
3947.00,0.0010
3946.00,0.0010
3945.00,0.0010
3944.00,0.0010
3943.00,0.0010
3942.00,0.0010
3941.00,0.0010
3940.00,0.0010
3939.00,0.0010
3938.00,0.0010
3937.00,0.0011
3936.00,0.0011
3935.00,0.0011
3934.00,0.0011
3933.00,0.0010
3932.00,0.0010
3931.00,0.0010
3930.00,0.0010
3929.00,0.0011
3928.00,0.0011
3927.00,0.0011
3926.00,0.0012
3925.00,0.0012
3924.00,0.0012
3923.00,0.0011
3922.00,0.0011
3921.00,0.0010
3920.00,0.0010
3919.00,0.0010
3918.00,0.0010
3917.00,0.0011
3916.00,0.0011
3915.00,0.0011
3914.00,0.0011
3913.00,0.0011
3912.00,0.0011
3911.00,0.0011
3910.00,0.0011
3909.00,0.0010
3908.00,0.0010
3907.00,0.0010
3906.00,0.0009
3905.00,0.0009
3904.00,0.0009
3903.00,0.0010
3902.00,0.0010
3901.00,0.0010
3900.00,0.0010
3899.00,0.0011
3898.00,0.0011
3897.00,0.0011
3896.00,0.0011
3895.00,0.0011
3894.00,0.0011
3893.00,0.0011
3892.00,0.0011
3891.00,0.0011
3890.00,0.0011
3889.00,0.0010
3888.00,0.0010
3887.00,0.0010
3886.00,0.0010
3885.00,0.0010
3884.00,0.0010
3883.00,0.0010
3882.00,0.0010
3881.00,0.0010
3880.00,0.0011
3879.00,0.0011
3878.00,0.0011
3877.00,0.0011
3876.00,0.0011
3875.00,0.0011
3874.00,0.0011
3873.00,0.0011
3872.00,0.0011
3871.00,0.0010
3870.00,0.0010
3869.00,0.0010
3868.00,0.0009
3867.00,0.0009
3866.00,0.0009
3865.00,0.0009
3864.00,0.0010
3863.00,0.0010
3862.00,0.0010
3861.00,0.0010
3860.00,0.0010
3859.00,0.0010
3858.00,0.0010
3857.00,0.0010
3856.00,0.0009
3855.00,0.0009
3854.00,0.0009
3853.00,0.0009
3852.00,0.0009
3851.00,0.0009
3850.00,0.0009
3849.00,0.0009
3848.00,0.0009
3847.00,0.0010
3846.00,0.0010
3845.00,0.0010
3844.00,0.0010
3843.00,0.0010
3842.00,0.0010
3841.00,0.0010
3840.00,0.0010
3839.00,0.0010
3838.00,0.0010
3837.00,0.0010
3836.00,0.0010
3835.00,0.0010
3834.00,0.0010
3833.00,0.0010
3832.00,0.0010
3831.00,0.0010
3830.00,0.0010
3829.00,0.0010
3828.00,0.0010
3827.00,0.0010
3826.00,0.0010
3825.00,0.0010
3824.00,0.0010
3823.00,0.0010
3822.00,0.0010
3821.00,0.0010
3820.00,0.0010
3819.00,0.0010
3818.00,0.0009
3817.00,0.0009
3816.00,0.0009
3815.00,0.0009
3814.00,0.0010
3813.00,0.0010
3812.00,0.0010
3811.00,0.0010
3810.00,0.0010
3809.00,0.0010
3808.00,0.0010
3807.00,0.0010
3806.00,0.0011
3805.00,0.0011
3804.00,0.0011
3803.00,0.0011
3802.00,0.0011
3801.00,0.0010
3800.00,0.0010
3799.00,0.0010
3798.00,0.0009
3797.00,0.0010
3796.00,0.0010
3795.00,0.0010
3794.00,0.0011
3793.00,0.0011
3792.00,0.0011
3791.00,0.0011
3790.00,0.0011
3789.00,0.0011
3788.00,0.0011
3787.00,0.0011
3786.00,0.0011
3785.00,0.0011
3784.00,0.0011
3783.00,0.0010
3782.00,0.0010
3781.00,0.0010
3780.00,0.0011
3779.00,0.0011
3778.00,0.0011
3777.00,0.0011
3776.00,0.0011
3775.00,0.0010
3774.00,0.0010
3773.00,0.0010
3772.00,0.0009
3771.00,0.0010
3770.00,0.0010
3769.00,0.0010
3768.00,0.0010
3767.00,0.0010
3766.00,0.0010
3765.00,0.0010
3764.00,0.0011
3763.00,0.0011
3762.00,0.0011
3761.00,0.0011
3760.00,0.0011
3759.00,0.0011
3758.00,0.0010
3757.00,0.0010
3756.00,0.0010
3755.00,0.0010
3754.00,0.0010
3753.00,0.0010
3752.00,0.0009
3751.00,0.0009
3750.00,0.0009
3749.00,0.0009
3748.00,0.0009
3747.00,0.0008
3746.00,0.0008
3745.00,0.0007
3744.00,0.0007
3743.00,0.0006
3742.00,0.0006
3741.00,0.0007
3740.00,0.0007
3739.00,0.0007
3738.00,0.0008
3737.00,0.0008
3736.00,0.0008
3735.00,0.0009
3734.00,0.0009
3733.00,0.0009
3732.00,0.0008
3731.00,0.0008
3730.00,0.0008
3729.00,0.0008
3728.00,0.0008
3727.00,0.0008
3726.00,0.0008
3725.00,0.0009
3724.00,0.0009
3723.00,0.0009
3722.00,0.0009
3721.00,0.0008
3720.00,0.0008
3719.00,0.0009
3718.00,0.0009
3717.00,0.0009
3716.00,0.0009
3715.00,0.0008
3714.00,0.0008
3713.00,0.0007
3712.00,0.0007
3711.00,0.0008
3710.00,0.0008
3709.00,0.0009
3708.00,0.0009
3707.00,0.0009
3706.00,0.0009
3705.00,0.0009
3704.00,0.0008
3703.00,0.0008
3702.00,0.0008
3701.00,0.0009
3700.00,0.0009
3699.00,0.0009
3698.00,0.0009
3697.00,0.0009
3696.00,0.0009
3695.00,0.0009
3694.00,0.0008
3693.00,0.0008
3692.00,0.0008
3691.00,0.0008
3690.00,0.0008
3689.00,0.0008
3688.00,0.0008
3687.00,0.0008
3686.00,0.0009
3685.00,0.0010
3684.00,0.0010
3683.00,0.0010
3682.00,0.0009
3681.00,0.0009
3680.00,0.0009
3679.00,0.0009
3678.00,0.0010
3677.00,0.0010
3676.00,0.0009
3675.00,0.0009
3674.00,0.0009
3673.00,0.0008
3672.00,0.0008
3671.00,0.0009
3670.00,0.0009
3669.00,0.0009
3668.00,0.0009
3667.00,0.0009
3666.00,0.0010
3665.00,0.0010
3664.00,0.0010
3663.00,0.0009
3662.00,0.0009
3661.00,0.0008
3660.00,0.0008
3659.00,0.0008
3658.00,0.0008
3657.00,0.0008
3656.00,0.0009
3655.00,0.0009
3654.00,0.0009
3653.00,0.0009
3652.00,0.0009
3651.00,0.0009
3650.00,0.0009
3649.00,0.0009
3648.00,0.0009
3647.00,0.0009
3646.00,0.0009
3645.00,0.0009
3644.00,0.0010
3643.00,0.0010
3642.00,0.0010
3641.00,0.0010
3640.00,0.0010
3639.00,0.0011
3638.00,0.0011
3637.00,0.0011
3636.00,0.0011
3635.00,0.0011
3634.00,0.0011
3633.00,0.0011
3632.00,0.0011
3631.00,0.0010
3630.00,0.0010
3629.00,0.0010
3628.00,0.0011
3627.00,0.0011
3626.00,0.0011
3625.00,0.0011
3624.00,0.0011
3623.00,0.0011
3622.00,0.0010
3621.00,0.0010
3620.00,0.0010
3619.00,0.0011
3618.00,0.0011
3617.00,0.0012
3616.00,0.0012
3615.00,0.0012
3614.00,0.0012
3613.00,0.0013
3612.00,0.0013
3611.00,0.0012
3610.00,0.0012
3609.00,0.0012
3608.00,0.0013
3607.00,0.0014
3606.00,0.0015
3605.00,0.0016
3604.00,0.0016
3603.00,0.0016
3602.00,0.0016
3601.00,0.0016
3600.00,0.0016
3599.00,0.0017
3598.00,0.0017
3597.00,0.0017
3596.00,0.0017
3595.00,0.0017
3594.00,0.0017
3593.00,0.0016
3592.00,0.0016
3591.00,0.0016
3590.00,0.0016
3589.00,0.0016
3588.00,0.0016
3587.00,0.0017
3586.00,0.0018
3585.00,0.0018
3584.00,0.0019
3583.00,0.0019
3582.00,0.0019
3581.00,0.0019
3580.00,0.0020
3579.00,0.0020
3578.00,0.0021
3577.00,0.0021
3576.00,0.0021
3575.00,0.0021
3574.00,0.0021
3573.00,0.0021
3572.00,0.0021
3571.00,0.0021
3570.00,0.0020
3569.00,0.0020
3568.00,0.0021
3567.00,0.0021
3566.00,0.0022
3565.00,0.0022
3564.00,0.0023
3563.00,0.0024
3562.00,0.0024
3561.00,0.0025
3560.00,0.0025
3559.00,0.0025
3558.00,0.0026
3557.00,0.0026
3556.00,0.0026
3555.00,0.0026
3554.00,0.0026
3553.00,0.0026
3552.00,0.0026
3551.00,0.0027
3550.00,0.0027
3549.00,0.0027
3548.00,0.0027
3547.00,0.0027
3546.00,0.0027
3545.00,0.0028
3544.00,0.0028
3543.00,0.0029
3542.00,0.0029
3541.00,0.0029
3540.00,0.0030
3539.00,0.0030
3538.00,0.0029
3537.00,0.0029
3536.00,0.0030
3535.00,0.0030
3534.00,0.0030
3533.00,0.0031
3532.00,0.0031
3531.00,0.0032
3530.00,0.0032
3529.00,0.0033
3528.00,0.0033
3527.00,0.0033
3526.00,0.0033
3525.00,0.0033
3524.00,0.0033
3523.00,0.0034
3522.00,0.0035
3521.00,0.0035
3520.00,0.0035
3519.00,0.0035
3518.00,0.0036
3517.00,0.0036
3516.00,0.0036
3515.00,0.0036
3514.00,0.0036
3513.00,0.0036
3512.00,0.0036
3511.00,0.0036
3510.00,0.0036
3509.00,0.0037
3508.00,0.0037
3507.00,0.0037
3506.00,0.0038
3505.00,0.0038
3504.00,0.0039
3503.00,0.0039
3502.00,0.0040
3501.00,0.0040
3500.00,0.0040
3499.00,0.0040
3498.00,0.0040
3497.00,0.0041
3496.00,0.0041
3495.00,0.0041
3494.00,0.0041
3493.00,0.0041
3492.00,0.0041
3491.00,0.0042
3490.00,0.0042
3489.00,0.0042
3488.00,0.0042
3487.00,0.0042
3486.00,0.0043
3485.00,0.0043
3484.00,0.0043
3483.00,0.0043
3482.00,0.0043
3481.00,0.0044
3480.00,0.0045
3479.00,0.0045
3478.00,0.0045
3477.00,0.0046
3476.00,0.0047
3475.00,0.0047
3474.00,0.0048
3473.00,0.0048
3472.00,0.0048
3471.00,0.0049
3470.00,0.0049
3469.00,0.0050
3468.00,0.0050
3467.00,0.0050
3466.00,0.0050
3465.00,0.0050
3464.00,0.0050
3463.00,0.0050
3462.00,0.0050
3461.00,0.0050
3460.00,0.0051
3459.00,0.0052
3458.00,0.0052
3457.00,0.0052
3456.00,0.0053
3455.00,0.0053
3454.00,0.0053
3453.00,0.0053
3452.00,0.0053
3451.00,0.0053
3450.00,0.0054
3449.00,0.0054
3448.00,0.0054
3447.00,0.0055
3446.00,0.0055
3445.00,0.0056
3444.00,0.0056
3443.00,0.0056
3442.00,0.0056
3441.00,0.0056
3440.00,0.0056
3439.00,0.0057
3438.00,0.0057
3437.00,0.0058
3436.00,0.0059
3435.00,0.0059
3434.00,0.0059
3433.00,0.0060
3432.00,0.0060
3431.00,0.0060
3430.00,0.0061
3429.00,0.0061
3428.00,0.0061
3427.00,0.0062
3426.00,0.0062
3425.00,0.0063
3424.00,0.0063
3423.00,0.0064
3422.00,0.0064
3421.00,0.0064
3420.00,0.0065
3419.00,0.0065
3418.00,0.0066
3417.00,0.0066
3416.00,0.0066
3415.00,0.0067
3414.00,0.0067
3413.00,0.0067
3412.00,0.0068
3411.00,0.0068
3410.00,0.0068
3409.00,0.0069
3408.00,0.0069
3407.00,0.0070
3406.00,0.0070
3405.00,0.0070
3404.00,0.0070
3403.00,0.0070
3402.00,0.0070
3401.00,0.0070
3400.00,0.0070
3399.00,0.0070
3398.00,0.0070
3397.00,0.0070
3396.00,0.0070
3395.00,0.0070
3394.00,0.0070
3393.00,0.0071
3392.00,0.0071
3391.00,0.0071
3390.00,0.0071
3389.00,0.0071
3388.00,0.0071
3387.00,0.0071
3386.00,0.0071
3385.00,0.0071
3384.00,0.0072
3383.00,0.0072
3382.00,0.0073
3381.00,0.0073
3380.00,0.0073
3379.00,0.0073
3378.00,0.0074
3377.00,0.0074
3376.00,0.0075
3375.00,0.0075
3374.00,0.0075
3373.00,0.0075
3372.00,0.0075
3371.00,0.0075
3370.00,0.0076
3369.00,0.0076
3368.00,0.0077
3367.00,0.0077
3366.00,0.0077
3365.00,0.0077
3364.00,0.0077
3363.00,0.0077
3362.00,0.0077
3361.00,0.0077
3360.00,0.0078
3359.00,0.0078
3358.00,0.0079
3357.00,0.0079
3356.00,0.0080
3355.00,0.0080
3354.00,0.0081
3353.00,0.0081
3352.00,0.0081
3351.00,0.0082
3350.00,0.0082
3349.00,0.0082
3348.00,0.0082
3347.00,0.0082
3346.00,0.0083
3345.00,0.0083
3344.00,0.0083
3343.00,0.0083
3342.00,0.0083
3341.00,0.0083
3340.00,0.0083
3339.00,0.0083
3338.00,0.0083
3337.00,0.0082
3336.00,0.0082
3335.00,0.0082
3334.00,0.0081
3333.00,0.0081
3332.00,0.0081
3331.00,0.0081
3330.00,0.0080
3329.00,0.0080
3328.00,0.0079
3327.00,0.0079
3326.00,0.0079
3325.00,0.0079
3324.00,0.0079
3323.00,0.0078
3322.00,0.0078
3321.00,0.0078
3320.00,0.0078
3319.00,0.0078
3318.00,0.0078
3317.00,0.0077
3316.00,0.0077
3315.00,0.0077
3314.00,0.0077
3313.00,0.0077
3312.00,0.0077
3311.00,0.0077
3310.00,0.0077
3309.00,0.0078
3308.00,0.0078
3307.00,0.0079
3306.00,0.0079
3305.00,0.0079
3304.00,0.0079
3303.00,0.0079
3302.00,0.0080
3301.00,0.0080
3300.00,0.0080
3299.00,0.0079
3298.00,0.0079
3297.00,0.0078
3296.00,0.0078
3295.00,0.0077
3294.00,0.0077
3293.00,0.0077
3292.00,0.0077
3291.00,0.0077
3290.00,0.0077
3289.00,0.0077
3288.00,0.0077
3287.00,0.0077
3286.00,0.0077
3285.00,0.0076
3284.00,0.0076
3283.00,0.0076
3282.00,0.0075
3281.00,0.0075
3280.00,0.0075
3279.00,0.0075
3278.00,0.0075
3277.00,0.0074
3276.00,0.0074
3275.00,0.0073
3274.00,0.0073
3273.00,0.0072
3272.00,0.0072
3271.00,0.0071
3270.00,0.0071
3269.00,0.0071
3268.00,0.0071
3267.00,0.0071
3266.00,0.0070
3265.00,0.0069
3264.00,0.0069
3263.00,0.0068
3262.00,0.0068
3261.00,0.0068
3260.00,0.0068
3259.00,0.0068
3258.00,0.0067
3257.00,0.0067
3256.00,0.0066
3255.00,0.0065
3254.00,0.0064
3253.00,0.0064
3252.00,0.0063
3251.00,0.0063
3250.00,0.0062
3249.00,0.0062
3248.00,0.0062
3247.00,0.0062
3246.00,0.0061
3245.00,0.0061
3244.00,0.0060
3243.00,0.0060
3242.00,0.0060
3241.00,0.0060
3240.00,0.0061
3239.00,0.0061
3238.00,0.0061
3237.00,0.0060
3236.00,0.0060
3235.00,0.0059
3234.00,0.0059
3233.00,0.0059
3232.00,0.0059
3231.00,0.0059
3230.00,0.0059
3229.00,0.0059
3228.00,0.0059
3227.00,0.0059
3226.00,0.0059
3225.00,0.0059
3224.00,0.0059
3223.00,0.0058
3222.00,0.0058
3221.00,0.0058
3220.00,0.0058
3219.00,0.0058
3218.00,0.0059
3217.00,0.0059
3216.00,0.0059
3215.00,0.0059
3214.00,0.0059
3213.00,0.0059
3212.00,0.0059
3211.00,0.0059
3210.00,0.0059
3209.00,0.0058
3208.00,0.0058
3207.00,0.0058
3206.00,0.0058
3205.00,0.0058
3204.00,0.0058
3203.00,0.0058
3202.00,0.0058
3201.00,0.0058
3200.00,0.0058
3199.00,0.0058
3198.00,0.0057
3197.00,0.0057
3196.00,0.0057
3195.00,0.0057
3194.00,0.0057
3193.00,0.0057
3192.00,0.0057
3191.00,0.0057
3190.00,0.0056
3189.00,0.0056
3188.00,0.0055
3187.00,0.0054
3186.00,0.0054
3185.00,0.0054
3184.00,0.0054
3183.00,0.0054
3182.00,0.0054
3181.00,0.0054
3180.00,0.0053
3179.00,0.0053
3178.00,0.0053
3177.00,0.0052
3176.00,0.0052
3175.00,0.0052
3174.00,0.0051
3173.00,0.0051
3172.00,0.0050
3171.00,0.0050
3170.00,0.0050
3169.00,0.0050
3168.00,0.0050
3167.00,0.0050
3166.00,0.0050
3165.00,0.0050
3164.00,0.0050
3163.00,0.0049
3162.00,0.0049
3161.00,0.0049
3160.00,0.0049
3159.00,0.0049
3158.00,0.0049
3157.00,0.0049
3156.00,0.0048
3155.00,0.0048
3154.00,0.0048
3153.00,0.0048
3152.00,0.0047
3151.00,0.0047
3150.00,0.0047
3149.00,0.0047
3148.00,0.0048
3147.00,0.0048
3146.00,0.0047
3145.00,0.0047
3144.00,0.0047
3143.00,0.0047
3142.00,0.0046
3141.00,0.0046
3140.00,0.0046
3139.00,0.0045
3138.00,0.0045
3137.00,0.0045
3136.00,0.0045
3135.00,0.0045
3134.00,0.0045
3133.00,0.0045
3132.00,0.0044
3131.00,0.0044
3130.00,0.0043
3129.00,0.0043
3128.00,0.0042
3127.00,0.0042
3126.00,0.0042
3125.00,0.0042
3124.00,0.0042
3123.00,0.0041
3122.00,0.0041
3121.00,0.0041
3120.00,0.0041
3119.00,0.0041
3118.00,0.0040
3117.00,0.0040
3116.00,0.0039
3115.00,0.0039
3114.00,0.0039
3113.00,0.0039
3112.00,0.0039
3111.00,0.0039
3110.00,0.0039
3109.00,0.0039
3108.00,0.0039
3107.00,0.0038
3106.00,0.0038
3105.00,0.0038
3104.00,0.0038
3103.00,0.0038
3102.00,0.0038
3101.00,0.0038
3100.00,0.0038
3099.00,0.0038
3098.00,0.0038
3097.00,0.0038
3096.00,0.0038
3095.00,0.0038
3094.00,0.0037
3093.00,0.0037
3092.00,0.0037
3091.00,0.0037
3090.00,0.0037
3089.00,0.0037
3088.00,0.0037
3087.00,0.0037
3086.00,0.0037
3085.00,0.0036
3084.00,0.0036
3083.00,0.0036
3082.00,0.0036
3081.00,0.0036
3080.00,0.0036
3079.00,0.0036
3078.00,0.0037
3077.00,0.0037
3076.00,0.0038
3075.00,0.0038
3074.00,0.0038
3073.00,0.0038
3072.00,0.0038
3071.00,0.0037
3070.00,0.0037
3069.00,0.0037
3068.00,0.0038
3067.00,0.0038
3066.00,0.0038
3065.00,0.0038
3064.00,0.0038
3063.00,0.0038
3062.00,0.0038
3061.00,0.0039
3060.00,0.0039
3059.00,0.0038
3058.00,0.0039
3057.00,0.0039
3056.00,0.0039
3055.00,0.0039
3054.00,0.0039
3053.00,0.0039
3052.00,0.0039
3051.00,0.0039
3050.00,0.0040
3049.00,0.0040
3048.00,0.0041
3047.00,0.0041
3046.00,0.0041
3045.00,0.0042
3044.00,0.0042
3043.00,0.0042
3042.00,0.0042
3041.00,0.0042
3040.00,0.0042
3039.00,0.0042
3038.00,0.0043
3037.00,0.0043
3036.00,0.0043
3035.00,0.0043
3034.00,0.0044
3033.00,0.0044
3032.00,0.0044
3031.00,0.0045
3030.00,0.0045
3029.00,0.0045
3028.00,0.0046
3027.00,0.0046
3026.00,0.0047
3025.00,0.0047
3024.00,0.0047
3023.00,0.0048
3022.00,0.0049
3021.00,0.0050
3020.00,0.0051
3019.00,0.0051
3018.00,0.0052
3017.00,0.0053
3016.00,0.0054
3015.00,0.0055
3014.00,0.0056
3013.00,0.0057
3012.00,0.0058
3011.00,0.0059
3010.00,0.0060
3009.00,0.0061
3008.00,0.0062
3007.00,0.0064
3006.00,0.0065
3005.00,0.0067
3004.00,0.0068
3003.00,0.0070
3002.00,0.0072
3001.00,0.0074
3000.00,0.0077
2999.00,0.0079
2998.00,0.0083
2997.00,0.0086
2996.00,0.0090
2995.00,0.0094
2994.00,0.0098
2993.00,0.0103
2992.00,0.0108
2991.00,0.0113
2990.00,0.0119
2989.00,0.0126
2988.00,0.0133
2987.00,0.0142
2986.00,0.0151
2985.00,0.0161
2984.00,0.0172
2983.00,0.0185
2982.00,0.0200
2981.00,0.0217
2980.00,0.0237
2979.00,0.0260
2978.00,0.0285
2977.00,0.0314
2976.00,0.0347
2975.00,0.0384
2974.00,0.0427
2973.00,0.0476
2972.00,0.0531
2971.00,0.0594
2970.00,0.0665
2969.00,0.0742
2968.00,0.0827
2967.00,0.0920
2966.00,0.1018
2965.00,0.1121
2964.00,0.1224
2963.00,0.1323
2962.00,0.1412
2961.00,0.1487
2960.00,0.1546
2959.00,0.1590
2958.00,0.1622
2957.00,0.1648
2956.00,0.1674
2955.00,0.1704
2954.00,0.1741
2953.00,0.1779
2952.00,0.1810
2951.00,0.1827
2950.00,0.1818
2949.00,0.1779
2948.00,0.1708
2947.00,0.1612
2946.00,0.1500
2945.00,0.1383
2944.00,0.1274
2943.00,0.1181
2942.00,0.1109
2941.00,0.1059
2940.00,0.1032
2939.00,0.1026
2938.00,0.1038
2937.00,0.1067
2936.00,0.1110
2935.00,0.1166
2934.00,0.1235
2933.00,0.1314
2932.00,0.1403
2931.00,0.1500
2930.00,0.1602
2929.00,0.1707
2928.00,0.1811
2927.00,0.1911
2926.00,0.2008
2925.00,0.2100
2924.00,0.2189
2923.00,0.2274
2922.00,0.2357
2921.00,0.2435
2920.00,0.2501
2919.00,0.2549
2918.00,0.2571
2917.00,0.2560
2916.00,0.2517
2915.00,0.2448
2914.00,0.2362
2913.00,0.2271
2912.00,0.2181
2911.00,0.2100
2910.00,0.2028
2909.00,0.1966
2908.00,0.1909
2907.00,0.1854
2906.00,0.1799
2905.00,0.1741
2904.00,0.1681
2903.00,0.1619
2902.00,0.1556
2901.00,0.1493
2900.00,0.1431
2899.00,0.1372
2898.00,0.1316
2897.00,0.1265
2896.00,0.1218
2895.00,0.1177
2894.00,0.1141
2893.00,0.1111
2892.00,0.1087
2891.00,0.1068
2890.00,0.1054
2889.00,0.1044
2888.00,0.1038
2887.00,0.1035
2886.00,0.1035
2885.00,0.1038
2884.00,0.1045
2883.00,0.1055
2882.00,0.1070
2881.00,0.1086
2880.00,0.1103
2879.00,0.1116
2878.00,0.1124
2877.00,0.1125
2876.00,0.1120
2875.00,0.1113
2874.00,0.1108
2873.00,0.1108
2872.00,0.1115
2871.00,0.1127
2870.00,0.1143
2869.00,0.1158
2868.00,0.1166
2867.00,0.1161
2866.00,0.1137
2865.00,0.1095
2864.00,0.1037
2863.00,0.0972
2862.00,0.0909
2861.00,0.0855
2860.00,0.0814
2859.00,0.0787
2858.00,0.0774
2857.00,0.0773
2856.00,0.0781
2855.00,0.0796
2854.00,0.0816
2853.00,0.0839
2852.00,0.0862
2851.00,0.0882
2850.00,0.0896
2849.00,0.0905
2848.00,0.0912
2847.00,0.0921
2846.00,0.0938
2845.00,0.0965
2844.00,0.1004
2843.00,0.1051
2842.00,0.1102
2841.00,0.1150
2840.00,0.1188
2839.00,0.1208
2838.00,0.1202
2837.00,0.1167
2836.00,0.1104
2835.00,0.1017
2834.00,0.0917
2833.00,0.0812
2832.00,0.0713
2831.00,0.0625
2830.00,0.0550
2829.00,0.0488
2828.00,0.0438
2827.00,0.0398
2826.00,0.0365
2825.00,0.0338
2824.00,0.0315
2823.00,0.0295
2822.00,0.0279
2821.00,0.0264
2820.00,0.0252
2819.00,0.0241
2818.00,0.0231
2817.00,0.0222
2816.00,0.0215
2815.00,0.0208
2814.00,0.0202
2813.00,0.0196
2812.00,0.0191
2811.00,0.0186
2810.00,0.0180
2809.00,0.0175
2808.00,0.0169
2807.00,0.0163
2806.00,0.0157
2805.00,0.0150
2804.00,0.0144
2803.00,0.0139
2802.00,0.0134
2801.00,0.0130
2800.00,0.0126
2799.00,0.0123
2798.00,0.0120
2797.00,0.0118
2796.00,0.0116
2795.00,0.0114
2794.00,0.0111
2793.00,0.0108
2792.00,0.0105
2791.00,0.0102
2790.00,0.0099
2789.00,0.0096
2788.00,0.0092
2787.00,0.0089
2786.00,0.0086
2785.00,0.0083
2784.00,0.0081
2783.00,0.0078
2782.00,0.0076
2781.00,0.0074
2780.00,0.0072
2779.00,0.0071
2778.00,0.0069
2777.00,0.0068
2776.00,0.0067
2775.00,0.0066
2774.00,0.0065
2773.00,0.0064
2772.00,0.0064
2771.00,0.0063
2770.00,0.0063
2769.00,0.0062
2768.00,0.0062
2767.00,0.0062
2766.00,0.0062
2765.00,0.0062
2764.00,0.0061
2763.00,0.0061
2762.00,0.0061
2761.00,0.0060
2760.00,0.0060
2759.00,0.0059
2758.00,0.0059
2757.00,0.0059
2756.00,0.0058
2755.00,0.0058
2754.00,0.0058
2753.00,0.0058
2752.00,0.0058
2751.00,0.0058
2750.00,0.0058
2749.00,0.0058
2748.00,0.0058
2747.00,0.0058
2746.00,0.0058
2745.00,0.0059
2744.00,0.0059
2743.00,0.0060
2742.00,0.0061
2741.00,0.0062
2740.00,0.0063
2739.00,0.0064
2738.00,0.0065
2737.00,0.0067
2736.00,0.0068
2735.00,0.0070
2734.00,0.0071
2733.00,0.0072
2732.00,0.0074
2731.00,0.0076
2730.00,0.0077
2729.00,0.0080
2728.00,0.0082
2727.00,0.0084
2726.00,0.0087
2725.00,0.0089
2724.00,0.0090
2723.00,0.0090
2722.00,0.0090
2721.00,0.0088
2720.00,0.0085
2719.00,0.0082
2718.00,0.0079
2717.00,0.0077
2716.00,0.0074
2715.00,0.0072
2714.00,0.0070
2713.00,0.0068
2712.00,0.0066
2711.00,0.0064
2710.00,0.0062
2709.00,0.0061
2708.00,0.0059
2707.00,0.0058
2706.00,0.0057
2705.00,0.0056
2704.00,0.0055
2703.00,0.0054
2702.00,0.0054
2701.00,0.0053
2700.00,0.0053
2699.00,0.0052
2698.00,0.0052
2697.00,0.0052
2696.00,0.0051
2695.00,0.0051
2694.00,0.0051
2693.00,0.0051
2692.00,0.0051
2691.00,0.0051
2690.00,0.0051
2689.00,0.0051
2688.00,0.0051
2687.00,0.0052
2686.00,0.0051
2685.00,0.0051
2684.00,0.0051
2683.00,0.0051
2682.00,0.0051
2681.00,0.0051
2680.00,0.0052
2679.00,0.0052
2678.00,0.0052
2677.00,0.0052
2676.00,0.0051
2675.00,0.0051
2674.00,0.0051
2673.00,0.0050
2672.00,0.0050
2671.00,0.0050
2670.00,0.0049
2669.00,0.0050
2668.00,0.0050
2667.00,0.0050
2666.00,0.0050
2665.00,0.0051
2664.00,0.0051
2663.00,0.0052
2662.00,0.0052
2661.00,0.0053
2660.00,0.0053
2659.00,0.0054
2658.00,0.0054
2657.00,0.0054
2656.00,0.0053
2655.00,0.0053
2654.00,0.0052
2653.00,0.0051
2652.00,0.0051
2651.00,0.0051
2650.00,0.0050
2649.00,0.0050
2648.00,0.0050
2647.00,0.0050
2646.00,0.0049
2645.00,0.0048
2644.00,0.0047
2643.00,0.0047
2642.00,0.0046
2641.00,0.0046
2640.00,0.0045
2639.00,0.0045
2638.00,0.0044
2637.00,0.0044
2636.00,0.0044
2635.00,0.0044
2634.00,0.0044
2633.00,0.0045
2632.00,0.0045
2631.00,0.0046
2630.00,0.0046
2629.00,0.0046
2628.00,0.0045
2627.00,0.0045
2626.00,0.0044
2625.00,0.0044
2624.00,0.0044
2623.00,0.0044
2622.00,0.0045
2621.00,0.0045
2620.00,0.0046
2619.00,0.0046
2618.00,0.0046
2617.00,0.0045
2616.00,0.0045
2615.00,0.0045
2614.00,0.0045
2613.00,0.0045
2612.00,0.0044
2611.00,0.0044
2610.00,0.0043
2609.00,0.0043
2608.00,0.0042
2607.00,0.0041
2606.00,0.0040
2605.00,0.0039
2604.00,0.0038
2603.00,0.0037
2602.00,0.0036
2601.00,0.0036
2600.00,0.0036
2599.00,0.0036
2598.00,0.0036
2597.00,0.0036
2596.00,0.0036
2595.00,0.0037
2594.00,0.0037
2593.00,0.0037
2592.00,0.0038
2591.00,0.0039
2590.00,0.0039
2589.00,0.0039
2588.00,0.0039
2587.00,0.0040
2586.00,0.0041
2585.00,0.0041
2584.00,0.0042
2583.00,0.0042
2582.00,0.0042
2581.00,0.0042
2580.00,0.0042
2579.00,0.0042
2578.00,0.0041
2577.00,0.0040
2576.00,0.0039
2575.00,0.0038
2574.00,0.0037
2573.00,0.0036
2572.00,0.0035
2571.00,0.0033
2570.00,0.0032
2569.00,0.0031
2568.00,0.0031
2567.00,0.0030
2566.00,0.0029
2565.00,0.0029
2564.00,0.0029
2563.00,0.0029
2562.00,0.0029
2561.00,0.0029
2560.00,0.0029
2559.00,0.0029
2558.00,0.0029
2557.00,0.0028
2556.00,0.0027
2555.00,0.0027
2554.00,0.0026
2553.00,0.0026
2552.00,0.0026
2551.00,0.0025
2550.00,0.0025
2549.00,0.0026
2548.00,0.0026
2547.00,0.0025
2546.00,0.0025
2545.00,0.0024
2544.00,0.0024
2543.00,0.0023
2542.00,0.0023
2541.00,0.0022
2540.00,0.0022
2539.00,0.0021
2538.00,0.0021
2537.00,0.0021
2536.00,0.0021
2535.00,0.0022
2534.00,0.0022
2533.00,0.0022
2532.00,0.0022
2531.00,0.0022
2530.00,0.0022
2529.00,0.0022
2528.00,0.0021
2527.00,0.0020
2526.00,0.0020
2525.00,0.0019
2524.00,0.0019
2523.00,0.0018
2522.00,0.0018
2521.00,0.0018
2520.00,0.0018
2519.00,0.0018
2518.00,0.0017
2517.00,0.0017
2516.00,0.0017
2515.00,0.0016
2514.00,0.0016
2513.00,0.0015
2512.00,0.0016
2511.00,0.0016
2510.00,0.0016
2509.00,0.0017
2508.00,0.0017
2507.00,0.0018
2506.00,0.0018
2505.00,0.0018
2504.00,0.0017
2503.00,0.0017
2502.00,0.0016
2501.00,0.0015
2500.00,0.0014
2499.00,0.0014
2498.00,0.0015
2497.00,0.0015
2496.00,0.0016
2495.00,0.0016
2494.00,0.0017
2493.00,0.0017
2492.00,0.0017
2491.00,0.0017
2490.00,0.0017
2489.00,0.0018
2488.00,0.0018
2487.00,0.0017
2486.00,0.0015
2485.00,0.0014
2484.00,0.0014
2483.00,0.0013
2482.00,0.0013
2481.00,0.0014
2480.00,0.0014
2479.00,0.0014
2478.00,0.0015
2477.00,0.0015
2476.00,0.0015
2475.00,0.0015
2474.00,0.0016
2473.00,0.0016
2472.00,0.0016
2471.00,0.0015
2470.00,0.0015
2469.00,0.0015
2468.00,0.0015
2467.00,0.0015
2466.00,0.0016
2465.00,0.0016
2464.00,0.0016
2463.00,0.0015
2462.00,0.0015
2461.00,0.0015
2460.00,0.0015
2459.00,0.0015
2458.00,0.0016
2457.00,0.0017
2456.00,0.0017
2455.00,0.0017
2454.00,0.0017
2453.00,0.0017
2452.00,0.0017
2451.00,0.0017
2450.00,0.0017
2449.00,0.0016
2448.00,0.0016
2447.00,0.0016
2446.00,0.0016
2445.00,0.0016
2444.00,0.0016
2443.00,0.0016
2442.00,0.0016
2441.00,0.0016
2440.00,0.0016
2439.00,0.0016
2438.00,0.0016
2437.00,0.0017
2436.00,0.0017
2435.00,0.0018
2434.00,0.0018
2433.00,0.0017
2432.00,0.0016
2431.00,0.0016
2430.00,0.0016
2429.00,0.0017
2428.00,0.0017
2427.00,0.0017
2426.00,0.0017
2425.00,0.0017
2424.00,0.0017
2423.00,0.0016
2422.00,0.0016
2421.00,0.0015
2420.00,0.0015
2419.00,0.0015
2418.00,0.0015
2417.00,0.0015
2416.00,0.0016
2415.00,0.0016
2414.00,0.0016
2413.00,0.0016
2412.00,0.0016
2411.00,0.0016
2410.00,0.0016
2409.00,0.0016
2408.00,0.0015
2407.00,0.0014
2406.00,0.0014
2405.00,0.0014
2404.00,0.0014
2403.00,0.0014
2402.00,0.0014
2401.00,0.0014
2400.00,0.0014
2399.00,0.0014
2398.00,0.0014
2397.00,0.0014
2396.00,0.0014
2395.00,0.0014
2394.00,0.0013
2393.00,0.0012
2392.00,0.0012
2391.00,0.0012
2390.00,0.0012
2389.00,0.0012
2388.00,0.0013
2387.00,0.0013
2386.00,0.0013
2385.00,0.0013
2384.00,0.0012
2383.00,0.0012
2382.00,0.0011
2381.00,0.0011
2380.00,0.0010
2379.00,0.0010
2378.00,0.0010
2377.00,0.0010
2376.00,0.0011
2375.00,0.0011
2374.00,0.0011
2373.00,0.0011
2372.00,0.0011
2371.00,0.0011
2370.00,0.0010
2369.00,0.0010
2368.00,0.0009
2367.00,0.0009
2366.00,0.0010
2365.00,0.0010
2364.00,0.0011
2363.00,0.0012
2362.00,0.0013
2361.00,0.0012
2360.00,0.0012
2359.00,0.0011
2358.00,0.0011
2357.00,0.0012
2356.00,0.0013
2355.00,0.0013
2354.00,0.0013
2353.00,0.0013
2352.00,0.0012
2351.00,0.0012
2350.00,0.0012
2349.00,0.0012
2348.00,0.0013
2347.00,0.0013
2346.00,0.0013
2345.00,0.0013
2344.00,0.0014
2343.00,0.0015
2342.00,0.0015
2341.00,0.0015
2340.00,0.0014
2339.00,0.0015
2338.00,0.0015
2337.00,0.0015
2336.00,0.0015
2335.00,0.0014
2334.00,0.0013
2333.00,0.0012
2332.00,0.0012
2331.00,0.0012
2330.00,0.0013
2329.00,0.0014
2328.00,0.0015
2327.00,0.0018
2326.00,0.0023
2325.00,0.0027
2324.00,0.0029
2323.00,0.0029
2322.00,0.0027
2321.00,0.0025
2320.00,0.0023
2319.00,0.0022
2318.00,0.0020
2317.00,0.0019
2316.00,0.0018
2315.00,0.0017
2314.00,0.0017
2313.00,0.0017
2312.00,0.0017
2311.00,0.0017
2310.00,0.0017
2309.00,0.0017
2308.00,0.0017
2307.00,0.0017
2306.00,0.0017
2305.00,0.0017
2304.00,0.0017
2303.00,0.0017
2302.00,0.0017
2301.00,0.0016
2300.00,0.0016
2299.00,0.0016
2298.00,0.0016
2297.00,0.0016
2296.00,0.0017
2295.00,0.0017
2294.00,0.0019
2293.00,0.0020
2292.00,0.0021
2291.00,0.0021
2290.00,0.0021
2289.00,0.0022
2288.00,0.0023
2287.00,0.0024
2286.00,0.0024
2285.00,0.0025
2284.00,0.0024
2283.00,0.0023
2282.00,0.0022
2281.00,0.0021
2280.00,0.0020
2279.00,0.0020
2278.00,0.0020
2277.00,0.0020
2276.00,0.0020
2275.00,0.0019
2274.00,0.0018
2273.00,0.0017
2272.00,0.0017
2271.00,0.0017
2270.00,0.0017
2269.00,0.0017
2268.00,0.0017
2267.00,0.0017
2266.00,0.0016
2265.00,0.0015
2264.00,0.0015
2263.00,0.0015
2262.00,0.0017
2261.00,0.0018
2260.00,0.0019
2259.00,0.0019
2258.00,0.0019
2257.00,0.0018
2256.00,0.0016
2255.00,0.0015
2254.00,0.0013
2253.00,0.0013
2252.00,0.0012
2251.00,0.0013
2250.00,0.0013
2249.00,0.0014
2248.00,0.0014
2247.00,0.0013
2246.00,0.0013
2245.00,0.0013
2244.00,0.0014
2243.00,0.0014
2242.00,0.0014
2241.00,0.0013
2240.00,0.0011
2239.00,0.0010
2238.00,0.0010
2237.00,0.0012
2236.00,0.0013
2235.00,0.0014
2234.00,0.0014
2233.00,0.0014
2232.00,0.0014
2231.00,0.0013
2230.00,0.0013
2229.00,0.0013
2228.00,0.0012
2227.00,0.0012
2226.00,0.0011
2225.00,0.0011
2224.00,0.0010
2223.00,0.0008
2222.00,0.0007
2221.00,0.0007
2220.00,0.0008
2219.00,0.0009
2218.00,0.0009
2217.00,0.0009
2216.00,0.0010
2215.00,0.0011
2214.00,0.0011
2213.00,0.0011
2212.00,0.0011
2211.00,0.0011
2210.00,0.0010
2209.00,0.0010
2208.00,0.0010
2207.00,0.0010
2206.00,0.0010
2205.00,0.0010
2204.00,0.0011
2203.00,0.0012
2202.00,0.0013
2201.00,0.0014
2200.00,0.0013
2199.00,0.0012
2198.00,0.0011
2197.00,0.0010
2196.00,0.0011
2195.00,0.0010
2194.00,0.0010
2193.00,0.0009
2192.00,0.0010
2191.00,0.0012
2190.00,0.0013
2189.00,0.0013
2188.00,0.0013
2187.00,0.0013
2186.00,0.0011
2185.00,0.0010
2184.00,0.0008
2183.00,0.0008
2182.00,0.0009
2181.00,0.0011
2180.00,0.0013
2179.00,0.0014
2178.00,0.0012
2177.00,0.0009
2176.00,0.0005
2175.00,0.0002
2174.00,0.0003
2173.00,0.0005
2172.00,0.0010
2171.00,0.0014
2170.00,0.0017
2169.00,0.0020
2168.00,0.0023
2167.00,0.0025
2166.00,0.0025
2165.00,0.0025
2164.00,0.0025
2163.00,0.0026
2162.00,0.0024
2161.00,0.0017
2160.00,0.0007
2159.00,-0.0006
2158.00,-0.0017
2157.00,-0.0023
2156.00,-0.0024
2155.00,-0.0022
2154.00,-0.0018
2153.00,-0.0015
2152.00,-0.0013
2151.00,-0.0012
2150.00,-0.0012
2149.00,-0.0012
2148.00,-0.0012
2147.00,-0.0012
2146.00,-0.0013
2145.00,-0.0012
2144.00,-0.0011
2143.00,-0.0009
2142.00,-0.0007
2141.00,-0.0006
2140.00,-0.0006
2139.00,-0.0007
2138.00,-0.0007
2137.00,-0.0008
2136.00,-0.0009
2135.00,-0.0011
2134.00,-0.0012
2133.00,-0.0012
2132.00,-0.0010
2131.00,-0.0008
2130.00,-0.0006
2129.00,-0.0004
2128.00,-0.0004
2127.00,-0.0004
2126.00,-0.0005
2125.00,-0.0005
2124.00,-0.0005
2123.00,-0.0004
2122.00,-0.0004
2121.00,-0.0003
2120.00,-0.0003
2119.00,-0.0002
2118.00,-0.0001
2117.00,0.0002
2116.00,0.0004
2115.00,0.0006
2114.00,0.0008
2113.00,0.0008
2112.00,0.0008
2111.00,0.0008
2110.00,0.0008
2109.00,0.0008
2108.00,0.0007
2107.00,0.0007
2106.00,0.0007
2105.00,0.0007
2104.00,0.0008
2103.00,0.0008
2102.00,0.0007
2101.00,0.0006
2100.00,0.0004
2099.00,0.0003
2098.00,0.0003
2097.00,0.0002
2096.00,0.0001
2095.00,0.0001
2094.00,0.0001
2093.00,0.0002
2092.00,0.0003
2091.00,0.0004
2090.00,0.0004
2089.00,0.0004
2088.00,0.0004
2087.00,0.0004
2086.00,0.0004
2085.00,0.0004
2084.00,0.0005
2083.00,0.0005
2082.00,0.0005
2081.00,0.0005
2080.00,0.0006
2079.00,0.0006
2078.00,0.0007
2077.00,0.0007
2076.00,0.0007
2075.00,0.0006
2074.00,0.0005
2073.00,0.0004
2072.00,0.0004
2071.00,0.0003
2070.00,0.0003
2069.00,0.0003
2068.00,0.0004
2067.00,0.0004
2066.00,0.0005
2065.00,0.0007
2064.00,0.0009
2063.00,0.0010
2062.00,0.0009
2061.00,0.0009
2060.00,0.0008
2059.00,0.0006
2058.00,0.0006
2057.00,0.0006
2056.00,0.0006
2055.00,0.0007
2054.00,0.0008
2053.00,0.0010
2052.00,0.0013
2051.00,0.0016
2050.00,0.0016
2049.00,0.0013
2048.00,0.0009
2047.00,0.0004
2046.00,0.0001
2045.00,0.0001
2044.00,0.0002
2043.00,0.0003
2042.00,0.0003
2041.00,0.0003
2040.00,0.0003
2039.00,0.0004
2038.00,0.0005
2037.00,0.0006
2036.00,0.0004
2035.00,-0.0000
2034.00,-0.0005
2033.00,-0.0009
2032.00,-0.0010
2031.00,-0.0010
2030.00,-0.0009
2029.00,-0.0007
2028.00,-0.0006
2027.00,-0.0006
2026.00,-0.0007
2025.00,-0.0007
2024.00,-0.0006
2023.00,-0.0003
2022.00,-0.0000
2021.00,0.0001
2020.00,0.0000
2019.00,-0.0003
2018.00,-0.0006
2017.00,-0.0007
2016.00,-0.0006
2015.00,-0.0005
2014.00,-0.0005
2013.00,-0.0004
2012.00,-0.0003
2011.00,-0.0002
2010.00,-0.0003
2009.00,-0.0006
2008.00,-0.0010
2007.00,-0.0015
2006.00,-0.0017
2005.00,-0.0016
2004.00,-0.0012
2003.00,-0.0009
2002.00,-0.0006
2001.00,-0.0004
2000.00,-0.0003
1999.00,-0.0003
1998.00,-0.0005
1997.00,-0.0007
1996.00,-0.0009
1995.00,-0.0009
1994.00,-0.0009
1993.00,-0.0008
1992.00,-0.0006
1991.00,-0.0003
1990.00,-0.0001
1989.00,0.0001
1988.00,0.0001
1987.00,0.0001
1986.00,0.0002
1985.00,0.0003
1984.00,0.0005
1983.00,0.0006
1982.00,0.0007
1981.00,0.0008
1980.00,0.0008
1979.00,0.0005
1978.00,0.0000
1977.00,-0.0004
1976.00,-0.0006
1975.00,-0.0007
1974.00,-0.0007
1973.00,-0.0006
1972.00,-0.0006
1971.00,-0.0007
1970.00,-0.0009
1969.00,-0.0011
1968.00,-0.0013
1967.00,-0.0014
1966.00,-0.0014
1965.00,-0.0013
1964.00,-0.0011
1963.00,-0.0010
1962.00,-0.0009
1961.00,-0.0010
1960.00,-0.0012
1959.00,-0.0014
1958.00,-0.0016
1957.00,-0.0016
1956.00,-0.0013
1955.00,-0.0010
1954.00,-0.0006
1953.00,-0.0004
1952.00,-0.0002
1951.00,-0.0003
1950.00,-0.0005
1949.00,-0.0008
1948.00,-0.0009
1947.00,-0.0011
1946.00,-0.0012
1945.00,-0.0013
1944.00,-0.0014
1943.00,-0.0015
1942.00,-0.0014
1941.00,-0.0013
1940.00,-0.0012
1939.00,-0.0012
1938.00,-0.0011
1937.00,-0.0010
1936.00,-0.0009
1935.00,-0.0008
1934.00,-0.0006
1933.00,-0.0005
1932.00,-0.0004
1931.00,-0.0003
1930.00,-0.0003
1929.00,-0.0003
1928.00,-0.0002
1927.00,-0.0001
1926.00,-0.0000
1925.00,0.0000
1924.00,0.0000
1923.00,0.0000
1922.00,0.0000
1921.00,0.0001
1920.00,0.0001
1919.00,0.0002
1918.00,0.0002
1917.00,0.0002
1916.00,0.0002
1915.00,0.0003
1914.00,0.0003
1913.00,0.0002
1912.00,0.0002
1911.00,0.0002
1910.00,0.0002
1909.00,0.0002
1908.00,0.0002
1907.00,0.0002
1906.00,0.0002
1905.00,0.0002
1904.00,0.0002
1903.00,0.0003
1902.00,0.0004
1901.00,0.0004
1900.00,0.0004
1899.00,0.0003
1898.00,0.0003
1897.00,0.0003
1896.00,0.0004
1895.00,0.0004
1894.00,0.0005
1893.00,0.0004
1892.00,0.0002
1891.00,0.0001
1890.00,-0.0000
1889.00,-0.0000
1888.00,0.0001
1887.00,0.0002
1886.00,0.0003
1885.00,0.0003
1884.00,0.0003
1883.00,0.0002
1882.00,0.0002
1881.00,0.0002
1880.00,0.0002
1879.00,0.0002
1878.00,0.0002
1877.00,0.0002
1876.00,0.0002
1875.00,0.0003
1874.00,0.0003
1873.00,0.0003
1872.00,0.0004
1871.00,0.0004
1870.00,0.0005
1869.00,0.0005
1868.00,0.0005
1867.00,0.0005
1866.00,0.0005
1865.00,0.0005
1864.00,0.0005
1863.00,0.0005
1862.00,0.0005
1861.00,0.0005
1860.00,0.0005
1859.00,0.0005
1858.00,0.0005
1857.00,0.0005
1856.00,0.0005
1855.00,0.0005
1854.00,0.0006
1853.00,0.0006
1852.00,0.0006
1851.00,0.0006
1850.00,0.0005
1849.00,0.0006
1848.00,0.0006
1847.00,0.0006
1846.00,0.0006
1845.00,0.0006
1844.00,0.0006
1843.00,0.0006
1842.00,0.0006
1841.00,0.0006
1840.00,0.0006
1839.00,0.0007
1838.00,0.0007
1837.00,0.0007
1836.00,0.0008
1835.00,0.0008
1834.00,0.0008
1833.00,0.0008
1832.00,0.0009
1831.00,0.0009
1830.00,0.0010
1829.00,0.0010
1828.00,0.0010
1827.00,0.0010
1826.00,0.0010
1825.00,0.0009
1824.00,0.0009
1823.00,0.0008
1822.00,0.0008
1821.00,0.0007
1820.00,0.0007
1819.00,0.0006
1818.00,0.0004
1817.00,0.0004
1816.00,0.0004
1815.00,0.0005
1814.00,0.0006
1813.00,0.0007
1812.00,0.0007
1811.00,0.0007
1810.00,0.0007
1809.00,0.0007
1808.00,0.0007
1807.00,0.0007
1806.00,0.0008
1805.00,0.0009
1804.00,0.0009
1803.00,0.0009
1802.00,0.0009
1801.00,0.0009
1800.00,0.0009
1799.00,0.0009
1798.00,0.0009
1797.00,0.0010
1796.00,0.0011
1795.00,0.0012
1794.00,0.0012
1793.00,0.0012
1792.00,0.0013
1791.00,0.0013
1790.00,0.0013
1789.00,0.0013
1788.00,0.0013
1787.00,0.0013
1786.00,0.0013
1785.00,0.0013
1784.00,0.0013
1783.00,0.0013
1782.00,0.0013
1781.00,0.0012
1780.00,0.0012
1779.00,0.0012
1778.00,0.0012
1777.00,0.0012
1776.00,0.0012
1775.00,0.0012
1774.00,0.0012
1773.00,0.0012
1772.00,0.0013
1771.00,0.0013
1770.00,0.0014
1769.00,0.0015
1768.00,0.0016
1767.00,0.0016
1766.00,0.0016
1765.00,0.0017
1764.00,0.0016
1763.00,0.0016
1762.00,0.0016
1761.00,0.0016
1760.00,0.0017
1759.00,0.0018
1758.00,0.0018
1757.00,0.0019
1756.00,0.0019
1755.00,0.0019
1754.00,0.0019
1753.00,0.0019
1752.00,0.0019
1751.00,0.0020
1750.00,0.0021
1749.00,0.0023
1748.00,0.0024
1747.00,0.0025
1746.00,0.0025
1745.00,0.0025
1744.00,0.0025
1743.00,0.0026
1742.00,0.0026
1741.00,0.0026
1740.00,0.0025
1739.00,0.0025
1738.00,0.0025
1737.00,0.0026
1736.00,0.0026
1735.00,0.0026
1734.00,0.0025
1733.00,0.0026
1732.00,0.0026
1731.00,0.0027
1730.00,0.0027
1729.00,0.0028
1728.00,0.0028
1727.00,0.0028
1726.00,0.0028
1725.00,0.0028
1724.00,0.0029
1723.00,0.0029
1722.00,0.0029
1721.00,0.0029
1720.00,0.0028
1719.00,0.0028
1718.00,0.0027
1717.00,0.0026
1716.00,0.0027
1715.00,0.0028
1714.00,0.0028
1713.00,0.0028
1712.00,0.0027
1711.00,0.0026
1710.00,0.0026
1709.00,0.0026
1708.00,0.0027
1707.00,0.0027
1706.00,0.0028
1705.00,0.0029
1704.00,0.0029
1703.00,0.0029
1702.00,0.0029
1701.00,0.0029
1700.00,0.0029
1699.00,0.0029
1698.00,0.0030
1697.00,0.0030
1696.00,0.0031
1695.00,0.0032
1694.00,0.0033
1693.00,0.0033
1692.00,0.0033
1691.00,0.0033
1690.00,0.0033
1689.00,0.0034
1688.00,0.0036
1687.00,0.0037
1686.00,0.0037
1685.00,0.0037
1684.00,0.0038
1683.00,0.0039
1682.00,0.0040
1681.00,0.0040
1680.00,0.0041
1679.00,0.0042
1678.00,0.0043
1677.00,0.0043
1676.00,0.0044
1675.00,0.0044
1674.00,0.0045
1673.00,0.0045
1672.00,0.0046
1671.00,0.0046
1670.00,0.0047
1669.00,0.0049
1668.00,0.0049
1667.00,0.0049
1666.00,0.0049
1665.00,0.0050
1664.00,0.0050
1663.00,0.0051
1662.00,0.0051
1661.00,0.0052
1660.00,0.0053
1659.00,0.0053
1658.00,0.0053
1657.00,0.0054
1656.00,0.0055
1655.00,0.0057
1654.00,0.0057
1653.00,0.0059
1652.00,0.0059
1651.00,0.0059
1650.00,0.0059
1649.00,0.0060
1648.00,0.0061
1647.00,0.0062
1646.00,0.0063
1645.00,0.0063
1644.00,0.0063
1643.00,0.0063
1642.00,0.0063
1641.00,0.0064
1640.00,0.0065
1639.00,0.0066
1638.00,0.0067
1637.00,0.0067
1636.00,0.0068
1635.00,0.0068
1634.00,0.0068
1633.00,0.0067
1632.00,0.0066
1631.00,0.0066
1630.00,0.0065
1629.00,0.0065
1628.00,0.0064
1627.00,0.0064
1626.00,0.0064
1625.00,0.0063
1624.00,0.0063
1623.00,0.0063
1622.00,0.0062
1621.00,0.0062
1620.00,0.0062
1619.00,0.0062
1618.00,0.0061
1617.00,0.0061
1616.00,0.0060
1615.00,0.0060
1614.00,0.0060
1613.00,0.0060
1612.00,0.0059
1611.00,0.0059
1610.00,0.0058
1609.00,0.0058
1608.00,0.0058
1607.00,0.0058
1606.00,0.0058
1605.00,0.0059
1604.00,0.0059
1603.00,0.0058
1602.00,0.0058
1601.00,0.0058
1600.00,0.0058
1599.00,0.0057
1598.00,0.0057
1597.00,0.0058
1596.00,0.0058
1595.00,0.0059
1594.00,0.0059
1593.00,0.0060
1592.00,0.0061
1591.00,0.0062
1590.00,0.0062
1589.00,0.0063
1588.00,0.0065
1587.00,0.0066
1586.00,0.0068
1585.00,0.0071
1584.00,0.0074
1583.00,0.0076
1582.00,0.0080
1581.00,0.0083
1580.00,0.0087
1579.00,0.0089
1578.00,0.0091
1577.00,0.0091
1576.00,0.0091
1575.00,0.0090
1574.00,0.0089
1573.00,0.0088
1572.00,0.0087
1571.00,0.0084
1570.00,0.0081
1569.00,0.0078
1568.00,0.0076
1567.00,0.0075
1566.00,0.0074
1565.00,0.0073
1564.00,0.0073
1563.00,0.0073
1562.00,0.0073
1561.00,0.0074
1560.00,0.0074
1559.00,0.0074
1558.00,0.0075
1557.00,0.0076
1556.00,0.0076
1555.00,0.0076
1554.00,0.0077
1553.00,0.0078
1552.00,0.0079
1551.00,0.0080
1550.00,0.0082
1549.00,0.0084
1548.00,0.0087
1547.00,0.0089
1546.00,0.0092
1545.00,0.0096
1544.00,0.0100
1543.00,0.0104
1542.00,0.0106
1541.00,0.0107
1540.00,0.0106
1539.00,0.0102
1538.00,0.0098
1537.00,0.0095
1536.00,0.0091
1535.00,0.0087
1534.00,0.0082
1533.00,0.0079
1532.00,0.0076
1531.00,0.0074
1530.00,0.0072
1529.00,0.0070
1528.00,0.0069
1527.00,0.0067
1526.00,0.0066
1525.00,0.0066
1524.00,0.0065
1523.00,0.0065
1522.00,0.0065
1521.00,0.0066
1520.00,0.0067
1519.00,0.0067
1518.00,0.0067
1517.00,0.0068
1516.00,0.0069
1515.00,0.0069
1514.00,0.0069
1513.00,0.0070
1512.00,0.0070
1511.00,0.0071
1510.00,0.0071
1509.00,0.0072
1508.00,0.0073
1507.00,0.0074
1506.00,0.0076
1505.00,0.0078
1504.00,0.0079
1503.00,0.0079
1502.00,0.0081
1501.00,0.0083
1500.00,0.0086
1499.00,0.0088
1498.00,0.0091
1497.00,0.0095
1496.00,0.0099
1495.00,0.0102
1494.00,0.0105
1493.00,0.0109
1492.00,0.0113
1491.00,0.0116
1490.00,0.0120
1489.00,0.0126
1488.00,0.0133
1487.00,0.0139
1486.00,0.0145
1485.00,0.0152
1484.00,0.0161
1483.00,0.0169
1482.00,0.0179
1481.00,0.0192
1480.00,0.0205
1479.00,0.0219
1478.00,0.0234
1477.00,0.0255
1476.00,0.0280
1475.00,0.0309
1474.00,0.0348
1473.00,0.0403
1472.00,0.0468
1471.00,0.0529
1470.00,0.0587
1469.00,0.0649
1468.00,0.0715
1467.00,0.0788
1466.00,0.0870
1465.00,0.0958
1464.00,0.1034
1463.00,0.1087
1462.00,0.1120
1461.00,0.1143
1460.00,0.1159
1459.00,0.1171
1458.00,0.1181
1457.00,0.1190
1456.00,0.1192
1455.00,0.1187
1454.00,0.1177
1453.00,0.1163
1452.00,0.1139
1451.00,0.1105
1450.00,0.1057
1449.00,0.0990
1448.00,0.0904
1447.00,0.0813
1446.00,0.0730
1445.00,0.0658
1444.00,0.0596
1443.00,0.0545
1442.00,0.0506
1441.00,0.0478
1440.00,0.0461
1439.00,0.0454
1438.00,0.0452
1437.00,0.0451
1436.00,0.0441
1435.00,0.0418
1434.00,0.0385
1433.00,0.0346
1432.00,0.0305
1431.00,0.0269
1430.00,0.0241
1429.00,0.0220
1428.00,0.0205
1427.00,0.0195
1426.00,0.0188
1425.00,0.0181
1424.00,0.0175
1423.00,0.0171
1422.00,0.0169
1421.00,0.0166
1420.00,0.0163
1419.00,0.0159
1418.00,0.0157
1417.00,0.0153
1416.00,0.0150
1415.00,0.0147
1414.00,0.0145
1413.00,0.0142
1412.00,0.0139
1411.00,0.0138
1410.00,0.0137
1409.00,0.0136
1408.00,0.0134
1407.00,0.0134
1406.00,0.0134
1405.00,0.0133
1404.00,0.0133
1403.00,0.0133
1402.00,0.0133
1401.00,0.0133
1400.00,0.0133
1399.00,0.0134
1398.00,0.0136
1397.00,0.0137
1396.00,0.0139
1395.00,0.0143
1394.00,0.0148
1393.00,0.0152
1392.00,0.0157
1391.00,0.0165
1390.00,0.0175
1389.00,0.0188
1388.00,0.0209
1387.00,0.0239
1386.00,0.0281
1385.00,0.0335
1384.00,0.0410
1383.00,0.0515
1382.00,0.0655
1381.00,0.0834
1380.00,0.1051
1379.00,0.1290
1378.00,0.1513
1377.00,0.1668
1376.00,0.1709
1375.00,0.1614
1374.00,0.1411
1373.00,0.1173
1372.00,0.0956
1371.00,0.0779
1370.00,0.0637
1369.00,0.0529
1368.00,0.0454
1367.00,0.0407
1366.00,0.0381
1365.00,0.0370
1364.00,0.0371
1363.00,0.0382
1362.00,0.0400
1361.00,0.0419
1360.00,0.0433
1359.00,0.0436
1358.00,0.0427
1357.00,0.0404
1356.00,0.0373
1355.00,0.0338
1354.00,0.0304
1353.00,0.0275
1352.00,0.0251
1351.00,0.0232
1350.00,0.0215
1349.00,0.0202
1348.00,0.0191
1347.00,0.0182
1346.00,0.0174
1345.00,0.0168
1344.00,0.0163
1343.00,0.0159
1342.00,0.0155
1341.00,0.0152
1340.00,0.0150
1339.00,0.0149
1338.00,0.0149
1337.00,0.0150
1336.00,0.0150
1335.00,0.0152
1334.00,0.0154
1333.00,0.0157
1332.00,0.0160
1331.00,0.0162
1330.00,0.0163
1329.00,0.0161
1328.00,0.0157
1327.00,0.0152
1326.00,0.0147
1325.00,0.0142
1324.00,0.0138
1323.00,0.0135
1322.00,0.0132
1321.00,0.0130
1320.00,0.0129
1319.00,0.0128
1318.00,0.0127
1317.00,0.0126
1316.00,0.0125
1315.00,0.0125
1314.00,0.0124
1313.00,0.0124
1312.00,0.0124
1311.00,0.0126
1310.00,0.0129
1309.00,0.0135
1308.00,0.0144
1307.00,0.0155
1306.00,0.0166
1305.00,0.0174
1304.00,0.0175
1303.00,0.0171
1302.00,0.0164
1301.00,0.0157
1300.00,0.0151
1299.00,0.0148
1298.00,0.0147
1297.00,0.0146
1296.00,0.0145
1295.00,0.0142
1294.00,0.0139
1293.00,0.0134
1292.00,0.0129
1291.00,0.0125
1290.00,0.0121
1289.00,0.0117
1288.00,0.0114
1287.00,0.0112
1286.00,0.0110
1285.00,0.0108
1284.00,0.0107
1283.00,0.0106
1282.00,0.0105
1281.00,0.0105
1280.00,0.0104
1279.00,0.0104
1278.00,0.0103
1277.00,0.0102
1276.00,0.0101
1275.00,0.0100
1274.00,0.0099
1273.00,0.0099
1272.00,0.0099
1271.00,0.0100
1270.00,0.0101
1269.00,0.0102
1268.00,0.0104
1267.00,0.0105
1266.00,0.0107
1265.00,0.0110
1264.00,0.0113
1263.00,0.0116
1262.00,0.0120
1261.00,0.0124
1260.00,0.0131
1259.00,0.0139
1258.00,0.0146
1257.00,0.0153
1256.00,0.0155
1255.00,0.0153
1254.00,0.0146
1253.00,0.0137
1252.00,0.0129
1251.00,0.0121
1250.00,0.0116
1249.00,0.0111
1248.00,0.0108
1247.00,0.0105
1246.00,0.0103
1245.00,0.0101
1244.00,0.0099
1243.00,0.0098
1242.00,0.0096
1241.00,0.0095
1240.00,0.0094
1239.00,0.0093
1238.00,0.0093
1237.00,0.0094
1236.00,0.0094
1235.00,0.0094
1234.00,0.0095
1233.00,0.0095
1232.00,0.0095
1231.00,0.0096
1230.00,0.0096
1229.00,0.0097
1228.00,0.0098
1227.00,0.0100
1226.00,0.0102
1225.00,0.0104
1224.00,0.0107
1223.00,0.0109
1222.00,0.0112
1221.00,0.0114
1220.00,0.0116
1219.00,0.0116
1218.00,0.0115
1217.00,0.0114
1216.00,0.0111
1215.00,0.0109
1214.00,0.0107
1213.00,0.0105
1212.00,0.0103
1211.00,0.0102
1210.00,0.0101
1209.00,0.0099
1208.00,0.0098
1207.00,0.0098
1206.00,0.0099
1205.00,0.0099
1204.00,0.0099
1203.00,0.0099
1202.00,0.0099
1201.00,0.0098
1200.00,0.0098
1199.00,0.0097
1198.00,0.0097
1197.00,0.0097
1196.00,0.0096
1195.00,0.0096
1194.00,0.0096
1193.00,0.0096
1192.00,0.0096
1191.00,0.0096
1190.00,0.0096
1189.00,0.0096
1188.00,0.0096
1187.00,0.0096
1186.00,0.0096
1185.00,0.0097
1184.00,0.0099
1183.00,0.0101
1182.00,0.0103
1181.00,0.0107
1180.00,0.0111
1179.00,0.0117
1178.00,0.0124
1177.00,0.0133
1176.00,0.0146
1175.00,0.0162
1174.00,0.0184
1173.00,0.0212
1172.00,0.0246
1171.00,0.0283
1170.00,0.0320
1169.00,0.0351
1168.00,0.0370
1167.00,0.0375
1166.00,0.0368
1165.00,0.0352
1164.00,0.0332
1163.00,0.0313
1162.00,0.0295
1161.00,0.0281
1160.00,0.0269
1159.00,0.0260
1158.00,0.0253
1157.00,0.0247
1156.00,0.0242
1155.00,0.0239
1154.00,0.0236
1153.00,0.0233
1152.00,0.0227
1151.00,0.0220
1150.00,0.0211
1149.00,0.0201
1148.00,0.0191
1147.00,0.0181
1146.00,0.0172
1145.00,0.0164
1144.00,0.0155
1143.00,0.0148
1142.00,0.0141
1141.00,0.0135
1140.00,0.0130
1139.00,0.0126
1138.00,0.0123
1137.00,0.0120
1136.00,0.0118
1135.00,0.0116
1134.00,0.0115
1133.00,0.0114
1132.00,0.0114
1131.00,0.0115
1130.00,0.0115
1129.00,0.0116
1128.00,0.0118
1127.00,0.0120
1126.00,0.0123
1125.00,0.0125
1124.00,0.0126
1123.00,0.0128
1122.00,0.0130
1121.00,0.0131
1120.00,0.0133
1119.00,0.0135
1118.00,0.0137
1117.00,0.0140
1116.00,0.0143
1115.00,0.0147
1114.00,0.0150
1113.00,0.0154
1112.00,0.0158
1111.00,0.0161
1110.00,0.0164
1109.00,0.0166
1108.00,0.0169
1107.00,0.0174
1106.00,0.0179
1105.00,0.0183
1104.00,0.0187
1103.00,0.0188
1102.00,0.0186
1101.00,0.0182
1100.00,0.0175
1099.00,0.0168
1098.00,0.0162
1097.00,0.0156
1096.00,0.0152
1095.00,0.0147
1094.00,0.0143
1093.00,0.0140
1092.00,0.0136
1091.00,0.0134
1090.00,0.0133
1089.00,0.0132
1088.00,0.0131
1087.00,0.0129
1086.00,0.0128
1085.00,0.0128
1084.00,0.0127
1083.00,0.0127
1082.00,0.0127
1081.00,0.0126
1080.00,0.0126
1079.00,0.0126
1078.00,0.0126
1077.00,0.0125
1076.00,0.0125
1075.00,0.0125
1074.00,0.0125
1073.00,0.0126
1072.00,0.0127
1071.00,0.0127
1070.00,0.0128
1069.00,0.0129
1068.00,0.0131
1067.00,0.0134
1066.00,0.0137
1065.00,0.0141
1064.00,0.0144
1063.00,0.0147
1062.00,0.0150
1061.00,0.0153
1060.00,0.0155
1059.00,0.0157
1058.00,0.0159
1057.00,0.0160
1056.00,0.0162
1055.00,0.0163
1054.00,0.0165
1053.00,0.0166
1052.00,0.0166
1051.00,0.0166
1050.00,0.0165
1049.00,0.0165
1048.00,0.0165
1047.00,0.0167
1046.00,0.0169
1045.00,0.0171
1044.00,0.0171
1043.00,0.0169
1042.00,0.0167
1041.00,0.0165
1040.00,0.0164
1039.00,0.0165
1038.00,0.0166
1037.00,0.0169
1036.00,0.0172
1035.00,0.0173
1034.00,0.0174
1033.00,0.0173
1032.00,0.0171
1031.00,0.0170
1030.00,0.0168
1029.00,0.0166
1028.00,0.0164
1027.00,0.0163
1026.00,0.0161
1025.00,0.0159
1024.00,0.0157
1023.00,0.0155
1022.00,0.0154
1021.00,0.0154
1020.00,0.0154
1019.00,0.0156
1018.00,0.0157
1017.00,0.0158
1016.00,0.0159
1015.00,0.0160
1014.00,0.0162
1013.00,0.0164
1012.00,0.0167
1011.00,0.0171
1010.00,0.0175
1009.00,0.0179
1008.00,0.0184
1007.00,0.0191
1006.00,0.0201
1005.00,0.0214
1004.00,0.0233
1003.00,0.0258
1002.00,0.0293
1001.00,0.0336
1000.00,0.0383
999.00,0.0423
998.00,0.0443
997.00,0.0437
996.00,0.0406
995.00,0.0361
994.00,0.0314
993.00,0.0272
992.00,0.0238
991.00,0.0214
990.00,0.0196
989.00,0.0185
988.00,0.0178
987.00,0.0175
986.00,0.0173
985.00,0.0174
984.00,0.0178
983.00,0.0184
982.00,0.0194
981.00,0.0208
980.00,0.0227
979.00,0.0254
978.00,0.0290
977.00,0.0333
976.00,0.0382
975.00,0.0431
974.00,0.0468
973.00,0.0483
972.00,0.0468
971.00,0.0426
970.00,0.0368
969.00,0.0308
968.00,0.0257
967.00,0.0218
966.00,0.0189
965.00,0.0168
964.00,0.0153
963.00,0.0142
962.00,0.0134
961.00,0.0127
960.00,0.0122
959.00,0.0117
958.00,0.0114
957.00,0.0110
956.00,0.0108
955.00,0.0105
954.00,0.0103
953.00,0.0101
952.00,0.0098
951.00,0.0096
950.00,0.0095
949.00,0.0095
948.00,0.0094
947.00,0.0094
946.00,0.0095
945.00,0.0097
944.00,0.0100
943.00,0.0103
942.00,0.0106
941.00,0.0108
940.00,0.0109
939.00,0.0107
938.00,0.0104
937.00,0.0099
936.00,0.0094
935.00,0.0090
934.00,0.0086
933.00,0.0084
932.00,0.0082
931.00,0.0081
930.00,0.0081
929.00,0.0080
928.00,0.0079
927.00,0.0078
926.00,0.0078
925.00,0.0078
924.00,0.0078
923.00,0.0078
922.00,0.0078
921.00,0.0078
920.00,0.0077
919.00,0.0078
918.00,0.0079
917.00,0.0080
916.00,0.0080
915.00,0.0080
914.00,0.0081
913.00,0.0082
912.00,0.0084
911.00,0.0086
910.00,0.0089
909.00,0.0092
908.00,0.0096
907.00,0.0100
906.00,0.0106
905.00,0.0114
904.00,0.0125
903.00,0.0140
902.00,0.0156
901.00,0.0172
900.00,0.0182
899.00,0.0185
898.00,0.0179
897.00,0.0166
896.00,0.0150
895.00,0.0135
894.00,0.0122
893.00,0.0112
892.00,0.0104
891.00,0.0098
890.00,0.0094
889.00,0.0091
888.00,0.0090
887.00,0.0089
886.00,0.0088
885.00,0.0087
884.00,0.0087
883.00,0.0087
882.00,0.0088
881.00,0.0090
880.00,0.0091
879.00,0.0093
878.00,0.0094
877.00,0.0094
876.00,0.0094
875.00,0.0095
874.00,0.0096
873.00,0.0097
872.00,0.0096
871.00,0.0095
870.00,0.0094
869.00,0.0093
868.00,0.0092
867.00,0.0091
866.00,0.0091
865.00,0.0092
864.00,0.0093
863.00,0.0095
862.00,0.0096
861.00,0.0097
860.00,0.0097
859.00,0.0098
858.00,0.0099
857.00,0.0101
856.00,0.0104
855.00,0.0106
854.00,0.0109
853.00,0.0111
852.00,0.0114
851.00,0.0117
850.00,0.0123
849.00,0.0130
848.00,0.0139
847.00,0.0153
846.00,0.0175
845.00,0.0211
844.00,0.0262
843.00,0.0324
842.00,0.0377
841.00,0.0396
840.00,0.0373
839.00,0.0319
838.00,0.0257
837.00,0.0208
836.00,0.0175
835.00,0.0155
834.00,0.0143
833.00,0.0134
832.00,0.0127
831.00,0.0122
830.00,0.0120
829.00,0.0119
828.00,0.0118
827.00,0.0117
826.00,0.0116
825.00,0.0116
824.00,0.0116
823.00,0.0116
822.00,0.0116
821.00,0.0116
820.00,0.0117
819.00,0.0119
818.00,0.0123
817.00,0.0128
816.00,0.0136
815.00,0.0146
814.00,0.0159
813.00,0.0174
812.00,0.0191
811.00,0.0206
810.00,0.0218
809.00,0.0222
808.00,0.0219
807.00,0.0210
806.00,0.0197
805.00,0.0182
804.00,0.0168
803.00,0.0155
802.00,0.0145
801.00,0.0136
800.00,0.0129
799.00,0.0124
798.00,0.0120
797.00,0.0118
796.00,0.0116
795.00,0.0113
794.00,0.0110
793.00,0.0107
792.00,0.0104
791.00,0.0102
790.00,0.0100
789.00,0.0098
788.00,0.0095
787.00,0.0093
786.00,0.0090
785.00,0.0088
784.00,0.0086
783.00,0.0084
782.00,0.0083
781.00,0.0082
780.00,0.0081
779.00,0.0080
778.00,0.0081
777.00,0.0082
776.00,0.0082
775.00,0.0082
774.00,0.0082
773.00,0.0083
772.00,0.0083
771.00,0.0082
770.00,0.0082
769.00,0.0083
768.00,0.0085
767.00,0.0086
766.00,0.0087
765.00,0.0086
764.00,0.0086
763.00,0.0087
762.00,0.0089
761.00,0.0091
760.00,0.0091
759.00,0.0090
758.00,0.0089
757.00,0.0089
756.00,0.0089
755.00,0.0089
754.00,0.0091
753.00,0.0093
752.00,0.0096
751.00,0.0098
750.00,0.0100
749.00,0.0101
748.00,0.0103
747.00,0.0105
746.00,0.0108
745.00,0.0111
744.00,0.0113
743.00,0.0115
742.00,0.0117
741.00,0.0120
740.00,0.0123
739.00,0.0126
738.00,0.0129
737.00,0.0133
736.00,0.0137
735.00,0.0142
734.00,0.0148
733.00,0.0154
732.00,0.0163
731.00,0.0172
730.00,0.0181
729.00,0.0186
728.00,0.0186
727.00,0.0185
726.00,0.0185
725.00,0.0188
724.00,0.0195
723.00,0.0203
722.00,0.0211
721.00,0.0218
720.00,0.0218
719.00,0.0210
718.00,0.0196
717.00,0.0182
716.00,0.0172
715.00,0.0165
714.00,0.0161
713.00,0.0157
712.00,0.0153
711.00,0.0150
710.00,0.0148
709.00,0.0146
708.00,0.0145
707.00,0.0143
706.00,0.0142
705.00,0.0141
704.00,0.0140
703.00,0.0140
702.00,0.0138
701.00,0.0136
700.00,0.0134
699.00,0.0134
698.00,0.0133
697.00,0.0133
696.00,0.0132
695.00,0.0132
694.00,0.0132
693.00,0.0133
692.00,0.0132
691.00,0.0131
690.00,0.0128
689.00,0.0127
688.00,0.0126
687.00,0.0128
686.00,0.0129
685.00,0.0130
684.00,0.0130
683.00,0.0130
682.00,0.0130
681.00,0.0131
680.00,0.0130
679.00,0.0130
678.00,0.0130
677.00,0.0132
676.00,0.0135
675.00,0.0139
674.00,0.0143
673.00,0.0145
672.00,0.0145
671.00,0.0144
670.00,0.0143
669.00,0.0143
668.00,0.0144
667.00,0.0144
666.00,0.0143
665.00,0.0142
664.00,0.0142
663.00,0.0141
662.00,0.0141
661.00,0.0139
660.00,0.0137
659.00,0.0135
658.00,0.0133
657.00,0.0130
656.00,0.0127
655.00,0.0126
654.00,0.0127
653.00,0.0129
652.00,0.0132
651.00,0.0133
650.00,0.0132
649.00,0.0131
648.00,0.0131
647.00,0.0131
646.00,0.0132
645.00,0.0132
644.00,0.0131
643.00,0.0129
642.00,0.0128
641.00,0.0128
640.00,0.0130
639.00,0.0131
638.00,0.0132
637.00,0.0134
636.00,0.0135
635.00,0.0136
634.00,0.0137
633.00,0.0138
632.00,0.0140
631.00,0.0141
630.00,0.0141
629.00,0.0142
628.00,0.0143
627.00,0.0143
626.00,0.0143
625.00,0.0143
624.00,0.0143
623.00,0.0143
622.00,0.0142
621.00,0.0140
620.00,0.0138
619.00,0.0137
618.00,0.0137
617.00,0.0138
616.00,0.0140
615.00,0.0143
614.00,0.0145
613.00,0.0145
612.00,0.0144
611.00,0.0143
610.00,0.0142
609.00,0.0142
608.00,0.0142
607.00,0.0141
606.00,0.0141
605.00,0.0142
604.00,0.0141
603.00,0.0139
602.00,0.0136
601.00,0.0136
600.00,0.0137
599.00,0.0138
598.00,0.0138
597.00,0.0138
596.00,0.0139
595.00,0.0142
594.00,0.0144
593.00,0.0145
592.00,0.0144
591.00,0.0145
590.00,0.0144
589.00,0.0142
588.00,0.0139
587.00,0.0137
586.00,0.0136
585.00,0.0137
584.00,0.0140
583.00,0.0144
582.00,0.0147
581.00,0.0148
580.00,0.0146
579.00,0.0143
578.00,0.0140
577.00,0.0138
576.00,0.0137
575.00,0.0138
574.00,0.0140
573.00,0.0143
572.00,0.0146
571.00,0.0149
570.00,0.0151
569.00,0.0151
568.00,0.0150
567.00,0.0149
566.00,0.0149
565.00,0.0148
564.00,0.0147
563.00,0.0147
562.00,0.0149
561.00,0.0151
560.00,0.0152
559.00,0.0152
558.00,0.0152
557.00,0.0151
556.00,0.0151
555.00,0.0150
554.00,0.0149
553.00,0.0146
552.00,0.0142
551.00,0.0138
550.00,0.0136
549.00,0.0137
548.00,0.0140
547.00,0.0144
546.00,0.0147
545.00,0.0146
544.00,0.0144
543.00,0.0142
542.00,0.0140
541.00,0.0137
540.00,0.0133
539.00,0.0130
538.00,0.0131
537.00,0.0135
536.00,0.0140
535.00,0.0143
534.00,0.0143
533.00,0.0140
532.00,0.0137
531.00,0.0137
530.00,0.0142
529.00,0.0149
528.00,0.0153
527.00,0.0151
526.00,0.0146
525.00,0.0142
524.00,0.0140
523.00,0.0141
522.00,0.0143
521.00,0.0146
520.00,0.0147
519.00,0.0142
518.00,0.0134
517.00,0.0128
516.00,0.0127
515.00,0.0129
514.00,0.0129
513.00,0.0126
512.00,0.0123
511.00,0.0123
510.00,0.0127
509.00,0.0132
508.00,0.0137
507.00,0.0138
506.00,0.0135
505.00,0.0129
504.00,0.0126
503.00,0.0127
502.00,0.0131
501.00,0.0136
500.00,0.0137
499.00,0.0133
498.00,0.0128
497.00,0.0127
496.00,0.0128
495.00,0.0128
494.00,0.0125
493.00,0.0122
492.00,0.0118
491.00,0.0113
490.00,0.0108
489.00,0.0107
488.00,0.0110
487.00,0.0114
486.00,0.0115
485.00,0.0111
484.00,0.0106
483.00,0.0100
482.00,0.0095
481.00,0.0096
480.00,0.0103
479.00,0.0112
478.00,0.0118
477.00,0.0120
476.00,0.0121
475.00,0.0120
474.00,0.0117
473.00,0.0114
472.00,0.0116
471.00,0.0121
470.00,0.0123
469.00,0.0119
468.00,0.0116
467.00,0.0119
466.00,0.0129
465.00,0.0140
464.00,0.0149
463.00,0.0160
462.00,0.0172
461.00,0.0186
460.00,0.0201
459.00,0.0214
458.00,0.0219
457.00,0.0215
456.00,0.0206
455.00,0.0199
454.00,0.0193
453.00,0.0186
452.00,0.0172
451.00,0.0153
450.00,0.0137
