Created as New Dataset,Sample 084 By Administrator Date Wednesday, September 03 2025
cm-1,A
4000.00,0.0010
3999.00,0.0010
3998.00,0.0010
3997.00,0.0010
3996.00,0.0010
3995.00,0.0010
3994.00,0.0010
3993.00,0.0010
3992.00,0.0010
3991.00,0.0010
3990.00,0.0009
3989.00,0.0009
3988.00,0.0009
3987.00,0.0009
3986.00,0.0009
3985.00,0.0009
3984.00,0.0009
3983.00,0.0009
3982.00,0.0009
3981.00,0.0009
3980.00,0.0009
3979.00,0.0009
3978.00,0.0009
3977.00,0.0009
3976.00,0.0009
3975.00,0.0009
3974.00,0.0009
3973.00,0.0009
3972.00,0.0009
3971.00,0.0009
3970.00,0.0009
3969.00,0.0009
3968.00,0.0009
3967.00,0.0008
3966.00,0.0008
3965.00,0.0008
3964.00,0.0008
3963.00,0.0008
3962.00,0.0008
3961.00,0.0008
3960.00,0.0008
3959.00,0.0008
3958.00,0.0008
3957.00,0.0008
3956.00,0.0008
3955.00,0.0008
3954.00,0.0008
3953.00,0.0008
3952.00,0.0008
3951.00,0.0008
3950.00,0.0008
3949.00,0.0008
3948.00,0.0008
3947.00,0.0008
3946.00,0.0008
3945.00,0.0008
3944.00,0.0008
3943.00,0.0008
3942.00,0.0008
3941.00,0.0008
3940.00,0.0008
3939.00,0.0008
3938.00,0.0008
3937.00,0.0008
3936.00,0.0008
3935.00,0.0008
3934.00,0.0008
3933.00,0.0008
3932.00,0.0008
3931.00,0.0009
3930.00,0.0009
3929.00,0.0009
3928.00,0.0009
3927.00,0.0009
3926.00,0.0009
3925.00,0.0009
3924.00,0.0009
3923.00,0.0009
3922.00,0.0009
3921.00,0.0009
3920.00,0.0008
3919.00,0.0008
3918.00,0.0008
3917.00,0.0009
3916.00,0.0009
3915.00,0.0008
3914.00,0.0008
3913.00,0.0008
3912.00,0.0008
3911.00,0.0008
3910.00,0.0008
3909.00,0.0007
3908.00,0.0007
3907.00,0.0007
3906.00,0.0008
3905.00,0.0008
3904.00,0.0009
3903.00,0.0009
3902.00,0.0009
3901.00,0.0010
3900.00,0.0010
3899.00,0.0010
3898.00,0.0010
3897.00,0.0010
3896.00,0.0009
3895.00,0.0009
3894.00,0.0009
3893.00,0.0009
3892.00,0.0009
3891.00,0.0009
3890.00,0.0009
3889.00,0.0008
3888.00,0.0009
3887.00,0.0009
3886.00,0.0009
3885.00,0.0010
3884.00,0.0009
3883.00,0.0009
3882.00,0.0009
3881.00,0.0009
3880.00,0.0009
3879.00,0.0009
3878.00,0.0009
3877.00,0.0009
3876.00,0.0009
3875.00,0.0009
3874.00,0.0009
3873.00,0.0009
3872.00,0.0010
3871.00,0.0010
3870.00,0.0011
3869.00,0.0011
3868.00,0.0011
3867.00,0.0011
3866.00,0.0011
3865.00,0.0011
3864.00,0.0010
3863.00,0.0009
3862.00,0.0009
3861.00,0.0010
3860.00,0.0010
3859.00,0.0010
3858.00,0.0010
3857.00,0.0011
3856.00,0.0012
3855.00,0.0013
3854.00,0.0013
3853.00,0.0013
3852.00,0.0013
3851.00,0.0013
3850.00,0.0012
3849.00,0.0012
3848.00,0.0011
3847.00,0.0010
3846.00,0.0009
3845.00,0.0008
3844.00,0.0008
3843.00,0.0008
3842.00,0.0008
3841.00,0.0009
3840.00,0.0010
3839.00,0.0011
3838.00,0.0012
3837.00,0.0012
3836.00,0.0012
3835.00,0.0011
3834.00,0.0011
3833.00,0.0010
3832.00,0.0010
3831.00,0.0009
3830.00,0.0009
3829.00,0.0009
3828.00,0.0009
3827.00,0.0009
3826.00,0.0009
3825.00,0.0009
3824.00,0.0009
3823.00,0.0009
3822.00,0.0010
3821.00,0.0010
3820.00,0.0010
3819.00,0.0010
3818.00,0.0010
3817.00,0.0010
3816.00,0.0010
3815.00,0.0010
3814.00,0.0010
3813.00,0.0010
3812.00,0.0010
3811.00,0.0009
3810.00,0.0009
3809.00,0.0009
3808.00,0.0009
3807.00,0.0009
3806.00,0.0009
3805.00,0.0009
3804.00,0.0009
3803.00,0.0010
3802.00,0.0010
3801.00,0.0010
3800.00,0.0010
3799.00,0.0010
3798.00,0.0010
3797.00,0.0009
3796.00,0.0009
3795.00,0.0009
3794.00,0.0008
3793.00,0.0008
3792.00,0.0008
3791.00,0.0008
3790.00,0.0008
3789.00,0.0008
3788.00,0.0008
3787.00,0.0008
3786.00,0.0008
3785.00,0.0008
3784.00,0.0008
3783.00,0.0008
3782.00,0.0008
3781.00,0.0008
3780.00,0.0008
3779.00,0.0008
3778.00,0.0008
3777.00,0.0008
3776.00,0.0009
3775.00,0.0009
3774.00,0.0008
3773.00,0.0008
3772.00,0.0008
3771.00,0.0009
3770.00,0.0009
3769.00,0.0009
3768.00,0.0009
3767.00,0.0009
3766.00,0.0009
3765.00,0.0009
3764.00,0.0010
3763.00,0.0010
3762.00,0.0010
3761.00,0.0011
3760.00,0.0011
3759.00,0.0010
3758.00,0.0010
3757.00,0.0009
3756.00,0.0009
3755.00,0.0010
3754.00,0.0011
3753.00,0.0011
3752.00,0.0012
3751.00,0.0012
3750.00,0.0012
3749.00,0.0013
3748.00,0.0013
3747.00,0.0012
3746.00,0.0012
3745.00,0.0011
3744.00,0.0010
3743.00,0.0010
3742.00,0.0009
3741.00,0.0010
3740.00,0.0010
3739.00,0.0010
3738.00,0.0010
3737.00,0.0010
3736.00,0.0010
3735.00,0.0009
3734.00,0.0009
3733.00,0.0009
3732.00,0.0008
3731.00,0.0008
3730.00,0.0008
3729.00,0.0008
3728.00,0.0008
3727.00,0.0009
3726.00,0.0009
3725.00,0.0009
3724.00,0.0009
3723.00,0.0009
3722.00,0.0008
3721.00,0.0008
3720.00,0.0007
3719.00,0.0007
3718.00,0.0007
3717.00,0.0007
3716.00,0.0007
3715.00,0.0007
3714.00,0.0007
3713.00,0.0007
3712.00,0.0007
3711.00,0.0007
3710.00,0.0008
3709.00,0.0008
3708.00,0.0008
3707.00,0.0007
3706.00,0.0007
3705.00,0.0006
3704.00,0.0006
3703.00,0.0006
3702.00,0.0006
3701.00,0.0006
3700.00,0.0006
3699.00,0.0006
3698.00,0.0006
3697.00,0.0006
3696.00,0.0006
3695.00,0.0006
3694.00,0.0007
3693.00,0.0007
3692.00,0.0007
3691.00,0.0007
3690.00,0.0008
3689.00,0.0009
3688.00,0.0009
3687.00,0.0009
3686.00,0.0009
3685.00,0.0008
3684.00,0.0008
3683.00,0.0007
3682.00,0.0007
3681.00,0.0006
3680.00,0.0006
3679.00,0.0007
3678.00,0.0007
3677.00,0.0008
3676.00,0.0008
3675.00,0.0008
3674.00,0.0008
3673.00,0.0008
3672.00,0.0008
3671.00,0.0008
3670.00,0.0008
3669.00,0.0007
3668.00,0.0007
3667.00,0.0007
3666.00,0.0006
3665.00,0.0006
3664.00,0.0005
3663.00,0.0004
3662.00,0.0004
3661.00,0.0004
3660.00,0.0004
3659.00,0.0004
3658.00,0.0004
3657.00,0.0005
3656.00,0.0005
3655.00,0.0005
3654.00,0.0006
3653.00,0.0006
3652.00,0.0007
3651.00,0.0007
3650.00,0.0007
3649.00,0.0007
3648.00,0.0008
3647.00,0.0008
3646.00,0.0008
3645.00,0.0007
3644.00,0.0007
3643.00,0.0007
3642.00,0.0007
3641.00,0.0006
3640.00,0.0006
3639.00,0.0005
3638.00,0.0005
3637.00,0.0005
3636.00,0.0005
3635.00,0.0005
3634.00,0.0005
3633.00,0.0005
3632.00,0.0005
3631.00,0.0006
3630.00,0.0006
3629.00,0.0006
3628.00,0.0006
3627.00,0.0006
3626.00,0.0006
3625.00,0.0006
3624.00,0.0006
3623.00,0.0005
3622.00,0.0005
3621.00,0.0005
3620.00,0.0005
3619.00,0.0005
3618.00,0.0006
3617.00,0.0006
3616.00,0.0006
3615.00,0.0006
3614.00,0.0006
3613.00,0.0006
3612.00,0.0006
3611.00,0.0006
3610.00,0.0006
3609.00,0.0006
3608.00,0.0006
3607.00,0.0006
3606.00,0.0006
3605.00,0.0007
3604.00,0.0007
3603.00,0.0007
3602.00,0.0007
3601.00,0.0006
3600.00,0.0006
3599.00,0.0006
3598.00,0.0006
3597.00,0.0006
3596.00,0.0006
3595.00,0.0006
3594.00,0.0006
3593.00,0.0006
3592.00,0.0006
3591.00,0.0006
3590.00,0.0006
3589.00,0.0005
3588.00,0.0005
3587.00,0.0004
3586.00,0.0004
3585.00,0.0005
3584.00,0.0005
3583.00,0.0005
3582.00,0.0005
3581.00,0.0006
3580.00,0.0006
3579.00,0.0006
3578.00,0.0007
3577.00,0.0007
3576.00,0.0007
3575.00,0.0007
3574.00,0.0006
3573.00,0.0006
3572.00,0.0006
3571.00,0.0007
3570.00,0.0007
3569.00,0.0008
3568.00,0.0008
3567.00,0.0007
3566.00,0.0007
3565.00,0.0007
3564.00,0.0007
3563.00,0.0007
3562.00,0.0008
3561.00,0.0008
3560.00,0.0008
3559.00,0.0008
3558.00,0.0008
3557.00,0.0008
3556.00,0.0007
3555.00,0.0007
3554.00,0.0007
3553.00,0.0007
3552.00,0.0007
3551.00,0.0008
3550.00,0.0008
3549.00,0.0009
3548.00,0.0009
3547.00,0.0009
3546.00,0.0009
3545.00,0.0009
3544.00,0.0009
3543.00,0.0010
3542.00,0.0009
3541.00,0.0009
3540.00,0.0009
3539.00,0.0009
3538.00,0.0009
3537.00,0.0009
3536.00,0.0009
3535.00,0.0009
3534.00,0.0009
3533.00,0.0009
3532.00,0.0009
3531.00,0.0010
3530.00,0.0010
3529.00,0.0010
3528.00,0.0010
3527.00,0.0010
3526.00,0.0010
3525.00,0.0010
3524.00,0.0010
3523.00,0.0011
3522.00,0.0011
3521.00,0.0011
3520.00,0.0011
3519.00,0.0011
3518.00,0.0011
3517.00,0.0011
3516.00,0.0011
3515.00,0.0011
3514.00,0.0011
3513.00,0.0012
3512.00,0.0012
3511.00,0.0012
3510.00,0.0012
3509.00,0.0012
3508.00,0.0012
3507.00,0.0012
3506.00,0.0012
3505.00,0.0012
3504.00,0.0013
3503.00,0.0013
3502.00,0.0013
3501.00,0.0013
3500.00,0.0013
3499.00,0.0013
3498.00,0.0013
3497.00,0.0013
3496.00,0.0012
3495.00,0.0012
3494.00,0.0012
3493.00,0.0012
3492.00,0.0012
3491.00,0.0012
3490.00,0.0012
3489.00,0.0012
3488.00,0.0013
3487.00,0.0013
3486.00,0.0013
3485.00,0.0013
3484.00,0.0013
3483.00,0.0013
3482.00,0.0013
3481.00,0.0014
3480.00,0.0014
3479.00,0.0014
3478.00,0.0014
3477.00,0.0014
3476.00,0.0014
3475.00,0.0014
3474.00,0.0014
3473.00,0.0014
3472.00,0.0013
3471.00,0.0013
3470.00,0.0013
3469.00,0.0014
3468.00,0.0014
3467.00,0.0014
3466.00,0.0015
3465.00,0.0015
3464.00,0.0015
3463.00,0.0015
3462.00,0.0015
3461.00,0.0015
3460.00,0.0015
3459.00,0.0015
3458.00,0.0015
3457.00,0.0015
3456.00,0.0015
3455.00,0.0015
3454.00,0.0015
3453.00,0.0015
3452.00,0.0015
3451.00,0.0015
3450.00,0.0015
3449.00,0.0016
3448.00,0.0016
3447.00,0.0017
3446.00,0.0017
3445.00,0.0017
3444.00,0.0017
3443.00,0.0017
3442.00,0.0017
3441.00,0.0017
3440.00,0.0017
3439.00,0.0017
3438.00,0.0017
3437.00,0.0017
3436.00,0.0017
3435.00,0.0017
3434.00,0.0017
3433.00,0.0017
3432.00,0.0017
3431.00,0.0017
3430.00,0.0017
3429.00,0.0018
3428.00,0.0018
3427.00,0.0018
3426.00,0.0018
3425.00,0.0018
3424.00,0.0018
3423.00,0.0018
3422.00,0.0018
3421.00,0.0018
3420.00,0.0018
3419.00,0.0018
3418.00,0.0019
3417.00,0.0019
3416.00,0.0019
3415.00,0.0019
3414.00,0.0019
3413.00,0.0019
3412.00,0.0019
3411.00,0.0019
3410.00,0.0019
3409.00,0.0019
3408.00,0.0020
3407.00,0.0020
3406.00,0.0020
3405.00,0.0019
3404.00,0.0019
3403.00,0.0019
3402.00,0.0019
3401.00,0.0019
3400.00,0.0019
3399.00,0.0019
3398.00,0.0019
3397.00,0.0019
3396.00,0.0019
3395.00,0.0019
3394.00,0.0019
3393.00,0.0019
3392.00,0.0019
3391.00,0.0019
3390.00,0.0019
3389.00,0.0019
3388.00,0.0019
3387.00,0.0019
3386.00,0.0019
3385.00,0.0019
3384.00,0.0019
3383.00,0.0019
3382.00,0.0019
3381.00,0.0019
3380.00,0.0019
3379.00,0.0019
3378.00,0.0020
3377.00,0.0019
3376.00,0.0019
3375.00,0.0019
3374.00,0.0019
3373.00,0.0019
3372.00,0.0019
3371.00,0.0020
3370.00,0.0020
3369.00,0.0020
3368.00,0.0020
3367.00,0.0019
3366.00,0.0019
3365.00,0.0018
3364.00,0.0018
3363.00,0.0018
3362.00,0.0019
3361.00,0.0019
3360.00,0.0020
3359.00,0.0020
3358.00,0.0020
3357.00,0.0021
3356.00,0.0021
3355.00,0.0021
3354.00,0.0021
3353.00,0.0021
3352.00,0.0021
3351.00,0.0021
3350.00,0.0021
3349.00,0.0020
3348.00,0.0020
3347.00,0.0020
3346.00,0.0020
3345.00,0.0021
3344.00,0.0021
3343.00,0.0020
3342.00,0.0020
3341.00,0.0020
3340.00,0.0020
3339.00,0.0020
3338.00,0.0020
3337.00,0.0020
3336.00,0.0020
3335.00,0.0020
3334.00,0.0019
3333.00,0.0019
3332.00,0.0019
3331.00,0.0019
3330.00,0.0019
3329.00,0.0018
3328.00,0.0018
3327.00,0.0018
3326.00,0.0018
3325.00,0.0018
3324.00,0.0018
3323.00,0.0018
3322.00,0.0018
3321.00,0.0017
3320.00,0.0017
3319.00,0.0017
3318.00,0.0017
3317.00,0.0018
3316.00,0.0018
3315.00,0.0018
3314.00,0.0019
3313.00,0.0019
3312.00,0.0019
3311.00,0.0018
3310.00,0.0018
3309.00,0.0018
3308.00,0.0019
3307.00,0.0019
3306.00,0.0019
3305.00,0.0019
3304.00,0.0019
3303.00,0.0019
3302.00,0.0019
3301.00,0.0019
3300.00,0.0019
3299.00,0.0019
3298.00,0.0019
3297.00,0.0019
3296.00,0.0019
3295.00,0.0019
3294.00,0.0019
3293.00,0.0019
3292.00,0.0019
3291.00,0.0019
3290.00,0.0019
3289.00,0.0019
3288.00,0.0018
3287.00,0.0018
3286.00,0.0018
3285.00,0.0019
3284.00,0.0019
3283.00,0.0019
3282.00,0.0019
3281.00,0.0019
3280.00,0.0019
3279.00,0.0018
3278.00,0.0018
3277.00,0.0018
3276.00,0.0018
3275.00,0.0018
3274.00,0.0018
3273.00,0.0018
3272.00,0.0017
3271.00,0.0017
3270.00,0.0017
3269.00,0.0017
3268.00,0.0018
3267.00,0.0018
3266.00,0.0018
3265.00,0.0018
3264.00,0.0018
3263.00,0.0017
3262.00,0.0017
3261.00,0.0017
3260.00,0.0017
3259.00,0.0017
3258.00,0.0017
3257.00,0.0017
3256.00,0.0017
3255.00,0.0016
3254.00,0.0016
3253.00,0.0016
3252.00,0.0016
3251.00,0.0016
3250.00,0.0016
3249.00,0.0016
3248.00,0.0016
3247.00,0.0016
3246.00,0.0017
3245.00,0.0017
3244.00,0.0017
3243.00,0.0017
3242.00,0.0017
3241.00,0.0017
3240.00,0.0017
3239.00,0.0017
3238.00,0.0017
3237.00,0.0016
3236.00,0.0016
3235.00,0.0017
3234.00,0.0017
3233.00,0.0017
3232.00,0.0017
3231.00,0.0018
3230.00,0.0018
3229.00,0.0018
3228.00,0.0019
3227.00,0.0019
3226.00,0.0019
3225.00,0.0019
3224.00,0.0019
3223.00,0.0019
3222.00,0.0019
3221.00,0.0019
3220.00,0.0020
3219.00,0.0020
3218.00,0.0021
3217.00,0.0021
3216.00,0.0021
3215.00,0.0021
3214.00,0.0021
3213.00,0.0021
3212.00,0.0021
3211.00,0.0022
3210.00,0.0022
3209.00,0.0022
3208.00,0.0022
3207.00,0.0022
3206.00,0.0022
3205.00,0.0022
3204.00,0.0022
3203.00,0.0022
3202.00,0.0022
3201.00,0.0022
3200.00,0.0023
3199.00,0.0023
3198.00,0.0023
3197.00,0.0023
3196.00,0.0023
3195.00,0.0023
3194.00,0.0023
3193.00,0.0023
3192.00,0.0023
3191.00,0.0023
3190.00,0.0023
3189.00,0.0023
3188.00,0.0023
3187.00,0.0022
3186.00,0.0022
3185.00,0.0023
3184.00,0.0023
3183.00,0.0023
3182.00,0.0023
3181.00,0.0022
3180.00,0.0022
3179.00,0.0022
3178.00,0.0023
3177.00,0.0022
3176.00,0.0022
3175.00,0.0021
3174.00,0.0020
3173.00,0.0020
3172.00,0.0020
3171.00,0.0020
3170.00,0.0020
3169.00,0.0020
3168.00,0.0021
3167.00,0.0021
3166.00,0.0021
3165.00,0.0021
3164.00,0.0021
3163.00,0.0021
3162.00,0.0021
3161.00,0.0021
3160.00,0.0021
3159.00,0.0021
3158.00,0.0022
3157.00,0.0022
3156.00,0.0022
3155.00,0.0022
3154.00,0.0021
3153.00,0.0021
3152.00,0.0021
3151.00,0.0021
3150.00,0.0022
3149.00,0.0022
3148.00,0.0022
3147.00,0.0022
3146.00,0.0022
3145.00,0.0022
3144.00,0.0021
3143.00,0.0021
3142.00,0.0021
3141.00,0.0021
3140.00,0.0021
3139.00,0.0021
3138.00,0.0021
3137.00,0.0021
3136.00,0.0021
3135.00,0.0022
3134.00,0.0022
3133.00,0.0022
3132.00,0.0021
3131.00,0.0021
3130.00,0.0021
3129.00,0.0020
3128.00,0.0020
3127.00,0.0020
3126.00,0.0019
3125.00,0.0019
3124.00,0.0019
3123.00,0.0018
3122.00,0.0018
3121.00,0.0018
3120.00,0.0018
3119.00,0.0018
3118.00,0.0018
3117.00,0.0018
3116.00,0.0018
3115.00,0.0018
3114.00,0.0017
3113.00,0.0018
3112.00,0.0018
3111.00,0.0018
3110.00,0.0018
3109.00,0.0018
3108.00,0.0018
3107.00,0.0018
3106.00,0.0018
3105.00,0.0018
3104.00,0.0018
3103.00,0.0019
3102.00,0.0019
3101.00,0.0019
3100.00,0.0018
3099.00,0.0019
3098.00,0.0019
3097.00,0.0019
3096.00,0.0019
3095.00,0.0019
3094.00,0.0019
3093.00,0.0019
3092.00,0.0019
3091.00,0.0019
3090.00,0.0019
3089.00,0.0020
3088.00,0.0020
3087.00,0.0019
3086.00,0.0019
3085.00,0.0019
3084.00,0.0019
3083.00,0.0019
3082.00,0.0019
3081.00,0.0019
3080.00,0.0019
3079.00,0.0019
3078.00,0.0019
3077.00,0.0020
3076.00,0.0020
3075.00,0.0020
3074.00,0.0020
3073.00,0.0020
3072.00,0.0020
3071.00,0.0020
3070.00,0.0020
3069.00,0.0021
3068.00,0.0021
3067.00,0.0021
3066.00,0.0021
3065.00,0.0021
3064.00,0.0021
3063.00,0.0022
3062.00,0.0022
3061.00,0.0022
3060.00,0.0022
3059.00,0.0022
3058.00,0.0022
3057.00,0.0023
3056.00,0.0023
3055.00,0.0023
3054.00,0.0024
3053.00,0.0024
3052.00,0.0024
3051.00,0.0024
3050.00,0.0024
3049.00,0.0024
3048.00,0.0024
3047.00,0.0024
3046.00,0.0024
3045.00,0.0025
3044.00,0.0025
3043.00,0.0026
3042.00,0.0026
3041.00,0.0027
3040.00,0.0027
3039.00,0.0027
3038.00,0.0028
3037.00,0.0028
3036.00,0.0028
3035.00,0.0028
3034.00,0.0028
3033.00,0.0029
3032.00,0.0029
3031.00,0.0030
3030.00,0.0030
3029.00,0.0031
3028.00,0.0031
3027.00,0.0032
3026.00,0.0032
3025.00,0.0033
3024.00,0.0033
3023.00,0.0034
3022.00,0.0035
3021.00,0.0035
3020.00,0.0036
3019.00,0.0037
3018.00,0.0038
3017.00,0.0039
3016.00,0.0040
3015.00,0.0041
3014.00,0.0043
3013.00,0.0044
3012.00,0.0045
3011.00,0.0046
3010.00,0.0047
3009.00,0.0049
3008.00,0.0051
3007.00,0.0052
3006.00,0.0054
3005.00,0.0055
3004.00,0.0057
3003.00,0.0059
3002.00,0.0061
3001.00,0.0064
3000.00,0.0066
2999.00,0.0069
2998.00,0.0072
2997.00,0.0075
2996.00,0.0079
2995.00,0.0083
2994.00,0.0087
2993.00,0.0092
2992.00,0.0097
2991.00,0.0103
2990.00,0.0109
2989.00,0.0115
2988.00,0.0123
2987.00,0.0131
2986.00,0.0139
2985.00,0.0150
2984.00,0.0161
2983.00,0.0174
2982.00,0.0189
2981.00,0.0206
2980.00,0.0224
2979.00,0.0246
2978.00,0.0270
2977.00,0.0298
2976.00,0.0329
2975.00,0.0365
2974.00,0.0406
2973.00,0.0452
2972.00,0.0504
2971.00,0.0562
2970.00,0.0626
2969.00,0.0697
2968.00,0.0773
2967.00,0.0853
2966.00,0.0937
2965.00,0.1020
2964.00,0.1100
2963.00,0.1173
2962.00,0.1236
2961.00,0.1288
2960.00,0.1333
2959.00,0.1373
2958.00,0.1415
2957.00,0.1465
2956.00,0.1525
2955.00,0.1599
2954.00,0.1682
2953.00,0.1769
2952.00,0.1847
2951.00,0.1905
2950.00,0.1929
2949.00,0.1911
2948.00,0.1849
2947.00,0.1748
2946.00,0.1623
2945.00,0.1489
2944.00,0.1360
2943.00,0.1249
2942.00,0.1163
2941.00,0.1102
2940.00,0.1068
2939.00,0.1057
2938.00,0.1068
2937.00,0.1097
2936.00,0.1143
2935.00,0.1205
2934.00,0.1282
2933.00,0.1373
2932.00,0.1475
2931.00,0.1587
2930.00,0.1706
2929.00,0.1829
2928.00,0.1953
2927.00,0.2075
2926.00,0.2194
2925.00,0.2311
2924.00,0.2427
2923.00,0.2542
2922.00,0.2658
2921.00,0.2770
2920.00,0.2872
2919.00,0.2951
2918.00,0.2995
2917.00,0.2994
2916.00,0.2945
2915.00,0.2856
2914.00,0.2739
2913.00,0.2610
2912.00,0.2482
2911.00,0.2363
2910.00,0.2257
2909.00,0.2161
2908.00,0.2074
2907.00,0.1993
2906.00,0.1914
2905.00,0.1837
2904.00,0.1761
2903.00,0.1687
2902.00,0.1614
2901.00,0.1545
2900.00,0.1478
2899.00,0.1416
2898.00,0.1358
2897.00,0.1305
2896.00,0.1257
2895.00,0.1215
2894.00,0.1179
2893.00,0.1150
2892.00,0.1128
2891.00,0.1111
2890.00,0.1100
2889.00,0.1093
2888.00,0.1091
2887.00,0.1092
2886.00,0.1096
2885.00,0.1104
2884.00,0.1117
2883.00,0.1134
2882.00,0.1157
2881.00,0.1182
2880.00,0.1208
2879.00,0.1231
2878.00,0.1245
2877.00,0.1250
2876.00,0.1247
2875.00,0.1239
2874.00,0.1232
2873.00,0.1230
2872.00,0.1237
2871.00,0.1251
2870.00,0.1270
2869.00,0.1289
2868.00,0.1301
2867.00,0.1296
2866.00,0.1269
2865.00,0.1217
2864.00,0.1145
2863.00,0.1062
2862.00,0.0979
2861.00,0.0907
2860.00,0.0849
2859.00,0.0809
2858.00,0.0786
2857.00,0.0777
2856.00,0.0780
2855.00,0.0792
2854.00,0.0811
2853.00,0.0834
2852.00,0.0858
2851.00,0.0880
2850.00,0.0896
2849.00,0.0908
2848.00,0.0918
2847.00,0.0930
2846.00,0.0950
2845.00,0.0981
2844.00,0.1023
2843.00,0.1074
2842.00,0.1128
2841.00,0.1179
2840.00,0.1220
2839.00,0.1241
2838.00,0.1236
2837.00,0.1201
2836.00,0.1136
2835.00,0.1046
2834.00,0.0940
2833.00,0.0831
2832.00,0.0726
2831.00,0.0633
2830.00,0.0554
2829.00,0.0490
2828.00,0.0437
2827.00,0.0395
2826.00,0.0361
2825.00,0.0332
2824.00,0.0309
2823.00,0.0289
2822.00,0.0273
2821.00,0.0258
2820.00,0.0245
2819.00,0.0234
2818.00,0.0224
2817.00,0.0216
2816.00,0.0209
2815.00,0.0202
2814.00,0.0196
2813.00,0.0190
2812.00,0.0185
2811.00,0.0179
2810.00,0.0173
2809.00,0.0167
2808.00,0.0161
2807.00,0.0154
2806.00,0.0148
2805.00,0.0141
2804.00,0.0135
2803.00,0.0129
2802.00,0.0123
2801.00,0.0119
2800.00,0.0115
2799.00,0.0112
2798.00,0.0109
2797.00,0.0106
2796.00,0.0104
2795.00,0.0102
2794.00,0.0099
2793.00,0.0096
2792.00,0.0093
2791.00,0.0090
2790.00,0.0087
2789.00,0.0084
2788.00,0.0081
2787.00,0.0079
2786.00,0.0076
2785.00,0.0074
2784.00,0.0071
2783.00,0.0069
2782.00,0.0067
2781.00,0.0065
2780.00,0.0063
2779.00,0.0061
2778.00,0.0060
2777.00,0.0058
2776.00,0.0057
2775.00,0.0056
2774.00,0.0056
2773.00,0.0055
2772.00,0.0055
2771.00,0.0054
2770.00,0.0054
2769.00,0.0054
2768.00,0.0053
2767.00,0.0053
2766.00,0.0053
2765.00,0.0053
2764.00,0.0053
2763.00,0.0053
2762.00,0.0052
2761.00,0.0051
2760.00,0.0051
2759.00,0.0050
2758.00,0.0050
2757.00,0.0050
2756.00,0.0049
2755.00,0.0049
2754.00,0.0049
2753.00,0.0049
2752.00,0.0049
2751.00,0.0049
2750.00,0.0049
2749.00,0.0049
2748.00,0.0049
2747.00,0.0049
2746.00,0.0050
2745.00,0.0050
2744.00,0.0051
2743.00,0.0052
2742.00,0.0053
2741.00,0.0054
2740.00,0.0056
2739.00,0.0057
2738.00,0.0058
2737.00,0.0059
2736.00,0.0061
2735.00,0.0063
2734.00,0.0065
2733.00,0.0066
2732.00,0.0068
2731.00,0.0070
2730.00,0.0072
2729.00,0.0074
2728.00,0.0077
2727.00,0.0080
2726.00,0.0083
2725.00,0.0085
2724.00,0.0087
2723.00,0.0087
2722.00,0.0086
2721.00,0.0084
2720.00,0.0082
2719.00,0.0079
2718.00,0.0076
2717.00,0.0072
2716.00,0.0070
2715.00,0.0067
2714.00,0.0064
2713.00,0.0062
2712.00,0.0060
2711.00,0.0058
2710.00,0.0056
2709.00,0.0054
2708.00,0.0053
2707.00,0.0051
2706.00,0.0050
2705.00,0.0049
2704.00,0.0048
2703.00,0.0047
2702.00,0.0045
2701.00,0.0045
2700.00,0.0044
2699.00,0.0044
2698.00,0.0044
2697.00,0.0043
2696.00,0.0043
2695.00,0.0043
2694.00,0.0043
2693.00,0.0043
2692.00,0.0043
2691.00,0.0043
2690.00,0.0043
2689.00,0.0043
2688.00,0.0043
2687.00,0.0043
2686.00,0.0043
2685.00,0.0043
2684.00,0.0043
2683.00,0.0043
2682.00,0.0044
2681.00,0.0044
2680.00,0.0044
2679.00,0.0044
2678.00,0.0044
2677.00,0.0044
2676.00,0.0044
2675.00,0.0044
2674.00,0.0044
2673.00,0.0043
2672.00,0.0043
2671.00,0.0043
2670.00,0.0043
2669.00,0.0043
2668.00,0.0043
2667.00,0.0043
2666.00,0.0044
2665.00,0.0044
2664.00,0.0045
2663.00,0.0045
2662.00,0.0046
2661.00,0.0047
2660.00,0.0047
2659.00,0.0047
2658.00,0.0047
2657.00,0.0047
2656.00,0.0046
2655.00,0.0046
2654.00,0.0045
2653.00,0.0044
2652.00,0.0044
2651.00,0.0044
2650.00,0.0043
2649.00,0.0043
2648.00,0.0043
2647.00,0.0042
2646.00,0.0042
2645.00,0.0041
2644.00,0.0040
2643.00,0.0040
2642.00,0.0039
2641.00,0.0039
2640.00,0.0039
2639.00,0.0039
2638.00,0.0038
2637.00,0.0038
2636.00,0.0038
2635.00,0.0038
2634.00,0.0038
2633.00,0.0038
2632.00,0.0038
2631.00,0.0038
2630.00,0.0038
2629.00,0.0039
2628.00,0.0039
2627.00,0.0038
2626.00,0.0038
2625.00,0.0038
2624.00,0.0038
2623.00,0.0039
2622.00,0.0039
2621.00,0.0040
2620.00,0.0040
2619.00,0.0040
2618.00,0.0040
2617.00,0.0040
2616.00,0.0039
2615.00,0.0039
2614.00,0.0039
2613.00,0.0038
2612.00,0.0038
2611.00,0.0037
2610.00,0.0037
2609.00,0.0036
2608.00,0.0036
2607.00,0.0035
2606.00,0.0034
2605.00,0.0033
2604.00,0.0032
2603.00,0.0031
2602.00,0.0030
2601.00,0.0030
2600.00,0.0031
2599.00,0.0031
2598.00,0.0032
2597.00,0.0033
2596.00,0.0033
2595.00,0.0032
2594.00,0.0032
2593.00,0.0032
2592.00,0.0032
2591.00,0.0033
2590.00,0.0034
2589.00,0.0035
2588.00,0.0036
2587.00,0.0037
2586.00,0.0037
2585.00,0.0038
2584.00,0.0039
2583.00,0.0040
2582.00,0.0040
2581.00,0.0040
2580.00,0.0039
2579.00,0.0038
2578.00,0.0037
2577.00,0.0035
2576.00,0.0034
2575.00,0.0033
2574.00,0.0032
2573.00,0.0031
2572.00,0.0030
2571.00,0.0029
2570.00,0.0028
2569.00,0.0027
2568.00,0.0026
2567.00,0.0025
2566.00,0.0024
2565.00,0.0024
2564.00,0.0023
2563.00,0.0023
2562.00,0.0023
2561.00,0.0023
2560.00,0.0023
2559.00,0.0023
2558.00,0.0023
2557.00,0.0022
2556.00,0.0022
2555.00,0.0021
2554.00,0.0021
2553.00,0.0021
2552.00,0.0021
2551.00,0.0020
2550.00,0.0020
2549.00,0.0020
2548.00,0.0019
2547.00,0.0018
2546.00,0.0017
2545.00,0.0016
2544.00,0.0016
2543.00,0.0016
2542.00,0.0016
2541.00,0.0016
2540.00,0.0016
2539.00,0.0016
2538.00,0.0016
2537.00,0.0016
2536.00,0.0016
2535.00,0.0016
2534.00,0.0016
2533.00,0.0016
2532.00,0.0016
2531.00,0.0016
2530.00,0.0016
2529.00,0.0016
2528.00,0.0017
2527.00,0.0016
2526.00,0.0015
2525.00,0.0014
2524.00,0.0014
2523.00,0.0013
2522.00,0.0013
2521.00,0.0012
2520.00,0.0012
2519.00,0.0012
2518.00,0.0011
2517.00,0.0011
2516.00,0.0010
2515.00,0.0009
2514.00,0.0009
2513.00,0.0009
2512.00,0.0009
2511.00,0.0009
2510.00,0.0009
2509.00,0.0009
2508.00,0.0009
2507.00,0.0009
2506.00,0.0009
2505.00,0.0010
2504.00,0.0011
2503.00,0.0011
2502.00,0.0011
2501.00,0.0010
2500.00,0.0010
2499.00,0.0010
2498.00,0.0010
2497.00,0.0011
2496.00,0.0011
2495.00,0.0011
2494.00,0.0011
2493.00,0.0011
2492.00,0.0011
2491.00,0.0011
2490.00,0.0012
2489.00,0.0012
2488.00,0.0012
2487.00,0.0011
2486.00,0.0010
2485.00,0.0009
2484.00,0.0008
2483.00,0.0008
2482.00,0.0008
2481.00,0.0008
2480.00,0.0008
2479.00,0.0008
2478.00,0.0008
2477.00,0.0008
2476.00,0.0008
2475.00,0.0009
2474.00,0.0009
2473.00,0.0009
2472.00,0.0009
2471.00,0.0009
2470.00,0.0009
2469.00,0.0009
2468.00,0.0009
2467.00,0.0009
2466.00,0.0009
2465.00,0.0009
2464.00,0.0009
2463.00,0.0009
2462.00,0.0009
2461.00,0.0010
2460.00,0.0010
2459.00,0.0010
2458.00,0.0010
2457.00,0.0011
2456.00,0.0011
2455.00,0.0011
2454.00,0.0011
2453.00,0.0011
2452.00,0.0010
2451.00,0.0010
2450.00,0.0010
2449.00,0.0010
2448.00,0.0011
2447.00,0.0011
2446.00,0.0011
2445.00,0.0011
2444.00,0.0010
2443.00,0.0010
2442.00,0.0010
2441.00,0.0010
2440.00,0.0011
2439.00,0.0011
2438.00,0.0011
2437.00,0.0011
2436.00,0.0011
2435.00,0.0011
2434.00,0.0011
2433.00,0.0011
2432.00,0.0010
2431.00,0.0010
2430.00,0.0010
2429.00,0.0011
2428.00,0.0011
2427.00,0.0011
2426.00,0.0011
2425.00,0.0011
2424.00,0.0011
2423.00,0.0011
2422.00,0.0011
2421.00,0.0011
2420.00,0.0010
2419.00,0.0010
2418.00,0.0009
2417.00,0.0009
2416.00,0.0009
2415.00,0.0009
2414.00,0.0009
2413.00,0.0009
2412.00,0.0009
2411.00,0.0009
2410.00,0.0010
2409.00,0.0010
2408.00,0.0009
2407.00,0.0009
2406.00,0.0008
2405.00,0.0008
2404.00,0.0008
2403.00,0.0008
2402.00,0.0009
2401.00,0.0009
2400.00,0.0008
2399.00,0.0008
2398.00,0.0008
2397.00,0.0008
2396.00,0.0008
2395.00,0.0008
2394.00,0.0007
2393.00,0.0007
2392.00,0.0006
2391.00,0.0006
2390.00,0.0006
2389.00,0.0006
2388.00,0.0006
2387.00,0.0006
2386.00,0.0006
2385.00,0.0005
2384.00,0.0005
2383.00,0.0004
2382.00,0.0004
2381.00,0.0003
2380.00,0.0002
2379.00,0.0002
2378.00,0.0002
2377.00,0.0002
2376.00,0.0002
2375.00,0.0002
2374.00,0.0002
2373.00,0.0003
2372.00,0.0003
2371.00,0.0003
2370.00,0.0003
2369.00,0.0002
2368.00,0.0001
2367.00,0.0001
2366.00,0.0000
2365.00,0.0001
2364.00,0.0001
2363.00,0.0002
2362.00,0.0003
2361.00,0.0003
2360.00,0.0004
2359.00,0.0003
2358.00,0.0004
2357.00,0.0004
2356.00,0.0005
2355.00,0.0005
2354.00,0.0005
2353.00,0.0004
2352.00,0.0004
2351.00,0.0003
2350.00,0.0003
2349.00,0.0004
2348.00,0.0005
2347.00,0.0006
2346.00,0.0006
2345.00,0.0006
2344.00,0.0006
2343.00,0.0007
2342.00,0.0007
2341.00,0.0007
2340.00,0.0007
2339.00,0.0007
2338.00,0.0007
2337.00,0.0008
2336.00,0.0008
2335.00,0.0008
2334.00,0.0007
2333.00,0.0006
2332.00,0.0006
2331.00,0.0006
2330.00,0.0006
2329.00,0.0006
2328.00,0.0007
2327.00,0.0010
2326.00,0.0014
2325.00,0.0018
2324.00,0.0020
2323.00,0.0019
2322.00,0.0017
2321.00,0.0014
2320.00,0.0013
2319.00,0.0012
2318.00,0.0011
2317.00,0.0011
2316.00,0.0010
2315.00,0.0010
2314.00,0.0009
2313.00,0.0009
2312.00,0.0008
2311.00,0.0007
2310.00,0.0006
2309.00,0.0005
2308.00,0.0005
2307.00,0.0005
2306.00,0.0005
2305.00,0.0006
2304.00,0.0006
2303.00,0.0007
2302.00,0.0008
2301.00,0.0009
2300.00,0.0009
2299.00,0.0009
2298.00,0.0009
2297.00,0.0009
2296.00,0.0009
2295.00,0.0010
2294.00,0.0011
2293.00,0.0012
2292.00,0.0014
2291.00,0.0014
2290.00,0.0015
2289.00,0.0015
2288.00,0.0016
2287.00,0.0016
2286.00,0.0017
2285.00,0.0016
2284.00,0.0016
2283.00,0.0015
2282.00,0.0014
2281.00,0.0014
2280.00,0.0014
2279.00,0.0014
2278.00,0.0014
2277.00,0.0013
2276.00,0.0012
2275.00,0.0011
2274.00,0.0011
2273.00,0.0011
2272.00,0.0012
2271.00,0.0012
2270.00,0.0013
2269.00,0.0013
2268.00,0.0013
2267.00,0.0013
2266.00,0.0012
2265.00,0.0011
2264.00,0.0011
2263.00,0.0011
2262.00,0.0012
2261.00,0.0012
2260.00,0.0013
2259.00,0.0014
2258.00,0.0015
2257.00,0.0014
2256.00,0.0013
2255.00,0.0010
2254.00,0.0008
2253.00,0.0007
2252.00,0.0006
2251.00,0.0007
2250.00,0.0008
2249.00,0.0008
2248.00,0.0009
2247.00,0.0009
2246.00,0.0009
2245.00,0.0009
2244.00,0.0010
2243.00,0.0009
2242.00,0.0009
2241.00,0.0008
2240.00,0.0007
2239.00,0.0007
2238.00,0.0007
2237.00,0.0008
2236.00,0.0008
2235.00,0.0009
2234.00,0.0010
2233.00,0.0011
2232.00,0.0011
2231.00,0.0010
2230.00,0.0009
2229.00,0.0008
2228.00,0.0008
2227.00,0.0007
2226.00,0.0007
2225.00,0.0006
2224.00,0.0006
2223.00,0.0005
2222.00,0.0005
2221.00,0.0005
2220.00,0.0005
2219.00,0.0005
2218.00,0.0004
2217.00,0.0004
2216.00,0.0004
2215.00,0.0005
2214.00,0.0005
2213.00,0.0004
2212.00,0.0004
2211.00,0.0004
2210.00,0.0003
2209.00,0.0003
2208.00,0.0001
2207.00,0.0000
2206.00,0.0001
2205.00,0.0003
2204.00,0.0006
2203.00,0.0008
2202.00,0.0009
2201.00,0.0010
2200.00,0.0011
2199.00,0.0010
2198.00,0.0008
2197.00,0.0007
2196.00,0.0006
2195.00,0.0005
2194.00,0.0004
2193.00,0.0004
2192.00,0.0004
2191.00,0.0005
2190.00,0.0007
2189.00,0.0008
2188.00,0.0010
2187.00,0.0010
2186.00,0.0009
2185.00,0.0007
2184.00,0.0004
2183.00,0.0001
2182.00,-0.0000
2181.00,0.0001
2180.00,0.0003
2179.00,0.0004
2178.00,0.0004
2177.00,0.0002
2176.00,-0.0001
2175.00,-0.0002
2174.00,-0.0001
2173.00,0.0003
2172.00,0.0007
2171.00,0.0011
2170.00,0.0014
2169.00,0.0017
2168.00,0.0019
2167.00,0.0019
2166.00,0.0018
2165.00,0.0018
2164.00,0.0019
2163.00,0.0019
2162.00,0.0018
2161.00,0.0011
2160.00,-0.0001
2159.00,-0.0016
2158.00,-0.0027
2157.00,-0.0032
2156.00,-0.0031
2155.00,-0.0027
2154.00,-0.0024
2153.00,-0.0021
2152.00,-0.0020
2151.00,-0.0020
2150.00,-0.0020
2149.00,-0.0021
2148.00,-0.0023
2147.00,-0.0024
2146.00,-0.0024
2145.00,-0.0022
2144.00,-0.0019
2143.00,-0.0017
2142.00,-0.0016
2141.00,-0.0015
2140.00,-0.0015
2139.00,-0.0014
2138.00,-0.0014
2137.00,-0.0015
2136.00,-0.0016
2135.00,-0.0018
2134.00,-0.0018
2133.00,-0.0018
2132.00,-0.0016
2131.00,-0.0015
2130.00,-0.0015
2129.00,-0.0015
2128.00,-0.0014
2127.00,-0.0013
2126.00,-0.0012
2125.00,-0.0010
2124.00,-0.0009
2123.00,-0.0009
2122.00,-0.0009
2121.00,-0.0009
2120.00,-0.0008
2119.00,-0.0008
2118.00,-0.0007
2117.00,-0.0005
2116.00,-0.0003
2115.00,-0.0001
2114.00,-0.0000
2113.00,0.0000
2112.00,0.0000
2111.00,-0.0001
2110.00,-0.0001
2109.00,-0.0002
2108.00,-0.0001
2107.00,-0.0001
2106.00,-0.0000
2105.00,0.0000
2104.00,0.0001
2103.00,0.0002
2102.00,0.0002
2101.00,0.0002
2100.00,0.0002
2099.00,0.0001
2098.00,-0.0000
2097.00,-0.0002
2096.00,-0.0003
2095.00,-0.0004
2094.00,-0.0004
2093.00,-0.0004
2092.00,-0.0004
2091.00,-0.0004
2090.00,-0.0005
2089.00,-0.0005
2088.00,-0.0005
2087.00,-0.0004
2086.00,-0.0003
2085.00,-0.0002
2084.00,-0.0001
2083.00,0.0001
2082.00,0.0001
2081.00,0.0002
2080.00,0.0002
2079.00,0.0002
2078.00,0.0002
2077.00,0.0002
2076.00,0.0002
2075.00,0.0001
2074.00,0.0002
2073.00,0.0002
2072.00,0.0002
2071.00,0.0001
2070.00,-0.0000
2069.00,-0.0002
2068.00,-0.0003
2067.00,-0.0003
2066.00,-0.0002
2065.00,-0.0000
2064.00,-0.0000
2063.00,-0.0002
2062.00,-0.0003
2061.00,-0.0003
2060.00,-0.0002
2059.00,-0.0001
2058.00,-0.0001
2057.00,-0.0001
2056.00,-0.0002
2055.00,-0.0001
2054.00,0.0001
2053.00,0.0006
2052.00,0.0010
2051.00,0.0012
2050.00,0.0011
2049.00,0.0006
2048.00,0.0000
2047.00,-0.0005
2046.00,-0.0007
2045.00,-0.0008
2044.00,-0.0007
2043.00,-0.0006
2042.00,-0.0005
2041.00,-0.0004
2040.00,-0.0003
2039.00,-0.0001
2038.00,0.0002
2037.00,0.0004
2036.00,0.0004
2035.00,0.0001
2034.00,-0.0003
2033.00,-0.0007
2032.00,-0.0011
2031.00,-0.0014
2030.00,-0.0016
2029.00,-0.0017
2028.00,-0.0018
2027.00,-0.0019
2026.00,-0.0019
2025.00,-0.0018
2024.00,-0.0014
2023.00,-0.0010
2022.00,-0.0008
2021.00,-0.0007
2020.00,-0.0008
2019.00,-0.0010
2018.00,-0.0010
2017.00,-0.0010
2016.00,-0.0009
2015.00,-0.0011
2014.00,-0.0012
2013.00,-0.0011
2012.00,-0.0009
2011.00,-0.0006
2010.00,-0.0005
2009.00,-0.0005
2008.00,-0.0007
2007.00,-0.0011
2006.00,-0.0013
2005.00,-0.0013
2004.00,-0.0012
2003.00,-0.0012
2002.00,-0.0013
2001.00,-0.0014
2000.00,-0.0015
1999.00,-0.0016
1998.00,-0.0018
1997.00,-0.0019
1996.00,-0.0017
1995.00,-0.0015
1994.00,-0.0012
1993.00,-0.0009
1992.00,-0.0008
1991.00,-0.0008
1990.00,-0.0010
1989.00,-0.0011
1988.00,-0.0011
1987.00,-0.0010
1986.00,-0.0008
1985.00,-0.0005
1984.00,-0.0003
1983.00,-0.0000
1982.00,0.0003
1981.00,0.0007
1980.00,0.0009
1979.00,0.0008
1978.00,0.0003
1977.00,-0.0003
1976.00,-0.0006
1975.00,-0.0007
1974.00,-0.0007
1973.00,-0.0008
1972.00,-0.0010
1971.00,-0.0014
1970.00,-0.0018
1969.00,-0.0021
1968.00,-0.0022
1967.00,-0.0021
1966.00,-0.0019
1965.00,-0.0016
1964.00,-0.0013
1963.00,-0.0012
1962.00,-0.0013
1961.00,-0.0016
1960.00,-0.0019
1959.00,-0.0021
1958.00,-0.0022
1957.00,-0.0021
1956.00,-0.0019
1955.00,-0.0016
1954.00,-0.0014
1953.00,-0.0013
1952.00,-0.0011
1951.00,-0.0011
1950.00,-0.0011
1949.00,-0.0011
1948.00,-0.0011
1947.00,-0.0013
1946.00,-0.0014
1945.00,-0.0016
1944.00,-0.0017
1943.00,-0.0019
1942.00,-0.0019
1941.00,-0.0018
1940.00,-0.0016
1939.00,-0.0015
1938.00,-0.0015
1937.00,-0.0014
1936.00,-0.0014
1935.00,-0.0013
1934.00,-0.0012
1933.00,-0.0011
1932.00,-0.0009
1931.00,-0.0009
1930.00,-0.0009
1929.00,-0.0009
1928.00,-0.0008
1927.00,-0.0009
1926.00,-0.0009
1925.00,-0.0010
1924.00,-0.0010
1923.00,-0.0010
1922.00,-0.0008
1921.00,-0.0007
1920.00,-0.0006
1919.00,-0.0005
1918.00,-0.0006
1917.00,-0.0006
1916.00,-0.0006
1915.00,-0.0005
1914.00,-0.0004
1913.00,-0.0004
1912.00,-0.0003
1911.00,-0.0002
1910.00,-0.0002
1909.00,-0.0002
1908.00,-0.0002
1907.00,-0.0003
1906.00,-0.0003
1905.00,-0.0003
1904.00,-0.0004
1903.00,-0.0004
1902.00,-0.0003
1901.00,-0.0002
1900.00,-0.0002
1899.00,-0.0001
1898.00,-0.0002
1897.00,-0.0002
1896.00,-0.0001
1895.00,-0.0001
1894.00,-0.0001
1893.00,-0.0002
1892.00,-0.0002
1891.00,-0.0003
1890.00,-0.0004
1889.00,-0.0004
1888.00,-0.0004
1887.00,-0.0004
1886.00,-0.0003
1885.00,-0.0002
1884.00,-0.0002
1883.00,-0.0001
1882.00,-0.0001
1881.00,-0.0001
1880.00,-0.0001
1879.00,-0.0002
1878.00,-0.0003
1877.00,-0.0003
1876.00,-0.0003
1875.00,-0.0003
1874.00,-0.0003
1873.00,-0.0003
1872.00,-0.0002
1871.00,-0.0001
1870.00,-0.0001
1869.00,-0.0001
1868.00,-0.0001
1867.00,-0.0002
1866.00,-0.0002
1865.00,-0.0002
1864.00,-0.0001
1863.00,0.0000
1862.00,0.0001
1861.00,0.0001
1860.00,0.0001
1859.00,0.0001
1858.00,0.0001
1857.00,0.0000
1856.00,0.0000
1855.00,0.0000
1854.00,0.0000
1853.00,0.0000
1852.00,0.0000
1851.00,-0.0000
1850.00,-0.0001
1849.00,-0.0001
1848.00,-0.0000
1847.00,0.0000
1846.00,0.0000
1845.00,0.0001
1844.00,0.0001
1843.00,0.0001
1842.00,0.0001
1841.00,0.0001
1840.00,0.0002
1839.00,0.0002
1838.00,0.0002
1837.00,0.0002
1836.00,0.0002
1835.00,0.0002
1834.00,0.0002
1833.00,0.0002
1832.00,0.0002
1831.00,0.0002
1830.00,0.0002
1829.00,0.0002
1828.00,0.0003
1827.00,0.0003
1826.00,0.0003
1825.00,0.0002
1824.00,0.0002
1823.00,0.0002
1822.00,0.0002
1821.00,0.0002
1820.00,0.0002
1819.00,0.0000
1818.00,-0.0001
1817.00,-0.0002
1816.00,-0.0002
1815.00,-0.0002
1814.00,-0.0000
1813.00,0.0000
1812.00,0.0001
1811.00,0.0001
1810.00,0.0001
1809.00,0.0001
1808.00,0.0001
1807.00,0.0001
1806.00,0.0001
1805.00,0.0002
1804.00,0.0003
1803.00,0.0003
1802.00,0.0002
1801.00,0.0002
1800.00,0.0002
1799.00,0.0003
1798.00,0.0004
1797.00,0.0004
1796.00,0.0005
1795.00,0.0004
1794.00,0.0004
1793.00,0.0004
1792.00,0.0004
1791.00,0.0005
1790.00,0.0005
1789.00,0.0006
1788.00,0.0006
1787.00,0.0006
1786.00,0.0006
1785.00,0.0006
1784.00,0.0006
1783.00,0.0007
1782.00,0.0007
1781.00,0.0006
1780.00,0.0006
1779.00,0.0006
1778.00,0.0006
1777.00,0.0006
1776.00,0.0006
1775.00,0.0007
1774.00,0.0007
1773.00,0.0007
1772.00,0.0007
1771.00,0.0008
1770.00,0.0008
1769.00,0.0008
1768.00,0.0009
1767.00,0.0009
1766.00,0.0009
1765.00,0.0009
1764.00,0.0009
1763.00,0.0009
1762.00,0.0009
1761.00,0.0010
1760.00,0.0011
1759.00,0.0011
1758.00,0.0012
1757.00,0.0012
1756.00,0.0012
1755.00,0.0012
1754.00,0.0013
1753.00,0.0013
1752.00,0.0013
1751.00,0.0014
1750.00,0.0014
1749.00,0.0014
1748.00,0.0015
1747.00,0.0015
1746.00,0.0015
1745.00,0.0015
1744.00,0.0016
1743.00,0.0016
1742.00,0.0016
1741.00,0.0015
1740.00,0.0015
1739.00,0.0015
1738.00,0.0015
1737.00,0.0015
1736.00,0.0015
1735.00,0.0015
1734.00,0.0015
1733.00,0.0016
1732.00,0.0016
1731.00,0.0016
1730.00,0.0017
1729.00,0.0017
1728.00,0.0018
1727.00,0.0018
1726.00,0.0018
1725.00,0.0018
1724.00,0.0019
1723.00,0.0019
1722.00,0.0019
1721.00,0.0018
1720.00,0.0018
1719.00,0.0018
1718.00,0.0017
1717.00,0.0018
1716.00,0.0018
1715.00,0.0019
1714.00,0.0019
1713.00,0.0019
1712.00,0.0019
1711.00,0.0018
1710.00,0.0017
1709.00,0.0017
1708.00,0.0018
1707.00,0.0018
1706.00,0.0019
1705.00,0.0019
1704.00,0.0019
1703.00,0.0019
1702.00,0.0019
1701.00,0.0020
1700.00,0.0020
1699.00,0.0020
1698.00,0.0020
1697.00,0.0020
1696.00,0.0020
1695.00,0.0021
1694.00,0.0021
1693.00,0.0021
1692.00,0.0020
1691.00,0.0020
1690.00,0.0020
1689.00,0.0021
1688.00,0.0021
1687.00,0.0022
1686.00,0.0021
1685.00,0.0021
1684.00,0.0020
1683.00,0.0021
1682.00,0.0021
1681.00,0.0022
1680.00,0.0022
1679.00,0.0023
1678.00,0.0023
1677.00,0.0023
1676.00,0.0023
1675.00,0.0024
1674.00,0.0024
1673.00,0.0025
1672.00,0.0026
1671.00,0.0026
1670.00,0.0026
1669.00,0.0026
1668.00,0.0026
1667.00,0.0026
1666.00,0.0026
1665.00,0.0026
1664.00,0.0026
1663.00,0.0026
1662.00,0.0026
1661.00,0.0026
1660.00,0.0026
1659.00,0.0027
1658.00,0.0028
1657.00,0.0029
1656.00,0.0030
1655.00,0.0030
1654.00,0.0030
1653.00,0.0030
1652.00,0.0030
1651.00,0.0030
1650.00,0.0030
1649.00,0.0031
1648.00,0.0031
1647.00,0.0032
1646.00,0.0032
1645.00,0.0032
1644.00,0.0032
1643.00,0.0032
1642.00,0.0033
1641.00,0.0033
1640.00,0.0034
1639.00,0.0034
1638.00,0.0034
1637.00,0.0034
1636.00,0.0035
1635.00,0.0035
1634.00,0.0035
1633.00,0.0034
1632.00,0.0034
1631.00,0.0034
1630.00,0.0033
1629.00,0.0033
1628.00,0.0033
1627.00,0.0033
1626.00,0.0032
1625.00,0.0032
1624.00,0.0032
1623.00,0.0031
1622.00,0.0030
1621.00,0.0030
1620.00,0.0030
1619.00,0.0030
1618.00,0.0030
1617.00,0.0030
1616.00,0.0030
1615.00,0.0029
1614.00,0.0029
1613.00,0.0030
1612.00,0.0030
1611.00,0.0030
1610.00,0.0029
1609.00,0.0029
1608.00,0.0029
1607.00,0.0029
1606.00,0.0030
1605.00,0.0030
1604.00,0.0030
1603.00,0.0030
1602.00,0.0029
1601.00,0.0029
1600.00,0.0029
1599.00,0.0029
1598.00,0.0030
1597.00,0.0030
1596.00,0.0030
1595.00,0.0030
1594.00,0.0030
1593.00,0.0030
1592.00,0.0031
1591.00,0.0031
1590.00,0.0031
1589.00,0.0031
1588.00,0.0032
1587.00,0.0032
1586.00,0.0033
1585.00,0.0034
1584.00,0.0035
1583.00,0.0036
1582.00,0.0037
1581.00,0.0038
1580.00,0.0040
1579.00,0.0041
1578.00,0.0042
1577.00,0.0043
1576.00,0.0043
1575.00,0.0043
1574.00,0.0042
1573.00,0.0041
1572.00,0.0041
1571.00,0.0040
1570.00,0.0039
1569.00,0.0038
1568.00,0.0038
1567.00,0.0038
1566.00,0.0038
1565.00,0.0037
1564.00,0.0037
1563.00,0.0037
1562.00,0.0037
1561.00,0.0038
1560.00,0.0039
1559.00,0.0038
1558.00,0.0037
1557.00,0.0037
1556.00,0.0037
1555.00,0.0037
1554.00,0.0037
1553.00,0.0038
1552.00,0.0038
1551.00,0.0039
1550.00,0.0040
1549.00,0.0040
1548.00,0.0041
1547.00,0.0042
1546.00,0.0043
1545.00,0.0044
1544.00,0.0046
1543.00,0.0048
1542.00,0.0049
1541.00,0.0050
1540.00,0.0050
1539.00,0.0049
1538.00,0.0047
1537.00,0.0046
1536.00,0.0045
1535.00,0.0044
1534.00,0.0043
1533.00,0.0043
1532.00,0.0042
1531.00,0.0042
1530.00,0.0041
1529.00,0.0041
1528.00,0.0040
1527.00,0.0040
1526.00,0.0039
1525.00,0.0040
1524.00,0.0040
1523.00,0.0041
1522.00,0.0041
1521.00,0.0042
1520.00,0.0042
1519.00,0.0042
1518.00,0.0042
1517.00,0.0044
1516.00,0.0045
1515.00,0.0046
1514.00,0.0046
1513.00,0.0047
1512.00,0.0048
1511.00,0.0048
1510.00,0.0049
1509.00,0.0050
1508.00,0.0051
1507.00,0.0052
1506.00,0.0053
1505.00,0.0055
1504.00,0.0056
1503.00,0.0057
1502.00,0.0058
1501.00,0.0059
1500.00,0.0062
1499.00,0.0064
1498.00,0.0066
1497.00,0.0069
1496.00,0.0072
1495.00,0.0075
1494.00,0.0077
1493.00,0.0080
1492.00,0.0083
1491.00,0.0086
1490.00,0.0089
1489.00,0.0093
1488.00,0.0099
1487.00,0.0104
1486.00,0.0109
1485.00,0.0115
1484.00,0.0122
1483.00,0.0130
1482.00,0.0138
1481.00,0.0149
1480.00,0.0162
1479.00,0.0175
1478.00,0.0190
1477.00,0.0211
1476.00,0.0237
1475.00,0.0267
1474.00,0.0309
1473.00,0.0368
1472.00,0.0436
1471.00,0.0503
1470.00,0.0567
1469.00,0.0636
1468.00,0.0710
1467.00,0.0791
1466.00,0.0884
1465.00,0.0984
1464.00,0.1070
1463.00,0.1129
1462.00,0.1165
1461.00,0.1188
1460.00,0.1202
1459.00,0.1209
1458.00,0.1211
1457.00,0.1209
1456.00,0.1199
1455.00,0.1185
1454.00,0.1169
1453.00,0.1146
1452.00,0.1115
1451.00,0.1072
1450.00,0.1016
1449.00,0.0941
1448.00,0.0851
1447.00,0.0757
1446.00,0.0673
1445.00,0.0603
1444.00,0.0543
1443.00,0.0494
1442.00,0.0458
1441.00,0.0433
1440.00,0.0419
1439.00,0.0414
1438.00,0.0418
1437.00,0.0422
1436.00,0.0415
1435.00,0.0392
1434.00,0.0356
1433.00,0.0312
1432.00,0.0266
1431.00,0.0226
1430.00,0.0194
1429.00,0.0171
1428.00,0.0155
1427.00,0.0145
1426.00,0.0138
1425.00,0.0131
1424.00,0.0125
1423.00,0.0121
1422.00,0.0119
1421.00,0.0116
1420.00,0.0112
1419.00,0.0109
1418.00,0.0108
1417.00,0.0106
1416.00,0.0103
1415.00,0.0102
1414.00,0.0101
1413.00,0.0099
1412.00,0.0098
1411.00,0.0097
1410.00,0.0097
1409.00,0.0097
1408.00,0.0096
1407.00,0.0096
1406.00,0.0097
1405.00,0.0098
1404.00,0.0098
1403.00,0.0098
1402.00,0.0099
1401.00,0.0100
1400.00,0.0100
1399.00,0.0102
1398.00,0.0104
1397.00,0.0106
1396.00,0.0109
1395.00,0.0113
1394.00,0.0118
1393.00,0.0124
1392.00,0.0130
1391.00,0.0138
1390.00,0.0149
1389.00,0.0163
1388.00,0.0184
1387.00,0.0216
1386.00,0.0259
1385.00,0.0316
1384.00,0.0395
1383.00,0.0508
1382.00,0.0662
1381.00,0.0864
1380.00,0.1117
1379.00,0.1408
1378.00,0.1693
1377.00,0.1905
1376.00,0.1980
1375.00,0.1881
1374.00,0.1638
1373.00,0.1345
1372.00,0.1076
1371.00,0.0855
1370.00,0.0681
1369.00,0.0550
1368.00,0.0460
1367.00,0.0405
1366.00,0.0375
1365.00,0.0363
1364.00,0.0366
1363.00,0.0381
1362.00,0.0403
1361.00,0.0427
1360.00,0.0445
1359.00,0.0451
1358.00,0.0440
1357.00,0.0414
1356.00,0.0377
1355.00,0.0335
1354.00,0.0294
1353.00,0.0259
1352.00,0.0231
1351.00,0.0209
1350.00,0.0190
1349.00,0.0174
1348.00,0.0162
1347.00,0.0151
1346.00,0.0142
1345.00,0.0135
1344.00,0.0129
1343.00,0.0124
1342.00,0.0119
1341.00,0.0116
1340.00,0.0113
1339.00,0.0111
1338.00,0.0110
1337.00,0.0110
1336.00,0.0111
1335.00,0.0113
1334.00,0.0116
1333.00,0.0121
1332.00,0.0125
1331.00,0.0129
1330.00,0.0130
1329.00,0.0129
1328.00,0.0124
1327.00,0.0119
1326.00,0.0113
1325.00,0.0107
1324.00,0.0102
1323.00,0.0097
1322.00,0.0093
1321.00,0.0090
1320.00,0.0088
1319.00,0.0086
1318.00,0.0084
1317.00,0.0082
1316.00,0.0082
1315.00,0.0081
1314.00,0.0081
1313.00,0.0081
1312.00,0.0082
1311.00,0.0083
1310.00,0.0086
1309.00,0.0091
1308.00,0.0098
1307.00,0.0107
1306.00,0.0115
1305.00,0.0121
1304.00,0.0124
1303.00,0.0123
1302.00,0.0120
1301.00,0.0117
1300.00,0.0116
1299.00,0.0117
1298.00,0.0119
1297.00,0.0120
1296.00,0.0120
1295.00,0.0118
1294.00,0.0115
1293.00,0.0110
1292.00,0.0105
1291.00,0.0100
1290.00,0.0095
1289.00,0.0091
1288.00,0.0087
1287.00,0.0084
1286.00,0.0082
1285.00,0.0080
1284.00,0.0078
1283.00,0.0076
1282.00,0.0075
1281.00,0.0074
1280.00,0.0073
1279.00,0.0073
1278.00,0.0072
1277.00,0.0071
1276.00,0.0071
1275.00,0.0070
1274.00,0.0070
1273.00,0.0071
1272.00,0.0072
1271.00,0.0073
1270.00,0.0074
1269.00,0.0075
1268.00,0.0075
1267.00,0.0076
1266.00,0.0078
1265.00,0.0080
1264.00,0.0082
1263.00,0.0084
1262.00,0.0087
1261.00,0.0090
1260.00,0.0094
1259.00,0.0099
1258.00,0.0105
1257.00,0.0109
1256.00,0.0111
1255.00,0.0109
1254.00,0.0105
1253.00,0.0098
1252.00,0.0092
1251.00,0.0087
1250.00,0.0083
1249.00,0.0080
1248.00,0.0077
1247.00,0.0075
1246.00,0.0074
1245.00,0.0072
1244.00,0.0071
1243.00,0.0070
1242.00,0.0069
1241.00,0.0068
1240.00,0.0067
1239.00,0.0067
1238.00,0.0067
1237.00,0.0067
1236.00,0.0068
1235.00,0.0068
1234.00,0.0068
1233.00,0.0069
1232.00,0.0069
1231.00,0.0070
1230.00,0.0071
1229.00,0.0072
1228.00,0.0073
1227.00,0.0075
1226.00,0.0077
1225.00,0.0080
1224.00,0.0084
1223.00,0.0087
1222.00,0.0091
1221.00,0.0093
1220.00,0.0095
1219.00,0.0095
1218.00,0.0093
1217.00,0.0091
1216.00,0.0088
1215.00,0.0085
1214.00,0.0083
1213.00,0.0080
1212.00,0.0078
1211.00,0.0076
1210.00,0.0075
1209.00,0.0073
1208.00,0.0071
1207.00,0.0070
1206.00,0.0069
1205.00,0.0069
1204.00,0.0069
1203.00,0.0069
1202.00,0.0069
1201.00,0.0068
1200.00,0.0068
1199.00,0.0069
1198.00,0.0069
1197.00,0.0068
1196.00,0.0068
1195.00,0.0068
1194.00,0.0068
1193.00,0.0068
1192.00,0.0069
1191.00,0.0069
1190.00,0.0069
1189.00,0.0068
1188.00,0.0068
1187.00,0.0067
1186.00,0.0067
1185.00,0.0067
1184.00,0.0068
1183.00,0.0069
1182.00,0.0071
1181.00,0.0073
1180.00,0.0076
1179.00,0.0080
1178.00,0.0085
1177.00,0.0091
1176.00,0.0100
1175.00,0.0112
1174.00,0.0127
1173.00,0.0147
1172.00,0.0169
1171.00,0.0194
1170.00,0.0219
1169.00,0.0239
1168.00,0.0251
1167.00,0.0254
1166.00,0.0248
1165.00,0.0238
1164.00,0.0226
1163.00,0.0214
1162.00,0.0204
1161.00,0.0196
1160.00,0.0190
1159.00,0.0185
1158.00,0.0182
1157.00,0.0180
1156.00,0.0179
1155.00,0.0178
1154.00,0.0178
1153.00,0.0176
1152.00,0.0172
1151.00,0.0167
1150.00,0.0159
1149.00,0.0149
1148.00,0.0139
1147.00,0.0130
1146.00,0.0121
1145.00,0.0113
1144.00,0.0106
1143.00,0.0099
1142.00,0.0093
1141.00,0.0088
1140.00,0.0083
1139.00,0.0079
1138.00,0.0075
1137.00,0.0072
1136.00,0.0069
1135.00,0.0067
1134.00,0.0066
1133.00,0.0064
1132.00,0.0063
1131.00,0.0063
1130.00,0.0062
1129.00,0.0061
1128.00,0.0061
1127.00,0.0062
1126.00,0.0063
1125.00,0.0064
1124.00,0.0064
1123.00,0.0064
1122.00,0.0064
1121.00,0.0065
1120.00,0.0065
1119.00,0.0066
1118.00,0.0066
1117.00,0.0067
1116.00,0.0068
1115.00,0.0070
1114.00,0.0071
1113.00,0.0073
1112.00,0.0075
1111.00,0.0078
1110.00,0.0081
1109.00,0.0085
1108.00,0.0090
1107.00,0.0097
1106.00,0.0104
1105.00,0.0110
1104.00,0.0115
1103.00,0.0117
1102.00,0.0116
1101.00,0.0112
1100.00,0.0106
1099.00,0.0099
1098.00,0.0094
1097.00,0.0089
1096.00,0.0084
1095.00,0.0080
1094.00,0.0077
1093.00,0.0074
1092.00,0.0072
1091.00,0.0070
1090.00,0.0069
1089.00,0.0068
1088.00,0.0067
1087.00,0.0067
1086.00,0.0066
1085.00,0.0066
1084.00,0.0066
1083.00,0.0066
1082.00,0.0067
1081.00,0.0066
1080.00,0.0066
1079.00,0.0065
1078.00,0.0064
1077.00,0.0063
1076.00,0.0062
1075.00,0.0061
1074.00,0.0060
1073.00,0.0060
1072.00,0.0059
1071.00,0.0059
1070.00,0.0059
1069.00,0.0058
1068.00,0.0057
1067.00,0.0056
1066.00,0.0057
1065.00,0.0058
1064.00,0.0059
1063.00,0.0060
1062.00,0.0061
1061.00,0.0061
1060.00,0.0061
1059.00,0.0061
1058.00,0.0061
1057.00,0.0061
1056.00,0.0062
1055.00,0.0063
1054.00,0.0064
1053.00,0.0065
1052.00,0.0067
1051.00,0.0068
1050.00,0.0069
1049.00,0.0070
1048.00,0.0072
1047.00,0.0074
1046.00,0.0075
1045.00,0.0077
1044.00,0.0077
1043.00,0.0076
1042.00,0.0075
1041.00,0.0074
1040.00,0.0073
1039.00,0.0072
1038.00,0.0072
1037.00,0.0073
1036.00,0.0073
1035.00,0.0073
1034.00,0.0072
1033.00,0.0071
1032.00,0.0069
1031.00,0.0068
1030.00,0.0066
1029.00,0.0066
1028.00,0.0066
1027.00,0.0066
1026.00,0.0067
1025.00,0.0068
1024.00,0.0068
1023.00,0.0068
1022.00,0.0068
1021.00,0.0068
1020.00,0.0069
1019.00,0.0070
1018.00,0.0072
1017.00,0.0073
1016.00,0.0075
1015.00,0.0076
1014.00,0.0077
1013.00,0.0078
1012.00,0.0080
1011.00,0.0082
1010.00,0.0086
1009.00,0.0090
1008.00,0.0094
1007.00,0.0098
1006.00,0.0104
1005.00,0.0113
1004.00,0.0125
1003.00,0.0143
1002.00,0.0167
1001.00,0.0195
1000.00,0.0225
999.00,0.0250
998.00,0.0261
997.00,0.0255
996.00,0.0234
995.00,0.0204
994.00,0.0174
993.00,0.0149
992.00,0.0130
991.00,0.0116
990.00,0.0105
989.00,0.0098
988.00,0.0093
987.00,0.0091
986.00,0.0091
985.00,0.0093
984.00,0.0097
983.00,0.0104
982.00,0.0114
981.00,0.0129
980.00,0.0148
979.00,0.0174
978.00,0.0206
977.00,0.0242
976.00,0.0279
975.00,0.0313
974.00,0.0335
973.00,0.0340
972.00,0.0325
971.00,0.0293
970.00,0.0252
969.00,0.0212
968.00,0.0178
967.00,0.0151
966.00,0.0131
965.00,0.0117
964.00,0.0108
963.00,0.0101
962.00,0.0096
961.00,0.0092
960.00,0.0088
959.00,0.0084
958.00,0.0082
957.00,0.0079
956.00,0.0077
955.00,0.0075
954.00,0.0074
953.00,0.0072
952.00,0.0070
951.00,0.0069
950.00,0.0068
949.00,0.0068
948.00,0.0068
947.00,0.0069
946.00,0.0072
945.00,0.0075
944.00,0.0078
943.00,0.0082
942.00,0.0086
941.00,0.0088
940.00,0.0089
939.00,0.0087
938.00,0.0083
937.00,0.0077
936.00,0.0072
935.00,0.0066
934.00,0.0062
933.00,0.0059
932.00,0.0056
931.00,0.0056
930.00,0.0056
929.00,0.0056
928.00,0.0056
927.00,0.0056
926.00,0.0055
925.00,0.0055
924.00,0.0055
923.00,0.0055
922.00,0.0056
921.00,0.0055
920.00,0.0055
919.00,0.0055
918.00,0.0056
917.00,0.0057
916.00,0.0059
915.00,0.0060
914.00,0.0060
913.00,0.0061
912.00,0.0062
911.00,0.0063
910.00,0.0066
909.00,0.0069
908.00,0.0073
907.00,0.0079
906.00,0.0086
905.00,0.0096
904.00,0.0109
903.00,0.0127
902.00,0.0147
901.00,0.0166
900.00,0.0179
899.00,0.0182
898.00,0.0174
897.00,0.0158
896.00,0.0139
895.00,0.0120
894.00,0.0105
893.00,0.0093
892.00,0.0084
891.00,0.0077
890.00,0.0073
889.00,0.0070
888.00,0.0068
887.00,0.0067
886.00,0.0067
885.00,0.0067
884.00,0.0067
883.00,0.0066
882.00,0.0065
881.00,0.0064
880.00,0.0064
879.00,0.0065
878.00,0.0065
877.00,0.0066
876.00,0.0067
875.00,0.0067
874.00,0.0067
873.00,0.0067
872.00,0.0068
871.00,0.0068
870.00,0.0070
869.00,0.0071
868.00,0.0072
867.00,0.0072
866.00,0.0071
865.00,0.0071
864.00,0.0071
863.00,0.0071
862.00,0.0073
861.00,0.0075
860.00,0.0077
859.00,0.0079
858.00,0.0080
857.00,0.0082
856.00,0.0084
855.00,0.0086
854.00,0.0087
853.00,0.0088
852.00,0.0089
851.00,0.0091
850.00,0.0094
849.00,0.0098
848.00,0.0104
847.00,0.0114
846.00,0.0128
845.00,0.0150
844.00,0.0183
843.00,0.0221
842.00,0.0252
841.00,0.0262
840.00,0.0244
839.00,0.0209
838.00,0.0172
837.00,0.0143
836.00,0.0125
835.00,0.0113
834.00,0.0106
833.00,0.0101
832.00,0.0098
831.00,0.0096
830.00,0.0094
829.00,0.0093
828.00,0.0092
827.00,0.0092
826.00,0.0092
825.00,0.0093
824.00,0.0094
823.00,0.0094
822.00,0.0095
821.00,0.0095
820.00,0.0097
819.00,0.0100
818.00,0.0105
817.00,0.0112
816.00,0.0121
815.00,0.0133
814.00,0.0149
813.00,0.0169
812.00,0.0191
811.00,0.0210
810.00,0.0223
809.00,0.0228
808.00,0.0223
807.00,0.0210
806.00,0.0193
805.00,0.0174
804.00,0.0156
803.00,0.0140
802.00,0.0128
801.00,0.0119
800.00,0.0112
799.00,0.0106
798.00,0.0102
797.00,0.0098
796.00,0.0094
795.00,0.0090
794.00,0.0086
793.00,0.0083
792.00,0.0082
791.00,0.0082
790.00,0.0081
789.00,0.0080
788.00,0.0077
787.00,0.0073
786.00,0.0069
785.00,0.0066
784.00,0.0063
783.00,0.0062
782.00,0.0061
781.00,0.0060
780.00,0.0058
779.00,0.0058
778.00,0.0058
777.00,0.0058
776.00,0.0059
775.00,0.0060
774.00,0.0060
773.00,0.0061
772.00,0.0062
771.00,0.0063
770.00,0.0063
769.00,0.0063
768.00,0.0062
767.00,0.0061
766.00,0.0061
765.00,0.0062
764.00,0.0062
763.00,0.0062
762.00,0.0062
761.00,0.0062
760.00,0.0062
759.00,0.0062
758.00,0.0062
757.00,0.0062
756.00,0.0063
755.00,0.0064
754.00,0.0065
753.00,0.0067
752.00,0.0069
751.00,0.0071
750.00,0.0072
749.00,0.0073
748.00,0.0073
747.00,0.0075
746.00,0.0077
745.00,0.0079
744.00,0.0080
743.00,0.0081
742.00,0.0084
741.00,0.0087
740.00,0.0090
739.00,0.0092
738.00,0.0095
737.00,0.0097
736.00,0.0101
735.00,0.0105
734.00,0.0111
733.00,0.0118
732.00,0.0125
731.00,0.0133
730.00,0.0140
729.00,0.0144
728.00,0.0145
727.00,0.0145
726.00,0.0146
725.00,0.0149
724.00,0.0155
723.00,0.0164
722.00,0.0173
721.00,0.0179
720.00,0.0178
719.00,0.0169
718.00,0.0155
717.00,0.0139
716.00,0.0126
715.00,0.0117
714.00,0.0112
713.00,0.0108
712.00,0.0104
711.00,0.0101
710.00,0.0099
709.00,0.0097
708.00,0.0095
707.00,0.0093
706.00,0.0090
705.00,0.0088
704.00,0.0087
703.00,0.0086
702.00,0.0085
701.00,0.0084
700.00,0.0082
699.00,0.0081
698.00,0.0081
697.00,0.0081
696.00,0.0083
695.00,0.0084
694.00,0.0085
693.00,0.0086
692.00,0.0086
691.00,0.0085
690.00,0.0083
689.00,0.0081
688.00,0.0079
687.00,0.0079
686.00,0.0079
685.00,0.0080
684.00,0.0080
683.00,0.0079
682.00,0.0079
681.00,0.0080
680.00,0.0081
679.00,0.0081
678.00,0.0080
677.00,0.0080
676.00,0.0080
675.00,0.0080
674.00,0.0081
673.00,0.0081
672.00,0.0081
671.00,0.0079
670.00,0.0077
669.00,0.0076
668.00,0.0076
667.00,0.0078
666.00,0.0078
665.00,0.0076
664.00,0.0076
663.00,0.0076
662.00,0.0078
661.00,0.0078
660.00,0.0078
659.00,0.0076
658.00,0.0075
657.00,0.0074
656.00,0.0072
655.00,0.0072
654.00,0.0074
653.00,0.0076
652.00,0.0078
651.00,0.0078
650.00,0.0076
649.00,0.0074
648.00,0.0073
647.00,0.0074
646.00,0.0076
645.00,0.0077
644.00,0.0077
643.00,0.0077
642.00,0.0076
641.00,0.0076
640.00,0.0077
639.00,0.0079
638.00,0.0081
637.00,0.0082
636.00,0.0082
635.00,0.0081
634.00,0.0079
633.00,0.0077
632.00,0.0076
631.00,0.0075
630.00,0.0076
629.00,0.0078
628.00,0.0081
627.00,0.0081
626.00,0.0080
625.00,0.0078
624.00,0.0076
623.00,0.0076
622.00,0.0074
621.00,0.0072
620.00,0.0068
619.00,0.0066
618.00,0.0064
617.00,0.0065
616.00,0.0066
615.00,0.0068
614.00,0.0069
613.00,0.0067
612.00,0.0065
611.00,0.0063
610.00,0.0063
609.00,0.0064
608.00,0.0064
607.00,0.0064
606.00,0.0065
605.00,0.0066
604.00,0.0067
603.00,0.0065
602.00,0.0063
601.00,0.0060
600.00,0.0059
599.00,0.0060
598.00,0.0060
597.00,0.0061
596.00,0.0064
595.00,0.0066
594.00,0.0069
593.00,0.0069
592.00,0.0069
591.00,0.0068
590.00,0.0066
589.00,0.0062
588.00,0.0060
587.00,0.0059
586.00,0.0061
585.00,0.0063
584.00,0.0067
583.00,0.0070
582.00,0.0072
581.00,0.0071
580.00,0.0069
579.00,0.0065
578.00,0.0063
577.00,0.0062
576.00,0.0065
575.00,0.0069
574.00,0.0072
573.00,0.0073
572.00,0.0073
571.00,0.0073
570.00,0.0076
569.00,0.0078
568.00,0.0078
567.00,0.0076
566.00,0.0071
565.00,0.0067
564.00,0.0064
563.00,0.0063
562.00,0.0064
561.00,0.0066
560.00,0.0068
559.00,0.0070
558.00,0.0071
557.00,0.0072
556.00,0.0073
555.00,0.0074
554.00,0.0073
553.00,0.0070
552.00,0.0067
551.00,0.0066
550.00,0.0068
549.00,0.0072
548.00,0.0075
547.00,0.0077
546.00,0.0077
545.00,0.0075
544.00,0.0073
543.00,0.0073
542.00,0.0076
541.00,0.0079
540.00,0.0080
539.00,0.0080
538.00,0.0079
537.00,0.0081
536.00,0.0085
535.00,0.0088
534.00,0.0090
533.00,0.0089
532.00,0.0086
531.00,0.0083
530.00,0.0082
529.00,0.0084
528.00,0.0088
527.00,0.0090
526.00,0.0090
525.00,0.0087
524.00,0.0083
523.00,0.0081
522.00,0.0082
521.00,0.0086
520.00,0.0087
519.00,0.0084
518.00,0.0077
517.00,0.0071
516.00,0.0070
515.00,0.0071
514.00,0.0070
513.00,0.0067
512.00,0.0064
511.00,0.0062
510.00,0.0064
509.00,0.0068
508.00,0.0072
507.00,0.0075
506.00,0.0074
505.00,0.0069
504.00,0.0065
503.00,0.0063
502.00,0.0065
501.00,0.0070
500.00,0.0073
499.00,0.0071
498.00,0.0067
497.00,0.0064
496.00,0.0064
495.00,0.0068
494.00,0.0071
493.00,0.0073
492.00,0.0074
491.00,0.0073
490.00,0.0071
489.00,0.0067
488.00,0.0061
487.00,0.0055
486.00,0.0050
485.00,0.0049
484.00,0.0051
483.00,0.0054
482.00,0.0055
481.00,0.0059
480.00,0.0067
479.00,0.0075
478.00,0.0079
477.00,0.0075
476.00,0.0068
475.00,0.0061
474.00,0.0057
473.00,0.0059
472.00,0.0071
471.00,0.0087
470.00,0.0097
469.00,0.0097
468.00,0.0092
467.00,0.0090
466.00,0.0097
465.00,0.0111
464.00,0.0129
463.00,0.0147
462.00,0.0162
461.00,0.0170
460.00,0.0174
459.00,0.0173
458.00,0.0170
457.00,0.0166
456.00,0.0162
455.00,0.0160
454.00,0.0155
453.00,0.0142
452.00,0.0123
451.00,0.0103
450.00,0.0090
