Created as New Dataset,Sample 113 By Administrator Date Wednesday, September 03 2025
cm-1,A
4000.00,0.0011
3999.00,0.0011
3998.00,0.0011
3997.00,0.0011
3996.00,0.0011
3995.00,0.0011
3994.00,0.0011
3993.00,0.0011
3992.00,0.0011
3991.00,0.0011
3990.00,0.0011
3989.00,0.0011
3988.00,0.0011
3987.00,0.0011
3986.00,0.0011
3985.00,0.0010
3984.00,0.0010
3983.00,0.0010
3982.00,0.0009
3981.00,0.0010
3980.00,0.0010
3979.00,0.0009
3978.00,0.0009
3977.00,0.0009
3976.00,0.0009
3975.00,0.0009
3974.00,0.0009
3973.00,0.0009
3972.00,0.0009
3971.00,0.0009
3970.00,0.0009
3969.00,0.0009
3968.00,0.0009
3967.00,0.0009
3966.00,0.0009
3965.00,0.0009
3964.00,0.0009
3963.00,0.0009
3962.00,0.0009
3961.00,0.0009
3960.00,0.0009
3959.00,0.0009
3958.00,0.0009
3957.00,0.0009
3956.00,0.0009
3955.00,0.0009
3954.00,0.0009
3953.00,0.0009
3952.00,0.0009
3951.00,0.0009
3950.00,0.0009
3949.00,0.0009
3948.00,0.0009
3947.00,0.0009
3946.00,0.0009
3945.00,0.0009
3944.00,0.0009
3943.00,0.0009
3942.00,0.0009
3941.00,0.0010
3940.00,0.0010
3939.00,0.0010
3938.00,0.0010
3937.00,0.0010
3936.00,0.0010
3935.00,0.0010
3934.00,0.0010
3933.00,0.0010
3932.00,0.0010
3931.00,0.0010
3930.00,0.0010
3929.00,0.0010
3928.00,0.0010
3927.00,0.0011
3926.00,0.0011
3925.00,0.0011
3924.00,0.0011
3923.00,0.0010
3922.00,0.0010
3921.00,0.0010
3920.00,0.0010
3919.00,0.0010
3918.00,0.0010
3917.00,0.0010
3916.00,0.0010
3915.00,0.0009
3914.00,0.0009
3913.00,0.0009
3912.00,0.0008
3911.00,0.0008
3910.00,0.0009
3909.00,0.0009
3908.00,0.0009
3907.00,0.0009
3906.00,0.0009
3905.00,0.0009
3904.00,0.0009
3903.00,0.0009
3902.00,0.0009
3901.00,0.0009
3900.00,0.0009
3899.00,0.0009
3898.00,0.0009
3897.00,0.0009
3896.00,0.0009
3895.00,0.0009
3894.00,0.0009
3893.00,0.0009
3892.00,0.0009
3891.00,0.0009
3890.00,0.0009
3889.00,0.0008
3888.00,0.0008
3887.00,0.0009
3886.00,0.0009
3885.00,0.0009
3884.00,0.0010
3883.00,0.0010
3882.00,0.0010
3881.00,0.0009
3880.00,0.0009
3879.00,0.0009
3878.00,0.0009
3877.00,0.0009
3876.00,0.0009
3875.00,0.0009
3874.00,0.0009
3873.00,0.0008
3872.00,0.0008
3871.00,0.0008
3870.00,0.0008
3869.00,0.0008
3868.00,0.0008
3867.00,0.0008
3866.00,0.0008
3865.00,0.0008
3864.00,0.0008
3863.00,0.0008
3862.00,0.0008
3861.00,0.0008
3860.00,0.0008
3859.00,0.0009
3858.00,0.0009
3857.00,0.0009
3856.00,0.0009
3855.00,0.0009
3854.00,0.0008
3853.00,0.0008
3852.00,0.0007
3851.00,0.0007
3850.00,0.0007
3849.00,0.0007
3848.00,0.0007
3847.00,0.0007
3846.00,0.0007
3845.00,0.0007
3844.00,0.0007
3843.00,0.0007
3842.00,0.0006
3841.00,0.0006
3840.00,0.0006
3839.00,0.0006
3838.00,0.0006
3837.00,0.0006
3836.00,0.0007
3835.00,0.0007
3834.00,0.0007
3833.00,0.0008
3832.00,0.0008
3831.00,0.0008
3830.00,0.0008
3829.00,0.0008
3828.00,0.0008
3827.00,0.0008
3826.00,0.0008
3825.00,0.0008
3824.00,0.0007
3823.00,0.0007
3822.00,0.0006
3821.00,0.0006
3820.00,0.0007
3819.00,0.0007
3818.00,0.0008
3817.00,0.0008
3816.00,0.0008
3815.00,0.0008
3814.00,0.0008
3813.00,0.0008
3812.00,0.0008
3811.00,0.0008
3810.00,0.0008
3809.00,0.0008
3808.00,0.0008
3807.00,0.0008
3806.00,0.0008
3805.00,0.0007
3804.00,0.0007
3803.00,0.0007
3802.00,0.0007
3801.00,0.0007
3800.00,0.0008
3799.00,0.0008
3798.00,0.0008
3797.00,0.0009
3796.00,0.0009
3795.00,0.0008
3794.00,0.0008
3793.00,0.0008
3792.00,0.0008
3791.00,0.0008
3790.00,0.0008
3789.00,0.0008
3788.00,0.0008
3787.00,0.0008
3786.00,0.0008
3785.00,0.0008
3784.00,0.0009
3783.00,0.0009
3782.00,0.0009
3781.00,0.0008
3780.00,0.0008
3779.00,0.0008
3778.00,0.0008
3777.00,0.0007
3776.00,0.0008
3775.00,0.0008
3774.00,0.0008
3773.00,0.0008
3772.00,0.0008
3771.00,0.0008
3770.00,0.0007
3769.00,0.0008
3768.00,0.0008
3767.00,0.0009
3766.00,0.0009
3765.00,0.0010
3764.00,0.0010
3763.00,0.0010
3762.00,0.0009
3761.00,0.0009
3760.00,0.0008
3759.00,0.0008
3758.00,0.0008
3757.00,0.0008
3756.00,0.0008
3755.00,0.0008
3754.00,0.0007
3753.00,0.0007
3752.00,0.0006
3751.00,0.0006
3750.00,0.0006
3749.00,0.0006
3748.00,0.0007
3747.00,0.0007
3746.00,0.0007
3745.00,0.0007
3744.00,0.0008
3743.00,0.0008
3742.00,0.0008
3741.00,0.0007
3740.00,0.0007
3739.00,0.0007
3738.00,0.0007
3737.00,0.0007
3736.00,0.0006
3735.00,0.0006
3734.00,0.0006
3733.00,0.0006
3732.00,0.0007
3731.00,0.0007
3730.00,0.0007
3729.00,0.0007
3728.00,0.0007
3727.00,0.0007
3726.00,0.0007
3725.00,0.0007
3724.00,0.0007
3723.00,0.0007
3722.00,0.0007
3721.00,0.0007
3720.00,0.0007
3719.00,0.0007
3718.00,0.0007
3717.00,0.0007
3716.00,0.0006
3715.00,0.0006
3714.00,0.0006
3713.00,0.0006
3712.00,0.0006
3711.00,0.0007
3710.00,0.0007
3709.00,0.0007
3708.00,0.0007
3707.00,0.0006
3706.00,0.0006
3705.00,0.0006
3704.00,0.0006
3703.00,0.0007
3702.00,0.0007
3701.00,0.0007
3700.00,0.0007
3699.00,0.0007
3698.00,0.0007
3697.00,0.0007
3696.00,0.0007
3695.00,0.0006
3694.00,0.0006
3693.00,0.0006
3692.00,0.0006
3691.00,0.0006
3690.00,0.0006
3689.00,0.0006
3688.00,0.0006
3687.00,0.0006
3686.00,0.0007
3685.00,0.0007
3684.00,0.0007
3683.00,0.0007
3682.00,0.0007
3681.00,0.0007
3680.00,0.0007
3679.00,0.0008
3678.00,0.0008
3677.00,0.0008
3676.00,0.0008
3675.00,0.0007
3674.00,0.0007
3673.00,0.0007
3672.00,0.0007
3671.00,0.0007
3670.00,0.0007
3669.00,0.0008
3668.00,0.0008
3667.00,0.0009
3666.00,0.0009
3665.00,0.0009
3664.00,0.0008
3663.00,0.0008
3662.00,0.0008
3661.00,0.0008
3660.00,0.0008
3659.00,0.0008
3658.00,0.0008
3657.00,0.0008
3656.00,0.0008
3655.00,0.0008
3654.00,0.0008
3653.00,0.0008
3652.00,0.0007
3651.00,0.0007
3650.00,0.0006
3649.00,0.0006
3648.00,0.0007
3647.00,0.0007
3646.00,0.0008
3645.00,0.0008
3644.00,0.0008
3643.00,0.0008
3642.00,0.0008
3641.00,0.0008
3640.00,0.0008
3639.00,0.0008
3638.00,0.0009
3637.00,0.0009
3636.00,0.0009
3635.00,0.0009
3634.00,0.0009
3633.00,0.0008
3632.00,0.0008
3631.00,0.0008
3630.00,0.0008
3629.00,0.0008
3628.00,0.0007
3627.00,0.0007
3626.00,0.0007
3625.00,0.0008
3624.00,0.0008
3623.00,0.0008
3622.00,0.0007
3621.00,0.0007
3620.00,0.0006
3619.00,0.0007
3618.00,0.0007
3617.00,0.0007
3616.00,0.0007
3615.00,0.0007
3614.00,0.0007
3613.00,0.0007
3612.00,0.0008
3611.00,0.0008
3610.00,0.0008
3609.00,0.0009
3608.00,0.0009
3607.00,0.0009
3606.00,0.0008
3605.00,0.0008
3604.00,0.0009
3603.00,0.0009
3602.00,0.0009
3601.00,0.0009
3600.00,0.0009
3599.00,0.0008
3598.00,0.0008
3597.00,0.0008
3596.00,0.0008
3595.00,0.0008
3594.00,0.0008
3593.00,0.0009
3592.00,0.0009
3591.00,0.0010
3590.00,0.0010
3589.00,0.0010
3588.00,0.0010
3587.00,0.0009
3586.00,0.0009
3585.00,0.0009
3584.00,0.0009
3583.00,0.0009
3582.00,0.0009
3581.00,0.0009
3580.00,0.0009
3579.00,0.0010
3578.00,0.0010
3577.00,0.0011
3576.00,0.0011
3575.00,0.0011
3574.00,0.0011
3573.00,0.0011
3572.00,0.0011
3571.00,0.0011
3570.00,0.0012
3569.00,0.0012
3568.00,0.0013
3567.00,0.0013
3566.00,0.0013
3565.00,0.0012
3564.00,0.0012
3563.00,0.0012
3562.00,0.0012
3561.00,0.0012
3560.00,0.0012
3559.00,0.0012
3558.00,0.0012
3557.00,0.0012
3556.00,0.0013
3555.00,0.0013
3554.00,0.0014
3553.00,0.0014
3552.00,0.0014
3551.00,0.0014
3550.00,0.0014
3549.00,0.0014
3548.00,0.0015
3547.00,0.0015
3546.00,0.0015
3545.00,0.0015
3544.00,0.0015
3543.00,0.0015
3542.00,0.0015
3541.00,0.0015
3540.00,0.0015
3539.00,0.0015
3538.00,0.0015
3537.00,0.0015
3536.00,0.0015
3535.00,0.0015
3534.00,0.0015
3533.00,0.0015
3532.00,0.0015
3531.00,0.0015
3530.00,0.0016
3529.00,0.0016
3528.00,0.0016
3527.00,0.0016
3526.00,0.0016
3525.00,0.0016
3524.00,0.0017
3523.00,0.0017
3522.00,0.0017
3521.00,0.0017
3520.00,0.0018
3519.00,0.0018
3518.00,0.0018
3517.00,0.0018
3516.00,0.0018
3515.00,0.0018
3514.00,0.0017
3513.00,0.0017
3512.00,0.0017
3511.00,0.0017
3510.00,0.0017
3509.00,0.0018
3508.00,0.0018
3507.00,0.0018
3506.00,0.0018
3505.00,0.0018
3504.00,0.0018
3503.00,0.0018
3502.00,0.0018
3501.00,0.0019
3500.00,0.0020
3499.00,0.0020
3498.00,0.0020
3497.00,0.0020
3496.00,0.0019
3495.00,0.0019
3494.00,0.0019
3493.00,0.0019
3492.00,0.0019
3491.00,0.0019
3490.00,0.0020
3489.00,0.0020
3488.00,0.0021
3487.00,0.0021
3486.00,0.0021
3485.00,0.0020
3484.00,0.0020
3483.00,0.0021
3482.00,0.0021
3481.00,0.0021
3480.00,0.0022
3479.00,0.0021
3478.00,0.0021
3477.00,0.0021
3476.00,0.0021
3475.00,0.0022
3474.00,0.0022
3473.00,0.0022
3472.00,0.0022
3471.00,0.0022
3470.00,0.0022
3469.00,0.0022
3468.00,0.0022
3467.00,0.0022
3466.00,0.0022
3465.00,0.0023
3464.00,0.0023
3463.00,0.0023
3462.00,0.0023
3461.00,0.0023
3460.00,0.0024
3459.00,0.0024
3458.00,0.0024
3457.00,0.0024
3456.00,0.0024
3455.00,0.0024
3454.00,0.0024
3453.00,0.0024
3452.00,0.0024
3451.00,0.0024
3450.00,0.0024
3449.00,0.0025
3448.00,0.0025
3447.00,0.0025
3446.00,0.0025
3445.00,0.0025
3444.00,0.0025
3443.00,0.0025
3442.00,0.0026
3441.00,0.0026
3440.00,0.0026
3439.00,0.0026
3438.00,0.0027
3437.00,0.0027
3436.00,0.0027
3435.00,0.0027
3434.00,0.0027
3433.00,0.0027
3432.00,0.0027
3431.00,0.0026
3430.00,0.0026
3429.00,0.0027
3428.00,0.0027
3427.00,0.0027
3426.00,0.0028
3425.00,0.0029
3424.00,0.0029
3423.00,0.0029
3422.00,0.0029
3421.00,0.0028
3420.00,0.0028
3419.00,0.0028
3418.00,0.0029
3417.00,0.0029
3416.00,0.0029
3415.00,0.0029
3414.00,0.0029
3413.00,0.0029
3412.00,0.0029
3411.00,0.0029
3410.00,0.0029
3409.00,0.0029
3408.00,0.0030
3407.00,0.0030
3406.00,0.0030
3405.00,0.0031
3404.00,0.0031
3403.00,0.0031
3402.00,0.0031
3401.00,0.0031
3400.00,0.0031
3399.00,0.0031
3398.00,0.0031
3397.00,0.0031
3396.00,0.0031
3395.00,0.0031
3394.00,0.0031
3393.00,0.0031
3392.00,0.0031
3391.00,0.0032
3390.00,0.0032
3389.00,0.0032
3388.00,0.0032
3387.00,0.0032
3386.00,0.0031
3385.00,0.0031
3384.00,0.0030
3383.00,0.0030
3382.00,0.0030
3381.00,0.0030
3380.00,0.0031
3379.00,0.0031
3378.00,0.0031
3377.00,0.0031
3376.00,0.0032
3375.00,0.0032
3374.00,0.0032
3373.00,0.0032
3372.00,0.0032
3371.00,0.0032
3370.00,0.0032
3369.00,0.0031
3368.00,0.0031
3367.00,0.0031
3366.00,0.0031
3365.00,0.0031
3364.00,0.0031
3363.00,0.0031
3362.00,0.0030
3361.00,0.0030
3360.00,0.0031
3359.00,0.0031
3358.00,0.0032
3357.00,0.0032
3356.00,0.0033
3355.00,0.0033
3354.00,0.0033
3353.00,0.0034
3352.00,0.0034
3351.00,0.0033
3350.00,0.0033
3349.00,0.0033
3348.00,0.0033
3347.00,0.0033
3346.00,0.0033
3345.00,0.0033
3344.00,0.0033
3343.00,0.0033
3342.00,0.0033
3341.00,0.0033
3340.00,0.0033
3339.00,0.0033
3338.00,0.0033
3337.00,0.0033
3336.00,0.0032
3335.00,0.0032
3334.00,0.0032
3333.00,0.0032
3332.00,0.0032
3331.00,0.0032
3330.00,0.0032
3329.00,0.0032
3328.00,0.0032
3327.00,0.0032
3326.00,0.0032
3325.00,0.0032
3324.00,0.0032
3323.00,0.0032
3322.00,0.0032
3321.00,0.0032
3320.00,0.0032
3319.00,0.0032
3318.00,0.0032
3317.00,0.0032
3316.00,0.0032
3315.00,0.0032
3314.00,0.0033
3313.00,0.0033
3312.00,0.0032
3311.00,0.0032
3310.00,0.0032
3309.00,0.0032
3308.00,0.0033
3307.00,0.0033
3306.00,0.0033
3305.00,0.0033
3304.00,0.0033
3303.00,0.0033
3302.00,0.0033
3301.00,0.0033
3300.00,0.0033
3299.00,0.0033
3298.00,0.0033
3297.00,0.0033
3296.00,0.0033
3295.00,0.0033
3294.00,0.0033
3293.00,0.0033
3292.00,0.0033
3291.00,0.0033
3290.00,0.0032
3289.00,0.0032
3288.00,0.0032
3287.00,0.0032
3286.00,0.0032
3285.00,0.0032
3284.00,0.0032
3283.00,0.0032
3282.00,0.0032
3281.00,0.0032
3280.00,0.0032
3279.00,0.0031
3278.00,0.0031
3277.00,0.0031
3276.00,0.0031
3275.00,0.0031
3274.00,0.0031
3273.00,0.0031
3272.00,0.0031
3271.00,0.0030
3270.00,0.0030
3269.00,0.0031
3268.00,0.0031
3267.00,0.0031
3266.00,0.0031
3265.00,0.0031
3264.00,0.0031
3263.00,0.0030
3262.00,0.0030
3261.00,0.0030
3260.00,0.0030
3259.00,0.0030
3258.00,0.0030
3257.00,0.0030
3256.00,0.0029
3255.00,0.0029
3254.00,0.0029
3253.00,0.0029
3252.00,0.0029
3251.00,0.0029
3250.00,0.0029
3249.00,0.0029
3248.00,0.0029
3247.00,0.0029
3246.00,0.0029
3245.00,0.0029
3244.00,0.0029
3243.00,0.0030
3242.00,0.0030
3241.00,0.0030
3240.00,0.0030
3239.00,0.0030
3238.00,0.0029
3237.00,0.0029
3236.00,0.0029
3235.00,0.0029
3234.00,0.0029
3233.00,0.0029
3232.00,0.0029
3231.00,0.0030
3230.00,0.0030
3229.00,0.0031
3228.00,0.0031
3227.00,0.0031
3226.00,0.0031
3225.00,0.0031
3224.00,0.0031
3223.00,0.0031
3222.00,0.0031
3221.00,0.0031
3220.00,0.0032
3219.00,0.0032
3218.00,0.0032
3217.00,0.0032
3216.00,0.0032
3215.00,0.0032
3214.00,0.0032
3213.00,0.0033
3212.00,0.0033
3211.00,0.0034
3210.00,0.0034
3209.00,0.0034
3208.00,0.0034
3207.00,0.0034
3206.00,0.0034
3205.00,0.0034
3204.00,0.0034
3203.00,0.0034
3202.00,0.0034
3201.00,0.0034
3200.00,0.0034
3199.00,0.0035
3198.00,0.0035
3197.00,0.0035
3196.00,0.0035
3195.00,0.0035
3194.00,0.0035
3193.00,0.0035
3192.00,0.0035
3191.00,0.0034
3190.00,0.0034
3189.00,0.0034
3188.00,0.0034
3187.00,0.0034
3186.00,0.0034
3185.00,0.0033
3184.00,0.0033
3183.00,0.0033
3182.00,0.0033
3181.00,0.0033
3180.00,0.0032
3179.00,0.0032
3178.00,0.0032
3177.00,0.0032
3176.00,0.0032
3175.00,0.0032
3174.00,0.0031
3173.00,0.0031
3172.00,0.0031
3171.00,0.0031
3170.00,0.0031
3169.00,0.0032
3168.00,0.0031
3167.00,0.0031
3166.00,0.0031
3165.00,0.0031
3164.00,0.0031
3163.00,0.0031
3162.00,0.0031
3161.00,0.0031
3160.00,0.0031
3159.00,0.0031
3158.00,0.0031
3157.00,0.0031
3156.00,0.0031
3155.00,0.0031
3154.00,0.0031
3153.00,0.0030
3152.00,0.0030
3151.00,0.0030
3150.00,0.0030
3149.00,0.0031
3148.00,0.0031
3147.00,0.0030
3146.00,0.0030
3145.00,0.0030
3144.00,0.0031
3143.00,0.0031
3142.00,0.0031
3141.00,0.0031
3140.00,0.0030
3139.00,0.0030
3138.00,0.0030
3137.00,0.0030
3136.00,0.0030
3135.00,0.0030
3134.00,0.0030
3133.00,0.0029
3132.00,0.0029
3131.00,0.0029
3130.00,0.0028
3129.00,0.0028
3128.00,0.0028
3127.00,0.0029
3126.00,0.0028
3125.00,0.0028
3124.00,0.0028
3123.00,0.0028
3122.00,0.0028
3121.00,0.0028
3120.00,0.0027
3119.00,0.0027
3118.00,0.0026
3117.00,0.0026
3116.00,0.0026
3115.00,0.0026
3114.00,0.0026
3113.00,0.0026
3112.00,0.0026
3111.00,0.0026
3110.00,0.0026
3109.00,0.0025
3108.00,0.0025
3107.00,0.0025
3106.00,0.0026
3105.00,0.0026
3104.00,0.0026
3103.00,0.0026
3102.00,0.0026
3101.00,0.0025
3100.00,0.0026
3099.00,0.0026
3098.00,0.0026
3097.00,0.0026
3096.00,0.0026
3095.00,0.0026
3094.00,0.0026
3093.00,0.0026
3092.00,0.0026
3091.00,0.0026
3090.00,0.0026
3089.00,0.0026
3088.00,0.0027
3087.00,0.0027
3086.00,0.0026
3085.00,0.0026
3084.00,0.0026
3083.00,0.0026
3082.00,0.0026
3081.00,0.0027
3080.00,0.0027
3079.00,0.0027
3078.00,0.0027
3077.00,0.0027
3076.00,0.0028
3075.00,0.0028
3074.00,0.0028
3073.00,0.0028
3072.00,0.0029
3071.00,0.0029
3070.00,0.0029
3069.00,0.0028
3068.00,0.0028
3067.00,0.0029
3066.00,0.0029
3065.00,0.0030
3064.00,0.0030
3063.00,0.0030
3062.00,0.0030
3061.00,0.0030
3060.00,0.0030
3059.00,0.0030
3058.00,0.0031
3057.00,0.0031
3056.00,0.0031
3055.00,0.0031
3054.00,0.0031
3053.00,0.0031
3052.00,0.0031
3051.00,0.0031
3050.00,0.0031
3049.00,0.0032
3048.00,0.0033
3047.00,0.0033
3046.00,0.0034
3045.00,0.0034
3044.00,0.0034
3043.00,0.0034
3042.00,0.0034
3041.00,0.0034
3040.00,0.0034
3039.00,0.0035
3038.00,0.0035
3037.00,0.0035
3036.00,0.0036
3035.00,0.0036
3034.00,0.0036
3033.00,0.0036
3032.00,0.0036
3031.00,0.0037
3030.00,0.0037
3029.00,0.0038
3028.00,0.0038
3027.00,0.0039
3026.00,0.0040
3025.00,0.0040
3024.00,0.0041
3023.00,0.0042
3022.00,0.0043
3021.00,0.0044
3020.00,0.0045
3019.00,0.0046
3018.00,0.0048
3017.00,0.0049
3016.00,0.0050
3015.00,0.0051
3014.00,0.0052
3013.00,0.0054
3012.00,0.0056
3011.00,0.0057
3010.00,0.0060
3009.00,0.0062
3008.00,0.0064
3007.00,0.0066
3006.00,0.0068
3005.00,0.0071
3004.00,0.0074
3003.00,0.0077
3002.00,0.0079
3001.00,0.0082
3000.00,0.0085
2999.00,0.0088
2998.00,0.0092
2997.00,0.0095
2996.00,0.0099
2995.00,0.0103
2994.00,0.0107
2993.00,0.0111
2992.00,0.0116
2991.00,0.0122
2990.00,0.0128
2989.00,0.0135
2988.00,0.0143
2987.00,0.0153
2986.00,0.0163
2985.00,0.0175
2984.00,0.0189
2983.00,0.0203
2982.00,0.0219
2981.00,0.0235
2980.00,0.0253
2979.00,0.0272
2978.00,0.0295
2977.00,0.0320
2976.00,0.0350
2975.00,0.0384
2974.00,0.0424
2973.00,0.0468
2972.00,0.0518
2971.00,0.0573
2970.00,0.0634
2969.00,0.0699
2968.00,0.0769
2967.00,0.0843
2966.00,0.0918
2965.00,0.0993
2964.00,0.1065
2963.00,0.1131
2962.00,0.1189
2961.00,0.1238
2960.00,0.1280
2959.00,0.1321
2958.00,0.1364
2957.00,0.1415
2956.00,0.1478
2955.00,0.1554
2954.00,0.1641
2953.00,0.1730
2952.00,0.1812
2951.00,0.1873
2950.00,0.1902
2949.00,0.1889
2948.00,0.1833
2947.00,0.1740
2946.00,0.1622
2945.00,0.1495
2944.00,0.1372
2943.00,0.1267
2942.00,0.1185
2941.00,0.1128
2940.00,0.1097
2939.00,0.1089
2938.00,0.1102
2937.00,0.1134
2936.00,0.1182
2935.00,0.1246
2934.00,0.1323
2933.00,0.1413
2932.00,0.1515
2931.00,0.1627
2930.00,0.1747
2929.00,0.1870
2928.00,0.1995
2927.00,0.2118
2926.00,0.2239
2925.00,0.2357
2924.00,0.2473
2923.00,0.2589
2922.00,0.2706
2921.00,0.2820
2920.00,0.2923
2919.00,0.3005
2918.00,0.3051
2917.00,0.3051
2916.00,0.3002
2915.00,0.2911
2914.00,0.2791
2913.00,0.2657
2912.00,0.2523
2911.00,0.2399
2910.00,0.2286
2909.00,0.2186
2908.00,0.2094
2907.00,0.2009
2906.00,0.1928
2905.00,0.1849
2904.00,0.1772
2903.00,0.1697
2902.00,0.1625
2901.00,0.1556
2900.00,0.1490
2899.00,0.1428
2898.00,0.1371
2897.00,0.1318
2896.00,0.1271
2895.00,0.1229
2894.00,0.1194
2893.00,0.1166
2892.00,0.1143
2891.00,0.1126
2890.00,0.1115
2889.00,0.1107
2888.00,0.1104
2887.00,0.1103
2886.00,0.1107
2885.00,0.1114
2884.00,0.1125
2883.00,0.1142
2882.00,0.1164
2881.00,0.1190
2880.00,0.1216
2879.00,0.1238
2878.00,0.1252
2877.00,0.1258
2876.00,0.1255
2875.00,0.1247
2874.00,0.1242
2873.00,0.1241
2872.00,0.1249
2871.00,0.1264
2870.00,0.1284
2869.00,0.1305
2868.00,0.1318
2867.00,0.1316
2866.00,0.1292
2865.00,0.1244
2864.00,0.1176
2863.00,0.1097
2862.00,0.1018
2861.00,0.0948
2860.00,0.0894
2859.00,0.0857
2858.00,0.0837
2857.00,0.0830
2856.00,0.0834
2855.00,0.0846
2854.00,0.0864
2853.00,0.0885
2852.00,0.0906
2851.00,0.0923
2850.00,0.0935
2849.00,0.0942
2848.00,0.0946
2847.00,0.0953
2846.00,0.0967
2845.00,0.0992
2844.00,0.1028
2843.00,0.1072
2842.00,0.1120
2841.00,0.1165
2840.00,0.1201
2839.00,0.1219
2838.00,0.1212
2837.00,0.1175
2836.00,0.1111
2835.00,0.1023
2834.00,0.0921
2833.00,0.0815
2832.00,0.0714
2831.00,0.0624
2830.00,0.0548
2829.00,0.0486
2828.00,0.0436
2827.00,0.0395
2826.00,0.0361
2825.00,0.0333
2824.00,0.0310
2823.00,0.0291
2822.00,0.0274
2821.00,0.0260
2820.00,0.0248
2819.00,0.0237
2818.00,0.0228
2817.00,0.0219
2816.00,0.0212
2815.00,0.0205
2814.00,0.0199
2813.00,0.0193
2812.00,0.0187
2811.00,0.0181
2810.00,0.0175
2809.00,0.0169
2808.00,0.0163
2807.00,0.0157
2806.00,0.0150
2805.00,0.0144
2804.00,0.0137
2803.00,0.0132
2802.00,0.0127
2801.00,0.0122
2800.00,0.0118
2799.00,0.0115
2798.00,0.0112
2797.00,0.0109
2796.00,0.0106
2795.00,0.0104
2794.00,0.0101
2793.00,0.0099
2792.00,0.0096
2791.00,0.0093
2790.00,0.0090
2789.00,0.0087
2788.00,0.0084
2787.00,0.0081
2786.00,0.0079
2785.00,0.0077
2784.00,0.0075
2783.00,0.0073
2782.00,0.0071
2781.00,0.0069
2780.00,0.0067
2779.00,0.0066
2778.00,0.0064
2777.00,0.0063
2776.00,0.0062
2775.00,0.0061
2774.00,0.0060
2773.00,0.0059
2772.00,0.0058
2771.00,0.0058
2770.00,0.0058
2769.00,0.0057
2768.00,0.0057
2767.00,0.0057
2766.00,0.0057
2765.00,0.0057
2764.00,0.0056
2763.00,0.0056
2762.00,0.0055
2761.00,0.0055
2760.00,0.0054
2759.00,0.0054
2758.00,0.0054
2757.00,0.0054
2756.00,0.0054
2755.00,0.0054
2754.00,0.0054
2753.00,0.0053
2752.00,0.0053
2751.00,0.0052
2750.00,0.0052
2749.00,0.0052
2748.00,0.0052
2747.00,0.0053
2746.00,0.0053
2745.00,0.0054
2744.00,0.0055
2743.00,0.0055
2742.00,0.0056
2741.00,0.0057
2740.00,0.0058
2739.00,0.0060
2738.00,0.0061
2737.00,0.0063
2736.00,0.0064
2735.00,0.0065
2734.00,0.0067
2733.00,0.0069
2732.00,0.0071
2731.00,0.0072
2730.00,0.0075
2729.00,0.0077
2728.00,0.0079
2727.00,0.0082
2726.00,0.0085
2725.00,0.0087
2724.00,0.0089
2723.00,0.0090
2722.00,0.0089
2721.00,0.0087
2720.00,0.0085
2719.00,0.0081
2718.00,0.0078
2717.00,0.0075
2716.00,0.0071
2715.00,0.0068
2714.00,0.0065
2713.00,0.0063
2712.00,0.0061
2711.00,0.0059
2710.00,0.0058
2709.00,0.0057
2708.00,0.0055
2707.00,0.0054
2706.00,0.0053
2705.00,0.0051
2704.00,0.0050
2703.00,0.0050
2702.00,0.0049
2701.00,0.0048
2700.00,0.0047
2699.00,0.0047
2698.00,0.0046
2697.00,0.0046
2696.00,0.0046
2695.00,0.0046
2694.00,0.0046
2693.00,0.0046
2692.00,0.0046
2691.00,0.0046
2690.00,0.0046
2689.00,0.0046
2688.00,0.0045
2687.00,0.0045
2686.00,0.0045
2685.00,0.0045
2684.00,0.0046
2683.00,0.0046
2682.00,0.0046
2681.00,0.0046
2680.00,0.0047
2679.00,0.0047
2678.00,0.0047
2677.00,0.0047
2676.00,0.0047
2675.00,0.0047
2674.00,0.0046
2673.00,0.0046
2672.00,0.0046
2671.00,0.0046
2670.00,0.0046
2669.00,0.0046
2668.00,0.0046
2667.00,0.0047
2666.00,0.0047
2665.00,0.0047
2664.00,0.0048
2663.00,0.0049
2662.00,0.0049
2661.00,0.0050
2660.00,0.0050
2659.00,0.0050
2658.00,0.0050
2657.00,0.0049
2656.00,0.0049
2655.00,0.0049
2654.00,0.0048
2653.00,0.0048
2652.00,0.0047
2651.00,0.0047
2650.00,0.0047
2649.00,0.0046
2648.00,0.0045
2647.00,0.0045
2646.00,0.0044
2645.00,0.0043
2644.00,0.0043
2643.00,0.0042
2642.00,0.0042
2641.00,0.0042
2640.00,0.0041
2639.00,0.0041
2638.00,0.0041
2637.00,0.0041
2636.00,0.0041
2635.00,0.0041
2634.00,0.0040
2633.00,0.0040
2632.00,0.0040
2631.00,0.0040
2630.00,0.0040
2629.00,0.0041
2628.00,0.0041
2627.00,0.0041
2626.00,0.0042
2625.00,0.0042
2624.00,0.0042
2623.00,0.0041
2622.00,0.0041
2621.00,0.0040
2620.00,0.0040
2619.00,0.0040
2618.00,0.0040
2617.00,0.0040
2616.00,0.0040
2615.00,0.0040
2614.00,0.0040
2613.00,0.0040
2612.00,0.0040
2611.00,0.0040
2610.00,0.0039
2609.00,0.0039
2608.00,0.0038
2607.00,0.0038
2606.00,0.0037
2605.00,0.0036
2604.00,0.0036
2603.00,0.0036
2602.00,0.0035
2601.00,0.0035
2600.00,0.0035
2599.00,0.0034
2598.00,0.0034
2597.00,0.0034
2596.00,0.0033
2595.00,0.0033
2594.00,0.0033
2593.00,0.0034
2592.00,0.0034
2591.00,0.0035
2590.00,0.0036
2589.00,0.0038
2588.00,0.0039
2587.00,0.0040
2586.00,0.0041
2585.00,0.0041
2584.00,0.0042
2583.00,0.0042
2582.00,0.0042
2581.00,0.0041
2580.00,0.0041
2579.00,0.0039
2578.00,0.0038
2577.00,0.0036
2576.00,0.0035
2575.00,0.0034
2574.00,0.0033
2573.00,0.0031
2572.00,0.0030
2571.00,0.0029
2570.00,0.0028
2569.00,0.0028
2568.00,0.0027
2567.00,0.0026
2566.00,0.0026
2565.00,0.0025
2564.00,0.0025
2563.00,0.0024
2562.00,0.0024
2561.00,0.0024
2560.00,0.0025
2559.00,0.0025
2558.00,0.0024
2557.00,0.0024
2556.00,0.0024
2555.00,0.0024
2554.00,0.0024
2553.00,0.0023
2552.00,0.0023
2551.00,0.0022
2550.00,0.0022
2549.00,0.0021
2548.00,0.0021
2547.00,0.0021
2546.00,0.0021
2545.00,0.0021
2544.00,0.0021
2543.00,0.0020
2542.00,0.0020
2541.00,0.0019
2540.00,0.0019
2539.00,0.0018
2538.00,0.0018
2537.00,0.0018
2536.00,0.0018
2535.00,0.0018
2534.00,0.0018
2533.00,0.0018
2532.00,0.0017
2531.00,0.0017
2530.00,0.0017
2529.00,0.0016
2528.00,0.0016
2527.00,0.0016
2526.00,0.0016
2525.00,0.0016
2524.00,0.0016
2523.00,0.0016
2522.00,0.0015
2521.00,0.0014
2520.00,0.0013
2519.00,0.0013
2518.00,0.0013
2517.00,0.0013
2516.00,0.0013
2515.00,0.0013
2514.00,0.0012
2513.00,0.0012
2512.00,0.0011
2511.00,0.0011
2510.00,0.0011
2509.00,0.0011
2508.00,0.0011
2507.00,0.0010
2506.00,0.0010
2505.00,0.0010
2504.00,0.0011
2503.00,0.0012
2502.00,0.0012
2501.00,0.0012
2500.00,0.0012
2499.00,0.0012
2498.00,0.0012
2497.00,0.0012
2496.00,0.0012
2495.00,0.0012
2494.00,0.0012
2493.00,0.0012
2492.00,0.0012
2491.00,0.0012
2490.00,0.0012
2489.00,0.0011
2488.00,0.0011
2487.00,0.0011
2486.00,0.0011
2485.00,0.0011
2484.00,0.0011
2483.00,0.0011
2482.00,0.0012
2481.00,0.0012
2480.00,0.0011
2479.00,0.0011
2478.00,0.0011
2477.00,0.0011
2476.00,0.0012
2475.00,0.0013
2474.00,0.0013
2473.00,0.0013
2472.00,0.0012
2471.00,0.0012
2470.00,0.0012
2469.00,0.0011
2468.00,0.0011
2467.00,0.0011
2466.00,0.0011
2465.00,0.0011
2464.00,0.0011
2463.00,0.0012
2462.00,0.0012
2461.00,0.0011
2460.00,0.0011
2459.00,0.0011
2458.00,0.0011
2457.00,0.0012
2456.00,0.0012
2455.00,0.0012
2454.00,0.0012
2453.00,0.0012
2452.00,0.0012
2451.00,0.0012
2450.00,0.0012
2449.00,0.0013
2448.00,0.0013
2447.00,0.0013
2446.00,0.0012
2445.00,0.0012
2444.00,0.0011
2443.00,0.0011
2442.00,0.0011
2441.00,0.0012
2440.00,0.0012
2439.00,0.0012
2438.00,0.0012
2437.00,0.0012
2436.00,0.0012
2435.00,0.0012
2434.00,0.0012
2433.00,0.0012
2432.00,0.0012
2431.00,0.0012
2430.00,0.0012
2429.00,0.0012
2428.00,0.0013
2427.00,0.0013
2426.00,0.0013
2425.00,0.0013
2424.00,0.0013
2423.00,0.0013
2422.00,0.0012
2421.00,0.0012
2420.00,0.0012
2419.00,0.0012
2418.00,0.0012
2417.00,0.0012
2416.00,0.0012
2415.00,0.0012
2414.00,0.0012
2413.00,0.0012
2412.00,0.0012
2411.00,0.0012
2410.00,0.0012
2409.00,0.0011
2408.00,0.0010
2407.00,0.0009
2406.00,0.0008
2405.00,0.0009
2404.00,0.0009
2403.00,0.0010
2402.00,0.0010
2401.00,0.0010
2400.00,0.0010
2399.00,0.0010
2398.00,0.0009
2397.00,0.0009
2396.00,0.0009
2395.00,0.0009
2394.00,0.0009
2393.00,0.0009
2392.00,0.0009
2391.00,0.0009
2390.00,0.0009
2389.00,0.0008
2388.00,0.0008
2387.00,0.0008
2386.00,0.0008
2385.00,0.0007
2384.00,0.0007
2383.00,0.0006
2382.00,0.0006
2381.00,0.0005
2380.00,0.0005
2379.00,0.0004
2378.00,0.0005
2377.00,0.0005
2376.00,0.0005
2375.00,0.0006
2374.00,0.0006
2373.00,0.0005
2372.00,0.0005
2371.00,0.0005
2370.00,0.0005
2369.00,0.0005
2368.00,0.0005
2367.00,0.0005
2366.00,0.0005
2365.00,0.0005
2364.00,0.0005
2363.00,0.0004
2362.00,0.0005
2361.00,0.0005
2360.00,0.0006
2359.00,0.0006
2358.00,0.0006
2357.00,0.0006
2356.00,0.0005
2355.00,0.0005
2354.00,0.0005
2353.00,0.0006
2352.00,0.0005
2351.00,0.0005
2350.00,0.0005
2349.00,0.0005
2348.00,0.0006
2347.00,0.0007
2346.00,0.0008
2345.00,0.0007
2344.00,0.0007
2343.00,0.0007
2342.00,0.0007
2341.00,0.0008
2340.00,0.0008
2339.00,0.0008
2338.00,0.0008
2337.00,0.0008
2336.00,0.0007
2335.00,0.0007
2334.00,0.0008
2333.00,0.0008
2332.00,0.0008
2331.00,0.0007
2330.00,0.0006
2329.00,0.0007
2328.00,0.0009
2327.00,0.0012
2326.00,0.0016
2325.00,0.0019
2324.00,0.0020
2323.00,0.0019
2322.00,0.0017
2321.00,0.0014
2320.00,0.0013
2319.00,0.0012
2318.00,0.0012
2317.00,0.0011
2316.00,0.0011
2315.00,0.0010
2314.00,0.0010
2313.00,0.0009
2312.00,0.0009
2311.00,0.0008
2310.00,0.0008
2309.00,0.0008
2308.00,0.0008
2307.00,0.0008
2306.00,0.0008
2305.00,0.0009
2304.00,0.0010
2303.00,0.0010
2302.00,0.0011
2301.00,0.0011
2300.00,0.0012
2299.00,0.0012
2298.00,0.0012
2297.00,0.0013
2296.00,0.0013
2295.00,0.0014
2294.00,0.0014
2293.00,0.0015
2292.00,0.0016
2291.00,0.0017
2290.00,0.0017
2289.00,0.0017
2288.00,0.0017
2287.00,0.0018
2286.00,0.0018
2285.00,0.0018
2284.00,0.0018
2283.00,0.0018
2282.00,0.0017
2281.00,0.0017
2280.00,0.0016
2279.00,0.0015
2278.00,0.0014
2277.00,0.0013
2276.00,0.0012
2275.00,0.0012
2274.00,0.0013
2273.00,0.0013
2272.00,0.0013
2271.00,0.0012
2270.00,0.0011
2269.00,0.0011
2268.00,0.0012
2267.00,0.0013
2266.00,0.0013
2265.00,0.0013
2264.00,0.0012
2263.00,0.0012
2262.00,0.0013
2261.00,0.0014
2260.00,0.0016
2259.00,0.0016
2258.00,0.0017
2257.00,0.0017
2256.00,0.0017
2255.00,0.0016
2254.00,0.0014
2253.00,0.0012
2252.00,0.0011
2251.00,0.0010
2250.00,0.0010
2249.00,0.0010
2248.00,0.0011
2247.00,0.0011
2246.00,0.0011
2245.00,0.0011
2244.00,0.0012
2243.00,0.0012
2242.00,0.0012
2241.00,0.0012
2240.00,0.0011
2239.00,0.0010
2238.00,0.0009
2237.00,0.0008
2236.00,0.0007
2235.00,0.0007
2234.00,0.0008
2233.00,0.0008
2232.00,0.0008
2231.00,0.0008
2230.00,0.0009
2229.00,0.0010
2228.00,0.0011
2227.00,0.0012
2226.00,0.0014
2225.00,0.0014
2224.00,0.0014
2223.00,0.0013
2222.00,0.0013
2221.00,0.0013
2220.00,0.0012
2219.00,0.0010
2218.00,0.0008
2217.00,0.0007
2216.00,0.0008
2215.00,0.0009
2214.00,0.0010
2213.00,0.0011
2212.00,0.0010
2211.00,0.0009
2210.00,0.0007
2209.00,0.0007
2208.00,0.0007
2207.00,0.0007
2206.00,0.0007
2205.00,0.0007
2204.00,0.0006
2203.00,0.0006
2202.00,0.0007
2201.00,0.0008
2200.00,0.0008
2199.00,0.0008
2198.00,0.0008
2197.00,0.0007
2196.00,0.0007
2195.00,0.0008
2194.00,0.0008
2193.00,0.0010
2192.00,0.0011
2191.00,0.0011
2190.00,0.0011
2189.00,0.0012
2188.00,0.0014
2187.00,0.0017
2186.00,0.0018
2185.00,0.0016
2184.00,0.0011
2183.00,0.0006
2182.00,0.0001
2181.00,-0.0001
2180.00,0.0001
2179.00,0.0004
2178.00,0.0007
2177.00,0.0007
2176.00,0.0005
2175.00,0.0002
2174.00,-0.0000
2173.00,-0.0001
2172.00,0.0001
2171.00,0.0002
2170.00,0.0003
2169.00,0.0004
2168.00,0.0006
2167.00,0.0008
2166.00,0.0011
2165.00,0.0013
2164.00,0.0016
2163.00,0.0019
2162.00,0.0020
2161.00,0.0016
2160.00,0.0005
2159.00,-0.0010
2158.00,-0.0023
2157.00,-0.0027
2156.00,-0.0024
2155.00,-0.0018
2154.00,-0.0013
2153.00,-0.0010
2152.00,-0.0009
2151.00,-0.0010
2150.00,-0.0010
2149.00,-0.0011
2148.00,-0.0012
2147.00,-0.0012
2146.00,-0.0011
2145.00,-0.0011
2144.00,-0.0010
2143.00,-0.0009
2142.00,-0.0008
2141.00,-0.0008
2140.00,-0.0007
2139.00,-0.0007
2138.00,-0.0007
2137.00,-0.0009
2136.00,-0.0011
2135.00,-0.0014
2134.00,-0.0015
2133.00,-0.0016
2132.00,-0.0016
2131.00,-0.0016
2130.00,-0.0015
2129.00,-0.0012
2128.00,-0.0009
2127.00,-0.0007
2126.00,-0.0005
2125.00,-0.0005
2124.00,-0.0004
2123.00,-0.0003
2122.00,-0.0002
2121.00,-0.0001
2120.00,-0.0001
2119.00,-0.0002
2118.00,-0.0002
2117.00,-0.0001
2116.00,0.0000
2115.00,0.0001
2114.00,0.0001
2113.00,0.0002
2112.00,0.0002
2111.00,0.0004
2110.00,0.0004
2109.00,0.0005
2108.00,0.0005
2107.00,0.0004
2106.00,0.0003
2105.00,0.0003
2104.00,0.0002
2103.00,0.0001
2102.00,0.0001
2101.00,0.0001
2100.00,0.0002
2099.00,0.0002
2098.00,0.0001
2097.00,0.0000
2096.00,-0.0001
2095.00,-0.0002
2094.00,-0.0002
2093.00,-0.0001
2092.00,-0.0000
2091.00,0.0000
2090.00,0.0001
2089.00,0.0001
2088.00,0.0001
2087.00,0.0001
2086.00,0.0002
2085.00,0.0003
2084.00,0.0004
2083.00,0.0005
2082.00,0.0005
2081.00,0.0005
2080.00,0.0005
2079.00,0.0004
2078.00,0.0003
2077.00,0.0003
2076.00,0.0003
2075.00,0.0003
2074.00,0.0003
2073.00,0.0002
2072.00,0.0001
2071.00,0.0001
2070.00,0.0001
2069.00,0.0001
2068.00,0.0001
2067.00,0.0000
2066.00,-0.0002
2065.00,-0.0003
2064.00,-0.0003
2063.00,-0.0003
2062.00,-0.0002
2061.00,-0.0001
2060.00,-0.0001
2059.00,0.0001
2058.00,0.0002
2057.00,0.0003
2056.00,0.0003
2055.00,0.0004
2054.00,0.0005
2053.00,0.0008
2052.00,0.0011
2051.00,0.0013
2050.00,0.0012
2049.00,0.0009
2048.00,0.0006
2047.00,0.0002
2046.00,0.0000
2045.00,-0.0001
2044.00,-0.0001
2043.00,-0.0002
2042.00,-0.0003
2041.00,-0.0005
2040.00,-0.0004
2039.00,-0.0002
2038.00,0.0001
2037.00,0.0003
2036.00,0.0003
2035.00,0.0001
2034.00,-0.0003
2033.00,-0.0006
2032.00,-0.0008
2031.00,-0.0010
2030.00,-0.0011
2029.00,-0.0012
2028.00,-0.0010
2027.00,-0.0008
2026.00,-0.0006
2025.00,-0.0006
2024.00,-0.0006
2023.00,-0.0006
2022.00,-0.0004
2021.00,-0.0001
2020.00,0.0001
2019.00,0.0001
2018.00,-0.0001
2017.00,-0.0004
2016.00,-0.0008
2015.00,-0.0010
2014.00,-0.0011
2013.00,-0.0009
2012.00,-0.0006
2011.00,-0.0005
2010.00,-0.0005
2009.00,-0.0007
2008.00,-0.0011
2007.00,-0.0014
2006.00,-0.0016
2005.00,-0.0015
2004.00,-0.0014
2003.00,-0.0012
2002.00,-0.0010
2001.00,-0.0009
2000.00,-0.0008
1999.00,-0.0008
1998.00,-0.0008
1997.00,-0.0008
1996.00,-0.0008
1995.00,-0.0009
1994.00,-0.0008
1993.00,-0.0006
1992.00,-0.0004
1991.00,-0.0002
1990.00,-0.0003
1989.00,-0.0004
1988.00,-0.0005
1987.00,-0.0004
1986.00,-0.0001
1985.00,0.0002
1984.00,0.0004
1983.00,0.0006
1982.00,0.0007
1981.00,0.0011
1980.00,0.0013
1979.00,0.0012
1978.00,0.0007
1977.00,0.0001
1976.00,-0.0005
1975.00,-0.0009
1974.00,-0.0012
1973.00,-0.0013
1972.00,-0.0012
1971.00,-0.0012
1970.00,-0.0012
1969.00,-0.0012
1968.00,-0.0011
1967.00,-0.0009
1966.00,-0.0009
1965.00,-0.0009
1964.00,-0.0009
1963.00,-0.0010
1962.00,-0.0012
1961.00,-0.0015
1960.00,-0.0017
1959.00,-0.0018
1958.00,-0.0018
1957.00,-0.0016
1956.00,-0.0013
1955.00,-0.0011
1954.00,-0.0011
1953.00,-0.0012
1952.00,-0.0013
1951.00,-0.0013
1950.00,-0.0014
1949.00,-0.0014
1948.00,-0.0013
1947.00,-0.0012
1946.00,-0.0010
1945.00,-0.0009
1944.00,-0.0010
1943.00,-0.0011
1942.00,-0.0011
1941.00,-0.0010
1940.00,-0.0008
1939.00,-0.0007
1938.00,-0.0007
1937.00,-0.0007
1936.00,-0.0007
1935.00,-0.0007
1934.00,-0.0007
1933.00,-0.0007
1932.00,-0.0007
1931.00,-0.0008
1930.00,-0.0008
1929.00,-0.0008
1928.00,-0.0009
1927.00,-0.0010
1926.00,-0.0010
1925.00,-0.0010
1924.00,-0.0008
1923.00,-0.0006
1922.00,-0.0004
1921.00,-0.0002
1920.00,-0.0002
1919.00,-0.0002
1918.00,-0.0002
1917.00,-0.0002
1916.00,-0.0002
1915.00,-0.0000
1914.00,0.0000
1913.00,0.0000
1912.00,-0.0000
1911.00,-0.0001
1910.00,-0.0001
1909.00,-0.0001
1908.00,-0.0001
1907.00,-0.0000
1906.00,-0.0000
1905.00,-0.0000
1904.00,-0.0000
1903.00,-0.0000
1902.00,-0.0000
1901.00,0.0000
1900.00,0.0001
1899.00,0.0001
1898.00,0.0001
1897.00,0.0001
1896.00,0.0001
1895.00,0.0000
1894.00,-0.0000
1893.00,0.0001
1892.00,0.0002
1891.00,0.0004
1890.00,0.0004
1889.00,0.0004
1888.00,0.0003
1887.00,0.0002
1886.00,0.0002
1885.00,0.0001
1884.00,0.0001
1883.00,0.0001
1882.00,0.0001
1881.00,0.0002
1880.00,0.0002
1879.00,0.0002
1878.00,0.0001
1877.00,-0.0000
1876.00,-0.0002
1875.00,-0.0002
1874.00,-0.0002
1873.00,-0.0001
1872.00,0.0000
1871.00,0.0001
1870.00,0.0003
1869.00,0.0003
1868.00,0.0004
1867.00,0.0003
1866.00,0.0002
1865.00,0.0002
1864.00,0.0002
1863.00,0.0003
1862.00,0.0003
1861.00,0.0003
1860.00,0.0003
1859.00,0.0002
1858.00,0.0002
1857.00,0.0001
1856.00,0.0002
1855.00,0.0002
1854.00,0.0002
1853.00,0.0002
1852.00,0.0002
1851.00,0.0001
1850.00,0.0000
1849.00,0.0000
1848.00,0.0001
1847.00,0.0002
1846.00,0.0003
1845.00,0.0004
1844.00,0.0005
1843.00,0.0005
1842.00,0.0004
1841.00,0.0004
1840.00,0.0004
1839.00,0.0004
1838.00,0.0004
1837.00,0.0005
1836.00,0.0005
1835.00,0.0005
1834.00,0.0005
1833.00,0.0005
1832.00,0.0005
1831.00,0.0004
1830.00,0.0004
1829.00,0.0005
1828.00,0.0005
1827.00,0.0005
1826.00,0.0005
1825.00,0.0006
1824.00,0.0006
1823.00,0.0006
1822.00,0.0006
1821.00,0.0006
1820.00,0.0006
1819.00,0.0004
1818.00,0.0003
1817.00,0.0002
1816.00,0.0002
1815.00,0.0002
1814.00,0.0002
1813.00,0.0003
1812.00,0.0003
1811.00,0.0004
1810.00,0.0004
1809.00,0.0005
1808.00,0.0006
1807.00,0.0006
1806.00,0.0007
1805.00,0.0007
1804.00,0.0007
1803.00,0.0007
1802.00,0.0007
1801.00,0.0007
1800.00,0.0007
1799.00,0.0007
1798.00,0.0007
1797.00,0.0008
1796.00,0.0008
1795.00,0.0009
1794.00,0.0009
1793.00,0.0009
1792.00,0.0009
1791.00,0.0009
1790.00,0.0009
1789.00,0.0009
1788.00,0.0010
1787.00,0.0010
1786.00,0.0011
1785.00,0.0011
1784.00,0.0011
1783.00,0.0012
1782.00,0.0011
1781.00,0.0011
1780.00,0.0011
1779.00,0.0010
1778.00,0.0010
1777.00,0.0010
1776.00,0.0010
1775.00,0.0011
1774.00,0.0012
1773.00,0.0012
1772.00,0.0013
1771.00,0.0013
1770.00,0.0013
1769.00,0.0014
1768.00,0.0014
1767.00,0.0015
1766.00,0.0016
1765.00,0.0017
1764.00,0.0018
1763.00,0.0019
1762.00,0.0020
1761.00,0.0022
1760.00,0.0024
1759.00,0.0026
1758.00,0.0029
1757.00,0.0032
1756.00,0.0035
1755.00,0.0038
1754.00,0.0041
1753.00,0.0044
1752.00,0.0047
1751.00,0.0050
1750.00,0.0052
1749.00,0.0054
1748.00,0.0055
1747.00,0.0056
1746.00,0.0055
1745.00,0.0055
1744.00,0.0055
1743.00,0.0054
1742.00,0.0053
1741.00,0.0052
1740.00,0.0050
1739.00,0.0049
1738.00,0.0047
1737.00,0.0046
1736.00,0.0045
1735.00,0.0042
1734.00,0.0040
1733.00,0.0038
1732.00,0.0037
1731.00,0.0036
1730.00,0.0035
1729.00,0.0035
1728.00,0.0034
1727.00,0.0033
1726.00,0.0033
1725.00,0.0032
1724.00,0.0032
1723.00,0.0032
1722.00,0.0032
1721.00,0.0032
1720.00,0.0031
1719.00,0.0030
1718.00,0.0028
1717.00,0.0028
1716.00,0.0028
1715.00,0.0028
1714.00,0.0028
1713.00,0.0028
1712.00,0.0028
1711.00,0.0028
1710.00,0.0028
1709.00,0.0028
1708.00,0.0028
1707.00,0.0028
1706.00,0.0029
1705.00,0.0029
1704.00,0.0029
1703.00,0.0029
1702.00,0.0029
1701.00,0.0030
1700.00,0.0030
1699.00,0.0031
1698.00,0.0031
1697.00,0.0031
1696.00,0.0032
1695.00,0.0032
1694.00,0.0033
1693.00,0.0033
1692.00,0.0034
1691.00,0.0034
1690.00,0.0035
1689.00,0.0035
1688.00,0.0036
1687.00,0.0036
1686.00,0.0036
1685.00,0.0036
1684.00,0.0037
1683.00,0.0038
1682.00,0.0039
1681.00,0.0039
1680.00,0.0040
1679.00,0.0040
1678.00,0.0040
1677.00,0.0041
1676.00,0.0042
1675.00,0.0042
1674.00,0.0043
1673.00,0.0044
1672.00,0.0044
1671.00,0.0045
1670.00,0.0046
1669.00,0.0046
1668.00,0.0046
1667.00,0.0046
1666.00,0.0046
1665.00,0.0046
1664.00,0.0047
1663.00,0.0048
1662.00,0.0048
1661.00,0.0049
1660.00,0.0049
1659.00,0.0049
1658.00,0.0049
1657.00,0.0050
1656.00,0.0051
1655.00,0.0052
1654.00,0.0052
1653.00,0.0052
1652.00,0.0053
1651.00,0.0053
1650.00,0.0053
1649.00,0.0054
1648.00,0.0054
1647.00,0.0054
1646.00,0.0055
1645.00,0.0055
1644.00,0.0056
1643.00,0.0056
1642.00,0.0056
1641.00,0.0056
1640.00,0.0056
1639.00,0.0056
1638.00,0.0056
1637.00,0.0056
1636.00,0.0056
1635.00,0.0055
1634.00,0.0054
1633.00,0.0054
1632.00,0.0054
1631.00,0.0054
1630.00,0.0054
1629.00,0.0053
1628.00,0.0053
1627.00,0.0052
1626.00,0.0051
1625.00,0.0050
1624.00,0.0050
1623.00,0.0049
1622.00,0.0049
1621.00,0.0048
1620.00,0.0048
1619.00,0.0048
1618.00,0.0048
1617.00,0.0048
1616.00,0.0047
1615.00,0.0047
1614.00,0.0047
1613.00,0.0047
1612.00,0.0047
1611.00,0.0047
1610.00,0.0047
1609.00,0.0047
1608.00,0.0047
1607.00,0.0047
1606.00,0.0047
1605.00,0.0047
1604.00,0.0047
1603.00,0.0048
1602.00,0.0048
1601.00,0.0048
1600.00,0.0048
1599.00,0.0048
1598.00,0.0048
1597.00,0.0048
1596.00,0.0048
1595.00,0.0048
1594.00,0.0049
1593.00,0.0049
1592.00,0.0050
1591.00,0.0051
1590.00,0.0051
1589.00,0.0053
1588.00,0.0054
1587.00,0.0055
1586.00,0.0056
1585.00,0.0057
1584.00,0.0059
1583.00,0.0061
1582.00,0.0063
1581.00,0.0065
1580.00,0.0067
1579.00,0.0069
1578.00,0.0070
1577.00,0.0071
1576.00,0.0072
1575.00,0.0071
1574.00,0.0070
1573.00,0.0069
1572.00,0.0068
1571.00,0.0067
1570.00,0.0065
1569.00,0.0064
1568.00,0.0064
1567.00,0.0063
1566.00,0.0063
1565.00,0.0062
1564.00,0.0062
1563.00,0.0061
1562.00,0.0062
1561.00,0.0062
1560.00,0.0062
1559.00,0.0061
1558.00,0.0061
1557.00,0.0061
1556.00,0.0061
1555.00,0.0062
1554.00,0.0062
1553.00,0.0062
1552.00,0.0063
1551.00,0.0064
1550.00,0.0064
1549.00,0.0065
1548.00,0.0066
1547.00,0.0067
1546.00,0.0069
1545.00,0.0071
1544.00,0.0074
1543.00,0.0076
1542.00,0.0078
1541.00,0.0079
1540.00,0.0078
1539.00,0.0075
1538.00,0.0072
1537.00,0.0070
1536.00,0.0068
1535.00,0.0066
1534.00,0.0063
1533.00,0.0060
1532.00,0.0059
1531.00,0.0058
1530.00,0.0057
1529.00,0.0057
1528.00,0.0056
1527.00,0.0056
1526.00,0.0055
1525.00,0.0055
1524.00,0.0055
1523.00,0.0055
1522.00,0.0056
1521.00,0.0056
1520.00,0.0057
1519.00,0.0057
1518.00,0.0057
1517.00,0.0057
1516.00,0.0058
1515.00,0.0059
1514.00,0.0059
1513.00,0.0059
1512.00,0.0060
1511.00,0.0060
1510.00,0.0060
1509.00,0.0061
1508.00,0.0063
1507.00,0.0063
1506.00,0.0064
1505.00,0.0065
1504.00,0.0067
1503.00,0.0067
1502.00,0.0068
1501.00,0.0071
1500.00,0.0073
1499.00,0.0075
1498.00,0.0077
1497.00,0.0080
1496.00,0.0083
1495.00,0.0085
1494.00,0.0087
1493.00,0.0090
1492.00,0.0094
1491.00,0.0097
1490.00,0.0101
1489.00,0.0106
1488.00,0.0111
1487.00,0.0116
1486.00,0.0121
1485.00,0.0128
1484.00,0.0136
1483.00,0.0144
1482.00,0.0153
1481.00,0.0165
1480.00,0.0177
1479.00,0.0190
1478.00,0.0206
1477.00,0.0228
1476.00,0.0255
1475.00,0.0286
1474.00,0.0328
1473.00,0.0386
1472.00,0.0455
1471.00,0.0521
1470.00,0.0587
1469.00,0.0656
1468.00,0.0730
1467.00,0.0812
1466.00,0.0904
1465.00,0.1003
1464.00,0.1088
1463.00,0.1146
1462.00,0.1182
1461.00,0.1205
1460.00,0.1220
1459.00,0.1227
1458.00,0.1228
1457.00,0.1224
1456.00,0.1213
1455.00,0.1197
1454.00,0.1177
1453.00,0.1153
1452.00,0.1119
1451.00,0.1075
1450.00,0.1018
1449.00,0.0945
1448.00,0.0855
1447.00,0.0763
1446.00,0.0681
1445.00,0.0612
1444.00,0.0554
1443.00,0.0507
1442.00,0.0472
1441.00,0.0448
1440.00,0.0435
1439.00,0.0432
1438.00,0.0437
1437.00,0.0442
1436.00,0.0435
1435.00,0.0412
1434.00,0.0376
1433.00,0.0332
1432.00,0.0286
1431.00,0.0245
1430.00,0.0213
1429.00,0.0189
1428.00,0.0173
1427.00,0.0163
1426.00,0.0156
1425.00,0.0150
1424.00,0.0145
1423.00,0.0142
1422.00,0.0140
1421.00,0.0138
1420.00,0.0136
1419.00,0.0133
1418.00,0.0132
1417.00,0.0129
1416.00,0.0126
1415.00,0.0124
1414.00,0.0122
1413.00,0.0120
1412.00,0.0119
1411.00,0.0118
1410.00,0.0118
1409.00,0.0117
1408.00,0.0117
1407.00,0.0117
1406.00,0.0118
1405.00,0.0118
1404.00,0.0118
1403.00,0.0120
1402.00,0.0122
1401.00,0.0123
1400.00,0.0125
1399.00,0.0127
1398.00,0.0130
1397.00,0.0132
1396.00,0.0134
1395.00,0.0138
1394.00,0.0143
1393.00,0.0148
1392.00,0.0153
1391.00,0.0161
1390.00,0.0172
1389.00,0.0186
1388.00,0.0207
1387.00,0.0238
1386.00,0.0280
1385.00,0.0335
1384.00,0.0413
1383.00,0.0524
1382.00,0.0676
1381.00,0.0876
1380.00,0.1127
1379.00,0.1418
1378.00,0.1706
1377.00,0.1925
1376.00,0.2009
1375.00,0.1919
1374.00,0.1682
1373.00,0.1388
1372.00,0.1116
1371.00,0.0890
1370.00,0.0711
1369.00,0.0576
1368.00,0.0484
1367.00,0.0428
1366.00,0.0397
1365.00,0.0384
1364.00,0.0386
1363.00,0.0400
1362.00,0.0422
1361.00,0.0446
1360.00,0.0464
1359.00,0.0470
1358.00,0.0459
1357.00,0.0433
1356.00,0.0395
1355.00,0.0353
1354.00,0.0311
1353.00,0.0276
1352.00,0.0247
1351.00,0.0224
1350.00,0.0206
1349.00,0.0191
1348.00,0.0178
1347.00,0.0167
1346.00,0.0158
1345.00,0.0150
1344.00,0.0143
1343.00,0.0138
1342.00,0.0134
1341.00,0.0131
1340.00,0.0129
1339.00,0.0127
1338.00,0.0126
1337.00,0.0125
1336.00,0.0125
1335.00,0.0126
1334.00,0.0129
1333.00,0.0133
1332.00,0.0138
1331.00,0.0141
1330.00,0.0143
1329.00,0.0141
1328.00,0.0138
1327.00,0.0133
1326.00,0.0127
1325.00,0.0120
1324.00,0.0115
1323.00,0.0110
1322.00,0.0106
1321.00,0.0103
1320.00,0.0101
1319.00,0.0098
1318.00,0.0096
1317.00,0.0095
1316.00,0.0094
1315.00,0.0094
1314.00,0.0094
1313.00,0.0094
1312.00,0.0094
1311.00,0.0095
1310.00,0.0098
1309.00,0.0103
1308.00,0.0109
1307.00,0.0117
1306.00,0.0124
1305.00,0.0130
1304.00,0.0132
1303.00,0.0132
1302.00,0.0130
1301.00,0.0129
1300.00,0.0129
1299.00,0.0130
1298.00,0.0132
1297.00,0.0133
1296.00,0.0133
1295.00,0.0131
1294.00,0.0127
1293.00,0.0122
1292.00,0.0117
1291.00,0.0112
1290.00,0.0108
1289.00,0.0104
1288.00,0.0101
1287.00,0.0099
1286.00,0.0096
1285.00,0.0095
1284.00,0.0093
1283.00,0.0092
1282.00,0.0091
1281.00,0.0090
1280.00,0.0090
1279.00,0.0090
1278.00,0.0089
1277.00,0.0089
1276.00,0.0089
1275.00,0.0089
1274.00,0.0089
1273.00,0.0090
1272.00,0.0090
1271.00,0.0091
1270.00,0.0092
1269.00,0.0094
1268.00,0.0096
1267.00,0.0098
1266.00,0.0101
1265.00,0.0103
1264.00,0.0106
1263.00,0.0108
1262.00,0.0111
1261.00,0.0114
1260.00,0.0117
1259.00,0.0121
1258.00,0.0125
1257.00,0.0129
1256.00,0.0130
1255.00,0.0128
1254.00,0.0124
1253.00,0.0119
1252.00,0.0114
1251.00,0.0109
1250.00,0.0106
1249.00,0.0103
1248.00,0.0100
1247.00,0.0098
1246.00,0.0097
1245.00,0.0095
1244.00,0.0094
1243.00,0.0093
1242.00,0.0092
1241.00,0.0091
1240.00,0.0090
1239.00,0.0090
1238.00,0.0090
1237.00,0.0090
1236.00,0.0090
1235.00,0.0090
1234.00,0.0091
1233.00,0.0091
1232.00,0.0092
1231.00,0.0093
1230.00,0.0094
1229.00,0.0094
1228.00,0.0094
1227.00,0.0096
1226.00,0.0098
1225.00,0.0101
1224.00,0.0104
1223.00,0.0108
1222.00,0.0111
1221.00,0.0114
1220.00,0.0116
1219.00,0.0117
1218.00,0.0116
1217.00,0.0114
1216.00,0.0110
1215.00,0.0107
1214.00,0.0104
1213.00,0.0101
1212.00,0.0098
1211.00,0.0096
1210.00,0.0094
1209.00,0.0093
1208.00,0.0091
1207.00,0.0090
1206.00,0.0090
1205.00,0.0089
1204.00,0.0089
1203.00,0.0089
1202.00,0.0090
1201.00,0.0090
1200.00,0.0090
1199.00,0.0090
1198.00,0.0090
1197.00,0.0089
1196.00,0.0090
1195.00,0.0090
1194.00,0.0091
1193.00,0.0092
1192.00,0.0092
1191.00,0.0092
1190.00,0.0092
1189.00,0.0092
1188.00,0.0091
1187.00,0.0092
1186.00,0.0093
1185.00,0.0094
1184.00,0.0095
1183.00,0.0097
1182.00,0.0099
1181.00,0.0101
1180.00,0.0105
1179.00,0.0109
1178.00,0.0114
1177.00,0.0120
1176.00,0.0128
1175.00,0.0140
1174.00,0.0154
1173.00,0.0171
1172.00,0.0191
1171.00,0.0213
1170.00,0.0233
1169.00,0.0250
1168.00,0.0260
1167.00,0.0263
1166.00,0.0260
1165.00,0.0252
1164.00,0.0243
1163.00,0.0234
1162.00,0.0227
1161.00,0.0220
1160.00,0.0216
1159.00,0.0213
1158.00,0.0211
1157.00,0.0210
1156.00,0.0210
1155.00,0.0210
1154.00,0.0209
1153.00,0.0208
1152.00,0.0204
1151.00,0.0198
1150.00,0.0190
1149.00,0.0180
1148.00,0.0170
1147.00,0.0160
1146.00,0.0152
1145.00,0.0143
1144.00,0.0136
1143.00,0.0129
1142.00,0.0122
1141.00,0.0116
1140.00,0.0111
1139.00,0.0107
1138.00,0.0104
1137.00,0.0100
1136.00,0.0097
1135.00,0.0095
1134.00,0.0093
1133.00,0.0091
1132.00,0.0089
1131.00,0.0088
1130.00,0.0087
1129.00,0.0088
1128.00,0.0089
1127.00,0.0090
1126.00,0.0091
1125.00,0.0092
1124.00,0.0092
1123.00,0.0093
1122.00,0.0092
1121.00,0.0092
1120.00,0.0093
1119.00,0.0094
1118.00,0.0096
1117.00,0.0098
1116.00,0.0099
1115.00,0.0099
1114.00,0.0099
1113.00,0.0100
1112.00,0.0101
1111.00,0.0104
1110.00,0.0107
1109.00,0.0111
1108.00,0.0117
1107.00,0.0123
1106.00,0.0130
1105.00,0.0136
1104.00,0.0141
1103.00,0.0144
1102.00,0.0143
1101.00,0.0140
1100.00,0.0134
1099.00,0.0128
1098.00,0.0122
1097.00,0.0117
1096.00,0.0112
1095.00,0.0108
1094.00,0.0105
1093.00,0.0102
1092.00,0.0100
1091.00,0.0098
1090.00,0.0097
1089.00,0.0095
1088.00,0.0095
1087.00,0.0094
1086.00,0.0094
1085.00,0.0094
1084.00,0.0094
1083.00,0.0094
1082.00,0.0093
1081.00,0.0093
1080.00,0.0092
1079.00,0.0091
1078.00,0.0090
1077.00,0.0088
1076.00,0.0087
1075.00,0.0087
1074.00,0.0087
1073.00,0.0087
1072.00,0.0087
1071.00,0.0086
1070.00,0.0086
1069.00,0.0086
1068.00,0.0086
1067.00,0.0086
1066.00,0.0087
1065.00,0.0087
1064.00,0.0088
1063.00,0.0089
1062.00,0.0090
1061.00,0.0090
1060.00,0.0090
1059.00,0.0090
1058.00,0.0090
1057.00,0.0091
1056.00,0.0093
1055.00,0.0095
1054.00,0.0097
1053.00,0.0098
1052.00,0.0101
1051.00,0.0104
1050.00,0.0107
1049.00,0.0111
1048.00,0.0115
1047.00,0.0119
1046.00,0.0122
1045.00,0.0124
1044.00,0.0124
1043.00,0.0123
1042.00,0.0122
1041.00,0.0120
1040.00,0.0119
1039.00,0.0118
1038.00,0.0118
1037.00,0.0118
1036.00,0.0118
1035.00,0.0117
1034.00,0.0117
1033.00,0.0116
1032.00,0.0115
1031.00,0.0115
1030.00,0.0115
1029.00,0.0116
1028.00,0.0117
1027.00,0.0118
1026.00,0.0120
1025.00,0.0121
1024.00,0.0122
1023.00,0.0124
1022.00,0.0126
1021.00,0.0127
1020.00,0.0130
1019.00,0.0132
1018.00,0.0133
1017.00,0.0133
1016.00,0.0132
1015.00,0.0131
1014.00,0.0131
1013.00,0.0131
1012.00,0.0131
1011.00,0.0131
1010.00,0.0131
1009.00,0.0131
1008.00,0.0132
1007.00,0.0133
1006.00,0.0136
1005.00,0.0142
1004.00,0.0151
1003.00,0.0166
1002.00,0.0185
1001.00,0.0208
1000.00,0.0232
999.00,0.0251
998.00,0.0259
997.00,0.0252
996.00,0.0233
995.00,0.0208
994.00,0.0182
993.00,0.0159
992.00,0.0141
991.00,0.0128
990.00,0.0118
989.00,0.0111
988.00,0.0108
987.00,0.0107
986.00,0.0107
985.00,0.0109
984.00,0.0113
983.00,0.0119
982.00,0.0129
981.00,0.0142
980.00,0.0160
979.00,0.0184
978.00,0.0212
977.00,0.0245
976.00,0.0278
975.00,0.0307
974.00,0.0326
973.00,0.0330
972.00,0.0317
971.00,0.0289
970.00,0.0253
969.00,0.0217
968.00,0.0187
967.00,0.0164
966.00,0.0146
965.00,0.0133
964.00,0.0124
963.00,0.0117
962.00,0.0111
961.00,0.0106
960.00,0.0102
959.00,0.0099
958.00,0.0097
957.00,0.0095
956.00,0.0094
955.00,0.0093
954.00,0.0092
953.00,0.0091
952.00,0.0090
951.00,0.0089
950.00,0.0088
949.00,0.0087
948.00,0.0087
947.00,0.0087
946.00,0.0089
945.00,0.0091
944.00,0.0094
943.00,0.0098
942.00,0.0102
941.00,0.0106
940.00,0.0107
939.00,0.0105
938.00,0.0099
937.00,0.0092
936.00,0.0084
935.00,0.0078
934.00,0.0073
933.00,0.0069
932.00,0.0066
931.00,0.0065
930.00,0.0064
929.00,0.0065
928.00,0.0065
927.00,0.0066
926.00,0.0066
925.00,0.0066
924.00,0.0065
923.00,0.0065
922.00,0.0065
921.00,0.0064
920.00,0.0063
919.00,0.0063
918.00,0.0063
917.00,0.0063
916.00,0.0064
915.00,0.0066
914.00,0.0067
913.00,0.0069
912.00,0.0070
911.00,0.0072
910.00,0.0073
909.00,0.0075
908.00,0.0078
907.00,0.0083
906.00,0.0090
905.00,0.0102
904.00,0.0118
903.00,0.0138
902.00,0.0159
901.00,0.0177
900.00,0.0189
899.00,0.0191
898.00,0.0182
897.00,0.0165
896.00,0.0144
895.00,0.0125
894.00,0.0109
893.00,0.0097
892.00,0.0088
891.00,0.0083
890.00,0.0080
889.00,0.0078
888.00,0.0077
887.00,0.0076
886.00,0.0074
885.00,0.0074
884.00,0.0073
883.00,0.0072
882.00,0.0071
881.00,0.0070
880.00,0.0070
879.00,0.0070
878.00,0.0071
877.00,0.0073
876.00,0.0075
875.00,0.0076
874.00,0.0077
873.00,0.0076
872.00,0.0075
871.00,0.0074
870.00,0.0073
869.00,0.0073
868.00,0.0074
867.00,0.0074
866.00,0.0075
865.00,0.0074
864.00,0.0074
863.00,0.0075
862.00,0.0077
861.00,0.0079
860.00,0.0081
859.00,0.0083
858.00,0.0084
857.00,0.0085
856.00,0.0086
855.00,0.0088
854.00,0.0090
853.00,0.0093
852.00,0.0097
851.00,0.0100
850.00,0.0103
849.00,0.0106
848.00,0.0110
847.00,0.0117
846.00,0.0128
845.00,0.0148
844.00,0.0175
843.00,0.0206
842.00,0.0230
841.00,0.0237
840.00,0.0223
839.00,0.0194
838.00,0.0164
837.00,0.0140
836.00,0.0124
835.00,0.0115
834.00,0.0109
833.00,0.0104
832.00,0.0101
831.00,0.0100
830.00,0.0099
829.00,0.0100
828.00,0.0100
827.00,0.0099
826.00,0.0098
825.00,0.0097
824.00,0.0097
823.00,0.0098
822.00,0.0100
821.00,0.0102
820.00,0.0104
819.00,0.0108
818.00,0.0114
817.00,0.0122
816.00,0.0132
815.00,0.0144
814.00,0.0159
813.00,0.0178
812.00,0.0200
811.00,0.0221
810.00,0.0236
809.00,0.0242
808.00,0.0236
807.00,0.0222
806.00,0.0201
805.00,0.0180
804.00,0.0161
803.00,0.0146
802.00,0.0135
801.00,0.0128
800.00,0.0124
799.00,0.0120
798.00,0.0116
797.00,0.0111
796.00,0.0107
795.00,0.0103
794.00,0.0100
793.00,0.0096
792.00,0.0092
791.00,0.0088
790.00,0.0084
789.00,0.0082
788.00,0.0080
787.00,0.0078
786.00,0.0075
785.00,0.0073
784.00,0.0071
783.00,0.0070
782.00,0.0070
781.00,0.0070
780.00,0.0069
779.00,0.0067
778.00,0.0066
777.00,0.0065
776.00,0.0065
775.00,0.0065
774.00,0.0066
773.00,0.0067
772.00,0.0067
771.00,0.0066
770.00,0.0065
769.00,0.0064
768.00,0.0064
767.00,0.0064
766.00,0.0064
765.00,0.0063
764.00,0.0064
763.00,0.0065
762.00,0.0067
761.00,0.0069
760.00,0.0069
759.00,0.0069
758.00,0.0070
757.00,0.0071
756.00,0.0073
755.00,0.0075
754.00,0.0076
753.00,0.0077
752.00,0.0078
751.00,0.0078
750.00,0.0078
749.00,0.0079
748.00,0.0081
747.00,0.0084
746.00,0.0087
745.00,0.0089
744.00,0.0090
743.00,0.0091
742.00,0.0092
741.00,0.0095
740.00,0.0098
739.00,0.0102
738.00,0.0106
737.00,0.0110
736.00,0.0114
735.00,0.0119
734.00,0.0124
733.00,0.0131
732.00,0.0138
731.00,0.0145
730.00,0.0151
729.00,0.0153
728.00,0.0155
727.00,0.0157
726.00,0.0160
725.00,0.0166
724.00,0.0172
723.00,0.0178
722.00,0.0184
721.00,0.0187
720.00,0.0186
719.00,0.0178
718.00,0.0165
717.00,0.0152
716.00,0.0140
715.00,0.0131
714.00,0.0125
713.00,0.0119
712.00,0.0115
711.00,0.0112
710.00,0.0110
709.00,0.0108
708.00,0.0108
707.00,0.0107
706.00,0.0106
705.00,0.0105
704.00,0.0103
703.00,0.0101
702.00,0.0099
701.00,0.0096
700.00,0.0095
699.00,0.0094
698.00,0.0094
697.00,0.0094
696.00,0.0096
695.00,0.0097
694.00,0.0098
693.00,0.0098
692.00,0.0097
691.00,0.0096
690.00,0.0095
689.00,0.0094
688.00,0.0093
687.00,0.0091
686.00,0.0090
685.00,0.0090
684.00,0.0092
683.00,0.0094
682.00,0.0097
681.00,0.0100
680.00,0.0101
679.00,0.0100
678.00,0.0099
677.00,0.0098
676.00,0.0098
675.00,0.0100
674.00,0.0103
673.00,0.0104
672.00,0.0104
671.00,0.0104
670.00,0.0104
669.00,0.0104
668.00,0.0101
667.00,0.0098
666.00,0.0096
665.00,0.0094
664.00,0.0092
663.00,0.0090
662.00,0.0089
661.00,0.0088
660.00,0.0088
659.00,0.0088
658.00,0.0089
657.00,0.0090
656.00,0.0091
655.00,0.0090
654.00,0.0089
653.00,0.0087
652.00,0.0086
651.00,0.0085
650.00,0.0085
649.00,0.0086
648.00,0.0087
647.00,0.0087
646.00,0.0087
645.00,0.0086
644.00,0.0085
643.00,0.0084
642.00,0.0083
641.00,0.0082
640.00,0.0083
639.00,0.0085
638.00,0.0087
637.00,0.0088
636.00,0.0089
635.00,0.0088
634.00,0.0086
633.00,0.0085
632.00,0.0085
631.00,0.0086
630.00,0.0086
629.00,0.0086
628.00,0.0085
627.00,0.0085
626.00,0.0086
625.00,0.0086
624.00,0.0087
623.00,0.0088
622.00,0.0089
621.00,0.0089
620.00,0.0086
619.00,0.0083
618.00,0.0080
617.00,0.0078
616.00,0.0077
615.00,0.0077
614.00,0.0078
613.00,0.0079
612.00,0.0080
611.00,0.0081
610.00,0.0084
609.00,0.0086
608.00,0.0086
607.00,0.0084
606.00,0.0083
605.00,0.0083
604.00,0.0084
603.00,0.0085
602.00,0.0086
601.00,0.0087
600.00,0.0086
599.00,0.0086
598.00,0.0086
597.00,0.0088
596.00,0.0089
595.00,0.0088
594.00,0.0086
593.00,0.0082
592.00,0.0079
591.00,0.0078
590.00,0.0080
589.00,0.0083
588.00,0.0086
587.00,0.0087
586.00,0.0088
585.00,0.0089
584.00,0.0091
583.00,0.0090
582.00,0.0087
581.00,0.0085
580.00,0.0084
579.00,0.0084
578.00,0.0084
577.00,0.0082
576.00,0.0079
575.00,0.0078
574.00,0.0078
573.00,0.0077
572.00,0.0075
571.00,0.0074
570.00,0.0073
569.00,0.0073
568.00,0.0072
567.00,0.0072
566.00,0.0073
565.00,0.0075
564.00,0.0078
563.00,0.0079
562.00,0.0081
561.00,0.0083
560.00,0.0086
559.00,0.0088
558.00,0.0087
557.00,0.0083
556.00,0.0080
555.00,0.0077
554.00,0.0075
553.00,0.0075
552.00,0.0075
551.00,0.0077
550.00,0.0080
549.00,0.0083
548.00,0.0085
547.00,0.0085
546.00,0.0084
545.00,0.0084
544.00,0.0085
543.00,0.0087
542.00,0.0090
541.00,0.0094
540.00,0.0097
539.00,0.0100
538.00,0.0101
537.00,0.0103
536.00,0.0105
535.00,0.0107
534.00,0.0110
533.00,0.0113
532.00,0.0115
531.00,0.0116
530.00,0.0115
529.00,0.0112
528.00,0.0108
527.00,0.0103
526.00,0.0098
525.00,0.0093
524.00,0.0090
523.00,0.0091
522.00,0.0094
521.00,0.0096
520.00,0.0094
519.00,0.0086
518.00,0.0076
517.00,0.0071
516.00,0.0074
515.00,0.0081
514.00,0.0086
513.00,0.0087
512.00,0.0085
511.00,0.0083
510.00,0.0083
509.00,0.0084
508.00,0.0083
507.00,0.0080
506.00,0.0078
505.00,0.0078
504.00,0.0080
503.00,0.0084
502.00,0.0088
501.00,0.0091
500.00,0.0093
499.00,0.0091
498.00,0.0085
497.00,0.0079
496.00,0.0076
495.00,0.0075
494.00,0.0073
493.00,0.0072
492.00,0.0073
491.00,0.0081
490.00,0.0089
489.00,0.0093
488.00,0.0091
487.00,0.0089
486.00,0.0094
485.00,0.0103
484.00,0.0109
483.00,0.0106
482.00,0.0097
481.00,0.0090
480.00,0.0091
479.00,0.0099
478.00,0.0108
477.00,0.0112
476.00,0.0110
475.00,0.0108
474.00,0.0111
473.00,0.0118
472.00,0.0122
471.00,0.0123
470.00,0.0125
469.00,0.0134
468.00,0.0151
467.00,0.0168
466.00,0.0181
465.00,0.0192
464.00,0.0204
463.00,0.0214
462.00,0.0218
461.00,0.0215
460.00,0.0211
459.00,0.0212
458.00,0.0220
457.00,0.0232
456.00,0.0236
455.00,0.0225
454.00,0.0202
453.00,0.0175
452.00,0.0154
451.00,0.0144
450.00,0.0142
