Created as New Dataset,Sample 109 By Administrator Date Wednesday, September 03 2025
cm-1,A
4000.00,0.0012
3999.00,0.0012
3998.00,0.0012
3997.00,0.0012
3996.00,0.0012
3995.00,0.0013
3994.00,0.0012
3993.00,0.0012
3992.00,0.0012
3991.00,0.0012
3990.00,0.0011
3989.00,0.0011
3988.00,0.0011
3987.00,0.0012
3986.00,0.0012
3985.00,0.0012
3984.00,0.0012
3983.00,0.0012
3982.00,0.0011
3981.00,0.0011
3980.00,0.0011
3979.00,0.0010
3978.00,0.0010
3977.00,0.0010
3976.00,0.0010
3975.00,0.0010
3974.00,0.0010
3973.00,0.0010
3972.00,0.0010
3971.00,0.0010
3970.00,0.0010
3969.00,0.0010
3968.00,0.0010
3967.00,0.0010
3966.00,0.0010
3965.00,0.0010
3964.00,0.0010
3963.00,0.0011
3962.00,0.0011
3961.00,0.0011
3960.00,0.0011
3959.00,0.0011
3958.00,0.0011
3957.00,0.0010
3956.00,0.0010
3955.00,0.0010
3954.00,0.0009
3953.00,0.0009
3952.00,0.0009
3951.00,0.0009
3950.00,0.0009
3949.00,0.0009
3948.00,0.0009
3947.00,0.0010
3946.00,0.0010
3945.00,0.0009
3944.00,0.0009
3943.00,0.0009
3942.00,0.0009
3941.00,0.0010
3940.00,0.0010
3939.00,0.0010
3938.00,0.0011
3937.00,0.0011
3936.00,0.0011
3935.00,0.0011
3934.00,0.0011
3933.00,0.0011
3932.00,0.0011
3931.00,0.0011
3930.00,0.0010
3929.00,0.0010
3928.00,0.0011
3927.00,0.0011
3926.00,0.0011
3925.00,0.0011
3924.00,0.0011
3923.00,0.0011
3922.00,0.0010
3921.00,0.0010
3920.00,0.0010
3919.00,0.0010
3918.00,0.0010
3917.00,0.0010
3916.00,0.0010
3915.00,0.0010
3914.00,0.0010
3913.00,0.0009
3912.00,0.0009
3911.00,0.0009
3910.00,0.0010
3909.00,0.0010
3908.00,0.0009
3907.00,0.0009
3906.00,0.0010
3905.00,0.0010
3904.00,0.0010
3903.00,0.0010
3902.00,0.0010
3901.00,0.0010
3900.00,0.0009
3899.00,0.0009
3898.00,0.0009
3897.00,0.0009
3896.00,0.0010
3895.00,0.0010
3894.00,0.0010
3893.00,0.0011
3892.00,0.0011
3891.00,0.0011
3890.00,0.0010
3889.00,0.0010
3888.00,0.0010
3887.00,0.0010
3886.00,0.0010
3885.00,0.0009
3884.00,0.0009
3883.00,0.0009
3882.00,0.0009
3881.00,0.0009
3880.00,0.0009
3879.00,0.0009
3878.00,0.0010
3877.00,0.0010
3876.00,0.0010
3875.00,0.0010
3874.00,0.0010
3873.00,0.0010
3872.00,0.0010
3871.00,0.0010
3870.00,0.0009
3869.00,0.0009
3868.00,0.0009
3867.00,0.0009
3866.00,0.0008
3865.00,0.0008
3864.00,0.0008
3863.00,0.0008
3862.00,0.0009
3861.00,0.0009
3860.00,0.0009
3859.00,0.0010
3858.00,0.0010
3857.00,0.0010
3856.00,0.0010
3855.00,0.0010
3854.00,0.0009
3853.00,0.0009
3852.00,0.0009
3851.00,0.0009
3850.00,0.0009
3849.00,0.0009
3848.00,0.0009
3847.00,0.0009
3846.00,0.0009
3845.00,0.0009
3844.00,0.0009
3843.00,0.0008
3842.00,0.0008
3841.00,0.0008
3840.00,0.0009
3839.00,0.0009
3838.00,0.0010
3837.00,0.0010
3836.00,0.0009
3835.00,0.0009
3834.00,0.0009
3833.00,0.0009
3832.00,0.0009
3831.00,0.0009
3830.00,0.0009
3829.00,0.0009
3828.00,0.0010
3827.00,0.0010
3826.00,0.0010
3825.00,0.0010
3824.00,0.0010
3823.00,0.0009
3822.00,0.0009
3821.00,0.0009
3820.00,0.0009
3819.00,0.0009
3818.00,0.0010
3817.00,0.0010
3816.00,0.0010
3815.00,0.0009
3814.00,0.0009
3813.00,0.0009
3812.00,0.0009
3811.00,0.0009
3810.00,0.0010
3809.00,0.0010
3808.00,0.0010
3807.00,0.0009
3806.00,0.0009
3805.00,0.0009
3804.00,0.0009
3803.00,0.0009
3802.00,0.0009
3801.00,0.0010
3800.00,0.0010
3799.00,0.0010
3798.00,0.0010
3797.00,0.0010
3796.00,0.0010
3795.00,0.0009
3794.00,0.0009
3793.00,0.0009
3792.00,0.0009
3791.00,0.0009
3790.00,0.0009
3789.00,0.0009
3788.00,0.0009
3787.00,0.0009
3786.00,0.0010
3785.00,0.0009
3784.00,0.0009
3783.00,0.0009
3782.00,0.0009
3781.00,0.0009
3780.00,0.0009
3779.00,0.0009
3778.00,0.0009
3777.00,0.0009
3776.00,0.0009
3775.00,0.0009
3774.00,0.0009
3773.00,0.0009
3772.00,0.0009
3771.00,0.0009
3770.00,0.0009
3769.00,0.0009
3768.00,0.0010
3767.00,0.0010
3766.00,0.0010
3765.00,0.0011
3764.00,0.0011
3763.00,0.0011
3762.00,0.0010
3761.00,0.0010
3760.00,0.0010
3759.00,0.0010
3758.00,0.0010
3757.00,0.0009
3756.00,0.0009
3755.00,0.0009
3754.00,0.0009
3753.00,0.0010
3752.00,0.0010
3751.00,0.0011
3750.00,0.0011
3749.00,0.0011
3748.00,0.0011
3747.00,0.0011
3746.00,0.0011
3745.00,0.0010
3744.00,0.0010
3743.00,0.0009
3742.00,0.0009
3741.00,0.0008
3740.00,0.0007
3739.00,0.0007
3738.00,0.0006
3737.00,0.0006
3736.00,0.0006
3735.00,0.0006
3734.00,0.0006
3733.00,0.0006
3732.00,0.0006
3731.00,0.0007
3730.00,0.0007
3729.00,0.0007
3728.00,0.0007
3727.00,0.0007
3726.00,0.0007
3725.00,0.0008
3724.00,0.0008
3723.00,0.0008
3722.00,0.0008
3721.00,0.0008
3720.00,0.0007
3719.00,0.0007
3718.00,0.0007
3717.00,0.0007
3716.00,0.0007
3715.00,0.0007
3714.00,0.0007
3713.00,0.0007
3712.00,0.0007
3711.00,0.0007
3710.00,0.0007
3709.00,0.0007
3708.00,0.0006
3707.00,0.0007
3706.00,0.0007
3705.00,0.0007
3704.00,0.0008
3703.00,0.0008
3702.00,0.0008
3701.00,0.0008
3700.00,0.0008
3699.00,0.0007
3698.00,0.0007
3697.00,0.0007
3696.00,0.0006
3695.00,0.0006
3694.00,0.0007
3693.00,0.0007
3692.00,0.0007
3691.00,0.0007
3690.00,0.0007
3689.00,0.0007
3688.00,0.0007
3687.00,0.0007
3686.00,0.0007
3685.00,0.0007
3684.00,0.0006
3683.00,0.0007
3682.00,0.0007
3681.00,0.0007
3680.00,0.0008
3679.00,0.0008
3678.00,0.0008
3677.00,0.0009
3676.00,0.0009
3675.00,0.0009
3674.00,0.0009
3673.00,0.0009
3672.00,0.0009
3671.00,0.0009
3670.00,0.0008
3669.00,0.0008
3668.00,0.0008
3667.00,0.0008
3666.00,0.0008
3665.00,0.0008
3664.00,0.0007
3663.00,0.0007
3662.00,0.0007
3661.00,0.0007
3660.00,0.0007
3659.00,0.0007
3658.00,0.0007
3657.00,0.0008
3656.00,0.0008
3655.00,0.0009
3654.00,0.0009
3653.00,0.0009
3652.00,0.0008
3651.00,0.0008
3650.00,0.0007
3649.00,0.0007
3648.00,0.0007
3647.00,0.0008
3646.00,0.0008
3645.00,0.0008
3644.00,0.0008
3643.00,0.0007
3642.00,0.0007
3641.00,0.0007
3640.00,0.0006
3639.00,0.0006
3638.00,0.0006
3637.00,0.0007
3636.00,0.0007
3635.00,0.0007
3634.00,0.0006
3633.00,0.0006
3632.00,0.0006
3631.00,0.0006
3630.00,0.0007
3629.00,0.0007
3628.00,0.0007
3627.00,0.0006
3626.00,0.0006
3625.00,0.0006
3624.00,0.0006
3623.00,0.0006
3622.00,0.0007
3621.00,0.0006
3620.00,0.0006
3619.00,0.0006
3618.00,0.0006
3617.00,0.0006
3616.00,0.0005
3615.00,0.0005
3614.00,0.0005
3613.00,0.0006
3612.00,0.0006
3611.00,0.0007
3610.00,0.0007
3609.00,0.0007
3608.00,0.0007
3607.00,0.0007
3606.00,0.0007
3605.00,0.0006
3604.00,0.0006
3603.00,0.0006
3602.00,0.0007
3601.00,0.0007
3600.00,0.0007
3599.00,0.0007
3598.00,0.0007
3597.00,0.0006
3596.00,0.0006
3595.00,0.0006
3594.00,0.0006
3593.00,0.0006
3592.00,0.0007
3591.00,0.0008
3590.00,0.0008
3589.00,0.0008
3588.00,0.0007
3587.00,0.0006
3586.00,0.0006
3585.00,0.0006
3584.00,0.0006
3583.00,0.0006
3582.00,0.0006
3581.00,0.0006
3580.00,0.0006
3579.00,0.0007
3578.00,0.0007
3577.00,0.0007
3576.00,0.0008
3575.00,0.0008
3574.00,0.0008
3573.00,0.0008
3572.00,0.0008
3571.00,0.0008
3570.00,0.0008
3569.00,0.0008
3568.00,0.0008
3567.00,0.0008
3566.00,0.0008
3565.00,0.0008
3564.00,0.0008
3563.00,0.0009
3562.00,0.0009
3561.00,0.0009
3560.00,0.0009
3559.00,0.0008
3558.00,0.0008
3557.00,0.0008
3556.00,0.0008
3555.00,0.0008
3554.00,0.0009
3553.00,0.0009
3552.00,0.0009
3551.00,0.0009
3550.00,0.0009
3549.00,0.0009
3548.00,0.0009
3547.00,0.0009
3546.00,0.0009
3545.00,0.0010
3544.00,0.0010
3543.00,0.0010
3542.00,0.0010
3541.00,0.0010
3540.00,0.0011
3539.00,0.0011
3538.00,0.0011
3537.00,0.0012
3536.00,0.0012
3535.00,0.0011
3534.00,0.0011
3533.00,0.0011
3532.00,0.0011
3531.00,0.0011
3530.00,0.0011
3529.00,0.0011
3528.00,0.0011
3527.00,0.0012
3526.00,0.0012
3525.00,0.0012
3524.00,0.0012
3523.00,0.0012
3522.00,0.0012
3521.00,0.0012
3520.00,0.0012
3519.00,0.0012
3518.00,0.0012
3517.00,0.0012
3516.00,0.0012
3515.00,0.0013
3514.00,0.0012
3513.00,0.0012
3512.00,0.0012
3511.00,0.0012
3510.00,0.0013
3509.00,0.0013
3508.00,0.0013
3507.00,0.0012
3506.00,0.0012
3505.00,0.0012
3504.00,0.0012
3503.00,0.0012
3502.00,0.0012
3501.00,0.0013
3500.00,0.0013
3499.00,0.0014
3498.00,0.0014
3497.00,0.0014
3496.00,0.0014
3495.00,0.0013
3494.00,0.0013
3493.00,0.0013
3492.00,0.0013
3491.00,0.0014
3490.00,0.0014
3489.00,0.0014
3488.00,0.0014
3487.00,0.0015
3486.00,0.0014
3485.00,0.0014
3484.00,0.0014
3483.00,0.0014
3482.00,0.0014
3481.00,0.0015
3480.00,0.0015
3479.00,0.0015
3478.00,0.0015
3477.00,0.0015
3476.00,0.0015
3475.00,0.0015
3474.00,0.0015
3473.00,0.0015
3472.00,0.0015
3471.00,0.0015
3470.00,0.0016
3469.00,0.0016
3468.00,0.0016
3467.00,0.0016
3466.00,0.0015
3465.00,0.0015
3464.00,0.0015
3463.00,0.0016
3462.00,0.0016
3461.00,0.0016
3460.00,0.0016
3459.00,0.0016
3458.00,0.0016
3457.00,0.0016
3456.00,0.0017
3455.00,0.0017
3454.00,0.0017
3453.00,0.0018
3452.00,0.0018
3451.00,0.0018
3450.00,0.0018
3449.00,0.0017
3448.00,0.0017
3447.00,0.0017
3446.00,0.0018
3445.00,0.0018
3444.00,0.0018
3443.00,0.0018
3442.00,0.0018
3441.00,0.0018
3440.00,0.0018
3439.00,0.0019
3438.00,0.0019
3437.00,0.0019
3436.00,0.0019
3435.00,0.0019
3434.00,0.0019
3433.00,0.0019
3432.00,0.0019
3431.00,0.0019
3430.00,0.0019
3429.00,0.0019
3428.00,0.0019
3427.00,0.0019
3426.00,0.0020
3425.00,0.0020
3424.00,0.0020
3423.00,0.0020
3422.00,0.0020
3421.00,0.0020
3420.00,0.0020
3419.00,0.0020
3418.00,0.0020
3417.00,0.0020
3416.00,0.0020
3415.00,0.0021
3414.00,0.0021
3413.00,0.0021
3412.00,0.0021
3411.00,0.0021
3410.00,0.0021
3409.00,0.0021
3408.00,0.0021
3407.00,0.0022
3406.00,0.0022
3405.00,0.0022
3404.00,0.0023
3403.00,0.0023
3402.00,0.0023
3401.00,0.0023
3400.00,0.0022
3399.00,0.0022
3398.00,0.0022
3397.00,0.0022
3396.00,0.0022
3395.00,0.0022
3394.00,0.0022
3393.00,0.0022
3392.00,0.0022
3391.00,0.0022
3390.00,0.0022
3389.00,0.0022
3388.00,0.0022
3387.00,0.0022
3386.00,0.0022
3385.00,0.0022
3384.00,0.0022
3383.00,0.0022
3382.00,0.0022
3381.00,0.0022
3380.00,0.0021
3379.00,0.0021
3378.00,0.0021
3377.00,0.0022
3376.00,0.0022
3375.00,0.0022
3374.00,0.0022
3373.00,0.0022
3372.00,0.0022
3371.00,0.0022
3370.00,0.0022
3369.00,0.0022
3368.00,0.0021
3367.00,0.0021
3366.00,0.0021
3365.00,0.0021
3364.00,0.0021
3363.00,0.0021
3362.00,0.0022
3361.00,0.0022
3360.00,0.0022
3359.00,0.0022
3358.00,0.0022
3357.00,0.0023
3356.00,0.0023
3355.00,0.0023
3354.00,0.0023
3353.00,0.0023
3352.00,0.0023
3351.00,0.0023
3350.00,0.0023
3349.00,0.0023
3348.00,0.0022
3347.00,0.0023
3346.00,0.0023
3345.00,0.0023
3344.00,0.0023
3343.00,0.0024
3342.00,0.0023
3341.00,0.0023
3340.00,0.0023
3339.00,0.0023
3338.00,0.0023
3337.00,0.0023
3336.00,0.0022
3335.00,0.0022
3334.00,0.0022
3333.00,0.0022
3332.00,0.0022
3331.00,0.0022
3330.00,0.0021
3329.00,0.0021
3328.00,0.0021
3327.00,0.0021
3326.00,0.0021
3325.00,0.0021
3324.00,0.0021
3323.00,0.0021
3322.00,0.0021
3321.00,0.0021
3320.00,0.0021
3319.00,0.0021
3318.00,0.0021
3317.00,0.0021
3316.00,0.0022
3315.00,0.0022
3314.00,0.0022
3313.00,0.0023
3312.00,0.0023
3311.00,0.0022
3310.00,0.0022
3309.00,0.0022
3308.00,0.0023
3307.00,0.0023
3306.00,0.0023
3305.00,0.0023
3304.00,0.0023
3303.00,0.0023
3302.00,0.0023
3301.00,0.0023
3300.00,0.0023
3299.00,0.0023
3298.00,0.0023
3297.00,0.0023
3296.00,0.0023
3295.00,0.0023
3294.00,0.0023
3293.00,0.0023
3292.00,0.0023
3291.00,0.0023
3290.00,0.0022
3289.00,0.0022
3288.00,0.0021
3287.00,0.0021
3286.00,0.0021
3285.00,0.0021
3284.00,0.0021
3283.00,0.0021
3282.00,0.0022
3281.00,0.0022
3280.00,0.0022
3279.00,0.0021
3278.00,0.0021
3277.00,0.0021
3276.00,0.0022
3275.00,0.0022
3274.00,0.0022
3273.00,0.0021
3272.00,0.0021
3271.00,0.0021
3270.00,0.0021
3269.00,0.0021
3268.00,0.0021
3267.00,0.0021
3266.00,0.0021
3265.00,0.0021
3264.00,0.0021
3263.00,0.0021
3262.00,0.0021
3261.00,0.0021
3260.00,0.0021
3259.00,0.0021
3258.00,0.0021
3257.00,0.0021
3256.00,0.0020
3255.00,0.0020
3254.00,0.0020
3253.00,0.0020
3252.00,0.0020
3251.00,0.0021
3250.00,0.0021
3249.00,0.0021
3248.00,0.0020
3247.00,0.0020
3246.00,0.0020
3245.00,0.0020
3244.00,0.0020
3243.00,0.0021
3242.00,0.0021
3241.00,0.0021
3240.00,0.0022
3239.00,0.0022
3238.00,0.0022
3237.00,0.0022
3236.00,0.0022
3235.00,0.0022
3234.00,0.0022
3233.00,0.0022
3232.00,0.0022
3231.00,0.0022
3230.00,0.0022
3229.00,0.0022
3228.00,0.0022
3227.00,0.0023
3226.00,0.0023
3225.00,0.0023
3224.00,0.0023
3223.00,0.0023
3222.00,0.0023
3221.00,0.0023
3220.00,0.0024
3219.00,0.0024
3218.00,0.0024
3217.00,0.0024
3216.00,0.0024
3215.00,0.0024
3214.00,0.0025
3213.00,0.0025
3212.00,0.0025
3211.00,0.0026
3210.00,0.0026
3209.00,0.0026
3208.00,0.0026
3207.00,0.0026
3206.00,0.0026
3205.00,0.0027
3204.00,0.0027
3203.00,0.0027
3202.00,0.0027
3201.00,0.0027
3200.00,0.0027
3199.00,0.0027
3198.00,0.0027
3197.00,0.0028
3196.00,0.0028
3195.00,0.0028
3194.00,0.0028
3193.00,0.0028
3192.00,0.0028
3191.00,0.0028
3190.00,0.0028
3189.00,0.0028
3188.00,0.0028
3187.00,0.0027
3186.00,0.0027
3185.00,0.0027
3184.00,0.0026
3183.00,0.0027
3182.00,0.0027
3181.00,0.0027
3180.00,0.0026
3179.00,0.0026
3178.00,0.0025
3177.00,0.0025
3176.00,0.0025
3175.00,0.0025
3174.00,0.0025
3173.00,0.0026
3172.00,0.0026
3171.00,0.0026
3170.00,0.0026
3169.00,0.0026
3168.00,0.0026
3167.00,0.0025
3166.00,0.0025
3165.00,0.0025
3164.00,0.0025
3163.00,0.0025
3162.00,0.0025
3161.00,0.0025
3160.00,0.0025
3159.00,0.0025
3158.00,0.0025
3157.00,0.0025
3156.00,0.0025
3155.00,0.0025
3154.00,0.0025
3153.00,0.0025
3152.00,0.0025
3151.00,0.0025
3150.00,0.0025
3149.00,0.0026
3148.00,0.0025
3147.00,0.0025
3146.00,0.0025
3145.00,0.0025
3144.00,0.0025
3143.00,0.0026
3142.00,0.0026
3141.00,0.0026
3140.00,0.0026
3139.00,0.0025
3138.00,0.0025
3137.00,0.0024
3136.00,0.0024
3135.00,0.0025
3134.00,0.0025
3133.00,0.0025
3132.00,0.0025
3131.00,0.0024
3130.00,0.0024
3129.00,0.0024
3128.00,0.0024
3127.00,0.0023
3126.00,0.0023
3125.00,0.0023
3124.00,0.0023
3123.00,0.0023
3122.00,0.0023
3121.00,0.0023
3120.00,0.0022
3119.00,0.0022
3118.00,0.0022
3117.00,0.0022
3116.00,0.0022
3115.00,0.0022
3114.00,0.0023
3113.00,0.0023
3112.00,0.0022
3111.00,0.0022
3110.00,0.0022
3109.00,0.0021
3108.00,0.0021
3107.00,0.0021
3106.00,0.0022
3105.00,0.0022
3104.00,0.0022
3103.00,0.0022
3102.00,0.0021
3101.00,0.0021
3100.00,0.0021
3099.00,0.0021
3098.00,0.0022
3097.00,0.0022
3096.00,0.0022
3095.00,0.0021
3094.00,0.0021
3093.00,0.0021
3092.00,0.0021
3091.00,0.0022
3090.00,0.0022
3089.00,0.0022
3088.00,0.0022
3087.00,0.0022
3086.00,0.0022
3085.00,0.0022
3084.00,0.0022
3083.00,0.0022
3082.00,0.0022
3081.00,0.0022
3080.00,0.0023
3079.00,0.0023
3078.00,0.0023
3077.00,0.0023
3076.00,0.0023
3075.00,0.0023
3074.00,0.0023
3073.00,0.0024
3072.00,0.0024
3071.00,0.0024
3070.00,0.0023
3069.00,0.0024
3068.00,0.0024
3067.00,0.0024
3066.00,0.0024
3065.00,0.0024
3064.00,0.0025
3063.00,0.0025
3062.00,0.0025
3061.00,0.0025
3060.00,0.0025
3059.00,0.0026
3058.00,0.0026
3057.00,0.0026
3056.00,0.0027
3055.00,0.0027
3054.00,0.0027
3053.00,0.0027
3052.00,0.0027
3051.00,0.0027
3050.00,0.0027
3049.00,0.0027
3048.00,0.0027
3047.00,0.0028
3046.00,0.0028
3045.00,0.0029
3044.00,0.0029
3043.00,0.0029
3042.00,0.0029
3041.00,0.0029
3040.00,0.0029
3039.00,0.0030
3038.00,0.0030
3037.00,0.0030
3036.00,0.0031
3035.00,0.0031
3034.00,0.0031
3033.00,0.0031
3032.00,0.0032
3031.00,0.0032
3030.00,0.0032
3029.00,0.0033
3028.00,0.0033
3027.00,0.0034
3026.00,0.0035
3025.00,0.0036
3024.00,0.0036
3023.00,0.0037
3022.00,0.0037
3021.00,0.0038
3020.00,0.0040
3019.00,0.0041
3018.00,0.0042
3017.00,0.0043
3016.00,0.0044
3015.00,0.0045
3014.00,0.0047
3013.00,0.0048
3012.00,0.0050
3011.00,0.0052
3010.00,0.0054
3009.00,0.0056
3008.00,0.0057
3007.00,0.0059
3006.00,0.0061
3005.00,0.0064
3004.00,0.0066
3003.00,0.0069
3002.00,0.0072
3001.00,0.0075
3000.00,0.0078
2999.00,0.0081
2998.00,0.0085
2997.00,0.0088
2996.00,0.0092
2995.00,0.0096
2994.00,0.0101
2993.00,0.0106
2992.00,0.0111
2991.00,0.0116
2990.00,0.0122
2989.00,0.0130
2988.00,0.0138
2987.00,0.0147
2986.00,0.0158
2985.00,0.0169
2984.00,0.0183
2983.00,0.0197
2982.00,0.0213
2981.00,0.0230
2980.00,0.0248
2979.00,0.0269
2978.00,0.0292
2977.00,0.0319
2976.00,0.0350
2975.00,0.0386
2974.00,0.0428
2973.00,0.0475
2972.00,0.0528
2971.00,0.0587
2970.00,0.0652
2969.00,0.0722
2968.00,0.0799
2967.00,0.0879
2966.00,0.0963
2965.00,0.1047
2964.00,0.1127
2963.00,0.1201
2962.00,0.1265
2961.00,0.1317
2960.00,0.1361
2959.00,0.1400
2958.00,0.1440
2957.00,0.1487
2956.00,0.1546
2955.00,0.1618
2954.00,0.1700
2953.00,0.1786
2952.00,0.1864
2951.00,0.1921
2950.00,0.1944
2949.00,0.1925
2948.00,0.1861
2947.00,0.1761
2946.00,0.1635
2945.00,0.1502
2944.00,0.1374
2943.00,0.1264
2942.00,0.1179
2941.00,0.1119
2940.00,0.1086
2939.00,0.1076
2938.00,0.1087
2937.00,0.1117
2936.00,0.1163
2935.00,0.1225
2934.00,0.1302
2933.00,0.1391
2932.00,0.1492
2931.00,0.1603
2930.00,0.1721
2929.00,0.1845
2928.00,0.1969
2927.00,0.2091
2926.00,0.2210
2925.00,0.2326
2924.00,0.2439
2923.00,0.2553
2922.00,0.2665
2921.00,0.2774
2920.00,0.2872
2919.00,0.2948
2918.00,0.2987
2917.00,0.2982
2916.00,0.2931
2915.00,0.2841
2914.00,0.2725
2913.00,0.2598
2912.00,0.2473
2911.00,0.2357
2910.00,0.2254
2909.00,0.2161
2908.00,0.2077
2907.00,0.1998
2906.00,0.1922
2905.00,0.1847
2904.00,0.1772
2903.00,0.1699
2902.00,0.1627
2901.00,0.1557
2900.00,0.1491
2899.00,0.1429
2898.00,0.1371
2897.00,0.1318
2896.00,0.1271
2895.00,0.1229
2894.00,0.1193
2893.00,0.1164
2892.00,0.1141
2891.00,0.1124
2890.00,0.1112
2889.00,0.1105
2888.00,0.1102
2887.00,0.1102
2886.00,0.1105
2885.00,0.1113
2884.00,0.1124
2883.00,0.1141
2882.00,0.1163
2881.00,0.1187
2880.00,0.1212
2879.00,0.1232
2878.00,0.1245
2877.00,0.1249
2876.00,0.1244
2875.00,0.1236
2874.00,0.1229
2873.00,0.1229
2872.00,0.1236
2871.00,0.1251
2870.00,0.1271
2869.00,0.1291
2868.00,0.1303
2867.00,0.1300
2866.00,0.1273
2865.00,0.1223
2864.00,0.1152
2863.00,0.1070
2862.00,0.0989
2861.00,0.0917
2860.00,0.0860
2859.00,0.0821
2858.00,0.0798
2857.00,0.0789
2856.00,0.0791
2855.00,0.0801
2854.00,0.0817
2853.00,0.0836
2852.00,0.0857
2851.00,0.0877
2850.00,0.0892
2849.00,0.0904
2848.00,0.0915
2847.00,0.0929
2846.00,0.0951
2845.00,0.0984
2844.00,0.1027
2843.00,0.1077
2842.00,0.1131
2841.00,0.1182
2840.00,0.1221
2839.00,0.1241
2838.00,0.1234
2837.00,0.1197
2836.00,0.1131
2835.00,0.1040
2834.00,0.0935
2833.00,0.0826
2832.00,0.0723
2831.00,0.0632
2830.00,0.0554
2829.00,0.0490
2828.00,0.0439
2827.00,0.0397
2826.00,0.0363
2825.00,0.0335
2824.00,0.0311
2823.00,0.0291
2822.00,0.0274
2821.00,0.0260
2820.00,0.0247
2819.00,0.0236
2818.00,0.0227
2817.00,0.0219
2816.00,0.0212
2815.00,0.0205
2814.00,0.0199
2813.00,0.0192
2812.00,0.0186
2811.00,0.0180
2810.00,0.0174
2809.00,0.0169
2808.00,0.0163
2807.00,0.0157
2806.00,0.0150
2805.00,0.0144
2804.00,0.0137
2803.00,0.0131
2802.00,0.0126
2801.00,0.0121
2800.00,0.0117
2799.00,0.0114
2798.00,0.0111
2797.00,0.0109
2796.00,0.0107
2795.00,0.0105
2794.00,0.0102
2793.00,0.0099
2792.00,0.0096
2791.00,0.0093
2790.00,0.0090
2789.00,0.0086
2788.00,0.0083
2787.00,0.0081
2786.00,0.0078
2785.00,0.0076
2784.00,0.0073
2783.00,0.0071
2782.00,0.0070
2781.00,0.0068
2780.00,0.0066
2779.00,0.0064
2778.00,0.0063
2777.00,0.0061
2776.00,0.0060
2775.00,0.0059
2774.00,0.0058
2773.00,0.0057
2772.00,0.0057
2771.00,0.0057
2770.00,0.0057
2769.00,0.0056
2768.00,0.0056
2767.00,0.0055
2766.00,0.0055
2765.00,0.0054
2764.00,0.0054
2763.00,0.0054
2762.00,0.0054
2761.00,0.0054
2760.00,0.0053
2759.00,0.0052
2758.00,0.0052
2757.00,0.0052
2756.00,0.0052
2755.00,0.0052
2754.00,0.0052
2753.00,0.0052
2752.00,0.0052
2751.00,0.0051
2750.00,0.0051
2749.00,0.0051
2748.00,0.0051
2747.00,0.0051
2746.00,0.0052
2745.00,0.0052
2744.00,0.0053
2743.00,0.0054
2742.00,0.0055
2741.00,0.0056
2740.00,0.0057
2739.00,0.0059
2738.00,0.0060
2737.00,0.0061
2736.00,0.0062
2735.00,0.0064
2734.00,0.0065
2733.00,0.0067
2732.00,0.0069
2731.00,0.0071
2730.00,0.0074
2729.00,0.0076
2728.00,0.0079
2727.00,0.0082
2726.00,0.0085
2725.00,0.0087
2724.00,0.0088
2723.00,0.0089
2722.00,0.0088
2721.00,0.0086
2720.00,0.0083
2719.00,0.0080
2718.00,0.0077
2717.00,0.0073
2716.00,0.0070
2715.00,0.0068
2714.00,0.0065
2713.00,0.0063
2712.00,0.0061
2711.00,0.0060
2710.00,0.0058
2709.00,0.0056
2708.00,0.0055
2707.00,0.0053
2706.00,0.0052
2705.00,0.0050
2704.00,0.0049
2703.00,0.0048
2702.00,0.0047
2701.00,0.0047
2700.00,0.0046
2699.00,0.0046
2698.00,0.0045
2697.00,0.0045
2696.00,0.0045
2695.00,0.0045
2694.00,0.0045
2693.00,0.0045
2692.00,0.0045
2691.00,0.0045
2690.00,0.0045
2689.00,0.0045
2688.00,0.0044
2687.00,0.0044
2686.00,0.0045
2685.00,0.0045
2684.00,0.0045
2683.00,0.0045
2682.00,0.0045
2681.00,0.0045
2680.00,0.0046
2679.00,0.0046
2678.00,0.0046
2677.00,0.0046
2676.00,0.0046
2675.00,0.0046
2674.00,0.0046
2673.00,0.0046
2672.00,0.0046
2671.00,0.0046
2670.00,0.0045
2669.00,0.0045
2668.00,0.0045
2667.00,0.0045
2666.00,0.0046
2665.00,0.0046
2664.00,0.0047
2663.00,0.0048
2662.00,0.0048
2661.00,0.0049
2660.00,0.0049
2659.00,0.0049
2658.00,0.0048
2657.00,0.0048
2656.00,0.0048
2655.00,0.0047
2654.00,0.0047
2653.00,0.0046
2652.00,0.0046
2651.00,0.0045
2650.00,0.0045
2649.00,0.0045
2648.00,0.0044
2647.00,0.0043
2646.00,0.0043
2645.00,0.0042
2644.00,0.0041
2643.00,0.0041
2642.00,0.0040
2641.00,0.0040
2640.00,0.0040
2639.00,0.0040
2638.00,0.0040
2637.00,0.0040
2636.00,0.0040
2635.00,0.0039
2634.00,0.0039
2633.00,0.0038
2632.00,0.0038
2631.00,0.0039
2630.00,0.0039
2629.00,0.0040
2628.00,0.0040
2627.00,0.0041
2626.00,0.0041
2625.00,0.0041
2624.00,0.0041
2623.00,0.0041
2622.00,0.0040
2621.00,0.0039
2620.00,0.0039
2619.00,0.0039
2618.00,0.0039
2617.00,0.0040
2616.00,0.0040
2615.00,0.0040
2614.00,0.0039
2613.00,0.0039
2612.00,0.0039
2611.00,0.0039
2610.00,0.0039
2609.00,0.0038
2608.00,0.0037
2607.00,0.0036
2606.00,0.0036
2605.00,0.0035
2604.00,0.0034
2603.00,0.0034
2602.00,0.0034
2601.00,0.0033
2600.00,0.0033
2599.00,0.0033
2598.00,0.0033
2597.00,0.0033
2596.00,0.0032
2595.00,0.0032
2594.00,0.0033
2593.00,0.0033
2592.00,0.0034
2591.00,0.0035
2590.00,0.0036
2589.00,0.0037
2588.00,0.0038
2587.00,0.0038
2586.00,0.0039
2585.00,0.0039
2584.00,0.0040
2583.00,0.0041
2582.00,0.0041
2581.00,0.0041
2580.00,0.0040
2579.00,0.0039
2578.00,0.0037
2577.00,0.0035
2576.00,0.0034
2575.00,0.0033
2574.00,0.0032
2573.00,0.0031
2572.00,0.0030
2571.00,0.0029
2570.00,0.0028
2569.00,0.0028
2568.00,0.0027
2567.00,0.0027
2566.00,0.0026
2565.00,0.0026
2564.00,0.0025
2563.00,0.0025
2562.00,0.0024
2561.00,0.0024
2560.00,0.0025
2559.00,0.0024
2558.00,0.0024
2557.00,0.0023
2556.00,0.0023
2555.00,0.0023
2554.00,0.0024
2553.00,0.0024
2552.00,0.0023
2551.00,0.0023
2550.00,0.0022
2549.00,0.0021
2548.00,0.0021
2547.00,0.0021
2546.00,0.0020
2545.00,0.0020
2544.00,0.0019
2543.00,0.0019
2542.00,0.0019
2541.00,0.0018
2540.00,0.0017
2539.00,0.0017
2538.00,0.0017
2537.00,0.0017
2536.00,0.0017
2535.00,0.0017
2534.00,0.0017
2533.00,0.0018
2532.00,0.0017
2531.00,0.0017
2530.00,0.0016
2529.00,0.0015
2528.00,0.0015
2527.00,0.0014
2526.00,0.0014
2525.00,0.0014
2524.00,0.0014
2523.00,0.0014
2522.00,0.0014
2521.00,0.0013
2520.00,0.0013
2519.00,0.0013
2518.00,0.0013
2517.00,0.0013
2516.00,0.0013
2515.00,0.0013
2514.00,0.0013
2513.00,0.0012
2512.00,0.0012
2511.00,0.0011
2510.00,0.0011
2509.00,0.0011
2508.00,0.0011
2507.00,0.0010
2506.00,0.0010
2505.00,0.0010
2504.00,0.0010
2503.00,0.0010
2502.00,0.0010
2501.00,0.0011
2500.00,0.0011
2499.00,0.0011
2498.00,0.0011
2497.00,0.0011
2496.00,0.0012
2495.00,0.0012
2494.00,0.0012
2493.00,0.0011
2492.00,0.0011
2491.00,0.0011
2490.00,0.0011
2489.00,0.0011
2488.00,0.0012
2487.00,0.0012
2486.00,0.0012
2485.00,0.0011
2484.00,0.0011
2483.00,0.0011
2482.00,0.0011
2481.00,0.0011
2480.00,0.0011
2479.00,0.0010
2478.00,0.0010
2477.00,0.0010
2476.00,0.0010
2475.00,0.0011
2474.00,0.0012
2473.00,0.0012
2472.00,0.0011
2471.00,0.0011
2470.00,0.0010
2469.00,0.0009
2468.00,0.0009
2467.00,0.0009
2466.00,0.0009
2465.00,0.0009
2464.00,0.0009
2463.00,0.0010
2462.00,0.0010
2461.00,0.0010
2460.00,0.0010
2459.00,0.0010
2458.00,0.0010
2457.00,0.0010
2456.00,0.0010
2455.00,0.0010
2454.00,0.0010
2453.00,0.0010
2452.00,0.0010
2451.00,0.0011
2450.00,0.0011
2449.00,0.0012
2448.00,0.0012
2447.00,0.0011
2446.00,0.0010
2445.00,0.0010
2444.00,0.0010
2443.00,0.0010
2442.00,0.0010
2441.00,0.0011
2440.00,0.0011
2439.00,0.0011
2438.00,0.0012
2437.00,0.0012
2436.00,0.0012
2435.00,0.0012
2434.00,0.0012
2433.00,0.0012
2432.00,0.0012
2431.00,0.0012
2430.00,0.0013
2429.00,0.0013
2428.00,0.0012
2427.00,0.0012
2426.00,0.0012
2425.00,0.0012
2424.00,0.0012
2423.00,0.0012
2422.00,0.0011
2421.00,0.0011
2420.00,0.0010
2419.00,0.0010
2418.00,0.0010
2417.00,0.0010
2416.00,0.0011
2415.00,0.0011
2414.00,0.0011
2413.00,0.0011
2412.00,0.0011
2411.00,0.0011
2410.00,0.0010
2409.00,0.0010
2408.00,0.0010
2407.00,0.0009
2406.00,0.0009
2405.00,0.0009
2404.00,0.0009
2403.00,0.0009
2402.00,0.0009
2401.00,0.0009
2400.00,0.0009
2399.00,0.0009
2398.00,0.0009
2397.00,0.0009
2396.00,0.0009
2395.00,0.0009
2394.00,0.0008
2393.00,0.0008
2392.00,0.0008
2391.00,0.0007
2390.00,0.0007
2389.00,0.0007
2388.00,0.0007
2387.00,0.0007
2386.00,0.0007
2385.00,0.0007
2384.00,0.0006
2383.00,0.0005
2382.00,0.0004
2381.00,0.0003
2380.00,0.0002
2379.00,0.0001
2378.00,0.0001
2377.00,0.0001
2376.00,0.0002
2375.00,0.0002
2374.00,0.0002
2373.00,0.0002
2372.00,0.0001
2371.00,0.0001
2370.00,0.0000
2369.00,-0.0000
2368.00,-0.0001
2367.00,-0.0002
2366.00,-0.0003
2365.00,-0.0003
2364.00,-0.0002
2363.00,-0.0001
2362.00,-0.0000
2361.00,0.0000
2360.00,0.0001
2359.00,0.0001
2358.00,0.0001
2357.00,0.0000
2356.00,0.0000
2355.00,0.0000
2354.00,0.0000
2353.00,0.0001
2352.00,0.0001
2351.00,0.0001
2350.00,0.0001
2349.00,0.0001
2348.00,0.0002
2347.00,0.0002
2346.00,0.0003
2345.00,0.0003
2344.00,0.0003
2343.00,0.0003
2342.00,0.0003
2341.00,0.0003
2340.00,0.0003
2339.00,0.0003
2338.00,0.0003
2337.00,0.0004
2336.00,0.0004
2335.00,0.0004
2334.00,0.0005
2333.00,0.0005
2332.00,0.0004
2331.00,0.0003
2330.00,0.0003
2329.00,0.0004
2328.00,0.0006
2327.00,0.0009
2326.00,0.0013
2325.00,0.0015
2324.00,0.0016
2323.00,0.0015
2322.00,0.0012
2321.00,0.0010
2320.00,0.0010
2319.00,0.0009
2318.00,0.0009
2317.00,0.0008
2316.00,0.0007
2315.00,0.0007
2314.00,0.0008
2313.00,0.0007
2312.00,0.0007
2311.00,0.0006
2310.00,0.0005
2309.00,0.0005
2308.00,0.0005
2307.00,0.0005
2306.00,0.0006
2305.00,0.0006
2304.00,0.0007
2303.00,0.0008
2302.00,0.0008
2301.00,0.0009
2300.00,0.0009
2299.00,0.0010
2298.00,0.0011
2297.00,0.0011
2296.00,0.0012
2295.00,0.0011
2294.00,0.0012
2293.00,0.0013
2292.00,0.0014
2291.00,0.0016
2290.00,0.0017
2289.00,0.0017
2288.00,0.0017
2287.00,0.0018
2286.00,0.0019
2285.00,0.0019
2284.00,0.0018
2283.00,0.0018
2282.00,0.0018
2281.00,0.0017
2280.00,0.0016
2279.00,0.0015
2278.00,0.0013
2277.00,0.0013
2276.00,0.0012
2275.00,0.0012
2274.00,0.0013
2273.00,0.0013
2272.00,0.0013
2271.00,0.0013
2270.00,0.0012
2269.00,0.0012
2268.00,0.0013
2267.00,0.0013
2266.00,0.0013
2265.00,0.0012
2264.00,0.0011
2263.00,0.0010
2262.00,0.0010
2261.00,0.0011
2260.00,0.0013
2259.00,0.0014
2258.00,0.0016
2257.00,0.0016
2256.00,0.0016
2255.00,0.0014
2254.00,0.0012
2253.00,0.0010
2252.00,0.0010
2251.00,0.0011
2250.00,0.0012
2249.00,0.0013
2248.00,0.0013
2247.00,0.0013
2246.00,0.0012
2245.00,0.0012
2244.00,0.0012
2243.00,0.0012
2242.00,0.0011
2241.00,0.0010
2240.00,0.0009
2239.00,0.0009
2238.00,0.0009
2237.00,0.0009
2236.00,0.0009
2235.00,0.0009
2234.00,0.0009
2233.00,0.0009
2232.00,0.0009
2231.00,0.0007
2230.00,0.0006
2229.00,0.0005
2228.00,0.0006
2227.00,0.0008
2226.00,0.0010
2225.00,0.0013
2224.00,0.0014
2223.00,0.0013
2222.00,0.0012
2221.00,0.0011
2220.00,0.0010
2219.00,0.0008
2218.00,0.0006
2217.00,0.0005
2216.00,0.0004
2215.00,0.0005
2214.00,0.0005
2213.00,0.0006
2212.00,0.0005
2211.00,0.0004
2210.00,0.0003
2209.00,0.0003
2208.00,0.0004
2207.00,0.0005
2206.00,0.0005
2205.00,0.0006
2204.00,0.0007
2203.00,0.0007
2202.00,0.0008
2201.00,0.0009
2200.00,0.0009
2199.00,0.0009
2198.00,0.0009
2197.00,0.0010
2196.00,0.0011
2195.00,0.0011
2194.00,0.0010
2193.00,0.0009
2192.00,0.0009
2191.00,0.0010
2190.00,0.0011
2189.00,0.0013
2188.00,0.0016
2187.00,0.0017
2186.00,0.0016
2185.00,0.0012
2184.00,0.0007
2183.00,0.0002
2182.00,-0.0001
2181.00,-0.0003
2180.00,-0.0002
2179.00,-0.0000
2178.00,0.0002
2177.00,0.0003
2176.00,0.0004
2175.00,0.0003
2174.00,0.0003
2173.00,0.0004
2172.00,0.0006
2171.00,0.0009
2170.00,0.0011
2169.00,0.0011
2168.00,0.0010
2167.00,0.0010
2166.00,0.0012
2165.00,0.0014
2164.00,0.0015
2163.00,0.0016
2162.00,0.0015
2161.00,0.0011
2160.00,0.0000
2159.00,-0.0016
2158.00,-0.0030
2157.00,-0.0035
2156.00,-0.0033
2155.00,-0.0027
2154.00,-0.0021
2153.00,-0.0017
2152.00,-0.0014
2151.00,-0.0013
2150.00,-0.0012
2149.00,-0.0012
2148.00,-0.0011
2147.00,-0.0010
2146.00,-0.0010
2145.00,-0.0010
2144.00,-0.0011
2143.00,-0.0011
2142.00,-0.0011
2141.00,-0.0010
2140.00,-0.0009
2139.00,-0.0008
2138.00,-0.0007
2137.00,-0.0006
2136.00,-0.0007
2135.00,-0.0009
2134.00,-0.0012
2133.00,-0.0014
2132.00,-0.0014
2131.00,-0.0014
2130.00,-0.0014
2129.00,-0.0013
2128.00,-0.0012
2127.00,-0.0010
2126.00,-0.0007
2125.00,-0.0005
2124.00,-0.0004
2123.00,-0.0004
2122.00,-0.0003
2121.00,-0.0003
2120.00,-0.0002
2119.00,-0.0002
2118.00,-0.0003
2117.00,-0.0003
2116.00,-0.0002
2115.00,-0.0001
2114.00,0.0000
2113.00,0.0001
2112.00,0.0002
2111.00,0.0002
2110.00,0.0002
2109.00,0.0001
2108.00,0.0000
2107.00,0.0001
2106.00,0.0001
2105.00,0.0002
2104.00,0.0002
2103.00,0.0001
2102.00,0.0000
2101.00,-0.0000
2100.00,-0.0000
2099.00,0.0001
2098.00,0.0001
2097.00,0.0000
2096.00,-0.0002
2095.00,-0.0003
2094.00,-0.0004
2093.00,-0.0003
2092.00,-0.0002
2091.00,-0.0001
2090.00,-0.0000
2089.00,-0.0000
2088.00,0.0001
2087.00,0.0002
2086.00,0.0004
2085.00,0.0004
2084.00,0.0004
2083.00,0.0004
2082.00,0.0003
2081.00,0.0003
2080.00,0.0003
2079.00,0.0003
2078.00,0.0003
2077.00,0.0003
2076.00,0.0004
2075.00,0.0003
2074.00,0.0002
2073.00,0.0001
2072.00,-0.0001
2071.00,-0.0002
2070.00,-0.0002
2069.00,-0.0001
2068.00,0.0000
2067.00,0.0001
2066.00,0.0000
2065.00,-0.0000
2064.00,-0.0000
2063.00,0.0000
2062.00,0.0000
2061.00,0.0000
2060.00,0.0000
2059.00,0.0001
2058.00,0.0003
2057.00,0.0005
2056.00,0.0006
2055.00,0.0006
2054.00,0.0006
2053.00,0.0009
2052.00,0.0012
2051.00,0.0012
2050.00,0.0010
2049.00,0.0005
2048.00,-0.0000
2047.00,-0.0004
2046.00,-0.0005
2045.00,-0.0004
2044.00,-0.0002
2043.00,-0.0001
2042.00,-0.0001
2041.00,-0.0003
2040.00,-0.0005
2039.00,-0.0005
2038.00,-0.0004
2037.00,-0.0003
2036.00,-0.0002
2035.00,-0.0001
2034.00,-0.0001
2033.00,-0.0002
2032.00,-0.0003
2031.00,-0.0005
2030.00,-0.0007
2029.00,-0.0008
2028.00,-0.0009
2027.00,-0.0009
2026.00,-0.0010
2025.00,-0.0011
2024.00,-0.0012
2023.00,-0.0013
2022.00,-0.0011
2021.00,-0.0009
2020.00,-0.0006
2019.00,-0.0005
2018.00,-0.0006
2017.00,-0.0006
2016.00,-0.0007
2015.00,-0.0009
2014.00,-0.0009
2013.00,-0.0008
2012.00,-0.0006
2011.00,-0.0006
2010.00,-0.0007
2009.00,-0.0010
2008.00,-0.0015
2007.00,-0.0019
2006.00,-0.0021
2005.00,-0.0018
2004.00,-0.0013
2003.00,-0.0009
2002.00,-0.0008
2001.00,-0.0007
2000.00,-0.0007
1999.00,-0.0007
1998.00,-0.0008
1997.00,-0.0009
1996.00,-0.0011
1995.00,-0.0012
1994.00,-0.0013
1993.00,-0.0012
1992.00,-0.0010
1991.00,-0.0009
1990.00,-0.0008
1989.00,-0.0007
1988.00,-0.0006
1987.00,-0.0005
1986.00,-0.0003
1985.00,-0.0001
1984.00,0.0001
1983.00,0.0003
1982.00,0.0005
1981.00,0.0008
1980.00,0.0009
1979.00,0.0006
1978.00,0.0000
1977.00,-0.0006
1976.00,-0.0010
1975.00,-0.0012
1974.00,-0.0013
1973.00,-0.0013
1972.00,-0.0013
1971.00,-0.0012
1970.00,-0.0012
1969.00,-0.0011
1968.00,-0.0009
1967.00,-0.0007
1966.00,-0.0006
1965.00,-0.0005
1964.00,-0.0005
1963.00,-0.0008
1962.00,-0.0012
1961.00,-0.0016
1960.00,-0.0017
1959.00,-0.0017
1958.00,-0.0016
1957.00,-0.0014
1956.00,-0.0013
1955.00,-0.0012
1954.00,-0.0012
1953.00,-0.0013
1952.00,-0.0013
1951.00,-0.0013
1950.00,-0.0014
1949.00,-0.0016
1948.00,-0.0018
1947.00,-0.0018
1946.00,-0.0016
1945.00,-0.0013
1944.00,-0.0010
1943.00,-0.0009
1942.00,-0.0008
1941.00,-0.0008
1940.00,-0.0007
1939.00,-0.0007
1938.00,-0.0007
1937.00,-0.0007
1936.00,-0.0007
1935.00,-0.0008
1934.00,-0.0008
1933.00,-0.0009
1932.00,-0.0010
1931.00,-0.0009
1930.00,-0.0009
1929.00,-0.0009
1928.00,-0.0009
1927.00,-0.0009
1926.00,-0.0009
1925.00,-0.0008
1924.00,-0.0007
1923.00,-0.0005
1922.00,-0.0004
1921.00,-0.0002
1920.00,-0.0002
1919.00,-0.0002
1918.00,-0.0002
1917.00,-0.0003
1916.00,-0.0003
1915.00,-0.0003
1914.00,-0.0003
1913.00,-0.0004
1912.00,-0.0004
1911.00,-0.0004
1910.00,-0.0003
1909.00,-0.0002
1908.00,-0.0001
1907.00,-0.0001
1906.00,-0.0001
1905.00,-0.0002
1904.00,-0.0003
1903.00,-0.0003
1902.00,-0.0003
1901.00,-0.0002
1900.00,-0.0001
1899.00,-0.0000
1898.00,-0.0000
1897.00,-0.0001
1896.00,-0.0001
1895.00,-0.0002
1894.00,-0.0003
1893.00,-0.0002
1892.00,-0.0002
1891.00,-0.0001
1890.00,-0.0000
1889.00,0.0000
1888.00,-0.0000
1887.00,-0.0000
1886.00,-0.0001
1885.00,-0.0001
1884.00,-0.0001
1883.00,-0.0001
1882.00,-0.0001
1881.00,-0.0001
1880.00,0.0000
1879.00,0.0001
1878.00,0.0001
1877.00,0.0000
1876.00,0.0000
1875.00,-0.0000
1874.00,-0.0001
1873.00,-0.0001
1872.00,-0.0000
1871.00,-0.0000
1870.00,-0.0000
1869.00,0.0000
1868.00,0.0000
1867.00,0.0000
1866.00,0.0000
1865.00,-0.0000
1864.00,0.0000
1863.00,0.0000
1862.00,0.0000
1861.00,0.0000
1860.00,0.0000
1859.00,0.0000
1858.00,-0.0000
1857.00,0.0000
1856.00,0.0000
1855.00,0.0001
1854.00,0.0001
1853.00,0.0001
1852.00,0.0002
1851.00,0.0002
1850.00,0.0001
1849.00,0.0001
1848.00,0.0001
1847.00,0.0000
1846.00,-0.0000
1845.00,-0.0000
1844.00,0.0000
1843.00,0.0001
1842.00,0.0002
1841.00,0.0002
1840.00,0.0002
1839.00,0.0001
1838.00,0.0001
1837.00,0.0001
1836.00,0.0002
1835.00,0.0003
1834.00,0.0004
1833.00,0.0004
1832.00,0.0004
1831.00,0.0004
1830.00,0.0003
1829.00,0.0003
1828.00,0.0003
1827.00,0.0003
1826.00,0.0003
1825.00,0.0003
1824.00,0.0004
1823.00,0.0004
1822.00,0.0004
1821.00,0.0004
1820.00,0.0003
1819.00,0.0002
1818.00,0.0001
1817.00,-0.0000
1816.00,0.0000
1815.00,0.0001
1814.00,0.0001
1813.00,0.0002
1812.00,0.0002
1811.00,0.0003
1810.00,0.0003
1809.00,0.0004
1808.00,0.0005
1807.00,0.0005
1806.00,0.0005
1805.00,0.0004
1804.00,0.0004
1803.00,0.0004
1802.00,0.0004
1801.00,0.0004
1800.00,0.0005
1799.00,0.0006
1798.00,0.0006
1797.00,0.0006
1796.00,0.0006
1795.00,0.0006
1794.00,0.0006
1793.00,0.0006
1792.00,0.0006
1791.00,0.0006
1790.00,0.0006
1789.00,0.0006
1788.00,0.0007
1787.00,0.0007
1786.00,0.0008
1785.00,0.0008
1784.00,0.0009
1783.00,0.0009
1782.00,0.0009
1781.00,0.0009
1780.00,0.0009
1779.00,0.0008
1778.00,0.0008
1777.00,0.0008
1776.00,0.0008
1775.00,0.0008
1774.00,0.0008
1773.00,0.0008
1772.00,0.0008
1771.00,0.0008
1770.00,0.0008
1769.00,0.0008
1768.00,0.0009
1767.00,0.0009
1766.00,0.0010
1765.00,0.0011
1764.00,0.0012
1763.00,0.0013
1762.00,0.0014
1761.00,0.0015
1760.00,0.0016
1759.00,0.0018
1758.00,0.0019
1757.00,0.0020
1756.00,0.0021
1755.00,0.0023
1754.00,0.0024
1753.00,0.0025
1752.00,0.0026
1751.00,0.0027
1750.00,0.0028
1749.00,0.0029
1748.00,0.0029
1747.00,0.0030
1746.00,0.0030
1745.00,0.0030
1744.00,0.0030
1743.00,0.0030
1742.00,0.0029
1741.00,0.0029
1740.00,0.0028
1739.00,0.0027
1738.00,0.0026
1737.00,0.0025
1736.00,0.0024
1735.00,0.0023
1734.00,0.0022
1733.00,0.0022
1732.00,0.0023
1731.00,0.0023
1730.00,0.0023
1729.00,0.0023
1728.00,0.0023
1727.00,0.0023
1726.00,0.0023
1725.00,0.0023
1724.00,0.0024
1723.00,0.0024
1722.00,0.0024
1721.00,0.0024
1720.00,0.0023
1719.00,0.0022
1718.00,0.0021
1717.00,0.0021
1716.00,0.0021
1715.00,0.0022
1714.00,0.0022
1713.00,0.0022
1712.00,0.0022
1711.00,0.0021
1710.00,0.0021
1709.00,0.0021
1708.00,0.0021
1707.00,0.0022
1706.00,0.0022
1705.00,0.0023
1704.00,0.0023
1703.00,0.0023
1702.00,0.0023
1701.00,0.0023
1700.00,0.0023
1699.00,0.0023
1698.00,0.0023
1697.00,0.0023
1696.00,0.0023
1695.00,0.0024
1694.00,0.0024
1693.00,0.0024
1692.00,0.0025
1691.00,0.0025
1690.00,0.0025
1689.00,0.0026
1688.00,0.0026
1687.00,0.0026
1686.00,0.0026
1685.00,0.0026
1684.00,0.0025
1683.00,0.0025
1682.00,0.0026
1681.00,0.0027
1680.00,0.0028
1679.00,0.0028
1678.00,0.0028
1677.00,0.0029
1676.00,0.0029
1675.00,0.0030
1674.00,0.0030
1673.00,0.0030
1672.00,0.0030
1671.00,0.0030
1670.00,0.0030
1669.00,0.0030
1668.00,0.0031
1667.00,0.0031
1666.00,0.0031
1665.00,0.0031
1664.00,0.0031
1663.00,0.0032
1662.00,0.0032
1661.00,0.0033
1660.00,0.0033
1659.00,0.0033
1658.00,0.0033
1657.00,0.0034
1656.00,0.0035
1655.00,0.0036
1654.00,0.0037
1653.00,0.0036
1652.00,0.0037
1651.00,0.0037
1650.00,0.0037
1649.00,0.0037
1648.00,0.0037
1647.00,0.0037
1646.00,0.0038
1645.00,0.0040
1644.00,0.0040
1643.00,0.0041
1642.00,0.0041
1641.00,0.0041
1640.00,0.0041
1639.00,0.0041
1638.00,0.0041
1637.00,0.0042
1636.00,0.0042
1635.00,0.0041
1634.00,0.0041
1633.00,0.0040
1632.00,0.0041
1631.00,0.0041
1630.00,0.0040
1629.00,0.0040
1628.00,0.0039
1627.00,0.0038
1626.00,0.0038
1625.00,0.0037
1624.00,0.0037
1623.00,0.0037
1622.00,0.0037
1621.00,0.0037
1620.00,0.0037
1619.00,0.0037
1618.00,0.0036
1617.00,0.0035
1616.00,0.0035
1615.00,0.0035
1614.00,0.0035
1613.00,0.0036
1612.00,0.0036
1611.00,0.0036
1610.00,0.0036
1609.00,0.0036
1608.00,0.0036
1607.00,0.0036
1606.00,0.0036
1605.00,0.0036
1604.00,0.0036
1603.00,0.0037
1602.00,0.0037
1601.00,0.0037
1600.00,0.0037
1599.00,0.0037
1598.00,0.0037
1597.00,0.0037
1596.00,0.0037
1595.00,0.0037
1594.00,0.0038
1593.00,0.0038
1592.00,0.0038
1591.00,0.0039
1590.00,0.0039
1589.00,0.0039
1588.00,0.0040
1587.00,0.0040
1586.00,0.0040
1585.00,0.0040
1584.00,0.0041
1583.00,0.0042
1582.00,0.0043
1581.00,0.0044
1580.00,0.0045
1579.00,0.0046
1578.00,0.0046
1577.00,0.0047
1576.00,0.0047
1575.00,0.0047
1574.00,0.0047
1573.00,0.0047
1572.00,0.0047
1571.00,0.0046
1570.00,0.0046
1569.00,0.0045
1568.00,0.0045
1567.00,0.0046
1566.00,0.0046
1565.00,0.0046
1564.00,0.0046
1563.00,0.0046
1562.00,0.0046
1561.00,0.0047
1560.00,0.0046
1559.00,0.0044
1558.00,0.0042
1557.00,0.0042
1556.00,0.0043
1555.00,0.0044
1554.00,0.0044
1553.00,0.0045
1552.00,0.0045
1551.00,0.0046
1550.00,0.0046
1549.00,0.0046
1548.00,0.0047
1547.00,0.0047
1546.00,0.0047
1545.00,0.0048
1544.00,0.0050
1543.00,0.0051
1542.00,0.0051
1541.00,0.0052
1540.00,0.0051
1539.00,0.0051
1538.00,0.0050
1537.00,0.0049
1536.00,0.0048
1535.00,0.0047
1534.00,0.0046
1533.00,0.0045
1532.00,0.0044
1531.00,0.0044
1530.00,0.0044
1529.00,0.0044
1528.00,0.0044
1527.00,0.0044
1526.00,0.0044
1525.00,0.0045
1524.00,0.0045
1523.00,0.0046
1522.00,0.0046
1521.00,0.0047
1520.00,0.0048
1519.00,0.0048
1518.00,0.0049
1517.00,0.0049
1516.00,0.0050
1515.00,0.0050
1514.00,0.0050
1513.00,0.0051
1512.00,0.0052
1511.00,0.0053
1510.00,0.0053
1509.00,0.0055
1508.00,0.0056
1507.00,0.0057
1506.00,0.0057
1505.00,0.0058
1504.00,0.0060
1503.00,0.0061
1502.00,0.0062
1501.00,0.0064
1500.00,0.0066
1499.00,0.0068
1498.00,0.0070
1497.00,0.0072
1496.00,0.0075
1495.00,0.0077
1494.00,0.0079
1493.00,0.0081
1492.00,0.0085
1491.00,0.0088
1490.00,0.0091
1489.00,0.0096
1488.00,0.0102
1487.00,0.0107
1486.00,0.0112
1485.00,0.0118
1484.00,0.0125
1483.00,0.0133
1482.00,0.0141
1481.00,0.0152
1480.00,0.0164
1479.00,0.0176
1478.00,0.0191
1477.00,0.0212
1476.00,0.0239
1475.00,0.0270
1474.00,0.0311
1473.00,0.0369
1472.00,0.0437
1471.00,0.0504
1470.00,0.0570
1469.00,0.0639
1468.00,0.0714
1467.00,0.0796
1466.00,0.0889
1465.00,0.0988
1464.00,0.1074
1463.00,0.1133
1462.00,0.1169
1461.00,0.1193
1460.00,0.1207
1459.00,0.1215
1458.00,0.1219
1457.00,0.1218
1456.00,0.1211
1455.00,0.1198
1454.00,0.1181
1453.00,0.1159
1452.00,0.1128
1451.00,0.1085
1450.00,0.1030
1449.00,0.0957
1448.00,0.0866
1447.00,0.0772
1446.00,0.0687
1445.00,0.0616
1444.00,0.0555
1443.00,0.0507
1442.00,0.0470
1441.00,0.0445
1440.00,0.0430
1439.00,0.0425
1438.00,0.0428
1437.00,0.0432
1436.00,0.0425
1435.00,0.0402
1434.00,0.0366
1433.00,0.0322
1432.00,0.0276
1431.00,0.0236
1430.00,0.0204
1429.00,0.0181
1428.00,0.0164
1427.00,0.0154
1426.00,0.0147
1425.00,0.0141
1424.00,0.0135
1423.00,0.0132
1422.00,0.0130
1421.00,0.0127
1420.00,0.0124
1419.00,0.0122
1418.00,0.0120
1417.00,0.0118
1416.00,0.0115
1415.00,0.0113
1414.00,0.0112
1413.00,0.0111
1412.00,0.0109
1411.00,0.0109
1410.00,0.0109
1409.00,0.0109
1408.00,0.0108
1407.00,0.0108
1406.00,0.0109
1405.00,0.0109
1404.00,0.0109
1403.00,0.0110
1402.00,0.0111
1401.00,0.0113
1400.00,0.0114
1399.00,0.0116
1398.00,0.0119
1397.00,0.0121
1396.00,0.0123
1395.00,0.0128
1394.00,0.0133
1393.00,0.0138
1392.00,0.0144
1391.00,0.0152
1390.00,0.0163
1389.00,0.0177
1388.00,0.0198
1387.00,0.0229
1386.00,0.0272
1385.00,0.0328
1384.00,0.0407
1383.00,0.0519
1382.00,0.0672
1381.00,0.0871
1380.00,0.1121
1379.00,0.1409
1378.00,0.1691
1377.00,0.1902
1376.00,0.1979
1375.00,0.1884
1374.00,0.1646
1373.00,0.1356
1372.00,0.1088
1371.00,0.0867
1370.00,0.0692
1369.00,0.0560
1368.00,0.0470
1367.00,0.0415
1366.00,0.0384
1365.00,0.0372
1364.00,0.0374
1363.00,0.0388
1362.00,0.0410
1361.00,0.0433
1360.00,0.0451
1359.00,0.0456
1358.00,0.0446
1357.00,0.0419
1356.00,0.0382
1355.00,0.0340
1354.00,0.0299
1353.00,0.0264
1352.00,0.0237
1351.00,0.0214
1350.00,0.0196
1349.00,0.0181
1348.00,0.0168
1347.00,0.0157
1346.00,0.0148
1345.00,0.0140
1344.00,0.0134
1343.00,0.0129
1342.00,0.0126
1341.00,0.0123
1340.00,0.0120
1339.00,0.0118
1338.00,0.0117
1337.00,0.0116
1336.00,0.0116
1335.00,0.0118
1334.00,0.0122
1333.00,0.0126
1332.00,0.0130
1331.00,0.0134
1330.00,0.0135
1329.00,0.0133
1328.00,0.0129
1327.00,0.0124
1326.00,0.0118
1325.00,0.0112
1324.00,0.0106
1323.00,0.0102
1322.00,0.0098
1321.00,0.0095
1320.00,0.0092
1319.00,0.0090
1318.00,0.0088
1317.00,0.0087
1316.00,0.0086
1315.00,0.0085
1314.00,0.0085
1313.00,0.0085
1312.00,0.0086
1311.00,0.0088
1310.00,0.0091
1309.00,0.0097
1308.00,0.0104
1307.00,0.0112
1306.00,0.0121
1305.00,0.0127
1304.00,0.0129
1303.00,0.0128
1302.00,0.0126
1301.00,0.0123
1300.00,0.0122
1299.00,0.0123
1298.00,0.0124
1297.00,0.0125
1296.00,0.0125
1295.00,0.0123
1294.00,0.0119
1293.00,0.0114
1292.00,0.0109
1291.00,0.0103
1290.00,0.0099
1289.00,0.0095
1288.00,0.0092
1287.00,0.0089
1286.00,0.0087
1285.00,0.0085
1284.00,0.0084
1283.00,0.0083
1282.00,0.0082
1281.00,0.0081
1280.00,0.0080
1279.00,0.0080
1278.00,0.0079
1277.00,0.0080
1276.00,0.0080
1275.00,0.0080
1274.00,0.0080
1273.00,0.0080
1272.00,0.0080
1271.00,0.0081
1270.00,0.0082
1269.00,0.0083
1268.00,0.0084
1267.00,0.0086
1266.00,0.0088
1265.00,0.0089
1264.00,0.0091
1263.00,0.0093
1262.00,0.0095
1261.00,0.0099
1260.00,0.0103
1259.00,0.0109
1258.00,0.0114
1257.00,0.0119
1256.00,0.0121
1255.00,0.0120
1254.00,0.0116
1253.00,0.0110
1252.00,0.0104
1251.00,0.0098
1250.00,0.0093
1249.00,0.0090
1248.00,0.0087
1247.00,0.0085
1246.00,0.0083
1245.00,0.0082
1244.00,0.0080
1243.00,0.0079
1242.00,0.0078
1241.00,0.0078
1240.00,0.0077
1239.00,0.0077
1238.00,0.0076
1237.00,0.0076
1236.00,0.0076
1235.00,0.0076
1234.00,0.0076
1233.00,0.0077
1232.00,0.0077
1231.00,0.0078
1230.00,0.0078
1229.00,0.0079
1228.00,0.0079
1227.00,0.0081
1226.00,0.0083
1225.00,0.0086
1224.00,0.0089
1223.00,0.0092
1222.00,0.0095
1221.00,0.0098
1220.00,0.0100
1219.00,0.0100
1218.00,0.0099
1217.00,0.0097
1216.00,0.0095
1215.00,0.0091
1214.00,0.0088
1213.00,0.0085
1212.00,0.0082
1211.00,0.0080
1210.00,0.0079
1209.00,0.0077
1208.00,0.0076
1207.00,0.0075
1206.00,0.0075
1205.00,0.0074
1204.00,0.0074
1203.00,0.0073
1202.00,0.0073
1201.00,0.0073
1200.00,0.0073
1199.00,0.0073
1198.00,0.0073
1197.00,0.0073
1196.00,0.0073
1195.00,0.0074
1194.00,0.0074
1193.00,0.0075
1192.00,0.0075
1191.00,0.0075
1190.00,0.0075
1189.00,0.0075
1188.00,0.0076
1187.00,0.0077
1186.00,0.0077
1185.00,0.0078
1184.00,0.0078
1183.00,0.0080
1182.00,0.0082
1181.00,0.0086
1180.00,0.0090
1179.00,0.0094
1178.00,0.0099
1177.00,0.0106
1176.00,0.0115
1175.00,0.0127
1174.00,0.0143
1173.00,0.0163
1172.00,0.0187
1171.00,0.0213
1170.00,0.0237
1169.00,0.0257
1168.00,0.0269
1167.00,0.0273
1166.00,0.0268
1165.00,0.0258
1164.00,0.0246
1163.00,0.0234
1162.00,0.0223
1161.00,0.0215
1160.00,0.0208
1159.00,0.0203
1158.00,0.0200
1157.00,0.0198
1156.00,0.0197
1155.00,0.0196
1154.00,0.0195
1153.00,0.0194
1152.00,0.0190
1151.00,0.0184
1150.00,0.0176
1149.00,0.0166
1148.00,0.0156
1147.00,0.0147
1146.00,0.0138
1145.00,0.0130
1144.00,0.0122
1143.00,0.0115
1142.00,0.0108
1141.00,0.0103
1140.00,0.0098
1139.00,0.0093
1138.00,0.0089
1137.00,0.0085
1136.00,0.0081
1135.00,0.0078
1134.00,0.0076
1133.00,0.0075
1132.00,0.0074
1131.00,0.0072
1130.00,0.0072
1129.00,0.0071
1128.00,0.0072
1127.00,0.0073
1126.00,0.0073
1125.00,0.0073
1124.00,0.0073
1123.00,0.0072
1122.00,0.0072
1121.00,0.0072
1120.00,0.0073
1119.00,0.0074
1118.00,0.0076
1117.00,0.0077
1116.00,0.0078
1115.00,0.0078
1114.00,0.0079
1113.00,0.0081
1112.00,0.0082
1111.00,0.0085
1110.00,0.0089
1109.00,0.0094
1108.00,0.0099
1107.00,0.0106
1106.00,0.0112
1105.00,0.0117
1104.00,0.0121
1103.00,0.0123
1102.00,0.0123
1101.00,0.0120
1100.00,0.0114
1099.00,0.0108
1098.00,0.0103
1097.00,0.0098
1096.00,0.0094
1095.00,0.0090
1094.00,0.0087
1093.00,0.0084
1092.00,0.0082
1091.00,0.0080
1090.00,0.0079
1089.00,0.0078
1088.00,0.0077
1087.00,0.0077
1086.00,0.0077
1085.00,0.0077
1084.00,0.0077
1083.00,0.0077
1082.00,0.0077
1081.00,0.0077
1080.00,0.0076
1079.00,0.0074
1078.00,0.0072
1077.00,0.0071
1076.00,0.0071
1075.00,0.0072
1074.00,0.0073
1073.00,0.0073
1072.00,0.0073
1071.00,0.0072
1070.00,0.0072
1069.00,0.0071
1068.00,0.0071
1067.00,0.0071
1066.00,0.0072
1065.00,0.0073
1064.00,0.0074
1063.00,0.0075
1062.00,0.0075
1061.00,0.0076
1060.00,0.0076
1059.00,0.0076
1058.00,0.0077
1057.00,0.0079
1056.00,0.0081
1055.00,0.0083
1054.00,0.0085
1053.00,0.0088
1052.00,0.0090
1051.00,0.0092
1050.00,0.0095
1049.00,0.0098
1048.00,0.0102
1047.00,0.0106
1046.00,0.0110
1045.00,0.0113
1044.00,0.0114
1043.00,0.0114
1042.00,0.0112
1041.00,0.0110
1040.00,0.0108
1039.00,0.0107
1038.00,0.0107
1037.00,0.0106
1036.00,0.0106
1035.00,0.0105
1034.00,0.0104
1033.00,0.0103
1032.00,0.0103
1031.00,0.0104
1030.00,0.0105
1029.00,0.0106
1028.00,0.0107
1027.00,0.0109
1026.00,0.0109
1025.00,0.0110
1024.00,0.0112
1023.00,0.0114
1022.00,0.0116
1021.00,0.0118
1020.00,0.0120
1019.00,0.0121
1018.00,0.0122
1017.00,0.0123
1016.00,0.0123
1015.00,0.0122
1014.00,0.0121
1013.00,0.0121
1012.00,0.0120
1011.00,0.0120
1010.00,0.0120
1009.00,0.0121
1008.00,0.0123
1007.00,0.0127
1006.00,0.0133
1005.00,0.0141
1004.00,0.0153
1003.00,0.0171
1002.00,0.0194
1001.00,0.0222
1000.00,0.0251
999.00,0.0275
998.00,0.0285
997.00,0.0278
996.00,0.0256
995.00,0.0226
994.00,0.0195
993.00,0.0168
992.00,0.0147
991.00,0.0131
990.00,0.0119
989.00,0.0111
988.00,0.0107
987.00,0.0105
986.00,0.0105
985.00,0.0107
984.00,0.0112
983.00,0.0119
982.00,0.0130
981.00,0.0144
980.00,0.0163
979.00,0.0188
978.00,0.0219
977.00,0.0255
976.00,0.0293
975.00,0.0328
974.00,0.0352
973.00,0.0358
972.00,0.0343
971.00,0.0311
970.00,0.0269
969.00,0.0227
968.00,0.0192
967.00,0.0165
966.00,0.0145
965.00,0.0131
964.00,0.0120
963.00,0.0112
962.00,0.0106
961.00,0.0101
960.00,0.0098
959.00,0.0094
958.00,0.0092
957.00,0.0090
956.00,0.0088
955.00,0.0086
954.00,0.0085
953.00,0.0085
952.00,0.0084
951.00,0.0084
950.00,0.0083
949.00,0.0082
948.00,0.0081
947.00,0.0081
946.00,0.0082
945.00,0.0084
944.00,0.0087
943.00,0.0091
942.00,0.0095
941.00,0.0098
940.00,0.0099
939.00,0.0096
938.00,0.0090
937.00,0.0083
936.00,0.0076
935.00,0.0072
934.00,0.0069
933.00,0.0066
932.00,0.0064
931.00,0.0062
930.00,0.0061
929.00,0.0061
928.00,0.0061
927.00,0.0060
926.00,0.0060
925.00,0.0059
924.00,0.0059
923.00,0.0059
922.00,0.0060
921.00,0.0060
920.00,0.0061
919.00,0.0061
918.00,0.0061
917.00,0.0061
916.00,0.0061
915.00,0.0062
914.00,0.0063
913.00,0.0064
912.00,0.0065
911.00,0.0066
910.00,0.0067
909.00,0.0069
908.00,0.0073
907.00,0.0078
906.00,0.0085
905.00,0.0096
904.00,0.0111
903.00,0.0130
902.00,0.0150
901.00,0.0168
900.00,0.0179
899.00,0.0181
898.00,0.0173
897.00,0.0157
896.00,0.0137
895.00,0.0118
894.00,0.0103
893.00,0.0090
892.00,0.0082
891.00,0.0077
890.00,0.0074
889.00,0.0073
888.00,0.0071
887.00,0.0071
886.00,0.0070
885.00,0.0069
884.00,0.0069
883.00,0.0069
882.00,0.0069
881.00,0.0068
880.00,0.0067
879.00,0.0067
878.00,0.0069
877.00,0.0071
876.00,0.0073
875.00,0.0074
874.00,0.0074
873.00,0.0073
872.00,0.0072
871.00,0.0071
870.00,0.0070
869.00,0.0070
868.00,0.0071
867.00,0.0072
866.00,0.0073
865.00,0.0073
864.00,0.0074
863.00,0.0076
862.00,0.0077
861.00,0.0078
860.00,0.0078
859.00,0.0079
858.00,0.0080
857.00,0.0082
856.00,0.0083
855.00,0.0084
854.00,0.0086
853.00,0.0089
852.00,0.0093
851.00,0.0098
850.00,0.0102
849.00,0.0107
848.00,0.0113
847.00,0.0122
846.00,0.0137
845.00,0.0160
844.00,0.0192
843.00,0.0230
842.00,0.0260
841.00,0.0269
840.00,0.0252
839.00,0.0216
838.00,0.0177
837.00,0.0148
836.00,0.0129
835.00,0.0118
834.00,0.0110
833.00,0.0104
832.00,0.0099
831.00,0.0096
830.00,0.0094
829.00,0.0093
828.00,0.0091
827.00,0.0089
826.00,0.0087
825.00,0.0087
824.00,0.0087
823.00,0.0088
822.00,0.0090
821.00,0.0092
820.00,0.0096
819.00,0.0102
818.00,0.0108
817.00,0.0116
816.00,0.0125
815.00,0.0136
814.00,0.0151
813.00,0.0170
812.00,0.0191
811.00,0.0211
810.00,0.0224
809.00,0.0229
808.00,0.0224
807.00,0.0210
806.00,0.0192
805.00,0.0172
804.00,0.0153
803.00,0.0137
802.00,0.0125
801.00,0.0116
800.00,0.0110
799.00,0.0106
798.00,0.0103
797.00,0.0100
796.00,0.0096
795.00,0.0093
794.00,0.0091
793.00,0.0088
792.00,0.0084
791.00,0.0079
790.00,0.0076
789.00,0.0074
788.00,0.0073
787.00,0.0072
786.00,0.0070
785.00,0.0067
784.00,0.0066
783.00,0.0065
782.00,0.0064
781.00,0.0062
780.00,0.0061
779.00,0.0060
778.00,0.0060
777.00,0.0060
776.00,0.0061
775.00,0.0061
774.00,0.0061
773.00,0.0060
772.00,0.0060
771.00,0.0060
770.00,0.0060
769.00,0.0060
768.00,0.0059
767.00,0.0059
766.00,0.0058
765.00,0.0058
764.00,0.0059
763.00,0.0060
762.00,0.0062
761.00,0.0064
760.00,0.0064
759.00,0.0065
758.00,0.0065
757.00,0.0066
756.00,0.0068
755.00,0.0069
754.00,0.0069
753.00,0.0070
752.00,0.0070
751.00,0.0071
750.00,0.0073
749.00,0.0075
748.00,0.0077
747.00,0.0079
746.00,0.0081
745.00,0.0082
744.00,0.0084
743.00,0.0085
742.00,0.0088
741.00,0.0090
740.00,0.0093
739.00,0.0096
738.00,0.0099
737.00,0.0102
736.00,0.0106
735.00,0.0109
734.00,0.0114
733.00,0.0119
732.00,0.0126
731.00,0.0133
730.00,0.0139
729.00,0.0143
728.00,0.0145
727.00,0.0146
726.00,0.0148
725.00,0.0151
724.00,0.0156
723.00,0.0162
722.00,0.0169
721.00,0.0174
720.00,0.0174
719.00,0.0166
718.00,0.0153
717.00,0.0140
716.00,0.0129
715.00,0.0121
714.00,0.0116
713.00,0.0113
712.00,0.0110
711.00,0.0107
710.00,0.0104
709.00,0.0102
708.00,0.0099
707.00,0.0096
706.00,0.0094
705.00,0.0093
704.00,0.0093
703.00,0.0092
702.00,0.0090
701.00,0.0088
700.00,0.0087
699.00,0.0085
698.00,0.0085
697.00,0.0085
696.00,0.0086
695.00,0.0087
694.00,0.0087
693.00,0.0087
692.00,0.0087
691.00,0.0088
690.00,0.0089
689.00,0.0089
688.00,0.0088
687.00,0.0085
686.00,0.0084
685.00,0.0083
684.00,0.0084
683.00,0.0086
682.00,0.0087
681.00,0.0088
680.00,0.0090
679.00,0.0092
678.00,0.0094
677.00,0.0094
676.00,0.0094
675.00,0.0095
674.00,0.0096
673.00,0.0095
672.00,0.0094
671.00,0.0094
670.00,0.0095
669.00,0.0097
668.00,0.0097
667.00,0.0096
666.00,0.0093
665.00,0.0090
664.00,0.0088
663.00,0.0087
662.00,0.0087
661.00,0.0086
660.00,0.0084
659.00,0.0083
658.00,0.0081
657.00,0.0080
656.00,0.0078
655.00,0.0076
654.00,0.0074
653.00,0.0073
652.00,0.0072
651.00,0.0072
650.00,0.0073
649.00,0.0073
648.00,0.0074
647.00,0.0075
646.00,0.0076
645.00,0.0076
644.00,0.0074
643.00,0.0073
642.00,0.0071
641.00,0.0070
640.00,0.0070
639.00,0.0070
638.00,0.0072
637.00,0.0075
636.00,0.0079
635.00,0.0082
634.00,0.0081
633.00,0.0078
632.00,0.0076
631.00,0.0076
630.00,0.0077
629.00,0.0078
628.00,0.0079
627.00,0.0080
626.00,0.0081
625.00,0.0083
624.00,0.0083
623.00,0.0082
622.00,0.0081
621.00,0.0081
620.00,0.0081
619.00,0.0080
618.00,0.0078
617.00,0.0076
616.00,0.0075
615.00,0.0074
614.00,0.0073
613.00,0.0070
612.00,0.0067
611.00,0.0066
610.00,0.0068
609.00,0.0070
608.00,0.0072
607.00,0.0073
606.00,0.0075
605.00,0.0076
604.00,0.0076
603.00,0.0076
602.00,0.0076
601.00,0.0075
600.00,0.0074
599.00,0.0073
598.00,0.0074
597.00,0.0076
596.00,0.0078
595.00,0.0078
594.00,0.0077
593.00,0.0075
592.00,0.0072
591.00,0.0070
590.00,0.0070
589.00,0.0072
588.00,0.0074
587.00,0.0075
586.00,0.0076
585.00,0.0077
584.00,0.0077
583.00,0.0077
582.00,0.0076
581.00,0.0075
580.00,0.0074
579.00,0.0074
578.00,0.0073
577.00,0.0072
576.00,0.0072
575.00,0.0073
574.00,0.0074
573.00,0.0073
572.00,0.0072
571.00,0.0071
570.00,0.0072
569.00,0.0072
568.00,0.0071
567.00,0.0069
566.00,0.0068
565.00,0.0069
564.00,0.0071
563.00,0.0074
562.00,0.0080
561.00,0.0087
560.00,0.0090
559.00,0.0089
558.00,0.0084
557.00,0.0078
556.00,0.0076
555.00,0.0075
554.00,0.0074
553.00,0.0073
552.00,0.0074
551.00,0.0078
550.00,0.0081
549.00,0.0083
548.00,0.0083
547.00,0.0081
546.00,0.0080
545.00,0.0078
544.00,0.0077
543.00,0.0078
542.00,0.0082
541.00,0.0087
540.00,0.0092
539.00,0.0095
538.00,0.0097
537.00,0.0101
536.00,0.0105
535.00,0.0108
534.00,0.0109
533.00,0.0108
532.00,0.0107
531.00,0.0106
530.00,0.0103
529.00,0.0099
528.00,0.0095
527.00,0.0093
526.00,0.0090
525.00,0.0085
524.00,0.0079
523.00,0.0075
522.00,0.0075
521.00,0.0077
520.00,0.0078
519.00,0.0076
518.00,0.0074
517.00,0.0073
516.00,0.0074
515.00,0.0079
514.00,0.0084
513.00,0.0088
512.00,0.0090
511.00,0.0090
510.00,0.0088
509.00,0.0085
508.00,0.0082
507.00,0.0078
506.00,0.0073
505.00,0.0069
504.00,0.0069
503.00,0.0075
502.00,0.0086
501.00,0.0093
500.00,0.0094
499.00,0.0091
498.00,0.0087
497.00,0.0086
496.00,0.0087
495.00,0.0088
494.00,0.0088
493.00,0.0085
492.00,0.0081
491.00,0.0082
490.00,0.0087
489.00,0.0093
488.00,0.0096
487.00,0.0096
486.00,0.0099
485.00,0.0104
484.00,0.0109
483.00,0.0110
482.00,0.0107
481.00,0.0101
480.00,0.0096
479.00,0.0096
478.00,0.0100
477.00,0.0104
476.00,0.0107
475.00,0.0106
474.00,0.0107
473.00,0.0111
472.00,0.0117
471.00,0.0123
470.00,0.0132
469.00,0.0142
468.00,0.0153
467.00,0.0160
466.00,0.0163
465.00,0.0164
464.00,0.0169
463.00,0.0177
462.00,0.0188
461.00,0.0202
460.00,0.0214
459.00,0.0223
458.00,0.0228
457.00,0.0232
456.00,0.0232
455.00,0.0226
454.00,0.0212
453.00,0.0192
452.00,0.0173
451.00,0.0158
450.00,0.0147
