Created as New Dataset,Sample 131 By Administrator Date Wednesday, September 03 2025
cm-1,A
4000.00,0.0013
3999.00,0.0013
3998.00,0.0014
3997.00,0.0014
3996.00,0.0014
3995.00,0.0014
3994.00,0.0014
3993.00,0.0014
3992.00,0.0014
3991.00,0.0013
3990.00,0.0013
3989.00,0.0013
3988.00,0.0013
3987.00,0.0013
3986.00,0.0013
3985.00,0.0013
3984.00,0.0013
3983.00,0.0013
3982.00,0.0013
3981.00,0.0013
3980.00,0.0013
3979.00,0.0012
3978.00,0.0012
3977.00,0.0012
3976.00,0.0012
3975.00,0.0012
3974.00,0.0012
3973.00,0.0012
3972.00,0.0012
3971.00,0.0012
3970.00,0.0012
3969.00,0.0012
3968.00,0.0012
3967.00,0.0012
3966.00,0.0012
3965.00,0.0012
3964.00,0.0012
3963.00,0.0012
3962.00,0.0012
3961.00,0.0012
3960.00,0.0012
3959.00,0.0013
3958.00,0.0013
3957.00,0.0013
3956.00,0.0012
3955.00,0.0012
3954.00,0.0012
3953.00,0.0012
3952.00,0.0012
3951.00,0.0012
3950.00,0.0012
3949.00,0.0012
3948.00,0.0012
3947.00,0.0012
3946.00,0.0012
3945.00,0.0012
3944.00,0.0012
3943.00,0.0012
3942.00,0.0012
3941.00,0.0012
3940.00,0.0012
3939.00,0.0012
3938.00,0.0012
3937.00,0.0012
3936.00,0.0012
3935.00,0.0013
3934.00,0.0013
3933.00,0.0012
3932.00,0.0012
3931.00,0.0012
3930.00,0.0012
3929.00,0.0012
3928.00,0.0012
3927.00,0.0013
3926.00,0.0013
3925.00,0.0013
3924.00,0.0012
3923.00,0.0012
3922.00,0.0012
3921.00,0.0012
3920.00,0.0012
3919.00,0.0012
3918.00,0.0012
3917.00,0.0012
3916.00,0.0012
3915.00,0.0012
3914.00,0.0012
3913.00,0.0012
3912.00,0.0012
3911.00,0.0012
3910.00,0.0012
3909.00,0.0012
3908.00,0.0012
3907.00,0.0012
3906.00,0.0012
3905.00,0.0012
3904.00,0.0011
3903.00,0.0011
3902.00,0.0011
3901.00,0.0010
3900.00,0.0011
3899.00,0.0011
3898.00,0.0011
3897.00,0.0011
3896.00,0.0011
3895.00,0.0011
3894.00,0.0011
3893.00,0.0012
3892.00,0.0012
3891.00,0.0011
3890.00,0.0011
3889.00,0.0011
3888.00,0.0012
3887.00,0.0012
3886.00,0.0012
3885.00,0.0012
3884.00,0.0012
3883.00,0.0012
3882.00,0.0012
3881.00,0.0012
3880.00,0.0011
3879.00,0.0011
3878.00,0.0011
3877.00,0.0011
3876.00,0.0011
3875.00,0.0011
3874.00,0.0011
3873.00,0.0011
3872.00,0.0011
3871.00,0.0010
3870.00,0.0010
3869.00,0.0010
3868.00,0.0010
3867.00,0.0010
3866.00,0.0010
3865.00,0.0010
3864.00,0.0010
3863.00,0.0010
3862.00,0.0010
3861.00,0.0011
3860.00,0.0011
3859.00,0.0011
3858.00,0.0011
3857.00,0.0011
3856.00,0.0011
3855.00,0.0012
3854.00,0.0011
3853.00,0.0010
3852.00,0.0010
3851.00,0.0009
3850.00,0.0009
3849.00,0.0009
3848.00,0.0009
3847.00,0.0009
3846.00,0.0010
3845.00,0.0010
3844.00,0.0010
3843.00,0.0010
3842.00,0.0010
3841.00,0.0010
3840.00,0.0010
3839.00,0.0010
3838.00,0.0009
3837.00,0.0009
3836.00,0.0009
3835.00,0.0010
3834.00,0.0010
3833.00,0.0010
3832.00,0.0010
3831.00,0.0010
3830.00,0.0010
3829.00,0.0011
3828.00,0.0011
3827.00,0.0011
3826.00,0.0011
3825.00,0.0011
3824.00,0.0011
3823.00,0.0010
3822.00,0.0010
3821.00,0.0010
3820.00,0.0009
3819.00,0.0009
3818.00,0.0009
3817.00,0.0009
3816.00,0.0009
3815.00,0.0009
3814.00,0.0009
3813.00,0.0010
3812.00,0.0010
3811.00,0.0010
3810.00,0.0010
3809.00,0.0010
3808.00,0.0010
3807.00,0.0010
3806.00,0.0010
3805.00,0.0010
3804.00,0.0009
3803.00,0.0009
3802.00,0.0010
3801.00,0.0010
3800.00,0.0010
3799.00,0.0010
3798.00,0.0010
3797.00,0.0010
3796.00,0.0011
3795.00,0.0011
3794.00,0.0011
3793.00,0.0011
3792.00,0.0011
3791.00,0.0011
3790.00,0.0011
3789.00,0.0011
3788.00,0.0011
3787.00,0.0011
3786.00,0.0011
3785.00,0.0010
3784.00,0.0010
3783.00,0.0011
3782.00,0.0011
3781.00,0.0011
3780.00,0.0011
3779.00,0.0011
3778.00,0.0010
3777.00,0.0010
3776.00,0.0010
3775.00,0.0011
3774.00,0.0011
3773.00,0.0011
3772.00,0.0011
3771.00,0.0010
3770.00,0.0010
3769.00,0.0010
3768.00,0.0010
3767.00,0.0010
3766.00,0.0011
3765.00,0.0011
3764.00,0.0012
3763.00,0.0012
3762.00,0.0012
3761.00,0.0011
3760.00,0.0011
3759.00,0.0011
3758.00,0.0011
3757.00,0.0011
3756.00,0.0010
3755.00,0.0009
3754.00,0.0009
3753.00,0.0008
3752.00,0.0008
3751.00,0.0008
3750.00,0.0008
3749.00,0.0008
3748.00,0.0008
3747.00,0.0008
3746.00,0.0008
3745.00,0.0009
3744.00,0.0009
3743.00,0.0009
3742.00,0.0009
3741.00,0.0008
3740.00,0.0008
3739.00,0.0008
3738.00,0.0007
3737.00,0.0007
3736.00,0.0008
3735.00,0.0008
3734.00,0.0008
3733.00,0.0008
3732.00,0.0008
3731.00,0.0009
3730.00,0.0009
3729.00,0.0009
3728.00,0.0009
3727.00,0.0009
3726.00,0.0010
3725.00,0.0010
3724.00,0.0011
3723.00,0.0011
3722.00,0.0010
3721.00,0.0010
3720.00,0.0010
3719.00,0.0010
3718.00,0.0010
3717.00,0.0009
3716.00,0.0009
3715.00,0.0009
3714.00,0.0009
3713.00,0.0009
3712.00,0.0009
3711.00,0.0009
3710.00,0.0009
3709.00,0.0009
3708.00,0.0009
3707.00,0.0009
3706.00,0.0009
3705.00,0.0009
3704.00,0.0010
3703.00,0.0010
3702.00,0.0010
3701.00,0.0011
3700.00,0.0011
3699.00,0.0011
3698.00,0.0010
3697.00,0.0010
3696.00,0.0010
3695.00,0.0009
3694.00,0.0009
3693.00,0.0009
3692.00,0.0009
3691.00,0.0008
3690.00,0.0008
3689.00,0.0007
3688.00,0.0008
3687.00,0.0008
3686.00,0.0009
3685.00,0.0009
3684.00,0.0010
3683.00,0.0010
3682.00,0.0010
3681.00,0.0010
3680.00,0.0011
3679.00,0.0011
3678.00,0.0011
3677.00,0.0010
3676.00,0.0010
3675.00,0.0009
3674.00,0.0009
3673.00,0.0008
3672.00,0.0008
3671.00,0.0008
3670.00,0.0008
3669.00,0.0009
3668.00,0.0009
3667.00,0.0010
3666.00,0.0010
3665.00,0.0010
3664.00,0.0010
3663.00,0.0010
3662.00,0.0009
3661.00,0.0009
3660.00,0.0009
3659.00,0.0010
3658.00,0.0010
3657.00,0.0010
3656.00,0.0010
3655.00,0.0011
3654.00,0.0011
3653.00,0.0011
3652.00,0.0010
3651.00,0.0010
3650.00,0.0009
3649.00,0.0009
3648.00,0.0009
3647.00,0.0009
3646.00,0.0010
3645.00,0.0010
3644.00,0.0010
3643.00,0.0010
3642.00,0.0010
3641.00,0.0010
3640.00,0.0010
3639.00,0.0011
3638.00,0.0011
3637.00,0.0012
3636.00,0.0012
3635.00,0.0012
3634.00,0.0012
3633.00,0.0012
3632.00,0.0011
3631.00,0.0011
3630.00,0.0011
3629.00,0.0011
3628.00,0.0011
3627.00,0.0010
3626.00,0.0010
3625.00,0.0011
3624.00,0.0011
3623.00,0.0011
3622.00,0.0011
3621.00,0.0011
3620.00,0.0011
3619.00,0.0011
3618.00,0.0012
3617.00,0.0012
3616.00,0.0012
3615.00,0.0012
3614.00,0.0012
3613.00,0.0012
3612.00,0.0012
3611.00,0.0012
3610.00,0.0012
3609.00,0.0012
3608.00,0.0012
3607.00,0.0013
3606.00,0.0013
3605.00,0.0013
3604.00,0.0013
3603.00,0.0013
3602.00,0.0014
3601.00,0.0014
3600.00,0.0014
3599.00,0.0014
3598.00,0.0014
3597.00,0.0014
3596.00,0.0014
3595.00,0.0015
3594.00,0.0015
3593.00,0.0015
3592.00,0.0016
3591.00,0.0016
3590.00,0.0016
3589.00,0.0016
3588.00,0.0015
3587.00,0.0015
3586.00,0.0015
3585.00,0.0015
3584.00,0.0015
3583.00,0.0015
3582.00,0.0016
3581.00,0.0016
3580.00,0.0017
3579.00,0.0017
3578.00,0.0017
3577.00,0.0018
3576.00,0.0018
3575.00,0.0018
3574.00,0.0018
3573.00,0.0018
3572.00,0.0018
3571.00,0.0018
3570.00,0.0019
3569.00,0.0019
3568.00,0.0019
3567.00,0.0019
3566.00,0.0019
3565.00,0.0019
3564.00,0.0020
3563.00,0.0020
3562.00,0.0020
3561.00,0.0020
3560.00,0.0020
3559.00,0.0020
3558.00,0.0020
3557.00,0.0020
3556.00,0.0021
3555.00,0.0021
3554.00,0.0021
3553.00,0.0021
3552.00,0.0021
3551.00,0.0021
3550.00,0.0021
3549.00,0.0022
3548.00,0.0022
3547.00,0.0022
3546.00,0.0023
3545.00,0.0023
3544.00,0.0023
3543.00,0.0023
3542.00,0.0024
3541.00,0.0024
3540.00,0.0024
3539.00,0.0024
3538.00,0.0024
3537.00,0.0024
3536.00,0.0024
3535.00,0.0024
3534.00,0.0024
3533.00,0.0024
3532.00,0.0024
3531.00,0.0024
3530.00,0.0024
3529.00,0.0025
3528.00,0.0025
3527.00,0.0026
3526.00,0.0026
3525.00,0.0026
3524.00,0.0026
3523.00,0.0026
3522.00,0.0026
3521.00,0.0026
3520.00,0.0026
3519.00,0.0026
3518.00,0.0026
3517.00,0.0026
3516.00,0.0026
3515.00,0.0026
3514.00,0.0026
3513.00,0.0026
3512.00,0.0027
3511.00,0.0027
3510.00,0.0028
3509.00,0.0028
3508.00,0.0028
3507.00,0.0028
3506.00,0.0029
3505.00,0.0029
3504.00,0.0029
3503.00,0.0029
3502.00,0.0029
3501.00,0.0029
3500.00,0.0029
3499.00,0.0030
3498.00,0.0030
3497.00,0.0030
3496.00,0.0030
3495.00,0.0029
3494.00,0.0029
3493.00,0.0029
3492.00,0.0030
3491.00,0.0030
3490.00,0.0030
3489.00,0.0031
3488.00,0.0031
3487.00,0.0031
3486.00,0.0032
3485.00,0.0032
3484.00,0.0032
3483.00,0.0032
3482.00,0.0032
3481.00,0.0032
3480.00,0.0032
3479.00,0.0032
3478.00,0.0032
3477.00,0.0032
3476.00,0.0032
3475.00,0.0033
3474.00,0.0033
3473.00,0.0033
3472.00,0.0033
3471.00,0.0033
3470.00,0.0034
3469.00,0.0034
3468.00,0.0034
3467.00,0.0034
3466.00,0.0034
3465.00,0.0034
3464.00,0.0034
3463.00,0.0035
3462.00,0.0035
3461.00,0.0036
3460.00,0.0036
3459.00,0.0036
3458.00,0.0036
3457.00,0.0036
3456.00,0.0036
3455.00,0.0036
3454.00,0.0036
3453.00,0.0036
3452.00,0.0036
3451.00,0.0037
3450.00,0.0037
3449.00,0.0037
3448.00,0.0038
3447.00,0.0038
3446.00,0.0038
3445.00,0.0038
3444.00,0.0038
3443.00,0.0038
3442.00,0.0039
3441.00,0.0039
3440.00,0.0039
3439.00,0.0040
3438.00,0.0040
3437.00,0.0040
3436.00,0.0040
3435.00,0.0040
3434.00,0.0040
3433.00,0.0040
3432.00,0.0040
3431.00,0.0040
3430.00,0.0040
3429.00,0.0040
3428.00,0.0041
3427.00,0.0041
3426.00,0.0041
3425.00,0.0042
3424.00,0.0042
3423.00,0.0042
3422.00,0.0042
3421.00,0.0042
3420.00,0.0042
3419.00,0.0043
3418.00,0.0043
3417.00,0.0043
3416.00,0.0044
3415.00,0.0044
3414.00,0.0044
3413.00,0.0043
3412.00,0.0043
3411.00,0.0043
3410.00,0.0043
3409.00,0.0043
3408.00,0.0044
3407.00,0.0044
3406.00,0.0044
3405.00,0.0045
3404.00,0.0045
3403.00,0.0046
3402.00,0.0046
3401.00,0.0045
3400.00,0.0045
3399.00,0.0045
3398.00,0.0045
3397.00,0.0045
3396.00,0.0045
3395.00,0.0045
3394.00,0.0045
3393.00,0.0045
3392.00,0.0045
3391.00,0.0046
3390.00,0.0046
3389.00,0.0046
3388.00,0.0046
3387.00,0.0046
3386.00,0.0046
3385.00,0.0046
3384.00,0.0046
3383.00,0.0046
3382.00,0.0046
3381.00,0.0046
3380.00,0.0046
3379.00,0.0046
3378.00,0.0046
3377.00,0.0046
3376.00,0.0047
3375.00,0.0047
3374.00,0.0048
3373.00,0.0048
3372.00,0.0048
3371.00,0.0048
3370.00,0.0048
3369.00,0.0048
3368.00,0.0047
3367.00,0.0047
3366.00,0.0047
3365.00,0.0048
3364.00,0.0048
3363.00,0.0048
3362.00,0.0048
3361.00,0.0048
3360.00,0.0048
3359.00,0.0048
3358.00,0.0049
3357.00,0.0049
3356.00,0.0050
3355.00,0.0050
3354.00,0.0050
3353.00,0.0050
3352.00,0.0050
3351.00,0.0050
3350.00,0.0050
3349.00,0.0050
3348.00,0.0050
3347.00,0.0050
3346.00,0.0051
3345.00,0.0051
3344.00,0.0051
3343.00,0.0050
3342.00,0.0050
3341.00,0.0050
3340.00,0.0050
3339.00,0.0050
3338.00,0.0050
3337.00,0.0050
3336.00,0.0050
3335.00,0.0050
3334.00,0.0050
3333.00,0.0050
3332.00,0.0050
3331.00,0.0050
3330.00,0.0050
3329.00,0.0049
3328.00,0.0049
3327.00,0.0050
3326.00,0.0050
3325.00,0.0050
3324.00,0.0049
3323.00,0.0049
3322.00,0.0050
3321.00,0.0050
3320.00,0.0050
3319.00,0.0050
3318.00,0.0050
3317.00,0.0050
3316.00,0.0050
3315.00,0.0050
3314.00,0.0050
3313.00,0.0050
3312.00,0.0050
3311.00,0.0050
3310.00,0.0050
3309.00,0.0051
3308.00,0.0051
3307.00,0.0052
3306.00,0.0052
3305.00,0.0052
3304.00,0.0052
3303.00,0.0051
3302.00,0.0051
3301.00,0.0051
3300.00,0.0051
3299.00,0.0051
3298.00,0.0051
3297.00,0.0051
3296.00,0.0050
3295.00,0.0050
3294.00,0.0050
3293.00,0.0050
3292.00,0.0050
3291.00,0.0049
3290.00,0.0049
3289.00,0.0049
3288.00,0.0049
3287.00,0.0049
3286.00,0.0049
3285.00,0.0049
3284.00,0.0049
3283.00,0.0049
3282.00,0.0048
3281.00,0.0048
3280.00,0.0048
3279.00,0.0048
3278.00,0.0049
3277.00,0.0049
3276.00,0.0048
3275.00,0.0048
3274.00,0.0048
3273.00,0.0047
3272.00,0.0047
3271.00,0.0046
3270.00,0.0046
3269.00,0.0046
3268.00,0.0046
3267.00,0.0046
3266.00,0.0046
3265.00,0.0046
3264.00,0.0046
3263.00,0.0045
3262.00,0.0045
3261.00,0.0045
3260.00,0.0045
3259.00,0.0045
3258.00,0.0045
3257.00,0.0044
3256.00,0.0044
3255.00,0.0044
3254.00,0.0044
3253.00,0.0043
3252.00,0.0043
3251.00,0.0043
3250.00,0.0043
3249.00,0.0043
3248.00,0.0044
3247.00,0.0044
3246.00,0.0044
3245.00,0.0043
3244.00,0.0043
3243.00,0.0043
3242.00,0.0044
3241.00,0.0044
3240.00,0.0044
3239.00,0.0044
3238.00,0.0044
3237.00,0.0044
3236.00,0.0043
3235.00,0.0043
3234.00,0.0043
3233.00,0.0043
3232.00,0.0043
3231.00,0.0043
3230.00,0.0043
3229.00,0.0043
3228.00,0.0043
3227.00,0.0043
3226.00,0.0044
3225.00,0.0044
3224.00,0.0044
3223.00,0.0045
3222.00,0.0045
3221.00,0.0045
3220.00,0.0045
3219.00,0.0045
3218.00,0.0045
3217.00,0.0045
3216.00,0.0045
3215.00,0.0045
3214.00,0.0045
3213.00,0.0045
3212.00,0.0046
3211.00,0.0046
3210.00,0.0046
3209.00,0.0046
3208.00,0.0046
3207.00,0.0046
3206.00,0.0046
3205.00,0.0047
3204.00,0.0047
3203.00,0.0047
3202.00,0.0046
3201.00,0.0047
3200.00,0.0047
3199.00,0.0047
3198.00,0.0047
3197.00,0.0047
3196.00,0.0047
3195.00,0.0047
3194.00,0.0047
3193.00,0.0047
3192.00,0.0047
3191.00,0.0047
3190.00,0.0047
3189.00,0.0046
3188.00,0.0046
3187.00,0.0046
3186.00,0.0046
3185.00,0.0045
3184.00,0.0045
3183.00,0.0045
3182.00,0.0045
3181.00,0.0044
3180.00,0.0044
3179.00,0.0044
3178.00,0.0044
3177.00,0.0044
3176.00,0.0044
3175.00,0.0044
3174.00,0.0044
3173.00,0.0044
3172.00,0.0044
3171.00,0.0044
3170.00,0.0043
3169.00,0.0043
3168.00,0.0043
3167.00,0.0043
3166.00,0.0042
3165.00,0.0042
3164.00,0.0042
3163.00,0.0042
3162.00,0.0042
3161.00,0.0042
3160.00,0.0042
3159.00,0.0042
3158.00,0.0043
3157.00,0.0043
3156.00,0.0042
3155.00,0.0042
3154.00,0.0042
3153.00,0.0042
3152.00,0.0042
3151.00,0.0042
3150.00,0.0042
3149.00,0.0042
3148.00,0.0042
3147.00,0.0042
3146.00,0.0042
3145.00,0.0042
3144.00,0.0042
3143.00,0.0042
3142.00,0.0042
3141.00,0.0041
3140.00,0.0041
3139.00,0.0041
3138.00,0.0041
3137.00,0.0040
3136.00,0.0040
3135.00,0.0040
3134.00,0.0040
3133.00,0.0040
3132.00,0.0039
3131.00,0.0039
3130.00,0.0039
3129.00,0.0039
3128.00,0.0038
3127.00,0.0038
3126.00,0.0038
3125.00,0.0038
3124.00,0.0038
3123.00,0.0037
3122.00,0.0037
3121.00,0.0037
3120.00,0.0036
3119.00,0.0036
3118.00,0.0036
3117.00,0.0036
3116.00,0.0036
3115.00,0.0036
3114.00,0.0036
3113.00,0.0036
3112.00,0.0036
3111.00,0.0035
3110.00,0.0035
3109.00,0.0035
3108.00,0.0035
3107.00,0.0035
3106.00,0.0035
3105.00,0.0035
3104.00,0.0035
3103.00,0.0035
3102.00,0.0034
3101.00,0.0034
3100.00,0.0034
3099.00,0.0035
3098.00,0.0035
3097.00,0.0035
3096.00,0.0035
3095.00,0.0035
3094.00,0.0035
3093.00,0.0035
3092.00,0.0035
3091.00,0.0035
3090.00,0.0035
3089.00,0.0035
3088.00,0.0035
3087.00,0.0035
3086.00,0.0035
3085.00,0.0035
3084.00,0.0035
3083.00,0.0035
3082.00,0.0035
3081.00,0.0035
3080.00,0.0035
3079.00,0.0035
3078.00,0.0035
3077.00,0.0036
3076.00,0.0036
3075.00,0.0036
3074.00,0.0036
3073.00,0.0036
3072.00,0.0036
3071.00,0.0037
3070.00,0.0037
3069.00,0.0037
3068.00,0.0037
3067.00,0.0038
3066.00,0.0038
3065.00,0.0038
3064.00,0.0038
3063.00,0.0038
3062.00,0.0038
3061.00,0.0038
3060.00,0.0038
3059.00,0.0038
3058.00,0.0038
3057.00,0.0039
3056.00,0.0039
3055.00,0.0039
3054.00,0.0039
3053.00,0.0039
3052.00,0.0039
3051.00,0.0039
3050.00,0.0040
3049.00,0.0040
3048.00,0.0040
3047.00,0.0041
3046.00,0.0041
3045.00,0.0041
3044.00,0.0041
3043.00,0.0041
3042.00,0.0041
3041.00,0.0041
3040.00,0.0042
3039.00,0.0042
3038.00,0.0043
3037.00,0.0043
3036.00,0.0043
3035.00,0.0043
3034.00,0.0044
3033.00,0.0044
3032.00,0.0045
3031.00,0.0045
3030.00,0.0046
3029.00,0.0046
3028.00,0.0046
3027.00,0.0047
3026.00,0.0047
3025.00,0.0048
3024.00,0.0048
3023.00,0.0049
3022.00,0.0050
3021.00,0.0050
3020.00,0.0051
3019.00,0.0052
3018.00,0.0052
3017.00,0.0053
3016.00,0.0053
3015.00,0.0054
3014.00,0.0055
3013.00,0.0056
3012.00,0.0058
3011.00,0.0059
3010.00,0.0061
3009.00,0.0063
3008.00,0.0064
3007.00,0.0066
3006.00,0.0068
3005.00,0.0070
3004.00,0.0072
3003.00,0.0075
3002.00,0.0077
3001.00,0.0080
3000.00,0.0083
2999.00,0.0086
2998.00,0.0089
2997.00,0.0092
2996.00,0.0096
2995.00,0.0100
2994.00,0.0104
2993.00,0.0109
2992.00,0.0114
2991.00,0.0119
2990.00,0.0125
2989.00,0.0132
2988.00,0.0140
2987.00,0.0149
2986.00,0.0159
2985.00,0.0171
2984.00,0.0183
2983.00,0.0198
2982.00,0.0213
2981.00,0.0231
2980.00,0.0250
2979.00,0.0272
2978.00,0.0297
2977.00,0.0326
2976.00,0.0359
2975.00,0.0397
2974.00,0.0440
2973.00,0.0489
2972.00,0.0544
2971.00,0.0607
2970.00,0.0677
2969.00,0.0754
2968.00,0.0837
2967.00,0.0927
2966.00,0.1022
2965.00,0.1120
2964.00,0.1218
2963.00,0.1311
2962.00,0.1394
2961.00,0.1464
2960.00,0.1519
2959.00,0.1562
2958.00,0.1596
2957.00,0.1627
2956.00,0.1662
2955.00,0.1703
2954.00,0.1750
2953.00,0.1799
2952.00,0.1841
2951.00,0.1866
2950.00,0.1864
2949.00,0.1829
2948.00,0.1760
2947.00,0.1663
2946.00,0.1548
2945.00,0.1428
2944.00,0.1315
2943.00,0.1219
2942.00,0.1145
2941.00,0.1095
2940.00,0.1068
2939.00,0.1063
2938.00,0.1076
2937.00,0.1107
2936.00,0.1152
2935.00,0.1212
2934.00,0.1284
2933.00,0.1367
2932.00,0.1461
2931.00,0.1563
2930.00,0.1671
2929.00,0.1782
2928.00,0.1892
2927.00,0.1999
2926.00,0.2102
2925.00,0.2202
2924.00,0.2297
2923.00,0.2391
2922.00,0.2482
2921.00,0.2568
2920.00,0.2642
2919.00,0.2696
2918.00,0.2721
2917.00,0.2711
2916.00,0.2664
2915.00,0.2586
2914.00,0.2489
2913.00,0.2385
2912.00,0.2284
2911.00,0.2192
2910.00,0.2111
2909.00,0.2039
2908.00,0.1975
2907.00,0.1913
2906.00,0.1852
2905.00,0.1790
2904.00,0.1725
2903.00,0.1660
2902.00,0.1594
2901.00,0.1529
2900.00,0.1466
2899.00,0.1406
2898.00,0.1350
2897.00,0.1297
2896.00,0.1250
2895.00,0.1208
2894.00,0.1172
2893.00,0.1142
2892.00,0.1117
2891.00,0.1098
2890.00,0.1083
2889.00,0.1072
2888.00,0.1065
2887.00,0.1062
2886.00,0.1062
2885.00,0.1066
2884.00,0.1074
2883.00,0.1086
2882.00,0.1103
2881.00,0.1121
2880.00,0.1140
2879.00,0.1154
2878.00,0.1163
2877.00,0.1164
2876.00,0.1160
2875.00,0.1153
2874.00,0.1148
2873.00,0.1149
2872.00,0.1156
2871.00,0.1169
2870.00,0.1185
2869.00,0.1201
2868.00,0.1209
2867.00,0.1203
2866.00,0.1179
2865.00,0.1134
2864.00,0.1074
2863.00,0.1006
2862.00,0.0939
2861.00,0.0882
2860.00,0.0839
2859.00,0.0811
2858.00,0.0797
2857.00,0.0795
2856.00,0.0803
2855.00,0.0819
2854.00,0.0840
2853.00,0.0864
2852.00,0.0889
2851.00,0.0910
2850.00,0.0925
2849.00,0.0934
2848.00,0.0940
2847.00,0.0948
2846.00,0.0963
2845.00,0.0989
2844.00,0.1026
2843.00,0.1071
2842.00,0.1121
2841.00,0.1168
2840.00,0.1204
2839.00,0.1223
2838.00,0.1216
2837.00,0.1179
2836.00,0.1114
2835.00,0.1026
2834.00,0.0924
2833.00,0.0818
2832.00,0.0718
2831.00,0.0628
2830.00,0.0553
2829.00,0.0491
2828.00,0.0441
2827.00,0.0400
2826.00,0.0366
2825.00,0.0338
2824.00,0.0315
2823.00,0.0295
2822.00,0.0279
2821.00,0.0264
2820.00,0.0251
2819.00,0.0240
2818.00,0.0230
2817.00,0.0222
2816.00,0.0214
2815.00,0.0207
2814.00,0.0201
2813.00,0.0195
2812.00,0.0189
2811.00,0.0184
2810.00,0.0178
2809.00,0.0173
2808.00,0.0167
2807.00,0.0162
2806.00,0.0155
2805.00,0.0149
2804.00,0.0143
2803.00,0.0137
2802.00,0.0132
2801.00,0.0128
2800.00,0.0124
2799.00,0.0122
2798.00,0.0119
2797.00,0.0117
2796.00,0.0114
2795.00,0.0112
2794.00,0.0109
2793.00,0.0106
2792.00,0.0103
2791.00,0.0099
2790.00,0.0096
2789.00,0.0093
2788.00,0.0089
2787.00,0.0086
2786.00,0.0084
2785.00,0.0081
2784.00,0.0079
2783.00,0.0077
2782.00,0.0075
2781.00,0.0073
2780.00,0.0071
2779.00,0.0070
2778.00,0.0068
2777.00,0.0066
2776.00,0.0065
2775.00,0.0064
2774.00,0.0064
2773.00,0.0063
2772.00,0.0062
2771.00,0.0062
2770.00,0.0061
2769.00,0.0061
2768.00,0.0060
2767.00,0.0060
2766.00,0.0060
2765.00,0.0059
2764.00,0.0059
2763.00,0.0059
2762.00,0.0059
2761.00,0.0058
2760.00,0.0058
2759.00,0.0058
2758.00,0.0057
2757.00,0.0057
2756.00,0.0057
2755.00,0.0057
2754.00,0.0057
2753.00,0.0057
2752.00,0.0056
2751.00,0.0056
2750.00,0.0056
2749.00,0.0056
2748.00,0.0056
2747.00,0.0056
2746.00,0.0057
2745.00,0.0057
2744.00,0.0058
2743.00,0.0058
2742.00,0.0059
2741.00,0.0060
2740.00,0.0061
2739.00,0.0063
2738.00,0.0064
2737.00,0.0065
2736.00,0.0067
2735.00,0.0068
2734.00,0.0069
2733.00,0.0071
2732.00,0.0073
2731.00,0.0074
2730.00,0.0076
2729.00,0.0078
2728.00,0.0081
2727.00,0.0084
2726.00,0.0086
2725.00,0.0088
2724.00,0.0090
2723.00,0.0090
2722.00,0.0089
2721.00,0.0087
2720.00,0.0084
2719.00,0.0081
2718.00,0.0078
2717.00,0.0076
2716.00,0.0073
2715.00,0.0070
2714.00,0.0068
2713.00,0.0066
2712.00,0.0064
2711.00,0.0062
2710.00,0.0061
2709.00,0.0060
2708.00,0.0059
2707.00,0.0058
2706.00,0.0056
2705.00,0.0055
2704.00,0.0054
2703.00,0.0053
2702.00,0.0052
2701.00,0.0052
2700.00,0.0051
2699.00,0.0051
2698.00,0.0051
2697.00,0.0050
2696.00,0.0050
2695.00,0.0050
2694.00,0.0050
2693.00,0.0050
2692.00,0.0050
2691.00,0.0050
2690.00,0.0050
2689.00,0.0050
2688.00,0.0050
2687.00,0.0050
2686.00,0.0050
2685.00,0.0050
2684.00,0.0050
2683.00,0.0050
2682.00,0.0050
2681.00,0.0050
2680.00,0.0050
2679.00,0.0050
2678.00,0.0050
2677.00,0.0050
2676.00,0.0050
2675.00,0.0050
2674.00,0.0050
2673.00,0.0050
2672.00,0.0050
2671.00,0.0050
2670.00,0.0049
2669.00,0.0049
2668.00,0.0049
2667.00,0.0049
2666.00,0.0049
2665.00,0.0050
2664.00,0.0050
2663.00,0.0051
2662.00,0.0051
2661.00,0.0051
2660.00,0.0051
2659.00,0.0051
2658.00,0.0051
2657.00,0.0051
2656.00,0.0051
2655.00,0.0051
2654.00,0.0050
2653.00,0.0050
2652.00,0.0049
2651.00,0.0049
2650.00,0.0049
2649.00,0.0048
2648.00,0.0048
2647.00,0.0048
2646.00,0.0047
2645.00,0.0046
2644.00,0.0046
2643.00,0.0045
2642.00,0.0045
2641.00,0.0045
2640.00,0.0044
2639.00,0.0044
2638.00,0.0043
2637.00,0.0043
2636.00,0.0043
2635.00,0.0042
2634.00,0.0042
2633.00,0.0042
2632.00,0.0042
2631.00,0.0043
2630.00,0.0043
2629.00,0.0044
2628.00,0.0044
2627.00,0.0044
2626.00,0.0044
2625.00,0.0044
2624.00,0.0044
2623.00,0.0044
2622.00,0.0043
2621.00,0.0043
2620.00,0.0043
2619.00,0.0043
2618.00,0.0043
2617.00,0.0044
2616.00,0.0044
2615.00,0.0044
2614.00,0.0043
2613.00,0.0043
2612.00,0.0042
2611.00,0.0042
2610.00,0.0041
2609.00,0.0041
2608.00,0.0040
2607.00,0.0039
2606.00,0.0039
2605.00,0.0038
2604.00,0.0038
2603.00,0.0038
2602.00,0.0037
2601.00,0.0037
2600.00,0.0037
2599.00,0.0036
2598.00,0.0036
2597.00,0.0036
2596.00,0.0036
2595.00,0.0036
2594.00,0.0036
2593.00,0.0036
2592.00,0.0036
2591.00,0.0037
2590.00,0.0038
2589.00,0.0039
2588.00,0.0040
2587.00,0.0041
2586.00,0.0041
2585.00,0.0041
2584.00,0.0042
2583.00,0.0042
2582.00,0.0042
2581.00,0.0042
2580.00,0.0042
2579.00,0.0041
2578.00,0.0039
2577.00,0.0038
2576.00,0.0037
2575.00,0.0036
2574.00,0.0035
2573.00,0.0034
2572.00,0.0033
2571.00,0.0032
2570.00,0.0031
2569.00,0.0030
2568.00,0.0030
2567.00,0.0029
2566.00,0.0029
2565.00,0.0028
2564.00,0.0028
2563.00,0.0027
2562.00,0.0027
2561.00,0.0027
2560.00,0.0027
2559.00,0.0027
2558.00,0.0027
2557.00,0.0027
2556.00,0.0026
2555.00,0.0026
2554.00,0.0026
2553.00,0.0026
2552.00,0.0026
2551.00,0.0025
2550.00,0.0025
2549.00,0.0024
2548.00,0.0024
2547.00,0.0023
2546.00,0.0023
2545.00,0.0022
2544.00,0.0022
2543.00,0.0022
2542.00,0.0021
2541.00,0.0021
2540.00,0.0021
2539.00,0.0021
2538.00,0.0021
2537.00,0.0020
2536.00,0.0020
2535.00,0.0020
2534.00,0.0020
2533.00,0.0020
2532.00,0.0020
2531.00,0.0019
2530.00,0.0019
2529.00,0.0019
2528.00,0.0019
2527.00,0.0019
2526.00,0.0019
2525.00,0.0019
2524.00,0.0019
2523.00,0.0018
2522.00,0.0018
2521.00,0.0017
2520.00,0.0017
2519.00,0.0016
2518.00,0.0016
2517.00,0.0016
2516.00,0.0016
2515.00,0.0016
2514.00,0.0016
2513.00,0.0016
2512.00,0.0015
2511.00,0.0015
2510.00,0.0014
2509.00,0.0014
2508.00,0.0013
2507.00,0.0013
2506.00,0.0014
2505.00,0.0014
2504.00,0.0015
2503.00,0.0015
2502.00,0.0015
2501.00,0.0015
2500.00,0.0015
2499.00,0.0014
2498.00,0.0014
2497.00,0.0014
2496.00,0.0014
2495.00,0.0014
2494.00,0.0014
2493.00,0.0014
2492.00,0.0015
2491.00,0.0015
2490.00,0.0015
2489.00,0.0015
2488.00,0.0014
2487.00,0.0014
2486.00,0.0013
2485.00,0.0013
2484.00,0.0013
2483.00,0.0013
2482.00,0.0013
2481.00,0.0013
2480.00,0.0013
2479.00,0.0013
2478.00,0.0013
2477.00,0.0013
2476.00,0.0013
2475.00,0.0014
2474.00,0.0014
2473.00,0.0014
2472.00,0.0014
2471.00,0.0014
2470.00,0.0014
2469.00,0.0014
2468.00,0.0013
2467.00,0.0013
2466.00,0.0013
2465.00,0.0013
2464.00,0.0013
2463.00,0.0013
2462.00,0.0014
2461.00,0.0014
2460.00,0.0014
2459.00,0.0014
2458.00,0.0014
2457.00,0.0014
2456.00,0.0014
2455.00,0.0014
2454.00,0.0013
2453.00,0.0013
2452.00,0.0014
2451.00,0.0014
2450.00,0.0015
2449.00,0.0015
2448.00,0.0015
2447.00,0.0015
2446.00,0.0015
2445.00,0.0015
2444.00,0.0015
2443.00,0.0015
2442.00,0.0014
2441.00,0.0014
2440.00,0.0014
2439.00,0.0013
2438.00,0.0013
2437.00,0.0014
2436.00,0.0015
2435.00,0.0015
2434.00,0.0016
2433.00,0.0016
2432.00,0.0016
2431.00,0.0016
2430.00,0.0016
2429.00,0.0016
2428.00,0.0015
2427.00,0.0015
2426.00,0.0015
2425.00,0.0015
2424.00,0.0016
2423.00,0.0016
2422.00,0.0016
2421.00,0.0015
2420.00,0.0015
2419.00,0.0014
2418.00,0.0014
2417.00,0.0014
2416.00,0.0015
2415.00,0.0015
2414.00,0.0015
2413.00,0.0015
2412.00,0.0015
2411.00,0.0015
2410.00,0.0015
2409.00,0.0014
2408.00,0.0014
2407.00,0.0014
2406.00,0.0014
2405.00,0.0014
2404.00,0.0014
2403.00,0.0014
2402.00,0.0014
2401.00,0.0014
2400.00,0.0013
2399.00,0.0013
2398.00,0.0012
2397.00,0.0012
2396.00,0.0013
2395.00,0.0013
2394.00,0.0013
2393.00,0.0013
2392.00,0.0012
2391.00,0.0012
2390.00,0.0011
2389.00,0.0011
2388.00,0.0011
2387.00,0.0011
2386.00,0.0011
2385.00,0.0011
2384.00,0.0010
2383.00,0.0010
2382.00,0.0009
2381.00,0.0008
2380.00,0.0008
2379.00,0.0008
2378.00,0.0009
2377.00,0.0010
2376.00,0.0011
2375.00,0.0011
2374.00,0.0011
2373.00,0.0011
2372.00,0.0011
2371.00,0.0011
2370.00,0.0011
2369.00,0.0011
2368.00,0.0011
2367.00,0.0011
2366.00,0.0010
2365.00,0.0010
2364.00,0.0010
2363.00,0.0011
2362.00,0.0012
2361.00,0.0012
2360.00,0.0013
2359.00,0.0013
2358.00,0.0012
2357.00,0.0012
2356.00,0.0012
2355.00,0.0013
2354.00,0.0013
2353.00,0.0013
2352.00,0.0012
2351.00,0.0012
2350.00,0.0012
2349.00,0.0013
2348.00,0.0014
2347.00,0.0014
2346.00,0.0014
2345.00,0.0014
2344.00,0.0014
2343.00,0.0015
2342.00,0.0015
2341.00,0.0015
2340.00,0.0015
2339.00,0.0015
2338.00,0.0016
2337.00,0.0016
2336.00,0.0016
2335.00,0.0016
2334.00,0.0016
2333.00,0.0015
2332.00,0.0014
2331.00,0.0013
2330.00,0.0013
2329.00,0.0014
2328.00,0.0016
2327.00,0.0019
2326.00,0.0022
2325.00,0.0024
2324.00,0.0025
2323.00,0.0024
2322.00,0.0022
2321.00,0.0021
2320.00,0.0020
2319.00,0.0020
2318.00,0.0019
2317.00,0.0019
2316.00,0.0018
2315.00,0.0018
2314.00,0.0017
2313.00,0.0016
2312.00,0.0016
2311.00,0.0015
2310.00,0.0014
2309.00,0.0013
2308.00,0.0013
2307.00,0.0013
2306.00,0.0013
2305.00,0.0013
2304.00,0.0013
2303.00,0.0014
2302.00,0.0015
2301.00,0.0016
2300.00,0.0016
2299.00,0.0016
2298.00,0.0016
2297.00,0.0016
2296.00,0.0017
2295.00,0.0017
2294.00,0.0017
2293.00,0.0018
2292.00,0.0019
2291.00,0.0020
2290.00,0.0021
2289.00,0.0021
2288.00,0.0021
2287.00,0.0021
2286.00,0.0021
2285.00,0.0020
2284.00,0.0020
2283.00,0.0019
2282.00,0.0019
2281.00,0.0019
2280.00,0.0018
2279.00,0.0016
2278.00,0.0015
2277.00,0.0015
2276.00,0.0016
2275.00,0.0017
2274.00,0.0017
2273.00,0.0017
2272.00,0.0016
2271.00,0.0016
2270.00,0.0015
2269.00,0.0015
2268.00,0.0015
2267.00,0.0016
2266.00,0.0016
2265.00,0.0016
2264.00,0.0015
2263.00,0.0014
2262.00,0.0013
2261.00,0.0013
2260.00,0.0015
2259.00,0.0016
2258.00,0.0017
2257.00,0.0017
2256.00,0.0017
2255.00,0.0017
2254.00,0.0016
2253.00,0.0015
2252.00,0.0014
2251.00,0.0015
2250.00,0.0016
2249.00,0.0017
2248.00,0.0017
2247.00,0.0016
2246.00,0.0014
2245.00,0.0014
2244.00,0.0014
2243.00,0.0014
2242.00,0.0015
2241.00,0.0015
2240.00,0.0014
2239.00,0.0013
2238.00,0.0012
2237.00,0.0012
2236.00,0.0012
2235.00,0.0012
2234.00,0.0012
2233.00,0.0012
2232.00,0.0012
2231.00,0.0011
2230.00,0.0010
2229.00,0.0010
2228.00,0.0010
2227.00,0.0010
2226.00,0.0011
2225.00,0.0013
2224.00,0.0015
2223.00,0.0016
2222.00,0.0016
2221.00,0.0015
2220.00,0.0014
2219.00,0.0013
2218.00,0.0011
2217.00,0.0010
2216.00,0.0011
2215.00,0.0011
2214.00,0.0012
2213.00,0.0012
2212.00,0.0012
2211.00,0.0011
2210.00,0.0010
2209.00,0.0009
2208.00,0.0008
2207.00,0.0008
2206.00,0.0008
2205.00,0.0008
2204.00,0.0008
2203.00,0.0009
2202.00,0.0011
2201.00,0.0013
2200.00,0.0014
2199.00,0.0014
2198.00,0.0013
2197.00,0.0012
2196.00,0.0013
2195.00,0.0013
2194.00,0.0014
2193.00,0.0015
2192.00,0.0016
2191.00,0.0018
2190.00,0.0020
2189.00,0.0020
2188.00,0.0020
2187.00,0.0019
2186.00,0.0018
2185.00,0.0016
2184.00,0.0012
2183.00,0.0008
2182.00,0.0005
2181.00,0.0003
2180.00,0.0004
2179.00,0.0005
2178.00,0.0007
2177.00,0.0007
2176.00,0.0006
2175.00,0.0005
2174.00,0.0005
2173.00,0.0007
2172.00,0.0009
2171.00,0.0012
2170.00,0.0014
2169.00,0.0015
2168.00,0.0017
2167.00,0.0018
2166.00,0.0019
2165.00,0.0020
2164.00,0.0021
2163.00,0.0021
2162.00,0.0020
2161.00,0.0016
2160.00,0.0004
2159.00,-0.0012
2158.00,-0.0026
2157.00,-0.0030
2156.00,-0.0027
2155.00,-0.0020
2154.00,-0.0015
2153.00,-0.0014
2152.00,-0.0014
2151.00,-0.0014
2150.00,-0.0014
2149.00,-0.0013
2148.00,-0.0011
2147.00,-0.0008
2146.00,-0.0006
2145.00,-0.0005
2144.00,-0.0006
2143.00,-0.0009
2142.00,-0.0011
2141.00,-0.0011
2140.00,-0.0011
2139.00,-0.0010
2138.00,-0.0009
2137.00,-0.0008
2136.00,-0.0007
2135.00,-0.0007
2134.00,-0.0007
2133.00,-0.0007
2132.00,-0.0007
2131.00,-0.0007
2130.00,-0.0008
2129.00,-0.0008
2128.00,-0.0007
2127.00,-0.0004
2126.00,-0.0001
2125.00,-0.0000
2124.00,-0.0000
2123.00,-0.0000
2122.00,0.0000
2121.00,0.0001
2120.00,0.0001
2119.00,0.0000
2118.00,0.0000
2117.00,0.0002
2116.00,0.0004
2115.00,0.0006
2114.00,0.0007
2113.00,0.0007
2112.00,0.0008
2111.00,0.0009
2110.00,0.0009
2109.00,0.0009
2108.00,0.0008
2107.00,0.0006
2106.00,0.0005
2105.00,0.0005
2104.00,0.0005
2103.00,0.0005
2102.00,0.0004
2101.00,0.0003
2100.00,0.0004
2099.00,0.0005
2098.00,0.0006
2097.00,0.0006
2096.00,0.0004
2095.00,0.0003
2094.00,0.0001
2093.00,0.0001
2092.00,0.0002
2091.00,0.0003
2090.00,0.0004
2089.00,0.0004
2088.00,0.0004
2087.00,0.0005
2086.00,0.0006
2085.00,0.0006
2084.00,0.0006
2083.00,0.0006
2082.00,0.0007
2081.00,0.0007
2080.00,0.0008
2079.00,0.0008
2078.00,0.0008
2077.00,0.0008
2076.00,0.0007
2075.00,0.0006
2074.00,0.0005
2073.00,0.0005
2072.00,0.0005
2071.00,0.0006
2070.00,0.0005
2069.00,0.0005
2068.00,0.0005
2067.00,0.0005
2066.00,0.0004
2065.00,0.0004
2064.00,0.0005
2063.00,0.0005
2062.00,0.0006
2061.00,0.0006
2060.00,0.0006
2059.00,0.0006
2058.00,0.0006
2057.00,0.0007
2056.00,0.0008
2055.00,0.0009
2054.00,0.0009
2053.00,0.0011
2052.00,0.0012
2051.00,0.0011
2050.00,0.0009
2049.00,0.0006
2048.00,0.0004
2047.00,0.0001
2046.00,-0.0001
2045.00,-0.0001
2044.00,0.0001
2043.00,0.0002
2042.00,0.0001
2041.00,-0.0001
2040.00,-0.0003
2039.00,-0.0003
2038.00,-0.0002
2037.00,0.0001
2036.00,0.0003
2035.00,0.0002
2034.00,-0.0000
2033.00,-0.0002
2032.00,-0.0002
2031.00,-0.0003
2030.00,-0.0005
2029.00,-0.0007
2028.00,-0.0010
2027.00,-0.0011
2026.00,-0.0011
2025.00,-0.0010
2024.00,-0.0008
2023.00,-0.0007
2022.00,-0.0006
2021.00,-0.0005
2020.00,-0.0003
2019.00,-0.0002
2018.00,-0.0003
2017.00,-0.0004
2016.00,-0.0006
2015.00,-0.0006
2014.00,-0.0005
2013.00,-0.0001
2012.00,0.0002
2011.00,0.0004
2010.00,0.0003
2009.00,-0.0001
2008.00,-0.0006
2007.00,-0.0011
2006.00,-0.0014
2005.00,-0.0013
2004.00,-0.0012
2003.00,-0.0011
2002.00,-0.0010
2001.00,-0.0008
2000.00,-0.0006
1999.00,-0.0006
1998.00,-0.0007
1997.00,-0.0010
1996.00,-0.0011
1995.00,-0.0012
1994.00,-0.0011
1993.00,-0.0009
1992.00,-0.0006
1991.00,-0.0004
1990.00,-0.0003
1989.00,-0.0003
1988.00,-0.0003
1987.00,-0.0002
1986.00,0.0000
1985.00,0.0005
1984.00,0.0009
1983.00,0.0011
1982.00,0.0014
1981.00,0.0016
1980.00,0.0016
1979.00,0.0013
1978.00,0.0007
1977.00,0.0001
1976.00,-0.0003
1975.00,-0.0005
1974.00,-0.0006
1973.00,-0.0007
1972.00,-0.0008
1971.00,-0.0008
1970.00,-0.0008
1969.00,-0.0009
1968.00,-0.0010
1967.00,-0.0011
1966.00,-0.0011
1965.00,-0.0009
1964.00,-0.0007
1963.00,-0.0007
1962.00,-0.0008
1961.00,-0.0009
1960.00,-0.0010
1959.00,-0.0010
1958.00,-0.0009
1957.00,-0.0008
1956.00,-0.0008
1955.00,-0.0008
1954.00,-0.0009
1953.00,-0.0009
1952.00,-0.0009
1951.00,-0.0008
1950.00,-0.0008
1949.00,-0.0009
1948.00,-0.0010
1947.00,-0.0011
1946.00,-0.0011
1945.00,-0.0010
1944.00,-0.0008
1943.00,-0.0007
1942.00,-0.0006
1941.00,-0.0004
1940.00,-0.0003
1939.00,-0.0002
1938.00,-0.0003
1937.00,-0.0004
1936.00,-0.0005
1935.00,-0.0005
1934.00,-0.0005
1933.00,-0.0004
1932.00,-0.0004
1931.00,-0.0004
1930.00,-0.0004
1929.00,-0.0004
1928.00,-0.0003
1927.00,-0.0003
1926.00,-0.0003
1925.00,-0.0002
1924.00,-0.0001
1923.00,0.0000
1922.00,0.0001
1921.00,0.0001
1920.00,0.0001
1919.00,0.0001
1918.00,0.0001
1917.00,0.0001
1916.00,0.0002
1915.00,0.0001
1914.00,0.0001
1913.00,0.0001
1912.00,0.0001
1911.00,0.0002
1910.00,0.0002
1909.00,0.0003
1908.00,0.0003
1907.00,0.0004
1906.00,0.0003
1905.00,0.0003
1904.00,0.0002
1903.00,0.0001
1902.00,0.0001
1901.00,0.0003
1900.00,0.0004
1899.00,0.0005
1898.00,0.0004
1897.00,0.0004
1896.00,0.0003
1895.00,0.0002
1894.00,0.0002
1893.00,0.0002
1892.00,0.0004
1891.00,0.0005
1890.00,0.0006
1889.00,0.0006
1888.00,0.0006
1887.00,0.0006
1886.00,0.0005
1885.00,0.0004
1884.00,0.0004
1883.00,0.0003
1882.00,0.0003
1881.00,0.0004
1880.00,0.0004
1879.00,0.0004
1878.00,0.0004
1877.00,0.0004
1876.00,0.0003
1875.00,0.0003
1874.00,0.0003
1873.00,0.0004
1872.00,0.0005
1871.00,0.0005
1870.00,0.0005
1869.00,0.0005
1868.00,0.0005
1867.00,0.0005
1866.00,0.0005
1865.00,0.0005
1864.00,0.0006
1863.00,0.0006
1862.00,0.0006
1861.00,0.0005
1860.00,0.0005
1859.00,0.0005
1858.00,0.0005
1857.00,0.0006
1856.00,0.0007
1855.00,0.0007
1854.00,0.0007
1853.00,0.0007
1852.00,0.0006
1851.00,0.0005
1850.00,0.0005
1849.00,0.0005
1848.00,0.0005
1847.00,0.0004
1846.00,0.0004
1845.00,0.0004
1844.00,0.0005
1843.00,0.0006
1842.00,0.0006
1841.00,0.0006
1840.00,0.0006
1839.00,0.0007
1838.00,0.0007
1837.00,0.0007
1836.00,0.0008
1835.00,0.0008
1834.00,0.0008
1833.00,0.0008
1832.00,0.0008
1831.00,0.0007
1830.00,0.0007
1829.00,0.0008
1828.00,0.0008
1827.00,0.0009
1826.00,0.0009
1825.00,0.0009
1824.00,0.0009
1823.00,0.0009
1822.00,0.0009
1821.00,0.0009
1820.00,0.0009
1819.00,0.0008
1818.00,0.0007
1817.00,0.0006
1816.00,0.0006
1815.00,0.0005
1814.00,0.0005
1813.00,0.0006
1812.00,0.0006
1811.00,0.0007
1810.00,0.0008
1809.00,0.0009
1808.00,0.0009
1807.00,0.0010
1806.00,0.0010
1805.00,0.0010
1804.00,0.0010
1803.00,0.0010
1802.00,0.0010
1801.00,0.0010
1800.00,0.0010
1799.00,0.0010
1798.00,0.0010
1797.00,0.0010
1796.00,0.0011
1795.00,0.0011
1794.00,0.0011
1793.00,0.0011
1792.00,0.0012
1791.00,0.0011
1790.00,0.0011
1789.00,0.0012
1788.00,0.0012
1787.00,0.0013
1786.00,0.0013
1785.00,0.0013
1784.00,0.0014
1783.00,0.0014
1782.00,0.0014
1781.00,0.0014
1780.00,0.0013
1779.00,0.0012
1778.00,0.0012
1777.00,0.0012
1776.00,0.0012
1775.00,0.0012
1774.00,0.0012
1773.00,0.0013
1772.00,0.0013
1771.00,0.0014
1770.00,0.0014
1769.00,0.0014
1768.00,0.0014
1767.00,0.0014
1766.00,0.0014
1765.00,0.0015
1764.00,0.0015
1763.00,0.0016
1762.00,0.0017
1761.00,0.0017
1760.00,0.0018
1759.00,0.0019
1758.00,0.0019
1757.00,0.0020
1756.00,0.0020
1755.00,0.0021
1754.00,0.0021
1753.00,0.0022
1752.00,0.0022
1751.00,0.0023
1750.00,0.0024
1749.00,0.0025
1748.00,0.0026
1747.00,0.0027
1746.00,0.0028
1745.00,0.0029
1744.00,0.0030
1743.00,0.0031
1742.00,0.0032
1741.00,0.0032
1740.00,0.0033
1739.00,0.0033
1738.00,0.0033
1737.00,0.0032
1736.00,0.0032
1735.00,0.0032
1734.00,0.0033
1733.00,0.0033
1732.00,0.0034
1731.00,0.0034
1730.00,0.0034
1729.00,0.0034
1728.00,0.0033
1727.00,0.0033
1726.00,0.0033
1725.00,0.0034
1724.00,0.0034
1723.00,0.0035
1722.00,0.0035
1721.00,0.0035
1720.00,0.0034
1719.00,0.0033
1718.00,0.0032
1717.00,0.0031
1716.00,0.0031
1715.00,0.0031
1714.00,0.0032
1713.00,0.0032
1712.00,0.0032
1711.00,0.0031
1710.00,0.0031
1709.00,0.0031
1708.00,0.0031
1707.00,0.0031
1706.00,0.0032
1705.00,0.0033
1704.00,0.0033
1703.00,0.0034
1702.00,0.0035
1701.00,0.0035
1700.00,0.0036
1699.00,0.0036
1698.00,0.0037
1697.00,0.0037
1696.00,0.0039
1695.00,0.0040
1694.00,0.0040
1693.00,0.0041
1692.00,0.0042
1691.00,0.0043
1690.00,0.0044
1689.00,0.0045
1688.00,0.0046
1687.00,0.0046
1686.00,0.0047
1685.00,0.0047
1684.00,0.0048
1683.00,0.0050
1682.00,0.0051
1681.00,0.0052
1680.00,0.0053
1679.00,0.0054
1678.00,0.0054
1677.00,0.0054
1676.00,0.0055
1675.00,0.0056
1674.00,0.0057
1673.00,0.0058
1672.00,0.0059
1671.00,0.0060
1670.00,0.0060
1669.00,0.0061
1668.00,0.0062
1667.00,0.0062
1666.00,0.0062
1665.00,0.0062
1664.00,0.0063
1663.00,0.0065
1662.00,0.0066
1661.00,0.0067
1660.00,0.0068
1659.00,0.0068
1658.00,0.0068
1657.00,0.0069
1656.00,0.0071
1655.00,0.0072
1654.00,0.0073
1653.00,0.0073
1652.00,0.0073
1651.00,0.0073
1650.00,0.0072
1649.00,0.0072
1648.00,0.0072
1647.00,0.0073
1646.00,0.0073
1645.00,0.0074
1644.00,0.0075
1643.00,0.0075
1642.00,0.0075
1641.00,0.0076
1640.00,0.0077
1639.00,0.0077
1638.00,0.0078
1637.00,0.0078
1636.00,0.0078
1635.00,0.0078
1634.00,0.0077
1633.00,0.0076
1632.00,0.0076
1631.00,0.0076
1630.00,0.0075
1629.00,0.0075
1628.00,0.0074
1627.00,0.0074
1626.00,0.0073
1625.00,0.0072
1624.00,0.0072
1623.00,0.0072
1622.00,0.0072
1621.00,0.0072
1620.00,0.0072
1619.00,0.0072
1618.00,0.0072
1617.00,0.0071
1616.00,0.0070
1615.00,0.0070
1614.00,0.0069
1613.00,0.0069
1612.00,0.0069
1611.00,0.0069
1610.00,0.0069
1609.00,0.0068
1608.00,0.0068
1607.00,0.0068
1606.00,0.0068
1605.00,0.0068
1604.00,0.0069
1603.00,0.0070
1602.00,0.0070
1601.00,0.0071
1600.00,0.0071
1599.00,0.0070
1598.00,0.0070
1597.00,0.0070
1596.00,0.0071
1595.00,0.0072
1594.00,0.0072
1593.00,0.0073
1592.00,0.0074
1591.00,0.0076
1590.00,0.0077
1589.00,0.0079
1588.00,0.0082
1587.00,0.0084
1586.00,0.0087
1585.00,0.0090
1584.00,0.0095
1583.00,0.0099
1582.00,0.0105
1581.00,0.0109
1580.00,0.0114
1579.00,0.0117
1578.00,0.0119
1577.00,0.0120
1576.00,0.0118
1575.00,0.0115
1574.00,0.0112
1573.00,0.0110
1572.00,0.0107
1571.00,0.0104
1570.00,0.0100
1569.00,0.0096
1568.00,0.0093
1567.00,0.0091
1566.00,0.0090
1565.00,0.0089
1564.00,0.0088
1563.00,0.0087
1562.00,0.0087
1561.00,0.0088
1560.00,0.0087
1559.00,0.0086
1558.00,0.0086
1557.00,0.0087
1556.00,0.0088
1555.00,0.0089
1554.00,0.0091
1553.00,0.0093
1552.00,0.0095
1551.00,0.0098
1550.00,0.0101
1549.00,0.0104
1548.00,0.0108
1547.00,0.0113
1546.00,0.0117
1545.00,0.0123
1544.00,0.0128
1543.00,0.0133
1542.00,0.0135
1541.00,0.0136
1540.00,0.0134
1539.00,0.0129
1538.00,0.0122
1537.00,0.0117
1536.00,0.0112
1535.00,0.0106
1534.00,0.0100
1533.00,0.0093
1532.00,0.0089
1531.00,0.0086
1530.00,0.0084
1529.00,0.0082
1528.00,0.0081
1527.00,0.0079
1526.00,0.0078
1525.00,0.0077
1524.00,0.0077
1523.00,0.0076
1522.00,0.0076
1521.00,0.0076
1520.00,0.0077
1519.00,0.0077
1518.00,0.0077
1517.00,0.0077
1516.00,0.0077
1515.00,0.0077
1514.00,0.0076
1513.00,0.0077
1512.00,0.0078
1511.00,0.0078
1510.00,0.0078
1509.00,0.0078
1508.00,0.0079
1507.00,0.0079
1506.00,0.0079
1505.00,0.0081
1504.00,0.0082
1503.00,0.0084
1502.00,0.0085
1501.00,0.0087
1500.00,0.0090
1499.00,0.0092
1498.00,0.0094
1497.00,0.0097
1496.00,0.0100
1495.00,0.0103
1494.00,0.0105
1493.00,0.0108
1492.00,0.0112
1491.00,0.0116
1490.00,0.0121
1489.00,0.0127
1488.00,0.0134
1487.00,0.0140
1486.00,0.0147
1485.00,0.0154
1484.00,0.0163
1483.00,0.0172
1482.00,0.0183
1481.00,0.0197
1480.00,0.0211
1479.00,0.0226
1478.00,0.0243
1477.00,0.0265
1476.00,0.0292
1475.00,0.0324
1474.00,0.0363
1473.00,0.0418
1472.00,0.0483
1471.00,0.0545
1470.00,0.0606
1469.00,0.0671
1468.00,0.0740
1467.00,0.0816
1466.00,0.0901
1465.00,0.0990
1464.00,0.1068
1463.00,0.1121
1462.00,0.1156
1461.00,0.1179
1460.00,0.1195
1459.00,0.1206
1458.00,0.1214
1457.00,0.1220
1456.00,0.1218
1455.00,0.1210
1454.00,0.1198
1453.00,0.1181
1452.00,0.1155
1451.00,0.1117
1450.00,0.1066
1449.00,0.0996
1448.00,0.0909
1447.00,0.0816
1446.00,0.0732
1445.00,0.0659
1444.00,0.0598
1443.00,0.0547
1442.00,0.0509
1441.00,0.0482
1440.00,0.0466
1439.00,0.0458
1438.00,0.0458
1437.00,0.0457
1436.00,0.0447
1435.00,0.0423
1434.00,0.0389
1433.00,0.0348
1432.00,0.0306
1431.00,0.0268
1430.00,0.0238
1429.00,0.0215
1428.00,0.0199
1427.00,0.0189
1426.00,0.0183
1425.00,0.0178
1424.00,0.0173
1423.00,0.0170
1422.00,0.0168
1421.00,0.0166
1420.00,0.0162
1419.00,0.0159
1418.00,0.0156
1417.00,0.0152
1416.00,0.0149
1415.00,0.0147
1414.00,0.0145
1413.00,0.0143
1412.00,0.0141
1411.00,0.0140
1410.00,0.0139
1409.00,0.0138
1408.00,0.0136
1407.00,0.0135
1406.00,0.0135
1405.00,0.0134
1404.00,0.0133
1403.00,0.0133
1402.00,0.0135
1401.00,0.0135
1400.00,0.0135
1399.00,0.0136
1398.00,0.0138
1397.00,0.0140
1396.00,0.0141
1395.00,0.0145
1394.00,0.0149
1393.00,0.0154
1392.00,0.0159
1391.00,0.0167
1390.00,0.0177
1389.00,0.0191
1388.00,0.0211
1387.00,0.0242
1386.00,0.0284
1385.00,0.0340
1384.00,0.0418
1383.00,0.0526
1382.00,0.0672
1381.00,0.0858
1380.00,0.1086
1379.00,0.1339
1378.00,0.1578
1377.00,0.1746
1376.00,0.1792
1375.00,0.1693
1374.00,0.1479
1373.00,0.1225
1372.00,0.0993
1371.00,0.0803
1370.00,0.0651
1369.00,0.0537
1368.00,0.0458
1367.00,0.0408
1366.00,0.0381
1365.00,0.0370
1364.00,0.0371
1363.00,0.0383
1362.00,0.0402
1361.00,0.0421
1360.00,0.0436
1359.00,0.0440
1358.00,0.0430
1357.00,0.0407
1356.00,0.0374
1355.00,0.0337
1354.00,0.0302
1353.00,0.0271
1352.00,0.0246
1351.00,0.0226
1350.00,0.0210
1349.00,0.0196
1348.00,0.0184
1347.00,0.0173
1346.00,0.0164
1345.00,0.0157
1344.00,0.0151
1343.00,0.0146
1342.00,0.0142
1341.00,0.0139
1340.00,0.0137
1339.00,0.0135
1338.00,0.0133
1337.00,0.0133
1336.00,0.0134
1335.00,0.0135
1334.00,0.0138
1333.00,0.0141
1332.00,0.0145
1331.00,0.0148
1330.00,0.0149
1329.00,0.0148
1328.00,0.0145
1327.00,0.0140
1326.00,0.0135
1325.00,0.0129
1324.00,0.0124
1323.00,0.0120
1322.00,0.0116
1321.00,0.0114
1320.00,0.0111
1319.00,0.0109
1318.00,0.0107
1317.00,0.0106
1316.00,0.0105
1315.00,0.0104
1314.00,0.0104
1313.00,0.0104
1312.00,0.0105
1311.00,0.0107
1310.00,0.0112
1309.00,0.0118
1308.00,0.0128
1307.00,0.0140
1306.00,0.0151
1305.00,0.0159
1304.00,0.0161
1303.00,0.0158
1302.00,0.0153
1301.00,0.0147
1300.00,0.0144
1299.00,0.0142
1298.00,0.0141
1297.00,0.0140
1296.00,0.0139
1295.00,0.0137
1294.00,0.0133
1293.00,0.0128
1292.00,0.0123
1291.00,0.0118
1290.00,0.0114
1289.00,0.0111
1288.00,0.0107
1287.00,0.0104
1286.00,0.0102
1285.00,0.0100
1284.00,0.0099
1283.00,0.0098
1282.00,0.0098
1281.00,0.0097
1280.00,0.0096
1279.00,0.0095
1278.00,0.0094
1277.00,0.0094
1276.00,0.0094
1275.00,0.0094
1274.00,0.0094
1273.00,0.0094
1272.00,0.0095
1271.00,0.0095
1270.00,0.0096
1269.00,0.0098
1268.00,0.0100
1267.00,0.0103
1266.00,0.0106
1265.00,0.0109
1264.00,0.0112
1263.00,0.0115
1262.00,0.0119
1261.00,0.0123
1260.00,0.0129
1259.00,0.0136
1258.00,0.0143
1257.00,0.0149
1256.00,0.0152
1255.00,0.0150
1254.00,0.0144
1253.00,0.0135
1252.00,0.0127
1251.00,0.0119
1250.00,0.0113
1249.00,0.0109
1248.00,0.0105
1247.00,0.0103
1246.00,0.0101
1245.00,0.0100
1244.00,0.0098
1243.00,0.0097
1242.00,0.0096
1241.00,0.0095
1240.00,0.0094
1239.00,0.0094
1238.00,0.0094
1237.00,0.0095
1236.00,0.0095
1235.00,0.0096
1234.00,0.0097
1233.00,0.0098
1232.00,0.0099
1231.00,0.0099
1230.00,0.0100
1229.00,0.0100
1228.00,0.0101
1227.00,0.0102
1226.00,0.0105
1225.00,0.0107
1224.00,0.0111
1223.00,0.0114
1222.00,0.0117
1221.00,0.0120
1220.00,0.0122
1219.00,0.0122
1218.00,0.0121
1217.00,0.0120
1216.00,0.0117
1215.00,0.0115
1214.00,0.0112
1213.00,0.0109
1212.00,0.0107
1211.00,0.0105
1210.00,0.0103
1209.00,0.0101
1208.00,0.0100
1207.00,0.0099
1206.00,0.0099
1205.00,0.0099
1204.00,0.0100
1203.00,0.0100
1202.00,0.0100
1201.00,0.0099
1200.00,0.0099
1199.00,0.0100
1198.00,0.0100
1197.00,0.0101
1196.00,0.0101
1195.00,0.0101
1194.00,0.0101
1193.00,0.0102
1192.00,0.0102
1191.00,0.0102
1190.00,0.0102
1189.00,0.0103
1188.00,0.0103
1187.00,0.0103
1186.00,0.0103
1185.00,0.0103
1184.00,0.0103
1183.00,0.0104
1182.00,0.0106
1181.00,0.0109
1180.00,0.0113
1179.00,0.0118
1178.00,0.0124
1177.00,0.0133
1176.00,0.0144
1175.00,0.0159
1174.00,0.0179
1173.00,0.0204
1172.00,0.0235
1171.00,0.0269
1170.00,0.0301
1169.00,0.0327
1168.00,0.0342
1167.00,0.0344
1166.00,0.0335
1165.00,0.0319
1164.00,0.0300
1163.00,0.0281
1162.00,0.0265
1161.00,0.0252
1160.00,0.0242
1159.00,0.0233
1158.00,0.0227
1157.00,0.0222
1156.00,0.0219
1155.00,0.0217
1154.00,0.0216
1153.00,0.0213
1152.00,0.0208
1151.00,0.0201
1150.00,0.0192
1149.00,0.0182
1148.00,0.0172
1147.00,0.0163
1146.00,0.0155
1145.00,0.0147
1144.00,0.0139
1143.00,0.0132
1142.00,0.0126
1141.00,0.0120
1140.00,0.0116
1139.00,0.0113
1138.00,0.0109
1137.00,0.0106
1136.00,0.0103
1135.00,0.0101
1134.00,0.0100
1133.00,0.0099
1132.00,0.0098
1131.00,0.0098
1130.00,0.0099
1129.00,0.0099
1128.00,0.0100
1127.00,0.0102
1126.00,0.0103
1125.00,0.0104
1124.00,0.0104
1123.00,0.0103
1122.00,0.0102
1121.00,0.0102
1120.00,0.0102
1119.00,0.0102
1118.00,0.0104
1117.00,0.0106
1116.00,0.0107
1115.00,0.0108
1114.00,0.0110
1113.00,0.0111
1112.00,0.0112
1111.00,0.0114
1110.00,0.0116
1109.00,0.0120
1108.00,0.0125
1107.00,0.0131
1106.00,0.0136
1105.00,0.0141
1104.00,0.0144
1103.00,0.0145
1102.00,0.0144
1101.00,0.0141
1100.00,0.0136
1099.00,0.0130
1098.00,0.0125
1097.00,0.0120
1096.00,0.0116
1095.00,0.0113
1094.00,0.0111
1093.00,0.0110
1092.00,0.0108
1091.00,0.0106
1090.00,0.0104
1089.00,0.0102
1088.00,0.0100
1087.00,0.0100
1086.00,0.0100
1085.00,0.0100
1084.00,0.0101
1083.00,0.0102
1082.00,0.0102
1081.00,0.0101
1080.00,0.0099
1079.00,0.0098
1078.00,0.0096
1077.00,0.0095
1076.00,0.0094
1075.00,0.0094
1074.00,0.0094
1073.00,0.0094
1072.00,0.0094
1071.00,0.0094
1070.00,0.0093
1069.00,0.0092
1068.00,0.0091
1067.00,0.0091
1066.00,0.0092
1065.00,0.0093
1064.00,0.0095
1063.00,0.0096
1062.00,0.0097
1061.00,0.0098
1060.00,0.0099
1059.00,0.0100
1058.00,0.0101
1057.00,0.0102
1056.00,0.0105
1055.00,0.0107
1054.00,0.0110
1053.00,0.0113
1052.00,0.0117
1051.00,0.0120
1050.00,0.0125
1049.00,0.0130
1048.00,0.0135
1047.00,0.0140
1046.00,0.0145
1045.00,0.0147
1044.00,0.0148
1043.00,0.0147
1042.00,0.0145
1041.00,0.0143
1040.00,0.0141
1039.00,0.0139
1038.00,0.0138
1037.00,0.0138
1036.00,0.0138
1035.00,0.0138
1034.00,0.0137
1033.00,0.0135
1032.00,0.0133
1031.00,0.0132
1030.00,0.0131
1029.00,0.0130
1028.00,0.0131
1027.00,0.0131
1026.00,0.0133
1025.00,0.0134
1024.00,0.0137
1023.00,0.0140
1022.00,0.0143
1021.00,0.0146
1020.00,0.0148
1019.00,0.0151
1018.00,0.0152
1017.00,0.0153
1016.00,0.0153
1015.00,0.0154
1014.00,0.0154
1013.00,0.0155
1012.00,0.0155
1011.00,0.0156
1010.00,0.0157
1009.00,0.0158
1008.00,0.0160
1007.00,0.0163
1006.00,0.0168
1005.00,0.0178
1004.00,0.0192
1003.00,0.0215
1002.00,0.0246
1001.00,0.0285
1000.00,0.0327
999.00,0.0363
998.00,0.0380
997.00,0.0374
996.00,0.0345
995.00,0.0304
994.00,0.0261
993.00,0.0223
992.00,0.0192
991.00,0.0170
990.00,0.0153
989.00,0.0142
988.00,0.0134
987.00,0.0131
986.00,0.0130
985.00,0.0132
984.00,0.0136
983.00,0.0144
982.00,0.0155
981.00,0.0171
980.00,0.0192
979.00,0.0221
978.00,0.0258
977.00,0.0301
976.00,0.0349
975.00,0.0395
974.00,0.0429
973.00,0.0442
972.00,0.0428
971.00,0.0389
970.00,0.0335
969.00,0.0280
968.00,0.0233
967.00,0.0197
966.00,0.0171
965.00,0.0152
964.00,0.0138
963.00,0.0128
962.00,0.0120
961.00,0.0114
960.00,0.0109
959.00,0.0105
958.00,0.0102
957.00,0.0099
956.00,0.0097
955.00,0.0094
954.00,0.0092
953.00,0.0091
952.00,0.0090
951.00,0.0089
950.00,0.0087
949.00,0.0086
948.00,0.0085
947.00,0.0085
946.00,0.0087
945.00,0.0089
944.00,0.0092
943.00,0.0096
942.00,0.0101
941.00,0.0104
940.00,0.0105
939.00,0.0103
938.00,0.0098
937.00,0.0091
936.00,0.0085
935.00,0.0080
934.00,0.0076
933.00,0.0073
932.00,0.0071
931.00,0.0069
930.00,0.0069
929.00,0.0069
928.00,0.0070
927.00,0.0070
926.00,0.0070
925.00,0.0069
924.00,0.0069
923.00,0.0069
922.00,0.0070
921.00,0.0070
920.00,0.0069
919.00,0.0069
918.00,0.0068
917.00,0.0069
916.00,0.0069
915.00,0.0070
914.00,0.0071
913.00,0.0072
912.00,0.0073
911.00,0.0074
910.00,0.0076
909.00,0.0078
908.00,0.0080
907.00,0.0084
906.00,0.0091
905.00,0.0102
904.00,0.0116
903.00,0.0132
902.00,0.0150
901.00,0.0165
900.00,0.0175
899.00,0.0176
898.00,0.0168
897.00,0.0154
896.00,0.0138
895.00,0.0122
894.00,0.0109
893.00,0.0099
892.00,0.0092
891.00,0.0088
890.00,0.0085
889.00,0.0082
888.00,0.0081
887.00,0.0081
886.00,0.0081
885.00,0.0080
884.00,0.0080
883.00,0.0080
882.00,0.0079
881.00,0.0079
880.00,0.0079
879.00,0.0080
878.00,0.0082
877.00,0.0084
876.00,0.0087
875.00,0.0088
874.00,0.0088
873.00,0.0086
872.00,0.0084
871.00,0.0082
870.00,0.0081
869.00,0.0081
868.00,0.0082
867.00,0.0083
866.00,0.0083
865.00,0.0083
864.00,0.0083
863.00,0.0084
862.00,0.0086
861.00,0.0087
860.00,0.0089
859.00,0.0090
858.00,0.0092
857.00,0.0093
856.00,0.0094
855.00,0.0096
854.00,0.0100
853.00,0.0104
852.00,0.0108
851.00,0.0113
850.00,0.0119
849.00,0.0125
848.00,0.0134
847.00,0.0147
846.00,0.0167
845.00,0.0200
844.00,0.0247
843.00,0.0303
842.00,0.0350
841.00,0.0368
840.00,0.0346
839.00,0.0296
838.00,0.0240
837.00,0.0194
836.00,0.0165
835.00,0.0148
834.00,0.0136
833.00,0.0128
832.00,0.0122
831.00,0.0119
830.00,0.0116
829.00,0.0114
828.00,0.0111
827.00,0.0108
826.00,0.0105
825.00,0.0103
824.00,0.0103
823.00,0.0104
822.00,0.0106
821.00,0.0108
820.00,0.0109
819.00,0.0113
818.00,0.0119
817.00,0.0126
816.00,0.0133
815.00,0.0142
814.00,0.0155
813.00,0.0171
812.00,0.0190
811.00,0.0208
810.00,0.0221
809.00,0.0227
808.00,0.0223
807.00,0.0211
806.00,0.0194
805.00,0.0177
804.00,0.0161
803.00,0.0149
802.00,0.0140
801.00,0.0132
800.00,0.0126
799.00,0.0121
798.00,0.0116
797.00,0.0111
796.00,0.0107
795.00,0.0104
794.00,0.0102
793.00,0.0099
792.00,0.0095
791.00,0.0090
790.00,0.0087
789.00,0.0085
788.00,0.0084
787.00,0.0083
786.00,0.0081
785.00,0.0080
784.00,0.0078
783.00,0.0077
782.00,0.0075
781.00,0.0073
780.00,0.0072
779.00,0.0072
778.00,0.0072
777.00,0.0071
776.00,0.0071
775.00,0.0072
774.00,0.0073
773.00,0.0074
772.00,0.0075
771.00,0.0075
770.00,0.0075
769.00,0.0074
768.00,0.0073
767.00,0.0072
766.00,0.0072
765.00,0.0072
764.00,0.0073
763.00,0.0074
762.00,0.0076
761.00,0.0077
760.00,0.0078
759.00,0.0078
758.00,0.0078
757.00,0.0078
756.00,0.0080
755.00,0.0082
754.00,0.0084
753.00,0.0084
752.00,0.0084
751.00,0.0085
750.00,0.0087
749.00,0.0090
748.00,0.0092
747.00,0.0094
746.00,0.0096
745.00,0.0097
744.00,0.0098
743.00,0.0100
742.00,0.0104
741.00,0.0107
740.00,0.0111
739.00,0.0113
738.00,0.0115
737.00,0.0117
736.00,0.0121
735.00,0.0126
734.00,0.0131
733.00,0.0136
732.00,0.0143
731.00,0.0151
730.00,0.0157
729.00,0.0161
728.00,0.0163
727.00,0.0165
726.00,0.0168
725.00,0.0173
724.00,0.0178
723.00,0.0184
722.00,0.0189
721.00,0.0192
720.00,0.0190
719.00,0.0183
718.00,0.0171
717.00,0.0157
716.00,0.0145
715.00,0.0136
714.00,0.0130
713.00,0.0125
712.00,0.0122
711.00,0.0118
710.00,0.0116
709.00,0.0115
708.00,0.0115
707.00,0.0115
706.00,0.0115
705.00,0.0114
704.00,0.0112
703.00,0.0111
702.00,0.0110
701.00,0.0107
700.00,0.0104
699.00,0.0101
698.00,0.0100
697.00,0.0102
696.00,0.0104
695.00,0.0105
694.00,0.0106
693.00,0.0106
692.00,0.0107
691.00,0.0108
690.00,0.0108
689.00,0.0107
688.00,0.0106
687.00,0.0103
686.00,0.0102
685.00,0.0101
684.00,0.0102
683.00,0.0104
682.00,0.0107
681.00,0.0109
680.00,0.0110
679.00,0.0110
678.00,0.0110
677.00,0.0110
676.00,0.0112
675.00,0.0115
674.00,0.0117
673.00,0.0118
672.00,0.0118
671.00,0.0119
670.00,0.0121
669.00,0.0123
668.00,0.0123
667.00,0.0120
666.00,0.0115
665.00,0.0111
664.00,0.0109
663.00,0.0107
662.00,0.0105
661.00,0.0103
660.00,0.0100
659.00,0.0099
658.00,0.0099
657.00,0.0099
656.00,0.0099
655.00,0.0099
654.00,0.0098
653.00,0.0096
652.00,0.0094
651.00,0.0093
650.00,0.0093
649.00,0.0093
648.00,0.0094
647.00,0.0094
646.00,0.0094
645.00,0.0093
644.00,0.0093
643.00,0.0092
642.00,0.0091
641.00,0.0090
640.00,0.0089
639.00,0.0089
638.00,0.0090
637.00,0.0093
636.00,0.0096
635.00,0.0097
634.00,0.0097
633.00,0.0095
632.00,0.0094
631.00,0.0093
630.00,0.0093
629.00,0.0094
628.00,0.0096
627.00,0.0097
626.00,0.0098
625.00,0.0099
624.00,0.0098
623.00,0.0098
622.00,0.0098
621.00,0.0099
620.00,0.0100
619.00,0.0100
618.00,0.0098
617.00,0.0096
616.00,0.0095
615.00,0.0096
614.00,0.0097
613.00,0.0097
612.00,0.0097
611.00,0.0097
610.00,0.0097
609.00,0.0096
608.00,0.0094
607.00,0.0093
606.00,0.0094
605.00,0.0096
604.00,0.0099
603.00,0.0102
602.00,0.0103
601.00,0.0101
600.00,0.0097
599.00,0.0094
598.00,0.0094
597.00,0.0095
596.00,0.0096
595.00,0.0095
594.00,0.0094
593.00,0.0093
592.00,0.0092
591.00,0.0092
590.00,0.0094
589.00,0.0097
588.00,0.0099
587.00,0.0101
586.00,0.0101
585.00,0.0101
584.00,0.0098
583.00,0.0095
582.00,0.0094
581.00,0.0095
580.00,0.0099
579.00,0.0100
578.00,0.0098
577.00,0.0094
576.00,0.0090
575.00,0.0091
574.00,0.0094
573.00,0.0095
572.00,0.0095
571.00,0.0093
570.00,0.0091
569.00,0.0089
568.00,0.0087
567.00,0.0088
566.00,0.0090
565.00,0.0093
564.00,0.0094
563.00,0.0094
562.00,0.0097
561.00,0.0103
560.00,0.0109
559.00,0.0111
558.00,0.0109
557.00,0.0104
556.00,0.0101
555.00,0.0098
554.00,0.0097
553.00,0.0096
552.00,0.0095
551.00,0.0095
550.00,0.0096
549.00,0.0097
548.00,0.0099
547.00,0.0102
546.00,0.0104
545.00,0.0105
544.00,0.0103
543.00,0.0101
542.00,0.0100
541.00,0.0103
540.00,0.0108
539.00,0.0114
538.00,0.0118
537.00,0.0122
536.00,0.0125
535.00,0.0127
534.00,0.0130
533.00,0.0132
532.00,0.0131
531.00,0.0129
530.00,0.0125
529.00,0.0123
528.00,0.0122
527.00,0.0122
526.00,0.0120
525.00,0.0113
524.00,0.0104
523.00,0.0098
522.00,0.0097
521.00,0.0099
520.00,0.0098
519.00,0.0091
518.00,0.0082
517.00,0.0079
516.00,0.0084
515.00,0.0091
514.00,0.0097
513.00,0.0099
512.00,0.0098
511.00,0.0097
510.00,0.0096
509.00,0.0096
508.00,0.0094
507.00,0.0089
506.00,0.0083
505.00,0.0080
504.00,0.0082
503.00,0.0089
502.00,0.0100
501.00,0.0111
500.00,0.0117
499.00,0.0117
498.00,0.0113
497.00,0.0111
496.00,0.0110
495.00,0.0110
494.00,0.0108
493.00,0.0104
492.00,0.0102
491.00,0.0104
490.00,0.0106
489.00,0.0103
488.00,0.0098
487.00,0.0096
486.00,0.0101
485.00,0.0111
484.00,0.0120
483.00,0.0120
482.00,0.0112
481.00,0.0104
480.00,0.0101
479.00,0.0109
478.00,0.0124
477.00,0.0137
476.00,0.0141
475.00,0.0137
474.00,0.0132
473.00,0.0132
472.00,0.0134
471.00,0.0137
470.00,0.0142
469.00,0.0153
468.00,0.0169
467.00,0.0183
466.00,0.0188
465.00,0.0188
464.00,0.0189
463.00,0.0196
462.00,0.0204
461.00,0.0210
460.00,0.0213
459.00,0.0218
458.00,0.0228
457.00,0.0238
456.00,0.0241
455.00,0.0234
454.00,0.0219
453.00,0.0200
452.00,0.0182
451.00,0.0166
450.00,0.0154
