Created as New Dataset,Sample 127 By Administrator Date Wednesday, September 03 2025
cm-1,A
4000.00,0.0010
3999.00,0.0010
3998.00,0.0010
3997.00,0.0010
3996.00,0.0011
3995.00,0.0011
3994.00,0.0011
3993.00,0.0011
3992.00,0.0011
3991.00,0.0011
3990.00,0.0011
3989.00,0.0011
3988.00,0.0010
3987.00,0.0010
3986.00,0.0010
3985.00,0.0010
3984.00,0.0010
3983.00,0.0010
3982.00,0.0010
3981.00,0.0010
3980.00,0.0009
3979.00,0.0009
3978.00,0.0009
3977.00,0.0008
3976.00,0.0008
3975.00,0.0008
3974.00,0.0008
3973.00,0.0009
3972.00,0.0009
3971.00,0.0009
3970.00,0.0009
3969.00,0.0009
3968.00,0.0009
3967.00,0.0009
3966.00,0.0009
3965.00,0.0009
3964.00,0.0008
3963.00,0.0008
3962.00,0.0008
3961.00,0.0009
3960.00,0.0009
3959.00,0.0009
3958.00,0.0009
3957.00,0.0009
3956.00,0.0009
3955.00,0.0009
3954.00,0.0009
3953.00,0.0009
3952.00,0.0009
3951.00,0.0008
3950.00,0.0008
3949.00,0.0008
3948.00,0.0008
3947.00,0.0008
3946.00,0.0008
3945.00,0.0008
3944.00,0.0008
3943.00,0.0008
3942.00,0.0008
3941.00,0.0008
3940.00,0.0008
3939.00,0.0009
3938.00,0.0009
3937.00,0.0009
3936.00,0.0009
3935.00,0.0009
3934.00,0.0009
3933.00,0.0009
3932.00,0.0009
3931.00,0.0009
3930.00,0.0009
3929.00,0.0009
3928.00,0.0009
3927.00,0.0010
3926.00,0.0010
3925.00,0.0010
3924.00,0.0010
3923.00,0.0009
3922.00,0.0009
3921.00,0.0009
3920.00,0.0009
3919.00,0.0009
3918.00,0.0009
3917.00,0.0009
3916.00,0.0008
3915.00,0.0008
3914.00,0.0008
3913.00,0.0008
3912.00,0.0008
3911.00,0.0008
3910.00,0.0008
3909.00,0.0009
3908.00,0.0009
3907.00,0.0009
3906.00,0.0009
3905.00,0.0009
3904.00,0.0008
3903.00,0.0008
3902.00,0.0008
3901.00,0.0008
3900.00,0.0008
3899.00,0.0008
3898.00,0.0008
3897.00,0.0008
3896.00,0.0008
3895.00,0.0009
3894.00,0.0009
3893.00,0.0009
3892.00,0.0009
3891.00,0.0009
3890.00,0.0008
3889.00,0.0008
3888.00,0.0008
3887.00,0.0008
3886.00,0.0008
3885.00,0.0009
3884.00,0.0009
3883.00,0.0009
3882.00,0.0008
3881.00,0.0008
3880.00,0.0008
3879.00,0.0008
3878.00,0.0008
3877.00,0.0008
3876.00,0.0008
3875.00,0.0008
3874.00,0.0009
3873.00,0.0008
3872.00,0.0008
3871.00,0.0008
3870.00,0.0008
3869.00,0.0008
3868.00,0.0008
3867.00,0.0007
3866.00,0.0007
3865.00,0.0007
3864.00,0.0007
3863.00,0.0007
3862.00,0.0007
3861.00,0.0007
3860.00,0.0008
3859.00,0.0009
3858.00,0.0009
3857.00,0.0010
3856.00,0.0011
3855.00,0.0011
3854.00,0.0010
3853.00,0.0009
3852.00,0.0008
3851.00,0.0007
3850.00,0.0006
3849.00,0.0006
3848.00,0.0006
3847.00,0.0007
3846.00,0.0007
3845.00,0.0008
3844.00,0.0008
3843.00,0.0008
3842.00,0.0007
3841.00,0.0007
3840.00,0.0007
3839.00,0.0007
3838.00,0.0007
3837.00,0.0007
3836.00,0.0007
3835.00,0.0008
3834.00,0.0008
3833.00,0.0008
3832.00,0.0008
3831.00,0.0008
3830.00,0.0008
3829.00,0.0008
3828.00,0.0008
3827.00,0.0008
3826.00,0.0008
3825.00,0.0008
3824.00,0.0008
3823.00,0.0007
3822.00,0.0007
3821.00,0.0007
3820.00,0.0008
3819.00,0.0008
3818.00,0.0008
3817.00,0.0008
3816.00,0.0008
3815.00,0.0007
3814.00,0.0007
3813.00,0.0007
3812.00,0.0007
3811.00,0.0007
3810.00,0.0008
3809.00,0.0008
3808.00,0.0008
3807.00,0.0008
3806.00,0.0008
3805.00,0.0008
3804.00,0.0007
3803.00,0.0007
3802.00,0.0007
3801.00,0.0007
3800.00,0.0007
3799.00,0.0008
3798.00,0.0008
3797.00,0.0008
3796.00,0.0009
3795.00,0.0009
3794.00,0.0008
3793.00,0.0008
3792.00,0.0008
3791.00,0.0008
3790.00,0.0007
3789.00,0.0007
3788.00,0.0008
3787.00,0.0008
3786.00,0.0008
3785.00,0.0008
3784.00,0.0008
3783.00,0.0008
3782.00,0.0008
3781.00,0.0008
3780.00,0.0008
3779.00,0.0008
3778.00,0.0008
3777.00,0.0007
3776.00,0.0007
3775.00,0.0007
3774.00,0.0007
3773.00,0.0007
3772.00,0.0007
3771.00,0.0007
3770.00,0.0008
3769.00,0.0008
3768.00,0.0008
3767.00,0.0009
3766.00,0.0009
3765.00,0.0009
3764.00,0.0009
3763.00,0.0009
3762.00,0.0009
3761.00,0.0009
3760.00,0.0009
3759.00,0.0009
3758.00,0.0009
3757.00,0.0009
3756.00,0.0009
3755.00,0.0008
3754.00,0.0007
3753.00,0.0007
3752.00,0.0007
3751.00,0.0007
3750.00,0.0007
3749.00,0.0008
3748.00,0.0008
3747.00,0.0008
3746.00,0.0008
3745.00,0.0008
3744.00,0.0008
3743.00,0.0008
3742.00,0.0008
3741.00,0.0007
3740.00,0.0007
3739.00,0.0006
3738.00,0.0006
3737.00,0.0006
3736.00,0.0006
3735.00,0.0006
3734.00,0.0006
3733.00,0.0006
3732.00,0.0006
3731.00,0.0006
3730.00,0.0006
3729.00,0.0006
3728.00,0.0006
3727.00,0.0007
3726.00,0.0007
3725.00,0.0007
3724.00,0.0007
3723.00,0.0007
3722.00,0.0007
3721.00,0.0007
3720.00,0.0007
3719.00,0.0007
3718.00,0.0007
3717.00,0.0006
3716.00,0.0006
3715.00,0.0006
3714.00,0.0006
3713.00,0.0006
3712.00,0.0007
3711.00,0.0007
3710.00,0.0007
3709.00,0.0007
3708.00,0.0007
3707.00,0.0006
3706.00,0.0006
3705.00,0.0006
3704.00,0.0006
3703.00,0.0007
3702.00,0.0007
3701.00,0.0008
3700.00,0.0008
3699.00,0.0008
3698.00,0.0007
3697.00,0.0007
3696.00,0.0007
3695.00,0.0007
3694.00,0.0007
3693.00,0.0007
3692.00,0.0007
3691.00,0.0007
3690.00,0.0007
3689.00,0.0006
3688.00,0.0006
3687.00,0.0006
3686.00,0.0007
3685.00,0.0007
3684.00,0.0007
3683.00,0.0007
3682.00,0.0007
3681.00,0.0008
3680.00,0.0008
3679.00,0.0009
3678.00,0.0009
3677.00,0.0009
3676.00,0.0009
3675.00,0.0009
3674.00,0.0009
3673.00,0.0008
3672.00,0.0007
3671.00,0.0006
3670.00,0.0006
3669.00,0.0007
3668.00,0.0007
3667.00,0.0008
3666.00,0.0008
3665.00,0.0008
3664.00,0.0007
3663.00,0.0007
3662.00,0.0007
3661.00,0.0006
3660.00,0.0006
3659.00,0.0006
3658.00,0.0006
3657.00,0.0007
3656.00,0.0007
3655.00,0.0008
3654.00,0.0008
3653.00,0.0008
3652.00,0.0008
3651.00,0.0008
3650.00,0.0007
3649.00,0.0007
3648.00,0.0007
3647.00,0.0007
3646.00,0.0007
3645.00,0.0007
3644.00,0.0006
3643.00,0.0006
3642.00,0.0006
3641.00,0.0006
3640.00,0.0007
3639.00,0.0007
3638.00,0.0007
3637.00,0.0008
3636.00,0.0008
3635.00,0.0008
3634.00,0.0008
3633.00,0.0008
3632.00,0.0008
3631.00,0.0008
3630.00,0.0008
3629.00,0.0008
3628.00,0.0008
3627.00,0.0007
3626.00,0.0007
3625.00,0.0007
3624.00,0.0007
3623.00,0.0007
3622.00,0.0007
3621.00,0.0007
3620.00,0.0007
3619.00,0.0007
3618.00,0.0008
3617.00,0.0008
3616.00,0.0008
3615.00,0.0008
3614.00,0.0008
3613.00,0.0008
3612.00,0.0008
3611.00,0.0008
3610.00,0.0008
3609.00,0.0009
3608.00,0.0008
3607.00,0.0008
3606.00,0.0008
3605.00,0.0008
3604.00,0.0009
3603.00,0.0009
3602.00,0.0009
3601.00,0.0009
3600.00,0.0009
3599.00,0.0009
3598.00,0.0009
3597.00,0.0010
3596.00,0.0010
3595.00,0.0010
3594.00,0.0010
3593.00,0.0010
3592.00,0.0010
3591.00,0.0010
3590.00,0.0010
3589.00,0.0009
3588.00,0.0009
3587.00,0.0008
3586.00,0.0009
3585.00,0.0009
3584.00,0.0009
3583.00,0.0010
3582.00,0.0010
3581.00,0.0010
3580.00,0.0011
3579.00,0.0011
3578.00,0.0011
3577.00,0.0012
3576.00,0.0012
3575.00,0.0013
3574.00,0.0013
3573.00,0.0013
3572.00,0.0013
3571.00,0.0013
3570.00,0.0013
3569.00,0.0013
3568.00,0.0013
3567.00,0.0013
3566.00,0.0013
3565.00,0.0013
3564.00,0.0013
3563.00,0.0013
3562.00,0.0013
3561.00,0.0013
3560.00,0.0013
3559.00,0.0013
3558.00,0.0013
3557.00,0.0014
3556.00,0.0014
3555.00,0.0015
3554.00,0.0015
3553.00,0.0015
3552.00,0.0015
3551.00,0.0015
3550.00,0.0015
3549.00,0.0016
3548.00,0.0016
3547.00,0.0016
3546.00,0.0016
3545.00,0.0016
3544.00,0.0017
3543.00,0.0017
3542.00,0.0018
3541.00,0.0018
3540.00,0.0018
3539.00,0.0018
3538.00,0.0018
3537.00,0.0017
3536.00,0.0017
3535.00,0.0017
3534.00,0.0018
3533.00,0.0018
3532.00,0.0018
3531.00,0.0019
3530.00,0.0019
3529.00,0.0019
3528.00,0.0020
3527.00,0.0020
3526.00,0.0019
3525.00,0.0019
3524.00,0.0019
3523.00,0.0019
3522.00,0.0020
3521.00,0.0020
3520.00,0.0020
3519.00,0.0020
3518.00,0.0020
3517.00,0.0020
3516.00,0.0020
3515.00,0.0021
3514.00,0.0021
3513.00,0.0021
3512.00,0.0021
3511.00,0.0022
3510.00,0.0022
3509.00,0.0022
3508.00,0.0022
3507.00,0.0022
3506.00,0.0022
3505.00,0.0022
3504.00,0.0022
3503.00,0.0022
3502.00,0.0022
3501.00,0.0022
3500.00,0.0023
3499.00,0.0023
3498.00,0.0023
3497.00,0.0023
3496.00,0.0023
3495.00,0.0023
3494.00,0.0023
3493.00,0.0023
3492.00,0.0023
3491.00,0.0024
3490.00,0.0024
3489.00,0.0025
3488.00,0.0025
3487.00,0.0025
3486.00,0.0025
3485.00,0.0025
3484.00,0.0025
3483.00,0.0025
3482.00,0.0025
3481.00,0.0026
3480.00,0.0026
3479.00,0.0026
3478.00,0.0026
3477.00,0.0026
3476.00,0.0026
3475.00,0.0026
3474.00,0.0026
3473.00,0.0026
3472.00,0.0027
3471.00,0.0027
3470.00,0.0027
3469.00,0.0028
3468.00,0.0028
3467.00,0.0027
3466.00,0.0027
3465.00,0.0028
3464.00,0.0028
3463.00,0.0028
3462.00,0.0029
3461.00,0.0029
3460.00,0.0029
3459.00,0.0029
3458.00,0.0029
3457.00,0.0029
3456.00,0.0029
3455.00,0.0029
3454.00,0.0030
3453.00,0.0030
3452.00,0.0030
3451.00,0.0030
3450.00,0.0030
3449.00,0.0030
3448.00,0.0030
3447.00,0.0030
3446.00,0.0030
3445.00,0.0030
3444.00,0.0031
3443.00,0.0031
3442.00,0.0031
3441.00,0.0031
3440.00,0.0031
3439.00,0.0031
3438.00,0.0032
3437.00,0.0032
3436.00,0.0032
3435.00,0.0033
3434.00,0.0033
3433.00,0.0033
3432.00,0.0033
3431.00,0.0033
3430.00,0.0033
3429.00,0.0033
3428.00,0.0034
3427.00,0.0034
3426.00,0.0034
3425.00,0.0034
3424.00,0.0034
3423.00,0.0034
3422.00,0.0034
3421.00,0.0034
3420.00,0.0035
3419.00,0.0035
3418.00,0.0035
3417.00,0.0036
3416.00,0.0036
3415.00,0.0036
3414.00,0.0036
3413.00,0.0036
3412.00,0.0036
3411.00,0.0036
3410.00,0.0036
3409.00,0.0036
3408.00,0.0036
3407.00,0.0036
3406.00,0.0037
3405.00,0.0037
3404.00,0.0037
3403.00,0.0037
3402.00,0.0037
3401.00,0.0037
3400.00,0.0037
3399.00,0.0037
3398.00,0.0037
3397.00,0.0037
3396.00,0.0037
3395.00,0.0037
3394.00,0.0037
3393.00,0.0037
3392.00,0.0037
3391.00,0.0038
3390.00,0.0038
3389.00,0.0038
3388.00,0.0039
3387.00,0.0039
3386.00,0.0039
3385.00,0.0039
3384.00,0.0039
3383.00,0.0038
3382.00,0.0038
3381.00,0.0038
3380.00,0.0038
3379.00,0.0038
3378.00,0.0039
3377.00,0.0039
3376.00,0.0039
3375.00,0.0039
3374.00,0.0039
3373.00,0.0039
3372.00,0.0039
3371.00,0.0040
3370.00,0.0040
3369.00,0.0040
3368.00,0.0039
3367.00,0.0039
3366.00,0.0039
3365.00,0.0039
3364.00,0.0039
3363.00,0.0039
3362.00,0.0040
3361.00,0.0040
3360.00,0.0040
3359.00,0.0040
3358.00,0.0040
3357.00,0.0041
3356.00,0.0041
3355.00,0.0042
3354.00,0.0042
3353.00,0.0042
3352.00,0.0042
3351.00,0.0041
3350.00,0.0041
3349.00,0.0041
3348.00,0.0041
3347.00,0.0041
3346.00,0.0042
3345.00,0.0042
3344.00,0.0041
3343.00,0.0041
3342.00,0.0040
3341.00,0.0040
3340.00,0.0041
3339.00,0.0041
3338.00,0.0041
3337.00,0.0042
3336.00,0.0042
3335.00,0.0042
3334.00,0.0042
3333.00,0.0041
3332.00,0.0041
3331.00,0.0041
3330.00,0.0041
3329.00,0.0041
3328.00,0.0041
3327.00,0.0041
3326.00,0.0040
3325.00,0.0040
3324.00,0.0040
3323.00,0.0040
3322.00,0.0040
3321.00,0.0040
3320.00,0.0040
3319.00,0.0040
3318.00,0.0041
3317.00,0.0041
3316.00,0.0041
3315.00,0.0041
3314.00,0.0041
3313.00,0.0041
3312.00,0.0041
3311.00,0.0041
3310.00,0.0042
3309.00,0.0042
3308.00,0.0042
3307.00,0.0042
3306.00,0.0043
3305.00,0.0043
3304.00,0.0043
3303.00,0.0042
3302.00,0.0042
3301.00,0.0042
3300.00,0.0042
3299.00,0.0042
3298.00,0.0042
3297.00,0.0042
3296.00,0.0041
3295.00,0.0041
3294.00,0.0041
3293.00,0.0041
3292.00,0.0041
3291.00,0.0041
3290.00,0.0041
3289.00,0.0041
3288.00,0.0040
3287.00,0.0040
3286.00,0.0040
3285.00,0.0040
3284.00,0.0040
3283.00,0.0040
3282.00,0.0039
3281.00,0.0040
3280.00,0.0040
3279.00,0.0040
3278.00,0.0040
3277.00,0.0040
3276.00,0.0039
3275.00,0.0039
3274.00,0.0039
3273.00,0.0039
3272.00,0.0039
3271.00,0.0038
3270.00,0.0038
3269.00,0.0038
3268.00,0.0038
3267.00,0.0038
3266.00,0.0038
3265.00,0.0038
3264.00,0.0038
3263.00,0.0038
3262.00,0.0037
3261.00,0.0037
3260.00,0.0037
3259.00,0.0037
3258.00,0.0036
3257.00,0.0036
3256.00,0.0036
3255.00,0.0036
3254.00,0.0035
3253.00,0.0035
3252.00,0.0035
3251.00,0.0036
3250.00,0.0036
3249.00,0.0036
3248.00,0.0036
3247.00,0.0036
3246.00,0.0036
3245.00,0.0036
3244.00,0.0036
3243.00,0.0036
3242.00,0.0036
3241.00,0.0036
3240.00,0.0036
3239.00,0.0036
3238.00,0.0036
3237.00,0.0036
3236.00,0.0036
3235.00,0.0036
3234.00,0.0036
3233.00,0.0036
3232.00,0.0037
3231.00,0.0036
3230.00,0.0036
3229.00,0.0036
3228.00,0.0036
3227.00,0.0036
3226.00,0.0037
3225.00,0.0037
3224.00,0.0037
3223.00,0.0037
3222.00,0.0037
3221.00,0.0037
3220.00,0.0038
3219.00,0.0038
3218.00,0.0038
3217.00,0.0037
3216.00,0.0037
3215.00,0.0038
3214.00,0.0038
3213.00,0.0038
3212.00,0.0038
3211.00,0.0039
3210.00,0.0039
3209.00,0.0039
3208.00,0.0039
3207.00,0.0040
3206.00,0.0040
3205.00,0.0040
3204.00,0.0040
3203.00,0.0040
3202.00,0.0040
3201.00,0.0039
3200.00,0.0039
3199.00,0.0040
3198.00,0.0040
3197.00,0.0040
3196.00,0.0039
3195.00,0.0039
3194.00,0.0039
3193.00,0.0039
3192.00,0.0039
3191.00,0.0039
3190.00,0.0039
3189.00,0.0039
3188.00,0.0039
3187.00,0.0039
3186.00,0.0039
3185.00,0.0038
3184.00,0.0038
3183.00,0.0038
3182.00,0.0038
3181.00,0.0037
3180.00,0.0037
3179.00,0.0036
3178.00,0.0036
3177.00,0.0036
3176.00,0.0036
3175.00,0.0036
3174.00,0.0036
3173.00,0.0036
3172.00,0.0035
3171.00,0.0035
3170.00,0.0036
3169.00,0.0036
3168.00,0.0036
3167.00,0.0035
3166.00,0.0035
3165.00,0.0035
3164.00,0.0035
3163.00,0.0035
3162.00,0.0035
3161.00,0.0035
3160.00,0.0035
3159.00,0.0035
3158.00,0.0035
3157.00,0.0035
3156.00,0.0035
3155.00,0.0035
3154.00,0.0035
3153.00,0.0035
3152.00,0.0035
3151.00,0.0035
3150.00,0.0035
3149.00,0.0035
3148.00,0.0035
3147.00,0.0035
3146.00,0.0034
3145.00,0.0034
3144.00,0.0034
3143.00,0.0035
3142.00,0.0034
3141.00,0.0034
3140.00,0.0034
3139.00,0.0034
3138.00,0.0033
3137.00,0.0033
3136.00,0.0033
3135.00,0.0033
3134.00,0.0033
3133.00,0.0033
3132.00,0.0033
3131.00,0.0033
3130.00,0.0033
3129.00,0.0033
3128.00,0.0033
3127.00,0.0032
3126.00,0.0032
3125.00,0.0032
3124.00,0.0031
3123.00,0.0030
3122.00,0.0030
3121.00,0.0030
3120.00,0.0030
3119.00,0.0030
3118.00,0.0030
3117.00,0.0030
3116.00,0.0030
3115.00,0.0030
3114.00,0.0031
3113.00,0.0031
3112.00,0.0030
3111.00,0.0030
3110.00,0.0030
3109.00,0.0029
3108.00,0.0029
3107.00,0.0029
3106.00,0.0029
3105.00,0.0029
3104.00,0.0029
3103.00,0.0029
3102.00,0.0029
3101.00,0.0029
3100.00,0.0029
3099.00,0.0029
3098.00,0.0030
3097.00,0.0030
3096.00,0.0030
3095.00,0.0030
3094.00,0.0029
3093.00,0.0029
3092.00,0.0029
3091.00,0.0029
3090.00,0.0029
3089.00,0.0029
3088.00,0.0029
3087.00,0.0029
3086.00,0.0029
3085.00,0.0029
3084.00,0.0029
3083.00,0.0029
3082.00,0.0029
3081.00,0.0029
3080.00,0.0029
3079.00,0.0029
3078.00,0.0030
3077.00,0.0030
3076.00,0.0030
3075.00,0.0030
3074.00,0.0030
3073.00,0.0030
3072.00,0.0030
3071.00,0.0031
3070.00,0.0031
3069.00,0.0031
3068.00,0.0031
3067.00,0.0031
3066.00,0.0031
3065.00,0.0031
3064.00,0.0032
3063.00,0.0032
3062.00,0.0032
3061.00,0.0032
3060.00,0.0032
3059.00,0.0032
3058.00,0.0032
3057.00,0.0032
3056.00,0.0032
3055.00,0.0033
3054.00,0.0033
3053.00,0.0034
3052.00,0.0034
3051.00,0.0034
3050.00,0.0034
3049.00,0.0034
3048.00,0.0034
3047.00,0.0035
3046.00,0.0035
3045.00,0.0035
3044.00,0.0035
3043.00,0.0035
3042.00,0.0036
3041.00,0.0036
3040.00,0.0037
3039.00,0.0037
3038.00,0.0038
3037.00,0.0038
3036.00,0.0038
3035.00,0.0038
3034.00,0.0038
3033.00,0.0038
3032.00,0.0038
3031.00,0.0039
3030.00,0.0040
3029.00,0.0040
3028.00,0.0041
3027.00,0.0041
3026.00,0.0042
3025.00,0.0042
3024.00,0.0043
3023.00,0.0043
3022.00,0.0044
3021.00,0.0045
3020.00,0.0046
3019.00,0.0047
3018.00,0.0048
3017.00,0.0049
3016.00,0.0050
3015.00,0.0051
3014.00,0.0052
3013.00,0.0053
3012.00,0.0055
3011.00,0.0056
3010.00,0.0058
3009.00,0.0060
3008.00,0.0061
3007.00,0.0063
3006.00,0.0065
3005.00,0.0066
3004.00,0.0069
3003.00,0.0071
3002.00,0.0074
3001.00,0.0076
3000.00,0.0079
2999.00,0.0082
2998.00,0.0085
2997.00,0.0089
2996.00,0.0092
2995.00,0.0096
2994.00,0.0100
2993.00,0.0104
2992.00,0.0109
2991.00,0.0114
2990.00,0.0120
2989.00,0.0127
2988.00,0.0134
2987.00,0.0143
2986.00,0.0153
2985.00,0.0164
2984.00,0.0176
2983.00,0.0190
2982.00,0.0204
2981.00,0.0220
2980.00,0.0238
2979.00,0.0258
2978.00,0.0281
2977.00,0.0307
2976.00,0.0337
2975.00,0.0372
2974.00,0.0411
2973.00,0.0456
2972.00,0.0506
2971.00,0.0562
2970.00,0.0623
2969.00,0.0690
2968.00,0.0762
2967.00,0.0837
2966.00,0.0914
2965.00,0.0991
2964.00,0.1064
2963.00,0.1131
2962.00,0.1188
2961.00,0.1237
2960.00,0.1278
2959.00,0.1317
2958.00,0.1359
2957.00,0.1409
2956.00,0.1472
2955.00,0.1549
2954.00,0.1637
2953.00,0.1728
2952.00,0.1811
2951.00,0.1873
2950.00,0.1902
2949.00,0.1888
2948.00,0.1831
2947.00,0.1737
2946.00,0.1617
2945.00,0.1489
2944.00,0.1366
2943.00,0.1259
2942.00,0.1177
2941.00,0.1120
2940.00,0.1088
2939.00,0.1080
2938.00,0.1092
2937.00,0.1122
2936.00,0.1169
2935.00,0.1232
2934.00,0.1308
2933.00,0.1398
2932.00,0.1500
2931.00,0.1611
2930.00,0.1731
2929.00,0.1854
2928.00,0.1979
2927.00,0.2103
2926.00,0.2223
2925.00,0.2341
2924.00,0.2457
2923.00,0.2574
2922.00,0.2690
2921.00,0.2804
2920.00,0.2908
2919.00,0.2989
2918.00,0.3034
2917.00,0.3032
2916.00,0.2981
2915.00,0.2888
2914.00,0.2767
2913.00,0.2633
2912.00,0.2500
2911.00,0.2376
2910.00,0.2266
2909.00,0.2167
2908.00,0.2077
2907.00,0.1994
2906.00,0.1914
2905.00,0.1837
2904.00,0.1761
2903.00,0.1686
2902.00,0.1615
2901.00,0.1546
2900.00,0.1480
2899.00,0.1419
2898.00,0.1362
2897.00,0.1309
2896.00,0.1262
2895.00,0.1221
2894.00,0.1186
2893.00,0.1157
2892.00,0.1134
2891.00,0.1117
2890.00,0.1106
2889.00,0.1099
2888.00,0.1096
2887.00,0.1096
2886.00,0.1100
2885.00,0.1107
2884.00,0.1118
2883.00,0.1135
2882.00,0.1157
2881.00,0.1182
2880.00,0.1208
2879.00,0.1230
2878.00,0.1245
2877.00,0.1250
2876.00,0.1247
2875.00,0.1241
2874.00,0.1235
2873.00,0.1235
2872.00,0.1242
2871.00,0.1257
2870.00,0.1277
2869.00,0.1298
2868.00,0.1311
2867.00,0.1310
2866.00,0.1286
2865.00,0.1239
2864.00,0.1171
2863.00,0.1092
2862.00,0.1013
2861.00,0.0943
2860.00,0.0889
2859.00,0.0851
2858.00,0.0830
2857.00,0.0821
2856.00,0.0824
2855.00,0.0835
2854.00,0.0852
2853.00,0.0872
2852.00,0.0893
2851.00,0.0911
2850.00,0.0924
2849.00,0.0932
2848.00,0.0937
2847.00,0.0945
2846.00,0.0960
2845.00,0.0986
2844.00,0.1023
2843.00,0.1069
2842.00,0.1118
2841.00,0.1164
2840.00,0.1199
2839.00,0.1216
2838.00,0.1209
2837.00,0.1172
2836.00,0.1107
2835.00,0.1019
2834.00,0.0917
2833.00,0.0811
2832.00,0.0711
2831.00,0.0622
2830.00,0.0546
2829.00,0.0484
2828.00,0.0434
2827.00,0.0393
2826.00,0.0359
2825.00,0.0332
2824.00,0.0309
2823.00,0.0290
2822.00,0.0274
2821.00,0.0260
2820.00,0.0247
2819.00,0.0236
2818.00,0.0227
2817.00,0.0219
2816.00,0.0211
2815.00,0.0205
2814.00,0.0198
2813.00,0.0192
2812.00,0.0186
2811.00,0.0181
2810.00,0.0175
2809.00,0.0169
2808.00,0.0163
2807.00,0.0156
2806.00,0.0150
2805.00,0.0143
2804.00,0.0137
2803.00,0.0131
2802.00,0.0126
2801.00,0.0122
2800.00,0.0119
2799.00,0.0115
2798.00,0.0112
2797.00,0.0110
2796.00,0.0107
2795.00,0.0104
2794.00,0.0102
2793.00,0.0099
2792.00,0.0096
2791.00,0.0093
2790.00,0.0090
2789.00,0.0087
2788.00,0.0084
2787.00,0.0082
2786.00,0.0079
2785.00,0.0077
2784.00,0.0075
2783.00,0.0073
2782.00,0.0071
2781.00,0.0069
2780.00,0.0068
2779.00,0.0066
2778.00,0.0064
2777.00,0.0063
2776.00,0.0062
2775.00,0.0061
2774.00,0.0060
2773.00,0.0059
2772.00,0.0058
2771.00,0.0058
2770.00,0.0058
2769.00,0.0057
2768.00,0.0057
2767.00,0.0057
2766.00,0.0057
2765.00,0.0056
2764.00,0.0056
2763.00,0.0056
2762.00,0.0055
2761.00,0.0055
2760.00,0.0054
2759.00,0.0054
2758.00,0.0054
2757.00,0.0054
2756.00,0.0054
2755.00,0.0054
2754.00,0.0054
2753.00,0.0053
2752.00,0.0053
2751.00,0.0052
2750.00,0.0052
2749.00,0.0052
2748.00,0.0052
2747.00,0.0053
2746.00,0.0053
2745.00,0.0054
2744.00,0.0055
2743.00,0.0055
2742.00,0.0056
2741.00,0.0057
2740.00,0.0058
2739.00,0.0060
2738.00,0.0061
2737.00,0.0063
2736.00,0.0064
2735.00,0.0065
2734.00,0.0067
2733.00,0.0069
2732.00,0.0070
2731.00,0.0073
2730.00,0.0075
2729.00,0.0077
2728.00,0.0079
2727.00,0.0082
2726.00,0.0085
2725.00,0.0087
2724.00,0.0089
2723.00,0.0090
2722.00,0.0089
2721.00,0.0087
2720.00,0.0084
2719.00,0.0081
2718.00,0.0077
2717.00,0.0074
2716.00,0.0071
2715.00,0.0068
2714.00,0.0066
2713.00,0.0063
2712.00,0.0061
2711.00,0.0060
2710.00,0.0058
2709.00,0.0056
2708.00,0.0055
2707.00,0.0053
2706.00,0.0052
2705.00,0.0051
2704.00,0.0050
2703.00,0.0049
2702.00,0.0049
2701.00,0.0048
2700.00,0.0047
2699.00,0.0047
2698.00,0.0046
2697.00,0.0046
2696.00,0.0046
2695.00,0.0046
2694.00,0.0046
2693.00,0.0046
2692.00,0.0046
2691.00,0.0046
2690.00,0.0046
2689.00,0.0046
2688.00,0.0046
2687.00,0.0046
2686.00,0.0046
2685.00,0.0046
2684.00,0.0047
2683.00,0.0047
2682.00,0.0047
2681.00,0.0047
2680.00,0.0047
2679.00,0.0047
2678.00,0.0047
2677.00,0.0047
2676.00,0.0047
2675.00,0.0046
2674.00,0.0046
2673.00,0.0046
2672.00,0.0046
2671.00,0.0046
2670.00,0.0046
2669.00,0.0046
2668.00,0.0046
2667.00,0.0046
2666.00,0.0046
2665.00,0.0047
2664.00,0.0047
2663.00,0.0048
2662.00,0.0048
2661.00,0.0048
2660.00,0.0048
2659.00,0.0048
2658.00,0.0048
2657.00,0.0048
2656.00,0.0048
2655.00,0.0048
2654.00,0.0047
2653.00,0.0047
2652.00,0.0047
2651.00,0.0046
2650.00,0.0046
2649.00,0.0045
2648.00,0.0045
2647.00,0.0044
2646.00,0.0043
2645.00,0.0043
2644.00,0.0042
2643.00,0.0041
2642.00,0.0041
2641.00,0.0041
2640.00,0.0040
2639.00,0.0040
2638.00,0.0040
2637.00,0.0040
2636.00,0.0039
2635.00,0.0039
2634.00,0.0038
2633.00,0.0038
2632.00,0.0038
2631.00,0.0039
2630.00,0.0039
2629.00,0.0040
2628.00,0.0040
2627.00,0.0040
2626.00,0.0041
2625.00,0.0041
2624.00,0.0041
2623.00,0.0041
2622.00,0.0041
2621.00,0.0040
2620.00,0.0040
2619.00,0.0040
2618.00,0.0039
2617.00,0.0040
2616.00,0.0040
2615.00,0.0040
2614.00,0.0040
2613.00,0.0039
2612.00,0.0039
2611.00,0.0039
2610.00,0.0038
2609.00,0.0038
2608.00,0.0037
2607.00,0.0036
2606.00,0.0035
2605.00,0.0034
2604.00,0.0034
2603.00,0.0034
2602.00,0.0034
2601.00,0.0034
2600.00,0.0034
2599.00,0.0034
2598.00,0.0033
2597.00,0.0033
2596.00,0.0032
2595.00,0.0032
2594.00,0.0032
2593.00,0.0033
2592.00,0.0034
2591.00,0.0035
2590.00,0.0036
2589.00,0.0037
2588.00,0.0038
2587.00,0.0038
2586.00,0.0039
2585.00,0.0040
2584.00,0.0042
2583.00,0.0042
2582.00,0.0042
2581.00,0.0042
2580.00,0.0041
2579.00,0.0039
2578.00,0.0037
2577.00,0.0035
2576.00,0.0033
2575.00,0.0032
2574.00,0.0031
2573.00,0.0031
2572.00,0.0030
2571.00,0.0029
2570.00,0.0028
2569.00,0.0027
2568.00,0.0027
2567.00,0.0026
2566.00,0.0025
2565.00,0.0025
2564.00,0.0024
2563.00,0.0024
2562.00,0.0024
2561.00,0.0023
2560.00,0.0023
2559.00,0.0023
2558.00,0.0023
2557.00,0.0023
2556.00,0.0023
2555.00,0.0022
2554.00,0.0022
2553.00,0.0022
2552.00,0.0021
2551.00,0.0021
2550.00,0.0021
2549.00,0.0020
2548.00,0.0020
2547.00,0.0020
2546.00,0.0019
2545.00,0.0018
2544.00,0.0018
2543.00,0.0018
2542.00,0.0017
2541.00,0.0017
2540.00,0.0017
2539.00,0.0016
2538.00,0.0016
2537.00,0.0016
2536.00,0.0016
2535.00,0.0016
2534.00,0.0017
2533.00,0.0017
2532.00,0.0016
2531.00,0.0016
2530.00,0.0015
2529.00,0.0015
2528.00,0.0015
2527.00,0.0015
2526.00,0.0015
2525.00,0.0015
2524.00,0.0015
2523.00,0.0015
2522.00,0.0014
2521.00,0.0013
2520.00,0.0012
2519.00,0.0012
2518.00,0.0012
2517.00,0.0012
2516.00,0.0012
2515.00,0.0012
2514.00,0.0011
2513.00,0.0011
2512.00,0.0011
2511.00,0.0011
2510.00,0.0010
2509.00,0.0010
2508.00,0.0010
2507.00,0.0010
2506.00,0.0011
2505.00,0.0011
2504.00,0.0011
2503.00,0.0012
2502.00,0.0012
2501.00,0.0012
2500.00,0.0012
2499.00,0.0011
2498.00,0.0011
2497.00,0.0011
2496.00,0.0011
2495.00,0.0011
2494.00,0.0011
2493.00,0.0011
2492.00,0.0011
2491.00,0.0010
2490.00,0.0010
2489.00,0.0011
2488.00,0.0011
2487.00,0.0011
2486.00,0.0011
2485.00,0.0011
2484.00,0.0011
2483.00,0.0011
2482.00,0.0011
2481.00,0.0011
2480.00,0.0011
2479.00,0.0011
2478.00,0.0011
2477.00,0.0011
2476.00,0.0011
2475.00,0.0011
2474.00,0.0011
2473.00,0.0011
2472.00,0.0011
2471.00,0.0011
2470.00,0.0011
2469.00,0.0011
2468.00,0.0010
2467.00,0.0010
2466.00,0.0010
2465.00,0.0010
2464.00,0.0010
2463.00,0.0010
2462.00,0.0010
2461.00,0.0010
2460.00,0.0011
2459.00,0.0011
2458.00,0.0011
2457.00,0.0011
2456.00,0.0011
2455.00,0.0010
2454.00,0.0010
2453.00,0.0010
2452.00,0.0011
2451.00,0.0012
2450.00,0.0012
2449.00,0.0012
2448.00,0.0012
2447.00,0.0012
2446.00,0.0012
2445.00,0.0012
2444.00,0.0011
2443.00,0.0010
2442.00,0.0010
2441.00,0.0010
2440.00,0.0011
2439.00,0.0011
2438.00,0.0011
2437.00,0.0011
2436.00,0.0011
2435.00,0.0012
2434.00,0.0012
2433.00,0.0012
2432.00,0.0012
2431.00,0.0012
2430.00,0.0012
2429.00,0.0012
2428.00,0.0012
2427.00,0.0012
2426.00,0.0012
2425.00,0.0012
2424.00,0.0012
2423.00,0.0012
2422.00,0.0011
2421.00,0.0011
2420.00,0.0010
2419.00,0.0010
2418.00,0.0010
2417.00,0.0011
2416.00,0.0011
2415.00,0.0012
2414.00,0.0011
2413.00,0.0011
2412.00,0.0011
2411.00,0.0011
2410.00,0.0011
2409.00,0.0011
2408.00,0.0010
2407.00,0.0010
2406.00,0.0009
2405.00,0.0008
2404.00,0.0008
2403.00,0.0009
2402.00,0.0009
2401.00,0.0010
2400.00,0.0009
2399.00,0.0009
2398.00,0.0009
2397.00,0.0009
2396.00,0.0009
2395.00,0.0009
2394.00,0.0008
2393.00,0.0008
2392.00,0.0008
2391.00,0.0008
2390.00,0.0007
2389.00,0.0007
2388.00,0.0007
2387.00,0.0007
2386.00,0.0007
2385.00,0.0007
2384.00,0.0007
2383.00,0.0007
2382.00,0.0006
2381.00,0.0005
2380.00,0.0005
2379.00,0.0005
2378.00,0.0005
2377.00,0.0006
2376.00,0.0006
2375.00,0.0007
2374.00,0.0007
2373.00,0.0007
2372.00,0.0008
2371.00,0.0007
2370.00,0.0007
2369.00,0.0007
2368.00,0.0007
2367.00,0.0006
2366.00,0.0007
2365.00,0.0007
2364.00,0.0007
2363.00,0.0008
2362.00,0.0008
2361.00,0.0009
2360.00,0.0010
2359.00,0.0010
2358.00,0.0011
2357.00,0.0010
2356.00,0.0010
2355.00,0.0009
2354.00,0.0009
2353.00,0.0009
2352.00,0.0008
2351.00,0.0007
2350.00,0.0008
2349.00,0.0009
2348.00,0.0010
2347.00,0.0011
2346.00,0.0011
2345.00,0.0010
2344.00,0.0010
2343.00,0.0010
2342.00,0.0011
2341.00,0.0011
2340.00,0.0011
2339.00,0.0011
2338.00,0.0010
2337.00,0.0010
2336.00,0.0009
2335.00,0.0009
2334.00,0.0009
2333.00,0.0009
2332.00,0.0008
2331.00,0.0008
2330.00,0.0008
2329.00,0.0008
2328.00,0.0010
2327.00,0.0013
2326.00,0.0017
2325.00,0.0020
2324.00,0.0020
2323.00,0.0019
2322.00,0.0016
2321.00,0.0015
2320.00,0.0014
2319.00,0.0013
2318.00,0.0013
2317.00,0.0012
2316.00,0.0012
2315.00,0.0012
2314.00,0.0011
2313.00,0.0011
2312.00,0.0011
2311.00,0.0010
2310.00,0.0010
2309.00,0.0010
2308.00,0.0010
2307.00,0.0009
2306.00,0.0009
2305.00,0.0009
2304.00,0.0010
2303.00,0.0011
2302.00,0.0012
2301.00,0.0012
2300.00,0.0013
2299.00,0.0013
2298.00,0.0014
2297.00,0.0014
2296.00,0.0014
2295.00,0.0014
2294.00,0.0015
2293.00,0.0015
2292.00,0.0016
2291.00,0.0016
2290.00,0.0017
2289.00,0.0017
2288.00,0.0017
2287.00,0.0018
2286.00,0.0018
2285.00,0.0017
2284.00,0.0017
2283.00,0.0016
2282.00,0.0016
2281.00,0.0016
2280.00,0.0016
2279.00,0.0015
2278.00,0.0015
2277.00,0.0014
2276.00,0.0014
2275.00,0.0014
2274.00,0.0014
2273.00,0.0013
2272.00,0.0013
2271.00,0.0013
2270.00,0.0012
2269.00,0.0013
2268.00,0.0013
2267.00,0.0014
2266.00,0.0014
2265.00,0.0013
2264.00,0.0011
2263.00,0.0010
2262.00,0.0010
2261.00,0.0010
2260.00,0.0011
2259.00,0.0012
2258.00,0.0013
2257.00,0.0014
2256.00,0.0014
2255.00,0.0014
2254.00,0.0013
2253.00,0.0012
2252.00,0.0011
2251.00,0.0011
2250.00,0.0011
2249.00,0.0011
2248.00,0.0011
2247.00,0.0011
2246.00,0.0011
2245.00,0.0011
2244.00,0.0011
2243.00,0.0011
2242.00,0.0010
2241.00,0.0010
2240.00,0.0010
2239.00,0.0010
2238.00,0.0008
2237.00,0.0007
2236.00,0.0006
2235.00,0.0007
2234.00,0.0007
2233.00,0.0008
2232.00,0.0008
2231.00,0.0007
2230.00,0.0007
2229.00,0.0007
2228.00,0.0008
2227.00,0.0010
2226.00,0.0012
2225.00,0.0013
2224.00,0.0014
2223.00,0.0014
2222.00,0.0014
2221.00,0.0014
2220.00,0.0013
2219.00,0.0011
2218.00,0.0008
2217.00,0.0006
2216.00,0.0005
2215.00,0.0004
2214.00,0.0005
2213.00,0.0006
2212.00,0.0007
2211.00,0.0007
2210.00,0.0006
2209.00,0.0006
2208.00,0.0005
2207.00,0.0005
2206.00,0.0005
2205.00,0.0004
2204.00,0.0003
2203.00,0.0003
2202.00,0.0003
2201.00,0.0005
2200.00,0.0006
2199.00,0.0007
2198.00,0.0007
2197.00,0.0007
2196.00,0.0007
2195.00,0.0007
2194.00,0.0006
2193.00,0.0008
2192.00,0.0010
2191.00,0.0012
2190.00,0.0013
2189.00,0.0014
2188.00,0.0015
2187.00,0.0015
2186.00,0.0013
2185.00,0.0009
2184.00,0.0006
2183.00,0.0002
2182.00,0.0001
2181.00,0.0002
2180.00,0.0004
2179.00,0.0006
2178.00,0.0007
2177.00,0.0005
2176.00,0.0002
2175.00,0.0000
2174.00,0.0000
2173.00,0.0003
2172.00,0.0006
2171.00,0.0009
2170.00,0.0012
2169.00,0.0015
2168.00,0.0017
2167.00,0.0018
2166.00,0.0018
2165.00,0.0018
2164.00,0.0018
2163.00,0.0018
2162.00,0.0016
2161.00,0.0010
2160.00,-0.0002
2159.00,-0.0018
2158.00,-0.0030
2157.00,-0.0035
2156.00,-0.0032
2155.00,-0.0026
2154.00,-0.0019
2153.00,-0.0014
2152.00,-0.0011
2151.00,-0.0009
2150.00,-0.0009
2149.00,-0.0009
2148.00,-0.0009
2147.00,-0.0009
2146.00,-0.0009
2145.00,-0.0010
2144.00,-0.0010
2143.00,-0.0009
2142.00,-0.0008
2141.00,-0.0007
2140.00,-0.0006
2139.00,-0.0006
2138.00,-0.0008
2137.00,-0.0009
2136.00,-0.0011
2135.00,-0.0012
2134.00,-0.0012
2133.00,-0.0011
2132.00,-0.0010
2131.00,-0.0010
2130.00,-0.0011
2129.00,-0.0011
2128.00,-0.0009
2127.00,-0.0007
2126.00,-0.0004
2125.00,-0.0003
2124.00,-0.0002
2123.00,-0.0002
2122.00,-0.0002
2121.00,-0.0003
2120.00,-0.0002
2119.00,-0.0002
2118.00,-0.0001
2117.00,0.0001
2116.00,0.0003
2115.00,0.0005
2114.00,0.0005
2113.00,0.0005
2112.00,0.0005
2111.00,0.0005
2110.00,0.0005
2109.00,0.0005
2108.00,0.0004
2107.00,0.0003
2106.00,0.0002
2105.00,0.0003
2104.00,0.0003
2103.00,0.0003
2102.00,0.0003
2101.00,0.0003
2100.00,0.0003
2099.00,0.0003
2098.00,0.0004
2097.00,0.0003
2096.00,0.0002
2095.00,0.0000
2094.00,-0.0001
2093.00,-0.0002
2092.00,-0.0002
2091.00,-0.0001
2090.00,-0.0000
2089.00,0.0001
2088.00,0.0003
2087.00,0.0005
2086.00,0.0006
2085.00,0.0007
2084.00,0.0007
2083.00,0.0007
2082.00,0.0006
2081.00,0.0005
2080.00,0.0004
2079.00,0.0004
2078.00,0.0004
2077.00,0.0004
2076.00,0.0004
2075.00,0.0003
2074.00,0.0002
2073.00,0.0002
2072.00,0.0002
2071.00,0.0002
2070.00,0.0002
2069.00,0.0003
2068.00,0.0003
2067.00,0.0001
2066.00,-0.0000
2065.00,0.0000
2064.00,0.0002
2063.00,0.0005
2062.00,0.0006
2061.00,0.0006
2060.00,0.0004
2059.00,0.0003
2058.00,0.0002
2057.00,0.0003
2056.00,0.0003
2055.00,0.0003
2054.00,0.0004
2053.00,0.0006
2052.00,0.0009
2051.00,0.0011
2050.00,0.0011
2049.00,0.0009
2048.00,0.0007
2047.00,0.0004
2046.00,0.0003
2045.00,0.0002
2044.00,0.0002
2043.00,0.0002
2042.00,0.0001
2041.00,-0.0001
2040.00,-0.0001
2039.00,-0.0001
2038.00,-0.0000
2037.00,-0.0000
2036.00,-0.0001
2035.00,-0.0003
2034.00,-0.0006
2033.00,-0.0008
2032.00,-0.0010
2031.00,-0.0010
2030.00,-0.0010
2029.00,-0.0009
2028.00,-0.0008
2027.00,-0.0008
2026.00,-0.0008
2025.00,-0.0008
2024.00,-0.0007
2023.00,-0.0004
2022.00,-0.0002
2021.00,-0.0001
2020.00,-0.0001
2019.00,-0.0004
2018.00,-0.0007
2017.00,-0.0010
2016.00,-0.0013
2015.00,-0.0014
2014.00,-0.0013
2013.00,-0.0009
2012.00,-0.0005
2011.00,-0.0002
2010.00,-0.0001
2009.00,-0.0001
2008.00,-0.0004
2007.00,-0.0008
2006.00,-0.0011
2005.00,-0.0012
2004.00,-0.0012
2003.00,-0.0011
2002.00,-0.0011
2001.00,-0.0010
2000.00,-0.0009
1999.00,-0.0009
1998.00,-0.0008
1997.00,-0.0007
1996.00,-0.0007
1995.00,-0.0006
1994.00,-0.0005
1993.00,-0.0003
1992.00,-0.0002
1991.00,-0.0000
1990.00,0.0001
1989.00,0.0001
1988.00,0.0000
1987.00,-0.0000
1986.00,0.0001
1985.00,0.0003
1984.00,0.0005
1983.00,0.0006
1982.00,0.0007
1981.00,0.0010
1980.00,0.0011
1979.00,0.0008
1978.00,0.0002
1977.00,-0.0005
1976.00,-0.0009
1975.00,-0.0011
1974.00,-0.0012
1973.00,-0.0011
1972.00,-0.0010
1971.00,-0.0010
1970.00,-0.0011
1969.00,-0.0012
1968.00,-0.0011
1967.00,-0.0011
1966.00,-0.0010
1965.00,-0.0009
1964.00,-0.0008
1963.00,-0.0009
1962.00,-0.0011
1961.00,-0.0013
1960.00,-0.0014
1959.00,-0.0015
1958.00,-0.0016
1957.00,-0.0014
1956.00,-0.0011
1955.00,-0.0009
1954.00,-0.0009
1953.00,-0.0011
1952.00,-0.0012
1951.00,-0.0012
1950.00,-0.0012
1949.00,-0.0012
1948.00,-0.0012
1947.00,-0.0012
1946.00,-0.0011
1945.00,-0.0010
1944.00,-0.0009
1943.00,-0.0008
1942.00,-0.0009
1941.00,-0.0010
1940.00,-0.0010
1939.00,-0.0010
1938.00,-0.0010
1937.00,-0.0008
1936.00,-0.0007
1935.00,-0.0005
1934.00,-0.0005
1933.00,-0.0005
1932.00,-0.0006
1931.00,-0.0008
1930.00,-0.0009
1929.00,-0.0009
1928.00,-0.0008
1927.00,-0.0006
1926.00,-0.0005
1925.00,-0.0004
1924.00,-0.0003
1923.00,-0.0002
1922.00,-0.0001
1921.00,-0.0001
1920.00,-0.0000
1919.00,0.0000
1918.00,0.0001
1917.00,0.0001
1916.00,0.0001
1915.00,0.0000
1914.00,-0.0000
1913.00,-0.0001
1912.00,-0.0001
1911.00,-0.0000
1910.00,0.0001
1909.00,0.0002
1908.00,0.0002
1907.00,0.0002
1906.00,0.0002
1905.00,0.0001
1904.00,0.0001
1903.00,0.0001
1902.00,0.0002
1901.00,0.0003
1900.00,0.0003
1899.00,0.0003
1898.00,0.0003
1897.00,0.0003
1896.00,0.0002
1895.00,0.0000
1894.00,-0.0000
1893.00,-0.0000
1892.00,0.0001
1891.00,0.0002
1890.00,0.0003
1889.00,0.0003
1888.00,0.0003
1887.00,0.0003
1886.00,0.0002
1885.00,0.0001
1884.00,-0.0000
1883.00,-0.0001
1882.00,-0.0000
1881.00,0.0001
1880.00,0.0002
1879.00,0.0002
1878.00,0.0002
1877.00,0.0001
1876.00,0.0002
1875.00,0.0003
1874.00,0.0003
1873.00,0.0003
1872.00,0.0003
1871.00,0.0003
1870.00,0.0003
1869.00,0.0002
1868.00,0.0002
1867.00,0.0001
1866.00,0.0001
1865.00,0.0001
1864.00,0.0001
1863.00,0.0002
1862.00,0.0002
1861.00,0.0002
1860.00,0.0002
1859.00,0.0002
1858.00,0.0002
1857.00,0.0003
1856.00,0.0003
1855.00,0.0004
1854.00,0.0004
1853.00,0.0004
1852.00,0.0003
1851.00,0.0003
1850.00,0.0002
1849.00,0.0003
1848.00,0.0003
1847.00,0.0003
1846.00,0.0003
1845.00,0.0003
1844.00,0.0004
1843.00,0.0004
1842.00,0.0004
1841.00,0.0004
1840.00,0.0004
1839.00,0.0004
1838.00,0.0005
1837.00,0.0005
1836.00,0.0006
1835.00,0.0006
1834.00,0.0006
1833.00,0.0006
1832.00,0.0006
1831.00,0.0005
1830.00,0.0005
1829.00,0.0005
1828.00,0.0005
1827.00,0.0005
1826.00,0.0005
1825.00,0.0005
1824.00,0.0006
1823.00,0.0006
1822.00,0.0005
1821.00,0.0005
1820.00,0.0004
1819.00,0.0003
1818.00,0.0002
1817.00,0.0002
1816.00,0.0003
1815.00,0.0003
1814.00,0.0004
1813.00,0.0004
1812.00,0.0004
1811.00,0.0004
1810.00,0.0004
1809.00,0.0005
1808.00,0.0006
1807.00,0.0007
1806.00,0.0007
1805.00,0.0007
1804.00,0.0007
1803.00,0.0006
1802.00,0.0006
1801.00,0.0006
1800.00,0.0006
1799.00,0.0006
1798.00,0.0007
1797.00,0.0007
1796.00,0.0007
1795.00,0.0007
1794.00,0.0008
1793.00,0.0008
1792.00,0.0008
1791.00,0.0008
1790.00,0.0008
1789.00,0.0008
1788.00,0.0009
1787.00,0.0009
1786.00,0.0010
1785.00,0.0010
1784.00,0.0011
1783.00,0.0011
1782.00,0.0011
1781.00,0.0011
1780.00,0.0011
1779.00,0.0010
1778.00,0.0010
1777.00,0.0010
1776.00,0.0010
1775.00,0.0010
1774.00,0.0010
1773.00,0.0011
1772.00,0.0011
1771.00,0.0011
1770.00,0.0012
1769.00,0.0012
1768.00,0.0012
1767.00,0.0013
1766.00,0.0013
1765.00,0.0014
1764.00,0.0014
1763.00,0.0015
1762.00,0.0016
1761.00,0.0017
1760.00,0.0018
1759.00,0.0020
1758.00,0.0022
1757.00,0.0024
1756.00,0.0025
1755.00,0.0027
1754.00,0.0028
1753.00,0.0030
1752.00,0.0032
1751.00,0.0034
1750.00,0.0035
1749.00,0.0036
1748.00,0.0037
1747.00,0.0038
1746.00,0.0038
1745.00,0.0039
1744.00,0.0040
1743.00,0.0040
1742.00,0.0040
1741.00,0.0040
1740.00,0.0040
1739.00,0.0040
1738.00,0.0039
1737.00,0.0038
1736.00,0.0037
1735.00,0.0037
1734.00,0.0037
1733.00,0.0037
1732.00,0.0036
1731.00,0.0035
1730.00,0.0034
1729.00,0.0034
1728.00,0.0034
1727.00,0.0033
1726.00,0.0033
1725.00,0.0033
1724.00,0.0033
1723.00,0.0033
1722.00,0.0033
1721.00,0.0032
1720.00,0.0032
1719.00,0.0031
1718.00,0.0030
1717.00,0.0028
1716.00,0.0027
1715.00,0.0027
1714.00,0.0027
1713.00,0.0027
1712.00,0.0028
1711.00,0.0028
1710.00,0.0028
1709.00,0.0027
1708.00,0.0027
1707.00,0.0027
1706.00,0.0028
1705.00,0.0028
1704.00,0.0028
1703.00,0.0028
1702.00,0.0029
1701.00,0.0030
1700.00,0.0030
1699.00,0.0030
1698.00,0.0030
1697.00,0.0031
1696.00,0.0033
1695.00,0.0035
1694.00,0.0035
1693.00,0.0035
1692.00,0.0036
1691.00,0.0036
1690.00,0.0037
1689.00,0.0037
1688.00,0.0037
1687.00,0.0038
1686.00,0.0039
1685.00,0.0039
1684.00,0.0039
1683.00,0.0040
1682.00,0.0041
1681.00,0.0042
1680.00,0.0043
1679.00,0.0044
1678.00,0.0044
1677.00,0.0045
1676.00,0.0046
1675.00,0.0047
1674.00,0.0048
1673.00,0.0048
1672.00,0.0048
1671.00,0.0049
1670.00,0.0049
1669.00,0.0050
1668.00,0.0051
1667.00,0.0051
1666.00,0.0052
1665.00,0.0052
1664.00,0.0053
1663.00,0.0053
1662.00,0.0054
1661.00,0.0055
1660.00,0.0055
1659.00,0.0056
1658.00,0.0056
1657.00,0.0056
1656.00,0.0057
1655.00,0.0058
1654.00,0.0059
1653.00,0.0059
1652.00,0.0060
1651.00,0.0059
1650.00,0.0058
1649.00,0.0058
1648.00,0.0057
1647.00,0.0058
1646.00,0.0058
1645.00,0.0060
1644.00,0.0061
1643.00,0.0062
1642.00,0.0062
1641.00,0.0062
1640.00,0.0063
1639.00,0.0063
1638.00,0.0064
1637.00,0.0065
1636.00,0.0065
1635.00,0.0064
1634.00,0.0062
1633.00,0.0062
1632.00,0.0062
1631.00,0.0061
1630.00,0.0061
1629.00,0.0061
1628.00,0.0060
1627.00,0.0059
1626.00,0.0058
1625.00,0.0058
1624.00,0.0058
1623.00,0.0057
1622.00,0.0057
1621.00,0.0057
1620.00,0.0056
1619.00,0.0056
1618.00,0.0056
1617.00,0.0056
1616.00,0.0056
1615.00,0.0055
1614.00,0.0055
1613.00,0.0055
1612.00,0.0055
1611.00,0.0055
1610.00,0.0055
1609.00,0.0055
1608.00,0.0055
1607.00,0.0055
1606.00,0.0055
1605.00,0.0055
1604.00,0.0055
1603.00,0.0055
1602.00,0.0055
1601.00,0.0055
1600.00,0.0055
1599.00,0.0055
1598.00,0.0055
1597.00,0.0055
1596.00,0.0055
1595.00,0.0055
1594.00,0.0055
1593.00,0.0056
1592.00,0.0057
1591.00,0.0057
1590.00,0.0058
1589.00,0.0058
1588.00,0.0059
1587.00,0.0060
1586.00,0.0061
1585.00,0.0062
1584.00,0.0064
1583.00,0.0066
1582.00,0.0068
1581.00,0.0070
1580.00,0.0072
1579.00,0.0073
1578.00,0.0075
1577.00,0.0076
1576.00,0.0075
1575.00,0.0074
1574.00,0.0072
1573.00,0.0071
1572.00,0.0070
1571.00,0.0069
1570.00,0.0068
1569.00,0.0067
1568.00,0.0066
1567.00,0.0066
1566.00,0.0066
1565.00,0.0065
1564.00,0.0065
1563.00,0.0065
1562.00,0.0065
1561.00,0.0067
1560.00,0.0067
1559.00,0.0065
1558.00,0.0064
1557.00,0.0065
1556.00,0.0065
1555.00,0.0066
1554.00,0.0066
1553.00,0.0067
1552.00,0.0068
1551.00,0.0069
1550.00,0.0070
1549.00,0.0071
1548.00,0.0073
1547.00,0.0074
1546.00,0.0076
1545.00,0.0077
1544.00,0.0079
1543.00,0.0081
1542.00,0.0082
1541.00,0.0083
1540.00,0.0082
1539.00,0.0080
1538.00,0.0078
1537.00,0.0076
1536.00,0.0073
1535.00,0.0071
1534.00,0.0067
1533.00,0.0065
1532.00,0.0063
1531.00,0.0062
1530.00,0.0062
1529.00,0.0061
1528.00,0.0061
1527.00,0.0059
1526.00,0.0058
1525.00,0.0057
1524.00,0.0057
1523.00,0.0057
1522.00,0.0057
1521.00,0.0058
1520.00,0.0059
1519.00,0.0059
1518.00,0.0058
1517.00,0.0058
1516.00,0.0059
1515.00,0.0059
1514.00,0.0059
1513.00,0.0060
1512.00,0.0060
1511.00,0.0061
1510.00,0.0061
1509.00,0.0061
1508.00,0.0062
1507.00,0.0062
1506.00,0.0063
1505.00,0.0066
1504.00,0.0068
1503.00,0.0069
1502.00,0.0070
1501.00,0.0072
1500.00,0.0074
1499.00,0.0076
1498.00,0.0079
1497.00,0.0082
1496.00,0.0085
1495.00,0.0087
1494.00,0.0089
1493.00,0.0092
1492.00,0.0096
1491.00,0.0099
1490.00,0.0102
1489.00,0.0107
1488.00,0.0113
1487.00,0.0118
1486.00,0.0124
1485.00,0.0131
1484.00,0.0138
1483.00,0.0147
1482.00,0.0156
1481.00,0.0167
1480.00,0.0180
1479.00,0.0192
1478.00,0.0207
1477.00,0.0228
1476.00,0.0254
1475.00,0.0285
1474.00,0.0326
1473.00,0.0384
1472.00,0.0451
1471.00,0.0518
1470.00,0.0583
1469.00,0.0652
1468.00,0.0726
1467.00,0.0808
1466.00,0.0900
1465.00,0.0999
1464.00,0.1084
1463.00,0.1142
1462.00,0.1177
1461.00,0.1200
1460.00,0.1215
1459.00,0.1222
1458.00,0.1224
1457.00,0.1220
1456.00,0.1209
1455.00,0.1193
1454.00,0.1174
1453.00,0.1150
1452.00,0.1117
1451.00,0.1074
1450.00,0.1018
1449.00,0.0945
1448.00,0.0856
1447.00,0.0763
1446.00,0.0681
1445.00,0.0612
1444.00,0.0554
1443.00,0.0506
1442.00,0.0471
1441.00,0.0447
1440.00,0.0433
1439.00,0.0429
1438.00,0.0434
1437.00,0.0439
1436.00,0.0432
1435.00,0.0410
1434.00,0.0373
1433.00,0.0329
1432.00,0.0283
1431.00,0.0243
1430.00,0.0211
1429.00,0.0187
1428.00,0.0171
1427.00,0.0161
1426.00,0.0154
1425.00,0.0148
1424.00,0.0142
1423.00,0.0139
1422.00,0.0137
1421.00,0.0135
1420.00,0.0132
1419.00,0.0130
1418.00,0.0128
1417.00,0.0125
1416.00,0.0123
1415.00,0.0121
1414.00,0.0120
1413.00,0.0119
1412.00,0.0118
1411.00,0.0117
1410.00,0.0117
1409.00,0.0116
1408.00,0.0115
1407.00,0.0115
1406.00,0.0115
1405.00,0.0115
1404.00,0.0115
1403.00,0.0116
1402.00,0.0118
1401.00,0.0119
1400.00,0.0121
1399.00,0.0123
1398.00,0.0126
1397.00,0.0128
1396.00,0.0130
1395.00,0.0134
1394.00,0.0139
1393.00,0.0144
1392.00,0.0149
1391.00,0.0157
1390.00,0.0169
1389.00,0.0183
1388.00,0.0203
1387.00,0.0234
1386.00,0.0275
1385.00,0.0330
1384.00,0.0407
1383.00,0.0517
1382.00,0.0668
1381.00,0.0866
1380.00,0.1116
1379.00,0.1407
1378.00,0.1695
1377.00,0.1915
1376.00,0.2000
1375.00,0.1912
1374.00,0.1677
1373.00,0.1384
1372.00,0.1112
1371.00,0.0886
1370.00,0.0708
1369.00,0.0574
1368.00,0.0482
1367.00,0.0426
1366.00,0.0395
1365.00,0.0383
1364.00,0.0385
1363.00,0.0399
1362.00,0.0421
1361.00,0.0446
1360.00,0.0464
1359.00,0.0471
1358.00,0.0460
1357.00,0.0434
1356.00,0.0397
1355.00,0.0354
1354.00,0.0313
1353.00,0.0277
1352.00,0.0249
1351.00,0.0226
1350.00,0.0207
1349.00,0.0192
1348.00,0.0179
1347.00,0.0169
1346.00,0.0159
1345.00,0.0152
1344.00,0.0145
1343.00,0.0140
1342.00,0.0136
1341.00,0.0133
1340.00,0.0131
1339.00,0.0128
1338.00,0.0126
1337.00,0.0125
1336.00,0.0126
1335.00,0.0128
1334.00,0.0132
1333.00,0.0136
1332.00,0.0140
1331.00,0.0144
1330.00,0.0145
1329.00,0.0144
1328.00,0.0140
1327.00,0.0135
1326.00,0.0128
1325.00,0.0122
1324.00,0.0116
1323.00,0.0111
1322.00,0.0107
1321.00,0.0104
1320.00,0.0102
1319.00,0.0100
1318.00,0.0099
1317.00,0.0098
1316.00,0.0097
1315.00,0.0096
1314.00,0.0095
1313.00,0.0095
1312.00,0.0096
1311.00,0.0098
1310.00,0.0101
1309.00,0.0105
1308.00,0.0112
1307.00,0.0119
1306.00,0.0127
1305.00,0.0132
1304.00,0.0134
1303.00,0.0133
1302.00,0.0131
1301.00,0.0130
1300.00,0.0130
1299.00,0.0131
1298.00,0.0133
1297.00,0.0134
1296.00,0.0134
1295.00,0.0132
1294.00,0.0129
1293.00,0.0124
1292.00,0.0119
1291.00,0.0113
1290.00,0.0109
1289.00,0.0105
1288.00,0.0101
1287.00,0.0099
1286.00,0.0096
1285.00,0.0095
1284.00,0.0093
1283.00,0.0092
1282.00,0.0092
1281.00,0.0092
1280.00,0.0092
1279.00,0.0091
1278.00,0.0090
1277.00,0.0089
1276.00,0.0089
1275.00,0.0090
1274.00,0.0090
1273.00,0.0091
1272.00,0.0091
1271.00,0.0092
1270.00,0.0092
1269.00,0.0094
1268.00,0.0096
1267.00,0.0099
1266.00,0.0102
1265.00,0.0105
1264.00,0.0107
1263.00,0.0109
1262.00,0.0112
1261.00,0.0114
1260.00,0.0118
1259.00,0.0122
1258.00,0.0126
1257.00,0.0129
1256.00,0.0130
1255.00,0.0128
1254.00,0.0124
1253.00,0.0119
1252.00,0.0113
1251.00,0.0108
1250.00,0.0104
1249.00,0.0101
1248.00,0.0099
1247.00,0.0096
1246.00,0.0095
1245.00,0.0093
1244.00,0.0092
1243.00,0.0091
1242.00,0.0090
1241.00,0.0089
1240.00,0.0088
1239.00,0.0087
1238.00,0.0087
1237.00,0.0087
1236.00,0.0088
1235.00,0.0088
1234.00,0.0089
1233.00,0.0089
1232.00,0.0090
1231.00,0.0091
1230.00,0.0092
1229.00,0.0093
1228.00,0.0094
1227.00,0.0095
1226.00,0.0097
1225.00,0.0100
1224.00,0.0104
1223.00,0.0107
1222.00,0.0111
1221.00,0.0114
1220.00,0.0115
1219.00,0.0116
1218.00,0.0114
1217.00,0.0112
1216.00,0.0109
1215.00,0.0106
1214.00,0.0103
1213.00,0.0100
1212.00,0.0098
1211.00,0.0096
1210.00,0.0094
1209.00,0.0092
1208.00,0.0091
1207.00,0.0090
1206.00,0.0090
1205.00,0.0089
1204.00,0.0088
1203.00,0.0087
1202.00,0.0087
1201.00,0.0087
1200.00,0.0087
1199.00,0.0087
1198.00,0.0088
1197.00,0.0088
1196.00,0.0088
1195.00,0.0089
1194.00,0.0090
1193.00,0.0090
1192.00,0.0090
1191.00,0.0089
1190.00,0.0089
1189.00,0.0089
1188.00,0.0089
1187.00,0.0090
1186.00,0.0090
1185.00,0.0091
1184.00,0.0091
1183.00,0.0092
1182.00,0.0094
1181.00,0.0097
1180.00,0.0100
1179.00,0.0104
1178.00,0.0109
1177.00,0.0115
1176.00,0.0123
1175.00,0.0134
1174.00,0.0148
1173.00,0.0166
1172.00,0.0187
1171.00,0.0209
1170.00,0.0231
1169.00,0.0249
1168.00,0.0259
1167.00,0.0262
1166.00,0.0258
1165.00,0.0249
1164.00,0.0240
1163.00,0.0230
1162.00,0.0222
1161.00,0.0216
1160.00,0.0211
1159.00,0.0209
1158.00,0.0207
1157.00,0.0205
1156.00,0.0204
1155.00,0.0204
1154.00,0.0203
1153.00,0.0202
1152.00,0.0199
1151.00,0.0193
1150.00,0.0185
1149.00,0.0176
1148.00,0.0166
1147.00,0.0157
1146.00,0.0149
1145.00,0.0141
1144.00,0.0134
1143.00,0.0127
1142.00,0.0121
1141.00,0.0115
1140.00,0.0110
1139.00,0.0106
1138.00,0.0102
1137.00,0.0099
1136.00,0.0096
1135.00,0.0094
1134.00,0.0092
1133.00,0.0091
1132.00,0.0090
1131.00,0.0090
1130.00,0.0090
1129.00,0.0090
1128.00,0.0091
1127.00,0.0092
1126.00,0.0093
1125.00,0.0094
1124.00,0.0094
1123.00,0.0094
1122.00,0.0094
1121.00,0.0095
1120.00,0.0097
1119.00,0.0099
1118.00,0.0100
1117.00,0.0101
1116.00,0.0102
1115.00,0.0103
1114.00,0.0104
1113.00,0.0106
1112.00,0.0108
1111.00,0.0110
1110.00,0.0113
1109.00,0.0118
1108.00,0.0124
1107.00,0.0131
1106.00,0.0137
1105.00,0.0143
1104.00,0.0147
1103.00,0.0149
1102.00,0.0149
1101.00,0.0145
1100.00,0.0140
1099.00,0.0134
1098.00,0.0129
1097.00,0.0124
1096.00,0.0119
1095.00,0.0115
1094.00,0.0112
1093.00,0.0109
1092.00,0.0106
1091.00,0.0104
1090.00,0.0103
1089.00,0.0101
1088.00,0.0100
1087.00,0.0099
1086.00,0.0098
1085.00,0.0098
1084.00,0.0097
1083.00,0.0097
1082.00,0.0098
1081.00,0.0097
1080.00,0.0097
1079.00,0.0096
1078.00,0.0095
1077.00,0.0094
1076.00,0.0093
1075.00,0.0092
1074.00,0.0092
1073.00,0.0092
1072.00,0.0091
1071.00,0.0091
1070.00,0.0090
1069.00,0.0090
1068.00,0.0090
1067.00,0.0090
1066.00,0.0091
1065.00,0.0092
1064.00,0.0094
1063.00,0.0095
1062.00,0.0095
1061.00,0.0095
1060.00,0.0095
1059.00,0.0095
1058.00,0.0096
1057.00,0.0096
1056.00,0.0098
1055.00,0.0099
1054.00,0.0101
1053.00,0.0104
1052.00,0.0107
1051.00,0.0111
1050.00,0.0114
1049.00,0.0118
1048.00,0.0122
1047.00,0.0127
1046.00,0.0130
1045.00,0.0132
1044.00,0.0132
1043.00,0.0131
1042.00,0.0129
1041.00,0.0128
1040.00,0.0127
1039.00,0.0126
1038.00,0.0126
1037.00,0.0126
1036.00,0.0127
1035.00,0.0126
1034.00,0.0126
1033.00,0.0125
1032.00,0.0124
1031.00,0.0124
1030.00,0.0124
1029.00,0.0125
1028.00,0.0126
1027.00,0.0127
1026.00,0.0128
1025.00,0.0130
1024.00,0.0132
1023.00,0.0135
1022.00,0.0137
1021.00,0.0139
1020.00,0.0141
1019.00,0.0142
1018.00,0.0143
1017.00,0.0142
1016.00,0.0142
1015.00,0.0142
1014.00,0.0141
1013.00,0.0141
1012.00,0.0140
1011.00,0.0140
1010.00,0.0139
1009.00,0.0139
1008.00,0.0139
1007.00,0.0140
1006.00,0.0144
1005.00,0.0150
1004.00,0.0160
1003.00,0.0175
1002.00,0.0195
1001.00,0.0219
1000.00,0.0243
999.00,0.0263
998.00,0.0271
997.00,0.0265
996.00,0.0245
995.00,0.0219
994.00,0.0192
993.00,0.0169
992.00,0.0149
991.00,0.0135
990.00,0.0124
989.00,0.0117
988.00,0.0113
987.00,0.0112
986.00,0.0112
985.00,0.0114
984.00,0.0118
983.00,0.0124
982.00,0.0134
981.00,0.0147
980.00,0.0165
979.00,0.0189
978.00,0.0218
977.00,0.0250
976.00,0.0284
975.00,0.0313
974.00,0.0333
973.00,0.0337
972.00,0.0322
971.00,0.0293
970.00,0.0255
969.00,0.0218
968.00,0.0187
967.00,0.0162
966.00,0.0144
965.00,0.0131
964.00,0.0121
963.00,0.0113
962.00,0.0108
961.00,0.0104
960.00,0.0101
959.00,0.0098
958.00,0.0096
957.00,0.0094
956.00,0.0092
955.00,0.0089
954.00,0.0087
953.00,0.0086
952.00,0.0086
951.00,0.0085
950.00,0.0085
949.00,0.0084
948.00,0.0084
947.00,0.0085
946.00,0.0086
945.00,0.0088
944.00,0.0092
943.00,0.0096
942.00,0.0100
941.00,0.0104
940.00,0.0104
939.00,0.0102
938.00,0.0096
937.00,0.0089
936.00,0.0083
935.00,0.0078
934.00,0.0075
933.00,0.0071
932.00,0.0069
931.00,0.0066
930.00,0.0065
929.00,0.0065
928.00,0.0065
927.00,0.0065
926.00,0.0065
925.00,0.0065
924.00,0.0065
923.00,0.0065
922.00,0.0065
921.00,0.0065
920.00,0.0065
919.00,0.0065
918.00,0.0065
917.00,0.0064
916.00,0.0064
915.00,0.0065
914.00,0.0067
913.00,0.0069
912.00,0.0070
911.00,0.0072
910.00,0.0073
909.00,0.0075
908.00,0.0079
907.00,0.0084
906.00,0.0093
905.00,0.0105
904.00,0.0121
903.00,0.0140
902.00,0.0160
901.00,0.0178
900.00,0.0190
899.00,0.0192
898.00,0.0183
897.00,0.0166
896.00,0.0145
895.00,0.0125
894.00,0.0110
893.00,0.0099
892.00,0.0091
891.00,0.0086
890.00,0.0083
889.00,0.0081
888.00,0.0079
887.00,0.0077
886.00,0.0075
885.00,0.0073
884.00,0.0071
883.00,0.0071
882.00,0.0070
881.00,0.0070
880.00,0.0070
879.00,0.0071
878.00,0.0073
877.00,0.0075
876.00,0.0077
875.00,0.0079
874.00,0.0079
873.00,0.0077
872.00,0.0075
871.00,0.0073
870.00,0.0072
869.00,0.0073
868.00,0.0075
867.00,0.0076
866.00,0.0077
865.00,0.0076
864.00,0.0077
863.00,0.0078
862.00,0.0081
861.00,0.0083
860.00,0.0084
859.00,0.0085
858.00,0.0085
857.00,0.0085
856.00,0.0085
855.00,0.0087
854.00,0.0090
853.00,0.0093
852.00,0.0097
851.00,0.0100
850.00,0.0103
849.00,0.0105
848.00,0.0109
847.00,0.0117
846.00,0.0130
845.00,0.0150
844.00,0.0178
843.00,0.0210
842.00,0.0236
841.00,0.0243
840.00,0.0229
839.00,0.0200
838.00,0.0169
837.00,0.0144
836.00,0.0129
835.00,0.0119
834.00,0.0112
833.00,0.0107
832.00,0.0104
831.00,0.0102
830.00,0.0101
829.00,0.0101
828.00,0.0100
827.00,0.0099
826.00,0.0098
825.00,0.0097
824.00,0.0098
823.00,0.0099
822.00,0.0100
821.00,0.0102
820.00,0.0105
819.00,0.0109
818.00,0.0116
817.00,0.0124
816.00,0.0134
815.00,0.0147
814.00,0.0162
813.00,0.0180
812.00,0.0200
811.00,0.0220
810.00,0.0236
809.00,0.0242
808.00,0.0238
807.00,0.0224
806.00,0.0204
805.00,0.0182
804.00,0.0164
803.00,0.0149
802.00,0.0139
801.00,0.0131
800.00,0.0125
799.00,0.0119
798.00,0.0114
797.00,0.0110
796.00,0.0106
795.00,0.0103
794.00,0.0100
793.00,0.0097
792.00,0.0094
791.00,0.0090
790.00,0.0086
789.00,0.0082
788.00,0.0079
787.00,0.0077
786.00,0.0075
785.00,0.0074
784.00,0.0072
783.00,0.0071
782.00,0.0069
781.00,0.0067
780.00,0.0067
779.00,0.0067
778.00,0.0068
777.00,0.0069
776.00,0.0070
775.00,0.0070
774.00,0.0070
773.00,0.0069
772.00,0.0068
771.00,0.0067
770.00,0.0066
769.00,0.0065
768.00,0.0063
767.00,0.0063
766.00,0.0063
765.00,0.0064
764.00,0.0067
763.00,0.0069
762.00,0.0071
761.00,0.0072
760.00,0.0072
759.00,0.0071
758.00,0.0072
757.00,0.0073
756.00,0.0075
755.00,0.0076
754.00,0.0076
753.00,0.0076
752.00,0.0075
751.00,0.0075
750.00,0.0076
749.00,0.0078
748.00,0.0080
747.00,0.0083
746.00,0.0086
745.00,0.0088
744.00,0.0090
743.00,0.0092
742.00,0.0095
741.00,0.0100
740.00,0.0103
739.00,0.0106
738.00,0.0108
737.00,0.0111
736.00,0.0115
735.00,0.0120
734.00,0.0125
733.00,0.0132
732.00,0.0139
731.00,0.0146
730.00,0.0151
729.00,0.0154
728.00,0.0156
727.00,0.0156
726.00,0.0159
725.00,0.0163
724.00,0.0169
723.00,0.0176
722.00,0.0183
721.00,0.0188
720.00,0.0188
719.00,0.0181
718.00,0.0169
717.00,0.0155
716.00,0.0143
715.00,0.0133
714.00,0.0126
713.00,0.0122
712.00,0.0119
711.00,0.0116
710.00,0.0114
709.00,0.0112
708.00,0.0111
707.00,0.0110
706.00,0.0109
705.00,0.0108
704.00,0.0106
703.00,0.0105
702.00,0.0102
701.00,0.0099
700.00,0.0098
699.00,0.0097
698.00,0.0098
697.00,0.0098
696.00,0.0098
695.00,0.0098
694.00,0.0098
693.00,0.0099
692.00,0.0099
691.00,0.0100
690.00,0.0101
689.00,0.0101
688.00,0.0100
687.00,0.0098
686.00,0.0098
685.00,0.0098
684.00,0.0099
683.00,0.0101
682.00,0.0102
681.00,0.0103
680.00,0.0104
679.00,0.0104
678.00,0.0104
677.00,0.0103
676.00,0.0104
675.00,0.0105
674.00,0.0107
673.00,0.0107
672.00,0.0106
671.00,0.0103
670.00,0.0102
669.00,0.0099
668.00,0.0097
667.00,0.0095
666.00,0.0094
665.00,0.0095
664.00,0.0095
663.00,0.0095
662.00,0.0095
661.00,0.0094
660.00,0.0093
659.00,0.0094
658.00,0.0094
657.00,0.0094
656.00,0.0093
655.00,0.0092
654.00,0.0090
653.00,0.0089
652.00,0.0089
651.00,0.0088
650.00,0.0088
649.00,0.0087
648.00,0.0087
647.00,0.0088
646.00,0.0089
645.00,0.0089
644.00,0.0089
643.00,0.0088
642.00,0.0087
641.00,0.0087
640.00,0.0087
639.00,0.0087
638.00,0.0088
637.00,0.0089
636.00,0.0088
635.00,0.0087
634.00,0.0086
633.00,0.0087
632.00,0.0089
631.00,0.0091
630.00,0.0091
629.00,0.0090
628.00,0.0089
627.00,0.0088
626.00,0.0088
625.00,0.0087
624.00,0.0085
623.00,0.0083
622.00,0.0084
621.00,0.0086
620.00,0.0090
619.00,0.0091
618.00,0.0089
617.00,0.0085
616.00,0.0082
615.00,0.0081
614.00,0.0082
613.00,0.0083
612.00,0.0083
611.00,0.0081
610.00,0.0080
609.00,0.0080
608.00,0.0081
607.00,0.0081
606.00,0.0081
605.00,0.0082
604.00,0.0083
603.00,0.0085
602.00,0.0087
601.00,0.0088
600.00,0.0087
599.00,0.0085
598.00,0.0085
597.00,0.0086
596.00,0.0088
595.00,0.0089
594.00,0.0089
593.00,0.0085
592.00,0.0080
591.00,0.0076
590.00,0.0076
589.00,0.0078
588.00,0.0082
587.00,0.0084
586.00,0.0085
585.00,0.0085
584.00,0.0085
583.00,0.0086
582.00,0.0085
581.00,0.0084
580.00,0.0081
579.00,0.0079
578.00,0.0080
577.00,0.0082
576.00,0.0084
575.00,0.0083
574.00,0.0080
573.00,0.0077
572.00,0.0076
571.00,0.0080
570.00,0.0084
569.00,0.0087
568.00,0.0085
567.00,0.0082
566.00,0.0081
565.00,0.0084
564.00,0.0088
563.00,0.0090
562.00,0.0089
561.00,0.0088
560.00,0.0088
559.00,0.0090
558.00,0.0090
557.00,0.0087
556.00,0.0082
555.00,0.0076
554.00,0.0071
553.00,0.0071
552.00,0.0076
551.00,0.0082
550.00,0.0086
549.00,0.0087
548.00,0.0088
547.00,0.0091
546.00,0.0093
545.00,0.0094
544.00,0.0092
543.00,0.0090
542.00,0.0090
541.00,0.0093
540.00,0.0098
539.00,0.0103
538.00,0.0105
537.00,0.0105
536.00,0.0108
535.00,0.0113
534.00,0.0120
533.00,0.0124
532.00,0.0123
531.00,0.0119
530.00,0.0115
529.00,0.0111
528.00,0.0111
527.00,0.0112
526.00,0.0111
525.00,0.0105
524.00,0.0098
523.00,0.0094
522.00,0.0094
521.00,0.0095
520.00,0.0093
519.00,0.0087
518.00,0.0080
517.00,0.0077
516.00,0.0080
515.00,0.0086
514.00,0.0090
513.00,0.0087
512.00,0.0081
511.00,0.0078
510.00,0.0082
509.00,0.0087
508.00,0.0087
507.00,0.0080
506.00,0.0071
505.00,0.0068
504.00,0.0074
503.00,0.0087
502.00,0.0101
501.00,0.0111
500.00,0.0111
499.00,0.0104
498.00,0.0096
497.00,0.0094
496.00,0.0096
495.00,0.0097
494.00,0.0092
493.00,0.0083
492.00,0.0082
491.00,0.0091
490.00,0.0105
489.00,0.0112
488.00,0.0107
487.00,0.0098
486.00,0.0096
485.00,0.0106
484.00,0.0117
483.00,0.0120
482.00,0.0112
481.00,0.0100
480.00,0.0094
479.00,0.0097
478.00,0.0105
477.00,0.0111
476.00,0.0113
475.00,0.0114
474.00,0.0122
473.00,0.0138
472.00,0.0151
471.00,0.0152
470.00,0.0145
469.00,0.0139
468.00,0.0145
467.00,0.0161
466.00,0.0178
465.00,0.0189
464.00,0.0189
463.00,0.0184
462.00,0.0182
461.00,0.0193
460.00,0.0215
459.00,0.0235
458.00,0.0244
457.00,0.0240
456.00,0.0232
455.00,0.0224
454.00,0.0214
453.00,0.0199
452.00,0.0179
451.00,0.0160
450.00,0.0146
