Created as New Dataset,Sample 126 By Administrator Date Wednesday, September 03 2025
cm-1,A
4000.00,0.0010
3999.00,0.0010
3998.00,0.0010
3997.00,0.0011
3996.00,0.0011
3995.00,0.0011
3994.00,0.0011
3993.00,0.0011
3992.00,0.0011
3991.00,0.0010
3990.00,0.0010
3989.00,0.0010
3988.00,0.0010
3987.00,0.0011
3986.00,0.0011
3985.00,0.0011
3984.00,0.0010
3983.00,0.0010
3982.00,0.0010
3981.00,0.0009
3980.00,0.0009
3979.00,0.0009
3978.00,0.0009
3977.00,0.0009
3976.00,0.0008
3975.00,0.0008
3974.00,0.0008
3973.00,0.0008
3972.00,0.0008
3971.00,0.0008
3970.00,0.0009
3969.00,0.0009
3968.00,0.0010
3967.00,0.0010
3966.00,0.0010
3965.00,0.0009
3964.00,0.0009
3963.00,0.0009
3962.00,0.0008
3961.00,0.0008
3960.00,0.0008
3959.00,0.0008
3958.00,0.0008
3957.00,0.0008
3956.00,0.0008
3955.00,0.0008
3954.00,0.0008
3953.00,0.0009
3952.00,0.0008
3951.00,0.0008
3950.00,0.0008
3949.00,0.0008
3948.00,0.0008
3947.00,0.0009
3946.00,0.0009
3945.00,0.0008
3944.00,0.0008
3943.00,0.0008
3942.00,0.0008
3941.00,0.0008
3940.00,0.0009
3939.00,0.0009
3938.00,0.0009
3937.00,0.0009
3936.00,0.0009
3935.00,0.0009
3934.00,0.0009
3933.00,0.0009
3932.00,0.0009
3931.00,0.0009
3930.00,0.0009
3929.00,0.0009
3928.00,0.0009
3927.00,0.0010
3926.00,0.0010
3925.00,0.0010
3924.00,0.0009
3923.00,0.0009
3922.00,0.0008
3921.00,0.0008
3920.00,0.0008
3919.00,0.0008
3918.00,0.0008
3917.00,0.0009
3916.00,0.0009
3915.00,0.0009
3914.00,0.0009
3913.00,0.0009
3912.00,0.0008
3911.00,0.0008
3910.00,0.0008
3909.00,0.0008
3908.00,0.0008
3907.00,0.0008
3906.00,0.0007
3905.00,0.0007
3904.00,0.0007
3903.00,0.0007
3902.00,0.0007
3901.00,0.0007
3900.00,0.0007
3899.00,0.0008
3898.00,0.0008
3897.00,0.0008
3896.00,0.0008
3895.00,0.0008
3894.00,0.0009
3893.00,0.0009
3892.00,0.0009
3891.00,0.0008
3890.00,0.0008
3889.00,0.0008
3888.00,0.0008
3887.00,0.0008
3886.00,0.0008
3885.00,0.0007
3884.00,0.0007
3883.00,0.0007
3882.00,0.0007
3881.00,0.0008
3880.00,0.0008
3879.00,0.0008
3878.00,0.0008
3877.00,0.0008
3876.00,0.0009
3875.00,0.0009
3874.00,0.0008
3873.00,0.0008
3872.00,0.0007
3871.00,0.0007
3870.00,0.0007
3869.00,0.0007
3868.00,0.0007
3867.00,0.0006
3866.00,0.0006
3865.00,0.0006
3864.00,0.0006
3863.00,0.0006
3862.00,0.0006
3861.00,0.0007
3860.00,0.0007
3859.00,0.0007
3858.00,0.0007
3857.00,0.0007
3856.00,0.0007
3855.00,0.0007
3854.00,0.0006
3853.00,0.0005
3852.00,0.0005
3851.00,0.0005
3850.00,0.0005
3849.00,0.0005
3848.00,0.0006
3847.00,0.0006
3846.00,0.0006
3845.00,0.0007
3844.00,0.0007
3843.00,0.0007
3842.00,0.0007
3841.00,0.0007
3840.00,0.0007
3839.00,0.0007
3838.00,0.0007
3837.00,0.0007
3836.00,0.0007
3835.00,0.0007
3834.00,0.0007
3833.00,0.0007
3832.00,0.0007
3831.00,0.0007
3830.00,0.0007
3829.00,0.0007
3828.00,0.0007
3827.00,0.0007
3826.00,0.0007
3825.00,0.0007
3824.00,0.0007
3823.00,0.0007
3822.00,0.0007
3821.00,0.0007
3820.00,0.0006
3819.00,0.0006
3818.00,0.0006
3817.00,0.0006
3816.00,0.0006
3815.00,0.0006
3814.00,0.0006
3813.00,0.0007
3812.00,0.0007
3811.00,0.0007
3810.00,0.0007
3809.00,0.0007
3808.00,0.0007
3807.00,0.0007
3806.00,0.0007
3805.00,0.0006
3804.00,0.0006
3803.00,0.0005
3802.00,0.0005
3801.00,0.0005
3800.00,0.0006
3799.00,0.0007
3798.00,0.0007
3797.00,0.0007
3796.00,0.0008
3795.00,0.0007
3794.00,0.0007
3793.00,0.0007
3792.00,0.0007
3791.00,0.0007
3790.00,0.0007
3789.00,0.0007
3788.00,0.0007
3787.00,0.0007
3786.00,0.0008
3785.00,0.0008
3784.00,0.0008
3783.00,0.0008
3782.00,0.0008
3781.00,0.0008
3780.00,0.0008
3779.00,0.0008
3778.00,0.0008
3777.00,0.0007
3776.00,0.0007
3775.00,0.0007
3774.00,0.0007
3773.00,0.0007
3772.00,0.0007
3771.00,0.0007
3770.00,0.0007
3769.00,0.0007
3768.00,0.0007
3767.00,0.0007
3766.00,0.0008
3765.00,0.0008
3764.00,0.0008
3763.00,0.0008
3762.00,0.0008
3761.00,0.0008
3760.00,0.0008
3759.00,0.0008
3758.00,0.0008
3757.00,0.0007
3756.00,0.0007
3755.00,0.0006
3754.00,0.0005
3753.00,0.0004
3752.00,0.0004
3751.00,0.0004
3750.00,0.0004
3749.00,0.0005
3748.00,0.0005
3747.00,0.0005
3746.00,0.0005
3745.00,0.0006
3744.00,0.0006
3743.00,0.0006
3742.00,0.0006
3741.00,0.0006
3740.00,0.0005
3739.00,0.0005
3738.00,0.0004
3737.00,0.0004
3736.00,0.0004
3735.00,0.0004
3734.00,0.0004
3733.00,0.0005
3732.00,0.0005
3731.00,0.0006
3730.00,0.0006
3729.00,0.0006
3728.00,0.0006
3727.00,0.0006
3726.00,0.0006
3725.00,0.0006
3724.00,0.0007
3723.00,0.0007
3722.00,0.0007
3721.00,0.0007
3720.00,0.0007
3719.00,0.0007
3718.00,0.0007
3717.00,0.0006
3716.00,0.0006
3715.00,0.0006
3714.00,0.0005
3713.00,0.0006
3712.00,0.0006
3711.00,0.0006
3710.00,0.0006
3709.00,0.0006
3708.00,0.0006
3707.00,0.0006
3706.00,0.0006
3705.00,0.0006
3704.00,0.0006
3703.00,0.0006
3702.00,0.0007
3701.00,0.0007
3700.00,0.0007
3699.00,0.0007
3698.00,0.0007
3697.00,0.0007
3696.00,0.0007
3695.00,0.0007
3694.00,0.0007
3693.00,0.0007
3692.00,0.0007
3691.00,0.0006
3690.00,0.0005
3689.00,0.0004
3688.00,0.0004
3687.00,0.0005
3686.00,0.0005
3685.00,0.0006
3684.00,0.0006
3683.00,0.0006
3682.00,0.0007
3681.00,0.0007
3680.00,0.0008
3679.00,0.0008
3678.00,0.0008
3677.00,0.0008
3676.00,0.0007
3675.00,0.0006
3674.00,0.0006
3673.00,0.0005
3672.00,0.0005
3671.00,0.0005
3670.00,0.0006
3669.00,0.0006
3668.00,0.0007
3667.00,0.0007
3666.00,0.0007
3665.00,0.0007
3664.00,0.0007
3663.00,0.0007
3662.00,0.0007
3661.00,0.0007
3660.00,0.0006
3659.00,0.0006
3658.00,0.0006
3657.00,0.0006
3656.00,0.0006
3655.00,0.0006
3654.00,0.0006
3653.00,0.0006
3652.00,0.0006
3651.00,0.0006
3650.00,0.0006
3649.00,0.0007
3648.00,0.0007
3647.00,0.0007
3646.00,0.0007
3645.00,0.0007
3644.00,0.0007
3643.00,0.0007
3642.00,0.0007
3641.00,0.0007
3640.00,0.0007
3639.00,0.0007
3638.00,0.0007
3637.00,0.0007
3636.00,0.0007
3635.00,0.0007
3634.00,0.0007
3633.00,0.0007
3632.00,0.0007
3631.00,0.0007
3630.00,0.0007
3629.00,0.0007
3628.00,0.0007
3627.00,0.0006
3626.00,0.0006
3625.00,0.0006
3624.00,0.0006
3623.00,0.0006
3622.00,0.0006
3621.00,0.0006
3620.00,0.0006
3619.00,0.0006
3618.00,0.0007
3617.00,0.0007
3616.00,0.0007
3615.00,0.0007
3614.00,0.0007
3613.00,0.0007
3612.00,0.0007
3611.00,0.0007
3610.00,0.0007
3609.00,0.0008
3608.00,0.0008
3607.00,0.0008
3606.00,0.0009
3605.00,0.0009
3604.00,0.0009
3603.00,0.0009
3602.00,0.0008
3601.00,0.0008
3600.00,0.0008
3599.00,0.0008
3598.00,0.0008
3597.00,0.0008
3596.00,0.0008
3595.00,0.0008
3594.00,0.0008
3593.00,0.0008
3592.00,0.0009
3591.00,0.0009
3590.00,0.0010
3589.00,0.0010
3588.00,0.0009
3587.00,0.0008
3586.00,0.0008
3585.00,0.0008
3584.00,0.0008
3583.00,0.0008
3582.00,0.0009
3581.00,0.0009
3580.00,0.0010
3579.00,0.0010
3578.00,0.0011
3577.00,0.0011
3576.00,0.0011
3575.00,0.0012
3574.00,0.0012
3573.00,0.0012
3572.00,0.0011
3571.00,0.0011
3570.00,0.0011
3569.00,0.0012
3568.00,0.0012
3567.00,0.0012
3566.00,0.0012
3565.00,0.0012
3564.00,0.0012
3563.00,0.0012
3562.00,0.0012
3561.00,0.0012
3560.00,0.0013
3559.00,0.0013
3558.00,0.0013
3557.00,0.0013
3556.00,0.0014
3555.00,0.0014
3554.00,0.0014
3553.00,0.0014
3552.00,0.0014
3551.00,0.0014
3550.00,0.0015
3549.00,0.0015
3548.00,0.0015
3547.00,0.0016
3546.00,0.0016
3545.00,0.0016
3544.00,0.0016
3543.00,0.0016
3542.00,0.0016
3541.00,0.0016
3540.00,0.0017
3539.00,0.0017
3538.00,0.0017
3537.00,0.0017
3536.00,0.0018
3535.00,0.0018
3534.00,0.0018
3533.00,0.0018
3532.00,0.0018
3531.00,0.0018
3530.00,0.0018
3529.00,0.0018
3528.00,0.0018
3527.00,0.0018
3526.00,0.0018
3525.00,0.0018
3524.00,0.0018
3523.00,0.0019
3522.00,0.0019
3521.00,0.0019
3520.00,0.0019
3519.00,0.0019
3518.00,0.0020
3517.00,0.0020
3516.00,0.0020
3515.00,0.0020
3514.00,0.0020
3513.00,0.0020
3512.00,0.0020
3511.00,0.0020
3510.00,0.0021
3509.00,0.0021
3508.00,0.0021
3507.00,0.0021
3506.00,0.0021
3505.00,0.0021
3504.00,0.0020
3503.00,0.0020
3502.00,0.0020
3501.00,0.0021
3500.00,0.0021
3499.00,0.0022
3498.00,0.0022
3497.00,0.0022
3496.00,0.0022
3495.00,0.0022
3494.00,0.0022
3493.00,0.0023
3492.00,0.0023
3491.00,0.0023
3490.00,0.0023
3489.00,0.0024
3488.00,0.0024
3487.00,0.0024
3486.00,0.0025
3485.00,0.0025
3484.00,0.0025
3483.00,0.0025
3482.00,0.0026
3481.00,0.0026
3480.00,0.0026
3479.00,0.0026
3478.00,0.0025
3477.00,0.0025
3476.00,0.0026
3475.00,0.0026
3474.00,0.0026
3473.00,0.0026
3472.00,0.0026
3471.00,0.0026
3470.00,0.0027
3469.00,0.0027
3468.00,0.0027
3467.00,0.0027
3466.00,0.0027
3465.00,0.0027
3464.00,0.0027
3463.00,0.0027
3462.00,0.0027
3461.00,0.0028
3460.00,0.0028
3459.00,0.0028
3458.00,0.0029
3457.00,0.0029
3456.00,0.0029
3455.00,0.0029
3454.00,0.0029
3453.00,0.0029
3452.00,0.0030
3451.00,0.0030
3450.00,0.0031
3449.00,0.0031
3448.00,0.0031
3447.00,0.0031
3446.00,0.0031
3445.00,0.0031
3444.00,0.0031
3443.00,0.0032
3442.00,0.0032
3441.00,0.0032
3440.00,0.0032
3439.00,0.0032
3438.00,0.0032
3437.00,0.0033
3436.00,0.0033
3435.00,0.0033
3434.00,0.0033
3433.00,0.0032
3432.00,0.0032
3431.00,0.0032
3430.00,0.0032
3429.00,0.0033
3428.00,0.0033
3427.00,0.0034
3426.00,0.0034
3425.00,0.0035
3424.00,0.0035
3423.00,0.0035
3422.00,0.0034
3421.00,0.0034
3420.00,0.0034
3419.00,0.0035
3418.00,0.0036
3417.00,0.0036
3416.00,0.0036
3415.00,0.0036
3414.00,0.0036
3413.00,0.0036
3412.00,0.0036
3411.00,0.0036
3410.00,0.0036
3409.00,0.0036
3408.00,0.0036
3407.00,0.0036
3406.00,0.0036
3405.00,0.0036
3404.00,0.0037
3403.00,0.0037
3402.00,0.0037
3401.00,0.0037
3400.00,0.0037
3399.00,0.0037
3398.00,0.0037
3397.00,0.0037
3396.00,0.0037
3395.00,0.0037
3394.00,0.0037
3393.00,0.0037
3392.00,0.0037
3391.00,0.0038
3390.00,0.0038
3389.00,0.0039
3388.00,0.0039
3387.00,0.0039
3386.00,0.0038
3385.00,0.0038
3384.00,0.0038
3383.00,0.0038
3382.00,0.0038
3381.00,0.0039
3380.00,0.0039
3379.00,0.0039
3378.00,0.0039
3377.00,0.0039
3376.00,0.0039
3375.00,0.0039
3374.00,0.0039
3373.00,0.0039
3372.00,0.0039
3371.00,0.0039
3370.00,0.0039
3369.00,0.0039
3368.00,0.0038
3367.00,0.0038
3366.00,0.0038
3365.00,0.0039
3364.00,0.0039
3363.00,0.0039
3362.00,0.0039
3361.00,0.0039
3360.00,0.0039
3359.00,0.0040
3358.00,0.0040
3357.00,0.0040
3356.00,0.0041
3355.00,0.0041
3354.00,0.0041
3353.00,0.0041
3352.00,0.0041
3351.00,0.0041
3350.00,0.0040
3349.00,0.0040
3348.00,0.0041
3347.00,0.0041
3346.00,0.0042
3345.00,0.0042
3344.00,0.0042
3343.00,0.0042
3342.00,0.0042
3341.00,0.0042
3340.00,0.0042
3339.00,0.0042
3338.00,0.0042
3337.00,0.0042
3336.00,0.0042
3335.00,0.0041
3334.00,0.0041
3333.00,0.0041
3332.00,0.0041
3331.00,0.0041
3330.00,0.0040
3329.00,0.0040
3328.00,0.0040
3327.00,0.0040
3326.00,0.0040
3325.00,0.0040
3324.00,0.0040
3323.00,0.0040
3322.00,0.0040
3321.00,0.0040
3320.00,0.0040
3319.00,0.0040
3318.00,0.0040
3317.00,0.0040
3316.00,0.0040
3315.00,0.0040
3314.00,0.0041
3313.00,0.0041
3312.00,0.0041
3311.00,0.0041
3310.00,0.0041
3309.00,0.0041
3308.00,0.0042
3307.00,0.0042
3306.00,0.0043
3305.00,0.0043
3304.00,0.0043
3303.00,0.0043
3302.00,0.0043
3301.00,0.0043
3300.00,0.0043
3299.00,0.0042
3298.00,0.0042
3297.00,0.0042
3296.00,0.0041
3295.00,0.0041
3294.00,0.0041
3293.00,0.0041
3292.00,0.0041
3291.00,0.0041
3290.00,0.0040
3289.00,0.0040
3288.00,0.0040
3287.00,0.0039
3286.00,0.0039
3285.00,0.0039
3284.00,0.0039
3283.00,0.0039
3282.00,0.0039
3281.00,0.0039
3280.00,0.0039
3279.00,0.0039
3278.00,0.0039
3277.00,0.0039
3276.00,0.0039
3275.00,0.0039
3274.00,0.0038
3273.00,0.0038
3272.00,0.0038
3271.00,0.0038
3270.00,0.0038
3269.00,0.0038
3268.00,0.0038
3267.00,0.0038
3266.00,0.0037
3265.00,0.0037
3264.00,0.0037
3263.00,0.0036
3262.00,0.0036
3261.00,0.0036
3260.00,0.0036
3259.00,0.0036
3258.00,0.0036
3257.00,0.0036
3256.00,0.0036
3255.00,0.0035
3254.00,0.0035
3253.00,0.0035
3252.00,0.0035
3251.00,0.0035
3250.00,0.0035
3249.00,0.0035
3248.00,0.0035
3247.00,0.0035
3246.00,0.0035
3245.00,0.0035
3244.00,0.0035
3243.00,0.0035
3242.00,0.0035
3241.00,0.0036
3240.00,0.0036
3239.00,0.0036
3238.00,0.0036
3237.00,0.0036
3236.00,0.0036
3235.00,0.0036
3234.00,0.0035
3233.00,0.0035
3232.00,0.0035
3231.00,0.0035
3230.00,0.0036
3229.00,0.0036
3228.00,0.0036
3227.00,0.0036
3226.00,0.0036
3225.00,0.0036
3224.00,0.0036
3223.00,0.0036
3222.00,0.0036
3221.00,0.0037
3220.00,0.0037
3219.00,0.0037
3218.00,0.0037
3217.00,0.0037
3216.00,0.0036
3215.00,0.0036
3214.00,0.0037
3213.00,0.0037
3212.00,0.0038
3211.00,0.0038
3210.00,0.0039
3209.00,0.0039
3208.00,0.0039
3207.00,0.0039
3206.00,0.0039
3205.00,0.0039
3204.00,0.0039
3203.00,0.0039
3202.00,0.0039
3201.00,0.0039
3200.00,0.0039
3199.00,0.0039
3198.00,0.0040
3197.00,0.0040
3196.00,0.0040
3195.00,0.0039
3194.00,0.0039
3193.00,0.0039
3192.00,0.0039
3191.00,0.0039
3190.00,0.0038
3189.00,0.0038
3188.00,0.0038
3187.00,0.0037
3186.00,0.0037
3185.00,0.0037
3184.00,0.0037
3183.00,0.0037
3182.00,0.0037
3181.00,0.0037
3180.00,0.0036
3179.00,0.0036
3178.00,0.0036
3177.00,0.0036
3176.00,0.0036
3175.00,0.0036
3174.00,0.0036
3173.00,0.0036
3172.00,0.0035
3171.00,0.0035
3170.00,0.0035
3169.00,0.0035
3168.00,0.0035
3167.00,0.0035
3166.00,0.0035
3165.00,0.0035
3164.00,0.0035
3163.00,0.0035
3162.00,0.0035
3161.00,0.0035
3160.00,0.0035
3159.00,0.0035
3158.00,0.0035
3157.00,0.0035
3156.00,0.0034
3155.00,0.0034
3154.00,0.0034
3153.00,0.0034
3152.00,0.0034
3151.00,0.0035
3150.00,0.0034
3149.00,0.0034
3148.00,0.0034
3147.00,0.0034
3146.00,0.0034
3145.00,0.0034
3144.00,0.0034
3143.00,0.0035
3142.00,0.0035
3141.00,0.0034
3140.00,0.0034
3139.00,0.0034
3138.00,0.0033
3137.00,0.0033
3136.00,0.0033
3135.00,0.0033
3134.00,0.0033
3133.00,0.0032
3132.00,0.0032
3131.00,0.0031
3130.00,0.0031
3129.00,0.0031
3128.00,0.0031
3127.00,0.0031
3126.00,0.0032
3125.00,0.0032
3124.00,0.0031
3123.00,0.0031
3122.00,0.0030
3121.00,0.0030
3120.00,0.0030
3119.00,0.0030
3118.00,0.0030
3117.00,0.0030
3116.00,0.0030
3115.00,0.0030
3114.00,0.0030
3113.00,0.0031
3112.00,0.0030
3111.00,0.0030
3110.00,0.0030
3109.00,0.0029
3108.00,0.0029
3107.00,0.0029
3106.00,0.0029
3105.00,0.0029
3104.00,0.0029
3103.00,0.0029
3102.00,0.0028
3101.00,0.0028
3100.00,0.0029
3099.00,0.0029
3098.00,0.0029
3097.00,0.0029
3096.00,0.0029
3095.00,0.0029
3094.00,0.0029
3093.00,0.0029
3092.00,0.0029
3091.00,0.0029
3090.00,0.0029
3089.00,0.0029
3088.00,0.0029
3087.00,0.0029
3086.00,0.0029
3085.00,0.0029
3084.00,0.0028
3083.00,0.0028
3082.00,0.0028
3081.00,0.0029
3080.00,0.0029
3079.00,0.0029
3078.00,0.0029
3077.00,0.0030
3076.00,0.0030
3075.00,0.0030
3074.00,0.0030
3073.00,0.0030
3072.00,0.0030
3071.00,0.0030
3070.00,0.0030
3069.00,0.0030
3068.00,0.0031
3067.00,0.0031
3066.00,0.0031
3065.00,0.0031
3064.00,0.0032
3063.00,0.0032
3062.00,0.0032
3061.00,0.0032
3060.00,0.0032
3059.00,0.0032
3058.00,0.0032
3057.00,0.0032
3056.00,0.0033
3055.00,0.0032
3054.00,0.0032
3053.00,0.0033
3052.00,0.0033
3051.00,0.0033
3050.00,0.0034
3049.00,0.0034
3048.00,0.0034
3047.00,0.0034
3046.00,0.0034
3045.00,0.0034
3044.00,0.0035
3043.00,0.0035
3042.00,0.0035
3041.00,0.0035
3040.00,0.0036
3039.00,0.0037
3038.00,0.0037
3037.00,0.0037
3036.00,0.0038
3035.00,0.0038
3034.00,0.0038
3033.00,0.0038
3032.00,0.0038
3031.00,0.0039
3030.00,0.0039
3029.00,0.0040
3028.00,0.0040
3027.00,0.0040
3026.00,0.0041
3025.00,0.0042
3024.00,0.0042
3023.00,0.0042
3022.00,0.0043
3021.00,0.0043
3020.00,0.0044
3019.00,0.0045
3018.00,0.0047
3017.00,0.0048
3016.00,0.0049
3015.00,0.0050
3014.00,0.0051
3013.00,0.0052
3012.00,0.0054
3011.00,0.0055
3010.00,0.0057
3009.00,0.0059
3008.00,0.0061
3007.00,0.0062
3006.00,0.0064
3005.00,0.0066
3004.00,0.0068
3003.00,0.0071
3002.00,0.0073
3001.00,0.0076
3000.00,0.0079
2999.00,0.0082
2998.00,0.0086
2997.00,0.0089
2996.00,0.0092
2995.00,0.0096
2994.00,0.0100
2993.00,0.0104
2992.00,0.0109
2991.00,0.0114
2990.00,0.0120
2989.00,0.0127
2988.00,0.0134
2987.00,0.0143
2986.00,0.0153
2985.00,0.0164
2984.00,0.0176
2983.00,0.0190
2982.00,0.0204
2981.00,0.0220
2980.00,0.0238
2979.00,0.0258
2978.00,0.0281
2977.00,0.0308
2976.00,0.0338
2975.00,0.0373
2974.00,0.0412
2973.00,0.0457
2972.00,0.0507
2971.00,0.0562
2970.00,0.0624
2969.00,0.0691
2968.00,0.0763
2967.00,0.0839
2966.00,0.0917
2965.00,0.0994
2964.00,0.1069
2963.00,0.1136
2962.00,0.1195
2961.00,0.1244
2960.00,0.1286
2959.00,0.1325
2958.00,0.1367
2957.00,0.1418
2956.00,0.1482
2955.00,0.1559
2954.00,0.1647
2953.00,0.1738
2952.00,0.1822
2951.00,0.1885
2950.00,0.1914
2949.00,0.1901
2948.00,0.1844
2947.00,0.1748
2946.00,0.1627
2945.00,0.1496
2944.00,0.1371
2943.00,0.1263
2942.00,0.1178
2941.00,0.1119
2940.00,0.1086
2939.00,0.1076
2938.00,0.1087
2937.00,0.1116
2936.00,0.1163
2935.00,0.1225
2934.00,0.1302
2933.00,0.1392
2932.00,0.1493
2931.00,0.1605
2930.00,0.1724
2929.00,0.1848
2928.00,0.1972
2927.00,0.2095
2926.00,0.2216
2925.00,0.2333
2924.00,0.2449
2923.00,0.2565
2922.00,0.2681
2921.00,0.2793
2920.00,0.2894
2919.00,0.2972
2918.00,0.3014
2917.00,0.3009
2916.00,0.2956
2915.00,0.2862
2914.00,0.2742
2913.00,0.2610
2912.00,0.2480
2911.00,0.2359
2910.00,0.2250
2909.00,0.2153
2908.00,0.2065
2907.00,0.1983
2906.00,0.1905
2905.00,0.1828
2904.00,0.1752
2903.00,0.1678
2902.00,0.1607
2901.00,0.1538
2900.00,0.1473
2899.00,0.1412
2898.00,0.1355
2897.00,0.1303
2896.00,0.1256
2895.00,0.1216
2894.00,0.1182
2893.00,0.1154
2892.00,0.1131
2891.00,0.1115
2890.00,0.1103
2889.00,0.1097
2888.00,0.1094
2887.00,0.1095
2886.00,0.1099
2885.00,0.1107
2884.00,0.1119
2883.00,0.1136
2882.00,0.1158
2881.00,0.1184
2880.00,0.1210
2879.00,0.1232
2878.00,0.1246
2877.00,0.1251
2876.00,0.1248
2875.00,0.1241
2874.00,0.1235
2873.00,0.1235
2872.00,0.1243
2871.00,0.1258
2870.00,0.1278
2869.00,0.1299
2868.00,0.1313
2867.00,0.1310
2866.00,0.1286
2865.00,0.1237
2864.00,0.1167
2863.00,0.1086
2862.00,0.1005
2861.00,0.0933
2860.00,0.0877
2859.00,0.0838
2858.00,0.0815
2857.00,0.0805
2856.00,0.0806
2855.00,0.0815
2854.00,0.0830
2853.00,0.0849
2852.00,0.0869
2851.00,0.0887
2850.00,0.0900
2849.00,0.0910
2848.00,0.0918
2847.00,0.0929
2846.00,0.0948
2845.00,0.0977
2844.00,0.1017
2843.00,0.1065
2842.00,0.1116
2841.00,0.1164
2840.00,0.1202
2839.00,0.1221
2838.00,0.1214
2837.00,0.1178
2836.00,0.1112
2835.00,0.1023
2834.00,0.0920
2833.00,0.0814
2832.00,0.0712
2831.00,0.0623
2830.00,0.0547
2829.00,0.0484
2828.00,0.0433
2827.00,0.0392
2826.00,0.0359
2825.00,0.0332
2824.00,0.0309
2823.00,0.0290
2822.00,0.0273
2821.00,0.0259
2820.00,0.0246
2819.00,0.0236
2818.00,0.0226
2817.00,0.0218
2816.00,0.0211
2815.00,0.0205
2814.00,0.0198
2813.00,0.0192
2812.00,0.0186
2811.00,0.0180
2810.00,0.0174
2809.00,0.0168
2808.00,0.0163
2807.00,0.0157
2806.00,0.0150
2805.00,0.0144
2804.00,0.0137
2803.00,0.0131
2802.00,0.0126
2801.00,0.0121
2800.00,0.0117
2799.00,0.0114
2798.00,0.0111
2797.00,0.0109
2796.00,0.0106
2795.00,0.0104
2794.00,0.0102
2793.00,0.0099
2792.00,0.0096
2791.00,0.0093
2790.00,0.0090
2789.00,0.0087
2788.00,0.0084
2787.00,0.0081
2786.00,0.0079
2785.00,0.0077
2784.00,0.0075
2783.00,0.0073
2782.00,0.0071
2781.00,0.0069
2780.00,0.0067
2779.00,0.0066
2778.00,0.0064
2777.00,0.0063
2776.00,0.0062
2775.00,0.0061
2774.00,0.0060
2773.00,0.0059
2772.00,0.0058
2771.00,0.0057
2770.00,0.0057
2769.00,0.0057
2768.00,0.0057
2767.00,0.0057
2766.00,0.0056
2765.00,0.0056
2764.00,0.0056
2763.00,0.0056
2762.00,0.0055
2761.00,0.0055
2760.00,0.0054
2759.00,0.0053
2758.00,0.0053
2757.00,0.0054
2756.00,0.0054
2755.00,0.0054
2754.00,0.0054
2753.00,0.0053
2752.00,0.0053
2751.00,0.0053
2750.00,0.0052
2749.00,0.0052
2748.00,0.0052
2747.00,0.0053
2746.00,0.0053
2745.00,0.0053
2744.00,0.0054
2743.00,0.0054
2742.00,0.0055
2741.00,0.0056
2740.00,0.0058
2739.00,0.0059
2738.00,0.0060
2737.00,0.0062
2736.00,0.0063
2735.00,0.0065
2734.00,0.0067
2733.00,0.0069
2732.00,0.0070
2731.00,0.0073
2730.00,0.0075
2729.00,0.0077
2728.00,0.0080
2727.00,0.0082
2726.00,0.0085
2725.00,0.0087
2724.00,0.0089
2723.00,0.0090
2722.00,0.0089
2721.00,0.0087
2720.00,0.0084
2719.00,0.0081
2718.00,0.0078
2717.00,0.0075
2716.00,0.0072
2715.00,0.0069
2714.00,0.0066
2713.00,0.0064
2712.00,0.0062
2711.00,0.0060
2710.00,0.0059
2709.00,0.0057
2708.00,0.0055
2707.00,0.0054
2706.00,0.0052
2705.00,0.0051
2704.00,0.0050
2703.00,0.0049
2702.00,0.0048
2701.00,0.0048
2700.00,0.0047
2699.00,0.0046
2698.00,0.0046
2697.00,0.0046
2696.00,0.0045
2695.00,0.0045
2694.00,0.0045
2693.00,0.0045
2692.00,0.0045
2691.00,0.0046
2690.00,0.0045
2689.00,0.0045
2688.00,0.0045
2687.00,0.0045
2686.00,0.0045
2685.00,0.0046
2684.00,0.0046
2683.00,0.0046
2682.00,0.0046
2681.00,0.0046
2680.00,0.0046
2679.00,0.0046
2678.00,0.0046
2677.00,0.0046
2676.00,0.0046
2675.00,0.0046
2674.00,0.0046
2673.00,0.0046
2672.00,0.0046
2671.00,0.0046
2670.00,0.0046
2669.00,0.0046
2668.00,0.0045
2667.00,0.0046
2666.00,0.0046
2665.00,0.0047
2664.00,0.0047
2663.00,0.0048
2662.00,0.0048
2661.00,0.0048
2660.00,0.0048
2659.00,0.0048
2658.00,0.0048
2657.00,0.0048
2656.00,0.0047
2655.00,0.0047
2654.00,0.0047
2653.00,0.0046
2652.00,0.0046
2651.00,0.0045
2650.00,0.0045
2649.00,0.0045
2648.00,0.0044
2647.00,0.0043
2646.00,0.0043
2645.00,0.0042
2644.00,0.0042
2643.00,0.0042
2642.00,0.0041
2641.00,0.0041
2640.00,0.0040
2639.00,0.0040
2638.00,0.0040
2637.00,0.0039
2636.00,0.0039
2635.00,0.0039
2634.00,0.0039
2633.00,0.0039
2632.00,0.0039
2631.00,0.0039
2630.00,0.0040
2629.00,0.0040
2628.00,0.0040
2627.00,0.0040
2626.00,0.0040
2625.00,0.0040
2624.00,0.0040
2623.00,0.0040
2622.00,0.0039
2621.00,0.0039
2620.00,0.0039
2619.00,0.0039
2618.00,0.0039
2617.00,0.0039
2616.00,0.0039
2615.00,0.0039
2614.00,0.0040
2613.00,0.0039
2612.00,0.0039
2611.00,0.0039
2610.00,0.0039
2609.00,0.0039
2608.00,0.0038
2607.00,0.0037
2606.00,0.0036
2605.00,0.0035
2604.00,0.0034
2603.00,0.0034
2602.00,0.0034
2601.00,0.0034
2600.00,0.0034
2599.00,0.0034
2598.00,0.0033
2597.00,0.0033
2596.00,0.0033
2595.00,0.0033
2594.00,0.0033
2593.00,0.0034
2592.00,0.0034
2591.00,0.0035
2590.00,0.0036
2589.00,0.0037
2588.00,0.0038
2587.00,0.0038
2586.00,0.0039
2585.00,0.0040
2584.00,0.0041
2583.00,0.0041
2582.00,0.0041
2581.00,0.0041
2580.00,0.0040
2579.00,0.0039
2578.00,0.0037
2577.00,0.0036
2576.00,0.0034
2575.00,0.0033
2574.00,0.0032
2573.00,0.0031
2572.00,0.0030
2571.00,0.0029
2570.00,0.0029
2569.00,0.0028
2568.00,0.0027
2567.00,0.0026
2566.00,0.0025
2565.00,0.0025
2564.00,0.0024
2563.00,0.0024
2562.00,0.0024
2561.00,0.0024
2560.00,0.0024
2559.00,0.0024
2558.00,0.0024
2557.00,0.0023
2556.00,0.0023
2555.00,0.0023
2554.00,0.0024
2553.00,0.0024
2552.00,0.0023
2551.00,0.0022
2550.00,0.0021
2549.00,0.0021
2548.00,0.0020
2547.00,0.0020
2546.00,0.0020
2545.00,0.0019
2544.00,0.0018
2543.00,0.0018
2542.00,0.0018
2541.00,0.0018
2540.00,0.0018
2539.00,0.0018
2538.00,0.0017
2537.00,0.0017
2536.00,0.0017
2535.00,0.0017
2534.00,0.0017
2533.00,0.0017
2532.00,0.0017
2531.00,0.0016
2530.00,0.0015
2529.00,0.0015
2528.00,0.0015
2527.00,0.0015
2526.00,0.0015
2525.00,0.0015
2524.00,0.0015
2523.00,0.0015
2522.00,0.0015
2521.00,0.0014
2520.00,0.0014
2519.00,0.0013
2518.00,0.0013
2517.00,0.0012
2516.00,0.0012
2515.00,0.0012
2514.00,0.0011
2513.00,0.0011
2512.00,0.0011
2511.00,0.0011
2510.00,0.0011
2509.00,0.0011
2508.00,0.0011
2507.00,0.0011
2506.00,0.0011
2505.00,0.0010
2504.00,0.0010
2503.00,0.0010
2502.00,0.0010
2501.00,0.0011
2500.00,0.0011
2499.00,0.0011
2498.00,0.0011
2497.00,0.0011
2496.00,0.0012
2495.00,0.0012
2494.00,0.0011
2493.00,0.0011
2492.00,0.0010
2491.00,0.0010
2490.00,0.0010
2489.00,0.0010
2488.00,0.0010
2487.00,0.0010
2486.00,0.0010
2485.00,0.0010
2484.00,0.0011
2483.00,0.0011
2482.00,0.0011
2481.00,0.0011
2480.00,0.0011
2479.00,0.0011
2478.00,0.0011
2477.00,0.0011
2476.00,0.0012
2475.00,0.0012
2474.00,0.0012
2473.00,0.0012
2472.00,0.0011
2471.00,0.0011
2470.00,0.0011
2469.00,0.0011
2468.00,0.0010
2467.00,0.0010
2466.00,0.0010
2465.00,0.0010
2464.00,0.0010
2463.00,0.0010
2462.00,0.0010
2461.00,0.0011
2460.00,0.0011
2459.00,0.0011
2458.00,0.0011
2457.00,0.0011
2456.00,0.0011
2455.00,0.0011
2454.00,0.0011
2453.00,0.0011
2452.00,0.0011
2451.00,0.0012
2450.00,0.0012
2449.00,0.0012
2448.00,0.0012
2447.00,0.0012
2446.00,0.0012
2445.00,0.0011
2444.00,0.0011
2443.00,0.0011
2442.00,0.0011
2441.00,0.0011
2440.00,0.0011
2439.00,0.0011
2438.00,0.0011
2437.00,0.0012
2436.00,0.0012
2435.00,0.0012
2434.00,0.0012
2433.00,0.0012
2432.00,0.0012
2431.00,0.0013
2430.00,0.0013
2429.00,0.0013
2428.00,0.0012
2427.00,0.0012
2426.00,0.0012
2425.00,0.0012
2424.00,0.0013
2423.00,0.0012
2422.00,0.0012
2421.00,0.0011
2420.00,0.0011
2419.00,0.0011
2418.00,0.0011
2417.00,0.0011
2416.00,0.0011
2415.00,0.0011
2414.00,0.0011
2413.00,0.0010
2412.00,0.0010
2411.00,0.0010
2410.00,0.0011
2409.00,0.0011
2408.00,0.0010
2407.00,0.0010
2406.00,0.0009
2405.00,0.0009
2404.00,0.0010
2403.00,0.0010
2402.00,0.0010
2401.00,0.0010
2400.00,0.0010
2399.00,0.0009
2398.00,0.0009
2397.00,0.0008
2396.00,0.0008
2395.00,0.0009
2394.00,0.0009
2393.00,0.0009
2392.00,0.0009
2391.00,0.0008
2390.00,0.0008
2389.00,0.0008
2388.00,0.0008
2387.00,0.0008
2386.00,0.0008
2385.00,0.0008
2384.00,0.0007
2383.00,0.0006
2382.00,0.0006
2381.00,0.0005
2380.00,0.0005
2379.00,0.0005
2378.00,0.0005
2377.00,0.0006
2376.00,0.0006
2375.00,0.0007
2374.00,0.0007
2373.00,0.0007
2372.00,0.0007
2371.00,0.0007
2370.00,0.0007
2369.00,0.0007
2368.00,0.0007
2367.00,0.0007
2366.00,0.0007
2365.00,0.0007
2364.00,0.0008
2363.00,0.0008
2362.00,0.0007
2361.00,0.0007
2360.00,0.0007
2359.00,0.0008
2358.00,0.0008
2357.00,0.0009
2356.00,0.0008
2355.00,0.0008
2354.00,0.0008
2353.00,0.0007
2352.00,0.0007
2351.00,0.0006
2350.00,0.0007
2349.00,0.0008
2348.00,0.0010
2347.00,0.0010
2346.00,0.0010
2345.00,0.0009
2344.00,0.0009
2343.00,0.0010
2342.00,0.0011
2341.00,0.0011
2340.00,0.0011
2339.00,0.0010
2338.00,0.0010
2337.00,0.0009
2336.00,0.0009
2335.00,0.0010
2334.00,0.0011
2333.00,0.0010
2332.00,0.0009
2331.00,0.0008
2330.00,0.0007
2329.00,0.0008
2328.00,0.0010
2327.00,0.0012
2326.00,0.0015
2325.00,0.0018
2324.00,0.0018
2323.00,0.0017
2322.00,0.0015
2321.00,0.0014
2320.00,0.0013
2319.00,0.0013
2318.00,0.0013
2317.00,0.0013
2316.00,0.0012
2315.00,0.0012
2314.00,0.0012
2313.00,0.0012
2312.00,0.0012
2311.00,0.0011
2310.00,0.0010
2309.00,0.0009
2308.00,0.0009
2307.00,0.0009
2306.00,0.0009
2305.00,0.0009
2304.00,0.0010
2303.00,0.0010
2302.00,0.0011
2301.00,0.0011
2300.00,0.0012
2299.00,0.0012
2298.00,0.0013
2297.00,0.0013
2296.00,0.0013
2295.00,0.0013
2294.00,0.0014
2293.00,0.0015
2292.00,0.0016
2291.00,0.0017
2290.00,0.0017
2289.00,0.0017
2288.00,0.0018
2287.00,0.0018
2286.00,0.0018
2285.00,0.0018
2284.00,0.0017
2283.00,0.0017
2282.00,0.0017
2281.00,0.0017
2280.00,0.0016
2279.00,0.0015
2278.00,0.0013
2277.00,0.0013
2276.00,0.0012
2275.00,0.0012
2274.00,0.0012
2273.00,0.0013
2272.00,0.0012
2271.00,0.0012
2270.00,0.0012
2269.00,0.0012
2268.00,0.0013
2267.00,0.0014
2266.00,0.0014
2265.00,0.0014
2264.00,0.0013
2263.00,0.0012
2262.00,0.0012
2261.00,0.0013
2260.00,0.0014
2259.00,0.0015
2258.00,0.0015
2257.00,0.0015
2256.00,0.0014
2255.00,0.0012
2254.00,0.0011
2253.00,0.0010
2252.00,0.0010
2251.00,0.0010
2250.00,0.0011
2249.00,0.0012
2248.00,0.0012
2247.00,0.0012
2246.00,0.0011
2245.00,0.0011
2244.00,0.0011
2243.00,0.0010
2242.00,0.0010
2241.00,0.0010
2240.00,0.0009
2239.00,0.0007
2238.00,0.0006
2237.00,0.0006
2236.00,0.0006
2235.00,0.0007
2234.00,0.0006
2233.00,0.0006
2232.00,0.0005
2231.00,0.0004
2230.00,0.0003
2229.00,0.0003
2228.00,0.0004
2227.00,0.0006
2226.00,0.0008
2225.00,0.0010
2224.00,0.0011
2223.00,0.0011
2222.00,0.0011
2221.00,0.0011
2220.00,0.0011
2219.00,0.0009
2218.00,0.0006
2217.00,0.0005
2216.00,0.0004
2215.00,0.0004
2214.00,0.0004
2213.00,0.0005
2212.00,0.0006
2211.00,0.0005
2210.00,0.0004
2209.00,0.0004
2208.00,0.0006
2207.00,0.0008
2206.00,0.0010
2205.00,0.0010
2204.00,0.0009
2203.00,0.0006
2202.00,0.0005
2201.00,0.0006
2200.00,0.0008
2199.00,0.0009
2198.00,0.0009
2197.00,0.0009
2196.00,0.0009
2195.00,0.0008
2194.00,0.0008
2193.00,0.0008
2192.00,0.0009
2191.00,0.0011
2190.00,0.0012
2189.00,0.0013
2188.00,0.0015
2187.00,0.0017
2186.00,0.0017
2185.00,0.0014
2184.00,0.0010
2183.00,0.0005
2182.00,0.0002
2181.00,0.0002
2180.00,0.0006
2179.00,0.0010
2178.00,0.0012
2177.00,0.0011
2176.00,0.0008
2175.00,0.0005
2174.00,0.0004
2173.00,0.0005
2172.00,0.0007
2171.00,0.0009
2170.00,0.0010
2169.00,0.0012
2168.00,0.0013
2167.00,0.0015
2166.00,0.0016
2165.00,0.0016
2164.00,0.0016
2163.00,0.0015
2162.00,0.0015
2161.00,0.0012
2160.00,0.0004
2159.00,-0.0010
2158.00,-0.0024
2157.00,-0.0030
2156.00,-0.0029
2155.00,-0.0024
2154.00,-0.0019
2153.00,-0.0016
2152.00,-0.0014
2151.00,-0.0012
2150.00,-0.0011
2149.00,-0.0012
2148.00,-0.0013
2147.00,-0.0013
2146.00,-0.0012
2145.00,-0.0012
2144.00,-0.0011
2143.00,-0.0011
2142.00,-0.0010
2141.00,-0.0009
2140.00,-0.0008
2139.00,-0.0006
2138.00,-0.0006
2137.00,-0.0006
2136.00,-0.0007
2135.00,-0.0010
2134.00,-0.0012
2133.00,-0.0013
2132.00,-0.0013
2131.00,-0.0013
2130.00,-0.0012
2129.00,-0.0011
2128.00,-0.0009
2127.00,-0.0008
2126.00,-0.0006
2125.00,-0.0005
2124.00,-0.0003
2123.00,-0.0002
2122.00,-0.0002
2121.00,-0.0002
2120.00,-0.0002
2119.00,-0.0002
2118.00,-0.0001
2117.00,0.0000
2116.00,0.0002
2115.00,0.0003
2114.00,0.0003
2113.00,0.0002
2112.00,0.0001
2111.00,0.0001
2110.00,0.0001
2109.00,0.0001
2108.00,0.0000
2107.00,-0.0000
2106.00,-0.0001
2105.00,0.0000
2104.00,0.0001
2103.00,0.0001
2102.00,-0.0000
2101.00,-0.0001
2100.00,0.0000
2099.00,0.0002
2098.00,0.0002
2097.00,0.0002
2096.00,0.0001
2095.00,-0.0000
2094.00,-0.0001
2093.00,-0.0002
2092.00,-0.0002
2091.00,-0.0002
2090.00,-0.0001
2089.00,0.0001
2088.00,0.0004
2087.00,0.0006
2086.00,0.0007
2085.00,0.0007
2084.00,0.0006
2083.00,0.0006
2082.00,0.0005
2081.00,0.0004
2080.00,0.0003
2079.00,0.0003
2078.00,0.0003
2077.00,0.0004
2076.00,0.0005
2075.00,0.0004
2074.00,0.0003
2073.00,0.0003
2072.00,0.0002
2071.00,0.0002
2070.00,0.0002
2069.00,0.0002
2068.00,0.0003
2067.00,0.0002
2066.00,-0.0000
2065.00,-0.0002
2064.00,-0.0002
2063.00,-0.0001
2062.00,0.0000
2061.00,0.0001
2060.00,0.0001
2059.00,0.0001
2058.00,0.0003
2057.00,0.0005
2056.00,0.0007
2055.00,0.0007
2054.00,0.0007
2053.00,0.0008
2052.00,0.0011
2051.00,0.0012
2050.00,0.0012
2049.00,0.0010
2048.00,0.0007
2047.00,0.0004
2046.00,0.0002
2045.00,0.0001
2044.00,0.0002
2043.00,0.0002
2042.00,0.0001
2041.00,-0.0001
2040.00,-0.0002
2039.00,-0.0002
2038.00,-0.0002
2037.00,-0.0003
2036.00,-0.0003
2035.00,-0.0004
2034.00,-0.0005
2033.00,-0.0007
2032.00,-0.0008
2031.00,-0.0009
2030.00,-0.0008
2029.00,-0.0008
2028.00,-0.0007
2027.00,-0.0007
2026.00,-0.0008
2025.00,-0.0008
2024.00,-0.0009
2023.00,-0.0008
2022.00,-0.0007
2021.00,-0.0004
2020.00,-0.0002
2019.00,-0.0001
2018.00,-0.0002
2017.00,-0.0004
2016.00,-0.0007
2015.00,-0.0008
2014.00,-0.0007
2013.00,-0.0004
2012.00,-0.0002
2011.00,-0.0001
2010.00,-0.0002
2009.00,-0.0004
2008.00,-0.0008
2007.00,-0.0013
2006.00,-0.0017
2005.00,-0.0018
2004.00,-0.0018
2003.00,-0.0016
2002.00,-0.0015
2001.00,-0.0012
2000.00,-0.0009
1999.00,-0.0007
1998.00,-0.0005
1997.00,-0.0005
1996.00,-0.0006
1995.00,-0.0007
1994.00,-0.0008
1993.00,-0.0007
1992.00,-0.0005
1991.00,-0.0002
1990.00,0.0001
1989.00,0.0002
1988.00,0.0002
1987.00,0.0002
1986.00,0.0003
1985.00,0.0004
1984.00,0.0007
1983.00,0.0008
1982.00,0.0009
1981.00,0.0008
1980.00,0.0006
1979.00,0.0002
1978.00,-0.0003
1977.00,-0.0007
1976.00,-0.0009
1975.00,-0.0009
1974.00,-0.0009
1973.00,-0.0009
1972.00,-0.0010
1971.00,-0.0011
1970.00,-0.0011
1969.00,-0.0011
1968.00,-0.0010
1967.00,-0.0009
1966.00,-0.0007
1965.00,-0.0004
1964.00,-0.0003
1963.00,-0.0003
1962.00,-0.0007
1961.00,-0.0011
1960.00,-0.0014
1959.00,-0.0015
1958.00,-0.0014
1957.00,-0.0012
1956.00,-0.0010
1955.00,-0.0010
1954.00,-0.0011
1953.00,-0.0013
1952.00,-0.0013
1951.00,-0.0013
1950.00,-0.0013
1949.00,-0.0012
1948.00,-0.0012
1947.00,-0.0011
1946.00,-0.0010
1945.00,-0.0009
1944.00,-0.0009
1943.00,-0.0009
1942.00,-0.0010
1941.00,-0.0010
1940.00,-0.0010
1939.00,-0.0008
1938.00,-0.0008
1937.00,-0.0007
1936.00,-0.0007
1935.00,-0.0006
1934.00,-0.0005
1933.00,-0.0004
1932.00,-0.0004
1931.00,-0.0005
1930.00,-0.0006
1929.00,-0.0006
1928.00,-0.0007
1927.00,-0.0008
1926.00,-0.0008
1925.00,-0.0008
1924.00,-0.0007
1923.00,-0.0006
1922.00,-0.0004
1921.00,-0.0002
1920.00,-0.0001
1919.00,-0.0000
1918.00,-0.0000
1917.00,0.0000
1916.00,0.0000
1915.00,0.0000
1914.00,-0.0001
1913.00,-0.0002
1912.00,-0.0003
1911.00,-0.0004
1910.00,-0.0004
1909.00,-0.0003
1908.00,-0.0002
1907.00,-0.0001
1906.00,-0.0000
1905.00,0.0000
1904.00,0.0000
1903.00,0.0001
1902.00,0.0001
1901.00,0.0002
1900.00,0.0002
1899.00,0.0002
1898.00,0.0002
1897.00,0.0001
1896.00,-0.0000
1895.00,-0.0001
1894.00,-0.0001
1893.00,-0.0001
1892.00,0.0001
1891.00,0.0003
1890.00,0.0004
1889.00,0.0005
1888.00,0.0004
1887.00,0.0003
1886.00,0.0002
1885.00,0.0000
1884.00,-0.0000
1883.00,-0.0000
1882.00,0.0001
1881.00,0.0002
1880.00,0.0004
1879.00,0.0004
1878.00,0.0003
1877.00,0.0002
1876.00,0.0002
1875.00,0.0002
1874.00,0.0002
1873.00,0.0003
1872.00,0.0003
1871.00,0.0003
1870.00,0.0002
1869.00,0.0001
1868.00,0.0000
1867.00,0.0000
1866.00,0.0000
1865.00,0.0001
1864.00,0.0002
1863.00,0.0002
1862.00,0.0002
1861.00,0.0002
1860.00,0.0002
1859.00,0.0001
1858.00,0.0001
1857.00,0.0001
1856.00,0.0002
1855.00,0.0002
1854.00,0.0003
1853.00,0.0003
1852.00,0.0003
1851.00,0.0003
1850.00,0.0003
1849.00,0.0003
1848.00,0.0003
1847.00,0.0002
1846.00,0.0002
1845.00,0.0002
1844.00,0.0003
1843.00,0.0004
1842.00,0.0004
1841.00,0.0004
1840.00,0.0005
1839.00,0.0005
1838.00,0.0004
1837.00,0.0004
1836.00,0.0004
1835.00,0.0004
1834.00,0.0004
1833.00,0.0004
1832.00,0.0004
1831.00,0.0004
1830.00,0.0004
1829.00,0.0004
1828.00,0.0005
1827.00,0.0005
1826.00,0.0005
1825.00,0.0005
1824.00,0.0005
1823.00,0.0005
1822.00,0.0005
1821.00,0.0005
1820.00,0.0005
1819.00,0.0004
1818.00,0.0003
1817.00,0.0002
1816.00,0.0002
1815.00,0.0002
1814.00,0.0003
1813.00,0.0003
1812.00,0.0003
1811.00,0.0004
1810.00,0.0004
1809.00,0.0005
1808.00,0.0006
1807.00,0.0007
1806.00,0.0007
1805.00,0.0007
1804.00,0.0006
1803.00,0.0006
1802.00,0.0006
1801.00,0.0006
1800.00,0.0006
1799.00,0.0006
1798.00,0.0007
1797.00,0.0007
1796.00,0.0008
1795.00,0.0008
1794.00,0.0008
1793.00,0.0008
1792.00,0.0008
1791.00,0.0008
1790.00,0.0008
1789.00,0.0009
1788.00,0.0009
1787.00,0.0009
1786.00,0.0009
1785.00,0.0009
1784.00,0.0010
1783.00,0.0010
1782.00,0.0010
1781.00,0.0010
1780.00,0.0010
1779.00,0.0010
1778.00,0.0009
1777.00,0.0009
1776.00,0.0009
1775.00,0.0010
1774.00,0.0010
1773.00,0.0010
1772.00,0.0010
1771.00,0.0009
1770.00,0.0009
1769.00,0.0010
1768.00,0.0010
1767.00,0.0010
1766.00,0.0010
1765.00,0.0011
1764.00,0.0011
1763.00,0.0012
1762.00,0.0013
1761.00,0.0013
1760.00,0.0014
1759.00,0.0015
1758.00,0.0016
1757.00,0.0016
1756.00,0.0017
1755.00,0.0017
1754.00,0.0017
1753.00,0.0017
1752.00,0.0018
1751.00,0.0019
1750.00,0.0019
1749.00,0.0020
1748.00,0.0021
1747.00,0.0021
1746.00,0.0022
1745.00,0.0023
1744.00,0.0024
1743.00,0.0025
1742.00,0.0026
1741.00,0.0027
1740.00,0.0027
1739.00,0.0028
1738.00,0.0027
1737.00,0.0027
1736.00,0.0027
1735.00,0.0028
1734.00,0.0028
1733.00,0.0028
1732.00,0.0028
1731.00,0.0028
1730.00,0.0028
1729.00,0.0028
1728.00,0.0028
1727.00,0.0028
1726.00,0.0028
1725.00,0.0028
1724.00,0.0028
1723.00,0.0029
1722.00,0.0029
1721.00,0.0028
1720.00,0.0028
1719.00,0.0028
1718.00,0.0027
1717.00,0.0026
1716.00,0.0026
1715.00,0.0026
1714.00,0.0025
1713.00,0.0025
1712.00,0.0025
1711.00,0.0025
1710.00,0.0024
1709.00,0.0024
1708.00,0.0025
1707.00,0.0025
1706.00,0.0025
1705.00,0.0025
1704.00,0.0025
1703.00,0.0025
1702.00,0.0026
1701.00,0.0027
1700.00,0.0028
1699.00,0.0028
1698.00,0.0028
1697.00,0.0029
1696.00,0.0030
1695.00,0.0032
1694.00,0.0033
1693.00,0.0033
1692.00,0.0034
1691.00,0.0034
1690.00,0.0035
1689.00,0.0035
1688.00,0.0036
1687.00,0.0036
1686.00,0.0037
1685.00,0.0037
1684.00,0.0037
1683.00,0.0038
1682.00,0.0039
1681.00,0.0040
1680.00,0.0041
1679.00,0.0042
1678.00,0.0042
1677.00,0.0043
1676.00,0.0044
1675.00,0.0045
1674.00,0.0045
1673.00,0.0045
1672.00,0.0045
1671.00,0.0046
1670.00,0.0047
1669.00,0.0048
1668.00,0.0049
1667.00,0.0049
1666.00,0.0050
1665.00,0.0050
1664.00,0.0050
1663.00,0.0051
1662.00,0.0052
1661.00,0.0053
1660.00,0.0053
1659.00,0.0053
1658.00,0.0053
1657.00,0.0054
1656.00,0.0055
1655.00,0.0056
1654.00,0.0056
1653.00,0.0056
1652.00,0.0056
1651.00,0.0056
1650.00,0.0055
1649.00,0.0054
1648.00,0.0054
1647.00,0.0055
1646.00,0.0056
1645.00,0.0058
1644.00,0.0059
1643.00,0.0060
1642.00,0.0060
1641.00,0.0060
1640.00,0.0061
1639.00,0.0061
1638.00,0.0061
1637.00,0.0061
1636.00,0.0061
1635.00,0.0060
1634.00,0.0060
1633.00,0.0060
1632.00,0.0060
1631.00,0.0059
1630.00,0.0059
1629.00,0.0058
1628.00,0.0057
1627.00,0.0056
1626.00,0.0056
1625.00,0.0055
1624.00,0.0055
1623.00,0.0055
1622.00,0.0055
1621.00,0.0055
1620.00,0.0055
1619.00,0.0055
1618.00,0.0054
1617.00,0.0053
1616.00,0.0052
1615.00,0.0052
1614.00,0.0052
1613.00,0.0053
1612.00,0.0054
1611.00,0.0054
1610.00,0.0053
1609.00,0.0053
1608.00,0.0053
1607.00,0.0053
1606.00,0.0053
1605.00,0.0053
1604.00,0.0053
1603.00,0.0053
1602.00,0.0053
1601.00,0.0053
1600.00,0.0053
1599.00,0.0052
1598.00,0.0052
1597.00,0.0052
1596.00,0.0052
1595.00,0.0053
1594.00,0.0053
1593.00,0.0053
1592.00,0.0054
1591.00,0.0054
1590.00,0.0054
1589.00,0.0054
1588.00,0.0055
1587.00,0.0055
1586.00,0.0056
1585.00,0.0057
1584.00,0.0058
1583.00,0.0059
1582.00,0.0060
1581.00,0.0060
1580.00,0.0061
1579.00,0.0062
1578.00,0.0062
1577.00,0.0063
1576.00,0.0063
1575.00,0.0063
1574.00,0.0063
1573.00,0.0062
1572.00,0.0062
1571.00,0.0062
1570.00,0.0061
1569.00,0.0061
1568.00,0.0062
1567.00,0.0062
1566.00,0.0061
1565.00,0.0061
1564.00,0.0061
1563.00,0.0060
1562.00,0.0061
1561.00,0.0062
1560.00,0.0061
1559.00,0.0058
1558.00,0.0058
1557.00,0.0060
1556.00,0.0061
1555.00,0.0062
1554.00,0.0063
1553.00,0.0064
1552.00,0.0065
1551.00,0.0065
1550.00,0.0066
1549.00,0.0067
1548.00,0.0067
1547.00,0.0068
1546.00,0.0069
1545.00,0.0070
1544.00,0.0070
1543.00,0.0071
1542.00,0.0071
1541.00,0.0071
1540.00,0.0071
1539.00,0.0070
1538.00,0.0069
1537.00,0.0067
1536.00,0.0065
1535.00,0.0063
1534.00,0.0061
1533.00,0.0060
1532.00,0.0059
1531.00,0.0059
1530.00,0.0058
1529.00,0.0058
1528.00,0.0058
1527.00,0.0058
1526.00,0.0057
1525.00,0.0057
1524.00,0.0057
1523.00,0.0057
1522.00,0.0057
1521.00,0.0058
1520.00,0.0059
1519.00,0.0059
1518.00,0.0059
1517.00,0.0059
1516.00,0.0060
1515.00,0.0060
1514.00,0.0061
1513.00,0.0061
1512.00,0.0062
1511.00,0.0063
1510.00,0.0063
1509.00,0.0063
1508.00,0.0064
1507.00,0.0063
1506.00,0.0065
1505.00,0.0067
1504.00,0.0070
1503.00,0.0071
1502.00,0.0072
1501.00,0.0074
1500.00,0.0077
1499.00,0.0079
1498.00,0.0082
1497.00,0.0085
1496.00,0.0089
1495.00,0.0091
1494.00,0.0093
1493.00,0.0096
1492.00,0.0099
1491.00,0.0102
1490.00,0.0106
1489.00,0.0111
1488.00,0.0116
1487.00,0.0122
1486.00,0.0128
1485.00,0.0135
1484.00,0.0142
1483.00,0.0149
1482.00,0.0157
1481.00,0.0168
1480.00,0.0179
1479.00,0.0191
1478.00,0.0207
1477.00,0.0227
1476.00,0.0253
1475.00,0.0284
1474.00,0.0324
1473.00,0.0382
1472.00,0.0450
1471.00,0.0516
1470.00,0.0582
1469.00,0.0651
1468.00,0.0726
1467.00,0.0808
1466.00,0.0901
1465.00,0.1000
1464.00,0.1086
1463.00,0.1145
1462.00,0.1183
1461.00,0.1206
1460.00,0.1221
1459.00,0.1227
1458.00,0.1228
1457.00,0.1224
1456.00,0.1215
1455.00,0.1201
1454.00,0.1184
1453.00,0.1161
1452.00,0.1128
1451.00,0.1084
1450.00,0.1028
1449.00,0.0954
1448.00,0.0864
1447.00,0.0771
1446.00,0.0689
1445.00,0.0620
1444.00,0.0562
1443.00,0.0514
1442.00,0.0479
1441.00,0.0455
1440.00,0.0441
1439.00,0.0438
1438.00,0.0443
1437.00,0.0448
1436.00,0.0441
1435.00,0.0417
1434.00,0.0381
1433.00,0.0337
1432.00,0.0291
1431.00,0.0250
1430.00,0.0219
1429.00,0.0195
1428.00,0.0179
1427.00,0.0168
1426.00,0.0161
1425.00,0.0155
1424.00,0.0149
1423.00,0.0145
1422.00,0.0143
1421.00,0.0142
1420.00,0.0139
1419.00,0.0137
1418.00,0.0135
1417.00,0.0132
1416.00,0.0129
1415.00,0.0127
1414.00,0.0126
1413.00,0.0125
1412.00,0.0123
1411.00,0.0123
1410.00,0.0123
1409.00,0.0122
1408.00,0.0121
1407.00,0.0120
1406.00,0.0121
1405.00,0.0120
1404.00,0.0120
1403.00,0.0122
1402.00,0.0123
1401.00,0.0125
1400.00,0.0126
1399.00,0.0127
1398.00,0.0129
1397.00,0.0131
1396.00,0.0133
1395.00,0.0136
1394.00,0.0142
1393.00,0.0147
1392.00,0.0152
1391.00,0.0161
1390.00,0.0172
1389.00,0.0186
1388.00,0.0206
1387.00,0.0236
1386.00,0.0277
1385.00,0.0333
1384.00,0.0410
1383.00,0.0521
1382.00,0.0674
1381.00,0.0874
1380.00,0.1125
1379.00,0.1416
1378.00,0.1704
1377.00,0.1923
1376.00,0.2005
1375.00,0.1913
1374.00,0.1674
1373.00,0.1380
1372.00,0.1108
1371.00,0.0884
1370.00,0.0706
1369.00,0.0572
1368.00,0.0480
1367.00,0.0425
1366.00,0.0394
1365.00,0.0383
1364.00,0.0385
1363.00,0.0399
1362.00,0.0421
1361.00,0.0445
1360.00,0.0464
1359.00,0.0470
1358.00,0.0459
1357.00,0.0432
1356.00,0.0394
1355.00,0.0352
1354.00,0.0311
1353.00,0.0276
1352.00,0.0248
1351.00,0.0225
1350.00,0.0206
1349.00,0.0191
1348.00,0.0178
1347.00,0.0167
1346.00,0.0158
1345.00,0.0150
1344.00,0.0144
1343.00,0.0138
1342.00,0.0134
1341.00,0.0131
1340.00,0.0128
1339.00,0.0126
1338.00,0.0125
1337.00,0.0124
1336.00,0.0125
1335.00,0.0127
1334.00,0.0130
1333.00,0.0134
1332.00,0.0139
1331.00,0.0142
1330.00,0.0144
1329.00,0.0142
1328.00,0.0138
1327.00,0.0133
1326.00,0.0126
1325.00,0.0120
1324.00,0.0114
1323.00,0.0109
1322.00,0.0105
1321.00,0.0102
1320.00,0.0100
1319.00,0.0098
1318.00,0.0096
1317.00,0.0095
1316.00,0.0094
1315.00,0.0094
1314.00,0.0093
1313.00,0.0093
1312.00,0.0094
1311.00,0.0096
1310.00,0.0099
1309.00,0.0103
1308.00,0.0109
1307.00,0.0117
1306.00,0.0124
1305.00,0.0129
1304.00,0.0131
1303.00,0.0131
1302.00,0.0129
1301.00,0.0127
1300.00,0.0127
1299.00,0.0128
1298.00,0.0130
1297.00,0.0131
1296.00,0.0131
1295.00,0.0129
1294.00,0.0126
1293.00,0.0121
1292.00,0.0116
1291.00,0.0110
1290.00,0.0106
1289.00,0.0101
1288.00,0.0098
1287.00,0.0096
1286.00,0.0094
1285.00,0.0092
1284.00,0.0090
1283.00,0.0090
1282.00,0.0089
1281.00,0.0088
1280.00,0.0087
1279.00,0.0087
1278.00,0.0086
1277.00,0.0086
1276.00,0.0086
1275.00,0.0086
1274.00,0.0086
1273.00,0.0086
1272.00,0.0086
1271.00,0.0086
1270.00,0.0088
1269.00,0.0090
1268.00,0.0092
1267.00,0.0095
1266.00,0.0097
1265.00,0.0100
1264.00,0.0102
1263.00,0.0105
1262.00,0.0107
1261.00,0.0110
1260.00,0.0114
1259.00,0.0117
1258.00,0.0121
1257.00,0.0124
1256.00,0.0125
1255.00,0.0124
1254.00,0.0120
1253.00,0.0114
1252.00,0.0108
1251.00,0.0104
1250.00,0.0100
1249.00,0.0097
1248.00,0.0094
1247.00,0.0092
1246.00,0.0090
1245.00,0.0089
1244.00,0.0087
1243.00,0.0086
1242.00,0.0085
1241.00,0.0084
1240.00,0.0083
1239.00,0.0083
1238.00,0.0083
1237.00,0.0083
1236.00,0.0083
1235.00,0.0083
1234.00,0.0083
1233.00,0.0083
1232.00,0.0084
1231.00,0.0085
1230.00,0.0086
1229.00,0.0087
1228.00,0.0088
1227.00,0.0089
1226.00,0.0091
1225.00,0.0094
1224.00,0.0098
1223.00,0.0101
1222.00,0.0105
1221.00,0.0107
1220.00,0.0109
1219.00,0.0109
1218.00,0.0108
1217.00,0.0106
1216.00,0.0103
1215.00,0.0100
1214.00,0.0097
1213.00,0.0094
1212.00,0.0092
1211.00,0.0090
1210.00,0.0088
1209.00,0.0086
1208.00,0.0085
1207.00,0.0084
1206.00,0.0083
1205.00,0.0083
1204.00,0.0083
1203.00,0.0083
1202.00,0.0082
1201.00,0.0082
1200.00,0.0082
1199.00,0.0082
1198.00,0.0081
1197.00,0.0081
1196.00,0.0080
1195.00,0.0080
1194.00,0.0081
1193.00,0.0082
1192.00,0.0082
1191.00,0.0082
1190.00,0.0082
1189.00,0.0081
1188.00,0.0081
1187.00,0.0082
1186.00,0.0082
1185.00,0.0083
1184.00,0.0084
1183.00,0.0085
1182.00,0.0086
1181.00,0.0089
1180.00,0.0091
1179.00,0.0095
1178.00,0.0100
1177.00,0.0106
1176.00,0.0115
1175.00,0.0126
1174.00,0.0140
1173.00,0.0157
1172.00,0.0177
1171.00,0.0200
1170.00,0.0221
1169.00,0.0238
1168.00,0.0249
1167.00,0.0252
1166.00,0.0249
1165.00,0.0241
1164.00,0.0232
1163.00,0.0223
1162.00,0.0215
1161.00,0.0208
1160.00,0.0203
1159.00,0.0200
1158.00,0.0198
1157.00,0.0197
1156.00,0.0196
1155.00,0.0196
1154.00,0.0196
1153.00,0.0194
1152.00,0.0191
1151.00,0.0186
1150.00,0.0178
1149.00,0.0169
1148.00,0.0160
1147.00,0.0151
1146.00,0.0142
1145.00,0.0134
1144.00,0.0127
1143.00,0.0120
1142.00,0.0114
1141.00,0.0108
1140.00,0.0103
1139.00,0.0099
1138.00,0.0096
1137.00,0.0093
1136.00,0.0091
1135.00,0.0088
1134.00,0.0087
1133.00,0.0086
1132.00,0.0085
1131.00,0.0085
1130.00,0.0084
1129.00,0.0084
1128.00,0.0085
1127.00,0.0086
1126.00,0.0087
1125.00,0.0088
1124.00,0.0088
1123.00,0.0089
1122.00,0.0089
1121.00,0.0090
1120.00,0.0091
1119.00,0.0093
1118.00,0.0094
1117.00,0.0095
1116.00,0.0096
1115.00,0.0096
1114.00,0.0097
1113.00,0.0099
1112.00,0.0101
1111.00,0.0103
1110.00,0.0106
1109.00,0.0111
1108.00,0.0117
1107.00,0.0124
1106.00,0.0131
1105.00,0.0137
1104.00,0.0142
1103.00,0.0145
1102.00,0.0144
1101.00,0.0140
1100.00,0.0134
1099.00,0.0128
1098.00,0.0122
1097.00,0.0116
1096.00,0.0112
1095.00,0.0108
1094.00,0.0105
1093.00,0.0102
1092.00,0.0099
1091.00,0.0097
1090.00,0.0095
1089.00,0.0094
1088.00,0.0093
1087.00,0.0093
1086.00,0.0093
1085.00,0.0093
1084.00,0.0093
1083.00,0.0093
1082.00,0.0092
1081.00,0.0092
1080.00,0.0091
1079.00,0.0090
1078.00,0.0089
1077.00,0.0088
1076.00,0.0087
1075.00,0.0086
1074.00,0.0087
1073.00,0.0087
1072.00,0.0087
1071.00,0.0087
1070.00,0.0086
1069.00,0.0085
1068.00,0.0085
1067.00,0.0085
1066.00,0.0086
1065.00,0.0086
1064.00,0.0087
1063.00,0.0089
1062.00,0.0090
1061.00,0.0091
1060.00,0.0091
1059.00,0.0092
1058.00,0.0093
1057.00,0.0093
1056.00,0.0094
1055.00,0.0096
1054.00,0.0097
1053.00,0.0100
1052.00,0.0102
1051.00,0.0106
1050.00,0.0110
1049.00,0.0115
1048.00,0.0119
1047.00,0.0124
1046.00,0.0127
1045.00,0.0128
1044.00,0.0128
1043.00,0.0127
1042.00,0.0126
1041.00,0.0125
1040.00,0.0123
1039.00,0.0122
1038.00,0.0122
1037.00,0.0121
1036.00,0.0121
1035.00,0.0121
1034.00,0.0120
1033.00,0.0119
1032.00,0.0118
1031.00,0.0118
1030.00,0.0119
1029.00,0.0120
1028.00,0.0121
1027.00,0.0123
1026.00,0.0125
1025.00,0.0127
1024.00,0.0129
1023.00,0.0131
1022.00,0.0133
1021.00,0.0135
1020.00,0.0137
1019.00,0.0138
1018.00,0.0139
1017.00,0.0139
1016.00,0.0138
1015.00,0.0137
1014.00,0.0136
1013.00,0.0135
1012.00,0.0134
1011.00,0.0134
1010.00,0.0134
1009.00,0.0134
1008.00,0.0135
1007.00,0.0138
1006.00,0.0141
1005.00,0.0147
1004.00,0.0156
1003.00,0.0170
1002.00,0.0190
1001.00,0.0215
1000.00,0.0240
999.00,0.0260
998.00,0.0268
997.00,0.0261
996.00,0.0240
995.00,0.0214
994.00,0.0187
993.00,0.0163
992.00,0.0145
991.00,0.0131
990.00,0.0121
989.00,0.0114
988.00,0.0111
987.00,0.0109
986.00,0.0110
985.00,0.0112
984.00,0.0116
983.00,0.0123
982.00,0.0132
981.00,0.0145
980.00,0.0163
979.00,0.0187
978.00,0.0217
977.00,0.0250
976.00,0.0284
975.00,0.0314
974.00,0.0333
973.00,0.0335
972.00,0.0320
971.00,0.0290
970.00,0.0253
969.00,0.0216
968.00,0.0185
967.00,0.0161
966.00,0.0144
965.00,0.0131
964.00,0.0121
963.00,0.0114
962.00,0.0108
961.00,0.0104
960.00,0.0100
959.00,0.0097
958.00,0.0095
957.00,0.0094
956.00,0.0092
955.00,0.0090
954.00,0.0088
953.00,0.0086
952.00,0.0085
951.00,0.0084
950.00,0.0083
949.00,0.0083
948.00,0.0083
947.00,0.0084
946.00,0.0086
945.00,0.0088
944.00,0.0091
943.00,0.0094
942.00,0.0099
941.00,0.0102
940.00,0.0102
939.00,0.0100
938.00,0.0094
937.00,0.0087
936.00,0.0081
935.00,0.0076
934.00,0.0071
933.00,0.0068
932.00,0.0065
931.00,0.0064
930.00,0.0063
929.00,0.0064
928.00,0.0064
927.00,0.0065
926.00,0.0066
925.00,0.0066
924.00,0.0066
923.00,0.0066
922.00,0.0066
921.00,0.0066
920.00,0.0066
919.00,0.0065
918.00,0.0064
917.00,0.0064
916.00,0.0064
915.00,0.0065
914.00,0.0066
913.00,0.0068
912.00,0.0069
911.00,0.0071
910.00,0.0072
909.00,0.0074
908.00,0.0076
907.00,0.0080
906.00,0.0088
905.00,0.0101
904.00,0.0118
903.00,0.0138
902.00,0.0159
901.00,0.0178
900.00,0.0189
899.00,0.0190
898.00,0.0180
897.00,0.0163
896.00,0.0142
895.00,0.0124
894.00,0.0108
893.00,0.0097
892.00,0.0090
891.00,0.0084
890.00,0.0080
889.00,0.0077
888.00,0.0075
887.00,0.0074
886.00,0.0074
885.00,0.0073
884.00,0.0074
883.00,0.0074
882.00,0.0074
881.00,0.0074
880.00,0.0074
879.00,0.0074
878.00,0.0075
877.00,0.0077
876.00,0.0079
875.00,0.0080
874.00,0.0081
873.00,0.0081
872.00,0.0080
871.00,0.0078
870.00,0.0077
869.00,0.0076
868.00,0.0075
867.00,0.0076
866.00,0.0076
865.00,0.0077
864.00,0.0078
863.00,0.0081
862.00,0.0083
861.00,0.0084
860.00,0.0084
859.00,0.0085
858.00,0.0085
857.00,0.0086
856.00,0.0087
855.00,0.0088
854.00,0.0090
853.00,0.0092
852.00,0.0095
851.00,0.0099
850.00,0.0102
849.00,0.0106
848.00,0.0111
847.00,0.0118
846.00,0.0130
845.00,0.0150
844.00,0.0179
843.00,0.0212
842.00,0.0239
841.00,0.0246
840.00,0.0232
839.00,0.0201
838.00,0.0169
837.00,0.0144
836.00,0.0128
835.00,0.0118
834.00,0.0110
833.00,0.0106
832.00,0.0103
831.00,0.0102
830.00,0.0101
829.00,0.0100
828.00,0.0099
827.00,0.0098
826.00,0.0096
825.00,0.0096
824.00,0.0096
823.00,0.0098
822.00,0.0100
821.00,0.0102
820.00,0.0104
819.00,0.0107
818.00,0.0113
817.00,0.0121
816.00,0.0132
815.00,0.0145
814.00,0.0160
813.00,0.0178
812.00,0.0200
811.00,0.0220
810.00,0.0236
809.00,0.0242
808.00,0.0237
807.00,0.0222
806.00,0.0202
805.00,0.0182
804.00,0.0163
803.00,0.0148
802.00,0.0137
801.00,0.0128
800.00,0.0122
799.00,0.0117
798.00,0.0114
797.00,0.0110
796.00,0.0106
795.00,0.0102
794.00,0.0099
793.00,0.0095
792.00,0.0092
791.00,0.0089
790.00,0.0086
789.00,0.0084
788.00,0.0081
787.00,0.0078
786.00,0.0076
785.00,0.0073
784.00,0.0071
783.00,0.0071
782.00,0.0070
781.00,0.0070
780.00,0.0069
779.00,0.0069
778.00,0.0068
777.00,0.0067
776.00,0.0065
775.00,0.0064
774.00,0.0064
773.00,0.0064
772.00,0.0064
771.00,0.0064
770.00,0.0065
769.00,0.0065
768.00,0.0065
767.00,0.0066
766.00,0.0067
765.00,0.0068
764.00,0.0069
763.00,0.0069
762.00,0.0069
761.00,0.0069
760.00,0.0069
759.00,0.0069
758.00,0.0070
757.00,0.0072
756.00,0.0073
755.00,0.0074
754.00,0.0075
753.00,0.0075
752.00,0.0075
751.00,0.0074
750.00,0.0075
749.00,0.0077
748.00,0.0080
747.00,0.0082
746.00,0.0084
745.00,0.0086
744.00,0.0088
743.00,0.0090
742.00,0.0092
741.00,0.0095
740.00,0.0099
739.00,0.0103
738.00,0.0107
737.00,0.0110
736.00,0.0114
735.00,0.0118
734.00,0.0123
733.00,0.0130
732.00,0.0138
731.00,0.0146
730.00,0.0152
729.00,0.0154
728.00,0.0155
727.00,0.0155
726.00,0.0157
725.00,0.0160
724.00,0.0165
723.00,0.0172
722.00,0.0179
721.00,0.0184
720.00,0.0185
719.00,0.0178
718.00,0.0166
717.00,0.0152
716.00,0.0140
715.00,0.0132
714.00,0.0126
713.00,0.0122
712.00,0.0118
711.00,0.0115
710.00,0.0112
709.00,0.0110
708.00,0.0108
707.00,0.0108
706.00,0.0108
705.00,0.0107
704.00,0.0106
703.00,0.0104
702.00,0.0101
701.00,0.0098
700.00,0.0095
699.00,0.0093
698.00,0.0093
697.00,0.0093
696.00,0.0095
695.00,0.0096
694.00,0.0096
693.00,0.0096
692.00,0.0097
691.00,0.0097
690.00,0.0097
689.00,0.0096
688.00,0.0095
687.00,0.0094
686.00,0.0094
685.00,0.0095
684.00,0.0096
683.00,0.0098
682.00,0.0099
681.00,0.0101
680.00,0.0101
679.00,0.0100
678.00,0.0099
677.00,0.0099
676.00,0.0100
675.00,0.0102
674.00,0.0103
673.00,0.0104
672.00,0.0103
671.00,0.0102
670.00,0.0102
669.00,0.0102
668.00,0.0101
667.00,0.0099
666.00,0.0098
665.00,0.0096
664.00,0.0095
663.00,0.0094
662.00,0.0092
661.00,0.0090
660.00,0.0089
659.00,0.0090
658.00,0.0090
657.00,0.0091
656.00,0.0091
655.00,0.0090
654.00,0.0090
653.00,0.0088
652.00,0.0086
651.00,0.0085
650.00,0.0085
649.00,0.0086
648.00,0.0086
647.00,0.0087
646.00,0.0087
645.00,0.0086
644.00,0.0085
643.00,0.0083
642.00,0.0082
641.00,0.0081
640.00,0.0083
639.00,0.0085
638.00,0.0088
637.00,0.0091
636.00,0.0092
635.00,0.0089
634.00,0.0085
633.00,0.0081
632.00,0.0078
631.00,0.0078
630.00,0.0081
629.00,0.0083
628.00,0.0085
627.00,0.0086
626.00,0.0087
625.00,0.0087
624.00,0.0087
623.00,0.0087
622.00,0.0088
621.00,0.0089
620.00,0.0089
619.00,0.0087
618.00,0.0084
617.00,0.0081
616.00,0.0081
615.00,0.0082
614.00,0.0082
613.00,0.0080
612.00,0.0078
611.00,0.0078
610.00,0.0081
609.00,0.0084
608.00,0.0084
607.00,0.0082
606.00,0.0080
605.00,0.0081
604.00,0.0083
603.00,0.0085
602.00,0.0085
601.00,0.0084
600.00,0.0083
599.00,0.0083
598.00,0.0083
597.00,0.0083
596.00,0.0083
595.00,0.0082
594.00,0.0081
593.00,0.0080
592.00,0.0080
591.00,0.0080
590.00,0.0081
589.00,0.0081
588.00,0.0081
587.00,0.0082
586.00,0.0083
585.00,0.0085
584.00,0.0087
583.00,0.0088
582.00,0.0088
581.00,0.0086
580.00,0.0083
579.00,0.0081
578.00,0.0079
577.00,0.0078
576.00,0.0078
575.00,0.0080
574.00,0.0081
573.00,0.0080
572.00,0.0078
571.00,0.0077
570.00,0.0077
569.00,0.0077
568.00,0.0078
567.00,0.0079
566.00,0.0081
565.00,0.0084
564.00,0.0085
563.00,0.0085
562.00,0.0085
561.00,0.0087
560.00,0.0089
559.00,0.0089
558.00,0.0085
557.00,0.0081
556.00,0.0078
555.00,0.0078
554.00,0.0079
553.00,0.0079
552.00,0.0080
551.00,0.0081
550.00,0.0084
549.00,0.0087
548.00,0.0091
547.00,0.0094
546.00,0.0096
545.00,0.0096
544.00,0.0093
543.00,0.0092
542.00,0.0093
541.00,0.0097
540.00,0.0102
539.00,0.0105
538.00,0.0106
537.00,0.0107
536.00,0.0107
535.00,0.0107
534.00,0.0108
533.00,0.0110
532.00,0.0112
531.00,0.0113
530.00,0.0113
529.00,0.0113
528.00,0.0114
527.00,0.0114
526.00,0.0111
525.00,0.0107
524.00,0.0103
523.00,0.0101
522.00,0.0100
521.00,0.0098
520.00,0.0093
519.00,0.0085
518.00,0.0077
517.00,0.0074
516.00,0.0076
515.00,0.0079
514.00,0.0080
513.00,0.0080
512.00,0.0080
511.00,0.0082
510.00,0.0086
509.00,0.0088
508.00,0.0087
507.00,0.0085
506.00,0.0082
505.00,0.0082
504.00,0.0084
503.00,0.0089
502.00,0.0096
501.00,0.0103
500.00,0.0108
499.00,0.0108
498.00,0.0104
497.00,0.0097
496.00,0.0092
495.00,0.0088
494.00,0.0085
493.00,0.0083
492.00,0.0086
491.00,0.0092
490.00,0.0098
489.00,0.0100
488.00,0.0100
487.00,0.0104
486.00,0.0111
485.00,0.0118
484.00,0.0120
483.00,0.0117
482.00,0.0110
481.00,0.0104
480.00,0.0104
479.00,0.0110
478.00,0.0120
477.00,0.0126
476.00,0.0126
475.00,0.0122
474.00,0.0119
473.00,0.0121
472.00,0.0124
471.00,0.0126
470.00,0.0128
469.00,0.0136
468.00,0.0153
467.00,0.0175
466.00,0.0191
465.00,0.0196
464.00,0.0195
463.00,0.0192
462.00,0.0194
461.00,0.0199
460.00,0.0207
459.00,0.0216
458.00,0.0222
457.00,0.0221
456.00,0.0211
455.00,0.0196
454.00,0.0178
453.00,0.0159
452.00,0.0146
451.00,0.0135
450.00,0.0124
