Created as New Dataset,Sample 110 By Administrator Date Wednesday, September 03 2025
cm-1,A
4000.00,0.0022
3999.00,0.0022
3998.00,0.0022
3997.00,0.0023
3996.00,0.0023
3995.00,0.0023
3994.00,0.0023
3993.00,0.0023
3992.00,0.0023
3991.00,0.0023
3990.00,0.0023
3989.00,0.0023
3988.00,0.0023
3987.00,0.0023
3986.00,0.0022
3985.00,0.0022
3984.00,0.0022
3983.00,0.0022
3982.00,0.0022
3981.00,0.0021
3980.00,0.0021
3979.00,0.0021
3978.00,0.0021
3977.00,0.0021
3976.00,0.0021
3975.00,0.0021
3974.00,0.0021
3973.00,0.0021
3972.00,0.0021
3971.00,0.0021
3970.00,0.0021
3969.00,0.0021
3968.00,0.0021
3967.00,0.0021
3966.00,0.0021
3965.00,0.0021
3964.00,0.0021
3963.00,0.0021
3962.00,0.0021
3961.00,0.0021
3960.00,0.0021
3959.00,0.0021
3958.00,0.0021
3957.00,0.0021
3956.00,0.0021
3955.00,0.0020
3954.00,0.0020
3953.00,0.0020
3952.00,0.0021
3951.00,0.0021
3950.00,0.0021
3949.00,0.0021
3948.00,0.0021
3947.00,0.0021
3946.00,0.0021
3945.00,0.0021
3944.00,0.0021
3943.00,0.0021
3942.00,0.0021
3941.00,0.0021
3940.00,0.0021
3939.00,0.0021
3938.00,0.0021
3937.00,0.0021
3936.00,0.0022
3935.00,0.0022
3934.00,0.0022
3933.00,0.0022
3932.00,0.0022
3931.00,0.0021
3930.00,0.0021
3929.00,0.0022
3928.00,0.0022
3927.00,0.0022
3926.00,0.0022
3925.00,0.0022
3924.00,0.0022
3923.00,0.0022
3922.00,0.0022
3921.00,0.0022
3920.00,0.0022
3919.00,0.0022
3918.00,0.0022
3917.00,0.0021
3916.00,0.0021
3915.00,0.0021
3914.00,0.0021
3913.00,0.0020
3912.00,0.0020
3911.00,0.0020
3910.00,0.0020
3909.00,0.0020
3908.00,0.0020
3907.00,0.0020
3906.00,0.0021
3905.00,0.0021
3904.00,0.0021
3903.00,0.0022
3902.00,0.0022
3901.00,0.0022
3900.00,0.0021
3899.00,0.0021
3898.00,0.0021
3897.00,0.0020
3896.00,0.0021
3895.00,0.0021
3894.00,0.0021
3893.00,0.0022
3892.00,0.0022
3891.00,0.0021
3890.00,0.0021
3889.00,0.0021
3888.00,0.0021
3887.00,0.0021
3886.00,0.0021
3885.00,0.0021
3884.00,0.0021
3883.00,0.0021
3882.00,0.0021
3881.00,0.0020
3880.00,0.0020
3879.00,0.0020
3878.00,0.0020
3877.00,0.0021
3876.00,0.0021
3875.00,0.0021
3874.00,0.0021
3873.00,0.0022
3872.00,0.0022
3871.00,0.0022
3870.00,0.0021
3869.00,0.0021
3868.00,0.0021
3867.00,0.0021
3866.00,0.0020
3865.00,0.0020
3864.00,0.0020
3863.00,0.0020
3862.00,0.0020
3861.00,0.0020
3860.00,0.0020
3859.00,0.0021
3858.00,0.0021
3857.00,0.0021
3856.00,0.0022
3855.00,0.0022
3854.00,0.0022
3853.00,0.0021
3852.00,0.0021
3851.00,0.0021
3850.00,0.0020
3849.00,0.0020
3848.00,0.0019
3847.00,0.0019
3846.00,0.0019
3845.00,0.0019
3844.00,0.0018
3843.00,0.0018
3842.00,0.0019
3841.00,0.0019
3840.00,0.0020
3839.00,0.0021
3838.00,0.0021
3837.00,0.0021
3836.00,0.0021
3835.00,0.0021
3834.00,0.0020
3833.00,0.0020
3832.00,0.0020
3831.00,0.0020
3830.00,0.0021
3829.00,0.0021
3828.00,0.0020
3827.00,0.0020
3826.00,0.0019
3825.00,0.0019
3824.00,0.0019
3823.00,0.0019
3822.00,0.0019
3821.00,0.0019
3820.00,0.0020
3819.00,0.0021
3818.00,0.0022
3817.00,0.0021
3816.00,0.0021
3815.00,0.0020
3814.00,0.0020
3813.00,0.0019
3812.00,0.0019
3811.00,0.0019
3810.00,0.0019
3809.00,0.0019
3808.00,0.0019
3807.00,0.0019
3806.00,0.0019
3805.00,0.0019
3804.00,0.0019
3803.00,0.0019
3802.00,0.0018
3801.00,0.0019
3800.00,0.0019
3799.00,0.0020
3798.00,0.0020
3797.00,0.0020
3796.00,0.0020
3795.00,0.0020
3794.00,0.0020
3793.00,0.0020
3792.00,0.0020
3791.00,0.0019
3790.00,0.0019
3789.00,0.0019
3788.00,0.0019
3787.00,0.0019
3786.00,0.0019
3785.00,0.0019
3784.00,0.0019
3783.00,0.0019
3782.00,0.0019
3781.00,0.0019
3780.00,0.0019
3779.00,0.0019
3778.00,0.0019
3777.00,0.0019
3776.00,0.0019
3775.00,0.0019
3774.00,0.0019
3773.00,0.0019
3772.00,0.0019
3771.00,0.0019
3770.00,0.0019
3769.00,0.0019
3768.00,0.0019
3767.00,0.0020
3766.00,0.0020
3765.00,0.0020
3764.00,0.0020
3763.00,0.0020
3762.00,0.0020
3761.00,0.0020
3760.00,0.0019
3759.00,0.0019
3758.00,0.0019
3757.00,0.0019
3756.00,0.0019
3755.00,0.0019
3754.00,0.0019
3753.00,0.0019
3752.00,0.0020
3751.00,0.0020
3750.00,0.0020
3749.00,0.0020
3748.00,0.0020
3747.00,0.0020
3746.00,0.0020
3745.00,0.0020
3744.00,0.0020
3743.00,0.0020
3742.00,0.0020
3741.00,0.0020
3740.00,0.0019
3739.00,0.0019
3738.00,0.0018
3737.00,0.0018
3736.00,0.0018
3735.00,0.0018
3734.00,0.0018
3733.00,0.0018
3732.00,0.0018
3731.00,0.0019
3730.00,0.0019
3729.00,0.0018
3728.00,0.0018
3727.00,0.0017
3726.00,0.0017
3725.00,0.0017
3724.00,0.0017
3723.00,0.0018
3722.00,0.0018
3721.00,0.0018
3720.00,0.0018
3719.00,0.0018
3718.00,0.0018
3717.00,0.0018
3716.00,0.0018
3715.00,0.0018
3714.00,0.0017
3713.00,0.0017
3712.00,0.0017
3711.00,0.0017
3710.00,0.0017
3709.00,0.0017
3708.00,0.0017
3707.00,0.0017
3706.00,0.0017
3705.00,0.0017
3704.00,0.0018
3703.00,0.0018
3702.00,0.0018
3701.00,0.0018
3700.00,0.0018
3699.00,0.0018
3698.00,0.0018
3697.00,0.0017
3696.00,0.0017
3695.00,0.0016
3694.00,0.0016
3693.00,0.0017
3692.00,0.0017
3691.00,0.0017
3690.00,0.0017
3689.00,0.0018
3688.00,0.0018
3687.00,0.0019
3686.00,0.0019
3685.00,0.0019
3684.00,0.0019
3683.00,0.0018
3682.00,0.0018
3681.00,0.0018
3680.00,0.0018
3679.00,0.0018
3678.00,0.0019
3677.00,0.0019
3676.00,0.0019
3675.00,0.0019
3674.00,0.0019
3673.00,0.0020
3672.00,0.0019
3671.00,0.0019
3670.00,0.0019
3669.00,0.0020
3668.00,0.0020
3667.00,0.0020
3666.00,0.0020
3665.00,0.0019
3664.00,0.0019
3663.00,0.0019
3662.00,0.0018
3661.00,0.0018
3660.00,0.0018
3659.00,0.0018
3658.00,0.0018
3657.00,0.0019
3656.00,0.0019
3655.00,0.0019
3654.00,0.0019
3653.00,0.0019
3652.00,0.0019
3651.00,0.0019
3650.00,0.0019
3649.00,0.0019
3648.00,0.0019
3647.00,0.0019
3646.00,0.0019
3645.00,0.0019
3644.00,0.0018
3643.00,0.0018
3642.00,0.0018
3641.00,0.0018
3640.00,0.0017
3639.00,0.0017
3638.00,0.0017
3637.00,0.0018
3636.00,0.0018
3635.00,0.0018
3634.00,0.0018
3633.00,0.0017
3632.00,0.0017
3631.00,0.0017
3630.00,0.0016
3629.00,0.0016
3628.00,0.0016
3627.00,0.0016
3626.00,0.0016
3625.00,0.0016
3624.00,0.0016
3623.00,0.0016
3622.00,0.0016
3621.00,0.0016
3620.00,0.0016
3619.00,0.0016
3618.00,0.0016
3617.00,0.0016
3616.00,0.0016
3615.00,0.0016
3614.00,0.0016
3613.00,0.0016
3612.00,0.0016
3611.00,0.0017
3610.00,0.0017
3609.00,0.0017
3608.00,0.0017
3607.00,0.0017
3606.00,0.0016
3605.00,0.0016
3604.00,0.0016
3603.00,0.0016
3602.00,0.0016
3601.00,0.0016
3600.00,0.0016
3599.00,0.0016
3598.00,0.0016
3597.00,0.0016
3596.00,0.0016
3595.00,0.0016
3594.00,0.0016
3593.00,0.0016
3592.00,0.0016
3591.00,0.0016
3590.00,0.0017
3589.00,0.0017
3588.00,0.0017
3587.00,0.0016
3586.00,0.0016
3585.00,0.0016
3584.00,0.0016
3583.00,0.0016
3582.00,0.0016
3581.00,0.0016
3580.00,0.0017
3579.00,0.0017
3578.00,0.0017
3577.00,0.0017
3576.00,0.0017
3575.00,0.0017
3574.00,0.0017
3573.00,0.0017
3572.00,0.0017
3571.00,0.0017
3570.00,0.0017
3569.00,0.0018
3568.00,0.0018
3567.00,0.0018
3566.00,0.0018
3565.00,0.0018
3564.00,0.0018
3563.00,0.0018
3562.00,0.0018
3561.00,0.0018
3560.00,0.0018
3559.00,0.0018
3558.00,0.0018
3557.00,0.0018
3556.00,0.0018
3555.00,0.0018
3554.00,0.0018
3553.00,0.0018
3552.00,0.0018
3551.00,0.0018
3550.00,0.0019
3549.00,0.0019
3548.00,0.0019
3547.00,0.0019
3546.00,0.0019
3545.00,0.0020
3544.00,0.0020
3543.00,0.0020
3542.00,0.0020
3541.00,0.0020
3540.00,0.0020
3539.00,0.0020
3538.00,0.0020
3537.00,0.0020
3536.00,0.0020
3535.00,0.0020
3534.00,0.0020
3533.00,0.0020
3532.00,0.0020
3531.00,0.0020
3530.00,0.0020
3529.00,0.0019
3528.00,0.0019
3527.00,0.0020
3526.00,0.0020
3525.00,0.0020
3524.00,0.0020
3523.00,0.0021
3522.00,0.0021
3521.00,0.0021
3520.00,0.0021
3519.00,0.0021
3518.00,0.0021
3517.00,0.0021
3516.00,0.0021
3515.00,0.0021
3514.00,0.0021
3513.00,0.0021
3512.00,0.0021
3511.00,0.0021
3510.00,0.0021
3509.00,0.0021
3508.00,0.0022
3507.00,0.0022
3506.00,0.0021
3505.00,0.0021
3504.00,0.0021
3503.00,0.0021
3502.00,0.0021
3501.00,0.0021
3500.00,0.0022
3499.00,0.0022
3498.00,0.0022
3497.00,0.0022
3496.00,0.0022
3495.00,0.0022
3494.00,0.0022
3493.00,0.0022
3492.00,0.0022
3491.00,0.0022
3490.00,0.0022
3489.00,0.0022
3488.00,0.0022
3487.00,0.0022
3486.00,0.0022
3485.00,0.0022
3484.00,0.0022
3483.00,0.0022
3482.00,0.0022
3481.00,0.0023
3480.00,0.0022
3479.00,0.0022
3478.00,0.0022
3477.00,0.0022
3476.00,0.0023
3475.00,0.0023
3474.00,0.0023
3473.00,0.0024
3472.00,0.0024
3471.00,0.0024
3470.00,0.0024
3469.00,0.0024
3468.00,0.0024
3467.00,0.0024
3466.00,0.0024
3465.00,0.0024
3464.00,0.0024
3463.00,0.0024
3462.00,0.0025
3461.00,0.0025
3460.00,0.0025
3459.00,0.0025
3458.00,0.0025
3457.00,0.0025
3456.00,0.0025
3455.00,0.0025
3454.00,0.0025
3453.00,0.0025
3452.00,0.0025
3451.00,0.0025
3450.00,0.0025
3449.00,0.0026
3448.00,0.0026
3447.00,0.0026
3446.00,0.0026
3445.00,0.0026
3444.00,0.0026
3443.00,0.0026
3442.00,0.0026
3441.00,0.0026
3440.00,0.0026
3439.00,0.0026
3438.00,0.0027
3437.00,0.0027
3436.00,0.0027
3435.00,0.0027
3434.00,0.0027
3433.00,0.0027
3432.00,0.0027
3431.00,0.0027
3430.00,0.0027
3429.00,0.0027
3428.00,0.0028
3427.00,0.0028
3426.00,0.0028
3425.00,0.0028
3424.00,0.0028
3423.00,0.0028
3422.00,0.0028
3421.00,0.0028
3420.00,0.0028
3419.00,0.0028
3418.00,0.0028
3417.00,0.0028
3416.00,0.0028
3415.00,0.0028
3414.00,0.0029
3413.00,0.0029
3412.00,0.0029
3411.00,0.0029
3410.00,0.0028
3409.00,0.0028
3408.00,0.0028
3407.00,0.0028
3406.00,0.0028
3405.00,0.0028
3404.00,0.0029
3403.00,0.0029
3402.00,0.0029
3401.00,0.0029
3400.00,0.0029
3399.00,0.0029
3398.00,0.0029
3397.00,0.0029
3396.00,0.0029
3395.00,0.0029
3394.00,0.0029
3393.00,0.0029
3392.00,0.0029
3391.00,0.0029
3390.00,0.0029
3389.00,0.0029
3388.00,0.0029
3387.00,0.0029
3386.00,0.0029
3385.00,0.0029
3384.00,0.0029
3383.00,0.0029
3382.00,0.0029
3381.00,0.0029
3380.00,0.0029
3379.00,0.0029
3378.00,0.0030
3377.00,0.0030
3376.00,0.0030
3375.00,0.0030
3374.00,0.0030
3373.00,0.0030
3372.00,0.0030
3371.00,0.0030
3370.00,0.0029
3369.00,0.0029
3368.00,0.0029
3367.00,0.0029
3366.00,0.0029
3365.00,0.0029
3364.00,0.0029
3363.00,0.0029
3362.00,0.0029
3361.00,0.0029
3360.00,0.0029
3359.00,0.0029
3358.00,0.0029
3357.00,0.0030
3356.00,0.0030
3355.00,0.0030
3354.00,0.0030
3353.00,0.0030
3352.00,0.0030
3351.00,0.0030
3350.00,0.0030
3349.00,0.0030
3348.00,0.0030
3347.00,0.0030
3346.00,0.0030
3345.00,0.0030
3344.00,0.0030
3343.00,0.0030
3342.00,0.0029
3341.00,0.0029
3340.00,0.0029
3339.00,0.0029
3338.00,0.0030
3337.00,0.0030
3336.00,0.0030
3335.00,0.0030
3334.00,0.0030
3333.00,0.0029
3332.00,0.0029
3331.00,0.0029
3330.00,0.0029
3329.00,0.0029
3328.00,0.0029
3327.00,0.0029
3326.00,0.0029
3325.00,0.0029
3324.00,0.0029
3323.00,0.0029
3322.00,0.0028
3321.00,0.0028
3320.00,0.0028
3319.00,0.0027
3318.00,0.0027
3317.00,0.0028
3316.00,0.0028
3315.00,0.0028
3314.00,0.0028
3313.00,0.0029
3312.00,0.0029
3311.00,0.0029
3310.00,0.0029
3309.00,0.0029
3308.00,0.0029
3307.00,0.0029
3306.00,0.0030
3305.00,0.0030
3304.00,0.0030
3303.00,0.0030
3302.00,0.0030
3301.00,0.0030
3300.00,0.0030
3299.00,0.0030
3298.00,0.0030
3297.00,0.0030
3296.00,0.0030
3295.00,0.0029
3294.00,0.0029
3293.00,0.0029
3292.00,0.0029
3291.00,0.0029
3290.00,0.0029
3289.00,0.0029
3288.00,0.0029
3287.00,0.0028
3286.00,0.0028
3285.00,0.0028
3284.00,0.0028
3283.00,0.0028
3282.00,0.0028
3281.00,0.0028
3280.00,0.0028
3279.00,0.0028
3278.00,0.0028
3277.00,0.0028
3276.00,0.0028
3275.00,0.0028
3274.00,0.0028
3273.00,0.0028
3272.00,0.0028
3271.00,0.0028
3270.00,0.0028
3269.00,0.0028
3268.00,0.0028
3267.00,0.0028
3266.00,0.0028
3265.00,0.0028
3264.00,0.0028
3263.00,0.0028
3262.00,0.0027
3261.00,0.0027
3260.00,0.0027
3259.00,0.0027
3258.00,0.0027
3257.00,0.0027
3256.00,0.0027
3255.00,0.0027
3254.00,0.0026
3253.00,0.0027
3252.00,0.0027
3251.00,0.0027
3250.00,0.0027
3249.00,0.0027
3248.00,0.0026
3247.00,0.0026
3246.00,0.0026
3245.00,0.0026
3244.00,0.0026
3243.00,0.0027
3242.00,0.0027
3241.00,0.0027
3240.00,0.0028
3239.00,0.0027
3238.00,0.0027
3237.00,0.0027
3236.00,0.0027
3235.00,0.0027
3234.00,0.0027
3233.00,0.0027
3232.00,0.0027
3231.00,0.0027
3230.00,0.0028
3229.00,0.0028
3228.00,0.0028
3227.00,0.0028
3226.00,0.0028
3225.00,0.0028
3224.00,0.0029
3223.00,0.0029
3222.00,0.0029
3221.00,0.0030
3220.00,0.0030
3219.00,0.0030
3218.00,0.0030
3217.00,0.0029
3216.00,0.0029
3215.00,0.0029
3214.00,0.0029
3213.00,0.0029
3212.00,0.0030
3211.00,0.0030
3210.00,0.0030
3209.00,0.0030
3208.00,0.0030
3207.00,0.0031
3206.00,0.0031
3205.00,0.0031
3204.00,0.0031
3203.00,0.0031
3202.00,0.0031
3201.00,0.0032
3200.00,0.0032
3199.00,0.0032
3198.00,0.0032
3197.00,0.0032
3196.00,0.0032
3195.00,0.0032
3194.00,0.0032
3193.00,0.0032
3192.00,0.0032
3191.00,0.0032
3190.00,0.0032
3189.00,0.0032
3188.00,0.0032
3187.00,0.0032
3186.00,0.0031
3185.00,0.0031
3184.00,0.0031
3183.00,0.0031
3182.00,0.0031
3181.00,0.0031
3180.00,0.0031
3179.00,0.0030
3178.00,0.0030
3177.00,0.0030
3176.00,0.0030
3175.00,0.0030
3174.00,0.0030
3173.00,0.0030
3172.00,0.0030
3171.00,0.0030
3170.00,0.0030
3169.00,0.0030
3168.00,0.0030
3167.00,0.0030
3166.00,0.0029
3165.00,0.0029
3164.00,0.0029
3163.00,0.0029
3162.00,0.0029
3161.00,0.0029
3160.00,0.0029
3159.00,0.0029
3158.00,0.0029
3157.00,0.0029
3156.00,0.0029
3155.00,0.0029
3154.00,0.0029
3153.00,0.0029
3152.00,0.0029
3151.00,0.0029
3150.00,0.0029
3149.00,0.0030
3148.00,0.0030
3147.00,0.0030
3146.00,0.0030
3145.00,0.0030
3144.00,0.0030
3143.00,0.0030
3142.00,0.0030
3141.00,0.0030
3140.00,0.0030
3139.00,0.0030
3138.00,0.0029
3137.00,0.0029
3136.00,0.0029
3135.00,0.0029
3134.00,0.0029
3133.00,0.0029
3132.00,0.0028
3131.00,0.0028
3130.00,0.0028
3129.00,0.0028
3128.00,0.0028
3127.00,0.0028
3126.00,0.0028
3125.00,0.0028
3124.00,0.0028
3123.00,0.0028
3122.00,0.0028
3121.00,0.0027
3120.00,0.0027
3119.00,0.0026
3118.00,0.0026
3117.00,0.0026
3116.00,0.0026
3115.00,0.0026
3114.00,0.0026
3113.00,0.0026
3112.00,0.0027
3111.00,0.0027
3110.00,0.0026
3109.00,0.0026
3108.00,0.0026
3107.00,0.0026
3106.00,0.0026
3105.00,0.0026
3104.00,0.0026
3103.00,0.0026
3102.00,0.0026
3101.00,0.0026
3100.00,0.0026
3099.00,0.0026
3098.00,0.0027
3097.00,0.0027
3096.00,0.0027
3095.00,0.0026
3094.00,0.0026
3093.00,0.0026
3092.00,0.0026
3091.00,0.0026
3090.00,0.0026
3089.00,0.0027
3088.00,0.0027
3087.00,0.0027
3086.00,0.0026
3085.00,0.0026
3084.00,0.0026
3083.00,0.0026
3082.00,0.0026
3081.00,0.0026
3080.00,0.0026
3079.00,0.0026
3078.00,0.0026
3077.00,0.0027
3076.00,0.0027
3075.00,0.0027
3074.00,0.0027
3073.00,0.0027
3072.00,0.0027
3071.00,0.0027
3070.00,0.0027
3069.00,0.0027
3068.00,0.0027
3067.00,0.0028
3066.00,0.0028
3065.00,0.0028
3064.00,0.0028
3063.00,0.0028
3062.00,0.0028
3061.00,0.0028
3060.00,0.0028
3059.00,0.0028
3058.00,0.0028
3057.00,0.0029
3056.00,0.0029
3055.00,0.0029
3054.00,0.0029
3053.00,0.0029
3052.00,0.0030
3051.00,0.0030
3050.00,0.0030
3049.00,0.0030
3048.00,0.0030
3047.00,0.0031
3046.00,0.0031
3045.00,0.0031
3044.00,0.0031
3043.00,0.0031
3042.00,0.0031
3041.00,0.0031
3040.00,0.0032
3039.00,0.0032
3038.00,0.0032
3037.00,0.0032
3036.00,0.0033
3035.00,0.0033
3034.00,0.0033
3033.00,0.0034
3032.00,0.0034
3031.00,0.0034
3030.00,0.0035
3029.00,0.0035
3028.00,0.0035
3027.00,0.0035
3026.00,0.0035
3025.00,0.0036
3024.00,0.0037
3023.00,0.0037
3022.00,0.0038
3021.00,0.0039
3020.00,0.0039
3019.00,0.0040
3018.00,0.0041
3017.00,0.0042
3016.00,0.0044
3015.00,0.0045
3014.00,0.0046
3013.00,0.0047
3012.00,0.0048
3011.00,0.0050
3010.00,0.0052
3009.00,0.0054
3008.00,0.0056
3007.00,0.0057
3006.00,0.0059
3005.00,0.0061
3004.00,0.0063
3003.00,0.0065
3002.00,0.0068
3001.00,0.0070
3000.00,0.0073
2999.00,0.0076
2998.00,0.0080
2997.00,0.0083
2996.00,0.0086
2995.00,0.0089
2994.00,0.0093
2993.00,0.0096
2992.00,0.0101
2991.00,0.0105
2990.00,0.0111
2989.00,0.0117
2988.00,0.0124
2987.00,0.0132
2986.00,0.0141
2985.00,0.0152
2984.00,0.0164
2983.00,0.0177
2982.00,0.0191
2981.00,0.0205
2980.00,0.0220
2979.00,0.0238
2978.00,0.0258
2977.00,0.0281
2976.00,0.0308
2975.00,0.0340
2974.00,0.0376
2973.00,0.0418
2972.00,0.0466
2971.00,0.0519
2970.00,0.0578
2969.00,0.0642
2968.00,0.0713
2967.00,0.0789
2966.00,0.0870
2965.00,0.0953
2964.00,0.1034
2963.00,0.1111
2962.00,0.1178
2961.00,0.1233
2960.00,0.1274
2959.00,0.1303
2958.00,0.1327
2957.00,0.1349
2956.00,0.1376
2955.00,0.1410
2954.00,0.1450
2953.00,0.1491
2952.00,0.1526
2951.00,0.1545
2950.00,0.1541
2949.00,0.1508
2948.00,0.1447
2947.00,0.1362
2946.00,0.1263
2945.00,0.1161
2944.00,0.1066
2943.00,0.0985
2942.00,0.0923
2941.00,0.0881
2940.00,0.0857
2939.00,0.0852
2938.00,0.0862
2937.00,0.0886
2936.00,0.0923
2935.00,0.0971
2934.00,0.1029
2933.00,0.1096
2932.00,0.1171
2931.00,0.1252
2930.00,0.1338
2929.00,0.1425
2928.00,0.1512
2927.00,0.1595
2926.00,0.1674
2925.00,0.1749
2924.00,0.1821
2923.00,0.1891
2922.00,0.1959
2921.00,0.2022
2920.00,0.2075
2919.00,0.2112
2918.00,0.2126
2917.00,0.2113
2916.00,0.2073
2915.00,0.2014
2914.00,0.1941
2913.00,0.1866
2912.00,0.1793
2911.00,0.1727
2910.00,0.1669
2909.00,0.1618
2908.00,0.1571
2907.00,0.1526
2906.00,0.1481
2905.00,0.1433
2904.00,0.1383
2903.00,0.1331
2902.00,0.1279
2901.00,0.1227
2900.00,0.1177
2899.00,0.1129
2898.00,0.1084
2897.00,0.1042
2896.00,0.1005
2895.00,0.0973
2894.00,0.0945
2893.00,0.0922
2892.00,0.0904
2891.00,0.0889
2890.00,0.0879
2889.00,0.0871
2888.00,0.0867
2887.00,0.0866
2886.00,0.0867
2885.00,0.0871
2884.00,0.0878
2883.00,0.0889
2882.00,0.0902
2881.00,0.0917
2880.00,0.0932
2879.00,0.0943
2878.00,0.0948
2877.00,0.0947
2876.00,0.0942
2875.00,0.0936
2874.00,0.0932
2873.00,0.0933
2872.00,0.0940
2871.00,0.0952
2870.00,0.0966
2869.00,0.0979
2868.00,0.0985
2867.00,0.0980
2866.00,0.0957
2865.00,0.0918
2864.00,0.0865
2863.00,0.0806
2862.00,0.0749
2861.00,0.0699
2860.00,0.0661
2859.00,0.0636
2858.00,0.0622
2857.00,0.0618
2856.00,0.0621
2855.00,0.0630
2854.00,0.0642
2853.00,0.0657
2852.00,0.0672
2851.00,0.0686
2850.00,0.0698
2849.00,0.0709
2848.00,0.0720
2847.00,0.0736
2846.00,0.0758
2845.00,0.0789
2844.00,0.0828
2843.00,0.0873
2842.00,0.0919
2841.00,0.0962
2840.00,0.0995
2839.00,0.1011
2838.00,0.1005
2837.00,0.0974
2836.00,0.0919
2835.00,0.0845
2834.00,0.0760
2833.00,0.0672
2832.00,0.0590
2831.00,0.0517
2830.00,0.0456
2829.00,0.0405
2828.00,0.0365
2827.00,0.0331
2826.00,0.0304
2825.00,0.0281
2824.00,0.0262
2823.00,0.0246
2822.00,0.0232
2821.00,0.0221
2820.00,0.0210
2819.00,0.0201
2818.00,0.0193
2817.00,0.0186
2816.00,0.0180
2815.00,0.0175
2814.00,0.0170
2813.00,0.0165
2812.00,0.0160
2811.00,0.0156
2810.00,0.0151
2809.00,0.0147
2808.00,0.0143
2807.00,0.0138
2806.00,0.0133
2805.00,0.0127
2804.00,0.0122
2803.00,0.0118
2802.00,0.0114
2801.00,0.0110
2800.00,0.0108
2799.00,0.0105
2798.00,0.0103
2797.00,0.0101
2796.00,0.0099
2795.00,0.0097
2794.00,0.0095
2793.00,0.0093
2792.00,0.0090
2791.00,0.0087
2790.00,0.0085
2789.00,0.0082
2788.00,0.0079
2787.00,0.0076
2786.00,0.0074
2785.00,0.0072
2784.00,0.0070
2783.00,0.0069
2782.00,0.0067
2781.00,0.0065
2780.00,0.0064
2779.00,0.0063
2778.00,0.0061
2777.00,0.0060
2776.00,0.0060
2775.00,0.0059
2774.00,0.0058
2773.00,0.0057
2772.00,0.0056
2771.00,0.0056
2770.00,0.0056
2769.00,0.0055
2768.00,0.0055
2767.00,0.0055
2766.00,0.0054
2765.00,0.0054
2764.00,0.0054
2763.00,0.0054
2762.00,0.0053
2761.00,0.0053
2760.00,0.0053
2759.00,0.0053
2758.00,0.0052
2757.00,0.0052
2756.00,0.0052
2755.00,0.0052
2754.00,0.0052
2753.00,0.0052
2752.00,0.0051
2751.00,0.0051
2750.00,0.0051
2749.00,0.0051
2748.00,0.0051
2747.00,0.0052
2746.00,0.0052
2745.00,0.0053
2744.00,0.0053
2743.00,0.0054
2742.00,0.0054
2741.00,0.0055
2740.00,0.0056
2739.00,0.0057
2738.00,0.0058
2737.00,0.0059
2736.00,0.0060
2735.00,0.0061
2734.00,0.0062
2733.00,0.0063
2732.00,0.0065
2731.00,0.0067
2730.00,0.0068
2729.00,0.0070
2728.00,0.0072
2727.00,0.0074
2726.00,0.0076
2725.00,0.0078
2724.00,0.0079
2723.00,0.0080
2722.00,0.0079
2721.00,0.0077
2720.00,0.0075
2719.00,0.0073
2718.00,0.0070
2717.00,0.0068
2716.00,0.0065
2715.00,0.0063
2714.00,0.0061
2713.00,0.0059
2712.00,0.0058
2711.00,0.0057
2710.00,0.0056
2709.00,0.0055
2708.00,0.0053
2707.00,0.0052
2706.00,0.0051
2705.00,0.0050
2704.00,0.0050
2703.00,0.0049
2702.00,0.0048
2701.00,0.0048
2700.00,0.0047
2699.00,0.0047
2698.00,0.0046
2697.00,0.0046
2696.00,0.0046
2695.00,0.0046
2694.00,0.0047
2693.00,0.0046
2692.00,0.0046
2691.00,0.0046
2690.00,0.0046
2689.00,0.0046
2688.00,0.0046
2687.00,0.0046
2686.00,0.0046
2685.00,0.0046
2684.00,0.0046
2683.00,0.0046
2682.00,0.0046
2681.00,0.0046
2680.00,0.0047
2679.00,0.0047
2678.00,0.0047
2677.00,0.0047
2676.00,0.0047
2675.00,0.0046
2674.00,0.0046
2673.00,0.0046
2672.00,0.0046
2671.00,0.0046
2670.00,0.0046
2669.00,0.0046
2668.00,0.0046
2667.00,0.0046
2666.00,0.0046
2665.00,0.0046
2664.00,0.0047
2663.00,0.0048
2662.00,0.0048
2661.00,0.0048
2660.00,0.0048
2659.00,0.0048
2658.00,0.0048
2657.00,0.0048
2656.00,0.0048
2655.00,0.0048
2654.00,0.0047
2653.00,0.0047
2652.00,0.0046
2651.00,0.0046
2650.00,0.0046
2649.00,0.0046
2648.00,0.0045
2647.00,0.0045
2646.00,0.0044
2645.00,0.0044
2644.00,0.0043
2643.00,0.0043
2642.00,0.0043
2641.00,0.0043
2640.00,0.0042
2639.00,0.0042
2638.00,0.0042
2637.00,0.0042
2636.00,0.0042
2635.00,0.0041
2634.00,0.0041
2633.00,0.0041
2632.00,0.0040
2631.00,0.0041
2630.00,0.0041
2629.00,0.0041
2628.00,0.0042
2627.00,0.0042
2626.00,0.0042
2625.00,0.0042
2624.00,0.0042
2623.00,0.0042
2622.00,0.0041
2621.00,0.0041
2620.00,0.0040
2619.00,0.0040
2618.00,0.0041
2617.00,0.0041
2616.00,0.0041
2615.00,0.0041
2614.00,0.0041
2613.00,0.0040
2612.00,0.0040
2611.00,0.0040
2610.00,0.0039
2609.00,0.0039
2608.00,0.0039
2607.00,0.0038
2606.00,0.0037
2605.00,0.0036
2604.00,0.0035
2603.00,0.0035
2602.00,0.0035
2601.00,0.0035
2600.00,0.0036
2599.00,0.0036
2598.00,0.0036
2597.00,0.0035
2596.00,0.0035
2595.00,0.0035
2594.00,0.0035
2593.00,0.0035
2592.00,0.0035
2591.00,0.0036
2590.00,0.0036
2589.00,0.0037
2588.00,0.0037
2587.00,0.0038
2586.00,0.0038
2585.00,0.0039
2584.00,0.0039
2583.00,0.0040
2582.00,0.0040
2581.00,0.0040
2580.00,0.0039
2579.00,0.0038
2578.00,0.0036
2577.00,0.0035
2576.00,0.0035
2575.00,0.0034
2574.00,0.0033
2573.00,0.0032
2572.00,0.0031
2571.00,0.0031
2570.00,0.0030
2569.00,0.0029
2568.00,0.0028
2567.00,0.0028
2566.00,0.0027
2565.00,0.0027
2564.00,0.0027
2563.00,0.0027
2562.00,0.0027
2561.00,0.0028
2560.00,0.0028
2559.00,0.0029
2558.00,0.0028
2557.00,0.0028
2556.00,0.0027
2555.00,0.0027
2554.00,0.0027
2553.00,0.0026
2552.00,0.0026
2551.00,0.0026
2550.00,0.0025
2549.00,0.0024
2548.00,0.0024
2547.00,0.0024
2546.00,0.0024
2545.00,0.0024
2544.00,0.0023
2543.00,0.0023
2542.00,0.0022
2541.00,0.0022
2540.00,0.0021
2539.00,0.0021
2538.00,0.0021
2537.00,0.0021
2536.00,0.0021
2535.00,0.0022
2534.00,0.0022
2533.00,0.0022
2532.00,0.0022
2531.00,0.0021
2530.00,0.0021
2529.00,0.0020
2528.00,0.0020
2527.00,0.0020
2526.00,0.0020
2525.00,0.0020
2524.00,0.0020
2523.00,0.0020
2522.00,0.0020
2521.00,0.0018
2520.00,0.0017
2519.00,0.0017
2518.00,0.0017
2517.00,0.0017
2516.00,0.0018
2515.00,0.0018
2514.00,0.0018
2513.00,0.0017
2512.00,0.0016
2511.00,0.0016
2510.00,0.0015
2509.00,0.0015
2508.00,0.0014
2507.00,0.0014
2506.00,0.0014
2505.00,0.0015
2504.00,0.0016
2503.00,0.0016
2502.00,0.0016
2501.00,0.0016
2500.00,0.0016
2499.00,0.0016
2498.00,0.0016
2497.00,0.0017
2496.00,0.0017
2495.00,0.0017
2494.00,0.0016
2493.00,0.0016
2492.00,0.0016
2491.00,0.0016
2490.00,0.0016
2489.00,0.0016
2488.00,0.0016
2487.00,0.0016
2486.00,0.0016
2485.00,0.0016
2484.00,0.0016
2483.00,0.0016
2482.00,0.0016
2481.00,0.0016
2480.00,0.0016
2479.00,0.0016
2478.00,0.0015
2477.00,0.0015
2476.00,0.0016
2475.00,0.0016
2474.00,0.0016
2473.00,0.0016
2472.00,0.0016
2471.00,0.0015
2470.00,0.0015
2469.00,0.0014
2468.00,0.0014
2467.00,0.0014
2466.00,0.0015
2465.00,0.0015
2464.00,0.0015
2463.00,0.0015
2462.00,0.0016
2461.00,0.0016
2460.00,0.0016
2459.00,0.0016
2458.00,0.0016
2457.00,0.0016
2456.00,0.0016
2455.00,0.0016
2454.00,0.0016
2453.00,0.0017
2452.00,0.0017
2451.00,0.0018
2450.00,0.0018
2449.00,0.0017
2448.00,0.0017
2447.00,0.0017
2446.00,0.0017
2445.00,0.0016
2444.00,0.0016
2443.00,0.0015
2442.00,0.0015
2441.00,0.0014
2440.00,0.0014
2439.00,0.0015
2438.00,0.0015
2437.00,0.0016
2436.00,0.0016
2435.00,0.0016
2434.00,0.0016
2433.00,0.0016
2432.00,0.0016
2431.00,0.0017
2430.00,0.0017
2429.00,0.0016
2428.00,0.0016
2427.00,0.0015
2426.00,0.0015
2425.00,0.0016
2424.00,0.0016
2423.00,0.0015
2422.00,0.0015
2421.00,0.0014
2420.00,0.0014
2419.00,0.0014
2418.00,0.0014
2417.00,0.0014
2416.00,0.0014
2415.00,0.0014
2414.00,0.0015
2413.00,0.0016
2412.00,0.0016
2411.00,0.0017
2410.00,0.0016
2409.00,0.0016
2408.00,0.0015
2407.00,0.0014
2406.00,0.0014
2405.00,0.0014
2404.00,0.0014
2403.00,0.0015
2402.00,0.0015
2401.00,0.0015
2400.00,0.0015
2399.00,0.0014
2398.00,0.0014
2397.00,0.0014
2396.00,0.0014
2395.00,0.0013
2394.00,0.0013
2393.00,0.0013
2392.00,0.0013
2391.00,0.0013
2390.00,0.0012
2389.00,0.0012
2388.00,0.0013
2387.00,0.0013
2386.00,0.0013
2385.00,0.0013
2384.00,0.0012
2383.00,0.0011
2382.00,0.0010
2381.00,0.0009
2380.00,0.0009
2379.00,0.0010
2378.00,0.0010
2377.00,0.0010
2376.00,0.0010
2375.00,0.0011
2374.00,0.0011
2373.00,0.0011
2372.00,0.0010
2371.00,0.0010
2370.00,0.0010
2369.00,0.0010
2368.00,0.0010
2367.00,0.0010
2366.00,0.0010
2365.00,0.0010
2364.00,0.0010
2363.00,0.0010
2362.00,0.0010
2361.00,0.0010
2360.00,0.0011
2359.00,0.0011
2358.00,0.0011
2357.00,0.0011
2356.00,0.0011
2355.00,0.0011
2354.00,0.0011
2353.00,0.0011
2352.00,0.0011
2351.00,0.0011
2350.00,0.0011
2349.00,0.0011
2348.00,0.0011
2347.00,0.0012
2346.00,0.0013
2345.00,0.0012
2344.00,0.0012
2343.00,0.0013
2342.00,0.0013
2341.00,0.0013
2340.00,0.0013
2339.00,0.0013
2338.00,0.0013
2337.00,0.0013
2336.00,0.0013
2335.00,0.0014
2334.00,0.0014
2333.00,0.0014
2332.00,0.0013
2331.00,0.0012
2330.00,0.0012
2329.00,0.0013
2328.00,0.0014
2327.00,0.0017
2326.00,0.0021
2325.00,0.0024
2324.00,0.0024
2323.00,0.0023
2322.00,0.0021
2321.00,0.0019
2320.00,0.0018
2319.00,0.0017
2318.00,0.0017
2317.00,0.0017
2316.00,0.0016
2315.00,0.0015
2314.00,0.0015
2313.00,0.0015
2312.00,0.0014
2311.00,0.0014
2310.00,0.0013
2309.00,0.0012
2308.00,0.0012
2307.00,0.0012
2306.00,0.0012
2305.00,0.0013
2304.00,0.0013
2303.00,0.0014
2302.00,0.0015
2301.00,0.0016
2300.00,0.0016
2299.00,0.0016
2298.00,0.0016
2297.00,0.0016
2296.00,0.0016
2295.00,0.0017
2294.00,0.0017
2293.00,0.0018
2292.00,0.0019
2291.00,0.0020
2290.00,0.0021
2289.00,0.0021
2288.00,0.0022
2287.00,0.0022
2286.00,0.0022
2285.00,0.0022
2284.00,0.0021
2283.00,0.0020
2282.00,0.0020
2281.00,0.0020
2280.00,0.0019
2279.00,0.0018
2278.00,0.0017
2277.00,0.0017
2276.00,0.0017
2275.00,0.0017
2274.00,0.0017
2273.00,0.0017
2272.00,0.0017
2271.00,0.0016
2270.00,0.0015
2269.00,0.0015
2268.00,0.0015
2267.00,0.0015
2266.00,0.0016
2265.00,0.0017
2264.00,0.0017
2263.00,0.0016
2262.00,0.0015
2261.00,0.0015
2260.00,0.0015
2259.00,0.0016
2258.00,0.0017
2257.00,0.0018
2256.00,0.0018
2255.00,0.0016
2254.00,0.0015
2253.00,0.0014
2252.00,0.0013
2251.00,0.0013
2250.00,0.0014
2249.00,0.0015
2248.00,0.0016
2247.00,0.0016
2246.00,0.0016
2245.00,0.0016
2244.00,0.0016
2243.00,0.0017
2242.00,0.0017
2241.00,0.0016
2240.00,0.0015
2239.00,0.0013
2238.00,0.0011
2237.00,0.0009
2236.00,0.0009
2235.00,0.0010
2234.00,0.0011
2233.00,0.0011
2232.00,0.0012
2231.00,0.0013
2230.00,0.0012
2229.00,0.0012
2228.00,0.0012
2227.00,0.0013
2226.00,0.0014
2225.00,0.0015
2224.00,0.0015
2223.00,0.0014
2222.00,0.0014
2221.00,0.0014
2220.00,0.0013
2219.00,0.0012
2218.00,0.0010
2217.00,0.0010
2216.00,0.0010
2215.00,0.0011
2214.00,0.0013
2213.00,0.0013
2212.00,0.0014
2211.00,0.0014
2210.00,0.0013
2209.00,0.0012
2208.00,0.0010
2207.00,0.0009
2206.00,0.0009
2205.00,0.0009
2204.00,0.0009
2203.00,0.0009
2202.00,0.0008
2201.00,0.0009
2200.00,0.0010
2199.00,0.0011
2198.00,0.0012
2197.00,0.0012
2196.00,0.0013
2195.00,0.0013
2194.00,0.0013
2193.00,0.0012
2192.00,0.0013
2191.00,0.0014
2190.00,0.0016
2189.00,0.0017
2188.00,0.0017
2187.00,0.0017
2186.00,0.0016
2185.00,0.0014
2184.00,0.0013
2183.00,0.0011
2182.00,0.0008
2181.00,0.0007
2180.00,0.0008
2179.00,0.0011
2178.00,0.0013
2177.00,0.0014
2176.00,0.0013
2175.00,0.0011
2174.00,0.0009
2173.00,0.0009
2172.00,0.0009
2171.00,0.0010
2170.00,0.0011
2169.00,0.0013
2168.00,0.0016
2167.00,0.0018
2166.00,0.0020
2165.00,0.0022
2164.00,0.0022
2163.00,0.0021
2162.00,0.0020
2161.00,0.0015
2160.00,0.0005
2159.00,-0.0010
2158.00,-0.0023
2157.00,-0.0028
2156.00,-0.0025
2155.00,-0.0020
2154.00,-0.0015
2153.00,-0.0012
2152.00,-0.0012
2151.00,-0.0011
2150.00,-0.0012
2149.00,-0.0011
2148.00,-0.0010
2147.00,-0.0008
2146.00,-0.0006
2145.00,-0.0005
2144.00,-0.0005
2143.00,-0.0004
2142.00,-0.0003
2141.00,-0.0002
2140.00,-0.0001
2139.00,-0.0001
2138.00,-0.0002
2137.00,-0.0003
2136.00,-0.0003
2135.00,-0.0003
2134.00,-0.0004
2133.00,-0.0004
2132.00,-0.0004
2131.00,-0.0004
2130.00,-0.0003
2129.00,-0.0002
2128.00,-0.0001
2127.00,0.0000
2126.00,0.0001
2125.00,0.0002
2124.00,0.0002
2123.00,0.0002
2122.00,0.0003
2121.00,0.0004
2120.00,0.0004
2119.00,0.0005
2118.00,0.0004
2117.00,0.0004
2116.00,0.0004
2115.00,0.0005
2114.00,0.0006
2113.00,0.0007
2112.00,0.0008
2111.00,0.0008
2110.00,0.0007
2109.00,0.0006
2108.00,0.0005
2107.00,0.0004
2106.00,0.0004
2105.00,0.0006
2104.00,0.0007
2103.00,0.0007
2102.00,0.0006
2101.00,0.0005
2100.00,0.0004
2099.00,0.0004
2098.00,0.0005
2097.00,0.0004
2096.00,0.0003
2095.00,0.0001
2094.00,-0.0001
2093.00,-0.0001
2092.00,0.0000
2091.00,0.0002
2090.00,0.0004
2089.00,0.0006
2088.00,0.0008
2087.00,0.0009
2086.00,0.0010
2085.00,0.0010
2084.00,0.0010
2083.00,0.0010
2082.00,0.0010
2081.00,0.0010
2080.00,0.0009
2079.00,0.0008
2078.00,0.0007
2077.00,0.0007
2076.00,0.0006
2075.00,0.0005
2074.00,0.0005
2073.00,0.0005
2072.00,0.0005
2071.00,0.0005
2070.00,0.0005
2069.00,0.0005
2068.00,0.0006
2067.00,0.0005
2066.00,0.0004
2065.00,0.0003
2064.00,0.0004
2063.00,0.0004
2062.00,0.0004
2061.00,0.0004
2060.00,0.0004
2059.00,0.0004
2058.00,0.0006
2057.00,0.0007
2056.00,0.0008
2055.00,0.0007
2054.00,0.0007
2053.00,0.0009
2052.00,0.0013
2051.00,0.0014
2050.00,0.0013
2049.00,0.0009
2048.00,0.0005
2047.00,0.0002
2046.00,0.0001
2045.00,-0.0000
2044.00,-0.0000
2043.00,-0.0001
2042.00,-0.0000
2041.00,0.0000
2040.00,0.0001
2039.00,0.0001
2038.00,0.0002
2037.00,0.0002
2036.00,0.0003
2035.00,0.0003
2034.00,0.0003
2033.00,0.0003
2032.00,0.0002
2031.00,0.0000
2030.00,-0.0002
2029.00,-0.0004
2028.00,-0.0006
2027.00,-0.0006
2026.00,-0.0006
2025.00,-0.0005
2024.00,-0.0002
2023.00,0.0000
2022.00,0.0003
2021.00,0.0004
2020.00,0.0004
2019.00,0.0002
2018.00,-0.0001
2017.00,-0.0006
2016.00,-0.0010
2015.00,-0.0013
2014.00,-0.0012
2013.00,-0.0008
2012.00,-0.0004
2011.00,-0.0000
2010.00,-0.0000
2009.00,-0.0002
2008.00,-0.0006
2007.00,-0.0010
2006.00,-0.0011
2005.00,-0.0010
2004.00,-0.0008
2003.00,-0.0007
2002.00,-0.0005
2001.00,-0.0004
2000.00,-0.0004
1999.00,-0.0004
1998.00,-0.0006
1997.00,-0.0009
1996.00,-0.0010
1995.00,-0.0011
1994.00,-0.0010
1993.00,-0.0009
1992.00,-0.0006
1991.00,-0.0002
1990.00,0.0001
1989.00,0.0003
1988.00,0.0002
1987.00,0.0000
1986.00,-0.0001
1985.00,-0.0002
1984.00,-0.0001
1983.00,0.0001
1982.00,0.0004
1981.00,0.0007
1980.00,0.0009
1979.00,0.0008
1978.00,0.0003
1977.00,-0.0002
1976.00,-0.0006
1975.00,-0.0007
1974.00,-0.0005
1973.00,-0.0001
1972.00,0.0002
1971.00,0.0003
1970.00,0.0001
1969.00,-0.0002
1968.00,-0.0005
1967.00,-0.0007
1966.00,-0.0008
1965.00,-0.0008
1964.00,-0.0006
1963.00,-0.0006
1962.00,-0.0007
1961.00,-0.0008
1960.00,-0.0010
1959.00,-0.0011
1958.00,-0.0012
1957.00,-0.0010
1956.00,-0.0008
1955.00,-0.0006
1954.00,-0.0006
1953.00,-0.0008
1952.00,-0.0010
1951.00,-0.0012
1950.00,-0.0013
1949.00,-0.0012
1948.00,-0.0011
1947.00,-0.0009
1946.00,-0.0008
1945.00,-0.0007
1944.00,-0.0007
1943.00,-0.0007
1942.00,-0.0007
1941.00,-0.0007
1940.00,-0.0006
1939.00,-0.0006
1938.00,-0.0006
1937.00,-0.0006
1936.00,-0.0006
1935.00,-0.0006
1934.00,-0.0005
1933.00,-0.0003
1932.00,-0.0003
1931.00,-0.0003
1930.00,-0.0004
1929.00,-0.0005
1928.00,-0.0006
1927.00,-0.0005
1926.00,-0.0005
1925.00,-0.0004
1924.00,-0.0003
1923.00,-0.0002
1922.00,-0.0001
1921.00,0.0000
1920.00,0.0002
1919.00,0.0003
1918.00,0.0003
1917.00,0.0003
1916.00,0.0002
1915.00,0.0002
1914.00,0.0002
1913.00,0.0001
1912.00,0.0001
1911.00,-0.0000
1910.00,-0.0000
1909.00,0.0001
1908.00,0.0002
1907.00,0.0003
1906.00,0.0004
1905.00,0.0004
1904.00,0.0004
1903.00,0.0003
1902.00,0.0003
1901.00,0.0003
1900.00,0.0003
1899.00,0.0003
1898.00,0.0002
1897.00,0.0002
1896.00,0.0002
1895.00,0.0001
1894.00,0.0001
1893.00,0.0001
1892.00,0.0002
1891.00,0.0004
1890.00,0.0006
1889.00,0.0006
1888.00,0.0006
1887.00,0.0005
1886.00,0.0003
1885.00,0.0003
1884.00,0.0002
1883.00,0.0002
1882.00,0.0003
1881.00,0.0004
1880.00,0.0004
1879.00,0.0004
1878.00,0.0003
1877.00,0.0003
1876.00,0.0003
1875.00,0.0003
1874.00,0.0003
1873.00,0.0004
1872.00,0.0004
1871.00,0.0005
1870.00,0.0005
1869.00,0.0005
1868.00,0.0005
1867.00,0.0004
1866.00,0.0004
1865.00,0.0003
1864.00,0.0004
1863.00,0.0004
1862.00,0.0005
1861.00,0.0004
1860.00,0.0004
1859.00,0.0004
1858.00,0.0004
1857.00,0.0005
1856.00,0.0006
1855.00,0.0007
1854.00,0.0006
1853.00,0.0006
1852.00,0.0006
1851.00,0.0005
1850.00,0.0005
1849.00,0.0004
1848.00,0.0004
1847.00,0.0004
1846.00,0.0004
1845.00,0.0005
1844.00,0.0006
1843.00,0.0007
1842.00,0.0007
1841.00,0.0007
1840.00,0.0007
1839.00,0.0007
1838.00,0.0007
1837.00,0.0007
1836.00,0.0007
1835.00,0.0007
1834.00,0.0007
1833.00,0.0007
1832.00,0.0007
1831.00,0.0007
1830.00,0.0007
1829.00,0.0007
1828.00,0.0007
1827.00,0.0007
1826.00,0.0007
1825.00,0.0007
1824.00,0.0008
1823.00,0.0008
1822.00,0.0008
1821.00,0.0008
1820.00,0.0007
1819.00,0.0006
1818.00,0.0005
1817.00,0.0004
1816.00,0.0005
1815.00,0.0005
1814.00,0.0005
1813.00,0.0005
1812.00,0.0005
1811.00,0.0006
1810.00,0.0007
1809.00,0.0008
1808.00,0.0008
1807.00,0.0009
1806.00,0.0009
1805.00,0.0009
1804.00,0.0009
1803.00,0.0009
1802.00,0.0009
1801.00,0.0009
1800.00,0.0009
1799.00,0.0009
1798.00,0.0009
1797.00,0.0010
1796.00,0.0010
1795.00,0.0010
1794.00,0.0010
1793.00,0.0010
1792.00,0.0010
1791.00,0.0010
1790.00,0.0010
1789.00,0.0010
1788.00,0.0010
1787.00,0.0011
1786.00,0.0011
1785.00,0.0011
1784.00,0.0012
1783.00,0.0012
1782.00,0.0012
1781.00,0.0012
1780.00,0.0012
1779.00,0.0012
1778.00,0.0011
1777.00,0.0011
1776.00,0.0011
1775.00,0.0011
1774.00,0.0012
1773.00,0.0012
1772.00,0.0013
1771.00,0.0013
1770.00,0.0013
1769.00,0.0013
1768.00,0.0013
1767.00,0.0014
1766.00,0.0014
1765.00,0.0015
1764.00,0.0015
1763.00,0.0015
1762.00,0.0016
1761.00,0.0017
1760.00,0.0018
1759.00,0.0019
1758.00,0.0021
1757.00,0.0022
1756.00,0.0022
1755.00,0.0023
1754.00,0.0023
1753.00,0.0024
1752.00,0.0025
1751.00,0.0026
1750.00,0.0027
1749.00,0.0028
1748.00,0.0028
1747.00,0.0027
1746.00,0.0027
1745.00,0.0027
1744.00,0.0027
1743.00,0.0027
1742.00,0.0027
1741.00,0.0027
1740.00,0.0027
1739.00,0.0027
1738.00,0.0026
1737.00,0.0026
1736.00,0.0026
1735.00,0.0025
1734.00,0.0025
1733.00,0.0025
1732.00,0.0025
1731.00,0.0024
1730.00,0.0024
1729.00,0.0024
1728.00,0.0024
1727.00,0.0024
1726.00,0.0024
1725.00,0.0024
1724.00,0.0024
1723.00,0.0025
1722.00,0.0025
1721.00,0.0025
1720.00,0.0025
1719.00,0.0024
1718.00,0.0024
1717.00,0.0023
1716.00,0.0023
1715.00,0.0023
1714.00,0.0023
1713.00,0.0023
1712.00,0.0023
1711.00,0.0023
1710.00,0.0023
1709.00,0.0022
1708.00,0.0022
1707.00,0.0022
1706.00,0.0022
1705.00,0.0023
1704.00,0.0023
1703.00,0.0023
1702.00,0.0023
1701.00,0.0023
1700.00,0.0023
1699.00,0.0022
1698.00,0.0022
1697.00,0.0022
1696.00,0.0024
1695.00,0.0025
1694.00,0.0025
1693.00,0.0026
1692.00,0.0026
1691.00,0.0026
1690.00,0.0026
1689.00,0.0027
1688.00,0.0027
1687.00,0.0027
1686.00,0.0027
1685.00,0.0027
1684.00,0.0027
1683.00,0.0027
1682.00,0.0027
1681.00,0.0027
1680.00,0.0028
1679.00,0.0028
1678.00,0.0028
1677.00,0.0029
1676.00,0.0030
1675.00,0.0031
1674.00,0.0031
1673.00,0.0031
1672.00,0.0031
1671.00,0.0030
1670.00,0.0030
1669.00,0.0030
1668.00,0.0030
1667.00,0.0030
1666.00,0.0030
1665.00,0.0030
1664.00,0.0030
1663.00,0.0031
1662.00,0.0031
1661.00,0.0032
1660.00,0.0032
1659.00,0.0032
1658.00,0.0032
1657.00,0.0033
1656.00,0.0034
1655.00,0.0034
1654.00,0.0033
1653.00,0.0033
1652.00,0.0033
1651.00,0.0033
1650.00,0.0033
1649.00,0.0034
1648.00,0.0034
1647.00,0.0035
1646.00,0.0036
1645.00,0.0036
1644.00,0.0037
1643.00,0.0037
1642.00,0.0037
1641.00,0.0038
1640.00,0.0038
1639.00,0.0039
1638.00,0.0039
1637.00,0.0040
1636.00,0.0040
1635.00,0.0040
1634.00,0.0039
1633.00,0.0039
1632.00,0.0038
1631.00,0.0038
1630.00,0.0037
1629.00,0.0037
1628.00,0.0037
1627.00,0.0036
1626.00,0.0036
1625.00,0.0035
1624.00,0.0035
1623.00,0.0035
1622.00,0.0035
1621.00,0.0035
1620.00,0.0035
1619.00,0.0035
1618.00,0.0035
1617.00,0.0034
1616.00,0.0034
1615.00,0.0034
1614.00,0.0034
1613.00,0.0034
1612.00,0.0034
1611.00,0.0035
1610.00,0.0034
1609.00,0.0034
1608.00,0.0034
1607.00,0.0034
1606.00,0.0034
1605.00,0.0034
1604.00,0.0034
1603.00,0.0035
1602.00,0.0035
1601.00,0.0035
1600.00,0.0035
1599.00,0.0035
1598.00,0.0035
1597.00,0.0035
1596.00,0.0035
1595.00,0.0035
1594.00,0.0035
1593.00,0.0036
1592.00,0.0036
1591.00,0.0035
1590.00,0.0035
1589.00,0.0035
1588.00,0.0036
1587.00,0.0036
1586.00,0.0036
1585.00,0.0037
1584.00,0.0037
1583.00,0.0038
1582.00,0.0038
1581.00,0.0039
1580.00,0.0039
1579.00,0.0040
1578.00,0.0040
1577.00,0.0040
1576.00,0.0041
1575.00,0.0041
1574.00,0.0041
1573.00,0.0041
1572.00,0.0040
1571.00,0.0040
1570.00,0.0040
1569.00,0.0041
1568.00,0.0041
1567.00,0.0041
1566.00,0.0041
1565.00,0.0041
1564.00,0.0041
1563.00,0.0040
1562.00,0.0040
1561.00,0.0041
1560.00,0.0041
1559.00,0.0040
1558.00,0.0040
1557.00,0.0040
1556.00,0.0040
1555.00,0.0040
1554.00,0.0041
1553.00,0.0041
1552.00,0.0042
1551.00,0.0042
1550.00,0.0042
1549.00,0.0042
1548.00,0.0042
1547.00,0.0042
1546.00,0.0042
1545.00,0.0043
1544.00,0.0043
1543.00,0.0043
1542.00,0.0044
1541.00,0.0045
1540.00,0.0046
1539.00,0.0046
1538.00,0.0045
1537.00,0.0044
1536.00,0.0043
1535.00,0.0042
1534.00,0.0041
1533.00,0.0041
1532.00,0.0040
1531.00,0.0040
1530.00,0.0040
1529.00,0.0040
1528.00,0.0040
1527.00,0.0040
1526.00,0.0040
1525.00,0.0041
1524.00,0.0041
1523.00,0.0041
1522.00,0.0040
1521.00,0.0041
1520.00,0.0041
1519.00,0.0042
1518.00,0.0043
1517.00,0.0044
1516.00,0.0045
1515.00,0.0046
1514.00,0.0046
1513.00,0.0047
1512.00,0.0047
1511.00,0.0048
1510.00,0.0048
1509.00,0.0048
1508.00,0.0049
1507.00,0.0050
1506.00,0.0052
1505.00,0.0053
1504.00,0.0054
1503.00,0.0054
1502.00,0.0055
1501.00,0.0057
1500.00,0.0059
1499.00,0.0061
1498.00,0.0063
1497.00,0.0065
1496.00,0.0068
1495.00,0.0069
1494.00,0.0070
1493.00,0.0073
1492.00,0.0075
1491.00,0.0078
1490.00,0.0082
1489.00,0.0086
1488.00,0.0090
1487.00,0.0094
1486.00,0.0098
1485.00,0.0103
1484.00,0.0109
1483.00,0.0114
1482.00,0.0121
1481.00,0.0130
1480.00,0.0139
1479.00,0.0148
1478.00,0.0160
1477.00,0.0177
1476.00,0.0199
1475.00,0.0225
1474.00,0.0260
1473.00,0.0309
1472.00,0.0367
1471.00,0.0422
1470.00,0.0475
1469.00,0.0530
1468.00,0.0589
1467.00,0.0654
1466.00,0.0728
1465.00,0.0809
1464.00,0.0879
1463.00,0.0926
1462.00,0.0954
1461.00,0.0971
1460.00,0.0981
1459.00,0.0989
1458.00,0.0999
1457.00,0.1012
1456.00,0.1017
1455.00,0.1011
1454.00,0.1000
1453.00,0.0983
1452.00,0.0960
1451.00,0.0928
1450.00,0.0884
1449.00,0.0825
1448.00,0.0750
1447.00,0.0672
1446.00,0.0599
1445.00,0.0537
1444.00,0.0482
1443.00,0.0438
1442.00,0.0404
1441.00,0.0381
1440.00,0.0366
1439.00,0.0359
1438.00,0.0358
1437.00,0.0358
1436.00,0.0350
1435.00,0.0329
1434.00,0.0298
1433.00,0.0262
1432.00,0.0226
1431.00,0.0194
1430.00,0.0169
1429.00,0.0151
1428.00,0.0138
1427.00,0.0129
1426.00,0.0124
1425.00,0.0119
1424.00,0.0114
1423.00,0.0111
1422.00,0.0109
1421.00,0.0106
1420.00,0.0104
1419.00,0.0102
1418.00,0.0101
1417.00,0.0100
1416.00,0.0098
1415.00,0.0097
1414.00,0.0096
1413.00,0.0095
1412.00,0.0094
1411.00,0.0094
1410.00,0.0094
1409.00,0.0093
1408.00,0.0092
1407.00,0.0092
1406.00,0.0093
1405.00,0.0094
1404.00,0.0095
1403.00,0.0096
1402.00,0.0099
1401.00,0.0100
1400.00,0.0101
1399.00,0.0103
1398.00,0.0106
1397.00,0.0107
1396.00,0.0109
1395.00,0.0113
1394.00,0.0117
1393.00,0.0122
1392.00,0.0127
1391.00,0.0134
1390.00,0.0143
1389.00,0.0155
1388.00,0.0174
1387.00,0.0201
1386.00,0.0238
1385.00,0.0287
1384.00,0.0354
1383.00,0.0449
1382.00,0.0575
1381.00,0.0737
1380.00,0.0933
1379.00,0.1152
1378.00,0.1355
1377.00,0.1495
1376.00,0.1529
1375.00,0.1441
1374.00,0.1255
1373.00,0.1037
1372.00,0.0838
1371.00,0.0674
1370.00,0.0545
1369.00,0.0448
1368.00,0.0382
1367.00,0.0341
1366.00,0.0319
1365.00,0.0309
1364.00,0.0311
1363.00,0.0321
1362.00,0.0337
1361.00,0.0354
1360.00,0.0367
1359.00,0.0370
1358.00,0.0361
1357.00,0.0340
1356.00,0.0311
1355.00,0.0279
1354.00,0.0249
1353.00,0.0222
1352.00,0.0200
1351.00,0.0183
1350.00,0.0169
1349.00,0.0157
1348.00,0.0147
1347.00,0.0139
1346.00,0.0131
1345.00,0.0125
1344.00,0.0119
1343.00,0.0115
1342.00,0.0112
1341.00,0.0110
1340.00,0.0108
1339.00,0.0107
1338.00,0.0106
1337.00,0.0105
1336.00,0.0106
1335.00,0.0107
1334.00,0.0109
1333.00,0.0112
1332.00,0.0115
1331.00,0.0118
1330.00,0.0119
1329.00,0.0118
1328.00,0.0115
1327.00,0.0111
1326.00,0.0106
1325.00,0.0102
1324.00,0.0097
1323.00,0.0093
1322.00,0.0090
1321.00,0.0088
1320.00,0.0085
1319.00,0.0083
1318.00,0.0082
1317.00,0.0081
1316.00,0.0080
1315.00,0.0080
1314.00,0.0080
1313.00,0.0081
1312.00,0.0082
1311.00,0.0084
1310.00,0.0088
1309.00,0.0094
1308.00,0.0102
1307.00,0.0112
1306.00,0.0123
1305.00,0.0130
1304.00,0.0132
1303.00,0.0129
1302.00,0.0123
1301.00,0.0118
1300.00,0.0115
1299.00,0.0113
1298.00,0.0113
1297.00,0.0113
1296.00,0.0112
1295.00,0.0110
1294.00,0.0106
1293.00,0.0102
1292.00,0.0097
1291.00,0.0094
1290.00,0.0090
1289.00,0.0087
1288.00,0.0085
1287.00,0.0082
1286.00,0.0081
1285.00,0.0080
1284.00,0.0079
1283.00,0.0078
1282.00,0.0077
1281.00,0.0076
1280.00,0.0076
1279.00,0.0075
1278.00,0.0074
1277.00,0.0074
1276.00,0.0074
1275.00,0.0075
1274.00,0.0075
1273.00,0.0075
1272.00,0.0075
1271.00,0.0075
1270.00,0.0076
1269.00,0.0078
1268.00,0.0080
1267.00,0.0082
1266.00,0.0084
1265.00,0.0086
1264.00,0.0088
1263.00,0.0090
1262.00,0.0093
1261.00,0.0097
1260.00,0.0102
1259.00,0.0109
1258.00,0.0116
1257.00,0.0121
1256.00,0.0124
1255.00,0.0123
1254.00,0.0118
1253.00,0.0110
1252.00,0.0102
1251.00,0.0096
1250.00,0.0091
1249.00,0.0087
1248.00,0.0084
1247.00,0.0082
1246.00,0.0080
1245.00,0.0078
1244.00,0.0076
1243.00,0.0075
1242.00,0.0074
1241.00,0.0074
1240.00,0.0073
1239.00,0.0073
1238.00,0.0073
1237.00,0.0073
1236.00,0.0073
1235.00,0.0073
1234.00,0.0073
1233.00,0.0073
1232.00,0.0073
1231.00,0.0073
1230.00,0.0074
1229.00,0.0074
1228.00,0.0074
1227.00,0.0075
1226.00,0.0077
1225.00,0.0079
1224.00,0.0082
1223.00,0.0084
1222.00,0.0087
1221.00,0.0089
1220.00,0.0090
1219.00,0.0090
1218.00,0.0089
1217.00,0.0087
1216.00,0.0085
1215.00,0.0082
1214.00,0.0080
1213.00,0.0078
1212.00,0.0077
1211.00,0.0076
1210.00,0.0075
1209.00,0.0074
1208.00,0.0073
1207.00,0.0073
1206.00,0.0072
1205.00,0.0072
1204.00,0.0072
1203.00,0.0071
1202.00,0.0071
1201.00,0.0070
1200.00,0.0070
1199.00,0.0070
1198.00,0.0070
1197.00,0.0070
1196.00,0.0070
1195.00,0.0070
1194.00,0.0071
1193.00,0.0072
1192.00,0.0073
1191.00,0.0074
1190.00,0.0073
1189.00,0.0073
1188.00,0.0074
1187.00,0.0075
1186.00,0.0076
1185.00,0.0077
1184.00,0.0078
1183.00,0.0080
1182.00,0.0082
1181.00,0.0084
1180.00,0.0088
1179.00,0.0092
1178.00,0.0099
1177.00,0.0107
1176.00,0.0118
1175.00,0.0133
1174.00,0.0151
1173.00,0.0173
1172.00,0.0201
1171.00,0.0232
1170.00,0.0261
1169.00,0.0285
1168.00,0.0299
1167.00,0.0300
1166.00,0.0292
1165.00,0.0278
1164.00,0.0261
1163.00,0.0245
1162.00,0.0231
1161.00,0.0219
1160.00,0.0210
1159.00,0.0202
1158.00,0.0197
1157.00,0.0193
1156.00,0.0190
1155.00,0.0188
1154.00,0.0186
1153.00,0.0183
1152.00,0.0179
1151.00,0.0173
1150.00,0.0165
1149.00,0.0157
1148.00,0.0148
1147.00,0.0139
1146.00,0.0131
1145.00,0.0123
1144.00,0.0116
1143.00,0.0109
1142.00,0.0103
1141.00,0.0098
1140.00,0.0094
1139.00,0.0090
1138.00,0.0087
1137.00,0.0083
1136.00,0.0080
1135.00,0.0077
1134.00,0.0075
1133.00,0.0073
1132.00,0.0072
1131.00,0.0071
1130.00,0.0071
1129.00,0.0071
1128.00,0.0071
1127.00,0.0071
1126.00,0.0071
1125.00,0.0071
1124.00,0.0071
1123.00,0.0070
1122.00,0.0070
1121.00,0.0070
1120.00,0.0071
1119.00,0.0072
1118.00,0.0074
1117.00,0.0075
1116.00,0.0076
1115.00,0.0077
1114.00,0.0077
1113.00,0.0078
1112.00,0.0078
1111.00,0.0080
1110.00,0.0082
1109.00,0.0086
1108.00,0.0091
1107.00,0.0096
1106.00,0.0101
1105.00,0.0106
1104.00,0.0109
1103.00,0.0111
1102.00,0.0110
1101.00,0.0107
1100.00,0.0102
1099.00,0.0097
1098.00,0.0093
1097.00,0.0089
1096.00,0.0086
1095.00,0.0083
1094.00,0.0082
1093.00,0.0080
1092.00,0.0079
1091.00,0.0077
1090.00,0.0076
1089.00,0.0075
1088.00,0.0075
1087.00,0.0075
1086.00,0.0075
1085.00,0.0076
1084.00,0.0076
1083.00,0.0076
1082.00,0.0076
1081.00,0.0075
1080.00,0.0075
1079.00,0.0074
1078.00,0.0074
1077.00,0.0073
1076.00,0.0073
1075.00,0.0072
1074.00,0.0072
1073.00,0.0072
1072.00,0.0072
1071.00,0.0072
1070.00,0.0071
1069.00,0.0071
1068.00,0.0071
1067.00,0.0071
1066.00,0.0071
1065.00,0.0072
1064.00,0.0072
1063.00,0.0073
1062.00,0.0074
1061.00,0.0075
1060.00,0.0075
1059.00,0.0075
1058.00,0.0076
1057.00,0.0077
1056.00,0.0079
1055.00,0.0082
1054.00,0.0084
1053.00,0.0087
1052.00,0.0089
1051.00,0.0093
1050.00,0.0096
1049.00,0.0100
1048.00,0.0104
1047.00,0.0109
1046.00,0.0112
1045.00,0.0115
1044.00,0.0115
1043.00,0.0113
1042.00,0.0110
1041.00,0.0107
1040.00,0.0105
1039.00,0.0103
1038.00,0.0102
1037.00,0.0102
1036.00,0.0101
1035.00,0.0100
1034.00,0.0100
1033.00,0.0099
1032.00,0.0099
1031.00,0.0099
1030.00,0.0100
1029.00,0.0100
1028.00,0.0101
1027.00,0.0102
1026.00,0.0103
1025.00,0.0105
1024.00,0.0107
1023.00,0.0109
1022.00,0.0112
1021.00,0.0114
1020.00,0.0117
1019.00,0.0118
1018.00,0.0119
1017.00,0.0119
1016.00,0.0119
1015.00,0.0119
1014.00,0.0118
1013.00,0.0118
1012.00,0.0118
1011.00,0.0119
1010.00,0.0121
1009.00,0.0123
1008.00,0.0126
1007.00,0.0130
1006.00,0.0136
1005.00,0.0146
1004.00,0.0161
1003.00,0.0183
1002.00,0.0212
1001.00,0.0248
1000.00,0.0286
999.00,0.0318
998.00,0.0334
997.00,0.0328
996.00,0.0303
995.00,0.0266
994.00,0.0227
993.00,0.0193
992.00,0.0167
991.00,0.0146
990.00,0.0132
989.00,0.0122
988.00,0.0117
987.00,0.0113
986.00,0.0113
985.00,0.0114
984.00,0.0118
983.00,0.0125
982.00,0.0135
981.00,0.0149
980.00,0.0169
979.00,0.0196
978.00,0.0230
977.00,0.0270
976.00,0.0313
975.00,0.0355
974.00,0.0386
973.00,0.0399
972.00,0.0387
971.00,0.0352
970.00,0.0303
969.00,0.0252
968.00,0.0210
967.00,0.0177
966.00,0.0154
965.00,0.0137
964.00,0.0124
963.00,0.0115
962.00,0.0108
961.00,0.0102
960.00,0.0098
959.00,0.0095
958.00,0.0093
957.00,0.0091
956.00,0.0089
955.00,0.0088
954.00,0.0086
953.00,0.0085
952.00,0.0085
951.00,0.0084
950.00,0.0083
949.00,0.0081
948.00,0.0079
947.00,0.0079
946.00,0.0080
945.00,0.0081
944.00,0.0084
943.00,0.0088
942.00,0.0092
941.00,0.0095
940.00,0.0095
939.00,0.0092
938.00,0.0086
937.00,0.0081
936.00,0.0075
935.00,0.0071
934.00,0.0068
933.00,0.0065
932.00,0.0063
931.00,0.0061
930.00,0.0060
929.00,0.0060
928.00,0.0060
927.00,0.0060
926.00,0.0060
925.00,0.0060
924.00,0.0060
923.00,0.0061
922.00,0.0061
921.00,0.0061
920.00,0.0060
919.00,0.0060
918.00,0.0059
917.00,0.0059
916.00,0.0060
915.00,0.0061
914.00,0.0063
913.00,0.0065
912.00,0.0066
911.00,0.0068
910.00,0.0068
909.00,0.0069
908.00,0.0070
907.00,0.0074
906.00,0.0080
905.00,0.0090
904.00,0.0102
903.00,0.0116
902.00,0.0132
901.00,0.0145
900.00,0.0154
899.00,0.0155
898.00,0.0149
897.00,0.0136
896.00,0.0120
895.00,0.0106
894.00,0.0093
893.00,0.0084
892.00,0.0077
891.00,0.0073
890.00,0.0071
889.00,0.0070
888.00,0.0069
887.00,0.0069
886.00,0.0069
885.00,0.0068
884.00,0.0067
883.00,0.0066
882.00,0.0065
881.00,0.0065
880.00,0.0065
879.00,0.0066
878.00,0.0067
877.00,0.0069
876.00,0.0070
875.00,0.0071
874.00,0.0071
873.00,0.0070
872.00,0.0069
871.00,0.0069
870.00,0.0070
869.00,0.0071
868.00,0.0072
867.00,0.0073
866.00,0.0073
865.00,0.0073
864.00,0.0074
863.00,0.0074
862.00,0.0076
861.00,0.0077
860.00,0.0078
859.00,0.0080
858.00,0.0082
857.00,0.0083
856.00,0.0084
855.00,0.0086
854.00,0.0088
853.00,0.0091
852.00,0.0093
851.00,0.0097
850.00,0.0101
849.00,0.0106
848.00,0.0113
847.00,0.0126
846.00,0.0146
845.00,0.0177
844.00,0.0222
843.00,0.0274
842.00,0.0318
841.00,0.0334
840.00,0.0313
839.00,0.0267
838.00,0.0215
837.00,0.0173
836.00,0.0146
835.00,0.0129
834.00,0.0117
833.00,0.0109
832.00,0.0104
831.00,0.0101
830.00,0.0098
829.00,0.0096
828.00,0.0093
827.00,0.0091
826.00,0.0089
825.00,0.0089
824.00,0.0089
823.00,0.0089
822.00,0.0091
821.00,0.0092
820.00,0.0094
819.00,0.0096
818.00,0.0100
817.00,0.0106
816.00,0.0114
815.00,0.0123
814.00,0.0134
813.00,0.0148
812.00,0.0165
811.00,0.0181
810.00,0.0193
809.00,0.0197
808.00,0.0193
807.00,0.0182
806.00,0.0166
805.00,0.0149
804.00,0.0134
803.00,0.0122
802.00,0.0113
801.00,0.0108
800.00,0.0104
799.00,0.0102
798.00,0.0100
797.00,0.0097
796.00,0.0093
795.00,0.0090
794.00,0.0087
793.00,0.0085
792.00,0.0082
791.00,0.0080
790.00,0.0077
789.00,0.0075
788.00,0.0074
787.00,0.0072
786.00,0.0070
785.00,0.0068
784.00,0.0066
783.00,0.0065
782.00,0.0064
781.00,0.0063
780.00,0.0061
779.00,0.0060
778.00,0.0059
777.00,0.0059
776.00,0.0059
775.00,0.0060
774.00,0.0060
773.00,0.0060
772.00,0.0060
771.00,0.0059
770.00,0.0059
769.00,0.0059
768.00,0.0059
767.00,0.0059
766.00,0.0059
765.00,0.0059
764.00,0.0059
763.00,0.0061
762.00,0.0063
761.00,0.0064
760.00,0.0064
759.00,0.0063
758.00,0.0064
757.00,0.0065
756.00,0.0066
755.00,0.0068
754.00,0.0068
753.00,0.0068
752.00,0.0068
751.00,0.0069
750.00,0.0069
749.00,0.0071
748.00,0.0073
747.00,0.0076
746.00,0.0077
745.00,0.0078
744.00,0.0078
743.00,0.0079
742.00,0.0081
741.00,0.0085
740.00,0.0089
739.00,0.0093
738.00,0.0096
737.00,0.0099
736.00,0.0101
735.00,0.0104
734.00,0.0108
733.00,0.0113
732.00,0.0119
731.00,0.0125
730.00,0.0130
729.00,0.0133
728.00,0.0134
727.00,0.0135
726.00,0.0136
725.00,0.0139
724.00,0.0144
723.00,0.0151
722.00,0.0157
721.00,0.0160
720.00,0.0158
719.00,0.0151
718.00,0.0142
717.00,0.0131
716.00,0.0121
715.00,0.0112
714.00,0.0105
713.00,0.0100
712.00,0.0098
711.00,0.0097
710.00,0.0096
709.00,0.0094
708.00,0.0093
707.00,0.0093
706.00,0.0092
705.00,0.0092
704.00,0.0090
703.00,0.0088
702.00,0.0085
701.00,0.0081
700.00,0.0079
699.00,0.0078
698.00,0.0078
697.00,0.0079
696.00,0.0080
695.00,0.0081
694.00,0.0082
693.00,0.0083
692.00,0.0084
691.00,0.0083
690.00,0.0082
689.00,0.0082
688.00,0.0082
687.00,0.0081
686.00,0.0080
685.00,0.0077
684.00,0.0076
683.00,0.0077
682.00,0.0080
681.00,0.0082
680.00,0.0084
679.00,0.0085
678.00,0.0085
677.00,0.0085
676.00,0.0086
675.00,0.0087
674.00,0.0089
673.00,0.0090
672.00,0.0091
671.00,0.0092
670.00,0.0094
669.00,0.0095
668.00,0.0095
667.00,0.0093
666.00,0.0089
665.00,0.0085
664.00,0.0083
663.00,0.0083
662.00,0.0084
661.00,0.0085
660.00,0.0085
659.00,0.0084
658.00,0.0083
657.00,0.0081
656.00,0.0079
655.00,0.0076
654.00,0.0073
653.00,0.0072
652.00,0.0072
651.00,0.0072
650.00,0.0073
649.00,0.0074
648.00,0.0074
647.00,0.0074
646.00,0.0075
645.00,0.0075
644.00,0.0075
643.00,0.0074
642.00,0.0073
641.00,0.0073
640.00,0.0073
639.00,0.0073
638.00,0.0075
637.00,0.0078
636.00,0.0079
635.00,0.0079
634.00,0.0076
633.00,0.0074
632.00,0.0072
631.00,0.0073
630.00,0.0075
629.00,0.0077
628.00,0.0078
627.00,0.0078
626.00,0.0078
625.00,0.0078
624.00,0.0077
623.00,0.0078
622.00,0.0079
621.00,0.0080
620.00,0.0080
619.00,0.0078
618.00,0.0073
617.00,0.0069
616.00,0.0068
615.00,0.0069
614.00,0.0071
613.00,0.0071
612.00,0.0072
611.00,0.0074
610.00,0.0077
609.00,0.0080
608.00,0.0080
607.00,0.0078
606.00,0.0077
605.00,0.0077
604.00,0.0078
603.00,0.0078
602.00,0.0076
601.00,0.0074
600.00,0.0073
599.00,0.0075
598.00,0.0078
597.00,0.0081
596.00,0.0083
595.00,0.0084
594.00,0.0084
593.00,0.0081
592.00,0.0079
591.00,0.0076
590.00,0.0076
589.00,0.0077
588.00,0.0077
587.00,0.0077
586.00,0.0078
585.00,0.0081
584.00,0.0084
583.00,0.0085
582.00,0.0083
581.00,0.0080
580.00,0.0075
579.00,0.0072
578.00,0.0070
577.00,0.0071
576.00,0.0072
575.00,0.0073
574.00,0.0072
573.00,0.0070
572.00,0.0069
571.00,0.0070
570.00,0.0072
569.00,0.0074
568.00,0.0075
567.00,0.0076
566.00,0.0077
565.00,0.0078
564.00,0.0080
563.00,0.0080
562.00,0.0081
561.00,0.0084
560.00,0.0088
559.00,0.0091
558.00,0.0091
557.00,0.0088
556.00,0.0083
555.00,0.0077
554.00,0.0073
553.00,0.0072
552.00,0.0074
551.00,0.0077
550.00,0.0081
549.00,0.0084
548.00,0.0087
547.00,0.0088
546.00,0.0087
545.00,0.0087
544.00,0.0087
543.00,0.0087
542.00,0.0087
541.00,0.0088
540.00,0.0090
539.00,0.0093
538.00,0.0096
537.00,0.0099
536.00,0.0103
535.00,0.0106
534.00,0.0109
533.00,0.0111
532.00,0.0111
531.00,0.0108
530.00,0.0104
529.00,0.0099
528.00,0.0095
527.00,0.0093
526.00,0.0090
525.00,0.0087
524.00,0.0083
523.00,0.0081
522.00,0.0079
521.00,0.0079
520.00,0.0077
519.00,0.0074
518.00,0.0070
517.00,0.0068
516.00,0.0071
515.00,0.0078
514.00,0.0083
513.00,0.0085
512.00,0.0084
511.00,0.0083
510.00,0.0082
509.00,0.0084
508.00,0.0087
507.00,0.0087
506.00,0.0085
505.00,0.0083
504.00,0.0086
503.00,0.0095
502.00,0.0104
501.00,0.0107
500.00,0.0103
499.00,0.0096
498.00,0.0088
497.00,0.0083
496.00,0.0082
495.00,0.0084
494.00,0.0084
493.00,0.0083
492.00,0.0084
491.00,0.0091
490.00,0.0100
489.00,0.0106
488.00,0.0104
487.00,0.0098
486.00,0.0094
485.00,0.0094
484.00,0.0097
483.00,0.0098
482.00,0.0097
481.00,0.0095
480.00,0.0096
479.00,0.0102
478.00,0.0111
477.00,0.0120
476.00,0.0125
475.00,0.0128
474.00,0.0130
473.00,0.0134
472.00,0.0135
471.00,0.0132
470.00,0.0127
469.00,0.0125
468.00,0.0130
467.00,0.0137
466.00,0.0145
465.00,0.0152
464.00,0.0161
463.00,0.0173
462.00,0.0183
461.00,0.0192
460.00,0.0202
459.00,0.0213
458.00,0.0217
457.00,0.0210
456.00,0.0198
455.00,0.0189
454.00,0.0185
453.00,0.0180
452.00,0.0166
451.00,0.0146
450.00,0.0125
