Created as New Dataset,Sample 118 By Administrator Date Wednesday, September 03 2025
cm-1,A
4000.00,0.0010
3999.00,0.0010
3998.00,0.0010
3997.00,0.0010
3996.00,0.0010
3995.00,0.0010
3994.00,0.0010
3993.00,0.0010
3992.00,0.0010
3991.00,0.0010
3990.00,0.0010
3989.00,0.0010
3988.00,0.0010
3987.00,0.0010
3986.00,0.0010
3985.00,0.0010
3984.00,0.0010
3983.00,0.0010
3982.00,0.0009
3981.00,0.0009
3980.00,0.0009
3979.00,0.0009
3978.00,0.0008
3977.00,0.0008
3976.00,0.0008
3975.00,0.0008
3974.00,0.0008
3973.00,0.0008
3972.00,0.0008
3971.00,0.0008
3970.00,0.0008
3969.00,0.0008
3968.00,0.0008
3967.00,0.0008
3966.00,0.0008
3965.00,0.0009
3964.00,0.0009
3963.00,0.0009
3962.00,0.0008
3961.00,0.0008
3960.00,0.0008
3959.00,0.0008
3958.00,0.0008
3957.00,0.0008
3956.00,0.0008
3955.00,0.0007
3954.00,0.0007
3953.00,0.0007
3952.00,0.0008
3951.00,0.0008
3950.00,0.0008
3949.00,0.0008
3948.00,0.0008
3947.00,0.0008
3946.00,0.0008
3945.00,0.0008
3944.00,0.0008
3943.00,0.0008
3942.00,0.0008
3941.00,0.0008
3940.00,0.0008
3939.00,0.0008
3938.00,0.0008
3937.00,0.0009
3936.00,0.0009
3935.00,0.0009
3934.00,0.0009
3933.00,0.0009
3932.00,0.0009
3931.00,0.0009
3930.00,0.0008
3929.00,0.0008
3928.00,0.0009
3927.00,0.0009
3926.00,0.0009
3925.00,0.0009
3924.00,0.0009
3923.00,0.0008
3922.00,0.0008
3921.00,0.0009
3920.00,0.0009
3919.00,0.0009
3918.00,0.0009
3917.00,0.0008
3916.00,0.0008
3915.00,0.0008
3914.00,0.0008
3913.00,0.0008
3912.00,0.0008
3911.00,0.0007
3910.00,0.0007
3909.00,0.0007
3908.00,0.0007
3907.00,0.0007
3906.00,0.0007
3905.00,0.0007
3904.00,0.0007
3903.00,0.0007
3902.00,0.0007
3901.00,0.0007
3900.00,0.0007
3899.00,0.0007
3898.00,0.0007
3897.00,0.0007
3896.00,0.0007
3895.00,0.0008
3894.00,0.0008
3893.00,0.0008
3892.00,0.0008
3891.00,0.0008
3890.00,0.0008
3889.00,0.0008
3888.00,0.0008
3887.00,0.0008
3886.00,0.0007
3885.00,0.0007
3884.00,0.0007
3883.00,0.0007
3882.00,0.0007
3881.00,0.0008
3880.00,0.0008
3879.00,0.0008
3878.00,0.0008
3877.00,0.0007
3876.00,0.0007
3875.00,0.0007
3874.00,0.0007
3873.00,0.0007
3872.00,0.0007
3871.00,0.0006
3870.00,0.0006
3869.00,0.0006
3868.00,0.0006
3867.00,0.0006
3866.00,0.0006
3865.00,0.0006
3864.00,0.0006
3863.00,0.0006
3862.00,0.0007
3861.00,0.0007
3860.00,0.0007
3859.00,0.0008
3858.00,0.0008
3857.00,0.0009
3856.00,0.0009
3855.00,0.0009
3854.00,0.0008
3853.00,0.0007
3852.00,0.0007
3851.00,0.0006
3850.00,0.0006
3849.00,0.0006
3848.00,0.0007
3847.00,0.0007
3846.00,0.0007
3845.00,0.0007
3844.00,0.0006
3843.00,0.0006
3842.00,0.0006
3841.00,0.0006
3840.00,0.0006
3839.00,0.0006
3838.00,0.0006
3837.00,0.0006
3836.00,0.0006
3835.00,0.0006
3834.00,0.0006
3833.00,0.0006
3832.00,0.0006
3831.00,0.0007
3830.00,0.0007
3829.00,0.0007
3828.00,0.0007
3827.00,0.0007
3826.00,0.0007
3825.00,0.0007
3824.00,0.0007
3823.00,0.0006
3822.00,0.0005
3821.00,0.0005
3820.00,0.0005
3819.00,0.0006
3818.00,0.0007
3817.00,0.0008
3816.00,0.0008
3815.00,0.0008
3814.00,0.0007
3813.00,0.0007
3812.00,0.0007
3811.00,0.0007
3810.00,0.0007
3809.00,0.0008
3808.00,0.0008
3807.00,0.0007
3806.00,0.0007
3805.00,0.0007
3804.00,0.0006
3803.00,0.0006
3802.00,0.0006
3801.00,0.0006
3800.00,0.0007
3799.00,0.0007
3798.00,0.0008
3797.00,0.0008
3796.00,0.0008
3795.00,0.0008
3794.00,0.0008
3793.00,0.0008
3792.00,0.0008
3791.00,0.0008
3790.00,0.0007
3789.00,0.0007
3788.00,0.0007
3787.00,0.0007
3786.00,0.0007
3785.00,0.0007
3784.00,0.0007
3783.00,0.0007
3782.00,0.0007
3781.00,0.0007
3780.00,0.0007
3779.00,0.0008
3778.00,0.0007
3777.00,0.0007
3776.00,0.0007
3775.00,0.0007
3774.00,0.0007
3773.00,0.0007
3772.00,0.0007
3771.00,0.0007
3770.00,0.0007
3769.00,0.0007
3768.00,0.0008
3767.00,0.0008
3766.00,0.0008
3765.00,0.0008
3764.00,0.0008
3763.00,0.0008
3762.00,0.0008
3761.00,0.0007
3760.00,0.0007
3759.00,0.0007
3758.00,0.0007
3757.00,0.0007
3756.00,0.0007
3755.00,0.0007
3754.00,0.0006
3753.00,0.0006
3752.00,0.0006
3751.00,0.0007
3750.00,0.0007
3749.00,0.0007
3748.00,0.0007
3747.00,0.0007
3746.00,0.0008
3745.00,0.0008
3744.00,0.0008
3743.00,0.0008
3742.00,0.0007
3741.00,0.0007
3740.00,0.0006
3739.00,0.0006
3738.00,0.0005
3737.00,0.0005
3736.00,0.0004
3735.00,0.0004
3734.00,0.0004
3733.00,0.0004
3732.00,0.0004
3731.00,0.0004
3730.00,0.0004
3729.00,0.0004
3728.00,0.0005
3727.00,0.0005
3726.00,0.0005
3725.00,0.0005
3724.00,0.0006
3723.00,0.0006
3722.00,0.0006
3721.00,0.0006
3720.00,0.0005
3719.00,0.0005
3718.00,0.0005
3717.00,0.0006
3716.00,0.0006
3715.00,0.0006
3714.00,0.0006
3713.00,0.0006
3712.00,0.0006
3711.00,0.0005
3710.00,0.0005
3709.00,0.0005
3708.00,0.0005
3707.00,0.0005
3706.00,0.0006
3705.00,0.0006
3704.00,0.0006
3703.00,0.0006
3702.00,0.0006
3701.00,0.0006
3700.00,0.0007
3699.00,0.0007
3698.00,0.0007
3697.00,0.0006
3696.00,0.0006
3695.00,0.0006
3694.00,0.0005
3693.00,0.0005
3692.00,0.0005
3691.00,0.0005
3690.00,0.0005
3689.00,0.0005
3688.00,0.0005
3687.00,0.0005
3686.00,0.0006
3685.00,0.0006
3684.00,0.0007
3683.00,0.0007
3682.00,0.0007
3681.00,0.0007
3680.00,0.0007
3679.00,0.0007
3678.00,0.0008
3677.00,0.0007
3676.00,0.0007
3675.00,0.0007
3674.00,0.0007
3673.00,0.0007
3672.00,0.0007
3671.00,0.0007
3670.00,0.0007
3669.00,0.0007
3668.00,0.0008
3667.00,0.0008
3666.00,0.0008
3665.00,0.0008
3664.00,0.0008
3663.00,0.0007
3662.00,0.0007
3661.00,0.0007
3660.00,0.0007
3659.00,0.0007
3658.00,0.0007
3657.00,0.0007
3656.00,0.0007
3655.00,0.0007
3654.00,0.0007
3653.00,0.0007
3652.00,0.0006
3651.00,0.0006
3650.00,0.0006
3649.00,0.0006
3648.00,0.0006
3647.00,0.0007
3646.00,0.0008
3645.00,0.0008
3644.00,0.0008
3643.00,0.0008
3642.00,0.0008
3641.00,0.0007
3640.00,0.0007
3639.00,0.0007
3638.00,0.0007
3637.00,0.0008
3636.00,0.0008
3635.00,0.0008
3634.00,0.0008
3633.00,0.0008
3632.00,0.0007
3631.00,0.0007
3630.00,0.0007
3629.00,0.0007
3628.00,0.0007
3627.00,0.0006
3626.00,0.0007
3625.00,0.0007
3624.00,0.0007
3623.00,0.0007
3622.00,0.0007
3621.00,0.0007
3620.00,0.0007
3619.00,0.0007
3618.00,0.0007
3617.00,0.0007
3616.00,0.0007
3615.00,0.0007
3614.00,0.0007
3613.00,0.0007
3612.00,0.0008
3611.00,0.0008
3610.00,0.0009
3609.00,0.0009
3608.00,0.0009
3607.00,0.0008
3606.00,0.0008
3605.00,0.0008
3604.00,0.0008
3603.00,0.0008
3602.00,0.0008
3601.00,0.0008
3600.00,0.0008
3599.00,0.0008
3598.00,0.0009
3597.00,0.0009
3596.00,0.0009
3595.00,0.0009
3594.00,0.0009
3593.00,0.0010
3592.00,0.0010
3591.00,0.0011
3590.00,0.0010
3589.00,0.0010
3588.00,0.0009
3587.00,0.0009
3586.00,0.0009
3585.00,0.0009
3584.00,0.0010
3583.00,0.0010
3582.00,0.0011
3581.00,0.0011
3580.00,0.0011
3579.00,0.0011
3578.00,0.0012
3577.00,0.0012
3576.00,0.0012
3575.00,0.0012
3574.00,0.0013
3573.00,0.0013
3572.00,0.0013
3571.00,0.0013
3570.00,0.0013
3569.00,0.0013
3568.00,0.0014
3567.00,0.0014
3566.00,0.0014
3565.00,0.0014
3564.00,0.0014
3563.00,0.0013
3562.00,0.0013
3561.00,0.0013
3560.00,0.0013
3559.00,0.0013
3558.00,0.0013
3557.00,0.0014
3556.00,0.0014
3555.00,0.0014
3554.00,0.0015
3553.00,0.0015
3552.00,0.0015
3551.00,0.0015
3550.00,0.0016
3549.00,0.0016
3548.00,0.0016
3547.00,0.0016
3546.00,0.0016
3545.00,0.0016
3544.00,0.0017
3543.00,0.0017
3542.00,0.0017
3541.00,0.0017
3540.00,0.0017
3539.00,0.0018
3538.00,0.0018
3537.00,0.0018
3536.00,0.0018
3535.00,0.0018
3534.00,0.0018
3533.00,0.0018
3532.00,0.0018
3531.00,0.0018
3530.00,0.0018
3529.00,0.0018
3528.00,0.0018
3527.00,0.0019
3526.00,0.0019
3525.00,0.0019
3524.00,0.0020
3523.00,0.0020
3522.00,0.0020
3521.00,0.0020
3520.00,0.0020
3519.00,0.0021
3518.00,0.0021
3517.00,0.0021
3516.00,0.0021
3515.00,0.0022
3514.00,0.0022
3513.00,0.0021
3512.00,0.0021
3511.00,0.0021
3510.00,0.0022
3509.00,0.0022
3508.00,0.0022
3507.00,0.0021
3506.00,0.0021
3505.00,0.0021
3504.00,0.0021
3503.00,0.0021
3502.00,0.0022
3501.00,0.0022
3500.00,0.0023
3499.00,0.0023
3498.00,0.0023
3497.00,0.0023
3496.00,0.0023
3495.00,0.0023
3494.00,0.0023
3493.00,0.0024
3492.00,0.0025
3491.00,0.0025
3490.00,0.0025
3489.00,0.0026
3488.00,0.0026
3487.00,0.0026
3486.00,0.0025
3485.00,0.0025
3484.00,0.0025
3483.00,0.0025
3482.00,0.0026
3481.00,0.0026
3480.00,0.0026
3479.00,0.0026
3478.00,0.0026
3477.00,0.0026
3476.00,0.0026
3475.00,0.0026
3474.00,0.0027
3473.00,0.0027
3472.00,0.0027
3471.00,0.0027
3470.00,0.0027
3469.00,0.0028
3468.00,0.0028
3467.00,0.0027
3466.00,0.0027
3465.00,0.0027
3464.00,0.0027
3463.00,0.0028
3462.00,0.0028
3461.00,0.0028
3460.00,0.0029
3459.00,0.0029
3458.00,0.0029
3457.00,0.0030
3456.00,0.0030
3455.00,0.0030
3454.00,0.0030
3453.00,0.0030
3452.00,0.0030
3451.00,0.0030
3450.00,0.0030
3449.00,0.0030
3448.00,0.0030
3447.00,0.0031
3446.00,0.0031
3445.00,0.0031
3444.00,0.0031
3443.00,0.0031
3442.00,0.0031
3441.00,0.0032
3440.00,0.0032
3439.00,0.0032
3438.00,0.0033
3437.00,0.0033
3436.00,0.0033
3435.00,0.0033
3434.00,0.0034
3433.00,0.0033
3432.00,0.0033
3431.00,0.0033
3430.00,0.0033
3429.00,0.0034
3428.00,0.0034
3427.00,0.0034
3426.00,0.0035
3425.00,0.0035
3424.00,0.0035
3423.00,0.0035
3422.00,0.0035
3421.00,0.0035
3420.00,0.0035
3419.00,0.0036
3418.00,0.0036
3417.00,0.0036
3416.00,0.0036
3415.00,0.0036
3414.00,0.0036
3413.00,0.0036
3412.00,0.0037
3411.00,0.0037
3410.00,0.0037
3409.00,0.0037
3408.00,0.0037
3407.00,0.0038
3406.00,0.0038
3405.00,0.0039
3404.00,0.0039
3403.00,0.0039
3402.00,0.0039
3401.00,0.0039
3400.00,0.0039
3399.00,0.0039
3398.00,0.0039
3397.00,0.0039
3396.00,0.0039
3395.00,0.0039
3394.00,0.0039
3393.00,0.0039
3392.00,0.0040
3391.00,0.0040
3390.00,0.0040
3389.00,0.0040
3388.00,0.0040
3387.00,0.0040
3386.00,0.0039
3385.00,0.0039
3384.00,0.0039
3383.00,0.0039
3382.00,0.0039
3381.00,0.0038
3380.00,0.0038
3379.00,0.0039
3378.00,0.0039
3377.00,0.0039
3376.00,0.0039
3375.00,0.0039
3374.00,0.0039
3373.00,0.0039
3372.00,0.0039
3371.00,0.0039
3370.00,0.0039
3369.00,0.0039
3368.00,0.0039
3367.00,0.0039
3366.00,0.0039
3365.00,0.0040
3364.00,0.0040
3363.00,0.0040
3362.00,0.0040
3361.00,0.0040
3360.00,0.0040
3359.00,0.0040
3358.00,0.0041
3357.00,0.0041
3356.00,0.0041
3355.00,0.0042
3354.00,0.0042
3353.00,0.0041
3352.00,0.0041
3351.00,0.0041
3350.00,0.0041
3349.00,0.0041
3348.00,0.0041
3347.00,0.0041
3346.00,0.0041
3345.00,0.0042
3344.00,0.0042
3343.00,0.0042
3342.00,0.0042
3341.00,0.0042
3340.00,0.0042
3339.00,0.0042
3338.00,0.0042
3337.00,0.0042
3336.00,0.0042
3335.00,0.0041
3334.00,0.0041
3333.00,0.0041
3332.00,0.0041
3331.00,0.0041
3330.00,0.0041
3329.00,0.0041
3328.00,0.0040
3327.00,0.0040
3326.00,0.0040
3325.00,0.0040
3324.00,0.0040
3323.00,0.0040
3322.00,0.0040
3321.00,0.0040
3320.00,0.0040
3319.00,0.0040
3318.00,0.0040
3317.00,0.0040
3316.00,0.0040
3315.00,0.0041
3314.00,0.0041
3313.00,0.0041
3312.00,0.0041
3311.00,0.0041
3310.00,0.0042
3309.00,0.0042
3308.00,0.0042
3307.00,0.0043
3306.00,0.0043
3305.00,0.0043
3304.00,0.0043
3303.00,0.0042
3302.00,0.0042
3301.00,0.0042
3300.00,0.0042
3299.00,0.0041
3298.00,0.0041
3297.00,0.0041
3296.00,0.0041
3295.00,0.0041
3294.00,0.0041
3293.00,0.0041
3292.00,0.0041
3291.00,0.0041
3290.00,0.0040
3289.00,0.0040
3288.00,0.0040
3287.00,0.0040
3286.00,0.0040
3285.00,0.0040
3284.00,0.0040
3283.00,0.0040
3282.00,0.0040
3281.00,0.0040
3280.00,0.0040
3279.00,0.0039
3278.00,0.0039
3277.00,0.0039
3276.00,0.0039
3275.00,0.0039
3274.00,0.0039
3273.00,0.0039
3272.00,0.0039
3271.00,0.0039
3270.00,0.0039
3269.00,0.0039
3268.00,0.0039
3267.00,0.0038
3266.00,0.0038
3265.00,0.0038
3264.00,0.0038
3263.00,0.0038
3262.00,0.0038
3261.00,0.0037
3260.00,0.0037
3259.00,0.0037
3258.00,0.0036
3257.00,0.0036
3256.00,0.0036
3255.00,0.0036
3254.00,0.0036
3253.00,0.0036
3252.00,0.0036
3251.00,0.0036
3250.00,0.0036
3249.00,0.0036
3248.00,0.0035
3247.00,0.0035
3246.00,0.0035
3245.00,0.0035
3244.00,0.0036
3243.00,0.0036
3242.00,0.0036
3241.00,0.0036
3240.00,0.0037
3239.00,0.0037
3238.00,0.0037
3237.00,0.0036
3236.00,0.0035
3235.00,0.0035
3234.00,0.0035
3233.00,0.0036
3232.00,0.0036
3231.00,0.0036
3230.00,0.0037
3229.00,0.0037
3228.00,0.0037
3227.00,0.0037
3226.00,0.0037
3225.00,0.0037
3224.00,0.0037
3223.00,0.0037
3222.00,0.0037
3221.00,0.0037
3220.00,0.0038
3219.00,0.0038
3218.00,0.0038
3217.00,0.0038
3216.00,0.0038
3215.00,0.0038
3214.00,0.0038
3213.00,0.0038
3212.00,0.0039
3211.00,0.0039
3210.00,0.0040
3209.00,0.0040
3208.00,0.0040
3207.00,0.0040
3206.00,0.0040
3205.00,0.0041
3204.00,0.0041
3203.00,0.0041
3202.00,0.0041
3201.00,0.0041
3200.00,0.0041
3199.00,0.0041
3198.00,0.0041
3197.00,0.0042
3196.00,0.0041
3195.00,0.0041
3194.00,0.0041
3193.00,0.0041
3192.00,0.0040
3191.00,0.0040
3190.00,0.0040
3189.00,0.0040
3188.00,0.0040
3187.00,0.0040
3186.00,0.0040
3185.00,0.0039
3184.00,0.0039
3183.00,0.0039
3182.00,0.0038
3181.00,0.0038
3180.00,0.0038
3179.00,0.0038
3178.00,0.0038
3177.00,0.0038
3176.00,0.0038
3175.00,0.0037
3174.00,0.0037
3173.00,0.0037
3172.00,0.0037
3171.00,0.0037
3170.00,0.0037
3169.00,0.0037
3168.00,0.0037
3167.00,0.0037
3166.00,0.0037
3165.00,0.0037
3164.00,0.0036
3163.00,0.0036
3162.00,0.0036
3161.00,0.0035
3160.00,0.0035
3159.00,0.0035
3158.00,0.0035
3157.00,0.0035
3156.00,0.0035
3155.00,0.0035
3154.00,0.0035
3153.00,0.0035
3152.00,0.0035
3151.00,0.0035
3150.00,0.0035
3149.00,0.0035
3148.00,0.0035
3147.00,0.0035
3146.00,0.0035
3145.00,0.0035
3144.00,0.0035
3143.00,0.0035
3142.00,0.0035
3141.00,0.0035
3140.00,0.0034
3139.00,0.0034
3138.00,0.0033
3137.00,0.0033
3136.00,0.0033
3135.00,0.0033
3134.00,0.0034
3133.00,0.0034
3132.00,0.0033
3131.00,0.0033
3130.00,0.0032
3129.00,0.0032
3128.00,0.0032
3127.00,0.0032
3126.00,0.0032
3125.00,0.0032
3124.00,0.0032
3123.00,0.0031
3122.00,0.0031
3121.00,0.0031
3120.00,0.0030
3119.00,0.0030
3118.00,0.0030
3117.00,0.0030
3116.00,0.0030
3115.00,0.0030
3114.00,0.0030
3113.00,0.0030
3112.00,0.0030
3111.00,0.0030
3110.00,0.0030
3109.00,0.0029
3108.00,0.0029
3107.00,0.0029
3106.00,0.0029
3105.00,0.0030
3104.00,0.0030
3103.00,0.0029
3102.00,0.0029
3101.00,0.0029
3100.00,0.0029
3099.00,0.0029
3098.00,0.0029
3097.00,0.0029
3096.00,0.0029
3095.00,0.0029
3094.00,0.0029
3093.00,0.0029
3092.00,0.0029
3091.00,0.0029
3090.00,0.0029
3089.00,0.0029
3088.00,0.0029
3087.00,0.0029
3086.00,0.0029
3085.00,0.0029
3084.00,0.0029
3083.00,0.0029
3082.00,0.0029
3081.00,0.0030
3080.00,0.0030
3079.00,0.0030
3078.00,0.0030
3077.00,0.0030
3076.00,0.0030
3075.00,0.0031
3074.00,0.0031
3073.00,0.0031
3072.00,0.0030
3071.00,0.0030
3070.00,0.0030
3069.00,0.0031
3068.00,0.0031
3067.00,0.0031
3066.00,0.0032
3065.00,0.0032
3064.00,0.0032
3063.00,0.0033
3062.00,0.0033
3061.00,0.0033
3060.00,0.0033
3059.00,0.0033
3058.00,0.0033
3057.00,0.0033
3056.00,0.0033
3055.00,0.0033
3054.00,0.0033
3053.00,0.0033
3052.00,0.0034
3051.00,0.0034
3050.00,0.0034
3049.00,0.0035
3048.00,0.0035
3047.00,0.0035
3046.00,0.0035
3045.00,0.0036
3044.00,0.0036
3043.00,0.0036
3042.00,0.0036
3041.00,0.0036
3040.00,0.0037
3039.00,0.0038
3038.00,0.0038
3037.00,0.0038
3036.00,0.0038
3035.00,0.0038
3034.00,0.0038
3033.00,0.0038
3032.00,0.0039
3031.00,0.0039
3030.00,0.0040
3029.00,0.0040
3028.00,0.0041
3027.00,0.0041
3026.00,0.0042
3025.00,0.0043
3024.00,0.0043
3023.00,0.0044
3022.00,0.0045
3021.00,0.0046
3020.00,0.0047
3019.00,0.0048
3018.00,0.0049
3017.00,0.0050
3016.00,0.0051
3015.00,0.0052
3014.00,0.0053
3013.00,0.0055
3012.00,0.0056
3011.00,0.0058
3010.00,0.0060
3009.00,0.0062
3008.00,0.0064
3007.00,0.0066
3006.00,0.0069
3005.00,0.0071
3004.00,0.0074
3003.00,0.0076
3002.00,0.0079
3001.00,0.0081
3000.00,0.0084
2999.00,0.0087
2998.00,0.0091
2997.00,0.0094
2996.00,0.0098
2995.00,0.0102
2994.00,0.0106
2993.00,0.0111
2992.00,0.0116
2991.00,0.0121
2990.00,0.0127
2989.00,0.0135
2988.00,0.0143
2987.00,0.0152
2986.00,0.0163
2985.00,0.0175
2984.00,0.0189
2983.00,0.0203
2982.00,0.0219
2981.00,0.0235
2980.00,0.0253
2979.00,0.0273
2978.00,0.0296
2977.00,0.0323
2976.00,0.0353
2975.00,0.0389
2974.00,0.0429
2973.00,0.0475
2972.00,0.0527
2971.00,0.0584
2970.00,0.0647
2969.00,0.0715
2968.00,0.0789
2967.00,0.0866
2966.00,0.0947
2965.00,0.1028
2964.00,0.1106
2963.00,0.1177
2962.00,0.1240
2961.00,0.1292
2960.00,0.1335
2959.00,0.1375
2958.00,0.1415
2957.00,0.1462
2956.00,0.1519
2955.00,0.1588
2954.00,0.1666
2953.00,0.1746
2952.00,0.1819
2951.00,0.1872
2950.00,0.1894
2949.00,0.1876
2948.00,0.1817
2947.00,0.1723
2946.00,0.1606
2945.00,0.1480
2944.00,0.1361
2943.00,0.1257
2942.00,0.1177
2941.00,0.1122
2940.00,0.1091
2939.00,0.1084
2938.00,0.1097
2937.00,0.1128
2936.00,0.1176
2935.00,0.1239
2934.00,0.1315
2933.00,0.1404
2932.00,0.1504
2931.00,0.1613
2930.00,0.1730
2929.00,0.1850
2928.00,0.1971
2927.00,0.2090
2926.00,0.2206
2925.00,0.2318
2924.00,0.2428
2923.00,0.2537
2922.00,0.2645
2921.00,0.2750
2920.00,0.2844
2919.00,0.2915
2918.00,0.2953
2917.00,0.2949
2916.00,0.2900
2915.00,0.2813
2914.00,0.2700
2913.00,0.2577
2912.00,0.2454
2911.00,0.2340
2910.00,0.2238
2909.00,0.2146
2908.00,0.2063
2907.00,0.1985
2906.00,0.1909
2905.00,0.1834
2904.00,0.1761
2903.00,0.1688
2902.00,0.1618
2901.00,0.1550
2900.00,0.1484
2899.00,0.1423
2898.00,0.1366
2897.00,0.1314
2896.00,0.1266
2895.00,0.1225
2894.00,0.1189
2893.00,0.1160
2892.00,0.1137
2891.00,0.1119
2890.00,0.1107
2889.00,0.1099
2888.00,0.1095
2887.00,0.1094
2886.00,0.1097
2885.00,0.1103
2884.00,0.1114
2883.00,0.1131
2882.00,0.1152
2881.00,0.1176
2880.00,0.1200
2879.00,0.1220
2878.00,0.1234
2877.00,0.1238
2876.00,0.1236
2875.00,0.1229
2874.00,0.1223
2873.00,0.1223
2872.00,0.1230
2871.00,0.1244
2870.00,0.1263
2869.00,0.1282
2868.00,0.1293
2867.00,0.1290
2866.00,0.1265
2865.00,0.1217
2864.00,0.1151
2863.00,0.1074
2862.00,0.0997
2861.00,0.0931
2860.00,0.0879
2859.00,0.0843
2858.00,0.0824
2857.00,0.0817
2856.00,0.0821
2855.00,0.0832
2854.00,0.0850
2853.00,0.0870
2852.00,0.0890
2851.00,0.0907
2850.00,0.0919
2849.00,0.0927
2848.00,0.0933
2847.00,0.0942
2846.00,0.0958
2845.00,0.0985
2844.00,0.1023
2843.00,0.1068
2842.00,0.1118
2841.00,0.1164
2840.00,0.1201
2839.00,0.1219
2838.00,0.1213
2837.00,0.1177
2836.00,0.1112
2835.00,0.1024
2834.00,0.0922
2833.00,0.0816
2832.00,0.0715
2831.00,0.0625
2830.00,0.0550
2829.00,0.0487
2828.00,0.0437
2827.00,0.0396
2826.00,0.0362
2825.00,0.0334
2824.00,0.0311
2823.00,0.0292
2822.00,0.0275
2821.00,0.0261
2820.00,0.0248
2819.00,0.0237
2818.00,0.0227
2817.00,0.0219
2816.00,0.0211
2815.00,0.0205
2814.00,0.0198
2813.00,0.0193
2812.00,0.0187
2811.00,0.0181
2810.00,0.0175
2809.00,0.0169
2808.00,0.0163
2807.00,0.0157
2806.00,0.0151
2805.00,0.0144
2804.00,0.0138
2803.00,0.0132
2802.00,0.0127
2801.00,0.0123
2800.00,0.0119
2799.00,0.0116
2798.00,0.0113
2797.00,0.0110
2796.00,0.0108
2795.00,0.0106
2794.00,0.0103
2793.00,0.0100
2792.00,0.0097
2791.00,0.0094
2790.00,0.0091
2789.00,0.0088
2788.00,0.0085
2787.00,0.0082
2786.00,0.0079
2785.00,0.0077
2784.00,0.0075
2783.00,0.0073
2782.00,0.0072
2781.00,0.0070
2780.00,0.0068
2779.00,0.0066
2778.00,0.0064
2777.00,0.0063
2776.00,0.0062
2775.00,0.0061
2774.00,0.0060
2773.00,0.0060
2772.00,0.0059
2771.00,0.0058
2770.00,0.0058
2769.00,0.0058
2768.00,0.0057
2767.00,0.0057
2766.00,0.0057
2765.00,0.0057
2764.00,0.0056
2763.00,0.0056
2762.00,0.0056
2761.00,0.0055
2760.00,0.0055
2759.00,0.0054
2758.00,0.0054
2757.00,0.0054
2756.00,0.0054
2755.00,0.0054
2754.00,0.0053
2753.00,0.0053
2752.00,0.0053
2751.00,0.0052
2750.00,0.0052
2749.00,0.0052
2748.00,0.0052
2747.00,0.0053
2746.00,0.0053
2745.00,0.0054
2744.00,0.0054
2743.00,0.0055
2742.00,0.0056
2741.00,0.0057
2740.00,0.0058
2739.00,0.0060
2738.00,0.0061
2737.00,0.0063
2736.00,0.0064
2735.00,0.0065
2734.00,0.0067
2733.00,0.0069
2732.00,0.0070
2731.00,0.0072
2730.00,0.0074
2729.00,0.0077
2728.00,0.0079
2727.00,0.0082
2726.00,0.0085
2725.00,0.0088
2724.00,0.0090
2723.00,0.0090
2722.00,0.0089
2721.00,0.0087
2720.00,0.0084
2719.00,0.0081
2718.00,0.0077
2717.00,0.0074
2716.00,0.0071
2715.00,0.0068
2714.00,0.0066
2713.00,0.0064
2712.00,0.0062
2711.00,0.0060
2710.00,0.0058
2709.00,0.0057
2708.00,0.0055
2707.00,0.0054
2706.00,0.0052
2705.00,0.0051
2704.00,0.0050
2703.00,0.0049
2702.00,0.0049
2701.00,0.0048
2700.00,0.0047
2699.00,0.0047
2698.00,0.0047
2697.00,0.0046
2696.00,0.0046
2695.00,0.0046
2694.00,0.0046
2693.00,0.0046
2692.00,0.0046
2691.00,0.0046
2690.00,0.0046
2689.00,0.0046
2688.00,0.0046
2687.00,0.0046
2686.00,0.0045
2685.00,0.0046
2684.00,0.0046
2683.00,0.0046
2682.00,0.0046
2681.00,0.0047
2680.00,0.0047
2679.00,0.0047
2678.00,0.0047
2677.00,0.0047
2676.00,0.0047
2675.00,0.0047
2674.00,0.0047
2673.00,0.0047
2672.00,0.0047
2671.00,0.0046
2670.00,0.0046
2669.00,0.0046
2668.00,0.0046
2667.00,0.0046
2666.00,0.0046
2665.00,0.0046
2664.00,0.0047
2663.00,0.0048
2662.00,0.0048
2661.00,0.0049
2660.00,0.0049
2659.00,0.0049
2658.00,0.0049
2657.00,0.0049
2656.00,0.0049
2655.00,0.0048
2654.00,0.0048
2653.00,0.0047
2652.00,0.0047
2651.00,0.0046
2650.00,0.0046
2649.00,0.0046
2648.00,0.0045
2647.00,0.0044
2646.00,0.0043
2645.00,0.0042
2644.00,0.0042
2643.00,0.0042
2642.00,0.0042
2641.00,0.0041
2640.00,0.0041
2639.00,0.0041
2638.00,0.0041
2637.00,0.0041
2636.00,0.0040
2635.00,0.0040
2634.00,0.0040
2633.00,0.0040
2632.00,0.0040
2631.00,0.0040
2630.00,0.0040
2629.00,0.0040
2628.00,0.0040
2627.00,0.0041
2626.00,0.0041
2625.00,0.0041
2624.00,0.0041
2623.00,0.0041
2622.00,0.0041
2621.00,0.0041
2620.00,0.0041
2619.00,0.0040
2618.00,0.0040
2617.00,0.0040
2616.00,0.0040
2615.00,0.0040
2614.00,0.0040
2613.00,0.0040
2612.00,0.0040
2611.00,0.0040
2610.00,0.0039
2609.00,0.0039
2608.00,0.0038
2607.00,0.0036
2606.00,0.0035
2605.00,0.0035
2604.00,0.0035
2603.00,0.0035
2602.00,0.0035
2601.00,0.0034
2600.00,0.0034
2599.00,0.0034
2598.00,0.0034
2597.00,0.0034
2596.00,0.0033
2595.00,0.0033
2594.00,0.0033
2593.00,0.0033
2592.00,0.0034
2591.00,0.0035
2590.00,0.0036
2589.00,0.0036
2588.00,0.0037
2587.00,0.0038
2586.00,0.0039
2585.00,0.0040
2584.00,0.0041
2583.00,0.0042
2582.00,0.0042
2581.00,0.0041
2580.00,0.0040
2579.00,0.0038
2578.00,0.0036
2577.00,0.0035
2576.00,0.0033
2575.00,0.0032
2574.00,0.0032
2573.00,0.0032
2572.00,0.0031
2571.00,0.0030
2570.00,0.0029
2569.00,0.0028
2568.00,0.0028
2567.00,0.0027
2566.00,0.0027
2565.00,0.0026
2564.00,0.0026
2563.00,0.0025
2562.00,0.0025
2561.00,0.0024
2560.00,0.0024
2559.00,0.0024
2558.00,0.0024
2557.00,0.0024
2556.00,0.0024
2555.00,0.0024
2554.00,0.0024
2553.00,0.0023
2552.00,0.0023
2551.00,0.0023
2550.00,0.0022
2549.00,0.0021
2548.00,0.0020
2547.00,0.0020
2546.00,0.0020
2545.00,0.0020
2544.00,0.0020
2543.00,0.0020
2542.00,0.0019
2541.00,0.0019
2540.00,0.0019
2539.00,0.0018
2538.00,0.0018
2537.00,0.0018
2536.00,0.0018
2535.00,0.0018
2534.00,0.0018
2533.00,0.0018
2532.00,0.0017
2531.00,0.0016
2530.00,0.0016
2529.00,0.0015
2528.00,0.0015
2527.00,0.0015
2526.00,0.0015
2525.00,0.0015
2524.00,0.0015
2523.00,0.0015
2522.00,0.0015
2521.00,0.0014
2520.00,0.0013
2519.00,0.0013
2518.00,0.0013
2517.00,0.0013
2516.00,0.0013
2515.00,0.0013
2514.00,0.0012
2513.00,0.0011
2512.00,0.0011
2511.00,0.0010
2510.00,0.0010
2509.00,0.0010
2508.00,0.0010
2507.00,0.0010
2506.00,0.0010
2505.00,0.0010
2504.00,0.0010
2503.00,0.0010
2502.00,0.0011
2501.00,0.0011
2500.00,0.0011
2499.00,0.0011
2498.00,0.0012
2497.00,0.0012
2496.00,0.0012
2495.00,0.0011
2494.00,0.0011
2493.00,0.0011
2492.00,0.0011
2491.00,0.0010
2490.00,0.0010
2489.00,0.0010
2488.00,0.0010
2487.00,0.0010
2486.00,0.0010
2485.00,0.0011
2484.00,0.0011
2483.00,0.0012
2482.00,0.0012
2481.00,0.0011
2480.00,0.0011
2479.00,0.0010
2478.00,0.0010
2477.00,0.0010
2476.00,0.0011
2475.00,0.0011
2474.00,0.0011
2473.00,0.0012
2472.00,0.0012
2471.00,0.0012
2470.00,0.0011
2469.00,0.0011
2468.00,0.0010
2467.00,0.0010
2466.00,0.0010
2465.00,0.0010
2464.00,0.0011
2463.00,0.0011
2462.00,0.0011
2461.00,0.0012
2460.00,0.0012
2459.00,0.0011
2458.00,0.0011
2457.00,0.0011
2456.00,0.0011
2455.00,0.0011
2454.00,0.0011
2453.00,0.0011
2452.00,0.0012
2451.00,0.0012
2450.00,0.0012
2449.00,0.0012
2448.00,0.0012
2447.00,0.0012
2446.00,0.0012
2445.00,0.0011
2444.00,0.0011
2443.00,0.0011
2442.00,0.0011
2441.00,0.0011
2440.00,0.0011
2439.00,0.0011
2438.00,0.0011
2437.00,0.0012
2436.00,0.0012
2435.00,0.0012
2434.00,0.0012
2433.00,0.0012
2432.00,0.0012
2431.00,0.0013
2430.00,0.0013
2429.00,0.0013
2428.00,0.0012
2427.00,0.0011
2426.00,0.0011
2425.00,0.0011
2424.00,0.0011
2423.00,0.0011
2422.00,0.0011
2421.00,0.0011
2420.00,0.0011
2419.00,0.0011
2418.00,0.0011
2417.00,0.0011
2416.00,0.0011
2415.00,0.0010
2414.00,0.0010
2413.00,0.0010
2412.00,0.0010
2411.00,0.0010
2410.00,0.0010
2409.00,0.0010
2408.00,0.0010
2407.00,0.0009
2406.00,0.0009
2405.00,0.0009
2404.00,0.0009
2403.00,0.0010
2402.00,0.0011
2401.00,0.0011
2400.00,0.0010
2399.00,0.0010
2398.00,0.0010
2397.00,0.0010
2396.00,0.0010
2395.00,0.0009
2394.00,0.0009
2393.00,0.0008
2392.00,0.0008
2391.00,0.0007
2390.00,0.0007
2389.00,0.0007
2388.00,0.0007
2387.00,0.0007
2386.00,0.0007
2385.00,0.0006
2384.00,0.0006
2383.00,0.0005
2382.00,0.0004
2381.00,0.0003
2380.00,0.0003
2379.00,0.0003
2378.00,0.0003
2377.00,0.0003
2376.00,0.0003
2375.00,0.0004
2374.00,0.0004
2373.00,0.0004
2372.00,0.0004
2371.00,0.0004
2370.00,0.0004
2369.00,0.0004
2368.00,0.0004
2367.00,0.0004
2366.00,0.0003
2365.00,0.0003
2364.00,0.0003
2363.00,0.0004
2362.00,0.0004
2361.00,0.0005
2360.00,0.0005
2359.00,0.0005
2358.00,0.0005
2357.00,0.0005
2356.00,0.0004
2355.00,0.0005
2354.00,0.0005
2353.00,0.0005
2352.00,0.0004
2351.00,0.0004
2350.00,0.0004
2349.00,0.0005
2348.00,0.0006
2347.00,0.0007
2346.00,0.0007
2345.00,0.0006
2344.00,0.0006
2343.00,0.0007
2342.00,0.0007
2341.00,0.0007
2340.00,0.0007
2339.00,0.0007
2338.00,0.0007
2337.00,0.0008
2336.00,0.0008
2335.00,0.0008
2334.00,0.0008
2333.00,0.0008
2332.00,0.0007
2331.00,0.0006
2330.00,0.0005
2329.00,0.0006
2328.00,0.0008
2327.00,0.0012
2326.00,0.0016
2325.00,0.0019
2324.00,0.0019
2323.00,0.0018
2322.00,0.0015
2321.00,0.0014
2320.00,0.0013
2319.00,0.0013
2318.00,0.0013
2317.00,0.0012
2316.00,0.0011
2315.00,0.0011
2314.00,0.0010
2313.00,0.0009
2312.00,0.0009
2311.00,0.0008
2310.00,0.0008
2309.00,0.0007
2308.00,0.0007
2307.00,0.0007
2306.00,0.0008
2305.00,0.0008
2304.00,0.0009
2303.00,0.0010
2302.00,0.0010
2301.00,0.0011
2300.00,0.0011
2299.00,0.0011
2298.00,0.0011
2297.00,0.0011
2296.00,0.0012
2295.00,0.0013
2294.00,0.0014
2293.00,0.0015
2292.00,0.0015
2291.00,0.0016
2290.00,0.0016
2289.00,0.0017
2288.00,0.0018
2287.00,0.0020
2286.00,0.0020
2285.00,0.0020
2284.00,0.0019
2283.00,0.0018
2282.00,0.0017
2281.00,0.0016
2280.00,0.0015
2279.00,0.0014
2278.00,0.0013
2277.00,0.0012
2276.00,0.0012
2275.00,0.0012
2274.00,0.0012
2273.00,0.0013
2272.00,0.0013
2271.00,0.0013
2270.00,0.0013
2269.00,0.0014
2268.00,0.0014
2267.00,0.0015
2266.00,0.0015
2265.00,0.0015
2264.00,0.0013
2263.00,0.0012
2262.00,0.0011
2261.00,0.0011
2260.00,0.0012
2259.00,0.0013
2258.00,0.0014
2257.00,0.0015
2256.00,0.0015
2255.00,0.0014
2254.00,0.0012
2253.00,0.0010
2252.00,0.0009
2251.00,0.0009
2250.00,0.0009
2249.00,0.0010
2248.00,0.0011
2247.00,0.0012
2246.00,0.0012
2245.00,0.0012
2244.00,0.0011
2243.00,0.0011
2242.00,0.0010
2241.00,0.0010
2240.00,0.0009
2239.00,0.0009
2238.00,0.0009
2237.00,0.0008
2236.00,0.0008
2235.00,0.0008
2234.00,0.0009
2233.00,0.0010
2232.00,0.0010
2231.00,0.0010
2230.00,0.0010
2229.00,0.0009
2228.00,0.0010
2227.00,0.0010
2226.00,0.0011
2225.00,0.0012
2224.00,0.0012
2223.00,0.0012
2222.00,0.0012
2221.00,0.0011
2220.00,0.0010
2219.00,0.0009
2218.00,0.0008
2217.00,0.0008
2216.00,0.0008
2215.00,0.0008
2214.00,0.0008
2213.00,0.0007
2212.00,0.0005
2211.00,0.0003
2210.00,0.0002
2209.00,0.0001
2208.00,0.0002
2207.00,0.0002
2206.00,0.0003
2205.00,0.0003
2204.00,0.0003
2203.00,0.0003
2202.00,0.0003
2201.00,0.0004
2200.00,0.0005
2199.00,0.0005
2198.00,0.0006
2197.00,0.0007
2196.00,0.0008
2195.00,0.0008
2194.00,0.0008
2193.00,0.0008
2192.00,0.0010
2191.00,0.0012
2190.00,0.0014
2189.00,0.0015
2188.00,0.0016
2187.00,0.0016
2186.00,0.0015
2185.00,0.0012
2184.00,0.0009
2183.00,0.0005
2182.00,0.0002
2181.00,-0.0000
2180.00,-0.0001
2179.00,0.0000
2178.00,0.0001
2177.00,0.0002
2176.00,0.0002
2175.00,0.0002
2174.00,0.0003
2173.00,0.0004
2172.00,0.0006
2171.00,0.0008
2170.00,0.0009
2169.00,0.0011
2168.00,0.0012
2167.00,0.0012
2166.00,0.0013
2165.00,0.0015
2164.00,0.0016
2163.00,0.0015
2162.00,0.0013
2161.00,0.0008
2160.00,-0.0003
2159.00,-0.0017
2158.00,-0.0031
2157.00,-0.0037
2156.00,-0.0034
2155.00,-0.0027
2154.00,-0.0019
2153.00,-0.0013
2152.00,-0.0009
2151.00,-0.0008
2150.00,-0.0009
2149.00,-0.0011
2148.00,-0.0012
2147.00,-0.0011
2146.00,-0.0009
2145.00,-0.0008
2144.00,-0.0008
2143.00,-0.0010
2142.00,-0.0011
2141.00,-0.0012
2140.00,-0.0011
2139.00,-0.0011
2138.00,-0.0012
2137.00,-0.0013
2136.00,-0.0014
2135.00,-0.0015
2134.00,-0.0015
2133.00,-0.0014
2132.00,-0.0013
2131.00,-0.0013
2130.00,-0.0012
2129.00,-0.0010
2128.00,-0.0008
2127.00,-0.0005
2126.00,-0.0004
2125.00,-0.0003
2124.00,-0.0003
2123.00,-0.0002
2122.00,-0.0000
2121.00,0.0001
2120.00,0.0001
2119.00,-0.0000
2118.00,-0.0001
2117.00,-0.0001
2116.00,0.0001
2115.00,0.0003
2114.00,0.0004
2113.00,0.0005
2112.00,0.0006
2111.00,0.0006
2110.00,0.0005
2109.00,0.0004
2108.00,0.0003
2107.00,0.0001
2106.00,0.0001
2105.00,0.0002
2104.00,0.0003
2103.00,0.0003
2102.00,0.0002
2101.00,0.0002
2100.00,0.0001
2099.00,0.0002
2098.00,0.0001
2097.00,0.0000
2096.00,-0.0001
2095.00,-0.0003
2094.00,-0.0003
2093.00,-0.0002
2092.00,-0.0001
2091.00,-0.0000
2090.00,0.0000
2089.00,0.0001
2088.00,0.0001
2087.00,0.0002
2086.00,0.0002
2085.00,0.0003
2084.00,0.0005
2083.00,0.0006
2082.00,0.0007
2081.00,0.0007
2080.00,0.0007
2079.00,0.0006
2078.00,0.0005
2077.00,0.0004
2076.00,0.0004
2075.00,0.0002
2074.00,0.0001
2073.00,-0.0000
2072.00,-0.0000
2071.00,0.0001
2070.00,0.0001
2069.00,0.0002
2068.00,0.0003
2067.00,0.0003
2066.00,0.0002
2065.00,0.0001
2064.00,0.0001
2063.00,0.0000
2062.00,-0.0001
2061.00,-0.0002
2060.00,-0.0002
2059.00,-0.0000
2058.00,0.0002
2057.00,0.0005
2056.00,0.0005
2055.00,0.0005
2054.00,0.0006
2053.00,0.0009
2052.00,0.0013
2051.00,0.0015
2050.00,0.0015
2049.00,0.0012
2048.00,0.0009
2047.00,0.0006
2046.00,0.0005
2045.00,0.0005
2044.00,0.0007
2043.00,0.0007
2042.00,0.0006
2041.00,0.0003
2040.00,0.0001
2039.00,-0.0001
2038.00,-0.0002
2037.00,-0.0003
2036.00,-0.0002
2035.00,-0.0001
2034.00,-0.0000
2033.00,0.0000
2032.00,-0.0000
2031.00,-0.0002
2030.00,-0.0004
2029.00,-0.0007
2028.00,-0.0009
2027.00,-0.0011
2026.00,-0.0012
2025.00,-0.0012
2024.00,-0.0011
2023.00,-0.0009
2022.00,-0.0008
2021.00,-0.0006
2020.00,-0.0006
2019.00,-0.0007
2018.00,-0.0008
2017.00,-0.0009
2016.00,-0.0010
2015.00,-0.0009
2014.00,-0.0008
2013.00,-0.0006
2012.00,-0.0004
2011.00,-0.0004
2010.00,-0.0006
2009.00,-0.0009
2008.00,-0.0012
2007.00,-0.0015
2006.00,-0.0018
2005.00,-0.0017
2004.00,-0.0015
2003.00,-0.0013
2002.00,-0.0012
2001.00,-0.0013
2000.00,-0.0014
1999.00,-0.0014
1998.00,-0.0014
1997.00,-0.0013
1996.00,-0.0011
1995.00,-0.0008
1994.00,-0.0006
1993.00,-0.0004
1992.00,-0.0002
1991.00,-0.0001
1990.00,-0.0001
1989.00,-0.0001
1988.00,-0.0002
1987.00,-0.0001
1986.00,0.0001
1985.00,0.0005
1984.00,0.0010
1983.00,0.0011
1982.00,0.0011
1981.00,0.0010
1980.00,0.0009
1979.00,0.0006
1978.00,0.0002
1977.00,-0.0003
1976.00,-0.0006
1975.00,-0.0007
1974.00,-0.0007
1973.00,-0.0006
1972.00,-0.0006
1971.00,-0.0007
1970.00,-0.0008
1969.00,-0.0009
1968.00,-0.0010
1967.00,-0.0010
1966.00,-0.0010
1965.00,-0.0009
1964.00,-0.0007
1963.00,-0.0006
1962.00,-0.0008
1961.00,-0.0011
1960.00,-0.0014
1959.00,-0.0017
1958.00,-0.0017
1957.00,-0.0014
1956.00,-0.0010
1955.00,-0.0007
1954.00,-0.0007
1953.00,-0.0008
1952.00,-0.0008
1951.00,-0.0009
1950.00,-0.0010
1949.00,-0.0012
1948.00,-0.0012
1947.00,-0.0012
1946.00,-0.0010
1945.00,-0.0008
1944.00,-0.0007
1943.00,-0.0008
1942.00,-0.0009
1941.00,-0.0008
1940.00,-0.0007
1939.00,-0.0006
1938.00,-0.0005
1937.00,-0.0006
1936.00,-0.0006
1935.00,-0.0006
1934.00,-0.0006
1933.00,-0.0006
1932.00,-0.0006
1931.00,-0.0006
1930.00,-0.0006
1929.00,-0.0006
1928.00,-0.0006
1927.00,-0.0005
1926.00,-0.0005
1925.00,-0.0005
1924.00,-0.0004
1923.00,-0.0004
1922.00,-0.0003
1921.00,-0.0002
1920.00,-0.0002
1919.00,-0.0002
1918.00,-0.0002
1917.00,-0.0002
1916.00,-0.0002
1915.00,-0.0001
1914.00,-0.0001
1913.00,-0.0001
1912.00,-0.0001
1911.00,-0.0001
1910.00,-0.0001
1909.00,-0.0001
1908.00,-0.0001
1907.00,-0.0001
1906.00,-0.0001
1905.00,-0.0001
1904.00,-0.0001
1903.00,-0.0002
1902.00,-0.0001
1901.00,-0.0000
1900.00,0.0000
1899.00,0.0001
1898.00,0.0001
1897.00,0.0000
1896.00,0.0000
1895.00,0.0000
1894.00,-0.0000
1893.00,-0.0000
1892.00,0.0000
1891.00,0.0001
1890.00,0.0002
1889.00,0.0002
1888.00,0.0001
1887.00,0.0001
1886.00,-0.0000
1885.00,-0.0000
1884.00,0.0000
1883.00,0.0001
1882.00,0.0002
1881.00,0.0003
1880.00,0.0003
1879.00,0.0002
1878.00,0.0001
1877.00,0.0000
1876.00,0.0000
1875.00,0.0001
1874.00,0.0001
1873.00,0.0001
1872.00,0.0002
1871.00,0.0002
1870.00,0.0001
1869.00,0.0001
1868.00,0.0001
1867.00,0.0002
1866.00,0.0002
1865.00,0.0002
1864.00,0.0002
1863.00,0.0002
1862.00,0.0002
1861.00,0.0001
1860.00,0.0001
1859.00,0.0000
1858.00,0.0001
1857.00,0.0001
1856.00,0.0002
1855.00,0.0002
1854.00,0.0002
1853.00,0.0002
1852.00,0.0002
1851.00,0.0002
1850.00,0.0002
1849.00,0.0002
1848.00,0.0002
1847.00,0.0003
1846.00,0.0003
1845.00,0.0003
1844.00,0.0004
1843.00,0.0004
1842.00,0.0004
1841.00,0.0004
1840.00,0.0003
1839.00,0.0003
1838.00,0.0003
1837.00,0.0003
1836.00,0.0004
1835.00,0.0005
1834.00,0.0005
1833.00,0.0005
1832.00,0.0005
1831.00,0.0004
1830.00,0.0003
1829.00,0.0004
1828.00,0.0005
1827.00,0.0005
1826.00,0.0004
1825.00,0.0004
1824.00,0.0005
1823.00,0.0005
1822.00,0.0005
1821.00,0.0005
1820.00,0.0005
1819.00,0.0004
1818.00,0.0003
1817.00,0.0002
1816.00,0.0002
1815.00,0.0003
1814.00,0.0003
1813.00,0.0004
1812.00,0.0004
1811.00,0.0004
1810.00,0.0004
1809.00,0.0005
1808.00,0.0006
1807.00,0.0006
1806.00,0.0007
1805.00,0.0007
1804.00,0.0007
1803.00,0.0007
1802.00,0.0007
1801.00,0.0007
1800.00,0.0008
1799.00,0.0008
1798.00,0.0009
1797.00,0.0009
1796.00,0.0009
1795.00,0.0008
1794.00,0.0008
1793.00,0.0008
1792.00,0.0008
1791.00,0.0008
1790.00,0.0008
1789.00,0.0009
1788.00,0.0009
1787.00,0.0010
1786.00,0.0010
1785.00,0.0011
1784.00,0.0011
1783.00,0.0012
1782.00,0.0012
1781.00,0.0011
1780.00,0.0011
1779.00,0.0010
1778.00,0.0010
1777.00,0.0009
1776.00,0.0010
1775.00,0.0010
1774.00,0.0011
1773.00,0.0011
1772.00,0.0012
1771.00,0.0012
1770.00,0.0012
1769.00,0.0012
1768.00,0.0013
1767.00,0.0013
1766.00,0.0014
1765.00,0.0014
1764.00,0.0015
1763.00,0.0016
1762.00,0.0017
1761.00,0.0018
1760.00,0.0019
1759.00,0.0021
1758.00,0.0023
1757.00,0.0025
1756.00,0.0026
1755.00,0.0027
1754.00,0.0029
1753.00,0.0031
1752.00,0.0033
1751.00,0.0035
1750.00,0.0036
1749.00,0.0037
1748.00,0.0038
1747.00,0.0038
1746.00,0.0039
1745.00,0.0039
1744.00,0.0039
1743.00,0.0040
1742.00,0.0039
1741.00,0.0039
1740.00,0.0038
1739.00,0.0037
1738.00,0.0037
1737.00,0.0037
1736.00,0.0036
1735.00,0.0035
1734.00,0.0034
1733.00,0.0033
1732.00,0.0033
1731.00,0.0032
1730.00,0.0032
1729.00,0.0031
1728.00,0.0031
1727.00,0.0031
1726.00,0.0030
1725.00,0.0030
1724.00,0.0030
1723.00,0.0030
1722.00,0.0030
1721.00,0.0030
1720.00,0.0030
1719.00,0.0029
1718.00,0.0027
1717.00,0.0027
1716.00,0.0027
1715.00,0.0027
1714.00,0.0027
1713.00,0.0027
1712.00,0.0027
1711.00,0.0027
1710.00,0.0027
1709.00,0.0027
1708.00,0.0027
1707.00,0.0027
1706.00,0.0028
1705.00,0.0029
1704.00,0.0030
1703.00,0.0031
1702.00,0.0031
1701.00,0.0032
1700.00,0.0032
1699.00,0.0032
1698.00,0.0032
1697.00,0.0033
1696.00,0.0034
1695.00,0.0035
1694.00,0.0036
1693.00,0.0037
1692.00,0.0037
1691.00,0.0037
1690.00,0.0038
1689.00,0.0038
1688.00,0.0039
1687.00,0.0040
1686.00,0.0040
1685.00,0.0040
1684.00,0.0041
1683.00,0.0043
1682.00,0.0044
1681.00,0.0045
1680.00,0.0046
1679.00,0.0046
1678.00,0.0047
1677.00,0.0048
1676.00,0.0049
1675.00,0.0050
1674.00,0.0051
1673.00,0.0051
1672.00,0.0052
1671.00,0.0053
1670.00,0.0053
1669.00,0.0054
1668.00,0.0055
1667.00,0.0055
1666.00,0.0055
1665.00,0.0055
1664.00,0.0055
1663.00,0.0056
1662.00,0.0057
1661.00,0.0057
1660.00,0.0058
1659.00,0.0059
1658.00,0.0059
1657.00,0.0061
1656.00,0.0062
1655.00,0.0064
1654.00,0.0064
1653.00,0.0064
1652.00,0.0065
1651.00,0.0065
1650.00,0.0065
1649.00,0.0066
1648.00,0.0066
1647.00,0.0067
1646.00,0.0068
1645.00,0.0068
1644.00,0.0068
1643.00,0.0068
1642.00,0.0067
1641.00,0.0067
1640.00,0.0067
1639.00,0.0067
1638.00,0.0067
1637.00,0.0066
1636.00,0.0066
1635.00,0.0065
1634.00,0.0065
1633.00,0.0065
1632.00,0.0064
1631.00,0.0064
1630.00,0.0063
1629.00,0.0063
1628.00,0.0062
1627.00,0.0061
1626.00,0.0060
1625.00,0.0060
1624.00,0.0059
1623.00,0.0058
1622.00,0.0057
1621.00,0.0057
1620.00,0.0057
1619.00,0.0057
1618.00,0.0056
1617.00,0.0055
1616.00,0.0055
1615.00,0.0055
1614.00,0.0055
1613.00,0.0055
1612.00,0.0055
1611.00,0.0055
1610.00,0.0055
1609.00,0.0055
1608.00,0.0054
1607.00,0.0054
1606.00,0.0054
1605.00,0.0054
1604.00,0.0055
1603.00,0.0055
1602.00,0.0055
1601.00,0.0055
1600.00,0.0055
1599.00,0.0055
1598.00,0.0054
1597.00,0.0055
1596.00,0.0055
1595.00,0.0055
1594.00,0.0055
1593.00,0.0056
1592.00,0.0057
1591.00,0.0057
1590.00,0.0057
1589.00,0.0058
1588.00,0.0058
1587.00,0.0059
1586.00,0.0059
1585.00,0.0060
1584.00,0.0062
1583.00,0.0064
1582.00,0.0066
1581.00,0.0068
1580.00,0.0070
1579.00,0.0071
1578.00,0.0072
1577.00,0.0073
1576.00,0.0073
1575.00,0.0072
1574.00,0.0071
1573.00,0.0071
1572.00,0.0070
1571.00,0.0069
1570.00,0.0068
1569.00,0.0067
1568.00,0.0067
1567.00,0.0067
1566.00,0.0067
1565.00,0.0067
1564.00,0.0067
1563.00,0.0067
1562.00,0.0067
1561.00,0.0068
1560.00,0.0066
1559.00,0.0064
1558.00,0.0063
1557.00,0.0064
1556.00,0.0066
1555.00,0.0067
1554.00,0.0067
1553.00,0.0068
1552.00,0.0069
1551.00,0.0069
1550.00,0.0070
1549.00,0.0070
1548.00,0.0071
1547.00,0.0072
1546.00,0.0074
1545.00,0.0075
1544.00,0.0077
1543.00,0.0078
1542.00,0.0079
1541.00,0.0080
1540.00,0.0080
1539.00,0.0078
1538.00,0.0076
1537.00,0.0074
1536.00,0.0073
1535.00,0.0071
1534.00,0.0068
1533.00,0.0066
1532.00,0.0065
1531.00,0.0064
1530.00,0.0064
1529.00,0.0063
1528.00,0.0063
1527.00,0.0062
1526.00,0.0061
1525.00,0.0060
1524.00,0.0061
1523.00,0.0061
1522.00,0.0061
1521.00,0.0061
1520.00,0.0062
1519.00,0.0062
1518.00,0.0062
1517.00,0.0062
1516.00,0.0062
1515.00,0.0062
1514.00,0.0062
1513.00,0.0063
1512.00,0.0064
1511.00,0.0064
1510.00,0.0065
1509.00,0.0066
1508.00,0.0067
1507.00,0.0067
1506.00,0.0068
1505.00,0.0069
1504.00,0.0069
1503.00,0.0070
1502.00,0.0071
1501.00,0.0073
1500.00,0.0076
1499.00,0.0078
1498.00,0.0080
1497.00,0.0083
1496.00,0.0087
1495.00,0.0089
1494.00,0.0091
1493.00,0.0094
1492.00,0.0098
1491.00,0.0101
1490.00,0.0104
1489.00,0.0109
1488.00,0.0115
1487.00,0.0119
1486.00,0.0125
1485.00,0.0131
1484.00,0.0138
1483.00,0.0145
1482.00,0.0154
1481.00,0.0165
1480.00,0.0177
1479.00,0.0190
1478.00,0.0206
1477.00,0.0227
1476.00,0.0253
1475.00,0.0284
1474.00,0.0325
1473.00,0.0383
1472.00,0.0452
1471.00,0.0518
1470.00,0.0583
1469.00,0.0652
1468.00,0.0725
1467.00,0.0806
1466.00,0.0896
1465.00,0.0993
1464.00,0.1077
1463.00,0.1134
1462.00,0.1171
1461.00,0.1195
1460.00,0.1211
1459.00,0.1219
1458.00,0.1222
1457.00,0.1221
1456.00,0.1213
1455.00,0.1199
1454.00,0.1181
1453.00,0.1158
1452.00,0.1125
1451.00,0.1082
1450.00,0.1026
1449.00,0.0954
1448.00,0.0864
1447.00,0.0772
1446.00,0.0689
1445.00,0.0619
1444.00,0.0560
1443.00,0.0512
1442.00,0.0476
1441.00,0.0451
1440.00,0.0437
1439.00,0.0433
1438.00,0.0437
1437.00,0.0440
1436.00,0.0432
1435.00,0.0409
1434.00,0.0372
1433.00,0.0329
1432.00,0.0284
1431.00,0.0244
1430.00,0.0213
1429.00,0.0190
1428.00,0.0173
1427.00,0.0163
1426.00,0.0156
1425.00,0.0150
1424.00,0.0145
1423.00,0.0142
1422.00,0.0141
1421.00,0.0139
1420.00,0.0136
1419.00,0.0134
1418.00,0.0132
1417.00,0.0130
1416.00,0.0127
1415.00,0.0125
1414.00,0.0123
1413.00,0.0122
1412.00,0.0121
1411.00,0.0120
1410.00,0.0121
1409.00,0.0120
1408.00,0.0119
1407.00,0.0120
1406.00,0.0121
1405.00,0.0121
1404.00,0.0121
1403.00,0.0123
1402.00,0.0125
1401.00,0.0126
1400.00,0.0127
1399.00,0.0128
1398.00,0.0131
1397.00,0.0133
1396.00,0.0135
1395.00,0.0140
1394.00,0.0145
1393.00,0.0150
1392.00,0.0155
1391.00,0.0163
1390.00,0.0173
1389.00,0.0187
1388.00,0.0208
1387.00,0.0239
1386.00,0.0282
1385.00,0.0338
1384.00,0.0416
1383.00,0.0527
1382.00,0.0679
1381.00,0.0877
1380.00,0.1123
1379.00,0.1407
1378.00,0.1683
1377.00,0.1889
1376.00,0.1963
1375.00,0.1868
1374.00,0.1635
1373.00,0.1349
1372.00,0.1086
1371.00,0.0869
1370.00,0.0697
1369.00,0.0567
1368.00,0.0479
1367.00,0.0424
1366.00,0.0394
1365.00,0.0381
1364.00,0.0383
1363.00,0.0396
1362.00,0.0418
1361.00,0.0441
1360.00,0.0458
1359.00,0.0463
1358.00,0.0453
1357.00,0.0427
1356.00,0.0390
1355.00,0.0349
1354.00,0.0309
1353.00,0.0275
1352.00,0.0247
1351.00,0.0225
1350.00,0.0206
1349.00,0.0191
1348.00,0.0179
1347.00,0.0168
1346.00,0.0159
1345.00,0.0151
1344.00,0.0145
1343.00,0.0140
1342.00,0.0136
1341.00,0.0133
1340.00,0.0130
1339.00,0.0128
1338.00,0.0127
1337.00,0.0126
1336.00,0.0127
1335.00,0.0128
1334.00,0.0132
1333.00,0.0135
1332.00,0.0140
1331.00,0.0143
1330.00,0.0144
1329.00,0.0143
1328.00,0.0139
1327.00,0.0134
1326.00,0.0128
1325.00,0.0122
1324.00,0.0116
1323.00,0.0111
1322.00,0.0107
1321.00,0.0104
1320.00,0.0102
1319.00,0.0100
1318.00,0.0098
1317.00,0.0097
1316.00,0.0096
1315.00,0.0095
1314.00,0.0095
1313.00,0.0095
1312.00,0.0096
1311.00,0.0098
1310.00,0.0102
1309.00,0.0107
1308.00,0.0114
1307.00,0.0122
1306.00,0.0130
1305.00,0.0135
1304.00,0.0137
1303.00,0.0136
1302.00,0.0133
1301.00,0.0131
1300.00,0.0131
1299.00,0.0131
1298.00,0.0133
1297.00,0.0134
1296.00,0.0133
1295.00,0.0132
1294.00,0.0128
1293.00,0.0123
1292.00,0.0118
1291.00,0.0112
1290.00,0.0108
1289.00,0.0104
1288.00,0.0101
1287.00,0.0098
1286.00,0.0096
1285.00,0.0094
1284.00,0.0093
1283.00,0.0092
1282.00,0.0091
1281.00,0.0090
1280.00,0.0089
1279.00,0.0089
1278.00,0.0089
1277.00,0.0088
1276.00,0.0088
1275.00,0.0088
1274.00,0.0088
1273.00,0.0088
1272.00,0.0089
1271.00,0.0089
1270.00,0.0091
1269.00,0.0092
1268.00,0.0095
1267.00,0.0097
1266.00,0.0099
1265.00,0.0101
1264.00,0.0104
1263.00,0.0106
1262.00,0.0109
1261.00,0.0113
1260.00,0.0117
1259.00,0.0122
1258.00,0.0127
1257.00,0.0131
1256.00,0.0133
1255.00,0.0132
1254.00,0.0128
1253.00,0.0123
1252.00,0.0117
1251.00,0.0112
1250.00,0.0107
1249.00,0.0104
1248.00,0.0101
1247.00,0.0098
1246.00,0.0096
1245.00,0.0095
1244.00,0.0093
1243.00,0.0092
1242.00,0.0091
1241.00,0.0090
1240.00,0.0089
1239.00,0.0088
1238.00,0.0088
1237.00,0.0088
1236.00,0.0089
1235.00,0.0089
1234.00,0.0089
1233.00,0.0089
1232.00,0.0090
1231.00,0.0091
1230.00,0.0091
1229.00,0.0092
1228.00,0.0092
1227.00,0.0094
1226.00,0.0096
1225.00,0.0098
1224.00,0.0102
1223.00,0.0105
1222.00,0.0109
1221.00,0.0112
1220.00,0.0114
1219.00,0.0115
1218.00,0.0114
1217.00,0.0111
1216.00,0.0108
1215.00,0.0105
1214.00,0.0101
1213.00,0.0098
1212.00,0.0095
1211.00,0.0093
1210.00,0.0092
1209.00,0.0091
1208.00,0.0090
1207.00,0.0089
1206.00,0.0088
1205.00,0.0088
1204.00,0.0087
1203.00,0.0087
1202.00,0.0087
1201.00,0.0087
1200.00,0.0087
1199.00,0.0087
1198.00,0.0087
1197.00,0.0087
1196.00,0.0087
1195.00,0.0087
1194.00,0.0088
1193.00,0.0089
1192.00,0.0090
1191.00,0.0090
1190.00,0.0089
1189.00,0.0089
1188.00,0.0089
1187.00,0.0089
1186.00,0.0090
1185.00,0.0091
1184.00,0.0091
1183.00,0.0093
1182.00,0.0095
1181.00,0.0098
1180.00,0.0102
1179.00,0.0106
1178.00,0.0111
1177.00,0.0118
1176.00,0.0127
1175.00,0.0139
1174.00,0.0155
1173.00,0.0174
1172.00,0.0197
1171.00,0.0222
1170.00,0.0245
1169.00,0.0264
1168.00,0.0275
1167.00,0.0277
1166.00,0.0273
1165.00,0.0263
1164.00,0.0252
1163.00,0.0241
1162.00,0.0232
1161.00,0.0225
1160.00,0.0219
1159.00,0.0215
1158.00,0.0212
1157.00,0.0210
1156.00,0.0209
1155.00,0.0209
1154.00,0.0208
1153.00,0.0207
1152.00,0.0203
1151.00,0.0196
1150.00,0.0188
1149.00,0.0178
1148.00,0.0169
1147.00,0.0159
1146.00,0.0151
1145.00,0.0143
1144.00,0.0136
1143.00,0.0130
1142.00,0.0124
1141.00,0.0119
1140.00,0.0113
1139.00,0.0108
1138.00,0.0104
1137.00,0.0100
1136.00,0.0096
1135.00,0.0094
1134.00,0.0092
1133.00,0.0090
1132.00,0.0089
1131.00,0.0089
1130.00,0.0089
1129.00,0.0089
1128.00,0.0089
1127.00,0.0090
1126.00,0.0091
1125.00,0.0092
1124.00,0.0092
1123.00,0.0092
1122.00,0.0092
1121.00,0.0092
1120.00,0.0093
1119.00,0.0095
1118.00,0.0097
1117.00,0.0098
1116.00,0.0099
1115.00,0.0100
1114.00,0.0101
1113.00,0.0101
1112.00,0.0102
1111.00,0.0104
1110.00,0.0107
1109.00,0.0111
1108.00,0.0117
1107.00,0.0123
1106.00,0.0129
1105.00,0.0136
1104.00,0.0141
1103.00,0.0143
1102.00,0.0143
1101.00,0.0140
1100.00,0.0135
1099.00,0.0129
1098.00,0.0122
1097.00,0.0116
1096.00,0.0111
1095.00,0.0107
1094.00,0.0104
1093.00,0.0103
1092.00,0.0102
1091.00,0.0100
1090.00,0.0099
1089.00,0.0097
1088.00,0.0096
1087.00,0.0096
1086.00,0.0095
1085.00,0.0095
1084.00,0.0094
1083.00,0.0094
1082.00,0.0095
1081.00,0.0094
1080.00,0.0094
1079.00,0.0093
1078.00,0.0092
1077.00,0.0090
1076.00,0.0089
1075.00,0.0089
1074.00,0.0089
1073.00,0.0089
1072.00,0.0089
1071.00,0.0089
1070.00,0.0089
1069.00,0.0089
1068.00,0.0089
1067.00,0.0089
1066.00,0.0089
1065.00,0.0090
1064.00,0.0091
1063.00,0.0092
1062.00,0.0092
1061.00,0.0091
1060.00,0.0091
1059.00,0.0092
1058.00,0.0093
1057.00,0.0094
1056.00,0.0096
1055.00,0.0098
1054.00,0.0100
1053.00,0.0102
1052.00,0.0105
1051.00,0.0108
1050.00,0.0111
1049.00,0.0115
1048.00,0.0119
1047.00,0.0123
1046.00,0.0126
1045.00,0.0128
1044.00,0.0128
1043.00,0.0127
1042.00,0.0127
1041.00,0.0126
1040.00,0.0125
1039.00,0.0125
1038.00,0.0124
1037.00,0.0123
1036.00,0.0122
1035.00,0.0121
1034.00,0.0121
1033.00,0.0120
1032.00,0.0119
1031.00,0.0118
1030.00,0.0118
1029.00,0.0119
1028.00,0.0120
1027.00,0.0121
1026.00,0.0122
1025.00,0.0123
1024.00,0.0125
1023.00,0.0128
1022.00,0.0131
1021.00,0.0133
1020.00,0.0135
1019.00,0.0136
1018.00,0.0137
1017.00,0.0137
1016.00,0.0137
1015.00,0.0137
1014.00,0.0136
1013.00,0.0135
1012.00,0.0134
1011.00,0.0135
1010.00,0.0136
1009.00,0.0137
1008.00,0.0138
1007.00,0.0141
1006.00,0.0145
1005.00,0.0152
1004.00,0.0162
1003.00,0.0179
1002.00,0.0201
1001.00,0.0229
1000.00,0.0257
999.00,0.0279
998.00,0.0289
997.00,0.0282
996.00,0.0262
995.00,0.0232
994.00,0.0202
993.00,0.0175
992.00,0.0154
991.00,0.0138
990.00,0.0127
989.00,0.0119
988.00,0.0114
987.00,0.0112
986.00,0.0112
985.00,0.0114
984.00,0.0118
983.00,0.0125
982.00,0.0136
981.00,0.0150
980.00,0.0169
979.00,0.0194
978.00,0.0224
977.00,0.0260
976.00,0.0298
975.00,0.0331
974.00,0.0354
973.00,0.0359
972.00,0.0344
971.00,0.0313
970.00,0.0272
969.00,0.0232
968.00,0.0197
967.00,0.0171
966.00,0.0152
965.00,0.0138
964.00,0.0128
963.00,0.0120
962.00,0.0114
961.00,0.0108
960.00,0.0104
959.00,0.0101
958.00,0.0099
957.00,0.0098
956.00,0.0096
955.00,0.0094
954.00,0.0092
953.00,0.0091
952.00,0.0089
951.00,0.0088
950.00,0.0088
949.00,0.0088
948.00,0.0088
947.00,0.0088
946.00,0.0090
945.00,0.0092
944.00,0.0094
943.00,0.0098
942.00,0.0102
941.00,0.0105
940.00,0.0106
939.00,0.0104
938.00,0.0098
937.00,0.0091
936.00,0.0084
935.00,0.0078
934.00,0.0074
933.00,0.0070
932.00,0.0068
931.00,0.0067
930.00,0.0066
929.00,0.0066
928.00,0.0066
927.00,0.0067
926.00,0.0067
925.00,0.0067
924.00,0.0066
923.00,0.0066
922.00,0.0066
921.00,0.0066
920.00,0.0065
919.00,0.0065
918.00,0.0065
917.00,0.0066
916.00,0.0067
915.00,0.0069
914.00,0.0070
913.00,0.0071
912.00,0.0071
911.00,0.0072
910.00,0.0073
909.00,0.0075
908.00,0.0078
907.00,0.0083
906.00,0.0091
905.00,0.0102
904.00,0.0118
903.00,0.0137
902.00,0.0158
901.00,0.0176
900.00,0.0187
899.00,0.0189
898.00,0.0180
897.00,0.0164
896.00,0.0143
895.00,0.0124
894.00,0.0108
893.00,0.0097
892.00,0.0089
891.00,0.0083
890.00,0.0080
889.00,0.0077
888.00,0.0076
887.00,0.0075
886.00,0.0075
885.00,0.0074
884.00,0.0074
883.00,0.0073
882.00,0.0072
881.00,0.0071
880.00,0.0070
879.00,0.0070
878.00,0.0071
877.00,0.0073
876.00,0.0075
875.00,0.0077
874.00,0.0077
873.00,0.0077
872.00,0.0077
871.00,0.0077
870.00,0.0076
869.00,0.0077
868.00,0.0078
867.00,0.0079
866.00,0.0080
865.00,0.0081
864.00,0.0081
863.00,0.0083
862.00,0.0084
861.00,0.0085
860.00,0.0085
859.00,0.0086
858.00,0.0086
857.00,0.0087
856.00,0.0088
855.00,0.0090
854.00,0.0092
853.00,0.0094
852.00,0.0097
851.00,0.0100
850.00,0.0104
849.00,0.0109
848.00,0.0115
847.00,0.0124
846.00,0.0138
845.00,0.0161
844.00,0.0193
843.00,0.0229
842.00,0.0258
841.00,0.0267
840.00,0.0249
839.00,0.0214
838.00,0.0177
837.00,0.0149
836.00,0.0132
835.00,0.0121
834.00,0.0114
833.00,0.0109
832.00,0.0105
831.00,0.0103
830.00,0.0102
829.00,0.0101
828.00,0.0100
827.00,0.0099
826.00,0.0098
825.00,0.0098
824.00,0.0098
823.00,0.0100
822.00,0.0101
821.00,0.0103
820.00,0.0105
819.00,0.0109
818.00,0.0115
817.00,0.0123
816.00,0.0132
815.00,0.0144
814.00,0.0159
813.00,0.0178
812.00,0.0198
811.00,0.0217
810.00,0.0231
809.00,0.0236
808.00,0.0231
807.00,0.0217
806.00,0.0198
805.00,0.0177
804.00,0.0159
803.00,0.0145
802.00,0.0134
801.00,0.0126
800.00,0.0120
799.00,0.0115
798.00,0.0111
797.00,0.0107
796.00,0.0104
795.00,0.0102
794.00,0.0099
793.00,0.0096
792.00,0.0092
791.00,0.0088
790.00,0.0084
789.00,0.0081
788.00,0.0079
787.00,0.0077
786.00,0.0075
785.00,0.0073
784.00,0.0072
783.00,0.0070
782.00,0.0069
781.00,0.0069
780.00,0.0069
779.00,0.0069
778.00,0.0070
777.00,0.0069
776.00,0.0068
775.00,0.0067
774.00,0.0068
773.00,0.0069
772.00,0.0070
771.00,0.0070
770.00,0.0069
769.00,0.0068
768.00,0.0068
767.00,0.0069
766.00,0.0070
765.00,0.0070
764.00,0.0069
763.00,0.0069
762.00,0.0069
761.00,0.0070
760.00,0.0070
759.00,0.0071
758.00,0.0072
757.00,0.0073
756.00,0.0075
755.00,0.0077
754.00,0.0077
753.00,0.0077
752.00,0.0077
751.00,0.0077
750.00,0.0078
749.00,0.0080
748.00,0.0082
747.00,0.0085
746.00,0.0088
745.00,0.0090
744.00,0.0092
743.00,0.0094
742.00,0.0096
741.00,0.0100
740.00,0.0103
739.00,0.0106
738.00,0.0108
737.00,0.0111
736.00,0.0116
735.00,0.0122
734.00,0.0129
733.00,0.0135
732.00,0.0142
731.00,0.0148
730.00,0.0153
729.00,0.0155
728.00,0.0156
727.00,0.0157
726.00,0.0160
725.00,0.0164
724.00,0.0169
723.00,0.0175
722.00,0.0181
721.00,0.0186
720.00,0.0185
719.00,0.0177
718.00,0.0165
717.00,0.0152
716.00,0.0141
715.00,0.0133
714.00,0.0126
713.00,0.0121
712.00,0.0117
711.00,0.0114
710.00,0.0111
709.00,0.0109
708.00,0.0109
707.00,0.0108
706.00,0.0108
705.00,0.0106
704.00,0.0103
703.00,0.0100
702.00,0.0098
701.00,0.0096
700.00,0.0095
699.00,0.0095
698.00,0.0095
697.00,0.0095
696.00,0.0096
695.00,0.0097
694.00,0.0098
693.00,0.0099
692.00,0.0100
691.00,0.0101
690.00,0.0102
689.00,0.0101
688.00,0.0099
687.00,0.0097
686.00,0.0095
685.00,0.0093
684.00,0.0094
683.00,0.0095
682.00,0.0098
681.00,0.0100
680.00,0.0102
679.00,0.0103
678.00,0.0103
677.00,0.0102
676.00,0.0102
675.00,0.0103
674.00,0.0104
673.00,0.0105
672.00,0.0105
671.00,0.0105
670.00,0.0106
669.00,0.0106
668.00,0.0106
667.00,0.0105
666.00,0.0103
665.00,0.0100
664.00,0.0098
663.00,0.0096
662.00,0.0094
661.00,0.0093
660.00,0.0091
659.00,0.0091
658.00,0.0090
657.00,0.0090
656.00,0.0089
655.00,0.0089
654.00,0.0088
653.00,0.0087
652.00,0.0085
651.00,0.0084
650.00,0.0084
649.00,0.0085
648.00,0.0087
647.00,0.0089
646.00,0.0089
645.00,0.0088
644.00,0.0087
643.00,0.0087
642.00,0.0087
641.00,0.0088
640.00,0.0088
639.00,0.0089
638.00,0.0089
637.00,0.0090
636.00,0.0090
635.00,0.0090
634.00,0.0089
633.00,0.0087
632.00,0.0085
631.00,0.0084
630.00,0.0085
629.00,0.0087
628.00,0.0089
627.00,0.0091
626.00,0.0093
625.00,0.0094
624.00,0.0093
623.00,0.0090
622.00,0.0087
621.00,0.0086
620.00,0.0085
619.00,0.0084
618.00,0.0083
617.00,0.0083
616.00,0.0084
615.00,0.0085
614.00,0.0085
613.00,0.0084
612.00,0.0082
611.00,0.0081
610.00,0.0083
609.00,0.0086
608.00,0.0088
607.00,0.0089
606.00,0.0088
605.00,0.0088
604.00,0.0087
603.00,0.0087
602.00,0.0087
601.00,0.0086
600.00,0.0085
599.00,0.0085
598.00,0.0088
597.00,0.0092
596.00,0.0094
595.00,0.0093
594.00,0.0089
593.00,0.0085
592.00,0.0081
591.00,0.0080
590.00,0.0081
589.00,0.0083
588.00,0.0083
587.00,0.0084
586.00,0.0085
585.00,0.0088
584.00,0.0089
583.00,0.0088
582.00,0.0085
581.00,0.0082
580.00,0.0081
579.00,0.0081
578.00,0.0082
577.00,0.0082
576.00,0.0081
575.00,0.0080
574.00,0.0081
573.00,0.0082
572.00,0.0083
571.00,0.0085
570.00,0.0086
569.00,0.0086
568.00,0.0085
567.00,0.0084
566.00,0.0083
565.00,0.0083
564.00,0.0083
563.00,0.0085
562.00,0.0088
561.00,0.0093
560.00,0.0096
559.00,0.0095
558.00,0.0090
557.00,0.0085
556.00,0.0081
555.00,0.0081
554.00,0.0082
553.00,0.0084
552.00,0.0086
551.00,0.0087
550.00,0.0089
549.00,0.0090
548.00,0.0092
547.00,0.0092
546.00,0.0090
545.00,0.0088
544.00,0.0087
543.00,0.0088
542.00,0.0091
541.00,0.0094
540.00,0.0100
539.00,0.0105
538.00,0.0111
537.00,0.0115
536.00,0.0119
535.00,0.0121
534.00,0.0123
533.00,0.0123
532.00,0.0123
531.00,0.0121
530.00,0.0117
529.00,0.0113
528.00,0.0110
527.00,0.0107
526.00,0.0102
525.00,0.0097
524.00,0.0091
523.00,0.0088
522.00,0.0088
521.00,0.0089
520.00,0.0089
519.00,0.0086
518.00,0.0082
517.00,0.0082
516.00,0.0087
515.00,0.0095
514.00,0.0102
513.00,0.0102
512.00,0.0099
511.00,0.0095
510.00,0.0092
509.00,0.0090
508.00,0.0087
507.00,0.0083
506.00,0.0079
505.00,0.0080
504.00,0.0087
503.00,0.0099
502.00,0.0111
501.00,0.0120
500.00,0.0124
499.00,0.0123
498.00,0.0118
497.00,0.0111
496.00,0.0103
495.00,0.0097
494.00,0.0090
493.00,0.0084
492.00,0.0084
491.00,0.0091
490.00,0.0100
489.00,0.0105
488.00,0.0102
487.00,0.0096
486.00,0.0093
485.00,0.0099
484.00,0.0110
483.00,0.0117
482.00,0.0116
481.00,0.0106
480.00,0.0098
479.00,0.0096
478.00,0.0101
477.00,0.0108
476.00,0.0115
475.00,0.0122
474.00,0.0130
473.00,0.0137
472.00,0.0139
471.00,0.0138
470.00,0.0139
469.00,0.0147
468.00,0.0158
467.00,0.0165
466.00,0.0168
465.00,0.0170
464.00,0.0175
463.00,0.0180
462.00,0.0183
461.00,0.0186
460.00,0.0195
459.00,0.0210
458.00,0.0225
457.00,0.0229
456.00,0.0220
455.00,0.0205
454.00,0.0186
453.00,0.0168
452.00,0.0157
451.00,0.0155
450.00,0.0157
