Created as New Dataset,Sample 111 By Administrator Date Wednesday, September 03 2025
cm-1,A
4000.00,0.0010
3999.00,0.0010
3998.00,0.0010
3997.00,0.0010
3996.00,0.0010
3995.00,0.0010
3994.00,0.0011
3993.00,0.0010
3992.00,0.0010
3991.00,0.0010
3990.00,0.0010
3989.00,0.0010
3988.00,0.0010
3987.00,0.0010
3986.00,0.0010
3985.00,0.0010
3984.00,0.0010
3983.00,0.0010
3982.00,0.0010
3981.00,0.0010
3980.00,0.0009
3979.00,0.0009
3978.00,0.0009
3977.00,0.0009
3976.00,0.0009
3975.00,0.0009
3974.00,0.0009
3973.00,0.0009
3972.00,0.0009
3971.00,0.0009
3970.00,0.0009
3969.00,0.0009
3968.00,0.0009
3967.00,0.0009
3966.00,0.0008
3965.00,0.0008
3964.00,0.0008
3963.00,0.0008
3962.00,0.0008
3961.00,0.0008
3960.00,0.0008
3959.00,0.0008
3958.00,0.0008
3957.00,0.0008
3956.00,0.0008
3955.00,0.0008
3954.00,0.0008
3953.00,0.0008
3952.00,0.0008
3951.00,0.0008
3950.00,0.0008
3949.00,0.0008
3948.00,0.0008
3947.00,0.0008
3946.00,0.0008
3945.00,0.0008
3944.00,0.0008
3943.00,0.0008
3942.00,0.0008
3941.00,0.0008
3940.00,0.0009
3939.00,0.0009
3938.00,0.0009
3937.00,0.0009
3936.00,0.0009
3935.00,0.0009
3934.00,0.0010
3933.00,0.0010
3932.00,0.0010
3931.00,0.0009
3930.00,0.0009
3929.00,0.0009
3928.00,0.0010
3927.00,0.0010
3926.00,0.0010
3925.00,0.0010
3924.00,0.0010
3923.00,0.0009
3922.00,0.0009
3921.00,0.0009
3920.00,0.0009
3919.00,0.0009
3918.00,0.0009
3917.00,0.0008
3916.00,0.0008
3915.00,0.0008
3914.00,0.0008
3913.00,0.0007
3912.00,0.0007
3911.00,0.0007
3910.00,0.0007
3909.00,0.0007
3908.00,0.0007
3907.00,0.0007
3906.00,0.0007
3905.00,0.0007
3904.00,0.0007
3903.00,0.0007
3902.00,0.0007
3901.00,0.0007
3900.00,0.0008
3899.00,0.0008
3898.00,0.0008
3897.00,0.0008
3896.00,0.0008
3895.00,0.0008
3894.00,0.0008
3893.00,0.0008
3892.00,0.0008
3891.00,0.0008
3890.00,0.0008
3889.00,0.0008
3888.00,0.0008
3887.00,0.0008
3886.00,0.0008
3885.00,0.0008
3884.00,0.0008
3883.00,0.0008
3882.00,0.0008
3881.00,0.0008
3880.00,0.0008
3879.00,0.0008
3878.00,0.0008
3877.00,0.0008
3876.00,0.0008
3875.00,0.0008
3874.00,0.0008
3873.00,0.0008
3872.00,0.0008
3871.00,0.0008
3870.00,0.0007
3869.00,0.0007
3868.00,0.0006
3867.00,0.0006
3866.00,0.0007
3865.00,0.0007
3864.00,0.0007
3863.00,0.0007
3862.00,0.0008
3861.00,0.0008
3860.00,0.0009
3859.00,0.0009
3858.00,0.0009
3857.00,0.0009
3856.00,0.0010
3855.00,0.0009
3854.00,0.0009
3853.00,0.0008
3852.00,0.0008
3851.00,0.0008
3850.00,0.0008
3849.00,0.0008
3848.00,0.0008
3847.00,0.0008
3846.00,0.0007
3845.00,0.0007
3844.00,0.0007
3843.00,0.0006
3842.00,0.0007
3841.00,0.0007
3840.00,0.0008
3839.00,0.0008
3838.00,0.0008
3837.00,0.0008
3836.00,0.0008
3835.00,0.0008
3834.00,0.0008
3833.00,0.0008
3832.00,0.0008
3831.00,0.0008
3830.00,0.0008
3829.00,0.0008
3828.00,0.0008
3827.00,0.0008
3826.00,0.0008
3825.00,0.0008
3824.00,0.0008
3823.00,0.0008
3822.00,0.0007
3821.00,0.0007
3820.00,0.0007
3819.00,0.0007
3818.00,0.0008
3817.00,0.0008
3816.00,0.0008
3815.00,0.0008
3814.00,0.0008
3813.00,0.0008
3812.00,0.0007
3811.00,0.0007
3810.00,0.0007
3809.00,0.0007
3808.00,0.0008
3807.00,0.0008
3806.00,0.0008
3805.00,0.0008
3804.00,0.0007
3803.00,0.0007
3802.00,0.0007
3801.00,0.0007
3800.00,0.0007
3799.00,0.0008
3798.00,0.0008
3797.00,0.0008
3796.00,0.0009
3795.00,0.0008
3794.00,0.0008
3793.00,0.0008
3792.00,0.0008
3791.00,0.0008
3790.00,0.0008
3789.00,0.0008
3788.00,0.0008
3787.00,0.0008
3786.00,0.0008
3785.00,0.0008
3784.00,0.0008
3783.00,0.0008
3782.00,0.0008
3781.00,0.0008
3780.00,0.0008
3779.00,0.0008
3778.00,0.0008
3777.00,0.0007
3776.00,0.0007
3775.00,0.0007
3774.00,0.0007
3773.00,0.0006
3772.00,0.0006
3771.00,0.0006
3770.00,0.0006
3769.00,0.0006
3768.00,0.0006
3767.00,0.0007
3766.00,0.0007
3765.00,0.0008
3764.00,0.0008
3763.00,0.0009
3762.00,0.0009
3761.00,0.0008
3760.00,0.0008
3759.00,0.0008
3758.00,0.0008
3757.00,0.0007
3756.00,0.0007
3755.00,0.0007
3754.00,0.0007
3753.00,0.0007
3752.00,0.0008
3751.00,0.0008
3750.00,0.0008
3749.00,0.0008
3748.00,0.0008
3747.00,0.0008
3746.00,0.0007
3745.00,0.0007
3744.00,0.0007
3743.00,0.0007
3742.00,0.0007
3741.00,0.0006
3740.00,0.0006
3739.00,0.0006
3738.00,0.0006
3737.00,0.0006
3736.00,0.0006
3735.00,0.0006
3734.00,0.0006
3733.00,0.0006
3732.00,0.0006
3731.00,0.0006
3730.00,0.0006
3729.00,0.0006
3728.00,0.0006
3727.00,0.0006
3726.00,0.0006
3725.00,0.0006
3724.00,0.0006
3723.00,0.0006
3722.00,0.0006
3721.00,0.0006
3720.00,0.0006
3719.00,0.0006
3718.00,0.0007
3717.00,0.0007
3716.00,0.0007
3715.00,0.0006
3714.00,0.0006
3713.00,0.0006
3712.00,0.0006
3711.00,0.0006
3710.00,0.0006
3709.00,0.0006
3708.00,0.0006
3707.00,0.0005
3706.00,0.0005
3705.00,0.0006
3704.00,0.0006
3703.00,0.0006
3702.00,0.0007
3701.00,0.0007
3700.00,0.0007
3699.00,0.0007
3698.00,0.0006
3697.00,0.0006
3696.00,0.0006
3695.00,0.0006
3694.00,0.0006
3693.00,0.0005
3692.00,0.0005
3691.00,0.0005
3690.00,0.0005
3689.00,0.0005
3688.00,0.0006
3687.00,0.0006
3686.00,0.0006
3685.00,0.0006
3684.00,0.0006
3683.00,0.0006
3682.00,0.0006
3681.00,0.0006
3680.00,0.0007
3679.00,0.0007
3678.00,0.0007
3677.00,0.0007
3676.00,0.0007
3675.00,0.0007
3674.00,0.0007
3673.00,0.0007
3672.00,0.0007
3671.00,0.0007
3670.00,0.0007
3669.00,0.0007
3668.00,0.0008
3667.00,0.0008
3666.00,0.0007
3665.00,0.0007
3664.00,0.0007
3663.00,0.0007
3662.00,0.0007
3661.00,0.0007
3660.00,0.0006
3659.00,0.0006
3658.00,0.0006
3657.00,0.0006
3656.00,0.0007
3655.00,0.0007
3654.00,0.0008
3653.00,0.0008
3652.00,0.0008
3651.00,0.0008
3650.00,0.0007
3649.00,0.0006
3648.00,0.0006
3647.00,0.0007
3646.00,0.0007
3645.00,0.0007
3644.00,0.0007
3643.00,0.0007
3642.00,0.0007
3641.00,0.0007
3640.00,0.0006
3639.00,0.0006
3638.00,0.0006
3637.00,0.0006
3636.00,0.0006
3635.00,0.0006
3634.00,0.0006
3633.00,0.0006
3632.00,0.0006
3631.00,0.0006
3630.00,0.0006
3629.00,0.0006
3628.00,0.0005
3627.00,0.0005
3626.00,0.0005
3625.00,0.0005
3624.00,0.0005
3623.00,0.0004
3622.00,0.0004
3621.00,0.0004
3620.00,0.0004
3619.00,0.0004
3618.00,0.0004
3617.00,0.0004
3616.00,0.0005
3615.00,0.0005
3614.00,0.0005
3613.00,0.0005
3612.00,0.0005
3611.00,0.0006
3610.00,0.0005
3609.00,0.0005
3608.00,0.0005
3607.00,0.0005
3606.00,0.0004
3605.00,0.0004
3604.00,0.0005
3603.00,0.0005
3602.00,0.0006
3601.00,0.0006
3600.00,0.0006
3599.00,0.0006
3598.00,0.0006
3597.00,0.0005
3596.00,0.0005
3595.00,0.0005
3594.00,0.0005
3593.00,0.0006
3592.00,0.0006
3591.00,0.0006
3590.00,0.0006
3589.00,0.0006
3588.00,0.0006
3587.00,0.0006
3586.00,0.0006
3585.00,0.0006
3584.00,0.0006
3583.00,0.0006
3582.00,0.0006
3581.00,0.0006
3580.00,0.0006
3579.00,0.0007
3578.00,0.0007
3577.00,0.0007
3576.00,0.0008
3575.00,0.0008
3574.00,0.0008
3573.00,0.0007
3572.00,0.0007
3571.00,0.0007
3570.00,0.0008
3569.00,0.0008
3568.00,0.0008
3567.00,0.0008
3566.00,0.0008
3565.00,0.0007
3564.00,0.0008
3563.00,0.0008
3562.00,0.0008
3561.00,0.0008
3560.00,0.0007
3559.00,0.0007
3558.00,0.0008
3557.00,0.0008
3556.00,0.0009
3555.00,0.0009
3554.00,0.0009
3553.00,0.0009
3552.00,0.0009
3551.00,0.0009
3550.00,0.0009
3549.00,0.0009
3548.00,0.0009
3547.00,0.0009
3546.00,0.0009
3545.00,0.0010
3544.00,0.0010
3543.00,0.0010
3542.00,0.0010
3541.00,0.0010
3540.00,0.0010
3539.00,0.0011
3538.00,0.0011
3537.00,0.0011
3536.00,0.0011
3535.00,0.0010
3534.00,0.0010
3533.00,0.0010
3532.00,0.0010
3531.00,0.0010
3530.00,0.0011
3529.00,0.0011
3528.00,0.0011
3527.00,0.0011
3526.00,0.0011
3525.00,0.0011
3524.00,0.0011
3523.00,0.0011
3522.00,0.0012
3521.00,0.0012
3520.00,0.0012
3519.00,0.0012
3518.00,0.0012
3517.00,0.0012
3516.00,0.0012
3515.00,0.0012
3514.00,0.0012
3513.00,0.0012
3512.00,0.0012
3511.00,0.0012
3510.00,0.0013
3509.00,0.0013
3508.00,0.0013
3507.00,0.0013
3506.00,0.0013
3505.00,0.0013
3504.00,0.0013
3503.00,0.0013
3502.00,0.0013
3501.00,0.0013
3500.00,0.0014
3499.00,0.0014
3498.00,0.0014
3497.00,0.0014
3496.00,0.0014
3495.00,0.0014
3494.00,0.0014
3493.00,0.0014
3492.00,0.0014
3491.00,0.0015
3490.00,0.0015
3489.00,0.0015
3488.00,0.0015
3487.00,0.0015
3486.00,0.0015
3485.00,0.0015
3484.00,0.0015
3483.00,0.0015
3482.00,0.0015
3481.00,0.0015
3480.00,0.0015
3479.00,0.0015
3478.00,0.0015
3477.00,0.0015
3476.00,0.0015
3475.00,0.0015
3474.00,0.0015
3473.00,0.0015
3472.00,0.0016
3471.00,0.0016
3470.00,0.0017
3469.00,0.0017
3468.00,0.0017
3467.00,0.0017
3466.00,0.0016
3465.00,0.0016
3464.00,0.0017
3463.00,0.0017
3462.00,0.0017
3461.00,0.0017
3460.00,0.0017
3459.00,0.0017
3458.00,0.0018
3457.00,0.0018
3456.00,0.0018
3455.00,0.0018
3454.00,0.0018
3453.00,0.0018
3452.00,0.0018
3451.00,0.0018
3450.00,0.0018
3449.00,0.0018
3448.00,0.0019
3447.00,0.0019
3446.00,0.0019
3445.00,0.0019
3444.00,0.0019
3443.00,0.0019
3442.00,0.0019
3441.00,0.0020
3440.00,0.0020
3439.00,0.0020
3438.00,0.0020
3437.00,0.0020
3436.00,0.0020
3435.00,0.0020
3434.00,0.0020
3433.00,0.0020
3432.00,0.0020
3431.00,0.0020
3430.00,0.0020
3429.00,0.0020
3428.00,0.0021
3427.00,0.0021
3426.00,0.0021
3425.00,0.0022
3424.00,0.0022
3423.00,0.0022
3422.00,0.0021
3421.00,0.0021
3420.00,0.0021
3419.00,0.0021
3418.00,0.0022
3417.00,0.0022
3416.00,0.0022
3415.00,0.0021
3414.00,0.0021
3413.00,0.0021
3412.00,0.0022
3411.00,0.0022
3410.00,0.0022
3409.00,0.0022
3408.00,0.0022
3407.00,0.0022
3406.00,0.0022
3405.00,0.0022
3404.00,0.0022
3403.00,0.0023
3402.00,0.0022
3401.00,0.0022
3400.00,0.0022
3399.00,0.0023
3398.00,0.0023
3397.00,0.0023
3396.00,0.0023
3395.00,0.0023
3394.00,0.0022
3393.00,0.0022
3392.00,0.0022
3391.00,0.0022
3390.00,0.0022
3389.00,0.0023
3388.00,0.0023
3387.00,0.0023
3386.00,0.0023
3385.00,0.0023
3384.00,0.0023
3383.00,0.0023
3382.00,0.0023
3381.00,0.0023
3380.00,0.0023
3379.00,0.0023
3378.00,0.0023
3377.00,0.0023
3376.00,0.0023
3375.00,0.0023
3374.00,0.0023
3373.00,0.0023
3372.00,0.0024
3371.00,0.0024
3370.00,0.0024
3369.00,0.0024
3368.00,0.0024
3367.00,0.0023
3366.00,0.0023
3365.00,0.0023
3364.00,0.0023
3363.00,0.0023
3362.00,0.0023
3361.00,0.0023
3360.00,0.0023
3359.00,0.0024
3358.00,0.0024
3357.00,0.0024
3356.00,0.0024
3355.00,0.0025
3354.00,0.0025
3353.00,0.0026
3352.00,0.0026
3351.00,0.0026
3350.00,0.0025
3349.00,0.0025
3348.00,0.0025
3347.00,0.0025
3346.00,0.0025
3345.00,0.0025
3344.00,0.0025
3343.00,0.0025
3342.00,0.0025
3341.00,0.0025
3340.00,0.0025
3339.00,0.0025
3338.00,0.0025
3337.00,0.0025
3336.00,0.0025
3335.00,0.0025
3334.00,0.0025
3333.00,0.0025
3332.00,0.0025
3331.00,0.0025
3330.00,0.0025
3329.00,0.0024
3328.00,0.0024
3327.00,0.0024
3326.00,0.0024
3325.00,0.0023
3324.00,0.0023
3323.00,0.0024
3322.00,0.0024
3321.00,0.0023
3320.00,0.0023
3319.00,0.0023
3318.00,0.0024
3317.00,0.0024
3316.00,0.0024
3315.00,0.0024
3314.00,0.0024
3313.00,0.0025
3312.00,0.0025
3311.00,0.0025
3310.00,0.0025
3309.00,0.0025
3308.00,0.0026
3307.00,0.0026
3306.00,0.0026
3305.00,0.0027
3304.00,0.0026
3303.00,0.0026
3302.00,0.0026
3301.00,0.0026
3300.00,0.0025
3299.00,0.0025
3298.00,0.0025
3297.00,0.0025
3296.00,0.0025
3295.00,0.0025
3294.00,0.0025
3293.00,0.0025
3292.00,0.0025
3291.00,0.0025
3290.00,0.0025
3289.00,0.0024
3288.00,0.0024
3287.00,0.0024
3286.00,0.0024
3285.00,0.0024
3284.00,0.0024
3283.00,0.0024
3282.00,0.0024
3281.00,0.0024
3280.00,0.0024
3279.00,0.0024
3278.00,0.0024
3277.00,0.0024
3276.00,0.0024
3275.00,0.0024
3274.00,0.0024
3273.00,0.0024
3272.00,0.0023
3271.00,0.0023
3270.00,0.0023
3269.00,0.0023
3268.00,0.0023
3267.00,0.0023
3266.00,0.0023
3265.00,0.0023
3264.00,0.0023
3263.00,0.0023
3262.00,0.0023
3261.00,0.0023
3260.00,0.0023
3259.00,0.0023
3258.00,0.0023
3257.00,0.0023
3256.00,0.0022
3255.00,0.0022
3254.00,0.0022
3253.00,0.0022
3252.00,0.0022
3251.00,0.0022
3250.00,0.0022
3249.00,0.0022
3248.00,0.0022
3247.00,0.0022
3246.00,0.0022
3245.00,0.0022
3244.00,0.0022
3243.00,0.0022
3242.00,0.0023
3241.00,0.0023
3240.00,0.0023
3239.00,0.0023
3238.00,0.0023
3237.00,0.0023
3236.00,0.0023
3235.00,0.0023
3234.00,0.0023
3233.00,0.0023
3232.00,0.0023
3231.00,0.0023
3230.00,0.0023
3229.00,0.0023
3228.00,0.0024
3227.00,0.0025
3226.00,0.0025
3225.00,0.0025
3224.00,0.0025
3223.00,0.0025
3222.00,0.0026
3221.00,0.0026
3220.00,0.0026
3219.00,0.0026
3218.00,0.0026
3217.00,0.0026
3216.00,0.0026
3215.00,0.0026
3214.00,0.0026
3213.00,0.0026
3212.00,0.0027
3211.00,0.0027
3210.00,0.0028
3209.00,0.0028
3208.00,0.0028
3207.00,0.0028
3206.00,0.0028
3205.00,0.0029
3204.00,0.0029
3203.00,0.0030
3202.00,0.0030
3201.00,0.0029
3200.00,0.0029
3199.00,0.0029
3198.00,0.0029
3197.00,0.0029
3196.00,0.0029
3195.00,0.0029
3194.00,0.0030
3193.00,0.0030
3192.00,0.0030
3191.00,0.0030
3190.00,0.0029
3189.00,0.0029
3188.00,0.0028
3187.00,0.0028
3186.00,0.0028
3185.00,0.0028
3184.00,0.0028
3183.00,0.0028
3182.00,0.0028
3181.00,0.0028
3180.00,0.0028
3179.00,0.0028
3178.00,0.0027
3177.00,0.0027
3176.00,0.0027
3175.00,0.0027
3174.00,0.0027
3173.00,0.0027
3172.00,0.0027
3171.00,0.0027
3170.00,0.0027
3169.00,0.0027
3168.00,0.0027
3167.00,0.0026
3166.00,0.0026
3165.00,0.0026
3164.00,0.0026
3163.00,0.0026
3162.00,0.0026
3161.00,0.0026
3160.00,0.0026
3159.00,0.0026
3158.00,0.0026
3157.00,0.0026
3156.00,0.0026
3155.00,0.0026
3154.00,0.0026
3153.00,0.0027
3152.00,0.0027
3151.00,0.0027
3150.00,0.0027
3149.00,0.0027
3148.00,0.0027
3147.00,0.0026
3146.00,0.0026
3145.00,0.0027
3144.00,0.0027
3143.00,0.0027
3142.00,0.0027
3141.00,0.0027
3140.00,0.0026
3139.00,0.0026
3138.00,0.0026
3137.00,0.0026
3136.00,0.0026
3135.00,0.0026
3134.00,0.0026
3133.00,0.0026
3132.00,0.0026
3131.00,0.0026
3130.00,0.0025
3129.00,0.0025
3128.00,0.0025
3127.00,0.0025
3126.00,0.0025
3125.00,0.0025
3124.00,0.0025
3123.00,0.0025
3122.00,0.0024
3121.00,0.0024
3120.00,0.0024
3119.00,0.0023
3118.00,0.0023
3117.00,0.0023
3116.00,0.0023
3115.00,0.0023
3114.00,0.0023
3113.00,0.0023
3112.00,0.0023
3111.00,0.0023
3110.00,0.0023
3109.00,0.0023
3108.00,0.0023
3107.00,0.0023
3106.00,0.0023
3105.00,0.0023
3104.00,0.0023
3103.00,0.0023
3102.00,0.0023
3101.00,0.0023
3100.00,0.0022
3099.00,0.0023
3098.00,0.0023
3097.00,0.0023
3096.00,0.0023
3095.00,0.0023
3094.00,0.0023
3093.00,0.0023
3092.00,0.0023
3091.00,0.0023
3090.00,0.0023
3089.00,0.0024
3088.00,0.0023
3087.00,0.0023
3086.00,0.0023
3085.00,0.0023
3084.00,0.0023
3083.00,0.0023
3082.00,0.0023
3081.00,0.0023
3080.00,0.0023
3079.00,0.0023
3078.00,0.0023
3077.00,0.0023
3076.00,0.0024
3075.00,0.0024
3074.00,0.0024
3073.00,0.0024
3072.00,0.0024
3071.00,0.0024
3070.00,0.0025
3069.00,0.0025
3068.00,0.0025
3067.00,0.0025
3066.00,0.0026
3065.00,0.0026
3064.00,0.0026
3063.00,0.0027
3062.00,0.0027
3061.00,0.0027
3060.00,0.0027
3059.00,0.0027
3058.00,0.0027
3057.00,0.0027
3056.00,0.0027
3055.00,0.0027
3054.00,0.0027
3053.00,0.0027
3052.00,0.0027
3051.00,0.0028
3050.00,0.0028
3049.00,0.0028
3048.00,0.0029
3047.00,0.0029
3046.00,0.0030
3045.00,0.0030
3044.00,0.0030
3043.00,0.0030
3042.00,0.0030
3041.00,0.0030
3040.00,0.0031
3039.00,0.0032
3038.00,0.0032
3037.00,0.0033
3036.00,0.0033
3035.00,0.0033
3034.00,0.0033
3033.00,0.0033
3032.00,0.0034
3031.00,0.0034
3030.00,0.0035
3029.00,0.0035
3028.00,0.0036
3027.00,0.0037
3026.00,0.0037
3025.00,0.0038
3024.00,0.0038
3023.00,0.0039
3022.00,0.0040
3021.00,0.0041
3020.00,0.0042
3019.00,0.0043
3018.00,0.0045
3017.00,0.0046
3016.00,0.0048
3015.00,0.0049
3014.00,0.0050
3013.00,0.0052
3012.00,0.0054
3011.00,0.0056
3010.00,0.0058
3009.00,0.0060
3008.00,0.0062
3007.00,0.0064
3006.00,0.0066
3005.00,0.0068
3004.00,0.0071
3003.00,0.0074
3002.00,0.0077
3001.00,0.0080
3000.00,0.0083
2999.00,0.0087
2998.00,0.0091
2997.00,0.0095
2996.00,0.0099
2995.00,0.0103
2994.00,0.0108
2993.00,0.0113
2992.00,0.0118
2991.00,0.0124
2990.00,0.0131
2989.00,0.0138
2988.00,0.0147
2987.00,0.0156
2986.00,0.0168
2985.00,0.0181
2984.00,0.0196
2983.00,0.0213
2982.00,0.0230
2981.00,0.0248
2980.00,0.0269
2979.00,0.0291
2978.00,0.0317
2977.00,0.0347
2976.00,0.0381
2975.00,0.0421
2974.00,0.0468
2973.00,0.0521
2972.00,0.0581
2971.00,0.0648
2970.00,0.0723
2969.00,0.0807
2968.00,0.0899
2967.00,0.0999
2966.00,0.1106
2965.00,0.1218
2964.00,0.1332
2963.00,0.1442
2962.00,0.1543
2961.00,0.1629
2960.00,0.1696
2959.00,0.1745
2958.00,0.1779
2957.00,0.1803
2956.00,0.1825
2955.00,0.1849
2954.00,0.1877
2953.00,0.1906
2952.00,0.1928
2951.00,0.1933
2950.00,0.1914
2949.00,0.1864
2948.00,0.1783
2947.00,0.1678
2946.00,0.1558
2945.00,0.1436
2944.00,0.1323
2943.00,0.1226
2942.00,0.1152
2941.00,0.1102
2940.00,0.1074
2939.00,0.1068
2938.00,0.1080
2937.00,0.1110
2936.00,0.1154
2935.00,0.1211
2934.00,0.1282
2933.00,0.1363
2932.00,0.1454
2931.00,0.1552
2930.00,0.1655
2929.00,0.1760
2928.00,0.1864
2927.00,0.1963
2926.00,0.2058
2925.00,0.2147
2924.00,0.2232
2923.00,0.2313
2922.00,0.2390
2921.00,0.2461
2920.00,0.2522
2919.00,0.2563
2918.00,0.2579
2917.00,0.2566
2916.00,0.2523
2915.00,0.2456
2914.00,0.2376
2913.00,0.2290
2912.00,0.2208
2911.00,0.2134
2910.00,0.2069
2909.00,0.2012
2908.00,0.1960
2907.00,0.1909
2906.00,0.1856
2905.00,0.1799
2904.00,0.1739
2903.00,0.1675
2902.00,0.1610
2901.00,0.1544
2900.00,0.1480
2899.00,0.1418
2898.00,0.1360
2897.00,0.1307
2896.00,0.1258
2895.00,0.1216
2894.00,0.1179
2893.00,0.1148
2892.00,0.1123
2891.00,0.1103
2890.00,0.1087
2889.00,0.1076
2888.00,0.1068
2887.00,0.1064
2886.00,0.1064
2885.00,0.1067
2884.00,0.1073
2883.00,0.1083
2882.00,0.1096
2881.00,0.1111
2880.00,0.1125
2879.00,0.1136
2878.00,0.1141
2877.00,0.1140
2876.00,0.1134
2875.00,0.1126
2874.00,0.1122
2873.00,0.1123
2872.00,0.1130
2871.00,0.1144
2870.00,0.1161
2869.00,0.1176
2868.00,0.1184
2867.00,0.1178
2866.00,0.1153
2865.00,0.1109
2864.00,0.1050
2863.00,0.0983
2862.00,0.0918
2861.00,0.0862
2860.00,0.0820
2859.00,0.0793
2858.00,0.0780
2857.00,0.0778
2856.00,0.0784
2855.00,0.0797
2854.00,0.0814
2853.00,0.0832
2852.00,0.0851
2851.00,0.0868
2850.00,0.0882
2849.00,0.0894
2848.00,0.0906
2847.00,0.0922
2846.00,0.0948
2845.00,0.0984
2844.00,0.1031
2843.00,0.1085
2842.00,0.1142
2841.00,0.1196
2840.00,0.1237
2839.00,0.1257
2838.00,0.1250
2837.00,0.1211
2836.00,0.1143
2835.00,0.1050
2834.00,0.0944
2833.00,0.0835
2832.00,0.0731
2831.00,0.0640
2830.00,0.0562
2829.00,0.0498
2828.00,0.0446
2827.00,0.0404
2826.00,0.0370
2825.00,0.0341
2824.00,0.0317
2823.00,0.0297
2822.00,0.0279
2821.00,0.0264
2820.00,0.0251
2819.00,0.0239
2818.00,0.0229
2817.00,0.0220
2816.00,0.0212
2815.00,0.0205
2814.00,0.0199
2813.00,0.0193
2812.00,0.0187
2811.00,0.0181
2810.00,0.0176
2809.00,0.0171
2808.00,0.0165
2807.00,0.0159
2806.00,0.0153
2805.00,0.0147
2804.00,0.0141
2803.00,0.0135
2802.00,0.0130
2801.00,0.0125
2800.00,0.0122
2799.00,0.0119
2798.00,0.0117
2797.00,0.0114
2796.00,0.0112
2795.00,0.0110
2794.00,0.0107
2793.00,0.0104
2792.00,0.0101
2791.00,0.0098
2790.00,0.0094
2789.00,0.0090
2788.00,0.0086
2787.00,0.0083
2786.00,0.0080
2785.00,0.0077
2784.00,0.0075
2783.00,0.0073
2782.00,0.0070
2781.00,0.0068
2780.00,0.0067
2779.00,0.0065
2778.00,0.0063
2777.00,0.0062
2776.00,0.0061
2775.00,0.0060
2774.00,0.0059
2773.00,0.0058
2772.00,0.0057
2771.00,0.0057
2770.00,0.0057
2769.00,0.0056
2768.00,0.0056
2767.00,0.0055
2766.00,0.0055
2765.00,0.0055
2764.00,0.0054
2763.00,0.0054
2762.00,0.0053
2761.00,0.0053
2760.00,0.0052
2759.00,0.0052
2758.00,0.0052
2757.00,0.0053
2756.00,0.0053
2755.00,0.0053
2754.00,0.0052
2753.00,0.0052
2752.00,0.0051
2751.00,0.0051
2750.00,0.0050
2749.00,0.0050
2748.00,0.0051
2747.00,0.0051
2746.00,0.0052
2745.00,0.0053
2744.00,0.0053
2743.00,0.0054
2742.00,0.0055
2741.00,0.0056
2740.00,0.0057
2739.00,0.0058
2738.00,0.0059
2737.00,0.0060
2736.00,0.0061
2735.00,0.0062
2734.00,0.0064
2733.00,0.0065
2732.00,0.0067
2731.00,0.0070
2730.00,0.0072
2729.00,0.0074
2728.00,0.0077
2727.00,0.0079
2726.00,0.0082
2725.00,0.0084
2724.00,0.0085
2723.00,0.0086
2722.00,0.0085
2721.00,0.0083
2720.00,0.0080
2719.00,0.0077
2718.00,0.0074
2717.00,0.0071
2716.00,0.0068
2715.00,0.0066
2714.00,0.0063
2713.00,0.0061
2712.00,0.0060
2711.00,0.0058
2710.00,0.0057
2709.00,0.0055
2708.00,0.0054
2707.00,0.0053
2706.00,0.0051
2705.00,0.0050
2704.00,0.0049
2703.00,0.0048
2702.00,0.0048
2701.00,0.0047
2700.00,0.0047
2699.00,0.0046
2698.00,0.0046
2697.00,0.0046
2696.00,0.0046
2695.00,0.0046
2694.00,0.0046
2693.00,0.0046
2692.00,0.0046
2691.00,0.0046
2690.00,0.0046
2689.00,0.0046
2688.00,0.0045
2687.00,0.0045
2686.00,0.0045
2685.00,0.0046
2684.00,0.0046
2683.00,0.0046
2682.00,0.0046
2681.00,0.0046
2680.00,0.0046
2679.00,0.0047
2678.00,0.0047
2677.00,0.0047
2676.00,0.0047
2675.00,0.0046
2674.00,0.0046
2673.00,0.0046
2672.00,0.0046
2671.00,0.0046
2670.00,0.0045
2669.00,0.0045
2668.00,0.0045
2667.00,0.0045
2666.00,0.0046
2665.00,0.0046
2664.00,0.0047
2663.00,0.0048
2662.00,0.0048
2661.00,0.0048
2660.00,0.0048
2659.00,0.0048
2658.00,0.0048
2657.00,0.0048
2656.00,0.0048
2655.00,0.0047
2654.00,0.0047
2653.00,0.0046
2652.00,0.0046
2651.00,0.0045
2650.00,0.0045
2649.00,0.0045
2648.00,0.0045
2647.00,0.0045
2646.00,0.0044
2645.00,0.0043
2644.00,0.0042
2643.00,0.0042
2642.00,0.0042
2641.00,0.0041
2640.00,0.0041
2639.00,0.0041
2638.00,0.0041
2637.00,0.0040
2636.00,0.0040
2635.00,0.0039
2634.00,0.0038
2633.00,0.0038
2632.00,0.0038
2631.00,0.0039
2630.00,0.0039
2629.00,0.0040
2628.00,0.0041
2627.00,0.0041
2626.00,0.0042
2625.00,0.0042
2624.00,0.0042
2623.00,0.0042
2622.00,0.0041
2621.00,0.0040
2620.00,0.0040
2619.00,0.0040
2618.00,0.0040
2617.00,0.0040
2616.00,0.0040
2615.00,0.0040
2614.00,0.0039
2613.00,0.0039
2612.00,0.0039
2611.00,0.0038
2610.00,0.0038
2609.00,0.0038
2608.00,0.0037
2607.00,0.0036
2606.00,0.0035
2605.00,0.0034
2604.00,0.0034
2603.00,0.0034
2602.00,0.0034
2601.00,0.0033
2600.00,0.0033
2599.00,0.0032
2598.00,0.0032
2597.00,0.0032
2596.00,0.0032
2595.00,0.0032
2594.00,0.0032
2593.00,0.0032
2592.00,0.0033
2591.00,0.0033
2590.00,0.0034
2589.00,0.0035
2588.00,0.0036
2587.00,0.0037
2586.00,0.0037
2585.00,0.0038
2584.00,0.0038
2583.00,0.0039
2582.00,0.0039
2581.00,0.0038
2580.00,0.0038
2579.00,0.0037
2578.00,0.0035
2577.00,0.0034
2576.00,0.0033
2575.00,0.0032
2574.00,0.0031
2573.00,0.0030
2572.00,0.0029
2571.00,0.0028
2570.00,0.0028
2569.00,0.0027
2568.00,0.0027
2567.00,0.0026
2566.00,0.0025
2565.00,0.0025
2564.00,0.0024
2563.00,0.0024
2562.00,0.0024
2561.00,0.0024
2560.00,0.0024
2559.00,0.0024
2558.00,0.0024
2557.00,0.0023
2556.00,0.0023
2555.00,0.0023
2554.00,0.0023
2553.00,0.0023
2552.00,0.0023
2551.00,0.0023
2550.00,0.0022
2549.00,0.0021
2548.00,0.0020
2547.00,0.0020
2546.00,0.0020
2545.00,0.0019
2544.00,0.0019
2543.00,0.0018
2542.00,0.0018
2541.00,0.0018
2540.00,0.0018
2539.00,0.0018
2538.00,0.0018
2537.00,0.0017
2536.00,0.0017
2535.00,0.0017
2534.00,0.0017
2533.00,0.0017
2532.00,0.0016
2531.00,0.0016
2530.00,0.0015
2529.00,0.0015
2528.00,0.0014
2527.00,0.0014
2526.00,0.0014
2525.00,0.0014
2524.00,0.0015
2523.00,0.0015
2522.00,0.0016
2521.00,0.0015
2520.00,0.0014
2519.00,0.0014
2518.00,0.0013
2517.00,0.0013
2516.00,0.0013
2515.00,0.0013
2514.00,0.0013
2513.00,0.0013
2512.00,0.0012
2511.00,0.0011
2510.00,0.0011
2509.00,0.0010
2508.00,0.0010
2507.00,0.0010
2506.00,0.0010
2505.00,0.0010
2504.00,0.0011
2503.00,0.0011
2502.00,0.0011
2501.00,0.0011
2500.00,0.0011
2499.00,0.0011
2498.00,0.0011
2497.00,0.0011
2496.00,0.0012
2495.00,0.0012
2494.00,0.0011
2493.00,0.0011
2492.00,0.0011
2491.00,0.0011
2490.00,0.0011
2489.00,0.0011
2488.00,0.0011
2487.00,0.0011
2486.00,0.0011
2485.00,0.0011
2484.00,0.0011
2483.00,0.0011
2482.00,0.0011
2481.00,0.0011
2480.00,0.0011
2479.00,0.0011
2478.00,0.0010
2477.00,0.0011
2476.00,0.0011
2475.00,0.0011
2474.00,0.0011
2473.00,0.0011
2472.00,0.0010
2471.00,0.0010
2470.00,0.0009
2469.00,0.0009
2468.00,0.0009
2467.00,0.0009
2466.00,0.0009
2465.00,0.0009
2464.00,0.0009
2463.00,0.0009
2462.00,0.0009
2461.00,0.0010
2460.00,0.0010
2459.00,0.0010
2458.00,0.0011
2457.00,0.0011
2456.00,0.0011
2455.00,0.0011
2454.00,0.0010
2453.00,0.0010
2452.00,0.0010
2451.00,0.0011
2450.00,0.0012
2449.00,0.0012
2448.00,0.0012
2447.00,0.0012
2446.00,0.0011
2445.00,0.0011
2444.00,0.0011
2443.00,0.0010
2442.00,0.0010
2441.00,0.0010
2440.00,0.0010
2439.00,0.0010
2438.00,0.0011
2437.00,0.0012
2436.00,0.0012
2435.00,0.0012
2434.00,0.0012
2433.00,0.0012
2432.00,0.0012
2431.00,0.0012
2430.00,0.0012
2429.00,0.0012
2428.00,0.0012
2427.00,0.0011
2426.00,0.0012
2425.00,0.0012
2424.00,0.0012
2423.00,0.0012
2422.00,0.0011
2421.00,0.0011
2420.00,0.0010
2419.00,0.0010
2418.00,0.0010
2417.00,0.0010
2416.00,0.0010
2415.00,0.0011
2414.00,0.0011
2413.00,0.0011
2412.00,0.0011
2411.00,0.0011
2410.00,0.0011
2409.00,0.0010
2408.00,0.0010
2407.00,0.0009
2406.00,0.0008
2405.00,0.0008
2404.00,0.0008
2403.00,0.0009
2402.00,0.0010
2401.00,0.0010
2400.00,0.0010
2399.00,0.0009
2398.00,0.0008
2397.00,0.0008
2396.00,0.0008
2395.00,0.0008
2394.00,0.0009
2393.00,0.0009
2392.00,0.0009
2391.00,0.0008
2390.00,0.0008
2389.00,0.0007
2388.00,0.0007
2387.00,0.0007
2386.00,0.0007
2385.00,0.0006
2384.00,0.0005
2383.00,0.0004
2382.00,0.0003
2381.00,0.0002
2380.00,0.0001
2379.00,0.0002
2378.00,0.0002
2377.00,0.0003
2376.00,0.0004
2375.00,0.0004
2374.00,0.0004
2373.00,0.0003
2372.00,0.0002
2371.00,0.0002
2370.00,0.0003
2369.00,0.0003
2368.00,0.0003
2367.00,0.0002
2366.00,0.0001
2365.00,0.0001
2364.00,0.0001
2363.00,0.0002
2362.00,0.0003
2361.00,0.0004
2360.00,0.0005
2359.00,0.0004
2358.00,0.0004
2357.00,0.0003
2356.00,0.0003
2355.00,0.0003
2354.00,0.0003
2353.00,0.0003
2352.00,0.0003
2351.00,0.0002
2350.00,0.0003
2349.00,0.0003
2348.00,0.0004
2347.00,0.0005
2346.00,0.0006
2345.00,0.0005
2344.00,0.0005
2343.00,0.0005
2342.00,0.0006
2341.00,0.0006
2340.00,0.0006
2339.00,0.0006
2338.00,0.0006
2337.00,0.0006
2336.00,0.0007
2335.00,0.0007
2334.00,0.0007
2333.00,0.0006
2332.00,0.0005
2331.00,0.0005
2330.00,0.0004
2329.00,0.0005
2328.00,0.0007
2327.00,0.0010
2326.00,0.0014
2325.00,0.0017
2324.00,0.0019
2323.00,0.0017
2322.00,0.0015
2321.00,0.0013
2320.00,0.0012
2319.00,0.0011
2318.00,0.0010
2317.00,0.0009
2316.00,0.0008
2315.00,0.0008
2314.00,0.0008
2313.00,0.0008
2312.00,0.0008
2311.00,0.0007
2310.00,0.0006
2309.00,0.0006
2308.00,0.0006
2307.00,0.0006
2306.00,0.0006
2305.00,0.0007
2304.00,0.0007
2303.00,0.0007
2302.00,0.0008
2301.00,0.0008
2300.00,0.0009
2299.00,0.0010
2298.00,0.0010
2297.00,0.0011
2296.00,0.0011
2295.00,0.0012
2294.00,0.0012
2293.00,0.0013
2292.00,0.0014
2291.00,0.0015
2290.00,0.0016
2289.00,0.0017
2288.00,0.0018
2287.00,0.0018
2286.00,0.0018
2285.00,0.0018
2284.00,0.0017
2283.00,0.0016
2282.00,0.0015
2281.00,0.0015
2280.00,0.0014
2279.00,0.0014
2278.00,0.0013
2277.00,0.0013
2276.00,0.0013
2275.00,0.0012
2274.00,0.0012
2273.00,0.0011
2272.00,0.0011
2271.00,0.0010
2270.00,0.0009
2269.00,0.0009
2268.00,0.0010
2267.00,0.0010
2266.00,0.0010
2265.00,0.0009
2264.00,0.0009
2263.00,0.0008
2262.00,0.0008
2261.00,0.0009
2260.00,0.0010
2259.00,0.0011
2258.00,0.0012
2257.00,0.0013
2256.00,0.0014
2255.00,0.0013
2254.00,0.0012
2253.00,0.0011
2252.00,0.0009
2251.00,0.0009
2250.00,0.0010
2249.00,0.0011
2248.00,0.0011
2247.00,0.0011
2246.00,0.0010
2245.00,0.0010
2244.00,0.0010
2243.00,0.0011
2242.00,0.0010
2241.00,0.0010
2240.00,0.0009
2239.00,0.0009
2238.00,0.0008
2237.00,0.0008
2236.00,0.0008
2235.00,0.0007
2234.00,0.0007
2233.00,0.0007
2232.00,0.0007
2231.00,0.0007
2230.00,0.0007
2229.00,0.0008
2228.00,0.0008
2227.00,0.0009
2226.00,0.0010
2225.00,0.0011
2224.00,0.0011
2223.00,0.0011
2222.00,0.0010
2221.00,0.0009
2220.00,0.0009
2219.00,0.0009
2218.00,0.0008
2217.00,0.0007
2216.00,0.0007
2215.00,0.0006
2214.00,0.0007
2213.00,0.0008
2212.00,0.0009
2211.00,0.0008
2210.00,0.0007
2209.00,0.0005
2208.00,0.0004
2207.00,0.0003
2206.00,0.0002
2205.00,0.0003
2204.00,0.0003
2203.00,0.0004
2202.00,0.0005
2201.00,0.0006
2200.00,0.0006
2199.00,0.0006
2198.00,0.0006
2197.00,0.0007
2196.00,0.0008
2195.00,0.0009
2194.00,0.0009
2193.00,0.0008
2192.00,0.0008
2191.00,0.0008
2190.00,0.0009
2189.00,0.0011
2188.00,0.0013
2187.00,0.0013
2186.00,0.0012
2185.00,0.0009
2184.00,0.0006
2183.00,0.0004
2182.00,0.0002
2181.00,0.0002
2180.00,0.0002
2179.00,0.0001
2178.00,0.0000
2177.00,-0.0000
2176.00,0.0000
2175.00,0.0002
2174.00,0.0005
2173.00,0.0008
2172.00,0.0011
2171.00,0.0012
2170.00,0.0011
2169.00,0.0010
2168.00,0.0011
2167.00,0.0012
2166.00,0.0013
2165.00,0.0015
2164.00,0.0016
2163.00,0.0017
2162.00,0.0017
2161.00,0.0012
2160.00,-0.0000
2159.00,-0.0019
2158.00,-0.0034
2157.00,-0.0040
2156.00,-0.0036
2155.00,-0.0030
2154.00,-0.0025
2153.00,-0.0023
2152.00,-0.0022
2151.00,-0.0021
2150.00,-0.0019
2149.00,-0.0017
2148.00,-0.0015
2147.00,-0.0014
2146.00,-0.0015
2145.00,-0.0016
2144.00,-0.0016
2143.00,-0.0014
2142.00,-0.0011
2141.00,-0.0009
2140.00,-0.0008
2139.00,-0.0009
2138.00,-0.0010
2137.00,-0.0011
2136.00,-0.0012
2135.00,-0.0014
2134.00,-0.0015
2133.00,-0.0015
2132.00,-0.0014
2131.00,-0.0014
2130.00,-0.0015
2129.00,-0.0014
2128.00,-0.0012
2127.00,-0.0010
2126.00,-0.0008
2125.00,-0.0007
2124.00,-0.0006
2123.00,-0.0004
2122.00,-0.0003
2121.00,-0.0003
2120.00,-0.0003
2119.00,-0.0003
2118.00,-0.0003
2117.00,-0.0001
2116.00,0.0001
2115.00,0.0002
2114.00,0.0003
2113.00,0.0004
2112.00,0.0004
2111.00,0.0004
2110.00,0.0004
2109.00,0.0003
2108.00,0.0001
2107.00,-0.0001
2106.00,-0.0002
2105.00,-0.0001
2104.00,-0.0000
2103.00,0.0000
2102.00,-0.0000
2101.00,-0.0000
2100.00,0.0001
2099.00,0.0002
2098.00,0.0003
2097.00,0.0001
2096.00,-0.0001
2095.00,-0.0003
2094.00,-0.0004
2093.00,-0.0003
2092.00,-0.0003
2091.00,-0.0002
2090.00,-0.0001
2089.00,0.0000
2088.00,0.0002
2087.00,0.0004
2086.00,0.0005
2085.00,0.0005
2084.00,0.0004
2083.00,0.0003
2082.00,0.0003
2081.00,0.0003
2080.00,0.0003
2079.00,0.0004
2078.00,0.0004
2077.00,0.0004
2076.00,0.0004
2075.00,0.0003
2074.00,0.0003
2073.00,0.0003
2072.00,0.0003
2071.00,0.0002
2070.00,0.0002
2069.00,0.0001
2068.00,0.0001
2067.00,-0.0000
2066.00,-0.0002
2065.00,-0.0004
2064.00,-0.0004
2063.00,-0.0004
2062.00,-0.0003
2061.00,-0.0002
2060.00,-0.0002
2059.00,-0.0002
2058.00,-0.0001
2057.00,0.0001
2056.00,0.0002
2055.00,0.0003
2054.00,0.0005
2053.00,0.0008
2052.00,0.0011
2051.00,0.0012
2050.00,0.0010
2049.00,0.0006
2048.00,0.0003
2047.00,0.0001
2046.00,0.0000
2045.00,0.0001
2044.00,0.0001
2043.00,-0.0001
2042.00,-0.0003
2041.00,-0.0006
2040.00,-0.0007
2039.00,-0.0006
2038.00,-0.0003
2037.00,-0.0000
2036.00,0.0001
2035.00,0.0001
2034.00,-0.0002
2033.00,-0.0005
2032.00,-0.0007
2031.00,-0.0008
2030.00,-0.0010
2029.00,-0.0011
2028.00,-0.0013
2027.00,-0.0015
2026.00,-0.0016
2025.00,-0.0014
2024.00,-0.0011
2023.00,-0.0007
2022.00,-0.0005
2021.00,-0.0005
2020.00,-0.0007
2019.00,-0.0010
2018.00,-0.0013
2017.00,-0.0015
2016.00,-0.0016
2015.00,-0.0016
2014.00,-0.0014
2013.00,-0.0010
2012.00,-0.0005
2011.00,-0.0001
2010.00,-0.0001
2009.00,-0.0004
2008.00,-0.0008
2007.00,-0.0012
2006.00,-0.0015
2005.00,-0.0015
2004.00,-0.0014
2003.00,-0.0014
2002.00,-0.0015
2001.00,-0.0014
2000.00,-0.0013
1999.00,-0.0012
1998.00,-0.0012
1997.00,-0.0013
1996.00,-0.0013
1995.00,-0.0012
1994.00,-0.0010
1993.00,-0.0008
1992.00,-0.0006
1991.00,-0.0005
1990.00,-0.0004
1989.00,-0.0004
1988.00,-0.0006
1987.00,-0.0007
1986.00,-0.0007
1985.00,-0.0004
1984.00,-0.0001
1983.00,0.0002
1982.00,0.0003
1981.00,0.0004
1980.00,0.0003
1979.00,0.0001
1978.00,-0.0003
1977.00,-0.0007
1976.00,-0.0010
1975.00,-0.0011
1974.00,-0.0010
1973.00,-0.0008
1972.00,-0.0006
1971.00,-0.0006
1970.00,-0.0008
1969.00,-0.0011
1968.00,-0.0013
1967.00,-0.0014
1966.00,-0.0015
1965.00,-0.0015
1964.00,-0.0014
1963.00,-0.0013
1962.00,-0.0013
1961.00,-0.0015
1960.00,-0.0016
1959.00,-0.0018
1958.00,-0.0018
1957.00,-0.0016
1956.00,-0.0012
1955.00,-0.0010
1954.00,-0.0010
1953.00,-0.0011
1952.00,-0.0012
1951.00,-0.0013
1950.00,-0.0013
1949.00,-0.0015
1948.00,-0.0016
1947.00,-0.0017
1946.00,-0.0017
1945.00,-0.0017
1944.00,-0.0017
1943.00,-0.0018
1942.00,-0.0017
1941.00,-0.0016
1940.00,-0.0015
1939.00,-0.0013
1938.00,-0.0013
1937.00,-0.0012
1936.00,-0.0011
1935.00,-0.0010
1934.00,-0.0009
1933.00,-0.0008
1932.00,-0.0008
1931.00,-0.0009
1930.00,-0.0009
1929.00,-0.0009
1928.00,-0.0009
1927.00,-0.0009
1926.00,-0.0009
1925.00,-0.0008
1924.00,-0.0008
1923.00,-0.0006
1922.00,-0.0004
1921.00,-0.0003
1920.00,-0.0002
1919.00,-0.0002
1918.00,-0.0001
1917.00,-0.0001
1916.00,-0.0001
1915.00,-0.0002
1914.00,-0.0002
1913.00,-0.0003
1912.00,-0.0003
1911.00,-0.0004
1910.00,-0.0003
1909.00,-0.0003
1908.00,-0.0002
1907.00,-0.0001
1906.00,-0.0001
1905.00,-0.0001
1904.00,-0.0001
1903.00,-0.0001
1902.00,-0.0001
1901.00,-0.0001
1900.00,-0.0000
1899.00,-0.0000
1898.00,-0.0000
1897.00,-0.0001
1896.00,-0.0001
1895.00,-0.0002
1894.00,-0.0003
1893.00,-0.0002
1892.00,-0.0002
1891.00,-0.0001
1890.00,0.0000
1889.00,0.0001
1888.00,0.0001
1887.00,0.0000
1886.00,-0.0001
1885.00,-0.0002
1884.00,-0.0002
1883.00,-0.0002
1882.00,-0.0002
1881.00,-0.0001
1880.00,0.0000
1879.00,0.0000
1878.00,-0.0001
1877.00,-0.0002
1876.00,-0.0003
1875.00,-0.0003
1874.00,-0.0002
1873.00,-0.0001
1872.00,-0.0000
1871.00,0.0001
1870.00,0.0002
1869.00,0.0002
1868.00,0.0002
1867.00,0.0001
1866.00,0.0001
1865.00,0.0001
1864.00,0.0001
1863.00,0.0001
1862.00,0.0001
1861.00,0.0001
1860.00,0.0000
1859.00,-0.0000
1858.00,-0.0000
1857.00,0.0000
1856.00,0.0001
1855.00,0.0001
1854.00,0.0001
1853.00,0.0001
1852.00,0.0000
1851.00,-0.0000
1850.00,-0.0000
1849.00,0.0000
1848.00,0.0001
1847.00,0.0001
1846.00,0.0000
1845.00,0.0000
1844.00,0.0001
1843.00,0.0002
1842.00,0.0003
1841.00,0.0003
1840.00,0.0003
1839.00,0.0002
1838.00,0.0002
1837.00,0.0002
1836.00,0.0003
1835.00,0.0003
1834.00,0.0004
1833.00,0.0004
1832.00,0.0003
1831.00,0.0003
1830.00,0.0003
1829.00,0.0004
1828.00,0.0004
1827.00,0.0004
1826.00,0.0004
1825.00,0.0004
1824.00,0.0004
1823.00,0.0004
1822.00,0.0004
1821.00,0.0004
1820.00,0.0003
1819.00,0.0002
1818.00,0.0001
1817.00,0.0000
1816.00,-0.0000
1815.00,0.0000
1814.00,0.0001
1813.00,0.0001
1812.00,0.0002
1811.00,0.0002
1810.00,0.0003
1809.00,0.0004
1808.00,0.0005
1807.00,0.0006
1806.00,0.0006
1805.00,0.0006
1804.00,0.0006
1803.00,0.0006
1802.00,0.0006
1801.00,0.0007
1800.00,0.0007
1799.00,0.0007
1798.00,0.0007
1797.00,0.0007
1796.00,0.0007
1795.00,0.0007
1794.00,0.0007
1793.00,0.0007
1792.00,0.0007
1791.00,0.0007
1790.00,0.0007
1789.00,0.0007
1788.00,0.0008
1787.00,0.0009
1786.00,0.0010
1785.00,0.0010
1784.00,0.0011
1783.00,0.0011
1782.00,0.0010
1781.00,0.0010
1780.00,0.0010
1779.00,0.0009
1778.00,0.0009
1777.00,0.0009
1776.00,0.0009
1775.00,0.0010
1774.00,0.0010
1773.00,0.0011
1772.00,0.0012
1771.00,0.0013
1770.00,0.0013
1769.00,0.0013
1768.00,0.0014
1767.00,0.0014
1766.00,0.0015
1765.00,0.0015
1764.00,0.0016
1763.00,0.0017
1762.00,0.0019
1761.00,0.0021
1760.00,0.0023
1759.00,0.0025
1758.00,0.0028
1757.00,0.0032
1756.00,0.0035
1755.00,0.0038
1754.00,0.0041
1753.00,0.0044
1752.00,0.0048
1751.00,0.0051
1750.00,0.0054
1749.00,0.0056
1748.00,0.0057
1747.00,0.0058
1746.00,0.0058
1745.00,0.0057
1744.00,0.0057
1743.00,0.0057
1742.00,0.0055
1741.00,0.0054
1740.00,0.0052
1739.00,0.0050
1738.00,0.0047
1737.00,0.0046
1736.00,0.0043
1735.00,0.0041
1734.00,0.0038
1733.00,0.0037
1732.00,0.0037
1731.00,0.0036
1730.00,0.0035
1729.00,0.0035
1728.00,0.0034
1727.00,0.0033
1726.00,0.0032
1725.00,0.0031
1724.00,0.0031
1723.00,0.0031
1722.00,0.0031
1721.00,0.0030
1720.00,0.0030
1719.00,0.0029
1718.00,0.0028
1717.00,0.0027
1716.00,0.0027
1715.00,0.0027
1714.00,0.0027
1713.00,0.0026
1712.00,0.0026
1711.00,0.0026
1710.00,0.0025
1709.00,0.0025
1708.00,0.0025
1707.00,0.0026
1706.00,0.0026
1705.00,0.0026
1704.00,0.0026
1703.00,0.0026
1702.00,0.0026
1701.00,0.0026
1700.00,0.0026
1699.00,0.0026
1698.00,0.0025
1697.00,0.0026
1696.00,0.0027
1695.00,0.0028
1694.00,0.0028
1693.00,0.0029
1692.00,0.0029
1691.00,0.0029
1690.00,0.0030
1689.00,0.0030
1688.00,0.0030
1687.00,0.0029
1686.00,0.0029
1685.00,0.0028
1684.00,0.0028
1683.00,0.0029
1682.00,0.0029
1681.00,0.0030
1680.00,0.0031
1679.00,0.0031
1678.00,0.0031
1677.00,0.0032
1676.00,0.0032
1675.00,0.0033
1674.00,0.0033
1673.00,0.0034
1672.00,0.0034
1671.00,0.0034
1670.00,0.0035
1669.00,0.0035
1668.00,0.0035
1667.00,0.0035
1666.00,0.0035
1665.00,0.0035
1664.00,0.0036
1663.00,0.0036
1662.00,0.0036
1661.00,0.0037
1660.00,0.0037
1659.00,0.0037
1658.00,0.0037
1657.00,0.0038
1656.00,0.0038
1655.00,0.0038
1654.00,0.0038
1653.00,0.0038
1652.00,0.0039
1651.00,0.0039
1650.00,0.0039
1649.00,0.0039
1648.00,0.0039
1647.00,0.0040
1646.00,0.0040
1645.00,0.0041
1644.00,0.0042
1643.00,0.0043
1642.00,0.0043
1641.00,0.0043
1640.00,0.0044
1639.00,0.0045
1638.00,0.0045
1637.00,0.0046
1636.00,0.0046
1635.00,0.0045
1634.00,0.0044
1633.00,0.0044
1632.00,0.0043
1631.00,0.0043
1630.00,0.0042
1629.00,0.0042
1628.00,0.0041
1627.00,0.0041
1626.00,0.0040
1625.00,0.0040
1624.00,0.0039
1623.00,0.0039
1622.00,0.0038
1621.00,0.0038
1620.00,0.0038
1619.00,0.0038
1618.00,0.0038
1617.00,0.0038
1616.00,0.0037
1615.00,0.0037
1614.00,0.0036
1613.00,0.0037
1612.00,0.0037
1611.00,0.0037
1610.00,0.0037
1609.00,0.0037
1608.00,0.0037
1607.00,0.0037
1606.00,0.0037
1605.00,0.0037
1604.00,0.0037
1603.00,0.0037
1602.00,0.0037
1601.00,0.0037
1600.00,0.0037
1599.00,0.0037
1598.00,0.0037
1597.00,0.0037
1596.00,0.0037
1595.00,0.0037
1594.00,0.0038
1593.00,0.0038
1592.00,0.0038
1591.00,0.0038
1590.00,0.0038
1589.00,0.0039
1588.00,0.0039
1587.00,0.0040
1586.00,0.0040
1585.00,0.0041
1584.00,0.0042
1583.00,0.0043
1582.00,0.0044
1581.00,0.0044
1580.00,0.0045
1579.00,0.0046
1578.00,0.0047
1577.00,0.0047
1576.00,0.0047
1575.00,0.0047
1574.00,0.0046
1573.00,0.0046
1572.00,0.0047
1571.00,0.0047
1570.00,0.0047
1569.00,0.0047
1568.00,0.0047
1567.00,0.0046
1566.00,0.0046
1565.00,0.0045
1564.00,0.0045
1563.00,0.0045
1562.00,0.0045
1561.00,0.0045
1560.00,0.0046
1559.00,0.0045
1558.00,0.0045
1557.00,0.0045
1556.00,0.0046
1555.00,0.0046
1554.00,0.0046
1553.00,0.0047
1552.00,0.0047
1551.00,0.0048
1550.00,0.0048
1549.00,0.0049
1548.00,0.0050
1547.00,0.0050
1546.00,0.0051
1545.00,0.0051
1544.00,0.0052
1543.00,0.0053
1542.00,0.0054
1541.00,0.0055
1540.00,0.0055
1539.00,0.0054
1538.00,0.0052
1537.00,0.0051
1536.00,0.0050
1535.00,0.0049
1534.00,0.0048
1533.00,0.0047
1532.00,0.0047
1531.00,0.0046
1530.00,0.0045
1529.00,0.0045
1528.00,0.0046
1527.00,0.0046
1526.00,0.0045
1525.00,0.0045
1524.00,0.0046
1523.00,0.0046
1522.00,0.0047
1521.00,0.0048
1520.00,0.0049
1519.00,0.0049
1518.00,0.0049
1517.00,0.0049
1516.00,0.0050
1515.00,0.0050
1514.00,0.0050
1513.00,0.0051
1512.00,0.0052
1511.00,0.0053
1510.00,0.0053
1509.00,0.0054
1508.00,0.0055
1507.00,0.0055
1506.00,0.0056
1505.00,0.0057
1504.00,0.0058
1503.00,0.0059
1502.00,0.0061
1501.00,0.0062
1500.00,0.0065
1499.00,0.0067
1498.00,0.0068
1497.00,0.0070
1496.00,0.0073
1495.00,0.0074
1494.00,0.0076
1493.00,0.0079
1492.00,0.0083
1491.00,0.0087
1490.00,0.0090
1489.00,0.0095
1488.00,0.0100
1487.00,0.0104
1486.00,0.0109
1485.00,0.0115
1484.00,0.0122
1483.00,0.0129
1482.00,0.0137
1481.00,0.0147
1480.00,0.0158
1479.00,0.0170
1478.00,0.0185
1477.00,0.0205
1476.00,0.0231
1475.00,0.0262
1474.00,0.0302
1473.00,0.0359
1472.00,0.0425
1471.00,0.0489
1470.00,0.0551
1469.00,0.0617
1468.00,0.0687
1467.00,0.0763
1466.00,0.0848
1465.00,0.0938
1464.00,0.1016
1463.00,0.1071
1462.00,0.1108
1461.00,0.1134
1460.00,0.1154
1459.00,0.1168
1458.00,0.1180
1457.00,0.1191
1456.00,0.1194
1455.00,0.1190
1454.00,0.1182
1453.00,0.1168
1452.00,0.1145
1451.00,0.1110
1450.00,0.1061
1449.00,0.0993
1448.00,0.0905
1447.00,0.0809
1446.00,0.0721
1445.00,0.0645
1444.00,0.0579
1443.00,0.0524
1442.00,0.0482
1441.00,0.0452
1440.00,0.0432
1439.00,0.0422
1438.00,0.0419
1437.00,0.0415
1436.00,0.0402
1435.00,0.0378
1434.00,0.0344
1433.00,0.0303
1432.00,0.0261
1431.00,0.0224
1430.00,0.0195
1429.00,0.0173
1428.00,0.0157
1427.00,0.0147
1426.00,0.0141
1425.00,0.0135
1424.00,0.0129
1423.00,0.0126
1422.00,0.0124
1421.00,0.0121
1420.00,0.0119
1419.00,0.0117
1418.00,0.0116
1417.00,0.0114
1416.00,0.0112
1415.00,0.0110
1414.00,0.0109
1413.00,0.0107
1412.00,0.0106
1411.00,0.0106
1410.00,0.0107
1409.00,0.0107
1408.00,0.0106
1407.00,0.0106
1406.00,0.0107
1405.00,0.0107
1404.00,0.0107
1403.00,0.0109
1402.00,0.0111
1401.00,0.0112
1400.00,0.0114
1399.00,0.0116
1398.00,0.0119
1397.00,0.0121
1396.00,0.0124
1395.00,0.0128
1394.00,0.0134
1393.00,0.0139
1392.00,0.0144
1391.00,0.0152
1390.00,0.0163
1389.00,0.0178
1388.00,0.0200
1387.00,0.0232
1386.00,0.0274
1385.00,0.0330
1384.00,0.0408
1383.00,0.0516
1382.00,0.0659
1381.00,0.0840
1380.00,0.1058
1379.00,0.1297
1378.00,0.1518
1377.00,0.1670
1376.00,0.1707
1375.00,0.1609
1374.00,0.1404
1373.00,0.1164
1372.00,0.0946
1371.00,0.0766
1370.00,0.0623
1369.00,0.0513
1368.00,0.0437
1367.00,0.0389
1366.00,0.0363
1365.00,0.0352
1364.00,0.0353
1363.00,0.0363
1362.00,0.0381
1361.00,0.0399
1360.00,0.0413
1359.00,0.0417
1358.00,0.0407
1357.00,0.0384
1356.00,0.0353
1355.00,0.0317
1354.00,0.0283
1353.00,0.0253
1352.00,0.0229
1351.00,0.0209
1350.00,0.0193
1349.00,0.0179
1348.00,0.0168
1347.00,0.0158
1346.00,0.0149
1345.00,0.0142
1344.00,0.0137
1343.00,0.0132
1342.00,0.0128
1341.00,0.0125
1340.00,0.0122
1339.00,0.0120
1338.00,0.0119
1337.00,0.0119
1336.00,0.0119
1335.00,0.0121
1334.00,0.0124
1333.00,0.0127
1332.00,0.0130
1331.00,0.0133
1330.00,0.0134
1329.00,0.0133
1328.00,0.0130
1327.00,0.0126
1326.00,0.0121
1325.00,0.0116
1324.00,0.0111
1323.00,0.0106
1322.00,0.0102
1321.00,0.0099
1320.00,0.0097
1319.00,0.0095
1318.00,0.0094
1317.00,0.0093
1316.00,0.0093
1315.00,0.0093
1314.00,0.0093
1313.00,0.0094
1312.00,0.0095
1311.00,0.0098
1310.00,0.0103
1309.00,0.0111
1308.00,0.0122
1307.00,0.0136
1306.00,0.0149
1305.00,0.0158
1304.00,0.0160
1303.00,0.0155
1302.00,0.0147
1301.00,0.0140
1300.00,0.0134
1299.00,0.0131
1298.00,0.0131
1297.00,0.0130
1296.00,0.0129
1295.00,0.0127
1294.00,0.0123
1293.00,0.0118
1292.00,0.0113
1291.00,0.0108
1290.00,0.0104
1289.00,0.0101
1288.00,0.0098
1287.00,0.0096
1286.00,0.0094
1285.00,0.0092
1284.00,0.0091
1283.00,0.0090
1282.00,0.0090
1281.00,0.0089
1280.00,0.0088
1279.00,0.0088
1278.00,0.0087
1277.00,0.0087
1276.00,0.0087
1275.00,0.0087
1274.00,0.0088
1273.00,0.0089
1272.00,0.0089
1271.00,0.0090
1270.00,0.0091
1269.00,0.0093
1268.00,0.0096
1267.00,0.0099
1266.00,0.0102
1265.00,0.0105
1264.00,0.0108
1263.00,0.0112
1262.00,0.0117
1261.00,0.0122
1260.00,0.0128
1259.00,0.0136
1258.00,0.0145
1257.00,0.0153
1256.00,0.0157
1255.00,0.0155
1254.00,0.0148
1253.00,0.0137
1252.00,0.0127
1251.00,0.0118
1250.00,0.0111
1249.00,0.0106
1248.00,0.0102
1247.00,0.0098
1246.00,0.0096
1245.00,0.0094
1244.00,0.0092
1243.00,0.0092
1242.00,0.0091
1241.00,0.0090
1240.00,0.0089
1239.00,0.0088
1238.00,0.0087
1237.00,0.0087
1236.00,0.0087
1235.00,0.0087
1234.00,0.0087
1233.00,0.0087
1232.00,0.0088
1231.00,0.0088
1230.00,0.0089
1229.00,0.0089
1228.00,0.0090
1227.00,0.0091
1226.00,0.0092
1225.00,0.0095
1224.00,0.0097
1223.00,0.0100
1222.00,0.0103
1221.00,0.0105
1220.00,0.0107
1219.00,0.0107
1218.00,0.0106
1217.00,0.0104
1216.00,0.0101
1215.00,0.0099
1214.00,0.0096
1213.00,0.0094
1212.00,0.0092
1211.00,0.0091
1210.00,0.0090
1209.00,0.0089
1208.00,0.0088
1207.00,0.0087
1206.00,0.0086
1205.00,0.0086
1204.00,0.0085
1203.00,0.0086
1202.00,0.0086
1201.00,0.0087
1200.00,0.0087
1199.00,0.0088
1198.00,0.0088
1197.00,0.0088
1196.00,0.0088
1195.00,0.0088
1194.00,0.0089
1193.00,0.0090
1192.00,0.0090
1191.00,0.0091
1190.00,0.0091
1189.00,0.0092
1188.00,0.0093
1187.00,0.0094
1186.00,0.0096
1185.00,0.0097
1184.00,0.0099
1183.00,0.0102
1182.00,0.0105
1181.00,0.0109
1180.00,0.0115
1179.00,0.0122
1178.00,0.0130
1177.00,0.0141
1176.00,0.0156
1175.00,0.0174
1174.00,0.0198
1173.00,0.0228
1172.00,0.0263
1171.00,0.0303
1170.00,0.0341
1169.00,0.0372
1168.00,0.0391
1167.00,0.0394
1166.00,0.0383
1165.00,0.0363
1164.00,0.0339
1163.00,0.0316
1162.00,0.0295
1161.00,0.0278
1160.00,0.0264
1159.00,0.0254
1158.00,0.0246
1157.00,0.0239
1156.00,0.0235
1155.00,0.0231
1154.00,0.0228
1153.00,0.0223
1152.00,0.0217
1151.00,0.0209
1150.00,0.0200
1149.00,0.0190
1148.00,0.0180
1147.00,0.0169
1146.00,0.0160
1145.00,0.0151
1144.00,0.0143
1143.00,0.0135
1142.00,0.0128
1141.00,0.0122
1140.00,0.0116
1139.00,0.0111
1138.00,0.0106
1137.00,0.0101
1136.00,0.0097
1135.00,0.0093
1134.00,0.0090
1133.00,0.0089
1132.00,0.0087
1131.00,0.0086
1130.00,0.0086
1129.00,0.0085
1128.00,0.0085
1127.00,0.0085
1126.00,0.0086
1125.00,0.0087
1124.00,0.0087
1123.00,0.0087
1122.00,0.0087
1121.00,0.0087
1120.00,0.0088
1119.00,0.0090
1118.00,0.0091
1117.00,0.0093
1116.00,0.0094
1115.00,0.0094
1114.00,0.0094
1113.00,0.0094
1112.00,0.0095
1111.00,0.0097
1110.00,0.0099
1109.00,0.0103
1108.00,0.0109
1107.00,0.0115
1106.00,0.0121
1105.00,0.0126
1104.00,0.0129
1103.00,0.0131
1102.00,0.0131
1101.00,0.0128
1100.00,0.0123
1099.00,0.0119
1098.00,0.0114
1097.00,0.0110
1096.00,0.0106
1095.00,0.0103
1094.00,0.0100
1093.00,0.0098
1092.00,0.0096
1091.00,0.0095
1090.00,0.0093
1089.00,0.0092
1088.00,0.0091
1087.00,0.0090
1086.00,0.0090
1085.00,0.0090
1084.00,0.0090
1083.00,0.0091
1082.00,0.0091
1081.00,0.0090
1080.00,0.0089
1079.00,0.0088
1078.00,0.0086
1077.00,0.0085
1076.00,0.0084
1075.00,0.0084
1074.00,0.0085
1073.00,0.0086
1072.00,0.0086
1071.00,0.0086
1070.00,0.0086
1069.00,0.0085
1068.00,0.0085
1067.00,0.0085
1066.00,0.0085
1065.00,0.0086
1064.00,0.0087
1063.00,0.0088
1062.00,0.0088
1061.00,0.0089
1060.00,0.0089
1059.00,0.0089
1058.00,0.0090
1057.00,0.0091
1056.00,0.0093
1055.00,0.0096
1054.00,0.0098
1053.00,0.0101
1052.00,0.0104
1051.00,0.0108
1050.00,0.0112
1049.00,0.0116
1048.00,0.0122
1047.00,0.0127
1046.00,0.0132
1045.00,0.0134
1044.00,0.0133
1043.00,0.0131
1042.00,0.0128
1041.00,0.0126
1040.00,0.0123
1039.00,0.0121
1038.00,0.0120
1037.00,0.0118
1036.00,0.0116
1035.00,0.0115
1034.00,0.0113
1033.00,0.0112
1032.00,0.0111
1031.00,0.0112
1030.00,0.0113
1029.00,0.0114
1028.00,0.0116
1027.00,0.0118
1026.00,0.0119
1025.00,0.0120
1024.00,0.0122
1023.00,0.0125
1022.00,0.0128
1021.00,0.0130
1020.00,0.0132
1019.00,0.0134
1018.00,0.0135
1017.00,0.0136
1016.00,0.0136
1015.00,0.0136
1014.00,0.0136
1013.00,0.0136
1012.00,0.0137
1011.00,0.0138
1010.00,0.0140
1009.00,0.0143
1008.00,0.0148
1007.00,0.0153
1006.00,0.0162
1005.00,0.0175
1004.00,0.0193
1003.00,0.0221
1002.00,0.0258
1001.00,0.0305
1000.00,0.0355
999.00,0.0399
998.00,0.0423
997.00,0.0419
996.00,0.0387
995.00,0.0339
994.00,0.0287
993.00,0.0240
992.00,0.0204
991.00,0.0177
990.00,0.0159
989.00,0.0146
988.00,0.0139
987.00,0.0134
986.00,0.0132
985.00,0.0133
984.00,0.0138
983.00,0.0146
982.00,0.0159
981.00,0.0176
980.00,0.0199
979.00,0.0230
978.00,0.0271
977.00,0.0320
976.00,0.0375
975.00,0.0430
974.00,0.0473
973.00,0.0492
972.00,0.0480
971.00,0.0438
970.00,0.0376
969.00,0.0312
968.00,0.0256
967.00,0.0213
966.00,0.0182
965.00,0.0160
964.00,0.0144
963.00,0.0133
962.00,0.0124
961.00,0.0117
960.00,0.0112
959.00,0.0108
958.00,0.0105
957.00,0.0102
956.00,0.0099
955.00,0.0096
954.00,0.0094
953.00,0.0092
952.00,0.0092
951.00,0.0091
950.00,0.0090
949.00,0.0088
948.00,0.0087
947.00,0.0087
946.00,0.0087
945.00,0.0088
944.00,0.0090
943.00,0.0094
942.00,0.0097
941.00,0.0100
940.00,0.0100
939.00,0.0098
938.00,0.0093
937.00,0.0087
936.00,0.0080
935.00,0.0075
934.00,0.0072
933.00,0.0069
932.00,0.0066
931.00,0.0065
930.00,0.0064
929.00,0.0063
928.00,0.0064
927.00,0.0064
926.00,0.0064
925.00,0.0063
924.00,0.0063
923.00,0.0063
922.00,0.0063
921.00,0.0063
920.00,0.0063
919.00,0.0062
918.00,0.0062
917.00,0.0061
916.00,0.0061
915.00,0.0062
914.00,0.0062
913.00,0.0064
912.00,0.0065
911.00,0.0067
910.00,0.0069
909.00,0.0070
908.00,0.0072
907.00,0.0076
906.00,0.0082
905.00,0.0092
904.00,0.0105
903.00,0.0121
902.00,0.0138
901.00,0.0152
900.00,0.0161
899.00,0.0163
898.00,0.0156
897.00,0.0143
896.00,0.0128
895.00,0.0114
894.00,0.0101
893.00,0.0091
892.00,0.0084
891.00,0.0080
890.00,0.0077
889.00,0.0075
888.00,0.0074
887.00,0.0073
886.00,0.0073
885.00,0.0072
884.00,0.0071
883.00,0.0071
882.00,0.0071
881.00,0.0070
880.00,0.0069
879.00,0.0069
878.00,0.0070
877.00,0.0071
876.00,0.0073
875.00,0.0074
874.00,0.0075
873.00,0.0075
872.00,0.0075
871.00,0.0075
870.00,0.0075
869.00,0.0076
868.00,0.0076
867.00,0.0077
866.00,0.0078
865.00,0.0079
864.00,0.0080
863.00,0.0082
862.00,0.0083
861.00,0.0084
860.00,0.0085
859.00,0.0086
858.00,0.0087
857.00,0.0088
856.00,0.0090
855.00,0.0092
854.00,0.0095
853.00,0.0099
852.00,0.0103
851.00,0.0108
850.00,0.0114
849.00,0.0120
848.00,0.0130
847.00,0.0146
846.00,0.0173
845.00,0.0213
844.00,0.0270
843.00,0.0338
842.00,0.0396
841.00,0.0419
840.00,0.0395
839.00,0.0335
838.00,0.0267
837.00,0.0211
836.00,0.0175
835.00,0.0152
834.00,0.0137
833.00,0.0127
832.00,0.0120
831.00,0.0116
830.00,0.0112
829.00,0.0109
828.00,0.0106
827.00,0.0104
826.00,0.0101
825.00,0.0100
824.00,0.0099
823.00,0.0098
822.00,0.0099
821.00,0.0099
820.00,0.0101
819.00,0.0105
818.00,0.0110
817.00,0.0116
816.00,0.0125
815.00,0.0135
814.00,0.0147
813.00,0.0162
812.00,0.0179
811.00,0.0195
810.00,0.0208
809.00,0.0212
808.00,0.0208
807.00,0.0196
806.00,0.0180
805.00,0.0164
804.00,0.0149
803.00,0.0136
802.00,0.0127
801.00,0.0120
800.00,0.0115
799.00,0.0111
798.00,0.0108
797.00,0.0105
796.00,0.0102
795.00,0.0100
794.00,0.0097
793.00,0.0093
792.00,0.0088
791.00,0.0083
790.00,0.0079
789.00,0.0076
788.00,0.0074
787.00,0.0072
786.00,0.0071
785.00,0.0069
784.00,0.0068
783.00,0.0067
782.00,0.0066
781.00,0.0065
780.00,0.0065
779.00,0.0065
778.00,0.0064
777.00,0.0064
776.00,0.0063
775.00,0.0062
774.00,0.0061
773.00,0.0061
772.00,0.0062
771.00,0.0063
770.00,0.0063
769.00,0.0062
768.00,0.0061
767.00,0.0060
766.00,0.0059
765.00,0.0059
764.00,0.0060
763.00,0.0062
762.00,0.0064
761.00,0.0066
760.00,0.0066
759.00,0.0066
758.00,0.0066
757.00,0.0067
756.00,0.0069
755.00,0.0070
754.00,0.0071
753.00,0.0072
752.00,0.0072
751.00,0.0073
750.00,0.0074
749.00,0.0075
748.00,0.0076
747.00,0.0078
746.00,0.0080
745.00,0.0082
744.00,0.0084
743.00,0.0086
742.00,0.0089
741.00,0.0093
740.00,0.0097
739.00,0.0101
738.00,0.0104
737.00,0.0106
736.00,0.0109
735.00,0.0112
734.00,0.0117
733.00,0.0123
732.00,0.0129
731.00,0.0135
730.00,0.0141
729.00,0.0143
728.00,0.0144
727.00,0.0145
726.00,0.0146
725.00,0.0151
724.00,0.0157
723.00,0.0165
722.00,0.0171
721.00,0.0174
720.00,0.0172
719.00,0.0165
718.00,0.0154
717.00,0.0142
716.00,0.0130
715.00,0.0121
714.00,0.0114
713.00,0.0110
712.00,0.0106
711.00,0.0104
710.00,0.0102
709.00,0.0100
708.00,0.0099
707.00,0.0097
706.00,0.0096
705.00,0.0094
704.00,0.0093
703.00,0.0092
702.00,0.0091
701.00,0.0090
700.00,0.0090
699.00,0.0089
698.00,0.0088
697.00,0.0089
696.00,0.0089
695.00,0.0089
694.00,0.0088
693.00,0.0087
692.00,0.0087
691.00,0.0089
690.00,0.0090
689.00,0.0090
688.00,0.0089
687.00,0.0088
686.00,0.0087
685.00,0.0087
684.00,0.0088
683.00,0.0088
682.00,0.0088
681.00,0.0090
680.00,0.0092
679.00,0.0093
678.00,0.0092
677.00,0.0091
676.00,0.0090
675.00,0.0092
674.00,0.0094
673.00,0.0095
672.00,0.0095
671.00,0.0096
670.00,0.0097
669.00,0.0099
668.00,0.0098
667.00,0.0096
666.00,0.0091
665.00,0.0087
664.00,0.0085
663.00,0.0085
662.00,0.0085
661.00,0.0084
660.00,0.0083
659.00,0.0082
658.00,0.0082
657.00,0.0082
656.00,0.0081
655.00,0.0079
654.00,0.0078
653.00,0.0077
652.00,0.0076
651.00,0.0075
650.00,0.0074
649.00,0.0074
648.00,0.0074
647.00,0.0075
646.00,0.0075
645.00,0.0076
644.00,0.0077
643.00,0.0078
642.00,0.0078
641.00,0.0076
640.00,0.0075
639.00,0.0075
638.00,0.0077
637.00,0.0081
636.00,0.0084
635.00,0.0084
634.00,0.0083
633.00,0.0080
632.00,0.0078
631.00,0.0079
630.00,0.0081
629.00,0.0083
628.00,0.0084
627.00,0.0085
626.00,0.0085
625.00,0.0084
624.00,0.0080
623.00,0.0077
622.00,0.0075
621.00,0.0076
620.00,0.0079
619.00,0.0080
618.00,0.0080
617.00,0.0080
616.00,0.0079
615.00,0.0078
614.00,0.0077
613.00,0.0075
612.00,0.0075
611.00,0.0077
610.00,0.0080
609.00,0.0083
608.00,0.0085
607.00,0.0084
606.00,0.0081
605.00,0.0079
604.00,0.0078
603.00,0.0078
602.00,0.0079
601.00,0.0079
600.00,0.0078
599.00,0.0080
598.00,0.0083
597.00,0.0087
596.00,0.0087
595.00,0.0085
594.00,0.0080
593.00,0.0076
592.00,0.0074
591.00,0.0073
590.00,0.0075
589.00,0.0076
588.00,0.0077
587.00,0.0078
586.00,0.0080
585.00,0.0083
584.00,0.0085
583.00,0.0085
582.00,0.0083
581.00,0.0082
580.00,0.0080
579.00,0.0079
578.00,0.0077
577.00,0.0076
576.00,0.0074
575.00,0.0073
574.00,0.0072
573.00,0.0073
572.00,0.0075
571.00,0.0076
570.00,0.0077
569.00,0.0077
568.00,0.0077
567.00,0.0077
566.00,0.0078
565.00,0.0079
564.00,0.0081
563.00,0.0084
562.00,0.0086
561.00,0.0089
560.00,0.0091
559.00,0.0091
558.00,0.0089
557.00,0.0085
556.00,0.0081
555.00,0.0079
554.00,0.0078
553.00,0.0079
552.00,0.0082
551.00,0.0084
550.00,0.0085
549.00,0.0085
548.00,0.0085
547.00,0.0085
546.00,0.0087
545.00,0.0088
544.00,0.0090
543.00,0.0092
542.00,0.0095
541.00,0.0098
540.00,0.0102
539.00,0.0106
538.00,0.0110
537.00,0.0114
536.00,0.0117
535.00,0.0118
534.00,0.0116
533.00,0.0114
532.00,0.0111
531.00,0.0109
530.00,0.0108
529.00,0.0108
528.00,0.0107
527.00,0.0106
526.00,0.0103
525.00,0.0098
524.00,0.0093
523.00,0.0089
522.00,0.0089
521.00,0.0091
520.00,0.0092
519.00,0.0089
518.00,0.0084
517.00,0.0085
516.00,0.0092
515.00,0.0099
514.00,0.0102
513.00,0.0100
512.00,0.0095
511.00,0.0092
510.00,0.0092
509.00,0.0092
508.00,0.0089
507.00,0.0084
506.00,0.0079
505.00,0.0077
504.00,0.0077
503.00,0.0080
502.00,0.0085
501.00,0.0092
500.00,0.0097
499.00,0.0096
498.00,0.0091
497.00,0.0085
496.00,0.0084
495.00,0.0083
494.00,0.0081
493.00,0.0076
492.00,0.0075
491.00,0.0082
490.00,0.0092
489.00,0.0097
488.00,0.0092
487.00,0.0084
486.00,0.0078
485.00,0.0081
484.00,0.0088
483.00,0.0093
482.00,0.0093
481.00,0.0092
480.00,0.0095
479.00,0.0104
478.00,0.0116
477.00,0.0125
476.00,0.0129
475.00,0.0130
474.00,0.0131
473.00,0.0131
472.00,0.0131
471.00,0.0132
470.00,0.0139
469.00,0.0151
468.00,0.0167
467.00,0.0181
466.00,0.0188
465.00,0.0190
464.00,0.0189
463.00,0.0186
462.00,0.0182
461.00,0.0183
460.00,0.0194
459.00,0.0215
458.00,0.0235
457.00,0.0239
456.00,0.0225
455.00,0.0203
454.00,0.0185
453.00,0.0173
452.00,0.0164
451.00,0.0157
450.00,0.0151
