Created as New Dataset,Sample 123 By Administrator Date Wednesday, September 03 2025
cm-1,A
4000.00,0.0011
3999.00,0.0011
3998.00,0.0011
3997.00,0.0011
3996.00,0.0011
3995.00,0.0011
3994.00,0.0011
3993.00,0.0011
3992.00,0.0011
3991.00,0.0011
3990.00,0.0011
3989.00,0.0010
3988.00,0.0010
3987.00,0.0010
3986.00,0.0011
3985.00,0.0011
3984.00,0.0011
3983.00,0.0010
3982.00,0.0010
3981.00,0.0010
3980.00,0.0010
3979.00,0.0010
3978.00,0.0009
3977.00,0.0009
3976.00,0.0009
3975.00,0.0009
3974.00,0.0009
3973.00,0.0009
3972.00,0.0009
3971.00,0.0009
3970.00,0.0009
3969.00,0.0009
3968.00,0.0009
3967.00,0.0010
3966.00,0.0009
3965.00,0.0009
3964.00,0.0009
3963.00,0.0008
3962.00,0.0009
3961.00,0.0009
3960.00,0.0009
3959.00,0.0009
3958.00,0.0009
3957.00,0.0009
3956.00,0.0009
3955.00,0.0008
3954.00,0.0008
3953.00,0.0008
3952.00,0.0008
3951.00,0.0008
3950.00,0.0008
3949.00,0.0008
3948.00,0.0008
3947.00,0.0008
3946.00,0.0008
3945.00,0.0008
3944.00,0.0008
3943.00,0.0008
3942.00,0.0009
3941.00,0.0009
3940.00,0.0009
3939.00,0.0009
3938.00,0.0009
3937.00,0.0009
3936.00,0.0009
3935.00,0.0010
3934.00,0.0010
3933.00,0.0010
3932.00,0.0009
3931.00,0.0009
3930.00,0.0009
3929.00,0.0009
3928.00,0.0009
3927.00,0.0009
3926.00,0.0010
3925.00,0.0010
3924.00,0.0010
3923.00,0.0010
3922.00,0.0009
3921.00,0.0009
3920.00,0.0009
3919.00,0.0009
3918.00,0.0009
3917.00,0.0009
3916.00,0.0009
3915.00,0.0009
3914.00,0.0009
3913.00,0.0009
3912.00,0.0008
3911.00,0.0008
3910.00,0.0008
3909.00,0.0008
3908.00,0.0008
3907.00,0.0008
3906.00,0.0008
3905.00,0.0007
3904.00,0.0007
3903.00,0.0007
3902.00,0.0007
3901.00,0.0007
3900.00,0.0007
3899.00,0.0007
3898.00,0.0007
3897.00,0.0007
3896.00,0.0008
3895.00,0.0008
3894.00,0.0009
3893.00,0.0010
3892.00,0.0010
3891.00,0.0009
3890.00,0.0009
3889.00,0.0009
3888.00,0.0008
3887.00,0.0008
3886.00,0.0008
3885.00,0.0008
3884.00,0.0008
3883.00,0.0008
3882.00,0.0008
3881.00,0.0008
3880.00,0.0008
3879.00,0.0008
3878.00,0.0008
3877.00,0.0008
3876.00,0.0009
3875.00,0.0009
3874.00,0.0008
3873.00,0.0008
3872.00,0.0007
3871.00,0.0007
3870.00,0.0006
3869.00,0.0006
3868.00,0.0006
3867.00,0.0006
3866.00,0.0006
3865.00,0.0006
3864.00,0.0006
3863.00,0.0007
3862.00,0.0007
3861.00,0.0008
3860.00,0.0008
3859.00,0.0008
3858.00,0.0008
3857.00,0.0008
3856.00,0.0008
3855.00,0.0008
3854.00,0.0008
3853.00,0.0007
3852.00,0.0007
3851.00,0.0006
3850.00,0.0006
3849.00,0.0006
3848.00,0.0006
3847.00,0.0006
3846.00,0.0007
3845.00,0.0007
3844.00,0.0007
3843.00,0.0007
3842.00,0.0007
3841.00,0.0007
3840.00,0.0007
3839.00,0.0007
3838.00,0.0007
3837.00,0.0007
3836.00,0.0007
3835.00,0.0007
3834.00,0.0007
3833.00,0.0007
3832.00,0.0007
3831.00,0.0007
3830.00,0.0007
3829.00,0.0008
3828.00,0.0008
3827.00,0.0008
3826.00,0.0008
3825.00,0.0008
3824.00,0.0008
3823.00,0.0007
3822.00,0.0007
3821.00,0.0007
3820.00,0.0007
3819.00,0.0007
3818.00,0.0007
3817.00,0.0007
3816.00,0.0008
3815.00,0.0008
3814.00,0.0007
3813.00,0.0007
3812.00,0.0008
3811.00,0.0008
3810.00,0.0008
3809.00,0.0008
3808.00,0.0008
3807.00,0.0008
3806.00,0.0007
3805.00,0.0007
3804.00,0.0007
3803.00,0.0007
3802.00,0.0007
3801.00,0.0007
3800.00,0.0008
3799.00,0.0008
3798.00,0.0008
3797.00,0.0008
3796.00,0.0008
3795.00,0.0008
3794.00,0.0008
3793.00,0.0008
3792.00,0.0008
3791.00,0.0008
3790.00,0.0008
3789.00,0.0008
3788.00,0.0008
3787.00,0.0008
3786.00,0.0008
3785.00,0.0008
3784.00,0.0008
3783.00,0.0008
3782.00,0.0008
3781.00,0.0008
3780.00,0.0008
3779.00,0.0008
3778.00,0.0008
3777.00,0.0008
3776.00,0.0008
3775.00,0.0008
3774.00,0.0008
3773.00,0.0007
3772.00,0.0007
3771.00,0.0007
3770.00,0.0007
3769.00,0.0007
3768.00,0.0007
3767.00,0.0008
3766.00,0.0008
3765.00,0.0008
3764.00,0.0008
3763.00,0.0008
3762.00,0.0008
3761.00,0.0008
3760.00,0.0008
3759.00,0.0008
3758.00,0.0008
3757.00,0.0007
3756.00,0.0007
3755.00,0.0007
3754.00,0.0007
3753.00,0.0007
3752.00,0.0006
3751.00,0.0006
3750.00,0.0006
3749.00,0.0006
3748.00,0.0006
3747.00,0.0006
3746.00,0.0006
3745.00,0.0006
3744.00,0.0006
3743.00,0.0006
3742.00,0.0006
3741.00,0.0006
3740.00,0.0005
3739.00,0.0005
3738.00,0.0005
3737.00,0.0005
3736.00,0.0005
3735.00,0.0005
3734.00,0.0005
3733.00,0.0005
3732.00,0.0006
3731.00,0.0006
3730.00,0.0006
3729.00,0.0006
3728.00,0.0006
3727.00,0.0006
3726.00,0.0006
3725.00,0.0006
3724.00,0.0006
3723.00,0.0006
3722.00,0.0006
3721.00,0.0006
3720.00,0.0007
3719.00,0.0007
3718.00,0.0007
3717.00,0.0006
3716.00,0.0006
3715.00,0.0006
3714.00,0.0006
3713.00,0.0006
3712.00,0.0006
3711.00,0.0006
3710.00,0.0006
3709.00,0.0006
3708.00,0.0006
3707.00,0.0006
3706.00,0.0006
3705.00,0.0006
3704.00,0.0006
3703.00,0.0006
3702.00,0.0006
3701.00,0.0007
3700.00,0.0007
3699.00,0.0007
3698.00,0.0007
3697.00,0.0007
3696.00,0.0007
3695.00,0.0006
3694.00,0.0006
3693.00,0.0006
3692.00,0.0007
3691.00,0.0007
3690.00,0.0006
3689.00,0.0006
3688.00,0.0006
3687.00,0.0006
3686.00,0.0007
3685.00,0.0007
3684.00,0.0008
3683.00,0.0008
3682.00,0.0008
3681.00,0.0008
3680.00,0.0008
3679.00,0.0008
3678.00,0.0008
3677.00,0.0008
3676.00,0.0008
3675.00,0.0007
3674.00,0.0007
3673.00,0.0007
3672.00,0.0007
3671.00,0.0007
3670.00,0.0007
3669.00,0.0007
3668.00,0.0008
3667.00,0.0008
3666.00,0.0008
3665.00,0.0008
3664.00,0.0007
3663.00,0.0007
3662.00,0.0007
3661.00,0.0007
3660.00,0.0007
3659.00,0.0007
3658.00,0.0007
3657.00,0.0007
3656.00,0.0007
3655.00,0.0007
3654.00,0.0007
3653.00,0.0008
3652.00,0.0007
3651.00,0.0007
3650.00,0.0007
3649.00,0.0007
3648.00,0.0007
3647.00,0.0007
3646.00,0.0007
3645.00,0.0007
3644.00,0.0008
3643.00,0.0008
3642.00,0.0007
3641.00,0.0007
3640.00,0.0007
3639.00,0.0007
3638.00,0.0008
3637.00,0.0008
3636.00,0.0009
3635.00,0.0009
3634.00,0.0008
3633.00,0.0008
3632.00,0.0007
3631.00,0.0006
3630.00,0.0007
3629.00,0.0007
3628.00,0.0007
3627.00,0.0007
3626.00,0.0007
3625.00,0.0007
3624.00,0.0008
3623.00,0.0008
3622.00,0.0007
3621.00,0.0007
3620.00,0.0007
3619.00,0.0007
3618.00,0.0007
3617.00,0.0007
3616.00,0.0007
3615.00,0.0006
3614.00,0.0006
3613.00,0.0006
3612.00,0.0007
3611.00,0.0007
3610.00,0.0008
3609.00,0.0008
3608.00,0.0008
3607.00,0.0008
3606.00,0.0008
3605.00,0.0008
3604.00,0.0009
3603.00,0.0009
3602.00,0.0009
3601.00,0.0009
3600.00,0.0009
3599.00,0.0009
3598.00,0.0009
3597.00,0.0010
3596.00,0.0009
3595.00,0.0009
3594.00,0.0009
3593.00,0.0009
3592.00,0.0009
3591.00,0.0009
3590.00,0.0009
3589.00,0.0010
3588.00,0.0009
3587.00,0.0009
3586.00,0.0009
3585.00,0.0009
3584.00,0.0010
3583.00,0.0010
3582.00,0.0011
3581.00,0.0011
3580.00,0.0012
3579.00,0.0012
3578.00,0.0012
3577.00,0.0012
3576.00,0.0012
3575.00,0.0013
3574.00,0.0013
3573.00,0.0013
3572.00,0.0013
3571.00,0.0012
3570.00,0.0013
3569.00,0.0013
3568.00,0.0013
3567.00,0.0013
3566.00,0.0013
3565.00,0.0013
3564.00,0.0013
3563.00,0.0014
3562.00,0.0014
3561.00,0.0014
3560.00,0.0014
3559.00,0.0014
3558.00,0.0014
3557.00,0.0014
3556.00,0.0015
3555.00,0.0015
3554.00,0.0016
3553.00,0.0016
3552.00,0.0015
3551.00,0.0015
3550.00,0.0015
3549.00,0.0015
3548.00,0.0016
3547.00,0.0016
3546.00,0.0016
3545.00,0.0016
3544.00,0.0017
3543.00,0.0017
3542.00,0.0017
3541.00,0.0018
3540.00,0.0018
3539.00,0.0018
3538.00,0.0018
3537.00,0.0018
3536.00,0.0018
3535.00,0.0018
3534.00,0.0018
3533.00,0.0018
3532.00,0.0018
3531.00,0.0018
3530.00,0.0018
3529.00,0.0019
3528.00,0.0019
3527.00,0.0019
3526.00,0.0019
3525.00,0.0019
3524.00,0.0019
3523.00,0.0019
3522.00,0.0019
3521.00,0.0019
3520.00,0.0019
3519.00,0.0020
3518.00,0.0020
3517.00,0.0020
3516.00,0.0020
3515.00,0.0020
3514.00,0.0020
3513.00,0.0020
3512.00,0.0020
3511.00,0.0020
3510.00,0.0020
3509.00,0.0021
3508.00,0.0021
3507.00,0.0021
3506.00,0.0021
3505.00,0.0021
3504.00,0.0021
3503.00,0.0021
3502.00,0.0021
3501.00,0.0021
3500.00,0.0022
3499.00,0.0023
3498.00,0.0023
3497.00,0.0023
3496.00,0.0023
3495.00,0.0023
3494.00,0.0023
3493.00,0.0023
3492.00,0.0023
3491.00,0.0024
3490.00,0.0024
3489.00,0.0024
3488.00,0.0024
3487.00,0.0024
3486.00,0.0024
3485.00,0.0024
3484.00,0.0024
3483.00,0.0025
3482.00,0.0025
3481.00,0.0025
3480.00,0.0025
3479.00,0.0025
3478.00,0.0025
3477.00,0.0025
3476.00,0.0025
3475.00,0.0025
3474.00,0.0025
3473.00,0.0025
3472.00,0.0025
3471.00,0.0026
3470.00,0.0027
3469.00,0.0027
3468.00,0.0027
3467.00,0.0027
3466.00,0.0026
3465.00,0.0026
3464.00,0.0026
3463.00,0.0027
3462.00,0.0027
3461.00,0.0028
3460.00,0.0028
3459.00,0.0028
3458.00,0.0029
3457.00,0.0029
3456.00,0.0029
3455.00,0.0029
3454.00,0.0029
3453.00,0.0029
3452.00,0.0029
3451.00,0.0029
3450.00,0.0030
3449.00,0.0030
3448.00,0.0030
3447.00,0.0030
3446.00,0.0030
3445.00,0.0030
3444.00,0.0030
3443.00,0.0030
3442.00,0.0030
3441.00,0.0031
3440.00,0.0031
3439.00,0.0031
3438.00,0.0032
3437.00,0.0032
3436.00,0.0032
3435.00,0.0032
3434.00,0.0032
3433.00,0.0032
3432.00,0.0032
3431.00,0.0032
3430.00,0.0032
3429.00,0.0033
3428.00,0.0033
3427.00,0.0034
3426.00,0.0035
3425.00,0.0035
3424.00,0.0035
3423.00,0.0034
3422.00,0.0034
3421.00,0.0034
3420.00,0.0034
3419.00,0.0034
3418.00,0.0035
3417.00,0.0035
3416.00,0.0035
3415.00,0.0035
3414.00,0.0035
3413.00,0.0035
3412.00,0.0035
3411.00,0.0035
3410.00,0.0036
3409.00,0.0036
3408.00,0.0036
3407.00,0.0036
3406.00,0.0036
3405.00,0.0036
3404.00,0.0036
3403.00,0.0037
3402.00,0.0037
3401.00,0.0036
3400.00,0.0036
3399.00,0.0036
3398.00,0.0036
3397.00,0.0036
3396.00,0.0036
3395.00,0.0036
3394.00,0.0036
3393.00,0.0036
3392.00,0.0036
3391.00,0.0036
3390.00,0.0036
3389.00,0.0036
3388.00,0.0037
3387.00,0.0037
3386.00,0.0037
3385.00,0.0037
3384.00,0.0037
3383.00,0.0037
3382.00,0.0037
3381.00,0.0037
3380.00,0.0037
3379.00,0.0037
3378.00,0.0038
3377.00,0.0038
3376.00,0.0038
3375.00,0.0038
3374.00,0.0038
3373.00,0.0038
3372.00,0.0038
3371.00,0.0038
3370.00,0.0038
3369.00,0.0038
3368.00,0.0038
3367.00,0.0038
3366.00,0.0038
3365.00,0.0038
3364.00,0.0038
3363.00,0.0038
3362.00,0.0038
3361.00,0.0038
3360.00,0.0038
3359.00,0.0038
3358.00,0.0039
3357.00,0.0039
3356.00,0.0040
3355.00,0.0040
3354.00,0.0040
3353.00,0.0041
3352.00,0.0041
3351.00,0.0040
3350.00,0.0040
3349.00,0.0039
3348.00,0.0039
3347.00,0.0039
3346.00,0.0039
3345.00,0.0040
3344.00,0.0040
3343.00,0.0040
3342.00,0.0040
3341.00,0.0040
3340.00,0.0040
3339.00,0.0039
3338.00,0.0040
3337.00,0.0040
3336.00,0.0040
3335.00,0.0040
3334.00,0.0040
3333.00,0.0040
3332.00,0.0040
3331.00,0.0039
3330.00,0.0039
3329.00,0.0039
3328.00,0.0039
3327.00,0.0039
3326.00,0.0039
3325.00,0.0039
3324.00,0.0039
3323.00,0.0039
3322.00,0.0039
3321.00,0.0039
3320.00,0.0039
3319.00,0.0038
3318.00,0.0038
3317.00,0.0038
3316.00,0.0039
3315.00,0.0039
3314.00,0.0039
3313.00,0.0040
3312.00,0.0040
3311.00,0.0040
3310.00,0.0040
3309.00,0.0040
3308.00,0.0040
3307.00,0.0041
3306.00,0.0041
3305.00,0.0041
3304.00,0.0041
3303.00,0.0040
3302.00,0.0040
3301.00,0.0040
3300.00,0.0040
3299.00,0.0039
3298.00,0.0039
3297.00,0.0039
3296.00,0.0039
3295.00,0.0039
3294.00,0.0039
3293.00,0.0039
3292.00,0.0039
3291.00,0.0039
3290.00,0.0038
3289.00,0.0038
3288.00,0.0038
3287.00,0.0038
3286.00,0.0037
3285.00,0.0037
3284.00,0.0037
3283.00,0.0037
3282.00,0.0037
3281.00,0.0037
3280.00,0.0037
3279.00,0.0037
3278.00,0.0037
3277.00,0.0037
3276.00,0.0037
3275.00,0.0036
3274.00,0.0036
3273.00,0.0035
3272.00,0.0035
3271.00,0.0035
3270.00,0.0036
3269.00,0.0036
3268.00,0.0036
3267.00,0.0036
3266.00,0.0035
3265.00,0.0035
3264.00,0.0035
3263.00,0.0035
3262.00,0.0035
3261.00,0.0035
3260.00,0.0035
3259.00,0.0035
3258.00,0.0034
3257.00,0.0034
3256.00,0.0034
3255.00,0.0034
3254.00,0.0034
3253.00,0.0033
3252.00,0.0033
3251.00,0.0034
3250.00,0.0034
3249.00,0.0034
3248.00,0.0034
3247.00,0.0034
3246.00,0.0034
3245.00,0.0034
3244.00,0.0034
3243.00,0.0034
3242.00,0.0034
3241.00,0.0034
3240.00,0.0034
3239.00,0.0034
3238.00,0.0034
3237.00,0.0033
3236.00,0.0033
3235.00,0.0034
3234.00,0.0034
3233.00,0.0034
3232.00,0.0034
3231.00,0.0034
3230.00,0.0034
3229.00,0.0034
3228.00,0.0034
3227.00,0.0034
3226.00,0.0034
3225.00,0.0034
3224.00,0.0035
3223.00,0.0035
3222.00,0.0035
3221.00,0.0035
3220.00,0.0036
3219.00,0.0036
3218.00,0.0036
3217.00,0.0036
3216.00,0.0036
3215.00,0.0036
3214.00,0.0036
3213.00,0.0037
3212.00,0.0037
3211.00,0.0037
3210.00,0.0037
3209.00,0.0037
3208.00,0.0037
3207.00,0.0037
3206.00,0.0038
3205.00,0.0038
3204.00,0.0038
3203.00,0.0039
3202.00,0.0039
3201.00,0.0039
3200.00,0.0039
3199.00,0.0039
3198.00,0.0039
3197.00,0.0039
3196.00,0.0039
3195.00,0.0039
3194.00,0.0038
3193.00,0.0038
3192.00,0.0038
3191.00,0.0038
3190.00,0.0038
3189.00,0.0038
3188.00,0.0038
3187.00,0.0037
3186.00,0.0037
3185.00,0.0037
3184.00,0.0037
3183.00,0.0036
3182.00,0.0036
3181.00,0.0036
3180.00,0.0036
3179.00,0.0036
3178.00,0.0036
3177.00,0.0035
3176.00,0.0035
3175.00,0.0035
3174.00,0.0035
3173.00,0.0035
3172.00,0.0035
3171.00,0.0035
3170.00,0.0035
3169.00,0.0035
3168.00,0.0035
3167.00,0.0035
3166.00,0.0035
3165.00,0.0035
3164.00,0.0035
3163.00,0.0035
3162.00,0.0035
3161.00,0.0034
3160.00,0.0034
3159.00,0.0034
3158.00,0.0034
3157.00,0.0034
3156.00,0.0034
3155.00,0.0034
3154.00,0.0034
3153.00,0.0034
3152.00,0.0035
3151.00,0.0034
3150.00,0.0034
3149.00,0.0034
3148.00,0.0033
3147.00,0.0033
3146.00,0.0033
3145.00,0.0033
3144.00,0.0034
3143.00,0.0034
3142.00,0.0034
3141.00,0.0033
3140.00,0.0033
3139.00,0.0033
3138.00,0.0032
3137.00,0.0032
3136.00,0.0032
3135.00,0.0032
3134.00,0.0033
3133.00,0.0032
3132.00,0.0032
3131.00,0.0032
3130.00,0.0032
3129.00,0.0031
3128.00,0.0031
3127.00,0.0031
3126.00,0.0030
3125.00,0.0030
3124.00,0.0030
3123.00,0.0030
3122.00,0.0030
3121.00,0.0030
3120.00,0.0030
3119.00,0.0030
3118.00,0.0029
3117.00,0.0029
3116.00,0.0029
3115.00,0.0029
3114.00,0.0029
3113.00,0.0029
3112.00,0.0029
3111.00,0.0029
3110.00,0.0029
3109.00,0.0028
3108.00,0.0028
3107.00,0.0028
3106.00,0.0028
3105.00,0.0028
3104.00,0.0029
3103.00,0.0029
3102.00,0.0028
3101.00,0.0028
3100.00,0.0028
3099.00,0.0029
3098.00,0.0029
3097.00,0.0029
3096.00,0.0029
3095.00,0.0029
3094.00,0.0029
3093.00,0.0029
3092.00,0.0029
3091.00,0.0029
3090.00,0.0029
3089.00,0.0029
3088.00,0.0028
3087.00,0.0028
3086.00,0.0028
3085.00,0.0028
3084.00,0.0028
3083.00,0.0028
3082.00,0.0028
3081.00,0.0028
3080.00,0.0029
3079.00,0.0029
3078.00,0.0029
3077.00,0.0029
3076.00,0.0029
3075.00,0.0029
3074.00,0.0029
3073.00,0.0029
3072.00,0.0029
3071.00,0.0030
3070.00,0.0030
3069.00,0.0030
3068.00,0.0030
3067.00,0.0030
3066.00,0.0031
3065.00,0.0031
3064.00,0.0032
3063.00,0.0032
3062.00,0.0032
3061.00,0.0032
3060.00,0.0032
3059.00,0.0032
3058.00,0.0032
3057.00,0.0032
3056.00,0.0033
3055.00,0.0032
3054.00,0.0032
3053.00,0.0032
3052.00,0.0032
3051.00,0.0033
3050.00,0.0033
3049.00,0.0033
3048.00,0.0034
3047.00,0.0035
3046.00,0.0036
3045.00,0.0036
3044.00,0.0035
3043.00,0.0035
3042.00,0.0035
3041.00,0.0035
3040.00,0.0036
3039.00,0.0036
3038.00,0.0037
3037.00,0.0037
3036.00,0.0037
3035.00,0.0037
3034.00,0.0037
3033.00,0.0038
3032.00,0.0038
3031.00,0.0039
3030.00,0.0040
3029.00,0.0040
3028.00,0.0041
3027.00,0.0041
3026.00,0.0041
3025.00,0.0042
3024.00,0.0043
3023.00,0.0043
3022.00,0.0044
3021.00,0.0045
3020.00,0.0046
3019.00,0.0047
3018.00,0.0048
3017.00,0.0049
3016.00,0.0050
3015.00,0.0051
3014.00,0.0052
3013.00,0.0053
3012.00,0.0055
3011.00,0.0056
3010.00,0.0058
3009.00,0.0060
3008.00,0.0062
3007.00,0.0064
3006.00,0.0066
3005.00,0.0068
3004.00,0.0071
3003.00,0.0073
3002.00,0.0076
3001.00,0.0079
3000.00,0.0082
2999.00,0.0085
2998.00,0.0088
2997.00,0.0092
2996.00,0.0096
2995.00,0.0099
2994.00,0.0104
2993.00,0.0108
2992.00,0.0113
2991.00,0.0119
2990.00,0.0125
2989.00,0.0132
2988.00,0.0141
2987.00,0.0150
2986.00,0.0161
2985.00,0.0173
2984.00,0.0187
2983.00,0.0202
2982.00,0.0218
2981.00,0.0235
2980.00,0.0255
2979.00,0.0277
2978.00,0.0302
2977.00,0.0330
2976.00,0.0363
2975.00,0.0401
2974.00,0.0446
2973.00,0.0496
2972.00,0.0554
2971.00,0.0619
2970.00,0.0690
2969.00,0.0769
2968.00,0.0856
2967.00,0.0949
2966.00,0.1048
2965.00,0.1151
2964.00,0.1254
2963.00,0.1351
2962.00,0.1438
2961.00,0.1509
2960.00,0.1564
2959.00,0.1604
2958.00,0.1635
2957.00,0.1664
2956.00,0.1696
2955.00,0.1736
2954.00,0.1783
2953.00,0.1833
2952.00,0.1876
2951.00,0.1902
2950.00,0.1899
2949.00,0.1861
2948.00,0.1788
2947.00,0.1687
2946.00,0.1568
2945.00,0.1445
2944.00,0.1329
2943.00,0.1230
2942.00,0.1153
2941.00,0.1101
2940.00,0.1073
2939.00,0.1066
2938.00,0.1079
2937.00,0.1109
2936.00,0.1154
2935.00,0.1213
2934.00,0.1285
2933.00,0.1368
2932.00,0.1462
2931.00,0.1564
2930.00,0.1673
2929.00,0.1785
2928.00,0.1896
2927.00,0.2003
2926.00,0.2107
2925.00,0.2205
2924.00,0.2299
2923.00,0.2391
2922.00,0.2481
2921.00,0.2565
2920.00,0.2637
2919.00,0.2688
2918.00,0.2710
2917.00,0.2696
2916.00,0.2647
2915.00,0.2569
2914.00,0.2474
2913.00,0.2372
2912.00,0.2275
2911.00,0.2186
2910.00,0.2108
2909.00,0.2040
2908.00,0.1978
2907.00,0.1919
2906.00,0.1860
2905.00,0.1798
2904.00,0.1734
2903.00,0.1668
2902.00,0.1601
2901.00,0.1535
2900.00,0.1471
2899.00,0.1410
2898.00,0.1353
2897.00,0.1300
2896.00,0.1252
2895.00,0.1210
2894.00,0.1173
2893.00,0.1143
2892.00,0.1119
2891.00,0.1100
2890.00,0.1085
2889.00,0.1075
2888.00,0.1069
2887.00,0.1066
2886.00,0.1067
2885.00,0.1070
2884.00,0.1078
2883.00,0.1090
2882.00,0.1106
2881.00,0.1124
2880.00,0.1142
2879.00,0.1155
2878.00,0.1163
2877.00,0.1163
2876.00,0.1158
2875.00,0.1151
2874.00,0.1146
2873.00,0.1147
2872.00,0.1154
2871.00,0.1169
2870.00,0.1187
2869.00,0.1204
2868.00,0.1213
2867.00,0.1208
2866.00,0.1183
2865.00,0.1138
2864.00,0.1077
2863.00,0.1008
2862.00,0.0941
2861.00,0.0883
2860.00,0.0838
2859.00,0.0809
2858.00,0.0794
2857.00,0.0791
2856.00,0.0797
2855.00,0.0810
2854.00,0.0827
2853.00,0.0848
2852.00,0.0868
2851.00,0.0886
2850.00,0.0900
2849.00,0.0911
2848.00,0.0920
2847.00,0.0932
2846.00,0.0953
2845.00,0.0984
2844.00,0.1027
2843.00,0.1077
2842.00,0.1131
2841.00,0.1181
2840.00,0.1219
2839.00,0.1237
2838.00,0.1229
2837.00,0.1191
2836.00,0.1123
2835.00,0.1032
2834.00,0.0928
2833.00,0.0821
2832.00,0.0719
2831.00,0.0629
2830.00,0.0553
2829.00,0.0490
2828.00,0.0440
2827.00,0.0399
2826.00,0.0365
2825.00,0.0337
2824.00,0.0313
2823.00,0.0293
2822.00,0.0276
2821.00,0.0262
2820.00,0.0249
2819.00,0.0238
2818.00,0.0228
2817.00,0.0219
2816.00,0.0212
2815.00,0.0204
2814.00,0.0198
2813.00,0.0192
2812.00,0.0186
2811.00,0.0181
2810.00,0.0176
2809.00,0.0170
2808.00,0.0165
2807.00,0.0159
2806.00,0.0152
2805.00,0.0146
2804.00,0.0140
2803.00,0.0134
2802.00,0.0128
2801.00,0.0124
2800.00,0.0121
2799.00,0.0118
2798.00,0.0115
2797.00,0.0113
2796.00,0.0111
2795.00,0.0109
2794.00,0.0106
2793.00,0.0103
2792.00,0.0100
2791.00,0.0097
2790.00,0.0093
2789.00,0.0090
2788.00,0.0086
2787.00,0.0083
2786.00,0.0080
2785.00,0.0078
2784.00,0.0076
2783.00,0.0074
2782.00,0.0072
2781.00,0.0070
2780.00,0.0068
2779.00,0.0067
2778.00,0.0065
2777.00,0.0063
2776.00,0.0062
2775.00,0.0060
2774.00,0.0059
2773.00,0.0058
2772.00,0.0058
2771.00,0.0058
2770.00,0.0058
2769.00,0.0058
2768.00,0.0058
2767.00,0.0057
2766.00,0.0057
2765.00,0.0057
2764.00,0.0056
2763.00,0.0056
2762.00,0.0055
2761.00,0.0054
2760.00,0.0054
2759.00,0.0053
2758.00,0.0053
2757.00,0.0053
2756.00,0.0053
2755.00,0.0053
2754.00,0.0053
2753.00,0.0053
2752.00,0.0052
2751.00,0.0052
2750.00,0.0052
2749.00,0.0052
2748.00,0.0052
2747.00,0.0052
2746.00,0.0052
2745.00,0.0053
2744.00,0.0054
2743.00,0.0055
2742.00,0.0056
2741.00,0.0057
2740.00,0.0058
2739.00,0.0059
2738.00,0.0060
2737.00,0.0061
2736.00,0.0063
2735.00,0.0064
2734.00,0.0065
2733.00,0.0067
2732.00,0.0069
2731.00,0.0071
2730.00,0.0073
2729.00,0.0075
2728.00,0.0077
2727.00,0.0080
2726.00,0.0082
2725.00,0.0085
2724.00,0.0087
2723.00,0.0087
2722.00,0.0086
2721.00,0.0084
2720.00,0.0081
2719.00,0.0078
2718.00,0.0075
2717.00,0.0072
2716.00,0.0069
2715.00,0.0067
2714.00,0.0064
2713.00,0.0062
2712.00,0.0061
2711.00,0.0059
2710.00,0.0058
2709.00,0.0056
2708.00,0.0055
2707.00,0.0054
2706.00,0.0052
2705.00,0.0051
2704.00,0.0050
2703.00,0.0049
2702.00,0.0049
2701.00,0.0048
2700.00,0.0048
2699.00,0.0047
2698.00,0.0047
2697.00,0.0047
2696.00,0.0047
2695.00,0.0047
2694.00,0.0046
2693.00,0.0046
2692.00,0.0047
2691.00,0.0047
2690.00,0.0047
2689.00,0.0047
2688.00,0.0047
2687.00,0.0047
2686.00,0.0047
2685.00,0.0046
2684.00,0.0046
2683.00,0.0046
2682.00,0.0047
2681.00,0.0047
2680.00,0.0047
2679.00,0.0047
2678.00,0.0047
2677.00,0.0047
2676.00,0.0047
2675.00,0.0047
2674.00,0.0047
2673.00,0.0047
2672.00,0.0047
2671.00,0.0046
2670.00,0.0046
2669.00,0.0046
2668.00,0.0046
2667.00,0.0046
2666.00,0.0046
2665.00,0.0047
2664.00,0.0048
2663.00,0.0048
2662.00,0.0048
2661.00,0.0049
2660.00,0.0049
2659.00,0.0049
2658.00,0.0049
2657.00,0.0049
2656.00,0.0048
2655.00,0.0048
2654.00,0.0047
2653.00,0.0046
2652.00,0.0046
2651.00,0.0045
2650.00,0.0045
2649.00,0.0045
2648.00,0.0045
2647.00,0.0044
2646.00,0.0044
2645.00,0.0043
2644.00,0.0043
2643.00,0.0042
2642.00,0.0042
2641.00,0.0041
2640.00,0.0041
2639.00,0.0041
2638.00,0.0041
2637.00,0.0041
2636.00,0.0040
2635.00,0.0040
2634.00,0.0039
2633.00,0.0039
2632.00,0.0039
2631.00,0.0040
2630.00,0.0040
2629.00,0.0041
2628.00,0.0041
2627.00,0.0041
2626.00,0.0041
2625.00,0.0041
2624.00,0.0041
2623.00,0.0041
2622.00,0.0041
2621.00,0.0041
2620.00,0.0040
2619.00,0.0040
2618.00,0.0040
2617.00,0.0040
2616.00,0.0040
2615.00,0.0040
2614.00,0.0040
2613.00,0.0040
2612.00,0.0039
2611.00,0.0039
2610.00,0.0038
2609.00,0.0038
2608.00,0.0038
2607.00,0.0037
2606.00,0.0036
2605.00,0.0035
2604.00,0.0034
2603.00,0.0034
2602.00,0.0034
2601.00,0.0034
2600.00,0.0034
2599.00,0.0034
2598.00,0.0033
2597.00,0.0033
2596.00,0.0033
2595.00,0.0033
2594.00,0.0033
2593.00,0.0033
2592.00,0.0033
2591.00,0.0034
2590.00,0.0035
2589.00,0.0036
2588.00,0.0036
2587.00,0.0037
2586.00,0.0037
2585.00,0.0038
2584.00,0.0039
2583.00,0.0040
2582.00,0.0040
2581.00,0.0040
2580.00,0.0039
2579.00,0.0037
2578.00,0.0035
2577.00,0.0034
2576.00,0.0033
2575.00,0.0032
2574.00,0.0031
2573.00,0.0030
2572.00,0.0030
2571.00,0.0029
2570.00,0.0028
2569.00,0.0027
2568.00,0.0026
2567.00,0.0026
2566.00,0.0025
2565.00,0.0024
2564.00,0.0024
2563.00,0.0023
2562.00,0.0023
2561.00,0.0024
2560.00,0.0024
2559.00,0.0024
2558.00,0.0024
2557.00,0.0024
2556.00,0.0023
2555.00,0.0023
2554.00,0.0023
2553.00,0.0022
2552.00,0.0022
2551.00,0.0022
2550.00,0.0021
2549.00,0.0021
2548.00,0.0021
2547.00,0.0021
2546.00,0.0020
2545.00,0.0019
2544.00,0.0019
2543.00,0.0019
2542.00,0.0019
2541.00,0.0019
2540.00,0.0018
2539.00,0.0018
2538.00,0.0017
2537.00,0.0017
2536.00,0.0017
2535.00,0.0017
2534.00,0.0017
2533.00,0.0017
2532.00,0.0017
2531.00,0.0017
2530.00,0.0017
2529.00,0.0016
2528.00,0.0016
2527.00,0.0015
2526.00,0.0015
2525.00,0.0015
2524.00,0.0015
2523.00,0.0015
2522.00,0.0015
2521.00,0.0014
2520.00,0.0014
2519.00,0.0014
2518.00,0.0013
2517.00,0.0013
2516.00,0.0013
2515.00,0.0012
2514.00,0.0012
2513.00,0.0012
2512.00,0.0012
2511.00,0.0012
2510.00,0.0011
2509.00,0.0011
2508.00,0.0010
2507.00,0.0010
2506.00,0.0010
2505.00,0.0011
2504.00,0.0011
2503.00,0.0012
2502.00,0.0012
2501.00,0.0012
2500.00,0.0012
2499.00,0.0011
2498.00,0.0011
2497.00,0.0012
2496.00,0.0012
2495.00,0.0012
2494.00,0.0012
2493.00,0.0012
2492.00,0.0012
2491.00,0.0011
2490.00,0.0011
2489.00,0.0011
2488.00,0.0011
2487.00,0.0011
2486.00,0.0011
2485.00,0.0011
2484.00,0.0011
2483.00,0.0011
2482.00,0.0011
2481.00,0.0011
2480.00,0.0011
2479.00,0.0010
2478.00,0.0010
2477.00,0.0010
2476.00,0.0010
2475.00,0.0011
2474.00,0.0011
2473.00,0.0011
2472.00,0.0011
2471.00,0.0011
2470.00,0.0010
2469.00,0.0010
2468.00,0.0010
2467.00,0.0010
2466.00,0.0010
2465.00,0.0011
2464.00,0.0011
2463.00,0.0011
2462.00,0.0011
2461.00,0.0011
2460.00,0.0011
2459.00,0.0011
2458.00,0.0011
2457.00,0.0011
2456.00,0.0011
2455.00,0.0011
2454.00,0.0011
2453.00,0.0012
2452.00,0.0012
2451.00,0.0012
2450.00,0.0012
2449.00,0.0012
2448.00,0.0012
2447.00,0.0012
2446.00,0.0011
2445.00,0.0011
2444.00,0.0011
2443.00,0.0011
2442.00,0.0012
2441.00,0.0012
2440.00,0.0012
2439.00,0.0012
2438.00,0.0012
2437.00,0.0012
2436.00,0.0012
2435.00,0.0012
2434.00,0.0012
2433.00,0.0012
2432.00,0.0012
2431.00,0.0012
2430.00,0.0013
2429.00,0.0013
2428.00,0.0013
2427.00,0.0012
2426.00,0.0012
2425.00,0.0012
2424.00,0.0013
2423.00,0.0013
2422.00,0.0013
2421.00,0.0012
2420.00,0.0012
2419.00,0.0012
2418.00,0.0011
2417.00,0.0011
2416.00,0.0011
2415.00,0.0011
2414.00,0.0011
2413.00,0.0011
2412.00,0.0011
2411.00,0.0012
2410.00,0.0012
2409.00,0.0011
2408.00,0.0011
2407.00,0.0010
2406.00,0.0009
2405.00,0.0009
2404.00,0.0009
2403.00,0.0010
2402.00,0.0010
2401.00,0.0010
2400.00,0.0009
2399.00,0.0009
2398.00,0.0009
2397.00,0.0009
2396.00,0.0010
2395.00,0.0009
2394.00,0.0009
2393.00,0.0009
2392.00,0.0008
2391.00,0.0008
2390.00,0.0008
2389.00,0.0008
2388.00,0.0008
2387.00,0.0008
2386.00,0.0008
2385.00,0.0008
2384.00,0.0007
2383.00,0.0007
2382.00,0.0006
2381.00,0.0006
2380.00,0.0005
2379.00,0.0005
2378.00,0.0006
2377.00,0.0006
2376.00,0.0006
2375.00,0.0007
2374.00,0.0007
2373.00,0.0007
2372.00,0.0007
2371.00,0.0007
2370.00,0.0007
2369.00,0.0007
2368.00,0.0006
2367.00,0.0006
2366.00,0.0006
2365.00,0.0006
2364.00,0.0006
2363.00,0.0007
2362.00,0.0007
2361.00,0.0008
2360.00,0.0008
2359.00,0.0008
2358.00,0.0008
2357.00,0.0008
2356.00,0.0008
2355.00,0.0008
2354.00,0.0008
2353.00,0.0007
2352.00,0.0007
2351.00,0.0006
2350.00,0.0007
2349.00,0.0008
2348.00,0.0010
2347.00,0.0010
2346.00,0.0010
2345.00,0.0009
2344.00,0.0010
2343.00,0.0010
2342.00,0.0011
2341.00,0.0011
2340.00,0.0011
2339.00,0.0011
2338.00,0.0011
2337.00,0.0010
2336.00,0.0010
2335.00,0.0010
2334.00,0.0010
2333.00,0.0009
2332.00,0.0008
2331.00,0.0007
2330.00,0.0007
2329.00,0.0009
2328.00,0.0012
2327.00,0.0015
2326.00,0.0018
2325.00,0.0021
2324.00,0.0021
2323.00,0.0019
2322.00,0.0017
2321.00,0.0015
2320.00,0.0014
2319.00,0.0014
2318.00,0.0015
2317.00,0.0014
2316.00,0.0014
2315.00,0.0014
2314.00,0.0013
2313.00,0.0013
2312.00,0.0012
2311.00,0.0012
2310.00,0.0011
2309.00,0.0010
2308.00,0.0010
2307.00,0.0010
2306.00,0.0010
2305.00,0.0010
2304.00,0.0011
2303.00,0.0012
2302.00,0.0013
2301.00,0.0013
2300.00,0.0013
2299.00,0.0013
2298.00,0.0013
2297.00,0.0014
2296.00,0.0014
2295.00,0.0015
2294.00,0.0016
2293.00,0.0017
2292.00,0.0018
2291.00,0.0018
2290.00,0.0018
2289.00,0.0018
2288.00,0.0019
2287.00,0.0019
2286.00,0.0020
2285.00,0.0019
2284.00,0.0019
2283.00,0.0018
2282.00,0.0017
2281.00,0.0018
2280.00,0.0018
2279.00,0.0017
2278.00,0.0016
2277.00,0.0015
2276.00,0.0014
2275.00,0.0014
2274.00,0.0014
2273.00,0.0014
2272.00,0.0013
2271.00,0.0013
2270.00,0.0012
2269.00,0.0012
2268.00,0.0013
2267.00,0.0013
2266.00,0.0014
2265.00,0.0013
2264.00,0.0013
2263.00,0.0012
2262.00,0.0012
2261.00,0.0012
2260.00,0.0011
2259.00,0.0011
2258.00,0.0012
2257.00,0.0012
2256.00,0.0013
2255.00,0.0012
2254.00,0.0010
2253.00,0.0009
2252.00,0.0008
2251.00,0.0009
2250.00,0.0009
2249.00,0.0010
2248.00,0.0012
2247.00,0.0012
2246.00,0.0012
2245.00,0.0012
2244.00,0.0012
2243.00,0.0011
2242.00,0.0011
2241.00,0.0012
2240.00,0.0012
2239.00,0.0012
2238.00,0.0012
2237.00,0.0011
2236.00,0.0011
2235.00,0.0010
2234.00,0.0009
2233.00,0.0008
2232.00,0.0008
2231.00,0.0007
2230.00,0.0006
2229.00,0.0006
2228.00,0.0007
2227.00,0.0008
2226.00,0.0010
2225.00,0.0013
2224.00,0.0014
2223.00,0.0014
2222.00,0.0012
2221.00,0.0011
2220.00,0.0009
2219.00,0.0008
2218.00,0.0007
2217.00,0.0008
2216.00,0.0009
2215.00,0.0010
2214.00,0.0011
2213.00,0.0011
2212.00,0.0011
2211.00,0.0010
2210.00,0.0008
2209.00,0.0007
2208.00,0.0006
2207.00,0.0006
2206.00,0.0007
2205.00,0.0008
2204.00,0.0008
2203.00,0.0007
2202.00,0.0007
2201.00,0.0008
2200.00,0.0009
2199.00,0.0008
2198.00,0.0007
2197.00,0.0007
2196.00,0.0008
2195.00,0.0009
2194.00,0.0010
2193.00,0.0011
2192.00,0.0012
2191.00,0.0013
2190.00,0.0013
2189.00,0.0015
2188.00,0.0017
2187.00,0.0018
2186.00,0.0016
2185.00,0.0013
2184.00,0.0009
2183.00,0.0005
2182.00,0.0002
2181.00,0.0001
2180.00,0.0001
2179.00,0.0001
2178.00,0.0001
2177.00,0.0000
2176.00,-0.0001
2175.00,-0.0002
2174.00,-0.0000
2173.00,0.0002
2172.00,0.0005
2171.00,0.0006
2170.00,0.0006
2169.00,0.0007
2168.00,0.0008
2167.00,0.0011
2166.00,0.0014
2165.00,0.0016
2164.00,0.0017
2163.00,0.0017
2162.00,0.0015
2161.00,0.0009
2160.00,-0.0002
2159.00,-0.0017
2158.00,-0.0030
2157.00,-0.0035
2156.00,-0.0032
2155.00,-0.0026
2154.00,-0.0020
2153.00,-0.0015
2152.00,-0.0011
2151.00,-0.0009
2150.00,-0.0009
2149.00,-0.0010
2148.00,-0.0012
2147.00,-0.0012
2146.00,-0.0012
2145.00,-0.0012
2144.00,-0.0012
2143.00,-0.0012
2142.00,-0.0013
2141.00,-0.0012
2140.00,-0.0010
2139.00,-0.0008
2138.00,-0.0008
2137.00,-0.0009
2136.00,-0.0011
2135.00,-0.0013
2134.00,-0.0013
2133.00,-0.0011
2132.00,-0.0010
2131.00,-0.0008
2130.00,-0.0008
2129.00,-0.0007
2128.00,-0.0007
2127.00,-0.0006
2126.00,-0.0006
2125.00,-0.0005
2124.00,-0.0004
2123.00,-0.0003
2122.00,-0.0002
2121.00,-0.0001
2120.00,-0.0001
2119.00,-0.0001
2118.00,-0.0000
2117.00,0.0001
2116.00,0.0002
2115.00,0.0003
2114.00,0.0004
2113.00,0.0005
2112.00,0.0005
2111.00,0.0005
2110.00,0.0005
2109.00,0.0005
2108.00,0.0004
2107.00,0.0002
2106.00,0.0002
2105.00,0.0002
2104.00,0.0002
2103.00,0.0002
2102.00,0.0002
2101.00,0.0002
2100.00,0.0002
2099.00,0.0002
2098.00,0.0001
2097.00,0.0001
2096.00,-0.0000
2095.00,-0.0001
2094.00,-0.0002
2093.00,-0.0002
2092.00,-0.0002
2091.00,-0.0001
2090.00,-0.0000
2089.00,0.0001
2088.00,0.0004
2087.00,0.0006
2086.00,0.0008
2085.00,0.0009
2084.00,0.0009
2083.00,0.0009
2082.00,0.0008
2081.00,0.0007
2080.00,0.0006
2079.00,0.0005
2078.00,0.0005
2077.00,0.0004
2076.00,0.0003
2075.00,0.0003
2074.00,0.0002
2073.00,0.0003
2072.00,0.0003
2071.00,0.0003
2070.00,0.0003
2069.00,0.0003
2068.00,0.0004
2067.00,0.0003
2066.00,0.0002
2065.00,0.0001
2064.00,-0.0000
2063.00,-0.0000
2062.00,-0.0000
2061.00,-0.0001
2060.00,-0.0002
2059.00,-0.0003
2058.00,-0.0003
2057.00,-0.0001
2056.00,0.0000
2055.00,0.0001
2054.00,0.0003
2053.00,0.0007
2052.00,0.0011
2051.00,0.0014
2050.00,0.0013
2049.00,0.0009
2048.00,0.0004
2047.00,-0.0001
2046.00,-0.0004
2045.00,-0.0004
2044.00,-0.0002
2043.00,-0.0002
2042.00,-0.0003
2041.00,-0.0005
2040.00,-0.0007
2039.00,-0.0007
2038.00,-0.0007
2037.00,-0.0007
2036.00,-0.0007
2035.00,-0.0007
2034.00,-0.0007
2033.00,-0.0009
2032.00,-0.0010
2031.00,-0.0011
2030.00,-0.0010
2029.00,-0.0007
2028.00,-0.0005
2027.00,-0.0006
2026.00,-0.0007
2025.00,-0.0008
2024.00,-0.0008
2023.00,-0.0007
2022.00,-0.0007
2021.00,-0.0007
2020.00,-0.0006
2019.00,-0.0005
2018.00,-0.0005
2017.00,-0.0008
2016.00,-0.0013
2015.00,-0.0016
2014.00,-0.0016
2013.00,-0.0013
2012.00,-0.0008
2011.00,-0.0006
2010.00,-0.0006
2009.00,-0.0008
2008.00,-0.0011
2007.00,-0.0014
2006.00,-0.0015
2005.00,-0.0014
2004.00,-0.0013
2003.00,-0.0012
2002.00,-0.0013
2001.00,-0.0013
2000.00,-0.0013
1999.00,-0.0013
1998.00,-0.0013
1997.00,-0.0014
1996.00,-0.0014
1995.00,-0.0013
1994.00,-0.0011
1993.00,-0.0009
1992.00,-0.0006
1991.00,-0.0004
1990.00,-0.0003
1989.00,-0.0003
1988.00,-0.0004
1987.00,-0.0003
1986.00,-0.0000
1985.00,0.0004
1984.00,0.0008
1983.00,0.0010
1982.00,0.0010
1981.00,0.0011
1980.00,0.0009
1979.00,0.0005
1978.00,-0.0002
1977.00,-0.0008
1976.00,-0.0013
1975.00,-0.0014
1974.00,-0.0013
1973.00,-0.0011
1972.00,-0.0011
1971.00,-0.0011
1970.00,-0.0013
1969.00,-0.0014
1968.00,-0.0014
1967.00,-0.0014
1966.00,-0.0013
1965.00,-0.0013
1964.00,-0.0012
1963.00,-0.0012
1962.00,-0.0013
1961.00,-0.0013
1960.00,-0.0014
1959.00,-0.0015
1958.00,-0.0015
1957.00,-0.0014
1956.00,-0.0013
1955.00,-0.0012
1954.00,-0.0011
1953.00,-0.0011
1952.00,-0.0011
1951.00,-0.0011
1950.00,-0.0011
1949.00,-0.0011
1948.00,-0.0011
1947.00,-0.0009
1946.00,-0.0009
1945.00,-0.0010
1944.00,-0.0012
1943.00,-0.0014
1942.00,-0.0016
1941.00,-0.0016
1940.00,-0.0014
1939.00,-0.0011
1938.00,-0.0009
1937.00,-0.0008
1936.00,-0.0008
1935.00,-0.0008
1934.00,-0.0007
1933.00,-0.0007
1932.00,-0.0007
1931.00,-0.0007
1930.00,-0.0008
1929.00,-0.0008
1928.00,-0.0008
1927.00,-0.0007
1926.00,-0.0005
1925.00,-0.0004
1924.00,-0.0003
1923.00,-0.0003
1922.00,-0.0003
1921.00,-0.0002
1920.00,-0.0001
1919.00,0.0001
1918.00,0.0002
1917.00,0.0002
1916.00,0.0002
1915.00,0.0001
1914.00,-0.0000
1913.00,-0.0001
1912.00,-0.0002
1911.00,-0.0002
1910.00,-0.0002
1909.00,-0.0002
1908.00,-0.0002
1907.00,-0.0001
1906.00,0.0000
1905.00,0.0001
1904.00,0.0002
1903.00,0.0002
1902.00,0.0001
1901.00,0.0000
1900.00,0.0000
1899.00,0.0001
1898.00,0.0001
1897.00,0.0001
1896.00,0.0001
1895.00,0.0000
1894.00,0.0000
1893.00,0.0001
1892.00,0.0002
1891.00,0.0003
1890.00,0.0003
1889.00,0.0004
1888.00,0.0004
1887.00,0.0003
1886.00,0.0002
1885.00,0.0001
1884.00,0.0000
1883.00,-0.0001
1882.00,-0.0000
1881.00,0.0001
1880.00,0.0002
1879.00,0.0002
1878.00,0.0001
1877.00,0.0001
1876.00,0.0001
1875.00,0.0001
1874.00,0.0001
1873.00,0.0000
1872.00,0.0001
1871.00,0.0001
1870.00,0.0001
1869.00,0.0002
1868.00,0.0002
1867.00,0.0002
1866.00,0.0002
1865.00,0.0002
1864.00,0.0002
1863.00,0.0002
1862.00,0.0002
1861.00,0.0002
1860.00,0.0001
1859.00,0.0001
1858.00,0.0001
1857.00,0.0002
1856.00,0.0003
1855.00,0.0003
1854.00,0.0003
1853.00,0.0003
1852.00,0.0003
1851.00,0.0002
1850.00,0.0002
1849.00,0.0002
1848.00,0.0002
1847.00,0.0002
1846.00,0.0002
1845.00,0.0002
1844.00,0.0003
1843.00,0.0004
1842.00,0.0004
1841.00,0.0004
1840.00,0.0004
1839.00,0.0003
1838.00,0.0003
1837.00,0.0004
1836.00,0.0004
1835.00,0.0005
1834.00,0.0005
1833.00,0.0005
1832.00,0.0005
1831.00,0.0004
1830.00,0.0004
1829.00,0.0004
1828.00,0.0005
1827.00,0.0005
1826.00,0.0006
1825.00,0.0007
1824.00,0.0007
1823.00,0.0007
1822.00,0.0007
1821.00,0.0006
1820.00,0.0006
1819.00,0.0005
1818.00,0.0003
1817.00,0.0003
1816.00,0.0002
1815.00,0.0002
1814.00,0.0003
1813.00,0.0003
1812.00,0.0003
1811.00,0.0004
1810.00,0.0004
1809.00,0.0005
1808.00,0.0006
1807.00,0.0006
1806.00,0.0006
1805.00,0.0007
1804.00,0.0007
1803.00,0.0006
1802.00,0.0006
1801.00,0.0006
1800.00,0.0006
1799.00,0.0007
1798.00,0.0007
1797.00,0.0007
1796.00,0.0008
1795.00,0.0008
1794.00,0.0008
1793.00,0.0008
1792.00,0.0008
1791.00,0.0008
1790.00,0.0007
1789.00,0.0007
1788.00,0.0008
1787.00,0.0009
1786.00,0.0009
1785.00,0.0010
1784.00,0.0011
1783.00,0.0012
1782.00,0.0011
1781.00,0.0011
1780.00,0.0010
1779.00,0.0010
1778.00,0.0010
1777.00,0.0009
1776.00,0.0010
1775.00,0.0010
1774.00,0.0010
1773.00,0.0011
1772.00,0.0011
1771.00,0.0011
1770.00,0.0011
1769.00,0.0011
1768.00,0.0012
1767.00,0.0012
1766.00,0.0012
1765.00,0.0013
1764.00,0.0014
1763.00,0.0015
1762.00,0.0016
1761.00,0.0017
1760.00,0.0018
1759.00,0.0018
1758.00,0.0020
1757.00,0.0021
1756.00,0.0022
1755.00,0.0023
1754.00,0.0024
1753.00,0.0025
1752.00,0.0026
1751.00,0.0028
1750.00,0.0028
1749.00,0.0029
1748.00,0.0030
1747.00,0.0031
1746.00,0.0032
1745.00,0.0032
1744.00,0.0033
1743.00,0.0033
1742.00,0.0033
1741.00,0.0033
1740.00,0.0034
1739.00,0.0034
1738.00,0.0033
1737.00,0.0033
1736.00,0.0033
1735.00,0.0032
1734.00,0.0032
1733.00,0.0032
1732.00,0.0032
1731.00,0.0031
1730.00,0.0030
1729.00,0.0030
1728.00,0.0030
1727.00,0.0030
1726.00,0.0029
1725.00,0.0029
1724.00,0.0030
1723.00,0.0030
1722.00,0.0029
1721.00,0.0029
1720.00,0.0028
1719.00,0.0028
1718.00,0.0027
1717.00,0.0026
1716.00,0.0026
1715.00,0.0026
1714.00,0.0026
1713.00,0.0026
1712.00,0.0026
1711.00,0.0026
1710.00,0.0025
1709.00,0.0025
1708.00,0.0025
1707.00,0.0026
1706.00,0.0026
1705.00,0.0027
1704.00,0.0028
1703.00,0.0028
1702.00,0.0028
1701.00,0.0028
1700.00,0.0029
1699.00,0.0029
1698.00,0.0029
1697.00,0.0029
1696.00,0.0031
1695.00,0.0032
1694.00,0.0033
1693.00,0.0033
1692.00,0.0033
1691.00,0.0034
1690.00,0.0034
1689.00,0.0035
1688.00,0.0036
1687.00,0.0036
1686.00,0.0036
1685.00,0.0036
1684.00,0.0037
1683.00,0.0038
1682.00,0.0039
1681.00,0.0039
1680.00,0.0040
1679.00,0.0041
1678.00,0.0041
1677.00,0.0042
1676.00,0.0043
1675.00,0.0044
1674.00,0.0044
1673.00,0.0045
1672.00,0.0045
1671.00,0.0045
1670.00,0.0046
1669.00,0.0046
1668.00,0.0047
1667.00,0.0047
1666.00,0.0047
1665.00,0.0048
1664.00,0.0049
1663.00,0.0050
1662.00,0.0050
1661.00,0.0051
1660.00,0.0051
1659.00,0.0051
1658.00,0.0052
1657.00,0.0053
1656.00,0.0054
1655.00,0.0055
1654.00,0.0055
1653.00,0.0055
1652.00,0.0055
1651.00,0.0054
1650.00,0.0053
1649.00,0.0053
1648.00,0.0053
1647.00,0.0054
1646.00,0.0055
1645.00,0.0057
1644.00,0.0058
1643.00,0.0058
1642.00,0.0058
1641.00,0.0059
1640.00,0.0059
1639.00,0.0059
1638.00,0.0060
1637.00,0.0060
1636.00,0.0060
1635.00,0.0059
1634.00,0.0059
1633.00,0.0058
1632.00,0.0058
1631.00,0.0058
1630.00,0.0057
1629.00,0.0057
1628.00,0.0056
1627.00,0.0055
1626.00,0.0055
1625.00,0.0054
1624.00,0.0054
1623.00,0.0054
1622.00,0.0054
1621.00,0.0053
1620.00,0.0053
1619.00,0.0053
1618.00,0.0052
1617.00,0.0052
1616.00,0.0052
1615.00,0.0051
1614.00,0.0051
1613.00,0.0051
1612.00,0.0051
1611.00,0.0051
1610.00,0.0051
1609.00,0.0051
1608.00,0.0051
1607.00,0.0051
1606.00,0.0052
1605.00,0.0052
1604.00,0.0052
1603.00,0.0053
1602.00,0.0053
1601.00,0.0053
1600.00,0.0053
1599.00,0.0052
1598.00,0.0052
1597.00,0.0052
1596.00,0.0053
1595.00,0.0053
1594.00,0.0053
1593.00,0.0053
1592.00,0.0054
1591.00,0.0055
1590.00,0.0056
1589.00,0.0057
1588.00,0.0058
1587.00,0.0060
1586.00,0.0061
1585.00,0.0062
1584.00,0.0064
1583.00,0.0066
1582.00,0.0069
1581.00,0.0071
1580.00,0.0073
1579.00,0.0075
1578.00,0.0076
1577.00,0.0077
1576.00,0.0077
1575.00,0.0076
1574.00,0.0074
1573.00,0.0073
1572.00,0.0072
1571.00,0.0070
1570.00,0.0068
1569.00,0.0067
1568.00,0.0066
1567.00,0.0066
1566.00,0.0065
1565.00,0.0064
1564.00,0.0063
1563.00,0.0063
1562.00,0.0062
1561.00,0.0063
1560.00,0.0062
1559.00,0.0061
1558.00,0.0061
1557.00,0.0063
1556.00,0.0064
1555.00,0.0065
1554.00,0.0066
1553.00,0.0067
1552.00,0.0068
1551.00,0.0069
1550.00,0.0069
1549.00,0.0071
1548.00,0.0072
1547.00,0.0075
1546.00,0.0077
1545.00,0.0080
1544.00,0.0082
1543.00,0.0084
1542.00,0.0085
1541.00,0.0086
1540.00,0.0086
1539.00,0.0084
1538.00,0.0081
1537.00,0.0078
1536.00,0.0075
1535.00,0.0072
1534.00,0.0069
1533.00,0.0066
1532.00,0.0064
1531.00,0.0062
1530.00,0.0061
1529.00,0.0061
1528.00,0.0060
1527.00,0.0060
1526.00,0.0059
1525.00,0.0058
1524.00,0.0058
1523.00,0.0058
1522.00,0.0058
1521.00,0.0058
1520.00,0.0059
1519.00,0.0059
1518.00,0.0060
1517.00,0.0060
1516.00,0.0061
1515.00,0.0061
1514.00,0.0061
1513.00,0.0061
1512.00,0.0062
1511.00,0.0063
1510.00,0.0063
1509.00,0.0064
1508.00,0.0064
1507.00,0.0064
1506.00,0.0065
1505.00,0.0066
1504.00,0.0068
1503.00,0.0068
1502.00,0.0069
1501.00,0.0072
1500.00,0.0074
1499.00,0.0077
1498.00,0.0080
1497.00,0.0084
1496.00,0.0087
1495.00,0.0089
1494.00,0.0091
1493.00,0.0094
1492.00,0.0098
1491.00,0.0101
1490.00,0.0105
1489.00,0.0109
1488.00,0.0115
1487.00,0.0120
1486.00,0.0126
1485.00,0.0133
1484.00,0.0140
1483.00,0.0148
1482.00,0.0158
1481.00,0.0169
1480.00,0.0182
1479.00,0.0195
1478.00,0.0211
1477.00,0.0232
1476.00,0.0258
1475.00,0.0288
1474.00,0.0328
1473.00,0.0383
1472.00,0.0448
1471.00,0.0512
1470.00,0.0574
1469.00,0.0639
1468.00,0.0710
1467.00,0.0786
1466.00,0.0872
1465.00,0.0963
1464.00,0.1042
1463.00,0.1098
1462.00,0.1134
1461.00,0.1159
1460.00,0.1176
1459.00,0.1188
1458.00,0.1198
1457.00,0.1205
1456.00,0.1205
1455.00,0.1198
1454.00,0.1187
1453.00,0.1170
1452.00,0.1143
1451.00,0.1106
1450.00,0.1055
1449.00,0.0985
1448.00,0.0897
1447.00,0.0803
1446.00,0.0717
1445.00,0.0643
1444.00,0.0580
1443.00,0.0527
1442.00,0.0488
1441.00,0.0460
1440.00,0.0442
1439.00,0.0434
1438.00,0.0434
1437.00,0.0433
1436.00,0.0422
1435.00,0.0398
1434.00,0.0363
1433.00,0.0322
1432.00,0.0279
1431.00,0.0240
1430.00,0.0210
1429.00,0.0188
1428.00,0.0172
1427.00,0.0162
1426.00,0.0155
1425.00,0.0149
1424.00,0.0144
1423.00,0.0141
1422.00,0.0140
1421.00,0.0138
1420.00,0.0136
1419.00,0.0134
1418.00,0.0132
1417.00,0.0129
1416.00,0.0125
1415.00,0.0123
1414.00,0.0122
1413.00,0.0120
1412.00,0.0119
1411.00,0.0119
1410.00,0.0119
1409.00,0.0118
1408.00,0.0117
1407.00,0.0117
1406.00,0.0117
1405.00,0.0117
1404.00,0.0117
1403.00,0.0118
1402.00,0.0119
1401.00,0.0121
1400.00,0.0121
1399.00,0.0123
1398.00,0.0126
1397.00,0.0127
1396.00,0.0130
1395.00,0.0134
1394.00,0.0139
1393.00,0.0144
1392.00,0.0150
1391.00,0.0158
1390.00,0.0168
1389.00,0.0183
1388.00,0.0204
1387.00,0.0235
1386.00,0.0277
1385.00,0.0332
1384.00,0.0409
1383.00,0.0517
1382.00,0.0661
1381.00,0.0846
1380.00,0.1072
1379.00,0.1326
1378.00,0.1566
1377.00,0.1736
1376.00,0.1787
1375.00,0.1691
1374.00,0.1478
1373.00,0.1223
1372.00,0.0990
1371.00,0.0798
1370.00,0.0645
1369.00,0.0530
1368.00,0.0450
1367.00,0.0401
1366.00,0.0374
1365.00,0.0363
1364.00,0.0365
1363.00,0.0376
1362.00,0.0395
1361.00,0.0414
1360.00,0.0429
1359.00,0.0434
1358.00,0.0424
1357.00,0.0400
1356.00,0.0367
1355.00,0.0330
1354.00,0.0294
1353.00,0.0263
1352.00,0.0238
1351.00,0.0217
1350.00,0.0200
1349.00,0.0187
1348.00,0.0175
1347.00,0.0165
1346.00,0.0156
1345.00,0.0149
1344.00,0.0143
1343.00,0.0138
1342.00,0.0135
1341.00,0.0132
1340.00,0.0130
1339.00,0.0128
1338.00,0.0126
1337.00,0.0125
1336.00,0.0125
1335.00,0.0127
1334.00,0.0129
1333.00,0.0133
1332.00,0.0137
1331.00,0.0140
1330.00,0.0141
1329.00,0.0140
1328.00,0.0136
1327.00,0.0132
1326.00,0.0126
1325.00,0.0120
1324.00,0.0115
1323.00,0.0111
1322.00,0.0108
1321.00,0.0105
1320.00,0.0103
1319.00,0.0100
1318.00,0.0098
1317.00,0.0097
1316.00,0.0097
1315.00,0.0096
1314.00,0.0096
1313.00,0.0096
1312.00,0.0097
1311.00,0.0099
1310.00,0.0104
1309.00,0.0111
1308.00,0.0121
1307.00,0.0133
1306.00,0.0144
1305.00,0.0152
1304.00,0.0155
1303.00,0.0151
1302.00,0.0145
1301.00,0.0139
1300.00,0.0135
1299.00,0.0133
1298.00,0.0133
1297.00,0.0133
1296.00,0.0131
1295.00,0.0129
1294.00,0.0125
1293.00,0.0120
1292.00,0.0115
1291.00,0.0110
1290.00,0.0106
1289.00,0.0102
1288.00,0.0099
1287.00,0.0097
1286.00,0.0095
1285.00,0.0094
1284.00,0.0092
1283.00,0.0091
1282.00,0.0090
1281.00,0.0090
1280.00,0.0089
1279.00,0.0088
1278.00,0.0088
1277.00,0.0087
1276.00,0.0087
1275.00,0.0087
1274.00,0.0087
1273.00,0.0087
1272.00,0.0087
1271.00,0.0088
1270.00,0.0089
1269.00,0.0091
1268.00,0.0094
1267.00,0.0096
1266.00,0.0100
1265.00,0.0103
1264.00,0.0106
1263.00,0.0110
1262.00,0.0113
1261.00,0.0118
1260.00,0.0123
1259.00,0.0130
1258.00,0.0138
1257.00,0.0144
1256.00,0.0147
1255.00,0.0146
1254.00,0.0139
1253.00,0.0130
1252.00,0.0121
1251.00,0.0113
1250.00,0.0107
1249.00,0.0103
1248.00,0.0100
1247.00,0.0097
1246.00,0.0095
1245.00,0.0093
1244.00,0.0091
1243.00,0.0090
1242.00,0.0089
1241.00,0.0088
1240.00,0.0088
1239.00,0.0087
1238.00,0.0087
1237.00,0.0087
1236.00,0.0088
1235.00,0.0088
1234.00,0.0089
1233.00,0.0089
1232.00,0.0091
1231.00,0.0092
1230.00,0.0093
1229.00,0.0093
1228.00,0.0094
1227.00,0.0096
1226.00,0.0098
1225.00,0.0101
1224.00,0.0103
1223.00,0.0106
1222.00,0.0109
1221.00,0.0112
1220.00,0.0113
1219.00,0.0114
1218.00,0.0113
1217.00,0.0112
1216.00,0.0109
1215.00,0.0106
1214.00,0.0103
1213.00,0.0100
1212.00,0.0098
1211.00,0.0096
1210.00,0.0094
1209.00,0.0093
1208.00,0.0093
1207.00,0.0093
1206.00,0.0093
1205.00,0.0092
1204.00,0.0092
1203.00,0.0092
1202.00,0.0091
1201.00,0.0091
1200.00,0.0092
1199.00,0.0092
1198.00,0.0093
1197.00,0.0094
1196.00,0.0094
1195.00,0.0095
1194.00,0.0095
1193.00,0.0096
1192.00,0.0097
1191.00,0.0096
1190.00,0.0096
1189.00,0.0095
1188.00,0.0096
1187.00,0.0096
1186.00,0.0097
1185.00,0.0098
1184.00,0.0098
1183.00,0.0100
1182.00,0.0101
1181.00,0.0104
1180.00,0.0108
1179.00,0.0113
1178.00,0.0120
1177.00,0.0129
1176.00,0.0140
1175.00,0.0156
1174.00,0.0177
1173.00,0.0204
1172.00,0.0237
1171.00,0.0272
1170.00,0.0306
1169.00,0.0333
1168.00,0.0348
1167.00,0.0351
1166.00,0.0342
1165.00,0.0325
1164.00,0.0304
1163.00,0.0284
1162.00,0.0267
1161.00,0.0253
1160.00,0.0242
1159.00,0.0234
1158.00,0.0228
1157.00,0.0223
1156.00,0.0220
1155.00,0.0217
1154.00,0.0214
1153.00,0.0211
1152.00,0.0206
1151.00,0.0199
1150.00,0.0190
1149.00,0.0180
1148.00,0.0170
1147.00,0.0161
1146.00,0.0152
1145.00,0.0144
1144.00,0.0136
1143.00,0.0129
1142.00,0.0123
1141.00,0.0118
1140.00,0.0113
1139.00,0.0108
1138.00,0.0104
1137.00,0.0101
1136.00,0.0097
1135.00,0.0094
1134.00,0.0092
1133.00,0.0091
1132.00,0.0090
1131.00,0.0089
1130.00,0.0089
1129.00,0.0089
1128.00,0.0090
1127.00,0.0091
1126.00,0.0092
1125.00,0.0093
1124.00,0.0093
1123.00,0.0093
1122.00,0.0092
1121.00,0.0091
1120.00,0.0092
1119.00,0.0093
1118.00,0.0094
1117.00,0.0095
1116.00,0.0096
1115.00,0.0096
1114.00,0.0098
1113.00,0.0100
1112.00,0.0102
1111.00,0.0104
1110.00,0.0107
1109.00,0.0111
1108.00,0.0116
1107.00,0.0121
1106.00,0.0126
1105.00,0.0131
1104.00,0.0135
1103.00,0.0138
1102.00,0.0137
1101.00,0.0134
1100.00,0.0129
1099.00,0.0124
1098.00,0.0118
1097.00,0.0114
1096.00,0.0109
1095.00,0.0106
1094.00,0.0104
1093.00,0.0102
1092.00,0.0100
1091.00,0.0099
1090.00,0.0098
1089.00,0.0096
1088.00,0.0095
1087.00,0.0094
1086.00,0.0093
1085.00,0.0092
1084.00,0.0092
1083.00,0.0092
1082.00,0.0092
1081.00,0.0092
1080.00,0.0091
1079.00,0.0090
1078.00,0.0089
1077.00,0.0088
1076.00,0.0088
1075.00,0.0088
1074.00,0.0088
1073.00,0.0088
1072.00,0.0088
1071.00,0.0088
1070.00,0.0088
1069.00,0.0088
1068.00,0.0088
1067.00,0.0088
1066.00,0.0088
1065.00,0.0089
1064.00,0.0089
1063.00,0.0090
1062.00,0.0090
1061.00,0.0091
1060.00,0.0092
1059.00,0.0094
1058.00,0.0096
1057.00,0.0098
1056.00,0.0100
1055.00,0.0102
1054.00,0.0105
1053.00,0.0107
1052.00,0.0110
1051.00,0.0113
1050.00,0.0118
1049.00,0.0122
1048.00,0.0128
1047.00,0.0133
1046.00,0.0137
1045.00,0.0140
1044.00,0.0141
1043.00,0.0140
1042.00,0.0138
1041.00,0.0136
1040.00,0.0134
1039.00,0.0132
1038.00,0.0132
1037.00,0.0131
1036.00,0.0131
1035.00,0.0130
1034.00,0.0129
1033.00,0.0128
1032.00,0.0126
1031.00,0.0124
1030.00,0.0123
1029.00,0.0124
1028.00,0.0124
1027.00,0.0125
1026.00,0.0126
1025.00,0.0128
1024.00,0.0130
1023.00,0.0133
1022.00,0.0136
1021.00,0.0140
1020.00,0.0143
1019.00,0.0145
1018.00,0.0146
1017.00,0.0146
1016.00,0.0146
1015.00,0.0146
1014.00,0.0147
1013.00,0.0148
1012.00,0.0149
1011.00,0.0150
1010.00,0.0150
1009.00,0.0151
1008.00,0.0153
1007.00,0.0157
1006.00,0.0163
1005.00,0.0173
1004.00,0.0190
1003.00,0.0214
1002.00,0.0247
1001.00,0.0288
1000.00,0.0331
999.00,0.0368
998.00,0.0387
997.00,0.0381
996.00,0.0352
995.00,0.0309
994.00,0.0264
993.00,0.0224
992.00,0.0192
991.00,0.0169
990.00,0.0153
989.00,0.0143
988.00,0.0136
987.00,0.0131
986.00,0.0130
985.00,0.0130
984.00,0.0134
983.00,0.0142
982.00,0.0154
981.00,0.0170
980.00,0.0192
979.00,0.0222
978.00,0.0259
977.00,0.0303
976.00,0.0353
975.00,0.0401
974.00,0.0438
973.00,0.0453
972.00,0.0439
971.00,0.0399
970.00,0.0343
969.00,0.0285
968.00,0.0236
967.00,0.0199
966.00,0.0172
965.00,0.0152
964.00,0.0139
963.00,0.0129
962.00,0.0121
961.00,0.0115
960.00,0.0109
959.00,0.0105
958.00,0.0102
957.00,0.0099
956.00,0.0097
955.00,0.0095
954.00,0.0092
953.00,0.0090
952.00,0.0089
951.00,0.0087
950.00,0.0086
949.00,0.0086
948.00,0.0086
947.00,0.0086
946.00,0.0087
945.00,0.0089
944.00,0.0091
943.00,0.0095
942.00,0.0098
941.00,0.0101
940.00,0.0101
939.00,0.0099
938.00,0.0094
937.00,0.0089
936.00,0.0083
935.00,0.0079
934.00,0.0075
933.00,0.0072
932.00,0.0069
931.00,0.0068
930.00,0.0067
929.00,0.0067
928.00,0.0067
927.00,0.0067
926.00,0.0066
925.00,0.0065
924.00,0.0065
923.00,0.0066
922.00,0.0066
921.00,0.0067
920.00,0.0066
919.00,0.0065
918.00,0.0065
917.00,0.0065
916.00,0.0065
915.00,0.0066
914.00,0.0068
913.00,0.0069
912.00,0.0070
911.00,0.0071
910.00,0.0072
909.00,0.0073
908.00,0.0076
907.00,0.0081
906.00,0.0088
905.00,0.0098
904.00,0.0111
903.00,0.0128
902.00,0.0145
901.00,0.0161
900.00,0.0171
899.00,0.0172
898.00,0.0164
897.00,0.0150
896.00,0.0133
895.00,0.0116
894.00,0.0102
893.00,0.0092
892.00,0.0086
891.00,0.0082
890.00,0.0080
889.00,0.0079
888.00,0.0078
887.00,0.0077
886.00,0.0076
885.00,0.0075
884.00,0.0074
883.00,0.0073
882.00,0.0072
881.00,0.0071
880.00,0.0069
879.00,0.0070
878.00,0.0072
877.00,0.0076
876.00,0.0078
875.00,0.0080
874.00,0.0081
873.00,0.0081
872.00,0.0081
871.00,0.0079
870.00,0.0078
869.00,0.0078
868.00,0.0079
867.00,0.0080
866.00,0.0080
865.00,0.0081
864.00,0.0081
863.00,0.0082
862.00,0.0083
861.00,0.0085
860.00,0.0086
859.00,0.0087
858.00,0.0089
857.00,0.0090
856.00,0.0091
855.00,0.0093
854.00,0.0096
853.00,0.0099
852.00,0.0104
851.00,0.0109
850.00,0.0113
849.00,0.0119
848.00,0.0126
847.00,0.0139
846.00,0.0161
845.00,0.0196
844.00,0.0246
843.00,0.0306
842.00,0.0356
841.00,0.0374
840.00,0.0352
839.00,0.0300
838.00,0.0241
837.00,0.0194
836.00,0.0162
835.00,0.0143
834.00,0.0131
833.00,0.0122
832.00,0.0116
831.00,0.0113
830.00,0.0111
829.00,0.0109
828.00,0.0106
827.00,0.0105
826.00,0.0103
825.00,0.0101
824.00,0.0100
823.00,0.0099
822.00,0.0099
821.00,0.0100
820.00,0.0103
819.00,0.0106
818.00,0.0112
817.00,0.0119
816.00,0.0127
815.00,0.0137
814.00,0.0150
813.00,0.0166
812.00,0.0184
811.00,0.0202
810.00,0.0215
809.00,0.0221
808.00,0.0217
807.00,0.0206
806.00,0.0188
805.00,0.0170
804.00,0.0153
803.00,0.0141
802.00,0.0132
801.00,0.0124
800.00,0.0118
799.00,0.0114
798.00,0.0110
797.00,0.0107
796.00,0.0103
795.00,0.0100
794.00,0.0098
793.00,0.0095
792.00,0.0091
791.00,0.0088
790.00,0.0085
789.00,0.0082
788.00,0.0080
787.00,0.0078
786.00,0.0075
785.00,0.0073
784.00,0.0071
783.00,0.0070
782.00,0.0069
781.00,0.0069
780.00,0.0069
779.00,0.0069
778.00,0.0068
777.00,0.0068
776.00,0.0068
775.00,0.0069
774.00,0.0070
773.00,0.0071
772.00,0.0070
771.00,0.0069
770.00,0.0067
769.00,0.0065
768.00,0.0064
767.00,0.0064
766.00,0.0065
765.00,0.0067
764.00,0.0068
763.00,0.0068
762.00,0.0068
761.00,0.0068
760.00,0.0069
759.00,0.0070
758.00,0.0071
757.00,0.0073
756.00,0.0074
755.00,0.0074
754.00,0.0075
753.00,0.0076
752.00,0.0078
751.00,0.0079
750.00,0.0079
749.00,0.0080
748.00,0.0082
747.00,0.0085
746.00,0.0087
745.00,0.0089
744.00,0.0091
743.00,0.0092
742.00,0.0094
741.00,0.0098
740.00,0.0101
739.00,0.0105
738.00,0.0109
737.00,0.0112
736.00,0.0116
735.00,0.0119
734.00,0.0124
733.00,0.0129
732.00,0.0135
731.00,0.0143
730.00,0.0149
729.00,0.0153
728.00,0.0155
727.00,0.0156
726.00,0.0158
725.00,0.0162
724.00,0.0168
723.00,0.0174
722.00,0.0181
721.00,0.0185
720.00,0.0183
719.00,0.0174
718.00,0.0161
717.00,0.0148
716.00,0.0136
715.00,0.0128
714.00,0.0123
713.00,0.0118
712.00,0.0114
711.00,0.0110
710.00,0.0107
709.00,0.0104
708.00,0.0103
707.00,0.0103
706.00,0.0104
705.00,0.0106
704.00,0.0105
703.00,0.0103
702.00,0.0100
701.00,0.0097
700.00,0.0095
699.00,0.0095
698.00,0.0095
697.00,0.0096
696.00,0.0096
695.00,0.0097
694.00,0.0097
693.00,0.0098
692.00,0.0098
691.00,0.0099
690.00,0.0101
689.00,0.0102
688.00,0.0101
687.00,0.0099
686.00,0.0096
685.00,0.0095
684.00,0.0095
683.00,0.0096
682.00,0.0097
681.00,0.0098
680.00,0.0099
679.00,0.0100
678.00,0.0101
677.00,0.0100
676.00,0.0101
675.00,0.0102
674.00,0.0103
673.00,0.0105
672.00,0.0106
671.00,0.0108
670.00,0.0108
669.00,0.0106
668.00,0.0102
667.00,0.0100
666.00,0.0098
665.00,0.0097
664.00,0.0096
663.00,0.0095
662.00,0.0093
661.00,0.0092
660.00,0.0090
659.00,0.0090
658.00,0.0090
657.00,0.0090
656.00,0.0089
655.00,0.0088
654.00,0.0087
653.00,0.0087
652.00,0.0086
651.00,0.0084
650.00,0.0083
649.00,0.0082
648.00,0.0082
647.00,0.0083
646.00,0.0084
645.00,0.0086
644.00,0.0086
643.00,0.0085
642.00,0.0083
641.00,0.0082
640.00,0.0082
639.00,0.0083
638.00,0.0085
637.00,0.0086
636.00,0.0087
635.00,0.0088
634.00,0.0089
633.00,0.0090
632.00,0.0090
631.00,0.0090
630.00,0.0088
629.00,0.0087
628.00,0.0088
627.00,0.0089
626.00,0.0091
625.00,0.0092
624.00,0.0091
623.00,0.0091
622.00,0.0092
621.00,0.0093
620.00,0.0093
619.00,0.0092
618.00,0.0090
617.00,0.0088
616.00,0.0088
615.00,0.0088
614.00,0.0088
613.00,0.0086
612.00,0.0085
611.00,0.0086
610.00,0.0087
609.00,0.0086
608.00,0.0085
607.00,0.0083
606.00,0.0084
605.00,0.0085
604.00,0.0087
603.00,0.0089
602.00,0.0090
601.00,0.0089
600.00,0.0087
599.00,0.0085
598.00,0.0085
597.00,0.0086
596.00,0.0088
595.00,0.0089
594.00,0.0090
593.00,0.0090
592.00,0.0088
591.00,0.0088
590.00,0.0090
589.00,0.0091
588.00,0.0091
587.00,0.0089
586.00,0.0087
585.00,0.0088
584.00,0.0090
583.00,0.0091
582.00,0.0090
581.00,0.0088
580.00,0.0087
579.00,0.0086
578.00,0.0086
577.00,0.0087
576.00,0.0087
575.00,0.0087
574.00,0.0085
573.00,0.0083
572.00,0.0082
571.00,0.0082
570.00,0.0083
569.00,0.0084
568.00,0.0086
567.00,0.0087
566.00,0.0088
565.00,0.0089
564.00,0.0088
563.00,0.0088
562.00,0.0091
561.00,0.0095
560.00,0.0098
559.00,0.0096
558.00,0.0092
557.00,0.0087
556.00,0.0085
555.00,0.0084
554.00,0.0085
553.00,0.0088
552.00,0.0091
551.00,0.0094
550.00,0.0095
549.00,0.0093
548.00,0.0091
547.00,0.0089
546.00,0.0088
545.00,0.0087
544.00,0.0085
543.00,0.0085
542.00,0.0089
541.00,0.0094
540.00,0.0100
539.00,0.0104
538.00,0.0107
537.00,0.0109
536.00,0.0114
535.00,0.0119
534.00,0.0123
533.00,0.0125
532.00,0.0124
531.00,0.0123
530.00,0.0120
529.00,0.0116
528.00,0.0111
527.00,0.0106
526.00,0.0102
525.00,0.0097
524.00,0.0093
523.00,0.0090
522.00,0.0090
521.00,0.0092
520.00,0.0092
519.00,0.0089
518.00,0.0088
517.00,0.0090
516.00,0.0095
515.00,0.0099
514.00,0.0097
513.00,0.0091
512.00,0.0087
511.00,0.0087
510.00,0.0092
509.00,0.0097
508.00,0.0100
507.00,0.0099
506.00,0.0096
505.00,0.0094
504.00,0.0093
503.00,0.0096
502.00,0.0101
501.00,0.0105
500.00,0.0105
499.00,0.0101
498.00,0.0096
497.00,0.0094
496.00,0.0093
495.00,0.0093
494.00,0.0089
493.00,0.0085
492.00,0.0086
491.00,0.0094
490.00,0.0105
489.00,0.0112
488.00,0.0114
487.00,0.0114
486.00,0.0115
485.00,0.0116
484.00,0.0116
483.00,0.0114
482.00,0.0112
481.00,0.0112
480.00,0.0116
479.00,0.0122
478.00,0.0128
477.00,0.0127
476.00,0.0122
475.00,0.0119
474.00,0.0123
473.00,0.0133
472.00,0.0141
471.00,0.0143
470.00,0.0144
469.00,0.0149
468.00,0.0159
467.00,0.0168
466.00,0.0177
465.00,0.0187
464.00,0.0201
463.00,0.0216
462.00,0.0224
461.00,0.0226
460.00,0.0224
459.00,0.0226
458.00,0.0235
457.00,0.0245
456.00,0.0248
455.00,0.0240
454.00,0.0225
453.00,0.0207
452.00,0.0186
451.00,0.0165
450.00,0.0144
