Created as New Dataset,Sample 128 By Administrator Date Wednesday, September 03 2025
cm-1,A
4000.00,0.0012
3999.00,0.0012
3998.00,0.0012
3997.00,0.0012
3996.00,0.0012
3995.00,0.0012
3994.00,0.0013
3993.00,0.0013
3992.00,0.0013
3991.00,0.0012
3990.00,0.0012
3989.00,0.0012
3988.00,0.0012
3987.00,0.0012
3986.00,0.0012
3985.00,0.0012
3984.00,0.0012
3983.00,0.0011
3982.00,0.0011
3981.00,0.0011
3980.00,0.0011
3979.00,0.0011
3978.00,0.0010
3977.00,0.0010
3976.00,0.0010
3975.00,0.0010
3974.00,0.0010
3973.00,0.0010
3972.00,0.0010
3971.00,0.0010
3970.00,0.0011
3969.00,0.0011
3968.00,0.0011
3967.00,0.0011
3966.00,0.0011
3965.00,0.0011
3964.00,0.0010
3963.00,0.0010
3962.00,0.0010
3961.00,0.0010
3960.00,0.0010
3959.00,0.0010
3958.00,0.0010
3957.00,0.0010
3956.00,0.0010
3955.00,0.0010
3954.00,0.0010
3953.00,0.0010
3952.00,0.0010
3951.00,0.0010
3950.00,0.0010
3949.00,0.0010
3948.00,0.0010
3947.00,0.0010
3946.00,0.0010
3945.00,0.0010
3944.00,0.0010
3943.00,0.0010
3942.00,0.0010
3941.00,0.0010
3940.00,0.0010
3939.00,0.0010
3938.00,0.0010
3937.00,0.0010
3936.00,0.0010
3935.00,0.0010
3934.00,0.0010
3933.00,0.0010
3932.00,0.0010
3931.00,0.0011
3930.00,0.0011
3929.00,0.0011
3928.00,0.0011
3927.00,0.0012
3926.00,0.0012
3925.00,0.0011
3924.00,0.0011
3923.00,0.0011
3922.00,0.0011
3921.00,0.0011
3920.00,0.0011
3919.00,0.0011
3918.00,0.0011
3917.00,0.0011
3916.00,0.0010
3915.00,0.0010
3914.00,0.0010
3913.00,0.0009
3912.00,0.0009
3911.00,0.0009
3910.00,0.0009
3909.00,0.0009
3908.00,0.0009
3907.00,0.0009
3906.00,0.0009
3905.00,0.0009
3904.00,0.0009
3903.00,0.0008
3902.00,0.0008
3901.00,0.0008
3900.00,0.0008
3899.00,0.0008
3898.00,0.0009
3897.00,0.0009
3896.00,0.0009
3895.00,0.0009
3894.00,0.0010
3893.00,0.0010
3892.00,0.0010
3891.00,0.0010
3890.00,0.0010
3889.00,0.0009
3888.00,0.0009
3887.00,0.0009
3886.00,0.0009
3885.00,0.0009
3884.00,0.0009
3883.00,0.0009
3882.00,0.0008
3881.00,0.0008
3880.00,0.0008
3879.00,0.0009
3878.00,0.0009
3877.00,0.0009
3876.00,0.0009
3875.00,0.0009
3874.00,0.0009
3873.00,0.0009
3872.00,0.0009
3871.00,0.0009
3870.00,0.0008
3869.00,0.0008
3868.00,0.0007
3867.00,0.0007
3866.00,0.0006
3865.00,0.0006
3864.00,0.0007
3863.00,0.0007
3862.00,0.0008
3861.00,0.0009
3860.00,0.0009
3859.00,0.0010
3858.00,0.0010
3857.00,0.0011
3856.00,0.0011
3855.00,0.0010
3854.00,0.0009
3853.00,0.0008
3852.00,0.0007
3851.00,0.0007
3850.00,0.0007
3849.00,0.0007
3848.00,0.0007
3847.00,0.0008
3846.00,0.0008
3845.00,0.0007
3844.00,0.0007
3843.00,0.0007
3842.00,0.0007
3841.00,0.0007
3840.00,0.0008
3839.00,0.0008
3838.00,0.0008
3837.00,0.0008
3836.00,0.0008
3835.00,0.0008
3834.00,0.0008
3833.00,0.0008
3832.00,0.0008
3831.00,0.0008
3830.00,0.0008
3829.00,0.0009
3828.00,0.0009
3827.00,0.0009
3826.00,0.0009
3825.00,0.0009
3824.00,0.0008
3823.00,0.0008
3822.00,0.0007
3821.00,0.0007
3820.00,0.0007
3819.00,0.0008
3818.00,0.0008
3817.00,0.0009
3816.00,0.0009
3815.00,0.0009
3814.00,0.0009
3813.00,0.0009
3812.00,0.0009
3811.00,0.0009
3810.00,0.0009
3809.00,0.0009
3808.00,0.0009
3807.00,0.0009
3806.00,0.0009
3805.00,0.0008
3804.00,0.0008
3803.00,0.0008
3802.00,0.0008
3801.00,0.0008
3800.00,0.0008
3799.00,0.0008
3798.00,0.0009
3797.00,0.0009
3796.00,0.0009
3795.00,0.0009
3794.00,0.0009
3793.00,0.0009
3792.00,0.0009
3791.00,0.0009
3790.00,0.0009
3789.00,0.0009
3788.00,0.0009
3787.00,0.0009
3786.00,0.0009
3785.00,0.0009
3784.00,0.0008
3783.00,0.0008
3782.00,0.0008
3781.00,0.0008
3780.00,0.0008
3779.00,0.0009
3778.00,0.0009
3777.00,0.0009
3776.00,0.0008
3775.00,0.0008
3774.00,0.0008
3773.00,0.0008
3772.00,0.0008
3771.00,0.0008
3770.00,0.0008
3769.00,0.0008
3768.00,0.0008
3767.00,0.0009
3766.00,0.0009
3765.00,0.0010
3764.00,0.0010
3763.00,0.0010
3762.00,0.0009
3761.00,0.0009
3760.00,0.0008
3759.00,0.0008
3758.00,0.0008
3757.00,0.0008
3756.00,0.0008
3755.00,0.0008
3754.00,0.0008
3753.00,0.0007
3752.00,0.0007
3751.00,0.0007
3750.00,0.0007
3749.00,0.0007
3748.00,0.0007
3747.00,0.0007
3746.00,0.0007
3745.00,0.0007
3744.00,0.0007
3743.00,0.0006
3742.00,0.0006
3741.00,0.0006
3740.00,0.0005
3739.00,0.0005
3738.00,0.0004
3737.00,0.0004
3736.00,0.0004
3735.00,0.0005
3734.00,0.0005
3733.00,0.0006
3732.00,0.0006
3731.00,0.0006
3730.00,0.0006
3729.00,0.0006
3728.00,0.0006
3727.00,0.0006
3726.00,0.0006
3725.00,0.0006
3724.00,0.0007
3723.00,0.0007
3722.00,0.0008
3721.00,0.0007
3720.00,0.0007
3719.00,0.0007
3718.00,0.0007
3717.00,0.0007
3716.00,0.0007
3715.00,0.0007
3714.00,0.0007
3713.00,0.0007
3712.00,0.0007
3711.00,0.0007
3710.00,0.0007
3709.00,0.0007
3708.00,0.0007
3707.00,0.0007
3706.00,0.0007
3705.00,0.0007
3704.00,0.0007
3703.00,0.0008
3702.00,0.0008
3701.00,0.0009
3700.00,0.0009
3699.00,0.0009
3698.00,0.0008
3697.00,0.0008
3696.00,0.0008
3695.00,0.0007
3694.00,0.0007
3693.00,0.0006
3692.00,0.0006
3691.00,0.0006
3690.00,0.0006
3689.00,0.0006
3688.00,0.0006
3687.00,0.0007
3686.00,0.0007
3685.00,0.0008
3684.00,0.0009
3683.00,0.0009
3682.00,0.0009
3681.00,0.0009
3680.00,0.0009
3679.00,0.0009
3678.00,0.0009
3677.00,0.0009
3676.00,0.0008
3675.00,0.0008
3674.00,0.0007
3673.00,0.0006
3672.00,0.0006
3671.00,0.0006
3670.00,0.0006
3669.00,0.0007
3668.00,0.0007
3667.00,0.0008
3666.00,0.0009
3665.00,0.0009
3664.00,0.0009
3663.00,0.0008
3662.00,0.0008
3661.00,0.0007
3660.00,0.0007
3659.00,0.0007
3658.00,0.0007
3657.00,0.0007
3656.00,0.0007
3655.00,0.0007
3654.00,0.0007
3653.00,0.0006
3652.00,0.0005
3651.00,0.0005
3650.00,0.0006
3649.00,0.0007
3648.00,0.0008
3647.00,0.0008
3646.00,0.0008
3645.00,0.0009
3644.00,0.0009
3643.00,0.0009
3642.00,0.0009
3641.00,0.0009
3640.00,0.0009
3639.00,0.0009
3638.00,0.0009
3637.00,0.0010
3636.00,0.0010
3635.00,0.0009
3634.00,0.0009
3633.00,0.0008
3632.00,0.0008
3631.00,0.0008
3630.00,0.0008
3629.00,0.0008
3628.00,0.0008
3627.00,0.0007
3626.00,0.0007
3625.00,0.0008
3624.00,0.0008
3623.00,0.0008
3622.00,0.0008
3621.00,0.0008
3620.00,0.0008
3619.00,0.0008
3618.00,0.0008
3617.00,0.0008
3616.00,0.0008
3615.00,0.0008
3614.00,0.0009
3613.00,0.0009
3612.00,0.0010
3611.00,0.0010
3610.00,0.0010
3609.00,0.0010
3608.00,0.0010
3607.00,0.0010
3606.00,0.0009
3605.00,0.0009
3604.00,0.0009
3603.00,0.0009
3602.00,0.0010
3601.00,0.0010
3600.00,0.0010
3599.00,0.0010
3598.00,0.0010
3597.00,0.0011
3596.00,0.0011
3595.00,0.0011
3594.00,0.0011
3593.00,0.0012
3592.00,0.0012
3591.00,0.0012
3590.00,0.0012
3589.00,0.0011
3588.00,0.0011
3587.00,0.0011
3586.00,0.0011
3585.00,0.0011
3584.00,0.0011
3583.00,0.0012
3582.00,0.0012
3581.00,0.0013
3580.00,0.0013
3579.00,0.0014
3578.00,0.0014
3577.00,0.0014
3576.00,0.0015
3575.00,0.0015
3574.00,0.0015
3573.00,0.0015
3572.00,0.0015
3571.00,0.0015
3570.00,0.0015
3569.00,0.0015
3568.00,0.0016
3567.00,0.0016
3566.00,0.0016
3565.00,0.0016
3564.00,0.0016
3563.00,0.0016
3562.00,0.0016
3561.00,0.0016
3560.00,0.0016
3559.00,0.0016
3558.00,0.0016
3557.00,0.0016
3556.00,0.0016
3555.00,0.0017
3554.00,0.0017
3553.00,0.0017
3552.00,0.0017
3551.00,0.0017
3550.00,0.0017
3549.00,0.0018
3548.00,0.0018
3547.00,0.0019
3546.00,0.0019
3545.00,0.0019
3544.00,0.0020
3543.00,0.0020
3542.00,0.0020
3541.00,0.0021
3540.00,0.0021
3539.00,0.0021
3538.00,0.0022
3537.00,0.0022
3536.00,0.0021
3535.00,0.0021
3534.00,0.0021
3533.00,0.0021
3532.00,0.0021
3531.00,0.0021
3530.00,0.0022
3529.00,0.0022
3528.00,0.0022
3527.00,0.0022
3526.00,0.0022
3525.00,0.0022
3524.00,0.0022
3523.00,0.0023
3522.00,0.0023
3521.00,0.0023
3520.00,0.0023
3519.00,0.0023
3518.00,0.0023
3517.00,0.0023
3516.00,0.0023
3515.00,0.0024
3514.00,0.0024
3513.00,0.0024
3512.00,0.0024
3511.00,0.0024
3510.00,0.0024
3509.00,0.0024
3508.00,0.0024
3507.00,0.0024
3506.00,0.0024
3505.00,0.0024
3504.00,0.0025
3503.00,0.0025
3502.00,0.0025
3501.00,0.0025
3500.00,0.0026
3499.00,0.0026
3498.00,0.0026
3497.00,0.0026
3496.00,0.0026
3495.00,0.0026
3494.00,0.0027
3493.00,0.0027
3492.00,0.0027
3491.00,0.0027
3490.00,0.0028
3489.00,0.0028
3488.00,0.0028
3487.00,0.0028
3486.00,0.0028
3485.00,0.0028
3484.00,0.0028
3483.00,0.0029
3482.00,0.0029
3481.00,0.0029
3480.00,0.0029
3479.00,0.0029
3478.00,0.0029
3477.00,0.0029
3476.00,0.0029
3475.00,0.0030
3474.00,0.0030
3473.00,0.0030
3472.00,0.0030
3471.00,0.0030
3470.00,0.0031
3469.00,0.0031
3468.00,0.0031
3467.00,0.0031
3466.00,0.0031
3465.00,0.0031
3464.00,0.0031
3463.00,0.0031
3462.00,0.0032
3461.00,0.0032
3460.00,0.0033
3459.00,0.0033
3458.00,0.0033
3457.00,0.0033
3456.00,0.0033
3455.00,0.0034
3454.00,0.0034
3453.00,0.0034
3452.00,0.0034
3451.00,0.0034
3450.00,0.0035
3449.00,0.0035
3448.00,0.0035
3447.00,0.0035
3446.00,0.0035
3445.00,0.0035
3444.00,0.0036
3443.00,0.0036
3442.00,0.0036
3441.00,0.0036
3440.00,0.0037
3439.00,0.0037
3438.00,0.0037
3437.00,0.0037
3436.00,0.0037
3435.00,0.0037
3434.00,0.0037
3433.00,0.0037
3432.00,0.0037
3431.00,0.0037
3430.00,0.0037
3429.00,0.0037
3428.00,0.0038
3427.00,0.0038
3426.00,0.0038
3425.00,0.0039
3424.00,0.0039
3423.00,0.0040
3422.00,0.0040
3421.00,0.0040
3420.00,0.0040
3419.00,0.0040
3418.00,0.0040
3417.00,0.0040
3416.00,0.0040
3415.00,0.0040
3414.00,0.0040
3413.00,0.0040
3412.00,0.0040
3411.00,0.0040
3410.00,0.0041
3409.00,0.0041
3408.00,0.0041
3407.00,0.0042
3406.00,0.0042
3405.00,0.0042
3404.00,0.0043
3403.00,0.0043
3402.00,0.0043
3401.00,0.0042
3400.00,0.0042
3399.00,0.0042
3398.00,0.0042
3397.00,0.0042
3396.00,0.0042
3395.00,0.0042
3394.00,0.0042
3393.00,0.0042
3392.00,0.0043
3391.00,0.0043
3390.00,0.0043
3389.00,0.0043
3388.00,0.0043
3387.00,0.0043
3386.00,0.0043
3385.00,0.0043
3384.00,0.0043
3383.00,0.0043
3382.00,0.0043
3381.00,0.0043
3380.00,0.0043
3379.00,0.0043
3378.00,0.0043
3377.00,0.0043
3376.00,0.0043
3375.00,0.0044
3374.00,0.0044
3373.00,0.0045
3372.00,0.0045
3371.00,0.0045
3370.00,0.0045
3369.00,0.0044
3368.00,0.0044
3367.00,0.0044
3366.00,0.0044
3365.00,0.0044
3364.00,0.0044
3363.00,0.0044
3362.00,0.0044
3361.00,0.0044
3360.00,0.0044
3359.00,0.0045
3358.00,0.0045
3357.00,0.0046
3356.00,0.0046
3355.00,0.0046
3354.00,0.0047
3353.00,0.0047
3352.00,0.0047
3351.00,0.0047
3350.00,0.0047
3349.00,0.0047
3348.00,0.0047
3347.00,0.0047
3346.00,0.0047
3345.00,0.0047
3344.00,0.0047
3343.00,0.0047
3342.00,0.0047
3341.00,0.0046
3340.00,0.0046
3339.00,0.0046
3338.00,0.0047
3337.00,0.0047
3336.00,0.0047
3335.00,0.0047
3334.00,0.0047
3333.00,0.0047
3332.00,0.0047
3331.00,0.0047
3330.00,0.0047
3329.00,0.0047
3328.00,0.0047
3327.00,0.0046
3326.00,0.0046
3325.00,0.0046
3324.00,0.0046
3323.00,0.0046
3322.00,0.0046
3321.00,0.0046
3320.00,0.0047
3319.00,0.0047
3318.00,0.0047
3317.00,0.0047
3316.00,0.0047
3315.00,0.0047
3314.00,0.0047
3313.00,0.0047
3312.00,0.0047
3311.00,0.0047
3310.00,0.0047
3309.00,0.0047
3308.00,0.0047
3307.00,0.0048
3306.00,0.0048
3305.00,0.0048
3304.00,0.0048
3303.00,0.0048
3302.00,0.0048
3301.00,0.0048
3300.00,0.0048
3299.00,0.0047
3298.00,0.0047
3297.00,0.0047
3296.00,0.0047
3295.00,0.0047
3294.00,0.0047
3293.00,0.0047
3292.00,0.0047
3291.00,0.0047
3290.00,0.0046
3289.00,0.0046
3288.00,0.0045
3287.00,0.0045
3286.00,0.0045
3285.00,0.0045
3284.00,0.0044
3283.00,0.0044
3282.00,0.0044
3281.00,0.0044
3280.00,0.0044
3279.00,0.0044
3278.00,0.0044
3277.00,0.0044
3276.00,0.0043
3275.00,0.0043
3274.00,0.0044
3273.00,0.0044
3272.00,0.0043
3271.00,0.0043
3270.00,0.0043
3269.00,0.0043
3268.00,0.0043
3267.00,0.0043
3266.00,0.0043
3265.00,0.0043
3264.00,0.0043
3263.00,0.0042
3262.00,0.0042
3261.00,0.0041
3260.00,0.0041
3259.00,0.0041
3258.00,0.0041
3257.00,0.0041
3256.00,0.0041
3255.00,0.0041
3254.00,0.0041
3253.00,0.0041
3252.00,0.0041
3251.00,0.0041
3250.00,0.0041
3249.00,0.0041
3248.00,0.0041
3247.00,0.0040
3246.00,0.0040
3245.00,0.0040
3244.00,0.0040
3243.00,0.0040
3242.00,0.0041
3241.00,0.0041
3240.00,0.0041
3239.00,0.0041
3238.00,0.0041
3237.00,0.0041
3236.00,0.0041
3235.00,0.0041
3234.00,0.0041
3233.00,0.0040
3232.00,0.0040
3231.00,0.0040
3230.00,0.0040
3229.00,0.0040
3228.00,0.0040
3227.00,0.0041
3226.00,0.0041
3225.00,0.0041
3224.00,0.0041
3223.00,0.0042
3222.00,0.0042
3221.00,0.0042
3220.00,0.0043
3219.00,0.0042
3218.00,0.0042
3217.00,0.0042
3216.00,0.0042
3215.00,0.0042
3214.00,0.0042
3213.00,0.0042
3212.00,0.0042
3211.00,0.0043
3210.00,0.0043
3209.00,0.0043
3208.00,0.0043
3207.00,0.0043
3206.00,0.0044
3205.00,0.0044
3204.00,0.0044
3203.00,0.0045
3202.00,0.0045
3201.00,0.0044
3200.00,0.0044
3199.00,0.0044
3198.00,0.0044
3197.00,0.0044
3196.00,0.0044
3195.00,0.0044
3194.00,0.0044
3193.00,0.0044
3192.00,0.0044
3191.00,0.0044
3190.00,0.0044
3189.00,0.0044
3188.00,0.0044
3187.00,0.0043
3186.00,0.0043
3185.00,0.0043
3184.00,0.0043
3183.00,0.0042
3182.00,0.0042
3181.00,0.0042
3180.00,0.0041
3179.00,0.0041
3178.00,0.0041
3177.00,0.0041
3176.00,0.0041
3175.00,0.0041
3174.00,0.0041
3173.00,0.0040
3172.00,0.0040
3171.00,0.0041
3170.00,0.0041
3169.00,0.0041
3168.00,0.0041
3167.00,0.0040
3166.00,0.0040
3165.00,0.0040
3164.00,0.0039
3163.00,0.0039
3162.00,0.0039
3161.00,0.0040
3160.00,0.0040
3159.00,0.0040
3158.00,0.0040
3157.00,0.0040
3156.00,0.0040
3155.00,0.0039
3154.00,0.0039
3153.00,0.0039
3152.00,0.0039
3151.00,0.0039
3150.00,0.0040
3149.00,0.0040
3148.00,0.0039
3147.00,0.0039
3146.00,0.0038
3145.00,0.0038
3144.00,0.0038
3143.00,0.0039
3142.00,0.0039
3141.00,0.0039
3140.00,0.0038
3139.00,0.0038
3138.00,0.0038
3137.00,0.0038
3136.00,0.0038
3135.00,0.0037
3134.00,0.0037
3133.00,0.0037
3132.00,0.0037
3131.00,0.0036
3130.00,0.0036
3129.00,0.0036
3128.00,0.0037
3127.00,0.0037
3126.00,0.0036
3125.00,0.0036
3124.00,0.0035
3123.00,0.0035
3122.00,0.0034
3121.00,0.0034
3120.00,0.0034
3119.00,0.0034
3118.00,0.0033
3117.00,0.0033
3116.00,0.0033
3115.00,0.0033
3114.00,0.0033
3113.00,0.0033
3112.00,0.0033
3111.00,0.0033
3110.00,0.0033
3109.00,0.0033
3108.00,0.0033
3107.00,0.0033
3106.00,0.0033
3105.00,0.0033
3104.00,0.0033
3103.00,0.0032
3102.00,0.0032
3101.00,0.0032
3100.00,0.0032
3099.00,0.0033
3098.00,0.0033
3097.00,0.0033
3096.00,0.0033
3095.00,0.0033
3094.00,0.0033
3093.00,0.0032
3092.00,0.0032
3091.00,0.0032
3090.00,0.0032
3089.00,0.0032
3088.00,0.0032
3087.00,0.0032
3086.00,0.0032
3085.00,0.0033
3084.00,0.0033
3083.00,0.0032
3082.00,0.0032
3081.00,0.0032
3080.00,0.0032
3079.00,0.0032
3078.00,0.0032
3077.00,0.0032
3076.00,0.0033
3075.00,0.0033
3074.00,0.0033
3073.00,0.0033
3072.00,0.0033
3071.00,0.0033
3070.00,0.0033
3069.00,0.0033
3068.00,0.0034
3067.00,0.0034
3066.00,0.0034
3065.00,0.0035
3064.00,0.0035
3063.00,0.0035
3062.00,0.0035
3061.00,0.0035
3060.00,0.0035
3059.00,0.0035
3058.00,0.0035
3057.00,0.0036
3056.00,0.0036
3055.00,0.0036
3054.00,0.0036
3053.00,0.0036
3052.00,0.0037
3051.00,0.0037
3050.00,0.0037
3049.00,0.0037
3048.00,0.0037
3047.00,0.0037
3046.00,0.0037
3045.00,0.0038
3044.00,0.0038
3043.00,0.0038
3042.00,0.0038
3041.00,0.0038
3040.00,0.0039
3039.00,0.0039
3038.00,0.0040
3037.00,0.0040
3036.00,0.0040
3035.00,0.0040
3034.00,0.0041
3033.00,0.0041
3032.00,0.0042
3031.00,0.0043
3030.00,0.0043
3029.00,0.0044
3028.00,0.0044
3027.00,0.0044
3026.00,0.0044
3025.00,0.0045
3024.00,0.0045
3023.00,0.0046
3022.00,0.0047
3021.00,0.0048
3020.00,0.0049
3019.00,0.0049
3018.00,0.0050
3017.00,0.0051
3016.00,0.0052
3015.00,0.0053
3014.00,0.0054
3013.00,0.0055
3012.00,0.0057
3011.00,0.0059
3010.00,0.0060
3009.00,0.0062
3008.00,0.0064
3007.00,0.0066
3006.00,0.0067
3005.00,0.0069
3004.00,0.0072
3003.00,0.0074
3002.00,0.0077
3001.00,0.0079
3000.00,0.0082
2999.00,0.0085
2998.00,0.0089
2997.00,0.0092
2996.00,0.0096
2995.00,0.0100
2994.00,0.0105
2993.00,0.0109
2992.00,0.0114
2991.00,0.0119
2990.00,0.0126
2989.00,0.0133
2988.00,0.0141
2987.00,0.0150
2986.00,0.0161
2985.00,0.0173
2984.00,0.0186
2983.00,0.0200
2982.00,0.0216
2981.00,0.0234
2980.00,0.0254
2979.00,0.0277
2978.00,0.0302
2977.00,0.0332
2976.00,0.0366
2975.00,0.0405
2974.00,0.0450
2973.00,0.0501
2972.00,0.0559
2971.00,0.0625
2970.00,0.0698
2969.00,0.0780
2968.00,0.0869
2967.00,0.0966
2966.00,0.1069
2965.00,0.1177
2964.00,0.1286
2963.00,0.1391
2962.00,0.1485
2961.00,0.1564
2960.00,0.1625
2959.00,0.1668
2958.00,0.1699
2957.00,0.1724
2956.00,0.1749
2955.00,0.1779
2954.00,0.1815
2953.00,0.1852
2952.00,0.1883
2951.00,0.1898
2950.00,0.1887
2949.00,0.1843
2948.00,0.1767
2947.00,0.1665
2946.00,0.1547
2945.00,0.1426
2944.00,0.1313
2943.00,0.1217
2942.00,0.1143
2941.00,0.1092
2940.00,0.1065
2939.00,0.1058
2938.00,0.1070
2937.00,0.1099
2936.00,0.1142
2935.00,0.1200
2934.00,0.1270
2933.00,0.1351
2932.00,0.1442
2931.00,0.1540
2930.00,0.1644
2929.00,0.1750
2928.00,0.1856
2927.00,0.1958
2926.00,0.2055
2925.00,0.2147
2924.00,0.2235
2923.00,0.2320
2922.00,0.2402
2921.00,0.2478
2920.00,0.2543
2919.00,0.2588
2918.00,0.2607
2917.00,0.2593
2916.00,0.2548
2915.00,0.2477
2914.00,0.2391
2913.00,0.2300
2912.00,0.2212
2911.00,0.2132
2910.00,0.2063
2909.00,0.2002
2908.00,0.1946
2907.00,0.1892
2906.00,0.1838
2905.00,0.1780
2904.00,0.1719
2903.00,0.1655
2902.00,0.1590
2901.00,0.1526
2900.00,0.1463
2899.00,0.1402
2898.00,0.1345
2897.00,0.1292
2896.00,0.1244
2895.00,0.1202
2894.00,0.1166
2893.00,0.1135
2892.00,0.1110
2891.00,0.1091
2890.00,0.1076
2889.00,0.1066
2888.00,0.1059
2887.00,0.1055
2886.00,0.1055
2885.00,0.1058
2884.00,0.1065
2883.00,0.1076
2882.00,0.1090
2881.00,0.1107
2880.00,0.1122
2879.00,0.1134
2878.00,0.1140
2877.00,0.1139
2876.00,0.1133
2875.00,0.1126
2874.00,0.1122
2873.00,0.1123
2872.00,0.1131
2871.00,0.1144
2870.00,0.1161
2869.00,0.1177
2868.00,0.1185
2867.00,0.1180
2866.00,0.1157
2865.00,0.1113
2864.00,0.1054
2863.00,0.0987
2862.00,0.0922
2861.00,0.0865
2860.00,0.0823
2859.00,0.0795
2858.00,0.0781
2857.00,0.0778
2856.00,0.0784
2855.00,0.0796
2854.00,0.0813
2853.00,0.0833
2852.00,0.0853
2851.00,0.0871
2850.00,0.0886
2849.00,0.0897
2848.00,0.0908
2847.00,0.0923
2846.00,0.0946
2845.00,0.0979
2844.00,0.1023
2843.00,0.1075
2842.00,0.1129
2841.00,0.1180
2840.00,0.1219
2839.00,0.1238
2838.00,0.1230
2837.00,0.1192
2836.00,0.1124
2835.00,0.1033
2834.00,0.0928
2833.00,0.0821
2832.00,0.0720
2831.00,0.0631
2830.00,0.0555
2829.00,0.0493
2828.00,0.0442
2827.00,0.0401
2826.00,0.0367
2825.00,0.0339
2824.00,0.0315
2823.00,0.0296
2822.00,0.0279
2821.00,0.0264
2820.00,0.0251
2819.00,0.0240
2818.00,0.0230
2817.00,0.0221
2816.00,0.0213
2815.00,0.0207
2814.00,0.0200
2813.00,0.0195
2812.00,0.0189
2811.00,0.0184
2810.00,0.0178
2809.00,0.0173
2808.00,0.0167
2807.00,0.0162
2806.00,0.0156
2805.00,0.0149
2804.00,0.0143
2803.00,0.0137
2802.00,0.0132
2801.00,0.0127
2800.00,0.0124
2799.00,0.0121
2798.00,0.0118
2797.00,0.0116
2796.00,0.0114
2795.00,0.0111
2794.00,0.0109
2793.00,0.0106
2792.00,0.0103
2791.00,0.0100
2790.00,0.0096
2789.00,0.0093
2788.00,0.0089
2787.00,0.0085
2786.00,0.0083
2785.00,0.0080
2784.00,0.0078
2783.00,0.0076
2782.00,0.0074
2781.00,0.0072
2780.00,0.0070
2779.00,0.0069
2778.00,0.0067
2777.00,0.0065
2776.00,0.0064
2775.00,0.0063
2774.00,0.0062
2773.00,0.0061
2772.00,0.0061
2771.00,0.0060
2770.00,0.0060
2769.00,0.0059
2768.00,0.0059
2767.00,0.0059
2766.00,0.0059
2765.00,0.0058
2764.00,0.0058
2763.00,0.0058
2762.00,0.0057
2761.00,0.0056
2760.00,0.0056
2759.00,0.0056
2758.00,0.0056
2757.00,0.0056
2756.00,0.0056
2755.00,0.0055
2754.00,0.0055
2753.00,0.0055
2752.00,0.0055
2751.00,0.0055
2750.00,0.0054
2749.00,0.0054
2748.00,0.0054
2747.00,0.0054
2746.00,0.0055
2745.00,0.0055
2744.00,0.0056
2743.00,0.0057
2742.00,0.0058
2741.00,0.0059
2740.00,0.0060
2739.00,0.0061
2738.00,0.0063
2737.00,0.0064
2736.00,0.0065
2735.00,0.0066
2734.00,0.0067
2733.00,0.0069
2732.00,0.0071
2731.00,0.0073
2730.00,0.0075
2729.00,0.0077
2728.00,0.0079
2727.00,0.0081
2726.00,0.0084
2725.00,0.0086
2724.00,0.0088
2723.00,0.0088
2722.00,0.0087
2721.00,0.0086
2720.00,0.0083
2719.00,0.0080
2718.00,0.0077
2717.00,0.0074
2716.00,0.0071
2715.00,0.0069
2714.00,0.0067
2713.00,0.0065
2712.00,0.0063
2711.00,0.0062
2710.00,0.0060
2709.00,0.0059
2708.00,0.0057
2707.00,0.0056
2706.00,0.0055
2705.00,0.0053
2704.00,0.0052
2703.00,0.0051
2702.00,0.0050
2701.00,0.0050
2700.00,0.0050
2699.00,0.0049
2698.00,0.0049
2697.00,0.0049
2696.00,0.0049
2695.00,0.0049
2694.00,0.0049
2693.00,0.0048
2692.00,0.0048
2691.00,0.0049
2690.00,0.0049
2689.00,0.0049
2688.00,0.0049
2687.00,0.0049
2686.00,0.0049
2685.00,0.0049
2684.00,0.0049
2683.00,0.0049
2682.00,0.0049
2681.00,0.0049
2680.00,0.0049
2679.00,0.0049
2678.00,0.0049
2677.00,0.0049
2676.00,0.0049
2675.00,0.0049
2674.00,0.0049
2673.00,0.0048
2672.00,0.0048
2671.00,0.0048
2670.00,0.0048
2669.00,0.0048
2668.00,0.0048
2667.00,0.0048
2666.00,0.0048
2665.00,0.0048
2664.00,0.0049
2663.00,0.0049
2662.00,0.0049
2661.00,0.0050
2660.00,0.0050
2659.00,0.0050
2658.00,0.0050
2657.00,0.0050
2656.00,0.0050
2655.00,0.0049
2654.00,0.0049
2653.00,0.0048
2652.00,0.0048
2651.00,0.0047
2650.00,0.0047
2649.00,0.0046
2648.00,0.0046
2647.00,0.0045
2646.00,0.0045
2645.00,0.0044
2644.00,0.0044
2643.00,0.0044
2642.00,0.0044
2641.00,0.0043
2640.00,0.0043
2639.00,0.0043
2638.00,0.0042
2637.00,0.0042
2636.00,0.0041
2635.00,0.0041
2634.00,0.0041
2633.00,0.0041
2632.00,0.0041
2631.00,0.0041
2630.00,0.0041
2629.00,0.0042
2628.00,0.0042
2627.00,0.0043
2626.00,0.0043
2625.00,0.0042
2624.00,0.0042
2623.00,0.0041
2622.00,0.0041
2621.00,0.0041
2620.00,0.0041
2619.00,0.0041
2618.00,0.0041
2617.00,0.0041
2616.00,0.0041
2615.00,0.0041
2614.00,0.0041
2613.00,0.0042
2612.00,0.0041
2611.00,0.0041
2610.00,0.0041
2609.00,0.0040
2608.00,0.0039
2607.00,0.0037
2606.00,0.0037
2605.00,0.0036
2604.00,0.0036
2603.00,0.0035
2602.00,0.0035
2601.00,0.0035
2600.00,0.0035
2599.00,0.0035
2598.00,0.0035
2597.00,0.0034
2596.00,0.0034
2595.00,0.0035
2594.00,0.0035
2593.00,0.0035
2592.00,0.0035
2591.00,0.0036
2590.00,0.0037
2589.00,0.0037
2588.00,0.0038
2587.00,0.0039
2586.00,0.0040
2585.00,0.0040
2584.00,0.0041
2583.00,0.0041
2582.00,0.0041
2581.00,0.0041
2580.00,0.0040
2579.00,0.0039
2578.00,0.0038
2577.00,0.0036
2576.00,0.0035
2575.00,0.0034
2574.00,0.0033
2573.00,0.0032
2572.00,0.0032
2571.00,0.0031
2570.00,0.0030
2569.00,0.0029
2568.00,0.0028
2567.00,0.0028
2566.00,0.0027
2565.00,0.0026
2564.00,0.0026
2563.00,0.0026
2562.00,0.0026
2561.00,0.0025
2560.00,0.0025
2559.00,0.0025
2558.00,0.0025
2557.00,0.0026
2556.00,0.0026
2555.00,0.0026
2554.00,0.0026
2553.00,0.0026
2552.00,0.0025
2551.00,0.0024
2550.00,0.0023
2549.00,0.0022
2548.00,0.0021
2547.00,0.0021
2546.00,0.0021
2545.00,0.0022
2544.00,0.0022
2543.00,0.0022
2542.00,0.0021
2541.00,0.0020
2540.00,0.0020
2539.00,0.0019
2538.00,0.0019
2537.00,0.0019
2536.00,0.0019
2535.00,0.0020
2534.00,0.0020
2533.00,0.0020
2532.00,0.0019
2531.00,0.0018
2530.00,0.0018
2529.00,0.0017
2528.00,0.0017
2527.00,0.0017
2526.00,0.0016
2525.00,0.0016
2524.00,0.0016
2523.00,0.0017
2522.00,0.0017
2521.00,0.0017
2520.00,0.0016
2519.00,0.0015
2518.00,0.0015
2517.00,0.0014
2516.00,0.0014
2515.00,0.0014
2514.00,0.0013
2513.00,0.0013
2512.00,0.0013
2511.00,0.0013
2510.00,0.0013
2509.00,0.0013
2508.00,0.0012
2507.00,0.0012
2506.00,0.0012
2505.00,0.0012
2504.00,0.0013
2503.00,0.0013
2502.00,0.0013
2501.00,0.0013
2500.00,0.0013
2499.00,0.0012
2498.00,0.0012
2497.00,0.0012
2496.00,0.0013
2495.00,0.0013
2494.00,0.0014
2493.00,0.0014
2492.00,0.0014
2491.00,0.0013
2490.00,0.0013
2489.00,0.0012
2488.00,0.0012
2487.00,0.0012
2486.00,0.0013
2485.00,0.0013
2484.00,0.0013
2483.00,0.0013
2482.00,0.0013
2481.00,0.0013
2480.00,0.0013
2479.00,0.0012
2478.00,0.0012
2477.00,0.0012
2476.00,0.0013
2475.00,0.0013
2474.00,0.0013
2473.00,0.0013
2472.00,0.0013
2471.00,0.0013
2470.00,0.0013
2469.00,0.0012
2468.00,0.0012
2467.00,0.0012
2466.00,0.0012
2465.00,0.0012
2464.00,0.0012
2463.00,0.0012
2462.00,0.0012
2461.00,0.0012
2460.00,0.0012
2459.00,0.0012
2458.00,0.0012
2457.00,0.0012
2456.00,0.0012
2455.00,0.0012
2454.00,0.0012
2453.00,0.0013
2452.00,0.0013
2451.00,0.0013
2450.00,0.0014
2449.00,0.0014
2448.00,0.0014
2447.00,0.0014
2446.00,0.0014
2445.00,0.0013
2444.00,0.0013
2443.00,0.0012
2442.00,0.0012
2441.00,0.0012
2440.00,0.0012
2439.00,0.0013
2438.00,0.0013
2437.00,0.0014
2436.00,0.0014
2435.00,0.0014
2434.00,0.0014
2433.00,0.0014
2432.00,0.0014
2431.00,0.0014
2430.00,0.0014
2429.00,0.0014
2428.00,0.0013
2427.00,0.0013
2426.00,0.0013
2425.00,0.0013
2424.00,0.0014
2423.00,0.0014
2422.00,0.0014
2421.00,0.0013
2420.00,0.0013
2419.00,0.0013
2418.00,0.0013
2417.00,0.0013
2416.00,0.0013
2415.00,0.0013
2414.00,0.0013
2413.00,0.0013
2412.00,0.0013
2411.00,0.0012
2410.00,0.0011
2409.00,0.0011
2408.00,0.0010
2407.00,0.0010
2406.00,0.0010
2405.00,0.0010
2404.00,0.0011
2403.00,0.0011
2402.00,0.0012
2401.00,0.0012
2400.00,0.0011
2399.00,0.0011
2398.00,0.0010
2397.00,0.0010
2396.00,0.0010
2395.00,0.0010
2394.00,0.0010
2393.00,0.0010
2392.00,0.0010
2391.00,0.0010
2390.00,0.0010
2389.00,0.0010
2388.00,0.0009
2387.00,0.0009
2386.00,0.0009
2385.00,0.0008
2384.00,0.0008
2383.00,0.0007
2382.00,0.0006
2381.00,0.0005
2380.00,0.0005
2379.00,0.0004
2378.00,0.0005
2377.00,0.0005
2376.00,0.0006
2375.00,0.0007
2374.00,0.0007
2373.00,0.0007
2372.00,0.0007
2371.00,0.0007
2370.00,0.0007
2369.00,0.0007
2368.00,0.0007
2367.00,0.0007
2366.00,0.0007
2365.00,0.0007
2364.00,0.0007
2363.00,0.0007
2362.00,0.0007
2361.00,0.0007
2360.00,0.0007
2359.00,0.0007
2358.00,0.0007
2357.00,0.0007
2356.00,0.0007
2355.00,0.0008
2354.00,0.0008
2353.00,0.0007
2352.00,0.0006
2351.00,0.0005
2350.00,0.0006
2349.00,0.0008
2348.00,0.0010
2347.00,0.0010
2346.00,0.0009
2345.00,0.0009
2344.00,0.0008
2343.00,0.0009
2342.00,0.0009
2341.00,0.0009
2340.00,0.0009
2339.00,0.0009
2338.00,0.0009
2337.00,0.0009
2336.00,0.0009
2335.00,0.0009
2334.00,0.0009
2333.00,0.0008
2332.00,0.0007
2331.00,0.0006
2330.00,0.0006
2329.00,0.0007
2328.00,0.0009
2327.00,0.0013
2326.00,0.0016
2325.00,0.0019
2324.00,0.0019
2323.00,0.0018
2322.00,0.0017
2321.00,0.0015
2320.00,0.0014
2319.00,0.0014
2318.00,0.0013
2317.00,0.0013
2316.00,0.0013
2315.00,0.0012
2314.00,0.0012
2313.00,0.0011
2312.00,0.0010
2311.00,0.0010
2310.00,0.0009
2309.00,0.0009
2308.00,0.0008
2307.00,0.0008
2306.00,0.0008
2305.00,0.0009
2304.00,0.0010
2303.00,0.0011
2302.00,0.0011
2301.00,0.0012
2300.00,0.0012
2299.00,0.0013
2298.00,0.0013
2297.00,0.0014
2296.00,0.0014
2295.00,0.0014
2294.00,0.0015
2293.00,0.0016
2292.00,0.0017
2291.00,0.0018
2290.00,0.0018
2289.00,0.0018
2288.00,0.0019
2287.00,0.0019
2286.00,0.0020
2285.00,0.0020
2284.00,0.0020
2283.00,0.0019
2282.00,0.0018
2281.00,0.0018
2280.00,0.0018
2279.00,0.0017
2278.00,0.0015
2277.00,0.0013
2276.00,0.0012
2275.00,0.0012
2274.00,0.0013
2273.00,0.0014
2272.00,0.0014
2271.00,0.0014
2270.00,0.0014
2269.00,0.0014
2268.00,0.0014
2267.00,0.0015
2266.00,0.0015
2265.00,0.0014
2264.00,0.0014
2263.00,0.0013
2262.00,0.0013
2261.00,0.0014
2260.00,0.0014
2259.00,0.0015
2258.00,0.0015
2257.00,0.0016
2256.00,0.0016
2255.00,0.0014
2254.00,0.0013
2253.00,0.0012
2252.00,0.0011
2251.00,0.0011
2250.00,0.0012
2249.00,0.0014
2248.00,0.0015
2247.00,0.0015
2246.00,0.0014
2245.00,0.0014
2244.00,0.0014
2243.00,0.0014
2242.00,0.0014
2241.00,0.0014
2240.00,0.0013
2239.00,0.0011
2238.00,0.0010
2237.00,0.0009
2236.00,0.0008
2235.00,0.0009
2234.00,0.0009
2233.00,0.0010
2232.00,0.0011
2231.00,0.0010
2230.00,0.0009
2229.00,0.0008
2228.00,0.0008
2227.00,0.0009
2226.00,0.0011
2225.00,0.0013
2224.00,0.0014
2223.00,0.0015
2222.00,0.0015
2221.00,0.0014
2220.00,0.0011
2219.00,0.0009
2218.00,0.0008
2217.00,0.0008
2216.00,0.0008
2215.00,0.0007
2214.00,0.0005
2213.00,0.0003
2212.00,0.0003
2211.00,0.0004
2210.00,0.0006
2209.00,0.0008
2208.00,0.0009
2207.00,0.0008
2206.00,0.0008
2205.00,0.0007
2204.00,0.0006
2203.00,0.0006
2202.00,0.0006
2201.00,0.0006
2200.00,0.0006
2199.00,0.0007
2198.00,0.0007
2197.00,0.0008
2196.00,0.0010
2195.00,0.0011
2194.00,0.0012
2193.00,0.0014
2192.00,0.0015
2191.00,0.0014
2190.00,0.0014
2189.00,0.0014
2188.00,0.0016
2187.00,0.0016
2186.00,0.0015
2185.00,0.0012
2184.00,0.0009
2183.00,0.0006
2182.00,0.0003
2181.00,0.0003
2180.00,0.0005
2179.00,0.0007
2178.00,0.0009
2177.00,0.0010
2176.00,0.0009
2175.00,0.0008
2174.00,0.0008
2173.00,0.0009
2172.00,0.0011
2171.00,0.0011
2170.00,0.0012
2169.00,0.0013
2168.00,0.0015
2167.00,0.0016
2166.00,0.0017
2165.00,0.0018
2164.00,0.0018
2163.00,0.0018
2162.00,0.0017
2161.00,0.0013
2160.00,0.0002
2159.00,-0.0012
2158.00,-0.0025
2157.00,-0.0028
2156.00,-0.0024
2155.00,-0.0019
2154.00,-0.0014
2153.00,-0.0012
2152.00,-0.0012
2151.00,-0.0013
2150.00,-0.0013
2149.00,-0.0013
2148.00,-0.0012
2147.00,-0.0010
2146.00,-0.0008
2145.00,-0.0008
2144.00,-0.0009
2143.00,-0.0010
2142.00,-0.0010
2141.00,-0.0009
2140.00,-0.0007
2139.00,-0.0006
2138.00,-0.0005
2137.00,-0.0006
2136.00,-0.0007
2135.00,-0.0008
2134.00,-0.0008
2133.00,-0.0008
2132.00,-0.0008
2131.00,-0.0008
2130.00,-0.0008
2129.00,-0.0007
2128.00,-0.0005
2127.00,-0.0004
2126.00,-0.0003
2125.00,-0.0003
2124.00,-0.0003
2123.00,-0.0002
2122.00,-0.0001
2121.00,0.0000
2120.00,0.0001
2119.00,0.0002
2118.00,0.0003
2117.00,0.0004
2116.00,0.0004
2115.00,0.0005
2114.00,0.0005
2113.00,0.0006
2112.00,0.0006
2111.00,0.0007
2110.00,0.0007
2109.00,0.0007
2108.00,0.0005
2107.00,0.0004
2106.00,0.0003
2105.00,0.0004
2104.00,0.0005
2103.00,0.0005
2102.00,0.0004
2101.00,0.0003
2100.00,0.0003
2099.00,0.0003
2098.00,0.0003
2097.00,0.0002
2096.00,0.0001
2095.00,0.0000
2094.00,-0.0001
2093.00,-0.0001
2092.00,0.0000
2091.00,0.0002
2090.00,0.0004
2089.00,0.0005
2088.00,0.0006
2087.00,0.0006
2086.00,0.0005
2085.00,0.0004
2084.00,0.0005
2083.00,0.0006
2082.00,0.0006
2081.00,0.0006
2080.00,0.0005
2079.00,0.0004
2078.00,0.0004
2077.00,0.0004
2076.00,0.0005
2075.00,0.0005
2074.00,0.0005
2073.00,0.0004
2072.00,0.0003
2071.00,0.0003
2070.00,0.0004
2069.00,0.0004
2068.00,0.0005
2067.00,0.0005
2066.00,0.0003
2065.00,0.0002
2064.00,0.0001
2063.00,0.0002
2062.00,0.0003
2061.00,0.0004
2060.00,0.0005
2059.00,0.0006
2058.00,0.0008
2057.00,0.0008
2056.00,0.0008
2055.00,0.0007
2054.00,0.0007
2053.00,0.0008
2052.00,0.0010
2051.00,0.0011
2050.00,0.0009
2049.00,0.0007
2048.00,0.0004
2047.00,0.0001
2046.00,0.0000
2045.00,0.0001
2044.00,0.0002
2043.00,0.0003
2042.00,0.0002
2041.00,-0.0000
2040.00,-0.0001
2039.00,-0.0001
2038.00,-0.0000
2037.00,0.0001
2036.00,0.0001
2035.00,0.0000
2034.00,-0.0002
2033.00,-0.0005
2032.00,-0.0007
2031.00,-0.0007
2030.00,-0.0007
2029.00,-0.0007
2028.00,-0.0006
2027.00,-0.0006
2026.00,-0.0007
2025.00,-0.0007
2024.00,-0.0007
2023.00,-0.0005
2022.00,-0.0003
2021.00,-0.0002
2020.00,-0.0000
2019.00,-0.0000
2018.00,-0.0001
2017.00,-0.0004
2016.00,-0.0007
2015.00,-0.0010
2014.00,-0.0010
2013.00,-0.0007
2012.00,-0.0003
2011.00,-0.0001
2010.00,-0.0002
2009.00,-0.0004
2008.00,-0.0008
2007.00,-0.0010
2006.00,-0.0012
2005.00,-0.0012
2004.00,-0.0011
2003.00,-0.0011
2002.00,-0.0011
2001.00,-0.0010
2000.00,-0.0008
1999.00,-0.0007
1998.00,-0.0008
1997.00,-0.0010
1996.00,-0.0012
1995.00,-0.0013
1994.00,-0.0012
1993.00,-0.0010
1992.00,-0.0007
1991.00,-0.0004
1990.00,-0.0001
1989.00,0.0001
1988.00,0.0001
1987.00,-0.0000
1986.00,-0.0001
1985.00,0.0001
1984.00,0.0004
1983.00,0.0006
1982.00,0.0006
1981.00,0.0006
1980.00,0.0004
1979.00,0.0001
1978.00,-0.0003
1977.00,-0.0006
1976.00,-0.0007
1975.00,-0.0008
1974.00,-0.0008
1973.00,-0.0009
1972.00,-0.0010
1971.00,-0.0010
1970.00,-0.0010
1969.00,-0.0009
1968.00,-0.0009
1967.00,-0.0008
1966.00,-0.0007
1965.00,-0.0006
1964.00,-0.0006
1963.00,-0.0007
1962.00,-0.0009
1961.00,-0.0011
1960.00,-0.0013
1959.00,-0.0015
1958.00,-0.0015
1957.00,-0.0014
1956.00,-0.0011
1955.00,-0.0009
1954.00,-0.0008
1953.00,-0.0007
1952.00,-0.0008
1951.00,-0.0009
1950.00,-0.0010
1949.00,-0.0011
1948.00,-0.0012
1947.00,-0.0011
1946.00,-0.0012
1945.00,-0.0012
1944.00,-0.0013
1943.00,-0.0013
1942.00,-0.0012
1941.00,-0.0010
1940.00,-0.0008
1939.00,-0.0007
1938.00,-0.0006
1937.00,-0.0005
1936.00,-0.0005
1935.00,-0.0005
1934.00,-0.0004
1933.00,-0.0003
1932.00,-0.0003
1931.00,-0.0003
1930.00,-0.0004
1929.00,-0.0004
1928.00,-0.0005
1927.00,-0.0005
1926.00,-0.0005
1925.00,-0.0004
1924.00,-0.0003
1923.00,-0.0002
1922.00,-0.0000
1921.00,0.0000
1920.00,0.0001
1919.00,0.0001
1918.00,0.0001
1917.00,0.0001
1916.00,0.0002
1915.00,0.0001
1914.00,0.0001
1913.00,0.0001
1912.00,0.0001
1911.00,0.0000
1910.00,0.0001
1909.00,0.0001
1908.00,0.0002
1907.00,0.0002
1906.00,0.0002
1905.00,0.0002
1904.00,0.0001
1903.00,0.0001
1902.00,0.0001
1901.00,0.0002
1900.00,0.0003
1899.00,0.0004
1898.00,0.0005
1897.00,0.0004
1896.00,0.0003
1895.00,0.0001
1894.00,0.0000
1893.00,-0.0000
1892.00,0.0001
1891.00,0.0003
1890.00,0.0004
1889.00,0.0005
1888.00,0.0004
1887.00,0.0003
1886.00,0.0002
1885.00,0.0001
1884.00,0.0001
1883.00,0.0001
1882.00,0.0001
1881.00,0.0001
1880.00,0.0002
1879.00,0.0002
1878.00,0.0002
1877.00,0.0001
1876.00,0.0001
1875.00,0.0001
1874.00,0.0001
1873.00,0.0001
1872.00,0.0001
1871.00,0.0002
1870.00,0.0002
1869.00,0.0003
1868.00,0.0003
1867.00,0.0003
1866.00,0.0003
1865.00,0.0003
1864.00,0.0003
1863.00,0.0003
1862.00,0.0003
1861.00,0.0002
1860.00,0.0002
1859.00,0.0002
1858.00,0.0002
1857.00,0.0003
1856.00,0.0004
1855.00,0.0004
1854.00,0.0004
1853.00,0.0004
1852.00,0.0004
1851.00,0.0003
1850.00,0.0003
1849.00,0.0003
1848.00,0.0003
1847.00,0.0003
1846.00,0.0003
1845.00,0.0004
1844.00,0.0005
1843.00,0.0006
1842.00,0.0007
1841.00,0.0006
1840.00,0.0006
1839.00,0.0005
1838.00,0.0005
1837.00,0.0005
1836.00,0.0006
1835.00,0.0006
1834.00,0.0006
1833.00,0.0006
1832.00,0.0006
1831.00,0.0006
1830.00,0.0006
1829.00,0.0007
1828.00,0.0007
1827.00,0.0007
1826.00,0.0006
1825.00,0.0006
1824.00,0.0007
1823.00,0.0008
1822.00,0.0008
1821.00,0.0008
1820.00,0.0007
1819.00,0.0005
1818.00,0.0004
1817.00,0.0003
1816.00,0.0003
1815.00,0.0003
1814.00,0.0004
1813.00,0.0005
1812.00,0.0005
1811.00,0.0006
1810.00,0.0006
1809.00,0.0007
1808.00,0.0007
1807.00,0.0007
1806.00,0.0008
1805.00,0.0008
1804.00,0.0008
1803.00,0.0008
1802.00,0.0008
1801.00,0.0008
1800.00,0.0009
1799.00,0.0008
1798.00,0.0008
1797.00,0.0009
1796.00,0.0009
1795.00,0.0009
1794.00,0.0009
1793.00,0.0009
1792.00,0.0009
1791.00,0.0010
1790.00,0.0010
1789.00,0.0010
1788.00,0.0011
1787.00,0.0011
1786.00,0.0012
1785.00,0.0012
1784.00,0.0013
1783.00,0.0013
1782.00,0.0012
1781.00,0.0012
1780.00,0.0012
1779.00,0.0011
1778.00,0.0011
1777.00,0.0011
1776.00,0.0011
1775.00,0.0011
1774.00,0.0012
1773.00,0.0012
1772.00,0.0012
1771.00,0.0012
1770.00,0.0013
1769.00,0.0013
1768.00,0.0013
1767.00,0.0013
1766.00,0.0013
1765.00,0.0014
1764.00,0.0014
1763.00,0.0015
1762.00,0.0016
1761.00,0.0017
1760.00,0.0018
1759.00,0.0019
1758.00,0.0020
1757.00,0.0021
1756.00,0.0022
1755.00,0.0023
1754.00,0.0023
1753.00,0.0024
1752.00,0.0025
1751.00,0.0025
1750.00,0.0026
1749.00,0.0027
1748.00,0.0028
1747.00,0.0029
1746.00,0.0029
1745.00,0.0030
1744.00,0.0031
1743.00,0.0033
1742.00,0.0033
1741.00,0.0034
1740.00,0.0034
1739.00,0.0034
1738.00,0.0034
1737.00,0.0034
1736.00,0.0033
1735.00,0.0032
1734.00,0.0032
1733.00,0.0033
1732.00,0.0033
1731.00,0.0033
1730.00,0.0033
1729.00,0.0034
1728.00,0.0033
1727.00,0.0033
1726.00,0.0033
1725.00,0.0033
1724.00,0.0033
1723.00,0.0033
1722.00,0.0033
1721.00,0.0033
1720.00,0.0032
1719.00,0.0031
1718.00,0.0029
1717.00,0.0028
1716.00,0.0028
1715.00,0.0029
1714.00,0.0030
1713.00,0.0030
1712.00,0.0030
1711.00,0.0029
1710.00,0.0028
1709.00,0.0028
1708.00,0.0028
1707.00,0.0028
1706.00,0.0029
1705.00,0.0030
1704.00,0.0030
1703.00,0.0031
1702.00,0.0031
1701.00,0.0031
1700.00,0.0031
1699.00,0.0031
1698.00,0.0031
1697.00,0.0032
1696.00,0.0034
1695.00,0.0035
1694.00,0.0036
1693.00,0.0036
1692.00,0.0037
1691.00,0.0038
1690.00,0.0039
1689.00,0.0040
1688.00,0.0041
1687.00,0.0041
1686.00,0.0040
1685.00,0.0040
1684.00,0.0042
1683.00,0.0044
1682.00,0.0045
1681.00,0.0046
1680.00,0.0047
1679.00,0.0048
1678.00,0.0048
1677.00,0.0049
1676.00,0.0050
1675.00,0.0051
1674.00,0.0052
1673.00,0.0052
1672.00,0.0052
1671.00,0.0053
1670.00,0.0053
1669.00,0.0054
1668.00,0.0055
1667.00,0.0056
1666.00,0.0056
1665.00,0.0056
1664.00,0.0057
1663.00,0.0059
1662.00,0.0060
1661.00,0.0061
1660.00,0.0061
1659.00,0.0061
1658.00,0.0062
1657.00,0.0063
1656.00,0.0064
1655.00,0.0065
1654.00,0.0065
1653.00,0.0065
1652.00,0.0065
1651.00,0.0064
1650.00,0.0064
1649.00,0.0063
1648.00,0.0064
1647.00,0.0065
1646.00,0.0066
1645.00,0.0067
1644.00,0.0068
1643.00,0.0068
1642.00,0.0068
1641.00,0.0068
1640.00,0.0069
1639.00,0.0069
1638.00,0.0069
1637.00,0.0070
1636.00,0.0070
1635.00,0.0069
1634.00,0.0069
1633.00,0.0068
1632.00,0.0068
1631.00,0.0067
1630.00,0.0066
1629.00,0.0066
1628.00,0.0065
1627.00,0.0065
1626.00,0.0064
1625.00,0.0064
1624.00,0.0063
1623.00,0.0063
1622.00,0.0063
1621.00,0.0062
1620.00,0.0062
1619.00,0.0061
1618.00,0.0061
1617.00,0.0060
1616.00,0.0060
1615.00,0.0060
1614.00,0.0060
1613.00,0.0060
1612.00,0.0060
1611.00,0.0060
1610.00,0.0059
1609.00,0.0059
1608.00,0.0059
1607.00,0.0059
1606.00,0.0059
1605.00,0.0059
1604.00,0.0059
1603.00,0.0060
1602.00,0.0060
1601.00,0.0060
1600.00,0.0060
1599.00,0.0060
1598.00,0.0060
1597.00,0.0060
1596.00,0.0060
1595.00,0.0060
1594.00,0.0060
1593.00,0.0061
1592.00,0.0061
1591.00,0.0062
1590.00,0.0062
1589.00,0.0063
1588.00,0.0063
1587.00,0.0064
1586.00,0.0065
1585.00,0.0066
1584.00,0.0068
1583.00,0.0070
1582.00,0.0072
1581.00,0.0074
1580.00,0.0076
1579.00,0.0078
1578.00,0.0079
1577.00,0.0079
1576.00,0.0080
1575.00,0.0079
1574.00,0.0078
1573.00,0.0077
1572.00,0.0076
1571.00,0.0074
1570.00,0.0073
1569.00,0.0072
1568.00,0.0071
1567.00,0.0071
1566.00,0.0070
1565.00,0.0070
1564.00,0.0070
1563.00,0.0070
1562.00,0.0070
1561.00,0.0071
1560.00,0.0070
1559.00,0.0070
1558.00,0.0070
1557.00,0.0070
1556.00,0.0071
1555.00,0.0072
1554.00,0.0073
1553.00,0.0074
1552.00,0.0075
1551.00,0.0076
1550.00,0.0077
1549.00,0.0079
1548.00,0.0080
1547.00,0.0082
1546.00,0.0083
1545.00,0.0085
1544.00,0.0088
1543.00,0.0089
1542.00,0.0090
1541.00,0.0090
1540.00,0.0089
1539.00,0.0088
1538.00,0.0085
1537.00,0.0083
1536.00,0.0081
1535.00,0.0078
1534.00,0.0075
1533.00,0.0073
1532.00,0.0072
1531.00,0.0071
1530.00,0.0069
1529.00,0.0069
1528.00,0.0068
1527.00,0.0068
1526.00,0.0067
1525.00,0.0067
1524.00,0.0066
1523.00,0.0066
1522.00,0.0066
1521.00,0.0066
1520.00,0.0067
1519.00,0.0067
1518.00,0.0068
1517.00,0.0068
1516.00,0.0069
1515.00,0.0069
1514.00,0.0069
1513.00,0.0069
1512.00,0.0069
1511.00,0.0070
1510.00,0.0071
1509.00,0.0072
1508.00,0.0073
1507.00,0.0074
1506.00,0.0075
1505.00,0.0075
1504.00,0.0075
1503.00,0.0076
1502.00,0.0077
1501.00,0.0080
1500.00,0.0083
1499.00,0.0086
1498.00,0.0088
1497.00,0.0091
1496.00,0.0094
1495.00,0.0096
1494.00,0.0098
1493.00,0.0101
1492.00,0.0105
1491.00,0.0109
1490.00,0.0113
1489.00,0.0119
1488.00,0.0125
1487.00,0.0130
1486.00,0.0135
1485.00,0.0141
1484.00,0.0149
1483.00,0.0156
1482.00,0.0165
1481.00,0.0176
1480.00,0.0188
1479.00,0.0200
1478.00,0.0215
1477.00,0.0236
1476.00,0.0262
1475.00,0.0292
1474.00,0.0331
1473.00,0.0387
1472.00,0.0452
1471.00,0.0515
1470.00,0.0576
1469.00,0.0641
1468.00,0.0710
1467.00,0.0786
1466.00,0.0870
1465.00,0.0959
1464.00,0.1037
1463.00,0.1092
1462.00,0.1129
1461.00,0.1154
1460.00,0.1173
1459.00,0.1186
1458.00,0.1198
1457.00,0.1208
1456.00,0.1211
1455.00,0.1205
1454.00,0.1196
1453.00,0.1181
1452.00,0.1158
1451.00,0.1124
1450.00,0.1076
1449.00,0.1008
1448.00,0.0920
1447.00,0.0826
1446.00,0.0739
1445.00,0.0663
1444.00,0.0599
1443.00,0.0546
1442.00,0.0506
1441.00,0.0477
1440.00,0.0458
1439.00,0.0449
1438.00,0.0447
1437.00,0.0444
1436.00,0.0432
1435.00,0.0407
1434.00,0.0373
1433.00,0.0332
1432.00,0.0290
1431.00,0.0253
1430.00,0.0224
1429.00,0.0202
1428.00,0.0187
1427.00,0.0177
1426.00,0.0170
1425.00,0.0165
1424.00,0.0160
1423.00,0.0156
1422.00,0.0154
1421.00,0.0152
1420.00,0.0149
1419.00,0.0147
1418.00,0.0145
1417.00,0.0143
1416.00,0.0139
1415.00,0.0137
1414.00,0.0135
1413.00,0.0134
1412.00,0.0132
1411.00,0.0131
1410.00,0.0131
1409.00,0.0129
1408.00,0.0128
1407.00,0.0128
1406.00,0.0128
1405.00,0.0128
1404.00,0.0128
1403.00,0.0128
1402.00,0.0130
1401.00,0.0131
1400.00,0.0132
1399.00,0.0134
1398.00,0.0136
1397.00,0.0138
1396.00,0.0140
1395.00,0.0143
1394.00,0.0148
1393.00,0.0152
1392.00,0.0157
1391.00,0.0165
1390.00,0.0176
1389.00,0.0190
1388.00,0.0211
1387.00,0.0242
1386.00,0.0283
1385.00,0.0338
1384.00,0.0414
1383.00,0.0521
1382.00,0.0663
1381.00,0.0844
1380.00,0.1063
1379.00,0.1306
1378.00,0.1534
1377.00,0.1694
1376.00,0.1737
1375.00,0.1642
1374.00,0.1436
1373.00,0.1191
1372.00,0.0968
1371.00,0.0784
1370.00,0.0638
1369.00,0.0527
1368.00,0.0450
1367.00,0.0402
1366.00,0.0375
1365.00,0.0363
1364.00,0.0364
1363.00,0.0375
1362.00,0.0393
1361.00,0.0413
1360.00,0.0427
1359.00,0.0431
1358.00,0.0421
1357.00,0.0398
1356.00,0.0366
1355.00,0.0330
1354.00,0.0294
1353.00,0.0264
1352.00,0.0240
1351.00,0.0220
1350.00,0.0204
1349.00,0.0191
1348.00,0.0179
1347.00,0.0169
1346.00,0.0160
1345.00,0.0152
1344.00,0.0146
1343.00,0.0142
1342.00,0.0138
1341.00,0.0136
1340.00,0.0134
1339.00,0.0132
1338.00,0.0131
1337.00,0.0130
1336.00,0.0130
1335.00,0.0131
1334.00,0.0133
1333.00,0.0136
1332.00,0.0140
1331.00,0.0143
1330.00,0.0144
1329.00,0.0143
1328.00,0.0140
1327.00,0.0136
1326.00,0.0131
1325.00,0.0126
1324.00,0.0120
1323.00,0.0116
1322.00,0.0112
1321.00,0.0109
1320.00,0.0107
1319.00,0.0105
1318.00,0.0103
1317.00,0.0102
1316.00,0.0101
1315.00,0.0101
1314.00,0.0101
1313.00,0.0101
1312.00,0.0102
1311.00,0.0105
1310.00,0.0109
1309.00,0.0117
1308.00,0.0127
1307.00,0.0140
1306.00,0.0153
1305.00,0.0161
1304.00,0.0163
1303.00,0.0159
1302.00,0.0152
1301.00,0.0145
1300.00,0.0140
1299.00,0.0137
1298.00,0.0137
1297.00,0.0136
1296.00,0.0135
1295.00,0.0132
1294.00,0.0129
1293.00,0.0124
1292.00,0.0119
1291.00,0.0114
1290.00,0.0110
1289.00,0.0107
1288.00,0.0104
1287.00,0.0102
1286.00,0.0100
1285.00,0.0098
1284.00,0.0096
1283.00,0.0094
1282.00,0.0093
1281.00,0.0093
1280.00,0.0092
1279.00,0.0092
1278.00,0.0091
1277.00,0.0091
1276.00,0.0091
1275.00,0.0091
1274.00,0.0092
1273.00,0.0092
1272.00,0.0093
1271.00,0.0093
1270.00,0.0095
1269.00,0.0097
1268.00,0.0100
1267.00,0.0103
1266.00,0.0106
1265.00,0.0109
1264.00,0.0112
1263.00,0.0115
1262.00,0.0119
1261.00,0.0124
1260.00,0.0130
1259.00,0.0138
1258.00,0.0146
1257.00,0.0153
1256.00,0.0156
1255.00,0.0154
1254.00,0.0146
1253.00,0.0137
1252.00,0.0126
1251.00,0.0118
1250.00,0.0112
1249.00,0.0107
1248.00,0.0103
1247.00,0.0100
1246.00,0.0098
1245.00,0.0097
1244.00,0.0095
1243.00,0.0093
1242.00,0.0092
1241.00,0.0090
1240.00,0.0089
1239.00,0.0089
1238.00,0.0089
1237.00,0.0089
1236.00,0.0089
1235.00,0.0089
1234.00,0.0089
1233.00,0.0090
1232.00,0.0091
1231.00,0.0092
1230.00,0.0092
1229.00,0.0092
1228.00,0.0092
1227.00,0.0094
1226.00,0.0096
1225.00,0.0099
1224.00,0.0102
1223.00,0.0105
1222.00,0.0107
1221.00,0.0110
1220.00,0.0112
1219.00,0.0113
1218.00,0.0112
1217.00,0.0110
1216.00,0.0108
1215.00,0.0105
1214.00,0.0102
1213.00,0.0100
1212.00,0.0098
1211.00,0.0096
1210.00,0.0094
1209.00,0.0093
1208.00,0.0092
1207.00,0.0091
1206.00,0.0091
1205.00,0.0091
1204.00,0.0091
1203.00,0.0091
1202.00,0.0091
1201.00,0.0091
1200.00,0.0091
1199.00,0.0091
1198.00,0.0091
1197.00,0.0090
1196.00,0.0090
1195.00,0.0091
1194.00,0.0091
1193.00,0.0092
1192.00,0.0092
1191.00,0.0092
1190.00,0.0092
1189.00,0.0092
1188.00,0.0093
1187.00,0.0093
1186.00,0.0094
1185.00,0.0095
1184.00,0.0097
1183.00,0.0098
1182.00,0.0101
1181.00,0.0105
1180.00,0.0109
1179.00,0.0115
1178.00,0.0122
1177.00,0.0132
1176.00,0.0145
1175.00,0.0162
1174.00,0.0185
1173.00,0.0213
1172.00,0.0247
1171.00,0.0285
1170.00,0.0322
1169.00,0.0352
1168.00,0.0369
1167.00,0.0372
1166.00,0.0361
1165.00,0.0342
1164.00,0.0320
1163.00,0.0298
1162.00,0.0279
1161.00,0.0264
1160.00,0.0252
1159.00,0.0243
1158.00,0.0236
1157.00,0.0231
1156.00,0.0226
1155.00,0.0222
1154.00,0.0219
1153.00,0.0215
1152.00,0.0210
1151.00,0.0203
1150.00,0.0194
1149.00,0.0184
1148.00,0.0174
1147.00,0.0165
1146.00,0.0157
1145.00,0.0148
1144.00,0.0140
1143.00,0.0133
1142.00,0.0126
1141.00,0.0120
1140.00,0.0116
1139.00,0.0112
1138.00,0.0109
1137.00,0.0105
1136.00,0.0101
1135.00,0.0098
1134.00,0.0096
1133.00,0.0095
1132.00,0.0095
1131.00,0.0094
1130.00,0.0094
1129.00,0.0094
1128.00,0.0095
1127.00,0.0096
1126.00,0.0097
1125.00,0.0098
1124.00,0.0098
1123.00,0.0098
1122.00,0.0098
1121.00,0.0098
1120.00,0.0099
1119.00,0.0100
1118.00,0.0102
1117.00,0.0104
1116.00,0.0105
1115.00,0.0105
1114.00,0.0106
1113.00,0.0108
1112.00,0.0110
1111.00,0.0112
1110.00,0.0115
1109.00,0.0118
1108.00,0.0123
1107.00,0.0128
1106.00,0.0133
1105.00,0.0138
1104.00,0.0142
1103.00,0.0145
1102.00,0.0145
1101.00,0.0142
1100.00,0.0138
1099.00,0.0132
1098.00,0.0127
1097.00,0.0122
1096.00,0.0118
1095.00,0.0114
1094.00,0.0112
1093.00,0.0110
1092.00,0.0108
1091.00,0.0107
1090.00,0.0106
1089.00,0.0106
1088.00,0.0105
1087.00,0.0104
1086.00,0.0103
1085.00,0.0102
1084.00,0.0102
1083.00,0.0102
1082.00,0.0102
1081.00,0.0102
1080.00,0.0102
1079.00,0.0101
1078.00,0.0100
1077.00,0.0098
1076.00,0.0096
1075.00,0.0095
1074.00,0.0095
1073.00,0.0095
1072.00,0.0095
1071.00,0.0095
1070.00,0.0095
1069.00,0.0095
1068.00,0.0096
1067.00,0.0096
1066.00,0.0097
1065.00,0.0098
1064.00,0.0099
1063.00,0.0099
1062.00,0.0099
1061.00,0.0099
1060.00,0.0099
1059.00,0.0099
1058.00,0.0101
1057.00,0.0103
1056.00,0.0105
1055.00,0.0108
1054.00,0.0110
1053.00,0.0114
1052.00,0.0117
1051.00,0.0121
1050.00,0.0125
1049.00,0.0130
1048.00,0.0136
1047.00,0.0142
1046.00,0.0146
1045.00,0.0149
1044.00,0.0148
1043.00,0.0147
1042.00,0.0144
1041.00,0.0142
1040.00,0.0140
1039.00,0.0138
1038.00,0.0136
1037.00,0.0136
1036.00,0.0135
1035.00,0.0135
1034.00,0.0134
1033.00,0.0132
1032.00,0.0130
1031.00,0.0130
1030.00,0.0130
1029.00,0.0131
1028.00,0.0132
1027.00,0.0132
1026.00,0.0133
1025.00,0.0135
1024.00,0.0138
1023.00,0.0141
1022.00,0.0144
1021.00,0.0146
1020.00,0.0148
1019.00,0.0150
1018.00,0.0152
1017.00,0.0153
1016.00,0.0153
1015.00,0.0153
1014.00,0.0152
1013.00,0.0152
1012.00,0.0153
1011.00,0.0154
1010.00,0.0156
1009.00,0.0157
1008.00,0.0159
1007.00,0.0163
1006.00,0.0170
1005.00,0.0182
1004.00,0.0200
1003.00,0.0226
1002.00,0.0262
1001.00,0.0306
1000.00,0.0355
999.00,0.0396
998.00,0.0417
997.00,0.0411
996.00,0.0380
995.00,0.0334
994.00,0.0285
993.00,0.0241
992.00,0.0207
991.00,0.0181
990.00,0.0162
989.00,0.0150
988.00,0.0142
987.00,0.0137
986.00,0.0135
985.00,0.0136
984.00,0.0140
983.00,0.0147
982.00,0.0159
981.00,0.0176
980.00,0.0199
979.00,0.0229
978.00,0.0269
977.00,0.0317
976.00,0.0370
975.00,0.0422
974.00,0.0462
973.00,0.0478
972.00,0.0464
971.00,0.0422
970.00,0.0362
969.00,0.0301
968.00,0.0248
967.00,0.0207
966.00,0.0177
965.00,0.0156
964.00,0.0141
963.00,0.0130
962.00,0.0123
961.00,0.0116
960.00,0.0111
959.00,0.0107
958.00,0.0104
957.00,0.0101
956.00,0.0098
955.00,0.0095
954.00,0.0093
953.00,0.0092
952.00,0.0091
951.00,0.0090
950.00,0.0089
949.00,0.0088
948.00,0.0088
947.00,0.0088
946.00,0.0089
945.00,0.0090
944.00,0.0093
943.00,0.0096
942.00,0.0099
941.00,0.0102
940.00,0.0102
939.00,0.0099
938.00,0.0094
937.00,0.0088
936.00,0.0083
935.00,0.0078
934.00,0.0075
933.00,0.0072
932.00,0.0070
931.00,0.0068
930.00,0.0068
929.00,0.0067
928.00,0.0068
927.00,0.0068
926.00,0.0068
925.00,0.0067
924.00,0.0067
923.00,0.0067
922.00,0.0067
921.00,0.0067
920.00,0.0067
919.00,0.0067
918.00,0.0067
917.00,0.0067
916.00,0.0067
915.00,0.0068
914.00,0.0069
913.00,0.0070
912.00,0.0071
911.00,0.0072
910.00,0.0074
909.00,0.0075
908.00,0.0077
907.00,0.0081
906.00,0.0088
905.00,0.0099
904.00,0.0113
903.00,0.0129
902.00,0.0146
901.00,0.0161
900.00,0.0171
899.00,0.0173
898.00,0.0166
897.00,0.0153
896.00,0.0136
895.00,0.0120
894.00,0.0106
893.00,0.0096
892.00,0.0089
891.00,0.0084
890.00,0.0081
889.00,0.0079
888.00,0.0078
887.00,0.0078
886.00,0.0078
885.00,0.0078
884.00,0.0078
883.00,0.0078
882.00,0.0078
881.00,0.0078
880.00,0.0077
879.00,0.0079
878.00,0.0082
877.00,0.0085
876.00,0.0088
875.00,0.0090
874.00,0.0090
873.00,0.0088
872.00,0.0086
871.00,0.0084
870.00,0.0083
869.00,0.0083
868.00,0.0084
867.00,0.0084
866.00,0.0084
865.00,0.0084
864.00,0.0084
863.00,0.0085
862.00,0.0086
861.00,0.0087
860.00,0.0088
859.00,0.0090
858.00,0.0092
857.00,0.0094
856.00,0.0095
855.00,0.0096
854.00,0.0099
853.00,0.0103
852.00,0.0107
851.00,0.0112
850.00,0.0117
849.00,0.0123
848.00,0.0133
847.00,0.0149
846.00,0.0173
845.00,0.0211
844.00,0.0265
843.00,0.0329
842.00,0.0384
841.00,0.0405
840.00,0.0380
839.00,0.0323
838.00,0.0259
837.00,0.0207
836.00,0.0173
835.00,0.0152
834.00,0.0138
833.00,0.0129
832.00,0.0123
831.00,0.0118
830.00,0.0115
829.00,0.0111
828.00,0.0108
827.00,0.0106
826.00,0.0105
825.00,0.0104
824.00,0.0103
823.00,0.0103
822.00,0.0103
821.00,0.0104
820.00,0.0107
819.00,0.0111
818.00,0.0117
817.00,0.0124
816.00,0.0131
815.00,0.0141
814.00,0.0153
813.00,0.0168
812.00,0.0185
811.00,0.0202
810.00,0.0214
809.00,0.0219
808.00,0.0216
807.00,0.0205
806.00,0.0189
805.00,0.0173
804.00,0.0158
803.00,0.0146
802.00,0.0136
801.00,0.0129
800.00,0.0124
799.00,0.0120
798.00,0.0117
797.00,0.0113
796.00,0.0110
795.00,0.0108
794.00,0.0105
793.00,0.0101
792.00,0.0097
791.00,0.0093
790.00,0.0089
789.00,0.0086
788.00,0.0083
787.00,0.0081
786.00,0.0080
785.00,0.0079
784.00,0.0078
783.00,0.0077
782.00,0.0076
781.00,0.0075
780.00,0.0074
779.00,0.0073
778.00,0.0073
777.00,0.0072
776.00,0.0071
775.00,0.0070
774.00,0.0070
773.00,0.0070
772.00,0.0071
771.00,0.0070
770.00,0.0069
769.00,0.0068
768.00,0.0067
767.00,0.0067
766.00,0.0067
765.00,0.0067
764.00,0.0067
763.00,0.0068
762.00,0.0070
761.00,0.0072
760.00,0.0073
759.00,0.0073
758.00,0.0074
757.00,0.0075
756.00,0.0077
755.00,0.0079
754.00,0.0080
753.00,0.0081
752.00,0.0080
751.00,0.0080
750.00,0.0081
749.00,0.0082
748.00,0.0085
747.00,0.0088
746.00,0.0091
745.00,0.0093
744.00,0.0094
743.00,0.0095
742.00,0.0098
741.00,0.0101
740.00,0.0105
739.00,0.0108
738.00,0.0111
737.00,0.0114
736.00,0.0117
735.00,0.0121
734.00,0.0126
733.00,0.0131
732.00,0.0138
731.00,0.0145
730.00,0.0152
729.00,0.0155
728.00,0.0157
727.00,0.0157
726.00,0.0159
725.00,0.0162
724.00,0.0166
723.00,0.0172
722.00,0.0178
721.00,0.0183
720.00,0.0182
719.00,0.0175
718.00,0.0163
717.00,0.0150
716.00,0.0139
715.00,0.0130
714.00,0.0124
713.00,0.0119
712.00,0.0117
711.00,0.0115
710.00,0.0115
709.00,0.0114
708.00,0.0112
707.00,0.0110
706.00,0.0109
705.00,0.0107
704.00,0.0105
703.00,0.0102
702.00,0.0099
701.00,0.0096
700.00,0.0094
699.00,0.0093
698.00,0.0094
697.00,0.0095
696.00,0.0096
695.00,0.0097
694.00,0.0098
693.00,0.0099
692.00,0.0100
691.00,0.0101
690.00,0.0101
689.00,0.0099
688.00,0.0098
687.00,0.0097
686.00,0.0097
685.00,0.0097
684.00,0.0096
683.00,0.0096
682.00,0.0097
681.00,0.0097
680.00,0.0098
679.00,0.0098
678.00,0.0098
677.00,0.0099
676.00,0.0101
675.00,0.0104
674.00,0.0105
673.00,0.0106
672.00,0.0105
671.00,0.0105
670.00,0.0106
669.00,0.0106
668.00,0.0106
667.00,0.0106
666.00,0.0102
665.00,0.0099
664.00,0.0096
663.00,0.0095
662.00,0.0093
661.00,0.0092
660.00,0.0091
659.00,0.0091
658.00,0.0091
657.00,0.0093
656.00,0.0094
655.00,0.0095
654.00,0.0095
653.00,0.0094
652.00,0.0092
651.00,0.0091
650.00,0.0090
649.00,0.0090
648.00,0.0090
647.00,0.0089
646.00,0.0088
645.00,0.0087
644.00,0.0086
643.00,0.0085
642.00,0.0084
641.00,0.0085
640.00,0.0087
639.00,0.0089
638.00,0.0092
637.00,0.0094
636.00,0.0095
635.00,0.0093
634.00,0.0090
633.00,0.0087
632.00,0.0086
631.00,0.0087
630.00,0.0090
629.00,0.0091
628.00,0.0092
627.00,0.0093
626.00,0.0093
625.00,0.0091
624.00,0.0089
623.00,0.0087
622.00,0.0087
621.00,0.0089
620.00,0.0091
619.00,0.0092
618.00,0.0091
617.00,0.0089
616.00,0.0089
615.00,0.0089
614.00,0.0088
613.00,0.0086
612.00,0.0086
611.00,0.0090
610.00,0.0094
609.00,0.0097
608.00,0.0096
607.00,0.0092
606.00,0.0089
605.00,0.0088
604.00,0.0090
603.00,0.0093
602.00,0.0094
601.00,0.0093
600.00,0.0091
599.00,0.0090
598.00,0.0091
597.00,0.0093
596.00,0.0095
595.00,0.0096
594.00,0.0096
593.00,0.0095
592.00,0.0094
591.00,0.0093
590.00,0.0094
589.00,0.0094
588.00,0.0095
587.00,0.0095
586.00,0.0096
585.00,0.0098
584.00,0.0100
583.00,0.0101
582.00,0.0100
581.00,0.0098
580.00,0.0097
579.00,0.0095
578.00,0.0093
577.00,0.0092
576.00,0.0092
575.00,0.0092
574.00,0.0092
573.00,0.0090
572.00,0.0087
571.00,0.0086
570.00,0.0087
569.00,0.0090
568.00,0.0091
567.00,0.0091
566.00,0.0090
565.00,0.0091
564.00,0.0093
563.00,0.0095
562.00,0.0098
561.00,0.0101
560.00,0.0104
559.00,0.0105
558.00,0.0102
557.00,0.0097
556.00,0.0092
555.00,0.0089
554.00,0.0089
553.00,0.0091
552.00,0.0094
551.00,0.0097
550.00,0.0101
549.00,0.0103
548.00,0.0106
547.00,0.0108
546.00,0.0111
545.00,0.0112
544.00,0.0110
543.00,0.0107
542.00,0.0106
541.00,0.0108
540.00,0.0111
539.00,0.0114
538.00,0.0116
537.00,0.0118
536.00,0.0120
535.00,0.0121
534.00,0.0121
533.00,0.0122
532.00,0.0122
531.00,0.0122
530.00,0.0119
529.00,0.0116
528.00,0.0112
527.00,0.0110
526.00,0.0107
525.00,0.0105
524.00,0.0101
523.00,0.0099
522.00,0.0097
521.00,0.0096
520.00,0.0093
519.00,0.0088
518.00,0.0083
517.00,0.0083
516.00,0.0088
515.00,0.0095
514.00,0.0100
513.00,0.0102
512.00,0.0102
511.00,0.0101
510.00,0.0100
509.00,0.0098
508.00,0.0095
507.00,0.0090
506.00,0.0086
505.00,0.0083
504.00,0.0085
503.00,0.0092
502.00,0.0102
501.00,0.0110
500.00,0.0113
499.00,0.0111
498.00,0.0107
497.00,0.0103
496.00,0.0100
495.00,0.0095
494.00,0.0090
493.00,0.0085
492.00,0.0086
491.00,0.0093
490.00,0.0103
489.00,0.0111
488.00,0.0117
487.00,0.0122
486.00,0.0129
485.00,0.0133
484.00,0.0129
483.00,0.0120
482.00,0.0111
481.00,0.0107
480.00,0.0110
479.00,0.0120
478.00,0.0131
477.00,0.0139
476.00,0.0138
475.00,0.0132
474.00,0.0128
473.00,0.0129
472.00,0.0133
471.00,0.0134
470.00,0.0133
469.00,0.0138
468.00,0.0153
467.00,0.0171
466.00,0.0182
465.00,0.0185
464.00,0.0187
463.00,0.0194
462.00,0.0206
461.00,0.0217
460.00,0.0226
459.00,0.0232
458.00,0.0237
457.00,0.0235
456.00,0.0236
455.00,0.0228
454.00,0.0211
453.00,0.0190
452.00,0.0174
451.00,0.0167
450.00,0.0163
