Created as New Dataset,Sample 138 By Administrator Date Wednesday, September 03 2025
cm-1,A
4000.00,0.0006
3999.00,0.0006
3998.00,0.0006
3997.00,0.0006
3996.00,0.0006
3995.00,0.0006
3994.00,0.0005
3993.00,0.0005
3992.00,0.0005
3991.00,0.0005
3990.00,0.0005
3989.00,0.0005
3988.00,0.0005
3987.00,0.0005
3986.00,0.0005
3985.00,0.0005
3984.00,0.0005
3983.00,0.0005
3982.00,0.0005
3981.00,0.0005
3980.00,0.0005
3979.00,0.0004
3978.00,0.0004
3977.00,0.0004
3976.00,0.0004
3975.00,0.0004
3974.00,0.0004
3973.00,0.0004
3972.00,0.0004
3971.00,0.0004
3970.00,0.0004
3969.00,0.0004
3968.00,0.0003
3967.00,0.0003
3966.00,0.0003
3965.00,0.0003
3964.00,0.0003
3963.00,0.0003
3962.00,0.0003
3961.00,0.0003
3960.00,0.0003
3959.00,0.0003
3958.00,0.0003
3957.00,0.0003
3956.00,0.0003
3955.00,0.0003
3954.00,0.0002
3953.00,0.0002
3952.00,0.0003
3951.00,0.0003
3950.00,0.0003
3949.00,0.0004
3948.00,0.0004
3947.00,0.0004
3946.00,0.0004
3945.00,0.0004
3944.00,0.0003
3943.00,0.0003
3942.00,0.0003
3941.00,0.0003
3940.00,0.0003
3939.00,0.0003
3938.00,0.0003
3937.00,0.0003
3936.00,0.0003
3935.00,0.0003
3934.00,0.0003
3933.00,0.0003
3932.00,0.0003
3931.00,0.0003
3930.00,0.0003
3929.00,0.0003
3928.00,0.0003
3927.00,0.0003
3926.00,0.0004
3925.00,0.0004
3924.00,0.0004
3923.00,0.0004
3922.00,0.0004
3921.00,0.0003
3920.00,0.0003
3919.00,0.0003
3918.00,0.0003
3917.00,0.0003
3916.00,0.0003
3915.00,0.0004
3914.00,0.0004
3913.00,0.0004
3912.00,0.0003
3911.00,0.0003
3910.00,0.0003
3909.00,0.0003
3908.00,0.0003
3907.00,0.0003
3906.00,0.0003
3905.00,0.0002
3904.00,0.0002
3903.00,0.0001
3902.00,0.0001
3901.00,0.0001
3900.00,0.0002
3899.00,0.0002
3898.00,0.0003
3897.00,0.0003
3896.00,0.0003
3895.00,0.0003
3894.00,0.0003
3893.00,0.0003
3892.00,0.0003
3891.00,0.0003
3890.00,0.0003
3889.00,0.0002
3888.00,0.0002
3887.00,0.0002
3886.00,0.0002
3885.00,0.0002
3884.00,0.0002
3883.00,0.0003
3882.00,0.0003
3881.00,0.0003
3880.00,0.0003
3879.00,0.0003
3878.00,0.0003
3877.00,0.0003
3876.00,0.0003
3875.00,0.0003
3874.00,0.0002
3873.00,0.0002
3872.00,0.0003
3871.00,0.0003
3870.00,0.0002
3869.00,0.0002
3868.00,0.0003
3867.00,0.0003
3866.00,0.0003
3865.00,0.0003
3864.00,0.0003
3863.00,0.0003
3862.00,0.0002
3861.00,0.0002
3860.00,0.0002
3859.00,0.0001
3858.00,0.0002
3857.00,0.0002
3856.00,0.0002
3855.00,0.0003
3854.00,0.0003
3853.00,0.0003
3852.00,0.0003
3851.00,0.0002
3850.00,0.0002
3849.00,0.0002
3848.00,0.0002
3847.00,0.0002
3846.00,0.0002
3845.00,0.0002
3844.00,0.0002
3843.00,0.0002
3842.00,0.0002
3841.00,0.0002
3840.00,0.0002
3839.00,0.0002
3838.00,0.0003
3837.00,0.0003
3836.00,0.0003
3835.00,0.0003
3834.00,0.0003
3833.00,0.0003
3832.00,0.0002
3831.00,0.0002
3830.00,0.0001
3829.00,0.0001
3828.00,0.0001
3827.00,0.0002
3826.00,0.0002
3825.00,0.0003
3824.00,0.0003
3823.00,0.0002
3822.00,0.0002
3821.00,0.0002
3820.00,0.0002
3819.00,0.0002
3818.00,0.0003
3817.00,0.0003
3816.00,0.0003
3815.00,0.0003
3814.00,0.0003
3813.00,0.0003
3812.00,0.0003
3811.00,0.0003
3810.00,0.0003
3809.00,0.0002
3808.00,0.0002
3807.00,0.0002
3806.00,0.0003
3805.00,0.0003
3804.00,0.0003
3803.00,0.0004
3802.00,0.0004
3801.00,0.0004
3800.00,0.0004
3799.00,0.0004
3798.00,0.0004
3797.00,0.0003
3796.00,0.0003
3795.00,0.0003
3794.00,0.0003
3793.00,0.0003
3792.00,0.0003
3791.00,0.0003
3790.00,0.0003
3789.00,0.0003
3788.00,0.0003
3787.00,0.0003
3786.00,0.0003
3785.00,0.0003
3784.00,0.0003
3783.00,0.0003
3782.00,0.0003
3781.00,0.0003
3780.00,0.0003
3779.00,0.0003
3778.00,0.0003
3777.00,0.0003
3776.00,0.0002
3775.00,0.0002
3774.00,0.0002
3773.00,0.0002
3772.00,0.0002
3771.00,0.0002
3770.00,0.0002
3769.00,0.0003
3768.00,0.0003
3767.00,0.0003
3766.00,0.0003
3765.00,0.0003
3764.00,0.0004
3763.00,0.0004
3762.00,0.0004
3761.00,0.0004
3760.00,0.0004
3759.00,0.0004
3758.00,0.0004
3757.00,0.0004
3756.00,0.0004
3755.00,0.0004
3754.00,0.0004
3753.00,0.0003
3752.00,0.0003
3751.00,0.0003
3750.00,0.0003
3749.00,0.0003
3748.00,0.0003
3747.00,0.0003
3746.00,0.0003
3745.00,0.0003
3744.00,0.0002
3743.00,0.0002
3742.00,0.0002
3741.00,0.0003
3740.00,0.0002
3739.00,0.0002
3738.00,0.0001
3737.00,0.0001
3736.00,0.0001
3735.00,0.0002
3734.00,0.0002
3733.00,0.0002
3732.00,0.0001
3731.00,0.0001
3730.00,0.0001
3729.00,0.0002
3728.00,0.0002
3727.00,0.0002
3726.00,0.0001
3725.00,0.0001
3724.00,0.0001
3723.00,0.0001
3722.00,0.0002
3721.00,0.0001
3720.00,0.0001
3719.00,0.0000
3718.00,-0.0000
3717.00,0.0000
3716.00,0.0001
3715.00,0.0001
3714.00,0.0001
3713.00,0.0002
3712.00,0.0002
3711.00,0.0002
3710.00,0.0002
3709.00,0.0002
3708.00,0.0002
3707.00,0.0002
3706.00,0.0001
3705.00,0.0001
3704.00,0.0001
3703.00,0.0001
3702.00,0.0001
3701.00,0.0000
3700.00,-0.0000
3699.00,-0.0000
3698.00,-0.0000
3697.00,-0.0000
3696.00,-0.0000
3695.00,-0.0000
3694.00,0.0000
3693.00,0.0000
3692.00,0.0001
3691.00,0.0001
3690.00,0.0001
3689.00,0.0001
3688.00,0.0001
3687.00,0.0001
3686.00,0.0001
3685.00,0.0001
3684.00,0.0001
3683.00,0.0001
3682.00,0.0001
3681.00,0.0001
3680.00,0.0002
3679.00,0.0002
3678.00,0.0003
3677.00,0.0003
3676.00,0.0003
3675.00,0.0002
3674.00,0.0002
3673.00,0.0001
3672.00,0.0001
3671.00,0.0002
3670.00,0.0002
3669.00,0.0001
3668.00,0.0001
3667.00,0.0001
3666.00,0.0001
3665.00,0.0001
3664.00,0.0001
3663.00,0.0001
3662.00,0.0001
3661.00,0.0001
3660.00,0.0001
3659.00,0.0001
3658.00,0.0000
3657.00,0.0000
3656.00,-0.0000
3655.00,-0.0000
3654.00,-0.0000
3653.00,-0.0001
3652.00,-0.0001
3651.00,-0.0001
3650.00,-0.0000
3649.00,0.0000
3648.00,0.0001
3647.00,0.0002
3646.00,0.0002
3645.00,0.0001
3644.00,0.0001
3643.00,0.0001
3642.00,0.0001
3641.00,0.0001
3640.00,0.0001
3639.00,0.0001
3638.00,0.0001
3637.00,0.0001
3636.00,0.0000
3635.00,-0.0000
3634.00,-0.0001
3633.00,-0.0001
3632.00,-0.0001
3631.00,-0.0001
3630.00,-0.0001
3629.00,-0.0001
3628.00,-0.0001
3627.00,-0.0000
3626.00,-0.0000
3625.00,0.0000
3624.00,0.0001
3623.00,0.0001
3622.00,0.0001
3621.00,0.0001
3620.00,0.0001
3619.00,0.0001
3618.00,0.0001
3617.00,0.0001
3616.00,0.0001
3615.00,0.0001
3614.00,0.0001
3613.00,0.0001
3612.00,0.0001
3611.00,0.0001
3610.00,0.0001
3609.00,0.0001
3608.00,0.0001
3607.00,0.0001
3606.00,0.0001
3605.00,0.0001
3604.00,0.0001
3603.00,0.0001
3602.00,0.0001
3601.00,0.0002
3600.00,0.0002
3599.00,0.0002
3598.00,0.0002
3597.00,0.0002
3596.00,0.0002
3595.00,0.0002
3594.00,0.0002
3593.00,0.0002
3592.00,0.0002
3591.00,0.0001
3590.00,0.0001
3589.00,0.0001
3588.00,0.0001
3587.00,0.0002
3586.00,0.0002
3585.00,0.0002
3584.00,0.0003
3583.00,0.0003
3582.00,0.0003
3581.00,0.0003
3580.00,0.0004
3579.00,0.0004
3578.00,0.0004
3577.00,0.0005
3576.00,0.0005
3575.00,0.0005
3574.00,0.0004
3573.00,0.0004
3572.00,0.0004
3571.00,0.0004
3570.00,0.0004
3569.00,0.0004
3568.00,0.0004
3567.00,0.0004
3566.00,0.0004
3565.00,0.0005
3564.00,0.0005
3563.00,0.0006
3562.00,0.0006
3561.00,0.0007
3560.00,0.0007
3559.00,0.0008
3558.00,0.0008
3557.00,0.0008
3556.00,0.0008
3555.00,0.0007
3554.00,0.0007
3553.00,0.0007
3552.00,0.0007
3551.00,0.0008
3550.00,0.0008
3549.00,0.0009
3548.00,0.0009
3547.00,0.0009
3546.00,0.0008
3545.00,0.0008
3544.00,0.0008
3543.00,0.0008
3542.00,0.0009
3541.00,0.0009
3540.00,0.0008
3539.00,0.0008
3538.00,0.0008
3537.00,0.0009
3536.00,0.0009
3535.00,0.0009
3534.00,0.0010
3533.00,0.0010
3532.00,0.0010
3531.00,0.0010
3530.00,0.0010
3529.00,0.0010
3528.00,0.0010
3527.00,0.0010
3526.00,0.0010
3525.00,0.0011
3524.00,0.0012
3523.00,0.0012
3522.00,0.0012
3521.00,0.0012
3520.00,0.0012
3519.00,0.0012
3518.00,0.0013
3517.00,0.0013
3516.00,0.0014
3515.00,0.0014
3514.00,0.0015
3513.00,0.0015
3512.00,0.0015
3511.00,0.0015
3510.00,0.0015
3509.00,0.0014
3508.00,0.0014
3507.00,0.0014
3506.00,0.0013
3505.00,0.0014
3504.00,0.0014
3503.00,0.0015
3502.00,0.0015
3501.00,0.0016
3500.00,0.0016
3499.00,0.0016
3498.00,0.0015
3497.00,0.0015
3496.00,0.0015
3495.00,0.0016
3494.00,0.0016
3493.00,0.0016
3492.00,0.0016
3491.00,0.0016
3490.00,0.0016
3489.00,0.0017
3488.00,0.0017
3487.00,0.0018
3486.00,0.0018
3485.00,0.0018
3484.00,0.0018
3483.00,0.0018
3482.00,0.0019
3481.00,0.0019
3480.00,0.0019
3479.00,0.0019
3478.00,0.0019
3477.00,0.0019
3476.00,0.0020
3475.00,0.0020
3474.00,0.0020
3473.00,0.0020
3472.00,0.0020
3471.00,0.0020
3470.00,0.0020
3469.00,0.0020
3468.00,0.0021
3467.00,0.0021
3466.00,0.0021
3465.00,0.0021
3464.00,0.0022
3463.00,0.0022
3462.00,0.0023
3461.00,0.0023
3460.00,0.0023
3459.00,0.0024
3458.00,0.0024
3457.00,0.0024
3456.00,0.0024
3455.00,0.0024
3454.00,0.0023
3453.00,0.0023
3452.00,0.0023
3451.00,0.0024
3450.00,0.0024
3449.00,0.0023
3448.00,0.0023
3447.00,0.0023
3446.00,0.0023
3445.00,0.0024
3444.00,0.0024
3443.00,0.0024
3442.00,0.0025
3441.00,0.0025
3440.00,0.0025
3439.00,0.0025
3438.00,0.0025
3437.00,0.0026
3436.00,0.0026
3435.00,0.0027
3434.00,0.0027
3433.00,0.0027
3432.00,0.0026
3431.00,0.0026
3430.00,0.0026
3429.00,0.0026
3428.00,0.0027
3427.00,0.0027
3426.00,0.0027
3425.00,0.0028
3424.00,0.0028
3423.00,0.0028
3422.00,0.0028
3421.00,0.0028
3420.00,0.0028
3419.00,0.0028
3418.00,0.0028
3417.00,0.0028
3416.00,0.0029
3415.00,0.0029
3414.00,0.0030
3413.00,0.0030
3412.00,0.0030
3411.00,0.0030
3410.00,0.0030
3409.00,0.0029
3408.00,0.0030
3407.00,0.0030
3406.00,0.0030
3405.00,0.0031
3404.00,0.0031
3403.00,0.0031
3402.00,0.0031
3401.00,0.0031
3400.00,0.0031
3399.00,0.0031
3398.00,0.0030
3397.00,0.0030
3396.00,0.0030
3395.00,0.0030
3394.00,0.0031
3393.00,0.0031
3392.00,0.0031
3391.00,0.0031
3390.00,0.0031
3389.00,0.0032
3388.00,0.0032
3387.00,0.0032
3386.00,0.0031
3385.00,0.0031
3384.00,0.0031
3383.00,0.0032
3382.00,0.0032
3381.00,0.0032
3380.00,0.0032
3379.00,0.0032
3378.00,0.0032
3377.00,0.0032
3376.00,0.0032
3375.00,0.0032
3374.00,0.0032
3373.00,0.0033
3372.00,0.0033
3371.00,0.0033
3370.00,0.0033
3369.00,0.0033
3368.00,0.0033
3367.00,0.0033
3366.00,0.0033
3365.00,0.0033
3364.00,0.0033
3363.00,0.0033
3362.00,0.0033
3361.00,0.0033
3360.00,0.0033
3359.00,0.0033
3358.00,0.0033
3357.00,0.0033
3356.00,0.0034
3355.00,0.0034
3354.00,0.0034
3353.00,0.0034
3352.00,0.0033
3351.00,0.0033
3350.00,0.0033
3349.00,0.0033
3348.00,0.0034
3347.00,0.0034
3346.00,0.0034
3345.00,0.0033
3344.00,0.0033
3343.00,0.0033
3342.00,0.0033
3341.00,0.0033
3340.00,0.0033
3339.00,0.0033
3338.00,0.0034
3337.00,0.0034
3336.00,0.0033
3335.00,0.0033
3334.00,0.0033
3333.00,0.0033
3332.00,0.0032
3331.00,0.0032
3330.00,0.0032
3329.00,0.0032
3328.00,0.0032
3327.00,0.0032
3326.00,0.0032
3325.00,0.0032
3324.00,0.0032
3323.00,0.0032
3322.00,0.0032
3321.00,0.0032
3320.00,0.0032
3319.00,0.0032
3318.00,0.0032
3317.00,0.0032
3316.00,0.0032
3315.00,0.0031
3314.00,0.0031
3313.00,0.0031
3312.00,0.0032
3311.00,0.0032
3310.00,0.0033
3309.00,0.0033
3308.00,0.0033
3307.00,0.0034
3306.00,0.0034
3305.00,0.0034
3304.00,0.0034
3303.00,0.0034
3302.00,0.0034
3301.00,0.0034
3300.00,0.0034
3299.00,0.0033
3298.00,0.0033
3297.00,0.0032
3296.00,0.0032
3295.00,0.0032
3294.00,0.0031
3293.00,0.0031
3292.00,0.0031
3291.00,0.0031
3290.00,0.0031
3289.00,0.0031
3288.00,0.0031
3287.00,0.0031
3286.00,0.0031
3285.00,0.0031
3284.00,0.0031
3283.00,0.0030
3282.00,0.0030
3281.00,0.0030
3280.00,0.0030
3279.00,0.0030
3278.00,0.0030
3277.00,0.0030
3276.00,0.0030
3275.00,0.0030
3274.00,0.0029
3273.00,0.0029
3272.00,0.0029
3271.00,0.0029
3270.00,0.0029
3269.00,0.0028
3268.00,0.0028
3267.00,0.0028
3266.00,0.0028
3265.00,0.0028
3264.00,0.0029
3263.00,0.0029
3262.00,0.0029
3261.00,0.0028
3260.00,0.0028
3259.00,0.0029
3258.00,0.0029
3257.00,0.0029
3256.00,0.0029
3255.00,0.0028
3254.00,0.0028
3253.00,0.0028
3252.00,0.0028
3251.00,0.0028
3250.00,0.0028
3249.00,0.0027
3248.00,0.0027
3247.00,0.0027
3246.00,0.0027
3245.00,0.0027
3244.00,0.0027
3243.00,0.0027
3242.00,0.0027
3241.00,0.0027
3240.00,0.0027
3239.00,0.0027
3238.00,0.0027
3237.00,0.0027
3236.00,0.0027
3235.00,0.0027
3234.00,0.0027
3233.00,0.0027
3232.00,0.0027
3231.00,0.0027
3230.00,0.0027
3229.00,0.0027
3228.00,0.0027
3227.00,0.0027
3226.00,0.0027
3225.00,0.0027
3224.00,0.0028
3223.00,0.0028
3222.00,0.0028
3221.00,0.0028
3220.00,0.0028
3219.00,0.0029
3218.00,0.0029
3217.00,0.0029
3216.00,0.0029
3215.00,0.0029
3214.00,0.0029
3213.00,0.0030
3212.00,0.0030
3211.00,0.0031
3210.00,0.0031
3209.00,0.0031
3208.00,0.0031
3207.00,0.0031
3206.00,0.0031
3205.00,0.0031
3204.00,0.0031
3203.00,0.0031
3202.00,0.0032
3201.00,0.0032
3200.00,0.0032
3199.00,0.0032
3198.00,0.0032
3197.00,0.0032
3196.00,0.0031
3195.00,0.0031
3194.00,0.0031
3193.00,0.0031
3192.00,0.0031
3191.00,0.0031
3190.00,0.0030
3189.00,0.0030
3188.00,0.0030
3187.00,0.0030
3186.00,0.0030
3185.00,0.0030
3184.00,0.0030
3183.00,0.0029
3182.00,0.0029
3181.00,0.0029
3180.00,0.0029
3179.00,0.0029
3178.00,0.0029
3177.00,0.0029
3176.00,0.0029
3175.00,0.0029
3174.00,0.0029
3173.00,0.0029
3172.00,0.0029
3171.00,0.0029
3170.00,0.0028
3169.00,0.0028
3168.00,0.0028
3167.00,0.0028
3166.00,0.0028
3165.00,0.0028
3164.00,0.0027
3163.00,0.0027
3162.00,0.0027
3161.00,0.0027
3160.00,0.0026
3159.00,0.0026
3158.00,0.0026
3157.00,0.0026
3156.00,0.0027
3155.00,0.0027
3154.00,0.0027
3153.00,0.0027
3152.00,0.0027
3151.00,0.0027
3150.00,0.0027
3149.00,0.0027
3148.00,0.0027
3147.00,0.0027
3146.00,0.0027
3145.00,0.0027
3144.00,0.0028
3143.00,0.0028
3142.00,0.0028
3141.00,0.0027
3140.00,0.0026
3139.00,0.0026
3138.00,0.0026
3137.00,0.0025
3136.00,0.0026
3135.00,0.0026
3134.00,0.0026
3133.00,0.0026
3132.00,0.0026
3131.00,0.0026
3130.00,0.0025
3129.00,0.0025
3128.00,0.0025
3127.00,0.0025
3126.00,0.0025
3125.00,0.0024
3124.00,0.0024
3123.00,0.0024
3122.00,0.0023
3121.00,0.0023
3120.00,0.0023
3119.00,0.0023
3118.00,0.0023
3117.00,0.0023
3116.00,0.0022
3115.00,0.0023
3114.00,0.0023
3113.00,0.0023
3112.00,0.0022
3111.00,0.0022
3110.00,0.0022
3109.00,0.0022
3108.00,0.0022
3107.00,0.0022
3106.00,0.0022
3105.00,0.0023
3104.00,0.0023
3103.00,0.0022
3102.00,0.0022
3101.00,0.0022
3100.00,0.0022
3099.00,0.0022
3098.00,0.0022
3097.00,0.0022
3096.00,0.0021
3095.00,0.0021
3094.00,0.0021
3093.00,0.0021
3092.00,0.0021
3091.00,0.0022
3090.00,0.0022
3089.00,0.0022
3088.00,0.0022
3087.00,0.0021
3086.00,0.0021
3085.00,0.0021
3084.00,0.0021
3083.00,0.0021
3082.00,0.0021
3081.00,0.0021
3080.00,0.0021
3079.00,0.0021
3078.00,0.0021
3077.00,0.0021
3076.00,0.0022
3075.00,0.0022
3074.00,0.0022
3073.00,0.0023
3072.00,0.0023
3071.00,0.0023
3070.00,0.0023
3069.00,0.0023
3068.00,0.0023
3067.00,0.0023
3066.00,0.0024
3065.00,0.0024
3064.00,0.0024
3063.00,0.0024
3062.00,0.0024
3061.00,0.0024
3060.00,0.0024
3059.00,0.0024
3058.00,0.0025
3057.00,0.0025
3056.00,0.0025
3055.00,0.0025
3054.00,0.0025
3053.00,0.0025
3052.00,0.0025
3051.00,0.0025
3050.00,0.0025
3049.00,0.0026
3048.00,0.0026
3047.00,0.0026
3046.00,0.0027
3045.00,0.0027
3044.00,0.0027
3043.00,0.0027
3042.00,0.0028
3041.00,0.0028
3040.00,0.0028
3039.00,0.0029
3038.00,0.0029
3037.00,0.0029
3036.00,0.0030
3035.00,0.0030
3034.00,0.0030
3033.00,0.0031
3032.00,0.0031
3031.00,0.0032
3030.00,0.0032
3029.00,0.0033
3028.00,0.0033
3027.00,0.0033
3026.00,0.0034
3025.00,0.0034
3024.00,0.0034
3023.00,0.0035
3022.00,0.0036
3021.00,0.0037
3020.00,0.0038
3019.00,0.0039
3018.00,0.0040
3017.00,0.0041
3016.00,0.0042
3015.00,0.0043
3014.00,0.0044
3013.00,0.0044
3012.00,0.0045
3011.00,0.0046
3010.00,0.0048
3009.00,0.0049
3008.00,0.0051
3007.00,0.0053
3006.00,0.0054
3005.00,0.0056
3004.00,0.0058
3003.00,0.0060
3002.00,0.0062
3001.00,0.0065
3000.00,0.0067
2999.00,0.0070
2998.00,0.0073
2997.00,0.0076
2996.00,0.0079
2995.00,0.0083
2994.00,0.0087
2993.00,0.0092
2992.00,0.0096
2991.00,0.0101
2990.00,0.0107
2989.00,0.0113
2988.00,0.0120
2987.00,0.0128
2986.00,0.0137
2985.00,0.0148
2984.00,0.0159
2983.00,0.0172
2982.00,0.0187
2981.00,0.0203
2980.00,0.0222
2979.00,0.0242
2978.00,0.0265
2977.00,0.0292
2976.00,0.0322
2975.00,0.0357
2974.00,0.0397
2973.00,0.0443
2972.00,0.0494
2971.00,0.0550
2970.00,0.0613
2969.00,0.0681
2968.00,0.0755
2967.00,0.0832
2966.00,0.0912
2965.00,0.0992
2964.00,0.1069
2963.00,0.1138
2962.00,0.1197
2961.00,0.1246
2960.00,0.1288
2959.00,0.1326
2958.00,0.1368
2957.00,0.1418
2956.00,0.1481
2955.00,0.1559
2954.00,0.1648
2953.00,0.1740
2952.00,0.1825
2951.00,0.1888
2950.00,0.1917
2949.00,0.1902
2948.00,0.1842
2947.00,0.1744
2946.00,0.1621
2945.00,0.1488
2944.00,0.1361
2943.00,0.1252
2942.00,0.1166
2941.00,0.1106
2940.00,0.1072
2939.00,0.1061
2938.00,0.1072
2937.00,0.1101
2936.00,0.1146
2935.00,0.1208
2934.00,0.1283
2933.00,0.1372
2932.00,0.1473
2931.00,0.1584
2930.00,0.1702
2929.00,0.1825
2928.00,0.1950
2927.00,0.2072
2926.00,0.2191
2925.00,0.2306
2924.00,0.2419
2923.00,0.2533
2922.00,0.2646
2921.00,0.2757
2920.00,0.2855
2919.00,0.2931
2918.00,0.2971
2917.00,0.2966
2916.00,0.2914
2915.00,0.2823
2914.00,0.2706
2913.00,0.2579
2912.00,0.2454
2911.00,0.2338
2910.00,0.2234
2909.00,0.2141
2908.00,0.2055
2907.00,0.1975
2906.00,0.1897
2905.00,0.1821
2904.00,0.1746
2903.00,0.1672
2902.00,0.1600
2901.00,0.1531
2900.00,0.1466
2899.00,0.1404
2898.00,0.1346
2897.00,0.1293
2896.00,0.1246
2895.00,0.1205
2894.00,0.1170
2893.00,0.1142
2892.00,0.1121
2891.00,0.1105
2890.00,0.1095
2889.00,0.1088
2888.00,0.1086
2887.00,0.1086
2886.00,0.1090
2885.00,0.1098
2884.00,0.1110
2883.00,0.1128
2882.00,0.1150
2881.00,0.1176
2880.00,0.1202
2879.00,0.1223
2878.00,0.1237
2877.00,0.1242
2876.00,0.1239
2875.00,0.1231
2874.00,0.1225
2873.00,0.1225
2872.00,0.1233
2871.00,0.1249
2870.00,0.1270
2869.00,0.1291
2868.00,0.1305
2867.00,0.1304
2866.00,0.1280
2865.00,0.1231
2864.00,0.1161
2863.00,0.1080
2862.00,0.0998
2861.00,0.0926
2860.00,0.0868
2859.00,0.0828
2858.00,0.0804
2857.00,0.0793
2856.00,0.0792
2855.00,0.0798
2854.00,0.0810
2853.00,0.0825
2852.00,0.0841
2851.00,0.0856
2850.00,0.0867
2849.00,0.0877
2848.00,0.0888
2847.00,0.0903
2846.00,0.0927
2845.00,0.0962
2844.00,0.1007
2843.00,0.1059
2842.00,0.1114
2841.00,0.1164
2840.00,0.1203
2839.00,0.1222
2838.00,0.1215
2837.00,0.1179
2836.00,0.1113
2835.00,0.1023
2834.00,0.0920
2833.00,0.0812
2832.00,0.0710
2831.00,0.0620
2830.00,0.0543
2829.00,0.0480
2828.00,0.0429
2827.00,0.0388
2826.00,0.0355
2825.00,0.0327
2824.00,0.0304
2823.00,0.0285
2822.00,0.0268
2821.00,0.0254
2820.00,0.0242
2819.00,0.0231
2818.00,0.0221
2817.00,0.0213
2816.00,0.0206
2815.00,0.0199
2814.00,0.0192
2813.00,0.0187
2812.00,0.0181
2811.00,0.0175
2810.00,0.0170
2809.00,0.0164
2808.00,0.0158
2807.00,0.0151
2806.00,0.0145
2805.00,0.0138
2804.00,0.0132
2803.00,0.0126
2802.00,0.0121
2801.00,0.0116
2800.00,0.0112
2799.00,0.0109
2798.00,0.0105
2797.00,0.0103
2796.00,0.0100
2795.00,0.0098
2794.00,0.0095
2793.00,0.0093
2792.00,0.0090
2791.00,0.0087
2790.00,0.0084
2789.00,0.0080
2788.00,0.0078
2787.00,0.0075
2786.00,0.0073
2785.00,0.0071
2784.00,0.0069
2783.00,0.0067
2782.00,0.0065
2781.00,0.0063
2780.00,0.0062
2779.00,0.0060
2778.00,0.0058
2777.00,0.0057
2776.00,0.0056
2775.00,0.0055
2774.00,0.0054
2773.00,0.0053
2772.00,0.0053
2771.00,0.0052
2770.00,0.0051
2769.00,0.0051
2768.00,0.0051
2767.00,0.0051
2766.00,0.0050
2765.00,0.0050
2764.00,0.0050
2763.00,0.0049
2762.00,0.0049
2761.00,0.0048
2760.00,0.0048
2759.00,0.0047
2758.00,0.0047
2757.00,0.0047
2756.00,0.0047
2755.00,0.0047
2754.00,0.0047
2753.00,0.0047
2752.00,0.0046
2751.00,0.0046
2750.00,0.0046
2749.00,0.0047
2748.00,0.0047
2747.00,0.0048
2746.00,0.0048
2745.00,0.0048
2744.00,0.0049
2743.00,0.0049
2742.00,0.0050
2741.00,0.0051
2740.00,0.0053
2739.00,0.0054
2738.00,0.0055
2737.00,0.0057
2736.00,0.0058
2735.00,0.0059
2734.00,0.0061
2733.00,0.0063
2732.00,0.0065
2731.00,0.0067
2730.00,0.0069
2729.00,0.0072
2728.00,0.0074
2727.00,0.0077
2726.00,0.0080
2725.00,0.0083
2724.00,0.0084
2723.00,0.0085
2722.00,0.0084
2721.00,0.0083
2720.00,0.0080
2719.00,0.0077
2718.00,0.0073
2717.00,0.0070
2716.00,0.0067
2715.00,0.0064
2714.00,0.0062
2713.00,0.0059
2712.00,0.0057
2711.00,0.0055
2710.00,0.0053
2709.00,0.0051
2708.00,0.0050
2707.00,0.0049
2706.00,0.0048
2705.00,0.0047
2704.00,0.0046
2703.00,0.0045
2702.00,0.0044
2701.00,0.0043
2700.00,0.0042
2699.00,0.0041
2698.00,0.0041
2697.00,0.0040
2696.00,0.0040
2695.00,0.0041
2694.00,0.0041
2693.00,0.0041
2692.00,0.0041
2691.00,0.0041
2690.00,0.0040
2689.00,0.0040
2688.00,0.0040
2687.00,0.0040
2686.00,0.0040
2685.00,0.0040
2684.00,0.0040
2683.00,0.0041
2682.00,0.0041
2681.00,0.0041
2680.00,0.0042
2679.00,0.0042
2678.00,0.0042
2677.00,0.0042
2676.00,0.0042
2675.00,0.0042
2674.00,0.0042
2673.00,0.0042
2672.00,0.0042
2671.00,0.0041
2670.00,0.0041
2669.00,0.0041
2668.00,0.0041
2667.00,0.0041
2666.00,0.0041
2665.00,0.0042
2664.00,0.0042
2663.00,0.0043
2662.00,0.0043
2661.00,0.0044
2660.00,0.0044
2659.00,0.0044
2658.00,0.0044
2657.00,0.0044
2656.00,0.0043
2655.00,0.0042
2654.00,0.0042
2653.00,0.0041
2652.00,0.0041
2651.00,0.0041
2650.00,0.0040
2649.00,0.0040
2648.00,0.0040
2647.00,0.0039
2646.00,0.0039
2645.00,0.0038
2644.00,0.0038
2643.00,0.0037
2642.00,0.0037
2641.00,0.0036
2640.00,0.0036
2639.00,0.0036
2638.00,0.0035
2637.00,0.0035
2636.00,0.0035
2635.00,0.0034
2634.00,0.0034
2633.00,0.0034
2632.00,0.0034
2631.00,0.0034
2630.00,0.0034
2629.00,0.0035
2628.00,0.0035
2627.00,0.0036
2626.00,0.0036
2625.00,0.0036
2624.00,0.0036
2623.00,0.0037
2622.00,0.0037
2621.00,0.0037
2620.00,0.0037
2619.00,0.0037
2618.00,0.0037
2617.00,0.0037
2616.00,0.0037
2615.00,0.0037
2614.00,0.0037
2613.00,0.0036
2612.00,0.0036
2611.00,0.0035
2610.00,0.0035
2609.00,0.0034
2608.00,0.0033
2607.00,0.0033
2606.00,0.0032
2605.00,0.0031
2604.00,0.0030
2603.00,0.0029
2602.00,0.0029
2601.00,0.0028
2600.00,0.0028
2599.00,0.0028
2598.00,0.0028
2597.00,0.0029
2596.00,0.0029
2595.00,0.0030
2594.00,0.0030
2593.00,0.0030
2592.00,0.0030
2591.00,0.0030
2590.00,0.0031
2589.00,0.0032
2588.00,0.0033
2587.00,0.0034
2586.00,0.0035
2585.00,0.0037
2584.00,0.0038
2583.00,0.0038
2582.00,0.0038
2581.00,0.0037
2580.00,0.0036
2579.00,0.0035
2578.00,0.0034
2577.00,0.0033
2576.00,0.0032
2575.00,0.0032
2574.00,0.0030
2573.00,0.0029
2572.00,0.0027
2571.00,0.0026
2570.00,0.0025
2569.00,0.0024
2568.00,0.0023
2567.00,0.0023
2566.00,0.0022
2565.00,0.0022
2564.00,0.0021
2563.00,0.0021
2562.00,0.0020
2561.00,0.0020
2560.00,0.0020
2559.00,0.0020
2558.00,0.0020
2557.00,0.0020
2556.00,0.0020
2555.00,0.0020
2554.00,0.0019
2553.00,0.0019
2552.00,0.0018
2551.00,0.0017
2550.00,0.0017
2549.00,0.0016
2548.00,0.0016
2547.00,0.0016
2546.00,0.0016
2545.00,0.0016
2544.00,0.0016
2543.00,0.0016
2542.00,0.0015
2541.00,0.0014
2540.00,0.0012
2539.00,0.0012
2538.00,0.0011
2537.00,0.0011
2536.00,0.0012
2535.00,0.0012
2534.00,0.0012
2533.00,0.0012
2532.00,0.0012
2531.00,0.0012
2530.00,0.0012
2529.00,0.0013
2528.00,0.0013
2527.00,0.0013
2526.00,0.0012
2525.00,0.0012
2524.00,0.0012
2523.00,0.0012
2522.00,0.0011
2521.00,0.0010
2520.00,0.0010
2519.00,0.0009
2518.00,0.0009
2517.00,0.0008
2516.00,0.0008
2515.00,0.0008
2514.00,0.0008
2513.00,0.0008
2512.00,0.0008
2511.00,0.0008
2510.00,0.0009
2509.00,0.0008
2508.00,0.0008
2507.00,0.0008
2506.00,0.0007
2505.00,0.0007
2504.00,0.0007
2503.00,0.0007
2502.00,0.0007
2501.00,0.0007
2500.00,0.0007
2499.00,0.0008
2498.00,0.0008
2497.00,0.0008
2496.00,0.0008
2495.00,0.0008
2494.00,0.0007
2493.00,0.0007
2492.00,0.0007
2491.00,0.0007
2490.00,0.0008
2489.00,0.0008
2488.00,0.0009
2487.00,0.0008
2486.00,0.0008
2485.00,0.0008
2484.00,0.0008
2483.00,0.0008
2482.00,0.0008
2481.00,0.0009
2480.00,0.0008
2479.00,0.0008
2478.00,0.0008
2477.00,0.0008
2476.00,0.0008
2475.00,0.0007
2474.00,0.0007
2473.00,0.0006
2472.00,0.0006
2471.00,0.0006
2470.00,0.0007
2469.00,0.0007
2468.00,0.0007
2467.00,0.0006
2466.00,0.0006
2465.00,0.0006
2464.00,0.0006
2463.00,0.0007
2462.00,0.0007
2461.00,0.0007
2460.00,0.0007
2459.00,0.0008
2458.00,0.0008
2457.00,0.0008
2456.00,0.0008
2455.00,0.0007
2454.00,0.0007
2453.00,0.0007
2452.00,0.0008
2451.00,0.0008
2450.00,0.0009
2449.00,0.0009
2448.00,0.0009
2447.00,0.0008
2446.00,0.0008
2445.00,0.0008
2444.00,0.0007
2443.00,0.0007
2442.00,0.0007
2441.00,0.0007
2440.00,0.0008
2439.00,0.0008
2438.00,0.0008
2437.00,0.0008
2436.00,0.0008
2435.00,0.0008
2434.00,0.0008
2433.00,0.0009
2432.00,0.0009
2431.00,0.0010
2430.00,0.0009
2429.00,0.0009
2428.00,0.0009
2427.00,0.0009
2426.00,0.0009
2425.00,0.0009
2424.00,0.0009
2423.00,0.0009
2422.00,0.0009
2421.00,0.0008
2420.00,0.0008
2419.00,0.0007
2418.00,0.0007
2417.00,0.0007
2416.00,0.0007
2415.00,0.0007
2414.00,0.0007
2413.00,0.0007
2412.00,0.0007
2411.00,0.0007
2410.00,0.0007
2409.00,0.0007
2408.00,0.0007
2407.00,0.0007
2406.00,0.0007
2405.00,0.0007
2404.00,0.0007
2403.00,0.0006
2402.00,0.0006
2401.00,0.0006
2400.00,0.0006
2399.00,0.0005
2398.00,0.0005
2397.00,0.0005
2396.00,0.0006
2395.00,0.0006
2394.00,0.0006
2393.00,0.0006
2392.00,0.0005
2391.00,0.0005
2390.00,0.0005
2389.00,0.0005
2388.00,0.0004
2387.00,0.0004
2386.00,0.0003
2385.00,0.0002
2384.00,0.0001
2383.00,0.0000
2382.00,-0.0001
2381.00,-0.0001
2380.00,-0.0002
2379.00,-0.0002
2378.00,-0.0001
2377.00,-0.0001
2376.00,-0.0000
2375.00,-0.0000
2374.00,-0.0001
2373.00,-0.0001
2372.00,-0.0000
2371.00,-0.0000
2370.00,-0.0000
2369.00,-0.0001
2368.00,-0.0002
2367.00,-0.0003
2366.00,-0.0004
2365.00,-0.0005
2364.00,-0.0005
2363.00,-0.0005
2362.00,-0.0004
2361.00,-0.0003
2360.00,-0.0002
2359.00,-0.0002
2358.00,-0.0001
2357.00,-0.0001
2356.00,-0.0001
2355.00,-0.0000
2354.00,-0.0000
2353.00,-0.0001
2352.00,-0.0001
2351.00,-0.0002
2350.00,-0.0002
2349.00,-0.0002
2348.00,-0.0001
2347.00,0.0000
2346.00,0.0001
2345.00,0.0001
2344.00,0.0000
2343.00,-0.0000
2342.00,0.0000
2341.00,0.0001
2340.00,0.0002
2339.00,0.0002
2338.00,0.0002
2337.00,0.0001
2336.00,0.0001
2335.00,0.0001
2334.00,0.0001
2333.00,0.0001
2332.00,0.0001
2331.00,0.0001
2330.00,0.0001
2329.00,0.0002
2328.00,0.0004
2327.00,0.0007
2326.00,0.0011
2325.00,0.0014
2324.00,0.0015
2323.00,0.0014
2322.00,0.0012
2321.00,0.0010
2320.00,0.0008
2319.00,0.0006
2318.00,0.0005
2317.00,0.0005
2316.00,0.0005
2315.00,0.0005
2314.00,0.0005
2313.00,0.0005
2312.00,0.0004
2311.00,0.0004
2310.00,0.0003
2309.00,0.0002
2308.00,0.0001
2307.00,0.0001
2306.00,0.0001
2305.00,0.0002
2304.00,0.0003
2303.00,0.0003
2302.00,0.0004
2301.00,0.0005
2300.00,0.0006
2299.00,0.0007
2298.00,0.0007
2297.00,0.0007
2296.00,0.0007
2295.00,0.0008
2294.00,0.0009
2293.00,0.0011
2292.00,0.0012
2291.00,0.0012
2290.00,0.0013
2289.00,0.0014
2288.00,0.0014
2287.00,0.0014
2286.00,0.0013
2285.00,0.0013
2284.00,0.0012
2283.00,0.0011
2282.00,0.0011
2281.00,0.0010
2280.00,0.0010
2279.00,0.0010
2278.00,0.0010
2277.00,0.0010
2276.00,0.0009
2275.00,0.0009
2274.00,0.0009
2273.00,0.0009
2272.00,0.0010
2271.00,0.0011
2270.00,0.0012
2269.00,0.0012
2268.00,0.0011
2267.00,0.0008
2266.00,0.0006
2265.00,0.0005
2264.00,0.0006
2263.00,0.0007
2262.00,0.0008
2261.00,0.0008
2260.00,0.0008
2259.00,0.0008
2258.00,0.0008
2257.00,0.0008
2256.00,0.0007
2255.00,0.0006
2254.00,0.0005
2253.00,0.0005
2252.00,0.0004
2251.00,0.0004
2250.00,0.0004
2249.00,0.0004
2248.00,0.0005
2247.00,0.0005
2246.00,0.0006
2245.00,0.0006
2244.00,0.0007
2243.00,0.0006
2242.00,0.0006
2241.00,0.0005
2240.00,0.0004
2239.00,0.0004
2238.00,0.0004
2237.00,0.0004
2236.00,0.0004
2235.00,0.0004
2234.00,0.0004
2233.00,0.0004
2232.00,0.0005
2231.00,0.0006
2230.00,0.0008
2229.00,0.0009
2228.00,0.0009
2227.00,0.0007
2226.00,0.0004
2225.00,0.0003
2224.00,0.0002
2223.00,0.0003
2222.00,0.0004
2221.00,0.0005
2220.00,0.0006
2219.00,0.0006
2218.00,0.0006
2217.00,0.0006
2216.00,0.0005
2215.00,0.0005
2214.00,0.0004
2213.00,0.0003
2212.00,0.0002
2211.00,0.0001
2210.00,0.0000
2209.00,0.0001
2208.00,0.0003
2207.00,0.0003
2206.00,0.0003
2205.00,0.0003
2204.00,0.0004
2203.00,0.0004
2202.00,0.0003
2201.00,0.0003
2200.00,0.0004
2199.00,0.0005
2198.00,0.0006
2197.00,0.0007
2196.00,0.0007
2195.00,0.0006
2194.00,0.0004
2193.00,0.0002
2192.00,0.0002
2191.00,0.0002
2190.00,0.0003
2189.00,0.0004
2188.00,0.0004
2187.00,0.0005
2186.00,0.0005
2185.00,0.0005
2184.00,0.0003
2183.00,-0.0001
2182.00,-0.0003
2181.00,-0.0004
2180.00,-0.0002
2179.00,0.0001
2178.00,0.0002
2177.00,0.0002
2176.00,0.0001
2175.00,-0.0000
2174.00,-0.0001
2173.00,-0.0001
2172.00,0.0001
2171.00,0.0004
2170.00,0.0008
2169.00,0.0013
2168.00,0.0016
2167.00,0.0017
2166.00,0.0019
2165.00,0.0021
2164.00,0.0024
2163.00,0.0027
2162.00,0.0026
2161.00,0.0018
2160.00,0.0004
2159.00,-0.0013
2158.00,-0.0027
2157.00,-0.0033
2156.00,-0.0031
2155.00,-0.0027
2154.00,-0.0024
2153.00,-0.0022
2152.00,-0.0020
2151.00,-0.0019
2150.00,-0.0018
2149.00,-0.0018
2148.00,-0.0019
2147.00,-0.0018
2146.00,-0.0016
2145.00,-0.0013
2144.00,-0.0012
2143.00,-0.0013
2142.00,-0.0014
2141.00,-0.0015
2140.00,-0.0015
2139.00,-0.0015
2138.00,-0.0015
2137.00,-0.0016
2136.00,-0.0017
2135.00,-0.0018
2134.00,-0.0019
2133.00,-0.0018
2132.00,-0.0017
2131.00,-0.0016
2130.00,-0.0014
2129.00,-0.0013
2128.00,-0.0011
2127.00,-0.0010
2126.00,-0.0008
2125.00,-0.0007
2124.00,-0.0006
2123.00,-0.0006
2122.00,-0.0006
2121.00,-0.0006
2120.00,-0.0006
2119.00,-0.0006
2118.00,-0.0006
2117.00,-0.0004
2116.00,-0.0002
2115.00,-0.0001
2114.00,0.0000
2113.00,0.0001
2112.00,0.0001
2111.00,0.0002
2110.00,0.0001
2109.00,0.0001
2108.00,-0.0000
2107.00,-0.0001
2106.00,-0.0002
2105.00,-0.0002
2104.00,-0.0001
2103.00,0.0000
2102.00,0.0001
2101.00,0.0002
2100.00,0.0002
2099.00,0.0001
2098.00,-0.0002
2097.00,-0.0004
2096.00,-0.0005
2095.00,-0.0006
2094.00,-0.0005
2093.00,-0.0005
2092.00,-0.0004
2091.00,-0.0003
2090.00,-0.0002
2089.00,-0.0001
2088.00,0.0000
2087.00,0.0001
2086.00,0.0001
2085.00,-0.0000
2084.00,-0.0002
2083.00,-0.0003
2082.00,-0.0004
2081.00,-0.0003
2080.00,-0.0002
2079.00,-0.0000
2078.00,0.0001
2077.00,0.0001
2076.00,0.0002
2075.00,0.0002
2074.00,0.0002
2073.00,0.0001
2072.00,0.0001
2071.00,0.0000
2070.00,-0.0001
2069.00,-0.0002
2068.00,-0.0002
2067.00,-0.0003
2066.00,-0.0003
2065.00,-0.0002
2064.00,-0.0002
2063.00,-0.0002
2062.00,-0.0002
2061.00,-0.0003
2060.00,-0.0003
2059.00,-0.0004
2058.00,-0.0003
2057.00,-0.0002
2056.00,-0.0001
2055.00,-0.0000
2054.00,0.0001
2053.00,0.0005
2052.00,0.0009
2051.00,0.0013
2050.00,0.0014
2049.00,0.0012
2048.00,0.0008
2047.00,0.0005
2046.00,0.0003
2045.00,0.0003
2044.00,0.0003
2043.00,0.0003
2042.00,0.0002
2041.00,0.0002
2040.00,0.0003
2039.00,0.0005
2038.00,0.0006
2037.00,0.0004
2036.00,0.0001
2035.00,-0.0004
2034.00,-0.0009
2033.00,-0.0012
2032.00,-0.0013
2031.00,-0.0014
2030.00,-0.0014
2029.00,-0.0015
2028.00,-0.0016
2027.00,-0.0016
2026.00,-0.0016
2025.00,-0.0017
2024.00,-0.0018
2023.00,-0.0019
2022.00,-0.0019
2021.00,-0.0018
2020.00,-0.0016
2019.00,-0.0015
2018.00,-0.0013
2017.00,-0.0011
2016.00,-0.0010
2015.00,-0.0010
2014.00,-0.0011
2013.00,-0.0011
2012.00,-0.0011
2011.00,-0.0011
2010.00,-0.0012
2009.00,-0.0016
2008.00,-0.0020
2007.00,-0.0024
2006.00,-0.0026
2005.00,-0.0025
2004.00,-0.0022
2003.00,-0.0019
2002.00,-0.0015
2001.00,-0.0013
2000.00,-0.0011
1999.00,-0.0011
1998.00,-0.0010
1997.00,-0.0010
1996.00,-0.0010
1995.00,-0.0011
1994.00,-0.0011
1993.00,-0.0009
1992.00,-0.0006
1991.00,-0.0004
1990.00,-0.0004
1989.00,-0.0006
1988.00,-0.0009
1987.00,-0.0009
1986.00,-0.0009
1985.00,-0.0006
1984.00,-0.0003
1983.00,0.0001
1982.00,0.0005
1981.00,0.0009
1980.00,0.0009
1979.00,0.0004
1978.00,-0.0004
1977.00,-0.0013
1976.00,-0.0018
1975.00,-0.0021
1974.00,-0.0021
1973.00,-0.0019
1972.00,-0.0018
1971.00,-0.0017
1970.00,-0.0016
1969.00,-0.0014
1968.00,-0.0013
1967.00,-0.0011
1966.00,-0.0010
1965.00,-0.0009
1964.00,-0.0010
1963.00,-0.0013
1962.00,-0.0017
1961.00,-0.0020
1960.00,-0.0021
1959.00,-0.0020
1958.00,-0.0019
1957.00,-0.0018
1956.00,-0.0016
1955.00,-0.0016
1954.00,-0.0017
1953.00,-0.0017
1952.00,-0.0016
1951.00,-0.0015
1950.00,-0.0013
1949.00,-0.0012
1948.00,-0.0013
1947.00,-0.0014
1946.00,-0.0014
1945.00,-0.0014
1944.00,-0.0014
1943.00,-0.0014
1942.00,-0.0014
1941.00,-0.0012
1940.00,-0.0011
1939.00,-0.0010
1938.00,-0.0010
1937.00,-0.0012
1936.00,-0.0014
1935.00,-0.0015
1934.00,-0.0015
1933.00,-0.0014
1932.00,-0.0013
1931.00,-0.0013
1930.00,-0.0012
1929.00,-0.0011
1928.00,-0.0010
1927.00,-0.0009
1926.00,-0.0009
1925.00,-0.0009
1924.00,-0.0010
1923.00,-0.0010
1922.00,-0.0009
1921.00,-0.0008
1920.00,-0.0006
1919.00,-0.0005
1918.00,-0.0004
1917.00,-0.0003
1916.00,-0.0003
1915.00,-0.0003
1914.00,-0.0003
1913.00,-0.0003
1912.00,-0.0003
1911.00,-0.0003
1910.00,-0.0003
1909.00,-0.0002
1908.00,-0.0001
1907.00,-0.0001
1906.00,-0.0001
1905.00,-0.0002
1904.00,-0.0003
1903.00,-0.0003
1902.00,-0.0003
1901.00,-0.0003
1900.00,-0.0003
1899.00,-0.0002
1898.00,-0.0002
1897.00,-0.0002
1896.00,-0.0003
1895.00,-0.0003
1894.00,-0.0003
1893.00,-0.0002
1892.00,-0.0001
1891.00,-0.0000
1890.00,0.0000
1889.00,-0.0000
1888.00,-0.0001
1887.00,-0.0003
1886.00,-0.0004
1885.00,-0.0004
1884.00,-0.0004
1883.00,-0.0003
1882.00,-0.0002
1881.00,-0.0002
1880.00,-0.0002
1879.00,-0.0003
1878.00,-0.0004
1877.00,-0.0004
1876.00,-0.0004
1875.00,-0.0004
1874.00,-0.0004
1873.00,-0.0003
1872.00,-0.0004
1871.00,-0.0004
1870.00,-0.0005
1869.00,-0.0005
1868.00,-0.0005
1867.00,-0.0004
1866.00,-0.0003
1865.00,-0.0002
1864.00,-0.0001
1863.00,-0.0001
1862.00,-0.0001
1861.00,-0.0000
1860.00,0.0000
1859.00,0.0000
1858.00,0.0000
1857.00,-0.0000
1856.00,-0.0000
1855.00,-0.0000
1854.00,-0.0000
1853.00,-0.0001
1852.00,-0.0001
1851.00,-0.0001
1850.00,-0.0001
1849.00,-0.0001
1848.00,-0.0001
1847.00,-0.0001
1846.00,-0.0001
1845.00,-0.0001
1844.00,-0.0000
1843.00,0.0001
1842.00,0.0001
1841.00,0.0002
1840.00,0.0002
1839.00,0.0001
1838.00,0.0001
1837.00,0.0001
1836.00,0.0001
1835.00,0.0001
1834.00,0.0001
1833.00,0.0001
1832.00,0.0002
1831.00,0.0002
1830.00,0.0002
1829.00,0.0002
1828.00,0.0001
1827.00,0.0000
1826.00,0.0001
1825.00,0.0002
1824.00,0.0003
1823.00,0.0003
1822.00,0.0003
1821.00,0.0002
1820.00,0.0002
1819.00,0.0000
1818.00,-0.0001
1817.00,-0.0002
1816.00,-0.0002
1815.00,-0.0002
1814.00,-0.0002
1813.00,-0.0001
1812.00,-0.0000
1811.00,0.0001
1810.00,0.0001
1809.00,0.0001
1808.00,0.0002
1807.00,0.0002
1806.00,0.0002
1805.00,0.0001
1804.00,0.0001
1803.00,0.0001
1802.00,0.0001
1801.00,0.0002
1800.00,0.0003
1799.00,0.0003
1798.00,0.0003
1797.00,0.0003
1796.00,0.0003
1795.00,0.0003
1794.00,0.0003
1793.00,0.0003
1792.00,0.0004
1791.00,0.0004
1790.00,0.0005
1789.00,0.0005
1788.00,0.0005
1787.00,0.0005
1786.00,0.0005
1785.00,0.0006
1784.00,0.0006
1783.00,0.0006
1782.00,0.0006
1781.00,0.0006
1780.00,0.0006
1779.00,0.0006
1778.00,0.0005
1777.00,0.0005
1776.00,0.0005
1775.00,0.0006
1774.00,0.0006
1773.00,0.0007
1772.00,0.0008
1771.00,0.0009
1770.00,0.0009
1769.00,0.0009
1768.00,0.0009
1767.00,0.0008
1766.00,0.0008
1765.00,0.0009
1764.00,0.0009
1763.00,0.0010
1762.00,0.0010
1761.00,0.0010
1760.00,0.0010
1759.00,0.0010
1758.00,0.0010
1757.00,0.0010
1756.00,0.0010
1755.00,0.0011
1754.00,0.0011
1753.00,0.0012
1752.00,0.0012
1751.00,0.0013
1750.00,0.0013
1749.00,0.0014
1748.00,0.0016
1747.00,0.0017
1746.00,0.0018
1745.00,0.0018
1744.00,0.0019
1743.00,0.0019
1742.00,0.0019
1741.00,0.0019
1740.00,0.0020
1739.00,0.0020
1738.00,0.0020
1737.00,0.0021
1736.00,0.0021
1735.00,0.0021
1734.00,0.0021
1733.00,0.0022
1732.00,0.0022
1731.00,0.0022
1730.00,0.0022
1729.00,0.0022
1728.00,0.0023
1727.00,0.0023
1726.00,0.0023
1725.00,0.0023
1724.00,0.0023
1723.00,0.0024
1722.00,0.0024
1721.00,0.0023
1720.00,0.0023
1719.00,0.0023
1718.00,0.0022
1717.00,0.0021
1716.00,0.0021
1715.00,0.0020
1714.00,0.0020
1713.00,0.0020
1712.00,0.0020
1711.00,0.0020
1710.00,0.0020
1709.00,0.0020
1708.00,0.0020
1707.00,0.0021
1706.00,0.0021
1705.00,0.0021
1704.00,0.0021
1703.00,0.0021
1702.00,0.0021
1701.00,0.0021
1700.00,0.0021
1699.00,0.0022
1698.00,0.0022
1697.00,0.0022
1696.00,0.0023
1695.00,0.0023
1694.00,0.0023
1693.00,0.0024
1692.00,0.0024
1691.00,0.0024
1690.00,0.0025
1689.00,0.0026
1688.00,0.0026
1687.00,0.0027
1686.00,0.0027
1685.00,0.0027
1684.00,0.0027
1683.00,0.0028
1682.00,0.0029
1681.00,0.0029
1680.00,0.0030
1679.00,0.0030
1678.00,0.0031
1677.00,0.0031
1676.00,0.0032
1675.00,0.0032
1674.00,0.0031
1673.00,0.0032
1672.00,0.0032
1671.00,0.0033
1670.00,0.0033
1669.00,0.0033
1668.00,0.0033
1667.00,0.0034
1666.00,0.0034
1665.00,0.0034
1664.00,0.0034
1663.00,0.0034
1662.00,0.0035
1661.00,0.0035
1660.00,0.0036
1659.00,0.0036
1658.00,0.0036
1657.00,0.0037
1656.00,0.0037
1655.00,0.0037
1654.00,0.0037
1653.00,0.0038
1652.00,0.0039
1651.00,0.0039
1650.00,0.0039
1649.00,0.0039
1648.00,0.0039
1647.00,0.0040
1646.00,0.0041
1645.00,0.0041
1644.00,0.0042
1643.00,0.0042
1642.00,0.0042
1641.00,0.0043
1640.00,0.0043
1639.00,0.0044
1638.00,0.0045
1637.00,0.0046
1636.00,0.0046
1635.00,0.0046
1634.00,0.0046
1633.00,0.0045
1632.00,0.0045
1631.00,0.0044
1630.00,0.0044
1629.00,0.0043
1628.00,0.0043
1627.00,0.0042
1626.00,0.0042
1625.00,0.0042
1624.00,0.0042
1623.00,0.0042
1622.00,0.0041
1621.00,0.0040
1620.00,0.0040
1619.00,0.0040
1618.00,0.0040
1617.00,0.0040
1616.00,0.0040
1615.00,0.0040
1614.00,0.0040
1613.00,0.0040
1612.00,0.0040
1611.00,0.0041
1610.00,0.0041
1609.00,0.0041
1608.00,0.0040
1607.00,0.0040
1606.00,0.0039
1605.00,0.0039
1604.00,0.0039
1603.00,0.0038
1602.00,0.0038
1601.00,0.0038
1600.00,0.0038
1599.00,0.0038
1598.00,0.0038
1597.00,0.0038
1596.00,0.0037
1595.00,0.0037
1594.00,0.0037
1593.00,0.0037
1592.00,0.0037
1591.00,0.0037
1590.00,0.0036
1589.00,0.0036
1588.00,0.0036
1587.00,0.0035
1586.00,0.0034
1585.00,0.0034
1584.00,0.0034
1583.00,0.0033
1582.00,0.0033
1581.00,0.0032
1580.00,0.0032
1579.00,0.0032
1578.00,0.0032
1577.00,0.0032
1576.00,0.0032
1575.00,0.0032
1574.00,0.0032
1573.00,0.0033
1572.00,0.0035
1571.00,0.0036
1570.00,0.0038
1569.00,0.0039
1568.00,0.0040
1567.00,0.0041
1566.00,0.0042
1565.00,0.0042
1564.00,0.0043
1563.00,0.0043
1562.00,0.0044
1561.00,0.0045
1560.00,0.0045
1559.00,0.0045
1558.00,0.0044
1557.00,0.0044
1556.00,0.0045
1555.00,0.0045
1554.00,0.0045
1553.00,0.0045
1552.00,0.0045
1551.00,0.0045
1550.00,0.0045
1549.00,0.0045
1548.00,0.0045
1547.00,0.0044
1546.00,0.0043
1545.00,0.0042
1544.00,0.0041
1543.00,0.0040
1542.00,0.0038
1541.00,0.0037
1540.00,0.0036
1539.00,0.0035
1538.00,0.0035
1537.00,0.0036
1536.00,0.0037
1535.00,0.0038
1534.00,0.0038
1533.00,0.0039
1532.00,0.0039
1531.00,0.0039
1530.00,0.0039
1529.00,0.0040
1528.00,0.0041
1527.00,0.0041
1526.00,0.0041
1525.00,0.0042
1524.00,0.0042
1523.00,0.0042
1522.00,0.0042
1521.00,0.0043
1520.00,0.0044
1519.00,0.0045
1518.00,0.0045
1517.00,0.0045
1516.00,0.0045
1515.00,0.0045
1514.00,0.0046
1513.00,0.0047
1512.00,0.0048
1511.00,0.0049
1510.00,0.0050
1509.00,0.0051
1508.00,0.0051
1507.00,0.0052
1506.00,0.0053
1505.00,0.0054
1504.00,0.0056
1503.00,0.0058
1502.00,0.0060
1501.00,0.0062
1500.00,0.0064
1499.00,0.0066
1498.00,0.0068
1497.00,0.0071
1496.00,0.0074
1495.00,0.0076
1494.00,0.0078
1493.00,0.0081
1492.00,0.0085
1491.00,0.0088
1490.00,0.0092
1489.00,0.0097
1488.00,0.0102
1487.00,0.0107
1486.00,0.0111
1485.00,0.0117
1484.00,0.0124
1483.00,0.0130
1482.00,0.0138
1481.00,0.0148
1480.00,0.0159
1479.00,0.0171
1478.00,0.0185
1477.00,0.0206
1476.00,0.0232
1475.00,0.0262
1474.00,0.0303
1473.00,0.0359
1472.00,0.0426
1471.00,0.0493
1470.00,0.0558
1469.00,0.0627
1468.00,0.0703
1467.00,0.0785
1466.00,0.0879
1465.00,0.0978
1464.00,0.1064
1463.00,0.1124
1462.00,0.1162
1461.00,0.1186
1460.00,0.1202
1459.00,0.1210
1458.00,0.1212
1457.00,0.1209
1456.00,0.1200
1455.00,0.1185
1454.00,0.1169
1453.00,0.1147
1452.00,0.1115
1451.00,0.1072
1450.00,0.1017
1449.00,0.0944
1448.00,0.0854
1447.00,0.0761
1446.00,0.0677
1445.00,0.0607
1444.00,0.0546
1443.00,0.0497
1442.00,0.0460
1441.00,0.0435
1440.00,0.0420
1439.00,0.0416
1438.00,0.0419
1437.00,0.0423
1436.00,0.0415
1435.00,0.0392
1434.00,0.0356
1433.00,0.0312
1432.00,0.0267
1431.00,0.0226
1430.00,0.0195
1429.00,0.0171
1428.00,0.0154
1427.00,0.0144
1426.00,0.0137
1425.00,0.0130
1424.00,0.0124
1423.00,0.0120
1422.00,0.0118
1421.00,0.0115
1420.00,0.0113
1419.00,0.0110
1418.00,0.0109
1417.00,0.0106
1416.00,0.0104
1415.00,0.0102
1414.00,0.0101
1413.00,0.0100
1412.00,0.0098
1411.00,0.0097
1410.00,0.0097
1409.00,0.0096
1408.00,0.0096
1407.00,0.0096
1406.00,0.0098
1405.00,0.0098
1404.00,0.0098
1403.00,0.0099
1402.00,0.0101
1401.00,0.0102
1400.00,0.0103
1399.00,0.0106
1398.00,0.0108
1397.00,0.0110
1396.00,0.0112
1395.00,0.0116
1394.00,0.0121
1393.00,0.0126
1392.00,0.0131
1391.00,0.0138
1390.00,0.0149
1389.00,0.0163
1388.00,0.0184
1387.00,0.0215
1386.00,0.0258
1385.00,0.0313
1384.00,0.0391
1383.00,0.0501
1382.00,0.0652
1381.00,0.0850
1380.00,0.1101
1379.00,0.1393
1378.00,0.1683
1377.00,0.1904
1376.00,0.1989
1375.00,0.1899
1374.00,0.1662
1373.00,0.1368
1372.00,0.1096
1371.00,0.0871
1370.00,0.0693
1369.00,0.0559
1368.00,0.0468
1367.00,0.0411
1366.00,0.0381
1365.00,0.0369
1364.00,0.0371
1363.00,0.0385
1362.00,0.0408
1361.00,0.0432
1360.00,0.0450
1359.00,0.0456
1358.00,0.0446
1357.00,0.0419
1356.00,0.0381
1355.00,0.0339
1354.00,0.0298
1353.00,0.0263
1352.00,0.0235
1351.00,0.0211
1350.00,0.0192
1349.00,0.0177
1348.00,0.0164
1347.00,0.0154
1346.00,0.0145
1345.00,0.0138
1344.00,0.0131
1343.00,0.0126
1342.00,0.0122
1341.00,0.0118
1340.00,0.0115
1339.00,0.0113
1338.00,0.0112
1337.00,0.0112
1336.00,0.0113
1335.00,0.0115
1334.00,0.0118
1333.00,0.0122
1332.00,0.0127
1331.00,0.0130
1330.00,0.0131
1329.00,0.0130
1328.00,0.0126
1327.00,0.0121
1326.00,0.0115
1325.00,0.0109
1324.00,0.0103
1323.00,0.0098
1322.00,0.0093
1321.00,0.0090
1320.00,0.0087
1319.00,0.0086
1318.00,0.0084
1317.00,0.0083
1316.00,0.0083
1315.00,0.0083
1314.00,0.0083
1313.00,0.0083
1312.00,0.0084
1311.00,0.0085
1310.00,0.0088
1309.00,0.0092
1308.00,0.0099
1307.00,0.0108
1306.00,0.0116
1305.00,0.0122
1304.00,0.0125
1303.00,0.0124
1302.00,0.0121
1301.00,0.0119
1300.00,0.0119
1299.00,0.0120
1298.00,0.0121
1297.00,0.0122
1296.00,0.0122
1295.00,0.0121
1294.00,0.0117
1293.00,0.0112
1292.00,0.0106
1291.00,0.0101
1290.00,0.0096
1289.00,0.0092
1288.00,0.0089
1287.00,0.0087
1286.00,0.0085
1285.00,0.0083
1284.00,0.0082
1283.00,0.0080
1282.00,0.0079
1281.00,0.0078
1280.00,0.0076
1279.00,0.0075
1278.00,0.0074
1277.00,0.0074
1276.00,0.0074
1275.00,0.0074
1274.00,0.0074
1273.00,0.0074
1272.00,0.0075
1271.00,0.0075
1270.00,0.0075
1269.00,0.0076
1268.00,0.0077
1267.00,0.0078
1266.00,0.0080
1265.00,0.0081
1264.00,0.0083
1263.00,0.0085
1262.00,0.0087
1261.00,0.0090
1260.00,0.0094
1259.00,0.0099
1258.00,0.0104
1257.00,0.0108
1256.00,0.0110
1255.00,0.0108
1254.00,0.0104
1253.00,0.0098
1252.00,0.0092
1251.00,0.0086
1250.00,0.0082
1249.00,0.0079
1248.00,0.0076
1247.00,0.0074
1246.00,0.0072
1245.00,0.0070
1244.00,0.0069
1243.00,0.0067
1242.00,0.0066
1241.00,0.0065
1240.00,0.0065
1239.00,0.0064
1238.00,0.0063
1237.00,0.0062
1236.00,0.0061
1235.00,0.0061
1234.00,0.0061
1233.00,0.0061
1232.00,0.0061
1231.00,0.0061
1230.00,0.0062
1229.00,0.0064
1228.00,0.0065
1227.00,0.0067
1226.00,0.0070
1225.00,0.0072
1224.00,0.0075
1223.00,0.0078
1222.00,0.0081
1221.00,0.0084
1220.00,0.0086
1219.00,0.0087
1218.00,0.0086
1217.00,0.0084
1216.00,0.0081
1215.00,0.0078
1214.00,0.0075
1213.00,0.0072
1212.00,0.0069
1211.00,0.0067
1210.00,0.0065
1209.00,0.0064
1208.00,0.0062
1207.00,0.0061
1206.00,0.0061
1205.00,0.0060
1204.00,0.0059
1203.00,0.0059
1202.00,0.0058
1201.00,0.0058
1200.00,0.0058
1199.00,0.0057
1198.00,0.0057
1197.00,0.0057
1196.00,0.0057
1195.00,0.0057
1194.00,0.0057
1193.00,0.0057
1192.00,0.0056
1191.00,0.0056
1190.00,0.0056
1189.00,0.0055
1188.00,0.0055
1187.00,0.0056
1186.00,0.0057
1185.00,0.0059
1184.00,0.0060
1183.00,0.0062
1182.00,0.0063
1181.00,0.0065
1180.00,0.0067
1179.00,0.0071
1178.00,0.0077
1177.00,0.0083
1176.00,0.0092
1175.00,0.0104
1174.00,0.0120
1173.00,0.0139
1172.00,0.0162
1171.00,0.0187
1170.00,0.0211
1169.00,0.0230
1168.00,0.0242
1167.00,0.0245
1166.00,0.0241
1165.00,0.0232
1164.00,0.0221
1163.00,0.0211
1162.00,0.0202
1161.00,0.0195
1160.00,0.0190
1159.00,0.0187
1158.00,0.0184
1157.00,0.0183
1156.00,0.0182
1155.00,0.0182
1154.00,0.0182
1153.00,0.0181
1152.00,0.0178
1151.00,0.0172
1150.00,0.0164
1149.00,0.0155
1148.00,0.0147
1147.00,0.0138
1146.00,0.0130
1145.00,0.0122
1144.00,0.0115
1143.00,0.0108
1142.00,0.0102
1141.00,0.0096
1140.00,0.0090
1139.00,0.0085
1138.00,0.0081
1137.00,0.0078
1136.00,0.0075
1135.00,0.0073
1134.00,0.0071
1133.00,0.0070
1132.00,0.0069
1131.00,0.0068
1130.00,0.0068
1129.00,0.0069
1128.00,0.0069
1127.00,0.0069
1126.00,0.0070
1125.00,0.0071
1124.00,0.0072
1123.00,0.0073
1122.00,0.0074
1121.00,0.0074
1120.00,0.0075
1119.00,0.0076
1118.00,0.0077
1117.00,0.0077
1116.00,0.0078
1115.00,0.0078
1114.00,0.0078
1113.00,0.0078
1112.00,0.0080
1111.00,0.0083
1110.00,0.0087
1109.00,0.0093
1108.00,0.0099
1107.00,0.0106
1106.00,0.0113
1105.00,0.0119
1104.00,0.0124
1103.00,0.0126
1102.00,0.0126
1101.00,0.0122
1100.00,0.0116
1099.00,0.0109
1098.00,0.0102
1097.00,0.0097
1096.00,0.0093
1095.00,0.0090
1094.00,0.0086
1093.00,0.0083
1092.00,0.0080
1091.00,0.0078
1090.00,0.0078
1089.00,0.0077
1088.00,0.0076
1087.00,0.0075
1086.00,0.0074
1085.00,0.0074
1084.00,0.0074
1083.00,0.0074
1082.00,0.0073
1081.00,0.0073
1080.00,0.0073
1079.00,0.0073
1078.00,0.0072
1077.00,0.0072
1076.00,0.0072
1075.00,0.0071
1074.00,0.0070
1073.00,0.0070
1072.00,0.0070
1071.00,0.0070
1070.00,0.0071
1069.00,0.0071
1068.00,0.0071
1067.00,0.0071
1066.00,0.0071
1065.00,0.0072
1064.00,0.0072
1063.00,0.0071
1062.00,0.0071
1061.00,0.0071
1060.00,0.0072
1059.00,0.0072
1058.00,0.0074
1057.00,0.0075
1056.00,0.0077
1055.00,0.0078
1054.00,0.0081
1053.00,0.0083
1052.00,0.0086
1051.00,0.0089
1050.00,0.0093
1049.00,0.0097
1048.00,0.0100
1047.00,0.0103
1046.00,0.0105
1045.00,0.0107
1044.00,0.0108
1043.00,0.0109
1042.00,0.0108
1041.00,0.0108
1040.00,0.0107
1039.00,0.0106
1038.00,0.0106
1037.00,0.0106
1036.00,0.0105
1035.00,0.0104
1034.00,0.0103
1033.00,0.0102
1032.00,0.0102
1031.00,0.0101
1030.00,0.0101
1029.00,0.0102
1028.00,0.0103
1027.00,0.0105
1026.00,0.0108
1025.00,0.0110
1024.00,0.0113
1023.00,0.0115
1022.00,0.0117
1021.00,0.0119
1020.00,0.0119
1019.00,0.0119
1018.00,0.0119
1017.00,0.0119
1016.00,0.0119
1015.00,0.0118
1014.00,0.0118
1013.00,0.0117
1012.00,0.0117
1011.00,0.0117
1010.00,0.0117
1009.00,0.0118
1008.00,0.0120
1007.00,0.0123
1006.00,0.0129
1005.00,0.0137
1004.00,0.0149
1003.00,0.0165
1002.00,0.0187
1001.00,0.0213
1000.00,0.0241
999.00,0.0263
998.00,0.0273
997.00,0.0266
996.00,0.0244
995.00,0.0215
994.00,0.0186
993.00,0.0161
992.00,0.0142
991.00,0.0127
990.00,0.0117
989.00,0.0110
988.00,0.0107
987.00,0.0105
986.00,0.0105
985.00,0.0107
984.00,0.0111
983.00,0.0117
982.00,0.0126
981.00,0.0139
980.00,0.0157
979.00,0.0181
978.00,0.0211
977.00,0.0246
976.00,0.0281
975.00,0.0313
974.00,0.0333
973.00,0.0337
972.00,0.0322
971.00,0.0291
970.00,0.0252
969.00,0.0214
968.00,0.0181
967.00,0.0155
966.00,0.0137
965.00,0.0123
964.00,0.0114
963.00,0.0106
962.00,0.0100
961.00,0.0094
960.00,0.0090
959.00,0.0087
958.00,0.0084
957.00,0.0082
956.00,0.0080
955.00,0.0079
954.00,0.0078
953.00,0.0076
952.00,0.0075
951.00,0.0075
950.00,0.0075
949.00,0.0075
948.00,0.0076
947.00,0.0077
946.00,0.0080
945.00,0.0082
944.00,0.0085
943.00,0.0089
942.00,0.0092
941.00,0.0094
940.00,0.0095
939.00,0.0092
938.00,0.0088
937.00,0.0083
936.00,0.0078
935.00,0.0074
934.00,0.0071
933.00,0.0068
932.00,0.0065
931.00,0.0063
930.00,0.0062
929.00,0.0061
928.00,0.0061
927.00,0.0062
926.00,0.0062
925.00,0.0062
924.00,0.0062
923.00,0.0061
922.00,0.0060
921.00,0.0059
920.00,0.0058
919.00,0.0058
918.00,0.0060
917.00,0.0061
916.00,0.0063
915.00,0.0064
914.00,0.0065
913.00,0.0066
912.00,0.0067
911.00,0.0069
910.00,0.0071
909.00,0.0072
908.00,0.0075
907.00,0.0079
906.00,0.0087
905.00,0.0098
904.00,0.0114
903.00,0.0133
902.00,0.0154
901.00,0.0172
900.00,0.0184
899.00,0.0187
898.00,0.0179
897.00,0.0163
896.00,0.0143
895.00,0.0124
894.00,0.0108
893.00,0.0096
892.00,0.0087
891.00,0.0081
890.00,0.0076
889.00,0.0074
888.00,0.0072
887.00,0.0072
886.00,0.0072
885.00,0.0071
884.00,0.0071
883.00,0.0069
882.00,0.0068
881.00,0.0067
880.00,0.0067
879.00,0.0067
878.00,0.0068
877.00,0.0070
876.00,0.0071
875.00,0.0072
874.00,0.0073
873.00,0.0072
872.00,0.0072
871.00,0.0071
870.00,0.0071
869.00,0.0071
868.00,0.0073
867.00,0.0075
866.00,0.0076
865.00,0.0076
864.00,0.0076
863.00,0.0077
862.00,0.0078
861.00,0.0078
860.00,0.0079
859.00,0.0080
858.00,0.0082
857.00,0.0084
856.00,0.0086
855.00,0.0087
854.00,0.0088
853.00,0.0089
852.00,0.0089
851.00,0.0091
850.00,0.0094
849.00,0.0098
848.00,0.0104
847.00,0.0113
846.00,0.0126
845.00,0.0148
844.00,0.0179
843.00,0.0215
842.00,0.0243
841.00,0.0251
840.00,0.0234
839.00,0.0201
838.00,0.0166
837.00,0.0139
836.00,0.0122
835.00,0.0112
834.00,0.0105
833.00,0.0101
832.00,0.0097
831.00,0.0095
830.00,0.0093
829.00,0.0092
828.00,0.0090
827.00,0.0088
826.00,0.0086
825.00,0.0085
824.00,0.0084
823.00,0.0084
822.00,0.0086
821.00,0.0089
820.00,0.0093
819.00,0.0098
818.00,0.0103
817.00,0.0110
816.00,0.0119
815.00,0.0130
814.00,0.0146
813.00,0.0164
812.00,0.0184
811.00,0.0204
810.00,0.0218
809.00,0.0224
808.00,0.0220
807.00,0.0208
806.00,0.0190
805.00,0.0170
804.00,0.0152
803.00,0.0138
802.00,0.0127
801.00,0.0120
800.00,0.0114
799.00,0.0108
798.00,0.0103
797.00,0.0098
796.00,0.0094
795.00,0.0090
794.00,0.0088
793.00,0.0085
792.00,0.0082
791.00,0.0080
790.00,0.0078
789.00,0.0077
788.00,0.0075
787.00,0.0073
786.00,0.0070
785.00,0.0068
784.00,0.0066
783.00,0.0064
782.00,0.0063
781.00,0.0062
780.00,0.0061
779.00,0.0061
778.00,0.0061
777.00,0.0061
776.00,0.0060
775.00,0.0059
774.00,0.0059
773.00,0.0059
772.00,0.0059
771.00,0.0059
770.00,0.0060
769.00,0.0061
768.00,0.0061
767.00,0.0061
766.00,0.0063
765.00,0.0064
764.00,0.0065
763.00,0.0064
762.00,0.0062
761.00,0.0061
760.00,0.0059
759.00,0.0058
758.00,0.0058
757.00,0.0060
756.00,0.0062
755.00,0.0065
754.00,0.0067
753.00,0.0069
752.00,0.0071
751.00,0.0072
750.00,0.0073
749.00,0.0074
748.00,0.0075
747.00,0.0076
746.00,0.0078
745.00,0.0080
744.00,0.0081
743.00,0.0084
742.00,0.0086
741.00,0.0090
740.00,0.0095
739.00,0.0100
738.00,0.0104
737.00,0.0107
736.00,0.0110
735.00,0.0114
734.00,0.0120
733.00,0.0126
732.00,0.0134
731.00,0.0141
730.00,0.0144
729.00,0.0145
728.00,0.0143
727.00,0.0143
726.00,0.0145
725.00,0.0149
724.00,0.0155
723.00,0.0163
722.00,0.0170
721.00,0.0173
720.00,0.0170
719.00,0.0162
718.00,0.0150
717.00,0.0138
716.00,0.0128
715.00,0.0121
714.00,0.0117
713.00,0.0112
712.00,0.0108
711.00,0.0104
710.00,0.0101
709.00,0.0100
708.00,0.0099
707.00,0.0099
706.00,0.0098
705.00,0.0097
704.00,0.0095
703.00,0.0094
702.00,0.0093
701.00,0.0091
700.00,0.0088
699.00,0.0086
698.00,0.0085
697.00,0.0084
696.00,0.0084
695.00,0.0085
694.00,0.0085
693.00,0.0087
692.00,0.0090
691.00,0.0092
690.00,0.0091
689.00,0.0089
688.00,0.0087
687.00,0.0087
686.00,0.0088
685.00,0.0090
684.00,0.0090
683.00,0.0088
682.00,0.0086
681.00,0.0085
680.00,0.0085
679.00,0.0086
678.00,0.0086
677.00,0.0086
676.00,0.0086
675.00,0.0087
674.00,0.0090
673.00,0.0093
672.00,0.0095
671.00,0.0097
670.00,0.0100
669.00,0.0101
668.00,0.0101
667.00,0.0100
666.00,0.0096
665.00,0.0091
664.00,0.0088
663.00,0.0085
662.00,0.0084
661.00,0.0083
660.00,0.0083
659.00,0.0084
658.00,0.0084
657.00,0.0084
656.00,0.0083
655.00,0.0082
654.00,0.0080
653.00,0.0079
652.00,0.0078
651.00,0.0078
650.00,0.0078
649.00,0.0077
648.00,0.0077
647.00,0.0077
646.00,0.0078
645.00,0.0077
644.00,0.0075
643.00,0.0074
642.00,0.0073
641.00,0.0073
640.00,0.0073
639.00,0.0072
638.00,0.0072
637.00,0.0072
636.00,0.0073
635.00,0.0074
634.00,0.0076
633.00,0.0078
632.00,0.0078
631.00,0.0076
630.00,0.0074
629.00,0.0072
628.00,0.0071
627.00,0.0072
626.00,0.0074
625.00,0.0077
624.00,0.0079
623.00,0.0080
622.00,0.0081
621.00,0.0080
620.00,0.0078
619.00,0.0077
618.00,0.0076
617.00,0.0074
616.00,0.0071
615.00,0.0068
614.00,0.0065
613.00,0.0067
612.00,0.0070
611.00,0.0075
610.00,0.0078
609.00,0.0080
608.00,0.0080
607.00,0.0079
606.00,0.0077
605.00,0.0077
604.00,0.0078
603.00,0.0079
602.00,0.0080
601.00,0.0080
600.00,0.0080
599.00,0.0079
598.00,0.0079
597.00,0.0078
596.00,0.0076
595.00,0.0075
594.00,0.0075
593.00,0.0075
592.00,0.0074
591.00,0.0072
590.00,0.0070
589.00,0.0070
588.00,0.0071
587.00,0.0073
586.00,0.0073
585.00,0.0070
584.00,0.0065
583.00,0.0062
582.00,0.0063
581.00,0.0066
580.00,0.0069
579.00,0.0072
578.00,0.0072
577.00,0.0071
576.00,0.0069
575.00,0.0068
574.00,0.0068
573.00,0.0068
572.00,0.0069
571.00,0.0070
570.00,0.0074
569.00,0.0078
568.00,0.0082
567.00,0.0083
566.00,0.0081
565.00,0.0078
564.00,0.0077
563.00,0.0076
562.00,0.0075
561.00,0.0074
560.00,0.0073
559.00,0.0071
558.00,0.0069
557.00,0.0065
556.00,0.0062
555.00,0.0060
554.00,0.0058
553.00,0.0057
552.00,0.0060
551.00,0.0065
550.00,0.0071
549.00,0.0076
548.00,0.0079
547.00,0.0080
546.00,0.0081
545.00,0.0078
544.00,0.0074
543.00,0.0071
542.00,0.0072
541.00,0.0078
540.00,0.0088
539.00,0.0097
538.00,0.0104
537.00,0.0108
536.00,0.0109
535.00,0.0110
534.00,0.0111
533.00,0.0111
532.00,0.0109
531.00,0.0106
530.00,0.0103
529.00,0.0101
528.00,0.0101
527.00,0.0101
526.00,0.0100
525.00,0.0098
524.00,0.0094
523.00,0.0092
522.00,0.0089
521.00,0.0085
520.00,0.0081
519.00,0.0077
518.00,0.0075
517.00,0.0073
516.00,0.0071
515.00,0.0069
514.00,0.0069
513.00,0.0071
512.00,0.0073
511.00,0.0076
510.00,0.0077
509.00,0.0074
508.00,0.0069
507.00,0.0067
506.00,0.0070
505.00,0.0075
504.00,0.0082
503.00,0.0087
502.00,0.0091
501.00,0.0089
500.00,0.0083
499.00,0.0077
498.00,0.0075
497.00,0.0078
496.00,0.0082
495.00,0.0083
494.00,0.0079
493.00,0.0075
492.00,0.0074
491.00,0.0075
490.00,0.0077
489.00,0.0075
488.00,0.0072
487.00,0.0068
486.00,0.0066
485.00,0.0067
484.00,0.0073
483.00,0.0083
482.00,0.0094
481.00,0.0100
480.00,0.0100
479.00,0.0097
478.00,0.0095
477.00,0.0099
476.00,0.0109
475.00,0.0122
474.00,0.0132
473.00,0.0134
472.00,0.0127
471.00,0.0120
470.00,0.0120
469.00,0.0127
468.00,0.0138
467.00,0.0152
466.00,0.0167
465.00,0.0182
464.00,0.0196
463.00,0.0207
462.00,0.0216
461.00,0.0223
460.00,0.0225
459.00,0.0221
458.00,0.0213
457.00,0.0209
456.00,0.0212
455.00,0.0213
454.00,0.0203
453.00,0.0181
452.00,0.0156
451.00,0.0139
450.00,0.0134
