Created as New Dataset,Sample 154 By Administrator Date Wednesday, September 03 2025
cm-1,A
4000.00,0.0007
3999.00,0.0007
3998.00,0.0007
3997.00,0.0007
3996.00,0.0007
3995.00,0.0007
3994.00,0.0006
3993.00,0.0006
3992.00,0.0006
3991.00,0.0006
3990.00,0.0006
3989.00,0.0006
3988.00,0.0006
3987.00,0.0006
3986.00,0.0006
3985.00,0.0007
3984.00,0.0007
3983.00,0.0007
3982.00,0.0006
3981.00,0.0006
3980.00,0.0006
3979.00,0.0006
3978.00,0.0005
3977.00,0.0005
3976.00,0.0005
3975.00,0.0005
3974.00,0.0005
3973.00,0.0005
3972.00,0.0005
3971.00,0.0005
3970.00,0.0005
3969.00,0.0005
3968.00,0.0005
3967.00,0.0005
3966.00,0.0006
3965.00,0.0006
3964.00,0.0005
3963.00,0.0005
3962.00,0.0005
3961.00,0.0005
3960.00,0.0005
3959.00,0.0005
3958.00,0.0005
3957.00,0.0005
3956.00,0.0005
3955.00,0.0005
3954.00,0.0004
3953.00,0.0004
3952.00,0.0004
3951.00,0.0005
3950.00,0.0005
3949.00,0.0005
3948.00,0.0005
3947.00,0.0005
3946.00,0.0005
3945.00,0.0005
3944.00,0.0005
3943.00,0.0005
3942.00,0.0005
3941.00,0.0005
3940.00,0.0005
3939.00,0.0005
3938.00,0.0005
3937.00,0.0005
3936.00,0.0005
3935.00,0.0005
3934.00,0.0005
3933.00,0.0006
3932.00,0.0006
3931.00,0.0006
3930.00,0.0005
3929.00,0.0005
3928.00,0.0005
3927.00,0.0005
3926.00,0.0005
3925.00,0.0005
3924.00,0.0005
3923.00,0.0005
3922.00,0.0005
3921.00,0.0005
3920.00,0.0005
3919.00,0.0005
3918.00,0.0005
3917.00,0.0005
3916.00,0.0005
3915.00,0.0005
3914.00,0.0005
3913.00,0.0005
3912.00,0.0005
3911.00,0.0005
3910.00,0.0005
3909.00,0.0005
3908.00,0.0005
3907.00,0.0005
3906.00,0.0005
3905.00,0.0004
3904.00,0.0004
3903.00,0.0004
3902.00,0.0003
3901.00,0.0004
3900.00,0.0004
3899.00,0.0004
3898.00,0.0004
3897.00,0.0004
3896.00,0.0004
3895.00,0.0004
3894.00,0.0004
3893.00,0.0004
3892.00,0.0004
3891.00,0.0004
3890.00,0.0004
3889.00,0.0004
3888.00,0.0004
3887.00,0.0004
3886.00,0.0004
3885.00,0.0004
3884.00,0.0005
3883.00,0.0005
3882.00,0.0005
3881.00,0.0005
3880.00,0.0004
3879.00,0.0004
3878.00,0.0004
3877.00,0.0004
3876.00,0.0004
3875.00,0.0004
3874.00,0.0004
3873.00,0.0005
3872.00,0.0005
3871.00,0.0004
3870.00,0.0004
3869.00,0.0004
3868.00,0.0004
3867.00,0.0004
3866.00,0.0004
3865.00,0.0004
3864.00,0.0004
3863.00,0.0004
3862.00,0.0004
3861.00,0.0004
3860.00,0.0003
3859.00,0.0003
3858.00,0.0003
3857.00,0.0004
3856.00,0.0004
3855.00,0.0004
3854.00,0.0004
3853.00,0.0004
3852.00,0.0004
3851.00,0.0004
3850.00,0.0004
3849.00,0.0004
3848.00,0.0004
3847.00,0.0004
3846.00,0.0004
3845.00,0.0004
3844.00,0.0004
3843.00,0.0004
3842.00,0.0003
3841.00,0.0003
3840.00,0.0003
3839.00,0.0004
3838.00,0.0004
3837.00,0.0004
3836.00,0.0004
3835.00,0.0004
3834.00,0.0004
3833.00,0.0003
3832.00,0.0003
3831.00,0.0003
3830.00,0.0003
3829.00,0.0004
3828.00,0.0004
3827.00,0.0005
3826.00,0.0005
3825.00,0.0005
3824.00,0.0005
3823.00,0.0004
3822.00,0.0003
3821.00,0.0003
3820.00,0.0004
3819.00,0.0004
3818.00,0.0003
3817.00,0.0003
3816.00,0.0004
3815.00,0.0004
3814.00,0.0004
3813.00,0.0004
3812.00,0.0004
3811.00,0.0004
3810.00,0.0004
3809.00,0.0003
3808.00,0.0003
3807.00,0.0002
3806.00,0.0003
3805.00,0.0003
3804.00,0.0003
3803.00,0.0003
3802.00,0.0003
3801.00,0.0004
3800.00,0.0005
3799.00,0.0005
3798.00,0.0005
3797.00,0.0005
3796.00,0.0004
3795.00,0.0004
3794.00,0.0004
3793.00,0.0004
3792.00,0.0004
3791.00,0.0004
3790.00,0.0004
3789.00,0.0004
3788.00,0.0004
3787.00,0.0005
3786.00,0.0005
3785.00,0.0005
3784.00,0.0005
3783.00,0.0005
3782.00,0.0004
3781.00,0.0004
3780.00,0.0003
3779.00,0.0003
3778.00,0.0003
3777.00,0.0003
3776.00,0.0003
3775.00,0.0003
3774.00,0.0004
3773.00,0.0004
3772.00,0.0004
3771.00,0.0004
3770.00,0.0005
3769.00,0.0005
3768.00,0.0005
3767.00,0.0005
3766.00,0.0005
3765.00,0.0005
3764.00,0.0005
3763.00,0.0005
3762.00,0.0005
3761.00,0.0004
3760.00,0.0004
3759.00,0.0004
3758.00,0.0004
3757.00,0.0004
3756.00,0.0004
3755.00,0.0004
3754.00,0.0004
3753.00,0.0004
3752.00,0.0003
3751.00,0.0002
3750.00,0.0002
3749.00,0.0002
3748.00,0.0002
3747.00,0.0002
3746.00,0.0002
3745.00,0.0002
3744.00,0.0002
3743.00,0.0003
3742.00,0.0003
3741.00,0.0003
3740.00,0.0003
3739.00,0.0003
3738.00,0.0003
3737.00,0.0003
3736.00,0.0002
3735.00,0.0002
3734.00,0.0002
3733.00,0.0002
3732.00,0.0002
3731.00,0.0003
3730.00,0.0003
3729.00,0.0003
3728.00,0.0003
3727.00,0.0003
3726.00,0.0003
3725.00,0.0003
3724.00,0.0003
3723.00,0.0003
3722.00,0.0003
3721.00,0.0003
3720.00,0.0003
3719.00,0.0003
3718.00,0.0003
3717.00,0.0003
3716.00,0.0003
3715.00,0.0003
3714.00,0.0003
3713.00,0.0004
3712.00,0.0004
3711.00,0.0004
3710.00,0.0004
3709.00,0.0004
3708.00,0.0003
3707.00,0.0004
3706.00,0.0004
3705.00,0.0004
3704.00,0.0004
3703.00,0.0004
3702.00,0.0004
3701.00,0.0004
3700.00,0.0003
3699.00,0.0003
3698.00,0.0003
3697.00,0.0003
3696.00,0.0003
3695.00,0.0003
3694.00,0.0002
3693.00,0.0002
3692.00,0.0002
3691.00,0.0002
3690.00,0.0002
3689.00,0.0002
3688.00,0.0002
3687.00,0.0002
3686.00,0.0003
3685.00,0.0003
3684.00,0.0004
3683.00,0.0004
3682.00,0.0005
3681.00,0.0005
3680.00,0.0005
3679.00,0.0005
3678.00,0.0005
3677.00,0.0004
3676.00,0.0004
3675.00,0.0003
3674.00,0.0003
3673.00,0.0003
3672.00,0.0002
3671.00,0.0002
3670.00,0.0003
3669.00,0.0003
3668.00,0.0003
3667.00,0.0003
3666.00,0.0003
3665.00,0.0003
3664.00,0.0003
3663.00,0.0003
3662.00,0.0003
3661.00,0.0002
3660.00,0.0002
3659.00,0.0002
3658.00,0.0001
3657.00,0.0001
3656.00,0.0002
3655.00,0.0002
3654.00,0.0002
3653.00,0.0002
3652.00,0.0002
3651.00,0.0002
3650.00,0.0003
3649.00,0.0004
3648.00,0.0005
3647.00,0.0004
3646.00,0.0004
3645.00,0.0004
3644.00,0.0004
3643.00,0.0004
3642.00,0.0004
3641.00,0.0004
3640.00,0.0004
3639.00,0.0004
3638.00,0.0004
3637.00,0.0004
3636.00,0.0004
3635.00,0.0004
3634.00,0.0004
3633.00,0.0004
3632.00,0.0005
3631.00,0.0005
3630.00,0.0005
3629.00,0.0005
3628.00,0.0005
3627.00,0.0005
3626.00,0.0005
3625.00,0.0005
3624.00,0.0005
3623.00,0.0006
3622.00,0.0006
3621.00,0.0006
3620.00,0.0006
3619.00,0.0006
3618.00,0.0006
3617.00,0.0006
3616.00,0.0006
3615.00,0.0006
3614.00,0.0007
3613.00,0.0007
3612.00,0.0007
3611.00,0.0007
3610.00,0.0007
3609.00,0.0008
3608.00,0.0008
3607.00,0.0008
3606.00,0.0009
3605.00,0.0009
3604.00,0.0009
3603.00,0.0009
3602.00,0.0009
3601.00,0.0009
3600.00,0.0009
3599.00,0.0009
3598.00,0.0009
3597.00,0.0010
3596.00,0.0010
3595.00,0.0010
3594.00,0.0011
3593.00,0.0011
3592.00,0.0011
3591.00,0.0011
3590.00,0.0011
3589.00,0.0011
3588.00,0.0011
3587.00,0.0011
3586.00,0.0011
3585.00,0.0012
3584.00,0.0012
3583.00,0.0012
3582.00,0.0012
3581.00,0.0013
3580.00,0.0013
3579.00,0.0013
3578.00,0.0013
3577.00,0.0013
3576.00,0.0013
3575.00,0.0013
3574.00,0.0014
3573.00,0.0014
3572.00,0.0014
3571.00,0.0014
3570.00,0.0014
3569.00,0.0014
3568.00,0.0015
3567.00,0.0015
3566.00,0.0015
3565.00,0.0016
3564.00,0.0017
3563.00,0.0017
3562.00,0.0018
3561.00,0.0018
3560.00,0.0018
3559.00,0.0018
3558.00,0.0018
3557.00,0.0019
3556.00,0.0019
3555.00,0.0019
3554.00,0.0020
3553.00,0.0020
3552.00,0.0020
3551.00,0.0020
3550.00,0.0021
3549.00,0.0022
3548.00,0.0022
3547.00,0.0022
3546.00,0.0022
3545.00,0.0022
3544.00,0.0022
3543.00,0.0022
3542.00,0.0023
3541.00,0.0023
3540.00,0.0023
3539.00,0.0023
3538.00,0.0023
3537.00,0.0023
3536.00,0.0024
3535.00,0.0025
3534.00,0.0025
3533.00,0.0026
3532.00,0.0026
3531.00,0.0026
3530.00,0.0026
3529.00,0.0026
3528.00,0.0026
3527.00,0.0027
3526.00,0.0028
3525.00,0.0028
3524.00,0.0029
3523.00,0.0029
3522.00,0.0029
3521.00,0.0029
3520.00,0.0029
3519.00,0.0030
3518.00,0.0031
3517.00,0.0032
3516.00,0.0032
3515.00,0.0032
3514.00,0.0032
3513.00,0.0032
3512.00,0.0032
3511.00,0.0032
3510.00,0.0032
3509.00,0.0032
3508.00,0.0032
3507.00,0.0033
3506.00,0.0033
3505.00,0.0033
3504.00,0.0034
3503.00,0.0034
3502.00,0.0035
3501.00,0.0035
3500.00,0.0035
3499.00,0.0035
3498.00,0.0036
3497.00,0.0036
3496.00,0.0036
3495.00,0.0036
3494.00,0.0037
3493.00,0.0037
3492.00,0.0038
3491.00,0.0038
3490.00,0.0039
3489.00,0.0039
3488.00,0.0039
3487.00,0.0039
3486.00,0.0039
3485.00,0.0040
3484.00,0.0040
3483.00,0.0040
3482.00,0.0041
3481.00,0.0041
3480.00,0.0041
3479.00,0.0042
3478.00,0.0042
3477.00,0.0042
3476.00,0.0043
3475.00,0.0043
3474.00,0.0043
3473.00,0.0044
3472.00,0.0044
3471.00,0.0044
3470.00,0.0044
3469.00,0.0043
3468.00,0.0044
3467.00,0.0044
3466.00,0.0045
3465.00,0.0046
3464.00,0.0047
3463.00,0.0047
3462.00,0.0048
3461.00,0.0048
3460.00,0.0048
3459.00,0.0048
3458.00,0.0048
3457.00,0.0048
3456.00,0.0049
3455.00,0.0049
3454.00,0.0049
3453.00,0.0049
3452.00,0.0049
3451.00,0.0049
3450.00,0.0049
3449.00,0.0050
3448.00,0.0050
3447.00,0.0050
3446.00,0.0050
3445.00,0.0051
3444.00,0.0051
3443.00,0.0052
3442.00,0.0052
3441.00,0.0052
3440.00,0.0053
3439.00,0.0053
3438.00,0.0053
3437.00,0.0054
3436.00,0.0054
3435.00,0.0055
3434.00,0.0055
3433.00,0.0055
3432.00,0.0055
3431.00,0.0055
3430.00,0.0055
3429.00,0.0055
3428.00,0.0055
3427.00,0.0056
3426.00,0.0056
3425.00,0.0056
3424.00,0.0057
3423.00,0.0057
3422.00,0.0057
3421.00,0.0058
3420.00,0.0058
3419.00,0.0058
3418.00,0.0058
3417.00,0.0058
3416.00,0.0058
3415.00,0.0059
3414.00,0.0059
3413.00,0.0059
3412.00,0.0060
3411.00,0.0060
3410.00,0.0060
3409.00,0.0060
3408.00,0.0061
3407.00,0.0061
3406.00,0.0061
3405.00,0.0061
3404.00,0.0062
3403.00,0.0062
3402.00,0.0062
3401.00,0.0062
3400.00,0.0062
3399.00,0.0063
3398.00,0.0063
3397.00,0.0063
3396.00,0.0063
3395.00,0.0063
3394.00,0.0063
3393.00,0.0063
3392.00,0.0064
3391.00,0.0064
3390.00,0.0064
3389.00,0.0064
3388.00,0.0064
3387.00,0.0064
3386.00,0.0064
3385.00,0.0064
3384.00,0.0064
3383.00,0.0064
3382.00,0.0065
3381.00,0.0065
3380.00,0.0065
3379.00,0.0064
3378.00,0.0064
3377.00,0.0064
3376.00,0.0064
3375.00,0.0065
3374.00,0.0065
3373.00,0.0065
3372.00,0.0065
3371.00,0.0066
3370.00,0.0066
3369.00,0.0066
3368.00,0.0065
3367.00,0.0065
3366.00,0.0065
3365.00,0.0066
3364.00,0.0066
3363.00,0.0066
3362.00,0.0066
3361.00,0.0066
3360.00,0.0066
3359.00,0.0066
3358.00,0.0067
3357.00,0.0067
3356.00,0.0067
3355.00,0.0067
3354.00,0.0067
3353.00,0.0067
3352.00,0.0066
3351.00,0.0066
3350.00,0.0067
3349.00,0.0067
3348.00,0.0067
3347.00,0.0067
3346.00,0.0067
3345.00,0.0067
3344.00,0.0067
3343.00,0.0067
3342.00,0.0067
3341.00,0.0067
3340.00,0.0066
3339.00,0.0066
3338.00,0.0066
3337.00,0.0066
3336.00,0.0066
3335.00,0.0066
3334.00,0.0066
3333.00,0.0066
3332.00,0.0066
3331.00,0.0066
3330.00,0.0066
3329.00,0.0066
3328.00,0.0066
3327.00,0.0066
3326.00,0.0065
3325.00,0.0065
3324.00,0.0065
3323.00,0.0065
3322.00,0.0065
3321.00,0.0065
3320.00,0.0065
3319.00,0.0065
3318.00,0.0065
3317.00,0.0065
3316.00,0.0065
3315.00,0.0065
3314.00,0.0065
3313.00,0.0065
3312.00,0.0065
3311.00,0.0066
3310.00,0.0066
3309.00,0.0067
3308.00,0.0067
3307.00,0.0066
3306.00,0.0066
3305.00,0.0066
3304.00,0.0066
3303.00,0.0066
3302.00,0.0066
3301.00,0.0066
3300.00,0.0066
3299.00,0.0066
3298.00,0.0065
3297.00,0.0065
3296.00,0.0064
3295.00,0.0064
3294.00,0.0063
3293.00,0.0063
3292.00,0.0063
3291.00,0.0063
3290.00,0.0063
3289.00,0.0063
3288.00,0.0063
3287.00,0.0063
3286.00,0.0063
3285.00,0.0062
3284.00,0.0062
3283.00,0.0062
3282.00,0.0061
3281.00,0.0061
3280.00,0.0061
3279.00,0.0061
3278.00,0.0061
3277.00,0.0060
3276.00,0.0060
3275.00,0.0060
3274.00,0.0060
3273.00,0.0060
3272.00,0.0059
3271.00,0.0059
3270.00,0.0059
3269.00,0.0059
3268.00,0.0059
3267.00,0.0059
3266.00,0.0059
3265.00,0.0058
3264.00,0.0058
3263.00,0.0058
3262.00,0.0058
3261.00,0.0057
3260.00,0.0057
3259.00,0.0057
3258.00,0.0057
3257.00,0.0056
3256.00,0.0056
3255.00,0.0055
3254.00,0.0055
3253.00,0.0055
3252.00,0.0055
3251.00,0.0055
3250.00,0.0055
3249.00,0.0055
3248.00,0.0054
3247.00,0.0054
3246.00,0.0054
3245.00,0.0054
3244.00,0.0053
3243.00,0.0053
3242.00,0.0053
3241.00,0.0053
3240.00,0.0053
3239.00,0.0053
3238.00,0.0053
3237.00,0.0053
3236.00,0.0053
3235.00,0.0053
3234.00,0.0053
3233.00,0.0053
3232.00,0.0053
3231.00,0.0053
3230.00,0.0054
3229.00,0.0054
3228.00,0.0054
3227.00,0.0053
3226.00,0.0052
3225.00,0.0052
3224.00,0.0052
3223.00,0.0052
3222.00,0.0052
3221.00,0.0053
3220.00,0.0053
3219.00,0.0054
3218.00,0.0054
3217.00,0.0054
3216.00,0.0054
3215.00,0.0054
3214.00,0.0053
3213.00,0.0053
3212.00,0.0054
3211.00,0.0054
3210.00,0.0054
3209.00,0.0054
3208.00,0.0055
3207.00,0.0055
3206.00,0.0055
3205.00,0.0055
3204.00,0.0055
3203.00,0.0055
3202.00,0.0055
3201.00,0.0055
3200.00,0.0056
3199.00,0.0056
3198.00,0.0056
3197.00,0.0056
3196.00,0.0056
3195.00,0.0056
3194.00,0.0056
3193.00,0.0055
3192.00,0.0055
3191.00,0.0054
3190.00,0.0054
3189.00,0.0054
3188.00,0.0054
3187.00,0.0054
3186.00,0.0054
3185.00,0.0054
3184.00,0.0054
3183.00,0.0054
3182.00,0.0054
3181.00,0.0053
3180.00,0.0053
3179.00,0.0052
3178.00,0.0052
3177.00,0.0051
3176.00,0.0051
3175.00,0.0051
3174.00,0.0051
3173.00,0.0051
3172.00,0.0051
3171.00,0.0051
3170.00,0.0051
3169.00,0.0051
3168.00,0.0050
3167.00,0.0050
3166.00,0.0050
3165.00,0.0050
3164.00,0.0050
3163.00,0.0049
3162.00,0.0048
3161.00,0.0048
3160.00,0.0048
3159.00,0.0048
3158.00,0.0048
3157.00,0.0048
3156.00,0.0048
3155.00,0.0048
3154.00,0.0048
3153.00,0.0048
3152.00,0.0048
3151.00,0.0048
3150.00,0.0048
3149.00,0.0048
3148.00,0.0047
3147.00,0.0047
3146.00,0.0047
3145.00,0.0047
3144.00,0.0047
3143.00,0.0047
3142.00,0.0047
3141.00,0.0047
3140.00,0.0047
3139.00,0.0046
3138.00,0.0046
3137.00,0.0046
3136.00,0.0046
3135.00,0.0045
3134.00,0.0045
3133.00,0.0044
3132.00,0.0044
3131.00,0.0044
3130.00,0.0044
3129.00,0.0044
3128.00,0.0043
3127.00,0.0043
3126.00,0.0043
3125.00,0.0042
3124.00,0.0042
3123.00,0.0041
3122.00,0.0041
3121.00,0.0040
3120.00,0.0040
3119.00,0.0040
3118.00,0.0040
3117.00,0.0040
3116.00,0.0039
3115.00,0.0039
3114.00,0.0039
3113.00,0.0038
3112.00,0.0038
3111.00,0.0038
3110.00,0.0038
3109.00,0.0038
3108.00,0.0038
3107.00,0.0038
3106.00,0.0038
3105.00,0.0038
3104.00,0.0038
3103.00,0.0038
3102.00,0.0038
3101.00,0.0038
3100.00,0.0038
3099.00,0.0038
3098.00,0.0037
3097.00,0.0037
3096.00,0.0037
3095.00,0.0037
3094.00,0.0037
3093.00,0.0036
3092.00,0.0036
3091.00,0.0036
3090.00,0.0036
3089.00,0.0036
3088.00,0.0036
3087.00,0.0035
3086.00,0.0035
3085.00,0.0035
3084.00,0.0035
3083.00,0.0035
3082.00,0.0035
3081.00,0.0035
3080.00,0.0035
3079.00,0.0035
3078.00,0.0035
3077.00,0.0035
3076.00,0.0036
3075.00,0.0036
3074.00,0.0036
3073.00,0.0036
3072.00,0.0036
3071.00,0.0036
3070.00,0.0036
3069.00,0.0035
3068.00,0.0035
3067.00,0.0035
3066.00,0.0035
3065.00,0.0036
3064.00,0.0036
3063.00,0.0036
3062.00,0.0037
3061.00,0.0037
3060.00,0.0037
3059.00,0.0037
3058.00,0.0037
3057.00,0.0037
3056.00,0.0037
3055.00,0.0037
3054.00,0.0037
3053.00,0.0037
3052.00,0.0037
3051.00,0.0037
3050.00,0.0037
3049.00,0.0038
3048.00,0.0038
3047.00,0.0039
3046.00,0.0039
3045.00,0.0039
3044.00,0.0039
3043.00,0.0039
3042.00,0.0039
3041.00,0.0040
3040.00,0.0040
3039.00,0.0041
3038.00,0.0041
3037.00,0.0042
3036.00,0.0042
3035.00,0.0042
3034.00,0.0042
3033.00,0.0043
3032.00,0.0043
3031.00,0.0044
3030.00,0.0045
3029.00,0.0045
3028.00,0.0046
3027.00,0.0046
3026.00,0.0046
3025.00,0.0046
3024.00,0.0047
3023.00,0.0048
3022.00,0.0049
3021.00,0.0050
3020.00,0.0050
3019.00,0.0051
3018.00,0.0051
3017.00,0.0052
3016.00,0.0053
3015.00,0.0054
3014.00,0.0055
3013.00,0.0055
3012.00,0.0056
3011.00,0.0057
3010.00,0.0058
3009.00,0.0059
3008.00,0.0060
3007.00,0.0061
3006.00,0.0062
3005.00,0.0064
3004.00,0.0065
3003.00,0.0067
3002.00,0.0068
3001.00,0.0070
3000.00,0.0072
2999.00,0.0075
2998.00,0.0077
2997.00,0.0081
2996.00,0.0084
2995.00,0.0087
2994.00,0.0091
2993.00,0.0096
2992.00,0.0101
2991.00,0.0106
2990.00,0.0112
2989.00,0.0119
2988.00,0.0126
2987.00,0.0134
2986.00,0.0143
2985.00,0.0152
2984.00,0.0163
2983.00,0.0175
2982.00,0.0190
2981.00,0.0207
2980.00,0.0226
2979.00,0.0249
2978.00,0.0274
2977.00,0.0304
2976.00,0.0337
2975.00,0.0374
2974.00,0.0417
2973.00,0.0466
2972.00,0.0522
2971.00,0.0584
2970.00,0.0655
2969.00,0.0733
2968.00,0.0819
2967.00,0.0912
2966.00,0.1012
2965.00,0.1116
2964.00,0.1221
2963.00,0.1322
2962.00,0.1413
2961.00,0.1490
2960.00,0.1551
2959.00,0.1596
2958.00,0.1628
2957.00,0.1654
2956.00,0.1680
2955.00,0.1710
2954.00,0.1745
2953.00,0.1781
2952.00,0.1811
2951.00,0.1825
2950.00,0.1815
2949.00,0.1775
2948.00,0.1705
2947.00,0.1611
2946.00,0.1501
2945.00,0.1387
2944.00,0.1281
2943.00,0.1191
2942.00,0.1121
2941.00,0.1074
2940.00,0.1049
2939.00,0.1043
2938.00,0.1056
2937.00,0.1086
2936.00,0.1130
2935.00,0.1186
2934.00,0.1255
2933.00,0.1335
2932.00,0.1424
2931.00,0.1520
2930.00,0.1621
2929.00,0.1724
2928.00,0.1825
2927.00,0.1923
2926.00,0.2016
2925.00,0.2102
2924.00,0.2184
2923.00,0.2262
2922.00,0.2336
2921.00,0.2404
2920.00,0.2460
2919.00,0.2498
2918.00,0.2511
2917.00,0.2496
2916.00,0.2453
2915.00,0.2387
2914.00,0.2308
2913.00,0.2224
2912.00,0.2143
2911.00,0.2069
2910.00,0.2003
2909.00,0.1946
2908.00,0.1892
2907.00,0.1841
2906.00,0.1788
2905.00,0.1733
2904.00,0.1674
2903.00,0.1613
2902.00,0.1551
2901.00,0.1488
2900.00,0.1427
2899.00,0.1369
2898.00,0.1313
2897.00,0.1261
2896.00,0.1214
2895.00,0.1173
2894.00,0.1137
2893.00,0.1108
2892.00,0.1084
2891.00,0.1065
2890.00,0.1051
2889.00,0.1040
2888.00,0.1033
2887.00,0.1030
2886.00,0.1029
2885.00,0.1032
2884.00,0.1038
2883.00,0.1049
2882.00,0.1063
2881.00,0.1079
2880.00,0.1095
2879.00,0.1107
2878.00,0.1115
2877.00,0.1116
2876.00,0.1112
2875.00,0.1106
2874.00,0.1101
2873.00,0.1102
2872.00,0.1109
2871.00,0.1123
2870.00,0.1139
2869.00,0.1156
2868.00,0.1165
2867.00,0.1162
2866.00,0.1141
2865.00,0.1102
2864.00,0.1047
2863.00,0.0985
2862.00,0.0924
2861.00,0.0872
2860.00,0.0833
2859.00,0.0808
2858.00,0.0796
2857.00,0.0793
2856.00,0.0799
2855.00,0.0809
2854.00,0.0821
2853.00,0.0835
2852.00,0.0848
2851.00,0.0859
2850.00,0.0867
2849.00,0.0874
2848.00,0.0882
2847.00,0.0896
2846.00,0.0918
2845.00,0.0951
2844.00,0.0994
2843.00,0.1044
2842.00,0.1097
2841.00,0.1146
2840.00,0.1183
2839.00,0.1201
2838.00,0.1194
2837.00,0.1158
2836.00,0.1094
2835.00,0.1007
2834.00,0.0906
2833.00,0.0802
2832.00,0.0703
2831.00,0.0616
2830.00,0.0542
2829.00,0.0481
2828.00,0.0432
2827.00,0.0391
2826.00,0.0359
2825.00,0.0331
2824.00,0.0309
2823.00,0.0289
2822.00,0.0273
2821.00,0.0258
2820.00,0.0245
2819.00,0.0233
2818.00,0.0224
2817.00,0.0215
2816.00,0.0207
2815.00,0.0201
2814.00,0.0195
2813.00,0.0189
2812.00,0.0183
2811.00,0.0178
2810.00,0.0173
2809.00,0.0168
2808.00,0.0162
2807.00,0.0156
2806.00,0.0150
2805.00,0.0144
2804.00,0.0138
2803.00,0.0133
2802.00,0.0127
2801.00,0.0123
2800.00,0.0119
2799.00,0.0116
2798.00,0.0113
2797.00,0.0111
2796.00,0.0109
2795.00,0.0106
2794.00,0.0104
2793.00,0.0101
2792.00,0.0098
2791.00,0.0094
2790.00,0.0091
2789.00,0.0087
2788.00,0.0084
2787.00,0.0082
2786.00,0.0079
2785.00,0.0076
2784.00,0.0074
2783.00,0.0072
2782.00,0.0070
2781.00,0.0069
2780.00,0.0067
2779.00,0.0065
2778.00,0.0063
2777.00,0.0062
2776.00,0.0061
2775.00,0.0060
2774.00,0.0059
2773.00,0.0058
2772.00,0.0057
2771.00,0.0056
2770.00,0.0056
2769.00,0.0055
2768.00,0.0055
2767.00,0.0054
2766.00,0.0054
2765.00,0.0054
2764.00,0.0054
2763.00,0.0053
2762.00,0.0053
2761.00,0.0052
2760.00,0.0052
2759.00,0.0051
2758.00,0.0051
2757.00,0.0051
2756.00,0.0051
2755.00,0.0051
2754.00,0.0051
2753.00,0.0050
2752.00,0.0050
2751.00,0.0050
2750.00,0.0050
2749.00,0.0050
2748.00,0.0050
2747.00,0.0050
2746.00,0.0051
2745.00,0.0051
2744.00,0.0052
2743.00,0.0053
2742.00,0.0053
2741.00,0.0054
2740.00,0.0056
2739.00,0.0057
2738.00,0.0058
2737.00,0.0059
2736.00,0.0060
2735.00,0.0061
2734.00,0.0062
2733.00,0.0064
2732.00,0.0066
2731.00,0.0067
2730.00,0.0069
2729.00,0.0071
2728.00,0.0074
2727.00,0.0076
2726.00,0.0079
2725.00,0.0081
2724.00,0.0082
2723.00,0.0083
2722.00,0.0082
2721.00,0.0080
2720.00,0.0078
2719.00,0.0076
2718.00,0.0073
2717.00,0.0070
2716.00,0.0067
2715.00,0.0065
2714.00,0.0062
2713.00,0.0060
2712.00,0.0058
2711.00,0.0057
2710.00,0.0055
2709.00,0.0054
2708.00,0.0052
2707.00,0.0051
2706.00,0.0051
2705.00,0.0050
2704.00,0.0049
2703.00,0.0048
2702.00,0.0047
2701.00,0.0047
2700.00,0.0046
2699.00,0.0045
2698.00,0.0045
2697.00,0.0044
2696.00,0.0044
2695.00,0.0044
2694.00,0.0044
2693.00,0.0044
2692.00,0.0044
2691.00,0.0044
2690.00,0.0044
2689.00,0.0044
2688.00,0.0044
2687.00,0.0044
2686.00,0.0044
2685.00,0.0044
2684.00,0.0044
2683.00,0.0044
2682.00,0.0044
2681.00,0.0044
2680.00,0.0044
2679.00,0.0045
2678.00,0.0045
2677.00,0.0045
2676.00,0.0045
2675.00,0.0045
2674.00,0.0045
2673.00,0.0044
2672.00,0.0044
2671.00,0.0044
2670.00,0.0043
2669.00,0.0042
2668.00,0.0042
2667.00,0.0042
2666.00,0.0043
2665.00,0.0043
2664.00,0.0044
2663.00,0.0044
2662.00,0.0045
2661.00,0.0045
2660.00,0.0046
2659.00,0.0046
2658.00,0.0046
2657.00,0.0045
2656.00,0.0045
2655.00,0.0044
2654.00,0.0044
2653.00,0.0044
2652.00,0.0043
2651.00,0.0043
2650.00,0.0043
2649.00,0.0042
2648.00,0.0042
2647.00,0.0041
2646.00,0.0041
2645.00,0.0041
2644.00,0.0040
2643.00,0.0040
2642.00,0.0039
2641.00,0.0039
2640.00,0.0039
2639.00,0.0038
2638.00,0.0038
2637.00,0.0037
2636.00,0.0037
2635.00,0.0037
2634.00,0.0036
2633.00,0.0036
2632.00,0.0036
2631.00,0.0036
2630.00,0.0036
2629.00,0.0037
2628.00,0.0037
2627.00,0.0038
2626.00,0.0039
2625.00,0.0039
2624.00,0.0039
2623.00,0.0039
2622.00,0.0038
2621.00,0.0038
2620.00,0.0038
2619.00,0.0038
2618.00,0.0039
2617.00,0.0039
2616.00,0.0039
2615.00,0.0038
2614.00,0.0038
2613.00,0.0037
2612.00,0.0037
2611.00,0.0036
2610.00,0.0036
2609.00,0.0035
2608.00,0.0035
2607.00,0.0034
2606.00,0.0034
2605.00,0.0033
2604.00,0.0032
2603.00,0.0031
2602.00,0.0031
2601.00,0.0030
2600.00,0.0030
2599.00,0.0029
2598.00,0.0029
2597.00,0.0029
2596.00,0.0029
2595.00,0.0030
2594.00,0.0030
2593.00,0.0030
2592.00,0.0030
2591.00,0.0031
2590.00,0.0032
2589.00,0.0033
2588.00,0.0034
2587.00,0.0035
2586.00,0.0035
2585.00,0.0036
2584.00,0.0036
2583.00,0.0036
2582.00,0.0036
2581.00,0.0036
2580.00,0.0035
2579.00,0.0034
2578.00,0.0033
2577.00,0.0033
2576.00,0.0032
2575.00,0.0031
2574.00,0.0031
2573.00,0.0030
2572.00,0.0029
2571.00,0.0028
2570.00,0.0026
2569.00,0.0025
2568.00,0.0024
2567.00,0.0024
2566.00,0.0024
2565.00,0.0023
2564.00,0.0023
2563.00,0.0023
2562.00,0.0022
2561.00,0.0022
2560.00,0.0021
2559.00,0.0022
2558.00,0.0022
2557.00,0.0022
2556.00,0.0023
2555.00,0.0022
2554.00,0.0022
2553.00,0.0021
2552.00,0.0020
2551.00,0.0020
2550.00,0.0019
2549.00,0.0019
2548.00,0.0018
2547.00,0.0018
2546.00,0.0018
2545.00,0.0018
2544.00,0.0018
2543.00,0.0018
2542.00,0.0018
2541.00,0.0017
2540.00,0.0016
2539.00,0.0015
2538.00,0.0014
2537.00,0.0015
2536.00,0.0015
2535.00,0.0015
2534.00,0.0016
2533.00,0.0016
2532.00,0.0016
2531.00,0.0016
2530.00,0.0015
2529.00,0.0014
2528.00,0.0014
2527.00,0.0014
2526.00,0.0013
2525.00,0.0013
2524.00,0.0013
2523.00,0.0013
2522.00,0.0013
2521.00,0.0013
2520.00,0.0012
2519.00,0.0012
2518.00,0.0012
2517.00,0.0011
2516.00,0.0011
2515.00,0.0011
2514.00,0.0010
2513.00,0.0010
2512.00,0.0011
2511.00,0.0011
2510.00,0.0011
2509.00,0.0011
2508.00,0.0011
2507.00,0.0011
2506.00,0.0010
2505.00,0.0010
2504.00,0.0009
2503.00,0.0010
2502.00,0.0010
2501.00,0.0010
2500.00,0.0010
2499.00,0.0009
2498.00,0.0009
2497.00,0.0009
2496.00,0.0009
2495.00,0.0009
2494.00,0.0008
2493.00,0.0008
2492.00,0.0009
2491.00,0.0009
2490.00,0.0010
2489.00,0.0010
2488.00,0.0010
2487.00,0.0010
2486.00,0.0010
2485.00,0.0010
2484.00,0.0010
2483.00,0.0010
2482.00,0.0010
2481.00,0.0010
2480.00,0.0010
2479.00,0.0010
2478.00,0.0010
2477.00,0.0010
2476.00,0.0009
2475.00,0.0009
2474.00,0.0009
2473.00,0.0009
2472.00,0.0009
2471.00,0.0008
2470.00,0.0008
2469.00,0.0008
2468.00,0.0008
2467.00,0.0008
2466.00,0.0008
2465.00,0.0008
2464.00,0.0008
2463.00,0.0008
2462.00,0.0009
2461.00,0.0009
2460.00,0.0009
2459.00,0.0010
2458.00,0.0010
2457.00,0.0010
2456.00,0.0009
2455.00,0.0009
2454.00,0.0009
2453.00,0.0009
2452.00,0.0010
2451.00,0.0010
2450.00,0.0011
2449.00,0.0011
2448.00,0.0010
2447.00,0.0010
2446.00,0.0010
2445.00,0.0010
2444.00,0.0010
2443.00,0.0009
2442.00,0.0009
2441.00,0.0008
2440.00,0.0008
2439.00,0.0008
2438.00,0.0009
2437.00,0.0010
2436.00,0.0010
2435.00,0.0010
2434.00,0.0010
2433.00,0.0010
2432.00,0.0011
2431.00,0.0011
2430.00,0.0011
2429.00,0.0011
2428.00,0.0011
2427.00,0.0011
2426.00,0.0011
2425.00,0.0011
2424.00,0.0011
2423.00,0.0011
2422.00,0.0011
2421.00,0.0011
2420.00,0.0011
2419.00,0.0010
2418.00,0.0010
2417.00,0.0009
2416.00,0.0009
2415.00,0.0008
2414.00,0.0008
2413.00,0.0008
2412.00,0.0007
2411.00,0.0008
2410.00,0.0008
2409.00,0.0009
2408.00,0.0009
2407.00,0.0009
2406.00,0.0009
2405.00,0.0009
2404.00,0.0009
2403.00,0.0009
2402.00,0.0009
2401.00,0.0008
2400.00,0.0008
2399.00,0.0007
2398.00,0.0007
2397.00,0.0007
2396.00,0.0008
2395.00,0.0008
2394.00,0.0008
2393.00,0.0008
2392.00,0.0007
2391.00,0.0007
2390.00,0.0007
2389.00,0.0007
2388.00,0.0007
2387.00,0.0006
2386.00,0.0005
2385.00,0.0004
2384.00,0.0003
2383.00,0.0002
2382.00,0.0001
2381.00,0.0001
2380.00,0.0001
2379.00,0.0001
2378.00,0.0002
2377.00,0.0003
2376.00,0.0004
2375.00,0.0004
2374.00,0.0004
2373.00,0.0003
2372.00,0.0003
2371.00,0.0003
2370.00,0.0003
2369.00,0.0003
2368.00,0.0003
2367.00,0.0002
2366.00,0.0002
2365.00,0.0002
2364.00,0.0003
2363.00,0.0004
2362.00,0.0004
2361.00,0.0005
2360.00,0.0005
2359.00,0.0005
2358.00,0.0005
2357.00,0.0004
2356.00,0.0004
2355.00,0.0004
2354.00,0.0004
2353.00,0.0003
2352.00,0.0003
2351.00,0.0003
2350.00,0.0004
2349.00,0.0004
2348.00,0.0005
2347.00,0.0005
2346.00,0.0005
2345.00,0.0006
2344.00,0.0007
2343.00,0.0007
2342.00,0.0007
2341.00,0.0007
2340.00,0.0007
2339.00,0.0007
2338.00,0.0006
2337.00,0.0006
2336.00,0.0007
2335.00,0.0006
2334.00,0.0006
2333.00,0.0005
2332.00,0.0004
2331.00,0.0004
2330.00,0.0005
2329.00,0.0006
2328.00,0.0008
2327.00,0.0012
2326.00,0.0016
2325.00,0.0019
2324.00,0.0020
2323.00,0.0018
2322.00,0.0015
2321.00,0.0013
2320.00,0.0012
2319.00,0.0011
2318.00,0.0011
2317.00,0.0010
2316.00,0.0010
2315.00,0.0009
2314.00,0.0009
2313.00,0.0009
2312.00,0.0008
2311.00,0.0007
2310.00,0.0007
2309.00,0.0006
2308.00,0.0006
2307.00,0.0006
2306.00,0.0007
2305.00,0.0007
2304.00,0.0008
2303.00,0.0008
2302.00,0.0008
2301.00,0.0009
2300.00,0.0009
2299.00,0.0009
2298.00,0.0010
2297.00,0.0010
2296.00,0.0011
2295.00,0.0012
2294.00,0.0014
2293.00,0.0015
2292.00,0.0015
2291.00,0.0016
2290.00,0.0016
2289.00,0.0017
2288.00,0.0017
2287.00,0.0016
2286.00,0.0016
2285.00,0.0015
2284.00,0.0015
2283.00,0.0014
2282.00,0.0014
2281.00,0.0013
2280.00,0.0013
2279.00,0.0013
2278.00,0.0013
2277.00,0.0013
2276.00,0.0013
2275.00,0.0012
2274.00,0.0011
2273.00,0.0011
2272.00,0.0011
2271.00,0.0011
2270.00,0.0012
2269.00,0.0012
2268.00,0.0012
2267.00,0.0012
2266.00,0.0011
2265.00,0.0010
2264.00,0.0010
2263.00,0.0010
2262.00,0.0010
2261.00,0.0011
2260.00,0.0011
2259.00,0.0012
2258.00,0.0012
2257.00,0.0012
2256.00,0.0010
2255.00,0.0007
2254.00,0.0005
2253.00,0.0005
2252.00,0.0005
2251.00,0.0005
2250.00,0.0005
2249.00,0.0006
2248.00,0.0007
2247.00,0.0008
2246.00,0.0008
2245.00,0.0008
2244.00,0.0008
2243.00,0.0008
2242.00,0.0007
2241.00,0.0007
2240.00,0.0006
2239.00,0.0006
2238.00,0.0007
2237.00,0.0008
2236.00,0.0009
2235.00,0.0009
2234.00,0.0009
2233.00,0.0009
2232.00,0.0010
2231.00,0.0010
2230.00,0.0010
2229.00,0.0010
2228.00,0.0010
2227.00,0.0010
2226.00,0.0009
2225.00,0.0007
2224.00,0.0007
2223.00,0.0007
2222.00,0.0007
2221.00,0.0008
2220.00,0.0008
2219.00,0.0008
2218.00,0.0007
2217.00,0.0006
2216.00,0.0005
2215.00,0.0004
2214.00,0.0005
2213.00,0.0006
2212.00,0.0006
2211.00,0.0006
2210.00,0.0006
2209.00,0.0006
2208.00,0.0006
2207.00,0.0005
2206.00,0.0005
2205.00,0.0004
2204.00,0.0004
2203.00,0.0005
2202.00,0.0005
2201.00,0.0005
2200.00,0.0005
2199.00,0.0004
2198.00,0.0003
2197.00,0.0004
2196.00,0.0006
2195.00,0.0008
2194.00,0.0009
2193.00,0.0009
2192.00,0.0008
2191.00,0.0007
2190.00,0.0007
2189.00,0.0007
2188.00,0.0009
2187.00,0.0010
2186.00,0.0011
2185.00,0.0010
2184.00,0.0007
2183.00,0.0003
2182.00,-0.0001
2181.00,-0.0003
2180.00,-0.0002
2179.00,0.0001
2178.00,0.0006
2177.00,0.0009
2176.00,0.0010
2175.00,0.0008
2174.00,0.0006
2173.00,0.0006
2172.00,0.0009
2171.00,0.0012
2170.00,0.0016
2169.00,0.0018
2168.00,0.0019
2167.00,0.0020
2166.00,0.0022
2165.00,0.0024
2164.00,0.0026
2163.00,0.0027
2162.00,0.0024
2161.00,0.0017
2160.00,0.0002
2159.00,-0.0016
2158.00,-0.0029
2157.00,-0.0034
2156.00,-0.0031
2155.00,-0.0025
2154.00,-0.0022
2153.00,-0.0020
2152.00,-0.0020
2151.00,-0.0020
2150.00,-0.0020
2149.00,-0.0020
2148.00,-0.0018
2147.00,-0.0016
2146.00,-0.0013
2145.00,-0.0011
2144.00,-0.0010
2143.00,-0.0011
2142.00,-0.0013
2141.00,-0.0014
2140.00,-0.0014
2139.00,-0.0013
2138.00,-0.0012
2137.00,-0.0013
2136.00,-0.0015
2135.00,-0.0018
2134.00,-0.0019
2133.00,-0.0019
2132.00,-0.0017
2131.00,-0.0014
2130.00,-0.0011
2129.00,-0.0009
2128.00,-0.0007
2127.00,-0.0007
2126.00,-0.0005
2125.00,-0.0004
2124.00,-0.0003
2123.00,-0.0003
2122.00,-0.0003
2121.00,-0.0004
2120.00,-0.0004
2119.00,-0.0004
2118.00,-0.0003
2117.00,-0.0001
2116.00,0.0002
2115.00,0.0004
2114.00,0.0004
2113.00,0.0004
2112.00,0.0004
2111.00,0.0003
2110.00,0.0002
2109.00,0.0002
2108.00,0.0002
2107.00,0.0002
2106.00,0.0002
2105.00,0.0002
2104.00,0.0003
2103.00,0.0004
2102.00,0.0005
2101.00,0.0006
2100.00,0.0006
2099.00,0.0005
2098.00,0.0003
2097.00,0.0002
2096.00,0.0001
2095.00,0.0000
2094.00,-0.0001
2093.00,-0.0002
2092.00,-0.0003
2091.00,-0.0003
2090.00,-0.0002
2089.00,0.0001
2088.00,0.0003
2087.00,0.0004
2086.00,0.0003
2085.00,0.0001
2084.00,-0.0001
2083.00,-0.0001
2082.00,-0.0000
2081.00,0.0001
2080.00,0.0002
2079.00,0.0003
2078.00,0.0003
2077.00,0.0003
2076.00,0.0003
2075.00,0.0003
2074.00,0.0003
2073.00,0.0002
2072.00,0.0002
2071.00,0.0002
2070.00,0.0002
2069.00,0.0003
2068.00,0.0003
2067.00,0.0003
2066.00,0.0002
2065.00,0.0001
2064.00,0.0001
2063.00,0.0001
2062.00,0.0001
2061.00,0.0001
2060.00,0.0002
2059.00,0.0003
2058.00,0.0004
2057.00,0.0005
2056.00,0.0005
2055.00,0.0005
2054.00,0.0005
2053.00,0.0008
2052.00,0.0012
2051.00,0.0014
2050.00,0.0013
2049.00,0.0009
2048.00,0.0004
2047.00,0.0001
2046.00,-0.0001
2045.00,-0.0001
2044.00,-0.0001
2043.00,-0.0000
2042.00,0.0001
2041.00,0.0002
2040.00,0.0005
2039.00,0.0007
2038.00,0.0007
2037.00,0.0005
2036.00,0.0001
2035.00,-0.0004
2034.00,-0.0008
2033.00,-0.0010
2032.00,-0.0010
2031.00,-0.0009
2030.00,-0.0009
2029.00,-0.0011
2028.00,-0.0013
2027.00,-0.0014
2026.00,-0.0013
2025.00,-0.0010
2024.00,-0.0009
2023.00,-0.0008
2022.00,-0.0008
2021.00,-0.0008
2020.00,-0.0008
2019.00,-0.0008
2018.00,-0.0009
2017.00,-0.0010
2016.00,-0.0010
2015.00,-0.0011
2014.00,-0.0013
2013.00,-0.0013
2012.00,-0.0012
2011.00,-0.0010
2010.00,-0.0010
2009.00,-0.0012
2008.00,-0.0016
2007.00,-0.0020
2006.00,-0.0024
2005.00,-0.0026
2004.00,-0.0025
2003.00,-0.0023
2002.00,-0.0020
2001.00,-0.0016
2000.00,-0.0013
1999.00,-0.0010
1998.00,-0.0010
1997.00,-0.0012
1996.00,-0.0016
1995.00,-0.0019
1994.00,-0.0020
1993.00,-0.0018
1992.00,-0.0013
1991.00,-0.0009
1990.00,-0.0008
1989.00,-0.0008
1988.00,-0.0009
1987.00,-0.0008
1986.00,-0.0006
1985.00,-0.0003
1984.00,0.0001
1983.00,0.0004
1982.00,0.0007
1981.00,0.0009
1980.00,0.0009
1979.00,0.0006
1978.00,0.0002
1977.00,-0.0003
1976.00,-0.0007
1975.00,-0.0010
1974.00,-0.0011
1973.00,-0.0009
1972.00,-0.0008
1971.00,-0.0007
1970.00,-0.0008
1969.00,-0.0009
1968.00,-0.0009
1967.00,-0.0009
1966.00,-0.0010
1965.00,-0.0010
1964.00,-0.0010
1963.00,-0.0012
1962.00,-0.0014
1961.00,-0.0017
1960.00,-0.0018
1959.00,-0.0019
1958.00,-0.0019
1957.00,-0.0017
1956.00,-0.0015
1955.00,-0.0013
1954.00,-0.0012
1953.00,-0.0012
1952.00,-0.0011
1951.00,-0.0011
1950.00,-0.0010
1949.00,-0.0010
1948.00,-0.0011
1947.00,-0.0012
1946.00,-0.0013
1945.00,-0.0014
1944.00,-0.0014
1943.00,-0.0014
1942.00,-0.0014
1941.00,-0.0013
1940.00,-0.0012
1939.00,-0.0010
1938.00,-0.0009
1937.00,-0.0009
1936.00,-0.0009
1935.00,-0.0010
1934.00,-0.0010
1933.00,-0.0010
1932.00,-0.0009
1931.00,-0.0009
1930.00,-0.0009
1929.00,-0.0008
1928.00,-0.0007
1927.00,-0.0006
1926.00,-0.0005
1925.00,-0.0005
1924.00,-0.0005
1923.00,-0.0005
1922.00,-0.0006
1921.00,-0.0006
1920.00,-0.0006
1919.00,-0.0005
1918.00,-0.0003
1917.00,-0.0002
1916.00,-0.0002
1915.00,-0.0002
1914.00,-0.0002
1913.00,-0.0002
1912.00,-0.0001
1911.00,-0.0000
1910.00,-0.0001
1909.00,-0.0001
1908.00,-0.0001
1907.00,-0.0001
1906.00,-0.0001
1905.00,-0.0001
1904.00,-0.0000
1903.00,0.0000
1902.00,-0.0000
1901.00,-0.0000
1900.00,-0.0001
1899.00,-0.0001
1898.00,-0.0002
1897.00,-0.0002
1896.00,-0.0003
1895.00,-0.0003
1894.00,-0.0003
1893.00,-0.0002
1892.00,0.0000
1891.00,0.0002
1890.00,0.0002
1889.00,0.0002
1888.00,0.0001
1887.00,-0.0000
1886.00,-0.0001
1885.00,-0.0002
1884.00,-0.0002
1883.00,-0.0002
1882.00,-0.0002
1881.00,-0.0001
1880.00,-0.0001
1879.00,-0.0002
1878.00,-0.0002
1877.00,-0.0003
1876.00,-0.0003
1875.00,-0.0003
1874.00,-0.0002
1873.00,-0.0002
1872.00,-0.0002
1871.00,-0.0002
1870.00,-0.0003
1869.00,-0.0003
1868.00,-0.0002
1867.00,-0.0001
1866.00,-0.0000
1865.00,0.0000
1864.00,0.0000
1863.00,-0.0000
1862.00,-0.0000
1861.00,-0.0000
1860.00,0.0001
1859.00,0.0001
1858.00,0.0002
1857.00,0.0001
1856.00,0.0001
1855.00,0.0001
1854.00,0.0001
1853.00,0.0002
1852.00,0.0002
1851.00,0.0002
1850.00,0.0002
1849.00,0.0002
1848.00,0.0003
1847.00,0.0003
1846.00,0.0002
1845.00,0.0002
1844.00,0.0002
1843.00,0.0002
1842.00,0.0002
1841.00,0.0002
1840.00,0.0002
1839.00,0.0002
1838.00,0.0002
1837.00,0.0002
1836.00,0.0003
1835.00,0.0003
1834.00,0.0003
1833.00,0.0003
1832.00,0.0003
1831.00,0.0003
1830.00,0.0003
1829.00,0.0003
1828.00,0.0003
1827.00,0.0003
1826.00,0.0004
1825.00,0.0004
1824.00,0.0005
1823.00,0.0005
1822.00,0.0005
1821.00,0.0004
1820.00,0.0003
1819.00,0.0002
1818.00,0.0001
1817.00,0.0000
1816.00,0.0000
1815.00,0.0001
1814.00,0.0002
1813.00,0.0002
1812.00,0.0002
1811.00,0.0002
1810.00,0.0003
1809.00,0.0003
1808.00,0.0004
1807.00,0.0005
1806.00,0.0004
1805.00,0.0004
1804.00,0.0003
1803.00,0.0003
1802.00,0.0003
1801.00,0.0004
1800.00,0.0005
1799.00,0.0006
1798.00,0.0007
1797.00,0.0007
1796.00,0.0007
1795.00,0.0006
1794.00,0.0006
1793.00,0.0006
1792.00,0.0006
1791.00,0.0007
1790.00,0.0007
1789.00,0.0008
1788.00,0.0008
1787.00,0.0008
1786.00,0.0008
1785.00,0.0008
1784.00,0.0008
1783.00,0.0009
1782.00,0.0009
1781.00,0.0009
1780.00,0.0009
1779.00,0.0008
1778.00,0.0008
1777.00,0.0008
1776.00,0.0008
1775.00,0.0008
1774.00,0.0008
1773.00,0.0009
1772.00,0.0009
1771.00,0.0010
1770.00,0.0011
1769.00,0.0012
1768.00,0.0012
1767.00,0.0012
1766.00,0.0012
1765.00,0.0012
1764.00,0.0012
1763.00,0.0012
1762.00,0.0013
1761.00,0.0013
1760.00,0.0014
1759.00,0.0014
1758.00,0.0014
1757.00,0.0014
1756.00,0.0014
1755.00,0.0016
1754.00,0.0017
1753.00,0.0017
1752.00,0.0018
1751.00,0.0018
1750.00,0.0018
1749.00,0.0019
1748.00,0.0021
1747.00,0.0023
1746.00,0.0024
1745.00,0.0025
1744.00,0.0025
1743.00,0.0026
1742.00,0.0027
1741.00,0.0028
1740.00,0.0028
1739.00,0.0029
1738.00,0.0030
1737.00,0.0030
1736.00,0.0030
1735.00,0.0030
1734.00,0.0030
1733.00,0.0030
1732.00,0.0031
1731.00,0.0031
1730.00,0.0031
1729.00,0.0031
1728.00,0.0032
1727.00,0.0032
1726.00,0.0031
1725.00,0.0031
1724.00,0.0031
1723.00,0.0031
1722.00,0.0031
1721.00,0.0031
1720.00,0.0031
1719.00,0.0031
1718.00,0.0030
1717.00,0.0029
1716.00,0.0028
1715.00,0.0027
1714.00,0.0027
1713.00,0.0028
1712.00,0.0028
1711.00,0.0028
1710.00,0.0028
1709.00,0.0028
1708.00,0.0028
1707.00,0.0029
1706.00,0.0029
1705.00,0.0030
1704.00,0.0030
1703.00,0.0030
1702.00,0.0030
1701.00,0.0030
1700.00,0.0030
1699.00,0.0030
1698.00,0.0030
1697.00,0.0031
1696.00,0.0032
1695.00,0.0033
1694.00,0.0033
1693.00,0.0035
1692.00,0.0036
1691.00,0.0038
1690.00,0.0039
1689.00,0.0041
1688.00,0.0042
1687.00,0.0043
1686.00,0.0044
1685.00,0.0044
1684.00,0.0046
1683.00,0.0047
1682.00,0.0048
1681.00,0.0050
1680.00,0.0052
1679.00,0.0053
1678.00,0.0055
1677.00,0.0056
1676.00,0.0057
1675.00,0.0058
1674.00,0.0058
1673.00,0.0059
1672.00,0.0060
1671.00,0.0061
1670.00,0.0062
1669.00,0.0063
1668.00,0.0064
1667.00,0.0064
1666.00,0.0065
1665.00,0.0065
1664.00,0.0066
1663.00,0.0067
1662.00,0.0067
1661.00,0.0067
1660.00,0.0068
1659.00,0.0068
1658.00,0.0069
1657.00,0.0069
1656.00,0.0070
1655.00,0.0071
1654.00,0.0071
1653.00,0.0072
1652.00,0.0073
1651.00,0.0073
1650.00,0.0074
1649.00,0.0075
1648.00,0.0076
1647.00,0.0077
1646.00,0.0078
1645.00,0.0078
1644.00,0.0079
1643.00,0.0079
1642.00,0.0079
1641.00,0.0080
1640.00,0.0080
1639.00,0.0081
1638.00,0.0081
1637.00,0.0082
1636.00,0.0082
1635.00,0.0083
1634.00,0.0082
1633.00,0.0082
1632.00,0.0081
1631.00,0.0081
1630.00,0.0080
1629.00,0.0080
1628.00,0.0080
1627.00,0.0079
1626.00,0.0079
1625.00,0.0079
1624.00,0.0078
1623.00,0.0078
1622.00,0.0077
1621.00,0.0077
1620.00,0.0076
1619.00,0.0076
1618.00,0.0075
1617.00,0.0074
1616.00,0.0074
1615.00,0.0074
1614.00,0.0074
1613.00,0.0075
1612.00,0.0075
1611.00,0.0075
1610.00,0.0075
1609.00,0.0075
1608.00,0.0075
1607.00,0.0075
1606.00,0.0075
1605.00,0.0074
1604.00,0.0073
1603.00,0.0073
1602.00,0.0072
1601.00,0.0072
1600.00,0.0072
1599.00,0.0072
1598.00,0.0072
1597.00,0.0072
1596.00,0.0071
1595.00,0.0071
1594.00,0.0070
1593.00,0.0070
1592.00,0.0070
1591.00,0.0069
1590.00,0.0068
1589.00,0.0068
1588.00,0.0068
1587.00,0.0068
1586.00,0.0068
1585.00,0.0068
1584.00,0.0068
1583.00,0.0068
1582.00,0.0068
1581.00,0.0068
1580.00,0.0068
1579.00,0.0068
1578.00,0.0069
1577.00,0.0069
1576.00,0.0069
1575.00,0.0069
1574.00,0.0069
1573.00,0.0069
1572.00,0.0070
1571.00,0.0071
1570.00,0.0071
1569.00,0.0073
1568.00,0.0074
1567.00,0.0074
1566.00,0.0075
1565.00,0.0076
1564.00,0.0076
1563.00,0.0077
1562.00,0.0077
1561.00,0.0078
1560.00,0.0078
1559.00,0.0079
1558.00,0.0081
1557.00,0.0082
1556.00,0.0083
1555.00,0.0083
1554.00,0.0084
1553.00,0.0084
1552.00,0.0085
1551.00,0.0086
1550.00,0.0086
1549.00,0.0086
1548.00,0.0086
1547.00,0.0086
1546.00,0.0085
1545.00,0.0084
1544.00,0.0083
1543.00,0.0082
1542.00,0.0080
1541.00,0.0078
1540.00,0.0076
1539.00,0.0073
1538.00,0.0071
1537.00,0.0071
1536.00,0.0071
1535.00,0.0071
1534.00,0.0070
1533.00,0.0068
1532.00,0.0067
1531.00,0.0065
1530.00,0.0064
1529.00,0.0064
1528.00,0.0063
1527.00,0.0063
1526.00,0.0062
1525.00,0.0062
1524.00,0.0062
1523.00,0.0062
1522.00,0.0062
1521.00,0.0063
1520.00,0.0063
1519.00,0.0064
1518.00,0.0064
1517.00,0.0063
1516.00,0.0063
1515.00,0.0063
1514.00,0.0063
1513.00,0.0063
1512.00,0.0064
1511.00,0.0065
1510.00,0.0065
1509.00,0.0066
1508.00,0.0066
1507.00,0.0066
1506.00,0.0066
1505.00,0.0068
1504.00,0.0071
1503.00,0.0073
1502.00,0.0076
1501.00,0.0079
1500.00,0.0082
1499.00,0.0084
1498.00,0.0086
1497.00,0.0089
1496.00,0.0092
1495.00,0.0095
1494.00,0.0098
1493.00,0.0102
1492.00,0.0106
1491.00,0.0110
1490.00,0.0114
1489.00,0.0119
1488.00,0.0125
1487.00,0.0130
1486.00,0.0135
1485.00,0.0141
1484.00,0.0147
1483.00,0.0154
1482.00,0.0162
1481.00,0.0172
1480.00,0.0183
1479.00,0.0195
1478.00,0.0210
1477.00,0.0229
1476.00,0.0254
1475.00,0.0283
1474.00,0.0321
1473.00,0.0376
1472.00,0.0441
1471.00,0.0504
1470.00,0.0566
1469.00,0.0631
1468.00,0.0700
1467.00,0.0773
1466.00,0.0855
1465.00,0.0942
1464.00,0.1018
1463.00,0.1072
1462.00,0.1109
1461.00,0.1134
1460.00,0.1153
1459.00,0.1167
1458.00,0.1179
1457.00,0.1188
1456.00,0.1189
1455.00,0.1184
1454.00,0.1175
1453.00,0.1160
1452.00,0.1136
1451.00,0.1101
1450.00,0.1053
1449.00,0.0986
1448.00,0.0900
1447.00,0.0809
1446.00,0.0725
1445.00,0.0652
1444.00,0.0588
1443.00,0.0536
1442.00,0.0495
1441.00,0.0466
1440.00,0.0448
1439.00,0.0438
1438.00,0.0434
1437.00,0.0430
1436.00,0.0416
1435.00,0.0392
1434.00,0.0358
1433.00,0.0318
1432.00,0.0277
1431.00,0.0240
1430.00,0.0211
1429.00,0.0190
1428.00,0.0174
1427.00,0.0165
1426.00,0.0158
1425.00,0.0152
1424.00,0.0147
1423.00,0.0143
1422.00,0.0141
1421.00,0.0139
1420.00,0.0135
1419.00,0.0132
1418.00,0.0130
1417.00,0.0128
1416.00,0.0126
1415.00,0.0125
1414.00,0.0123
1413.00,0.0121
1412.00,0.0119
1411.00,0.0118
1410.00,0.0117
1409.00,0.0116
1408.00,0.0115
1407.00,0.0115
1406.00,0.0116
1405.00,0.0116
1404.00,0.0115
1403.00,0.0116
1402.00,0.0118
1401.00,0.0119
1400.00,0.0119
1399.00,0.0121
1398.00,0.0123
1397.00,0.0124
1396.00,0.0125
1395.00,0.0128
1394.00,0.0132
1393.00,0.0137
1392.00,0.0142
1391.00,0.0149
1390.00,0.0159
1389.00,0.0173
1388.00,0.0193
1387.00,0.0224
1386.00,0.0266
1385.00,0.0320
1384.00,0.0396
1383.00,0.0500
1382.00,0.0641
1381.00,0.0819
1380.00,0.1035
1379.00,0.1274
1378.00,0.1498
1377.00,0.1653
1376.00,0.1695
1375.00,0.1600
1374.00,0.1398
1373.00,0.1160
1372.00,0.0943
1371.00,0.0764
1370.00,0.0622
1369.00,0.0513
1368.00,0.0438
1367.00,0.0391
1366.00,0.0365
1365.00,0.0354
1364.00,0.0355
1363.00,0.0366
1362.00,0.0383
1361.00,0.0401
1360.00,0.0415
1359.00,0.0419
1358.00,0.0410
1357.00,0.0389
1356.00,0.0358
1355.00,0.0323
1354.00,0.0290
1353.00,0.0261
1352.00,0.0237
1351.00,0.0217
1350.00,0.0201
1349.00,0.0188
1348.00,0.0177
1347.00,0.0168
1346.00,0.0160
1345.00,0.0153
1344.00,0.0147
1343.00,0.0141
1342.00,0.0136
1341.00,0.0132
1340.00,0.0129
1339.00,0.0128
1338.00,0.0127
1337.00,0.0126
1336.00,0.0127
1335.00,0.0128
1334.00,0.0130
1333.00,0.0133
1332.00,0.0136
1331.00,0.0139
1330.00,0.0140
1329.00,0.0139
1328.00,0.0137
1327.00,0.0133
1326.00,0.0129
1325.00,0.0123
1324.00,0.0118
1323.00,0.0113
1322.00,0.0109
1321.00,0.0106
1320.00,0.0103
1319.00,0.0101
1318.00,0.0100
1317.00,0.0099
1316.00,0.0099
1315.00,0.0099
1314.00,0.0099
1313.00,0.0100
1312.00,0.0101
1311.00,0.0104
1310.00,0.0108
1309.00,0.0116
1308.00,0.0126
1307.00,0.0139
1306.00,0.0152
1305.00,0.0160
1304.00,0.0163
1303.00,0.0159
1302.00,0.0152
1301.00,0.0145
1300.00,0.0141
1299.00,0.0138
1298.00,0.0137
1297.00,0.0136
1296.00,0.0134
1295.00,0.0132
1294.00,0.0128
1293.00,0.0124
1292.00,0.0119
1291.00,0.0115
1290.00,0.0111
1289.00,0.0107
1288.00,0.0105
1287.00,0.0102
1286.00,0.0100
1285.00,0.0098
1284.00,0.0096
1283.00,0.0095
1282.00,0.0094
1281.00,0.0093
1280.00,0.0092
1279.00,0.0091
1278.00,0.0091
1277.00,0.0090
1276.00,0.0090
1275.00,0.0089
1274.00,0.0089
1273.00,0.0090
1272.00,0.0090
1271.00,0.0091
1270.00,0.0091
1269.00,0.0092
1268.00,0.0093
1267.00,0.0095
1266.00,0.0097
1265.00,0.0100
1264.00,0.0102
1263.00,0.0105
1262.00,0.0109
1261.00,0.0113
1260.00,0.0119
1259.00,0.0127
1258.00,0.0136
1257.00,0.0143
1256.00,0.0147
1255.00,0.0145
1254.00,0.0137
1253.00,0.0128
1252.00,0.0118
1251.00,0.0109
1250.00,0.0103
1249.00,0.0098
1248.00,0.0094
1247.00,0.0091
1246.00,0.0089
1245.00,0.0087
1244.00,0.0084
1243.00,0.0083
1242.00,0.0081
1241.00,0.0080
1240.00,0.0080
1239.00,0.0079
1238.00,0.0079
1237.00,0.0077
1236.00,0.0076
1235.00,0.0076
1234.00,0.0075
1233.00,0.0075
1232.00,0.0075
1231.00,0.0076
1230.00,0.0077
1229.00,0.0079
1228.00,0.0081
1227.00,0.0083
1226.00,0.0084
1225.00,0.0086
1224.00,0.0088
1223.00,0.0090
1222.00,0.0093
1221.00,0.0096
1220.00,0.0098
1219.00,0.0099
1218.00,0.0099
1217.00,0.0097
1216.00,0.0095
1215.00,0.0092
1214.00,0.0089
1213.00,0.0086
1212.00,0.0084
1211.00,0.0082
1210.00,0.0080
1209.00,0.0079
1208.00,0.0078
1207.00,0.0077
1206.00,0.0077
1205.00,0.0076
1204.00,0.0075
1203.00,0.0075
1202.00,0.0075
1201.00,0.0075
1200.00,0.0074
1199.00,0.0074
1198.00,0.0074
1197.00,0.0075
1196.00,0.0075
1195.00,0.0075
1194.00,0.0075
1193.00,0.0075
1192.00,0.0075
1191.00,0.0075
1190.00,0.0076
1189.00,0.0075
1188.00,0.0075
1187.00,0.0075
1186.00,0.0075
1185.00,0.0077
1184.00,0.0079
1183.00,0.0081
1182.00,0.0083
1181.00,0.0086
1180.00,0.0090
1179.00,0.0096
1178.00,0.0103
1177.00,0.0113
1176.00,0.0126
1175.00,0.0143
1174.00,0.0166
1173.00,0.0195
1172.00,0.0229
1171.00,0.0266
1170.00,0.0302
1169.00,0.0332
1168.00,0.0350
1167.00,0.0354
1166.00,0.0345
1165.00,0.0327
1164.00,0.0306
1163.00,0.0286
1162.00,0.0268
1161.00,0.0254
1160.00,0.0242
1159.00,0.0234
1158.00,0.0227
1157.00,0.0222
1156.00,0.0218
1155.00,0.0215
1154.00,0.0214
1153.00,0.0211
1152.00,0.0206
1151.00,0.0200
1150.00,0.0191
1149.00,0.0183
1148.00,0.0174
1147.00,0.0166
1146.00,0.0158
1145.00,0.0151
1144.00,0.0143
1143.00,0.0136
1142.00,0.0129
1141.00,0.0124
1140.00,0.0119
1139.00,0.0114
1138.00,0.0111
1137.00,0.0107
1136.00,0.0104
1135.00,0.0102
1134.00,0.0101
1133.00,0.0101
1132.00,0.0100
1131.00,0.0100
1130.00,0.0099
1129.00,0.0100
1128.00,0.0101
1127.00,0.0103
1126.00,0.0104
1125.00,0.0106
1124.00,0.0108
1123.00,0.0109
1122.00,0.0111
1121.00,0.0112
1120.00,0.0113
1119.00,0.0114
1118.00,0.0115
1117.00,0.0116
1116.00,0.0117
1115.00,0.0117
1114.00,0.0116
1113.00,0.0116
1112.00,0.0116
1111.00,0.0119
1110.00,0.0122
1109.00,0.0126
1108.00,0.0131
1107.00,0.0136
1106.00,0.0141
1105.00,0.0146
1104.00,0.0150
1103.00,0.0153
1102.00,0.0153
1101.00,0.0150
1100.00,0.0145
1099.00,0.0139
1098.00,0.0132
1097.00,0.0127
1096.00,0.0122
1095.00,0.0118
1094.00,0.0115
1093.00,0.0113
1092.00,0.0111
1091.00,0.0109
1090.00,0.0108
1089.00,0.0106
1088.00,0.0103
1087.00,0.0102
1086.00,0.0101
1085.00,0.0100
1084.00,0.0100
1083.00,0.0100
1082.00,0.0100
1081.00,0.0099
1080.00,0.0099
1079.00,0.0098
1078.00,0.0097
1077.00,0.0096
1076.00,0.0096
1075.00,0.0096
1074.00,0.0095
1073.00,0.0095
1072.00,0.0094
1071.00,0.0094
1070.00,0.0093
1069.00,0.0092
1068.00,0.0092
1067.00,0.0093
1066.00,0.0094
1065.00,0.0095
1064.00,0.0096
1063.00,0.0096
1062.00,0.0097
1061.00,0.0097
1060.00,0.0098
1059.00,0.0099
1058.00,0.0099
1057.00,0.0100
1056.00,0.0101
1055.00,0.0103
1054.00,0.0107
1053.00,0.0111
1052.00,0.0114
1051.00,0.0118
1050.00,0.0122
1049.00,0.0126
1048.00,0.0131
1047.00,0.0137
1046.00,0.0141
1045.00,0.0144
1044.00,0.0145
1043.00,0.0144
1042.00,0.0141
1041.00,0.0138
1040.00,0.0136
1039.00,0.0135
1038.00,0.0134
1037.00,0.0134
1036.00,0.0134
1035.00,0.0133
1034.00,0.0132
1033.00,0.0130
1032.00,0.0129
1031.00,0.0128
1030.00,0.0127
1029.00,0.0127
1028.00,0.0127
1027.00,0.0129
1026.00,0.0131
1025.00,0.0132
1024.00,0.0134
1023.00,0.0136
1022.00,0.0138
1021.00,0.0140
1020.00,0.0142
1019.00,0.0143
1018.00,0.0143
1017.00,0.0143
1016.00,0.0143
1015.00,0.0143
1014.00,0.0143
1013.00,0.0143
1012.00,0.0144
1011.00,0.0145
1010.00,0.0147
1009.00,0.0150
1008.00,0.0154
1007.00,0.0160
1006.00,0.0169
1005.00,0.0181
1004.00,0.0199
1003.00,0.0224
1002.00,0.0259
1001.00,0.0303
1000.00,0.0350
999.00,0.0390
998.00,0.0411
997.00,0.0405
996.00,0.0374
995.00,0.0329
994.00,0.0282
993.00,0.0240
992.00,0.0207
991.00,0.0182
990.00,0.0164
989.00,0.0152
988.00,0.0144
987.00,0.0140
986.00,0.0138
985.00,0.0139
984.00,0.0143
983.00,0.0149
982.00,0.0159
981.00,0.0174
980.00,0.0196
979.00,0.0226
978.00,0.0265
977.00,0.0311
976.00,0.0363
975.00,0.0413
974.00,0.0451
973.00,0.0467
972.00,0.0453
971.00,0.0412
970.00,0.0355
969.00,0.0295
968.00,0.0244
967.00,0.0205
966.00,0.0176
965.00,0.0155
964.00,0.0140
963.00,0.0129
962.00,0.0121
961.00,0.0114
960.00,0.0108
959.00,0.0104
958.00,0.0100
957.00,0.0096
956.00,0.0093
955.00,0.0091
954.00,0.0089
953.00,0.0088
952.00,0.0086
951.00,0.0085
950.00,0.0084
949.00,0.0084
948.00,0.0084
947.00,0.0084
946.00,0.0086
945.00,0.0089
944.00,0.0091
943.00,0.0094
942.00,0.0096
941.00,0.0098
940.00,0.0098
939.00,0.0096
938.00,0.0092
937.00,0.0088
936.00,0.0084
935.00,0.0082
934.00,0.0080
933.00,0.0079
932.00,0.0077
931.00,0.0075
930.00,0.0073
929.00,0.0072
928.00,0.0071
927.00,0.0070
926.00,0.0071
925.00,0.0072
924.00,0.0073
923.00,0.0074
922.00,0.0073
921.00,0.0072
920.00,0.0071
919.00,0.0071
918.00,0.0071
917.00,0.0071
916.00,0.0072
915.00,0.0072
914.00,0.0073
913.00,0.0074
912.00,0.0076
911.00,0.0078
910.00,0.0080
909.00,0.0082
908.00,0.0085
907.00,0.0088
906.00,0.0094
905.00,0.0102
904.00,0.0115
903.00,0.0131
902.00,0.0149
901.00,0.0165
900.00,0.0175
899.00,0.0176
898.00,0.0169
897.00,0.0155
896.00,0.0139
895.00,0.0124
894.00,0.0111
893.00,0.0102
892.00,0.0095
891.00,0.0091
890.00,0.0089
889.00,0.0087
888.00,0.0085
887.00,0.0084
886.00,0.0083
885.00,0.0083
884.00,0.0082
883.00,0.0082
882.00,0.0082
881.00,0.0082
880.00,0.0082
879.00,0.0083
878.00,0.0084
877.00,0.0085
876.00,0.0086
875.00,0.0086
874.00,0.0088
873.00,0.0088
872.00,0.0088
871.00,0.0087
870.00,0.0086
869.00,0.0085
868.00,0.0085
867.00,0.0085
866.00,0.0086
865.00,0.0086
864.00,0.0087
863.00,0.0088
862.00,0.0089
861.00,0.0090
860.00,0.0091
859.00,0.0093
858.00,0.0095
857.00,0.0097
856.00,0.0098
855.00,0.0100
854.00,0.0102
853.00,0.0104
852.00,0.0107
851.00,0.0111
850.00,0.0116
849.00,0.0123
848.00,0.0133
847.00,0.0149
846.00,0.0173
845.00,0.0211
844.00,0.0265
843.00,0.0328
842.00,0.0381
841.00,0.0401
840.00,0.0376
839.00,0.0319
838.00,0.0254
837.00,0.0201
836.00,0.0167
835.00,0.0147
834.00,0.0135
833.00,0.0127
832.00,0.0121
831.00,0.0116
830.00,0.0114
829.00,0.0112
828.00,0.0109
827.00,0.0106
826.00,0.0103
825.00,0.0102
824.00,0.0101
823.00,0.0101
822.00,0.0102
821.00,0.0104
820.00,0.0107
819.00,0.0110
818.00,0.0113
817.00,0.0117
816.00,0.0123
815.00,0.0132
814.00,0.0144
813.00,0.0159
812.00,0.0176
811.00,0.0191
810.00,0.0203
809.00,0.0208
808.00,0.0206
807.00,0.0197
806.00,0.0183
805.00,0.0167
804.00,0.0153
803.00,0.0141
802.00,0.0133
801.00,0.0126
800.00,0.0121
799.00,0.0117
798.00,0.0113
797.00,0.0110
796.00,0.0107
795.00,0.0104
794.00,0.0100
793.00,0.0096
792.00,0.0093
791.00,0.0089
790.00,0.0087
789.00,0.0085
788.00,0.0084
787.00,0.0083
786.00,0.0081
785.00,0.0079
784.00,0.0078
783.00,0.0077
782.00,0.0076
781.00,0.0075
780.00,0.0073
779.00,0.0073
778.00,0.0073
777.00,0.0074
776.00,0.0075
775.00,0.0075
774.00,0.0074
773.00,0.0073
772.00,0.0072
771.00,0.0073
770.00,0.0073
769.00,0.0073
768.00,0.0073
767.00,0.0072
766.00,0.0073
765.00,0.0073
764.00,0.0075
763.00,0.0076
762.00,0.0078
761.00,0.0078
760.00,0.0077
759.00,0.0076
758.00,0.0074
757.00,0.0074
756.00,0.0075
755.00,0.0076
754.00,0.0079
753.00,0.0081
752.00,0.0082
751.00,0.0083
750.00,0.0085
749.00,0.0086
748.00,0.0088
747.00,0.0091
746.00,0.0094
745.00,0.0097
744.00,0.0099
743.00,0.0102
742.00,0.0105
741.00,0.0109
740.00,0.0114
739.00,0.0118
738.00,0.0122
737.00,0.0126
736.00,0.0130
735.00,0.0134
734.00,0.0139
733.00,0.0145
732.00,0.0153
731.00,0.0159
730.00,0.0164
729.00,0.0165
728.00,0.0164
727.00,0.0165
726.00,0.0168
725.00,0.0172
724.00,0.0177
723.00,0.0183
722.00,0.0188
721.00,0.0191
720.00,0.0188
719.00,0.0179
718.00,0.0167
717.00,0.0154
716.00,0.0144
715.00,0.0137
714.00,0.0131
713.00,0.0126
712.00,0.0122
711.00,0.0119
710.00,0.0118
709.00,0.0118
708.00,0.0119
707.00,0.0120
706.00,0.0121
705.00,0.0121
704.00,0.0118
703.00,0.0115
702.00,0.0111
701.00,0.0108
700.00,0.0106
699.00,0.0104
698.00,0.0103
697.00,0.0103
696.00,0.0102
695.00,0.0101
694.00,0.0101
693.00,0.0102
692.00,0.0103
691.00,0.0104
690.00,0.0104
689.00,0.0103
688.00,0.0101
687.00,0.0099
686.00,0.0100
685.00,0.0102
684.00,0.0103
683.00,0.0104
682.00,0.0103
681.00,0.0102
680.00,0.0100
679.00,0.0099
678.00,0.0099
677.00,0.0101
676.00,0.0103
675.00,0.0106
674.00,0.0108
673.00,0.0108
672.00,0.0107
671.00,0.0108
670.00,0.0109
669.00,0.0110
668.00,0.0109
667.00,0.0106
666.00,0.0103
665.00,0.0101
664.00,0.0100
663.00,0.0101
662.00,0.0102
661.00,0.0103
660.00,0.0104
659.00,0.0104
658.00,0.0103
657.00,0.0102
656.00,0.0100
655.00,0.0099
654.00,0.0097
653.00,0.0096
652.00,0.0095
651.00,0.0095
650.00,0.0095
649.00,0.0095
648.00,0.0096
647.00,0.0096
646.00,0.0096
645.00,0.0096
644.00,0.0094
643.00,0.0092
642.00,0.0090
641.00,0.0091
640.00,0.0092
639.00,0.0093
638.00,0.0094
637.00,0.0093
636.00,0.0093
635.00,0.0093
634.00,0.0094
633.00,0.0094
632.00,0.0094
631.00,0.0093
630.00,0.0092
629.00,0.0091
628.00,0.0091
627.00,0.0091
626.00,0.0091
625.00,0.0092
624.00,0.0095
623.00,0.0098
622.00,0.0100
621.00,0.0100
620.00,0.0101
619.00,0.0102
618.00,0.0103
617.00,0.0101
616.00,0.0098
615.00,0.0095
614.00,0.0094
613.00,0.0096
612.00,0.0099
611.00,0.0101
610.00,0.0103
609.00,0.0102
608.00,0.0101
607.00,0.0098
606.00,0.0096
605.00,0.0096
604.00,0.0097
603.00,0.0097
602.00,0.0097
601.00,0.0097
600.00,0.0097
599.00,0.0097
598.00,0.0098
597.00,0.0098
596.00,0.0097
595.00,0.0096
594.00,0.0096
593.00,0.0096
592.00,0.0097
591.00,0.0096
590.00,0.0094
589.00,0.0093
588.00,0.0093
587.00,0.0092
586.00,0.0090
585.00,0.0088
584.00,0.0086
583.00,0.0087
582.00,0.0091
581.00,0.0096
580.00,0.0100
579.00,0.0101
578.00,0.0099
577.00,0.0098
576.00,0.0097
575.00,0.0096
574.00,0.0094
573.00,0.0092
572.00,0.0089
571.00,0.0088
570.00,0.0091
569.00,0.0096
568.00,0.0102
567.00,0.0107
566.00,0.0107
565.00,0.0104
564.00,0.0101
563.00,0.0099
562.00,0.0097
561.00,0.0097
560.00,0.0097
559.00,0.0097
558.00,0.0096
557.00,0.0095
556.00,0.0094
555.00,0.0094
554.00,0.0095
553.00,0.0094
552.00,0.0095
551.00,0.0096
550.00,0.0100
549.00,0.0104
548.00,0.0109
547.00,0.0113
546.00,0.0115
545.00,0.0115
544.00,0.0114
543.00,0.0115
542.00,0.0115
541.00,0.0117
540.00,0.0119
539.00,0.0123
538.00,0.0127
537.00,0.0129
536.00,0.0128
535.00,0.0127
534.00,0.0127
533.00,0.0129
532.00,0.0131
531.00,0.0130
530.00,0.0128
529.00,0.0125
528.00,0.0123
527.00,0.0124
526.00,0.0126
525.00,0.0127
524.00,0.0125
523.00,0.0121
522.00,0.0113
521.00,0.0105
520.00,0.0097
519.00,0.0092
518.00,0.0092
517.00,0.0093
516.00,0.0095
515.00,0.0098
514.00,0.0102
513.00,0.0104
512.00,0.0104
511.00,0.0100
510.00,0.0095
509.00,0.0091
508.00,0.0090
507.00,0.0092
506.00,0.0095
505.00,0.0096
504.00,0.0095
503.00,0.0091
502.00,0.0086
501.00,0.0081
500.00,0.0080
499.00,0.0084
498.00,0.0090
497.00,0.0094
496.00,0.0095
495.00,0.0092
494.00,0.0089
493.00,0.0088
492.00,0.0090
491.00,0.0089
490.00,0.0086
489.00,0.0082
488.00,0.0080
487.00,0.0081
486.00,0.0084
485.00,0.0088
484.00,0.0096
483.00,0.0107
482.00,0.0122
481.00,0.0133
480.00,0.0136
479.00,0.0130
478.00,0.0121
477.00,0.0117
476.00,0.0123
475.00,0.0137
474.00,0.0148
473.00,0.0149
472.00,0.0141
471.00,0.0135
470.00,0.0137
469.00,0.0148
468.00,0.0164
467.00,0.0181
466.00,0.0197
465.00,0.0207
464.00,0.0212
463.00,0.0214
462.00,0.0214
461.00,0.0215
460.00,0.0215
459.00,0.0212
458.00,0.0204
457.00,0.0196
456.00,0.0194
455.00,0.0198
454.00,0.0202
453.00,0.0196
452.00,0.0181
451.00,0.0166
450.00,0.0159
