Created as New Dataset,Sample 142 By Administrator Date Wednesday, September 03 2025
cm-1,A
4000.00,0.0006
3999.00,0.0006
3998.00,0.0006
3997.00,0.0005
3996.00,0.0005
3995.00,0.0005
3994.00,0.0005
3993.00,0.0005
3992.00,0.0005
3991.00,0.0005
3990.00,0.0005
3989.00,0.0005
3988.00,0.0005
3987.00,0.0005
3986.00,0.0005
3985.00,0.0005
3984.00,0.0006
3983.00,0.0006
3982.00,0.0006
3981.00,0.0006
3980.00,0.0005
3979.00,0.0005
3978.00,0.0004
3977.00,0.0004
3976.00,0.0004
3975.00,0.0004
3974.00,0.0004
3973.00,0.0004
3972.00,0.0004
3971.00,0.0004
3970.00,0.0004
3969.00,0.0004
3968.00,0.0004
3967.00,0.0004
3966.00,0.0004
3965.00,0.0004
3964.00,0.0004
3963.00,0.0003
3962.00,0.0003
3961.00,0.0004
3960.00,0.0004
3959.00,0.0004
3958.00,0.0004
3957.00,0.0004
3956.00,0.0003
3955.00,0.0003
3954.00,0.0003
3953.00,0.0003
3952.00,0.0004
3951.00,0.0004
3950.00,0.0004
3949.00,0.0004
3948.00,0.0004
3947.00,0.0004
3946.00,0.0004
3945.00,0.0004
3944.00,0.0003
3943.00,0.0003
3942.00,0.0003
3941.00,0.0003
3940.00,0.0003
3939.00,0.0003
3938.00,0.0003
3937.00,0.0003
3936.00,0.0003
3935.00,0.0004
3934.00,0.0004
3933.00,0.0004
3932.00,0.0004
3931.00,0.0003
3930.00,0.0003
3929.00,0.0003
3928.00,0.0003
3927.00,0.0003
3926.00,0.0004
3925.00,0.0004
3924.00,0.0005
3923.00,0.0005
3922.00,0.0004
3921.00,0.0004
3920.00,0.0004
3919.00,0.0004
3918.00,0.0004
3917.00,0.0004
3916.00,0.0004
3915.00,0.0004
3914.00,0.0004
3913.00,0.0004
3912.00,0.0004
3911.00,0.0004
3910.00,0.0004
3909.00,0.0004
3908.00,0.0003
3907.00,0.0003
3906.00,0.0003
3905.00,0.0002
3904.00,0.0002
3903.00,0.0002
3902.00,0.0002
3901.00,0.0002
3900.00,0.0003
3899.00,0.0003
3898.00,0.0003
3897.00,0.0004
3896.00,0.0003
3895.00,0.0003
3894.00,0.0003
3893.00,0.0004
3892.00,0.0004
3891.00,0.0004
3890.00,0.0004
3889.00,0.0003
3888.00,0.0003
3887.00,0.0003
3886.00,0.0003
3885.00,0.0003
3884.00,0.0004
3883.00,0.0004
3882.00,0.0004
3881.00,0.0003
3880.00,0.0003
3879.00,0.0003
3878.00,0.0003
3877.00,0.0003
3876.00,0.0003
3875.00,0.0003
3874.00,0.0003
3873.00,0.0004
3872.00,0.0004
3871.00,0.0003
3870.00,0.0003
3869.00,0.0003
3868.00,0.0003
3867.00,0.0003
3866.00,0.0003
3865.00,0.0003
3864.00,0.0003
3863.00,0.0003
3862.00,0.0003
3861.00,0.0003
3860.00,0.0003
3859.00,0.0002
3858.00,0.0002
3857.00,0.0002
3856.00,0.0002
3855.00,0.0002
3854.00,0.0002
3853.00,0.0002
3852.00,0.0002
3851.00,0.0003
3850.00,0.0003
3849.00,0.0003
3848.00,0.0003
3847.00,0.0003
3846.00,0.0003
3845.00,0.0003
3844.00,0.0003
3843.00,0.0003
3842.00,0.0003
3841.00,0.0003
3840.00,0.0003
3839.00,0.0002
3838.00,0.0003
3837.00,0.0003
3836.00,0.0003
3835.00,0.0003
3834.00,0.0003
3833.00,0.0003
3832.00,0.0003
3831.00,0.0002
3830.00,0.0002
3829.00,0.0002
3828.00,0.0002
3827.00,0.0003
3826.00,0.0003
3825.00,0.0003
3824.00,0.0004
3823.00,0.0003
3822.00,0.0003
3821.00,0.0003
3820.00,0.0003
3819.00,0.0003
3818.00,0.0003
3817.00,0.0003
3816.00,0.0003
3815.00,0.0003
3814.00,0.0003
3813.00,0.0003
3812.00,0.0003
3811.00,0.0003
3810.00,0.0003
3809.00,0.0003
3808.00,0.0002
3807.00,0.0002
3806.00,0.0002
3805.00,0.0002
3804.00,0.0003
3803.00,0.0003
3802.00,0.0003
3801.00,0.0003
3800.00,0.0003
3799.00,0.0004
3798.00,0.0004
3797.00,0.0003
3796.00,0.0003
3795.00,0.0003
3794.00,0.0003
3793.00,0.0003
3792.00,0.0003
3791.00,0.0003
3790.00,0.0004
3789.00,0.0004
3788.00,0.0004
3787.00,0.0004
3786.00,0.0004
3785.00,0.0004
3784.00,0.0003
3783.00,0.0003
3782.00,0.0003
3781.00,0.0003
3780.00,0.0003
3779.00,0.0003
3778.00,0.0003
3777.00,0.0003
3776.00,0.0003
3775.00,0.0003
3774.00,0.0003
3773.00,0.0003
3772.00,0.0003
3771.00,0.0003
3770.00,0.0003
3769.00,0.0003
3768.00,0.0003
3767.00,0.0004
3766.00,0.0004
3765.00,0.0004
3764.00,0.0004
3763.00,0.0004
3762.00,0.0004
3761.00,0.0004
3760.00,0.0004
3759.00,0.0004
3758.00,0.0004
3757.00,0.0004
3756.00,0.0004
3755.00,0.0004
3754.00,0.0004
3753.00,0.0003
3752.00,0.0003
3751.00,0.0002
3750.00,0.0001
3749.00,0.0001
3748.00,0.0001
3747.00,0.0001
3746.00,0.0001
3745.00,0.0002
3744.00,0.0002
3743.00,0.0002
3742.00,0.0003
3741.00,0.0003
3740.00,0.0002
3739.00,0.0002
3738.00,0.0002
3737.00,0.0001
3736.00,0.0001
3735.00,0.0002
3734.00,0.0002
3733.00,0.0002
3732.00,0.0002
3731.00,0.0001
3730.00,0.0002
3729.00,0.0002
3728.00,0.0002
3727.00,0.0002
3726.00,0.0002
3725.00,0.0002
3724.00,0.0002
3723.00,0.0002
3722.00,0.0002
3721.00,0.0001
3720.00,0.0001
3719.00,0.0002
3718.00,0.0002
3717.00,0.0002
3716.00,0.0002
3715.00,0.0002
3714.00,0.0002
3713.00,0.0002
3712.00,0.0002
3711.00,0.0003
3710.00,0.0003
3709.00,0.0003
3708.00,0.0003
3707.00,0.0003
3706.00,0.0003
3705.00,0.0003
3704.00,0.0003
3703.00,0.0003
3702.00,0.0002
3701.00,0.0002
3700.00,0.0002
3699.00,0.0002
3698.00,0.0002
3697.00,0.0002
3696.00,0.0001
3695.00,0.0001
3694.00,0.0001
3693.00,0.0000
3692.00,0.0000
3691.00,0.0000
3690.00,0.0000
3689.00,0.0001
3688.00,0.0001
3687.00,0.0001
3686.00,0.0002
3685.00,0.0002
3684.00,0.0002
3683.00,0.0003
3682.00,0.0003
3681.00,0.0003
3680.00,0.0004
3679.00,0.0004
3678.00,0.0004
3677.00,0.0004
3676.00,0.0004
3675.00,0.0003
3674.00,0.0003
3673.00,0.0002
3672.00,0.0001
3671.00,0.0001
3670.00,0.0001
3669.00,0.0002
3668.00,0.0002
3667.00,0.0002
3666.00,0.0002
3665.00,0.0002
3664.00,0.0002
3663.00,0.0002
3662.00,0.0002
3661.00,0.0002
3660.00,0.0001
3659.00,0.0001
3658.00,0.0001
3657.00,0.0001
3656.00,0.0001
3655.00,0.0001
3654.00,0.0000
3653.00,0.0000
3652.00,-0.0000
3651.00,-0.0000
3650.00,0.0000
3649.00,0.0001
3648.00,0.0002
3647.00,0.0003
3646.00,0.0003
3645.00,0.0003
3644.00,0.0002
3643.00,0.0002
3642.00,0.0002
3641.00,0.0001
3640.00,0.0001
3639.00,0.0001
3638.00,0.0001
3637.00,0.0002
3636.00,0.0002
3635.00,0.0002
3634.00,0.0002
3633.00,0.0002
3632.00,0.0002
3631.00,0.0002
3630.00,0.0002
3629.00,0.0002
3628.00,0.0003
3627.00,0.0003
3626.00,0.0003
3625.00,0.0003
3624.00,0.0003
3623.00,0.0003
3622.00,0.0003
3621.00,0.0003
3620.00,0.0002
3619.00,0.0002
3618.00,0.0002
3617.00,0.0002
3616.00,0.0002
3615.00,0.0003
3614.00,0.0003
3613.00,0.0004
3612.00,0.0004
3611.00,0.0004
3610.00,0.0004
3609.00,0.0004
3608.00,0.0004
3607.00,0.0004
3606.00,0.0004
3605.00,0.0004
3604.00,0.0004
3603.00,0.0004
3602.00,0.0005
3601.00,0.0004
3600.00,0.0004
3599.00,0.0004
3598.00,0.0004
3597.00,0.0004
3596.00,0.0005
3595.00,0.0005
3594.00,0.0005
3593.00,0.0005
3592.00,0.0005
3591.00,0.0005
3590.00,0.0005
3589.00,0.0004
3588.00,0.0004
3587.00,0.0005
3586.00,0.0005
3585.00,0.0005
3584.00,0.0006
3583.00,0.0006
3582.00,0.0006
3581.00,0.0006
3580.00,0.0007
3579.00,0.0007
3578.00,0.0007
3577.00,0.0007
3576.00,0.0007
3575.00,0.0007
3574.00,0.0008
3573.00,0.0008
3572.00,0.0008
3571.00,0.0008
3570.00,0.0008
3569.00,0.0008
3568.00,0.0008
3567.00,0.0008
3566.00,0.0008
3565.00,0.0009
3564.00,0.0010
3563.00,0.0010
3562.00,0.0011
3561.00,0.0011
3560.00,0.0012
3559.00,0.0012
3558.00,0.0012
3557.00,0.0012
3556.00,0.0012
3555.00,0.0012
3554.00,0.0012
3553.00,0.0011
3552.00,0.0012
3551.00,0.0012
3550.00,0.0012
3549.00,0.0013
3548.00,0.0013
3547.00,0.0013
3546.00,0.0013
3545.00,0.0013
3544.00,0.0013
3543.00,0.0014
3542.00,0.0014
3541.00,0.0014
3540.00,0.0014
3539.00,0.0014
3538.00,0.0014
3537.00,0.0014
3536.00,0.0014
3535.00,0.0015
3534.00,0.0016
3533.00,0.0016
3532.00,0.0017
3531.00,0.0017
3530.00,0.0017
3529.00,0.0017
3528.00,0.0016
3527.00,0.0016
3526.00,0.0016
3525.00,0.0017
3524.00,0.0017
3523.00,0.0017
3522.00,0.0018
3521.00,0.0018
3520.00,0.0018
3519.00,0.0018
3518.00,0.0019
3517.00,0.0019
3516.00,0.0020
3515.00,0.0020
3514.00,0.0021
3513.00,0.0021
3512.00,0.0022
3511.00,0.0022
3510.00,0.0021
3509.00,0.0021
3508.00,0.0021
3507.00,0.0021
3506.00,0.0021
3505.00,0.0021
3504.00,0.0022
3503.00,0.0022
3502.00,0.0023
3501.00,0.0023
3500.00,0.0023
3499.00,0.0023
3498.00,0.0023
3497.00,0.0023
3496.00,0.0023
3495.00,0.0024
3494.00,0.0024
3493.00,0.0024
3492.00,0.0025
3491.00,0.0025
3490.00,0.0025
3489.00,0.0025
3488.00,0.0025
3487.00,0.0026
3486.00,0.0026
3485.00,0.0027
3484.00,0.0027
3483.00,0.0027
3482.00,0.0027
3481.00,0.0027
3480.00,0.0027
3479.00,0.0027
3478.00,0.0027
3477.00,0.0027
3476.00,0.0027
3475.00,0.0028
3474.00,0.0028
3473.00,0.0028
3472.00,0.0028
3471.00,0.0029
3470.00,0.0029
3469.00,0.0029
3468.00,0.0029
3467.00,0.0029
3466.00,0.0029
3465.00,0.0030
3464.00,0.0030
3463.00,0.0031
3462.00,0.0032
3461.00,0.0032
3460.00,0.0032
3459.00,0.0033
3458.00,0.0033
3457.00,0.0033
3456.00,0.0033
3455.00,0.0033
3454.00,0.0033
3453.00,0.0033
3452.00,0.0033
3451.00,0.0033
3450.00,0.0033
3449.00,0.0033
3448.00,0.0034
3447.00,0.0034
3446.00,0.0034
3445.00,0.0034
3444.00,0.0035
3443.00,0.0035
3442.00,0.0036
3441.00,0.0036
3440.00,0.0036
3439.00,0.0036
3438.00,0.0036
3437.00,0.0037
3436.00,0.0037
3435.00,0.0038
3434.00,0.0038
3433.00,0.0038
3432.00,0.0038
3431.00,0.0038
3430.00,0.0038
3429.00,0.0038
3428.00,0.0038
3427.00,0.0039
3426.00,0.0039
3425.00,0.0039
3424.00,0.0040
3423.00,0.0040
3422.00,0.0040
3421.00,0.0040
3420.00,0.0040
3419.00,0.0040
3418.00,0.0041
3417.00,0.0041
3416.00,0.0041
3415.00,0.0041
3414.00,0.0041
3413.00,0.0042
3412.00,0.0042
3411.00,0.0042
3410.00,0.0042
3409.00,0.0043
3408.00,0.0043
3407.00,0.0043
3406.00,0.0043
3405.00,0.0044
3404.00,0.0044
3403.00,0.0044
3402.00,0.0044
3401.00,0.0044
3400.00,0.0045
3399.00,0.0045
3398.00,0.0045
3397.00,0.0045
3396.00,0.0045
3395.00,0.0045
3394.00,0.0045
3393.00,0.0046
3392.00,0.0046
3391.00,0.0046
3390.00,0.0046
3389.00,0.0046
3388.00,0.0046
3387.00,0.0046
3386.00,0.0046
3385.00,0.0046
3384.00,0.0045
3383.00,0.0045
3382.00,0.0045
3381.00,0.0045
3380.00,0.0045
3379.00,0.0045
3378.00,0.0045
3377.00,0.0045
3376.00,0.0045
3375.00,0.0045
3374.00,0.0045
3373.00,0.0046
3372.00,0.0046
3371.00,0.0046
3370.00,0.0046
3369.00,0.0046
3368.00,0.0045
3367.00,0.0045
3366.00,0.0046
3365.00,0.0046
3364.00,0.0046
3363.00,0.0046
3362.00,0.0046
3361.00,0.0046
3360.00,0.0046
3359.00,0.0046
3358.00,0.0046
3357.00,0.0046
3356.00,0.0046
3355.00,0.0046
3354.00,0.0047
3353.00,0.0047
3352.00,0.0047
3351.00,0.0046
3350.00,0.0047
3349.00,0.0047
3348.00,0.0047
3347.00,0.0047
3346.00,0.0047
3345.00,0.0047
3344.00,0.0047
3343.00,0.0047
3342.00,0.0046
3341.00,0.0046
3340.00,0.0046
3339.00,0.0046
3338.00,0.0046
3337.00,0.0046
3336.00,0.0046
3335.00,0.0046
3334.00,0.0046
3333.00,0.0046
3332.00,0.0046
3331.00,0.0046
3330.00,0.0045
3329.00,0.0045
3328.00,0.0045
3327.00,0.0045
3326.00,0.0045
3325.00,0.0045
3324.00,0.0045
3323.00,0.0045
3322.00,0.0045
3321.00,0.0045
3320.00,0.0045
3319.00,0.0045
3318.00,0.0046
3317.00,0.0046
3316.00,0.0046
3315.00,0.0046
3314.00,0.0045
3313.00,0.0045
3312.00,0.0045
3311.00,0.0046
3310.00,0.0046
3309.00,0.0047
3308.00,0.0047
3307.00,0.0047
3306.00,0.0047
3305.00,0.0046
3304.00,0.0046
3303.00,0.0047
3302.00,0.0047
3301.00,0.0047
3300.00,0.0048
3299.00,0.0047
3298.00,0.0047
3297.00,0.0046
3296.00,0.0046
3295.00,0.0045
3294.00,0.0045
3293.00,0.0044
3292.00,0.0044
3291.00,0.0044
3290.00,0.0043
3289.00,0.0043
3288.00,0.0043
3287.00,0.0043
3286.00,0.0043
3285.00,0.0043
3284.00,0.0043
3283.00,0.0043
3282.00,0.0043
3281.00,0.0042
3280.00,0.0042
3279.00,0.0042
3278.00,0.0042
3277.00,0.0042
3276.00,0.0042
3275.00,0.0042
3274.00,0.0042
3273.00,0.0041
3272.00,0.0041
3271.00,0.0041
3270.00,0.0041
3269.00,0.0041
3268.00,0.0041
3267.00,0.0041
3266.00,0.0041
3265.00,0.0041
3264.00,0.0040
3263.00,0.0040
3262.00,0.0039
3261.00,0.0039
3260.00,0.0039
3259.00,0.0039
3258.00,0.0040
3257.00,0.0040
3256.00,0.0040
3255.00,0.0040
3254.00,0.0039
3253.00,0.0038
3252.00,0.0038
3251.00,0.0038
3250.00,0.0038
3249.00,0.0038
3248.00,0.0038
3247.00,0.0038
3246.00,0.0037
3245.00,0.0037
3244.00,0.0037
3243.00,0.0037
3242.00,0.0037
3241.00,0.0037
3240.00,0.0037
3239.00,0.0037
3238.00,0.0037
3237.00,0.0037
3236.00,0.0037
3235.00,0.0038
3234.00,0.0038
3233.00,0.0038
3232.00,0.0038
3231.00,0.0038
3230.00,0.0038
3229.00,0.0038
3228.00,0.0038
3227.00,0.0038
3226.00,0.0038
3225.00,0.0038
3224.00,0.0038
3223.00,0.0038
3222.00,0.0038
3221.00,0.0039
3220.00,0.0039
3219.00,0.0039
3218.00,0.0039
3217.00,0.0040
3216.00,0.0039
3215.00,0.0039
3214.00,0.0039
3213.00,0.0040
3212.00,0.0040
3211.00,0.0040
3210.00,0.0041
3209.00,0.0041
3208.00,0.0041
3207.00,0.0041
3206.00,0.0042
3205.00,0.0042
3204.00,0.0042
3203.00,0.0042
3202.00,0.0042
3201.00,0.0042
3200.00,0.0043
3199.00,0.0043
3198.00,0.0043
3197.00,0.0043
3196.00,0.0043
3195.00,0.0043
3194.00,0.0043
3193.00,0.0043
3192.00,0.0043
3191.00,0.0042
3190.00,0.0042
3189.00,0.0041
3188.00,0.0041
3187.00,0.0041
3186.00,0.0041
3185.00,0.0041
3184.00,0.0042
3183.00,0.0042
3182.00,0.0041
3181.00,0.0041
3180.00,0.0041
3179.00,0.0041
3178.00,0.0040
3177.00,0.0040
3176.00,0.0040
3175.00,0.0040
3174.00,0.0040
3173.00,0.0040
3172.00,0.0039
3171.00,0.0039
3170.00,0.0038
3169.00,0.0038
3168.00,0.0039
3167.00,0.0039
3166.00,0.0039
3165.00,0.0038
3164.00,0.0038
3163.00,0.0037
3162.00,0.0036
3161.00,0.0036
3160.00,0.0035
3159.00,0.0036
3158.00,0.0036
3157.00,0.0036
3156.00,0.0036
3155.00,0.0036
3154.00,0.0036
3153.00,0.0037
3152.00,0.0036
3151.00,0.0036
3150.00,0.0036
3149.00,0.0036
3148.00,0.0036
3147.00,0.0036
3146.00,0.0036
3145.00,0.0036
3144.00,0.0036
3143.00,0.0036
3142.00,0.0036
3141.00,0.0036
3140.00,0.0036
3139.00,0.0035
3138.00,0.0035
3137.00,0.0035
3136.00,0.0035
3135.00,0.0035
3134.00,0.0035
3133.00,0.0035
3132.00,0.0034
3131.00,0.0034
3130.00,0.0034
3129.00,0.0034
3128.00,0.0034
3127.00,0.0033
3126.00,0.0033
3125.00,0.0032
3124.00,0.0032
3123.00,0.0032
3122.00,0.0031
3121.00,0.0031
3120.00,0.0030
3119.00,0.0030
3118.00,0.0030
3117.00,0.0029
3116.00,0.0030
3115.00,0.0030
3114.00,0.0030
3113.00,0.0029
3112.00,0.0029
3111.00,0.0029
3110.00,0.0029
3109.00,0.0028
3108.00,0.0029
3107.00,0.0029
3106.00,0.0029
3105.00,0.0029
3104.00,0.0029
3103.00,0.0029
3102.00,0.0029
3101.00,0.0028
3100.00,0.0028
3099.00,0.0028
3098.00,0.0028
3097.00,0.0028
3096.00,0.0027
3095.00,0.0027
3094.00,0.0027
3093.00,0.0027
3092.00,0.0027
3091.00,0.0027
3090.00,0.0027
3089.00,0.0027
3088.00,0.0027
3087.00,0.0027
3086.00,0.0027
3085.00,0.0027
3084.00,0.0027
3083.00,0.0027
3082.00,0.0027
3081.00,0.0027
3080.00,0.0027
3079.00,0.0026
3078.00,0.0026
3077.00,0.0026
3076.00,0.0027
3075.00,0.0027
3074.00,0.0027
3073.00,0.0027
3072.00,0.0027
3071.00,0.0027
3070.00,0.0027
3069.00,0.0027
3068.00,0.0028
3067.00,0.0028
3066.00,0.0028
3065.00,0.0028
3064.00,0.0029
3063.00,0.0029
3062.00,0.0029
3061.00,0.0029
3060.00,0.0029
3059.00,0.0029
3058.00,0.0029
3057.00,0.0029
3056.00,0.0030
3055.00,0.0030
3054.00,0.0030
3053.00,0.0030
3052.00,0.0030
3051.00,0.0030
3050.00,0.0030
3049.00,0.0030
3048.00,0.0030
3047.00,0.0031
3046.00,0.0031
3045.00,0.0032
3044.00,0.0032
3043.00,0.0032
3042.00,0.0032
3041.00,0.0032
3040.00,0.0033
3039.00,0.0034
3038.00,0.0034
3037.00,0.0034
3036.00,0.0034
3035.00,0.0034
3034.00,0.0035
3033.00,0.0035
3032.00,0.0036
3031.00,0.0037
3030.00,0.0037
3029.00,0.0038
3028.00,0.0038
3027.00,0.0038
3026.00,0.0039
3025.00,0.0039
3024.00,0.0040
3023.00,0.0041
3022.00,0.0042
3021.00,0.0043
3020.00,0.0043
3019.00,0.0044
3018.00,0.0045
3017.00,0.0046
3016.00,0.0047
3015.00,0.0048
3014.00,0.0049
3013.00,0.0050
3012.00,0.0051
3011.00,0.0052
3010.00,0.0053
3009.00,0.0055
3008.00,0.0056
3007.00,0.0058
3006.00,0.0059
3005.00,0.0060
3004.00,0.0062
3003.00,0.0064
3002.00,0.0066
3001.00,0.0069
3000.00,0.0071
2999.00,0.0074
2998.00,0.0077
2997.00,0.0080
2996.00,0.0084
2995.00,0.0088
2994.00,0.0092
2993.00,0.0097
2992.00,0.0102
2991.00,0.0107
2990.00,0.0113
2989.00,0.0120
2988.00,0.0128
2987.00,0.0137
2986.00,0.0146
2985.00,0.0157
2984.00,0.0169
2983.00,0.0183
2982.00,0.0198
2981.00,0.0216
2980.00,0.0236
2979.00,0.0258
2978.00,0.0284
2977.00,0.0314
2976.00,0.0348
2975.00,0.0387
2974.00,0.0431
2973.00,0.0482
2972.00,0.0540
2971.00,0.0605
2970.00,0.0679
2969.00,0.0760
2968.00,0.0849
2967.00,0.0947
2966.00,0.1051
2965.00,0.1160
2964.00,0.1270
2963.00,0.1377
2962.00,0.1474
2961.00,0.1556
2960.00,0.1620
2959.00,0.1666
2958.00,0.1698
2957.00,0.1723
2956.00,0.1746
2955.00,0.1773
2954.00,0.1805
2953.00,0.1838
2952.00,0.1864
2951.00,0.1874
2950.00,0.1860
2949.00,0.1815
2948.00,0.1740
2947.00,0.1639
2946.00,0.1523
2945.00,0.1404
2944.00,0.1293
2943.00,0.1198
2942.00,0.1125
2941.00,0.1075
2940.00,0.1048
2939.00,0.1041
2938.00,0.1053
2937.00,0.1081
2936.00,0.1124
2935.00,0.1181
2934.00,0.1250
2933.00,0.1330
2932.00,0.1419
2931.00,0.1515
2930.00,0.1617
2929.00,0.1720
2928.00,0.1823
2927.00,0.1921
2926.00,0.2014
2925.00,0.2101
2924.00,0.2183
2923.00,0.2262
2922.00,0.2337
2921.00,0.2405
2920.00,0.2462
2919.00,0.2501
2918.00,0.2515
2917.00,0.2500
2916.00,0.2457
2915.00,0.2392
2914.00,0.2314
2913.00,0.2232
2912.00,0.2153
2911.00,0.2082
2910.00,0.2019
2909.00,0.1963
2908.00,0.1912
2907.00,0.1861
2906.00,0.1809
2905.00,0.1753
2904.00,0.1694
2903.00,0.1632
2902.00,0.1568
2901.00,0.1504
2900.00,0.1442
2899.00,0.1381
2898.00,0.1324
2897.00,0.1271
2896.00,0.1224
2895.00,0.1182
2894.00,0.1146
2893.00,0.1116
2892.00,0.1092
2891.00,0.1073
2890.00,0.1059
2889.00,0.1049
2888.00,0.1042
2887.00,0.1039
2886.00,0.1039
2885.00,0.1042
2884.00,0.1049
2883.00,0.1059
2882.00,0.1073
2881.00,0.1088
2880.00,0.1103
2879.00,0.1115
2878.00,0.1121
2877.00,0.1121
2876.00,0.1115
2875.00,0.1109
2874.00,0.1104
2873.00,0.1105
2872.00,0.1113
2871.00,0.1127
2870.00,0.1144
2869.00,0.1160
2868.00,0.1169
2867.00,0.1164
2866.00,0.1140
2865.00,0.1098
2864.00,0.1040
2863.00,0.0975
2862.00,0.0911
2861.00,0.0856
2860.00,0.0814
2859.00,0.0787
2858.00,0.0772
2857.00,0.0768
2856.00,0.0772
2855.00,0.0781
2854.00,0.0795
2853.00,0.0809
2852.00,0.0824
2851.00,0.0837
2850.00,0.0848
2849.00,0.0859
2848.00,0.0872
2847.00,0.0891
2846.00,0.0918
2845.00,0.0956
2844.00,0.1004
2843.00,0.1058
2842.00,0.1115
2841.00,0.1168
2840.00,0.1208
2839.00,0.1228
2838.00,0.1221
2837.00,0.1183
2836.00,0.1117
2835.00,0.1027
2834.00,0.0923
2833.00,0.0815
2832.00,0.0714
2831.00,0.0624
2830.00,0.0548
2829.00,0.0486
2828.00,0.0436
2827.00,0.0395
2826.00,0.0361
2825.00,0.0334
2824.00,0.0310
2823.00,0.0291
2822.00,0.0274
2821.00,0.0259
2820.00,0.0245
2819.00,0.0233
2818.00,0.0223
2817.00,0.0214
2816.00,0.0206
2815.00,0.0200
2814.00,0.0193
2813.00,0.0188
2812.00,0.0183
2811.00,0.0177
2810.00,0.0172
2809.00,0.0167
2808.00,0.0161
2807.00,0.0155
2806.00,0.0149
2805.00,0.0143
2804.00,0.0137
2803.00,0.0131
2802.00,0.0126
2801.00,0.0121
2800.00,0.0117
2799.00,0.0114
2798.00,0.0111
2797.00,0.0109
2796.00,0.0107
2795.00,0.0105
2794.00,0.0103
2793.00,0.0100
2792.00,0.0097
2791.00,0.0093
2790.00,0.0090
2789.00,0.0086
2788.00,0.0083
2787.00,0.0080
2786.00,0.0077
2785.00,0.0074
2784.00,0.0072
2783.00,0.0070
2782.00,0.0068
2781.00,0.0066
2780.00,0.0064
2779.00,0.0063
2778.00,0.0061
2777.00,0.0059
2776.00,0.0058
2775.00,0.0057
2774.00,0.0056
2773.00,0.0055
2772.00,0.0055
2771.00,0.0054
2770.00,0.0054
2769.00,0.0053
2768.00,0.0052
2767.00,0.0052
2766.00,0.0052
2765.00,0.0051
2764.00,0.0051
2763.00,0.0051
2762.00,0.0050
2761.00,0.0050
2760.00,0.0049
2759.00,0.0049
2758.00,0.0049
2757.00,0.0049
2756.00,0.0049
2755.00,0.0049
2754.00,0.0048
2753.00,0.0048
2752.00,0.0048
2751.00,0.0047
2750.00,0.0047
2749.00,0.0047
2748.00,0.0047
2747.00,0.0048
2746.00,0.0048
2745.00,0.0049
2744.00,0.0049
2743.00,0.0050
2742.00,0.0051
2741.00,0.0052
2740.00,0.0053
2739.00,0.0055
2738.00,0.0056
2737.00,0.0057
2736.00,0.0058
2735.00,0.0060
2734.00,0.0061
2733.00,0.0063
2732.00,0.0065
2731.00,0.0066
2730.00,0.0068
2729.00,0.0070
2728.00,0.0072
2727.00,0.0075
2726.00,0.0077
2725.00,0.0079
2724.00,0.0081
2723.00,0.0081
2722.00,0.0081
2721.00,0.0079
2720.00,0.0077
2719.00,0.0074
2718.00,0.0071
2717.00,0.0068
2716.00,0.0065
2715.00,0.0063
2714.00,0.0060
2713.00,0.0058
2712.00,0.0056
2711.00,0.0055
2710.00,0.0053
2709.00,0.0052
2708.00,0.0051
2707.00,0.0050
2706.00,0.0049
2705.00,0.0048
2704.00,0.0047
2703.00,0.0046
2702.00,0.0045
2701.00,0.0044
2700.00,0.0043
2699.00,0.0043
2698.00,0.0043
2697.00,0.0042
2696.00,0.0042
2695.00,0.0042
2694.00,0.0042
2693.00,0.0042
2692.00,0.0042
2691.00,0.0042
2690.00,0.0042
2689.00,0.0043
2688.00,0.0043
2687.00,0.0043
2686.00,0.0043
2685.00,0.0043
2684.00,0.0043
2683.00,0.0043
2682.00,0.0043
2681.00,0.0043
2680.00,0.0043
2679.00,0.0043
2678.00,0.0043
2677.00,0.0043
2676.00,0.0043
2675.00,0.0043
2674.00,0.0042
2673.00,0.0042
2672.00,0.0042
2671.00,0.0042
2670.00,0.0041
2669.00,0.0041
2668.00,0.0041
2667.00,0.0041
2666.00,0.0042
2665.00,0.0042
2664.00,0.0043
2663.00,0.0043
2662.00,0.0044
2661.00,0.0044
2660.00,0.0044
2659.00,0.0044
2658.00,0.0044
2657.00,0.0044
2656.00,0.0043
2655.00,0.0043
2654.00,0.0043
2653.00,0.0042
2652.00,0.0042
2651.00,0.0041
2650.00,0.0041
2649.00,0.0040
2648.00,0.0040
2647.00,0.0040
2646.00,0.0040
2645.00,0.0039
2644.00,0.0039
2643.00,0.0038
2642.00,0.0038
2641.00,0.0038
2640.00,0.0038
2639.00,0.0037
2638.00,0.0036
2637.00,0.0036
2636.00,0.0035
2635.00,0.0035
2634.00,0.0035
2633.00,0.0035
2632.00,0.0034
2631.00,0.0035
2630.00,0.0035
2629.00,0.0036
2628.00,0.0036
2627.00,0.0037
2626.00,0.0037
2625.00,0.0038
2624.00,0.0038
2623.00,0.0038
2622.00,0.0037
2621.00,0.0037
2620.00,0.0037
2619.00,0.0037
2618.00,0.0036
2617.00,0.0036
2616.00,0.0037
2615.00,0.0037
2614.00,0.0037
2613.00,0.0037
2612.00,0.0036
2611.00,0.0036
2610.00,0.0035
2609.00,0.0034
2608.00,0.0033
2607.00,0.0032
2606.00,0.0031
2605.00,0.0030
2604.00,0.0030
2603.00,0.0029
2602.00,0.0029
2601.00,0.0029
2600.00,0.0029
2599.00,0.0029
2598.00,0.0028
2597.00,0.0028
2596.00,0.0029
2595.00,0.0029
2594.00,0.0029
2593.00,0.0029
2592.00,0.0029
2591.00,0.0030
2590.00,0.0031
2589.00,0.0032
2588.00,0.0033
2587.00,0.0034
2586.00,0.0034
2585.00,0.0035
2584.00,0.0037
2583.00,0.0037
2582.00,0.0038
2581.00,0.0037
2580.00,0.0035
2579.00,0.0034
2578.00,0.0032
2577.00,0.0032
2576.00,0.0031
2575.00,0.0030
2574.00,0.0029
2573.00,0.0029
2572.00,0.0028
2571.00,0.0027
2570.00,0.0026
2569.00,0.0025
2568.00,0.0024
2567.00,0.0023
2566.00,0.0023
2565.00,0.0022
2564.00,0.0021
2563.00,0.0020
2562.00,0.0020
2561.00,0.0020
2560.00,0.0020
2559.00,0.0021
2558.00,0.0021
2557.00,0.0021
2556.00,0.0020
2555.00,0.0020
2554.00,0.0020
2553.00,0.0019
2552.00,0.0019
2551.00,0.0018
2550.00,0.0018
2549.00,0.0018
2548.00,0.0017
2547.00,0.0017
2546.00,0.0017
2545.00,0.0016
2544.00,0.0016
2543.00,0.0015
2542.00,0.0015
2541.00,0.0015
2540.00,0.0014
2539.00,0.0013
2538.00,0.0013
2537.00,0.0013
2536.00,0.0013
2535.00,0.0013
2534.00,0.0013
2533.00,0.0013
2532.00,0.0014
2531.00,0.0014
2530.00,0.0014
2529.00,0.0014
2528.00,0.0013
2527.00,0.0013
2526.00,0.0012
2525.00,0.0012
2524.00,0.0012
2523.00,0.0012
2522.00,0.0012
2521.00,0.0012
2520.00,0.0012
2519.00,0.0011
2518.00,0.0011
2517.00,0.0010
2516.00,0.0010
2515.00,0.0009
2514.00,0.0009
2513.00,0.0009
2512.00,0.0009
2511.00,0.0009
2510.00,0.0009
2509.00,0.0009
2508.00,0.0009
2507.00,0.0009
2506.00,0.0009
2505.00,0.0009
2504.00,0.0008
2503.00,0.0008
2502.00,0.0008
2501.00,0.0008
2500.00,0.0008
2499.00,0.0008
2498.00,0.0008
2497.00,0.0008
2496.00,0.0008
2495.00,0.0008
2494.00,0.0008
2493.00,0.0008
2492.00,0.0008
2491.00,0.0008
2490.00,0.0008
2489.00,0.0008
2488.00,0.0008
2487.00,0.0008
2486.00,0.0008
2485.00,0.0008
2484.00,0.0008
2483.00,0.0008
2482.00,0.0009
2481.00,0.0008
2480.00,0.0008
2479.00,0.0008
2478.00,0.0008
2477.00,0.0008
2476.00,0.0007
2475.00,0.0007
2474.00,0.0006
2473.00,0.0006
2472.00,0.0006
2471.00,0.0007
2470.00,0.0007
2469.00,0.0008
2468.00,0.0008
2467.00,0.0008
2466.00,0.0007
2465.00,0.0007
2464.00,0.0007
2463.00,0.0007
2462.00,0.0007
2461.00,0.0007
2460.00,0.0007
2459.00,0.0008
2458.00,0.0008
2457.00,0.0008
2456.00,0.0007
2455.00,0.0007
2454.00,0.0008
2453.00,0.0008
2452.00,0.0009
2451.00,0.0009
2450.00,0.0010
2449.00,0.0009
2448.00,0.0009
2447.00,0.0009
2446.00,0.0009
2445.00,0.0009
2444.00,0.0009
2443.00,0.0009
2442.00,0.0009
2441.00,0.0008
2440.00,0.0008
2439.00,0.0009
2438.00,0.0009
2437.00,0.0009
2436.00,0.0009
2435.00,0.0008
2434.00,0.0008
2433.00,0.0008
2432.00,0.0009
2431.00,0.0009
2430.00,0.0009
2429.00,0.0009
2428.00,0.0009
2427.00,0.0008
2426.00,0.0008
2425.00,0.0009
2424.00,0.0009
2423.00,0.0009
2422.00,0.0009
2421.00,0.0009
2420.00,0.0010
2419.00,0.0009
2418.00,0.0009
2417.00,0.0009
2416.00,0.0008
2415.00,0.0008
2414.00,0.0008
2413.00,0.0007
2412.00,0.0007
2411.00,0.0007
2410.00,0.0007
2409.00,0.0007
2408.00,0.0007
2407.00,0.0007
2406.00,0.0006
2405.00,0.0006
2404.00,0.0007
2403.00,0.0007
2402.00,0.0007
2401.00,0.0006
2400.00,0.0006
2399.00,0.0005
2398.00,0.0005
2397.00,0.0005
2396.00,0.0005
2395.00,0.0006
2394.00,0.0006
2393.00,0.0006
2392.00,0.0006
2391.00,0.0006
2390.00,0.0005
2389.00,0.0005
2388.00,0.0005
2387.00,0.0005
2386.00,0.0004
2385.00,0.0003
2384.00,0.0002
2383.00,0.0001
2382.00,-0.0000
2381.00,-0.0001
2380.00,-0.0002
2379.00,-0.0002
2378.00,-0.0002
2377.00,-0.0001
2376.00,-0.0000
2375.00,0.0000
2374.00,0.0000
2373.00,-0.0000
2372.00,-0.0001
2371.00,-0.0001
2370.00,-0.0001
2369.00,-0.0001
2368.00,-0.0001
2367.00,-0.0002
2366.00,-0.0003
2365.00,-0.0003
2364.00,-0.0003
2363.00,-0.0002
2362.00,-0.0002
2361.00,-0.0001
2360.00,-0.0001
2359.00,-0.0001
2358.00,-0.0000
2357.00,0.0001
2356.00,0.0001
2355.00,0.0000
2354.00,-0.0001
2353.00,-0.0002
2352.00,-0.0003
2351.00,-0.0003
2350.00,-0.0002
2349.00,-0.0001
2348.00,-0.0000
2347.00,0.0000
2346.00,0.0000
2345.00,0.0000
2344.00,0.0001
2343.00,0.0001
2342.00,0.0001
2341.00,0.0001
2340.00,0.0001
2339.00,0.0002
2338.00,0.0002
2337.00,0.0002
2336.00,0.0002
2335.00,0.0002
2334.00,0.0001
2333.00,0.0001
2332.00,0.0000
2331.00,-0.0001
2330.00,-0.0001
2329.00,0.0000
2328.00,0.0003
2327.00,0.0007
2326.00,0.0011
2325.00,0.0014
2324.00,0.0015
2323.00,0.0013
2322.00,0.0010
2321.00,0.0008
2320.00,0.0007
2319.00,0.0006
2318.00,0.0006
2317.00,0.0005
2316.00,0.0005
2315.00,0.0004
2314.00,0.0003
2313.00,0.0003
2312.00,0.0002
2311.00,0.0002
2310.00,0.0002
2309.00,0.0002
2308.00,0.0002
2307.00,0.0003
2306.00,0.0003
2305.00,0.0004
2304.00,0.0004
2303.00,0.0004
2302.00,0.0005
2301.00,0.0006
2300.00,0.0007
2299.00,0.0008
2298.00,0.0008
2297.00,0.0008
2296.00,0.0009
2295.00,0.0009
2294.00,0.0010
2293.00,0.0011
2292.00,0.0011
2291.00,0.0012
2290.00,0.0014
2289.00,0.0015
2288.00,0.0015
2287.00,0.0015
2286.00,0.0014
2285.00,0.0013
2284.00,0.0013
2283.00,0.0012
2282.00,0.0011
2281.00,0.0010
2280.00,0.0010
2279.00,0.0010
2278.00,0.0010
2277.00,0.0011
2276.00,0.0011
2275.00,0.0011
2274.00,0.0011
2273.00,0.0011
2272.00,0.0011
2271.00,0.0010
2270.00,0.0010
2269.00,0.0010
2268.00,0.0010
2267.00,0.0010
2266.00,0.0010
2265.00,0.0009
2264.00,0.0009
2263.00,0.0009
2262.00,0.0009
2261.00,0.0008
2260.00,0.0008
2259.00,0.0009
2258.00,0.0009
2257.00,0.0010
2256.00,0.0009
2255.00,0.0007
2254.00,0.0005
2253.00,0.0004
2252.00,0.0004
2251.00,0.0004
2250.00,0.0005
2249.00,0.0006
2248.00,0.0007
2247.00,0.0007
2246.00,0.0006
2245.00,0.0005
2244.00,0.0004
2243.00,0.0004
2242.00,0.0004
2241.00,0.0004
2240.00,0.0003
2239.00,0.0003
2238.00,0.0004
2237.00,0.0006
2236.00,0.0007
2235.00,0.0008
2234.00,0.0009
2233.00,0.0008
2232.00,0.0008
2231.00,0.0008
2230.00,0.0009
2229.00,0.0010
2228.00,0.0010
2227.00,0.0010
2226.00,0.0008
2225.00,0.0007
2224.00,0.0005
2223.00,0.0004
2222.00,0.0004
2221.00,0.0005
2220.00,0.0006
2219.00,0.0007
2218.00,0.0006
2217.00,0.0006
2216.00,0.0005
2215.00,0.0004
2214.00,0.0003
2213.00,0.0003
2212.00,0.0003
2211.00,0.0003
2210.00,0.0003
2209.00,0.0003
2208.00,0.0003
2207.00,0.0003
2206.00,0.0001
2205.00,-0.0000
2204.00,-0.0001
2203.00,-0.0002
2202.00,-0.0002
2201.00,-0.0001
2200.00,0.0000
2199.00,0.0002
2198.00,0.0003
2197.00,0.0005
2196.00,0.0006
2195.00,0.0006
2194.00,0.0005
2193.00,0.0005
2192.00,0.0005
2191.00,0.0005
2190.00,0.0006
2189.00,0.0006
2188.00,0.0007
2187.00,0.0007
2186.00,0.0008
2185.00,0.0008
2184.00,0.0006
2183.00,0.0004
2182.00,0.0000
2181.00,-0.0002
2180.00,-0.0001
2179.00,0.0001
2178.00,0.0003
2177.00,0.0003
2176.00,0.0000
2175.00,-0.0002
2174.00,-0.0002
2173.00,0.0000
2172.00,0.0004
2171.00,0.0009
2170.00,0.0012
2169.00,0.0014
2168.00,0.0014
2167.00,0.0014
2166.00,0.0015
2165.00,0.0018
2164.00,0.0021
2163.00,0.0024
2162.00,0.0023
2161.00,0.0016
2160.00,0.0002
2159.00,-0.0015
2158.00,-0.0028
2157.00,-0.0033
2156.00,-0.0031
2155.00,-0.0028
2154.00,-0.0026
2153.00,-0.0025
2152.00,-0.0024
2151.00,-0.0023
2150.00,-0.0023
2149.00,-0.0023
2148.00,-0.0023
2147.00,-0.0021
2146.00,-0.0019
2145.00,-0.0016
2144.00,-0.0015
2143.00,-0.0016
2142.00,-0.0017
2141.00,-0.0018
2140.00,-0.0017
2139.00,-0.0016
2138.00,-0.0016
2137.00,-0.0017
2136.00,-0.0020
2135.00,-0.0022
2134.00,-0.0022
2133.00,-0.0021
2132.00,-0.0019
2131.00,-0.0017
2130.00,-0.0015
2129.00,-0.0013
2128.00,-0.0010
2127.00,-0.0008
2126.00,-0.0006
2125.00,-0.0005
2124.00,-0.0005
2123.00,-0.0006
2122.00,-0.0006
2121.00,-0.0005
2120.00,-0.0004
2119.00,-0.0004
2118.00,-0.0004
2117.00,-0.0003
2116.00,-0.0001
2115.00,-0.0000
2114.00,0.0000
2113.00,0.0001
2112.00,0.0002
2111.00,0.0002
2110.00,0.0000
2109.00,-0.0001
2108.00,-0.0001
2107.00,-0.0001
2106.00,-0.0001
2105.00,-0.0001
2104.00,-0.0001
2103.00,-0.0000
2102.00,0.0000
2101.00,0.0001
2100.00,0.0001
2099.00,-0.0001
2098.00,-0.0003
2097.00,-0.0004
2096.00,-0.0005
2095.00,-0.0006
2094.00,-0.0006
2093.00,-0.0006
2092.00,-0.0006
2091.00,-0.0006
2090.00,-0.0004
2089.00,-0.0002
2088.00,0.0001
2087.00,0.0002
2086.00,0.0002
2085.00,0.0001
2084.00,0.0000
2083.00,-0.0000
2082.00,-0.0000
2081.00,-0.0000
2080.00,-0.0000
2079.00,-0.0001
2078.00,-0.0001
2077.00,-0.0001
2076.00,0.0000
2075.00,0.0001
2074.00,0.0002
2073.00,0.0002
2072.00,0.0001
2071.00,0.0000
2070.00,-0.0001
2069.00,-0.0001
2068.00,-0.0002
2067.00,-0.0002
2066.00,-0.0003
2065.00,-0.0003
2064.00,-0.0002
2063.00,-0.0002
2062.00,-0.0002
2061.00,-0.0003
2060.00,-0.0003
2059.00,-0.0003
2058.00,-0.0002
2057.00,-0.0001
2056.00,0.0001
2055.00,0.0001
2054.00,0.0002
2053.00,0.0004
2052.00,0.0007
2051.00,0.0008
2050.00,0.0008
2049.00,0.0007
2048.00,0.0005
2047.00,0.0002
2046.00,-0.0001
2045.00,-0.0003
2044.00,-0.0003
2043.00,-0.0002
2042.00,-0.0002
2041.00,-0.0003
2040.00,-0.0004
2039.00,-0.0004
2038.00,-0.0003
2037.00,-0.0001
2036.00,-0.0001
2035.00,-0.0003
2034.00,-0.0006
2033.00,-0.0008
2032.00,-0.0010
2031.00,-0.0013
2030.00,-0.0016
2029.00,-0.0019
2028.00,-0.0019
2027.00,-0.0017
2026.00,-0.0015
2025.00,-0.0014
2024.00,-0.0015
2023.00,-0.0017
2022.00,-0.0019
2021.00,-0.0019
2020.00,-0.0018
2019.00,-0.0018
2018.00,-0.0019
2017.00,-0.0020
2016.00,-0.0020
2015.00,-0.0020
2014.00,-0.0018
2013.00,-0.0015
2012.00,-0.0012
2011.00,-0.0009
2010.00,-0.0009
2009.00,-0.0012
2008.00,-0.0016
2007.00,-0.0020
2006.00,-0.0023
2005.00,-0.0024
2004.00,-0.0023
2003.00,-0.0020
2002.00,-0.0017
2001.00,-0.0014
2000.00,-0.0013
1999.00,-0.0012
1998.00,-0.0013
1997.00,-0.0012
1996.00,-0.0011
1995.00,-0.0010
1994.00,-0.0009
1993.00,-0.0008
1992.00,-0.0008
1991.00,-0.0009
1990.00,-0.0010
1989.00,-0.0011
1988.00,-0.0012
1987.00,-0.0011
1986.00,-0.0010
1985.00,-0.0008
1984.00,-0.0005
1983.00,-0.0002
1982.00,0.0001
1981.00,0.0002
1980.00,0.0000
1979.00,-0.0005
1978.00,-0.0012
1977.00,-0.0020
1976.00,-0.0024
1975.00,-0.0026
1974.00,-0.0024
1973.00,-0.0020
1972.00,-0.0016
1971.00,-0.0016
1970.00,-0.0017
1969.00,-0.0017
1968.00,-0.0016
1967.00,-0.0015
1966.00,-0.0014
1965.00,-0.0013
1964.00,-0.0013
1963.00,-0.0014
1962.00,-0.0016
1961.00,-0.0018
1960.00,-0.0020
1959.00,-0.0020
1958.00,-0.0020
1957.00,-0.0019
1956.00,-0.0017
1955.00,-0.0016
1954.00,-0.0016
1953.00,-0.0016
1952.00,-0.0017
1951.00,-0.0017
1950.00,-0.0016
1949.00,-0.0015
1948.00,-0.0013
1947.00,-0.0013
1946.00,-0.0013
1945.00,-0.0015
1944.00,-0.0016
1943.00,-0.0016
1942.00,-0.0016
1941.00,-0.0015
1940.00,-0.0013
1939.00,-0.0013
1938.00,-0.0013
1937.00,-0.0013
1936.00,-0.0014
1935.00,-0.0014
1934.00,-0.0014
1933.00,-0.0013
1932.00,-0.0012
1931.00,-0.0011
1930.00,-0.0011
1929.00,-0.0011
1928.00,-0.0010
1927.00,-0.0010
1926.00,-0.0009
1925.00,-0.0009
1924.00,-0.0009
1923.00,-0.0008
1922.00,-0.0008
1921.00,-0.0007
1920.00,-0.0005
1919.00,-0.0004
1918.00,-0.0004
1917.00,-0.0003
1916.00,-0.0003
1915.00,-0.0003
1914.00,-0.0003
1913.00,-0.0003
1912.00,-0.0003
1911.00,-0.0003
1910.00,-0.0003
1909.00,-0.0003
1908.00,-0.0002
1907.00,-0.0002
1906.00,-0.0003
1905.00,-0.0003
1904.00,-0.0003
1903.00,-0.0002
1902.00,-0.0001
1901.00,-0.0001
1900.00,-0.0002
1899.00,-0.0002
1898.00,-0.0002
1897.00,-0.0002
1896.00,-0.0002
1895.00,-0.0003
1894.00,-0.0002
1893.00,-0.0002
1892.00,-0.0001
1891.00,0.0000
1890.00,0.0001
1889.00,0.0000
1888.00,-0.0001
1887.00,-0.0002
1886.00,-0.0004
1885.00,-0.0005
1884.00,-0.0005
1883.00,-0.0005
1882.00,-0.0004
1881.00,-0.0004
1880.00,-0.0003
1879.00,-0.0004
1878.00,-0.0004
1877.00,-0.0004
1876.00,-0.0003
1875.00,-0.0003
1874.00,-0.0003
1873.00,-0.0003
1872.00,-0.0004
1871.00,-0.0004
1870.00,-0.0004
1869.00,-0.0004
1868.00,-0.0003
1867.00,-0.0002
1866.00,-0.0002
1865.00,-0.0001
1864.00,-0.0001
1863.00,-0.0001
1862.00,-0.0001
1861.00,-0.0001
1860.00,-0.0000
1859.00,-0.0000
1858.00,-0.0000
1857.00,-0.0000
1856.00,-0.0001
1855.00,-0.0001
1854.00,-0.0001
1853.00,-0.0001
1852.00,-0.0002
1851.00,-0.0002
1850.00,-0.0001
1849.00,-0.0001
1848.00,0.0000
1847.00,0.0000
1846.00,0.0000
1845.00,0.0000
1844.00,0.0001
1843.00,0.0001
1842.00,0.0001
1841.00,0.0001
1840.00,0.0001
1839.00,0.0001
1838.00,0.0001
1837.00,0.0001
1836.00,0.0001
1835.00,0.0001
1834.00,0.0001
1833.00,0.0001
1832.00,0.0002
1831.00,0.0002
1830.00,0.0002
1829.00,0.0002
1828.00,0.0002
1827.00,0.0001
1826.00,0.0001
1825.00,0.0002
1824.00,0.0002
1823.00,0.0002
1822.00,0.0002
1821.00,0.0002
1820.00,0.0001
1819.00,0.0000
1818.00,-0.0000
1817.00,-0.0001
1816.00,-0.0001
1815.00,0.0000
1814.00,0.0001
1813.00,0.0001
1812.00,0.0002
1811.00,0.0002
1810.00,0.0002
1809.00,0.0002
1808.00,0.0003
1807.00,0.0003
1806.00,0.0002
1805.00,0.0002
1804.00,0.0001
1803.00,0.0001
1802.00,0.0002
1801.00,0.0003
1800.00,0.0004
1799.00,0.0004
1798.00,0.0004
1797.00,0.0005
1796.00,0.0004
1795.00,0.0004
1794.00,0.0004
1793.00,0.0004
1792.00,0.0004
1791.00,0.0005
1790.00,0.0005
1789.00,0.0005
1788.00,0.0005
1787.00,0.0005
1786.00,0.0005
1785.00,0.0006
1784.00,0.0006
1783.00,0.0006
1782.00,0.0006
1781.00,0.0006
1780.00,0.0006
1779.00,0.0006
1778.00,0.0005
1777.00,0.0005
1776.00,0.0006
1775.00,0.0006
1774.00,0.0007
1773.00,0.0008
1772.00,0.0009
1771.00,0.0009
1770.00,0.0009
1769.00,0.0009
1768.00,0.0009
1767.00,0.0009
1766.00,0.0009
1765.00,0.0009
1764.00,0.0009
1763.00,0.0010
1762.00,0.0010
1761.00,0.0011
1760.00,0.0012
1759.00,0.0012
1758.00,0.0012
1757.00,0.0012
1756.00,0.0012
1755.00,0.0012
1754.00,0.0012
1753.00,0.0013
1752.00,0.0014
1751.00,0.0015
1750.00,0.0015
1749.00,0.0016
1748.00,0.0017
1747.00,0.0018
1746.00,0.0019
1745.00,0.0021
1744.00,0.0022
1743.00,0.0023
1742.00,0.0024
1741.00,0.0024
1740.00,0.0025
1739.00,0.0026
1738.00,0.0026
1737.00,0.0026
1736.00,0.0026
1735.00,0.0026
1734.00,0.0026
1733.00,0.0027
1732.00,0.0027
1731.00,0.0026
1730.00,0.0026
1729.00,0.0026
1728.00,0.0026
1727.00,0.0026
1726.00,0.0026
1725.00,0.0027
1724.00,0.0027
1723.00,0.0027
1722.00,0.0027
1721.00,0.0026
1720.00,0.0026
1719.00,0.0026
1718.00,0.0025
1717.00,0.0025
1716.00,0.0024
1715.00,0.0023
1714.00,0.0023
1713.00,0.0023
1712.00,0.0023
1711.00,0.0023
1710.00,0.0024
1709.00,0.0024
1708.00,0.0024
1707.00,0.0023
1706.00,0.0023
1705.00,0.0023
1704.00,0.0024
1703.00,0.0024
1702.00,0.0024
1701.00,0.0024
1700.00,0.0024
1699.00,0.0025
1698.00,0.0025
1697.00,0.0026
1696.00,0.0027
1695.00,0.0027
1694.00,0.0027
1693.00,0.0028
1692.00,0.0029
1691.00,0.0029
1690.00,0.0030
1689.00,0.0031
1688.00,0.0032
1687.00,0.0032
1686.00,0.0033
1685.00,0.0033
1684.00,0.0035
1683.00,0.0036
1682.00,0.0037
1681.00,0.0038
1680.00,0.0038
1679.00,0.0039
1678.00,0.0039
1677.00,0.0040
1676.00,0.0040
1675.00,0.0041
1674.00,0.0042
1673.00,0.0042
1672.00,0.0043
1671.00,0.0044
1670.00,0.0045
1669.00,0.0046
1668.00,0.0046
1667.00,0.0046
1666.00,0.0046
1665.00,0.0047
1664.00,0.0047
1663.00,0.0047
1662.00,0.0048
1661.00,0.0048
1660.00,0.0049
1659.00,0.0049
1658.00,0.0049
1657.00,0.0050
1656.00,0.0051
1655.00,0.0051
1654.00,0.0052
1653.00,0.0054
1652.00,0.0055
1651.00,0.0056
1650.00,0.0056
1649.00,0.0057
1648.00,0.0059
1647.00,0.0061
1646.00,0.0062
1645.00,0.0063
1644.00,0.0064
1643.00,0.0063
1642.00,0.0063
1641.00,0.0062
1640.00,0.0062
1639.00,0.0062
1638.00,0.0062
1637.00,0.0063
1636.00,0.0063
1635.00,0.0063
1634.00,0.0062
1633.00,0.0062
1632.00,0.0061
1631.00,0.0060
1630.00,0.0060
1629.00,0.0059
1628.00,0.0059
1627.00,0.0058
1626.00,0.0058
1625.00,0.0057
1624.00,0.0057
1623.00,0.0056
1622.00,0.0055
1621.00,0.0055
1620.00,0.0054
1619.00,0.0054
1618.00,0.0054
1617.00,0.0054
1616.00,0.0054
1615.00,0.0054
1614.00,0.0053
1613.00,0.0053
1612.00,0.0054
1611.00,0.0054
1610.00,0.0054
1609.00,0.0054
1608.00,0.0053
1607.00,0.0053
1606.00,0.0053
1605.00,0.0052
1604.00,0.0052
1603.00,0.0051
1602.00,0.0051
1601.00,0.0051
1600.00,0.0051
1599.00,0.0050
1598.00,0.0050
1597.00,0.0050
1596.00,0.0050
1595.00,0.0049
1594.00,0.0049
1593.00,0.0049
1592.00,0.0049
1591.00,0.0048
1590.00,0.0048
1589.00,0.0047
1588.00,0.0047
1587.00,0.0047
1586.00,0.0046
1585.00,0.0046
1584.00,0.0046
1583.00,0.0045
1582.00,0.0045
1581.00,0.0044
1580.00,0.0044
1579.00,0.0044
1578.00,0.0044
1577.00,0.0044
1576.00,0.0045
1575.00,0.0045
1574.00,0.0045
1573.00,0.0046
1572.00,0.0047
1571.00,0.0048
1570.00,0.0049
1569.00,0.0051
1568.00,0.0053
1567.00,0.0053
1566.00,0.0054
1565.00,0.0055
1564.00,0.0055
1563.00,0.0056
1562.00,0.0056
1561.00,0.0057
1560.00,0.0058
1559.00,0.0058
1558.00,0.0058
1557.00,0.0059
1556.00,0.0059
1555.00,0.0060
1554.00,0.0060
1553.00,0.0061
1552.00,0.0061
1551.00,0.0061
1550.00,0.0061
1549.00,0.0061
1548.00,0.0061
1547.00,0.0060
1546.00,0.0059
1545.00,0.0058
1544.00,0.0056
1543.00,0.0055
1542.00,0.0054
1541.00,0.0053
1540.00,0.0052
1539.00,0.0051
1538.00,0.0050
1537.00,0.0051
1536.00,0.0051
1535.00,0.0052
1534.00,0.0052
1533.00,0.0052
1532.00,0.0052
1531.00,0.0052
1530.00,0.0052
1529.00,0.0051
1528.00,0.0051
1527.00,0.0051
1526.00,0.0051
1525.00,0.0051
1524.00,0.0053
1523.00,0.0053
1522.00,0.0053
1521.00,0.0054
1520.00,0.0054
1519.00,0.0055
1518.00,0.0055
1517.00,0.0055
1516.00,0.0056
1515.00,0.0055
1514.00,0.0055
1513.00,0.0056
1512.00,0.0058
1511.00,0.0059
1510.00,0.0061
1509.00,0.0062
1508.00,0.0063
1507.00,0.0064
1506.00,0.0064
1505.00,0.0066
1504.00,0.0068
1503.00,0.0070
1502.00,0.0072
1501.00,0.0075
1500.00,0.0077
1499.00,0.0079
1498.00,0.0081
1497.00,0.0085
1496.00,0.0088
1495.00,0.0091
1494.00,0.0093
1493.00,0.0096
1492.00,0.0100
1491.00,0.0104
1490.00,0.0109
1489.00,0.0114
1488.00,0.0120
1487.00,0.0124
1486.00,0.0129
1485.00,0.0134
1484.00,0.0141
1483.00,0.0147
1482.00,0.0155
1481.00,0.0165
1480.00,0.0176
1479.00,0.0187
1478.00,0.0202
1477.00,0.0222
1476.00,0.0247
1475.00,0.0276
1474.00,0.0315
1473.00,0.0370
1472.00,0.0436
1471.00,0.0500
1470.00,0.0562
1469.00,0.0627
1468.00,0.0696
1467.00,0.0770
1466.00,0.0854
1465.00,0.0942
1464.00,0.1021
1463.00,0.1077
1462.00,0.1114
1461.00,0.1140
1460.00,0.1159
1459.00,0.1174
1458.00,0.1187
1457.00,0.1198
1456.00,0.1202
1455.00,0.1197
1454.00,0.1189
1453.00,0.1176
1452.00,0.1154
1451.00,0.1120
1450.00,0.1072
1449.00,0.1005
1448.00,0.0918
1447.00,0.0825
1446.00,0.0739
1445.00,0.0664
1444.00,0.0599
1443.00,0.0545
1442.00,0.0503
1441.00,0.0474
1440.00,0.0455
1439.00,0.0444
1438.00,0.0441
1437.00,0.0437
1436.00,0.0423
1435.00,0.0398
1434.00,0.0364
1433.00,0.0324
1432.00,0.0283
1431.00,0.0247
1430.00,0.0218
1429.00,0.0196
1428.00,0.0181
1427.00,0.0171
1426.00,0.0164
1425.00,0.0158
1424.00,0.0152
1423.00,0.0148
1422.00,0.0146
1421.00,0.0144
1420.00,0.0141
1419.00,0.0139
1418.00,0.0136
1417.00,0.0133
1416.00,0.0130
1415.00,0.0128
1414.00,0.0127
1413.00,0.0125
1412.00,0.0123
1411.00,0.0121
1410.00,0.0120
1409.00,0.0118
1408.00,0.0117
1407.00,0.0117
1406.00,0.0117
1405.00,0.0117
1404.00,0.0117
1403.00,0.0118
1402.00,0.0119
1401.00,0.0120
1400.00,0.0121
1399.00,0.0122
1398.00,0.0124
1397.00,0.0126
1396.00,0.0127
1395.00,0.0130
1394.00,0.0135
1393.00,0.0139
1392.00,0.0144
1391.00,0.0151
1390.00,0.0161
1389.00,0.0175
1388.00,0.0195
1387.00,0.0226
1386.00,0.0268
1385.00,0.0323
1384.00,0.0400
1383.00,0.0507
1382.00,0.0649
1381.00,0.0829
1380.00,0.1046
1379.00,0.1286
1378.00,0.1510
1377.00,0.1664
1376.00,0.1705
1375.00,0.1609
1374.00,0.1405
1373.00,0.1165
1372.00,0.0946
1371.00,0.0766
1370.00,0.0622
1369.00,0.0513
1368.00,0.0437
1367.00,0.0390
1366.00,0.0363
1365.00,0.0351
1364.00,0.0352
1363.00,0.0363
1362.00,0.0380
1361.00,0.0399
1360.00,0.0413
1359.00,0.0417
1358.00,0.0408
1357.00,0.0385
1356.00,0.0354
1355.00,0.0318
1354.00,0.0284
1353.00,0.0255
1352.00,0.0230
1351.00,0.0210
1350.00,0.0194
1349.00,0.0180
1348.00,0.0169
1347.00,0.0159
1346.00,0.0151
1345.00,0.0143
1344.00,0.0138
1343.00,0.0133
1342.00,0.0129
1341.00,0.0125
1340.00,0.0122
1339.00,0.0120
1338.00,0.0119
1337.00,0.0118
1336.00,0.0119
1335.00,0.0121
1334.00,0.0123
1333.00,0.0126
1332.00,0.0130
1331.00,0.0133
1330.00,0.0134
1329.00,0.0133
1328.00,0.0130
1327.00,0.0126
1326.00,0.0122
1325.00,0.0116
1324.00,0.0111
1323.00,0.0106
1322.00,0.0102
1321.00,0.0099
1320.00,0.0096
1319.00,0.0094
1318.00,0.0093
1317.00,0.0092
1316.00,0.0092
1315.00,0.0092
1314.00,0.0092
1313.00,0.0093
1312.00,0.0094
1311.00,0.0096
1310.00,0.0101
1309.00,0.0109
1308.00,0.0120
1307.00,0.0133
1306.00,0.0146
1305.00,0.0155
1304.00,0.0158
1303.00,0.0154
1302.00,0.0146
1301.00,0.0139
1300.00,0.0135
1299.00,0.0132
1298.00,0.0131
1297.00,0.0130
1296.00,0.0128
1295.00,0.0126
1294.00,0.0123
1293.00,0.0118
1292.00,0.0113
1291.00,0.0108
1290.00,0.0103
1289.00,0.0100
1288.00,0.0097
1287.00,0.0095
1286.00,0.0093
1285.00,0.0091
1284.00,0.0090
1283.00,0.0088
1282.00,0.0087
1281.00,0.0086
1280.00,0.0084
1279.00,0.0083
1278.00,0.0083
1277.00,0.0082
1276.00,0.0082
1275.00,0.0083
1274.00,0.0083
1273.00,0.0083
1272.00,0.0084
1271.00,0.0084
1270.00,0.0085
1269.00,0.0086
1268.00,0.0087
1267.00,0.0090
1266.00,0.0092
1265.00,0.0095
1264.00,0.0097
1263.00,0.0100
1262.00,0.0104
1261.00,0.0109
1260.00,0.0115
1259.00,0.0123
1258.00,0.0132
1257.00,0.0139
1256.00,0.0142
1255.00,0.0140
1254.00,0.0133
1253.00,0.0123
1252.00,0.0113
1251.00,0.0104
1250.00,0.0097
1249.00,0.0092
1248.00,0.0088
1247.00,0.0084
1246.00,0.0082
1245.00,0.0080
1244.00,0.0078
1243.00,0.0076
1242.00,0.0075
1241.00,0.0074
1240.00,0.0073
1239.00,0.0072
1238.00,0.0071
1237.00,0.0070
1236.00,0.0069
1235.00,0.0068
1234.00,0.0068
1233.00,0.0067
1232.00,0.0067
1231.00,0.0068
1230.00,0.0069
1229.00,0.0070
1228.00,0.0072
1227.00,0.0074
1226.00,0.0076
1225.00,0.0078
1224.00,0.0080
1223.00,0.0082
1222.00,0.0084
1221.00,0.0087
1220.00,0.0088
1219.00,0.0090
1218.00,0.0089
1217.00,0.0088
1216.00,0.0085
1215.00,0.0082
1214.00,0.0079
1213.00,0.0077
1212.00,0.0075
1211.00,0.0074
1210.00,0.0072
1209.00,0.0071
1208.00,0.0070
1207.00,0.0069
1206.00,0.0069
1205.00,0.0068
1204.00,0.0067
1203.00,0.0067
1202.00,0.0067
1201.00,0.0067
1200.00,0.0066
1199.00,0.0065
1198.00,0.0065
1197.00,0.0065
1196.00,0.0066
1195.00,0.0066
1194.00,0.0066
1193.00,0.0066
1192.00,0.0066
1191.00,0.0066
1190.00,0.0065
1189.00,0.0065
1188.00,0.0065
1187.00,0.0066
1186.00,0.0067
1185.00,0.0069
1184.00,0.0072
1183.00,0.0074
1182.00,0.0077
1181.00,0.0080
1180.00,0.0084
1179.00,0.0090
1178.00,0.0098
1177.00,0.0108
1176.00,0.0122
1175.00,0.0140
1174.00,0.0163
1173.00,0.0193
1172.00,0.0229
1171.00,0.0268
1170.00,0.0306
1169.00,0.0337
1168.00,0.0356
1167.00,0.0359
1166.00,0.0348
1165.00,0.0329
1164.00,0.0306
1163.00,0.0284
1162.00,0.0265
1161.00,0.0250
1160.00,0.0238
1159.00,0.0229
1158.00,0.0222
1157.00,0.0216
1156.00,0.0212
1155.00,0.0209
1154.00,0.0207
1153.00,0.0204
1152.00,0.0199
1151.00,0.0192
1150.00,0.0183
1149.00,0.0173
1148.00,0.0164
1147.00,0.0155
1146.00,0.0146
1145.00,0.0138
1144.00,0.0130
1143.00,0.0123
1142.00,0.0116
1141.00,0.0111
1140.00,0.0106
1139.00,0.0102
1138.00,0.0097
1137.00,0.0094
1136.00,0.0091
1135.00,0.0089
1134.00,0.0087
1133.00,0.0086
1132.00,0.0084
1131.00,0.0083
1130.00,0.0083
1129.00,0.0083
1128.00,0.0084
1127.00,0.0086
1126.00,0.0087
1125.00,0.0088
1124.00,0.0088
1123.00,0.0088
1122.00,0.0089
1121.00,0.0089
1120.00,0.0090
1119.00,0.0091
1118.00,0.0092
1117.00,0.0093
1116.00,0.0094
1115.00,0.0094
1114.00,0.0094
1113.00,0.0095
1112.00,0.0097
1111.00,0.0100
1110.00,0.0103
1109.00,0.0107
1108.00,0.0112
1107.00,0.0117
1106.00,0.0122
1105.00,0.0127
1104.00,0.0131
1103.00,0.0134
1102.00,0.0133
1101.00,0.0131
1100.00,0.0126
1099.00,0.0120
1098.00,0.0114
1097.00,0.0109
1096.00,0.0105
1095.00,0.0101
1094.00,0.0098
1093.00,0.0096
1092.00,0.0094
1091.00,0.0093
1090.00,0.0092
1089.00,0.0091
1088.00,0.0089
1087.00,0.0088
1086.00,0.0088
1085.00,0.0087
1084.00,0.0087
1083.00,0.0087
1082.00,0.0087
1081.00,0.0087
1080.00,0.0088
1079.00,0.0087
1078.00,0.0087
1077.00,0.0086
1076.00,0.0085
1075.00,0.0085
1074.00,0.0084
1073.00,0.0084
1072.00,0.0083
1071.00,0.0084
1070.00,0.0084
1069.00,0.0084
1068.00,0.0084
1067.00,0.0084
1066.00,0.0085
1065.00,0.0086
1064.00,0.0086
1063.00,0.0086
1062.00,0.0085
1061.00,0.0084
1060.00,0.0084
1059.00,0.0085
1058.00,0.0086
1057.00,0.0087
1056.00,0.0088
1055.00,0.0091
1054.00,0.0095
1053.00,0.0099
1052.00,0.0102
1051.00,0.0106
1050.00,0.0111
1049.00,0.0115
1048.00,0.0120
1047.00,0.0124
1046.00,0.0128
1045.00,0.0130
1044.00,0.0131
1043.00,0.0130
1042.00,0.0129
1041.00,0.0126
1040.00,0.0124
1039.00,0.0123
1038.00,0.0122
1037.00,0.0120
1036.00,0.0119
1035.00,0.0118
1034.00,0.0117
1033.00,0.0116
1032.00,0.0116
1031.00,0.0115
1030.00,0.0115
1029.00,0.0115
1028.00,0.0115
1027.00,0.0117
1026.00,0.0120
1025.00,0.0122
1024.00,0.0125
1023.00,0.0127
1022.00,0.0128
1021.00,0.0130
1020.00,0.0131
1019.00,0.0132
1018.00,0.0132
1017.00,0.0133
1016.00,0.0133
1015.00,0.0133
1014.00,0.0133
1013.00,0.0134
1012.00,0.0135
1011.00,0.0136
1010.00,0.0137
1009.00,0.0140
1008.00,0.0144
1007.00,0.0151
1006.00,0.0161
1005.00,0.0174
1004.00,0.0193
1003.00,0.0219
1002.00,0.0255
1001.00,0.0301
1000.00,0.0351
999.00,0.0394
998.00,0.0417
997.00,0.0411
996.00,0.0379
995.00,0.0332
994.00,0.0281
993.00,0.0237
992.00,0.0202
991.00,0.0177
990.00,0.0159
989.00,0.0147
988.00,0.0139
987.00,0.0134
986.00,0.0132
985.00,0.0133
984.00,0.0137
983.00,0.0145
982.00,0.0156
981.00,0.0173
980.00,0.0195
979.00,0.0226
978.00,0.0265
977.00,0.0313
976.00,0.0366
975.00,0.0419
974.00,0.0460
973.00,0.0477
972.00,0.0464
971.00,0.0422
970.00,0.0362
969.00,0.0300
968.00,0.0246
967.00,0.0204
966.00,0.0173
965.00,0.0151
964.00,0.0136
963.00,0.0124
962.00,0.0116
961.00,0.0109
960.00,0.0104
959.00,0.0100
958.00,0.0097
957.00,0.0094
956.00,0.0091
955.00,0.0088
954.00,0.0085
953.00,0.0083
952.00,0.0082
951.00,0.0081
950.00,0.0080
949.00,0.0079
948.00,0.0079
947.00,0.0079
946.00,0.0081
945.00,0.0083
944.00,0.0087
943.00,0.0090
942.00,0.0094
941.00,0.0095
940.00,0.0095
939.00,0.0092
938.00,0.0088
937.00,0.0084
936.00,0.0080
935.00,0.0077
934.00,0.0074
933.00,0.0071
932.00,0.0069
931.00,0.0067
930.00,0.0067
929.00,0.0066
928.00,0.0067
927.00,0.0067
926.00,0.0067
925.00,0.0067
924.00,0.0066
923.00,0.0066
922.00,0.0066
921.00,0.0065
920.00,0.0065
919.00,0.0065
918.00,0.0065
917.00,0.0066
916.00,0.0067
915.00,0.0067
914.00,0.0068
913.00,0.0070
912.00,0.0071
911.00,0.0073
910.00,0.0075
909.00,0.0076
908.00,0.0078
907.00,0.0082
906.00,0.0088
905.00,0.0097
904.00,0.0109
903.00,0.0126
902.00,0.0144
901.00,0.0159
900.00,0.0169
899.00,0.0170
898.00,0.0163
897.00,0.0150
896.00,0.0134
895.00,0.0118
894.00,0.0106
893.00,0.0096
892.00,0.0089
891.00,0.0083
890.00,0.0080
889.00,0.0078
888.00,0.0077
887.00,0.0077
886.00,0.0076
885.00,0.0076
884.00,0.0076
883.00,0.0076
882.00,0.0076
881.00,0.0075
880.00,0.0076
879.00,0.0078
878.00,0.0080
877.00,0.0082
876.00,0.0084
875.00,0.0087
874.00,0.0089
873.00,0.0090
872.00,0.0089
871.00,0.0087
870.00,0.0084
869.00,0.0083
868.00,0.0082
867.00,0.0082
866.00,0.0082
865.00,0.0082
864.00,0.0082
863.00,0.0083
862.00,0.0084
861.00,0.0085
860.00,0.0085
859.00,0.0086
858.00,0.0088
857.00,0.0090
856.00,0.0093
855.00,0.0095
854.00,0.0097
853.00,0.0100
852.00,0.0104
851.00,0.0109
850.00,0.0115
849.00,0.0122
848.00,0.0132
847.00,0.0147
846.00,0.0171
845.00,0.0210
844.00,0.0266
843.00,0.0333
842.00,0.0389
841.00,0.0410
840.00,0.0385
839.00,0.0325
838.00,0.0257
837.00,0.0202
836.00,0.0166
835.00,0.0145
834.00,0.0131
833.00,0.0123
832.00,0.0117
831.00,0.0114
830.00,0.0111
829.00,0.0108
828.00,0.0105
827.00,0.0101
826.00,0.0098
825.00,0.0098
824.00,0.0099
823.00,0.0100
822.00,0.0101
821.00,0.0102
820.00,0.0104
819.00,0.0106
818.00,0.0109
817.00,0.0114
816.00,0.0120
815.00,0.0130
814.00,0.0142
813.00,0.0158
812.00,0.0174
811.00,0.0190
810.00,0.0201
809.00,0.0207
808.00,0.0205
807.00,0.0197
806.00,0.0183
805.00,0.0168
804.00,0.0153
803.00,0.0140
802.00,0.0130
801.00,0.0123
800.00,0.0117
799.00,0.0113
798.00,0.0109
797.00,0.0106
796.00,0.0102
795.00,0.0099
794.00,0.0097
793.00,0.0095
792.00,0.0092
791.00,0.0088
790.00,0.0086
789.00,0.0083
788.00,0.0081
787.00,0.0079
786.00,0.0077
785.00,0.0075
784.00,0.0074
783.00,0.0072
782.00,0.0071
781.00,0.0069
780.00,0.0068
779.00,0.0067
778.00,0.0066
777.00,0.0066
776.00,0.0066
775.00,0.0067
774.00,0.0067
773.00,0.0067
772.00,0.0067
771.00,0.0067
770.00,0.0067
769.00,0.0066
768.00,0.0066
767.00,0.0066
766.00,0.0066
765.00,0.0066
764.00,0.0066
763.00,0.0066
762.00,0.0067
761.00,0.0068
760.00,0.0068
759.00,0.0067
758.00,0.0066
757.00,0.0066
756.00,0.0067
755.00,0.0068
754.00,0.0069
753.00,0.0071
752.00,0.0074
751.00,0.0076
750.00,0.0078
749.00,0.0080
748.00,0.0081
747.00,0.0083
746.00,0.0085
745.00,0.0088
744.00,0.0090
743.00,0.0091
742.00,0.0092
741.00,0.0095
740.00,0.0098
739.00,0.0102
738.00,0.0107
737.00,0.0111
736.00,0.0116
735.00,0.0122
734.00,0.0128
733.00,0.0134
732.00,0.0142
731.00,0.0149
730.00,0.0154
729.00,0.0155
728.00,0.0155
727.00,0.0154
726.00,0.0155
725.00,0.0158
724.00,0.0162
723.00,0.0167
722.00,0.0173
721.00,0.0176
720.00,0.0175
719.00,0.0168
718.00,0.0157
717.00,0.0145
716.00,0.0135
715.00,0.0127
714.00,0.0121
713.00,0.0116
712.00,0.0112
711.00,0.0109
710.00,0.0107
709.00,0.0106
708.00,0.0106
707.00,0.0106
706.00,0.0105
705.00,0.0103
704.00,0.0101
703.00,0.0099
702.00,0.0099
701.00,0.0097
700.00,0.0095
699.00,0.0093
698.00,0.0092
697.00,0.0092
696.00,0.0092
695.00,0.0092
694.00,0.0092
693.00,0.0092
692.00,0.0093
691.00,0.0094
690.00,0.0094
689.00,0.0093
688.00,0.0092
687.00,0.0091
686.00,0.0091
685.00,0.0090
684.00,0.0089
683.00,0.0089
682.00,0.0089
681.00,0.0089
680.00,0.0089
679.00,0.0089
678.00,0.0091
677.00,0.0092
676.00,0.0093
675.00,0.0094
674.00,0.0095
673.00,0.0096
672.00,0.0098
671.00,0.0100
670.00,0.0103
669.00,0.0104
668.00,0.0103
667.00,0.0100
666.00,0.0097
665.00,0.0095
664.00,0.0094
663.00,0.0094
662.00,0.0094
661.00,0.0093
660.00,0.0090
659.00,0.0087
658.00,0.0086
657.00,0.0087
656.00,0.0089
655.00,0.0092
654.00,0.0093
653.00,0.0093
652.00,0.0092
651.00,0.0090
650.00,0.0088
649.00,0.0087
648.00,0.0086
647.00,0.0086
646.00,0.0087
645.00,0.0088
644.00,0.0087
643.00,0.0085
642.00,0.0083
641.00,0.0080
640.00,0.0079
639.00,0.0079
638.00,0.0079
637.00,0.0080
636.00,0.0081
635.00,0.0083
634.00,0.0083
633.00,0.0082
632.00,0.0082
631.00,0.0082
630.00,0.0083
629.00,0.0083
628.00,0.0081
627.00,0.0080
626.00,0.0080
625.00,0.0083
624.00,0.0088
623.00,0.0092
622.00,0.0093
621.00,0.0092
620.00,0.0091
619.00,0.0089
618.00,0.0089
617.00,0.0089
616.00,0.0087
615.00,0.0085
614.00,0.0084
613.00,0.0084
612.00,0.0085
611.00,0.0085
610.00,0.0085
609.00,0.0085
608.00,0.0086
607.00,0.0086
606.00,0.0087
605.00,0.0087
604.00,0.0088
603.00,0.0087
602.00,0.0086
601.00,0.0086
600.00,0.0086
599.00,0.0087
598.00,0.0089
597.00,0.0090
596.00,0.0091
595.00,0.0090
594.00,0.0088
593.00,0.0086
592.00,0.0085
591.00,0.0084
590.00,0.0084
589.00,0.0086
588.00,0.0087
587.00,0.0087
586.00,0.0086
585.00,0.0082
584.00,0.0078
583.00,0.0077
582.00,0.0077
581.00,0.0079
580.00,0.0080
579.00,0.0079
578.00,0.0079
577.00,0.0080
576.00,0.0082
575.00,0.0085
574.00,0.0086
573.00,0.0087
572.00,0.0087
571.00,0.0089
570.00,0.0093
569.00,0.0096
568.00,0.0096
567.00,0.0093
566.00,0.0087
565.00,0.0083
564.00,0.0082
563.00,0.0083
562.00,0.0085
561.00,0.0088
560.00,0.0091
559.00,0.0092
558.00,0.0091
557.00,0.0089
556.00,0.0085
555.00,0.0082
554.00,0.0082
553.00,0.0083
552.00,0.0085
551.00,0.0088
550.00,0.0091
549.00,0.0093
548.00,0.0095
547.00,0.0096
546.00,0.0094
545.00,0.0091
544.00,0.0089
543.00,0.0089
542.00,0.0091
541.00,0.0095
540.00,0.0101
539.00,0.0107
538.00,0.0111
537.00,0.0111
536.00,0.0110
535.00,0.0110
534.00,0.0114
533.00,0.0119
532.00,0.0124
531.00,0.0125
530.00,0.0122
529.00,0.0118
528.00,0.0113
527.00,0.0111
526.00,0.0110
525.00,0.0110
524.00,0.0109
523.00,0.0108
522.00,0.0106
521.00,0.0102
520.00,0.0097
519.00,0.0094
518.00,0.0095
517.00,0.0097
516.00,0.0097
515.00,0.0095
514.00,0.0091
513.00,0.0087
512.00,0.0084
511.00,0.0081
510.00,0.0080
509.00,0.0079
508.00,0.0077
507.00,0.0077
506.00,0.0079
505.00,0.0084
504.00,0.0088
503.00,0.0092
502.00,0.0093
501.00,0.0092
500.00,0.0089
499.00,0.0086
498.00,0.0085
497.00,0.0083
496.00,0.0079
495.00,0.0073
494.00,0.0068
493.00,0.0069
492.00,0.0075
491.00,0.0083
490.00,0.0089
489.00,0.0092
488.00,0.0093
487.00,0.0092
486.00,0.0091
485.00,0.0092
484.00,0.0094
483.00,0.0099
482.00,0.0104
481.00,0.0105
480.00,0.0101
479.00,0.0096
478.00,0.0093
477.00,0.0098
476.00,0.0109
475.00,0.0123
474.00,0.0131
473.00,0.0132
472.00,0.0131
471.00,0.0134
470.00,0.0140
469.00,0.0146
468.00,0.0150
467.00,0.0156
466.00,0.0168
465.00,0.0182
464.00,0.0193
463.00,0.0200
462.00,0.0208
461.00,0.0218
460.00,0.0226
459.00,0.0227
458.00,0.0220
457.00,0.0212
456.00,0.0207
455.00,0.0204
454.00,0.0199
453.00,0.0192
452.00,0.0182
451.00,0.0170
450.00,0.0154
