Created as New Dataset,Sample 152 By Administrator Date Wednesday, September 03 2025
cm-1,A
4000.00,0.0007
3999.00,0.0007
3998.00,0.0007
3997.00,0.0007
3996.00,0.0006
3995.00,0.0006
3994.00,0.0007
3993.00,0.0007
3992.00,0.0007
3991.00,0.0007
3990.00,0.0006
3989.00,0.0006
3988.00,0.0006
3987.00,0.0006
3986.00,0.0006
3985.00,0.0006
3984.00,0.0006
3983.00,0.0006
3982.00,0.0006
3981.00,0.0006
3980.00,0.0006
3979.00,0.0006
3978.00,0.0006
3977.00,0.0005
3976.00,0.0005
3975.00,0.0005
3974.00,0.0005
3973.00,0.0005
3972.00,0.0006
3971.00,0.0006
3970.00,0.0006
3969.00,0.0006
3968.00,0.0005
3967.00,0.0005
3966.00,0.0005
3965.00,0.0005
3964.00,0.0005
3963.00,0.0005
3962.00,0.0005
3961.00,0.0005
3960.00,0.0005
3959.00,0.0005
3958.00,0.0005
3957.00,0.0005
3956.00,0.0005
3955.00,0.0005
3954.00,0.0005
3953.00,0.0005
3952.00,0.0005
3951.00,0.0005
3950.00,0.0005
3949.00,0.0005
3948.00,0.0005
3947.00,0.0005
3946.00,0.0005
3945.00,0.0005
3944.00,0.0005
3943.00,0.0005
3942.00,0.0005
3941.00,0.0005
3940.00,0.0005
3939.00,0.0005
3938.00,0.0005
3937.00,0.0005
3936.00,0.0005
3935.00,0.0005
3934.00,0.0005
3933.00,0.0005
3932.00,0.0005
3931.00,0.0005
3930.00,0.0004
3929.00,0.0004
3928.00,0.0004
3927.00,0.0004
3926.00,0.0005
3925.00,0.0005
3924.00,0.0005
3923.00,0.0005
3922.00,0.0006
3921.00,0.0006
3920.00,0.0006
3919.00,0.0006
3918.00,0.0006
3917.00,0.0006
3916.00,0.0005
3915.00,0.0005
3914.00,0.0005
3913.00,0.0005
3912.00,0.0005
3911.00,0.0005
3910.00,0.0004
3909.00,0.0004
3908.00,0.0004
3907.00,0.0004
3906.00,0.0004
3905.00,0.0005
3904.00,0.0004
3903.00,0.0004
3902.00,0.0004
3901.00,0.0004
3900.00,0.0004
3899.00,0.0004
3898.00,0.0004
3897.00,0.0004
3896.00,0.0005
3895.00,0.0005
3894.00,0.0005
3893.00,0.0005
3892.00,0.0005
3891.00,0.0005
3890.00,0.0005
3889.00,0.0005
3888.00,0.0005
3887.00,0.0005
3886.00,0.0005
3885.00,0.0005
3884.00,0.0005
3883.00,0.0005
3882.00,0.0005
3881.00,0.0004
3880.00,0.0004
3879.00,0.0005
3878.00,0.0005
3877.00,0.0005
3876.00,0.0004
3875.00,0.0004
3874.00,0.0004
3873.00,0.0005
3872.00,0.0005
3871.00,0.0004
3870.00,0.0004
3869.00,0.0004
3868.00,0.0004
3867.00,0.0004
3866.00,0.0004
3865.00,0.0004
3864.00,0.0004
3863.00,0.0004
3862.00,0.0004
3861.00,0.0004
3860.00,0.0004
3859.00,0.0003
3858.00,0.0004
3857.00,0.0004
3856.00,0.0004
3855.00,0.0004
3854.00,0.0004
3853.00,0.0004
3852.00,0.0004
3851.00,0.0004
3850.00,0.0004
3849.00,0.0004
3848.00,0.0004
3847.00,0.0004
3846.00,0.0004
3845.00,0.0004
3844.00,0.0003
3843.00,0.0003
3842.00,0.0003
3841.00,0.0003
3840.00,0.0003
3839.00,0.0003
3838.00,0.0003
3837.00,0.0004
3836.00,0.0004
3835.00,0.0004
3834.00,0.0003
3833.00,0.0003
3832.00,0.0003
3831.00,0.0003
3830.00,0.0003
3829.00,0.0003
3828.00,0.0003
3827.00,0.0004
3826.00,0.0004
3825.00,0.0004
3824.00,0.0004
3823.00,0.0004
3822.00,0.0003
3821.00,0.0003
3820.00,0.0003
3819.00,0.0003
3818.00,0.0003
3817.00,0.0003
3816.00,0.0003
3815.00,0.0004
3814.00,0.0005
3813.00,0.0004
3812.00,0.0004
3811.00,0.0004
3810.00,0.0004
3809.00,0.0003
3808.00,0.0003
3807.00,0.0003
3806.00,0.0003
3805.00,0.0003
3804.00,0.0003
3803.00,0.0004
3802.00,0.0004
3801.00,0.0005
3800.00,0.0005
3799.00,0.0005
3798.00,0.0005
3797.00,0.0005
3796.00,0.0005
3795.00,0.0005
3794.00,0.0005
3793.00,0.0005
3792.00,0.0004
3791.00,0.0004
3790.00,0.0004
3789.00,0.0004
3788.00,0.0004
3787.00,0.0004
3786.00,0.0004
3785.00,0.0004
3784.00,0.0004
3783.00,0.0004
3782.00,0.0004
3781.00,0.0004
3780.00,0.0004
3779.00,0.0004
3778.00,0.0004
3777.00,0.0005
3776.00,0.0005
3775.00,0.0004
3774.00,0.0004
3773.00,0.0004
3772.00,0.0003
3771.00,0.0003
3770.00,0.0004
3769.00,0.0004
3768.00,0.0004
3767.00,0.0004
3766.00,0.0004
3765.00,0.0005
3764.00,0.0005
3763.00,0.0006
3762.00,0.0006
3761.00,0.0006
3760.00,0.0006
3759.00,0.0006
3758.00,0.0005
3757.00,0.0005
3756.00,0.0005
3755.00,0.0005
3754.00,0.0005
3753.00,0.0004
3752.00,0.0004
3751.00,0.0003
3750.00,0.0003
3749.00,0.0004
3748.00,0.0004
3747.00,0.0003
3746.00,0.0003
3745.00,0.0003
3744.00,0.0003
3743.00,0.0003
3742.00,0.0003
3741.00,0.0003
3740.00,0.0003
3739.00,0.0003
3738.00,0.0003
3737.00,0.0002
3736.00,0.0002
3735.00,0.0002
3734.00,0.0002
3733.00,0.0002
3732.00,0.0002
3731.00,0.0002
3730.00,0.0003
3729.00,0.0003
3728.00,0.0004
3727.00,0.0004
3726.00,0.0004
3725.00,0.0004
3724.00,0.0004
3723.00,0.0003
3722.00,0.0003
3721.00,0.0002
3720.00,0.0002
3719.00,0.0001
3718.00,0.0002
3717.00,0.0002
3716.00,0.0003
3715.00,0.0003
3714.00,0.0004
3713.00,0.0003
3712.00,0.0003
3711.00,0.0003
3710.00,0.0003
3709.00,0.0003
3708.00,0.0003
3707.00,0.0003
3706.00,0.0003
3705.00,0.0003
3704.00,0.0003
3703.00,0.0003
3702.00,0.0003
3701.00,0.0003
3700.00,0.0003
3699.00,0.0003
3698.00,0.0003
3697.00,0.0003
3696.00,0.0003
3695.00,0.0003
3694.00,0.0003
3693.00,0.0003
3692.00,0.0003
3691.00,0.0003
3690.00,0.0003
3689.00,0.0003
3688.00,0.0003
3687.00,0.0003
3686.00,0.0004
3685.00,0.0004
3684.00,0.0004
3683.00,0.0004
3682.00,0.0005
3681.00,0.0005
3680.00,0.0005
3679.00,0.0005
3678.00,0.0005
3677.00,0.0005
3676.00,0.0005
3675.00,0.0005
3674.00,0.0005
3673.00,0.0004
3672.00,0.0004
3671.00,0.0003
3670.00,0.0003
3669.00,0.0003
3668.00,0.0004
3667.00,0.0003
3666.00,0.0003
3665.00,0.0004
3664.00,0.0004
3663.00,0.0004
3662.00,0.0005
3661.00,0.0004
3660.00,0.0004
3659.00,0.0003
3658.00,0.0003
3657.00,0.0002
3656.00,0.0002
3655.00,0.0003
3654.00,0.0003
3653.00,0.0004
3652.00,0.0003
3651.00,0.0003
3650.00,0.0004
3649.00,0.0004
3648.00,0.0005
3647.00,0.0006
3646.00,0.0006
3645.00,0.0006
3644.00,0.0006
3643.00,0.0005
3642.00,0.0005
3641.00,0.0005
3640.00,0.0005
3639.00,0.0005
3638.00,0.0005
3637.00,0.0006
3636.00,0.0006
3635.00,0.0006
3634.00,0.0006
3633.00,0.0006
3632.00,0.0006
3631.00,0.0007
3630.00,0.0007
3629.00,0.0008
3628.00,0.0008
3627.00,0.0008
3626.00,0.0007
3625.00,0.0007
3624.00,0.0007
3623.00,0.0007
3622.00,0.0008
3621.00,0.0007
3620.00,0.0007
3619.00,0.0007
3618.00,0.0008
3617.00,0.0008
3616.00,0.0009
3615.00,0.0009
3614.00,0.0010
3613.00,0.0010
3612.00,0.0010
3611.00,0.0010
3610.00,0.0011
3609.00,0.0011
3608.00,0.0011
3607.00,0.0012
3606.00,0.0012
3605.00,0.0012
3604.00,0.0012
3603.00,0.0012
3602.00,0.0012
3601.00,0.0011
3600.00,0.0011
3599.00,0.0011
3598.00,0.0012
3597.00,0.0012
3596.00,0.0013
3595.00,0.0013
3594.00,0.0014
3593.00,0.0014
3592.00,0.0014
3591.00,0.0014
3590.00,0.0014
3589.00,0.0014
3588.00,0.0014
3587.00,0.0015
3586.00,0.0015
3585.00,0.0015
3584.00,0.0015
3583.00,0.0015
3582.00,0.0015
3581.00,0.0016
3580.00,0.0016
3579.00,0.0016
3578.00,0.0017
3577.00,0.0017
3576.00,0.0018
3575.00,0.0018
3574.00,0.0018
3573.00,0.0019
3572.00,0.0019
3571.00,0.0020
3570.00,0.0020
3569.00,0.0020
3568.00,0.0020
3567.00,0.0020
3566.00,0.0021
3565.00,0.0021
3564.00,0.0022
3563.00,0.0022
3562.00,0.0023
3561.00,0.0023
3560.00,0.0024
3559.00,0.0024
3558.00,0.0025
3557.00,0.0025
3556.00,0.0025
3555.00,0.0025
3554.00,0.0025
3553.00,0.0025
3552.00,0.0026
3551.00,0.0026
3550.00,0.0027
3549.00,0.0027
3548.00,0.0028
3547.00,0.0028
3546.00,0.0028
3545.00,0.0028
3544.00,0.0028
3543.00,0.0029
3542.00,0.0029
3541.00,0.0030
3540.00,0.0030
3539.00,0.0030
3538.00,0.0030
3537.00,0.0030
3536.00,0.0031
3535.00,0.0031
3534.00,0.0032
3533.00,0.0033
3532.00,0.0033
3531.00,0.0033
3530.00,0.0033
3529.00,0.0034
3528.00,0.0034
3527.00,0.0035
3526.00,0.0035
3525.00,0.0036
3524.00,0.0036
3523.00,0.0036
3522.00,0.0037
3521.00,0.0037
3520.00,0.0038
3519.00,0.0038
3518.00,0.0039
3517.00,0.0039
3516.00,0.0040
3515.00,0.0041
3514.00,0.0041
3513.00,0.0042
3512.00,0.0042
3511.00,0.0042
3510.00,0.0043
3509.00,0.0043
3508.00,0.0043
3507.00,0.0043
3506.00,0.0044
3505.00,0.0044
3504.00,0.0044
3503.00,0.0045
3502.00,0.0045
3501.00,0.0045
3500.00,0.0045
3499.00,0.0045
3498.00,0.0045
3497.00,0.0046
3496.00,0.0047
3495.00,0.0047
3494.00,0.0048
3493.00,0.0049
3492.00,0.0050
3491.00,0.0050
3490.00,0.0050
3489.00,0.0050
3488.00,0.0051
3487.00,0.0051
3486.00,0.0052
3485.00,0.0053
3484.00,0.0053
3483.00,0.0054
3482.00,0.0054
3481.00,0.0054
3480.00,0.0054
3479.00,0.0054
3478.00,0.0055
3477.00,0.0055
3476.00,0.0056
3475.00,0.0056
3474.00,0.0056
3473.00,0.0057
3472.00,0.0057
3471.00,0.0058
3470.00,0.0058
3469.00,0.0058
3468.00,0.0058
3467.00,0.0059
3466.00,0.0059
3465.00,0.0060
3464.00,0.0061
3463.00,0.0061
3462.00,0.0062
3461.00,0.0062
3460.00,0.0063
3459.00,0.0063
3458.00,0.0063
3457.00,0.0063
3456.00,0.0063
3455.00,0.0064
3454.00,0.0064
3453.00,0.0064
3452.00,0.0064
3451.00,0.0064
3450.00,0.0065
3449.00,0.0065
3448.00,0.0066
3447.00,0.0066
3446.00,0.0066
3445.00,0.0067
3444.00,0.0067
3443.00,0.0067
3442.00,0.0067
3441.00,0.0068
3440.00,0.0068
3439.00,0.0069
3438.00,0.0069
3437.00,0.0070
3436.00,0.0070
3435.00,0.0071
3434.00,0.0071
3433.00,0.0071
3432.00,0.0072
3431.00,0.0072
3430.00,0.0072
3429.00,0.0073
3428.00,0.0073
3427.00,0.0074
3426.00,0.0074
3425.00,0.0074
3424.00,0.0074
3423.00,0.0075
3422.00,0.0075
3421.00,0.0075
3420.00,0.0075
3419.00,0.0076
3418.00,0.0076
3417.00,0.0076
3416.00,0.0077
3415.00,0.0077
3414.00,0.0078
3413.00,0.0078
3412.00,0.0079
3411.00,0.0079
3410.00,0.0080
3409.00,0.0080
3408.00,0.0081
3407.00,0.0081
3406.00,0.0082
3405.00,0.0082
3404.00,0.0083
3403.00,0.0083
3402.00,0.0084
3401.00,0.0084
3400.00,0.0085
3399.00,0.0086
3398.00,0.0087
3397.00,0.0087
3396.00,0.0088
3395.00,0.0088
3394.00,0.0088
3393.00,0.0088
3392.00,0.0088
3391.00,0.0087
3390.00,0.0087
3389.00,0.0087
3388.00,0.0086
3387.00,0.0086
3386.00,0.0085
3385.00,0.0085
3384.00,0.0085
3383.00,0.0085
3382.00,0.0085
3381.00,0.0085
3380.00,0.0085
3379.00,0.0085
3378.00,0.0085
3377.00,0.0085
3376.00,0.0086
3375.00,0.0086
3374.00,0.0086
3373.00,0.0086
3372.00,0.0086
3371.00,0.0086
3370.00,0.0085
3369.00,0.0085
3368.00,0.0085
3367.00,0.0085
3366.00,0.0085
3365.00,0.0086
3364.00,0.0086
3363.00,0.0086
3362.00,0.0086
3361.00,0.0086
3360.00,0.0086
3359.00,0.0086
3358.00,0.0086
3357.00,0.0087
3356.00,0.0087
3355.00,0.0087
3354.00,0.0087
3353.00,0.0087
3352.00,0.0087
3351.00,0.0086
3350.00,0.0086
3349.00,0.0086
3348.00,0.0086
3347.00,0.0086
3346.00,0.0086
3345.00,0.0086
3344.00,0.0086
3343.00,0.0086
3342.00,0.0086
3341.00,0.0086
3340.00,0.0086
3339.00,0.0086
3338.00,0.0086
3337.00,0.0086
3336.00,0.0086
3335.00,0.0086
3334.00,0.0086
3333.00,0.0086
3332.00,0.0086
3331.00,0.0086
3330.00,0.0085
3329.00,0.0085
3328.00,0.0085
3327.00,0.0085
3326.00,0.0085
3325.00,0.0085
3324.00,0.0085
3323.00,0.0085
3322.00,0.0085
3321.00,0.0085
3320.00,0.0085
3319.00,0.0085
3318.00,0.0085
3317.00,0.0085
3316.00,0.0085
3315.00,0.0085
3314.00,0.0085
3313.00,0.0085
3312.00,0.0085
3311.00,0.0086
3310.00,0.0086
3309.00,0.0086
3308.00,0.0085
3307.00,0.0085
3306.00,0.0085
3305.00,0.0085
3304.00,0.0085
3303.00,0.0085
3302.00,0.0085
3301.00,0.0085
3300.00,0.0085
3299.00,0.0084
3298.00,0.0084
3297.00,0.0083
3296.00,0.0083
3295.00,0.0082
3294.00,0.0082
3293.00,0.0082
3292.00,0.0082
3291.00,0.0082
3290.00,0.0081
3289.00,0.0081
3288.00,0.0080
3287.00,0.0080
3286.00,0.0080
3285.00,0.0079
3284.00,0.0079
3283.00,0.0078
3282.00,0.0078
3281.00,0.0078
3280.00,0.0078
3279.00,0.0078
3278.00,0.0078
3277.00,0.0078
3276.00,0.0078
3275.00,0.0077
3274.00,0.0077
3273.00,0.0076
3272.00,0.0076
3271.00,0.0076
3270.00,0.0075
3269.00,0.0075
3268.00,0.0075
3267.00,0.0075
3266.00,0.0075
3265.00,0.0075
3264.00,0.0074
3263.00,0.0074
3262.00,0.0073
3261.00,0.0073
3260.00,0.0073
3259.00,0.0073
3258.00,0.0073
3257.00,0.0073
3256.00,0.0072
3255.00,0.0072
3254.00,0.0071
3253.00,0.0071
3252.00,0.0070
3251.00,0.0070
3250.00,0.0069
3249.00,0.0069
3248.00,0.0069
3247.00,0.0069
3246.00,0.0069
3245.00,0.0069
3244.00,0.0069
3243.00,0.0069
3242.00,0.0068
3241.00,0.0068
3240.00,0.0068
3239.00,0.0068
3238.00,0.0068
3237.00,0.0068
3236.00,0.0068
3235.00,0.0068
3234.00,0.0067
3233.00,0.0067
3232.00,0.0067
3231.00,0.0067
3230.00,0.0067
3229.00,0.0067
3228.00,0.0067
3227.00,0.0067
3226.00,0.0067
3225.00,0.0067
3224.00,0.0067
3223.00,0.0067
3222.00,0.0067
3221.00,0.0067
3220.00,0.0067
3219.00,0.0067
3218.00,0.0068
3217.00,0.0068
3216.00,0.0067
3215.00,0.0066
3214.00,0.0066
3213.00,0.0066
3212.00,0.0067
3211.00,0.0067
3210.00,0.0068
3209.00,0.0068
3208.00,0.0068
3207.00,0.0068
3206.00,0.0068
3205.00,0.0069
3204.00,0.0069
3203.00,0.0069
3202.00,0.0070
3201.00,0.0070
3200.00,0.0070
3199.00,0.0070
3198.00,0.0070
3197.00,0.0070
3196.00,0.0070
3195.00,0.0070
3194.00,0.0070
3193.00,0.0069
3192.00,0.0069
3191.00,0.0069
3190.00,0.0068
3189.00,0.0068
3188.00,0.0068
3187.00,0.0068
3186.00,0.0068
3185.00,0.0068
3184.00,0.0068
3183.00,0.0068
3182.00,0.0068
3181.00,0.0067
3180.00,0.0067
3179.00,0.0066
3178.00,0.0066
3177.00,0.0065
3176.00,0.0065
3175.00,0.0065
3174.00,0.0065
3173.00,0.0065
3172.00,0.0065
3171.00,0.0065
3170.00,0.0064
3169.00,0.0064
3168.00,0.0064
3167.00,0.0063
3166.00,0.0063
3165.00,0.0062
3164.00,0.0061
3163.00,0.0060
3162.00,0.0060
3161.00,0.0059
3160.00,0.0059
3159.00,0.0058
3158.00,0.0058
3157.00,0.0058
3156.00,0.0058
3155.00,0.0058
3154.00,0.0058
3153.00,0.0058
3152.00,0.0057
3151.00,0.0057
3150.00,0.0057
3149.00,0.0056
3148.00,0.0056
3147.00,0.0056
3146.00,0.0056
3145.00,0.0057
3144.00,0.0057
3143.00,0.0057
3142.00,0.0056
3141.00,0.0056
3140.00,0.0055
3139.00,0.0055
3138.00,0.0054
3137.00,0.0054
3136.00,0.0054
3135.00,0.0054
3134.00,0.0054
3133.00,0.0054
3132.00,0.0053
3131.00,0.0053
3130.00,0.0052
3129.00,0.0052
3128.00,0.0052
3127.00,0.0052
3126.00,0.0051
3125.00,0.0051
3124.00,0.0050
3123.00,0.0050
3122.00,0.0049
3121.00,0.0048
3120.00,0.0048
3119.00,0.0048
3118.00,0.0048
3117.00,0.0048
3116.00,0.0048
3115.00,0.0047
3114.00,0.0047
3113.00,0.0047
3112.00,0.0046
3111.00,0.0046
3110.00,0.0046
3109.00,0.0046
3108.00,0.0046
3107.00,0.0046
3106.00,0.0046
3105.00,0.0047
3104.00,0.0046
3103.00,0.0046
3102.00,0.0046
3101.00,0.0045
3100.00,0.0045
3099.00,0.0045
3098.00,0.0044
3097.00,0.0044
3096.00,0.0044
3095.00,0.0044
3094.00,0.0044
3093.00,0.0044
3092.00,0.0044
3091.00,0.0044
3090.00,0.0043
3089.00,0.0043
3088.00,0.0043
3087.00,0.0043
3086.00,0.0042
3085.00,0.0042
3084.00,0.0042
3083.00,0.0042
3082.00,0.0041
3081.00,0.0041
3080.00,0.0041
3079.00,0.0041
3078.00,0.0041
3077.00,0.0041
3076.00,0.0041
3075.00,0.0042
3074.00,0.0042
3073.00,0.0043
3072.00,0.0043
3071.00,0.0043
3070.00,0.0042
3069.00,0.0042
3068.00,0.0042
3067.00,0.0042
3066.00,0.0042
3065.00,0.0042
3064.00,0.0043
3063.00,0.0043
3062.00,0.0043
3061.00,0.0043
3060.00,0.0043
3059.00,0.0043
3058.00,0.0043
3057.00,0.0043
3056.00,0.0044
3055.00,0.0044
3054.00,0.0043
3053.00,0.0043
3052.00,0.0043
3051.00,0.0044
3050.00,0.0044
3049.00,0.0044
3048.00,0.0044
3047.00,0.0044
3046.00,0.0044
3045.00,0.0045
3044.00,0.0045
3043.00,0.0045
3042.00,0.0046
3041.00,0.0046
3040.00,0.0047
3039.00,0.0047
3038.00,0.0048
3037.00,0.0048
3036.00,0.0048
3035.00,0.0049
3034.00,0.0049
3033.00,0.0050
3032.00,0.0050
3031.00,0.0051
3030.00,0.0051
3029.00,0.0052
3028.00,0.0052
3027.00,0.0052
3026.00,0.0053
3025.00,0.0053
3024.00,0.0053
3023.00,0.0054
3022.00,0.0055
3021.00,0.0055
3020.00,0.0056
3019.00,0.0056
3018.00,0.0057
3017.00,0.0058
3016.00,0.0059
3015.00,0.0061
3014.00,0.0061
3013.00,0.0062
3012.00,0.0063
3011.00,0.0064
3010.00,0.0064
3009.00,0.0065
3008.00,0.0066
3007.00,0.0067
3006.00,0.0068
3005.00,0.0069
3004.00,0.0070
3003.00,0.0072
3002.00,0.0073
3001.00,0.0075
3000.00,0.0077
2999.00,0.0079
2998.00,0.0082
2997.00,0.0084
2996.00,0.0087
2995.00,0.0091
2994.00,0.0094
2993.00,0.0098
2992.00,0.0102
2991.00,0.0107
2990.00,0.0113
2989.00,0.0119
2988.00,0.0126
2987.00,0.0133
2986.00,0.0141
2985.00,0.0149
2984.00,0.0159
2983.00,0.0169
2982.00,0.0182
2981.00,0.0197
2980.00,0.0214
2979.00,0.0234
2978.00,0.0256
2977.00,0.0281
2976.00,0.0309
2975.00,0.0341
2974.00,0.0377
2973.00,0.0417
2972.00,0.0463
2971.00,0.0515
2970.00,0.0571
2969.00,0.0633
2968.00,0.0699
2967.00,0.0767
2966.00,0.0838
2965.00,0.0908
2964.00,0.0976
2963.00,0.1037
2962.00,0.1091
2961.00,0.1137
2960.00,0.1176
2959.00,0.1214
2958.00,0.1254
2957.00,0.1302
2956.00,0.1361
2955.00,0.1431
2954.00,0.1511
2953.00,0.1594
2952.00,0.1671
2951.00,0.1729
2950.00,0.1759
2949.00,0.1751
2948.00,0.1705
2947.00,0.1624
2946.00,0.1522
2945.00,0.1410
2944.00,0.1302
2943.00,0.1210
2942.00,0.1138
2941.00,0.1089
2940.00,0.1064
2939.00,0.1059
2938.00,0.1073
2937.00,0.1104
2936.00,0.1150
2935.00,0.1211
2934.00,0.1285
2933.00,0.1370
2932.00,0.1466
2931.00,0.1571
2930.00,0.1683
2929.00,0.1798
2928.00,0.1916
2927.00,0.2031
2926.00,0.2143
2925.00,0.2251
2924.00,0.2356
2923.00,0.2459
2922.00,0.2562
2921.00,0.2661
2920.00,0.2749
2919.00,0.2817
2918.00,0.2852
2917.00,0.2847
2916.00,0.2799
2915.00,0.2715
2914.00,0.2607
2913.00,0.2487
2912.00,0.2367
2911.00,0.2255
2910.00,0.2153
2909.00,0.2061
2908.00,0.1977
2907.00,0.1898
2906.00,0.1823
2905.00,0.1750
2904.00,0.1678
2903.00,0.1609
2902.00,0.1542
2901.00,0.1478
2900.00,0.1417
2899.00,0.1360
2898.00,0.1306
2897.00,0.1257
2896.00,0.1212
2895.00,0.1172
2894.00,0.1139
2893.00,0.1111
2892.00,0.1088
2891.00,0.1072
2890.00,0.1060
2889.00,0.1052
2888.00,0.1048
2887.00,0.1047
2886.00,0.1049
2885.00,0.1055
2884.00,0.1066
2883.00,0.1081
2882.00,0.1102
2881.00,0.1126
2880.00,0.1151
2879.00,0.1172
2878.00,0.1188
2877.00,0.1195
2876.00,0.1195
2875.00,0.1190
2874.00,0.1187
2873.00,0.1187
2872.00,0.1195
2871.00,0.1210
2870.00,0.1230
2869.00,0.1250
2868.00,0.1264
2867.00,0.1266
2866.00,0.1248
2865.00,0.1209
2864.00,0.1152
2863.00,0.1084
2862.00,0.1017
2861.00,0.0957
2860.00,0.0910
2859.00,0.0879
2858.00,0.0862
2857.00,0.0856
2856.00,0.0858
2855.00,0.0867
2854.00,0.0878
2853.00,0.0891
2852.00,0.0903
2851.00,0.0912
2850.00,0.0916
2849.00,0.0917
2848.00,0.0917
2847.00,0.0919
2846.00,0.0930
2845.00,0.0950
2844.00,0.0980
2843.00,0.1019
2842.00,0.1061
2841.00,0.1101
2840.00,0.1132
2839.00,0.1146
2838.00,0.1139
2837.00,0.1105
2836.00,0.1045
2835.00,0.0964
2834.00,0.0870
2833.00,0.0772
2832.00,0.0678
2831.00,0.0595
2830.00,0.0524
2829.00,0.0466
2828.00,0.0419
2827.00,0.0380
2826.00,0.0349
2825.00,0.0323
2824.00,0.0302
2823.00,0.0284
2822.00,0.0268
2821.00,0.0254
2820.00,0.0241
2819.00,0.0231
2818.00,0.0222
2817.00,0.0214
2816.00,0.0207
2815.00,0.0200
2814.00,0.0194
2813.00,0.0188
2812.00,0.0183
2811.00,0.0177
2810.00,0.0171
2809.00,0.0165
2808.00,0.0159
2807.00,0.0153
2806.00,0.0147
2805.00,0.0141
2804.00,0.0135
2803.00,0.0130
2802.00,0.0125
2801.00,0.0120
2800.00,0.0117
2799.00,0.0113
2798.00,0.0110
2797.00,0.0108
2796.00,0.0105
2795.00,0.0102
2794.00,0.0100
2793.00,0.0097
2792.00,0.0095
2791.00,0.0092
2790.00,0.0089
2789.00,0.0086
2788.00,0.0083
2787.00,0.0081
2786.00,0.0078
2785.00,0.0076
2784.00,0.0074
2783.00,0.0073
2782.00,0.0071
2781.00,0.0069
2780.00,0.0068
2779.00,0.0066
2778.00,0.0064
2777.00,0.0063
2776.00,0.0061
2775.00,0.0060
2774.00,0.0059
2773.00,0.0059
2772.00,0.0058
2771.00,0.0057
2770.00,0.0057
2769.00,0.0056
2768.00,0.0056
2767.00,0.0056
2766.00,0.0056
2765.00,0.0055
2764.00,0.0055
2763.00,0.0055
2762.00,0.0054
2761.00,0.0054
2760.00,0.0053
2759.00,0.0053
2758.00,0.0053
2757.00,0.0053
2756.00,0.0052
2755.00,0.0052
2754.00,0.0052
2753.00,0.0052
2752.00,0.0052
2751.00,0.0052
2750.00,0.0052
2749.00,0.0052
2748.00,0.0052
2747.00,0.0053
2746.00,0.0053
2745.00,0.0053
2744.00,0.0054
2743.00,0.0054
2742.00,0.0055
2741.00,0.0056
2740.00,0.0057
2739.00,0.0058
2738.00,0.0059
2737.00,0.0060
2736.00,0.0062
2735.00,0.0063
2734.00,0.0065
2733.00,0.0066
2732.00,0.0068
2731.00,0.0070
2730.00,0.0072
2729.00,0.0074
2728.00,0.0076
2727.00,0.0079
2726.00,0.0081
2725.00,0.0083
2724.00,0.0085
2723.00,0.0085
2722.00,0.0084
2721.00,0.0083
2720.00,0.0080
2719.00,0.0078
2718.00,0.0075
2717.00,0.0072
2716.00,0.0069
2715.00,0.0066
2714.00,0.0064
2713.00,0.0061
2712.00,0.0059
2711.00,0.0057
2710.00,0.0055
2709.00,0.0054
2708.00,0.0053
2707.00,0.0051
2706.00,0.0050
2705.00,0.0049
2704.00,0.0048
2703.00,0.0048
2702.00,0.0047
2701.00,0.0047
2700.00,0.0046
2699.00,0.0046
2698.00,0.0045
2697.00,0.0044
2696.00,0.0044
2695.00,0.0043
2694.00,0.0043
2693.00,0.0043
2692.00,0.0043
2691.00,0.0043
2690.00,0.0043
2689.00,0.0044
2688.00,0.0044
2687.00,0.0043
2686.00,0.0043
2685.00,0.0043
2684.00,0.0044
2683.00,0.0044
2682.00,0.0044
2681.00,0.0044
2680.00,0.0044
2679.00,0.0045
2678.00,0.0045
2677.00,0.0045
2676.00,0.0045
2675.00,0.0045
2674.00,0.0045
2673.00,0.0045
2672.00,0.0045
2671.00,0.0045
2670.00,0.0044
2669.00,0.0044
2668.00,0.0044
2667.00,0.0044
2666.00,0.0044
2665.00,0.0044
2664.00,0.0044
2663.00,0.0045
2662.00,0.0045
2661.00,0.0045
2660.00,0.0046
2659.00,0.0046
2658.00,0.0046
2657.00,0.0046
2656.00,0.0045
2655.00,0.0045
2654.00,0.0045
2653.00,0.0044
2652.00,0.0044
2651.00,0.0043
2650.00,0.0042
2649.00,0.0042
2648.00,0.0041
2647.00,0.0041
2646.00,0.0041
2645.00,0.0040
2644.00,0.0040
2643.00,0.0040
2642.00,0.0039
2641.00,0.0039
2640.00,0.0039
2639.00,0.0038
2638.00,0.0038
2637.00,0.0037
2636.00,0.0037
2635.00,0.0037
2634.00,0.0036
2633.00,0.0036
2632.00,0.0036
2631.00,0.0037
2630.00,0.0037
2629.00,0.0038
2628.00,0.0039
2627.00,0.0039
2626.00,0.0039
2625.00,0.0039
2624.00,0.0039
2623.00,0.0039
2622.00,0.0038
2621.00,0.0038
2620.00,0.0038
2619.00,0.0038
2618.00,0.0038
2617.00,0.0038
2616.00,0.0038
2615.00,0.0038
2614.00,0.0038
2613.00,0.0038
2612.00,0.0038
2611.00,0.0037
2610.00,0.0036
2609.00,0.0036
2608.00,0.0035
2607.00,0.0034
2606.00,0.0034
2605.00,0.0033
2604.00,0.0032
2603.00,0.0032
2602.00,0.0031
2601.00,0.0031
2600.00,0.0031
2599.00,0.0031
2598.00,0.0031
2597.00,0.0031
2596.00,0.0030
2595.00,0.0030
2594.00,0.0030
2593.00,0.0030
2592.00,0.0031
2591.00,0.0032
2590.00,0.0033
2589.00,0.0034
2588.00,0.0035
2587.00,0.0037
2586.00,0.0038
2585.00,0.0038
2584.00,0.0039
2583.00,0.0039
2582.00,0.0039
2581.00,0.0038
2580.00,0.0036
2579.00,0.0035
2578.00,0.0034
2577.00,0.0034
2576.00,0.0034
2575.00,0.0033
2574.00,0.0032
2573.00,0.0031
2572.00,0.0030
2571.00,0.0028
2570.00,0.0027
2569.00,0.0026
2568.00,0.0025
2567.00,0.0025
2566.00,0.0025
2565.00,0.0025
2564.00,0.0024
2563.00,0.0023
2562.00,0.0023
2561.00,0.0022
2560.00,0.0022
2559.00,0.0022
2558.00,0.0022
2557.00,0.0022
2556.00,0.0022
2555.00,0.0022
2554.00,0.0021
2553.00,0.0021
2552.00,0.0020
2551.00,0.0019
2550.00,0.0019
2549.00,0.0018
2548.00,0.0018
2547.00,0.0018
2546.00,0.0018
2545.00,0.0018
2544.00,0.0018
2543.00,0.0018
2542.00,0.0018
2541.00,0.0017
2540.00,0.0016
2539.00,0.0016
2538.00,0.0016
2537.00,0.0016
2536.00,0.0016
2535.00,0.0016
2534.00,0.0016
2533.00,0.0016
2532.00,0.0016
2531.00,0.0016
2530.00,0.0015
2529.00,0.0015
2528.00,0.0015
2527.00,0.0014
2526.00,0.0014
2525.00,0.0014
2524.00,0.0014
2523.00,0.0014
2522.00,0.0015
2521.00,0.0014
2520.00,0.0014
2519.00,0.0013
2518.00,0.0012
2517.00,0.0011
2516.00,0.0011
2515.00,0.0011
2514.00,0.0011
2513.00,0.0011
2512.00,0.0011
2511.00,0.0011
2510.00,0.0012
2509.00,0.0012
2508.00,0.0012
2507.00,0.0011
2506.00,0.0010
2505.00,0.0010
2504.00,0.0010
2503.00,0.0011
2502.00,0.0011
2501.00,0.0010
2500.00,0.0010
2499.00,0.0010
2498.00,0.0011
2497.00,0.0011
2496.00,0.0011
2495.00,0.0010
2494.00,0.0009
2493.00,0.0009
2492.00,0.0010
2491.00,0.0010
2490.00,0.0011
2489.00,0.0011
2488.00,0.0011
2487.00,0.0010
2486.00,0.0010
2485.00,0.0010
2484.00,0.0010
2483.00,0.0010
2482.00,0.0011
2481.00,0.0010
2480.00,0.0010
2479.00,0.0010
2478.00,0.0010
2477.00,0.0010
2476.00,0.0010
2475.00,0.0010
2474.00,0.0010
2473.00,0.0010
2472.00,0.0010
2471.00,0.0010
2470.00,0.0010
2469.00,0.0010
2468.00,0.0010
2467.00,0.0009
2466.00,0.0009
2465.00,0.0009
2464.00,0.0009
2463.00,0.0009
2462.00,0.0009
2461.00,0.0009
2460.00,0.0010
2459.00,0.0010
2458.00,0.0010
2457.00,0.0010
2456.00,0.0010
2455.00,0.0009
2454.00,0.0009
2453.00,0.0009
2452.00,0.0010
2451.00,0.0011
2450.00,0.0011
2449.00,0.0011
2448.00,0.0011
2447.00,0.0010
2446.00,0.0010
2445.00,0.0009
2444.00,0.0009
2443.00,0.0008
2442.00,0.0008
2441.00,0.0009
2440.00,0.0009
2439.00,0.0009
2438.00,0.0009
2437.00,0.0010
2436.00,0.0010
2435.00,0.0010
2434.00,0.0011
2433.00,0.0011
2432.00,0.0011
2431.00,0.0011
2430.00,0.0010
2429.00,0.0010
2428.00,0.0010
2427.00,0.0010
2426.00,0.0010
2425.00,0.0010
2424.00,0.0010
2423.00,0.0010
2422.00,0.0010
2421.00,0.0010
2420.00,0.0010
2419.00,0.0010
2418.00,0.0009
2417.00,0.0009
2416.00,0.0009
2415.00,0.0008
2414.00,0.0008
2413.00,0.0008
2412.00,0.0008
2411.00,0.0009
2410.00,0.0009
2409.00,0.0009
2408.00,0.0009
2407.00,0.0008
2406.00,0.0008
2405.00,0.0008
2404.00,0.0008
2403.00,0.0008
2402.00,0.0007
2401.00,0.0007
2400.00,0.0006
2399.00,0.0006
2398.00,0.0005
2397.00,0.0005
2396.00,0.0006
2395.00,0.0006
2394.00,0.0006
2393.00,0.0006
2392.00,0.0006
2391.00,0.0006
2390.00,0.0006
2389.00,0.0007
2388.00,0.0007
2387.00,0.0006
2386.00,0.0006
2385.00,0.0005
2384.00,0.0004
2383.00,0.0004
2382.00,0.0003
2381.00,0.0003
2380.00,0.0002
2379.00,0.0002
2378.00,0.0003
2377.00,0.0004
2376.00,0.0004
2375.00,0.0004
2374.00,0.0003
2373.00,0.0003
2372.00,0.0003
2371.00,0.0004
2370.00,0.0004
2369.00,0.0004
2368.00,0.0004
2367.00,0.0003
2366.00,0.0003
2365.00,0.0002
2364.00,0.0002
2363.00,0.0003
2362.00,0.0004
2361.00,0.0004
2360.00,0.0005
2359.00,0.0005
2358.00,0.0004
2357.00,0.0004
2356.00,0.0004
2355.00,0.0004
2354.00,0.0003
2353.00,0.0002
2352.00,0.0001
2351.00,0.0002
2350.00,0.0003
2349.00,0.0005
2348.00,0.0006
2347.00,0.0006
2346.00,0.0005
2345.00,0.0005
2344.00,0.0006
2343.00,0.0007
2342.00,0.0007
2341.00,0.0007
2340.00,0.0007
2339.00,0.0007
2338.00,0.0007
2337.00,0.0006
2336.00,0.0006
2335.00,0.0006
2334.00,0.0006
2333.00,0.0005
2332.00,0.0004
2331.00,0.0004
2330.00,0.0004
2329.00,0.0005
2328.00,0.0008
2327.00,0.0012
2326.00,0.0017
2325.00,0.0020
2324.00,0.0021
2323.00,0.0019
2322.00,0.0017
2321.00,0.0016
2320.00,0.0015
2319.00,0.0014
2318.00,0.0014
2317.00,0.0013
2316.00,0.0012
2315.00,0.0011
2314.00,0.0011
2313.00,0.0010
2312.00,0.0009
2311.00,0.0009
2310.00,0.0008
2309.00,0.0008
2308.00,0.0008
2307.00,0.0009
2306.00,0.0009
2305.00,0.0009
2304.00,0.0009
2303.00,0.0009
2302.00,0.0009
2301.00,0.0010
2300.00,0.0012
2299.00,0.0013
2298.00,0.0013
2297.00,0.0012
2296.00,0.0012
2295.00,0.0012
2294.00,0.0013
2293.00,0.0014
2292.00,0.0015
2291.00,0.0016
2290.00,0.0017
2289.00,0.0018
2288.00,0.0019
2287.00,0.0019
2286.00,0.0018
2285.00,0.0017
2284.00,0.0016
2283.00,0.0015
2282.00,0.0014
2281.00,0.0013
2280.00,0.0012
2279.00,0.0011
2278.00,0.0010
2277.00,0.0010
2276.00,0.0011
2275.00,0.0012
2274.00,0.0013
2273.00,0.0013
2272.00,0.0014
2271.00,0.0014
2270.00,0.0014
2269.00,0.0015
2268.00,0.0014
2267.00,0.0012
2266.00,0.0010
2265.00,0.0009
2264.00,0.0009
2263.00,0.0010
2262.00,0.0011
2261.00,0.0011
2260.00,0.0011
2259.00,0.0011
2258.00,0.0011
2257.00,0.0011
2256.00,0.0010
2255.00,0.0009
2254.00,0.0007
2253.00,0.0007
2252.00,0.0006
2251.00,0.0006
2250.00,0.0006
2249.00,0.0007
2248.00,0.0007
2247.00,0.0007
2246.00,0.0008
2245.00,0.0008
2244.00,0.0008
2243.00,0.0007
2242.00,0.0005
2241.00,0.0003
2240.00,0.0002
2239.00,0.0002
2238.00,0.0004
2237.00,0.0005
2236.00,0.0007
2235.00,0.0007
2234.00,0.0008
2233.00,0.0008
2232.00,0.0008
2231.00,0.0008
2230.00,0.0008
2229.00,0.0008
2228.00,0.0008
2227.00,0.0008
2226.00,0.0008
2225.00,0.0008
2224.00,0.0009
2223.00,0.0010
2222.00,0.0010
2221.00,0.0011
2220.00,0.0010
2219.00,0.0009
2218.00,0.0007
2217.00,0.0005
2216.00,0.0003
2215.00,0.0002
2214.00,0.0001
2213.00,0.0001
2212.00,0.0002
2211.00,0.0003
2210.00,0.0005
2209.00,0.0007
2208.00,0.0008
2207.00,0.0008
2206.00,0.0006
2205.00,0.0005
2204.00,0.0005
2203.00,0.0006
2202.00,0.0007
2201.00,0.0008
2200.00,0.0010
2199.00,0.0010
2198.00,0.0010
2197.00,0.0009
2196.00,0.0008
2195.00,0.0006
2194.00,0.0006
2193.00,0.0008
2192.00,0.0009
2191.00,0.0009
2190.00,0.0009
2189.00,0.0009
2188.00,0.0011
2187.00,0.0013
2186.00,0.0014
2185.00,0.0013
2184.00,0.0010
2183.00,0.0006
2182.00,0.0002
2181.00,0.0000
2180.00,0.0001
2179.00,0.0003
2178.00,0.0004
2177.00,0.0004
2176.00,0.0003
2175.00,0.0000
2174.00,-0.0000
2173.00,0.0002
2172.00,0.0005
2171.00,0.0009
2170.00,0.0011
2169.00,0.0014
2168.00,0.0015
2167.00,0.0017
2166.00,0.0018
2165.00,0.0021
2164.00,0.0025
2163.00,0.0028
2162.00,0.0025
2161.00,0.0015
2160.00,-0.0000
2159.00,-0.0017
2158.00,-0.0028
2157.00,-0.0032
2156.00,-0.0029
2155.00,-0.0026
2154.00,-0.0023
2153.00,-0.0021
2152.00,-0.0019
2151.00,-0.0019
2150.00,-0.0019
2149.00,-0.0020
2148.00,-0.0020
2147.00,-0.0019
2146.00,-0.0016
2145.00,-0.0013
2144.00,-0.0011
2143.00,-0.0012
2142.00,-0.0013
2141.00,-0.0013
2140.00,-0.0011
2139.00,-0.0010
2138.00,-0.0010
2137.00,-0.0012
2136.00,-0.0015
2135.00,-0.0019
2134.00,-0.0021
2133.00,-0.0020
2132.00,-0.0018
2131.00,-0.0015
2130.00,-0.0013
2129.00,-0.0011
2128.00,-0.0010
2127.00,-0.0009
2126.00,-0.0009
2125.00,-0.0008
2124.00,-0.0007
2123.00,-0.0007
2122.00,-0.0006
2121.00,-0.0006
2120.00,-0.0005
2119.00,-0.0004
2118.00,-0.0002
2117.00,0.0001
2116.00,0.0004
2115.00,0.0006
2114.00,0.0006
2113.00,0.0005
2112.00,0.0003
2111.00,0.0003
2110.00,0.0002
2109.00,0.0002
2108.00,0.0003
2107.00,0.0003
2106.00,0.0003
2105.00,0.0003
2104.00,0.0004
2103.00,0.0005
2102.00,0.0006
2101.00,0.0007
2100.00,0.0006
2099.00,0.0004
2098.00,0.0002
2097.00,0.0001
2096.00,-0.0000
2095.00,-0.0001
2094.00,-0.0001
2093.00,-0.0002
2092.00,-0.0002
2091.00,-0.0002
2090.00,-0.0001
2089.00,0.0001
2088.00,0.0003
2087.00,0.0004
2086.00,0.0004
2085.00,0.0003
2084.00,0.0002
2083.00,0.0001
2082.00,0.0000
2081.00,0.0002
2080.00,0.0003
2079.00,0.0004
2078.00,0.0004
2077.00,0.0005
2076.00,0.0006
2075.00,0.0007
2074.00,0.0007
2073.00,0.0005
2072.00,0.0002
2071.00,0.0000
2070.00,-0.0000
2069.00,0.0000
2068.00,0.0001
2067.00,0.0001
2066.00,0.0000
2065.00,-0.0000
2064.00,-0.0000
2063.00,0.0000
2062.00,0.0001
2061.00,0.0001
2060.00,0.0001
2059.00,0.0001
2058.00,0.0001
2057.00,0.0002
2056.00,0.0002
2055.00,0.0002
2054.00,0.0004
2053.00,0.0008
2052.00,0.0013
2051.00,0.0016
2050.00,0.0015
2049.00,0.0011
2048.00,0.0006
2047.00,0.0001
2046.00,-0.0002
2045.00,-0.0002
2044.00,-0.0000
2043.00,0.0003
2042.00,0.0005
2041.00,0.0007
2040.00,0.0008
2039.00,0.0008
2038.00,0.0007
2037.00,0.0004
2036.00,0.0001
2035.00,-0.0003
2034.00,-0.0006
2033.00,-0.0009
2032.00,-0.0010
2031.00,-0.0011
2030.00,-0.0014
2029.00,-0.0017
2028.00,-0.0018
2027.00,-0.0017
2026.00,-0.0014
2025.00,-0.0011
2024.00,-0.0011
2023.00,-0.0015
2022.00,-0.0019
2021.00,-0.0021
2020.00,-0.0021
2019.00,-0.0019
2018.00,-0.0018
2017.00,-0.0017
2016.00,-0.0016
2015.00,-0.0016
2014.00,-0.0015
2013.00,-0.0014
2012.00,-0.0012
2011.00,-0.0010
2010.00,-0.0008
2009.00,-0.0008
2008.00,-0.0009
2007.00,-0.0012
2006.00,-0.0016
2005.00,-0.0018
2004.00,-0.0018
2003.00,-0.0017
2002.00,-0.0013
2001.00,-0.0007
2000.00,-0.0003
1999.00,-0.0001
1998.00,-0.0003
1997.00,-0.0005
1996.00,-0.0008
1995.00,-0.0009
1994.00,-0.0008
1993.00,-0.0006
1992.00,-0.0004
1991.00,-0.0004
1990.00,-0.0005
1989.00,-0.0007
1988.00,-0.0009
1987.00,-0.0010
1986.00,-0.0010
1985.00,-0.0008
1984.00,-0.0003
1983.00,0.0003
1982.00,0.0009
1981.00,0.0011
1980.00,0.0010
1979.00,0.0005
1978.00,-0.0002
1977.00,-0.0008
1976.00,-0.0011
1975.00,-0.0012
1974.00,-0.0012
1973.00,-0.0012
1972.00,-0.0012
1971.00,-0.0014
1970.00,-0.0015
1969.00,-0.0014
1968.00,-0.0012
1967.00,-0.0011
1966.00,-0.0011
1965.00,-0.0011
1964.00,-0.0011
1963.00,-0.0010
1962.00,-0.0010
1961.00,-0.0010
1960.00,-0.0012
1959.00,-0.0014
1958.00,-0.0016
1957.00,-0.0016
1956.00,-0.0015
1955.00,-0.0015
1954.00,-0.0015
1953.00,-0.0015
1952.00,-0.0015
1951.00,-0.0014
1950.00,-0.0013
1949.00,-0.0011
1948.00,-0.0011
1947.00,-0.0011
1946.00,-0.0012
1945.00,-0.0012
1944.00,-0.0012
1943.00,-0.0012
1942.00,-0.0011
1941.00,-0.0009
1940.00,-0.0008
1939.00,-0.0007
1938.00,-0.0007
1937.00,-0.0008
1936.00,-0.0010
1935.00,-0.0011
1934.00,-0.0012
1933.00,-0.0011
1932.00,-0.0010
1931.00,-0.0010
1930.00,-0.0009
1929.00,-0.0009
1928.00,-0.0008
1927.00,-0.0007
1926.00,-0.0006
1925.00,-0.0005
1924.00,-0.0005
1923.00,-0.0005
1922.00,-0.0004
1921.00,-0.0003
1920.00,-0.0003
1919.00,-0.0003
1918.00,-0.0002
1917.00,-0.0002
1916.00,-0.0002
1915.00,-0.0002
1914.00,-0.0002
1913.00,-0.0001
1912.00,-0.0000
1911.00,0.0000
1910.00,0.0001
1909.00,0.0001
1908.00,0.0002
1907.00,0.0002
1906.00,0.0002
1905.00,0.0002
1904.00,0.0001
1903.00,0.0001
1902.00,0.0001
1901.00,0.0001
1900.00,0.0002
1899.00,0.0002
1898.00,0.0001
1897.00,0.0001
1896.00,0.0000
1895.00,-0.0001
1894.00,-0.0001
1893.00,-0.0000
1892.00,0.0001
1891.00,0.0003
1890.00,0.0003
1889.00,0.0002
1888.00,0.0001
1887.00,-0.0000
1886.00,-0.0001
1885.00,-0.0001
1884.00,-0.0001
1883.00,-0.0001
1882.00,-0.0001
1881.00,-0.0001
1880.00,-0.0000
1879.00,-0.0001
1878.00,-0.0002
1877.00,-0.0003
1876.00,-0.0003
1875.00,-0.0003
1874.00,-0.0003
1873.00,-0.0002
1872.00,-0.0002
1871.00,-0.0002
1870.00,-0.0002
1869.00,-0.0003
1868.00,-0.0003
1867.00,-0.0002
1866.00,-0.0001
1865.00,-0.0000
1864.00,0.0000
1863.00,0.0000
1862.00,-0.0000
1861.00,-0.0000
1860.00,0.0001
1859.00,0.0001
1858.00,0.0002
1857.00,0.0002
1856.00,0.0002
1855.00,0.0002
1854.00,0.0002
1853.00,0.0002
1852.00,0.0002
1851.00,0.0002
1850.00,0.0003
1849.00,0.0003
1848.00,0.0004
1847.00,0.0005
1846.00,0.0004
1845.00,0.0004
1844.00,0.0004
1843.00,0.0003
1842.00,0.0003
1841.00,0.0004
1840.00,0.0004
1839.00,0.0004
1838.00,0.0003
1837.00,0.0003
1836.00,0.0004
1835.00,0.0004
1834.00,0.0004
1833.00,0.0005
1832.00,0.0005
1831.00,0.0005
1830.00,0.0004
1829.00,0.0004
1828.00,0.0003
1827.00,0.0003
1826.00,0.0003
1825.00,0.0003
1824.00,0.0004
1823.00,0.0004
1822.00,0.0005
1821.00,0.0005
1820.00,0.0004
1819.00,0.0003
1818.00,0.0002
1817.00,0.0001
1816.00,0.0000
1815.00,0.0001
1814.00,0.0002
1813.00,0.0003
1812.00,0.0004
1811.00,0.0004
1810.00,0.0004
1809.00,0.0004
1808.00,0.0004
1807.00,0.0005
1806.00,0.0005
1805.00,0.0005
1804.00,0.0005
1803.00,0.0005
1802.00,0.0005
1801.00,0.0005
1800.00,0.0006
1799.00,0.0007
1798.00,0.0008
1797.00,0.0008
1796.00,0.0008
1795.00,0.0007
1794.00,0.0007
1793.00,0.0008
1792.00,0.0008
1791.00,0.0009
1790.00,0.0009
1789.00,0.0009
1788.00,0.0009
1787.00,0.0009
1786.00,0.0008
1785.00,0.0009
1784.00,0.0009
1783.00,0.0010
1782.00,0.0010
1781.00,0.0009
1780.00,0.0009
1779.00,0.0009
1778.00,0.0009
1777.00,0.0009
1776.00,0.0009
1775.00,0.0010
1774.00,0.0010
1773.00,0.0010
1772.00,0.0010
1771.00,0.0011
1770.00,0.0011
1769.00,0.0012
1768.00,0.0012
1767.00,0.0012
1766.00,0.0013
1765.00,0.0013
1764.00,0.0013
1763.00,0.0013
1762.00,0.0013
1761.00,0.0014
1760.00,0.0014
1759.00,0.0015
1758.00,0.0015
1757.00,0.0015
1756.00,0.0016
1755.00,0.0016
1754.00,0.0017
1753.00,0.0018
1752.00,0.0019
1751.00,0.0019
1750.00,0.0020
1749.00,0.0022
1748.00,0.0023
1747.00,0.0025
1746.00,0.0027
1745.00,0.0028
1744.00,0.0029
1743.00,0.0030
1742.00,0.0030
1741.00,0.0031
1740.00,0.0032
1739.00,0.0033
1738.00,0.0033
1737.00,0.0034
1736.00,0.0035
1735.00,0.0035
1734.00,0.0035
1733.00,0.0035
1732.00,0.0035
1731.00,0.0035
1730.00,0.0036
1729.00,0.0036
1728.00,0.0036
1727.00,0.0036
1726.00,0.0036
1725.00,0.0037
1724.00,0.0037
1723.00,0.0036
1722.00,0.0036
1721.00,0.0036
1720.00,0.0036
1719.00,0.0035
1718.00,0.0033
1717.00,0.0032
1716.00,0.0031
1715.00,0.0031
1714.00,0.0031
1713.00,0.0031
1712.00,0.0031
1711.00,0.0031
1710.00,0.0031
1709.00,0.0031
1708.00,0.0032
1707.00,0.0032
1706.00,0.0032
1705.00,0.0033
1704.00,0.0033
1703.00,0.0034
1702.00,0.0034
1701.00,0.0034
1700.00,0.0034
1699.00,0.0035
1698.00,0.0035
1697.00,0.0036
1696.00,0.0037
1695.00,0.0038
1694.00,0.0039
1693.00,0.0040
1692.00,0.0042
1691.00,0.0044
1690.00,0.0046
1689.00,0.0047
1688.00,0.0049
1687.00,0.0050
1686.00,0.0051
1685.00,0.0052
1684.00,0.0055
1683.00,0.0057
1682.00,0.0059
1681.00,0.0061
1680.00,0.0063
1679.00,0.0064
1678.00,0.0065
1677.00,0.0066
1676.00,0.0068
1675.00,0.0069
1674.00,0.0071
1673.00,0.0072
1672.00,0.0073
1671.00,0.0074
1670.00,0.0075
1669.00,0.0076
1668.00,0.0078
1667.00,0.0078
1666.00,0.0079
1665.00,0.0080
1664.00,0.0080
1663.00,0.0081
1662.00,0.0082
1661.00,0.0083
1660.00,0.0083
1659.00,0.0084
1658.00,0.0085
1657.00,0.0085
1656.00,0.0086
1655.00,0.0086
1654.00,0.0088
1653.00,0.0090
1652.00,0.0093
1651.00,0.0095
1650.00,0.0096
1649.00,0.0098
1648.00,0.0100
1647.00,0.0103
1646.00,0.0105
1645.00,0.0106
1644.00,0.0106
1643.00,0.0105
1642.00,0.0104
1641.00,0.0103
1640.00,0.0102
1639.00,0.0102
1638.00,0.0101
1637.00,0.0101
1636.00,0.0101
1635.00,0.0101
1634.00,0.0102
1633.00,0.0102
1632.00,0.0101
1631.00,0.0101
1630.00,0.0101
1629.00,0.0100
1628.00,0.0100
1627.00,0.0099
1626.00,0.0098
1625.00,0.0097
1624.00,0.0096
1623.00,0.0095
1622.00,0.0094
1621.00,0.0094
1620.00,0.0093
1619.00,0.0093
1618.00,0.0092
1617.00,0.0092
1616.00,0.0092
1615.00,0.0092
1614.00,0.0092
1613.00,0.0092
1612.00,0.0092
1611.00,0.0091
1610.00,0.0091
1609.00,0.0091
1608.00,0.0091
1607.00,0.0090
1606.00,0.0090
1605.00,0.0090
1604.00,0.0089
1603.00,0.0088
1602.00,0.0088
1601.00,0.0088
1600.00,0.0088
1599.00,0.0087
1598.00,0.0087
1597.00,0.0087
1596.00,0.0086
1595.00,0.0085
1594.00,0.0084
1593.00,0.0083
1592.00,0.0083
1591.00,0.0082
1590.00,0.0082
1589.00,0.0081
1588.00,0.0080
1587.00,0.0080
1586.00,0.0079
1585.00,0.0079
1584.00,0.0079
1583.00,0.0078
1582.00,0.0078
1581.00,0.0078
1580.00,0.0078
1579.00,0.0078
1578.00,0.0079
1577.00,0.0079
1576.00,0.0080
1575.00,0.0080
1574.00,0.0081
1573.00,0.0081
1572.00,0.0083
1571.00,0.0083
1570.00,0.0084
1569.00,0.0086
1568.00,0.0087
1567.00,0.0088
1566.00,0.0089
1565.00,0.0090
1564.00,0.0091
1563.00,0.0092
1562.00,0.0093
1561.00,0.0094
1560.00,0.0095
1559.00,0.0095
1558.00,0.0097
1557.00,0.0098
1556.00,0.0100
1555.00,0.0101
1554.00,0.0102
1553.00,0.0103
1552.00,0.0104
1551.00,0.0104
1550.00,0.0105
1549.00,0.0105
1548.00,0.0105
1547.00,0.0104
1546.00,0.0103
1545.00,0.0102
1544.00,0.0100
1543.00,0.0097
1542.00,0.0094
1541.00,0.0091
1540.00,0.0090
1539.00,0.0088
1538.00,0.0088
1537.00,0.0087
1536.00,0.0087
1535.00,0.0086
1534.00,0.0084
1533.00,0.0083
1532.00,0.0082
1531.00,0.0081
1530.00,0.0080
1529.00,0.0079
1528.00,0.0079
1527.00,0.0078
1526.00,0.0077
1525.00,0.0077
1524.00,0.0077
1523.00,0.0077
1522.00,0.0077
1521.00,0.0077
1520.00,0.0078
1519.00,0.0078
1518.00,0.0078
1517.00,0.0078
1516.00,0.0078
1515.00,0.0078
1514.00,0.0078
1513.00,0.0078
1512.00,0.0080
1511.00,0.0081
1510.00,0.0082
1509.00,0.0083
1508.00,0.0085
1507.00,0.0085
1506.00,0.0086
1505.00,0.0088
1504.00,0.0091
1503.00,0.0094
1502.00,0.0097
1501.00,0.0100
1500.00,0.0103
1499.00,0.0106
1498.00,0.0109
1497.00,0.0114
1496.00,0.0118
1495.00,0.0122
1494.00,0.0126
1493.00,0.0130
1492.00,0.0136
1491.00,0.0141
1490.00,0.0147
1489.00,0.0153
1488.00,0.0159
1487.00,0.0165
1486.00,0.0170
1485.00,0.0176
1484.00,0.0183
1483.00,0.0190
1482.00,0.0198
1481.00,0.0209
1480.00,0.0221
1479.00,0.0232
1478.00,0.0247
1477.00,0.0267
1476.00,0.0293
1475.00,0.0322
1474.00,0.0362
1473.00,0.0419
1472.00,0.0487
1471.00,0.0555
1470.00,0.0620
1469.00,0.0688
1468.00,0.0759
1467.00,0.0837
1466.00,0.0923
1465.00,0.1016
1464.00,0.1097
1463.00,0.1154
1462.00,0.1190
1461.00,0.1214
1460.00,0.1229
1459.00,0.1237
1458.00,0.1239
1457.00,0.1237
1456.00,0.1227
1455.00,0.1213
1454.00,0.1195
1453.00,0.1172
1452.00,0.1141
1451.00,0.1099
1450.00,0.1045
1449.00,0.0975
1448.00,0.0890
1447.00,0.0802
1446.00,0.0725
1445.00,0.0659
1444.00,0.0603
1443.00,0.0557
1442.00,0.0523
1441.00,0.0499
1440.00,0.0486
1439.00,0.0481
1438.00,0.0485
1437.00,0.0488
1436.00,0.0481
1435.00,0.0458
1434.00,0.0423
1433.00,0.0381
1432.00,0.0337
1431.00,0.0297
1430.00,0.0266
1429.00,0.0243
1428.00,0.0228
1427.00,0.0218
1426.00,0.0212
1425.00,0.0206
1424.00,0.0200
1423.00,0.0196
1422.00,0.0194
1421.00,0.0191
1420.00,0.0188
1419.00,0.0185
1418.00,0.0182
1417.00,0.0178
1416.00,0.0174
1415.00,0.0171
1414.00,0.0168
1413.00,0.0165
1412.00,0.0161
1411.00,0.0159
1410.00,0.0157
1409.00,0.0155
1408.00,0.0153
1407.00,0.0152
1406.00,0.0151
1405.00,0.0150
1404.00,0.0149
1403.00,0.0149
1402.00,0.0150
1401.00,0.0150
1400.00,0.0150
1399.00,0.0151
1398.00,0.0153
1397.00,0.0153
1396.00,0.0153
1395.00,0.0155
1394.00,0.0159
1393.00,0.0163
1392.00,0.0167
1391.00,0.0174
1390.00,0.0183
1389.00,0.0196
1388.00,0.0215
1387.00,0.0243
1386.00,0.0282
1385.00,0.0334
1384.00,0.0407
1383.00,0.0512
1382.00,0.0656
1381.00,0.0846
1380.00,0.1086
1379.00,0.1366
1378.00,0.1644
1377.00,0.1857
1376.00,0.1942
1375.00,0.1860
1374.00,0.1637
1373.00,0.1357
1372.00,0.1095
1371.00,0.0878
1370.00,0.0705
1369.00,0.0575
1368.00,0.0486
1367.00,0.0432
1366.00,0.0402
1365.00,0.0390
1364.00,0.0391
1363.00,0.0404
1362.00,0.0425
1361.00,0.0448
1360.00,0.0466
1359.00,0.0472
1358.00,0.0463
1357.00,0.0438
1356.00,0.0402
1355.00,0.0361
1354.00,0.0322
1353.00,0.0289
1352.00,0.0262
1351.00,0.0239
1350.00,0.0221
1349.00,0.0206
1348.00,0.0193
1347.00,0.0183
1346.00,0.0174
1345.00,0.0167
1344.00,0.0160
1343.00,0.0154
1342.00,0.0149
1341.00,0.0145
1340.00,0.0141
1339.00,0.0139
1338.00,0.0137
1337.00,0.0136
1336.00,0.0137
1335.00,0.0139
1334.00,0.0141
1333.00,0.0145
1332.00,0.0149
1331.00,0.0152
1330.00,0.0153
1329.00,0.0152
1328.00,0.0148
1327.00,0.0144
1326.00,0.0138
1325.00,0.0132
1324.00,0.0126
1323.00,0.0122
1322.00,0.0117
1321.00,0.0114
1320.00,0.0112
1319.00,0.0110
1318.00,0.0108
1317.00,0.0107
1316.00,0.0106
1315.00,0.0106
1314.00,0.0106
1313.00,0.0106
1312.00,0.0106
1311.00,0.0108
1310.00,0.0111
1309.00,0.0115
1308.00,0.0121
1307.00,0.0128
1306.00,0.0136
1305.00,0.0141
1304.00,0.0143
1303.00,0.0143
1302.00,0.0141
1301.00,0.0140
1300.00,0.0140
1299.00,0.0141
1298.00,0.0143
1297.00,0.0144
1296.00,0.0144
1295.00,0.0142
1294.00,0.0139
1293.00,0.0134
1292.00,0.0129
1291.00,0.0123
1290.00,0.0119
1289.00,0.0115
1288.00,0.0111
1287.00,0.0109
1286.00,0.0106
1285.00,0.0104
1284.00,0.0103
1283.00,0.0102
1282.00,0.0100
1281.00,0.0099
1280.00,0.0098
1279.00,0.0097
1278.00,0.0096
1277.00,0.0096
1276.00,0.0095
1275.00,0.0095
1274.00,0.0095
1273.00,0.0095
1272.00,0.0096
1271.00,0.0096
1270.00,0.0097
1269.00,0.0098
1268.00,0.0099
1267.00,0.0101
1266.00,0.0104
1265.00,0.0106
1264.00,0.0108
1263.00,0.0111
1262.00,0.0113
1261.00,0.0115
1260.00,0.0118
1259.00,0.0122
1258.00,0.0126
1257.00,0.0129
1256.00,0.0130
1255.00,0.0128
1254.00,0.0124
1253.00,0.0118
1252.00,0.0113
1251.00,0.0108
1250.00,0.0105
1249.00,0.0102
1248.00,0.0100
1247.00,0.0098
1246.00,0.0096
1245.00,0.0094
1244.00,0.0093
1243.00,0.0091
1242.00,0.0090
1241.00,0.0088
1240.00,0.0087
1239.00,0.0086
1238.00,0.0085
1237.00,0.0084
1236.00,0.0083
1235.00,0.0083
1234.00,0.0082
1233.00,0.0082
1232.00,0.0082
1231.00,0.0082
1230.00,0.0084
1229.00,0.0085
1228.00,0.0088
1227.00,0.0090
1226.00,0.0092
1225.00,0.0095
1224.00,0.0098
1223.00,0.0102
1222.00,0.0105
1221.00,0.0108
1220.00,0.0110
1219.00,0.0111
1218.00,0.0110
1217.00,0.0108
1216.00,0.0105
1215.00,0.0102
1214.00,0.0098
1213.00,0.0095
1212.00,0.0092
1211.00,0.0089
1210.00,0.0087
1209.00,0.0085
1208.00,0.0084
1207.00,0.0083
1206.00,0.0082
1205.00,0.0081
1204.00,0.0081
1203.00,0.0080
1202.00,0.0080
1201.00,0.0080
1200.00,0.0080
1199.00,0.0080
1198.00,0.0080
1197.00,0.0080
1196.00,0.0079
1195.00,0.0079
1194.00,0.0078
1193.00,0.0078
1192.00,0.0078
1191.00,0.0078
1190.00,0.0078
1189.00,0.0077
1188.00,0.0077
1187.00,0.0077
1186.00,0.0078
1185.00,0.0080
1184.00,0.0081
1183.00,0.0082
1182.00,0.0083
1181.00,0.0085
1180.00,0.0088
1179.00,0.0091
1178.00,0.0096
1177.00,0.0101
1176.00,0.0109
1175.00,0.0119
1174.00,0.0133
1173.00,0.0151
1172.00,0.0171
1171.00,0.0193
1170.00,0.0215
1169.00,0.0232
1168.00,0.0243
1167.00,0.0247
1166.00,0.0244
1165.00,0.0238
1164.00,0.0229
1163.00,0.0222
1162.00,0.0216
1161.00,0.0211
1160.00,0.0208
1159.00,0.0206
1158.00,0.0205
1157.00,0.0205
1156.00,0.0205
1155.00,0.0206
1154.00,0.0207
1153.00,0.0207
1152.00,0.0204
1151.00,0.0200
1150.00,0.0193
1149.00,0.0185
1148.00,0.0178
1147.00,0.0170
1146.00,0.0163
1145.00,0.0156
1144.00,0.0149
1143.00,0.0143
1142.00,0.0137
1141.00,0.0132
1140.00,0.0128
1139.00,0.0124
1138.00,0.0121
1137.00,0.0119
1136.00,0.0116
1135.00,0.0114
1134.00,0.0113
1133.00,0.0112
1132.00,0.0112
1131.00,0.0112
1130.00,0.0112
1129.00,0.0114
1128.00,0.0116
1127.00,0.0118
1126.00,0.0121
1125.00,0.0123
1124.00,0.0125
1123.00,0.0126
1122.00,0.0128
1121.00,0.0129
1120.00,0.0131
1119.00,0.0132
1118.00,0.0134
1117.00,0.0136
1116.00,0.0136
1115.00,0.0136
1114.00,0.0135
1113.00,0.0135
1112.00,0.0136
1111.00,0.0138
1110.00,0.0143
1109.00,0.0148
1108.00,0.0153
1107.00,0.0159
1106.00,0.0165
1105.00,0.0171
1104.00,0.0176
1103.00,0.0178
1102.00,0.0178
1101.00,0.0174
1100.00,0.0167
1099.00,0.0160
1098.00,0.0154
1097.00,0.0148
1096.00,0.0143
1095.00,0.0138
1094.00,0.0135
1093.00,0.0131
1092.00,0.0128
1091.00,0.0126
1090.00,0.0125
1089.00,0.0124
1088.00,0.0123
1087.00,0.0121
1086.00,0.0120
1085.00,0.0119
1084.00,0.0118
1083.00,0.0117
1082.00,0.0116
1081.00,0.0116
1080.00,0.0115
1079.00,0.0113
1078.00,0.0112
1077.00,0.0110
1076.00,0.0109
1075.00,0.0108
1074.00,0.0108
1073.00,0.0107
1072.00,0.0106
1071.00,0.0106
1070.00,0.0106
1069.00,0.0106
1068.00,0.0106
1067.00,0.0106
1066.00,0.0106
1065.00,0.0106
1064.00,0.0106
1063.00,0.0106
1062.00,0.0106
1061.00,0.0107
1060.00,0.0107
1059.00,0.0108
1058.00,0.0108
1057.00,0.0108
1056.00,0.0108
1055.00,0.0110
1054.00,0.0113
1053.00,0.0116
1052.00,0.0119
1051.00,0.0122
1050.00,0.0125
1049.00,0.0128
1048.00,0.0132
1047.00,0.0135
1046.00,0.0138
1045.00,0.0141
1044.00,0.0142
1043.00,0.0143
1042.00,0.0142
1041.00,0.0140
1040.00,0.0139
1039.00,0.0139
1038.00,0.0139
1037.00,0.0140
1036.00,0.0141
1035.00,0.0141
1034.00,0.0140
1033.00,0.0139
1032.00,0.0138
1031.00,0.0137
1030.00,0.0136
1029.00,0.0135
1028.00,0.0135
1027.00,0.0136
1026.00,0.0137
1025.00,0.0139
1024.00,0.0141
1023.00,0.0143
1022.00,0.0145
1021.00,0.0146
1020.00,0.0147
1019.00,0.0147
1018.00,0.0147
1017.00,0.0147
1016.00,0.0147
1015.00,0.0147
1014.00,0.0146
1013.00,0.0145
1012.00,0.0144
1011.00,0.0143
1010.00,0.0142
1009.00,0.0142
1008.00,0.0143
1007.00,0.0145
1006.00,0.0149
1005.00,0.0155
1004.00,0.0165
1003.00,0.0179
1002.00,0.0198
1001.00,0.0220
1000.00,0.0243
999.00,0.0262
998.00,0.0269
997.00,0.0262
996.00,0.0243
995.00,0.0217
994.00,0.0191
993.00,0.0169
992.00,0.0152
991.00,0.0140
990.00,0.0131
989.00,0.0125
988.00,0.0121
987.00,0.0120
986.00,0.0120
985.00,0.0122
984.00,0.0125
983.00,0.0130
982.00,0.0138
981.00,0.0150
980.00,0.0167
979.00,0.0189
978.00,0.0216
977.00,0.0247
976.00,0.0278
975.00,0.0305
974.00,0.0322
973.00,0.0324
972.00,0.0310
971.00,0.0282
970.00,0.0247
969.00,0.0213
968.00,0.0185
967.00,0.0163
966.00,0.0146
965.00,0.0134
964.00,0.0124
963.00,0.0117
962.00,0.0111
961.00,0.0107
960.00,0.0104
959.00,0.0102
958.00,0.0100
957.00,0.0098
956.00,0.0096
955.00,0.0093
954.00,0.0091
953.00,0.0089
952.00,0.0088
951.00,0.0088
950.00,0.0088
949.00,0.0089
948.00,0.0090
947.00,0.0091
946.00,0.0093
945.00,0.0095
944.00,0.0098
943.00,0.0101
942.00,0.0105
941.00,0.0108
940.00,0.0108
939.00,0.0106
938.00,0.0102
937.00,0.0097
936.00,0.0092
935.00,0.0089
934.00,0.0086
933.00,0.0083
932.00,0.0080
931.00,0.0078
930.00,0.0077
929.00,0.0077
928.00,0.0077
927.00,0.0077
926.00,0.0077
925.00,0.0078
924.00,0.0078
923.00,0.0078
922.00,0.0077
921.00,0.0076
920.00,0.0075
919.00,0.0076
918.00,0.0077
917.00,0.0078
916.00,0.0079
915.00,0.0080
914.00,0.0081
913.00,0.0081
912.00,0.0082
911.00,0.0083
910.00,0.0085
909.00,0.0087
908.00,0.0090
907.00,0.0095
906.00,0.0102
905.00,0.0113
904.00,0.0128
903.00,0.0147
902.00,0.0168
901.00,0.0187
900.00,0.0199
899.00,0.0202
898.00,0.0194
897.00,0.0178
896.00,0.0159
895.00,0.0140
894.00,0.0125
893.00,0.0113
892.00,0.0105
891.00,0.0099
890.00,0.0095
889.00,0.0093
888.00,0.0092
887.00,0.0091
886.00,0.0090
885.00,0.0090
884.00,0.0089
883.00,0.0089
882.00,0.0089
881.00,0.0089
880.00,0.0090
879.00,0.0093
878.00,0.0096
877.00,0.0099
876.00,0.0103
875.00,0.0107
874.00,0.0109
873.00,0.0108
872.00,0.0105
871.00,0.0100
870.00,0.0095
869.00,0.0093
868.00,0.0092
867.00,0.0091
866.00,0.0090
865.00,0.0089
864.00,0.0090
863.00,0.0091
862.00,0.0093
861.00,0.0094
860.00,0.0094
859.00,0.0094
858.00,0.0095
857.00,0.0096
856.00,0.0098
855.00,0.0100
854.00,0.0100
853.00,0.0100
852.00,0.0101
851.00,0.0103
850.00,0.0106
849.00,0.0111
848.00,0.0116
847.00,0.0123
846.00,0.0135
845.00,0.0154
844.00,0.0180
843.00,0.0211
842.00,0.0234
841.00,0.0240
840.00,0.0225
839.00,0.0198
838.00,0.0168
837.00,0.0145
836.00,0.0130
835.00,0.0121
834.00,0.0115
833.00,0.0111
832.00,0.0108
831.00,0.0107
830.00,0.0106
829.00,0.0105
828.00,0.0104
827.00,0.0103
826.00,0.0102
825.00,0.0102
824.00,0.0102
823.00,0.0103
822.00,0.0105
821.00,0.0108
820.00,0.0111
819.00,0.0115
818.00,0.0119
817.00,0.0125
816.00,0.0134
815.00,0.0146
814.00,0.0162
813.00,0.0182
812.00,0.0202
811.00,0.0221
810.00,0.0236
809.00,0.0243
808.00,0.0240
807.00,0.0228
806.00,0.0210
805.00,0.0189
804.00,0.0170
803.00,0.0155
802.00,0.0145
801.00,0.0137
800.00,0.0130
799.00,0.0125
798.00,0.0122
797.00,0.0118
796.00,0.0115
795.00,0.0110
794.00,0.0106
793.00,0.0104
792.00,0.0101
791.00,0.0098
790.00,0.0096
789.00,0.0094
788.00,0.0093
787.00,0.0092
786.00,0.0091
785.00,0.0090
784.00,0.0089
783.00,0.0087
782.00,0.0085
781.00,0.0083
780.00,0.0081
779.00,0.0079
778.00,0.0079
777.00,0.0079
776.00,0.0079
775.00,0.0078
774.00,0.0078
773.00,0.0078
772.00,0.0078
771.00,0.0079
770.00,0.0079
769.00,0.0080
768.00,0.0080
767.00,0.0080
766.00,0.0081
765.00,0.0082
764.00,0.0083
763.00,0.0083
762.00,0.0082
761.00,0.0082
760.00,0.0082
759.00,0.0083
758.00,0.0083
757.00,0.0084
756.00,0.0084
755.00,0.0085
754.00,0.0087
753.00,0.0089
752.00,0.0090
751.00,0.0090
750.00,0.0092
749.00,0.0094
748.00,0.0097
747.00,0.0099
746.00,0.0102
745.00,0.0105
744.00,0.0108
743.00,0.0111
742.00,0.0113
741.00,0.0117
740.00,0.0122
739.00,0.0127
738.00,0.0133
737.00,0.0138
736.00,0.0143
735.00,0.0147
734.00,0.0153
733.00,0.0160
732.00,0.0169
731.00,0.0176
730.00,0.0181
729.00,0.0183
728.00,0.0182
727.00,0.0182
726.00,0.0184
725.00,0.0187
724.00,0.0192
723.00,0.0198
722.00,0.0204
721.00,0.0207
720.00,0.0204
719.00,0.0196
718.00,0.0185
717.00,0.0173
716.00,0.0162
715.00,0.0154
714.00,0.0147
713.00,0.0142
712.00,0.0137
711.00,0.0134
710.00,0.0133
709.00,0.0133
708.00,0.0134
707.00,0.0135
706.00,0.0135
705.00,0.0134
704.00,0.0131
703.00,0.0129
702.00,0.0126
701.00,0.0122
700.00,0.0119
699.00,0.0116
698.00,0.0115
697.00,0.0115
696.00,0.0115
695.00,0.0115
694.00,0.0115
693.00,0.0115
692.00,0.0116
691.00,0.0115
690.00,0.0114
689.00,0.0113
688.00,0.0112
687.00,0.0112
686.00,0.0113
685.00,0.0114
684.00,0.0114
683.00,0.0114
682.00,0.0113
681.00,0.0111
680.00,0.0109
679.00,0.0108
678.00,0.0109
677.00,0.0111
676.00,0.0114
675.00,0.0117
674.00,0.0119
673.00,0.0119
672.00,0.0119
671.00,0.0119
670.00,0.0120
669.00,0.0121
668.00,0.0121
667.00,0.0120
666.00,0.0118
665.00,0.0116
664.00,0.0115
663.00,0.0114
662.00,0.0114
661.00,0.0114
660.00,0.0114
659.00,0.0113
658.00,0.0112
657.00,0.0112
656.00,0.0112
655.00,0.0112
654.00,0.0112
653.00,0.0112
652.00,0.0112
651.00,0.0111
650.00,0.0110
649.00,0.0109
648.00,0.0109
647.00,0.0108
646.00,0.0108
645.00,0.0108
644.00,0.0107
643.00,0.0105
642.00,0.0104
641.00,0.0104
640.00,0.0106
639.00,0.0107
638.00,0.0107
637.00,0.0108
636.00,0.0107
635.00,0.0107
634.00,0.0107
633.00,0.0108
632.00,0.0108
631.00,0.0106
630.00,0.0104
629.00,0.0103
628.00,0.0103
627.00,0.0105
626.00,0.0107
625.00,0.0109
624.00,0.0111
623.00,0.0111
622.00,0.0111
621.00,0.0110
620.00,0.0109
619.00,0.0107
618.00,0.0106
617.00,0.0105
616.00,0.0103
615.00,0.0101
614.00,0.0099
613.00,0.0099
612.00,0.0100
611.00,0.0102
610.00,0.0103
609.00,0.0105
608.00,0.0106
607.00,0.0106
606.00,0.0106
605.00,0.0107
604.00,0.0108
603.00,0.0110
602.00,0.0110
601.00,0.0108
600.00,0.0106
599.00,0.0105
598.00,0.0104
597.00,0.0104
596.00,0.0105
595.00,0.0105
594.00,0.0106
593.00,0.0106
592.00,0.0105
591.00,0.0104
590.00,0.0103
589.00,0.0102
588.00,0.0101
587.00,0.0101
586.00,0.0099
585.00,0.0097
584.00,0.0094
583.00,0.0093
582.00,0.0094
581.00,0.0096
580.00,0.0098
579.00,0.0098
578.00,0.0096
577.00,0.0095
576.00,0.0094
575.00,0.0094
574.00,0.0096
573.00,0.0097
572.00,0.0098
571.00,0.0100
570.00,0.0102
569.00,0.0106
568.00,0.0110
567.00,0.0109
566.00,0.0107
565.00,0.0103
564.00,0.0101
563.00,0.0098
562.00,0.0096
561.00,0.0095
560.00,0.0095
559.00,0.0096
558.00,0.0095
557.00,0.0094
556.00,0.0092
555.00,0.0091
554.00,0.0091
553.00,0.0093
552.00,0.0097
551.00,0.0102
550.00,0.0107
549.00,0.0110
548.00,0.0111
547.00,0.0112
546.00,0.0112
545.00,0.0111
544.00,0.0108
543.00,0.0106
542.00,0.0107
541.00,0.0109
540.00,0.0111
539.00,0.0113
538.00,0.0117
537.00,0.0121
536.00,0.0128
535.00,0.0134
534.00,0.0138
533.00,0.0139
532.00,0.0136
531.00,0.0132
530.00,0.0128
529.00,0.0124
528.00,0.0123
527.00,0.0123
526.00,0.0123
525.00,0.0123
524.00,0.0123
523.00,0.0122
522.00,0.0120
521.00,0.0117
520.00,0.0114
519.00,0.0112
518.00,0.0109
517.00,0.0107
516.00,0.0102
515.00,0.0099
514.00,0.0098
513.00,0.0099
512.00,0.0100
511.00,0.0099
510.00,0.0098
509.00,0.0094
508.00,0.0091
507.00,0.0090
506.00,0.0093
505.00,0.0099
504.00,0.0105
503.00,0.0108
502.00,0.0106
501.00,0.0103
500.00,0.0101
499.00,0.0100
498.00,0.0101
497.00,0.0103
496.00,0.0105
495.00,0.0105
494.00,0.0103
493.00,0.0101
492.00,0.0102
491.00,0.0106
490.00,0.0111
489.00,0.0114
488.00,0.0113
487.00,0.0109
486.00,0.0104
485.00,0.0103
484.00,0.0107
483.00,0.0115
482.00,0.0124
481.00,0.0128
480.00,0.0129
479.00,0.0127
478.00,0.0125
477.00,0.0126
476.00,0.0131
475.00,0.0140
474.00,0.0148
473.00,0.0153
472.00,0.0152
471.00,0.0149
470.00,0.0151
469.00,0.0158
468.00,0.0168
467.00,0.0183
466.00,0.0201
465.00,0.0218
464.00,0.0228
463.00,0.0232
462.00,0.0234
461.00,0.0241
460.00,0.0248
459.00,0.0247
458.00,0.0235
457.00,0.0222
456.00,0.0215
455.00,0.0213
454.00,0.0208
453.00,0.0199
452.00,0.0185
451.00,0.0168
450.00,0.0154
