Created as New Dataset,Sample 137 By Administrator Date Wednesday, September 03 2025
cm-1,A
4000.00,0.0006
3999.00,0.0006
3998.00,0.0006
3997.00,0.0006
3996.00,0.0006
3995.00,0.0006
3994.00,0.0005
3993.00,0.0005
3992.00,0.0005
3991.00,0.0005
3990.00,0.0005
3989.00,0.0005
3988.00,0.0005
3987.00,0.0005
3986.00,0.0004
3985.00,0.0005
3984.00,0.0005
3983.00,0.0005
3982.00,0.0005
3981.00,0.0005
3980.00,0.0005
3979.00,0.0004
3978.00,0.0004
3977.00,0.0004
3976.00,0.0004
3975.00,0.0004
3974.00,0.0004
3973.00,0.0004
3972.00,0.0004
3971.00,0.0004
3970.00,0.0004
3969.00,0.0004
3968.00,0.0004
3967.00,0.0004
3966.00,0.0004
3965.00,0.0004
3964.00,0.0004
3963.00,0.0004
3962.00,0.0003
3961.00,0.0003
3960.00,0.0004
3959.00,0.0004
3958.00,0.0004
3957.00,0.0004
3956.00,0.0004
3955.00,0.0004
3954.00,0.0003
3953.00,0.0004
3952.00,0.0004
3951.00,0.0004
3950.00,0.0004
3949.00,0.0004
3948.00,0.0004
3947.00,0.0004
3946.00,0.0004
3945.00,0.0004
3944.00,0.0003
3943.00,0.0003
3942.00,0.0003
3941.00,0.0004
3940.00,0.0004
3939.00,0.0004
3938.00,0.0004
3937.00,0.0004
3936.00,0.0004
3935.00,0.0004
3934.00,0.0004
3933.00,0.0004
3932.00,0.0004
3931.00,0.0004
3930.00,0.0004
3929.00,0.0004
3928.00,0.0004
3927.00,0.0004
3926.00,0.0004
3925.00,0.0004
3924.00,0.0004
3923.00,0.0004
3922.00,0.0004
3921.00,0.0004
3920.00,0.0004
3919.00,0.0004
3918.00,0.0004
3917.00,0.0004
3916.00,0.0004
3915.00,0.0004
3914.00,0.0004
3913.00,0.0004
3912.00,0.0004
3911.00,0.0004
3910.00,0.0003
3909.00,0.0003
3908.00,0.0003
3907.00,0.0003
3906.00,0.0002
3905.00,0.0002
3904.00,0.0002
3903.00,0.0002
3902.00,0.0002
3901.00,0.0003
3900.00,0.0003
3899.00,0.0003
3898.00,0.0003
3897.00,0.0003
3896.00,0.0003
3895.00,0.0003
3894.00,0.0004
3893.00,0.0004
3892.00,0.0004
3891.00,0.0003
3890.00,0.0003
3889.00,0.0003
3888.00,0.0003
3887.00,0.0002
3886.00,0.0002
3885.00,0.0003
3884.00,0.0003
3883.00,0.0003
3882.00,0.0003
3881.00,0.0003
3880.00,0.0003
3879.00,0.0003
3878.00,0.0003
3877.00,0.0003
3876.00,0.0003
3875.00,0.0003
3874.00,0.0003
3873.00,0.0003
3872.00,0.0003
3871.00,0.0003
3870.00,0.0003
3869.00,0.0003
3868.00,0.0003
3867.00,0.0004
3866.00,0.0004
3865.00,0.0004
3864.00,0.0004
3863.00,0.0004
3862.00,0.0004
3861.00,0.0003
3860.00,0.0003
3859.00,0.0002
3858.00,0.0002
3857.00,0.0002
3856.00,0.0002
3855.00,0.0002
3854.00,0.0002
3853.00,0.0002
3852.00,0.0002
3851.00,0.0003
3850.00,0.0003
3849.00,0.0003
3848.00,0.0003
3847.00,0.0003
3846.00,0.0004
3845.00,0.0003
3844.00,0.0003
3843.00,0.0003
3842.00,0.0002
3841.00,0.0002
3840.00,0.0002
3839.00,0.0002
3838.00,0.0003
3837.00,0.0003
3836.00,0.0004
3835.00,0.0004
3834.00,0.0004
3833.00,0.0003
3832.00,0.0003
3831.00,0.0002
3830.00,0.0002
3829.00,0.0002
3828.00,0.0002
3827.00,0.0002
3826.00,0.0003
3825.00,0.0003
3824.00,0.0003
3823.00,0.0002
3822.00,0.0002
3821.00,0.0001
3820.00,0.0002
3819.00,0.0002
3818.00,0.0002
3817.00,0.0003
3816.00,0.0003
3815.00,0.0004
3814.00,0.0004
3813.00,0.0004
3812.00,0.0004
3811.00,0.0004
3810.00,0.0003
3809.00,0.0003
3808.00,0.0002
3807.00,0.0002
3806.00,0.0002
3805.00,0.0002
3804.00,0.0003
3803.00,0.0003
3802.00,0.0003
3801.00,0.0004
3800.00,0.0004
3799.00,0.0005
3798.00,0.0004
3797.00,0.0004
3796.00,0.0004
3795.00,0.0003
3794.00,0.0003
3793.00,0.0003
3792.00,0.0003
3791.00,0.0003
3790.00,0.0003
3789.00,0.0003
3788.00,0.0003
3787.00,0.0003
3786.00,0.0003
3785.00,0.0003
3784.00,0.0003
3783.00,0.0003
3782.00,0.0003
3781.00,0.0003
3780.00,0.0002
3779.00,0.0002
3778.00,0.0003
3777.00,0.0003
3776.00,0.0003
3775.00,0.0003
3774.00,0.0003
3773.00,0.0002
3772.00,0.0002
3771.00,0.0002
3770.00,0.0002
3769.00,0.0002
3768.00,0.0003
3767.00,0.0003
3766.00,0.0004
3765.00,0.0004
3764.00,0.0004
3763.00,0.0004
3762.00,0.0004
3761.00,0.0004
3760.00,0.0004
3759.00,0.0003
3758.00,0.0003
3757.00,0.0003
3756.00,0.0003
3755.00,0.0003
3754.00,0.0003
3753.00,0.0003
3752.00,0.0003
3751.00,0.0002
3750.00,0.0002
3749.00,0.0002
3748.00,0.0001
3747.00,0.0001
3746.00,0.0000
3745.00,0.0000
3744.00,0.0001
3743.00,0.0002
3742.00,0.0003
3741.00,0.0003
3740.00,0.0003
3739.00,0.0003
3738.00,0.0002
3737.00,0.0002
3736.00,0.0001
3735.00,0.0001
3734.00,0.0001
3733.00,0.0001
3732.00,0.0001
3731.00,0.0002
3730.00,0.0002
3729.00,0.0002
3728.00,0.0003
3727.00,0.0002
3726.00,0.0002
3725.00,0.0002
3724.00,0.0002
3723.00,0.0002
3722.00,0.0002
3721.00,0.0002
3720.00,0.0002
3719.00,0.0002
3718.00,0.0002
3717.00,0.0002
3716.00,0.0002
3715.00,0.0002
3714.00,0.0003
3713.00,0.0003
3712.00,0.0003
3711.00,0.0003
3710.00,0.0003
3709.00,0.0003
3708.00,0.0002
3707.00,0.0002
3706.00,0.0002
3705.00,0.0002
3704.00,0.0001
3703.00,0.0001
3702.00,0.0001
3701.00,0.0002
3700.00,0.0002
3699.00,0.0002
3698.00,0.0001
3697.00,0.0001
3696.00,0.0001
3695.00,0.0000
3694.00,0.0000
3693.00,0.0000
3692.00,-0.0000
3691.00,-0.0000
3690.00,-0.0001
3689.00,-0.0001
3688.00,-0.0000
3687.00,0.0000
3686.00,0.0001
3685.00,0.0002
3684.00,0.0002
3683.00,0.0003
3682.00,0.0002
3681.00,0.0002
3680.00,0.0002
3679.00,0.0003
3678.00,0.0003
3677.00,0.0003
3676.00,0.0003
3675.00,0.0002
3674.00,0.0001
3673.00,0.0001
3672.00,0.0001
3671.00,0.0001
3670.00,0.0001
3669.00,0.0001
3668.00,0.0001
3667.00,0.0001
3666.00,0.0001
3665.00,0.0002
3664.00,0.0002
3663.00,0.0002
3662.00,0.0002
3661.00,0.0002
3660.00,0.0002
3659.00,0.0001
3658.00,0.0001
3657.00,0.0000
3656.00,0.0000
3655.00,-0.0000
3654.00,-0.0000
3653.00,-0.0001
3652.00,-0.0001
3651.00,-0.0001
3650.00,0.0000
3649.00,0.0001
3648.00,0.0001
3647.00,0.0002
3646.00,0.0002
3645.00,0.0001
3644.00,0.0001
3643.00,0.0001
3642.00,0.0001
3641.00,0.0001
3640.00,0.0000
3639.00,0.0000
3638.00,0.0000
3637.00,0.0000
3636.00,0.0000
3635.00,-0.0000
3634.00,-0.0000
3633.00,0.0000
3632.00,0.0000
3631.00,0.0001
3630.00,0.0001
3629.00,0.0001
3628.00,0.0000
3627.00,0.0000
3626.00,0.0000
3625.00,0.0000
3624.00,0.0000
3623.00,0.0001
3622.00,0.0001
3621.00,0.0001
3620.00,0.0001
3619.00,0.0001
3618.00,0.0001
3617.00,0.0001
3616.00,0.0001
3615.00,0.0001
3614.00,0.0001
3613.00,0.0002
3612.00,0.0002
3611.00,0.0002
3610.00,0.0002
3609.00,0.0002
3608.00,0.0002
3607.00,0.0001
3606.00,0.0002
3605.00,0.0002
3604.00,0.0002
3603.00,0.0002
3602.00,0.0002
3601.00,0.0002
3600.00,0.0001
3599.00,0.0001
3598.00,0.0001
3597.00,0.0001
3596.00,0.0002
3595.00,0.0002
3594.00,0.0002
3593.00,0.0002
3592.00,0.0002
3591.00,0.0002
3590.00,0.0002
3589.00,0.0002
3588.00,0.0002
3587.00,0.0002
3586.00,0.0002
3585.00,0.0002
3584.00,0.0002
3583.00,0.0003
3582.00,0.0003
3581.00,0.0003
3580.00,0.0003
3579.00,0.0003
3578.00,0.0003
3577.00,0.0003
3576.00,0.0004
3575.00,0.0004
3574.00,0.0004
3573.00,0.0004
3572.00,0.0004
3571.00,0.0004
3570.00,0.0005
3569.00,0.0004
3568.00,0.0004
3567.00,0.0004
3566.00,0.0004
3565.00,0.0004
3564.00,0.0004
3563.00,0.0005
3562.00,0.0005
3561.00,0.0006
3560.00,0.0006
3559.00,0.0006
3558.00,0.0006
3557.00,0.0007
3556.00,0.0007
3555.00,0.0007
3554.00,0.0007
3553.00,0.0006
3552.00,0.0006
3551.00,0.0007
3550.00,0.0007
3549.00,0.0008
3548.00,0.0008
3547.00,0.0008
3546.00,0.0008
3545.00,0.0008
3544.00,0.0008
3543.00,0.0008
3542.00,0.0008
3541.00,0.0009
3540.00,0.0009
3539.00,0.0009
3538.00,0.0009
3537.00,0.0009
3536.00,0.0009
3535.00,0.0010
3534.00,0.0010
3533.00,0.0010
3532.00,0.0010
3531.00,0.0010
3530.00,0.0010
3529.00,0.0010
3528.00,0.0010
3527.00,0.0010
3526.00,0.0010
3525.00,0.0010
3524.00,0.0011
3523.00,0.0011
3522.00,0.0011
3521.00,0.0011
3520.00,0.0011
3519.00,0.0012
3518.00,0.0012
3517.00,0.0012
3516.00,0.0013
3515.00,0.0013
3514.00,0.0014
3513.00,0.0014
3512.00,0.0014
3511.00,0.0014
3510.00,0.0014
3509.00,0.0014
3508.00,0.0014
3507.00,0.0014
3506.00,0.0014
3505.00,0.0014
3504.00,0.0014
3503.00,0.0014
3502.00,0.0015
3501.00,0.0015
3500.00,0.0015
3499.00,0.0015
3498.00,0.0014
3497.00,0.0014
3496.00,0.0014
3495.00,0.0015
3494.00,0.0015
3493.00,0.0016
3492.00,0.0016
3491.00,0.0016
3490.00,0.0016
3489.00,0.0016
3488.00,0.0016
3487.00,0.0016
3486.00,0.0017
3485.00,0.0017
3484.00,0.0017
3483.00,0.0017
3482.00,0.0017
3481.00,0.0017
3480.00,0.0018
3479.00,0.0018
3478.00,0.0018
3477.00,0.0018
3476.00,0.0018
3475.00,0.0018
3474.00,0.0018
3473.00,0.0018
3472.00,0.0018
3471.00,0.0019
3470.00,0.0019
3469.00,0.0018
3468.00,0.0018
3467.00,0.0018
3466.00,0.0018
3465.00,0.0019
3464.00,0.0019
3463.00,0.0020
3462.00,0.0020
3461.00,0.0021
3460.00,0.0021
3459.00,0.0021
3458.00,0.0022
3457.00,0.0022
3456.00,0.0022
3455.00,0.0022
3454.00,0.0022
3453.00,0.0022
3452.00,0.0022
3451.00,0.0022
3450.00,0.0022
3449.00,0.0022
3448.00,0.0022
3447.00,0.0022
3446.00,0.0022
3445.00,0.0022
3444.00,0.0022
3443.00,0.0022
3442.00,0.0023
3441.00,0.0023
3440.00,0.0023
3439.00,0.0024
3438.00,0.0024
3437.00,0.0024
3436.00,0.0025
3435.00,0.0025
3434.00,0.0025
3433.00,0.0025
3432.00,0.0025
3431.00,0.0025
3430.00,0.0025
3429.00,0.0025
3428.00,0.0025
3427.00,0.0025
3426.00,0.0026
3425.00,0.0026
3424.00,0.0026
3423.00,0.0026
3422.00,0.0026
3421.00,0.0026
3420.00,0.0026
3419.00,0.0027
3418.00,0.0027
3417.00,0.0027
3416.00,0.0027
3415.00,0.0027
3414.00,0.0028
3413.00,0.0028
3412.00,0.0028
3411.00,0.0028
3410.00,0.0028
3409.00,0.0028
3408.00,0.0028
3407.00,0.0028
3406.00,0.0028
3405.00,0.0028
3404.00,0.0028
3403.00,0.0028
3402.00,0.0028
3401.00,0.0029
3400.00,0.0029
3399.00,0.0029
3398.00,0.0029
3397.00,0.0029
3396.00,0.0029
3395.00,0.0029
3394.00,0.0029
3393.00,0.0029
3392.00,0.0029
3391.00,0.0029
3390.00,0.0029
3389.00,0.0029
3388.00,0.0029
3387.00,0.0029
3386.00,0.0029
3385.00,0.0029
3384.00,0.0029
3383.00,0.0030
3382.00,0.0030
3381.00,0.0030
3380.00,0.0029
3379.00,0.0029
3378.00,0.0029
3377.00,0.0029
3376.00,0.0030
3375.00,0.0030
3374.00,0.0030
3373.00,0.0030
3372.00,0.0030
3371.00,0.0031
3370.00,0.0031
3369.00,0.0031
3368.00,0.0031
3367.00,0.0031
3366.00,0.0031
3365.00,0.0031
3364.00,0.0031
3363.00,0.0031
3362.00,0.0031
3361.00,0.0031
3360.00,0.0031
3359.00,0.0031
3358.00,0.0031
3357.00,0.0032
3356.00,0.0032
3355.00,0.0032
3354.00,0.0032
3353.00,0.0032
3352.00,0.0031
3351.00,0.0031
3350.00,0.0031
3349.00,0.0032
3348.00,0.0032
3347.00,0.0032
3346.00,0.0032
3345.00,0.0032
3344.00,0.0032
3343.00,0.0031
3342.00,0.0031
3341.00,0.0031
3340.00,0.0031
3339.00,0.0031
3338.00,0.0031
3337.00,0.0031
3336.00,0.0031
3335.00,0.0031
3334.00,0.0030
3333.00,0.0030
3332.00,0.0030
3331.00,0.0030
3330.00,0.0031
3329.00,0.0030
3328.00,0.0030
3327.00,0.0030
3326.00,0.0030
3325.00,0.0030
3324.00,0.0030
3323.00,0.0031
3322.00,0.0031
3321.00,0.0030
3320.00,0.0030
3319.00,0.0030
3318.00,0.0030
3317.00,0.0030
3316.00,0.0029
3315.00,0.0029
3314.00,0.0029
3313.00,0.0030
3312.00,0.0031
3311.00,0.0031
3310.00,0.0032
3309.00,0.0032
3308.00,0.0032
3307.00,0.0032
3306.00,0.0031
3305.00,0.0031
3304.00,0.0031
3303.00,0.0031
3302.00,0.0031
3301.00,0.0032
3300.00,0.0032
3299.00,0.0032
3298.00,0.0032
3297.00,0.0031
3296.00,0.0031
3295.00,0.0030
3294.00,0.0030
3293.00,0.0030
3292.00,0.0030
3291.00,0.0030
3290.00,0.0030
3289.00,0.0029
3288.00,0.0029
3287.00,0.0029
3286.00,0.0029
3285.00,0.0029
3284.00,0.0029
3283.00,0.0030
3282.00,0.0030
3281.00,0.0029
3280.00,0.0029
3279.00,0.0029
3278.00,0.0029
3277.00,0.0029
3276.00,0.0029
3275.00,0.0029
3274.00,0.0029
3273.00,0.0028
3272.00,0.0028
3271.00,0.0028
3270.00,0.0028
3269.00,0.0028
3268.00,0.0027
3267.00,0.0027
3266.00,0.0027
3265.00,0.0027
3264.00,0.0027
3263.00,0.0027
3262.00,0.0027
3261.00,0.0027
3260.00,0.0027
3259.00,0.0027
3258.00,0.0028
3257.00,0.0028
3256.00,0.0028
3255.00,0.0027
3254.00,0.0027
3253.00,0.0026
3252.00,0.0026
3251.00,0.0026
3250.00,0.0026
3249.00,0.0027
3248.00,0.0027
3247.00,0.0027
3246.00,0.0027
3245.00,0.0026
3244.00,0.0026
3243.00,0.0025
3242.00,0.0025
3241.00,0.0025
3240.00,0.0026
3239.00,0.0026
3238.00,0.0026
3237.00,0.0026
3236.00,0.0026
3235.00,0.0026
3234.00,0.0026
3233.00,0.0027
3232.00,0.0027
3231.00,0.0027
3230.00,0.0027
3229.00,0.0027
3228.00,0.0027
3227.00,0.0027
3226.00,0.0027
3225.00,0.0027
3224.00,0.0027
3223.00,0.0027
3222.00,0.0027
3221.00,0.0027
3220.00,0.0028
3219.00,0.0028
3218.00,0.0029
3217.00,0.0029
3216.00,0.0029
3215.00,0.0028
3214.00,0.0028
3213.00,0.0029
3212.00,0.0029
3211.00,0.0029
3210.00,0.0029
3209.00,0.0029
3208.00,0.0029
3207.00,0.0029
3206.00,0.0030
3205.00,0.0030
3204.00,0.0030
3203.00,0.0031
3202.00,0.0031
3201.00,0.0032
3200.00,0.0032
3199.00,0.0032
3198.00,0.0032
3197.00,0.0032
3196.00,0.0032
3195.00,0.0032
3194.00,0.0031
3193.00,0.0031
3192.00,0.0030
3191.00,0.0030
3190.00,0.0030
3189.00,0.0030
3188.00,0.0030
3187.00,0.0030
3186.00,0.0030
3185.00,0.0030
3184.00,0.0029
3183.00,0.0029
3182.00,0.0029
3181.00,0.0029
3180.00,0.0028
3179.00,0.0028
3178.00,0.0028
3177.00,0.0028
3176.00,0.0028
3175.00,0.0028
3174.00,0.0028
3173.00,0.0029
3172.00,0.0029
3171.00,0.0029
3170.00,0.0029
3169.00,0.0029
3168.00,0.0029
3167.00,0.0029
3166.00,0.0029
3165.00,0.0029
3164.00,0.0028
3163.00,0.0028
3162.00,0.0027
3161.00,0.0027
3160.00,0.0027
3159.00,0.0027
3158.00,0.0027
3157.00,0.0027
3156.00,0.0027
3155.00,0.0027
3154.00,0.0027
3153.00,0.0027
3152.00,0.0027
3151.00,0.0027
3150.00,0.0027
3149.00,0.0027
3148.00,0.0027
3147.00,0.0027
3146.00,0.0027
3145.00,0.0027
3144.00,0.0027
3143.00,0.0027
3142.00,0.0027
3141.00,0.0027
3140.00,0.0026
3139.00,0.0026
3138.00,0.0027
3137.00,0.0027
3136.00,0.0027
3135.00,0.0027
3134.00,0.0026
3133.00,0.0026
3132.00,0.0026
3131.00,0.0026
3130.00,0.0026
3129.00,0.0026
3128.00,0.0026
3127.00,0.0025
3126.00,0.0025
3125.00,0.0024
3124.00,0.0024
3123.00,0.0024
3122.00,0.0023
3121.00,0.0023
3120.00,0.0023
3119.00,0.0023
3118.00,0.0023
3117.00,0.0024
3116.00,0.0024
3115.00,0.0024
3114.00,0.0023
3113.00,0.0023
3112.00,0.0023
3111.00,0.0022
3110.00,0.0022
3109.00,0.0022
3108.00,0.0022
3107.00,0.0022
3106.00,0.0022
3105.00,0.0023
3104.00,0.0023
3103.00,0.0023
3102.00,0.0023
3101.00,0.0023
3100.00,0.0023
3099.00,0.0023
3098.00,0.0023
3097.00,0.0023
3096.00,0.0022
3095.00,0.0022
3094.00,0.0021
3093.00,0.0021
3092.00,0.0021
3091.00,0.0021
3090.00,0.0021
3089.00,0.0022
3088.00,0.0022
3087.00,0.0021
3086.00,0.0021
3085.00,0.0021
3084.00,0.0021
3083.00,0.0021
3082.00,0.0021
3081.00,0.0021
3080.00,0.0021
3079.00,0.0021
3078.00,0.0021
3077.00,0.0021
3076.00,0.0021
3075.00,0.0021
3074.00,0.0022
3073.00,0.0022
3072.00,0.0022
3071.00,0.0023
3070.00,0.0023
3069.00,0.0022
3068.00,0.0022
3067.00,0.0022
3066.00,0.0022
3065.00,0.0023
3064.00,0.0023
3063.00,0.0023
3062.00,0.0024
3061.00,0.0024
3060.00,0.0024
3059.00,0.0024
3058.00,0.0024
3057.00,0.0024
3056.00,0.0024
3055.00,0.0025
3054.00,0.0025
3053.00,0.0025
3052.00,0.0025
3051.00,0.0025
3050.00,0.0025
3049.00,0.0026
3048.00,0.0026
3047.00,0.0026
3046.00,0.0027
3045.00,0.0027
3044.00,0.0027
3043.00,0.0027
3042.00,0.0027
3041.00,0.0028
3040.00,0.0028
3039.00,0.0028
3038.00,0.0029
3037.00,0.0029
3036.00,0.0030
3035.00,0.0030
3034.00,0.0030
3033.00,0.0031
3032.00,0.0031
3031.00,0.0032
3030.00,0.0033
3029.00,0.0033
3028.00,0.0033
3027.00,0.0034
3026.00,0.0034
3025.00,0.0034
3024.00,0.0035
3023.00,0.0036
3022.00,0.0037
3021.00,0.0038
3020.00,0.0038
3019.00,0.0039
3018.00,0.0040
3017.00,0.0041
3016.00,0.0042
3015.00,0.0043
3014.00,0.0044
3013.00,0.0045
3012.00,0.0046
3011.00,0.0047
3010.00,0.0049
3009.00,0.0050
3008.00,0.0052
3007.00,0.0053
3006.00,0.0055
3005.00,0.0057
3004.00,0.0059
3003.00,0.0062
3002.00,0.0064
3001.00,0.0067
3000.00,0.0069
2999.00,0.0072
2998.00,0.0075
2997.00,0.0078
2996.00,0.0082
2995.00,0.0087
2994.00,0.0091
2993.00,0.0096
2992.00,0.0102
2991.00,0.0107
2990.00,0.0114
2989.00,0.0121
2988.00,0.0128
2987.00,0.0137
2986.00,0.0147
2985.00,0.0158
2984.00,0.0171
2983.00,0.0186
2982.00,0.0202
2981.00,0.0220
2980.00,0.0240
2979.00,0.0263
2978.00,0.0290
2977.00,0.0320
2976.00,0.0354
2975.00,0.0394
2974.00,0.0440
2973.00,0.0493
2972.00,0.0553
2971.00,0.0620
2970.00,0.0696
2969.00,0.0779
2968.00,0.0871
2967.00,0.0971
2966.00,0.1077
2965.00,0.1190
2964.00,0.1304
2963.00,0.1414
2962.00,0.1515
2961.00,0.1601
2960.00,0.1668
2959.00,0.1716
2958.00,0.1748
2957.00,0.1772
2956.00,0.1793
2955.00,0.1818
2954.00,0.1848
2953.00,0.1879
2952.00,0.1904
2951.00,0.1912
2950.00,0.1895
2949.00,0.1847
2948.00,0.1769
2947.00,0.1664
2946.00,0.1544
2945.00,0.1421
2944.00,0.1306
2943.00,0.1208
2942.00,0.1131
2941.00,0.1079
2940.00,0.1049
2939.00,0.1041
2938.00,0.1051
2937.00,0.1079
2936.00,0.1121
2935.00,0.1178
2934.00,0.1246
2933.00,0.1326
2932.00,0.1415
2931.00,0.1511
2930.00,0.1612
2929.00,0.1715
2928.00,0.1817
2927.00,0.1915
2926.00,0.2007
2925.00,0.2094
2924.00,0.2176
2923.00,0.2254
2922.00,0.2329
2921.00,0.2397
2920.00,0.2455
2919.00,0.2494
2918.00,0.2510
2917.00,0.2497
2916.00,0.2456
2915.00,0.2394
2914.00,0.2318
2913.00,0.2239
2912.00,0.2162
2911.00,0.2092
2910.00,0.2032
2909.00,0.1978
2908.00,0.1928
2907.00,0.1878
2906.00,0.1827
2905.00,0.1771
2904.00,0.1712
2903.00,0.1649
2902.00,0.1585
2901.00,0.1520
2900.00,0.1456
2899.00,0.1394
2898.00,0.1336
2897.00,0.1283
2896.00,0.1234
2895.00,0.1192
2894.00,0.1155
2893.00,0.1126
2892.00,0.1102
2891.00,0.1083
2890.00,0.1069
2889.00,0.1058
2888.00,0.1052
2887.00,0.1049
2886.00,0.1049
2885.00,0.1053
2884.00,0.1059
2883.00,0.1069
2882.00,0.1083
2881.00,0.1098
2880.00,0.1112
2879.00,0.1123
2878.00,0.1129
2877.00,0.1127
2876.00,0.1121
2875.00,0.1114
2874.00,0.1109
2873.00,0.1110
2872.00,0.1118
2871.00,0.1132
2870.00,0.1150
2869.00,0.1166
2868.00,0.1175
2867.00,0.1169
2866.00,0.1144
2865.00,0.1099
2864.00,0.1038
2863.00,0.0970
2862.00,0.0903
2861.00,0.0846
2860.00,0.0802
2859.00,0.0773
2858.00,0.0757
2857.00,0.0752
2856.00,0.0755
2855.00,0.0764
2854.00,0.0777
2853.00,0.0792
2852.00,0.0807
2851.00,0.0821
2850.00,0.0833
2849.00,0.0846
2848.00,0.0862
2847.00,0.0884
2846.00,0.0916
2845.00,0.0958
2844.00,0.1010
2843.00,0.1069
2842.00,0.1129
2841.00,0.1185
2840.00,0.1227
2839.00,0.1248
2838.00,0.1241
2837.00,0.1202
2836.00,0.1134
2835.00,0.1041
2834.00,0.0934
2833.00,0.0824
2832.00,0.0721
2831.00,0.0630
2830.00,0.0553
2829.00,0.0490
2828.00,0.0438
2827.00,0.0397
2826.00,0.0363
2825.00,0.0335
2824.00,0.0312
2823.00,0.0292
2822.00,0.0274
2821.00,0.0259
2820.00,0.0245
2819.00,0.0233
2818.00,0.0223
2817.00,0.0214
2816.00,0.0207
2815.00,0.0200
2814.00,0.0194
2813.00,0.0188
2812.00,0.0182
2811.00,0.0177
2810.00,0.0172
2809.00,0.0167
2808.00,0.0161
2807.00,0.0155
2806.00,0.0149
2805.00,0.0142
2804.00,0.0136
2803.00,0.0130
2802.00,0.0125
2801.00,0.0121
2800.00,0.0117
2799.00,0.0114
2798.00,0.0111
2797.00,0.0109
2796.00,0.0107
2795.00,0.0104
2794.00,0.0101
2793.00,0.0099
2792.00,0.0096
2791.00,0.0092
2790.00,0.0089
2789.00,0.0085
2788.00,0.0082
2787.00,0.0079
2786.00,0.0076
2785.00,0.0073
2784.00,0.0071
2783.00,0.0069
2782.00,0.0067
2781.00,0.0065
2780.00,0.0063
2779.00,0.0061
2778.00,0.0060
2777.00,0.0058
2776.00,0.0057
2775.00,0.0055
2774.00,0.0054
2773.00,0.0053
2772.00,0.0053
2771.00,0.0052
2770.00,0.0052
2769.00,0.0052
2768.00,0.0051
2767.00,0.0051
2766.00,0.0050
2765.00,0.0050
2764.00,0.0049
2763.00,0.0049
2762.00,0.0049
2761.00,0.0048
2760.00,0.0048
2759.00,0.0048
2758.00,0.0048
2757.00,0.0048
2756.00,0.0048
2755.00,0.0048
2754.00,0.0047
2753.00,0.0047
2752.00,0.0047
2751.00,0.0047
2750.00,0.0047
2749.00,0.0047
2748.00,0.0047
2747.00,0.0048
2746.00,0.0048
2745.00,0.0048
2744.00,0.0048
2743.00,0.0049
2742.00,0.0050
2741.00,0.0051
2740.00,0.0053
2739.00,0.0054
2738.00,0.0055
2737.00,0.0057
2736.00,0.0058
2735.00,0.0059
2734.00,0.0060
2733.00,0.0062
2732.00,0.0064
2731.00,0.0066
2730.00,0.0068
2729.00,0.0070
2728.00,0.0072
2727.00,0.0075
2726.00,0.0078
2725.00,0.0080
2724.00,0.0081
2723.00,0.0082
2722.00,0.0081
2721.00,0.0079
2720.00,0.0077
2719.00,0.0074
2718.00,0.0071
2717.00,0.0068
2716.00,0.0065
2715.00,0.0063
2714.00,0.0060
2713.00,0.0058
2712.00,0.0056
2711.00,0.0054
2710.00,0.0053
2709.00,0.0051
2708.00,0.0050
2707.00,0.0049
2706.00,0.0048
2705.00,0.0047
2704.00,0.0046
2703.00,0.0046
2702.00,0.0045
2701.00,0.0044
2700.00,0.0043
2699.00,0.0043
2698.00,0.0042
2697.00,0.0042
2696.00,0.0042
2695.00,0.0041
2694.00,0.0041
2693.00,0.0041
2692.00,0.0042
2691.00,0.0042
2690.00,0.0042
2689.00,0.0042
2688.00,0.0042
2687.00,0.0042
2686.00,0.0042
2685.00,0.0042
2684.00,0.0042
2683.00,0.0042
2682.00,0.0042
2681.00,0.0042
2680.00,0.0043
2679.00,0.0043
2678.00,0.0043
2677.00,0.0043
2676.00,0.0043
2675.00,0.0043
2674.00,0.0042
2673.00,0.0042
2672.00,0.0042
2671.00,0.0041
2670.00,0.0041
2669.00,0.0041
2668.00,0.0041
2667.00,0.0041
2666.00,0.0042
2665.00,0.0042
2664.00,0.0043
2663.00,0.0043
2662.00,0.0044
2661.00,0.0044
2660.00,0.0044
2659.00,0.0044
2658.00,0.0044
2657.00,0.0044
2656.00,0.0044
2655.00,0.0043
2654.00,0.0043
2653.00,0.0043
2652.00,0.0042
2651.00,0.0041
2650.00,0.0041
2649.00,0.0040
2648.00,0.0040
2647.00,0.0039
2646.00,0.0039
2645.00,0.0039
2644.00,0.0039
2643.00,0.0038
2642.00,0.0038
2641.00,0.0038
2640.00,0.0038
2639.00,0.0037
2638.00,0.0037
2637.00,0.0036
2636.00,0.0035
2635.00,0.0035
2634.00,0.0034
2633.00,0.0034
2632.00,0.0034
2631.00,0.0035
2630.00,0.0035
2629.00,0.0035
2628.00,0.0036
2627.00,0.0037
2626.00,0.0037
2625.00,0.0038
2624.00,0.0038
2623.00,0.0038
2622.00,0.0037
2621.00,0.0037
2620.00,0.0037
2619.00,0.0037
2618.00,0.0037
2617.00,0.0037
2616.00,0.0038
2615.00,0.0038
2614.00,0.0037
2613.00,0.0037
2612.00,0.0036
2611.00,0.0035
2610.00,0.0034
2609.00,0.0033
2608.00,0.0033
2607.00,0.0032
2606.00,0.0031
2605.00,0.0030
2604.00,0.0030
2603.00,0.0029
2602.00,0.0029
2601.00,0.0028
2600.00,0.0028
2599.00,0.0028
2598.00,0.0028
2597.00,0.0027
2596.00,0.0027
2595.00,0.0027
2594.00,0.0027
2593.00,0.0028
2592.00,0.0028
2591.00,0.0029
2590.00,0.0030
2589.00,0.0031
2588.00,0.0032
2587.00,0.0033
2586.00,0.0034
2585.00,0.0035
2584.00,0.0036
2583.00,0.0036
2582.00,0.0036
2581.00,0.0035
2580.00,0.0034
2579.00,0.0033
2578.00,0.0032
2577.00,0.0032
2576.00,0.0031
2575.00,0.0030
2574.00,0.0029
2573.00,0.0028
2572.00,0.0027
2571.00,0.0026
2570.00,0.0025
2569.00,0.0024
2568.00,0.0023
2567.00,0.0023
2566.00,0.0023
2565.00,0.0022
2564.00,0.0022
2563.00,0.0021
2562.00,0.0020
2561.00,0.0020
2560.00,0.0020
2559.00,0.0020
2558.00,0.0020
2557.00,0.0020
2556.00,0.0019
2555.00,0.0019
2554.00,0.0018
2553.00,0.0018
2552.00,0.0018
2551.00,0.0017
2550.00,0.0017
2549.00,0.0017
2548.00,0.0017
2547.00,0.0016
2546.00,0.0016
2545.00,0.0016
2544.00,0.0016
2543.00,0.0015
2542.00,0.0014
2541.00,0.0014
2540.00,0.0013
2539.00,0.0013
2538.00,0.0013
2537.00,0.0013
2536.00,0.0013
2535.00,0.0012
2534.00,0.0012
2533.00,0.0012
2532.00,0.0012
2531.00,0.0012
2530.00,0.0012
2529.00,0.0011
2528.00,0.0011
2527.00,0.0011
2526.00,0.0011
2525.00,0.0012
2524.00,0.0012
2523.00,0.0012
2522.00,0.0011
2521.00,0.0011
2520.00,0.0011
2519.00,0.0010
2518.00,0.0010
2517.00,0.0010
2516.00,0.0009
2515.00,0.0009
2514.00,0.0009
2513.00,0.0009
2512.00,0.0009
2511.00,0.0009
2510.00,0.0008
2509.00,0.0008
2508.00,0.0008
2507.00,0.0008
2506.00,0.0008
2505.00,0.0008
2504.00,0.0008
2503.00,0.0008
2502.00,0.0009
2501.00,0.0008
2500.00,0.0008
2499.00,0.0008
2498.00,0.0008
2497.00,0.0008
2496.00,0.0008
2495.00,0.0007
2494.00,0.0007
2493.00,0.0007
2492.00,0.0007
2491.00,0.0007
2490.00,0.0008
2489.00,0.0008
2488.00,0.0008
2487.00,0.0008
2486.00,0.0008
2485.00,0.0007
2484.00,0.0007
2483.00,0.0007
2482.00,0.0008
2481.00,0.0008
2480.00,0.0008
2479.00,0.0008
2478.00,0.0008
2477.00,0.0008
2476.00,0.0007
2475.00,0.0007
2474.00,0.0007
2473.00,0.0007
2472.00,0.0007
2471.00,0.0007
2470.00,0.0007
2469.00,0.0007
2468.00,0.0007
2467.00,0.0007
2466.00,0.0007
2465.00,0.0006
2464.00,0.0006
2463.00,0.0005
2462.00,0.0005
2461.00,0.0006
2460.00,0.0007
2459.00,0.0007
2458.00,0.0008
2457.00,0.0008
2456.00,0.0007
2455.00,0.0007
2454.00,0.0007
2453.00,0.0008
2452.00,0.0009
2451.00,0.0009
2450.00,0.0009
2449.00,0.0009
2448.00,0.0009
2447.00,0.0008
2446.00,0.0008
2445.00,0.0008
2444.00,0.0007
2443.00,0.0007
2442.00,0.0007
2441.00,0.0007
2440.00,0.0008
2439.00,0.0008
2438.00,0.0008
2437.00,0.0008
2436.00,0.0008
2435.00,0.0008
2434.00,0.0009
2433.00,0.0009
2432.00,0.0009
2431.00,0.0009
2430.00,0.0009
2429.00,0.0009
2428.00,0.0009
2427.00,0.0008
2426.00,0.0008
2425.00,0.0008
2424.00,0.0008
2423.00,0.0008
2422.00,0.0008
2421.00,0.0008
2420.00,0.0008
2419.00,0.0007
2418.00,0.0007
2417.00,0.0006
2416.00,0.0006
2415.00,0.0006
2414.00,0.0006
2413.00,0.0006
2412.00,0.0007
2411.00,0.0007
2410.00,0.0007
2409.00,0.0007
2408.00,0.0007
2407.00,0.0007
2406.00,0.0007
2405.00,0.0006
2404.00,0.0006
2403.00,0.0006
2402.00,0.0006
2401.00,0.0006
2400.00,0.0005
2399.00,0.0005
2398.00,0.0005
2397.00,0.0005
2396.00,0.0006
2395.00,0.0006
2394.00,0.0006
2393.00,0.0006
2392.00,0.0005
2391.00,0.0005
2390.00,0.0005
2389.00,0.0006
2388.00,0.0006
2387.00,0.0005
2386.00,0.0005
2385.00,0.0004
2384.00,0.0003
2383.00,0.0002
2382.00,0.0001
2381.00,0.0001
2380.00,-0.0000
2379.00,-0.0000
2378.00,-0.0000
2377.00,-0.0000
2376.00,0.0000
2375.00,0.0001
2374.00,0.0000
2373.00,-0.0000
2372.00,-0.0001
2371.00,-0.0001
2370.00,-0.0002
2369.00,-0.0002
2368.00,-0.0003
2367.00,-0.0003
2366.00,-0.0004
2365.00,-0.0003
2364.00,-0.0003
2363.00,-0.0002
2362.00,-0.0002
2361.00,-0.0002
2360.00,-0.0001
2359.00,-0.0001
2358.00,0.0000
2357.00,0.0001
2356.00,0.0002
2355.00,0.0001
2354.00,0.0000
2353.00,-0.0000
2352.00,-0.0001
2351.00,-0.0001
2350.00,-0.0002
2349.00,-0.0001
2348.00,-0.0001
2347.00,-0.0001
2346.00,-0.0001
2345.00,-0.0001
2344.00,-0.0001
2343.00,-0.0001
2342.00,-0.0000
2341.00,0.0001
2340.00,0.0001
2339.00,0.0002
2338.00,0.0002
2337.00,0.0001
2336.00,0.0001
2335.00,0.0001
2334.00,0.0001
2333.00,0.0001
2332.00,0.0000
2331.00,-0.0000
2330.00,-0.0000
2329.00,0.0001
2328.00,0.0004
2327.00,0.0008
2326.00,0.0012
2325.00,0.0015
2324.00,0.0016
2323.00,0.0014
2322.00,0.0012
2321.00,0.0010
2320.00,0.0008
2319.00,0.0008
2318.00,0.0007
2317.00,0.0007
2316.00,0.0006
2315.00,0.0006
2314.00,0.0006
2313.00,0.0007
2312.00,0.0007
2311.00,0.0007
2310.00,0.0007
2309.00,0.0007
2308.00,0.0007
2307.00,0.0007
2306.00,0.0007
2305.00,0.0007
2304.00,0.0007
2303.00,0.0007
2302.00,0.0008
2301.00,0.0008
2300.00,0.0009
2299.00,0.0009
2298.00,0.0010
2297.00,0.0010
2296.00,0.0011
2295.00,0.0012
2294.00,0.0012
2293.00,0.0012
2292.00,0.0012
2291.00,0.0012
2290.00,0.0013
2289.00,0.0014
2288.00,0.0014
2287.00,0.0015
2286.00,0.0015
2285.00,0.0015
2284.00,0.0014
2283.00,0.0013
2282.00,0.0012
2281.00,0.0011
2280.00,0.0011
2279.00,0.0012
2278.00,0.0014
2277.00,0.0015
2276.00,0.0015
2275.00,0.0014
2274.00,0.0012
2273.00,0.0011
2272.00,0.0010
2271.00,0.0010
2270.00,0.0011
2269.00,0.0011
2268.00,0.0010
2267.00,0.0008
2266.00,0.0007
2265.00,0.0006
2264.00,0.0007
2263.00,0.0008
2262.00,0.0009
2261.00,0.0010
2260.00,0.0010
2259.00,0.0010
2258.00,0.0010
2257.00,0.0010
2256.00,0.0009
2255.00,0.0007
2254.00,0.0005
2253.00,0.0004
2252.00,0.0004
2251.00,0.0005
2250.00,0.0005
2249.00,0.0006
2248.00,0.0006
2247.00,0.0007
2246.00,0.0007
2245.00,0.0008
2244.00,0.0008
2243.00,0.0007
2242.00,0.0006
2241.00,0.0005
2240.00,0.0004
2239.00,0.0003
2238.00,0.0004
2237.00,0.0005
2236.00,0.0006
2235.00,0.0006
2234.00,0.0007
2233.00,0.0007
2232.00,0.0007
2231.00,0.0007
2230.00,0.0007
2229.00,0.0007
2228.00,0.0007
2227.00,0.0006
2226.00,0.0005
2225.00,0.0004
2224.00,0.0003
2223.00,0.0002
2222.00,0.0003
2221.00,0.0004
2220.00,0.0005
2219.00,0.0005
2218.00,0.0005
2217.00,0.0004
2216.00,0.0004
2215.00,0.0004
2214.00,0.0004
2213.00,0.0004
2212.00,0.0004
2211.00,0.0003
2210.00,0.0003
2209.00,0.0004
2208.00,0.0005
2207.00,0.0005
2206.00,0.0004
2205.00,0.0003
2204.00,0.0002
2203.00,0.0001
2202.00,0.0001
2201.00,0.0002
2200.00,0.0002
2199.00,0.0002
2198.00,0.0002
2197.00,0.0002
2196.00,0.0001
2195.00,0.0000
2194.00,0.0000
2193.00,0.0001
2192.00,0.0002
2191.00,0.0003
2190.00,0.0005
2189.00,0.0006
2188.00,0.0007
2187.00,0.0007
2186.00,0.0005
2185.00,0.0003
2184.00,0.0001
2183.00,-0.0002
2182.00,-0.0003
2181.00,-0.0003
2180.00,-0.0000
2179.00,0.0003
2178.00,0.0006
2177.00,0.0006
2176.00,0.0003
2175.00,-0.0001
2174.00,-0.0004
2173.00,-0.0003
2172.00,-0.0000
2171.00,0.0004
2170.00,0.0008
2169.00,0.0011
2168.00,0.0014
2167.00,0.0016
2166.00,0.0018
2165.00,0.0020
2164.00,0.0022
2163.00,0.0024
2162.00,0.0022
2161.00,0.0014
2160.00,-0.0001
2159.00,-0.0018
2158.00,-0.0030
2157.00,-0.0032
2156.00,-0.0028
2155.00,-0.0024
2154.00,-0.0022
2153.00,-0.0022
2152.00,-0.0022
2151.00,-0.0022
2150.00,-0.0021
2149.00,-0.0021
2148.00,-0.0020
2147.00,-0.0019
2146.00,-0.0017
2145.00,-0.0015
2144.00,-0.0014
2143.00,-0.0016
2142.00,-0.0016
2141.00,-0.0016
2140.00,-0.0013
2139.00,-0.0011
2138.00,-0.0011
2137.00,-0.0013
2136.00,-0.0015
2135.00,-0.0016
2134.00,-0.0017
2133.00,-0.0017
2132.00,-0.0017
2131.00,-0.0017
2130.00,-0.0016
2129.00,-0.0015
2128.00,-0.0013
2127.00,-0.0012
2126.00,-0.0010
2125.00,-0.0009
2124.00,-0.0008
2123.00,-0.0007
2122.00,-0.0007
2121.00,-0.0007
2120.00,-0.0007
2119.00,-0.0007
2118.00,-0.0007
2117.00,-0.0006
2116.00,-0.0005
2115.00,-0.0003
2114.00,-0.0003
2113.00,-0.0002
2112.00,-0.0001
2111.00,0.0000
2110.00,0.0001
2109.00,0.0000
2108.00,-0.0001
2107.00,-0.0002
2106.00,-0.0002
2105.00,-0.0001
2104.00,0.0000
2103.00,0.0002
2102.00,0.0003
2101.00,0.0004
2100.00,0.0004
2099.00,0.0003
2098.00,0.0001
2097.00,-0.0001
2096.00,-0.0003
2095.00,-0.0004
2094.00,-0.0004
2093.00,-0.0004
2092.00,-0.0003
2091.00,-0.0002
2090.00,-0.0001
2089.00,-0.0000
2088.00,0.0001
2087.00,0.0001
2086.00,0.0000
2085.00,-0.0001
2084.00,-0.0002
2083.00,-0.0002
2082.00,-0.0002
2081.00,-0.0001
2080.00,-0.0001
2079.00,-0.0001
2078.00,-0.0001
2077.00,-0.0001
2076.00,-0.0000
2075.00,0.0000
2074.00,0.0000
2073.00,-0.0001
2072.00,-0.0002
2071.00,-0.0003
2070.00,-0.0003
2069.00,-0.0003
2068.00,-0.0003
2067.00,-0.0002
2066.00,-0.0002
2065.00,-0.0002
2064.00,-0.0002
2063.00,-0.0002
2062.00,-0.0004
2061.00,-0.0004
2060.00,-0.0005
2059.00,-0.0004
2058.00,-0.0003
2057.00,-0.0001
2056.00,0.0001
2055.00,0.0002
2054.00,0.0004
2053.00,0.0008
2052.00,0.0013
2051.00,0.0016
2050.00,0.0015
2049.00,0.0011
2048.00,0.0006
2047.00,0.0001
2046.00,-0.0002
2045.00,-0.0001
2044.00,-0.0000
2043.00,0.0000
2042.00,-0.0001
2041.00,-0.0002
2040.00,-0.0002
2039.00,-0.0002
2038.00,-0.0002
2037.00,-0.0003
2036.00,-0.0006
2035.00,-0.0009
2034.00,-0.0012
2033.00,-0.0013
2032.00,-0.0014
2031.00,-0.0016
2030.00,-0.0018
2029.00,-0.0019
2028.00,-0.0018
2027.00,-0.0015
2026.00,-0.0011
2025.00,-0.0009
2024.00,-0.0008
2023.00,-0.0011
2022.00,-0.0014
2021.00,-0.0018
2020.00,-0.0020
2019.00,-0.0020
2018.00,-0.0019
2017.00,-0.0017
2016.00,-0.0016
2015.00,-0.0015
2014.00,-0.0015
2013.00,-0.0014
2012.00,-0.0012
2011.00,-0.0011
2010.00,-0.0013
2009.00,-0.0016
2008.00,-0.0020
2007.00,-0.0024
2006.00,-0.0025
2005.00,-0.0026
2004.00,-0.0025
2003.00,-0.0025
2002.00,-0.0024
2001.00,-0.0020
2000.00,-0.0017
1999.00,-0.0014
1998.00,-0.0014
1997.00,-0.0014
1996.00,-0.0014
1995.00,-0.0014
1994.00,-0.0014
1993.00,-0.0014
1992.00,-0.0013
1991.00,-0.0013
1990.00,-0.0013
1989.00,-0.0014
1988.00,-0.0014
1987.00,-0.0012
1986.00,-0.0010
1985.00,-0.0008
1984.00,-0.0005
1983.00,-0.0002
1982.00,0.0002
1981.00,0.0005
1980.00,0.0006
1979.00,0.0002
1978.00,-0.0005
1977.00,-0.0012
1976.00,-0.0016
1975.00,-0.0017
1974.00,-0.0016
1973.00,-0.0014
1972.00,-0.0013
1971.00,-0.0013
1970.00,-0.0014
1969.00,-0.0014
1968.00,-0.0012
1967.00,-0.0011
1966.00,-0.0011
1965.00,-0.0012
1964.00,-0.0014
1963.00,-0.0016
1962.00,-0.0019
1961.00,-0.0020
1960.00,-0.0021
1959.00,-0.0020
1958.00,-0.0020
1957.00,-0.0020
1956.00,-0.0019
1955.00,-0.0019
1954.00,-0.0019
1953.00,-0.0019
1952.00,-0.0018
1951.00,-0.0016
1950.00,-0.0015
1949.00,-0.0013
1948.00,-0.0012
1947.00,-0.0013
1946.00,-0.0015
1945.00,-0.0018
1944.00,-0.0019
1943.00,-0.0020
1942.00,-0.0019
1941.00,-0.0017
1940.00,-0.0014
1939.00,-0.0012
1938.00,-0.0011
1937.00,-0.0011
1936.00,-0.0013
1935.00,-0.0014
1934.00,-0.0015
1933.00,-0.0015
1932.00,-0.0015
1931.00,-0.0015
1930.00,-0.0013
1929.00,-0.0011
1928.00,-0.0009
1927.00,-0.0009
1926.00,-0.0009
1925.00,-0.0009
1924.00,-0.0010
1923.00,-0.0010
1922.00,-0.0009
1921.00,-0.0007
1920.00,-0.0005
1919.00,-0.0004
1918.00,-0.0004
1917.00,-0.0004
1916.00,-0.0004
1915.00,-0.0005
1914.00,-0.0005
1913.00,-0.0006
1912.00,-0.0006
1911.00,-0.0006
1910.00,-0.0006
1909.00,-0.0005
1908.00,-0.0005
1907.00,-0.0005
1906.00,-0.0006
1905.00,-0.0005
1904.00,-0.0005
1903.00,-0.0004
1902.00,-0.0004
1901.00,-0.0004
1900.00,-0.0005
1899.00,-0.0005
1898.00,-0.0005
1897.00,-0.0005
1896.00,-0.0005
1895.00,-0.0005
1894.00,-0.0004
1893.00,-0.0003
1892.00,-0.0002
1891.00,-0.0001
1890.00,-0.0001
1889.00,-0.0002
1888.00,-0.0003
1887.00,-0.0004
1886.00,-0.0005
1885.00,-0.0006
1884.00,-0.0006
1883.00,-0.0005
1882.00,-0.0005
1881.00,-0.0005
1880.00,-0.0005
1879.00,-0.0005
1878.00,-0.0005
1877.00,-0.0005
1876.00,-0.0005
1875.00,-0.0004
1874.00,-0.0004
1873.00,-0.0004
1872.00,-0.0004
1871.00,-0.0004
1870.00,-0.0004
1869.00,-0.0005
1868.00,-0.0005
1867.00,-0.0005
1866.00,-0.0005
1865.00,-0.0004
1864.00,-0.0003
1863.00,-0.0003
1862.00,-0.0003
1861.00,-0.0002
1860.00,-0.0002
1859.00,-0.0001
1858.00,-0.0001
1857.00,-0.0001
1856.00,-0.0001
1855.00,-0.0001
1854.00,-0.0000
1853.00,0.0000
1852.00,0.0000
1851.00,-0.0000
1850.00,-0.0001
1849.00,-0.0001
1848.00,-0.0000
1847.00,-0.0000
1846.00,0.0000
1845.00,0.0001
1844.00,0.0001
1843.00,0.0002
1842.00,0.0002
1841.00,0.0001
1840.00,0.0001
1839.00,0.0001
1838.00,0.0000
1837.00,0.0000
1836.00,0.0000
1835.00,0.0000
1834.00,0.0000
1833.00,0.0000
1832.00,0.0001
1831.00,0.0001
1830.00,0.0001
1829.00,0.0001
1828.00,0.0001
1827.00,0.0001
1826.00,0.0001
1825.00,0.0001
1824.00,0.0002
1823.00,0.0002
1822.00,0.0001
1821.00,0.0001
1820.00,0.0000
1819.00,-0.0001
1818.00,-0.0001
1817.00,-0.0002
1816.00,-0.0002
1815.00,-0.0001
1814.00,-0.0001
1813.00,-0.0000
1812.00,-0.0000
1811.00,0.0000
1810.00,0.0000
1809.00,0.0001
1808.00,0.0001
1807.00,0.0002
1806.00,0.0002
1805.00,0.0001
1804.00,0.0001
1803.00,0.0001
1802.00,0.0001
1801.00,0.0002
1800.00,0.0003
1799.00,0.0004
1798.00,0.0005
1797.00,0.0005
1796.00,0.0004
1795.00,0.0004
1794.00,0.0003
1793.00,0.0003
1792.00,0.0004
1791.00,0.0006
1790.00,0.0006
1789.00,0.0006
1788.00,0.0005
1787.00,0.0005
1786.00,0.0004
1785.00,0.0005
1784.00,0.0005
1783.00,0.0005
1782.00,0.0005
1781.00,0.0005
1780.00,0.0005
1779.00,0.0005
1778.00,0.0005
1777.00,0.0005
1776.00,0.0005
1775.00,0.0005
1774.00,0.0006
1773.00,0.0007
1772.00,0.0007
1771.00,0.0008
1770.00,0.0008
1769.00,0.0008
1768.00,0.0008
1767.00,0.0008
1766.00,0.0008
1765.00,0.0009
1764.00,0.0009
1763.00,0.0009
1762.00,0.0010
1761.00,0.0010
1760.00,0.0010
1759.00,0.0010
1758.00,0.0010
1757.00,0.0010
1756.00,0.0010
1755.00,0.0010
1754.00,0.0011
1753.00,0.0012
1752.00,0.0012
1751.00,0.0012
1750.00,0.0012
1749.00,0.0013
1748.00,0.0014
1747.00,0.0015
1746.00,0.0016
1745.00,0.0017
1744.00,0.0018
1743.00,0.0019
1742.00,0.0019
1741.00,0.0020
1740.00,0.0020
1739.00,0.0020
1738.00,0.0021
1737.00,0.0021
1736.00,0.0021
1735.00,0.0021
1734.00,0.0021
1733.00,0.0021
1732.00,0.0021
1731.00,0.0021
1730.00,0.0022
1729.00,0.0022
1728.00,0.0022
1727.00,0.0022
1726.00,0.0023
1725.00,0.0023
1724.00,0.0023
1723.00,0.0023
1722.00,0.0023
1721.00,0.0023
1720.00,0.0024
1719.00,0.0024
1718.00,0.0023
1717.00,0.0022
1716.00,0.0021
1715.00,0.0020
1714.00,0.0019
1713.00,0.0020
1712.00,0.0020
1711.00,0.0020
1710.00,0.0020
1709.00,0.0020
1708.00,0.0020
1707.00,0.0021
1706.00,0.0021
1705.00,0.0021
1704.00,0.0021
1703.00,0.0021
1702.00,0.0020
1701.00,0.0020
1700.00,0.0020
1699.00,0.0020
1698.00,0.0021
1697.00,0.0021
1696.00,0.0022
1695.00,0.0022
1694.00,0.0023
1693.00,0.0023
1692.00,0.0023
1691.00,0.0024
1690.00,0.0024
1689.00,0.0025
1688.00,0.0025
1687.00,0.0025
1686.00,0.0025
1685.00,0.0025
1684.00,0.0026
1683.00,0.0027
1682.00,0.0028
1681.00,0.0028
1680.00,0.0028
1679.00,0.0028
1678.00,0.0028
1677.00,0.0029
1676.00,0.0029
1675.00,0.0029
1674.00,0.0029
1673.00,0.0030
1672.00,0.0030
1671.00,0.0031
1670.00,0.0031
1669.00,0.0032
1668.00,0.0032
1667.00,0.0032
1666.00,0.0033
1665.00,0.0033
1664.00,0.0033
1663.00,0.0034
1662.00,0.0034
1661.00,0.0034
1660.00,0.0034
1659.00,0.0035
1658.00,0.0035
1657.00,0.0035
1656.00,0.0035
1655.00,0.0035
1654.00,0.0036
1653.00,0.0037
1652.00,0.0038
1651.00,0.0038
1650.00,0.0038
1649.00,0.0038
1648.00,0.0039
1647.00,0.0039
1646.00,0.0041
1645.00,0.0042
1644.00,0.0042
1643.00,0.0042
1642.00,0.0042
1641.00,0.0043
1640.00,0.0043
1639.00,0.0044
1638.00,0.0044
1637.00,0.0045
1636.00,0.0046
1635.00,0.0046
1634.00,0.0045
1633.00,0.0045
1632.00,0.0044
1631.00,0.0043
1630.00,0.0042
1629.00,0.0042
1628.00,0.0042
1627.00,0.0041
1626.00,0.0041
1625.00,0.0041
1624.00,0.0041
1623.00,0.0041
1622.00,0.0040
1621.00,0.0039
1620.00,0.0039
1619.00,0.0039
1618.00,0.0039
1617.00,0.0039
1616.00,0.0039
1615.00,0.0039
1614.00,0.0039
1613.00,0.0039
1612.00,0.0038
1611.00,0.0038
1610.00,0.0038
1609.00,0.0038
1608.00,0.0038
1607.00,0.0038
1606.00,0.0038
1605.00,0.0038
1604.00,0.0038
1603.00,0.0038
1602.00,0.0038
1601.00,0.0038
1600.00,0.0038
1599.00,0.0038
1598.00,0.0038
1597.00,0.0037
1596.00,0.0037
1595.00,0.0037
1594.00,0.0036
1593.00,0.0036
1592.00,0.0036
1591.00,0.0036
1590.00,0.0035
1589.00,0.0035
1588.00,0.0035
1587.00,0.0034
1586.00,0.0034
1585.00,0.0033
1584.00,0.0033
1583.00,0.0032
1582.00,0.0031
1581.00,0.0031
1580.00,0.0031
1579.00,0.0030
1578.00,0.0030
1577.00,0.0031
1576.00,0.0032
1575.00,0.0032
1574.00,0.0033
1573.00,0.0034
1572.00,0.0035
1571.00,0.0036
1570.00,0.0037
1569.00,0.0038
1568.00,0.0039
1567.00,0.0040
1566.00,0.0040
1565.00,0.0040
1564.00,0.0041
1563.00,0.0041
1562.00,0.0042
1561.00,0.0043
1560.00,0.0043
1559.00,0.0043
1558.00,0.0043
1557.00,0.0043
1556.00,0.0044
1555.00,0.0044
1554.00,0.0044
1553.00,0.0045
1552.00,0.0045
1551.00,0.0045
1550.00,0.0045
1549.00,0.0045
1548.00,0.0045
1547.00,0.0044
1546.00,0.0043
1545.00,0.0042
1544.00,0.0040
1543.00,0.0038
1542.00,0.0037
1541.00,0.0036
1540.00,0.0035
1539.00,0.0035
1538.00,0.0036
1537.00,0.0037
1536.00,0.0038
1535.00,0.0039
1534.00,0.0040
1533.00,0.0040
1532.00,0.0041
1531.00,0.0041
1530.00,0.0041
1529.00,0.0041
1528.00,0.0042
1527.00,0.0042
1526.00,0.0042
1525.00,0.0043
1524.00,0.0044
1523.00,0.0044
1522.00,0.0045
1521.00,0.0046
1520.00,0.0047
1519.00,0.0047
1518.00,0.0047
1517.00,0.0048
1516.00,0.0049
1515.00,0.0049
1514.00,0.0049
1513.00,0.0050
1512.00,0.0051
1511.00,0.0052
1510.00,0.0053
1509.00,0.0054
1508.00,0.0055
1507.00,0.0056
1506.00,0.0056
1505.00,0.0058
1504.00,0.0060
1503.00,0.0062
1502.00,0.0064
1501.00,0.0066
1500.00,0.0069
1499.00,0.0071
1498.00,0.0073
1497.00,0.0076
1496.00,0.0079
1495.00,0.0081
1494.00,0.0083
1493.00,0.0087
1492.00,0.0090
1491.00,0.0093
1490.00,0.0097
1489.00,0.0102
1488.00,0.0107
1487.00,0.0112
1486.00,0.0116
1485.00,0.0122
1484.00,0.0129
1483.00,0.0135
1482.00,0.0143
1481.00,0.0152
1480.00,0.0163
1479.00,0.0175
1478.00,0.0190
1477.00,0.0210
1476.00,0.0235
1475.00,0.0264
1474.00,0.0302
1473.00,0.0358
1472.00,0.0423
1471.00,0.0487
1470.00,0.0549
1469.00,0.0614
1468.00,0.0684
1467.00,0.0759
1466.00,0.0844
1465.00,0.0934
1464.00,0.1014
1463.00,0.1070
1462.00,0.1108
1461.00,0.1135
1460.00,0.1155
1459.00,0.1170
1458.00,0.1184
1457.00,0.1196
1456.00,0.1200
1455.00,0.1196
1454.00,0.1189
1453.00,0.1176
1452.00,0.1154
1451.00,0.1121
1450.00,0.1073
1449.00,0.1005
1448.00,0.0917
1447.00,0.0822
1446.00,0.0735
1445.00,0.0658
1444.00,0.0592
1443.00,0.0537
1442.00,0.0494
1441.00,0.0464
1440.00,0.0445
1439.00,0.0434
1438.00,0.0430
1437.00,0.0426
1436.00,0.0412
1435.00,0.0387
1434.00,0.0352
1433.00,0.0312
1432.00,0.0271
1431.00,0.0234
1430.00,0.0205
1429.00,0.0183
1428.00,0.0167
1427.00,0.0157
1426.00,0.0150
1425.00,0.0144
1424.00,0.0138
1423.00,0.0134
1422.00,0.0132
1421.00,0.0129
1420.00,0.0126
1419.00,0.0124
1418.00,0.0122
1417.00,0.0119
1416.00,0.0116
1415.00,0.0115
1414.00,0.0114
1413.00,0.0112
1412.00,0.0110
1411.00,0.0109
1410.00,0.0108
1409.00,0.0107
1408.00,0.0106
1407.00,0.0107
1406.00,0.0107
1405.00,0.0107
1404.00,0.0107
1403.00,0.0108
1402.00,0.0109
1401.00,0.0110
1400.00,0.0111
1399.00,0.0113
1398.00,0.0115
1397.00,0.0117
1396.00,0.0118
1395.00,0.0122
1394.00,0.0127
1393.00,0.0131
1392.00,0.0136
1391.00,0.0144
1390.00,0.0154
1389.00,0.0169
1388.00,0.0190
1387.00,0.0221
1386.00,0.0264
1385.00,0.0320
1384.00,0.0397
1383.00,0.0504
1382.00,0.0647
1381.00,0.0829
1380.00,0.1047
1379.00,0.1288
1378.00,0.1513
1377.00,0.1669
1376.00,0.1710
1375.00,0.1613
1374.00,0.1408
1373.00,0.1166
1372.00,0.0946
1371.00,0.0764
1370.00,0.0619
1369.00,0.0509
1368.00,0.0432
1367.00,0.0385
1366.00,0.0358
1365.00,0.0347
1364.00,0.0348
1363.00,0.0359
1362.00,0.0377
1361.00,0.0395
1360.00,0.0409
1359.00,0.0413
1358.00,0.0403
1357.00,0.0381
1356.00,0.0349
1355.00,0.0314
1354.00,0.0279
1353.00,0.0249
1352.00,0.0224
1351.00,0.0204
1350.00,0.0187
1349.00,0.0173
1348.00,0.0162
1347.00,0.0152
1346.00,0.0144
1345.00,0.0137
1344.00,0.0132
1343.00,0.0127
1342.00,0.0123
1341.00,0.0119
1340.00,0.0116
1339.00,0.0114
1338.00,0.0113
1337.00,0.0113
1336.00,0.0114
1335.00,0.0115
1334.00,0.0118
1333.00,0.0122
1332.00,0.0125
1331.00,0.0128
1330.00,0.0129
1329.00,0.0128
1328.00,0.0125
1327.00,0.0121
1326.00,0.0116
1325.00,0.0111
1324.00,0.0106
1323.00,0.0101
1322.00,0.0097
1321.00,0.0094
1320.00,0.0091
1319.00,0.0089
1318.00,0.0088
1317.00,0.0087
1316.00,0.0086
1315.00,0.0086
1314.00,0.0087
1313.00,0.0087
1312.00,0.0089
1311.00,0.0091
1310.00,0.0095
1309.00,0.0103
1308.00,0.0115
1307.00,0.0129
1306.00,0.0142
1305.00,0.0152
1304.00,0.0154
1303.00,0.0150
1302.00,0.0142
1301.00,0.0135
1300.00,0.0129
1299.00,0.0127
1298.00,0.0125
1297.00,0.0124
1296.00,0.0123
1295.00,0.0121
1294.00,0.0117
1293.00,0.0112
1292.00,0.0107
1291.00,0.0102
1290.00,0.0097
1289.00,0.0094
1288.00,0.0092
1287.00,0.0090
1286.00,0.0088
1285.00,0.0086
1284.00,0.0085
1283.00,0.0083
1282.00,0.0082
1281.00,0.0081
1280.00,0.0080
1279.00,0.0079
1278.00,0.0078
1277.00,0.0077
1276.00,0.0077
1275.00,0.0076
1274.00,0.0077
1273.00,0.0078
1272.00,0.0079
1271.00,0.0080
1270.00,0.0080
1269.00,0.0081
1268.00,0.0082
1267.00,0.0084
1266.00,0.0086
1265.00,0.0088
1264.00,0.0090
1263.00,0.0093
1262.00,0.0096
1261.00,0.0101
1260.00,0.0108
1259.00,0.0116
1258.00,0.0126
1257.00,0.0134
1256.00,0.0138
1255.00,0.0136
1254.00,0.0129
1253.00,0.0119
1252.00,0.0108
1251.00,0.0099
1250.00,0.0092
1249.00,0.0086
1248.00,0.0082
1247.00,0.0078
1246.00,0.0075
1245.00,0.0073
1244.00,0.0072
1243.00,0.0070
1242.00,0.0069
1241.00,0.0068
1240.00,0.0067
1239.00,0.0066
1238.00,0.0065
1237.00,0.0064
1236.00,0.0063
1235.00,0.0063
1234.00,0.0063
1233.00,0.0063
1232.00,0.0063
1231.00,0.0064
1230.00,0.0064
1229.00,0.0066
1228.00,0.0067
1227.00,0.0069
1226.00,0.0071
1225.00,0.0072
1224.00,0.0074
1223.00,0.0077
1222.00,0.0079
1221.00,0.0081
1220.00,0.0083
1219.00,0.0084
1218.00,0.0084
1217.00,0.0082
1216.00,0.0080
1215.00,0.0077
1214.00,0.0075
1213.00,0.0072
1212.00,0.0070
1211.00,0.0069
1210.00,0.0068
1209.00,0.0067
1208.00,0.0066
1207.00,0.0065
1206.00,0.0064
1205.00,0.0064
1204.00,0.0063
1203.00,0.0062
1202.00,0.0062
1201.00,0.0062
1200.00,0.0062
1199.00,0.0062
1198.00,0.0062
1197.00,0.0063
1196.00,0.0063
1195.00,0.0063
1194.00,0.0063
1193.00,0.0063
1192.00,0.0063
1191.00,0.0063
1190.00,0.0063
1189.00,0.0063
1188.00,0.0063
1187.00,0.0063
1186.00,0.0064
1185.00,0.0066
1184.00,0.0067
1183.00,0.0070
1182.00,0.0072
1181.00,0.0076
1180.00,0.0081
1179.00,0.0087
1178.00,0.0094
1177.00,0.0105
1176.00,0.0119
1175.00,0.0138
1174.00,0.0163
1173.00,0.0193
1172.00,0.0230
1171.00,0.0270
1170.00,0.0309
1169.00,0.0341
1168.00,0.0360
1167.00,0.0363
1166.00,0.0352
1165.00,0.0332
1164.00,0.0309
1163.00,0.0286
1162.00,0.0266
1161.00,0.0250
1160.00,0.0237
1159.00,0.0227
1158.00,0.0219
1157.00,0.0213
1156.00,0.0209
1155.00,0.0206
1154.00,0.0203
1153.00,0.0199
1152.00,0.0194
1151.00,0.0187
1150.00,0.0178
1149.00,0.0168
1148.00,0.0158
1147.00,0.0149
1146.00,0.0140
1145.00,0.0132
1144.00,0.0124
1143.00,0.0117
1142.00,0.0110
1141.00,0.0104
1140.00,0.0099
1139.00,0.0094
1138.00,0.0089
1137.00,0.0086
1136.00,0.0083
1135.00,0.0080
1134.00,0.0078
1133.00,0.0076
1132.00,0.0074
1131.00,0.0073
1130.00,0.0073
1129.00,0.0073
1128.00,0.0074
1127.00,0.0075
1126.00,0.0076
1125.00,0.0077
1124.00,0.0077
1123.00,0.0077
1122.00,0.0077
1121.00,0.0077
1120.00,0.0077
1119.00,0.0078
1118.00,0.0079
1117.00,0.0081
1116.00,0.0082
1115.00,0.0082
1114.00,0.0082
1113.00,0.0083
1112.00,0.0084
1111.00,0.0087
1110.00,0.0090
1109.00,0.0094
1108.00,0.0099
1107.00,0.0105
1106.00,0.0110
1105.00,0.0116
1104.00,0.0120
1103.00,0.0122
1102.00,0.0121
1101.00,0.0118
1100.00,0.0113
1099.00,0.0108
1098.00,0.0102
1097.00,0.0097
1096.00,0.0093
1095.00,0.0090
1094.00,0.0088
1093.00,0.0086
1092.00,0.0084
1091.00,0.0083
1090.00,0.0082
1089.00,0.0081
1088.00,0.0080
1087.00,0.0079
1086.00,0.0078
1085.00,0.0077
1084.00,0.0077
1083.00,0.0077
1082.00,0.0078
1081.00,0.0078
1080.00,0.0078
1079.00,0.0077
1078.00,0.0077
1077.00,0.0076
1076.00,0.0076
1075.00,0.0075
1074.00,0.0075
1073.00,0.0075
1072.00,0.0075
1071.00,0.0075
1070.00,0.0076
1069.00,0.0075
1068.00,0.0075
1067.00,0.0075
1066.00,0.0075
1065.00,0.0075
1064.00,0.0076
1063.00,0.0076
1062.00,0.0076
1061.00,0.0076
1060.00,0.0077
1059.00,0.0079
1058.00,0.0080
1057.00,0.0081
1056.00,0.0082
1055.00,0.0085
1054.00,0.0088
1053.00,0.0092
1052.00,0.0096
1051.00,0.0100
1050.00,0.0104
1049.00,0.0109
1048.00,0.0115
1047.00,0.0119
1046.00,0.0124
1045.00,0.0126
1044.00,0.0127
1043.00,0.0126
1042.00,0.0123
1041.00,0.0120
1040.00,0.0118
1039.00,0.0117
1038.00,0.0116
1037.00,0.0115
1036.00,0.0114
1035.00,0.0112
1034.00,0.0110
1033.00,0.0109
1032.00,0.0109
1031.00,0.0109
1030.00,0.0109
1029.00,0.0108
1028.00,0.0109
1027.00,0.0111
1026.00,0.0113
1025.00,0.0115
1024.00,0.0118
1023.00,0.0121
1022.00,0.0123
1021.00,0.0125
1020.00,0.0126
1019.00,0.0127
1018.00,0.0129
1017.00,0.0130
1016.00,0.0131
1015.00,0.0131
1014.00,0.0132
1013.00,0.0132
1012.00,0.0132
1011.00,0.0133
1010.00,0.0134
1009.00,0.0137
1008.00,0.0141
1007.00,0.0148
1006.00,0.0158
1005.00,0.0172
1004.00,0.0192
1003.00,0.0220
1002.00,0.0258
1001.00,0.0305
1000.00,0.0357
999.00,0.0401
998.00,0.0424
997.00,0.0418
996.00,0.0386
995.00,0.0337
994.00,0.0285
993.00,0.0240
992.00,0.0204
991.00,0.0177
990.00,0.0157
989.00,0.0145
988.00,0.0137
987.00,0.0132
986.00,0.0131
985.00,0.0132
984.00,0.0136
983.00,0.0144
982.00,0.0155
981.00,0.0171
980.00,0.0195
979.00,0.0227
978.00,0.0268
977.00,0.0317
976.00,0.0372
975.00,0.0425
974.00,0.0467
973.00,0.0485
972.00,0.0471
971.00,0.0428
970.00,0.0366
969.00,0.0302
968.00,0.0246
967.00,0.0204
966.00,0.0173
965.00,0.0151
964.00,0.0135
963.00,0.0124
962.00,0.0115
961.00,0.0108
960.00,0.0103
959.00,0.0099
958.00,0.0096
957.00,0.0093
956.00,0.0090
955.00,0.0087
954.00,0.0085
953.00,0.0083
952.00,0.0081
951.00,0.0079
950.00,0.0079
949.00,0.0079
948.00,0.0079
947.00,0.0079
946.00,0.0080
945.00,0.0083
944.00,0.0086
943.00,0.0089
942.00,0.0092
941.00,0.0093
940.00,0.0092
939.00,0.0089
938.00,0.0084
937.00,0.0079
936.00,0.0076
935.00,0.0073
934.00,0.0071
933.00,0.0068
932.00,0.0066
931.00,0.0064
930.00,0.0063
929.00,0.0063
928.00,0.0063
927.00,0.0062
926.00,0.0062
925.00,0.0062
924.00,0.0063
923.00,0.0063
922.00,0.0063
921.00,0.0062
920.00,0.0061
919.00,0.0061
918.00,0.0062
917.00,0.0063
916.00,0.0064
915.00,0.0064
914.00,0.0065
913.00,0.0066
912.00,0.0067
911.00,0.0068
910.00,0.0069
909.00,0.0071
908.00,0.0073
907.00,0.0077
906.00,0.0083
905.00,0.0092
904.00,0.0104
903.00,0.0120
902.00,0.0138
901.00,0.0153
900.00,0.0163
899.00,0.0165
898.00,0.0158
897.00,0.0145
896.00,0.0129
895.00,0.0113
894.00,0.0100
893.00,0.0091
892.00,0.0084
891.00,0.0079
890.00,0.0076
889.00,0.0075
888.00,0.0074
887.00,0.0074
886.00,0.0073
885.00,0.0072
884.00,0.0072
883.00,0.0072
882.00,0.0072
881.00,0.0072
880.00,0.0072
879.00,0.0073
878.00,0.0075
877.00,0.0077
876.00,0.0079
875.00,0.0081
874.00,0.0082
873.00,0.0083
872.00,0.0082
871.00,0.0080
870.00,0.0078
869.00,0.0077
868.00,0.0077
867.00,0.0077
866.00,0.0077
865.00,0.0078
864.00,0.0079
863.00,0.0080
862.00,0.0082
861.00,0.0083
860.00,0.0083
859.00,0.0084
858.00,0.0086
857.00,0.0088
856.00,0.0090
855.00,0.0092
854.00,0.0094
853.00,0.0096
852.00,0.0099
851.00,0.0104
850.00,0.0110
849.00,0.0118
848.00,0.0128
847.00,0.0143
846.00,0.0167
845.00,0.0207
844.00,0.0264
843.00,0.0334
842.00,0.0393
841.00,0.0416
840.00,0.0390
839.00,0.0329
838.00,0.0260
837.00,0.0204
836.00,0.0168
835.00,0.0147
834.00,0.0134
833.00,0.0125
832.00,0.0119
831.00,0.0114
830.00,0.0110
829.00,0.0108
828.00,0.0104
827.00,0.0099
826.00,0.0094
825.00,0.0092
824.00,0.0091
823.00,0.0091
822.00,0.0093
821.00,0.0095
820.00,0.0098
819.00,0.0102
818.00,0.0106
817.00,0.0111
816.00,0.0117
815.00,0.0126
814.00,0.0137
813.00,0.0151
812.00,0.0168
811.00,0.0184
810.00,0.0196
809.00,0.0201
808.00,0.0198
807.00,0.0188
806.00,0.0174
805.00,0.0158
804.00,0.0144
803.00,0.0132
802.00,0.0122
801.00,0.0116
800.00,0.0110
799.00,0.0107
798.00,0.0103
797.00,0.0100
796.00,0.0096
795.00,0.0094
794.00,0.0092
793.00,0.0090
792.00,0.0087
791.00,0.0084
790.00,0.0081
789.00,0.0079
788.00,0.0076
787.00,0.0073
786.00,0.0069
785.00,0.0067
784.00,0.0066
783.00,0.0066
782.00,0.0064
781.00,0.0062
780.00,0.0061
779.00,0.0061
778.00,0.0061
777.00,0.0062
776.00,0.0062
775.00,0.0063
774.00,0.0062
773.00,0.0062
772.00,0.0061
771.00,0.0061
770.00,0.0060
769.00,0.0061
768.00,0.0061
767.00,0.0062
766.00,0.0062
765.00,0.0062
764.00,0.0063
763.00,0.0063
762.00,0.0063
761.00,0.0063
760.00,0.0062
759.00,0.0062
758.00,0.0061
757.00,0.0062
756.00,0.0063
755.00,0.0065
754.00,0.0066
753.00,0.0067
752.00,0.0068
751.00,0.0069
750.00,0.0070
749.00,0.0072
748.00,0.0073
747.00,0.0075
746.00,0.0077
745.00,0.0078
744.00,0.0080
743.00,0.0082
742.00,0.0086
741.00,0.0091
740.00,0.0096
739.00,0.0100
738.00,0.0102
737.00,0.0105
736.00,0.0107
735.00,0.0111
734.00,0.0117
733.00,0.0123
732.00,0.0131
731.00,0.0137
730.00,0.0141
729.00,0.0142
728.00,0.0141
727.00,0.0141
726.00,0.0143
725.00,0.0147
724.00,0.0150
723.00,0.0155
722.00,0.0160
721.00,0.0164
720.00,0.0163
719.00,0.0156
718.00,0.0147
717.00,0.0137
716.00,0.0128
715.00,0.0121
714.00,0.0116
713.00,0.0112
712.00,0.0108
711.00,0.0105
710.00,0.0102
709.00,0.0100
708.00,0.0098
707.00,0.0097
706.00,0.0096
705.00,0.0094
704.00,0.0092
703.00,0.0091
702.00,0.0090
701.00,0.0088
700.00,0.0086
699.00,0.0083
698.00,0.0083
697.00,0.0083
696.00,0.0084
695.00,0.0083
694.00,0.0084
693.00,0.0086
692.00,0.0089
691.00,0.0090
690.00,0.0090
689.00,0.0087
688.00,0.0085
687.00,0.0084
686.00,0.0083
685.00,0.0084
684.00,0.0084
683.00,0.0084
682.00,0.0083
681.00,0.0080
680.00,0.0078
679.00,0.0077
678.00,0.0078
677.00,0.0079
676.00,0.0081
675.00,0.0085
674.00,0.0090
673.00,0.0093
672.00,0.0094
671.00,0.0093
670.00,0.0092
669.00,0.0090
668.00,0.0088
667.00,0.0087
666.00,0.0086
665.00,0.0086
664.00,0.0086
663.00,0.0085
662.00,0.0085
661.00,0.0084
660.00,0.0083
659.00,0.0082
658.00,0.0082
657.00,0.0081
656.00,0.0081
655.00,0.0079
654.00,0.0078
653.00,0.0078
652.00,0.0077
651.00,0.0077
650.00,0.0077
649.00,0.0076
648.00,0.0076
647.00,0.0077
646.00,0.0079
645.00,0.0080
644.00,0.0079
643.00,0.0077
642.00,0.0075
641.00,0.0073
640.00,0.0073
639.00,0.0074
638.00,0.0075
637.00,0.0077
636.00,0.0077
635.00,0.0077
634.00,0.0076
633.00,0.0076
632.00,0.0076
631.00,0.0076
630.00,0.0075
629.00,0.0074
628.00,0.0073
627.00,0.0073
626.00,0.0074
625.00,0.0077
624.00,0.0080
623.00,0.0082
622.00,0.0082
621.00,0.0082
620.00,0.0081
619.00,0.0081
618.00,0.0082
617.00,0.0081
616.00,0.0078
615.00,0.0075
614.00,0.0074
613.00,0.0076
612.00,0.0079
611.00,0.0081
610.00,0.0082
609.00,0.0083
608.00,0.0083
607.00,0.0082
606.00,0.0082
605.00,0.0083
604.00,0.0083
603.00,0.0083
602.00,0.0083
601.00,0.0082
600.00,0.0082
599.00,0.0082
598.00,0.0080
597.00,0.0078
596.00,0.0077
595.00,0.0077
594.00,0.0077
593.00,0.0075
592.00,0.0073
591.00,0.0071
590.00,0.0072
589.00,0.0074
588.00,0.0076
587.00,0.0077
586.00,0.0076
585.00,0.0073
584.00,0.0072
583.00,0.0073
582.00,0.0077
581.00,0.0083
580.00,0.0085
579.00,0.0084
578.00,0.0083
577.00,0.0081
576.00,0.0081
575.00,0.0080
574.00,0.0077
573.00,0.0075
572.00,0.0076
571.00,0.0078
570.00,0.0081
569.00,0.0082
568.00,0.0082
567.00,0.0082
566.00,0.0083
565.00,0.0086
564.00,0.0088
563.00,0.0088
562.00,0.0085
561.00,0.0081
560.00,0.0079
559.00,0.0078
558.00,0.0078
557.00,0.0077
556.00,0.0077
555.00,0.0078
554.00,0.0079
553.00,0.0079
552.00,0.0080
551.00,0.0082
550.00,0.0086
549.00,0.0090
548.00,0.0093
547.00,0.0095
546.00,0.0095
545.00,0.0094
544.00,0.0091
543.00,0.0090
542.00,0.0090
541.00,0.0091
540.00,0.0095
539.00,0.0099
538.00,0.0104
537.00,0.0109
536.00,0.0113
535.00,0.0116
534.00,0.0118
533.00,0.0120
532.00,0.0120
531.00,0.0118
530.00,0.0116
529.00,0.0115
528.00,0.0114
527.00,0.0114
526.00,0.0113
525.00,0.0110
524.00,0.0107
523.00,0.0102
522.00,0.0097
521.00,0.0090
520.00,0.0084
519.00,0.0080
518.00,0.0080
517.00,0.0083
516.00,0.0088
515.00,0.0091
514.00,0.0090
513.00,0.0088
512.00,0.0085
511.00,0.0084
510.00,0.0083
509.00,0.0081
508.00,0.0080
507.00,0.0080
506.00,0.0082
505.00,0.0084
504.00,0.0086
503.00,0.0086
502.00,0.0086
501.00,0.0085
500.00,0.0082
499.00,0.0079
498.00,0.0079
497.00,0.0080
496.00,0.0083
495.00,0.0084
494.00,0.0083
493.00,0.0082
492.00,0.0080
491.00,0.0078
490.00,0.0076
489.00,0.0076
488.00,0.0080
487.00,0.0083
486.00,0.0084
485.00,0.0082
484.00,0.0082
483.00,0.0087
482.00,0.0095
481.00,0.0103
480.00,0.0109
479.00,0.0114
478.00,0.0115
477.00,0.0113
476.00,0.0109
475.00,0.0108
474.00,0.0109
473.00,0.0110
472.00,0.0116
471.00,0.0127
470.00,0.0142
469.00,0.0153
468.00,0.0158
467.00,0.0162
466.00,0.0171
465.00,0.0184
464.00,0.0193
463.00,0.0195
462.00,0.0193
461.00,0.0191
460.00,0.0191
459.00,0.0192
458.00,0.0197
457.00,0.0206
456.00,0.0215
455.00,0.0217
454.00,0.0211
453.00,0.0197
452.00,0.0178
451.00,0.0159
450.00,0.0144
