Created as New Dataset,Sample 134 By Administrator Date Wednesday, September 03 2025
cm-1,A
4000.00,0.0006
3999.00,0.0006
3998.00,0.0006
3997.00,0.0005
3996.00,0.0005
3995.00,0.0005
3994.00,0.0005
3993.00,0.0005
3992.00,0.0005
3991.00,0.0005
3990.00,0.0005
3989.00,0.0005
3988.00,0.0005
3987.00,0.0004
3986.00,0.0004
3985.00,0.0004
3984.00,0.0004
3983.00,0.0004
3982.00,0.0004
3981.00,0.0005
3980.00,0.0004
3979.00,0.0004
3978.00,0.0004
3977.00,0.0004
3976.00,0.0003
3975.00,0.0003
3974.00,0.0003
3973.00,0.0003
3972.00,0.0003
3971.00,0.0003
3970.00,0.0003
3969.00,0.0002
3968.00,0.0002
3967.00,0.0002
3966.00,0.0003
3965.00,0.0003
3964.00,0.0003
3963.00,0.0003
3962.00,0.0003
3961.00,0.0003
3960.00,0.0003
3959.00,0.0003
3958.00,0.0003
3957.00,0.0003
3956.00,0.0002
3955.00,0.0002
3954.00,0.0002
3953.00,0.0002
3952.00,0.0003
3951.00,0.0003
3950.00,0.0003
3949.00,0.0003
3948.00,0.0003
3947.00,0.0003
3946.00,0.0003
3945.00,0.0003
3944.00,0.0003
3943.00,0.0003
3942.00,0.0002
3941.00,0.0003
3940.00,0.0003
3939.00,0.0003
3938.00,0.0003
3937.00,0.0003
3936.00,0.0003
3935.00,0.0003
3934.00,0.0003
3933.00,0.0003
3932.00,0.0003
3931.00,0.0003
3930.00,0.0003
3929.00,0.0002
3928.00,0.0003
3927.00,0.0003
3926.00,0.0004
3925.00,0.0004
3924.00,0.0004
3923.00,0.0004
3922.00,0.0004
3921.00,0.0004
3920.00,0.0003
3919.00,0.0003
3918.00,0.0003
3917.00,0.0003
3916.00,0.0003
3915.00,0.0003
3914.00,0.0004
3913.00,0.0004
3912.00,0.0004
3911.00,0.0004
3910.00,0.0003
3909.00,0.0003
3908.00,0.0003
3907.00,0.0003
3906.00,0.0003
3905.00,0.0003
3904.00,0.0002
3903.00,0.0002
3902.00,0.0002
3901.00,0.0002
3900.00,0.0002
3899.00,0.0003
3898.00,0.0003
3897.00,0.0003
3896.00,0.0003
3895.00,0.0003
3894.00,0.0003
3893.00,0.0003
3892.00,0.0003
3891.00,0.0003
3890.00,0.0002
3889.00,0.0002
3888.00,0.0002
3887.00,0.0002
3886.00,0.0002
3885.00,0.0003
3884.00,0.0003
3883.00,0.0003
3882.00,0.0003
3881.00,0.0003
3880.00,0.0003
3879.00,0.0003
3878.00,0.0003
3877.00,0.0003
3876.00,0.0002
3875.00,0.0002
3874.00,0.0003
3873.00,0.0003
3872.00,0.0003
3871.00,0.0003
3870.00,0.0003
3869.00,0.0003
3868.00,0.0003
3867.00,0.0003
3866.00,0.0003
3865.00,0.0003
3864.00,0.0003
3863.00,0.0003
3862.00,0.0003
3861.00,0.0003
3860.00,0.0003
3859.00,0.0002
3858.00,0.0002
3857.00,0.0002
3856.00,0.0002
3855.00,0.0003
3854.00,0.0003
3853.00,0.0003
3852.00,0.0003
3851.00,0.0003
3850.00,0.0003
3849.00,0.0003
3848.00,0.0003
3847.00,0.0003
3846.00,0.0003
3845.00,0.0003
3844.00,0.0002
3843.00,0.0002
3842.00,0.0002
3841.00,0.0001
3840.00,0.0001
3839.00,0.0002
3838.00,0.0002
3837.00,0.0002
3836.00,0.0002
3835.00,0.0002
3834.00,0.0002
3833.00,0.0002
3832.00,0.0002
3831.00,0.0002
3830.00,0.0002
3829.00,0.0002
3828.00,0.0002
3827.00,0.0002
3826.00,0.0002
3825.00,0.0003
3824.00,0.0003
3823.00,0.0002
3822.00,0.0002
3821.00,0.0002
3820.00,0.0002
3819.00,0.0002
3818.00,0.0002
3817.00,0.0002
3816.00,0.0002
3815.00,0.0002
3814.00,0.0003
3813.00,0.0003
3812.00,0.0003
3811.00,0.0003
3810.00,0.0003
3809.00,0.0002
3808.00,0.0002
3807.00,0.0002
3806.00,0.0002
3805.00,0.0002
3804.00,0.0002
3803.00,0.0002
3802.00,0.0002
3801.00,0.0002
3800.00,0.0003
3799.00,0.0003
3798.00,0.0003
3797.00,0.0003
3796.00,0.0003
3795.00,0.0003
3794.00,0.0003
3793.00,0.0003
3792.00,0.0003
3791.00,0.0003
3790.00,0.0003
3789.00,0.0003
3788.00,0.0003
3787.00,0.0003
3786.00,0.0003
3785.00,0.0003
3784.00,0.0003
3783.00,0.0003
3782.00,0.0003
3781.00,0.0003
3780.00,0.0003
3779.00,0.0003
3778.00,0.0003
3777.00,0.0003
3776.00,0.0003
3775.00,0.0003
3774.00,0.0003
3773.00,0.0003
3772.00,0.0003
3771.00,0.0003
3770.00,0.0003
3769.00,0.0003
3768.00,0.0004
3767.00,0.0004
3766.00,0.0004
3765.00,0.0004
3764.00,0.0004
3763.00,0.0004
3762.00,0.0004
3761.00,0.0004
3760.00,0.0004
3759.00,0.0004
3758.00,0.0004
3757.00,0.0004
3756.00,0.0003
3755.00,0.0003
3754.00,0.0003
3753.00,0.0003
3752.00,0.0003
3751.00,0.0002
3750.00,0.0002
3749.00,0.0001
3748.00,0.0001
3747.00,0.0000
3746.00,-0.0000
3745.00,0.0000
3744.00,0.0001
3743.00,0.0001
3742.00,0.0002
3741.00,0.0002
3740.00,0.0002
3739.00,0.0002
3738.00,0.0002
3737.00,0.0002
3736.00,0.0002
3735.00,0.0002
3734.00,0.0001
3733.00,0.0001
3732.00,0.0001
3731.00,0.0001
3730.00,0.0001
3729.00,0.0001
3728.00,0.0001
3727.00,0.0001
3726.00,0.0001
3725.00,0.0002
3724.00,0.0002
3723.00,0.0002
3722.00,0.0001
3721.00,0.0001
3720.00,0.0000
3719.00,0.0000
3718.00,0.0000
3717.00,0.0000
3716.00,0.0001
3715.00,0.0001
3714.00,0.0002
3713.00,0.0002
3712.00,0.0002
3711.00,0.0003
3710.00,0.0003
3709.00,0.0003
3708.00,0.0003
3707.00,0.0003
3706.00,0.0002
3705.00,0.0002
3704.00,0.0002
3703.00,0.0001
3702.00,0.0001
3701.00,0.0000
3700.00,0.0000
3699.00,0.0001
3698.00,0.0001
3697.00,0.0001
3696.00,0.0000
3695.00,0.0000
3694.00,0.0000
3693.00,0.0000
3692.00,0.0000
3691.00,0.0000
3690.00,0.0000
3689.00,0.0000
3688.00,0.0000
3687.00,0.0000
3686.00,0.0001
3685.00,0.0001
3684.00,0.0001
3683.00,0.0001
3682.00,0.0002
3681.00,0.0002
3680.00,0.0002
3679.00,0.0002
3678.00,0.0002
3677.00,0.0002
3676.00,0.0002
3675.00,0.0002
3674.00,0.0002
3673.00,0.0002
3672.00,0.0002
3671.00,0.0002
3670.00,0.0001
3669.00,0.0001
3668.00,0.0000
3667.00,0.0000
3666.00,0.0001
3665.00,0.0001
3664.00,0.0001
3663.00,0.0001
3662.00,0.0001
3661.00,0.0001
3660.00,0.0001
3659.00,0.0001
3658.00,0.0000
3657.00,-0.0000
3656.00,-0.0000
3655.00,-0.0000
3654.00,0.0000
3653.00,0.0000
3652.00,-0.0000
3651.00,-0.0001
3650.00,-0.0001
3649.00,-0.0001
3648.00,0.0000
3647.00,0.0001
3646.00,0.0001
3645.00,0.0001
3644.00,0.0001
3643.00,0.0001
3642.00,0.0001
3641.00,0.0000
3640.00,-0.0000
3639.00,-0.0001
3638.00,-0.0001
3637.00,-0.0001
3636.00,-0.0000
3635.00,-0.0000
3634.00,-0.0000
3633.00,0.0000
3632.00,0.0000
3631.00,0.0001
3630.00,0.0000
3629.00,-0.0000
3628.00,-0.0000
3627.00,-0.0001
3626.00,-0.0001
3625.00,-0.0001
3624.00,-0.0000
3623.00,0.0000
3622.00,0.0001
3621.00,0.0001
3620.00,0.0001
3619.00,0.0001
3618.00,0.0001
3617.00,0.0000
3616.00,-0.0000
3615.00,-0.0001
3614.00,-0.0001
3613.00,-0.0001
3612.00,-0.0000
3611.00,0.0000
3610.00,0.0000
3609.00,0.0000
3608.00,0.0000
3607.00,0.0000
3606.00,0.0001
3605.00,0.0001
3604.00,0.0001
3603.00,0.0001
3602.00,0.0001
3601.00,0.0001
3600.00,0.0000
3599.00,0.0000
3598.00,0.0000
3597.00,0.0000
3596.00,0.0001
3595.00,0.0001
3594.00,0.0001
3593.00,0.0001
3592.00,0.0001
3591.00,0.0001
3590.00,0.0001
3589.00,0.0001
3588.00,0.0001
3587.00,0.0001
3586.00,0.0001
3585.00,0.0001
3584.00,0.0001
3583.00,0.0002
3582.00,0.0002
3581.00,0.0002
3580.00,0.0003
3579.00,0.0003
3578.00,0.0003
3577.00,0.0003
3576.00,0.0003
3575.00,0.0004
3574.00,0.0003
3573.00,0.0003
3572.00,0.0003
3571.00,0.0003
3570.00,0.0003
3569.00,0.0003
3568.00,0.0002
3567.00,0.0002
3566.00,0.0002
3565.00,0.0002
3564.00,0.0003
3563.00,0.0003
3562.00,0.0004
3561.00,0.0004
3560.00,0.0005
3559.00,0.0005
3558.00,0.0006
3557.00,0.0006
3556.00,0.0006
3555.00,0.0006
3554.00,0.0006
3553.00,0.0006
3552.00,0.0006
3551.00,0.0006
3550.00,0.0007
3549.00,0.0007
3548.00,0.0007
3547.00,0.0006
3546.00,0.0006
3545.00,0.0006
3544.00,0.0006
3543.00,0.0007
3542.00,0.0007
3541.00,0.0007
3540.00,0.0007
3539.00,0.0007
3538.00,0.0007
3537.00,0.0007
3536.00,0.0007
3535.00,0.0008
3534.00,0.0008
3533.00,0.0009
3532.00,0.0010
3531.00,0.0010
3530.00,0.0010
3529.00,0.0009
3528.00,0.0009
3527.00,0.0009
3526.00,0.0008
3525.00,0.0008
3524.00,0.0008
3523.00,0.0008
3522.00,0.0008
3521.00,0.0009
3520.00,0.0009
3519.00,0.0010
3518.00,0.0011
3517.00,0.0011
3516.00,0.0011
3515.00,0.0011
3514.00,0.0011
3513.00,0.0011
3512.00,0.0012
3511.00,0.0012
3510.00,0.0011
3509.00,0.0011
3508.00,0.0011
3507.00,0.0011
3506.00,0.0011
3505.00,0.0011
3504.00,0.0011
3503.00,0.0011
3502.00,0.0011
3501.00,0.0011
3500.00,0.0011
3499.00,0.0011
3498.00,0.0011
3497.00,0.0012
3496.00,0.0012
3495.00,0.0012
3494.00,0.0012
3493.00,0.0013
3492.00,0.0013
3491.00,0.0013
3490.00,0.0013
3489.00,0.0013
3488.00,0.0014
3487.00,0.0014
3486.00,0.0014
3485.00,0.0014
3484.00,0.0014
3483.00,0.0014
3482.00,0.0015
3481.00,0.0015
3480.00,0.0015
3479.00,0.0015
3478.00,0.0015
3477.00,0.0015
3476.00,0.0015
3475.00,0.0015
3474.00,0.0015
3473.00,0.0015
3472.00,0.0015
3471.00,0.0015
3470.00,0.0015
3469.00,0.0015
3468.00,0.0015
3467.00,0.0015
3466.00,0.0016
3465.00,0.0016
3464.00,0.0017
3463.00,0.0017
3462.00,0.0018
3461.00,0.0018
3460.00,0.0018
3459.00,0.0018
3458.00,0.0018
3457.00,0.0018
3456.00,0.0019
3455.00,0.0018
3454.00,0.0018
3453.00,0.0018
3452.00,0.0018
3451.00,0.0018
3450.00,0.0018
3449.00,0.0018
3448.00,0.0018
3447.00,0.0018
3446.00,0.0018
3445.00,0.0018
3444.00,0.0019
3443.00,0.0019
3442.00,0.0019
3441.00,0.0019
3440.00,0.0019
3439.00,0.0020
3438.00,0.0020
3437.00,0.0020
3436.00,0.0021
3435.00,0.0021
3434.00,0.0021
3433.00,0.0021
3432.00,0.0021
3431.00,0.0021
3430.00,0.0021
3429.00,0.0021
3428.00,0.0021
3427.00,0.0021
3426.00,0.0022
3425.00,0.0022
3424.00,0.0022
3423.00,0.0022
3422.00,0.0022
3421.00,0.0022
3420.00,0.0022
3419.00,0.0022
3418.00,0.0022
3417.00,0.0023
3416.00,0.0023
3415.00,0.0023
3414.00,0.0023
3413.00,0.0024
3412.00,0.0024
3411.00,0.0024
3410.00,0.0024
3409.00,0.0024
3408.00,0.0024
3407.00,0.0024
3406.00,0.0024
3405.00,0.0024
3404.00,0.0024
3403.00,0.0024
3402.00,0.0024
3401.00,0.0024
3400.00,0.0024
3399.00,0.0024
3398.00,0.0024
3397.00,0.0023
3396.00,0.0023
3395.00,0.0024
3394.00,0.0024
3393.00,0.0024
3392.00,0.0024
3391.00,0.0024
3390.00,0.0024
3389.00,0.0024
3388.00,0.0024
3387.00,0.0024
3386.00,0.0024
3385.00,0.0024
3384.00,0.0024
3383.00,0.0024
3382.00,0.0024
3381.00,0.0024
3380.00,0.0024
3379.00,0.0024
3378.00,0.0025
3377.00,0.0025
3376.00,0.0025
3375.00,0.0025
3374.00,0.0025
3373.00,0.0025
3372.00,0.0025
3371.00,0.0026
3370.00,0.0026
3369.00,0.0026
3368.00,0.0026
3367.00,0.0025
3366.00,0.0025
3365.00,0.0026
3364.00,0.0026
3363.00,0.0026
3362.00,0.0025
3361.00,0.0025
3360.00,0.0026
3359.00,0.0026
3358.00,0.0026
3357.00,0.0026
3356.00,0.0026
3355.00,0.0026
3354.00,0.0025
3353.00,0.0025
3352.00,0.0025
3351.00,0.0025
3350.00,0.0025
3349.00,0.0025
3348.00,0.0025
3347.00,0.0026
3346.00,0.0026
3345.00,0.0025
3344.00,0.0025
3343.00,0.0025
3342.00,0.0025
3341.00,0.0025
3340.00,0.0025
3339.00,0.0025
3338.00,0.0025
3337.00,0.0025
3336.00,0.0025
3335.00,0.0025
3334.00,0.0025
3333.00,0.0025
3332.00,0.0024
3331.00,0.0024
3330.00,0.0024
3329.00,0.0024
3328.00,0.0024
3327.00,0.0024
3326.00,0.0024
3325.00,0.0024
3324.00,0.0024
3323.00,0.0024
3322.00,0.0024
3321.00,0.0024
3320.00,0.0023
3319.00,0.0023
3318.00,0.0023
3317.00,0.0023
3316.00,0.0023
3315.00,0.0023
3314.00,0.0023
3313.00,0.0023
3312.00,0.0024
3311.00,0.0024
3310.00,0.0025
3309.00,0.0025
3308.00,0.0025
3307.00,0.0025
3306.00,0.0025
3305.00,0.0025
3304.00,0.0025
3303.00,0.0025
3302.00,0.0026
3301.00,0.0026
3300.00,0.0026
3299.00,0.0026
3298.00,0.0026
3297.00,0.0025
3296.00,0.0025
3295.00,0.0024
3294.00,0.0024
3293.00,0.0023
3292.00,0.0023
3291.00,0.0023
3290.00,0.0023
3289.00,0.0023
3288.00,0.0023
3287.00,0.0023
3286.00,0.0023
3285.00,0.0023
3284.00,0.0023
3283.00,0.0023
3282.00,0.0023
3281.00,0.0023
3280.00,0.0022
3279.00,0.0022
3278.00,0.0022
3277.00,0.0022
3276.00,0.0023
3275.00,0.0023
3274.00,0.0023
3273.00,0.0023
3272.00,0.0023
3271.00,0.0023
3270.00,0.0022
3269.00,0.0022
3268.00,0.0022
3267.00,0.0022
3266.00,0.0022
3265.00,0.0021
3264.00,0.0021
3263.00,0.0022
3262.00,0.0022
3261.00,0.0021
3260.00,0.0021
3259.00,0.0021
3258.00,0.0021
3257.00,0.0021
3256.00,0.0021
3255.00,0.0021
3254.00,0.0020
3253.00,0.0020
3252.00,0.0020
3251.00,0.0021
3250.00,0.0021
3249.00,0.0021
3248.00,0.0020
3247.00,0.0020
3246.00,0.0020
3245.00,0.0020
3244.00,0.0020
3243.00,0.0020
3242.00,0.0020
3241.00,0.0020
3240.00,0.0021
3239.00,0.0021
3238.00,0.0021
3237.00,0.0022
3236.00,0.0022
3235.00,0.0022
3234.00,0.0022
3233.00,0.0022
3232.00,0.0022
3231.00,0.0022
3230.00,0.0022
3229.00,0.0022
3228.00,0.0022
3227.00,0.0022
3226.00,0.0022
3225.00,0.0022
3224.00,0.0022
3223.00,0.0022
3222.00,0.0022
3221.00,0.0023
3220.00,0.0023
3219.00,0.0023
3218.00,0.0024
3217.00,0.0024
3216.00,0.0024
3215.00,0.0024
3214.00,0.0024
3213.00,0.0024
3212.00,0.0024
3211.00,0.0025
3210.00,0.0025
3209.00,0.0025
3208.00,0.0025
3207.00,0.0025
3206.00,0.0025
3205.00,0.0025
3204.00,0.0025
3203.00,0.0026
3202.00,0.0026
3201.00,0.0026
3200.00,0.0026
3199.00,0.0026
3198.00,0.0026
3197.00,0.0027
3196.00,0.0027
3195.00,0.0027
3194.00,0.0027
3193.00,0.0026
3192.00,0.0026
3191.00,0.0025
3190.00,0.0025
3189.00,0.0024
3188.00,0.0024
3187.00,0.0024
3186.00,0.0024
3185.00,0.0025
3184.00,0.0024
3183.00,0.0024
3182.00,0.0024
3181.00,0.0024
3180.00,0.0024
3179.00,0.0024
3178.00,0.0024
3177.00,0.0023
3176.00,0.0023
3175.00,0.0023
3174.00,0.0024
3173.00,0.0024
3172.00,0.0024
3171.00,0.0024
3170.00,0.0024
3169.00,0.0024
3168.00,0.0024
3167.00,0.0024
3166.00,0.0023
3165.00,0.0023
3164.00,0.0023
3163.00,0.0022
3162.00,0.0022
3161.00,0.0022
3160.00,0.0021
3159.00,0.0022
3158.00,0.0022
3157.00,0.0022
3156.00,0.0023
3155.00,0.0023
3154.00,0.0023
3153.00,0.0022
3152.00,0.0022
3151.00,0.0022
3150.00,0.0022
3149.00,0.0022
3148.00,0.0023
3147.00,0.0023
3146.00,0.0023
3145.00,0.0023
3144.00,0.0023
3143.00,0.0024
3142.00,0.0024
3141.00,0.0024
3140.00,0.0023
3139.00,0.0023
3138.00,0.0023
3137.00,0.0023
3136.00,0.0023
3135.00,0.0022
3134.00,0.0022
3133.00,0.0022
3132.00,0.0022
3131.00,0.0022
3130.00,0.0021
3129.00,0.0021
3128.00,0.0021
3127.00,0.0021
3126.00,0.0021
3125.00,0.0021
3124.00,0.0020
3123.00,0.0020
3122.00,0.0020
3121.00,0.0019
3120.00,0.0019
3119.00,0.0019
3118.00,0.0019
3117.00,0.0018
3116.00,0.0019
3115.00,0.0019
3114.00,0.0019
3113.00,0.0018
3112.00,0.0018
3111.00,0.0018
3110.00,0.0018
3109.00,0.0018
3108.00,0.0018
3107.00,0.0019
3106.00,0.0019
3105.00,0.0019
3104.00,0.0019
3103.00,0.0019
3102.00,0.0019
3101.00,0.0019
3100.00,0.0018
3099.00,0.0018
3098.00,0.0018
3097.00,0.0018
3096.00,0.0018
3095.00,0.0018
3094.00,0.0018
3093.00,0.0018
3092.00,0.0018
3091.00,0.0018
3090.00,0.0018
3089.00,0.0018
3088.00,0.0018
3087.00,0.0018
3086.00,0.0018
3085.00,0.0018
3084.00,0.0018
3083.00,0.0018
3082.00,0.0018
3081.00,0.0018
3080.00,0.0018
3079.00,0.0018
3078.00,0.0018
3077.00,0.0018
3076.00,0.0019
3075.00,0.0019
3074.00,0.0020
3073.00,0.0020
3072.00,0.0020
3071.00,0.0020
3070.00,0.0020
3069.00,0.0020
3068.00,0.0020
3067.00,0.0020
3066.00,0.0021
3065.00,0.0021
3064.00,0.0021
3063.00,0.0021
3062.00,0.0021
3061.00,0.0021
3060.00,0.0021
3059.00,0.0021
3058.00,0.0021
3057.00,0.0021
3056.00,0.0022
3055.00,0.0022
3054.00,0.0022
3053.00,0.0022
3052.00,0.0022
3051.00,0.0022
3050.00,0.0023
3049.00,0.0023
3048.00,0.0024
3047.00,0.0024
3046.00,0.0024
3045.00,0.0024
3044.00,0.0024
3043.00,0.0024
3042.00,0.0025
3041.00,0.0025
3040.00,0.0025
3039.00,0.0026
3038.00,0.0026
3037.00,0.0027
3036.00,0.0027
3035.00,0.0027
3034.00,0.0027
3033.00,0.0028
3032.00,0.0028
3031.00,0.0029
3030.00,0.0029
3029.00,0.0030
3028.00,0.0030
3027.00,0.0030
3026.00,0.0030
3025.00,0.0031
3024.00,0.0031
3023.00,0.0032
3022.00,0.0033
3021.00,0.0034
3020.00,0.0035
3019.00,0.0036
3018.00,0.0037
3017.00,0.0038
3016.00,0.0039
3015.00,0.0040
3014.00,0.0041
3013.00,0.0042
3012.00,0.0044
3011.00,0.0045
3010.00,0.0046
3009.00,0.0048
3008.00,0.0049
3007.00,0.0051
3006.00,0.0053
3005.00,0.0054
3004.00,0.0056
3003.00,0.0058
3002.00,0.0061
3001.00,0.0063
3000.00,0.0065
2999.00,0.0068
2998.00,0.0071
2997.00,0.0075
2996.00,0.0078
2995.00,0.0082
2994.00,0.0086
2993.00,0.0091
2992.00,0.0095
2991.00,0.0101
2990.00,0.0107
2989.00,0.0114
2988.00,0.0121
2987.00,0.0130
2986.00,0.0139
2985.00,0.0150
2984.00,0.0161
2983.00,0.0175
2982.00,0.0190
2981.00,0.0206
2980.00,0.0225
2979.00,0.0247
2978.00,0.0271
2977.00,0.0299
2976.00,0.0331
2975.00,0.0367
2974.00,0.0409
2973.00,0.0456
2972.00,0.0510
2971.00,0.0570
2970.00,0.0637
2969.00,0.0710
2968.00,0.0789
2967.00,0.0874
2966.00,0.0962
2965.00,0.1051
2964.00,0.1138
2963.00,0.1217
2962.00,0.1286
2961.00,0.1342
2960.00,0.1386
2959.00,0.1424
2958.00,0.1461
2957.00,0.1503
2956.00,0.1557
2955.00,0.1623
2954.00,0.1700
2953.00,0.1780
2952.00,0.1853
2951.00,0.1905
2950.00,0.1924
2949.00,0.1901
2948.00,0.1835
2947.00,0.1734
2946.00,0.1610
2945.00,0.1477
2944.00,0.1352
2943.00,0.1243
2942.00,0.1159
2941.00,0.1101
2940.00,0.1067
2939.00,0.1057
2938.00,0.1067
2937.00,0.1095
2936.00,0.1140
2935.00,0.1201
2934.00,0.1276
2933.00,0.1364
2932.00,0.1463
2931.00,0.1571
2930.00,0.1686
2929.00,0.1805
2928.00,0.1925
2927.00,0.2043
2926.00,0.2157
2925.00,0.2267
2924.00,0.2374
2923.00,0.2481
2922.00,0.2586
2921.00,0.2686
2920.00,0.2775
2919.00,0.2840
2918.00,0.2872
2917.00,0.2861
2916.00,0.2809
2915.00,0.2722
2914.00,0.2614
2913.00,0.2497
2912.00,0.2383
2911.00,0.2278
2910.00,0.2185
2909.00,0.2101
2908.00,0.2025
2907.00,0.1952
2906.00,0.1881
2905.00,0.1810
2904.00,0.1738
2903.00,0.1668
2902.00,0.1598
2901.00,0.1531
2900.00,0.1465
2899.00,0.1404
2898.00,0.1346
2897.00,0.1292
2896.00,0.1244
2895.00,0.1203
2894.00,0.1168
2893.00,0.1139
2892.00,0.1116
2891.00,0.1099
2890.00,0.1088
2889.00,0.1081
2888.00,0.1078
2887.00,0.1078
2886.00,0.1082
2885.00,0.1088
2884.00,0.1099
2883.00,0.1115
2882.00,0.1135
2881.00,0.1159
2880.00,0.1182
2879.00,0.1201
2878.00,0.1214
2877.00,0.1217
2876.00,0.1213
2875.00,0.1205
2874.00,0.1199
2873.00,0.1199
2872.00,0.1206
2871.00,0.1221
2870.00,0.1242
2869.00,0.1261
2868.00,0.1274
2867.00,0.1271
2866.00,0.1246
2865.00,0.1197
2864.00,0.1128
2863.00,0.1050
2862.00,0.0971
2861.00,0.0902
2860.00,0.0847
2859.00,0.0809
2858.00,0.0786
2857.00,0.0776
2856.00,0.0776
2855.00,0.0783
2854.00,0.0796
2853.00,0.0812
2852.00,0.0829
2851.00,0.0844
2850.00,0.0857
2849.00,0.0868
2848.00,0.0881
2847.00,0.0899
2846.00,0.0925
2845.00,0.0962
2844.00,0.1010
2843.00,0.1064
2842.00,0.1121
2841.00,0.1173
2840.00,0.1213
2839.00,0.1233
2838.00,0.1226
2837.00,0.1189
2836.00,0.1122
2835.00,0.1032
2834.00,0.0926
2833.00,0.0818
2832.00,0.0715
2831.00,0.0623
2830.00,0.0546
2829.00,0.0483
2828.00,0.0432
2827.00,0.0390
2826.00,0.0357
2825.00,0.0329
2824.00,0.0306
2823.00,0.0286
2822.00,0.0270
2821.00,0.0255
2820.00,0.0242
2819.00,0.0231
2818.00,0.0221
2817.00,0.0212
2816.00,0.0204
2815.00,0.0198
2814.00,0.0192
2813.00,0.0186
2812.00,0.0180
2811.00,0.0175
2810.00,0.0169
2809.00,0.0163
2808.00,0.0157
2807.00,0.0151
2806.00,0.0145
2805.00,0.0138
2804.00,0.0132
2803.00,0.0126
2802.00,0.0121
2801.00,0.0117
2800.00,0.0113
2799.00,0.0109
2798.00,0.0106
2797.00,0.0103
2796.00,0.0100
2795.00,0.0098
2794.00,0.0095
2793.00,0.0093
2792.00,0.0090
2791.00,0.0087
2790.00,0.0084
2789.00,0.0080
2788.00,0.0077
2787.00,0.0075
2786.00,0.0072
2785.00,0.0070
2784.00,0.0068
2783.00,0.0066
2782.00,0.0064
2781.00,0.0062
2780.00,0.0061
2779.00,0.0059
2778.00,0.0058
2777.00,0.0056
2776.00,0.0055
2775.00,0.0053
2774.00,0.0053
2773.00,0.0052
2772.00,0.0051
2771.00,0.0051
2770.00,0.0050
2769.00,0.0050
2768.00,0.0050
2767.00,0.0049
2766.00,0.0049
2765.00,0.0049
2764.00,0.0048
2763.00,0.0048
2762.00,0.0048
2761.00,0.0047
2760.00,0.0047
2759.00,0.0046
2758.00,0.0046
2757.00,0.0046
2756.00,0.0047
2755.00,0.0047
2754.00,0.0047
2753.00,0.0047
2752.00,0.0046
2751.00,0.0046
2750.00,0.0045
2749.00,0.0045
2748.00,0.0046
2747.00,0.0046
2746.00,0.0047
2745.00,0.0047
2744.00,0.0048
2743.00,0.0048
2742.00,0.0049
2741.00,0.0050
2740.00,0.0051
2739.00,0.0053
2738.00,0.0054
2737.00,0.0055
2736.00,0.0057
2735.00,0.0058
2734.00,0.0060
2733.00,0.0062
2732.00,0.0063
2731.00,0.0065
2730.00,0.0068
2729.00,0.0070
2728.00,0.0073
2727.00,0.0076
2726.00,0.0079
2725.00,0.0081
2724.00,0.0083
2723.00,0.0084
2722.00,0.0083
2721.00,0.0081
2720.00,0.0078
2719.00,0.0074
2718.00,0.0071
2717.00,0.0068
2716.00,0.0065
2715.00,0.0063
2714.00,0.0060
2713.00,0.0058
2712.00,0.0056
2711.00,0.0054
2710.00,0.0052
2709.00,0.0050
2708.00,0.0049
2707.00,0.0048
2706.00,0.0047
2705.00,0.0046
2704.00,0.0045
2703.00,0.0044
2702.00,0.0043
2701.00,0.0042
2700.00,0.0041
2699.00,0.0041
2698.00,0.0040
2697.00,0.0040
2696.00,0.0040
2695.00,0.0040
2694.00,0.0040
2693.00,0.0040
2692.00,0.0040
2691.00,0.0040
2690.00,0.0040
2689.00,0.0040
2688.00,0.0040
2687.00,0.0040
2686.00,0.0040
2685.00,0.0040
2684.00,0.0040
2683.00,0.0040
2682.00,0.0040
2681.00,0.0041
2680.00,0.0041
2679.00,0.0041
2678.00,0.0041
2677.00,0.0041
2676.00,0.0041
2675.00,0.0041
2674.00,0.0041
2673.00,0.0041
2672.00,0.0041
2671.00,0.0041
2670.00,0.0040
2669.00,0.0040
2668.00,0.0040
2667.00,0.0041
2666.00,0.0041
2665.00,0.0041
2664.00,0.0041
2663.00,0.0042
2662.00,0.0042
2661.00,0.0043
2660.00,0.0043
2659.00,0.0043
2658.00,0.0043
2657.00,0.0043
2656.00,0.0042
2655.00,0.0042
2654.00,0.0041
2653.00,0.0041
2652.00,0.0040
2651.00,0.0040
2650.00,0.0039
2649.00,0.0039
2648.00,0.0039
2647.00,0.0039
2646.00,0.0039
2645.00,0.0038
2644.00,0.0038
2643.00,0.0038
2642.00,0.0038
2641.00,0.0037
2640.00,0.0037
2639.00,0.0036
2638.00,0.0035
2637.00,0.0035
2636.00,0.0034
2635.00,0.0034
2634.00,0.0034
2633.00,0.0034
2632.00,0.0034
2631.00,0.0035
2630.00,0.0035
2629.00,0.0035
2628.00,0.0036
2627.00,0.0036
2626.00,0.0036
2625.00,0.0036
2624.00,0.0036
2623.00,0.0036
2622.00,0.0036
2621.00,0.0036
2620.00,0.0036
2619.00,0.0036
2618.00,0.0037
2617.00,0.0037
2616.00,0.0037
2615.00,0.0037
2614.00,0.0036
2613.00,0.0036
2612.00,0.0035
2611.00,0.0034
2610.00,0.0034
2609.00,0.0033
2608.00,0.0033
2607.00,0.0032
2606.00,0.0031
2605.00,0.0030
2604.00,0.0029
2603.00,0.0029
2602.00,0.0028
2601.00,0.0028
2600.00,0.0028
2599.00,0.0028
2598.00,0.0028
2597.00,0.0028
2596.00,0.0028
2595.00,0.0028
2594.00,0.0028
2593.00,0.0028
2592.00,0.0029
2591.00,0.0029
2590.00,0.0030
2589.00,0.0032
2588.00,0.0033
2587.00,0.0034
2586.00,0.0035
2585.00,0.0036
2584.00,0.0036
2583.00,0.0037
2582.00,0.0037
2581.00,0.0036
2580.00,0.0035
2579.00,0.0034
2578.00,0.0033
2577.00,0.0032
2576.00,0.0031
2575.00,0.0030
2574.00,0.0029
2573.00,0.0028
2572.00,0.0027
2571.00,0.0025
2570.00,0.0024
2569.00,0.0022
2568.00,0.0021
2567.00,0.0021
2566.00,0.0021
2565.00,0.0021
2564.00,0.0021
2563.00,0.0020
2562.00,0.0019
2561.00,0.0019
2560.00,0.0019
2559.00,0.0019
2558.00,0.0019
2557.00,0.0020
2556.00,0.0020
2555.00,0.0020
2554.00,0.0019
2553.00,0.0018
2552.00,0.0017
2551.00,0.0017
2550.00,0.0017
2549.00,0.0017
2548.00,0.0017
2547.00,0.0016
2546.00,0.0015
2545.00,0.0014
2544.00,0.0014
2543.00,0.0014
2542.00,0.0014
2541.00,0.0014
2540.00,0.0013
2539.00,0.0012
2538.00,0.0011
2537.00,0.0011
2536.00,0.0011
2535.00,0.0011
2534.00,0.0011
2533.00,0.0012
2532.00,0.0012
2531.00,0.0012
2530.00,0.0011
2529.00,0.0010
2528.00,0.0010
2527.00,0.0011
2526.00,0.0011
2525.00,0.0011
2524.00,0.0011
2523.00,0.0011
2522.00,0.0011
2521.00,0.0010
2520.00,0.0009
2519.00,0.0009
2518.00,0.0009
2517.00,0.0008
2516.00,0.0007
2515.00,0.0007
2514.00,0.0006
2513.00,0.0006
2512.00,0.0007
2511.00,0.0007
2510.00,0.0007
2509.00,0.0007
2508.00,0.0007
2507.00,0.0006
2506.00,0.0006
2505.00,0.0006
2504.00,0.0006
2503.00,0.0006
2502.00,0.0006
2501.00,0.0006
2500.00,0.0006
2499.00,0.0006
2498.00,0.0007
2497.00,0.0008
2496.00,0.0008
2495.00,0.0008
2494.00,0.0007
2493.00,0.0007
2492.00,0.0007
2491.00,0.0007
2490.00,0.0008
2489.00,0.0008
2488.00,0.0008
2487.00,0.0007
2486.00,0.0007
2485.00,0.0007
2484.00,0.0007
2483.00,0.0007
2482.00,0.0007
2481.00,0.0007
2480.00,0.0008
2479.00,0.0008
2478.00,0.0007
2477.00,0.0007
2476.00,0.0007
2475.00,0.0006
2474.00,0.0006
2473.00,0.0006
2472.00,0.0006
2471.00,0.0006
2470.00,0.0007
2469.00,0.0007
2468.00,0.0007
2467.00,0.0007
2466.00,0.0006
2465.00,0.0006
2464.00,0.0005
2463.00,0.0005
2462.00,0.0006
2461.00,0.0006
2460.00,0.0007
2459.00,0.0007
2458.00,0.0008
2457.00,0.0008
2456.00,0.0007
2455.00,0.0006
2454.00,0.0006
2453.00,0.0006
2452.00,0.0007
2451.00,0.0008
2450.00,0.0009
2449.00,0.0009
2448.00,0.0009
2447.00,0.0008
2446.00,0.0008
2445.00,0.0007
2444.00,0.0007
2443.00,0.0007
2442.00,0.0007
2441.00,0.0006
2440.00,0.0006
2439.00,0.0007
2438.00,0.0007
2437.00,0.0007
2436.00,0.0007
2435.00,0.0007
2434.00,0.0007
2433.00,0.0007
2432.00,0.0008
2431.00,0.0008
2430.00,0.0008
2429.00,0.0008
2428.00,0.0008
2427.00,0.0008
2426.00,0.0009
2425.00,0.0009
2424.00,0.0008
2423.00,0.0008
2422.00,0.0008
2421.00,0.0009
2420.00,0.0009
2419.00,0.0008
2418.00,0.0008
2417.00,0.0007
2416.00,0.0006
2415.00,0.0006
2414.00,0.0006
2413.00,0.0006
2412.00,0.0006
2411.00,0.0006
2410.00,0.0006
2409.00,0.0006
2408.00,0.0006
2407.00,0.0006
2406.00,0.0006
2405.00,0.0006
2404.00,0.0006
2403.00,0.0006
2402.00,0.0006
2401.00,0.0005
2400.00,0.0005
2399.00,0.0004
2398.00,0.0004
2397.00,0.0005
2396.00,0.0005
2395.00,0.0006
2394.00,0.0005
2393.00,0.0005
2392.00,0.0004
2391.00,0.0004
2390.00,0.0004
2389.00,0.0004
2388.00,0.0004
2387.00,0.0004
2386.00,0.0003
2385.00,0.0002
2384.00,0.0001
2383.00,-0.0000
2382.00,-0.0001
2381.00,-0.0002
2380.00,-0.0002
2379.00,-0.0003
2378.00,-0.0003
2377.00,-0.0003
2376.00,-0.0003
2375.00,-0.0003
2374.00,-0.0003
2373.00,-0.0004
2372.00,-0.0004
2371.00,-0.0003
2370.00,-0.0004
2369.00,-0.0004
2368.00,-0.0005
2367.00,-0.0006
2366.00,-0.0006
2365.00,-0.0007
2364.00,-0.0007
2363.00,-0.0007
2362.00,-0.0007
2361.00,-0.0006
2360.00,-0.0005
2359.00,-0.0005
2358.00,-0.0005
2357.00,-0.0005
2356.00,-0.0004
2355.00,-0.0004
2354.00,-0.0004
2353.00,-0.0004
2352.00,-0.0004
2351.00,-0.0004
2350.00,-0.0004
2349.00,-0.0004
2348.00,-0.0004
2347.00,-0.0003
2346.00,-0.0003
2345.00,-0.0002
2344.00,-0.0002
2343.00,-0.0002
2342.00,-0.0003
2341.00,-0.0003
2340.00,-0.0002
2339.00,-0.0002
2338.00,-0.0001
2337.00,-0.0001
2336.00,-0.0001
2335.00,-0.0001
2334.00,-0.0001
2333.00,-0.0001
2332.00,-0.0001
2331.00,-0.0001
2330.00,-0.0001
2329.00,-0.0000
2328.00,0.0001
2327.00,0.0004
2326.00,0.0008
2325.00,0.0011
2324.00,0.0013
2323.00,0.0012
2322.00,0.0010
2321.00,0.0008
2320.00,0.0006
2319.00,0.0005
2318.00,0.0004
2317.00,0.0003
2316.00,0.0003
2315.00,0.0003
2314.00,0.0003
2313.00,0.0003
2312.00,0.0003
2311.00,0.0002
2310.00,0.0001
2309.00,0.0000
2308.00,-0.0000
2307.00,-0.0000
2306.00,0.0000
2305.00,0.0000
2304.00,-0.0000
2303.00,0.0000
2302.00,0.0001
2301.00,0.0001
2300.00,0.0002
2299.00,0.0003
2298.00,0.0004
2297.00,0.0005
2296.00,0.0006
2295.00,0.0007
2294.00,0.0008
2293.00,0.0009
2292.00,0.0010
2291.00,0.0011
2290.00,0.0012
2289.00,0.0013
2288.00,0.0014
2287.00,0.0013
2286.00,0.0013
2285.00,0.0013
2284.00,0.0012
2283.00,0.0012
2282.00,0.0011
2281.00,0.0011
2280.00,0.0010
2279.00,0.0010
2278.00,0.0010
2277.00,0.0010
2276.00,0.0009
2275.00,0.0009
2274.00,0.0008
2273.00,0.0008
2272.00,0.0009
2271.00,0.0010
2270.00,0.0010
2269.00,0.0010
2268.00,0.0009
2267.00,0.0007
2266.00,0.0006
2265.00,0.0005
2264.00,0.0005
2263.00,0.0007
2262.00,0.0007
2261.00,0.0007
2260.00,0.0007
2259.00,0.0007
2258.00,0.0007
2257.00,0.0008
2256.00,0.0007
2255.00,0.0006
2254.00,0.0004
2253.00,0.0003
2252.00,0.0002
2251.00,0.0003
2250.00,0.0005
2249.00,0.0007
2248.00,0.0009
2247.00,0.0010
2246.00,0.0010
2245.00,0.0010
2244.00,0.0009
2243.00,0.0008
2242.00,0.0006
2241.00,0.0004
2240.00,0.0003
2239.00,0.0003
2238.00,0.0005
2237.00,0.0008
2236.00,0.0009
2235.00,0.0010
2234.00,0.0009
2233.00,0.0008
2232.00,0.0009
2231.00,0.0009
2230.00,0.0009
2229.00,0.0008
2228.00,0.0008
2227.00,0.0007
2226.00,0.0006
2225.00,0.0006
2224.00,0.0005
2223.00,0.0005
2222.00,0.0005
2221.00,0.0005
2220.00,0.0006
2219.00,0.0007
2218.00,0.0008
2217.00,0.0007
2216.00,0.0004
2215.00,0.0002
2214.00,0.0000
2213.00,-0.0001
2212.00,-0.0002
2211.00,-0.0002
2210.00,-0.0003
2209.00,-0.0002
2208.00,-0.0000
2207.00,0.0000
2206.00,0.0000
2205.00,-0.0000
2204.00,-0.0001
2203.00,-0.0002
2202.00,-0.0002
2201.00,-0.0002
2200.00,-0.0002
2199.00,-0.0002
2198.00,-0.0002
2197.00,-0.0001
2196.00,0.0000
2195.00,0.0001
2194.00,0.0002
2193.00,0.0003
2192.00,0.0005
2191.00,0.0006
2190.00,0.0007
2189.00,0.0007
2188.00,0.0006
2187.00,0.0006
2186.00,0.0007
2185.00,0.0007
2184.00,0.0006
2183.00,0.0003
2182.00,-0.0001
2181.00,-0.0003
2180.00,-0.0004
2179.00,-0.0003
2178.00,-0.0001
2177.00,-0.0000
2176.00,-0.0002
2175.00,-0.0004
2174.00,-0.0004
2173.00,-0.0001
2172.00,0.0003
2171.00,0.0008
2170.00,0.0012
2169.00,0.0015
2168.00,0.0016
2167.00,0.0016
2166.00,0.0015
2165.00,0.0015
2164.00,0.0016
2163.00,0.0017
2162.00,0.0016
2161.00,0.0009
2160.00,-0.0004
2159.00,-0.0021
2158.00,-0.0033
2157.00,-0.0036
2156.00,-0.0034
2155.00,-0.0030
2154.00,-0.0027
2153.00,-0.0024
2152.00,-0.0023
2151.00,-0.0023
2150.00,-0.0024
2149.00,-0.0024
2148.00,-0.0024
2147.00,-0.0024
2146.00,-0.0021
2145.00,-0.0017
2144.00,-0.0015
2143.00,-0.0014
2142.00,-0.0015
2141.00,-0.0015
2140.00,-0.0014
2139.00,-0.0013
2138.00,-0.0013
2137.00,-0.0014
2136.00,-0.0015
2135.00,-0.0017
2134.00,-0.0019
2133.00,-0.0019
2132.00,-0.0019
2131.00,-0.0018
2130.00,-0.0016
2129.00,-0.0013
2128.00,-0.0012
2127.00,-0.0011
2126.00,-0.0010
2125.00,-0.0009
2124.00,-0.0008
2123.00,-0.0007
2122.00,-0.0007
2121.00,-0.0007
2120.00,-0.0008
2119.00,-0.0008
2118.00,-0.0008
2117.00,-0.0007
2116.00,-0.0004
2115.00,-0.0002
2114.00,-0.0001
2113.00,0.0000
2112.00,0.0001
2111.00,0.0000
2110.00,-0.0001
2109.00,-0.0001
2108.00,-0.0001
2107.00,-0.0001
2106.00,-0.0001
2105.00,-0.0000
2104.00,0.0001
2103.00,0.0002
2102.00,0.0002
2101.00,0.0002
2100.00,0.0002
2099.00,0.0001
2098.00,-0.0001
2097.00,-0.0003
2096.00,-0.0004
2095.00,-0.0005
2094.00,-0.0006
2093.00,-0.0006
2092.00,-0.0006
2091.00,-0.0006
2090.00,-0.0004
2089.00,-0.0003
2088.00,-0.0002
2087.00,-0.0002
2086.00,-0.0003
2085.00,-0.0003
2084.00,-0.0003
2083.00,-0.0003
2082.00,-0.0002
2081.00,-0.0001
2080.00,0.0001
2079.00,0.0001
2078.00,0.0001
2077.00,0.0000
2076.00,-0.0000
2075.00,-0.0000
2074.00,0.0000
2073.00,0.0000
2072.00,0.0000
2071.00,-0.0000
2070.00,-0.0001
2069.00,-0.0002
2068.00,-0.0002
2067.00,-0.0002
2066.00,-0.0002
2065.00,-0.0003
2064.00,-0.0003
2063.00,-0.0004
2062.00,-0.0005
2061.00,-0.0006
2060.00,-0.0006
2059.00,-0.0005
2058.00,-0.0004
2057.00,-0.0002
2056.00,-0.0001
2055.00,-0.0000
2054.00,0.0000
2053.00,0.0003
2052.00,0.0006
2051.00,0.0009
2050.00,0.0010
2049.00,0.0007
2048.00,0.0003
2047.00,-0.0003
2046.00,-0.0007
2045.00,-0.0009
2044.00,-0.0008
2043.00,-0.0006
2042.00,-0.0004
2041.00,-0.0003
2040.00,-0.0003
2039.00,-0.0002
2038.00,-0.0002
2037.00,-0.0003
2036.00,-0.0004
2035.00,-0.0008
2034.00,-0.0012
2033.00,-0.0015
2032.00,-0.0017
2031.00,-0.0017
2030.00,-0.0018
2029.00,-0.0018
2028.00,-0.0018
2027.00,-0.0018
2026.00,-0.0017
2025.00,-0.0017
2024.00,-0.0019
2023.00,-0.0021
2022.00,-0.0021
2021.00,-0.0019
2020.00,-0.0018
2019.00,-0.0018
2018.00,-0.0019
2017.00,-0.0019
2016.00,-0.0019
2015.00,-0.0019
2014.00,-0.0019
2013.00,-0.0018
2012.00,-0.0017
2011.00,-0.0015
2010.00,-0.0015
2009.00,-0.0016
2008.00,-0.0020
2007.00,-0.0025
2006.00,-0.0030
2005.00,-0.0032
2004.00,-0.0030
2003.00,-0.0026
2002.00,-0.0021
2001.00,-0.0016
2000.00,-0.0013
1999.00,-0.0012
1998.00,-0.0013
1997.00,-0.0014
1996.00,-0.0014
1995.00,-0.0014
1994.00,-0.0014
1993.00,-0.0013
1992.00,-0.0012
1991.00,-0.0012
1990.00,-0.0013
1989.00,-0.0013
1988.00,-0.0011
1987.00,-0.0009
1986.00,-0.0006
1985.00,-0.0003
1984.00,-0.0001
1983.00,0.0002
1982.00,0.0005
1981.00,0.0006
1980.00,0.0004
1979.00,-0.0002
1978.00,-0.0010
1977.00,-0.0017
1976.00,-0.0021
1975.00,-0.0022
1974.00,-0.0021
1973.00,-0.0020
1972.00,-0.0020
1971.00,-0.0020
1970.00,-0.0019
1969.00,-0.0016
1968.00,-0.0014
1967.00,-0.0013
1966.00,-0.0013
1965.00,-0.0014
1964.00,-0.0015
1963.00,-0.0015
1962.00,-0.0016
1961.00,-0.0017
1960.00,-0.0021
1959.00,-0.0024
1958.00,-0.0026
1957.00,-0.0025
1956.00,-0.0023
1955.00,-0.0021
1954.00,-0.0020
1953.00,-0.0019
1952.00,-0.0018
1951.00,-0.0017
1950.00,-0.0017
1949.00,-0.0018
1948.00,-0.0019
1947.00,-0.0020
1946.00,-0.0021
1945.00,-0.0021
1944.00,-0.0020
1943.00,-0.0019
1942.00,-0.0018
1941.00,-0.0017
1940.00,-0.0015
1939.00,-0.0014
1938.00,-0.0013
1937.00,-0.0013
1936.00,-0.0013
1935.00,-0.0013
1934.00,-0.0013
1933.00,-0.0013
1932.00,-0.0013
1931.00,-0.0014
1930.00,-0.0013
1929.00,-0.0013
1928.00,-0.0012
1927.00,-0.0011
1926.00,-0.0011
1925.00,-0.0010
1924.00,-0.0010
1923.00,-0.0010
1922.00,-0.0009
1921.00,-0.0007
1920.00,-0.0005
1919.00,-0.0005
1918.00,-0.0006
1917.00,-0.0007
1916.00,-0.0007
1915.00,-0.0008
1914.00,-0.0007
1913.00,-0.0006
1912.00,-0.0005
1911.00,-0.0004
1910.00,-0.0004
1909.00,-0.0004
1908.00,-0.0005
1907.00,-0.0004
1906.00,-0.0004
1905.00,-0.0003
1904.00,-0.0003
1903.00,-0.0002
1902.00,-0.0002
1901.00,-0.0003
1900.00,-0.0003
1899.00,-0.0003
1898.00,-0.0003
1897.00,-0.0003
1896.00,-0.0004
1895.00,-0.0004
1894.00,-0.0005
1893.00,-0.0004
1892.00,-0.0003
1891.00,-0.0002
1890.00,-0.0001
1889.00,-0.0001
1888.00,-0.0001
1887.00,-0.0003
1886.00,-0.0004
1885.00,-0.0005
1884.00,-0.0004
1883.00,-0.0004
1882.00,-0.0003
1881.00,-0.0003
1880.00,-0.0003
1879.00,-0.0004
1878.00,-0.0004
1877.00,-0.0004
1876.00,-0.0004
1875.00,-0.0004
1874.00,-0.0004
1873.00,-0.0005
1872.00,-0.0005
1871.00,-0.0005
1870.00,-0.0005
1869.00,-0.0005
1868.00,-0.0005
1867.00,-0.0005
1866.00,-0.0005
1865.00,-0.0004
1864.00,-0.0003
1863.00,-0.0002
1862.00,-0.0001
1861.00,-0.0001
1860.00,-0.0001
1859.00,-0.0001
1858.00,-0.0001
1857.00,-0.0001
1856.00,-0.0001
1855.00,-0.0000
1854.00,0.0000
1853.00,-0.0000
1852.00,-0.0001
1851.00,-0.0001
1850.00,-0.0001
1849.00,-0.0001
1848.00,-0.0001
1847.00,-0.0001
1846.00,-0.0001
1845.00,0.0000
1844.00,0.0001
1843.00,0.0002
1842.00,0.0001
1841.00,0.0001
1840.00,0.0000
1839.00,-0.0001
1838.00,-0.0001
1837.00,-0.0001
1836.00,-0.0000
1835.00,0.0000
1834.00,0.0000
1833.00,0.0000
1832.00,0.0000
1831.00,0.0001
1830.00,0.0001
1829.00,0.0000
1828.00,-0.0000
1827.00,-0.0001
1826.00,-0.0001
1825.00,0.0000
1824.00,0.0001
1823.00,0.0002
1822.00,0.0002
1821.00,0.0001
1820.00,0.0000
1819.00,-0.0001
1818.00,-0.0002
1817.00,-0.0003
1816.00,-0.0003
1815.00,-0.0002
1814.00,-0.0001
1813.00,-0.0000
1812.00,0.0000
1811.00,0.0000
1810.00,0.0000
1809.00,0.0000
1808.00,0.0000
1807.00,0.0000
1806.00,0.0000
1805.00,0.0000
1804.00,-0.0000
1803.00,-0.0000
1802.00,-0.0000
1801.00,0.0000
1800.00,0.0001
1799.00,0.0002
1798.00,0.0003
1797.00,0.0003
1796.00,0.0003
1795.00,0.0002
1794.00,0.0002
1793.00,0.0002
1792.00,0.0002
1791.00,0.0003
1790.00,0.0004
1789.00,0.0004
1788.00,0.0004
1787.00,0.0004
1786.00,0.0004
1785.00,0.0004
1784.00,0.0004
1783.00,0.0005
1782.00,0.0005
1781.00,0.0004
1780.00,0.0004
1779.00,0.0004
1778.00,0.0004
1777.00,0.0004
1776.00,0.0005
1775.00,0.0005
1774.00,0.0006
1773.00,0.0006
1772.00,0.0007
1771.00,0.0007
1770.00,0.0007
1769.00,0.0007
1768.00,0.0007
1767.00,0.0007
1766.00,0.0007
1765.00,0.0008
1764.00,0.0008
1763.00,0.0008
1762.00,0.0008
1761.00,0.0008
1760.00,0.0008
1759.00,0.0008
1758.00,0.0008
1757.00,0.0009
1756.00,0.0009
1755.00,0.0010
1754.00,0.0011
1753.00,0.0011
1752.00,0.0012
1751.00,0.0012
1750.00,0.0012
1749.00,0.0013
1748.00,0.0013
1747.00,0.0014
1746.00,0.0015
1745.00,0.0016
1744.00,0.0017
1743.00,0.0017
1742.00,0.0017
1741.00,0.0018
1740.00,0.0018
1739.00,0.0019
1738.00,0.0020
1737.00,0.0020
1736.00,0.0020
1735.00,0.0020
1734.00,0.0020
1733.00,0.0020
1732.00,0.0020
1731.00,0.0020
1730.00,0.0020
1729.00,0.0020
1728.00,0.0021
1727.00,0.0021
1726.00,0.0021
1725.00,0.0021
1724.00,0.0021
1723.00,0.0021
1722.00,0.0021
1721.00,0.0021
1720.00,0.0021
1719.00,0.0021
1718.00,0.0020
1717.00,0.0020
1716.00,0.0019
1715.00,0.0019
1714.00,0.0018
1713.00,0.0018
1712.00,0.0019
1711.00,0.0019
1710.00,0.0018
1709.00,0.0018
1708.00,0.0018
1707.00,0.0018
1706.00,0.0018
1705.00,0.0018
1704.00,0.0018
1703.00,0.0018
1702.00,0.0018
1701.00,0.0017
1700.00,0.0018
1699.00,0.0018
1698.00,0.0018
1697.00,0.0019
1696.00,0.0020
1695.00,0.0020
1694.00,0.0020
1693.00,0.0021
1692.00,0.0021
1691.00,0.0021
1690.00,0.0021
1689.00,0.0021
1688.00,0.0022
1687.00,0.0022
1686.00,0.0022
1685.00,0.0023
1684.00,0.0023
1683.00,0.0023
1682.00,0.0023
1681.00,0.0023
1680.00,0.0024
1679.00,0.0024
1678.00,0.0024
1677.00,0.0024
1676.00,0.0024
1675.00,0.0025
1674.00,0.0025
1673.00,0.0025
1672.00,0.0025
1671.00,0.0025
1670.00,0.0025
1669.00,0.0026
1668.00,0.0026
1667.00,0.0026
1666.00,0.0026
1665.00,0.0027
1664.00,0.0028
1663.00,0.0028
1662.00,0.0028
1661.00,0.0028
1660.00,0.0028
1659.00,0.0028
1658.00,0.0029
1657.00,0.0029
1656.00,0.0029
1655.00,0.0029
1654.00,0.0028
1653.00,0.0029
1652.00,0.0030
1651.00,0.0030
1650.00,0.0030
1649.00,0.0030
1648.00,0.0030
1647.00,0.0031
1646.00,0.0032
1645.00,0.0033
1644.00,0.0033
1643.00,0.0034
1642.00,0.0034
1641.00,0.0035
1640.00,0.0036
1639.00,0.0036
1638.00,0.0037
1637.00,0.0037
1636.00,0.0038
1635.00,0.0038
1634.00,0.0037
1633.00,0.0037
1632.00,0.0036
1631.00,0.0035
1630.00,0.0035
1629.00,0.0035
1628.00,0.0034
1627.00,0.0034
1626.00,0.0034
1625.00,0.0034
1624.00,0.0034
1623.00,0.0034
1622.00,0.0033
1621.00,0.0033
1620.00,0.0033
1619.00,0.0033
1618.00,0.0033
1617.00,0.0033
1616.00,0.0033
1615.00,0.0033
1614.00,0.0033
1613.00,0.0032
1612.00,0.0033
1611.00,0.0032
1610.00,0.0032
1609.00,0.0032
1608.00,0.0032
1607.00,0.0032
1606.00,0.0031
1605.00,0.0031
1604.00,0.0031
1603.00,0.0031
1602.00,0.0031
1601.00,0.0031
1600.00,0.0031
1599.00,0.0031
1598.00,0.0031
1597.00,0.0030
1596.00,0.0031
1595.00,0.0031
1594.00,0.0031
1593.00,0.0031
1592.00,0.0031
1591.00,0.0031
1590.00,0.0031
1589.00,0.0030
1588.00,0.0030
1587.00,0.0029
1586.00,0.0029
1585.00,0.0030
1584.00,0.0030
1583.00,0.0029
1582.00,0.0029
1581.00,0.0029
1580.00,0.0029
1579.00,0.0029
1578.00,0.0030
1577.00,0.0030
1576.00,0.0030
1575.00,0.0030
1574.00,0.0031
1573.00,0.0031
1572.00,0.0032
1571.00,0.0033
1570.00,0.0034
1569.00,0.0034
1568.00,0.0035
1567.00,0.0035
1566.00,0.0035
1565.00,0.0036
1564.00,0.0036
1563.00,0.0036
1562.00,0.0037
1561.00,0.0038
1560.00,0.0039
1559.00,0.0038
1558.00,0.0038
1557.00,0.0037
1556.00,0.0038
1555.00,0.0038
1554.00,0.0038
1553.00,0.0038
1552.00,0.0038
1551.00,0.0038
1550.00,0.0038
1549.00,0.0038
1548.00,0.0038
1547.00,0.0038
1546.00,0.0037
1545.00,0.0036
1544.00,0.0035
1543.00,0.0034
1542.00,0.0034
1541.00,0.0033
1540.00,0.0033
1539.00,0.0032
1538.00,0.0032
1537.00,0.0033
1536.00,0.0033
1535.00,0.0034
1534.00,0.0034
1533.00,0.0034
1532.00,0.0035
1531.00,0.0035
1530.00,0.0035
1529.00,0.0035
1528.00,0.0035
1527.00,0.0035
1526.00,0.0035
1525.00,0.0036
1524.00,0.0037
1523.00,0.0038
1522.00,0.0039
1521.00,0.0040
1520.00,0.0040
1519.00,0.0040
1518.00,0.0040
1517.00,0.0041
1516.00,0.0042
1515.00,0.0041
1514.00,0.0041
1513.00,0.0042
1512.00,0.0043
1511.00,0.0044
1510.00,0.0045
1509.00,0.0046
1508.00,0.0048
1507.00,0.0048
1506.00,0.0048
1505.00,0.0050
1504.00,0.0053
1503.00,0.0055
1502.00,0.0056
1501.00,0.0059
1500.00,0.0061
1499.00,0.0063
1498.00,0.0065
1497.00,0.0068
1496.00,0.0071
1495.00,0.0073
1494.00,0.0075
1493.00,0.0078
1492.00,0.0081
1491.00,0.0084
1490.00,0.0088
1489.00,0.0093
1488.00,0.0098
1487.00,0.0103
1486.00,0.0108
1485.00,0.0113
1484.00,0.0120
1483.00,0.0127
1482.00,0.0135
1481.00,0.0145
1480.00,0.0156
1479.00,0.0168
1478.00,0.0183
1477.00,0.0203
1476.00,0.0229
1475.00,0.0259
1474.00,0.0299
1473.00,0.0355
1472.00,0.0422
1471.00,0.0488
1470.00,0.0553
1469.00,0.0622
1468.00,0.0695
1467.00,0.0776
1466.00,0.0867
1465.00,0.0964
1464.00,0.1049
1463.00,0.1108
1462.00,0.1145
1461.00,0.1170
1460.00,0.1186
1459.00,0.1195
1458.00,0.1200
1457.00,0.1202
1456.00,0.1197
1455.00,0.1186
1454.00,0.1171
1453.00,0.1150
1452.00,0.1120
1451.00,0.1080
1450.00,0.1026
1449.00,0.0954
1448.00,0.0864
1447.00,0.0770
1446.00,0.0685
1445.00,0.0613
1444.00,0.0551
1443.00,0.0500
1442.00,0.0462
1441.00,0.0436
1440.00,0.0420
1439.00,0.0414
1438.00,0.0415
1437.00,0.0417
1436.00,0.0408
1435.00,0.0385
1434.00,0.0349
1433.00,0.0306
1432.00,0.0261
1431.00,0.0221
1430.00,0.0190
1429.00,0.0167
1428.00,0.0151
1427.00,0.0141
1426.00,0.0134
1425.00,0.0128
1424.00,0.0122
1423.00,0.0118
1422.00,0.0116
1421.00,0.0114
1420.00,0.0110
1419.00,0.0108
1418.00,0.0105
1417.00,0.0103
1416.00,0.0101
1415.00,0.0100
1414.00,0.0099
1413.00,0.0098
1412.00,0.0096
1411.00,0.0095
1410.00,0.0095
1409.00,0.0095
1408.00,0.0094
1407.00,0.0095
1406.00,0.0096
1405.00,0.0097
1404.00,0.0097
1403.00,0.0097
1402.00,0.0099
1401.00,0.0099
1400.00,0.0100
1399.00,0.0102
1398.00,0.0105
1397.00,0.0108
1396.00,0.0110
1395.00,0.0113
1394.00,0.0118
1393.00,0.0123
1392.00,0.0128
1391.00,0.0136
1390.00,0.0146
1389.00,0.0160
1388.00,0.0182
1387.00,0.0214
1386.00,0.0256
1385.00,0.0313
1384.00,0.0390
1383.00,0.0500
1382.00,0.0650
1381.00,0.0846
1380.00,0.1090
1379.00,0.1371
1378.00,0.1646
1377.00,0.1851
1376.00,0.1923
1375.00,0.1829
1374.00,0.1597
1373.00,0.1315
1372.00,0.1054
1371.00,0.0839
1370.00,0.0670
1369.00,0.0543
1368.00,0.0455
1367.00,0.0402
1366.00,0.0372
1365.00,0.0361
1364.00,0.0364
1363.00,0.0377
1362.00,0.0398
1361.00,0.0421
1360.00,0.0438
1359.00,0.0443
1358.00,0.0433
1357.00,0.0407
1356.00,0.0371
1355.00,0.0330
1354.00,0.0291
1353.00,0.0257
1352.00,0.0229
1351.00,0.0207
1350.00,0.0189
1349.00,0.0174
1348.00,0.0162
1347.00,0.0152
1346.00,0.0143
1345.00,0.0135
1344.00,0.0129
1343.00,0.0124
1342.00,0.0120
1341.00,0.0116
1340.00,0.0113
1339.00,0.0111
1338.00,0.0111
1337.00,0.0111
1336.00,0.0112
1335.00,0.0114
1334.00,0.0117
1333.00,0.0121
1332.00,0.0125
1331.00,0.0129
1330.00,0.0130
1329.00,0.0128
1328.00,0.0125
1327.00,0.0120
1326.00,0.0114
1325.00,0.0108
1324.00,0.0103
1323.00,0.0098
1322.00,0.0094
1321.00,0.0090
1320.00,0.0088
1319.00,0.0086
1318.00,0.0084
1317.00,0.0083
1316.00,0.0083
1315.00,0.0082
1314.00,0.0082
1313.00,0.0083
1312.00,0.0083
1311.00,0.0085
1310.00,0.0088
1309.00,0.0094
1308.00,0.0102
1307.00,0.0112
1306.00,0.0121
1305.00,0.0128
1304.00,0.0130
1303.00,0.0128
1302.00,0.0124
1301.00,0.0121
1300.00,0.0119
1299.00,0.0119
1298.00,0.0120
1297.00,0.0121
1296.00,0.0121
1295.00,0.0118
1294.00,0.0114
1293.00,0.0109
1292.00,0.0103
1291.00,0.0098
1290.00,0.0094
1289.00,0.0090
1288.00,0.0087
1287.00,0.0085
1286.00,0.0083
1285.00,0.0081
1284.00,0.0080
1283.00,0.0079
1282.00,0.0078
1281.00,0.0076
1280.00,0.0075
1279.00,0.0074
1278.00,0.0073
1277.00,0.0073
1276.00,0.0072
1275.00,0.0072
1274.00,0.0073
1273.00,0.0074
1272.00,0.0074
1271.00,0.0074
1270.00,0.0074
1269.00,0.0075
1268.00,0.0076
1267.00,0.0077
1266.00,0.0079
1265.00,0.0080
1264.00,0.0082
1263.00,0.0084
1262.00,0.0086
1261.00,0.0089
1260.00,0.0094
1259.00,0.0100
1258.00,0.0106
1257.00,0.0112
1256.00,0.0114
1255.00,0.0113
1254.00,0.0108
1253.00,0.0101
1252.00,0.0094
1251.00,0.0088
1250.00,0.0083
1249.00,0.0079
1248.00,0.0076
1247.00,0.0074
1246.00,0.0072
1245.00,0.0070
1244.00,0.0069
1243.00,0.0068
1242.00,0.0067
1241.00,0.0067
1240.00,0.0066
1239.00,0.0066
1238.00,0.0066
1237.00,0.0065
1236.00,0.0064
1235.00,0.0064
1234.00,0.0064
1233.00,0.0065
1232.00,0.0065
1231.00,0.0066
1230.00,0.0068
1229.00,0.0070
1228.00,0.0072
1227.00,0.0075
1226.00,0.0077
1225.00,0.0080
1224.00,0.0082
1223.00,0.0085
1222.00,0.0088
1221.00,0.0091
1220.00,0.0093
1219.00,0.0094
1218.00,0.0093
1217.00,0.0091
1216.00,0.0088
1215.00,0.0085
1214.00,0.0082
1213.00,0.0080
1212.00,0.0078
1211.00,0.0075
1210.00,0.0073
1209.00,0.0071
1208.00,0.0070
1207.00,0.0069
1206.00,0.0068
1205.00,0.0068
1204.00,0.0068
1203.00,0.0068
1202.00,0.0068
1201.00,0.0068
1200.00,0.0067
1199.00,0.0067
1198.00,0.0068
1197.00,0.0068
1196.00,0.0069
1195.00,0.0069
1194.00,0.0068
1193.00,0.0068
1192.00,0.0067
1191.00,0.0067
1190.00,0.0067
1189.00,0.0067
1188.00,0.0066
1187.00,0.0066
1186.00,0.0067
1185.00,0.0068
1184.00,0.0069
1183.00,0.0071
1182.00,0.0073
1181.00,0.0075
1180.00,0.0078
1179.00,0.0082
1178.00,0.0087
1177.00,0.0094
1176.00,0.0103
1175.00,0.0117
1174.00,0.0135
1173.00,0.0158
1172.00,0.0184
1171.00,0.0212
1170.00,0.0239
1169.00,0.0261
1168.00,0.0274
1167.00,0.0276
1166.00,0.0270
1165.00,0.0258
1164.00,0.0243
1163.00,0.0229
1162.00,0.0217
1161.00,0.0208
1160.00,0.0201
1159.00,0.0195
1158.00,0.0192
1157.00,0.0189
1156.00,0.0188
1155.00,0.0187
1154.00,0.0186
1153.00,0.0184
1152.00,0.0179
1151.00,0.0172
1150.00,0.0164
1149.00,0.0155
1148.00,0.0146
1147.00,0.0138
1146.00,0.0129
1145.00,0.0120
1144.00,0.0112
1143.00,0.0105
1142.00,0.0099
1141.00,0.0093
1140.00,0.0089
1139.00,0.0085
1138.00,0.0081
1137.00,0.0078
1136.00,0.0075
1135.00,0.0072
1134.00,0.0069
1133.00,0.0068
1132.00,0.0068
1131.00,0.0068
1130.00,0.0068
1129.00,0.0069
1128.00,0.0071
1127.00,0.0072
1126.00,0.0073
1125.00,0.0074
1124.00,0.0074
1123.00,0.0074
1122.00,0.0074
1121.00,0.0074
1120.00,0.0074
1119.00,0.0075
1118.00,0.0075
1117.00,0.0076
1116.00,0.0076
1115.00,0.0076
1114.00,0.0076
1113.00,0.0076
1112.00,0.0078
1111.00,0.0081
1110.00,0.0085
1109.00,0.0090
1108.00,0.0096
1107.00,0.0102
1106.00,0.0109
1105.00,0.0115
1104.00,0.0120
1103.00,0.0122
1102.00,0.0121
1101.00,0.0117
1100.00,0.0111
1099.00,0.0104
1098.00,0.0098
1097.00,0.0092
1096.00,0.0088
1095.00,0.0084
1094.00,0.0080
1093.00,0.0077
1092.00,0.0075
1091.00,0.0074
1090.00,0.0074
1089.00,0.0074
1088.00,0.0073
1087.00,0.0072
1086.00,0.0071
1085.00,0.0070
1084.00,0.0070
1083.00,0.0069
1082.00,0.0070
1081.00,0.0071
1080.00,0.0071
1079.00,0.0071
1078.00,0.0070
1077.00,0.0069
1076.00,0.0069
1075.00,0.0068
1074.00,0.0068
1073.00,0.0067
1072.00,0.0067
1071.00,0.0067
1070.00,0.0068
1069.00,0.0068
1068.00,0.0069
1067.00,0.0070
1066.00,0.0070
1065.00,0.0071
1064.00,0.0071
1063.00,0.0070
1062.00,0.0070
1061.00,0.0070
1060.00,0.0070
1059.00,0.0070
1058.00,0.0071
1057.00,0.0073
1056.00,0.0075
1055.00,0.0077
1054.00,0.0080
1053.00,0.0083
1052.00,0.0086
1051.00,0.0089
1050.00,0.0092
1049.00,0.0097
1048.00,0.0102
1047.00,0.0107
1046.00,0.0111
1045.00,0.0113
1044.00,0.0114
1043.00,0.0114
1042.00,0.0113
1041.00,0.0112
1040.00,0.0111
1039.00,0.0112
1038.00,0.0113
1037.00,0.0114
1036.00,0.0114
1035.00,0.0113
1034.00,0.0112
1033.00,0.0110
1032.00,0.0108
1031.00,0.0106
1030.00,0.0105
1029.00,0.0104
1028.00,0.0105
1027.00,0.0106
1026.00,0.0108
1025.00,0.0111
1024.00,0.0113
1023.00,0.0115
1022.00,0.0118
1021.00,0.0120
1020.00,0.0121
1019.00,0.0122
1018.00,0.0123
1017.00,0.0123
1016.00,0.0124
1015.00,0.0125
1014.00,0.0126
1013.00,0.0127
1012.00,0.0128
1011.00,0.0129
1010.00,0.0130
1009.00,0.0131
1008.00,0.0132
1007.00,0.0135
1006.00,0.0140
1005.00,0.0149
1004.00,0.0162
1003.00,0.0181
1002.00,0.0207
1001.00,0.0239
1000.00,0.0273
999.00,0.0300
998.00,0.0313
997.00,0.0305
996.00,0.0280
995.00,0.0246
994.00,0.0210
993.00,0.0180
992.00,0.0157
991.00,0.0140
990.00,0.0127
989.00,0.0119
988.00,0.0114
987.00,0.0112
986.00,0.0111
985.00,0.0113
984.00,0.0116
983.00,0.0122
982.00,0.0133
981.00,0.0148
980.00,0.0168
979.00,0.0194
978.00,0.0227
977.00,0.0265
976.00,0.0306
975.00,0.0344
974.00,0.0370
973.00,0.0377
972.00,0.0362
971.00,0.0327
970.00,0.0282
969.00,0.0237
968.00,0.0199
967.00,0.0169
966.00,0.0147
965.00,0.0131
964.00,0.0119
963.00,0.0111
962.00,0.0104
961.00,0.0098
960.00,0.0094
959.00,0.0091
958.00,0.0088
957.00,0.0084
956.00,0.0081
955.00,0.0079
954.00,0.0078
953.00,0.0077
952.00,0.0076
951.00,0.0075
950.00,0.0075
949.00,0.0074
948.00,0.0074
947.00,0.0076
946.00,0.0078
945.00,0.0081
944.00,0.0084
943.00,0.0087
942.00,0.0090
941.00,0.0092
940.00,0.0092
939.00,0.0089
938.00,0.0084
937.00,0.0079
936.00,0.0075
935.00,0.0071
934.00,0.0068
933.00,0.0065
932.00,0.0062
931.00,0.0059
930.00,0.0058
929.00,0.0058
928.00,0.0058
927.00,0.0059
926.00,0.0059
925.00,0.0059
924.00,0.0060
923.00,0.0060
922.00,0.0059
921.00,0.0058
920.00,0.0058
919.00,0.0058
918.00,0.0059
917.00,0.0059
916.00,0.0059
915.00,0.0060
914.00,0.0061
913.00,0.0062
912.00,0.0064
911.00,0.0066
910.00,0.0068
909.00,0.0070
908.00,0.0074
907.00,0.0078
906.00,0.0085
905.00,0.0095
904.00,0.0109
903.00,0.0127
902.00,0.0147
901.00,0.0165
900.00,0.0177
899.00,0.0179
898.00,0.0170
897.00,0.0153
896.00,0.0133
895.00,0.0115
894.00,0.0101
893.00,0.0091
892.00,0.0084
891.00,0.0078
890.00,0.0075
889.00,0.0073
888.00,0.0072
887.00,0.0071
886.00,0.0070
885.00,0.0069
884.00,0.0067
883.00,0.0065
882.00,0.0064
881.00,0.0064
880.00,0.0065
879.00,0.0066
878.00,0.0067
877.00,0.0068
876.00,0.0068
875.00,0.0070
874.00,0.0071
873.00,0.0072
872.00,0.0072
871.00,0.0071
870.00,0.0071
869.00,0.0071
868.00,0.0072
867.00,0.0072
866.00,0.0072
865.00,0.0072
864.00,0.0073
863.00,0.0075
862.00,0.0076
861.00,0.0077
860.00,0.0077
859.00,0.0078
858.00,0.0080
857.00,0.0082
856.00,0.0084
855.00,0.0087
854.00,0.0088
853.00,0.0089
852.00,0.0091
851.00,0.0094
850.00,0.0098
849.00,0.0104
848.00,0.0110
847.00,0.0121
846.00,0.0138
845.00,0.0165
844.00,0.0204
843.00,0.0248
842.00,0.0284
841.00,0.0295
840.00,0.0275
839.00,0.0234
838.00,0.0189
837.00,0.0154
836.00,0.0131
835.00,0.0118
834.00,0.0110
833.00,0.0105
832.00,0.0101
831.00,0.0098
830.00,0.0096
829.00,0.0094
828.00,0.0093
827.00,0.0091
826.00,0.0090
825.00,0.0088
824.00,0.0087
823.00,0.0087
822.00,0.0088
821.00,0.0091
820.00,0.0094
819.00,0.0097
818.00,0.0100
817.00,0.0105
816.00,0.0112
815.00,0.0124
814.00,0.0139
813.00,0.0159
812.00,0.0179
811.00,0.0199
810.00,0.0213
809.00,0.0219
808.00,0.0215
807.00,0.0203
806.00,0.0184
805.00,0.0165
804.00,0.0147
803.00,0.0134
802.00,0.0124
801.00,0.0117
800.00,0.0110
799.00,0.0105
798.00,0.0101
797.00,0.0097
796.00,0.0094
795.00,0.0092
794.00,0.0089
793.00,0.0087
792.00,0.0083
791.00,0.0079
790.00,0.0076
789.00,0.0074
788.00,0.0072
787.00,0.0070
786.00,0.0068
785.00,0.0065
784.00,0.0063
783.00,0.0062
782.00,0.0062
781.00,0.0061
780.00,0.0061
779.00,0.0060
778.00,0.0059
777.00,0.0059
776.00,0.0059
775.00,0.0059
774.00,0.0060
773.00,0.0060
772.00,0.0060
771.00,0.0060
770.00,0.0060
769.00,0.0060
768.00,0.0060
767.00,0.0060
766.00,0.0060
765.00,0.0061
764.00,0.0062
763.00,0.0062
762.00,0.0062
761.00,0.0061
760.00,0.0060
759.00,0.0060
758.00,0.0060
757.00,0.0061
756.00,0.0062
755.00,0.0063
754.00,0.0064
753.00,0.0066
752.00,0.0067
751.00,0.0069
750.00,0.0070
749.00,0.0072
748.00,0.0074
747.00,0.0075
746.00,0.0077
745.00,0.0079
744.00,0.0080
743.00,0.0082
742.00,0.0084
741.00,0.0087
740.00,0.0090
739.00,0.0094
738.00,0.0098
737.00,0.0103
736.00,0.0108
735.00,0.0112
734.00,0.0117
733.00,0.0124
732.00,0.0130
731.00,0.0136
730.00,0.0140
729.00,0.0140
728.00,0.0138
727.00,0.0138
726.00,0.0140
725.00,0.0145
724.00,0.0150
723.00,0.0157
722.00,0.0164
721.00,0.0168
720.00,0.0168
719.00,0.0161
718.00,0.0149
717.00,0.0136
716.00,0.0124
715.00,0.0114
714.00,0.0108
713.00,0.0103
712.00,0.0100
711.00,0.0098
710.00,0.0097
709.00,0.0097
708.00,0.0097
707.00,0.0096
706.00,0.0094
705.00,0.0092
704.00,0.0089
703.00,0.0087
702.00,0.0087
701.00,0.0087
700.00,0.0086
699.00,0.0085
698.00,0.0084
697.00,0.0083
696.00,0.0083
695.00,0.0083
694.00,0.0085
693.00,0.0087
692.00,0.0090
691.00,0.0091
690.00,0.0091
689.00,0.0089
688.00,0.0087
687.00,0.0086
686.00,0.0087
685.00,0.0089
684.00,0.0090
683.00,0.0089
682.00,0.0087
681.00,0.0084
680.00,0.0081
679.00,0.0080
678.00,0.0080
677.00,0.0083
676.00,0.0085
675.00,0.0088
674.00,0.0091
673.00,0.0092
672.00,0.0094
671.00,0.0095
670.00,0.0097
669.00,0.0098
668.00,0.0098
667.00,0.0097
666.00,0.0093
665.00,0.0088
664.00,0.0084
663.00,0.0082
662.00,0.0082
661.00,0.0082
660.00,0.0082
659.00,0.0081
658.00,0.0081
657.00,0.0081
656.00,0.0081
655.00,0.0080
654.00,0.0079
653.00,0.0078
652.00,0.0077
651.00,0.0075
650.00,0.0074
649.00,0.0072
648.00,0.0071
647.00,0.0072
646.00,0.0073
645.00,0.0074
644.00,0.0073
643.00,0.0071
642.00,0.0069
641.00,0.0067
640.00,0.0067
639.00,0.0069
638.00,0.0071
637.00,0.0073
636.00,0.0075
635.00,0.0075
634.00,0.0075
633.00,0.0074
632.00,0.0074
631.00,0.0073
630.00,0.0073
629.00,0.0072
628.00,0.0072
627.00,0.0072
626.00,0.0073
625.00,0.0074
624.00,0.0074
623.00,0.0073
622.00,0.0073
621.00,0.0072
620.00,0.0072
619.00,0.0072
618.00,0.0073
617.00,0.0074
616.00,0.0073
615.00,0.0071
614.00,0.0072
613.00,0.0074
612.00,0.0078
611.00,0.0081
610.00,0.0083
609.00,0.0083
608.00,0.0082
607.00,0.0079
606.00,0.0076
605.00,0.0076
604.00,0.0077
603.00,0.0078
602.00,0.0077
601.00,0.0076
600.00,0.0075
599.00,0.0075
598.00,0.0076
597.00,0.0076
596.00,0.0075
595.00,0.0074
594.00,0.0073
593.00,0.0073
592.00,0.0074
591.00,0.0075
590.00,0.0075
589.00,0.0075
588.00,0.0074
587.00,0.0072
586.00,0.0069
585.00,0.0066
584.00,0.0064
583.00,0.0064
582.00,0.0066
581.00,0.0069
580.00,0.0072
579.00,0.0073
578.00,0.0073
577.00,0.0073
576.00,0.0072
575.00,0.0070
574.00,0.0067
573.00,0.0065
572.00,0.0066
571.00,0.0070
570.00,0.0076
569.00,0.0080
568.00,0.0082
567.00,0.0080
566.00,0.0078
565.00,0.0076
564.00,0.0076
563.00,0.0076
562.00,0.0075
561.00,0.0072
560.00,0.0070
559.00,0.0069
558.00,0.0068
557.00,0.0067
556.00,0.0066
555.00,0.0065
554.00,0.0066
553.00,0.0068
552.00,0.0072
551.00,0.0079
550.00,0.0086
549.00,0.0092
548.00,0.0095
547.00,0.0095
546.00,0.0092
545.00,0.0090
544.00,0.0088
543.00,0.0088
542.00,0.0088
541.00,0.0088
540.00,0.0090
539.00,0.0094
538.00,0.0098
537.00,0.0099
536.00,0.0099
535.00,0.0099
534.00,0.0101
533.00,0.0104
532.00,0.0106
531.00,0.0106
530.00,0.0105
529.00,0.0103
528.00,0.0103
527.00,0.0104
526.00,0.0106
525.00,0.0107
524.00,0.0105
523.00,0.0101
522.00,0.0095
521.00,0.0087
520.00,0.0079
519.00,0.0071
518.00,0.0066
517.00,0.0063
516.00,0.0066
515.00,0.0072
514.00,0.0080
513.00,0.0086
512.00,0.0087
511.00,0.0084
510.00,0.0079
509.00,0.0074
508.00,0.0070
507.00,0.0069
506.00,0.0073
505.00,0.0079
504.00,0.0083
503.00,0.0083
502.00,0.0082
501.00,0.0080
500.00,0.0078
499.00,0.0077
498.00,0.0076
497.00,0.0075
496.00,0.0072
495.00,0.0069
494.00,0.0066
493.00,0.0064
492.00,0.0062
491.00,0.0063
490.00,0.0065
489.00,0.0071
488.00,0.0077
487.00,0.0082
486.00,0.0083
485.00,0.0080
484.00,0.0078
483.00,0.0081
482.00,0.0087
481.00,0.0095
480.00,0.0103
479.00,0.0109
478.00,0.0115
477.00,0.0121
476.00,0.0125
475.00,0.0126
474.00,0.0125
473.00,0.0125
472.00,0.0128
471.00,0.0136
470.00,0.0146
469.00,0.0154
468.00,0.0158
467.00,0.0160
466.00,0.0162
465.00,0.0167
464.00,0.0174
463.00,0.0183
462.00,0.0191
461.00,0.0197
460.00,0.0197
459.00,0.0190
458.00,0.0180
457.00,0.0177
456.00,0.0184
455.00,0.0192
454.00,0.0193
453.00,0.0184
452.00,0.0169
451.00,0.0157
450.00,0.0150
