Created as New Dataset,Sample 143 By Administrator Date Wednesday, September 03 2025
cm-1,A
4000.00,0.0006
3999.00,0.0006
3998.00,0.0005
3997.00,0.0005
3996.00,0.0005
3995.00,0.0005
3994.00,0.0005
3993.00,0.0005
3992.00,0.0005
3991.00,0.0005
3990.00,0.0005
3989.00,0.0005
3988.00,0.0005
3987.00,0.0005
3986.00,0.0005
3985.00,0.0005
3984.00,0.0005
3983.00,0.0005
3982.00,0.0005
3981.00,0.0005
3980.00,0.0005
3979.00,0.0004
3978.00,0.0004
3977.00,0.0004
3976.00,0.0003
3975.00,0.0003
3974.00,0.0003
3973.00,0.0003
3972.00,0.0004
3971.00,0.0004
3970.00,0.0004
3969.00,0.0004
3968.00,0.0004
3967.00,0.0003
3966.00,0.0003
3965.00,0.0003
3964.00,0.0003
3963.00,0.0003
3962.00,0.0003
3961.00,0.0003
3960.00,0.0003
3959.00,0.0003
3958.00,0.0003
3957.00,0.0003
3956.00,0.0003
3955.00,0.0003
3954.00,0.0003
3953.00,0.0003
3952.00,0.0004
3951.00,0.0004
3950.00,0.0004
3949.00,0.0004
3948.00,0.0004
3947.00,0.0004
3946.00,0.0004
3945.00,0.0004
3944.00,0.0004
3943.00,0.0003
3942.00,0.0003
3941.00,0.0003
3940.00,0.0003
3939.00,0.0003
3938.00,0.0003
3937.00,0.0003
3936.00,0.0004
3935.00,0.0004
3934.00,0.0005
3933.00,0.0005
3932.00,0.0004
3931.00,0.0004
3930.00,0.0003
3929.00,0.0003
3928.00,0.0003
3927.00,0.0003
3926.00,0.0004
3925.00,0.0004
3924.00,0.0004
3923.00,0.0005
3922.00,0.0005
3921.00,0.0004
3920.00,0.0004
3919.00,0.0004
3918.00,0.0004
3917.00,0.0004
3916.00,0.0004
3915.00,0.0004
3914.00,0.0004
3913.00,0.0004
3912.00,0.0003
3911.00,0.0003
3910.00,0.0002
3909.00,0.0002
3908.00,0.0002
3907.00,0.0002
3906.00,0.0003
3905.00,0.0003
3904.00,0.0003
3903.00,0.0003
3902.00,0.0003
3901.00,0.0003
3900.00,0.0003
3899.00,0.0003
3898.00,0.0003
3897.00,0.0003
3896.00,0.0003
3895.00,0.0003
3894.00,0.0004
3893.00,0.0004
3892.00,0.0004
3891.00,0.0004
3890.00,0.0004
3889.00,0.0003
3888.00,0.0003
3887.00,0.0003
3886.00,0.0003
3885.00,0.0003
3884.00,0.0003
3883.00,0.0003
3882.00,0.0003
3881.00,0.0004
3880.00,0.0003
3879.00,0.0003
3878.00,0.0003
3877.00,0.0003
3876.00,0.0003
3875.00,0.0003
3874.00,0.0003
3873.00,0.0003
3872.00,0.0003
3871.00,0.0003
3870.00,0.0003
3869.00,0.0003
3868.00,0.0003
3867.00,0.0003
3866.00,0.0003
3865.00,0.0003
3864.00,0.0003
3863.00,0.0003
3862.00,0.0002
3861.00,0.0002
3860.00,0.0002
3859.00,0.0001
3858.00,0.0001
3857.00,0.0002
3856.00,0.0003
3855.00,0.0003
3854.00,0.0003
3853.00,0.0003
3852.00,0.0002
3851.00,0.0002
3850.00,0.0001
3849.00,0.0002
3848.00,0.0002
3847.00,0.0002
3846.00,0.0003
3845.00,0.0003
3844.00,0.0003
3843.00,0.0002
3842.00,0.0002
3841.00,0.0002
3840.00,0.0002
3839.00,0.0002
3838.00,0.0002
3837.00,0.0003
3836.00,0.0003
3835.00,0.0003
3834.00,0.0003
3833.00,0.0002
3832.00,0.0002
3831.00,0.0002
3830.00,0.0001
3829.00,0.0002
3828.00,0.0002
3827.00,0.0002
3826.00,0.0002
3825.00,0.0002
3824.00,0.0002
3823.00,0.0003
3822.00,0.0003
3821.00,0.0003
3820.00,0.0003
3819.00,0.0003
3818.00,0.0003
3817.00,0.0003
3816.00,0.0003
3815.00,0.0003
3814.00,0.0003
3813.00,0.0003
3812.00,0.0003
3811.00,0.0003
3810.00,0.0003
3809.00,0.0003
3808.00,0.0003
3807.00,0.0002
3806.00,0.0002
3805.00,0.0003
3804.00,0.0003
3803.00,0.0003
3802.00,0.0003
3801.00,0.0003
3800.00,0.0003
3799.00,0.0003
3798.00,0.0003
3797.00,0.0003
3796.00,0.0004
3795.00,0.0004
3794.00,0.0004
3793.00,0.0004
3792.00,0.0003
3791.00,0.0003
3790.00,0.0003
3789.00,0.0003
3788.00,0.0003
3787.00,0.0003
3786.00,0.0003
3785.00,0.0003
3784.00,0.0003
3783.00,0.0002
3782.00,0.0002
3781.00,0.0002
3780.00,0.0002
3779.00,0.0002
3778.00,0.0003
3777.00,0.0003
3776.00,0.0003
3775.00,0.0003
3774.00,0.0003
3773.00,0.0003
3772.00,0.0003
3771.00,0.0003
3770.00,0.0003
3769.00,0.0004
3768.00,0.0004
3767.00,0.0004
3766.00,0.0004
3765.00,0.0004
3764.00,0.0005
3763.00,0.0005
3762.00,0.0004
3761.00,0.0004
3760.00,0.0004
3759.00,0.0004
3758.00,0.0004
3757.00,0.0003
3756.00,0.0003
3755.00,0.0003
3754.00,0.0003
3753.00,0.0002
3752.00,0.0002
3751.00,0.0002
3750.00,0.0002
3749.00,0.0002
3748.00,0.0002
3747.00,0.0002
3746.00,0.0002
3745.00,0.0002
3744.00,0.0002
3743.00,0.0002
3742.00,0.0002
3741.00,0.0002
3740.00,0.0002
3739.00,0.0002
3738.00,0.0002
3737.00,0.0002
3736.00,0.0001
3735.00,0.0002
3734.00,0.0002
3733.00,0.0002
3732.00,0.0002
3731.00,0.0002
3730.00,0.0002
3729.00,0.0002
3728.00,0.0002
3727.00,0.0002
3726.00,0.0002
3725.00,0.0002
3724.00,0.0002
3723.00,0.0002
3722.00,0.0002
3721.00,0.0002
3720.00,0.0002
3719.00,0.0002
3718.00,0.0002
3717.00,0.0002
3716.00,0.0002
3715.00,0.0002
3714.00,0.0003
3713.00,0.0003
3712.00,0.0003
3711.00,0.0003
3710.00,0.0003
3709.00,0.0003
3708.00,0.0003
3707.00,0.0003
3706.00,0.0003
3705.00,0.0003
3704.00,0.0003
3703.00,0.0003
3702.00,0.0002
3701.00,0.0002
3700.00,0.0002
3699.00,0.0001
3698.00,0.0001
3697.00,0.0001
3696.00,0.0001
3695.00,0.0000
3694.00,0.0000
3693.00,0.0000
3692.00,0.0000
3691.00,0.0000
3690.00,0.0000
3689.00,0.0001
3688.00,0.0001
3687.00,0.0001
3686.00,0.0002
3685.00,0.0002
3684.00,0.0002
3683.00,0.0003
3682.00,0.0003
3681.00,0.0003
3680.00,0.0003
3679.00,0.0003
3678.00,0.0003
3677.00,0.0003
3676.00,0.0003
3675.00,0.0002
3674.00,0.0002
3673.00,0.0001
3672.00,0.0000
3671.00,0.0000
3670.00,0.0001
3669.00,0.0001
3668.00,0.0002
3667.00,0.0001
3666.00,0.0001
3665.00,0.0001
3664.00,0.0001
3663.00,0.0002
3662.00,0.0002
3661.00,0.0002
3660.00,0.0001
3659.00,0.0001
3658.00,0.0001
3657.00,0.0000
3656.00,0.0001
3655.00,0.0001
3654.00,0.0001
3653.00,0.0001
3652.00,0.0000
3651.00,-0.0000
3650.00,-0.0000
3649.00,0.0000
3648.00,0.0001
3647.00,0.0002
3646.00,0.0003
3645.00,0.0003
3644.00,0.0002
3643.00,0.0002
3642.00,0.0002
3641.00,0.0002
3640.00,0.0002
3639.00,0.0002
3638.00,0.0002
3637.00,0.0002
3636.00,0.0002
3635.00,0.0002
3634.00,0.0002
3633.00,0.0003
3632.00,0.0003
3631.00,0.0003
3630.00,0.0003
3629.00,0.0003
3628.00,0.0003
3627.00,0.0003
3626.00,0.0003
3625.00,0.0002
3624.00,0.0002
3623.00,0.0003
3622.00,0.0003
3621.00,0.0004
3620.00,0.0004
3619.00,0.0003
3618.00,0.0003
3617.00,0.0003
3616.00,0.0003
3615.00,0.0003
3614.00,0.0003
3613.00,0.0004
3612.00,0.0004
3611.00,0.0005
3610.00,0.0005
3609.00,0.0005
3608.00,0.0005
3607.00,0.0004
3606.00,0.0004
3605.00,0.0004
3604.00,0.0004
3603.00,0.0004
3602.00,0.0004
3601.00,0.0004
3600.00,0.0004
3599.00,0.0004
3598.00,0.0004
3597.00,0.0005
3596.00,0.0005
3595.00,0.0006
3594.00,0.0006
3593.00,0.0006
3592.00,0.0006
3591.00,0.0006
3590.00,0.0006
3589.00,0.0006
3588.00,0.0006
3587.00,0.0007
3586.00,0.0007
3585.00,0.0007
3584.00,0.0007
3583.00,0.0007
3582.00,0.0006
3581.00,0.0006
3580.00,0.0006
3579.00,0.0006
3578.00,0.0006
3577.00,0.0007
3576.00,0.0007
3575.00,0.0008
3574.00,0.0008
3573.00,0.0008
3572.00,0.0008
3571.00,0.0008
3570.00,0.0009
3569.00,0.0009
3568.00,0.0009
3567.00,0.0009
3566.00,0.0009
3565.00,0.0010
3564.00,0.0010
3563.00,0.0011
3562.00,0.0011
3561.00,0.0011
3560.00,0.0011
3559.00,0.0011
3558.00,0.0012
3557.00,0.0012
3556.00,0.0012
3555.00,0.0012
3554.00,0.0012
3553.00,0.0012
3552.00,0.0012
3551.00,0.0012
3550.00,0.0013
3549.00,0.0013
3548.00,0.0014
3547.00,0.0014
3546.00,0.0014
3545.00,0.0014
3544.00,0.0014
3543.00,0.0014
3542.00,0.0015
3541.00,0.0015
3540.00,0.0015
3539.00,0.0015
3538.00,0.0015
3537.00,0.0015
3536.00,0.0015
3535.00,0.0015
3534.00,0.0016
3533.00,0.0017
3532.00,0.0017
3531.00,0.0017
3530.00,0.0017
3529.00,0.0017
3528.00,0.0017
3527.00,0.0017
3526.00,0.0017
3525.00,0.0017
3524.00,0.0018
3523.00,0.0018
3522.00,0.0018
3521.00,0.0019
3520.00,0.0019
3519.00,0.0020
3518.00,0.0020
3517.00,0.0021
3516.00,0.0021
3515.00,0.0022
3514.00,0.0022
3513.00,0.0022
3512.00,0.0022
3511.00,0.0022
3510.00,0.0023
3509.00,0.0023
3508.00,0.0023
3507.00,0.0023
3506.00,0.0023
3505.00,0.0023
3504.00,0.0023
3503.00,0.0024
3502.00,0.0024
3501.00,0.0025
3500.00,0.0025
3499.00,0.0025
3498.00,0.0024
3497.00,0.0024
3496.00,0.0024
3495.00,0.0025
3494.00,0.0025
3493.00,0.0026
3492.00,0.0026
3491.00,0.0026
3490.00,0.0026
3489.00,0.0027
3488.00,0.0027
3487.00,0.0027
3486.00,0.0027
3485.00,0.0027
3484.00,0.0027
3483.00,0.0027
3482.00,0.0028
3481.00,0.0028
3480.00,0.0029
3479.00,0.0029
3478.00,0.0029
3477.00,0.0029
3476.00,0.0029
3475.00,0.0029
3474.00,0.0029
3473.00,0.0029
3472.00,0.0030
3471.00,0.0030
3470.00,0.0030
3469.00,0.0030
3468.00,0.0030
3467.00,0.0030
3466.00,0.0030
3465.00,0.0031
3464.00,0.0031
3463.00,0.0032
3462.00,0.0033
3461.00,0.0033
3460.00,0.0033
3459.00,0.0033
3458.00,0.0033
3457.00,0.0034
3456.00,0.0034
3455.00,0.0034
3454.00,0.0034
3453.00,0.0034
3452.00,0.0033
3451.00,0.0033
3450.00,0.0034
3449.00,0.0034
3448.00,0.0035
3447.00,0.0035
3446.00,0.0035
3445.00,0.0035
3444.00,0.0036
3443.00,0.0036
3442.00,0.0036
3441.00,0.0036
3440.00,0.0037
3439.00,0.0037
3438.00,0.0037
3437.00,0.0038
3436.00,0.0038
3435.00,0.0038
3434.00,0.0038
3433.00,0.0038
3432.00,0.0038
3431.00,0.0038
3430.00,0.0038
3429.00,0.0039
3428.00,0.0039
3427.00,0.0040
3426.00,0.0040
3425.00,0.0040
3424.00,0.0040
3423.00,0.0040
3422.00,0.0040
3421.00,0.0040
3420.00,0.0041
3419.00,0.0041
3418.00,0.0041
3417.00,0.0041
3416.00,0.0041
3415.00,0.0041
3414.00,0.0042
3413.00,0.0043
3412.00,0.0043
3411.00,0.0044
3410.00,0.0044
3409.00,0.0044
3408.00,0.0044
3407.00,0.0044
3406.00,0.0045
3405.00,0.0045
3404.00,0.0045
3403.00,0.0045
3402.00,0.0045
3401.00,0.0046
3400.00,0.0046
3399.00,0.0046
3398.00,0.0046
3397.00,0.0046
3396.00,0.0046
3395.00,0.0046
3394.00,0.0046
3393.00,0.0046
3392.00,0.0046
3391.00,0.0047
3390.00,0.0047
3389.00,0.0047
3388.00,0.0047
3387.00,0.0046
3386.00,0.0046
3385.00,0.0046
3384.00,0.0046
3383.00,0.0046
3382.00,0.0046
3381.00,0.0046
3380.00,0.0046
3379.00,0.0046
3378.00,0.0046
3377.00,0.0046
3376.00,0.0046
3375.00,0.0046
3374.00,0.0046
3373.00,0.0046
3372.00,0.0046
3371.00,0.0047
3370.00,0.0047
3369.00,0.0047
3368.00,0.0047
3367.00,0.0046
3366.00,0.0046
3365.00,0.0046
3364.00,0.0046
3363.00,0.0046
3362.00,0.0046
3361.00,0.0046
3360.00,0.0047
3359.00,0.0047
3358.00,0.0047
3357.00,0.0047
3356.00,0.0047
3355.00,0.0048
3354.00,0.0047
3353.00,0.0047
3352.00,0.0047
3351.00,0.0047
3350.00,0.0047
3349.00,0.0047
3348.00,0.0047
3347.00,0.0047
3346.00,0.0047
3345.00,0.0047
3344.00,0.0047
3343.00,0.0047
3342.00,0.0047
3341.00,0.0046
3340.00,0.0046
3339.00,0.0046
3338.00,0.0047
3337.00,0.0047
3336.00,0.0047
3335.00,0.0047
3334.00,0.0047
3333.00,0.0047
3332.00,0.0047
3331.00,0.0047
3330.00,0.0047
3329.00,0.0047
3328.00,0.0046
3327.00,0.0046
3326.00,0.0046
3325.00,0.0046
3324.00,0.0046
3323.00,0.0046
3322.00,0.0046
3321.00,0.0046
3320.00,0.0046
3319.00,0.0045
3318.00,0.0045
3317.00,0.0045
3316.00,0.0045
3315.00,0.0045
3314.00,0.0045
3313.00,0.0045
3312.00,0.0046
3311.00,0.0046
3310.00,0.0047
3309.00,0.0047
3308.00,0.0047
3307.00,0.0046
3306.00,0.0046
3305.00,0.0046
3304.00,0.0047
3303.00,0.0047
3302.00,0.0048
3301.00,0.0048
3300.00,0.0048
3299.00,0.0048
3298.00,0.0047
3297.00,0.0046
3296.00,0.0046
3295.00,0.0045
3294.00,0.0045
3293.00,0.0044
3292.00,0.0044
3291.00,0.0044
3290.00,0.0044
3289.00,0.0044
3288.00,0.0044
3287.00,0.0044
3286.00,0.0044
3285.00,0.0044
3284.00,0.0044
3283.00,0.0044
3282.00,0.0043
3281.00,0.0043
3280.00,0.0043
3279.00,0.0043
3278.00,0.0043
3277.00,0.0043
3276.00,0.0042
3275.00,0.0042
3274.00,0.0042
3273.00,0.0041
3272.00,0.0041
3271.00,0.0041
3270.00,0.0041
3269.00,0.0041
3268.00,0.0041
3267.00,0.0041
3266.00,0.0041
3265.00,0.0041
3264.00,0.0041
3263.00,0.0040
3262.00,0.0040
3261.00,0.0040
3260.00,0.0040
3259.00,0.0040
3258.00,0.0040
3257.00,0.0040
3256.00,0.0040
3255.00,0.0039
3254.00,0.0039
3253.00,0.0039
3252.00,0.0039
3251.00,0.0038
3250.00,0.0038
3249.00,0.0038
3248.00,0.0038
3247.00,0.0038
3246.00,0.0038
3245.00,0.0038
3244.00,0.0037
3243.00,0.0037
3242.00,0.0037
3241.00,0.0037
3240.00,0.0037
3239.00,0.0037
3238.00,0.0037
3237.00,0.0037
3236.00,0.0038
3235.00,0.0038
3234.00,0.0038
3233.00,0.0038
3232.00,0.0038
3231.00,0.0038
3230.00,0.0038
3229.00,0.0038
3228.00,0.0038
3227.00,0.0038
3226.00,0.0038
3225.00,0.0038
3224.00,0.0038
3223.00,0.0038
3222.00,0.0038
3221.00,0.0038
3220.00,0.0039
3219.00,0.0039
3218.00,0.0039
3217.00,0.0040
3216.00,0.0040
3215.00,0.0039
3214.00,0.0039
3213.00,0.0039
3212.00,0.0039
3211.00,0.0039
3210.00,0.0040
3209.00,0.0040
3208.00,0.0040
3207.00,0.0040
3206.00,0.0040
3205.00,0.0040
3204.00,0.0041
3203.00,0.0041
3202.00,0.0041
3201.00,0.0041
3200.00,0.0041
3199.00,0.0042
3198.00,0.0042
3197.00,0.0042
3196.00,0.0042
3195.00,0.0042
3194.00,0.0042
3193.00,0.0042
3192.00,0.0041
3191.00,0.0041
3190.00,0.0040
3189.00,0.0040
3188.00,0.0040
3187.00,0.0040
3186.00,0.0040
3185.00,0.0039
3184.00,0.0039
3183.00,0.0039
3182.00,0.0039
3181.00,0.0039
3180.00,0.0039
3179.00,0.0039
3178.00,0.0039
3177.00,0.0038
3176.00,0.0038
3175.00,0.0038
3174.00,0.0038
3173.00,0.0038
3172.00,0.0038
3171.00,0.0038
3170.00,0.0038
3169.00,0.0038
3168.00,0.0037
3167.00,0.0037
3166.00,0.0037
3165.00,0.0037
3164.00,0.0036
3163.00,0.0036
3162.00,0.0035
3161.00,0.0035
3160.00,0.0035
3159.00,0.0035
3158.00,0.0035
3157.00,0.0036
3156.00,0.0036
3155.00,0.0036
3154.00,0.0036
3153.00,0.0036
3152.00,0.0036
3151.00,0.0035
3150.00,0.0035
3149.00,0.0035
3148.00,0.0034
3147.00,0.0034
3146.00,0.0034
3145.00,0.0034
3144.00,0.0035
3143.00,0.0035
3142.00,0.0035
3141.00,0.0035
3140.00,0.0034
3139.00,0.0034
3138.00,0.0034
3137.00,0.0034
3136.00,0.0033
3135.00,0.0033
3134.00,0.0033
3133.00,0.0033
3132.00,0.0033
3131.00,0.0033
3130.00,0.0032
3129.00,0.0032
3128.00,0.0032
3127.00,0.0031
3126.00,0.0031
3125.00,0.0031
3124.00,0.0031
3123.00,0.0031
3122.00,0.0030
3121.00,0.0030
3120.00,0.0030
3119.00,0.0029
3118.00,0.0029
3117.00,0.0029
3116.00,0.0029
3115.00,0.0029
3114.00,0.0029
3113.00,0.0028
3112.00,0.0028
3111.00,0.0028
3110.00,0.0028
3109.00,0.0028
3108.00,0.0028
3107.00,0.0028
3106.00,0.0029
3105.00,0.0029
3104.00,0.0029
3103.00,0.0028
3102.00,0.0028
3101.00,0.0028
3100.00,0.0028
3099.00,0.0028
3098.00,0.0027
3097.00,0.0027
3096.00,0.0027
3095.00,0.0027
3094.00,0.0027
3093.00,0.0026
3092.00,0.0026
3091.00,0.0027
3090.00,0.0027
3089.00,0.0027
3088.00,0.0027
3087.00,0.0027
3086.00,0.0027
3085.00,0.0026
3084.00,0.0026
3083.00,0.0026
3082.00,0.0026
3081.00,0.0026
3080.00,0.0026
3079.00,0.0025
3078.00,0.0025
3077.00,0.0026
3076.00,0.0026
3075.00,0.0027
3074.00,0.0027
3073.00,0.0027
3072.00,0.0027
3071.00,0.0027
3070.00,0.0026
3069.00,0.0026
3068.00,0.0026
3067.00,0.0027
3066.00,0.0027
3065.00,0.0028
3064.00,0.0028
3063.00,0.0028
3062.00,0.0028
3061.00,0.0029
3060.00,0.0029
3059.00,0.0029
3058.00,0.0029
3057.00,0.0030
3056.00,0.0030
3055.00,0.0030
3054.00,0.0030
3053.00,0.0030
3052.00,0.0030
3051.00,0.0030
3050.00,0.0030
3049.00,0.0030
3048.00,0.0030
3047.00,0.0031
3046.00,0.0031
3045.00,0.0031
3044.00,0.0032
3043.00,0.0032
3042.00,0.0032
3041.00,0.0032
3040.00,0.0032
3039.00,0.0033
3038.00,0.0033
3037.00,0.0033
3036.00,0.0034
3035.00,0.0034
3034.00,0.0034
3033.00,0.0035
3032.00,0.0035
3031.00,0.0036
3030.00,0.0036
3029.00,0.0037
3028.00,0.0037
3027.00,0.0037
3026.00,0.0037
3025.00,0.0037
3024.00,0.0038
3023.00,0.0039
3022.00,0.0040
3021.00,0.0041
3020.00,0.0042
3019.00,0.0043
3018.00,0.0043
3017.00,0.0045
3016.00,0.0046
3015.00,0.0047
3014.00,0.0048
3013.00,0.0049
3012.00,0.0050
3011.00,0.0051
3010.00,0.0052
3009.00,0.0053
3008.00,0.0054
3007.00,0.0055
3006.00,0.0057
3005.00,0.0058
3004.00,0.0060
3003.00,0.0062
3002.00,0.0065
3001.00,0.0067
3000.00,0.0070
2999.00,0.0072
2998.00,0.0074
2997.00,0.0077
2996.00,0.0081
2995.00,0.0085
2994.00,0.0089
2993.00,0.0094
2992.00,0.0098
2991.00,0.0103
2990.00,0.0109
2989.00,0.0116
2988.00,0.0123
2987.00,0.0131
2986.00,0.0139
2985.00,0.0149
2984.00,0.0160
2983.00,0.0173
2982.00,0.0188
2981.00,0.0204
2980.00,0.0222
2979.00,0.0243
2978.00,0.0267
2977.00,0.0294
2976.00,0.0325
2975.00,0.0361
2974.00,0.0401
2973.00,0.0447
2972.00,0.0499
2971.00,0.0558
2970.00,0.0622
2969.00,0.0693
2968.00,0.0769
2967.00,0.0850
2966.00,0.0935
2965.00,0.1020
2964.00,0.1103
2963.00,0.1179
2962.00,0.1244
2961.00,0.1298
2960.00,0.1341
2959.00,0.1378
2958.00,0.1415
2957.00,0.1458
2956.00,0.1512
2955.00,0.1578
2954.00,0.1654
2953.00,0.1734
2952.00,0.1805
2951.00,0.1857
2950.00,0.1877
2949.00,0.1857
2948.00,0.1796
2947.00,0.1701
2946.00,0.1582
2945.00,0.1456
2944.00,0.1336
2943.00,0.1232
2942.00,0.1151
2941.00,0.1096
2940.00,0.1065
2939.00,0.1056
2938.00,0.1068
2937.00,0.1097
2936.00,0.1143
2935.00,0.1203
2934.00,0.1278
2933.00,0.1364
2932.00,0.1462
2931.00,0.1569
2930.00,0.1683
2929.00,0.1800
2928.00,0.1918
2927.00,0.2034
2926.00,0.2145
2925.00,0.2253
2924.00,0.2358
2923.00,0.2462
2922.00,0.2565
2921.00,0.2663
2920.00,0.2749
2919.00,0.2813
2918.00,0.2844
2917.00,0.2835
2916.00,0.2784
2915.00,0.2699
2914.00,0.2593
2913.00,0.2477
2912.00,0.2364
2911.00,0.2260
2910.00,0.2166
2909.00,0.2082
2908.00,0.2005
2907.00,0.1933
2906.00,0.1862
2905.00,0.1791
2904.00,0.1720
2903.00,0.1650
2902.00,0.1581
2901.00,0.1514
2900.00,0.1451
2899.00,0.1390
2898.00,0.1333
2897.00,0.1281
2896.00,0.1234
2895.00,0.1193
2894.00,0.1158
2893.00,0.1130
2892.00,0.1107
2891.00,0.1090
2890.00,0.1078
2889.00,0.1071
2888.00,0.1067
2887.00,0.1067
2886.00,0.1071
2885.00,0.1077
2884.00,0.1088
2883.00,0.1104
2882.00,0.1124
2881.00,0.1148
2880.00,0.1172
2879.00,0.1192
2878.00,0.1205
2877.00,0.1209
2876.00,0.1205
2875.00,0.1198
2874.00,0.1193
2873.00,0.1192
2872.00,0.1200
2871.00,0.1215
2870.00,0.1235
2869.00,0.1254
2868.00,0.1267
2867.00,0.1264
2866.00,0.1241
2865.00,0.1194
2864.00,0.1128
2863.00,0.1052
2862.00,0.0976
2861.00,0.0909
2860.00,0.0858
2859.00,0.0822
2858.00,0.0801
2857.00,0.0792
2856.00,0.0793
2855.00,0.0801
2854.00,0.0813
2853.00,0.0828
2852.00,0.0843
2851.00,0.0856
2850.00,0.0867
2849.00,0.0876
2848.00,0.0885
2847.00,0.0900
2846.00,0.0923
2845.00,0.0956
2844.00,0.0999
2843.00,0.1050
2842.00,0.1103
2841.00,0.1152
2840.00,0.1191
2839.00,0.1210
2838.00,0.1204
2837.00,0.1168
2836.00,0.1104
2835.00,0.1015
2834.00,0.0913
2833.00,0.0806
2832.00,0.0706
2831.00,0.0616
2830.00,0.0541
2829.00,0.0479
2828.00,0.0428
2827.00,0.0388
2826.00,0.0355
2825.00,0.0328
2824.00,0.0305
2823.00,0.0286
2822.00,0.0270
2821.00,0.0255
2820.00,0.0243
2819.00,0.0231
2818.00,0.0222
2817.00,0.0213
2816.00,0.0206
2815.00,0.0200
2814.00,0.0194
2813.00,0.0188
2812.00,0.0182
2811.00,0.0176
2810.00,0.0171
2809.00,0.0165
2808.00,0.0159
2807.00,0.0152
2806.00,0.0146
2805.00,0.0139
2804.00,0.0133
2803.00,0.0127
2802.00,0.0122
2801.00,0.0118
2800.00,0.0114
2799.00,0.0111
2798.00,0.0107
2797.00,0.0105
2796.00,0.0102
2795.00,0.0099
2794.00,0.0097
2793.00,0.0095
2792.00,0.0092
2791.00,0.0089
2790.00,0.0086
2789.00,0.0083
2788.00,0.0080
2787.00,0.0077
2786.00,0.0074
2785.00,0.0072
2784.00,0.0070
2783.00,0.0069
2782.00,0.0067
2781.00,0.0065
2780.00,0.0064
2779.00,0.0062
2778.00,0.0060
2777.00,0.0058
2776.00,0.0057
2775.00,0.0056
2774.00,0.0055
2773.00,0.0054
2772.00,0.0053
2771.00,0.0053
2770.00,0.0053
2769.00,0.0052
2768.00,0.0052
2767.00,0.0052
2766.00,0.0051
2765.00,0.0051
2764.00,0.0051
2763.00,0.0050
2762.00,0.0050
2761.00,0.0049
2760.00,0.0049
2759.00,0.0049
2758.00,0.0049
2757.00,0.0049
2756.00,0.0049
2755.00,0.0049
2754.00,0.0049
2753.00,0.0048
2752.00,0.0048
2751.00,0.0048
2750.00,0.0048
2749.00,0.0048
2748.00,0.0048
2747.00,0.0048
2746.00,0.0049
2745.00,0.0050
2744.00,0.0050
2743.00,0.0051
2742.00,0.0052
2741.00,0.0053
2740.00,0.0054
2739.00,0.0055
2738.00,0.0056
2737.00,0.0057
2736.00,0.0058
2735.00,0.0060
2734.00,0.0062
2733.00,0.0063
2732.00,0.0065
2731.00,0.0067
2730.00,0.0069
2729.00,0.0071
2728.00,0.0074
2727.00,0.0077
2726.00,0.0079
2725.00,0.0082
2724.00,0.0083
2723.00,0.0084
2722.00,0.0083
2721.00,0.0081
2720.00,0.0079
2719.00,0.0076
2718.00,0.0073
2717.00,0.0070
2716.00,0.0067
2715.00,0.0064
2714.00,0.0062
2713.00,0.0059
2712.00,0.0057
2711.00,0.0055
2710.00,0.0054
2709.00,0.0052
2708.00,0.0051
2707.00,0.0049
2706.00,0.0048
2705.00,0.0047
2704.00,0.0046
2703.00,0.0045
2702.00,0.0044
2701.00,0.0044
2700.00,0.0043
2699.00,0.0043
2698.00,0.0042
2697.00,0.0042
2696.00,0.0042
2695.00,0.0042
2694.00,0.0041
2693.00,0.0041
2692.00,0.0041
2691.00,0.0041
2690.00,0.0041
2689.00,0.0041
2688.00,0.0042
2687.00,0.0042
2686.00,0.0042
2685.00,0.0042
2684.00,0.0042
2683.00,0.0042
2682.00,0.0042
2681.00,0.0042
2680.00,0.0042
2679.00,0.0042
2678.00,0.0042
2677.00,0.0042
2676.00,0.0042
2675.00,0.0042
2674.00,0.0042
2673.00,0.0042
2672.00,0.0042
2671.00,0.0042
2670.00,0.0041
2669.00,0.0041
2668.00,0.0041
2667.00,0.0041
2666.00,0.0042
2665.00,0.0042
2664.00,0.0043
2663.00,0.0044
2662.00,0.0044
2661.00,0.0044
2660.00,0.0044
2659.00,0.0044
2658.00,0.0044
2657.00,0.0044
2656.00,0.0043
2655.00,0.0043
2654.00,0.0042
2653.00,0.0042
2652.00,0.0041
2651.00,0.0041
2650.00,0.0040
2649.00,0.0040
2648.00,0.0040
2647.00,0.0040
2646.00,0.0039
2645.00,0.0039
2644.00,0.0039
2643.00,0.0039
2642.00,0.0038
2641.00,0.0038
2640.00,0.0037
2639.00,0.0037
2638.00,0.0036
2637.00,0.0035
2636.00,0.0035
2635.00,0.0035
2634.00,0.0035
2633.00,0.0035
2632.00,0.0035
2631.00,0.0035
2630.00,0.0035
2629.00,0.0036
2628.00,0.0036
2627.00,0.0037
2626.00,0.0037
2625.00,0.0037
2624.00,0.0037
2623.00,0.0037
2622.00,0.0037
2621.00,0.0037
2620.00,0.0037
2619.00,0.0037
2618.00,0.0037
2617.00,0.0037
2616.00,0.0037
2615.00,0.0037
2614.00,0.0036
2613.00,0.0036
2612.00,0.0036
2611.00,0.0035
2610.00,0.0034
2609.00,0.0034
2608.00,0.0033
2607.00,0.0032
2606.00,0.0032
2605.00,0.0031
2604.00,0.0031
2603.00,0.0031
2602.00,0.0030
2601.00,0.0030
2600.00,0.0030
2599.00,0.0029
2598.00,0.0029
2597.00,0.0029
2596.00,0.0029
2595.00,0.0029
2594.00,0.0029
2593.00,0.0030
2592.00,0.0031
2591.00,0.0032
2590.00,0.0033
2589.00,0.0034
2588.00,0.0034
2587.00,0.0035
2586.00,0.0036
2585.00,0.0036
2584.00,0.0037
2583.00,0.0037
2582.00,0.0037
2581.00,0.0036
2580.00,0.0035
2579.00,0.0034
2578.00,0.0033
2577.00,0.0032
2576.00,0.0032
2575.00,0.0031
2574.00,0.0030
2573.00,0.0030
2572.00,0.0029
2571.00,0.0027
2570.00,0.0025
2569.00,0.0024
2568.00,0.0024
2567.00,0.0024
2566.00,0.0024
2565.00,0.0024
2564.00,0.0023
2563.00,0.0022
2562.00,0.0022
2561.00,0.0021
2560.00,0.0021
2559.00,0.0020
2558.00,0.0020
2557.00,0.0020
2556.00,0.0020
2555.00,0.0019
2554.00,0.0019
2553.00,0.0019
2552.00,0.0018
2551.00,0.0018
2550.00,0.0017
2549.00,0.0017
2548.00,0.0017
2547.00,0.0017
2546.00,0.0016
2545.00,0.0016
2544.00,0.0016
2543.00,0.0016
2542.00,0.0016
2541.00,0.0015
2540.00,0.0014
2539.00,0.0014
2538.00,0.0013
2537.00,0.0013
2536.00,0.0012
2535.00,0.0012
2534.00,0.0013
2533.00,0.0013
2532.00,0.0013
2531.00,0.0013
2530.00,0.0013
2529.00,0.0013
2528.00,0.0013
2527.00,0.0013
2526.00,0.0013
2525.00,0.0013
2524.00,0.0012
2523.00,0.0012
2522.00,0.0012
2521.00,0.0011
2520.00,0.0011
2519.00,0.0011
2518.00,0.0010
2517.00,0.0010
2516.00,0.0009
2515.00,0.0009
2514.00,0.0009
2513.00,0.0009
2512.00,0.0009
2511.00,0.0009
2510.00,0.0009
2509.00,0.0009
2508.00,0.0009
2507.00,0.0009
2506.00,0.0008
2505.00,0.0008
2504.00,0.0008
2503.00,0.0009
2502.00,0.0009
2501.00,0.0008
2500.00,0.0007
2499.00,0.0007
2498.00,0.0007
2497.00,0.0007
2496.00,0.0007
2495.00,0.0007
2494.00,0.0006
2493.00,0.0006
2492.00,0.0007
2491.00,0.0007
2490.00,0.0008
2489.00,0.0008
2488.00,0.0009
2487.00,0.0009
2486.00,0.0009
2485.00,0.0009
2484.00,0.0009
2483.00,0.0009
2482.00,0.0008
2481.00,0.0008
2480.00,0.0008
2479.00,0.0007
2478.00,0.0007
2477.00,0.0007
2476.00,0.0006
2475.00,0.0006
2474.00,0.0007
2473.00,0.0007
2472.00,0.0008
2471.00,0.0008
2470.00,0.0009
2469.00,0.0009
2468.00,0.0009
2467.00,0.0009
2466.00,0.0008
2465.00,0.0008
2464.00,0.0007
2463.00,0.0007
2462.00,0.0007
2461.00,0.0007
2460.00,0.0008
2459.00,0.0008
2458.00,0.0009
2457.00,0.0008
2456.00,0.0008
2455.00,0.0008
2454.00,0.0008
2453.00,0.0008
2452.00,0.0009
2451.00,0.0009
2450.00,0.0009
2449.00,0.0009
2448.00,0.0009
2447.00,0.0009
2446.00,0.0009
2445.00,0.0009
2444.00,0.0008
2443.00,0.0008
2442.00,0.0008
2441.00,0.0008
2440.00,0.0007
2439.00,0.0007
2438.00,0.0007
2437.00,0.0007
2436.00,0.0008
2435.00,0.0008
2434.00,0.0009
2433.00,0.0009
2432.00,0.0010
2431.00,0.0010
2430.00,0.0010
2429.00,0.0010
2428.00,0.0010
2427.00,0.0010
2426.00,0.0010
2425.00,0.0010
2424.00,0.0010
2423.00,0.0010
2422.00,0.0010
2421.00,0.0010
2420.00,0.0010
2419.00,0.0010
2418.00,0.0009
2417.00,0.0008
2416.00,0.0008
2415.00,0.0007
2414.00,0.0007
2413.00,0.0007
2412.00,0.0007
2411.00,0.0007
2410.00,0.0007
2409.00,0.0007
2408.00,0.0007
2407.00,0.0007
2406.00,0.0006
2405.00,0.0006
2404.00,0.0006
2403.00,0.0006
2402.00,0.0006
2401.00,0.0005
2400.00,0.0005
2399.00,0.0005
2398.00,0.0005
2397.00,0.0006
2396.00,0.0006
2395.00,0.0007
2394.00,0.0007
2393.00,0.0006
2392.00,0.0006
2391.00,0.0005
2390.00,0.0006
2389.00,0.0006
2388.00,0.0006
2387.00,0.0005
2386.00,0.0004
2385.00,0.0003
2384.00,0.0002
2383.00,0.0001
2382.00,0.0001
2381.00,-0.0000
2380.00,-0.0000
2379.00,-0.0000
2378.00,0.0000
2377.00,0.0001
2376.00,0.0002
2375.00,0.0002
2374.00,0.0002
2373.00,0.0001
2372.00,0.0001
2371.00,0.0001
2370.00,0.0002
2369.00,0.0002
2368.00,0.0002
2367.00,0.0001
2366.00,0.0000
2365.00,-0.0000
2364.00,-0.0001
2363.00,-0.0000
2362.00,0.0000
2361.00,0.0001
2360.00,0.0001
2359.00,0.0002
2358.00,0.0002
2357.00,0.0001
2356.00,0.0001
2355.00,0.0001
2354.00,0.0000
2353.00,-0.0001
2352.00,-0.0001
2351.00,-0.0001
2350.00,0.0000
2349.00,0.0002
2348.00,0.0003
2347.00,0.0003
2346.00,0.0002
2345.00,0.0002
2344.00,0.0003
2343.00,0.0003
2342.00,0.0003
2341.00,0.0004
2340.00,0.0004
2339.00,0.0004
2338.00,0.0004
2337.00,0.0003
2336.00,0.0003
2335.00,0.0003
2334.00,0.0002
2333.00,0.0001
2332.00,0.0000
2331.00,0.0000
2330.00,0.0001
2329.00,0.0003
2328.00,0.0006
2327.00,0.0009
2326.00,0.0013
2325.00,0.0016
2324.00,0.0016
2323.00,0.0015
2322.00,0.0013
2321.00,0.0011
2320.00,0.0010
2319.00,0.0009
2318.00,0.0008
2317.00,0.0008
2316.00,0.0007
2315.00,0.0007
2314.00,0.0007
2313.00,0.0006
2312.00,0.0006
2311.00,0.0005
2310.00,0.0004
2309.00,0.0003
2308.00,0.0003
2307.00,0.0004
2306.00,0.0004
2305.00,0.0004
2304.00,0.0005
2303.00,0.0005
2302.00,0.0006
2301.00,0.0007
2300.00,0.0008
2299.00,0.0009
2298.00,0.0009
2297.00,0.0009
2296.00,0.0010
2295.00,0.0010
2294.00,0.0011
2293.00,0.0012
2292.00,0.0013
2291.00,0.0014
2290.00,0.0015
2289.00,0.0016
2288.00,0.0016
2287.00,0.0015
2286.00,0.0015
2285.00,0.0014
2284.00,0.0013
2283.00,0.0012
2282.00,0.0010
2281.00,0.0010
2280.00,0.0010
2279.00,0.0011
2278.00,0.0011
2277.00,0.0011
2276.00,0.0012
2275.00,0.0011
2274.00,0.0011
2273.00,0.0011
2272.00,0.0011
2271.00,0.0011
2270.00,0.0012
2269.00,0.0012
2268.00,0.0012
2267.00,0.0010
2266.00,0.0009
2265.00,0.0007
2264.00,0.0007
2263.00,0.0007
2262.00,0.0007
2261.00,0.0008
2260.00,0.0009
2259.00,0.0011
2258.00,0.0012
2257.00,0.0013
2256.00,0.0012
2255.00,0.0010
2254.00,0.0008
2253.00,0.0006
2252.00,0.0006
2251.00,0.0005
2250.00,0.0005
2249.00,0.0005
2248.00,0.0005
2247.00,0.0006
2246.00,0.0007
2245.00,0.0007
2244.00,0.0008
2243.00,0.0007
2242.00,0.0006
2241.00,0.0004
2240.00,0.0003
2239.00,0.0003
2238.00,0.0003
2237.00,0.0004
2236.00,0.0005
2235.00,0.0006
2234.00,0.0006
2233.00,0.0007
2232.00,0.0007
2231.00,0.0007
2230.00,0.0008
2229.00,0.0009
2228.00,0.0009
2227.00,0.0008
2226.00,0.0006
2225.00,0.0005
2224.00,0.0004
2223.00,0.0004
2222.00,0.0005
2221.00,0.0006
2220.00,0.0006
2219.00,0.0006
2218.00,0.0006
2217.00,0.0005
2216.00,0.0004
2215.00,0.0003
2214.00,0.0003
2213.00,0.0003
2212.00,0.0003
2211.00,0.0004
2210.00,0.0005
2209.00,0.0006
2208.00,0.0006
2207.00,0.0006
2206.00,0.0005
2205.00,0.0004
2204.00,0.0004
2203.00,0.0003
2202.00,0.0003
2201.00,0.0003
2200.00,0.0004
2199.00,0.0003
2198.00,0.0003
2197.00,0.0004
2196.00,0.0005
2195.00,0.0006
2194.00,0.0007
2193.00,0.0008
2192.00,0.0009
2191.00,0.0009
2190.00,0.0008
2189.00,0.0007
2188.00,0.0008
2187.00,0.0009
2186.00,0.0010
2185.00,0.0010
2184.00,0.0007
2183.00,0.0003
2182.00,-0.0000
2181.00,-0.0002
2180.00,-0.0001
2179.00,0.0000
2178.00,0.0001
2177.00,0.0001
2176.00,-0.0002
2175.00,-0.0006
2174.00,-0.0008
2173.00,-0.0006
2172.00,-0.0001
2171.00,0.0005
2170.00,0.0011
2169.00,0.0015
2168.00,0.0016
2167.00,0.0016
2166.00,0.0016
2165.00,0.0017
2164.00,0.0019
2163.00,0.0022
2162.00,0.0023
2161.00,0.0018
2160.00,0.0005
2159.00,-0.0011
2158.00,-0.0023
2157.00,-0.0028
2156.00,-0.0025
2155.00,-0.0021
2154.00,-0.0018
2153.00,-0.0017
2152.00,-0.0018
2151.00,-0.0020
2150.00,-0.0022
2149.00,-0.0023
2148.00,-0.0022
2147.00,-0.0020
2146.00,-0.0016
2145.00,-0.0013
2144.00,-0.0012
2143.00,-0.0012
2142.00,-0.0013
2141.00,-0.0013
2140.00,-0.0012
2139.00,-0.0011
2138.00,-0.0012
2137.00,-0.0015
2136.00,-0.0017
2135.00,-0.0018
2134.00,-0.0019
2133.00,-0.0017
2132.00,-0.0016
2131.00,-0.0014
2130.00,-0.0014
2129.00,-0.0013
2128.00,-0.0012
2127.00,-0.0011
2126.00,-0.0009
2125.00,-0.0008
2124.00,-0.0007
2123.00,-0.0006
2122.00,-0.0006
2121.00,-0.0005
2120.00,-0.0004
2119.00,-0.0004
2118.00,-0.0002
2117.00,-0.0001
2116.00,0.0001
2115.00,0.0002
2114.00,0.0002
2113.00,0.0003
2112.00,0.0003
2111.00,0.0002
2110.00,0.0002
2109.00,0.0001
2108.00,0.0001
2107.00,0.0001
2106.00,0.0001
2105.00,0.0001
2104.00,0.0002
2103.00,0.0002
2102.00,0.0003
2101.00,0.0003
2100.00,0.0004
2099.00,0.0003
2098.00,0.0001
2097.00,-0.0001
2096.00,-0.0003
2095.00,-0.0004
2094.00,-0.0005
2093.00,-0.0004
2092.00,-0.0003
2091.00,-0.0002
2090.00,-0.0000
2089.00,0.0001
2088.00,0.0002
2087.00,0.0002
2086.00,0.0003
2085.00,0.0003
2084.00,0.0003
2083.00,0.0003
2082.00,0.0002
2081.00,0.0001
2080.00,0.0001
2079.00,0.0001
2078.00,0.0002
2077.00,0.0003
2076.00,0.0004
2075.00,0.0005
2074.00,0.0005
2073.00,0.0005
2072.00,0.0004
2071.00,0.0002
2070.00,0.0000
2069.00,-0.0001
2068.00,-0.0002
2067.00,-0.0003
2066.00,-0.0003
2065.00,-0.0003
2064.00,-0.0002
2063.00,-0.0002
2062.00,-0.0002
2061.00,-0.0003
2060.00,-0.0003
2059.00,-0.0003
2058.00,-0.0003
2057.00,-0.0002
2056.00,-0.0001
2055.00,-0.0000
2054.00,0.0002
2053.00,0.0005
2052.00,0.0008
2051.00,0.0010
2050.00,0.0011
2049.00,0.0009
2048.00,0.0006
2047.00,0.0003
2046.00,-0.0001
2045.00,-0.0003
2044.00,-0.0003
2043.00,-0.0002
2042.00,-0.0001
2041.00,0.0000
2040.00,0.0002
2039.00,0.0002
2038.00,0.0002
2037.00,0.0001
2036.00,0.0001
2035.00,-0.0001
2034.00,-0.0003
2033.00,-0.0004
2032.00,-0.0002
2031.00,-0.0001
2030.00,-0.0000
2029.00,-0.0003
2028.00,-0.0006
2027.00,-0.0009
2026.00,-0.0011
2025.00,-0.0013
2024.00,-0.0016
2023.00,-0.0019
2022.00,-0.0021
2021.00,-0.0021
2020.00,-0.0020
2019.00,-0.0018
2018.00,-0.0017
2017.00,-0.0016
2016.00,-0.0015
2015.00,-0.0016
2014.00,-0.0018
2013.00,-0.0018
2012.00,-0.0015
2011.00,-0.0011
2010.00,-0.0007
2009.00,-0.0007
2008.00,-0.0011
2007.00,-0.0016
2006.00,-0.0020
2005.00,-0.0022
2004.00,-0.0021
2003.00,-0.0020
2002.00,-0.0018
2001.00,-0.0015
2000.00,-0.0012
1999.00,-0.0010
1998.00,-0.0010
1997.00,-0.0010
1996.00,-0.0010
1995.00,-0.0010
1994.00,-0.0010
1993.00,-0.0009
1992.00,-0.0008
1991.00,-0.0007
1990.00,-0.0007
1989.00,-0.0007
1988.00,-0.0008
1987.00,-0.0008
1986.00,-0.0007
1985.00,-0.0005
1984.00,-0.0001
1983.00,0.0003
1982.00,0.0007
1981.00,0.0010
1980.00,0.0010
1979.00,0.0006
1978.00,-0.0000
1977.00,-0.0006
1976.00,-0.0011
1975.00,-0.0014
1974.00,-0.0014
1973.00,-0.0014
1972.00,-0.0015
1971.00,-0.0017
1970.00,-0.0019
1969.00,-0.0019
1968.00,-0.0017
1967.00,-0.0015
1966.00,-0.0013
1965.00,-0.0011
1964.00,-0.0011
1963.00,-0.0012
1962.00,-0.0014
1961.00,-0.0016
1960.00,-0.0018
1959.00,-0.0019
1958.00,-0.0019
1957.00,-0.0018
1956.00,-0.0016
1955.00,-0.0015
1954.00,-0.0016
1953.00,-0.0017
1952.00,-0.0017
1951.00,-0.0017
1950.00,-0.0015
1949.00,-0.0014
1948.00,-0.0013
1947.00,-0.0012
1946.00,-0.0012
1945.00,-0.0012
1944.00,-0.0012
1943.00,-0.0014
1942.00,-0.0014
1941.00,-0.0014
1940.00,-0.0012
1939.00,-0.0011
1938.00,-0.0011
1937.00,-0.0012
1936.00,-0.0012
1935.00,-0.0012
1934.00,-0.0012
1933.00,-0.0011
1932.00,-0.0012
1931.00,-0.0013
1930.00,-0.0012
1929.00,-0.0011
1928.00,-0.0009
1927.00,-0.0008
1926.00,-0.0006
1925.00,-0.0006
1924.00,-0.0007
1923.00,-0.0007
1922.00,-0.0008
1921.00,-0.0007
1920.00,-0.0006
1919.00,-0.0004
1918.00,-0.0003
1917.00,-0.0003
1916.00,-0.0003
1915.00,-0.0003
1914.00,-0.0004
1913.00,-0.0005
1912.00,-0.0004
1911.00,-0.0003
1910.00,-0.0002
1909.00,-0.0001
1908.00,-0.0002
1907.00,-0.0002
1906.00,-0.0003
1905.00,-0.0003
1904.00,-0.0002
1903.00,-0.0002
1902.00,-0.0001
1901.00,-0.0001
1900.00,-0.0001
1899.00,-0.0001
1898.00,-0.0001
1897.00,-0.0001
1896.00,-0.0002
1895.00,-0.0002
1894.00,-0.0002
1893.00,-0.0002
1892.00,-0.0001
1891.00,0.0000
1890.00,0.0001
1889.00,0.0001
1888.00,0.0000
1887.00,-0.0001
1886.00,-0.0002
1885.00,-0.0003
1884.00,-0.0003
1883.00,-0.0002
1882.00,-0.0002
1881.00,-0.0002
1880.00,-0.0002
1879.00,-0.0003
1878.00,-0.0003
1877.00,-0.0004
1876.00,-0.0004
1875.00,-0.0003
1874.00,-0.0003
1873.00,-0.0003
1872.00,-0.0003
1871.00,-0.0003
1870.00,-0.0004
1869.00,-0.0004
1868.00,-0.0004
1867.00,-0.0003
1866.00,-0.0003
1865.00,-0.0002
1864.00,-0.0001
1863.00,-0.0001
1862.00,-0.0001
1861.00,-0.0000
1860.00,0.0000
1859.00,0.0000
1858.00,0.0000
1857.00,-0.0000
1856.00,-0.0001
1855.00,-0.0001
1854.00,-0.0000
1853.00,0.0000
1852.00,0.0001
1851.00,0.0001
1850.00,0.0001
1849.00,0.0000
1848.00,-0.0000
1847.00,-0.0001
1846.00,-0.0001
1845.00,0.0000
1844.00,0.0001
1843.00,0.0002
1842.00,0.0002
1841.00,0.0001
1840.00,0.0001
1839.00,0.0001
1838.00,0.0001
1837.00,0.0001
1836.00,0.0002
1835.00,0.0002
1834.00,0.0002
1833.00,0.0002
1832.00,0.0002
1831.00,0.0002
1830.00,0.0003
1829.00,0.0003
1828.00,0.0003
1827.00,0.0003
1826.00,0.0002
1825.00,0.0003
1824.00,0.0003
1823.00,0.0003
1822.00,0.0003
1821.00,0.0003
1820.00,0.0002
1819.00,0.0001
1818.00,-0.0000
1817.00,-0.0001
1816.00,-0.0001
1815.00,-0.0001
1814.00,0.0000
1813.00,0.0001
1812.00,0.0001
1811.00,0.0001
1810.00,0.0001
1809.00,0.0001
1808.00,0.0002
1807.00,0.0002
1806.00,0.0002
1805.00,0.0002
1804.00,0.0002
1803.00,0.0002
1802.00,0.0002
1801.00,0.0002
1800.00,0.0003
1799.00,0.0004
1798.00,0.0004
1797.00,0.0004
1796.00,0.0003
1795.00,0.0003
1794.00,0.0003
1793.00,0.0003
1792.00,0.0004
1791.00,0.0005
1790.00,0.0006
1789.00,0.0006
1788.00,0.0006
1787.00,0.0005
1786.00,0.0005
1785.00,0.0006
1784.00,0.0006
1783.00,0.0007
1782.00,0.0007
1781.00,0.0007
1780.00,0.0007
1779.00,0.0006
1778.00,0.0005
1777.00,0.0005
1776.00,0.0005
1775.00,0.0006
1774.00,0.0007
1773.00,0.0008
1772.00,0.0009
1771.00,0.0010
1770.00,0.0010
1769.00,0.0010
1768.00,0.0010
1767.00,0.0010
1766.00,0.0010
1765.00,0.0010
1764.00,0.0010
1763.00,0.0010
1762.00,0.0010
1761.00,0.0011
1760.00,0.0011
1759.00,0.0012
1758.00,0.0012
1757.00,0.0012
1756.00,0.0012
1755.00,0.0012
1754.00,0.0013
1753.00,0.0013
1752.00,0.0013
1751.00,0.0013
1750.00,0.0014
1749.00,0.0016
1748.00,0.0018
1747.00,0.0019
1746.00,0.0020
1745.00,0.0020
1744.00,0.0021
1743.00,0.0022
1742.00,0.0023
1741.00,0.0023
1740.00,0.0023
1739.00,0.0024
1738.00,0.0024
1737.00,0.0024
1736.00,0.0024
1735.00,0.0024
1734.00,0.0024
1733.00,0.0025
1732.00,0.0025
1731.00,0.0025
1730.00,0.0025
1729.00,0.0026
1728.00,0.0026
1727.00,0.0027
1726.00,0.0027
1725.00,0.0027
1724.00,0.0027
1723.00,0.0027
1722.00,0.0027
1721.00,0.0026
1720.00,0.0026
1719.00,0.0026
1718.00,0.0025
1717.00,0.0024
1716.00,0.0024
1715.00,0.0023
1714.00,0.0023
1713.00,0.0023
1712.00,0.0024
1711.00,0.0024
1710.00,0.0024
1709.00,0.0024
1708.00,0.0024
1707.00,0.0024
1706.00,0.0024
1705.00,0.0024
1704.00,0.0024
1703.00,0.0024
1702.00,0.0025
1701.00,0.0025
1700.00,0.0026
1699.00,0.0026
1698.00,0.0026
1697.00,0.0027
1696.00,0.0028
1695.00,0.0028
1694.00,0.0028
1693.00,0.0028
1692.00,0.0028
1691.00,0.0029
1690.00,0.0030
1689.00,0.0031
1688.00,0.0032
1687.00,0.0033
1686.00,0.0033
1685.00,0.0034
1684.00,0.0035
1683.00,0.0037
1682.00,0.0037
1681.00,0.0038
1680.00,0.0039
1679.00,0.0039
1678.00,0.0039
1677.00,0.0040
1676.00,0.0040
1675.00,0.0041
1674.00,0.0041
1673.00,0.0042
1672.00,0.0043
1671.00,0.0044
1670.00,0.0045
1669.00,0.0046
1668.00,0.0046
1667.00,0.0046
1666.00,0.0047
1665.00,0.0047
1664.00,0.0048
1663.00,0.0048
1662.00,0.0049
1661.00,0.0049
1660.00,0.0049
1659.00,0.0050
1658.00,0.0050
1657.00,0.0050
1656.00,0.0051
1655.00,0.0051
1654.00,0.0051
1653.00,0.0052
1652.00,0.0054
1651.00,0.0054
1650.00,0.0054
1649.00,0.0055
1648.00,0.0056
1647.00,0.0058
1646.00,0.0060
1645.00,0.0060
1644.00,0.0060
1643.00,0.0060
1642.00,0.0060
1641.00,0.0061
1640.00,0.0061
1639.00,0.0061
1638.00,0.0062
1637.00,0.0062
1636.00,0.0063
1635.00,0.0062
1634.00,0.0062
1633.00,0.0061
1632.00,0.0060
1631.00,0.0060
1630.00,0.0059
1629.00,0.0059
1628.00,0.0058
1627.00,0.0058
1626.00,0.0057
1625.00,0.0057
1624.00,0.0057
1623.00,0.0056
1622.00,0.0055
1621.00,0.0055
1620.00,0.0054
1619.00,0.0054
1618.00,0.0053
1617.00,0.0053
1616.00,0.0053
1615.00,0.0053
1614.00,0.0053
1613.00,0.0053
1612.00,0.0053
1611.00,0.0052
1610.00,0.0052
1609.00,0.0052
1608.00,0.0052
1607.00,0.0052
1606.00,0.0052
1605.00,0.0051
1604.00,0.0051
1603.00,0.0050
1602.00,0.0050
1601.00,0.0050
1600.00,0.0050
1599.00,0.0050
1598.00,0.0050
1597.00,0.0050
1596.00,0.0050
1595.00,0.0049
1594.00,0.0049
1593.00,0.0048
1592.00,0.0048
1591.00,0.0048
1590.00,0.0047
1589.00,0.0047
1588.00,0.0047
1587.00,0.0046
1586.00,0.0046
1585.00,0.0045
1584.00,0.0044
1583.00,0.0044
1582.00,0.0043
1581.00,0.0043
1580.00,0.0042
1579.00,0.0042
1578.00,0.0042
1577.00,0.0042
1576.00,0.0043
1575.00,0.0043
1574.00,0.0043
1573.00,0.0044
1572.00,0.0045
1571.00,0.0047
1570.00,0.0048
1569.00,0.0050
1568.00,0.0051
1567.00,0.0052
1566.00,0.0052
1565.00,0.0053
1564.00,0.0053
1563.00,0.0054
1562.00,0.0055
1561.00,0.0055
1560.00,0.0056
1559.00,0.0056
1558.00,0.0056
1557.00,0.0057
1556.00,0.0058
1555.00,0.0058
1554.00,0.0058
1553.00,0.0058
1552.00,0.0059
1551.00,0.0059
1550.00,0.0059
1549.00,0.0059
1548.00,0.0058
1547.00,0.0057
1546.00,0.0056
1545.00,0.0054
1544.00,0.0053
1543.00,0.0051
1542.00,0.0048
1541.00,0.0047
1540.00,0.0046
1539.00,0.0045
1538.00,0.0045
1537.00,0.0046
1536.00,0.0047
1535.00,0.0047
1534.00,0.0047
1533.00,0.0048
1532.00,0.0048
1531.00,0.0048
1530.00,0.0048
1529.00,0.0048
1528.00,0.0048
1527.00,0.0048
1526.00,0.0048
1525.00,0.0049
1524.00,0.0049
1523.00,0.0050
1522.00,0.0050
1521.00,0.0050
1520.00,0.0050
1519.00,0.0051
1518.00,0.0051
1517.00,0.0051
1516.00,0.0052
1515.00,0.0051
1514.00,0.0052
1513.00,0.0052
1512.00,0.0054
1511.00,0.0055
1510.00,0.0055
1509.00,0.0056
1508.00,0.0056
1507.00,0.0056
1506.00,0.0057
1505.00,0.0058
1504.00,0.0060
1503.00,0.0063
1502.00,0.0064
1501.00,0.0067
1500.00,0.0069
1499.00,0.0070
1498.00,0.0072
1497.00,0.0075
1496.00,0.0079
1495.00,0.0081
1494.00,0.0083
1493.00,0.0087
1492.00,0.0091
1491.00,0.0094
1490.00,0.0098
1489.00,0.0104
1488.00,0.0109
1487.00,0.0114
1486.00,0.0118
1485.00,0.0124
1484.00,0.0130
1483.00,0.0136
1482.00,0.0144
1481.00,0.0154
1480.00,0.0165
1479.00,0.0177
1478.00,0.0191
1477.00,0.0211
1476.00,0.0237
1475.00,0.0266
1474.00,0.0306
1473.00,0.0363
1472.00,0.0430
1471.00,0.0496
1470.00,0.0561
1469.00,0.0629
1468.00,0.0702
1467.00,0.0782
1466.00,0.0872
1465.00,0.0967
1464.00,0.1051
1463.00,0.1109
1462.00,0.1146
1461.00,0.1170
1460.00,0.1187
1459.00,0.1196
1458.00,0.1201
1457.00,0.1202
1456.00,0.1195
1455.00,0.1183
1454.00,0.1168
1453.00,0.1147
1452.00,0.1116
1451.00,0.1075
1450.00,0.1021
1449.00,0.0948
1448.00,0.0860
1447.00,0.0767
1446.00,0.0684
1445.00,0.0614
1444.00,0.0553
1443.00,0.0504
1442.00,0.0466
1441.00,0.0441
1440.00,0.0426
1439.00,0.0420
1438.00,0.0421
1437.00,0.0423
1436.00,0.0414
1435.00,0.0391
1434.00,0.0355
1433.00,0.0313
1432.00,0.0269
1431.00,0.0229
1430.00,0.0199
1429.00,0.0176
1428.00,0.0160
1427.00,0.0150
1426.00,0.0143
1425.00,0.0136
1424.00,0.0130
1423.00,0.0126
1422.00,0.0124
1421.00,0.0122
1420.00,0.0119
1419.00,0.0117
1418.00,0.0116
1417.00,0.0113
1416.00,0.0111
1415.00,0.0110
1414.00,0.0109
1413.00,0.0107
1412.00,0.0105
1411.00,0.0104
1410.00,0.0104
1409.00,0.0103
1408.00,0.0102
1407.00,0.0103
1406.00,0.0104
1405.00,0.0104
1404.00,0.0104
1403.00,0.0106
1402.00,0.0107
1401.00,0.0108
1400.00,0.0108
1399.00,0.0110
1398.00,0.0113
1397.00,0.0115
1396.00,0.0117
1395.00,0.0120
1394.00,0.0125
1393.00,0.0130
1392.00,0.0135
1391.00,0.0143
1390.00,0.0153
1389.00,0.0167
1388.00,0.0188
1387.00,0.0219
1386.00,0.0261
1385.00,0.0316
1384.00,0.0393
1383.00,0.0502
1382.00,0.0651
1381.00,0.0846
1380.00,0.1090
1379.00,0.1370
1378.00,0.1643
1377.00,0.1845
1376.00,0.1917
1375.00,0.1824
1374.00,0.1594
1373.00,0.1314
1372.00,0.1055
1371.00,0.0842
1370.00,0.0673
1369.00,0.0547
1368.00,0.0460
1367.00,0.0406
1366.00,0.0377
1365.00,0.0366
1364.00,0.0368
1363.00,0.0381
1362.00,0.0402
1361.00,0.0425
1360.00,0.0442
1359.00,0.0447
1358.00,0.0437
1357.00,0.0412
1356.00,0.0376
1355.00,0.0336
1354.00,0.0297
1353.00,0.0264
1352.00,0.0237
1351.00,0.0214
1350.00,0.0196
1349.00,0.0182
1348.00,0.0169
1347.00,0.0159
1346.00,0.0151
1345.00,0.0143
1344.00,0.0137
1343.00,0.0132
1342.00,0.0127
1341.00,0.0123
1340.00,0.0121
1339.00,0.0119
1338.00,0.0118
1337.00,0.0117
1336.00,0.0118
1335.00,0.0119
1334.00,0.0122
1333.00,0.0126
1332.00,0.0130
1331.00,0.0134
1330.00,0.0135
1329.00,0.0134
1328.00,0.0130
1327.00,0.0126
1326.00,0.0120
1325.00,0.0115
1324.00,0.0109
1323.00,0.0104
1322.00,0.0099
1321.00,0.0096
1320.00,0.0094
1319.00,0.0092
1318.00,0.0090
1317.00,0.0089
1316.00,0.0089
1315.00,0.0089
1314.00,0.0089
1313.00,0.0089
1312.00,0.0089
1311.00,0.0091
1310.00,0.0094
1309.00,0.0099
1308.00,0.0107
1307.00,0.0117
1306.00,0.0126
1305.00,0.0133
1304.00,0.0135
1303.00,0.0133
1302.00,0.0130
1301.00,0.0127
1300.00,0.0126
1299.00,0.0127
1298.00,0.0128
1297.00,0.0129
1296.00,0.0128
1295.00,0.0126
1294.00,0.0122
1293.00,0.0117
1292.00,0.0112
1291.00,0.0107
1290.00,0.0102
1289.00,0.0098
1288.00,0.0095
1287.00,0.0093
1286.00,0.0091
1285.00,0.0089
1284.00,0.0087
1283.00,0.0086
1282.00,0.0085
1281.00,0.0084
1280.00,0.0082
1279.00,0.0081
1278.00,0.0080
1277.00,0.0080
1276.00,0.0079
1275.00,0.0079
1274.00,0.0079
1273.00,0.0080
1272.00,0.0081
1271.00,0.0081
1270.00,0.0082
1269.00,0.0083
1268.00,0.0084
1267.00,0.0086
1266.00,0.0087
1265.00,0.0089
1264.00,0.0091
1263.00,0.0093
1262.00,0.0095
1261.00,0.0098
1260.00,0.0103
1259.00,0.0108
1258.00,0.0114
1257.00,0.0119
1256.00,0.0121
1255.00,0.0120
1254.00,0.0114
1253.00,0.0107
1252.00,0.0100
1251.00,0.0094
1250.00,0.0090
1249.00,0.0086
1248.00,0.0083
1247.00,0.0081
1246.00,0.0078
1245.00,0.0076
1244.00,0.0074
1243.00,0.0073
1242.00,0.0071
1241.00,0.0070
1240.00,0.0070
1239.00,0.0069
1238.00,0.0069
1237.00,0.0068
1236.00,0.0067
1235.00,0.0066
1234.00,0.0066
1233.00,0.0066
1232.00,0.0066
1231.00,0.0066
1230.00,0.0067
1229.00,0.0069
1228.00,0.0071
1227.00,0.0073
1226.00,0.0075
1225.00,0.0077
1224.00,0.0080
1223.00,0.0083
1222.00,0.0086
1221.00,0.0089
1220.00,0.0090
1219.00,0.0091
1218.00,0.0090
1217.00,0.0087
1216.00,0.0085
1215.00,0.0083
1214.00,0.0080
1213.00,0.0077
1212.00,0.0075
1211.00,0.0072
1210.00,0.0070
1209.00,0.0068
1208.00,0.0067
1207.00,0.0067
1206.00,0.0066
1205.00,0.0066
1204.00,0.0065
1203.00,0.0064
1202.00,0.0064
1201.00,0.0063
1200.00,0.0063
1199.00,0.0063
1198.00,0.0063
1197.00,0.0063
1196.00,0.0063
1195.00,0.0063
1194.00,0.0064
1193.00,0.0063
1192.00,0.0063
1191.00,0.0063
1190.00,0.0062
1189.00,0.0062
1188.00,0.0061
1187.00,0.0061
1186.00,0.0062
1185.00,0.0063
1184.00,0.0065
1183.00,0.0067
1182.00,0.0070
1181.00,0.0072
1180.00,0.0076
1179.00,0.0080
1178.00,0.0086
1177.00,0.0093
1176.00,0.0103
1175.00,0.0116
1174.00,0.0133
1173.00,0.0155
1172.00,0.0180
1171.00,0.0208
1170.00,0.0234
1169.00,0.0256
1168.00,0.0269
1167.00,0.0272
1166.00,0.0266
1165.00,0.0255
1164.00,0.0242
1163.00,0.0230
1162.00,0.0219
1161.00,0.0211
1160.00,0.0205
1159.00,0.0201
1158.00,0.0197
1157.00,0.0195
1156.00,0.0194
1155.00,0.0193
1154.00,0.0192
1153.00,0.0191
1152.00,0.0187
1151.00,0.0181
1150.00,0.0173
1149.00,0.0164
1148.00,0.0155
1147.00,0.0147
1146.00,0.0139
1145.00,0.0132
1144.00,0.0124
1143.00,0.0117
1142.00,0.0111
1141.00,0.0105
1140.00,0.0100
1139.00,0.0095
1138.00,0.0092
1137.00,0.0089
1136.00,0.0087
1135.00,0.0085
1134.00,0.0083
1133.00,0.0082
1132.00,0.0080
1131.00,0.0079
1130.00,0.0079
1129.00,0.0080
1128.00,0.0081
1127.00,0.0082
1126.00,0.0084
1125.00,0.0085
1124.00,0.0086
1123.00,0.0086
1122.00,0.0087
1121.00,0.0088
1120.00,0.0089
1119.00,0.0090
1118.00,0.0090
1117.00,0.0091
1116.00,0.0091
1115.00,0.0091
1114.00,0.0091
1113.00,0.0093
1112.00,0.0095
1111.00,0.0098
1110.00,0.0101
1109.00,0.0106
1108.00,0.0111
1107.00,0.0118
1106.00,0.0125
1105.00,0.0131
1104.00,0.0136
1103.00,0.0138
1102.00,0.0137
1101.00,0.0133
1100.00,0.0128
1099.00,0.0121
1098.00,0.0115
1097.00,0.0109
1096.00,0.0104
1095.00,0.0100
1094.00,0.0097
1093.00,0.0095
1092.00,0.0093
1091.00,0.0092
1090.00,0.0091
1089.00,0.0090
1088.00,0.0089
1087.00,0.0087
1086.00,0.0086
1085.00,0.0086
1084.00,0.0086
1083.00,0.0086
1082.00,0.0085
1081.00,0.0085
1080.00,0.0085
1079.00,0.0084
1078.00,0.0083
1077.00,0.0083
1076.00,0.0082
1075.00,0.0082
1074.00,0.0081
1073.00,0.0080
1072.00,0.0080
1071.00,0.0080
1070.00,0.0080
1069.00,0.0081
1068.00,0.0081
1067.00,0.0081
1066.00,0.0081
1065.00,0.0081
1064.00,0.0081
1063.00,0.0081
1062.00,0.0081
1061.00,0.0082
1060.00,0.0083
1059.00,0.0084
1058.00,0.0085
1057.00,0.0086
1056.00,0.0088
1055.00,0.0090
1054.00,0.0093
1053.00,0.0096
1052.00,0.0098
1051.00,0.0101
1050.00,0.0104
1049.00,0.0108
1048.00,0.0112
1047.00,0.0116
1046.00,0.0119
1045.00,0.0121
1044.00,0.0122
1043.00,0.0121
1042.00,0.0121
1041.00,0.0120
1040.00,0.0120
1039.00,0.0120
1038.00,0.0119
1037.00,0.0118
1036.00,0.0117
1035.00,0.0117
1034.00,0.0116
1033.00,0.0116
1032.00,0.0115
1031.00,0.0115
1030.00,0.0114
1029.00,0.0114
1028.00,0.0115
1027.00,0.0116
1026.00,0.0118
1025.00,0.0120
1024.00,0.0122
1023.00,0.0124
1022.00,0.0126
1021.00,0.0127
1020.00,0.0129
1019.00,0.0129
1018.00,0.0130
1017.00,0.0131
1016.00,0.0131
1015.00,0.0130
1014.00,0.0130
1013.00,0.0129
1012.00,0.0129
1011.00,0.0130
1010.00,0.0130
1009.00,0.0131
1008.00,0.0133
1007.00,0.0136
1006.00,0.0142
1005.00,0.0151
1004.00,0.0164
1003.00,0.0182
1002.00,0.0208
1001.00,0.0239
1000.00,0.0271
999.00,0.0297
998.00,0.0308
997.00,0.0301
996.00,0.0277
995.00,0.0244
994.00,0.0210
993.00,0.0181
992.00,0.0159
991.00,0.0144
990.00,0.0132
989.00,0.0125
988.00,0.0120
987.00,0.0117
986.00,0.0117
985.00,0.0118
984.00,0.0121
983.00,0.0127
982.00,0.0136
981.00,0.0149
980.00,0.0168
979.00,0.0193
978.00,0.0226
977.00,0.0263
976.00,0.0302
975.00,0.0338
974.00,0.0362
973.00,0.0368
972.00,0.0352
971.00,0.0318
970.00,0.0275
969.00,0.0233
968.00,0.0196
967.00,0.0169
966.00,0.0148
965.00,0.0132
964.00,0.0122
963.00,0.0114
962.00,0.0108
961.00,0.0102
960.00,0.0098
959.00,0.0094
958.00,0.0091
957.00,0.0089
956.00,0.0087
955.00,0.0085
954.00,0.0083
953.00,0.0082
952.00,0.0080
951.00,0.0080
950.00,0.0079
949.00,0.0078
948.00,0.0078
947.00,0.0079
946.00,0.0081
945.00,0.0084
944.00,0.0087
943.00,0.0091
942.00,0.0095
941.00,0.0098
940.00,0.0098
939.00,0.0096
938.00,0.0091
937.00,0.0085
936.00,0.0081
935.00,0.0077
934.00,0.0074
933.00,0.0072
932.00,0.0070
931.00,0.0068
930.00,0.0067
929.00,0.0067
928.00,0.0066
927.00,0.0065
926.00,0.0065
925.00,0.0065
924.00,0.0065
923.00,0.0065
922.00,0.0065
921.00,0.0064
920.00,0.0064
919.00,0.0064
918.00,0.0065
917.00,0.0066
916.00,0.0066
915.00,0.0066
914.00,0.0067
913.00,0.0068
912.00,0.0070
911.00,0.0071
910.00,0.0073
909.00,0.0075
908.00,0.0077
907.00,0.0082
906.00,0.0088
905.00,0.0099
904.00,0.0115
903.00,0.0134
902.00,0.0154
901.00,0.0172
900.00,0.0185
899.00,0.0187
898.00,0.0179
897.00,0.0163
896.00,0.0144
895.00,0.0125
894.00,0.0111
893.00,0.0100
892.00,0.0091
891.00,0.0085
890.00,0.0080
889.00,0.0077
888.00,0.0075
887.00,0.0074
886.00,0.0074
885.00,0.0074
884.00,0.0073
883.00,0.0073
882.00,0.0073
881.00,0.0073
880.00,0.0073
879.00,0.0073
878.00,0.0073
877.00,0.0073
876.00,0.0074
875.00,0.0075
874.00,0.0077
873.00,0.0078
872.00,0.0078
871.00,0.0077
870.00,0.0076
869.00,0.0076
868.00,0.0077
867.00,0.0078
866.00,0.0079
865.00,0.0080
864.00,0.0080
863.00,0.0080
862.00,0.0080
861.00,0.0081
860.00,0.0082
859.00,0.0085
858.00,0.0088
857.00,0.0090
856.00,0.0092
855.00,0.0092
854.00,0.0093
853.00,0.0093
852.00,0.0095
851.00,0.0098
850.00,0.0103
849.00,0.0108
848.00,0.0116
847.00,0.0126
846.00,0.0142
845.00,0.0166
844.00,0.0202
843.00,0.0242
842.00,0.0275
841.00,0.0284
840.00,0.0265
839.00,0.0226
838.00,0.0185
837.00,0.0153
836.00,0.0132
835.00,0.0120
834.00,0.0112
833.00,0.0107
832.00,0.0103
831.00,0.0100
830.00,0.0098
829.00,0.0097
828.00,0.0094
827.00,0.0092
826.00,0.0090
825.00,0.0091
824.00,0.0092
823.00,0.0094
822.00,0.0096
821.00,0.0097
820.00,0.0099
819.00,0.0102
818.00,0.0106
817.00,0.0113
816.00,0.0121
815.00,0.0133
814.00,0.0148
813.00,0.0166
812.00,0.0186
811.00,0.0205
810.00,0.0220
809.00,0.0226
808.00,0.0223
807.00,0.0211
806.00,0.0194
805.00,0.0174
804.00,0.0157
803.00,0.0142
802.00,0.0132
801.00,0.0124
800.00,0.0117
799.00,0.0112
798.00,0.0107
797.00,0.0103
796.00,0.0100
795.00,0.0097
794.00,0.0094
793.00,0.0091
792.00,0.0089
791.00,0.0086
790.00,0.0083
789.00,0.0081
788.00,0.0079
787.00,0.0077
786.00,0.0075
785.00,0.0073
784.00,0.0072
783.00,0.0070
782.00,0.0069
781.00,0.0067
780.00,0.0066
779.00,0.0066
778.00,0.0066
777.00,0.0066
776.00,0.0066
775.00,0.0065
774.00,0.0064
773.00,0.0063
772.00,0.0063
771.00,0.0064
770.00,0.0065
769.00,0.0066
768.00,0.0066
767.00,0.0066
766.00,0.0065
765.00,0.0066
764.00,0.0067
763.00,0.0068
762.00,0.0069
761.00,0.0069
760.00,0.0068
759.00,0.0067
758.00,0.0067
757.00,0.0068
756.00,0.0069
755.00,0.0070
754.00,0.0071
753.00,0.0073
752.00,0.0074
751.00,0.0075
750.00,0.0076
749.00,0.0078
748.00,0.0080
747.00,0.0082
746.00,0.0084
745.00,0.0086
744.00,0.0089
743.00,0.0091
742.00,0.0094
741.00,0.0098
740.00,0.0102
739.00,0.0106
738.00,0.0109
737.00,0.0112
736.00,0.0115
735.00,0.0119
734.00,0.0125
733.00,0.0132
732.00,0.0140
731.00,0.0148
730.00,0.0152
729.00,0.0153
728.00,0.0152
727.00,0.0152
726.00,0.0152
725.00,0.0155
724.00,0.0160
723.00,0.0167
722.00,0.0174
721.00,0.0179
720.00,0.0179
719.00,0.0172
718.00,0.0161
717.00,0.0149
716.00,0.0139
715.00,0.0132
714.00,0.0126
713.00,0.0121
712.00,0.0117
711.00,0.0113
710.00,0.0111
709.00,0.0109
708.00,0.0108
707.00,0.0108
706.00,0.0106
705.00,0.0104
704.00,0.0101
703.00,0.0099
702.00,0.0098
701.00,0.0096
700.00,0.0093
699.00,0.0090
698.00,0.0089
697.00,0.0090
696.00,0.0092
695.00,0.0094
694.00,0.0094
693.00,0.0094
692.00,0.0095
691.00,0.0095
690.00,0.0094
689.00,0.0092
688.00,0.0091
687.00,0.0090
686.00,0.0092
685.00,0.0094
684.00,0.0095
683.00,0.0095
682.00,0.0094
681.00,0.0092
680.00,0.0091
679.00,0.0090
678.00,0.0090
677.00,0.0091
676.00,0.0093
675.00,0.0096
674.00,0.0098
673.00,0.0100
672.00,0.0101
671.00,0.0102
670.00,0.0101
669.00,0.0100
668.00,0.0098
667.00,0.0098
666.00,0.0098
665.00,0.0097
664.00,0.0097
663.00,0.0097
662.00,0.0096
661.00,0.0094
660.00,0.0093
659.00,0.0093
658.00,0.0092
657.00,0.0090
656.00,0.0088
655.00,0.0087
654.00,0.0087
653.00,0.0088
652.00,0.0089
651.00,0.0088
650.00,0.0086
649.00,0.0085
648.00,0.0084
647.00,0.0085
646.00,0.0086
645.00,0.0086
644.00,0.0084
643.00,0.0082
642.00,0.0081
641.00,0.0081
640.00,0.0081
639.00,0.0082
638.00,0.0082
637.00,0.0083
636.00,0.0085
635.00,0.0087
634.00,0.0088
633.00,0.0089
632.00,0.0088
631.00,0.0087
630.00,0.0086
629.00,0.0084
628.00,0.0082
627.00,0.0080
626.00,0.0080
625.00,0.0082
624.00,0.0086
623.00,0.0090
622.00,0.0093
621.00,0.0094
620.00,0.0094
619.00,0.0092
618.00,0.0090
617.00,0.0085
616.00,0.0081
615.00,0.0078
614.00,0.0079
613.00,0.0081
612.00,0.0084
611.00,0.0085
610.00,0.0086
609.00,0.0086
608.00,0.0086
607.00,0.0086
606.00,0.0086
605.00,0.0086
604.00,0.0086
603.00,0.0085
602.00,0.0084
601.00,0.0083
600.00,0.0081
599.00,0.0080
598.00,0.0079
597.00,0.0079
596.00,0.0080
595.00,0.0080
594.00,0.0080
593.00,0.0079
592.00,0.0077
591.00,0.0074
590.00,0.0072
589.00,0.0071
588.00,0.0072
587.00,0.0075
586.00,0.0077
585.00,0.0077
584.00,0.0075
583.00,0.0074
582.00,0.0076
581.00,0.0079
580.00,0.0082
579.00,0.0084
578.00,0.0085
577.00,0.0086
576.00,0.0085
575.00,0.0081
574.00,0.0078
573.00,0.0076
572.00,0.0077
571.00,0.0081
570.00,0.0086
569.00,0.0090
568.00,0.0093
567.00,0.0092
566.00,0.0089
565.00,0.0087
564.00,0.0086
563.00,0.0083
562.00,0.0080
561.00,0.0075
560.00,0.0073
559.00,0.0073
558.00,0.0073
557.00,0.0073
556.00,0.0072
555.00,0.0074
554.00,0.0075
553.00,0.0076
552.00,0.0078
551.00,0.0081
550.00,0.0087
549.00,0.0092
548.00,0.0096
547.00,0.0098
546.00,0.0097
545.00,0.0095
544.00,0.0094
543.00,0.0094
542.00,0.0093
541.00,0.0093
540.00,0.0094
539.00,0.0096
538.00,0.0100
537.00,0.0103
536.00,0.0107
535.00,0.0112
534.00,0.0116
533.00,0.0117
532.00,0.0113
531.00,0.0107
530.00,0.0101
529.00,0.0098
528.00,0.0098
527.00,0.0100
526.00,0.0104
525.00,0.0106
524.00,0.0107
523.00,0.0106
522.00,0.0104
521.00,0.0102
520.00,0.0097
519.00,0.0092
518.00,0.0089
517.00,0.0090
516.00,0.0092
515.00,0.0091
514.00,0.0087
513.00,0.0083
512.00,0.0082
511.00,0.0082
510.00,0.0081
509.00,0.0078
508.00,0.0075
507.00,0.0072
506.00,0.0072
505.00,0.0075
504.00,0.0079
503.00,0.0083
502.00,0.0084
501.00,0.0082
500.00,0.0079
499.00,0.0079
498.00,0.0080
497.00,0.0084
496.00,0.0086
495.00,0.0088
494.00,0.0088
493.00,0.0087
492.00,0.0085
491.00,0.0084
490.00,0.0083
489.00,0.0082
488.00,0.0080
487.00,0.0077
486.00,0.0074
485.00,0.0072
484.00,0.0074
483.00,0.0082
482.00,0.0092
481.00,0.0101
480.00,0.0105
479.00,0.0106
478.00,0.0108
477.00,0.0115
476.00,0.0122
475.00,0.0126
474.00,0.0124
473.00,0.0121
472.00,0.0122
471.00,0.0132
470.00,0.0144
469.00,0.0153
468.00,0.0158
467.00,0.0164
466.00,0.0174
465.00,0.0186
464.00,0.0195
463.00,0.0199
462.00,0.0202
461.00,0.0206
460.00,0.0211
459.00,0.0211
458.00,0.0207
457.00,0.0204
456.00,0.0208
455.00,0.0217
454.00,0.0221
453.00,0.0212
452.00,0.0192
451.00,0.0169
450.00,0.0153
