Created as New Dataset,Sample 178 By Administrator Date Wednesday, September 03 2025
cm-1,A
4000.00,0.0010
3999.00,0.0010
3998.00,0.0011
3997.00,0.0011
3996.00,0.0011
3995.00,0.0011
3994.00,0.0011
3993.00,0.0011
3992.00,0.0011
3991.00,0.0011
3990.00,0.0011
3989.00,0.0010
3988.00,0.0010
3987.00,0.0010
3986.00,0.0010
3985.00,0.0010
3984.00,0.0010
3983.00,0.0011
3982.00,0.0010
3981.00,0.0010
3980.00,0.0010
3979.00,0.0010
3978.00,0.0010
3977.00,0.0010
3976.00,0.0009
3975.00,0.0009
3974.00,0.0009
3973.00,0.0009
3972.00,0.0009
3971.00,0.0009
3970.00,0.0009
3969.00,0.0009
3968.00,0.0009
3967.00,0.0009
3966.00,0.0008
3965.00,0.0008
3964.00,0.0008
3963.00,0.0008
3962.00,0.0008
3961.00,0.0009
3960.00,0.0009
3959.00,0.0009
3958.00,0.0009
3957.00,0.0009
3956.00,0.0009
3955.00,0.0009
3954.00,0.0008
3953.00,0.0008
3952.00,0.0008
3951.00,0.0009
3950.00,0.0009
3949.00,0.0009
3948.00,0.0009
3947.00,0.0009
3946.00,0.0009
3945.00,0.0009
3944.00,0.0009
3943.00,0.0009
3942.00,0.0009
3941.00,0.0009
3940.00,0.0009
3939.00,0.0009
3938.00,0.0009
3937.00,0.0009
3936.00,0.0009
3935.00,0.0009
3934.00,0.0009
3933.00,0.0009
3932.00,0.0009
3931.00,0.0009
3930.00,0.0009
3929.00,0.0009
3928.00,0.0010
3927.00,0.0010
3926.00,0.0009
3925.00,0.0009
3924.00,0.0009
3923.00,0.0009
3922.00,0.0009
3921.00,0.0009
3920.00,0.0009
3919.00,0.0009
3918.00,0.0009
3917.00,0.0009
3916.00,0.0009
3915.00,0.0009
3914.00,0.0009
3913.00,0.0009
3912.00,0.0009
3911.00,0.0009
3910.00,0.0009
3909.00,0.0009
3908.00,0.0008
3907.00,0.0008
3906.00,0.0008
3905.00,0.0008
3904.00,0.0009
3903.00,0.0009
3902.00,0.0009
3901.00,0.0008
3900.00,0.0008
3899.00,0.0007
3898.00,0.0007
3897.00,0.0007
3896.00,0.0007
3895.00,0.0008
3894.00,0.0008
3893.00,0.0008
3892.00,0.0008
3891.00,0.0008
3890.00,0.0008
3889.00,0.0008
3888.00,0.0008
3887.00,0.0008
3886.00,0.0008
3885.00,0.0009
3884.00,0.0008
3883.00,0.0008
3882.00,0.0008
3881.00,0.0008
3880.00,0.0008
3879.00,0.0008
3878.00,0.0008
3877.00,0.0009
3876.00,0.0009
3875.00,0.0009
3874.00,0.0009
3873.00,0.0009
3872.00,0.0009
3871.00,0.0009
3870.00,0.0010
3869.00,0.0010
3868.00,0.0010
3867.00,0.0009
3866.00,0.0009
3865.00,0.0009
3864.00,0.0009
3863.00,0.0008
3862.00,0.0008
3861.00,0.0008
3860.00,0.0007
3859.00,0.0007
3858.00,0.0007
3857.00,0.0007
3856.00,0.0007
3855.00,0.0008
3854.00,0.0008
3853.00,0.0008
3852.00,0.0008
3851.00,0.0008
3850.00,0.0008
3849.00,0.0008
3848.00,0.0008
3847.00,0.0008
3846.00,0.0008
3845.00,0.0008
3844.00,0.0009
3843.00,0.0010
3842.00,0.0010
3841.00,0.0010
3840.00,0.0010
3839.00,0.0010
3838.00,0.0010
3837.00,0.0010
3836.00,0.0010
3835.00,0.0010
3834.00,0.0010
3833.00,0.0010
3832.00,0.0010
3831.00,0.0010
3830.00,0.0010
3829.00,0.0010
3828.00,0.0010
3827.00,0.0009
3826.00,0.0009
3825.00,0.0010
3824.00,0.0010
3823.00,0.0010
3822.00,0.0011
3821.00,0.0011
3820.00,0.0011
3819.00,0.0011
3818.00,0.0010
3817.00,0.0010
3816.00,0.0010
3815.00,0.0009
3814.00,0.0009
3813.00,0.0009
3812.00,0.0009
3811.00,0.0009
3810.00,0.0009
3809.00,0.0009
3808.00,0.0009
3807.00,0.0009
3806.00,0.0009
3805.00,0.0009
3804.00,0.0009
3803.00,0.0009
3802.00,0.0009
3801.00,0.0009
3800.00,0.0009
3799.00,0.0009
3798.00,0.0009
3797.00,0.0008
3796.00,0.0008
3795.00,0.0008
3794.00,0.0008
3793.00,0.0008
3792.00,0.0008
3791.00,0.0008
3790.00,0.0008
3789.00,0.0008
3788.00,0.0008
3787.00,0.0009
3786.00,0.0009
3785.00,0.0009
3784.00,0.0009
3783.00,0.0009
3782.00,0.0009
3781.00,0.0009
3780.00,0.0009
3779.00,0.0009
3778.00,0.0009
3777.00,0.0009
3776.00,0.0008
3775.00,0.0009
3774.00,0.0009
3773.00,0.0009
3772.00,0.0009
3771.00,0.0009
3770.00,0.0009
3769.00,0.0009
3768.00,0.0009
3767.00,0.0009
3766.00,0.0009
3765.00,0.0009
3764.00,0.0009
3763.00,0.0009
3762.00,0.0009
3761.00,0.0009
3760.00,0.0010
3759.00,0.0010
3758.00,0.0010
3757.00,0.0011
3756.00,0.0011
3755.00,0.0011
3754.00,0.0011
3753.00,0.0010
3752.00,0.0010
3751.00,0.0009
3750.00,0.0009
3749.00,0.0009
3748.00,0.0009
3747.00,0.0009
3746.00,0.0009
3745.00,0.0009
3744.00,0.0009
3743.00,0.0008
3742.00,0.0008
3741.00,0.0008
3740.00,0.0008
3739.00,0.0009
3738.00,0.0009
3737.00,0.0009
3736.00,0.0009
3735.00,0.0008
3734.00,0.0008
3733.00,0.0008
3732.00,0.0008
3731.00,0.0008
3730.00,0.0008
3729.00,0.0008
3728.00,0.0007
3727.00,0.0007
3726.00,0.0007
3725.00,0.0008
3724.00,0.0007
3723.00,0.0007
3722.00,0.0007
3721.00,0.0007
3720.00,0.0007
3719.00,0.0008
3718.00,0.0008
3717.00,0.0008
3716.00,0.0008
3715.00,0.0008
3714.00,0.0008
3713.00,0.0008
3712.00,0.0008
3711.00,0.0008
3710.00,0.0007
3709.00,0.0007
3708.00,0.0007
3707.00,0.0007
3706.00,0.0007
3705.00,0.0007
3704.00,0.0007
3703.00,0.0007
3702.00,0.0007
3701.00,0.0007
3700.00,0.0007
3699.00,0.0006
3698.00,0.0006
3697.00,0.0006
3696.00,0.0007
3695.00,0.0007
3694.00,0.0007
3693.00,0.0007
3692.00,0.0007
3691.00,0.0007
3690.00,0.0007
3689.00,0.0007
3688.00,0.0007
3687.00,0.0007
3686.00,0.0007
3685.00,0.0007
3684.00,0.0007
3683.00,0.0008
3682.00,0.0008
3681.00,0.0008
3680.00,0.0008
3679.00,0.0008
3678.00,0.0008
3677.00,0.0008
3676.00,0.0009
3675.00,0.0009
3674.00,0.0009
3673.00,0.0008
3672.00,0.0008
3671.00,0.0008
3670.00,0.0008
3669.00,0.0007
3668.00,0.0007
3667.00,0.0006
3666.00,0.0006
3665.00,0.0005
3664.00,0.0005
3663.00,0.0004
3662.00,0.0005
3661.00,0.0005
3660.00,0.0005
3659.00,0.0006
3658.00,0.0006
3657.00,0.0006
3656.00,0.0006
3655.00,0.0006
3654.00,0.0006
3653.00,0.0006
3652.00,0.0006
3651.00,0.0007
3650.00,0.0007
3649.00,0.0007
3648.00,0.0007
3647.00,0.0007
3646.00,0.0007
3645.00,0.0007
3644.00,0.0007
3643.00,0.0007
3642.00,0.0007
3641.00,0.0007
3640.00,0.0007
3639.00,0.0008
3638.00,0.0008
3637.00,0.0008
3636.00,0.0008
3635.00,0.0008
3634.00,0.0008
3633.00,0.0008
3632.00,0.0008
3631.00,0.0008
3630.00,0.0008
3629.00,0.0008
3628.00,0.0008
3627.00,0.0008
3626.00,0.0008
3625.00,0.0008
3624.00,0.0008
3623.00,0.0008
3622.00,0.0008
3621.00,0.0009
3620.00,0.0009
3619.00,0.0009
3618.00,0.0010
3617.00,0.0010
3616.00,0.0010
3615.00,0.0010
3614.00,0.0009
3613.00,0.0009
3612.00,0.0009
3611.00,0.0009
3610.00,0.0009
3609.00,0.0009
3608.00,0.0009
3607.00,0.0009
3606.00,0.0010
3605.00,0.0010
3604.00,0.0010
3603.00,0.0011
3602.00,0.0011
3601.00,0.0011
3600.00,0.0011
3599.00,0.0011
3598.00,0.0011
3597.00,0.0012
3596.00,0.0012
3595.00,0.0012
3594.00,0.0012
3593.00,0.0012
3592.00,0.0012
3591.00,0.0012
3590.00,0.0011
3589.00,0.0011
3588.00,0.0011
3587.00,0.0011
3586.00,0.0011
3585.00,0.0011
3584.00,0.0011
3583.00,0.0011
3582.00,0.0012
3581.00,0.0012
3580.00,0.0013
3579.00,0.0013
3578.00,0.0014
3577.00,0.0014
3576.00,0.0014
3575.00,0.0014
3574.00,0.0013
3573.00,0.0013
3572.00,0.0013
3571.00,0.0013
3570.00,0.0013
3569.00,0.0014
3568.00,0.0014
3567.00,0.0015
3566.00,0.0015
3565.00,0.0015
3564.00,0.0015
3563.00,0.0015
3562.00,0.0015
3561.00,0.0015
3560.00,0.0015
3559.00,0.0015
3558.00,0.0015
3557.00,0.0015
3556.00,0.0015
3555.00,0.0015
3554.00,0.0016
3553.00,0.0016
3552.00,0.0017
3551.00,0.0017
3550.00,0.0017
3549.00,0.0017
3548.00,0.0017
3547.00,0.0017
3546.00,0.0018
3545.00,0.0018
3544.00,0.0018
3543.00,0.0019
3542.00,0.0019
3541.00,0.0019
3540.00,0.0019
3539.00,0.0019
3538.00,0.0019
3537.00,0.0019
3536.00,0.0020
3535.00,0.0020
3534.00,0.0020
3533.00,0.0021
3532.00,0.0021
3531.00,0.0022
3530.00,0.0022
3529.00,0.0021
3528.00,0.0021
3527.00,0.0021
3526.00,0.0021
3525.00,0.0021
3524.00,0.0021
3523.00,0.0021
3522.00,0.0022
3521.00,0.0022
3520.00,0.0022
3519.00,0.0022
3518.00,0.0023
3517.00,0.0023
3516.00,0.0023
3515.00,0.0024
3514.00,0.0024
3513.00,0.0025
3512.00,0.0025
3511.00,0.0025
3510.00,0.0025
3509.00,0.0025
3508.00,0.0025
3507.00,0.0025
3506.00,0.0026
3505.00,0.0026
3504.00,0.0026
3503.00,0.0026
3502.00,0.0026
3501.00,0.0026
3500.00,0.0025
3499.00,0.0025
3498.00,0.0025
3497.00,0.0025
3496.00,0.0024
3495.00,0.0025
3494.00,0.0025
3493.00,0.0026
3492.00,0.0026
3491.00,0.0027
3490.00,0.0027
3489.00,0.0027
3488.00,0.0027
3487.00,0.0027
3486.00,0.0027
3485.00,0.0027
3484.00,0.0027
3483.00,0.0028
3482.00,0.0028
3481.00,0.0029
3480.00,0.0030
3479.00,0.0030
3478.00,0.0030
3477.00,0.0030
3476.00,0.0029
3475.00,0.0029
3474.00,0.0029
3473.00,0.0029
3472.00,0.0029
3471.00,0.0030
3470.00,0.0030
3469.00,0.0031
3468.00,0.0031
3467.00,0.0031
3466.00,0.0031
3465.00,0.0032
3464.00,0.0032
3463.00,0.0031
3462.00,0.0031
3461.00,0.0031
3460.00,0.0031
3459.00,0.0031
3458.00,0.0032
3457.00,0.0033
3456.00,0.0033
3455.00,0.0034
3454.00,0.0034
3453.00,0.0034
3452.00,0.0034
3451.00,0.0034
3450.00,0.0034
3449.00,0.0034
3448.00,0.0034
3447.00,0.0034
3446.00,0.0035
3445.00,0.0035
3444.00,0.0035
3443.00,0.0035
3442.00,0.0035
3441.00,0.0035
3440.00,0.0035
3439.00,0.0035
3438.00,0.0036
3437.00,0.0036
3436.00,0.0036
3435.00,0.0036
3434.00,0.0036
3433.00,0.0036
3432.00,0.0037
3431.00,0.0037
3430.00,0.0038
3429.00,0.0038
3428.00,0.0038
3427.00,0.0038
3426.00,0.0038
3425.00,0.0038
3424.00,0.0038
3423.00,0.0038
3422.00,0.0038
3421.00,0.0039
3420.00,0.0039
3419.00,0.0039
3418.00,0.0039
3417.00,0.0040
3416.00,0.0040
3415.00,0.0040
3414.00,0.0040
3413.00,0.0040
3412.00,0.0040
3411.00,0.0040
3410.00,0.0040
3409.00,0.0040
3408.00,0.0040
3407.00,0.0040
3406.00,0.0040
3405.00,0.0041
3404.00,0.0041
3403.00,0.0041
3402.00,0.0041
3401.00,0.0041
3400.00,0.0041
3399.00,0.0041
3398.00,0.0041
3397.00,0.0042
3396.00,0.0042
3395.00,0.0042
3394.00,0.0042
3393.00,0.0042
3392.00,0.0042
3391.00,0.0042
3390.00,0.0042
3389.00,0.0042
3388.00,0.0042
3387.00,0.0042
3386.00,0.0042
3385.00,0.0043
3384.00,0.0043
3383.00,0.0043
3382.00,0.0043
3381.00,0.0043
3380.00,0.0043
3379.00,0.0043
3378.00,0.0043
3377.00,0.0043
3376.00,0.0044
3375.00,0.0044
3374.00,0.0045
3373.00,0.0045
3372.00,0.0045
3371.00,0.0045
3370.00,0.0045
3369.00,0.0045
3368.00,0.0045
3367.00,0.0045
3366.00,0.0045
3365.00,0.0045
3364.00,0.0045
3363.00,0.0046
3362.00,0.0046
3361.00,0.0046
3360.00,0.0045
3359.00,0.0045
3358.00,0.0045
3357.00,0.0046
3356.00,0.0046
3355.00,0.0046
3354.00,0.0046
3353.00,0.0046
3352.00,0.0046
3351.00,0.0046
3350.00,0.0047
3349.00,0.0047
3348.00,0.0047
3347.00,0.0047
3346.00,0.0047
3345.00,0.0046
3344.00,0.0046
3343.00,0.0046
3342.00,0.0046
3341.00,0.0046
3340.00,0.0046
3339.00,0.0047
3338.00,0.0047
3337.00,0.0046
3336.00,0.0046
3335.00,0.0045
3334.00,0.0045
3333.00,0.0045
3332.00,0.0045
3331.00,0.0045
3330.00,0.0045
3329.00,0.0046
3328.00,0.0046
3327.00,0.0046
3326.00,0.0046
3325.00,0.0046
3324.00,0.0046
3323.00,0.0046
3322.00,0.0046
3321.00,0.0045
3320.00,0.0045
3319.00,0.0045
3318.00,0.0045
3317.00,0.0045
3316.00,0.0046
3315.00,0.0046
3314.00,0.0046
3313.00,0.0046
3312.00,0.0047
3311.00,0.0047
3310.00,0.0047
3309.00,0.0047
3308.00,0.0047
3307.00,0.0047
3306.00,0.0047
3305.00,0.0047
3304.00,0.0047
3303.00,0.0047
3302.00,0.0046
3301.00,0.0046
3300.00,0.0046
3299.00,0.0046
3298.00,0.0046
3297.00,0.0046
3296.00,0.0046
3295.00,0.0046
3294.00,0.0046
3293.00,0.0045
3292.00,0.0045
3291.00,0.0045
3290.00,0.0045
3289.00,0.0045
3288.00,0.0045
3287.00,0.0045
3286.00,0.0044
3285.00,0.0044
3284.00,0.0043
3283.00,0.0043
3282.00,0.0043
3281.00,0.0043
3280.00,0.0043
3279.00,0.0042
3278.00,0.0042
3277.00,0.0042
3276.00,0.0041
3275.00,0.0041
3274.00,0.0041
3273.00,0.0041
3272.00,0.0041
3271.00,0.0041
3270.00,0.0041
3269.00,0.0041
3268.00,0.0041
3267.00,0.0041
3266.00,0.0040
3265.00,0.0040
3264.00,0.0040
3263.00,0.0040
3262.00,0.0040
3261.00,0.0040
3260.00,0.0040
3259.00,0.0040
3258.00,0.0040
3257.00,0.0039
3256.00,0.0039
3255.00,0.0039
3254.00,0.0039
3253.00,0.0040
3252.00,0.0040
3251.00,0.0040
3250.00,0.0039
3249.00,0.0039
3248.00,0.0039
3247.00,0.0038
3246.00,0.0038
3245.00,0.0038
3244.00,0.0038
3243.00,0.0037
3242.00,0.0037
3241.00,0.0037
3240.00,0.0037
3239.00,0.0038
3238.00,0.0038
3237.00,0.0038
3236.00,0.0038
3235.00,0.0038
3234.00,0.0039
3233.00,0.0039
3232.00,0.0039
3231.00,0.0039
3230.00,0.0039
3229.00,0.0039
3228.00,0.0039
3227.00,0.0039
3226.00,0.0039
3225.00,0.0039
3224.00,0.0039
3223.00,0.0039
3222.00,0.0039
3221.00,0.0039
3220.00,0.0040
3219.00,0.0040
3218.00,0.0041
3217.00,0.0041
3216.00,0.0041
3215.00,0.0041
3214.00,0.0041
3213.00,0.0041
3212.00,0.0041
3211.00,0.0042
3210.00,0.0042
3209.00,0.0042
3208.00,0.0043
3207.00,0.0043
3206.00,0.0043
3205.00,0.0042
3204.00,0.0042
3203.00,0.0042
3202.00,0.0041
3201.00,0.0041
3200.00,0.0041
3199.00,0.0042
3198.00,0.0042
3197.00,0.0042
3196.00,0.0042
3195.00,0.0042
3194.00,0.0042
3193.00,0.0042
3192.00,0.0042
3191.00,0.0042
3190.00,0.0041
3189.00,0.0041
3188.00,0.0041
3187.00,0.0041
3186.00,0.0041
3185.00,0.0041
3184.00,0.0041
3183.00,0.0040
3182.00,0.0040
3181.00,0.0040
3180.00,0.0040
3179.00,0.0040
3178.00,0.0039
3177.00,0.0039
3176.00,0.0039
3175.00,0.0039
3174.00,0.0038
3173.00,0.0038
3172.00,0.0038
3171.00,0.0039
3170.00,0.0039
3169.00,0.0038
3168.00,0.0038
3167.00,0.0037
3166.00,0.0037
3165.00,0.0037
3164.00,0.0037
3163.00,0.0037
3162.00,0.0037
3161.00,0.0037
3160.00,0.0037
3159.00,0.0037
3158.00,0.0037
3157.00,0.0037
3156.00,0.0037
3155.00,0.0038
3154.00,0.0038
3153.00,0.0038
3152.00,0.0038
3151.00,0.0038
3150.00,0.0038
3149.00,0.0038
3148.00,0.0037
3147.00,0.0037
3146.00,0.0037
3145.00,0.0036
3144.00,0.0036
3143.00,0.0036
3142.00,0.0036
3141.00,0.0036
3140.00,0.0036
3139.00,0.0036
3138.00,0.0035
3137.00,0.0035
3136.00,0.0035
3135.00,0.0035
3134.00,0.0035
3133.00,0.0034
3132.00,0.0034
3131.00,0.0034
3130.00,0.0033
3129.00,0.0033
3128.00,0.0033
3127.00,0.0033
3126.00,0.0033
3125.00,0.0033
3124.00,0.0033
3123.00,0.0032
3122.00,0.0032
3121.00,0.0032
3120.00,0.0032
3119.00,0.0032
3118.00,0.0032
3117.00,0.0032
3116.00,0.0032
3115.00,0.0031
3114.00,0.0031
3113.00,0.0031
3112.00,0.0031
3111.00,0.0031
3110.00,0.0031
3109.00,0.0031
3108.00,0.0031
3107.00,0.0030
3106.00,0.0030
3105.00,0.0030
3104.00,0.0030
3103.00,0.0030
3102.00,0.0030
3101.00,0.0030
3100.00,0.0031
3099.00,0.0031
3098.00,0.0031
3097.00,0.0031
3096.00,0.0031
3095.00,0.0031
3094.00,0.0030
3093.00,0.0030
3092.00,0.0030
3091.00,0.0030
3090.00,0.0030
3089.00,0.0030
3088.00,0.0030
3087.00,0.0030
3086.00,0.0030
3085.00,0.0029
3084.00,0.0030
3083.00,0.0030
3082.00,0.0030
3081.00,0.0030
3080.00,0.0030
3079.00,0.0030
3078.00,0.0030
3077.00,0.0030
3076.00,0.0030
3075.00,0.0031
3074.00,0.0031
3073.00,0.0031
3072.00,0.0031
3071.00,0.0031
3070.00,0.0031
3069.00,0.0031
3068.00,0.0031
3067.00,0.0032
3066.00,0.0032
3065.00,0.0032
3064.00,0.0032
3063.00,0.0032
3062.00,0.0032
3061.00,0.0032
3060.00,0.0033
3059.00,0.0033
3058.00,0.0033
3057.00,0.0033
3056.00,0.0033
3055.00,0.0033
3054.00,0.0033
3053.00,0.0033
3052.00,0.0033
3051.00,0.0033
3050.00,0.0033
3049.00,0.0034
3048.00,0.0034
3047.00,0.0034
3046.00,0.0034
3045.00,0.0034
3044.00,0.0034
3043.00,0.0034
3042.00,0.0034
3041.00,0.0034
3040.00,0.0035
3039.00,0.0036
3038.00,0.0036
3037.00,0.0037
3036.00,0.0037
3035.00,0.0038
3034.00,0.0038
3033.00,0.0039
3032.00,0.0039
3031.00,0.0039
3030.00,0.0040
3029.00,0.0040
3028.00,0.0040
3027.00,0.0041
3026.00,0.0041
3025.00,0.0041
3024.00,0.0042
3023.00,0.0043
3022.00,0.0043
3021.00,0.0044
3020.00,0.0045
3019.00,0.0046
3018.00,0.0046
3017.00,0.0047
3016.00,0.0048
3015.00,0.0049
3014.00,0.0050
3013.00,0.0051
3012.00,0.0052
3011.00,0.0053
3010.00,0.0054
3009.00,0.0056
3008.00,0.0057
3007.00,0.0059
3006.00,0.0060
3005.00,0.0061
3004.00,0.0062
3003.00,0.0064
3002.00,0.0065
3001.00,0.0067
3000.00,0.0069
2999.00,0.0072
2998.00,0.0074
2997.00,0.0077
2996.00,0.0081
2995.00,0.0084
2994.00,0.0088
2993.00,0.0093
2992.00,0.0098
2991.00,0.0103
2990.00,0.0110
2989.00,0.0117
2988.00,0.0124
2987.00,0.0133
2986.00,0.0142
2985.00,0.0151
2984.00,0.0162
2983.00,0.0174
2982.00,0.0188
2981.00,0.0205
2980.00,0.0224
2979.00,0.0246
2978.00,0.0272
2977.00,0.0300
2976.00,0.0333
2975.00,0.0370
2974.00,0.0413
2973.00,0.0461
2972.00,0.0515
2971.00,0.0576
2970.00,0.0645
2969.00,0.0720
2968.00,0.0802
2967.00,0.0890
2966.00,0.0981
2965.00,0.1074
2964.00,0.1164
2963.00,0.1247
2962.00,0.1320
2961.00,0.1378
2960.00,0.1424
2959.00,0.1461
2958.00,0.1496
2957.00,0.1534
2956.00,0.1581
2955.00,0.1640
2954.00,0.1709
2953.00,0.1781
2952.00,0.1847
2951.00,0.1892
2950.00,0.1906
2949.00,0.1880
2948.00,0.1814
2947.00,0.1715
2946.00,0.1594
2945.00,0.1466
2944.00,0.1346
2943.00,0.1242
2942.00,0.1161
2941.00,0.1106
2940.00,0.1075
2939.00,0.1067
2938.00,0.1079
2937.00,0.1108
2936.00,0.1153
2935.00,0.1213
2934.00,0.1287
2933.00,0.1374
2932.00,0.1472
2931.00,0.1579
2930.00,0.1693
2929.00,0.1811
2928.00,0.1929
2927.00,0.2045
2926.00,0.2157
2925.00,0.2265
2924.00,0.2370
2923.00,0.2474
2922.00,0.2577
2921.00,0.2675
2920.00,0.2762
2919.00,0.2825
2918.00,0.2855
2917.00,0.2843
2916.00,0.2789
2915.00,0.2702
2914.00,0.2594
2913.00,0.2478
2912.00,0.2365
2911.00,0.2262
2910.00,0.2170
2909.00,0.2089
2908.00,0.2016
2907.00,0.1946
2906.00,0.1878
2905.00,0.1810
2904.00,0.1741
2903.00,0.1672
2902.00,0.1603
2901.00,0.1536
2900.00,0.1472
2899.00,0.1410
2898.00,0.1353
2897.00,0.1299
2896.00,0.1251
2895.00,0.1209
2894.00,0.1173
2893.00,0.1143
2892.00,0.1120
2891.00,0.1102
2890.00,0.1090
2889.00,0.1082
2888.00,0.1077
2887.00,0.1076
2886.00,0.1078
2885.00,0.1084
2884.00,0.1094
2883.00,0.1108
2882.00,0.1127
2881.00,0.1149
2880.00,0.1170
2879.00,0.1188
2878.00,0.1199
2877.00,0.1202
2876.00,0.1198
2875.00,0.1191
2874.00,0.1185
2873.00,0.1186
2872.00,0.1193
2871.00,0.1208
2870.00,0.1227
2869.00,0.1246
2868.00,0.1257
2867.00,0.1254
2866.00,0.1230
2865.00,0.1184
2864.00,0.1119
2863.00,0.1045
2862.00,0.0971
2861.00,0.0906
2860.00,0.0855
2859.00,0.0821
2858.00,0.0801
2857.00,0.0794
2856.00,0.0797
2855.00,0.0808
2854.00,0.0824
2853.00,0.0844
2852.00,0.0865
2851.00,0.0883
2850.00,0.0898
2849.00,0.0908
2848.00,0.0917
2847.00,0.0930
2846.00,0.0951
2845.00,0.0982
2844.00,0.1024
2843.00,0.1075
2842.00,0.1128
2841.00,0.1177
2840.00,0.1214
2839.00,0.1233
2838.00,0.1225
2837.00,0.1187
2836.00,0.1119
2835.00,0.1029
2834.00,0.0925
2833.00,0.0817
2832.00,0.0716
2831.00,0.0626
2830.00,0.0550
2829.00,0.0488
2828.00,0.0438
2827.00,0.0397
2826.00,0.0363
2825.00,0.0336
2824.00,0.0312
2823.00,0.0292
2822.00,0.0276
2821.00,0.0261
2820.00,0.0249
2819.00,0.0238
2818.00,0.0228
2817.00,0.0219
2816.00,0.0212
2815.00,0.0205
2814.00,0.0198
2813.00,0.0192
2812.00,0.0187
2811.00,0.0181
2810.00,0.0176
2809.00,0.0170
2808.00,0.0164
2807.00,0.0158
2806.00,0.0151
2805.00,0.0144
2804.00,0.0138
2803.00,0.0132
2802.00,0.0127
2801.00,0.0122
2800.00,0.0118
2799.00,0.0115
2798.00,0.0112
2797.00,0.0110
2796.00,0.0107
2795.00,0.0104
2794.00,0.0102
2793.00,0.0099
2792.00,0.0096
2791.00,0.0094
2790.00,0.0091
2789.00,0.0088
2788.00,0.0085
2787.00,0.0083
2786.00,0.0080
2785.00,0.0077
2784.00,0.0075
2783.00,0.0073
2782.00,0.0070
2781.00,0.0069
2780.00,0.0067
2779.00,0.0065
2778.00,0.0064
2777.00,0.0063
2776.00,0.0061
2775.00,0.0060
2774.00,0.0059
2773.00,0.0058
2772.00,0.0058
2771.00,0.0057
2770.00,0.0057
2769.00,0.0056
2768.00,0.0056
2767.00,0.0055
2766.00,0.0055
2765.00,0.0055
2764.00,0.0055
2763.00,0.0055
2762.00,0.0054
2761.00,0.0054
2760.00,0.0053
2759.00,0.0053
2758.00,0.0053
2757.00,0.0053
2756.00,0.0053
2755.00,0.0052
2754.00,0.0052
2753.00,0.0052
2752.00,0.0052
2751.00,0.0052
2750.00,0.0052
2749.00,0.0052
2748.00,0.0052
2747.00,0.0052
2746.00,0.0052
2745.00,0.0053
2744.00,0.0053
2743.00,0.0054
2742.00,0.0055
2741.00,0.0056
2740.00,0.0058
2739.00,0.0059
2738.00,0.0061
2737.00,0.0062
2736.00,0.0063
2735.00,0.0064
2734.00,0.0065
2733.00,0.0067
2732.00,0.0068
2731.00,0.0070
2730.00,0.0072
2729.00,0.0075
2728.00,0.0078
2727.00,0.0080
2726.00,0.0083
2725.00,0.0085
2724.00,0.0087
2723.00,0.0088
2722.00,0.0087
2721.00,0.0085
2720.00,0.0083
2719.00,0.0080
2718.00,0.0076
2717.00,0.0073
2716.00,0.0070
2715.00,0.0067
2714.00,0.0065
2713.00,0.0063
2712.00,0.0061
2711.00,0.0059
2710.00,0.0057
2709.00,0.0056
2708.00,0.0054
2707.00,0.0053
2706.00,0.0052
2705.00,0.0051
2704.00,0.0050
2703.00,0.0049
2702.00,0.0048
2701.00,0.0047
2700.00,0.0047
2699.00,0.0046
2698.00,0.0046
2697.00,0.0046
2696.00,0.0046
2695.00,0.0046
2694.00,0.0045
2693.00,0.0045
2692.00,0.0046
2691.00,0.0046
2690.00,0.0046
2689.00,0.0046
2688.00,0.0045
2687.00,0.0045
2686.00,0.0045
2685.00,0.0045
2684.00,0.0045
2683.00,0.0045
2682.00,0.0046
2681.00,0.0046
2680.00,0.0046
2679.00,0.0046
2678.00,0.0046
2677.00,0.0046
2676.00,0.0046
2675.00,0.0046
2674.00,0.0045
2673.00,0.0045
2672.00,0.0044
2671.00,0.0044
2670.00,0.0044
2669.00,0.0044
2668.00,0.0044
2667.00,0.0045
2666.00,0.0046
2665.00,0.0046
2664.00,0.0047
2663.00,0.0047
2662.00,0.0047
2661.00,0.0048
2660.00,0.0048
2659.00,0.0048
2658.00,0.0048
2657.00,0.0048
2656.00,0.0048
2655.00,0.0047
2654.00,0.0047
2653.00,0.0046
2652.00,0.0045
2651.00,0.0044
2650.00,0.0044
2649.00,0.0043
2648.00,0.0043
2647.00,0.0043
2646.00,0.0043
2645.00,0.0042
2644.00,0.0042
2643.00,0.0042
2642.00,0.0041
2641.00,0.0041
2640.00,0.0040
2639.00,0.0040
2638.00,0.0040
2637.00,0.0039
2636.00,0.0039
2635.00,0.0039
2634.00,0.0039
2633.00,0.0039
2632.00,0.0039
2631.00,0.0040
2630.00,0.0040
2629.00,0.0041
2628.00,0.0041
2627.00,0.0041
2626.00,0.0040
2625.00,0.0041
2624.00,0.0041
2623.00,0.0041
2622.00,0.0041
2621.00,0.0041
2620.00,0.0041
2619.00,0.0041
2618.00,0.0041
2617.00,0.0041
2616.00,0.0041
2615.00,0.0040
2614.00,0.0040
2613.00,0.0039
2612.00,0.0039
2611.00,0.0038
2610.00,0.0037
2609.00,0.0037
2608.00,0.0036
2607.00,0.0036
2606.00,0.0035
2605.00,0.0035
2604.00,0.0034
2603.00,0.0034
2602.00,0.0033
2601.00,0.0033
2600.00,0.0033
2599.00,0.0033
2598.00,0.0033
2597.00,0.0033
2596.00,0.0033
2595.00,0.0033
2594.00,0.0033
2593.00,0.0033
2592.00,0.0034
2591.00,0.0034
2590.00,0.0034
2589.00,0.0035
2588.00,0.0036
2587.00,0.0037
2586.00,0.0038
2585.00,0.0039
2584.00,0.0040
2583.00,0.0041
2582.00,0.0040
2581.00,0.0039
2580.00,0.0038
2579.00,0.0037
2578.00,0.0036
2577.00,0.0035
2576.00,0.0035
2575.00,0.0034
2574.00,0.0033
2573.00,0.0032
2572.00,0.0031
2571.00,0.0030
2570.00,0.0029
2569.00,0.0027
2568.00,0.0026
2567.00,0.0025
2566.00,0.0025
2565.00,0.0025
2564.00,0.0025
2563.00,0.0025
2562.00,0.0024
2561.00,0.0024
2560.00,0.0024
2559.00,0.0024
2558.00,0.0025
2557.00,0.0025
2556.00,0.0025
2555.00,0.0024
2554.00,0.0024
2553.00,0.0023
2552.00,0.0023
2551.00,0.0022
2550.00,0.0022
2549.00,0.0021
2548.00,0.0022
2547.00,0.0022
2546.00,0.0021
2545.00,0.0021
2544.00,0.0021
2543.00,0.0020
2542.00,0.0019
2541.00,0.0018
2540.00,0.0017
2539.00,0.0016
2538.00,0.0017
2537.00,0.0017
2536.00,0.0017
2535.00,0.0017
2534.00,0.0016
2533.00,0.0015
2532.00,0.0014
2531.00,0.0014
2530.00,0.0015
2529.00,0.0015
2528.00,0.0015
2527.00,0.0014
2526.00,0.0014
2525.00,0.0014
2524.00,0.0015
2523.00,0.0015
2522.00,0.0016
2521.00,0.0015
2520.00,0.0014
2519.00,0.0013
2518.00,0.0013
2517.00,0.0013
2516.00,0.0013
2515.00,0.0012
2514.00,0.0012
2513.00,0.0012
2512.00,0.0012
2511.00,0.0012
2510.00,0.0013
2509.00,0.0013
2508.00,0.0013
2507.00,0.0013
2506.00,0.0012
2505.00,0.0012
2504.00,0.0011
2503.00,0.0011
2502.00,0.0010
2501.00,0.0010
2500.00,0.0010
2499.00,0.0011
2498.00,0.0011
2497.00,0.0010
2496.00,0.0010
2495.00,0.0010
2494.00,0.0011
2493.00,0.0011
2492.00,0.0011
2491.00,0.0011
2490.00,0.0010
2489.00,0.0010
2488.00,0.0010
2487.00,0.0010
2486.00,0.0010
2485.00,0.0011
2484.00,0.0011
2483.00,0.0011
2482.00,0.0010
2481.00,0.0010
2480.00,0.0010
2479.00,0.0010
2478.00,0.0011
2477.00,0.0011
2476.00,0.0010
2475.00,0.0010
2474.00,0.0010
2473.00,0.0010
2472.00,0.0010
2471.00,0.0010
2470.00,0.0009
2469.00,0.0009
2468.00,0.0009
2467.00,0.0009
2466.00,0.0009
2465.00,0.0010
2464.00,0.0011
2463.00,0.0011
2462.00,0.0011
2461.00,0.0011
2460.00,0.0011
2459.00,0.0011
2458.00,0.0012
2457.00,0.0013
2456.00,0.0013
2455.00,0.0014
2454.00,0.0013
2453.00,0.0012
2452.00,0.0011
2451.00,0.0010
2450.00,0.0010
2449.00,0.0011
2448.00,0.0011
2447.00,0.0012
2446.00,0.0012
2445.00,0.0012
2444.00,0.0012
2443.00,0.0012
2442.00,0.0011
2441.00,0.0011
2440.00,0.0011
2439.00,0.0011
2438.00,0.0012
2437.00,0.0012
2436.00,0.0012
2435.00,0.0011
2434.00,0.0011
2433.00,0.0011
2432.00,0.0011
2431.00,0.0012
2430.00,0.0012
2429.00,0.0012
2428.00,0.0012
2427.00,0.0012
2426.00,0.0012
2425.00,0.0012
2424.00,0.0012
2423.00,0.0012
2422.00,0.0011
2421.00,0.0010
2420.00,0.0010
2419.00,0.0009
2418.00,0.0009
2417.00,0.0009
2416.00,0.0009
2415.00,0.0009
2414.00,0.0009
2413.00,0.0009
2412.00,0.0009
2411.00,0.0009
2410.00,0.0010
2409.00,0.0010
2408.00,0.0010
2407.00,0.0009
2406.00,0.0009
2405.00,0.0009
2404.00,0.0008
2403.00,0.0008
2402.00,0.0009
2401.00,0.0009
2400.00,0.0009
2399.00,0.0009
2398.00,0.0009
2397.00,0.0009
2396.00,0.0009
2395.00,0.0009
2394.00,0.0009
2393.00,0.0009
2392.00,0.0009
2391.00,0.0009
2390.00,0.0009
2389.00,0.0009
2388.00,0.0009
2387.00,0.0008
2386.00,0.0008
2385.00,0.0007
2384.00,0.0006
2383.00,0.0006
2382.00,0.0005
2381.00,0.0005
2380.00,0.0005
2379.00,0.0005
2378.00,0.0004
2377.00,0.0004
2376.00,0.0004
2375.00,0.0004
2374.00,0.0005
2373.00,0.0005
2372.00,0.0004
2371.00,0.0004
2370.00,0.0005
2369.00,0.0006
2368.00,0.0006
2367.00,0.0007
2366.00,0.0007
2365.00,0.0006
2364.00,0.0006
2363.00,0.0006
2362.00,0.0006
2361.00,0.0006
2360.00,0.0006
2359.00,0.0006
2358.00,0.0006
2357.00,0.0006
2356.00,0.0006
2355.00,0.0007
2354.00,0.0007
2353.00,0.0007
2352.00,0.0007
2351.00,0.0007
2350.00,0.0007
2349.00,0.0007
2348.00,0.0008
2347.00,0.0008
2346.00,0.0008
2345.00,0.0008
2344.00,0.0009
2343.00,0.0009
2342.00,0.0009
2341.00,0.0009
2340.00,0.0009
2339.00,0.0009
2338.00,0.0009
2337.00,0.0009
2336.00,0.0009
2335.00,0.0009
2334.00,0.0009
2333.00,0.0008
2332.00,0.0008
2331.00,0.0008
2330.00,0.0008
2329.00,0.0009
2328.00,0.0010
2327.00,0.0013
2326.00,0.0016
2325.00,0.0019
2324.00,0.0020
2323.00,0.0019
2322.00,0.0018
2321.00,0.0016
2320.00,0.0015
2319.00,0.0014
2318.00,0.0014
2317.00,0.0013
2316.00,0.0013
2315.00,0.0013
2314.00,0.0012
2313.00,0.0011
2312.00,0.0010
2311.00,0.0010
2310.00,0.0009
2309.00,0.0010
2308.00,0.0010
2307.00,0.0011
2306.00,0.0011
2305.00,0.0011
2304.00,0.0011
2303.00,0.0011
2302.00,0.0011
2301.00,0.0012
2300.00,0.0012
2299.00,0.0013
2298.00,0.0014
2297.00,0.0014
2296.00,0.0015
2295.00,0.0015
2294.00,0.0015
2293.00,0.0016
2292.00,0.0016
2291.00,0.0017
2290.00,0.0017
2289.00,0.0018
2288.00,0.0019
2287.00,0.0019
2286.00,0.0019
2285.00,0.0019
2284.00,0.0018
2283.00,0.0017
2282.00,0.0016
2281.00,0.0016
2280.00,0.0015
2279.00,0.0015
2278.00,0.0014
2277.00,0.0014
2276.00,0.0015
2275.00,0.0016
2274.00,0.0016
2273.00,0.0016
2272.00,0.0015
2271.00,0.0014
2270.00,0.0013
2269.00,0.0012
2268.00,0.0012
2267.00,0.0012
2266.00,0.0012
2265.00,0.0012
2264.00,0.0012
2263.00,0.0012
2262.00,0.0012
2261.00,0.0012
2260.00,0.0012
2259.00,0.0012
2258.00,0.0012
2257.00,0.0012
2256.00,0.0011
2255.00,0.0009
2254.00,0.0008
2253.00,0.0007
2252.00,0.0007
2251.00,0.0008
2250.00,0.0009
2249.00,0.0010
2248.00,0.0010
2247.00,0.0009
2246.00,0.0007
2245.00,0.0007
2244.00,0.0007
2243.00,0.0008
2242.00,0.0010
2241.00,0.0010
2240.00,0.0010
2239.00,0.0009
2238.00,0.0008
2237.00,0.0009
2236.00,0.0010
2235.00,0.0012
2234.00,0.0012
2233.00,0.0012
2232.00,0.0011
2231.00,0.0009
2230.00,0.0007
2229.00,0.0006
2228.00,0.0006
2227.00,0.0006
2226.00,0.0007
2225.00,0.0009
2224.00,0.0009
2223.00,0.0008
2222.00,0.0006
2221.00,0.0004
2220.00,0.0003
2219.00,0.0002
2218.00,0.0001
2217.00,0.0002
2216.00,0.0004
2215.00,0.0006
2214.00,0.0006
2213.00,0.0006
2212.00,0.0005
2211.00,0.0005
2210.00,0.0005
2209.00,0.0005
2208.00,0.0006
2207.00,0.0008
2206.00,0.0008
2205.00,0.0008
2204.00,0.0008
2203.00,0.0006
2202.00,0.0006
2201.00,0.0006
2200.00,0.0008
2199.00,0.0008
2198.00,0.0007
2197.00,0.0007
2196.00,0.0007
2195.00,0.0008
2194.00,0.0009
2193.00,0.0010
2192.00,0.0009
2191.00,0.0008
2190.00,0.0008
2189.00,0.0010
2188.00,0.0013
2187.00,0.0015
2186.00,0.0016
2185.00,0.0015
2184.00,0.0014
2183.00,0.0012
2182.00,0.0008
2181.00,0.0004
2180.00,0.0002
2179.00,0.0003
2178.00,0.0004
2177.00,0.0004
2176.00,0.0001
2175.00,-0.0002
2174.00,-0.0004
2173.00,-0.0003
2172.00,0.0000
2171.00,0.0005
2170.00,0.0009
2169.00,0.0013
2168.00,0.0016
2167.00,0.0017
2166.00,0.0017
2165.00,0.0017
2164.00,0.0017
2163.00,0.0017
2162.00,0.0013
2161.00,0.0005
2160.00,-0.0007
2159.00,-0.0020
2158.00,-0.0028
2157.00,-0.0029
2156.00,-0.0026
2155.00,-0.0021
2154.00,-0.0016
2153.00,-0.0013
2152.00,-0.0011
2151.00,-0.0010
2150.00,-0.0009
2149.00,-0.0008
2148.00,-0.0008
2147.00,-0.0009
2146.00,-0.0011
2145.00,-0.0013
2144.00,-0.0012
2143.00,-0.0011
2142.00,-0.0010
2141.00,-0.0010
2140.00,-0.0010
2139.00,-0.0011
2138.00,-0.0011
2137.00,-0.0011
2136.00,-0.0012
2135.00,-0.0014
2134.00,-0.0016
2133.00,-0.0015
2132.00,-0.0014
2131.00,-0.0012
2130.00,-0.0012
2129.00,-0.0012
2128.00,-0.0011
2127.00,-0.0010
2126.00,-0.0008
2125.00,-0.0006
2124.00,-0.0004
2123.00,-0.0003
2122.00,-0.0003
2121.00,-0.0003
2120.00,-0.0003
2119.00,-0.0002
2118.00,-0.0001
2117.00,0.0001
2116.00,0.0003
2115.00,0.0004
2114.00,0.0004
2113.00,0.0004
2112.00,0.0003
2111.00,0.0003
2110.00,0.0003
2109.00,0.0003
2108.00,0.0003
2107.00,0.0004
2106.00,0.0004
2105.00,0.0004
2104.00,0.0004
2103.00,0.0005
2102.00,0.0005
2101.00,0.0005
2100.00,0.0005
2099.00,0.0002
2098.00,-0.0000
2097.00,-0.0003
2096.00,-0.0005
2095.00,-0.0005
2094.00,-0.0006
2093.00,-0.0005
2092.00,-0.0004
2091.00,-0.0003
2090.00,-0.0002
2089.00,-0.0001
2088.00,0.0001
2087.00,0.0001
2086.00,0.0000
2085.00,-0.0001
2084.00,-0.0002
2083.00,-0.0002
2082.00,-0.0001
2081.00,0.0001
2080.00,0.0003
2079.00,0.0004
2078.00,0.0004
2077.00,0.0003
2076.00,0.0002
2075.00,0.0002
2074.00,0.0001
2073.00,0.0000
2072.00,-0.0000
2071.00,-0.0001
2070.00,-0.0001
2069.00,-0.0000
2068.00,0.0000
2067.00,0.0000
2066.00,-0.0000
2065.00,-0.0001
2064.00,-0.0001
2063.00,-0.0002
2062.00,-0.0002
2061.00,-0.0002
2060.00,-0.0002
2059.00,-0.0001
2058.00,0.0000
2057.00,0.0002
2056.00,0.0002
2055.00,0.0002
2054.00,0.0003
2053.00,0.0006
2052.00,0.0011
2051.00,0.0013
2050.00,0.0013
2049.00,0.0009
2048.00,0.0006
2047.00,0.0005
2046.00,0.0005
2045.00,0.0005
2044.00,0.0004
2043.00,0.0002
2042.00,0.0003
2041.00,0.0005
2040.00,0.0007
2039.00,0.0007
2038.00,0.0006
2037.00,0.0004
2036.00,0.0001
2035.00,-0.0002
2034.00,-0.0005
2033.00,-0.0007
2032.00,-0.0008
2031.00,-0.0008
2030.00,-0.0008
2029.00,-0.0009
2028.00,-0.0010
2027.00,-0.0010
2026.00,-0.0010
2025.00,-0.0010
2024.00,-0.0009
2023.00,-0.0009
2022.00,-0.0010
2021.00,-0.0011
2020.00,-0.0013
2019.00,-0.0013
2018.00,-0.0012
2017.00,-0.0010
2016.00,-0.0009
2015.00,-0.0010
2014.00,-0.0012
2013.00,-0.0012
2012.00,-0.0009
2011.00,-0.0006
2010.00,-0.0005
2009.00,-0.0008
2008.00,-0.0013
2007.00,-0.0017
2006.00,-0.0019
2005.00,-0.0019
2004.00,-0.0017
2003.00,-0.0016
2002.00,-0.0014
2001.00,-0.0012
2000.00,-0.0010
1999.00,-0.0009
1998.00,-0.0009
1997.00,-0.0009
1996.00,-0.0009
1995.00,-0.0009
1994.00,-0.0008
1993.00,-0.0007
1992.00,-0.0007
1991.00,-0.0007
1990.00,-0.0007
1989.00,-0.0006
1988.00,-0.0004
1987.00,-0.0003
1986.00,-0.0003
1985.00,-0.0003
1984.00,-0.0002
1983.00,-0.0001
1982.00,0.0001
1981.00,0.0004
1980.00,0.0005
1979.00,0.0002
1978.00,-0.0004
1977.00,-0.0009
1976.00,-0.0012
1975.00,-0.0013
1974.00,-0.0013
1973.00,-0.0013
1972.00,-0.0011
1971.00,-0.0011
1970.00,-0.0012
1969.00,-0.0013
1968.00,-0.0015
1967.00,-0.0016
1966.00,-0.0016
1965.00,-0.0015
1964.00,-0.0014
1963.00,-0.0014
1962.00,-0.0013
1961.00,-0.0013
1960.00,-0.0014
1959.00,-0.0015
1958.00,-0.0017
1957.00,-0.0017
1956.00,-0.0016
1955.00,-0.0015
1954.00,-0.0014
1953.00,-0.0014
1952.00,-0.0015
1951.00,-0.0016
1950.00,-0.0018
1949.00,-0.0017
1948.00,-0.0015
1947.00,-0.0012
1946.00,-0.0010
1945.00,-0.0010
1944.00,-0.0010
1943.00,-0.0011
1942.00,-0.0012
1941.00,-0.0013
1940.00,-0.0013
1939.00,-0.0012
1938.00,-0.0011
1937.00,-0.0009
1936.00,-0.0009
1935.00,-0.0009
1934.00,-0.0009
1933.00,-0.0008
1932.00,-0.0007
1931.00,-0.0007
1930.00,-0.0007
1929.00,-0.0007
1928.00,-0.0007
1927.00,-0.0006
1926.00,-0.0006
1925.00,-0.0005
1924.00,-0.0004
1923.00,-0.0004
1922.00,-0.0004
1921.00,-0.0003
1920.00,-0.0002
1919.00,-0.0002
1918.00,-0.0003
1917.00,-0.0004
1916.00,-0.0005
1915.00,-0.0006
1914.00,-0.0005
1913.00,-0.0004
1912.00,-0.0003
1911.00,-0.0002
1910.00,-0.0002
1909.00,-0.0002
1908.00,-0.0002
1907.00,-0.0003
1906.00,-0.0002
1905.00,-0.0001
1904.00,-0.0001
1903.00,-0.0000
1902.00,-0.0000
1901.00,-0.0000
1900.00,-0.0001
1899.00,-0.0001
1898.00,-0.0001
1897.00,-0.0000
1896.00,0.0001
1895.00,0.0002
1894.00,0.0002
1893.00,0.0002
1892.00,0.0001
1891.00,-0.0000
1890.00,-0.0002
1889.00,-0.0003
1888.00,-0.0004
1887.00,-0.0005
1886.00,-0.0005
1885.00,-0.0004
1884.00,-0.0003
1883.00,-0.0003
1882.00,-0.0002
1881.00,-0.0002
1880.00,-0.0002
1879.00,-0.0002
1878.00,-0.0002
1877.00,-0.0002
1876.00,-0.0002
1875.00,-0.0001
1874.00,-0.0001
1873.00,-0.0000
1872.00,-0.0001
1871.00,-0.0001
1870.00,-0.0001
1869.00,-0.0001
1868.00,-0.0001
1867.00,-0.0001
1866.00,-0.0001
1865.00,-0.0001
1864.00,-0.0001
1863.00,-0.0001
1862.00,-0.0001
1861.00,-0.0000
1860.00,0.0000
1859.00,0.0001
1858.00,0.0001
1857.00,0.0001
1856.00,0.0001
1855.00,0.0001
1854.00,0.0001
1853.00,0.0001
1852.00,0.0001
1851.00,0.0001
1850.00,0.0001
1849.00,0.0001
1848.00,0.0001
1847.00,0.0001
1846.00,0.0001
1845.00,0.0002
1844.00,0.0003
1843.00,0.0004
1842.00,0.0004
1841.00,0.0004
1840.00,0.0004
1839.00,0.0003
1838.00,0.0003
1837.00,0.0003
1836.00,0.0003
1835.00,0.0004
1834.00,0.0004
1833.00,0.0004
1832.00,0.0004
1831.00,0.0003
1830.00,0.0003
1829.00,0.0003
1828.00,0.0004
1827.00,0.0003
1826.00,0.0003
1825.00,0.0003
1824.00,0.0004
1823.00,0.0004
1822.00,0.0003
1821.00,0.0003
1820.00,0.0003
1819.00,0.0002
1818.00,0.0002
1817.00,0.0002
1816.00,0.0002
1815.00,0.0002
1814.00,0.0002
1813.00,0.0002
1812.00,0.0002
1811.00,0.0002
1810.00,0.0003
1809.00,0.0003
1808.00,0.0004
1807.00,0.0004
1806.00,0.0004
1805.00,0.0004
1804.00,0.0004
1803.00,0.0005
1802.00,0.0005
1801.00,0.0005
1800.00,0.0006
1799.00,0.0006
1798.00,0.0006
1797.00,0.0006
1796.00,0.0006
1795.00,0.0006
1794.00,0.0006
1793.00,0.0006
1792.00,0.0006
1791.00,0.0007
1790.00,0.0007
1789.00,0.0007
1788.00,0.0008
1787.00,0.0008
1786.00,0.0009
1785.00,0.0009
1784.00,0.0009
1783.00,0.0009
1782.00,0.0009
1781.00,0.0008
1780.00,0.0008
1779.00,0.0009
1778.00,0.0009
1777.00,0.0009
1776.00,0.0009
1775.00,0.0009
1774.00,0.0009
1773.00,0.0010
1772.00,0.0011
1771.00,0.0012
1770.00,0.0012
1769.00,0.0011
1768.00,0.0011
1767.00,0.0011
1766.00,0.0011
1765.00,0.0011
1764.00,0.0012
1763.00,0.0012
1762.00,0.0013
1761.00,0.0013
1760.00,0.0014
1759.00,0.0014
1758.00,0.0015
1757.00,0.0016
1756.00,0.0017
1755.00,0.0017
1754.00,0.0018
1753.00,0.0019
1752.00,0.0019
1751.00,0.0021
1750.00,0.0022
1749.00,0.0023
1748.00,0.0024
1747.00,0.0025
1746.00,0.0025
1745.00,0.0027
1744.00,0.0028
1743.00,0.0029
1742.00,0.0030
1741.00,0.0030
1740.00,0.0031
1739.00,0.0031
1738.00,0.0032
1737.00,0.0032
1736.00,0.0031
1735.00,0.0030
1734.00,0.0029
1733.00,0.0029
1732.00,0.0029
1731.00,0.0029
1730.00,0.0029
1729.00,0.0029
1728.00,0.0029
1727.00,0.0028
1726.00,0.0028
1725.00,0.0028
1724.00,0.0029
1723.00,0.0029
1722.00,0.0029
1721.00,0.0029
1720.00,0.0029
1719.00,0.0028
1718.00,0.0028
1717.00,0.0028
1716.00,0.0028
1715.00,0.0028
1714.00,0.0027
1713.00,0.0027
1712.00,0.0026
1711.00,0.0026
1710.00,0.0025
1709.00,0.0025
1708.00,0.0025
1707.00,0.0025
1706.00,0.0025
1705.00,0.0026
1704.00,0.0027
1703.00,0.0028
1702.00,0.0028
1701.00,0.0028
1700.00,0.0028
1699.00,0.0028
1698.00,0.0029
1697.00,0.0029
1696.00,0.0030
1695.00,0.0031
1694.00,0.0032
1693.00,0.0033
1692.00,0.0033
1691.00,0.0034
1690.00,0.0035
1689.00,0.0036
1688.00,0.0037
1687.00,0.0037
1686.00,0.0037
1685.00,0.0037
1684.00,0.0038
1683.00,0.0039
1682.00,0.0040
1681.00,0.0041
1680.00,0.0042
1679.00,0.0043
1678.00,0.0044
1677.00,0.0045
1676.00,0.0046
1675.00,0.0046
1674.00,0.0046
1673.00,0.0046
1672.00,0.0047
1671.00,0.0048
1670.00,0.0049
1669.00,0.0050
1668.00,0.0051
1667.00,0.0051
1666.00,0.0051
1665.00,0.0051
1664.00,0.0052
1663.00,0.0053
1662.00,0.0054
1661.00,0.0054
1660.00,0.0055
1659.00,0.0055
1658.00,0.0055
1657.00,0.0056
1656.00,0.0056
1655.00,0.0056
1654.00,0.0056
1653.00,0.0057
1652.00,0.0057
1651.00,0.0057
1650.00,0.0057
1649.00,0.0058
1648.00,0.0059
1647.00,0.0061
1646.00,0.0061
1645.00,0.0061
1644.00,0.0061
1643.00,0.0062
1642.00,0.0062
1641.00,0.0062
1640.00,0.0063
1639.00,0.0064
1638.00,0.0064
1637.00,0.0065
1636.00,0.0065
1635.00,0.0064
1634.00,0.0062
1633.00,0.0062
1632.00,0.0062
1631.00,0.0061
1630.00,0.0061
1629.00,0.0060
1628.00,0.0060
1627.00,0.0059
1626.00,0.0058
1625.00,0.0058
1624.00,0.0057
1623.00,0.0057
1622.00,0.0057
1621.00,0.0058
1620.00,0.0058
1619.00,0.0058
1618.00,0.0057
1617.00,0.0057
1616.00,0.0057
1615.00,0.0057
1614.00,0.0057
1613.00,0.0057
1612.00,0.0057
1611.00,0.0056
1610.00,0.0056
1609.00,0.0056
1608.00,0.0056
1607.00,0.0056
1606.00,0.0056
1605.00,0.0056
1604.00,0.0056
1603.00,0.0057
1602.00,0.0057
1601.00,0.0057
1600.00,0.0057
1599.00,0.0056
1598.00,0.0056
1597.00,0.0056
1596.00,0.0056
1595.00,0.0056
1594.00,0.0056
1593.00,0.0056
1592.00,0.0056
1591.00,0.0056
1590.00,0.0057
1589.00,0.0057
1588.00,0.0058
1587.00,0.0058
1586.00,0.0059
1585.00,0.0060
1584.00,0.0062
1583.00,0.0063
1582.00,0.0065
1581.00,0.0067
1580.00,0.0068
1579.00,0.0070
1578.00,0.0070
1577.00,0.0070
1576.00,0.0071
1575.00,0.0070
1574.00,0.0070
1573.00,0.0069
1572.00,0.0069
1571.00,0.0068
1570.00,0.0067
1569.00,0.0066
1568.00,0.0066
1567.00,0.0066
1566.00,0.0065
1565.00,0.0065
1564.00,0.0065
1563.00,0.0065
1562.00,0.0065
1561.00,0.0064
1560.00,0.0063
1559.00,0.0064
1558.00,0.0064
1557.00,0.0065
1556.00,0.0066
1555.00,0.0067
1554.00,0.0067
1553.00,0.0067
1552.00,0.0067
1551.00,0.0068
1550.00,0.0070
1549.00,0.0072
1548.00,0.0074
1547.00,0.0075
1546.00,0.0077
1545.00,0.0078
1544.00,0.0079
1543.00,0.0080
1542.00,0.0080
1541.00,0.0081
1540.00,0.0080
1539.00,0.0077
1538.00,0.0075
1537.00,0.0074
1536.00,0.0073
1535.00,0.0071
1534.00,0.0068
1533.00,0.0064
1532.00,0.0062
1531.00,0.0060
1530.00,0.0059
1529.00,0.0058
1528.00,0.0058
1527.00,0.0058
1526.00,0.0057
1525.00,0.0057
1524.00,0.0057
1523.00,0.0056
1522.00,0.0056
1521.00,0.0056
1520.00,0.0056
1519.00,0.0056
1518.00,0.0057
1517.00,0.0058
1516.00,0.0059
1515.00,0.0059
1514.00,0.0059
1513.00,0.0059
1512.00,0.0060
1511.00,0.0060
1510.00,0.0060
1509.00,0.0061
1508.00,0.0062
1507.00,0.0063
1506.00,0.0062
1505.00,0.0063
1504.00,0.0064
1503.00,0.0066
1502.00,0.0068
1501.00,0.0070
1500.00,0.0073
1499.00,0.0075
1498.00,0.0077
1497.00,0.0081
1496.00,0.0084
1495.00,0.0086
1494.00,0.0088
1493.00,0.0091
1492.00,0.0095
1491.00,0.0098
1490.00,0.0101
1489.00,0.0105
1488.00,0.0110
1487.00,0.0115
1486.00,0.0120
1485.00,0.0127
1484.00,0.0134
1483.00,0.0141
1482.00,0.0150
1481.00,0.0161
1480.00,0.0173
1479.00,0.0186
1478.00,0.0202
1477.00,0.0223
1476.00,0.0249
1475.00,0.0279
1474.00,0.0319
1473.00,0.0376
1472.00,0.0443
1471.00,0.0508
1470.00,0.0572
1469.00,0.0639
1468.00,0.0712
1467.00,0.0791
1466.00,0.0880
1465.00,0.0973
1464.00,0.1055
1463.00,0.1113
1462.00,0.1149
1461.00,0.1174
1460.00,0.1190
1459.00,0.1199
1458.00,0.1205
1457.00,0.1207
1456.00,0.1202
1455.00,0.1192
1454.00,0.1179
1453.00,0.1160
1452.00,0.1132
1451.00,0.1093
1450.00,0.1040
1449.00,0.0968
1448.00,0.0878
1447.00,0.0784
1446.00,0.0700
1445.00,0.0628
1444.00,0.0566
1443.00,0.0515
1442.00,0.0476
1441.00,0.0450
1440.00,0.0434
1439.00,0.0427
1438.00,0.0428
1437.00,0.0429
1436.00,0.0420
1435.00,0.0397
1434.00,0.0362
1433.00,0.0320
1432.00,0.0276
1431.00,0.0236
1430.00,0.0206
1429.00,0.0183
1428.00,0.0166
1427.00,0.0156
1426.00,0.0150
1425.00,0.0144
1424.00,0.0139
1423.00,0.0135
1422.00,0.0133
1421.00,0.0130
1420.00,0.0126
1419.00,0.0124
1418.00,0.0122
1417.00,0.0119
1416.00,0.0117
1415.00,0.0116
1414.00,0.0115
1413.00,0.0114
1412.00,0.0112
1411.00,0.0112
1410.00,0.0112
1409.00,0.0111
1408.00,0.0110
1407.00,0.0110
1406.00,0.0110
1405.00,0.0110
1404.00,0.0109
1403.00,0.0110
1402.00,0.0111
1401.00,0.0111
1400.00,0.0111
1399.00,0.0112
1398.00,0.0114
1397.00,0.0116
1396.00,0.0119
1395.00,0.0123
1394.00,0.0128
1393.00,0.0132
1392.00,0.0137
1391.00,0.0144
1390.00,0.0155
1389.00,0.0168
1388.00,0.0189
1387.00,0.0220
1386.00,0.0263
1385.00,0.0318
1384.00,0.0396
1383.00,0.0505
1382.00,0.0652
1381.00,0.0844
1380.00,0.1082
1379.00,0.1354
1378.00,0.1618
1377.00,0.1814
1376.00,0.1882
1375.00,0.1789
1374.00,0.1564
1373.00,0.1291
1372.00,0.1039
1371.00,0.0831
1370.00,0.0667
1369.00,0.0543
1368.00,0.0458
1367.00,0.0406
1366.00,0.0377
1365.00,0.0365
1364.00,0.0367
1363.00,0.0380
1362.00,0.0401
1361.00,0.0423
1360.00,0.0440
1359.00,0.0445
1358.00,0.0435
1357.00,0.0410
1356.00,0.0374
1355.00,0.0335
1354.00,0.0297
1353.00,0.0264
1352.00,0.0238
1351.00,0.0217
1350.00,0.0199
1349.00,0.0185
1348.00,0.0172
1347.00,0.0162
1346.00,0.0152
1345.00,0.0145
1344.00,0.0138
1343.00,0.0133
1342.00,0.0129
1341.00,0.0126
1340.00,0.0123
1339.00,0.0121
1338.00,0.0120
1337.00,0.0120
1336.00,0.0121
1335.00,0.0123
1334.00,0.0126
1333.00,0.0129
1332.00,0.0133
1331.00,0.0136
1330.00,0.0138
1329.00,0.0137
1328.00,0.0134
1327.00,0.0130
1326.00,0.0124
1325.00,0.0119
1324.00,0.0113
1323.00,0.0108
1322.00,0.0104
1321.00,0.0102
1320.00,0.0100
1319.00,0.0098
1318.00,0.0096
1317.00,0.0095
1316.00,0.0093
1315.00,0.0093
1314.00,0.0093
1313.00,0.0093
1312.00,0.0094
1311.00,0.0096
1310.00,0.0099
1309.00,0.0105
1308.00,0.0114
1307.00,0.0124
1306.00,0.0135
1305.00,0.0142
1304.00,0.0144
1303.00,0.0142
1302.00,0.0137
1301.00,0.0133
1300.00,0.0130
1299.00,0.0130
1298.00,0.0130
1297.00,0.0131
1296.00,0.0130
1295.00,0.0127
1294.00,0.0124
1293.00,0.0119
1292.00,0.0114
1291.00,0.0109
1290.00,0.0105
1289.00,0.0101
1288.00,0.0098
1287.00,0.0095
1286.00,0.0093
1285.00,0.0092
1284.00,0.0091
1283.00,0.0089
1282.00,0.0088
1281.00,0.0086
1280.00,0.0085
1279.00,0.0085
1278.00,0.0084
1277.00,0.0084
1276.00,0.0083
1275.00,0.0083
1274.00,0.0083
1273.00,0.0083
1272.00,0.0083
1271.00,0.0084
1270.00,0.0085
1269.00,0.0086
1268.00,0.0088
1267.00,0.0091
1266.00,0.0093
1265.00,0.0096
1264.00,0.0098
1263.00,0.0101
1262.00,0.0104
1261.00,0.0108
1260.00,0.0112
1259.00,0.0118
1258.00,0.0124
1257.00,0.0129
1256.00,0.0131
1255.00,0.0129
1254.00,0.0123
1253.00,0.0116
1252.00,0.0108
1251.00,0.0102
1250.00,0.0097
1249.00,0.0094
1248.00,0.0091
1247.00,0.0088
1246.00,0.0086
1245.00,0.0085
1244.00,0.0084
1243.00,0.0083
1242.00,0.0082
1241.00,0.0082
1240.00,0.0081
1239.00,0.0080
1238.00,0.0080
1237.00,0.0079
1236.00,0.0079
1235.00,0.0079
1234.00,0.0079
1233.00,0.0080
1232.00,0.0081
1231.00,0.0082
1230.00,0.0083
1229.00,0.0084
1228.00,0.0085
1227.00,0.0087
1226.00,0.0089
1225.00,0.0093
1224.00,0.0096
1223.00,0.0100
1222.00,0.0104
1221.00,0.0106
1220.00,0.0108
1219.00,0.0108
1218.00,0.0107
1217.00,0.0105
1216.00,0.0102
1215.00,0.0099
1214.00,0.0096
1213.00,0.0094
1212.00,0.0091
1211.00,0.0089
1210.00,0.0087
1209.00,0.0085
1208.00,0.0084
1207.00,0.0083
1206.00,0.0083
1205.00,0.0083
1204.00,0.0083
1203.00,0.0083
1202.00,0.0083
1201.00,0.0083
1200.00,0.0083
1199.00,0.0083
1198.00,0.0083
1197.00,0.0083
1196.00,0.0083
1195.00,0.0083
1194.00,0.0084
1193.00,0.0084
1192.00,0.0084
1191.00,0.0084
1190.00,0.0083
1189.00,0.0083
1188.00,0.0083
1187.00,0.0084
1186.00,0.0084
1185.00,0.0086
1184.00,0.0087
1183.00,0.0089
1182.00,0.0091
1181.00,0.0094
1180.00,0.0097
1179.00,0.0102
1178.00,0.0107
1177.00,0.0114
1176.00,0.0123
1175.00,0.0137
1174.00,0.0154
1173.00,0.0177
1172.00,0.0204
1171.00,0.0234
1170.00,0.0263
1169.00,0.0287
1168.00,0.0300
1167.00,0.0302
1166.00,0.0295
1165.00,0.0282
1164.00,0.0266
1163.00,0.0251
1162.00,0.0238
1161.00,0.0227
1160.00,0.0219
1159.00,0.0212
1158.00,0.0208
1157.00,0.0204
1156.00,0.0201
1155.00,0.0199
1154.00,0.0198
1153.00,0.0195
1152.00,0.0191
1151.00,0.0185
1150.00,0.0177
1149.00,0.0168
1148.00,0.0159
1147.00,0.0152
1146.00,0.0144
1145.00,0.0137
1144.00,0.0129
1143.00,0.0122
1142.00,0.0115
1141.00,0.0109
1140.00,0.0104
1139.00,0.0100
1138.00,0.0097
1137.00,0.0094
1136.00,0.0092
1135.00,0.0090
1134.00,0.0088
1133.00,0.0087
1132.00,0.0087
1131.00,0.0087
1130.00,0.0086
1129.00,0.0086
1128.00,0.0085
1127.00,0.0085
1126.00,0.0086
1125.00,0.0087
1124.00,0.0087
1123.00,0.0088
1122.00,0.0089
1121.00,0.0090
1120.00,0.0092
1119.00,0.0094
1118.00,0.0095
1117.00,0.0095
1116.00,0.0096
1115.00,0.0098
1114.00,0.0099
1113.00,0.0101
1112.00,0.0102
1111.00,0.0104
1110.00,0.0107
1109.00,0.0110
1108.00,0.0115
1107.00,0.0122
1106.00,0.0129
1105.00,0.0136
1104.00,0.0140
1103.00,0.0142
1102.00,0.0140
1101.00,0.0136
1100.00,0.0130
1099.00,0.0124
1098.00,0.0118
1097.00,0.0113
1096.00,0.0108
1095.00,0.0105
1094.00,0.0102
1093.00,0.0099
1092.00,0.0097
1091.00,0.0095
1090.00,0.0093
1089.00,0.0092
1088.00,0.0091
1087.00,0.0091
1086.00,0.0091
1085.00,0.0091
1084.00,0.0091
1083.00,0.0092
1082.00,0.0091
1081.00,0.0091
1080.00,0.0090
1079.00,0.0088
1078.00,0.0087
1077.00,0.0087
1076.00,0.0086
1075.00,0.0085
1074.00,0.0084
1073.00,0.0083
1072.00,0.0083
1071.00,0.0083
1070.00,0.0084
1069.00,0.0085
1068.00,0.0086
1067.00,0.0086
1066.00,0.0087
1065.00,0.0088
1064.00,0.0089
1063.00,0.0090
1062.00,0.0091
1061.00,0.0091
1060.00,0.0091
1059.00,0.0091
1058.00,0.0093
1057.00,0.0096
1056.00,0.0098
1055.00,0.0099
1054.00,0.0101
1053.00,0.0103
1052.00,0.0107
1051.00,0.0111
1050.00,0.0116
1049.00,0.0121
1048.00,0.0126
1047.00,0.0131
1046.00,0.0135
1045.00,0.0138
1044.00,0.0139
1043.00,0.0137
1042.00,0.0135
1041.00,0.0131
1040.00,0.0129
1039.00,0.0127
1038.00,0.0126
1037.00,0.0126
1036.00,0.0126
1035.00,0.0126
1034.00,0.0126
1033.00,0.0126
1032.00,0.0125
1031.00,0.0125
1030.00,0.0125
1029.00,0.0125
1028.00,0.0125
1027.00,0.0126
1026.00,0.0127
1025.00,0.0128
1024.00,0.0131
1023.00,0.0134
1022.00,0.0137
1021.00,0.0141
1020.00,0.0143
1019.00,0.0145
1018.00,0.0145
1017.00,0.0145
1016.00,0.0145
1015.00,0.0145
1014.00,0.0144
1013.00,0.0144
1012.00,0.0143
1011.00,0.0142
1010.00,0.0141
1009.00,0.0142
1008.00,0.0145
1007.00,0.0149
1006.00,0.0156
1005.00,0.0165
1004.00,0.0179
1003.00,0.0199
1002.00,0.0226
1001.00,0.0259
1000.00,0.0296
999.00,0.0325
998.00,0.0339
997.00,0.0331
996.00,0.0305
995.00,0.0267
994.00,0.0229
993.00,0.0196
992.00,0.0171
991.00,0.0153
990.00,0.0140
989.00,0.0131
988.00,0.0125
987.00,0.0122
986.00,0.0122
985.00,0.0124
984.00,0.0128
983.00,0.0134
982.00,0.0144
981.00,0.0158
980.00,0.0179
979.00,0.0207
978.00,0.0241
977.00,0.0282
976.00,0.0324
975.00,0.0362
974.00,0.0390
973.00,0.0397
972.00,0.0382
971.00,0.0345
970.00,0.0297
969.00,0.0249
968.00,0.0209
967.00,0.0178
966.00,0.0155
965.00,0.0138
964.00,0.0126
963.00,0.0116
962.00,0.0110
961.00,0.0104
960.00,0.0099
959.00,0.0095
958.00,0.0091
957.00,0.0088
956.00,0.0086
955.00,0.0084
954.00,0.0083
953.00,0.0082
952.00,0.0081
951.00,0.0080
950.00,0.0079
949.00,0.0078
948.00,0.0078
947.00,0.0078
946.00,0.0080
945.00,0.0082
944.00,0.0085
943.00,0.0089
942.00,0.0093
941.00,0.0096
940.00,0.0096
939.00,0.0093
938.00,0.0088
937.00,0.0083
936.00,0.0078
935.00,0.0075
934.00,0.0072
933.00,0.0070
932.00,0.0069
931.00,0.0068
930.00,0.0067
929.00,0.0065
928.00,0.0064
927.00,0.0063
926.00,0.0063
925.00,0.0064
924.00,0.0064
923.00,0.0065
922.00,0.0065
921.00,0.0065
920.00,0.0065
919.00,0.0064
918.00,0.0063
917.00,0.0063
916.00,0.0064
915.00,0.0065
914.00,0.0067
913.00,0.0068
912.00,0.0070
911.00,0.0072
910.00,0.0075
909.00,0.0077
908.00,0.0079
907.00,0.0082
906.00,0.0087
905.00,0.0097
904.00,0.0111
903.00,0.0129
902.00,0.0148
901.00,0.0166
900.00,0.0178
899.00,0.0182
898.00,0.0175
897.00,0.0161
896.00,0.0143
895.00,0.0125
894.00,0.0109
893.00,0.0097
892.00,0.0089
891.00,0.0083
890.00,0.0080
889.00,0.0078
888.00,0.0077
887.00,0.0075
886.00,0.0074
885.00,0.0074
884.00,0.0074
883.00,0.0073
882.00,0.0073
881.00,0.0074
880.00,0.0074
879.00,0.0075
878.00,0.0076
877.00,0.0076
876.00,0.0075
875.00,0.0075
874.00,0.0075
873.00,0.0077
872.00,0.0078
871.00,0.0079
870.00,0.0080
869.00,0.0079
868.00,0.0079
867.00,0.0079
866.00,0.0080
865.00,0.0081
864.00,0.0081
863.00,0.0081
862.00,0.0083
861.00,0.0084
860.00,0.0086
859.00,0.0087
858.00,0.0089
857.00,0.0090
856.00,0.0092
855.00,0.0094
854.00,0.0095
853.00,0.0096
852.00,0.0098
851.00,0.0101
850.00,0.0105
849.00,0.0111
848.00,0.0119
847.00,0.0131
846.00,0.0150
845.00,0.0179
844.00,0.0219
843.00,0.0266
842.00,0.0305
841.00,0.0317
840.00,0.0297
839.00,0.0254
838.00,0.0207
837.00,0.0169
836.00,0.0144
835.00,0.0129
834.00,0.0120
833.00,0.0114
832.00,0.0111
831.00,0.0109
830.00,0.0107
829.00,0.0106
828.00,0.0105
827.00,0.0103
826.00,0.0101
825.00,0.0101
824.00,0.0101
823.00,0.0102
822.00,0.0103
821.00,0.0104
820.00,0.0104
819.00,0.0106
818.00,0.0110
817.00,0.0116
816.00,0.0126
815.00,0.0138
814.00,0.0153
813.00,0.0172
812.00,0.0191
811.00,0.0210
810.00,0.0225
809.00,0.0231
808.00,0.0227
807.00,0.0213
806.00,0.0194
805.00,0.0175
804.00,0.0157
803.00,0.0142
802.00,0.0131
801.00,0.0123
800.00,0.0118
799.00,0.0114
798.00,0.0110
797.00,0.0107
796.00,0.0103
795.00,0.0100
794.00,0.0098
793.00,0.0095
792.00,0.0093
791.00,0.0089
790.00,0.0086
789.00,0.0083
788.00,0.0081
787.00,0.0079
786.00,0.0077
785.00,0.0075
784.00,0.0074
783.00,0.0072
782.00,0.0070
781.00,0.0069
780.00,0.0067
779.00,0.0067
778.00,0.0066
777.00,0.0065
776.00,0.0064
775.00,0.0064
774.00,0.0064
773.00,0.0064
772.00,0.0065
771.00,0.0068
770.00,0.0069
769.00,0.0070
768.00,0.0070
767.00,0.0070
766.00,0.0071
765.00,0.0071
764.00,0.0070
763.00,0.0069
762.00,0.0069
761.00,0.0068
760.00,0.0068
759.00,0.0069
758.00,0.0069
757.00,0.0070
756.00,0.0070
755.00,0.0071
754.00,0.0073
753.00,0.0075
752.00,0.0077
751.00,0.0079
750.00,0.0080
749.00,0.0081
748.00,0.0083
747.00,0.0085
746.00,0.0087
745.00,0.0089
744.00,0.0090
743.00,0.0092
742.00,0.0095
741.00,0.0099
740.00,0.0103
739.00,0.0106
738.00,0.0109
737.00,0.0112
736.00,0.0115
735.00,0.0120
734.00,0.0124
733.00,0.0129
732.00,0.0134
731.00,0.0140
730.00,0.0147
729.00,0.0152
728.00,0.0155
727.00,0.0155
726.00,0.0155
725.00,0.0157
724.00,0.0161
723.00,0.0169
722.00,0.0176
721.00,0.0181
720.00,0.0180
719.00,0.0172
718.00,0.0160
717.00,0.0147
716.00,0.0135
715.00,0.0126
714.00,0.0121
713.00,0.0117
712.00,0.0113
711.00,0.0109
710.00,0.0106
709.00,0.0105
708.00,0.0103
707.00,0.0103
706.00,0.0102
705.00,0.0102
704.00,0.0100
703.00,0.0098
702.00,0.0097
701.00,0.0096
700.00,0.0095
699.00,0.0096
698.00,0.0097
697.00,0.0098
696.00,0.0098
695.00,0.0098
694.00,0.0099
693.00,0.0099
692.00,0.0099
691.00,0.0098
690.00,0.0097
689.00,0.0096
688.00,0.0097
687.00,0.0097
686.00,0.0097
685.00,0.0096
684.00,0.0096
683.00,0.0095
682.00,0.0095
681.00,0.0095
680.00,0.0096
679.00,0.0097
678.00,0.0097
677.00,0.0097
676.00,0.0097
675.00,0.0097
674.00,0.0100
673.00,0.0104
672.00,0.0108
671.00,0.0110
670.00,0.0109
669.00,0.0104
668.00,0.0097
667.00,0.0093
666.00,0.0093
665.00,0.0094
664.00,0.0095
663.00,0.0096
662.00,0.0096
661.00,0.0095
660.00,0.0094
659.00,0.0093
658.00,0.0093
657.00,0.0093
656.00,0.0093
655.00,0.0091
654.00,0.0090
653.00,0.0090
652.00,0.0090
651.00,0.0091
650.00,0.0091
649.00,0.0089
648.00,0.0087
647.00,0.0086
646.00,0.0087
645.00,0.0088
644.00,0.0088
643.00,0.0088
642.00,0.0088
641.00,0.0088
640.00,0.0088
639.00,0.0087
638.00,0.0086
637.00,0.0086
636.00,0.0086
635.00,0.0087
634.00,0.0086
633.00,0.0084
632.00,0.0083
631.00,0.0082
630.00,0.0083
629.00,0.0083
628.00,0.0084
627.00,0.0084
626.00,0.0085
625.00,0.0085
624.00,0.0085
623.00,0.0083
622.00,0.0082
621.00,0.0081
620.00,0.0081
619.00,0.0083
618.00,0.0085
617.00,0.0087
616.00,0.0087
615.00,0.0086
614.00,0.0085
613.00,0.0084
612.00,0.0082
611.00,0.0082
610.00,0.0081
609.00,0.0081
608.00,0.0080
607.00,0.0080
606.00,0.0080
605.00,0.0082
604.00,0.0083
603.00,0.0083
602.00,0.0084
601.00,0.0085
600.00,0.0086
599.00,0.0086
598.00,0.0084
597.00,0.0081
596.00,0.0080
595.00,0.0080
594.00,0.0084
593.00,0.0088
592.00,0.0090
591.00,0.0089
590.00,0.0087
589.00,0.0085
588.00,0.0085
587.00,0.0086
586.00,0.0086
585.00,0.0085
584.00,0.0085
583.00,0.0086
582.00,0.0087
581.00,0.0087
580.00,0.0085
579.00,0.0083
578.00,0.0081
577.00,0.0080
576.00,0.0078
575.00,0.0076
574.00,0.0074
573.00,0.0074
572.00,0.0077
571.00,0.0083
570.00,0.0088
569.00,0.0089
568.00,0.0087
567.00,0.0085
566.00,0.0083
565.00,0.0081
564.00,0.0080
563.00,0.0079
562.00,0.0080
561.00,0.0080
560.00,0.0080
559.00,0.0080
558.00,0.0081
557.00,0.0083
556.00,0.0086
555.00,0.0089
554.00,0.0092
553.00,0.0093
552.00,0.0091
551.00,0.0088
550.00,0.0086
549.00,0.0085
548.00,0.0085
547.00,0.0085
546.00,0.0086
545.00,0.0087
544.00,0.0088
543.00,0.0091
542.00,0.0095
541.00,0.0102
540.00,0.0109
539.00,0.0114
538.00,0.0118
537.00,0.0120
536.00,0.0119
535.00,0.0118
534.00,0.0117
533.00,0.0117
532.00,0.0118
531.00,0.0119
530.00,0.0119
529.00,0.0120
528.00,0.0121
527.00,0.0120
526.00,0.0117
525.00,0.0112
524.00,0.0106
523.00,0.0101
522.00,0.0096
521.00,0.0093
520.00,0.0092
519.00,0.0092
518.00,0.0091
517.00,0.0086
516.00,0.0079
515.00,0.0072
514.00,0.0069
513.00,0.0070
512.00,0.0074
511.00,0.0078
510.00,0.0080
509.00,0.0081
508.00,0.0084
507.00,0.0087
506.00,0.0089
505.00,0.0088
504.00,0.0085
503.00,0.0084
502.00,0.0088
501.00,0.0092
500.00,0.0092
499.00,0.0090
498.00,0.0088
497.00,0.0087
496.00,0.0089
495.00,0.0090
494.00,0.0091
493.00,0.0090
492.00,0.0090
491.00,0.0094
490.00,0.0102
489.00,0.0107
488.00,0.0108
487.00,0.0107
486.00,0.0108
485.00,0.0111
484.00,0.0111
483.00,0.0107
482.00,0.0102
481.00,0.0102
480.00,0.0108
479.00,0.0114
478.00,0.0114
477.00,0.0107
476.00,0.0098
475.00,0.0095
474.00,0.0101
473.00,0.0110
472.00,0.0112
471.00,0.0108
470.00,0.0111
469.00,0.0126
468.00,0.0147
467.00,0.0166
466.00,0.0180
465.00,0.0190
464.00,0.0199
463.00,0.0205
462.00,0.0209
461.00,0.0211
460.00,0.0209
459.00,0.0200
458.00,0.0188
457.00,0.0180
456.00,0.0177
455.00,0.0175
454.00,0.0169
453.00,0.0164
452.00,0.0163
451.00,0.0162
450.00,0.0158
