Created as New Dataset,Sample 168 By Administrator Date Wednesday, September 03 2025
cm-1,A
4000.00,0.0009
3999.00,0.0009
3998.00,0.0009
3997.00,0.0009
3996.00,0.0009
3995.00,0.0010
3994.00,0.0010
3993.00,0.0009
3992.00,0.0009
3991.00,0.0009
3990.00,0.0009
3989.00,0.0009
3988.00,0.0009
3987.00,0.0008
3986.00,0.0008
3985.00,0.0008
3984.00,0.0008
3983.00,0.0008
3982.00,0.0009
3981.00,0.0009
3980.00,0.0009
3979.00,0.0008
3978.00,0.0008
3977.00,0.0008
3976.00,0.0008
3975.00,0.0007
3974.00,0.0007
3973.00,0.0007
3972.00,0.0007
3971.00,0.0007
3970.00,0.0007
3969.00,0.0007
3968.00,0.0007
3967.00,0.0007
3966.00,0.0007
3965.00,0.0007
3964.00,0.0007
3963.00,0.0007
3962.00,0.0007
3961.00,0.0007
3960.00,0.0007
3959.00,0.0007
3958.00,0.0007
3957.00,0.0007
3956.00,0.0007
3955.00,0.0007
3954.00,0.0007
3953.00,0.0007
3952.00,0.0007
3951.00,0.0007
3950.00,0.0007
3949.00,0.0007
3948.00,0.0007
3947.00,0.0007
3946.00,0.0007
3945.00,0.0007
3944.00,0.0007
3943.00,0.0007
3942.00,0.0007
3941.00,0.0007
3940.00,0.0007
3939.00,0.0007
3938.00,0.0007
3937.00,0.0007
3936.00,0.0007
3935.00,0.0007
3934.00,0.0007
3933.00,0.0007
3932.00,0.0007
3931.00,0.0007
3930.00,0.0007
3929.00,0.0008
3928.00,0.0008
3927.00,0.0008
3926.00,0.0008
3925.00,0.0008
3924.00,0.0007
3923.00,0.0007
3922.00,0.0007
3921.00,0.0007
3920.00,0.0007
3919.00,0.0007
3918.00,0.0007
3917.00,0.0007
3916.00,0.0007
3915.00,0.0007
3914.00,0.0007
3913.00,0.0007
3912.00,0.0007
3911.00,0.0007
3910.00,0.0007
3909.00,0.0007
3908.00,0.0007
3907.00,0.0007
3906.00,0.0007
3905.00,0.0006
3904.00,0.0006
3903.00,0.0006
3902.00,0.0006
3901.00,0.0005
3900.00,0.0005
3899.00,0.0005
3898.00,0.0005
3897.00,0.0006
3896.00,0.0006
3895.00,0.0006
3894.00,0.0007
3893.00,0.0007
3892.00,0.0007
3891.00,0.0007
3890.00,0.0006
3889.00,0.0006
3888.00,0.0006
3887.00,0.0006
3886.00,0.0006
3885.00,0.0006
3884.00,0.0007
3883.00,0.0007
3882.00,0.0007
3881.00,0.0007
3880.00,0.0007
3879.00,0.0007
3878.00,0.0007
3877.00,0.0007
3876.00,0.0008
3875.00,0.0007
3874.00,0.0007
3873.00,0.0007
3872.00,0.0007
3871.00,0.0007
3870.00,0.0006
3869.00,0.0006
3868.00,0.0006
3867.00,0.0006
3866.00,0.0006
3865.00,0.0007
3864.00,0.0007
3863.00,0.0006
3862.00,0.0006
3861.00,0.0006
3860.00,0.0006
3859.00,0.0006
3858.00,0.0006
3857.00,0.0005
3856.00,0.0005
3855.00,0.0005
3854.00,0.0006
3853.00,0.0005
3852.00,0.0005
3851.00,0.0005
3850.00,0.0006
3849.00,0.0006
3848.00,0.0006
3847.00,0.0006
3846.00,0.0006
3845.00,0.0006
3844.00,0.0006
3843.00,0.0006
3842.00,0.0006
3841.00,0.0006
3840.00,0.0006
3839.00,0.0006
3838.00,0.0006
3837.00,0.0006
3836.00,0.0007
3835.00,0.0007
3834.00,0.0007
3833.00,0.0007
3832.00,0.0007
3831.00,0.0007
3830.00,0.0007
3829.00,0.0007
3828.00,0.0007
3827.00,0.0007
3826.00,0.0007
3825.00,0.0007
3824.00,0.0007
3823.00,0.0007
3822.00,0.0007
3821.00,0.0007
3820.00,0.0006
3819.00,0.0006
3818.00,0.0007
3817.00,0.0007
3816.00,0.0007
3815.00,0.0006
3814.00,0.0006
3813.00,0.0006
3812.00,0.0006
3811.00,0.0006
3810.00,0.0006
3809.00,0.0007
3808.00,0.0007
3807.00,0.0007
3806.00,0.0007
3805.00,0.0007
3804.00,0.0007
3803.00,0.0007
3802.00,0.0007
3801.00,0.0007
3800.00,0.0006
3799.00,0.0006
3798.00,0.0007
3797.00,0.0007
3796.00,0.0007
3795.00,0.0007
3794.00,0.0007
3793.00,0.0007
3792.00,0.0007
3791.00,0.0007
3790.00,0.0007
3789.00,0.0007
3788.00,0.0007
3787.00,0.0007
3786.00,0.0007
3785.00,0.0007
3784.00,0.0007
3783.00,0.0007
3782.00,0.0007
3781.00,0.0007
3780.00,0.0007
3779.00,0.0007
3778.00,0.0007
3777.00,0.0007
3776.00,0.0007
3775.00,0.0007
3774.00,0.0007
3773.00,0.0007
3772.00,0.0007
3771.00,0.0007
3770.00,0.0006
3769.00,0.0006
3768.00,0.0006
3767.00,0.0007
3766.00,0.0007
3765.00,0.0007
3764.00,0.0007
3763.00,0.0007
3762.00,0.0008
3761.00,0.0008
3760.00,0.0008
3759.00,0.0008
3758.00,0.0008
3757.00,0.0008
3756.00,0.0008
3755.00,0.0008
3754.00,0.0007
3753.00,0.0007
3752.00,0.0006
3751.00,0.0005
3750.00,0.0004
3749.00,0.0004
3748.00,0.0004
3747.00,0.0004
3746.00,0.0004
3745.00,0.0005
3744.00,0.0005
3743.00,0.0005
3742.00,0.0006
3741.00,0.0007
3740.00,0.0007
3739.00,0.0006
3738.00,0.0006
3737.00,0.0006
3736.00,0.0005
3735.00,0.0005
3734.00,0.0005
3733.00,0.0005
3732.00,0.0005
3731.00,0.0005
3730.00,0.0005
3729.00,0.0006
3728.00,0.0006
3727.00,0.0006
3726.00,0.0006
3725.00,0.0007
3724.00,0.0007
3723.00,0.0006
3722.00,0.0006
3721.00,0.0006
3720.00,0.0006
3719.00,0.0006
3718.00,0.0007
3717.00,0.0007
3716.00,0.0007
3715.00,0.0006
3714.00,0.0006
3713.00,0.0005
3712.00,0.0004
3711.00,0.0004
3710.00,0.0004
3709.00,0.0004
3708.00,0.0004
3707.00,0.0005
3706.00,0.0005
3705.00,0.0005
3704.00,0.0006
3703.00,0.0006
3702.00,0.0006
3701.00,0.0006
3700.00,0.0006
3699.00,0.0006
3698.00,0.0006
3697.00,0.0006
3696.00,0.0006
3695.00,0.0006
3694.00,0.0006
3693.00,0.0006
3692.00,0.0006
3691.00,0.0006
3690.00,0.0006
3689.00,0.0006
3688.00,0.0006
3687.00,0.0005
3686.00,0.0005
3685.00,0.0005
3684.00,0.0006
3683.00,0.0006
3682.00,0.0006
3681.00,0.0007
3680.00,0.0006
3679.00,0.0006
3678.00,0.0006
3677.00,0.0006
3676.00,0.0006
3675.00,0.0006
3674.00,0.0005
3673.00,0.0005
3672.00,0.0005
3671.00,0.0005
3670.00,0.0004
3669.00,0.0004
3668.00,0.0004
3667.00,0.0004
3666.00,0.0004
3665.00,0.0004
3664.00,0.0004
3663.00,0.0003
3662.00,0.0003
3661.00,0.0004
3660.00,0.0004
3659.00,0.0004
3658.00,0.0004
3657.00,0.0004
3656.00,0.0004
3655.00,0.0003
3654.00,0.0003
3653.00,0.0003
3652.00,0.0004
3651.00,0.0004
3650.00,0.0005
3649.00,0.0005
3648.00,0.0005
3647.00,0.0005
3646.00,0.0006
3645.00,0.0006
3644.00,0.0006
3643.00,0.0006
3642.00,0.0005
3641.00,0.0005
3640.00,0.0006
3639.00,0.0006
3638.00,0.0006
3637.00,0.0006
3636.00,0.0006
3635.00,0.0006
3634.00,0.0006
3633.00,0.0006
3632.00,0.0006
3631.00,0.0006
3630.00,0.0006
3629.00,0.0006
3628.00,0.0006
3627.00,0.0006
3626.00,0.0006
3625.00,0.0007
3624.00,0.0007
3623.00,0.0007
3622.00,0.0007
3621.00,0.0007
3620.00,0.0007
3619.00,0.0006
3618.00,0.0006
3617.00,0.0007
3616.00,0.0007
3615.00,0.0008
3614.00,0.0007
3613.00,0.0007
3612.00,0.0007
3611.00,0.0007
3610.00,0.0007
3609.00,0.0008
3608.00,0.0008
3607.00,0.0009
3606.00,0.0009
3605.00,0.0009
3604.00,0.0008
3603.00,0.0008
3602.00,0.0008
3601.00,0.0008
3600.00,0.0008
3599.00,0.0008
3598.00,0.0009
3597.00,0.0009
3596.00,0.0010
3595.00,0.0010
3594.00,0.0010
3593.00,0.0010
3592.00,0.0010
3591.00,0.0009
3590.00,0.0009
3589.00,0.0009
3588.00,0.0009
3587.00,0.0009
3586.00,0.0009
3585.00,0.0009
3584.00,0.0010
3583.00,0.0010
3582.00,0.0010
3581.00,0.0010
3580.00,0.0011
3579.00,0.0011
3578.00,0.0011
3577.00,0.0011
3576.00,0.0011
3575.00,0.0011
3574.00,0.0012
3573.00,0.0012
3572.00,0.0012
3571.00,0.0012
3570.00,0.0012
3569.00,0.0012
3568.00,0.0012
3567.00,0.0012
3566.00,0.0012
3565.00,0.0012
3564.00,0.0012
3563.00,0.0012
3562.00,0.0012
3561.00,0.0013
3560.00,0.0013
3559.00,0.0014
3558.00,0.0014
3557.00,0.0014
3556.00,0.0014
3555.00,0.0015
3554.00,0.0015
3553.00,0.0015
3552.00,0.0015
3551.00,0.0015
3550.00,0.0015
3549.00,0.0015
3548.00,0.0015
3547.00,0.0015
3546.00,0.0015
3545.00,0.0015
3544.00,0.0016
3543.00,0.0016
3542.00,0.0016
3541.00,0.0017
3540.00,0.0017
3539.00,0.0017
3538.00,0.0017
3537.00,0.0017
3536.00,0.0017
3535.00,0.0017
3534.00,0.0018
3533.00,0.0018
3532.00,0.0019
3531.00,0.0020
3530.00,0.0020
3529.00,0.0020
3528.00,0.0020
3527.00,0.0019
3526.00,0.0019
3525.00,0.0020
3524.00,0.0020
3523.00,0.0020
3522.00,0.0020
3521.00,0.0020
3520.00,0.0020
3519.00,0.0020
3518.00,0.0020
3517.00,0.0020
3516.00,0.0021
3515.00,0.0021
3514.00,0.0022
3513.00,0.0022
3512.00,0.0023
3511.00,0.0023
3510.00,0.0023
3509.00,0.0023
3508.00,0.0023
3507.00,0.0023
3506.00,0.0023
3505.00,0.0023
3504.00,0.0023
3503.00,0.0023
3502.00,0.0023
3501.00,0.0024
3500.00,0.0024
3499.00,0.0024
3498.00,0.0024
3497.00,0.0024
3496.00,0.0024
3495.00,0.0024
3494.00,0.0024
3493.00,0.0025
3492.00,0.0025
3491.00,0.0026
3490.00,0.0026
3489.00,0.0026
3488.00,0.0026
3487.00,0.0027
3486.00,0.0027
3485.00,0.0027
3484.00,0.0027
3483.00,0.0027
3482.00,0.0027
3481.00,0.0028
3480.00,0.0028
3479.00,0.0029
3478.00,0.0029
3477.00,0.0029
3476.00,0.0029
3475.00,0.0029
3474.00,0.0029
3473.00,0.0029
3472.00,0.0028
3471.00,0.0029
3470.00,0.0029
3469.00,0.0030
3468.00,0.0031
3467.00,0.0031
3466.00,0.0031
3465.00,0.0031
3464.00,0.0031
3463.00,0.0031
3462.00,0.0031
3461.00,0.0031
3460.00,0.0031
3459.00,0.0031
3458.00,0.0032
3457.00,0.0032
3456.00,0.0033
3455.00,0.0033
3454.00,0.0033
3453.00,0.0033
3452.00,0.0033
3451.00,0.0033
3450.00,0.0033
3449.00,0.0033
3448.00,0.0033
3447.00,0.0034
3446.00,0.0034
3445.00,0.0034
3444.00,0.0034
3443.00,0.0034
3442.00,0.0035
3441.00,0.0035
3440.00,0.0035
3439.00,0.0036
3438.00,0.0036
3437.00,0.0036
3436.00,0.0036
3435.00,0.0036
3434.00,0.0036
3433.00,0.0036
3432.00,0.0037
3431.00,0.0037
3430.00,0.0037
3429.00,0.0038
3428.00,0.0038
3427.00,0.0038
3426.00,0.0038
3425.00,0.0038
3424.00,0.0038
3423.00,0.0038
3422.00,0.0038
3421.00,0.0039
3420.00,0.0039
3419.00,0.0039
3418.00,0.0039
3417.00,0.0039
3416.00,0.0039
3415.00,0.0039
3414.00,0.0039
3413.00,0.0040
3412.00,0.0040
3411.00,0.0041
3410.00,0.0041
3409.00,0.0041
3408.00,0.0041
3407.00,0.0041
3406.00,0.0041
3405.00,0.0041
3404.00,0.0041
3403.00,0.0042
3402.00,0.0042
3401.00,0.0042
3400.00,0.0043
3399.00,0.0043
3398.00,0.0043
3397.00,0.0044
3396.00,0.0044
3395.00,0.0044
3394.00,0.0044
3393.00,0.0044
3392.00,0.0044
3391.00,0.0044
3390.00,0.0044
3389.00,0.0044
3388.00,0.0044
3387.00,0.0044
3386.00,0.0044
3385.00,0.0044
3384.00,0.0044
3383.00,0.0044
3382.00,0.0044
3381.00,0.0044
3380.00,0.0044
3379.00,0.0043
3378.00,0.0043
3377.00,0.0043
3376.00,0.0043
3375.00,0.0044
3374.00,0.0044
3373.00,0.0045
3372.00,0.0045
3371.00,0.0045
3370.00,0.0045
3369.00,0.0045
3368.00,0.0045
3367.00,0.0045
3366.00,0.0045
3365.00,0.0045
3364.00,0.0045
3363.00,0.0044
3362.00,0.0044
3361.00,0.0044
3360.00,0.0044
3359.00,0.0045
3358.00,0.0045
3357.00,0.0045
3356.00,0.0045
3355.00,0.0045
3354.00,0.0045
3353.00,0.0045
3352.00,0.0045
3351.00,0.0045
3350.00,0.0045
3349.00,0.0046
3348.00,0.0046
3347.00,0.0046
3346.00,0.0046
3345.00,0.0046
3344.00,0.0045
3343.00,0.0045
3342.00,0.0045
3341.00,0.0045
3340.00,0.0045
3339.00,0.0046
3338.00,0.0046
3337.00,0.0045
3336.00,0.0045
3335.00,0.0045
3334.00,0.0044
3333.00,0.0044
3332.00,0.0044
3331.00,0.0044
3330.00,0.0044
3329.00,0.0044
3328.00,0.0044
3327.00,0.0044
3326.00,0.0044
3325.00,0.0044
3324.00,0.0044
3323.00,0.0044
3322.00,0.0044
3321.00,0.0044
3320.00,0.0044
3319.00,0.0045
3318.00,0.0045
3317.00,0.0045
3316.00,0.0045
3315.00,0.0045
3314.00,0.0045
3313.00,0.0045
3312.00,0.0045
3311.00,0.0045
3310.00,0.0045
3309.00,0.0046
3308.00,0.0046
3307.00,0.0047
3306.00,0.0046
3305.00,0.0046
3304.00,0.0046
3303.00,0.0046
3302.00,0.0046
3301.00,0.0046
3300.00,0.0045
3299.00,0.0044
3298.00,0.0044
3297.00,0.0044
3296.00,0.0044
3295.00,0.0044
3294.00,0.0044
3293.00,0.0044
3292.00,0.0044
3291.00,0.0044
3290.00,0.0044
3289.00,0.0044
3288.00,0.0044
3287.00,0.0043
3286.00,0.0043
3285.00,0.0042
3284.00,0.0042
3283.00,0.0042
3282.00,0.0042
3281.00,0.0042
3280.00,0.0042
3279.00,0.0042
3278.00,0.0041
3277.00,0.0041
3276.00,0.0041
3275.00,0.0041
3274.00,0.0041
3273.00,0.0041
3272.00,0.0041
3271.00,0.0041
3270.00,0.0040
3269.00,0.0040
3268.00,0.0039
3267.00,0.0039
3266.00,0.0039
3265.00,0.0039
3264.00,0.0039
3263.00,0.0039
3262.00,0.0039
3261.00,0.0039
3260.00,0.0039
3259.00,0.0039
3258.00,0.0038
3257.00,0.0038
3256.00,0.0038
3255.00,0.0038
3254.00,0.0038
3253.00,0.0038
3252.00,0.0038
3251.00,0.0038
3250.00,0.0038
3249.00,0.0037
3248.00,0.0037
3247.00,0.0037
3246.00,0.0037
3245.00,0.0037
3244.00,0.0037
3243.00,0.0037
3242.00,0.0037
3241.00,0.0037
3240.00,0.0037
3239.00,0.0037
3238.00,0.0037
3237.00,0.0037
3236.00,0.0038
3235.00,0.0038
3234.00,0.0038
3233.00,0.0038
3232.00,0.0038
3231.00,0.0038
3230.00,0.0038
3229.00,0.0038
3228.00,0.0037
3227.00,0.0037
3226.00,0.0038
3225.00,0.0038
3224.00,0.0038
3223.00,0.0038
3222.00,0.0038
3221.00,0.0039
3220.00,0.0039
3219.00,0.0039
3218.00,0.0040
3217.00,0.0040
3216.00,0.0040
3215.00,0.0040
3214.00,0.0041
3213.00,0.0041
3212.00,0.0041
3211.00,0.0041
3210.00,0.0041
3209.00,0.0041
3208.00,0.0041
3207.00,0.0041
3206.00,0.0041
3205.00,0.0041
3204.00,0.0040
3203.00,0.0040
3202.00,0.0040
3201.00,0.0040
3200.00,0.0040
3199.00,0.0041
3198.00,0.0041
3197.00,0.0041
3196.00,0.0041
3195.00,0.0041
3194.00,0.0041
3193.00,0.0041
3192.00,0.0041
3191.00,0.0041
3190.00,0.0041
3189.00,0.0041
3188.00,0.0041
3187.00,0.0040
3186.00,0.0040
3185.00,0.0040
3184.00,0.0040
3183.00,0.0040
3182.00,0.0040
3181.00,0.0039
3180.00,0.0039
3179.00,0.0038
3178.00,0.0038
3177.00,0.0038
3176.00,0.0038
3175.00,0.0038
3174.00,0.0038
3173.00,0.0038
3172.00,0.0038
3171.00,0.0038
3170.00,0.0038
3169.00,0.0038
3168.00,0.0037
3167.00,0.0037
3166.00,0.0037
3165.00,0.0036
3164.00,0.0036
3163.00,0.0036
3162.00,0.0036
3161.00,0.0035
3160.00,0.0035
3159.00,0.0035
3158.00,0.0036
3157.00,0.0036
3156.00,0.0036
3155.00,0.0036
3154.00,0.0036
3153.00,0.0036
3152.00,0.0036
3151.00,0.0036
3150.00,0.0036
3149.00,0.0036
3148.00,0.0036
3147.00,0.0036
3146.00,0.0036
3145.00,0.0036
3144.00,0.0036
3143.00,0.0036
3142.00,0.0035
3141.00,0.0035
3140.00,0.0035
3139.00,0.0034
3138.00,0.0034
3137.00,0.0034
3136.00,0.0034
3135.00,0.0034
3134.00,0.0033
3133.00,0.0033
3132.00,0.0033
3131.00,0.0032
3130.00,0.0032
3129.00,0.0032
3128.00,0.0032
3127.00,0.0031
3126.00,0.0031
3125.00,0.0031
3124.00,0.0031
3123.00,0.0030
3122.00,0.0030
3121.00,0.0030
3120.00,0.0031
3119.00,0.0031
3118.00,0.0031
3117.00,0.0030
3116.00,0.0030
3115.00,0.0030
3114.00,0.0030
3113.00,0.0030
3112.00,0.0030
3111.00,0.0030
3110.00,0.0030
3109.00,0.0029
3108.00,0.0029
3107.00,0.0029
3106.00,0.0029
3105.00,0.0029
3104.00,0.0028
3103.00,0.0028
3102.00,0.0028
3101.00,0.0028
3100.00,0.0028
3099.00,0.0029
3098.00,0.0029
3097.00,0.0029
3096.00,0.0029
3095.00,0.0029
3094.00,0.0028
3093.00,0.0028
3092.00,0.0028
3091.00,0.0028
3090.00,0.0028
3089.00,0.0028
3088.00,0.0028
3087.00,0.0028
3086.00,0.0028
3085.00,0.0028
3084.00,0.0028
3083.00,0.0028
3082.00,0.0028
3081.00,0.0028
3080.00,0.0028
3079.00,0.0029
3078.00,0.0029
3077.00,0.0029
3076.00,0.0029
3075.00,0.0029
3074.00,0.0029
3073.00,0.0029
3072.00,0.0029
3071.00,0.0029
3070.00,0.0029
3069.00,0.0030
3068.00,0.0030
3067.00,0.0030
3066.00,0.0030
3065.00,0.0030
3064.00,0.0030
3063.00,0.0030
3062.00,0.0030
3061.00,0.0030
3060.00,0.0030
3059.00,0.0031
3058.00,0.0031
3057.00,0.0031
3056.00,0.0031
3055.00,0.0031
3054.00,0.0031
3053.00,0.0031
3052.00,0.0031
3051.00,0.0031
3050.00,0.0032
3049.00,0.0032
3048.00,0.0032
3047.00,0.0033
3046.00,0.0033
3045.00,0.0032
3044.00,0.0032
3043.00,0.0033
3042.00,0.0033
3041.00,0.0033
3040.00,0.0034
3039.00,0.0034
3038.00,0.0035
3037.00,0.0035
3036.00,0.0036
3035.00,0.0036
3034.00,0.0036
3033.00,0.0036
3032.00,0.0037
3031.00,0.0037
3030.00,0.0038
3029.00,0.0038
3028.00,0.0039
3027.00,0.0039
3026.00,0.0039
3025.00,0.0040
3024.00,0.0040
3023.00,0.0041
3022.00,0.0042
3021.00,0.0042
3020.00,0.0043
3019.00,0.0044
3018.00,0.0045
3017.00,0.0046
3016.00,0.0047
3015.00,0.0048
3014.00,0.0049
3013.00,0.0050
3012.00,0.0051
3011.00,0.0053
3010.00,0.0055
3009.00,0.0057
3008.00,0.0058
3007.00,0.0060
3006.00,0.0061
3005.00,0.0061
3004.00,0.0062
3003.00,0.0064
3002.00,0.0065
3001.00,0.0068
3000.00,0.0070
2999.00,0.0073
2998.00,0.0076
2997.00,0.0079
2996.00,0.0082
2995.00,0.0085
2994.00,0.0089
2993.00,0.0093
2992.00,0.0098
2991.00,0.0104
2990.00,0.0111
2989.00,0.0118
2988.00,0.0125
2987.00,0.0133
2986.00,0.0142
2985.00,0.0152
2984.00,0.0163
2983.00,0.0175
2982.00,0.0189
2981.00,0.0205
2980.00,0.0224
2979.00,0.0245
2978.00,0.0269
2977.00,0.0296
2976.00,0.0327
2975.00,0.0362
2974.00,0.0402
2973.00,0.0448
2972.00,0.0500
2971.00,0.0557
2970.00,0.0621
2969.00,0.0691
2968.00,0.0766
2967.00,0.0844
2966.00,0.0925
2965.00,0.1006
2964.00,0.1083
2963.00,0.1154
2962.00,0.1215
2961.00,0.1265
2960.00,0.1308
2959.00,0.1347
2958.00,0.1388
2957.00,0.1437
2956.00,0.1499
2955.00,0.1573
2954.00,0.1658
2953.00,0.1747
2952.00,0.1828
2951.00,0.1887
2950.00,0.1913
2949.00,0.1897
2948.00,0.1836
2947.00,0.1739
2946.00,0.1618
2945.00,0.1488
2944.00,0.1364
2943.00,0.1258
2942.00,0.1175
2941.00,0.1117
2940.00,0.1085
2939.00,0.1077
2938.00,0.1088
2937.00,0.1119
2936.00,0.1165
2935.00,0.1227
2934.00,0.1303
2933.00,0.1393
2932.00,0.1494
2931.00,0.1606
2930.00,0.1725
2929.00,0.1847
2928.00,0.1971
2927.00,0.2092
2926.00,0.2211
2925.00,0.2326
2924.00,0.2439
2923.00,0.2553
2922.00,0.2666
2921.00,0.2775
2920.00,0.2873
2919.00,0.2947
2918.00,0.2986
2917.00,0.2980
2916.00,0.2927
2915.00,0.2836
2914.00,0.2718
2913.00,0.2591
2912.00,0.2464
2911.00,0.2348
2910.00,0.2243
2909.00,0.2149
2908.00,0.2063
2907.00,0.1984
2906.00,0.1907
2905.00,0.1831
2904.00,0.1757
2903.00,0.1684
2902.00,0.1613
2901.00,0.1544
2900.00,0.1479
2899.00,0.1417
2898.00,0.1359
2897.00,0.1306
2896.00,0.1259
2895.00,0.1218
2894.00,0.1182
2893.00,0.1153
2892.00,0.1130
2891.00,0.1113
2890.00,0.1101
2889.00,0.1095
2888.00,0.1092
2887.00,0.1092
2886.00,0.1096
2885.00,0.1103
2884.00,0.1115
2883.00,0.1132
2882.00,0.1154
2881.00,0.1179
2880.00,0.1205
2879.00,0.1227
2878.00,0.1241
2877.00,0.1246
2876.00,0.1242
2875.00,0.1235
2874.00,0.1229
2873.00,0.1229
2872.00,0.1237
2871.00,0.1252
2870.00,0.1273
2869.00,0.1293
2868.00,0.1306
2867.00,0.1303
2866.00,0.1278
2865.00,0.1230
2864.00,0.1162
2863.00,0.1082
2862.00,0.1002
2861.00,0.0932
2860.00,0.0877
2859.00,0.0838
2858.00,0.0816
2857.00,0.0806
2856.00,0.0807
2855.00,0.0816
2854.00,0.0831
2853.00,0.0849
2852.00,0.0868
2851.00,0.0885
2850.00,0.0898
2849.00,0.0908
2848.00,0.0916
2847.00,0.0929
2846.00,0.0949
2845.00,0.0980
2844.00,0.1021
2843.00,0.1069
2842.00,0.1121
2841.00,0.1169
2840.00,0.1206
2839.00,0.1225
2838.00,0.1218
2837.00,0.1181
2836.00,0.1116
2835.00,0.1027
2834.00,0.0924
2833.00,0.0817
2832.00,0.0715
2831.00,0.0625
2830.00,0.0549
2829.00,0.0486
2828.00,0.0435
2827.00,0.0394
2826.00,0.0361
2825.00,0.0333
2824.00,0.0310
2823.00,0.0290
2822.00,0.0273
2821.00,0.0259
2820.00,0.0247
2819.00,0.0236
2818.00,0.0227
2817.00,0.0218
2816.00,0.0211
2815.00,0.0203
2814.00,0.0197
2813.00,0.0191
2812.00,0.0185
2811.00,0.0180
2810.00,0.0174
2809.00,0.0169
2808.00,0.0162
2807.00,0.0156
2806.00,0.0149
2805.00,0.0142
2804.00,0.0136
2803.00,0.0130
2802.00,0.0124
2801.00,0.0120
2800.00,0.0116
2799.00,0.0112
2798.00,0.0109
2797.00,0.0107
2796.00,0.0104
2795.00,0.0102
2794.00,0.0099
2793.00,0.0097
2792.00,0.0094
2791.00,0.0091
2790.00,0.0089
2789.00,0.0086
2788.00,0.0083
2787.00,0.0081
2786.00,0.0078
2785.00,0.0075
2784.00,0.0073
2783.00,0.0071
2782.00,0.0069
2781.00,0.0067
2780.00,0.0066
2779.00,0.0065
2778.00,0.0063
2777.00,0.0062
2776.00,0.0060
2775.00,0.0059
2774.00,0.0058
2773.00,0.0057
2772.00,0.0056
2771.00,0.0056
2770.00,0.0055
2769.00,0.0055
2768.00,0.0055
2767.00,0.0054
2766.00,0.0054
2765.00,0.0053
2764.00,0.0053
2763.00,0.0053
2762.00,0.0053
2761.00,0.0052
2760.00,0.0052
2759.00,0.0052
2758.00,0.0052
2757.00,0.0052
2756.00,0.0052
2755.00,0.0051
2754.00,0.0051
2753.00,0.0051
2752.00,0.0051
2751.00,0.0051
2750.00,0.0051
2749.00,0.0051
2748.00,0.0051
2747.00,0.0051
2746.00,0.0051
2745.00,0.0052
2744.00,0.0052
2743.00,0.0053
2742.00,0.0054
2741.00,0.0055
2740.00,0.0057
2739.00,0.0058
2738.00,0.0060
2737.00,0.0061
2736.00,0.0062
2735.00,0.0063
2734.00,0.0064
2733.00,0.0066
2732.00,0.0068
2731.00,0.0070
2730.00,0.0072
2729.00,0.0075
2728.00,0.0078
2727.00,0.0081
2726.00,0.0083
2725.00,0.0086
2724.00,0.0087
2723.00,0.0088
2722.00,0.0087
2721.00,0.0085
2720.00,0.0083
2719.00,0.0080
2718.00,0.0076
2717.00,0.0073
2716.00,0.0070
2715.00,0.0068
2714.00,0.0065
2713.00,0.0062
2712.00,0.0060
2711.00,0.0058
2710.00,0.0056
2709.00,0.0055
2708.00,0.0053
2707.00,0.0052
2706.00,0.0050
2705.00,0.0049
2704.00,0.0048
2703.00,0.0047
2702.00,0.0046
2701.00,0.0046
2700.00,0.0045
2699.00,0.0045
2698.00,0.0045
2697.00,0.0044
2696.00,0.0044
2695.00,0.0044
2694.00,0.0044
2693.00,0.0044
2692.00,0.0044
2691.00,0.0044
2690.00,0.0044
2689.00,0.0044
2688.00,0.0044
2687.00,0.0044
2686.00,0.0043
2685.00,0.0043
2684.00,0.0043
2683.00,0.0043
2682.00,0.0043
2681.00,0.0044
2680.00,0.0044
2679.00,0.0045
2678.00,0.0045
2677.00,0.0045
2676.00,0.0045
2675.00,0.0045
2674.00,0.0045
2673.00,0.0045
2672.00,0.0044
2671.00,0.0044
2670.00,0.0044
2669.00,0.0044
2668.00,0.0044
2667.00,0.0044
2666.00,0.0044
2665.00,0.0045
2664.00,0.0045
2663.00,0.0046
2662.00,0.0046
2661.00,0.0046
2660.00,0.0047
2659.00,0.0047
2658.00,0.0048
2657.00,0.0047
2656.00,0.0047
2655.00,0.0046
2654.00,0.0045
2653.00,0.0044
2652.00,0.0044
2651.00,0.0043
2650.00,0.0043
2649.00,0.0042
2648.00,0.0042
2647.00,0.0042
2646.00,0.0042
2645.00,0.0042
2644.00,0.0042
2643.00,0.0041
2642.00,0.0040
2641.00,0.0040
2640.00,0.0039
2639.00,0.0039
2638.00,0.0039
2637.00,0.0039
2636.00,0.0038
2635.00,0.0038
2634.00,0.0038
2633.00,0.0038
2632.00,0.0038
2631.00,0.0038
2630.00,0.0039
2629.00,0.0039
2628.00,0.0039
2627.00,0.0039
2626.00,0.0039
2625.00,0.0039
2624.00,0.0039
2623.00,0.0039
2622.00,0.0040
2621.00,0.0040
2620.00,0.0040
2619.00,0.0039
2618.00,0.0039
2617.00,0.0039
2616.00,0.0039
2615.00,0.0038
2614.00,0.0038
2613.00,0.0038
2612.00,0.0038
2611.00,0.0037
2610.00,0.0036
2609.00,0.0036
2608.00,0.0035
2607.00,0.0035
2606.00,0.0034
2605.00,0.0034
2604.00,0.0033
2603.00,0.0033
2602.00,0.0033
2601.00,0.0033
2600.00,0.0032
2599.00,0.0032
2598.00,0.0032
2597.00,0.0032
2596.00,0.0032
2595.00,0.0032
2594.00,0.0032
2593.00,0.0032
2592.00,0.0032
2591.00,0.0032
2590.00,0.0033
2589.00,0.0033
2588.00,0.0035
2587.00,0.0036
2586.00,0.0037
2585.00,0.0038
2584.00,0.0039
2583.00,0.0039
2582.00,0.0039
2581.00,0.0039
2580.00,0.0038
2579.00,0.0037
2578.00,0.0036
2577.00,0.0035
2576.00,0.0035
2575.00,0.0034
2574.00,0.0032
2573.00,0.0031
2572.00,0.0029
2571.00,0.0028
2570.00,0.0026
2569.00,0.0025
2568.00,0.0025
2567.00,0.0024
2566.00,0.0024
2565.00,0.0024
2564.00,0.0024
2563.00,0.0024
2562.00,0.0023
2561.00,0.0022
2560.00,0.0022
2559.00,0.0022
2558.00,0.0022
2557.00,0.0023
2556.00,0.0022
2555.00,0.0022
2554.00,0.0022
2553.00,0.0021
2552.00,0.0021
2551.00,0.0020
2550.00,0.0020
2549.00,0.0019
2548.00,0.0019
2547.00,0.0018
2546.00,0.0018
2545.00,0.0018
2544.00,0.0018
2543.00,0.0018
2542.00,0.0018
2541.00,0.0018
2540.00,0.0017
2539.00,0.0017
2538.00,0.0016
2537.00,0.0016
2536.00,0.0016
2535.00,0.0016
2534.00,0.0015
2533.00,0.0015
2532.00,0.0015
2531.00,0.0015
2530.00,0.0015
2529.00,0.0015
2528.00,0.0015
2527.00,0.0014
2526.00,0.0014
2525.00,0.0014
2524.00,0.0014
2523.00,0.0014
2522.00,0.0014
2521.00,0.0013
2520.00,0.0013
2519.00,0.0012
2518.00,0.0012
2517.00,0.0012
2516.00,0.0012
2515.00,0.0011
2514.00,0.0011
2513.00,0.0011
2512.00,0.0011
2511.00,0.0011
2510.00,0.0011
2509.00,0.0011
2508.00,0.0011
2507.00,0.0011
2506.00,0.0010
2505.00,0.0010
2504.00,0.0010
2503.00,0.0009
2502.00,0.0009
2501.00,0.0009
2500.00,0.0010
2499.00,0.0010
2498.00,0.0010
2497.00,0.0010
2496.00,0.0009
2495.00,0.0009
2494.00,0.0009
2493.00,0.0009
2492.00,0.0009
2491.00,0.0009
2490.00,0.0008
2489.00,0.0008
2488.00,0.0008
2487.00,0.0008
2486.00,0.0008
2485.00,0.0009
2484.00,0.0009
2483.00,0.0009
2482.00,0.0009
2481.00,0.0009
2480.00,0.0009
2479.00,0.0009
2478.00,0.0009
2477.00,0.0008
2476.00,0.0008
2475.00,0.0008
2474.00,0.0008
2473.00,0.0008
2472.00,0.0008
2471.00,0.0007
2470.00,0.0007
2469.00,0.0007
2468.00,0.0008
2467.00,0.0008
2466.00,0.0009
2465.00,0.0009
2464.00,0.0009
2463.00,0.0010
2462.00,0.0010
2461.00,0.0010
2460.00,0.0010
2459.00,0.0010
2458.00,0.0010
2457.00,0.0011
2456.00,0.0011
2455.00,0.0011
2454.00,0.0010
2453.00,0.0010
2452.00,0.0010
2451.00,0.0009
2450.00,0.0009
2449.00,0.0010
2448.00,0.0010
2447.00,0.0010
2446.00,0.0010
2445.00,0.0010
2444.00,0.0009
2443.00,0.0009
2442.00,0.0008
2441.00,0.0008
2440.00,0.0009
2439.00,0.0009
2438.00,0.0009
2437.00,0.0010
2436.00,0.0010
2435.00,0.0009
2434.00,0.0009
2433.00,0.0009
2432.00,0.0009
2431.00,0.0010
2430.00,0.0011
2429.00,0.0011
2428.00,0.0011
2427.00,0.0011
2426.00,0.0010
2425.00,0.0010
2424.00,0.0009
2423.00,0.0009
2422.00,0.0009
2421.00,0.0008
2420.00,0.0009
2419.00,0.0009
2418.00,0.0009
2417.00,0.0008
2416.00,0.0008
2415.00,0.0008
2414.00,0.0008
2413.00,0.0008
2412.00,0.0008
2411.00,0.0008
2410.00,0.0008
2409.00,0.0008
2408.00,0.0008
2407.00,0.0008
2406.00,0.0008
2405.00,0.0007
2404.00,0.0007
2403.00,0.0007
2402.00,0.0006
2401.00,0.0006
2400.00,0.0007
2399.00,0.0007
2398.00,0.0008
2397.00,0.0008
2396.00,0.0008
2395.00,0.0007
2394.00,0.0007
2393.00,0.0006
2392.00,0.0006
2391.00,0.0007
2390.00,0.0007
2389.00,0.0007
2388.00,0.0007
2387.00,0.0007
2386.00,0.0007
2385.00,0.0006
2384.00,0.0006
2383.00,0.0006
2382.00,0.0006
2381.00,0.0006
2380.00,0.0006
2379.00,0.0006
2378.00,0.0006
2377.00,0.0006
2376.00,0.0006
2375.00,0.0006
2374.00,0.0006
2373.00,0.0006
2372.00,0.0006
2371.00,0.0006
2370.00,0.0006
2369.00,0.0007
2368.00,0.0008
2367.00,0.0009
2366.00,0.0009
2365.00,0.0010
2364.00,0.0009
2363.00,0.0009
2362.00,0.0009
2361.00,0.0010
2360.00,0.0010
2359.00,0.0011
2358.00,0.0011
2357.00,0.0010
2356.00,0.0010
2355.00,0.0009
2354.00,0.0009
2353.00,0.0009
2352.00,0.0010
2351.00,0.0011
2350.00,0.0011
2349.00,0.0011
2348.00,0.0011
2347.00,0.0010
2346.00,0.0010
2345.00,0.0010
2344.00,0.0010
2343.00,0.0010
2342.00,0.0011
2341.00,0.0011
2340.00,0.0012
2339.00,0.0012
2338.00,0.0012
2337.00,0.0012
2336.00,0.0012
2335.00,0.0012
2334.00,0.0011
2333.00,0.0010
2332.00,0.0010
2331.00,0.0010
2330.00,0.0010
2329.00,0.0012
2328.00,0.0014
2327.00,0.0016
2326.00,0.0020
2325.00,0.0023
2324.00,0.0024
2323.00,0.0023
2322.00,0.0021
2321.00,0.0019
2320.00,0.0018
2319.00,0.0017
2318.00,0.0017
2317.00,0.0016
2316.00,0.0015
2315.00,0.0014
2314.00,0.0013
2313.00,0.0012
2312.00,0.0011
2311.00,0.0010
2310.00,0.0010
2309.00,0.0011
2308.00,0.0011
2307.00,0.0011
2306.00,0.0011
2305.00,0.0011
2304.00,0.0011
2303.00,0.0012
2302.00,0.0013
2301.00,0.0013
2300.00,0.0013
2299.00,0.0013
2298.00,0.0014
2297.00,0.0015
2296.00,0.0015
2295.00,0.0015
2294.00,0.0015
2293.00,0.0014
2292.00,0.0015
2291.00,0.0016
2290.00,0.0017
2289.00,0.0018
2288.00,0.0019
2287.00,0.0019
2286.00,0.0019
2285.00,0.0019
2284.00,0.0018
2283.00,0.0018
2282.00,0.0017
2281.00,0.0017
2280.00,0.0016
2279.00,0.0015
2278.00,0.0014
2277.00,0.0014
2276.00,0.0014
2275.00,0.0015
2274.00,0.0015
2273.00,0.0015
2272.00,0.0014
2271.00,0.0013
2270.00,0.0012
2269.00,0.0010
2268.00,0.0009
2267.00,0.0008
2266.00,0.0008
2265.00,0.0008
2264.00,0.0008
2263.00,0.0008
2262.00,0.0009
2261.00,0.0009
2260.00,0.0010
2259.00,0.0012
2258.00,0.0012
2257.00,0.0012
2256.00,0.0012
2255.00,0.0010
2254.00,0.0009
2253.00,0.0007
2252.00,0.0006
2251.00,0.0006
2250.00,0.0007
2249.00,0.0008
2248.00,0.0008
2247.00,0.0008
2246.00,0.0006
2245.00,0.0005
2244.00,0.0004
2243.00,0.0004
2242.00,0.0005
2241.00,0.0005
2240.00,0.0006
2239.00,0.0006
2238.00,0.0006
2237.00,0.0006
2236.00,0.0007
2235.00,0.0008
2234.00,0.0009
2233.00,0.0009
2232.00,0.0009
2231.00,0.0008
2230.00,0.0007
2229.00,0.0006
2228.00,0.0005
2227.00,0.0005
2226.00,0.0005
2225.00,0.0006
2224.00,0.0007
2223.00,0.0007
2222.00,0.0007
2221.00,0.0006
2220.00,0.0004
2219.00,0.0002
2218.00,0.0001
2217.00,0.0001
2216.00,0.0002
2215.00,0.0003
2214.00,0.0005
2213.00,0.0006
2212.00,0.0007
2211.00,0.0007
2210.00,0.0006
2209.00,0.0006
2208.00,0.0006
2207.00,0.0006
2206.00,0.0006
2205.00,0.0006
2204.00,0.0004
2203.00,0.0003
2202.00,0.0002
2201.00,0.0003
2200.00,0.0004
2199.00,0.0006
2198.00,0.0006
2197.00,0.0007
2196.00,0.0007
2195.00,0.0009
2194.00,0.0010
2193.00,0.0010
2192.00,0.0008
2191.00,0.0006
2190.00,0.0005
2189.00,0.0005
2188.00,0.0007
2187.00,0.0010
2186.00,0.0012
2185.00,0.0013
2184.00,0.0012
2183.00,0.0009
2182.00,0.0005
2181.00,0.0001
2180.00,-0.0001
2179.00,-0.0002
2178.00,-0.0002
2177.00,-0.0002
2176.00,-0.0002
2175.00,-0.0003
2174.00,-0.0003
2173.00,-0.0002
2172.00,0.0001
2171.00,0.0005
2170.00,0.0010
2169.00,0.0015
2168.00,0.0019
2167.00,0.0020
2166.00,0.0019
2165.00,0.0018
2164.00,0.0017
2163.00,0.0016
2162.00,0.0012
2161.00,0.0005
2160.00,-0.0006
2159.00,-0.0019
2158.00,-0.0030
2157.00,-0.0035
2156.00,-0.0033
2155.00,-0.0027
2154.00,-0.0019
2153.00,-0.0012
2152.00,-0.0009
2151.00,-0.0008
2150.00,-0.0009
2149.00,-0.0010
2148.00,-0.0010
2147.00,-0.0012
2146.00,-0.0013
2145.00,-0.0013
2144.00,-0.0012
2143.00,-0.0011
2142.00,-0.0012
2141.00,-0.0014
2140.00,-0.0015
2139.00,-0.0016
2138.00,-0.0016
2137.00,-0.0015
2136.00,-0.0016
2135.00,-0.0017
2134.00,-0.0018
2133.00,-0.0018
2132.00,-0.0016
2131.00,-0.0014
2130.00,-0.0014
2129.00,-0.0013
2128.00,-0.0012
2127.00,-0.0009
2126.00,-0.0006
2125.00,-0.0004
2124.00,-0.0002
2123.00,-0.0002
2122.00,-0.0003
2121.00,-0.0004
2120.00,-0.0004
2119.00,-0.0003
2118.00,-0.0000
2117.00,0.0002
2116.00,0.0003
2115.00,0.0003
2114.00,0.0001
2113.00,-0.0000
2112.00,-0.0001
2111.00,-0.0002
2110.00,-0.0001
2109.00,-0.0000
2108.00,0.0001
2107.00,0.0002
2106.00,0.0003
2105.00,0.0004
2104.00,0.0004
2103.00,0.0004
2102.00,0.0003
2101.00,0.0002
2100.00,0.0001
2099.00,-0.0001
2098.00,-0.0002
2097.00,-0.0004
2096.00,-0.0005
2095.00,-0.0006
2094.00,-0.0007
2093.00,-0.0006
2092.00,-0.0004
2091.00,-0.0003
2090.00,-0.0002
2089.00,-0.0001
2088.00,-0.0000
2087.00,-0.0000
2086.00,-0.0001
2085.00,-0.0001
2084.00,-0.0001
2083.00,-0.0001
2082.00,0.0001
2081.00,0.0002
2080.00,0.0003
2079.00,0.0003
2078.00,0.0002
2077.00,0.0002
2076.00,0.0001
2075.00,0.0001
2074.00,-0.0000
2073.00,-0.0002
2072.00,-0.0003
2071.00,-0.0004
2070.00,-0.0003
2069.00,-0.0002
2068.00,-0.0002
2067.00,-0.0002
2066.00,-0.0003
2065.00,-0.0004
2064.00,-0.0006
2063.00,-0.0006
2062.00,-0.0006
2061.00,-0.0005
2060.00,-0.0005
2059.00,-0.0005
2058.00,-0.0004
2057.00,-0.0002
2056.00,0.0000
2055.00,0.0001
2054.00,0.0003
2053.00,0.0006
2052.00,0.0009
2051.00,0.0012
2050.00,0.0011
2049.00,0.0008
2048.00,0.0005
2047.00,0.0003
2046.00,0.0003
2045.00,0.0004
2044.00,0.0006
2043.00,0.0007
2042.00,0.0007
2041.00,0.0007
2040.00,0.0005
2039.00,0.0004
2038.00,0.0002
2037.00,-0.0000
2036.00,-0.0002
2035.00,-0.0004
2034.00,-0.0005
2033.00,-0.0006
2032.00,-0.0004
2031.00,-0.0003
2030.00,-0.0003
2029.00,-0.0004
2028.00,-0.0005
2027.00,-0.0006
2026.00,-0.0006
2025.00,-0.0006
2024.00,-0.0005
2023.00,-0.0006
2022.00,-0.0007
2021.00,-0.0010
2020.00,-0.0012
2019.00,-0.0013
2018.00,-0.0011
2017.00,-0.0008
2016.00,-0.0006
2015.00,-0.0007
2014.00,-0.0009
2013.00,-0.0010
2012.00,-0.0008
2011.00,-0.0007
2010.00,-0.0007
2009.00,-0.0009
2008.00,-0.0013
2007.00,-0.0017
2006.00,-0.0020
2005.00,-0.0019
2004.00,-0.0017
2003.00,-0.0014
2002.00,-0.0011
2001.00,-0.0009
2000.00,-0.0008
1999.00,-0.0007
1998.00,-0.0008
1997.00,-0.0010
1996.00,-0.0012
1995.00,-0.0013
1994.00,-0.0011
1993.00,-0.0008
1992.00,-0.0004
1991.00,-0.0002
1990.00,-0.0002
1989.00,-0.0000
1988.00,0.0002
1987.00,0.0003
1986.00,0.0003
1985.00,0.0001
1984.00,0.0001
1983.00,0.0001
1982.00,0.0003
1981.00,0.0005
1980.00,0.0005
1979.00,0.0001
1978.00,-0.0004
1977.00,-0.0009
1976.00,-0.0012
1975.00,-0.0014
1974.00,-0.0015
1973.00,-0.0015
1972.00,-0.0015
1971.00,-0.0014
1970.00,-0.0014
1969.00,-0.0015
1968.00,-0.0016
1967.00,-0.0018
1966.00,-0.0019
1965.00,-0.0018
1964.00,-0.0017
1963.00,-0.0015
1962.00,-0.0013
1961.00,-0.0013
1960.00,-0.0015
1959.00,-0.0018
1958.00,-0.0019
1957.00,-0.0019
1956.00,-0.0017
1955.00,-0.0015
1954.00,-0.0014
1953.00,-0.0014
1952.00,-0.0014
1951.00,-0.0014
1950.00,-0.0014
1949.00,-0.0015
1948.00,-0.0015
1947.00,-0.0015
1946.00,-0.0015
1945.00,-0.0015
1944.00,-0.0014
1943.00,-0.0014
1942.00,-0.0014
1941.00,-0.0014
1940.00,-0.0013
1939.00,-0.0013
1938.00,-0.0013
1937.00,-0.0012
1936.00,-0.0011
1935.00,-0.0010
1934.00,-0.0009
1933.00,-0.0008
1932.00,-0.0007
1931.00,-0.0007
1930.00,-0.0006
1929.00,-0.0005
1928.00,-0.0004
1927.00,-0.0004
1926.00,-0.0005
1925.00,-0.0005
1924.00,-0.0005
1923.00,-0.0005
1922.00,-0.0005
1921.00,-0.0005
1920.00,-0.0004
1919.00,-0.0004
1918.00,-0.0005
1917.00,-0.0005
1916.00,-0.0005
1915.00,-0.0005
1914.00,-0.0005
1913.00,-0.0004
1912.00,-0.0002
1911.00,-0.0001
1910.00,-0.0001
1909.00,-0.0001
1908.00,-0.0002
1907.00,-0.0002
1906.00,-0.0003
1905.00,-0.0003
1904.00,-0.0002
1903.00,-0.0002
1902.00,-0.0002
1901.00,-0.0003
1900.00,-0.0003
1899.00,-0.0003
1898.00,-0.0002
1897.00,-0.0001
1896.00,-0.0000
1895.00,-0.0001
1894.00,-0.0001
1893.00,-0.0002
1892.00,-0.0002
1891.00,-0.0002
1890.00,-0.0002
1889.00,-0.0002
1888.00,-0.0002
1887.00,-0.0002
1886.00,-0.0002
1885.00,-0.0002
1884.00,-0.0002
1883.00,-0.0002
1882.00,-0.0002
1881.00,-0.0002
1880.00,-0.0002
1879.00,-0.0002
1878.00,-0.0003
1877.00,-0.0003
1876.00,-0.0002
1875.00,-0.0001
1874.00,-0.0000
1873.00,0.0000
1872.00,-0.0000
1871.00,-0.0001
1870.00,-0.0001
1869.00,-0.0001
1868.00,-0.0001
1867.00,-0.0000
1866.00,-0.0000
1865.00,-0.0001
1864.00,-0.0002
1863.00,-0.0002
1862.00,-0.0002
1861.00,-0.0002
1860.00,-0.0001
1859.00,-0.0001
1858.00,-0.0001
1857.00,-0.0001
1856.00,-0.0000
1855.00,-0.0000
1854.00,-0.0001
1853.00,-0.0001
1852.00,-0.0002
1851.00,-0.0002
1850.00,-0.0002
1849.00,-0.0001
1848.00,-0.0000
1847.00,0.0000
1846.00,0.0001
1845.00,0.0001
1844.00,0.0002
1843.00,0.0003
1842.00,0.0004
1841.00,0.0003
1840.00,0.0002
1839.00,0.0002
1838.00,0.0002
1837.00,0.0003
1836.00,0.0003
1835.00,0.0004
1834.00,0.0003
1833.00,0.0003
1832.00,0.0002
1831.00,0.0002
1830.00,0.0002
1829.00,0.0002
1828.00,0.0002
1827.00,0.0002
1826.00,0.0002
1825.00,0.0002
1824.00,0.0003
1823.00,0.0003
1822.00,0.0002
1821.00,0.0002
1820.00,0.0002
1819.00,0.0002
1818.00,0.0001
1817.00,0.0001
1816.00,0.0000
1815.00,0.0000
1814.00,0.0000
1813.00,0.0000
1812.00,0.0001
1811.00,0.0002
1810.00,0.0003
1809.00,0.0003
1808.00,0.0004
1807.00,0.0004
1806.00,0.0004
1805.00,0.0004
1804.00,0.0004
1803.00,0.0004
1802.00,0.0004
1801.00,0.0004
1800.00,0.0005
1799.00,0.0005
1798.00,0.0006
1797.00,0.0006
1796.00,0.0006
1795.00,0.0006
1794.00,0.0005
1793.00,0.0006
1792.00,0.0006
1791.00,0.0007
1790.00,0.0007
1789.00,0.0008
1788.00,0.0008
1787.00,0.0008
1786.00,0.0008
1785.00,0.0007
1784.00,0.0007
1783.00,0.0007
1782.00,0.0007
1781.00,0.0008
1780.00,0.0008
1779.00,0.0008
1778.00,0.0008
1777.00,0.0008
1776.00,0.0008
1775.00,0.0009
1774.00,0.0009
1773.00,0.0009
1772.00,0.0009
1771.00,0.0009
1770.00,0.0009
1769.00,0.0009
1768.00,0.0009
1767.00,0.0009
1766.00,0.0010
1765.00,0.0010
1764.00,0.0010
1763.00,0.0011
1762.00,0.0011
1761.00,0.0012
1760.00,0.0013
1759.00,0.0014
1758.00,0.0014
1757.00,0.0015
1756.00,0.0016
1755.00,0.0017
1754.00,0.0017
1753.00,0.0018
1752.00,0.0019
1751.00,0.0020
1750.00,0.0021
1749.00,0.0022
1748.00,0.0024
1747.00,0.0025
1746.00,0.0025
1745.00,0.0026
1744.00,0.0027
1743.00,0.0028
1742.00,0.0029
1741.00,0.0030
1740.00,0.0031
1739.00,0.0031
1738.00,0.0031
1737.00,0.0031
1736.00,0.0030
1735.00,0.0029
1734.00,0.0028
1733.00,0.0028
1732.00,0.0028
1731.00,0.0028
1730.00,0.0027
1729.00,0.0027
1728.00,0.0027
1727.00,0.0027
1726.00,0.0027
1725.00,0.0027
1724.00,0.0027
1723.00,0.0028
1722.00,0.0028
1721.00,0.0028
1720.00,0.0027
1719.00,0.0027
1718.00,0.0027
1717.00,0.0027
1716.00,0.0027
1715.00,0.0026
1714.00,0.0025
1713.00,0.0025
1712.00,0.0025
1711.00,0.0025
1710.00,0.0025
1709.00,0.0025
1708.00,0.0025
1707.00,0.0024
1706.00,0.0024
1705.00,0.0025
1704.00,0.0026
1703.00,0.0027
1702.00,0.0027
1701.00,0.0028
1700.00,0.0028
1699.00,0.0028
1698.00,0.0029
1697.00,0.0029
1696.00,0.0030
1695.00,0.0030
1694.00,0.0031
1693.00,0.0032
1692.00,0.0032
1691.00,0.0032
1690.00,0.0033
1689.00,0.0033
1688.00,0.0034
1687.00,0.0034
1686.00,0.0035
1685.00,0.0036
1684.00,0.0037
1683.00,0.0038
1682.00,0.0038
1681.00,0.0039
1680.00,0.0040
1679.00,0.0042
1678.00,0.0043
1677.00,0.0043
1676.00,0.0044
1675.00,0.0044
1674.00,0.0044
1673.00,0.0044
1672.00,0.0045
1671.00,0.0046
1670.00,0.0047
1669.00,0.0048
1668.00,0.0048
1667.00,0.0048
1666.00,0.0048
1665.00,0.0049
1664.00,0.0049
1663.00,0.0050
1662.00,0.0051
1661.00,0.0052
1660.00,0.0052
1659.00,0.0053
1658.00,0.0053
1657.00,0.0054
1656.00,0.0054
1655.00,0.0054
1654.00,0.0055
1653.00,0.0056
1652.00,0.0057
1651.00,0.0057
1650.00,0.0058
1649.00,0.0058
1648.00,0.0060
1647.00,0.0062
1646.00,0.0062
1645.00,0.0062
1644.00,0.0062
1643.00,0.0062
1642.00,0.0062
1641.00,0.0062
1640.00,0.0062
1639.00,0.0062
1638.00,0.0063
1637.00,0.0063
1636.00,0.0063
1635.00,0.0063
1634.00,0.0061
1633.00,0.0061
1632.00,0.0060
1631.00,0.0060
1630.00,0.0059
1629.00,0.0059
1628.00,0.0058
1627.00,0.0058
1626.00,0.0057
1625.00,0.0055
1624.00,0.0054
1623.00,0.0054
1622.00,0.0054
1621.00,0.0054
1620.00,0.0054
1619.00,0.0054
1618.00,0.0052
1617.00,0.0052
1616.00,0.0052
1615.00,0.0052
1614.00,0.0052
1613.00,0.0052
1612.00,0.0052
1611.00,0.0052
1610.00,0.0052
1609.00,0.0051
1608.00,0.0052
1607.00,0.0052
1606.00,0.0052
1605.00,0.0052
1604.00,0.0052
1603.00,0.0052
1602.00,0.0053
1601.00,0.0053
1600.00,0.0052
1599.00,0.0052
1598.00,0.0051
1597.00,0.0051
1596.00,0.0050
1595.00,0.0050
1594.00,0.0050
1593.00,0.0050
1592.00,0.0050
1591.00,0.0050
1590.00,0.0050
1589.00,0.0049
1588.00,0.0050
1587.00,0.0050
1586.00,0.0049
1585.00,0.0049
1584.00,0.0050
1583.00,0.0050
1582.00,0.0050
1581.00,0.0050
1580.00,0.0051
1579.00,0.0051
1578.00,0.0052
1577.00,0.0052
1576.00,0.0053
1575.00,0.0053
1574.00,0.0053
1573.00,0.0054
1572.00,0.0054
1571.00,0.0054
1570.00,0.0055
1569.00,0.0055
1568.00,0.0056
1567.00,0.0056
1566.00,0.0057
1565.00,0.0057
1564.00,0.0058
1563.00,0.0058
1562.00,0.0058
1561.00,0.0059
1560.00,0.0059
1559.00,0.0059
1558.00,0.0058
1557.00,0.0058
1556.00,0.0059
1555.00,0.0060
1554.00,0.0060
1553.00,0.0060
1552.00,0.0060
1551.00,0.0060
1550.00,0.0060
1549.00,0.0061
1548.00,0.0062
1547.00,0.0063
1546.00,0.0063
1545.00,0.0063
1544.00,0.0063
1543.00,0.0063
1542.00,0.0063
1541.00,0.0062
1540.00,0.0061
1539.00,0.0060
1538.00,0.0058
1537.00,0.0059
1536.00,0.0059
1535.00,0.0058
1534.00,0.0056
1533.00,0.0055
1532.00,0.0054
1531.00,0.0054
1530.00,0.0053
1529.00,0.0053
1528.00,0.0053
1527.00,0.0053
1526.00,0.0052
1525.00,0.0053
1524.00,0.0053
1523.00,0.0053
1522.00,0.0052
1521.00,0.0053
1520.00,0.0054
1519.00,0.0054
1518.00,0.0055
1517.00,0.0055
1516.00,0.0055
1515.00,0.0055
1514.00,0.0055
1513.00,0.0056
1512.00,0.0057
1511.00,0.0058
1510.00,0.0058
1509.00,0.0059
1508.00,0.0060
1507.00,0.0061
1506.00,0.0061
1505.00,0.0062
1504.00,0.0064
1503.00,0.0065
1502.00,0.0067
1501.00,0.0069
1500.00,0.0072
1499.00,0.0074
1498.00,0.0077
1497.00,0.0080
1496.00,0.0083
1495.00,0.0085
1494.00,0.0087
1493.00,0.0090
1492.00,0.0093
1491.00,0.0096
1490.00,0.0099
1489.00,0.0104
1488.00,0.0109
1487.00,0.0113
1486.00,0.0118
1485.00,0.0124
1484.00,0.0131
1483.00,0.0137
1482.00,0.0145
1481.00,0.0155
1480.00,0.0167
1479.00,0.0179
1478.00,0.0195
1477.00,0.0216
1476.00,0.0242
1475.00,0.0272
1474.00,0.0312
1473.00,0.0370
1472.00,0.0439
1471.00,0.0507
1470.00,0.0573
1469.00,0.0643
1468.00,0.0718
1467.00,0.0799
1466.00,0.0891
1465.00,0.0989
1464.00,0.1074
1463.00,0.1133
1462.00,0.1171
1461.00,0.1195
1460.00,0.1210
1459.00,0.1218
1458.00,0.1221
1457.00,0.1219
1456.00,0.1210
1455.00,0.1195
1454.00,0.1178
1453.00,0.1155
1452.00,0.1123
1451.00,0.1081
1450.00,0.1025
1449.00,0.0952
1448.00,0.0863
1447.00,0.0771
1446.00,0.0688
1445.00,0.0618
1444.00,0.0558
1443.00,0.0508
1442.00,0.0471
1441.00,0.0447
1440.00,0.0432
1439.00,0.0428
1438.00,0.0431
1437.00,0.0435
1436.00,0.0427
1435.00,0.0404
1434.00,0.0368
1433.00,0.0325
1432.00,0.0279
1431.00,0.0239
1430.00,0.0207
1429.00,0.0184
1428.00,0.0168
1427.00,0.0157
1426.00,0.0150
1425.00,0.0144
1424.00,0.0138
1423.00,0.0135
1422.00,0.0133
1421.00,0.0131
1420.00,0.0127
1419.00,0.0124
1418.00,0.0122
1417.00,0.0120
1416.00,0.0117
1415.00,0.0116
1414.00,0.0116
1413.00,0.0114
1412.00,0.0113
1411.00,0.0112
1410.00,0.0111
1409.00,0.0111
1408.00,0.0110
1407.00,0.0110
1406.00,0.0110
1405.00,0.0110
1404.00,0.0110
1403.00,0.0111
1402.00,0.0113
1401.00,0.0113
1400.00,0.0113
1399.00,0.0115
1398.00,0.0117
1397.00,0.0119
1396.00,0.0122
1395.00,0.0126
1394.00,0.0131
1393.00,0.0135
1392.00,0.0140
1391.00,0.0147
1390.00,0.0157
1389.00,0.0171
1388.00,0.0191
1387.00,0.0222
1386.00,0.0264
1385.00,0.0321
1384.00,0.0399
1383.00,0.0510
1382.00,0.0662
1381.00,0.0861
1380.00,0.1110
1379.00,0.1399
1378.00,0.1684
1377.00,0.1900
1376.00,0.1981
1375.00,0.1889
1374.00,0.1653
1373.00,0.1362
1372.00,0.1093
1371.00,0.0872
1370.00,0.0696
1369.00,0.0564
1368.00,0.0474
1367.00,0.0418
1366.00,0.0387
1365.00,0.0375
1364.00,0.0377
1363.00,0.0391
1362.00,0.0413
1361.00,0.0437
1360.00,0.0455
1359.00,0.0461
1358.00,0.0451
1357.00,0.0425
1356.00,0.0387
1355.00,0.0345
1354.00,0.0305
1353.00,0.0271
1352.00,0.0243
1351.00,0.0220
1350.00,0.0201
1349.00,0.0185
1348.00,0.0173
1347.00,0.0162
1346.00,0.0153
1345.00,0.0145
1344.00,0.0139
1343.00,0.0133
1342.00,0.0129
1341.00,0.0125
1340.00,0.0121
1339.00,0.0119
1338.00,0.0117
1337.00,0.0117
1336.00,0.0118
1335.00,0.0121
1334.00,0.0124
1333.00,0.0128
1332.00,0.0133
1331.00,0.0137
1330.00,0.0138
1329.00,0.0137
1328.00,0.0133
1327.00,0.0128
1326.00,0.0122
1325.00,0.0116
1324.00,0.0110
1323.00,0.0105
1322.00,0.0102
1321.00,0.0099
1320.00,0.0097
1319.00,0.0095
1318.00,0.0093
1317.00,0.0092
1316.00,0.0091
1315.00,0.0090
1314.00,0.0090
1313.00,0.0090
1312.00,0.0090
1311.00,0.0092
1310.00,0.0095
1309.00,0.0100
1308.00,0.0107
1307.00,0.0115
1306.00,0.0123
1305.00,0.0129
1304.00,0.0131
1303.00,0.0130
1302.00,0.0127
1301.00,0.0125
1300.00,0.0125
1299.00,0.0125
1298.00,0.0127
1297.00,0.0128
1296.00,0.0128
1295.00,0.0126
1294.00,0.0123
1293.00,0.0118
1292.00,0.0113
1291.00,0.0108
1290.00,0.0103
1289.00,0.0100
1288.00,0.0096
1287.00,0.0094
1286.00,0.0092
1285.00,0.0090
1284.00,0.0088
1283.00,0.0086
1282.00,0.0085
1281.00,0.0083
1280.00,0.0082
1279.00,0.0082
1278.00,0.0081
1277.00,0.0081
1276.00,0.0080
1275.00,0.0079
1274.00,0.0079
1273.00,0.0079
1272.00,0.0079
1271.00,0.0080
1270.00,0.0081
1269.00,0.0083
1268.00,0.0085
1267.00,0.0087
1266.00,0.0089
1265.00,0.0091
1264.00,0.0093
1263.00,0.0095
1262.00,0.0098
1261.00,0.0101
1260.00,0.0105
1259.00,0.0110
1258.00,0.0114
1257.00,0.0118
1256.00,0.0120
1255.00,0.0119
1254.00,0.0115
1253.00,0.0109
1252.00,0.0103
1251.00,0.0097
1250.00,0.0093
1249.00,0.0090
1248.00,0.0088
1247.00,0.0087
1246.00,0.0085
1245.00,0.0083
1244.00,0.0082
1243.00,0.0081
1242.00,0.0080
1241.00,0.0079
1240.00,0.0078
1239.00,0.0077
1238.00,0.0077
1237.00,0.0076
1236.00,0.0076
1235.00,0.0076
1234.00,0.0076
1233.00,0.0076
1232.00,0.0077
1231.00,0.0078
1230.00,0.0079
1229.00,0.0080
1228.00,0.0081
1227.00,0.0082
1226.00,0.0084
1225.00,0.0087
1224.00,0.0091
1223.00,0.0096
1222.00,0.0100
1221.00,0.0103
1220.00,0.0104
1219.00,0.0105
1218.00,0.0103
1217.00,0.0101
1216.00,0.0098
1215.00,0.0095
1214.00,0.0091
1213.00,0.0088
1212.00,0.0086
1211.00,0.0084
1210.00,0.0082
1209.00,0.0081
1208.00,0.0079
1207.00,0.0078
1206.00,0.0077
1205.00,0.0077
1204.00,0.0077
1203.00,0.0077
1202.00,0.0077
1201.00,0.0076
1200.00,0.0075
1199.00,0.0075
1198.00,0.0075
1197.00,0.0076
1196.00,0.0076
1195.00,0.0077
1194.00,0.0077
1193.00,0.0077
1192.00,0.0077
1191.00,0.0077
1190.00,0.0077
1189.00,0.0077
1188.00,0.0077
1187.00,0.0077
1186.00,0.0078
1185.00,0.0078
1184.00,0.0079
1183.00,0.0081
1182.00,0.0083
1181.00,0.0086
1180.00,0.0089
1179.00,0.0093
1178.00,0.0097
1177.00,0.0103
1176.00,0.0112
1175.00,0.0123
1174.00,0.0138
1173.00,0.0157
1172.00,0.0179
1171.00,0.0203
1170.00,0.0227
1169.00,0.0246
1168.00,0.0258
1167.00,0.0260
1166.00,0.0256
1165.00,0.0246
1164.00,0.0235
1163.00,0.0225
1162.00,0.0216
1161.00,0.0209
1160.00,0.0204
1159.00,0.0200
1158.00,0.0196
1157.00,0.0194
1156.00,0.0193
1155.00,0.0192
1154.00,0.0191
1153.00,0.0189
1152.00,0.0186
1151.00,0.0180
1150.00,0.0173
1149.00,0.0165
1148.00,0.0156
1147.00,0.0148
1146.00,0.0140
1145.00,0.0133
1144.00,0.0125
1143.00,0.0118
1142.00,0.0112
1141.00,0.0106
1140.00,0.0101
1139.00,0.0098
1138.00,0.0095
1137.00,0.0092
1136.00,0.0089
1135.00,0.0087
1134.00,0.0085
1133.00,0.0083
1132.00,0.0082
1131.00,0.0082
1130.00,0.0082
1129.00,0.0082
1128.00,0.0081
1127.00,0.0082
1126.00,0.0082
1125.00,0.0084
1124.00,0.0084
1123.00,0.0085
1122.00,0.0085
1121.00,0.0086
1120.00,0.0087
1119.00,0.0089
1118.00,0.0090
1117.00,0.0092
1116.00,0.0092
1115.00,0.0093
1114.00,0.0093
1113.00,0.0094
1112.00,0.0096
1111.00,0.0098
1110.00,0.0102
1109.00,0.0107
1108.00,0.0112
1107.00,0.0119
1106.00,0.0127
1105.00,0.0134
1104.00,0.0139
1103.00,0.0141
1102.00,0.0139
1101.00,0.0135
1100.00,0.0129
1099.00,0.0122
1098.00,0.0116
1097.00,0.0111
1096.00,0.0106
1095.00,0.0103
1094.00,0.0100
1093.00,0.0098
1092.00,0.0095
1091.00,0.0093
1090.00,0.0091
1089.00,0.0089
1088.00,0.0088
1087.00,0.0088
1086.00,0.0088
1085.00,0.0089
1084.00,0.0089
1083.00,0.0088
1082.00,0.0088
1081.00,0.0087
1080.00,0.0085
1079.00,0.0084
1078.00,0.0083
1077.00,0.0083
1076.00,0.0083
1075.00,0.0082
1074.00,0.0082
1073.00,0.0081
1072.00,0.0080
1071.00,0.0080
1070.00,0.0080
1069.00,0.0081
1068.00,0.0082
1067.00,0.0082
1066.00,0.0083
1065.00,0.0084
1064.00,0.0084
1063.00,0.0084
1062.00,0.0084
1061.00,0.0085
1060.00,0.0086
1059.00,0.0088
1058.00,0.0089
1057.00,0.0090
1056.00,0.0091
1055.00,0.0092
1054.00,0.0093
1053.00,0.0096
1052.00,0.0099
1051.00,0.0103
1050.00,0.0107
1049.00,0.0111
1048.00,0.0116
1047.00,0.0120
1046.00,0.0124
1045.00,0.0126
1044.00,0.0128
1043.00,0.0127
1042.00,0.0124
1041.00,0.0121
1040.00,0.0118
1039.00,0.0116
1038.00,0.0115
1037.00,0.0114
1036.00,0.0113
1035.00,0.0113
1034.00,0.0113
1033.00,0.0114
1032.00,0.0114
1031.00,0.0114
1030.00,0.0114
1029.00,0.0114
1028.00,0.0115
1027.00,0.0116
1026.00,0.0118
1025.00,0.0119
1024.00,0.0122
1023.00,0.0125
1022.00,0.0127
1021.00,0.0129
1020.00,0.0130
1019.00,0.0131
1018.00,0.0131
1017.00,0.0132
1016.00,0.0132
1015.00,0.0131
1014.00,0.0130
1013.00,0.0129
1012.00,0.0128
1011.00,0.0128
1010.00,0.0128
1009.00,0.0129
1008.00,0.0131
1007.00,0.0134
1006.00,0.0139
1005.00,0.0146
1004.00,0.0157
1003.00,0.0173
1002.00,0.0195
1001.00,0.0221
1000.00,0.0249
999.00,0.0271
998.00,0.0280
997.00,0.0272
996.00,0.0251
995.00,0.0223
994.00,0.0193
993.00,0.0168
992.00,0.0148
991.00,0.0134
990.00,0.0123
989.00,0.0116
988.00,0.0112
987.00,0.0111
986.00,0.0111
985.00,0.0112
984.00,0.0116
983.00,0.0122
982.00,0.0131
981.00,0.0144
980.00,0.0163
979.00,0.0187
978.00,0.0218
977.00,0.0253
976.00,0.0289
975.00,0.0320
974.00,0.0341
973.00,0.0345
972.00,0.0329
971.00,0.0298
970.00,0.0258
969.00,0.0218
968.00,0.0185
967.00,0.0160
966.00,0.0142
965.00,0.0128
964.00,0.0118
963.00,0.0110
962.00,0.0104
961.00,0.0099
960.00,0.0096
959.00,0.0093
958.00,0.0091
957.00,0.0088
956.00,0.0086
955.00,0.0084
954.00,0.0082
953.00,0.0081
952.00,0.0079
951.00,0.0077
950.00,0.0076
949.00,0.0076
948.00,0.0076
947.00,0.0077
946.00,0.0079
945.00,0.0081
944.00,0.0084
943.00,0.0088
942.00,0.0092
941.00,0.0095
940.00,0.0095
939.00,0.0093
938.00,0.0088
937.00,0.0083
936.00,0.0078
935.00,0.0074
934.00,0.0070
933.00,0.0067
932.00,0.0065
931.00,0.0065
930.00,0.0065
929.00,0.0064
928.00,0.0062
927.00,0.0061
926.00,0.0061
925.00,0.0062
924.00,0.0063
923.00,0.0063
922.00,0.0063
921.00,0.0063
920.00,0.0062
919.00,0.0061
918.00,0.0060
917.00,0.0060
916.00,0.0061
915.00,0.0063
914.00,0.0064
913.00,0.0066
912.00,0.0068
911.00,0.0069
910.00,0.0071
909.00,0.0073
908.00,0.0075
907.00,0.0080
906.00,0.0087
905.00,0.0098
904.00,0.0114
903.00,0.0133
902.00,0.0155
901.00,0.0173
900.00,0.0186
899.00,0.0188
898.00,0.0180
897.00,0.0163
896.00,0.0144
895.00,0.0124
894.00,0.0109
893.00,0.0097
892.00,0.0089
891.00,0.0083
890.00,0.0080
889.00,0.0077
888.00,0.0074
887.00,0.0073
886.00,0.0072
885.00,0.0072
884.00,0.0074
883.00,0.0075
882.00,0.0076
881.00,0.0075
880.00,0.0074
879.00,0.0074
878.00,0.0074
877.00,0.0074
876.00,0.0075
875.00,0.0076
874.00,0.0076
873.00,0.0077
872.00,0.0077
871.00,0.0078
870.00,0.0077
869.00,0.0076
868.00,0.0076
867.00,0.0076
866.00,0.0077
865.00,0.0077
864.00,0.0077
863.00,0.0078
862.00,0.0079
861.00,0.0080
860.00,0.0082
859.00,0.0083
858.00,0.0083
857.00,0.0084
856.00,0.0086
855.00,0.0088
854.00,0.0091
853.00,0.0093
852.00,0.0094
851.00,0.0096
850.00,0.0099
849.00,0.0103
848.00,0.0110
847.00,0.0120
846.00,0.0134
845.00,0.0156
844.00,0.0187
843.00,0.0223
842.00,0.0250
841.00,0.0258
840.00,0.0240
839.00,0.0207
838.00,0.0172
837.00,0.0144
836.00,0.0126
835.00,0.0115
834.00,0.0109
833.00,0.0106
832.00,0.0104
831.00,0.0102
830.00,0.0100
829.00,0.0099
828.00,0.0097
827.00,0.0095
826.00,0.0094
825.00,0.0094
824.00,0.0096
823.00,0.0098
822.00,0.0098
821.00,0.0098
820.00,0.0098
819.00,0.0101
818.00,0.0106
817.00,0.0114
816.00,0.0124
815.00,0.0137
814.00,0.0153
813.00,0.0172
812.00,0.0194
811.00,0.0213
810.00,0.0228
809.00,0.0234
808.00,0.0230
807.00,0.0216
806.00,0.0197
805.00,0.0176
804.00,0.0157
803.00,0.0142
802.00,0.0131
801.00,0.0123
800.00,0.0116
799.00,0.0112
798.00,0.0108
797.00,0.0104
796.00,0.0100
795.00,0.0097
794.00,0.0094
793.00,0.0091
792.00,0.0088
791.00,0.0084
790.00,0.0081
789.00,0.0079
788.00,0.0078
787.00,0.0076
786.00,0.0074
785.00,0.0071
784.00,0.0069
783.00,0.0067
782.00,0.0065
781.00,0.0064
780.00,0.0064
779.00,0.0064
778.00,0.0064
777.00,0.0063
776.00,0.0064
775.00,0.0064
774.00,0.0065
773.00,0.0065
772.00,0.0065
771.00,0.0065
770.00,0.0066
769.00,0.0066
768.00,0.0067
767.00,0.0067
766.00,0.0067
765.00,0.0067
764.00,0.0066
763.00,0.0066
762.00,0.0066
761.00,0.0066
760.00,0.0067
759.00,0.0067
758.00,0.0066
757.00,0.0066
756.00,0.0067
755.00,0.0069
754.00,0.0071
753.00,0.0073
752.00,0.0075
751.00,0.0076
750.00,0.0077
749.00,0.0077
748.00,0.0077
747.00,0.0079
746.00,0.0080
745.00,0.0082
744.00,0.0084
743.00,0.0087
742.00,0.0090
741.00,0.0094
740.00,0.0098
739.00,0.0103
738.00,0.0108
737.00,0.0112
736.00,0.0115
735.00,0.0120
734.00,0.0125
733.00,0.0132
732.00,0.0138
731.00,0.0145
730.00,0.0150
729.00,0.0153
728.00,0.0155
727.00,0.0154
726.00,0.0154
725.00,0.0156
724.00,0.0161
723.00,0.0167
722.00,0.0173
721.00,0.0178
720.00,0.0177
719.00,0.0169
718.00,0.0157
717.00,0.0144
716.00,0.0133
715.00,0.0125
714.00,0.0121
713.00,0.0117
712.00,0.0114
711.00,0.0110
710.00,0.0105
709.00,0.0101
708.00,0.0099
707.00,0.0099
706.00,0.0100
705.00,0.0101
704.00,0.0100
703.00,0.0097
702.00,0.0094
701.00,0.0091
700.00,0.0090
699.00,0.0092
698.00,0.0094
697.00,0.0096
696.00,0.0097
695.00,0.0097
694.00,0.0096
693.00,0.0095
692.00,0.0095
691.00,0.0094
690.00,0.0093
689.00,0.0092
688.00,0.0090
687.00,0.0089
686.00,0.0090
685.00,0.0091
684.00,0.0092
683.00,0.0093
682.00,0.0093
681.00,0.0093
680.00,0.0094
679.00,0.0095
678.00,0.0096
677.00,0.0097
676.00,0.0098
675.00,0.0099
674.00,0.0101
673.00,0.0104
672.00,0.0107
671.00,0.0109
670.00,0.0109
669.00,0.0106
668.00,0.0101
667.00,0.0097
666.00,0.0094
665.00,0.0092
664.00,0.0091
663.00,0.0091
662.00,0.0092
661.00,0.0092
660.00,0.0091
659.00,0.0090
658.00,0.0089
657.00,0.0088
656.00,0.0088
655.00,0.0088
654.00,0.0089
653.00,0.0090
652.00,0.0092
651.00,0.0094
650.00,0.0094
649.00,0.0094
648.00,0.0092
647.00,0.0091
646.00,0.0091
645.00,0.0091
644.00,0.0090
643.00,0.0087
642.00,0.0084
641.00,0.0083
640.00,0.0084
639.00,0.0086
638.00,0.0089
637.00,0.0090
636.00,0.0091
635.00,0.0091
634.00,0.0089
633.00,0.0085
632.00,0.0081
631.00,0.0077
630.00,0.0076
629.00,0.0079
628.00,0.0082
627.00,0.0085
626.00,0.0086
625.00,0.0085
624.00,0.0083
623.00,0.0081
622.00,0.0079
621.00,0.0078
620.00,0.0078
619.00,0.0079
618.00,0.0080
617.00,0.0080
616.00,0.0079
615.00,0.0078
614.00,0.0078
613.00,0.0079
612.00,0.0079
611.00,0.0079
610.00,0.0078
609.00,0.0077
608.00,0.0076
607.00,0.0075
606.00,0.0075
605.00,0.0076
604.00,0.0077
603.00,0.0077
602.00,0.0077
601.00,0.0079
600.00,0.0082
599.00,0.0085
598.00,0.0086
597.00,0.0085
596.00,0.0084
595.00,0.0082
594.00,0.0081
593.00,0.0081
592.00,0.0082
591.00,0.0083
590.00,0.0083
589.00,0.0083
588.00,0.0085
587.00,0.0086
586.00,0.0086
585.00,0.0084
584.00,0.0081
583.00,0.0079
582.00,0.0079
581.00,0.0079
580.00,0.0078
579.00,0.0076
578.00,0.0072
577.00,0.0067
576.00,0.0064
575.00,0.0065
574.00,0.0069
573.00,0.0073
572.00,0.0076
571.00,0.0079
570.00,0.0080
569.00,0.0079
568.00,0.0077
567.00,0.0076
566.00,0.0076
565.00,0.0075
564.00,0.0074
563.00,0.0073
562.00,0.0072
561.00,0.0072
560.00,0.0071
559.00,0.0069
558.00,0.0068
557.00,0.0068
556.00,0.0071
555.00,0.0077
554.00,0.0081
553.00,0.0083
552.00,0.0081
551.00,0.0079
550.00,0.0079
549.00,0.0081
548.00,0.0082
547.00,0.0083
546.00,0.0083
545.00,0.0082
544.00,0.0084
543.00,0.0087
542.00,0.0094
541.00,0.0101
540.00,0.0107
539.00,0.0109
538.00,0.0109
537.00,0.0110
536.00,0.0111
535.00,0.0113
534.00,0.0114
533.00,0.0113
532.00,0.0110
531.00,0.0107
530.00,0.0105
529.00,0.0105
528.00,0.0105
527.00,0.0105
526.00,0.0104
525.00,0.0104
524.00,0.0104
523.00,0.0102
522.00,0.0096
521.00,0.0088
520.00,0.0081
519.00,0.0077
518.00,0.0076
517.00,0.0073
516.00,0.0068
515.00,0.0064
514.00,0.0063
513.00,0.0066
512.00,0.0069
511.00,0.0069
510.00,0.0067
509.00,0.0064
508.00,0.0063
507.00,0.0065
506.00,0.0071
505.00,0.0076
504.00,0.0082
503.00,0.0087
502.00,0.0089
501.00,0.0088
500.00,0.0084
499.00,0.0080
498.00,0.0078
497.00,0.0077
496.00,0.0077
495.00,0.0079
494.00,0.0085
493.00,0.0093
492.00,0.0100
491.00,0.0103
490.00,0.0103
489.00,0.0099
488.00,0.0095
487.00,0.0090
486.00,0.0087
485.00,0.0083
484.00,0.0080
483.00,0.0078
482.00,0.0080
481.00,0.0086
480.00,0.0097
479.00,0.0108
478.00,0.0118
477.00,0.0119
476.00,0.0112
475.00,0.0103
474.00,0.0098
473.00,0.0096
472.00,0.0095
471.00,0.0093
470.00,0.0098
469.00,0.0110
468.00,0.0126
467.00,0.0142
466.00,0.0159
465.00,0.0176
464.00,0.0192
463.00,0.0202
462.00,0.0208
461.00,0.0209
460.00,0.0207
459.00,0.0200
458.00,0.0190
457.00,0.0181
456.00,0.0175
455.00,0.0171
454.00,0.0170
453.00,0.0173
452.00,0.0176
451.00,0.0177
450.00,0.0172
