Created as New Dataset,Sample 176 By Administrator Date Wednesday, September 03 2025
cm-1,A
4000.00,0.0010
3999.00,0.0010
3998.00,0.0011
3997.00,0.0011
3996.00,0.0011
3995.00,0.0011
3994.00,0.0011
3993.00,0.0010
3992.00,0.0010
3991.00,0.0010
3990.00,0.0009
3989.00,0.0009
3988.00,0.0009
3987.00,0.0009
3986.00,0.0009
3985.00,0.0009
3984.00,0.0009
3983.00,0.0009
3982.00,0.0009
3981.00,0.0009
3980.00,0.0010
3979.00,0.0010
3978.00,0.0009
3977.00,0.0009
3976.00,0.0009
3975.00,0.0008
3974.00,0.0008
3973.00,0.0008
3972.00,0.0008
3971.00,0.0008
3970.00,0.0008
3969.00,0.0008
3968.00,0.0008
3967.00,0.0008
3966.00,0.0008
3965.00,0.0008
3964.00,0.0008
3963.00,0.0008
3962.00,0.0008
3961.00,0.0009
3960.00,0.0009
3959.00,0.0009
3958.00,0.0009
3957.00,0.0008
3956.00,0.0008
3955.00,0.0008
3954.00,0.0008
3953.00,0.0008
3952.00,0.0008
3951.00,0.0008
3950.00,0.0008
3949.00,0.0008
3948.00,0.0008
3947.00,0.0008
3946.00,0.0007
3945.00,0.0007
3944.00,0.0007
3943.00,0.0007
3942.00,0.0007
3941.00,0.0008
3940.00,0.0008
3939.00,0.0008
3938.00,0.0008
3937.00,0.0008
3936.00,0.0008
3935.00,0.0008
3934.00,0.0008
3933.00,0.0008
3932.00,0.0008
3931.00,0.0008
3930.00,0.0008
3929.00,0.0009
3928.00,0.0009
3927.00,0.0009
3926.00,0.0008
3925.00,0.0008
3924.00,0.0009
3923.00,0.0009
3922.00,0.0009
3921.00,0.0009
3920.00,0.0009
3919.00,0.0008
3918.00,0.0008
3917.00,0.0008
3916.00,0.0008
3915.00,0.0009
3914.00,0.0009
3913.00,0.0009
3912.00,0.0008
3911.00,0.0008
3910.00,0.0008
3909.00,0.0008
3908.00,0.0008
3907.00,0.0008
3906.00,0.0008
3905.00,0.0008
3904.00,0.0008
3903.00,0.0008
3902.00,0.0008
3901.00,0.0008
3900.00,0.0007
3899.00,0.0007
3898.00,0.0007
3897.00,0.0007
3896.00,0.0007
3895.00,0.0007
3894.00,0.0007
3893.00,0.0007
3892.00,0.0007
3891.00,0.0008
3890.00,0.0008
3889.00,0.0008
3888.00,0.0007
3887.00,0.0007
3886.00,0.0007
3885.00,0.0008
3884.00,0.0008
3883.00,0.0008
3882.00,0.0008
3881.00,0.0007
3880.00,0.0008
3879.00,0.0008
3878.00,0.0009
3877.00,0.0009
3876.00,0.0009
3875.00,0.0009
3874.00,0.0009
3873.00,0.0009
3872.00,0.0008
3871.00,0.0008
3870.00,0.0008
3869.00,0.0008
3868.00,0.0008
3867.00,0.0008
3866.00,0.0008
3865.00,0.0008
3864.00,0.0008
3863.00,0.0008
3862.00,0.0008
3861.00,0.0008
3860.00,0.0008
3859.00,0.0008
3858.00,0.0008
3857.00,0.0008
3856.00,0.0008
3855.00,0.0007
3854.00,0.0007
3853.00,0.0008
3852.00,0.0008
3851.00,0.0008
3850.00,0.0008
3849.00,0.0008
3848.00,0.0007
3847.00,0.0007
3846.00,0.0007
3845.00,0.0007
3844.00,0.0007
3843.00,0.0008
3842.00,0.0008
3841.00,0.0008
3840.00,0.0008
3839.00,0.0009
3838.00,0.0009
3837.00,0.0009
3836.00,0.0009
3835.00,0.0009
3834.00,0.0009
3833.00,0.0009
3832.00,0.0009
3831.00,0.0009
3830.00,0.0009
3829.00,0.0008
3828.00,0.0008
3827.00,0.0008
3826.00,0.0008
3825.00,0.0009
3824.00,0.0009
3823.00,0.0009
3822.00,0.0009
3821.00,0.0009
3820.00,0.0009
3819.00,0.0009
3818.00,0.0009
3817.00,0.0008
3816.00,0.0008
3815.00,0.0008
3814.00,0.0008
3813.00,0.0008
3812.00,0.0008
3811.00,0.0008
3810.00,0.0009
3809.00,0.0009
3808.00,0.0009
3807.00,0.0009
3806.00,0.0009
3805.00,0.0010
3804.00,0.0009
3803.00,0.0009
3802.00,0.0009
3801.00,0.0009
3800.00,0.0009
3799.00,0.0008
3798.00,0.0008
3797.00,0.0008
3796.00,0.0008
3795.00,0.0008
3794.00,0.0008
3793.00,0.0007
3792.00,0.0007
3791.00,0.0007
3790.00,0.0007
3789.00,0.0008
3788.00,0.0008
3787.00,0.0008
3786.00,0.0008
3785.00,0.0008
3784.00,0.0008
3783.00,0.0008
3782.00,0.0008
3781.00,0.0008
3780.00,0.0008
3779.00,0.0008
3778.00,0.0008
3777.00,0.0008
3776.00,0.0008
3775.00,0.0008
3774.00,0.0008
3773.00,0.0008
3772.00,0.0008
3771.00,0.0008
3770.00,0.0008
3769.00,0.0008
3768.00,0.0008
3767.00,0.0008
3766.00,0.0008
3765.00,0.0009
3764.00,0.0009
3763.00,0.0009
3762.00,0.0010
3761.00,0.0010
3760.00,0.0010
3759.00,0.0010
3758.00,0.0010
3757.00,0.0009
3756.00,0.0009
3755.00,0.0009
3754.00,0.0009
3753.00,0.0009
3752.00,0.0009
3751.00,0.0008
3750.00,0.0008
3749.00,0.0009
3748.00,0.0009
3747.00,0.0009
3746.00,0.0008
3745.00,0.0008
3744.00,0.0008
3743.00,0.0009
3742.00,0.0008
3741.00,0.0008
3740.00,0.0008
3739.00,0.0009
3738.00,0.0009
3737.00,0.0009
3736.00,0.0009
3735.00,0.0008
3734.00,0.0008
3733.00,0.0007
3732.00,0.0007
3731.00,0.0007
3730.00,0.0006
3729.00,0.0006
3728.00,0.0006
3727.00,0.0006
3726.00,0.0007
3725.00,0.0007
3724.00,0.0007
3723.00,0.0007
3722.00,0.0006
3721.00,0.0006
3720.00,0.0006
3719.00,0.0007
3718.00,0.0007
3717.00,0.0008
3716.00,0.0008
3715.00,0.0007
3714.00,0.0007
3713.00,0.0006
3712.00,0.0006
3711.00,0.0006
3710.00,0.0006
3709.00,0.0006
3708.00,0.0006
3707.00,0.0006
3706.00,0.0006
3705.00,0.0006
3704.00,0.0006
3703.00,0.0006
3702.00,0.0006
3701.00,0.0006
3700.00,0.0007
3699.00,0.0007
3698.00,0.0007
3697.00,0.0007
3696.00,0.0008
3695.00,0.0008
3694.00,0.0007
3693.00,0.0007
3692.00,0.0006
3691.00,0.0006
3690.00,0.0006
3689.00,0.0007
3688.00,0.0007
3687.00,0.0007
3686.00,0.0006
3685.00,0.0006
3684.00,0.0005
3683.00,0.0006
3682.00,0.0006
3681.00,0.0006
3680.00,0.0007
3679.00,0.0007
3678.00,0.0008
3677.00,0.0008
3676.00,0.0008
3675.00,0.0008
3674.00,0.0008
3673.00,0.0008
3672.00,0.0007
3671.00,0.0006
3670.00,0.0006
3669.00,0.0006
3668.00,0.0006
3667.00,0.0006
3666.00,0.0005
3665.00,0.0004
3664.00,0.0004
3663.00,0.0004
3662.00,0.0004
3661.00,0.0005
3660.00,0.0005
3659.00,0.0006
3658.00,0.0006
3657.00,0.0005
3656.00,0.0005
3655.00,0.0005
3654.00,0.0005
3653.00,0.0005
3652.00,0.0005
3651.00,0.0006
3650.00,0.0006
3649.00,0.0007
3648.00,0.0007
3647.00,0.0007
3646.00,0.0007
3645.00,0.0007
3644.00,0.0006
3643.00,0.0006
3642.00,0.0006
3641.00,0.0006
3640.00,0.0006
3639.00,0.0007
3638.00,0.0007
3637.00,0.0007
3636.00,0.0007
3635.00,0.0007
3634.00,0.0007
3633.00,0.0007
3632.00,0.0007
3631.00,0.0007
3630.00,0.0008
3629.00,0.0008
3628.00,0.0009
3627.00,0.0009
3626.00,0.0008
3625.00,0.0008
3624.00,0.0008
3623.00,0.0008
3622.00,0.0008
3621.00,0.0007
3620.00,0.0007
3619.00,0.0007
3618.00,0.0007
3617.00,0.0007
3616.00,0.0007
3615.00,0.0007
3614.00,0.0008
3613.00,0.0008
3612.00,0.0008
3611.00,0.0008
3610.00,0.0009
3609.00,0.0009
3608.00,0.0009
3607.00,0.0009
3606.00,0.0008
3605.00,0.0008
3604.00,0.0009
3603.00,0.0009
3602.00,0.0009
3601.00,0.0009
3600.00,0.0009
3599.00,0.0009
3598.00,0.0009
3597.00,0.0010
3596.00,0.0010
3595.00,0.0011
3594.00,0.0011
3593.00,0.0011
3592.00,0.0010
3591.00,0.0010
3590.00,0.0009
3589.00,0.0009
3588.00,0.0009
3587.00,0.0010
3586.00,0.0010
3585.00,0.0011
3584.00,0.0011
3583.00,0.0011
3582.00,0.0011
3581.00,0.0011
3580.00,0.0011
3579.00,0.0011
3578.00,0.0011
3577.00,0.0011
3576.00,0.0011
3575.00,0.0012
3574.00,0.0012
3573.00,0.0012
3572.00,0.0013
3571.00,0.0013
3570.00,0.0013
3569.00,0.0013
3568.00,0.0013
3567.00,0.0013
3566.00,0.0013
3565.00,0.0013
3564.00,0.0013
3563.00,0.0012
3562.00,0.0013
3561.00,0.0013
3560.00,0.0013
3559.00,0.0013
3558.00,0.0013
3557.00,0.0013
3556.00,0.0014
3555.00,0.0014
3554.00,0.0014
3553.00,0.0015
3552.00,0.0015
3551.00,0.0015
3550.00,0.0015
3549.00,0.0015
3548.00,0.0015
3547.00,0.0015
3546.00,0.0015
3545.00,0.0016
3544.00,0.0016
3543.00,0.0016
3542.00,0.0017
3541.00,0.0017
3540.00,0.0017
3539.00,0.0017
3538.00,0.0017
3537.00,0.0017
3536.00,0.0017
3535.00,0.0017
3534.00,0.0017
3533.00,0.0017
3532.00,0.0018
3531.00,0.0018
3530.00,0.0018
3529.00,0.0018
3528.00,0.0019
3527.00,0.0019
3526.00,0.0019
3525.00,0.0020
3524.00,0.0020
3523.00,0.0020
3522.00,0.0020
3521.00,0.0020
3520.00,0.0020
3519.00,0.0020
3518.00,0.0020
3517.00,0.0020
3516.00,0.0021
3515.00,0.0021
3514.00,0.0022
3513.00,0.0022
3512.00,0.0022
3511.00,0.0023
3510.00,0.0023
3509.00,0.0023
3508.00,0.0024
3507.00,0.0024
3506.00,0.0024
3505.00,0.0024
3504.00,0.0024
3503.00,0.0024
3502.00,0.0024
3501.00,0.0024
3500.00,0.0024
3499.00,0.0023
3498.00,0.0023
3497.00,0.0024
3496.00,0.0024
3495.00,0.0024
3494.00,0.0025
3493.00,0.0025
3492.00,0.0025
3491.00,0.0026
3490.00,0.0026
3489.00,0.0026
3488.00,0.0026
3487.00,0.0026
3486.00,0.0026
3485.00,0.0026
3484.00,0.0026
3483.00,0.0026
3482.00,0.0026
3481.00,0.0027
3480.00,0.0027
3479.00,0.0027
3478.00,0.0028
3477.00,0.0028
3476.00,0.0028
3475.00,0.0028
3474.00,0.0028
3473.00,0.0029
3472.00,0.0029
3471.00,0.0029
3470.00,0.0029
3469.00,0.0029
3468.00,0.0029
3467.00,0.0030
3466.00,0.0030
3465.00,0.0030
3464.00,0.0030
3463.00,0.0029
3462.00,0.0029
3461.00,0.0030
3460.00,0.0030
3459.00,0.0030
3458.00,0.0031
3457.00,0.0031
3456.00,0.0031
3455.00,0.0032
3454.00,0.0032
3453.00,0.0032
3452.00,0.0031
3451.00,0.0031
3450.00,0.0031
3449.00,0.0032
3448.00,0.0032
3447.00,0.0033
3446.00,0.0034
3445.00,0.0034
3444.00,0.0034
3443.00,0.0033
3442.00,0.0033
3441.00,0.0033
3440.00,0.0033
3439.00,0.0034
3438.00,0.0034
3437.00,0.0034
3436.00,0.0035
3435.00,0.0035
3434.00,0.0035
3433.00,0.0035
3432.00,0.0035
3431.00,0.0035
3430.00,0.0036
3429.00,0.0036
3428.00,0.0036
3427.00,0.0036
3426.00,0.0036
3425.00,0.0037
3424.00,0.0037
3423.00,0.0037
3422.00,0.0037
3421.00,0.0037
3420.00,0.0037
3419.00,0.0037
3418.00,0.0037
3417.00,0.0038
3416.00,0.0038
3415.00,0.0038
3414.00,0.0038
3413.00,0.0039
3412.00,0.0039
3411.00,0.0039
3410.00,0.0039
3409.00,0.0039
3408.00,0.0039
3407.00,0.0039
3406.00,0.0039
3405.00,0.0039
3404.00,0.0039
3403.00,0.0040
3402.00,0.0040
3401.00,0.0040
3400.00,0.0040
3399.00,0.0040
3398.00,0.0040
3397.00,0.0041
3396.00,0.0041
3395.00,0.0041
3394.00,0.0041
3393.00,0.0041
3392.00,0.0041
3391.00,0.0041
3390.00,0.0041
3389.00,0.0041
3388.00,0.0041
3387.00,0.0042
3386.00,0.0042
3385.00,0.0042
3384.00,0.0042
3383.00,0.0042
3382.00,0.0042
3381.00,0.0042
3380.00,0.0042
3379.00,0.0042
3378.00,0.0042
3377.00,0.0042
3376.00,0.0042
3375.00,0.0043
3374.00,0.0043
3373.00,0.0043
3372.00,0.0043
3371.00,0.0043
3370.00,0.0043
3369.00,0.0043
3368.00,0.0043
3367.00,0.0043
3366.00,0.0043
3365.00,0.0043
3364.00,0.0044
3363.00,0.0044
3362.00,0.0044
3361.00,0.0044
3360.00,0.0044
3359.00,0.0044
3358.00,0.0045
3357.00,0.0045
3356.00,0.0045
3355.00,0.0045
3354.00,0.0045
3353.00,0.0045
3352.00,0.0045
3351.00,0.0045
3350.00,0.0045
3349.00,0.0046
3348.00,0.0046
3347.00,0.0046
3346.00,0.0046
3345.00,0.0045
3344.00,0.0045
3343.00,0.0045
3342.00,0.0045
3341.00,0.0045
3340.00,0.0045
3339.00,0.0045
3338.00,0.0045
3337.00,0.0045
3336.00,0.0045
3335.00,0.0044
3334.00,0.0044
3333.00,0.0044
3332.00,0.0044
3331.00,0.0044
3330.00,0.0044
3329.00,0.0044
3328.00,0.0044
3327.00,0.0044
3326.00,0.0044
3325.00,0.0044
3324.00,0.0044
3323.00,0.0044
3322.00,0.0044
3321.00,0.0044
3320.00,0.0044
3319.00,0.0044
3318.00,0.0044
3317.00,0.0044
3316.00,0.0044
3315.00,0.0044
3314.00,0.0045
3313.00,0.0045
3312.00,0.0045
3311.00,0.0045
3310.00,0.0045
3309.00,0.0045
3308.00,0.0046
3307.00,0.0046
3306.00,0.0046
3305.00,0.0046
3304.00,0.0046
3303.00,0.0047
3302.00,0.0047
3301.00,0.0046
3300.00,0.0046
3299.00,0.0045
3298.00,0.0045
3297.00,0.0045
3296.00,0.0044
3295.00,0.0044
3294.00,0.0044
3293.00,0.0044
3292.00,0.0044
3291.00,0.0044
3290.00,0.0044
3289.00,0.0044
3288.00,0.0044
3287.00,0.0043
3286.00,0.0043
3285.00,0.0043
3284.00,0.0043
3283.00,0.0043
3282.00,0.0042
3281.00,0.0042
3280.00,0.0042
3279.00,0.0041
3278.00,0.0041
3277.00,0.0041
3276.00,0.0042
3275.00,0.0042
3274.00,0.0041
3273.00,0.0041
3272.00,0.0041
3271.00,0.0041
3270.00,0.0041
3269.00,0.0041
3268.00,0.0040
3267.00,0.0040
3266.00,0.0040
3265.00,0.0039
3264.00,0.0039
3263.00,0.0038
3262.00,0.0038
3261.00,0.0038
3260.00,0.0038
3259.00,0.0038
3258.00,0.0039
3257.00,0.0039
3256.00,0.0039
3255.00,0.0038
3254.00,0.0038
3253.00,0.0038
3252.00,0.0038
3251.00,0.0038
3250.00,0.0038
3249.00,0.0037
3248.00,0.0037
3247.00,0.0037
3246.00,0.0037
3245.00,0.0037
3244.00,0.0037
3243.00,0.0037
3242.00,0.0037
3241.00,0.0036
3240.00,0.0036
3239.00,0.0037
3238.00,0.0037
3237.00,0.0037
3236.00,0.0037
3235.00,0.0037
3234.00,0.0037
3233.00,0.0038
3232.00,0.0038
3231.00,0.0038
3230.00,0.0038
3229.00,0.0038
3228.00,0.0038
3227.00,0.0038
3226.00,0.0038
3225.00,0.0038
3224.00,0.0038
3223.00,0.0039
3222.00,0.0039
3221.00,0.0039
3220.00,0.0039
3219.00,0.0040
3218.00,0.0040
3217.00,0.0040
3216.00,0.0040
3215.00,0.0040
3214.00,0.0040
3213.00,0.0040
3212.00,0.0040
3211.00,0.0041
3210.00,0.0041
3209.00,0.0041
3208.00,0.0041
3207.00,0.0041
3206.00,0.0041
3205.00,0.0041
3204.00,0.0041
3203.00,0.0041
3202.00,0.0041
3201.00,0.0041
3200.00,0.0041
3199.00,0.0041
3198.00,0.0041
3197.00,0.0041
3196.00,0.0041
3195.00,0.0040
3194.00,0.0040
3193.00,0.0040
3192.00,0.0040
3191.00,0.0040
3190.00,0.0040
3189.00,0.0040
3188.00,0.0039
3187.00,0.0039
3186.00,0.0039
3185.00,0.0039
3184.00,0.0039
3183.00,0.0039
3182.00,0.0039
3181.00,0.0039
3180.00,0.0039
3179.00,0.0038
3178.00,0.0038
3177.00,0.0038
3176.00,0.0037
3175.00,0.0037
3174.00,0.0038
3173.00,0.0038
3172.00,0.0038
3171.00,0.0038
3170.00,0.0038
3169.00,0.0037
3168.00,0.0037
3167.00,0.0037
3166.00,0.0036
3165.00,0.0036
3164.00,0.0036
3163.00,0.0036
3162.00,0.0036
3161.00,0.0036
3160.00,0.0036
3159.00,0.0036
3158.00,0.0035
3157.00,0.0035
3156.00,0.0036
3155.00,0.0036
3154.00,0.0036
3153.00,0.0036
3152.00,0.0036
3151.00,0.0036
3150.00,0.0037
3149.00,0.0037
3148.00,0.0036
3147.00,0.0036
3146.00,0.0036
3145.00,0.0035
3144.00,0.0035
3143.00,0.0035
3142.00,0.0035
3141.00,0.0035
3140.00,0.0035
3139.00,0.0035
3138.00,0.0035
3137.00,0.0034
3136.00,0.0034
3135.00,0.0034
3134.00,0.0034
3133.00,0.0033
3132.00,0.0033
3131.00,0.0033
3130.00,0.0033
3129.00,0.0033
3128.00,0.0033
3127.00,0.0032
3126.00,0.0032
3125.00,0.0032
3124.00,0.0031
3123.00,0.0031
3122.00,0.0030
3121.00,0.0031
3120.00,0.0031
3119.00,0.0031
3118.00,0.0031
3117.00,0.0031
3116.00,0.0031
3115.00,0.0030
3114.00,0.0030
3113.00,0.0030
3112.00,0.0030
3111.00,0.0030
3110.00,0.0030
3109.00,0.0031
3108.00,0.0030
3107.00,0.0030
3106.00,0.0030
3105.00,0.0030
3104.00,0.0029
3103.00,0.0029
3102.00,0.0029
3101.00,0.0029
3100.00,0.0029
3099.00,0.0030
3098.00,0.0030
3097.00,0.0030
3096.00,0.0030
3095.00,0.0030
3094.00,0.0029
3093.00,0.0029
3092.00,0.0029
3091.00,0.0029
3090.00,0.0029
3089.00,0.0030
3088.00,0.0029
3087.00,0.0029
3086.00,0.0029
3085.00,0.0028
3084.00,0.0028
3083.00,0.0028
3082.00,0.0028
3081.00,0.0028
3080.00,0.0028
3079.00,0.0028
3078.00,0.0028
3077.00,0.0028
3076.00,0.0029
3075.00,0.0029
3074.00,0.0030
3073.00,0.0030
3072.00,0.0031
3071.00,0.0031
3070.00,0.0031
3069.00,0.0031
3068.00,0.0030
3067.00,0.0031
3066.00,0.0031
3065.00,0.0031
3064.00,0.0032
3063.00,0.0032
3062.00,0.0032
3061.00,0.0031
3060.00,0.0031
3059.00,0.0031
3058.00,0.0032
3057.00,0.0032
3056.00,0.0032
3055.00,0.0032
3054.00,0.0032
3053.00,0.0032
3052.00,0.0032
3051.00,0.0033
3050.00,0.0033
3049.00,0.0033
3048.00,0.0034
3047.00,0.0034
3046.00,0.0034
3045.00,0.0033
3044.00,0.0033
3043.00,0.0033
3042.00,0.0033
3041.00,0.0033
3040.00,0.0034
3039.00,0.0035
3038.00,0.0035
3037.00,0.0036
3036.00,0.0036
3035.00,0.0036
3034.00,0.0037
3033.00,0.0037
3032.00,0.0038
3031.00,0.0038
3030.00,0.0039
3029.00,0.0039
3028.00,0.0040
3027.00,0.0040
3026.00,0.0040
3025.00,0.0041
3024.00,0.0041
3023.00,0.0042
3022.00,0.0043
3021.00,0.0043
3020.00,0.0044
3019.00,0.0045
3018.00,0.0046
3017.00,0.0046
3016.00,0.0047
3015.00,0.0048
3014.00,0.0049
3013.00,0.0051
3012.00,0.0052
3011.00,0.0053
3010.00,0.0054
3009.00,0.0055
3008.00,0.0057
3007.00,0.0058
3006.00,0.0059
3005.00,0.0060
3004.00,0.0061
3003.00,0.0063
3002.00,0.0065
3001.00,0.0067
3000.00,0.0069
2999.00,0.0072
2998.00,0.0074
2997.00,0.0077
2996.00,0.0080
2995.00,0.0084
2994.00,0.0088
2993.00,0.0092
2992.00,0.0097
2991.00,0.0102
2990.00,0.0109
2989.00,0.0116
2988.00,0.0123
2987.00,0.0131
2986.00,0.0140
2985.00,0.0150
2984.00,0.0160
2983.00,0.0172
2982.00,0.0186
2981.00,0.0202
2980.00,0.0221
2979.00,0.0242
2978.00,0.0267
2977.00,0.0295
2976.00,0.0327
2975.00,0.0362
2974.00,0.0403
2973.00,0.0448
2972.00,0.0500
2971.00,0.0558
2970.00,0.0623
2969.00,0.0693
2968.00,0.0770
2967.00,0.0850
2966.00,0.0934
2965.00,0.1018
2964.00,0.1098
2963.00,0.1171
2962.00,0.1235
2961.00,0.1287
2960.00,0.1331
2959.00,0.1369
2958.00,0.1410
2957.00,0.1457
2956.00,0.1517
2955.00,0.1590
2954.00,0.1673
2953.00,0.1759
2952.00,0.1837
2951.00,0.1894
2950.00,0.1918
2949.00,0.1899
2948.00,0.1838
2947.00,0.1740
2946.00,0.1618
2945.00,0.1488
2944.00,0.1364
2943.00,0.1257
2942.00,0.1174
2941.00,0.1116
2940.00,0.1084
2939.00,0.1074
2938.00,0.1085
2937.00,0.1114
2936.00,0.1160
2935.00,0.1222
2934.00,0.1298
2933.00,0.1388
2932.00,0.1489
2931.00,0.1600
2930.00,0.1718
2929.00,0.1840
2928.00,0.1963
2927.00,0.2084
2926.00,0.2201
2925.00,0.2316
2924.00,0.2428
2923.00,0.2539
2922.00,0.2650
2921.00,0.2756
2920.00,0.2851
2919.00,0.2922
2918.00,0.2958
2917.00,0.2951
2916.00,0.2898
2915.00,0.2807
2914.00,0.2691
2913.00,0.2565
2912.00,0.2442
2911.00,0.2327
2910.00,0.2225
2909.00,0.2134
2908.00,0.2051
2907.00,0.1974
2906.00,0.1899
2905.00,0.1825
2904.00,0.1752
2903.00,0.1679
2902.00,0.1608
2901.00,0.1540
2900.00,0.1474
2899.00,0.1412
2898.00,0.1355
2897.00,0.1302
2896.00,0.1255
2895.00,0.1214
2894.00,0.1179
2893.00,0.1150
2892.00,0.1127
2891.00,0.1109
2890.00,0.1098
2889.00,0.1091
2888.00,0.1087
2887.00,0.1088
2886.00,0.1091
2885.00,0.1099
2884.00,0.1110
2883.00,0.1127
2882.00,0.1149
2881.00,0.1174
2880.00,0.1199
2879.00,0.1220
2878.00,0.1233
2877.00,0.1238
2876.00,0.1235
2875.00,0.1227
2874.00,0.1222
2873.00,0.1221
2872.00,0.1229
2871.00,0.1244
2870.00,0.1264
2869.00,0.1284
2868.00,0.1296
2867.00,0.1294
2866.00,0.1269
2865.00,0.1221
2864.00,0.1152
2863.00,0.1073
2862.00,0.0993
2861.00,0.0923
2860.00,0.0868
2859.00,0.0830
2858.00,0.0807
2857.00,0.0797
2856.00,0.0798
2855.00,0.0807
2854.00,0.0822
2853.00,0.0840
2852.00,0.0859
2851.00,0.0877
2850.00,0.0891
2849.00,0.0901
2848.00,0.0911
2847.00,0.0923
2846.00,0.0945
2845.00,0.0976
2844.00,0.1018
2843.00,0.1068
2842.00,0.1121
2841.00,0.1170
2840.00,0.1209
2839.00,0.1228
2838.00,0.1222
2837.00,0.1185
2836.00,0.1120
2835.00,0.1031
2834.00,0.0927
2833.00,0.0820
2832.00,0.0718
2831.00,0.0627
2830.00,0.0551
2829.00,0.0488
2828.00,0.0437
2827.00,0.0396
2826.00,0.0362
2825.00,0.0334
2824.00,0.0311
2823.00,0.0291
2822.00,0.0275
2821.00,0.0260
2820.00,0.0248
2819.00,0.0237
2818.00,0.0227
2817.00,0.0219
2816.00,0.0211
2815.00,0.0204
2814.00,0.0198
2813.00,0.0192
2812.00,0.0186
2811.00,0.0181
2810.00,0.0175
2809.00,0.0169
2808.00,0.0163
2807.00,0.0156
2806.00,0.0150
2805.00,0.0143
2804.00,0.0137
2803.00,0.0131
2802.00,0.0126
2801.00,0.0121
2800.00,0.0117
2799.00,0.0113
2798.00,0.0110
2797.00,0.0108
2796.00,0.0105
2795.00,0.0103
2794.00,0.0100
2793.00,0.0097
2792.00,0.0095
2791.00,0.0092
2790.00,0.0089
2789.00,0.0086
2788.00,0.0083
2787.00,0.0081
2786.00,0.0078
2785.00,0.0076
2784.00,0.0073
2783.00,0.0071
2782.00,0.0069
2781.00,0.0067
2780.00,0.0066
2779.00,0.0064
2778.00,0.0063
2777.00,0.0062
2776.00,0.0060
2775.00,0.0059
2774.00,0.0058
2773.00,0.0057
2772.00,0.0057
2771.00,0.0057
2770.00,0.0056
2769.00,0.0056
2768.00,0.0056
2767.00,0.0055
2766.00,0.0055
2765.00,0.0055
2764.00,0.0055
2763.00,0.0054
2762.00,0.0054
2761.00,0.0053
2760.00,0.0053
2759.00,0.0053
2758.00,0.0053
2757.00,0.0052
2756.00,0.0052
2755.00,0.0052
2754.00,0.0051
2753.00,0.0051
2752.00,0.0051
2751.00,0.0051
2750.00,0.0051
2749.00,0.0051
2748.00,0.0051
2747.00,0.0052
2746.00,0.0052
2745.00,0.0052
2744.00,0.0053
2743.00,0.0053
2742.00,0.0054
2741.00,0.0056
2740.00,0.0057
2739.00,0.0059
2738.00,0.0060
2737.00,0.0061
2736.00,0.0063
2735.00,0.0064
2734.00,0.0066
2733.00,0.0067
2732.00,0.0069
2731.00,0.0071
2730.00,0.0073
2729.00,0.0076
2728.00,0.0078
2727.00,0.0081
2726.00,0.0083
2725.00,0.0085
2724.00,0.0087
2723.00,0.0088
2722.00,0.0087
2721.00,0.0086
2720.00,0.0083
2719.00,0.0080
2718.00,0.0077
2717.00,0.0074
2716.00,0.0071
2715.00,0.0068
2714.00,0.0066
2713.00,0.0063
2712.00,0.0061
2711.00,0.0059
2710.00,0.0057
2709.00,0.0055
2708.00,0.0054
2707.00,0.0052
2706.00,0.0051
2705.00,0.0050
2704.00,0.0049
2703.00,0.0048
2702.00,0.0047
2701.00,0.0047
2700.00,0.0046
2699.00,0.0046
2698.00,0.0045
2697.00,0.0045
2696.00,0.0045
2695.00,0.0044
2694.00,0.0044
2693.00,0.0044
2692.00,0.0044
2691.00,0.0045
2690.00,0.0045
2689.00,0.0045
2688.00,0.0045
2687.00,0.0045
2686.00,0.0044
2685.00,0.0044
2684.00,0.0044
2683.00,0.0044
2682.00,0.0045
2681.00,0.0045
2680.00,0.0045
2679.00,0.0046
2678.00,0.0046
2677.00,0.0046
2676.00,0.0046
2675.00,0.0045
2674.00,0.0045
2673.00,0.0045
2672.00,0.0045
2671.00,0.0044
2670.00,0.0044
2669.00,0.0044
2668.00,0.0045
2667.00,0.0045
2666.00,0.0045
2665.00,0.0046
2664.00,0.0046
2663.00,0.0047
2662.00,0.0047
2661.00,0.0047
2660.00,0.0048
2659.00,0.0048
2658.00,0.0048
2657.00,0.0048
2656.00,0.0048
2655.00,0.0047
2654.00,0.0046
2653.00,0.0046
2652.00,0.0045
2651.00,0.0044
2650.00,0.0044
2649.00,0.0043
2648.00,0.0043
2647.00,0.0043
2646.00,0.0043
2645.00,0.0042
2644.00,0.0042
2643.00,0.0042
2642.00,0.0041
2641.00,0.0041
2640.00,0.0040
2639.00,0.0040
2638.00,0.0039
2637.00,0.0039
2636.00,0.0039
2635.00,0.0039
2634.00,0.0039
2633.00,0.0039
2632.00,0.0039
2631.00,0.0039
2630.00,0.0039
2629.00,0.0039
2628.00,0.0040
2627.00,0.0040
2626.00,0.0040
2625.00,0.0040
2624.00,0.0040
2623.00,0.0040
2622.00,0.0040
2621.00,0.0040
2620.00,0.0041
2619.00,0.0041
2618.00,0.0040
2617.00,0.0040
2616.00,0.0040
2615.00,0.0040
2614.00,0.0039
2613.00,0.0039
2612.00,0.0039
2611.00,0.0038
2610.00,0.0038
2609.00,0.0037
2608.00,0.0037
2607.00,0.0037
2606.00,0.0036
2605.00,0.0036
2604.00,0.0035
2603.00,0.0034
2602.00,0.0033
2601.00,0.0033
2600.00,0.0033
2599.00,0.0033
2598.00,0.0033
2597.00,0.0033
2596.00,0.0033
2595.00,0.0033
2594.00,0.0033
2593.00,0.0033
2592.00,0.0033
2591.00,0.0033
2590.00,0.0034
2589.00,0.0035
2588.00,0.0036
2587.00,0.0037
2586.00,0.0037
2585.00,0.0038
2584.00,0.0039
2583.00,0.0039
2582.00,0.0040
2581.00,0.0039
2580.00,0.0038
2579.00,0.0037
2578.00,0.0036
2577.00,0.0035
2576.00,0.0034
2575.00,0.0033
2574.00,0.0032
2573.00,0.0030
2572.00,0.0029
2571.00,0.0029
2570.00,0.0028
2569.00,0.0027
2568.00,0.0027
2567.00,0.0025
2566.00,0.0025
2565.00,0.0024
2564.00,0.0024
2563.00,0.0024
2562.00,0.0024
2561.00,0.0024
2560.00,0.0024
2559.00,0.0024
2558.00,0.0024
2557.00,0.0023
2556.00,0.0023
2555.00,0.0022
2554.00,0.0022
2553.00,0.0022
2552.00,0.0022
2551.00,0.0021
2550.00,0.0021
2549.00,0.0020
2548.00,0.0020
2547.00,0.0019
2546.00,0.0018
2545.00,0.0018
2544.00,0.0018
2543.00,0.0017
2542.00,0.0017
2541.00,0.0016
2540.00,0.0016
2539.00,0.0016
2538.00,0.0016
2537.00,0.0016
2536.00,0.0016
2535.00,0.0016
2534.00,0.0016
2533.00,0.0016
2532.00,0.0016
2531.00,0.0016
2530.00,0.0017
2529.00,0.0016
2528.00,0.0016
2527.00,0.0015
2526.00,0.0015
2525.00,0.0015
2524.00,0.0015
2523.00,0.0015
2522.00,0.0015
2521.00,0.0014
2520.00,0.0013
2519.00,0.0012
2518.00,0.0012
2517.00,0.0012
2516.00,0.0012
2515.00,0.0012
2514.00,0.0012
2513.00,0.0012
2512.00,0.0012
2511.00,0.0011
2510.00,0.0012
2509.00,0.0012
2508.00,0.0012
2507.00,0.0012
2506.00,0.0012
2505.00,0.0011
2504.00,0.0011
2503.00,0.0010
2502.00,0.0010
2501.00,0.0009
2500.00,0.0010
2499.00,0.0010
2498.00,0.0010
2497.00,0.0010
2496.00,0.0011
2495.00,0.0011
2494.00,0.0012
2493.00,0.0011
2492.00,0.0011
2491.00,0.0010
2490.00,0.0010
2489.00,0.0009
2488.00,0.0009
2487.00,0.0010
2486.00,0.0010
2485.00,0.0011
2484.00,0.0011
2483.00,0.0011
2482.00,0.0010
2481.00,0.0009
2480.00,0.0009
2479.00,0.0010
2478.00,0.0010
2477.00,0.0010
2476.00,0.0009
2475.00,0.0009
2474.00,0.0009
2473.00,0.0009
2472.00,0.0009
2471.00,0.0008
2470.00,0.0007
2469.00,0.0007
2468.00,0.0007
2467.00,0.0007
2466.00,0.0008
2465.00,0.0009
2464.00,0.0010
2463.00,0.0010
2462.00,0.0010
2461.00,0.0010
2460.00,0.0010
2459.00,0.0010
2458.00,0.0011
2457.00,0.0012
2456.00,0.0013
2455.00,0.0013
2454.00,0.0012
2453.00,0.0012
2452.00,0.0012
2451.00,0.0011
2450.00,0.0011
2449.00,0.0011
2448.00,0.0011
2447.00,0.0011
2446.00,0.0011
2445.00,0.0010
2444.00,0.0010
2443.00,0.0009
2442.00,0.0009
2441.00,0.0008
2440.00,0.0009
2439.00,0.0009
2438.00,0.0010
2437.00,0.0010
2436.00,0.0010
2435.00,0.0009
2434.00,0.0009
2433.00,0.0009
2432.00,0.0010
2431.00,0.0010
2430.00,0.0011
2429.00,0.0011
2428.00,0.0011
2427.00,0.0011
2426.00,0.0011
2425.00,0.0011
2424.00,0.0011
2423.00,0.0010
2422.00,0.0010
2421.00,0.0010
2420.00,0.0009
2419.00,0.0009
2418.00,0.0009
2417.00,0.0009
2416.00,0.0009
2415.00,0.0009
2414.00,0.0008
2413.00,0.0008
2412.00,0.0008
2411.00,0.0008
2410.00,0.0009
2409.00,0.0009
2408.00,0.0009
2407.00,0.0009
2406.00,0.0008
2405.00,0.0009
2404.00,0.0009
2403.00,0.0009
2402.00,0.0008
2401.00,0.0008
2400.00,0.0008
2399.00,0.0008
2398.00,0.0008
2397.00,0.0009
2396.00,0.0009
2395.00,0.0009
2394.00,0.0009
2393.00,0.0009
2392.00,0.0008
2391.00,0.0008
2390.00,0.0009
2389.00,0.0008
2388.00,0.0008
2387.00,0.0007
2386.00,0.0006
2385.00,0.0006
2384.00,0.0006
2383.00,0.0005
2382.00,0.0005
2381.00,0.0005
2380.00,0.0004
2379.00,0.0004
2378.00,0.0004
2377.00,0.0004
2376.00,0.0004
2375.00,0.0004
2374.00,0.0004
2373.00,0.0004
2372.00,0.0004
2371.00,0.0004
2370.00,0.0004
2369.00,0.0004
2368.00,0.0005
2367.00,0.0005
2366.00,0.0006
2365.00,0.0005
2364.00,0.0004
2363.00,0.0004
2362.00,0.0004
2361.00,0.0004
2360.00,0.0004
2359.00,0.0004
2358.00,0.0004
2357.00,0.0005
2356.00,0.0005
2355.00,0.0005
2354.00,0.0005
2353.00,0.0004
2352.00,0.0004
2351.00,0.0004
2350.00,0.0005
2349.00,0.0005
2348.00,0.0005
2347.00,0.0005
2346.00,0.0005
2345.00,0.0005
2344.00,0.0005
2343.00,0.0006
2342.00,0.0006
2341.00,0.0006
2340.00,0.0006
2339.00,0.0006
2338.00,0.0007
2337.00,0.0007
2336.00,0.0008
2335.00,0.0008
2334.00,0.0007
2333.00,0.0006
2332.00,0.0005
2331.00,0.0004
2330.00,0.0004
2329.00,0.0006
2328.00,0.0008
2327.00,0.0011
2326.00,0.0015
2325.00,0.0018
2324.00,0.0020
2323.00,0.0019
2322.00,0.0017
2321.00,0.0015
2320.00,0.0014
2319.00,0.0013
2318.00,0.0013
2317.00,0.0013
2316.00,0.0012
2315.00,0.0012
2314.00,0.0011
2313.00,0.0010
2312.00,0.0009
2311.00,0.0009
2310.00,0.0009
2309.00,0.0010
2308.00,0.0010
2307.00,0.0011
2306.00,0.0011
2305.00,0.0010
2304.00,0.0010
2303.00,0.0010
2302.00,0.0010
2301.00,0.0010
2300.00,0.0011
2299.00,0.0011
2298.00,0.0012
2297.00,0.0014
2296.00,0.0015
2295.00,0.0015
2294.00,0.0015
2293.00,0.0016
2292.00,0.0016
2291.00,0.0017
2290.00,0.0018
2289.00,0.0018
2288.00,0.0018
2287.00,0.0018
2286.00,0.0018
2285.00,0.0018
2284.00,0.0018
2283.00,0.0017
2282.00,0.0016
2281.00,0.0015
2280.00,0.0015
2279.00,0.0014
2278.00,0.0014
2277.00,0.0015
2276.00,0.0016
2275.00,0.0016
2274.00,0.0015
2273.00,0.0014
2272.00,0.0014
2271.00,0.0014
2270.00,0.0014
2269.00,0.0013
2268.00,0.0013
2267.00,0.0013
2266.00,0.0013
2265.00,0.0013
2264.00,0.0012
2263.00,0.0012
2262.00,0.0011
2261.00,0.0012
2260.00,0.0013
2259.00,0.0013
2258.00,0.0013
2257.00,0.0013
2256.00,0.0013
2255.00,0.0012
2254.00,0.0011
2253.00,0.0009
2252.00,0.0008
2251.00,0.0008
2250.00,0.0009
2249.00,0.0010
2248.00,0.0010
2247.00,0.0009
2246.00,0.0008
2245.00,0.0007
2244.00,0.0007
2243.00,0.0008
2242.00,0.0009
2241.00,0.0011
2240.00,0.0012
2239.00,0.0013
2238.00,0.0013
2237.00,0.0012
2236.00,0.0011
2235.00,0.0010
2234.00,0.0008
2233.00,0.0007
2232.00,0.0007
2231.00,0.0006
2230.00,0.0006
2229.00,0.0006
2228.00,0.0007
2227.00,0.0008
2226.00,0.0009
2225.00,0.0009
2224.00,0.0009
2223.00,0.0008
2222.00,0.0007
2221.00,0.0006
2220.00,0.0005
2219.00,0.0004
2218.00,0.0003
2217.00,0.0004
2216.00,0.0005
2215.00,0.0007
2214.00,0.0008
2213.00,0.0007
2212.00,0.0005
2211.00,0.0003
2210.00,0.0002
2209.00,0.0003
2208.00,0.0006
2207.00,0.0008
2206.00,0.0010
2205.00,0.0010
2204.00,0.0009
2203.00,0.0007
2202.00,0.0006
2201.00,0.0006
2200.00,0.0007
2199.00,0.0007
2198.00,0.0007
2197.00,0.0007
2196.00,0.0008
2195.00,0.0010
2194.00,0.0012
2193.00,0.0013
2192.00,0.0015
2191.00,0.0015
2190.00,0.0015
2189.00,0.0015
2188.00,0.0014
2187.00,0.0014
2186.00,0.0014
2185.00,0.0014
2184.00,0.0014
2183.00,0.0012
2182.00,0.0007
2181.00,0.0002
2180.00,-0.0001
2179.00,-0.0002
2178.00,-0.0001
2177.00,0.0001
2176.00,-0.0000
2175.00,-0.0002
2174.00,-0.0003
2173.00,-0.0001
2172.00,0.0003
2171.00,0.0008
2170.00,0.0013
2169.00,0.0017
2168.00,0.0019
2167.00,0.0018
2166.00,0.0017
2165.00,0.0016
2164.00,0.0017
2163.00,0.0017
2162.00,0.0014
2161.00,0.0006
2160.00,-0.0007
2159.00,-0.0020
2158.00,-0.0028
2157.00,-0.0029
2156.00,-0.0025
2155.00,-0.0021
2154.00,-0.0017
2153.00,-0.0016
2152.00,-0.0016
2151.00,-0.0015
2150.00,-0.0014
2149.00,-0.0013
2148.00,-0.0012
2147.00,-0.0012
2146.00,-0.0012
2145.00,-0.0013
2144.00,-0.0014
2143.00,-0.0015
2142.00,-0.0015
2141.00,-0.0015
2140.00,-0.0015
2139.00,-0.0014
2138.00,-0.0014
2137.00,-0.0013
2136.00,-0.0013
2135.00,-0.0013
2134.00,-0.0014
2133.00,-0.0013
2132.00,-0.0012
2131.00,-0.0011
2130.00,-0.0012
2129.00,-0.0013
2128.00,-0.0012
2127.00,-0.0010
2126.00,-0.0008
2125.00,-0.0005
2124.00,-0.0003
2123.00,-0.0003
2122.00,-0.0003
2121.00,-0.0003
2120.00,-0.0003
2119.00,-0.0002
2118.00,-0.0001
2117.00,-0.0000
2116.00,0.0000
2115.00,0.0001
2114.00,0.0001
2113.00,0.0001
2112.00,0.0001
2111.00,0.0001
2110.00,0.0001
2109.00,0.0002
2108.00,0.0002
2107.00,0.0002
2106.00,0.0002
2105.00,0.0002
2104.00,0.0003
2103.00,0.0004
2102.00,0.0005
2101.00,0.0005
2100.00,0.0004
2099.00,0.0002
2098.00,-0.0000
2097.00,-0.0002
2096.00,-0.0004
2095.00,-0.0005
2094.00,-0.0004
2093.00,-0.0004
2092.00,-0.0003
2091.00,-0.0002
2090.00,-0.0001
2089.00,0.0000
2088.00,0.0001
2087.00,0.0000
2086.00,-0.0001
2085.00,-0.0001
2084.00,-0.0000
2083.00,0.0001
2082.00,0.0003
2081.00,0.0004
2080.00,0.0005
2079.00,0.0005
2078.00,0.0004
2077.00,0.0004
2076.00,0.0003
2075.00,0.0003
2074.00,0.0001
2073.00,-0.0000
2072.00,-0.0001
2071.00,-0.0001
2070.00,-0.0001
2069.00,-0.0001
2068.00,-0.0002
2067.00,-0.0003
2066.00,-0.0004
2065.00,-0.0004
2064.00,-0.0004
2063.00,-0.0003
2062.00,-0.0003
2061.00,-0.0004
2060.00,-0.0004
2059.00,-0.0002
2058.00,0.0001
2057.00,0.0005
2056.00,0.0006
2055.00,0.0006
2054.00,0.0007
2053.00,0.0010
2052.00,0.0013
2051.00,0.0015
2050.00,0.0013
2049.00,0.0008
2048.00,0.0002
2047.00,-0.0001
2046.00,-0.0001
2045.00,0.0001
2044.00,0.0003
2043.00,0.0005
2042.00,0.0005
2041.00,0.0005
2040.00,0.0004
2039.00,0.0002
2038.00,0.0001
2037.00,-0.0000
2036.00,-0.0002
2035.00,-0.0006
2034.00,-0.0008
2033.00,-0.0008
2032.00,-0.0007
2031.00,-0.0007
2030.00,-0.0007
2029.00,-0.0007
2028.00,-0.0007
2027.00,-0.0007
2026.00,-0.0007
2025.00,-0.0006
2024.00,-0.0005
2023.00,-0.0004
2022.00,-0.0004
2021.00,-0.0004
2020.00,-0.0006
2019.00,-0.0009
2018.00,-0.0011
2017.00,-0.0010
2016.00,-0.0009
2015.00,-0.0008
2014.00,-0.0007
2013.00,-0.0007
2012.00,-0.0006
2011.00,-0.0006
2010.00,-0.0008
2009.00,-0.0011
2008.00,-0.0017
2007.00,-0.0022
2006.00,-0.0023
2005.00,-0.0021
2004.00,-0.0017
2003.00,-0.0014
2002.00,-0.0012
2001.00,-0.0010
2000.00,-0.0008
1999.00,-0.0007
1998.00,-0.0008
1997.00,-0.0011
1996.00,-0.0014
1995.00,-0.0015
1994.00,-0.0013
1993.00,-0.0010
1992.00,-0.0007
1991.00,-0.0006
1990.00,-0.0007
1989.00,-0.0007
1988.00,-0.0005
1987.00,-0.0003
1986.00,-0.0003
1985.00,-0.0003
1984.00,-0.0004
1983.00,-0.0003
1982.00,-0.0000
1981.00,0.0003
1980.00,0.0003
1979.00,-0.0001
1978.00,-0.0007
1977.00,-0.0012
1976.00,-0.0013
1975.00,-0.0013
1974.00,-0.0012
1973.00,-0.0011
1972.00,-0.0009
1971.00,-0.0009
1970.00,-0.0010
1969.00,-0.0012
1968.00,-0.0013
1967.00,-0.0014
1966.00,-0.0015
1965.00,-0.0015
1964.00,-0.0013
1963.00,-0.0012
1962.00,-0.0011
1961.00,-0.0011
1960.00,-0.0013
1959.00,-0.0016
1958.00,-0.0018
1957.00,-0.0017
1956.00,-0.0014
1955.00,-0.0013
1954.00,-0.0012
1953.00,-0.0013
1952.00,-0.0014
1951.00,-0.0015
1950.00,-0.0016
1949.00,-0.0016
1948.00,-0.0016
1947.00,-0.0014
1946.00,-0.0014
1945.00,-0.0013
1944.00,-0.0013
1943.00,-0.0014
1942.00,-0.0015
1941.00,-0.0016
1940.00,-0.0016
1939.00,-0.0015
1938.00,-0.0015
1937.00,-0.0015
1936.00,-0.0014
1935.00,-0.0013
1934.00,-0.0011
1933.00,-0.0010
1932.00,-0.0009
1931.00,-0.0009
1930.00,-0.0009
1929.00,-0.0008
1928.00,-0.0007
1927.00,-0.0007
1926.00,-0.0006
1925.00,-0.0006
1924.00,-0.0005
1923.00,-0.0006
1922.00,-0.0006
1921.00,-0.0005
1920.00,-0.0003
1919.00,-0.0002
1918.00,-0.0001
1917.00,-0.0002
1916.00,-0.0003
1915.00,-0.0004
1914.00,-0.0005
1913.00,-0.0004
1912.00,-0.0003
1911.00,-0.0001
1910.00,-0.0001
1909.00,-0.0001
1908.00,-0.0001
1907.00,-0.0000
1906.00,0.0000
1905.00,0.0001
1904.00,0.0000
1903.00,-0.0001
1902.00,-0.0001
1901.00,-0.0001
1900.00,-0.0001
1899.00,-0.0002
1898.00,-0.0002
1897.00,-0.0002
1896.00,-0.0001
1895.00,-0.0000
1894.00,0.0000
1893.00,-0.0000
1892.00,-0.0001
1891.00,-0.0002
1890.00,-0.0003
1889.00,-0.0003
1888.00,-0.0003
1887.00,-0.0003
1886.00,-0.0003
1885.00,-0.0002
1884.00,-0.0001
1883.00,-0.0000
1882.00,-0.0001
1881.00,-0.0001
1880.00,-0.0001
1879.00,-0.0002
1878.00,-0.0002
1877.00,-0.0002
1876.00,-0.0002
1875.00,-0.0001
1874.00,-0.0000
1873.00,0.0001
1872.00,0.0001
1871.00,0.0000
1870.00,-0.0001
1869.00,-0.0001
1868.00,-0.0001
1867.00,-0.0001
1866.00,-0.0000
1865.00,-0.0001
1864.00,-0.0001
1863.00,-0.0001
1862.00,-0.0001
1861.00,-0.0000
1860.00,-0.0000
1859.00,-0.0000
1858.00,-0.0001
1857.00,-0.0001
1856.00,-0.0001
1855.00,-0.0001
1854.00,-0.0001
1853.00,-0.0001
1852.00,-0.0001
1851.00,-0.0001
1850.00,-0.0002
1849.00,-0.0002
1848.00,-0.0001
1847.00,0.0000
1846.00,0.0001
1845.00,0.0002
1844.00,0.0002
1843.00,0.0003
1842.00,0.0003
1841.00,0.0003
1840.00,0.0003
1839.00,0.0002
1838.00,0.0002
1837.00,0.0002
1836.00,0.0003
1835.00,0.0003
1834.00,0.0004
1833.00,0.0003
1832.00,0.0003
1831.00,0.0002
1830.00,0.0002
1829.00,0.0002
1828.00,0.0002
1827.00,0.0002
1826.00,0.0002
1825.00,0.0003
1824.00,0.0003
1823.00,0.0003
1822.00,0.0003
1821.00,0.0003
1820.00,0.0003
1819.00,0.0003
1818.00,0.0002
1817.00,0.0001
1816.00,0.0001
1815.00,0.0001
1814.00,0.0001
1813.00,0.0002
1812.00,0.0002
1811.00,0.0003
1810.00,0.0004
1809.00,0.0004
1808.00,0.0004
1807.00,0.0003
1806.00,0.0003
1805.00,0.0003
1804.00,0.0004
1803.00,0.0005
1802.00,0.0005
1801.00,0.0004
1800.00,0.0004
1799.00,0.0004
1798.00,0.0005
1797.00,0.0006
1796.00,0.0006
1795.00,0.0006
1794.00,0.0006
1793.00,0.0006
1792.00,0.0007
1791.00,0.0007
1790.00,0.0007
1789.00,0.0007
1788.00,0.0007
1787.00,0.0008
1786.00,0.0008
1785.00,0.0008
1784.00,0.0008
1783.00,0.0008
1782.00,0.0008
1781.00,0.0008
1780.00,0.0007
1779.00,0.0007
1778.00,0.0007
1777.00,0.0007
1776.00,0.0008
1775.00,0.0009
1774.00,0.0009
1773.00,0.0009
1772.00,0.0009
1771.00,0.0010
1770.00,0.0010
1769.00,0.0010
1768.00,0.0010
1767.00,0.0010
1766.00,0.0010
1765.00,0.0011
1764.00,0.0011
1763.00,0.0012
1762.00,0.0013
1761.00,0.0013
1760.00,0.0014
1759.00,0.0014
1758.00,0.0015
1757.00,0.0015
1756.00,0.0016
1755.00,0.0017
1754.00,0.0018
1753.00,0.0019
1752.00,0.0020
1751.00,0.0021
1750.00,0.0022
1749.00,0.0023
1748.00,0.0024
1747.00,0.0025
1746.00,0.0026
1745.00,0.0027
1744.00,0.0028
1743.00,0.0029
1742.00,0.0030
1741.00,0.0031
1740.00,0.0031
1739.00,0.0031
1738.00,0.0032
1737.00,0.0032
1736.00,0.0032
1735.00,0.0031
1734.00,0.0029
1733.00,0.0029
1732.00,0.0028
1731.00,0.0028
1730.00,0.0028
1729.00,0.0028
1728.00,0.0028
1727.00,0.0028
1726.00,0.0029
1725.00,0.0029
1724.00,0.0029
1723.00,0.0029
1722.00,0.0029
1721.00,0.0029
1720.00,0.0028
1719.00,0.0028
1718.00,0.0027
1717.00,0.0027
1716.00,0.0027
1715.00,0.0026
1714.00,0.0026
1713.00,0.0026
1712.00,0.0025
1711.00,0.0025
1710.00,0.0025
1709.00,0.0025
1708.00,0.0025
1707.00,0.0025
1706.00,0.0025
1705.00,0.0026
1704.00,0.0026
1703.00,0.0026
1702.00,0.0027
1701.00,0.0028
1700.00,0.0029
1699.00,0.0030
1698.00,0.0030
1697.00,0.0031
1696.00,0.0032
1695.00,0.0032
1694.00,0.0032
1693.00,0.0033
1692.00,0.0033
1691.00,0.0034
1690.00,0.0034
1689.00,0.0035
1688.00,0.0035
1687.00,0.0036
1686.00,0.0036
1685.00,0.0036
1684.00,0.0037
1683.00,0.0038
1682.00,0.0039
1681.00,0.0040
1680.00,0.0042
1679.00,0.0043
1678.00,0.0043
1677.00,0.0044
1676.00,0.0045
1675.00,0.0045
1674.00,0.0045
1673.00,0.0045
1672.00,0.0046
1671.00,0.0046
1670.00,0.0047
1669.00,0.0047
1668.00,0.0048
1667.00,0.0048
1666.00,0.0049
1665.00,0.0049
1664.00,0.0050
1663.00,0.0051
1662.00,0.0052
1661.00,0.0053
1660.00,0.0053
1659.00,0.0054
1658.00,0.0054
1657.00,0.0055
1656.00,0.0055
1655.00,0.0055
1654.00,0.0055
1653.00,0.0056
1652.00,0.0056
1651.00,0.0057
1650.00,0.0057
1649.00,0.0058
1648.00,0.0058
1647.00,0.0059
1646.00,0.0060
1645.00,0.0060
1644.00,0.0060
1643.00,0.0060
1642.00,0.0060
1641.00,0.0060
1640.00,0.0061
1639.00,0.0061
1638.00,0.0062
1637.00,0.0062
1636.00,0.0062
1635.00,0.0062
1634.00,0.0061
1633.00,0.0060
1632.00,0.0060
1631.00,0.0059
1630.00,0.0059
1629.00,0.0058
1628.00,0.0057
1627.00,0.0056
1626.00,0.0056
1625.00,0.0055
1624.00,0.0055
1623.00,0.0055
1622.00,0.0055
1621.00,0.0055
1620.00,0.0054
1619.00,0.0054
1618.00,0.0053
1617.00,0.0052
1616.00,0.0052
1615.00,0.0053
1614.00,0.0053
1613.00,0.0053
1612.00,0.0053
1611.00,0.0053
1610.00,0.0052
1609.00,0.0052
1608.00,0.0053
1607.00,0.0053
1606.00,0.0053
1605.00,0.0053
1604.00,0.0053
1603.00,0.0053
1602.00,0.0053
1601.00,0.0053
1600.00,0.0053
1599.00,0.0053
1598.00,0.0052
1597.00,0.0052
1596.00,0.0052
1595.00,0.0052
1594.00,0.0051
1593.00,0.0051
1592.00,0.0051
1591.00,0.0051
1590.00,0.0051
1589.00,0.0051
1588.00,0.0052
1587.00,0.0052
1586.00,0.0052
1585.00,0.0051
1584.00,0.0052
1583.00,0.0052
1582.00,0.0052
1581.00,0.0053
1580.00,0.0053
1579.00,0.0054
1578.00,0.0054
1577.00,0.0054
1576.00,0.0055
1575.00,0.0055
1574.00,0.0055
1573.00,0.0055
1572.00,0.0056
1571.00,0.0056
1570.00,0.0056
1569.00,0.0057
1568.00,0.0057
1567.00,0.0058
1566.00,0.0058
1565.00,0.0059
1564.00,0.0059
1563.00,0.0059
1562.00,0.0059
1561.00,0.0059
1560.00,0.0059
1559.00,0.0060
1558.00,0.0059
1557.00,0.0059
1556.00,0.0060
1555.00,0.0060
1554.00,0.0061
1553.00,0.0061
1552.00,0.0061
1551.00,0.0061
1550.00,0.0062
1549.00,0.0063
1548.00,0.0063
1547.00,0.0064
1546.00,0.0064
1545.00,0.0064
1544.00,0.0064
1543.00,0.0064
1542.00,0.0064
1541.00,0.0063
1540.00,0.0062
1539.00,0.0061
1538.00,0.0060
1537.00,0.0060
1536.00,0.0060
1535.00,0.0059
1534.00,0.0058
1533.00,0.0057
1532.00,0.0056
1531.00,0.0055
1530.00,0.0055
1529.00,0.0054
1528.00,0.0054
1527.00,0.0053
1526.00,0.0053
1525.00,0.0053
1524.00,0.0054
1523.00,0.0054
1522.00,0.0054
1521.00,0.0054
1520.00,0.0054
1519.00,0.0055
1518.00,0.0055
1517.00,0.0056
1516.00,0.0056
1515.00,0.0056
1514.00,0.0056
1513.00,0.0057
1512.00,0.0058
1511.00,0.0058
1510.00,0.0059
1509.00,0.0059
1508.00,0.0060
1507.00,0.0061
1506.00,0.0061
1505.00,0.0062
1504.00,0.0063
1503.00,0.0065
1502.00,0.0066
1501.00,0.0068
1500.00,0.0071
1499.00,0.0073
1498.00,0.0075
1497.00,0.0077
1496.00,0.0081
1495.00,0.0083
1494.00,0.0085
1493.00,0.0088
1492.00,0.0091
1491.00,0.0094
1490.00,0.0097
1489.00,0.0102
1488.00,0.0106
1487.00,0.0111
1486.00,0.0115
1485.00,0.0121
1484.00,0.0127
1483.00,0.0134
1482.00,0.0141
1481.00,0.0152
1480.00,0.0164
1479.00,0.0176
1478.00,0.0192
1477.00,0.0213
1476.00,0.0239
1475.00,0.0269
1474.00,0.0310
1473.00,0.0368
1472.00,0.0436
1471.00,0.0502
1470.00,0.0567
1469.00,0.0636
1468.00,0.0711
1467.00,0.0792
1466.00,0.0884
1465.00,0.0981
1464.00,0.1066
1463.00,0.1126
1462.00,0.1163
1461.00,0.1188
1460.00,0.1203
1459.00,0.1211
1458.00,0.1214
1457.00,0.1213
1456.00,0.1205
1455.00,0.1191
1454.00,0.1175
1453.00,0.1153
1452.00,0.1121
1451.00,0.1079
1450.00,0.1023
1449.00,0.0950
1448.00,0.0861
1447.00,0.0768
1446.00,0.0685
1445.00,0.0615
1444.00,0.0555
1443.00,0.0505
1442.00,0.0468
1441.00,0.0443
1440.00,0.0428
1439.00,0.0423
1438.00,0.0426
1437.00,0.0430
1436.00,0.0422
1435.00,0.0399
1434.00,0.0363
1433.00,0.0320
1432.00,0.0274
1431.00,0.0234
1430.00,0.0202
1429.00,0.0178
1428.00,0.0162
1427.00,0.0151
1426.00,0.0144
1425.00,0.0138
1424.00,0.0133
1423.00,0.0129
1422.00,0.0127
1421.00,0.0125
1420.00,0.0121
1419.00,0.0119
1418.00,0.0118
1417.00,0.0115
1416.00,0.0113
1415.00,0.0112
1414.00,0.0112
1413.00,0.0110
1412.00,0.0109
1411.00,0.0107
1410.00,0.0107
1409.00,0.0106
1408.00,0.0105
1407.00,0.0106
1406.00,0.0107
1405.00,0.0107
1404.00,0.0107
1403.00,0.0108
1402.00,0.0109
1401.00,0.0110
1400.00,0.0110
1399.00,0.0111
1398.00,0.0113
1397.00,0.0114
1396.00,0.0117
1395.00,0.0120
1394.00,0.0125
1393.00,0.0130
1392.00,0.0135
1391.00,0.0143
1390.00,0.0154
1389.00,0.0169
1388.00,0.0189
1387.00,0.0220
1386.00,0.0263
1385.00,0.0319
1384.00,0.0397
1383.00,0.0508
1382.00,0.0660
1381.00,0.0859
1380.00,0.1108
1379.00,0.1395
1378.00,0.1677
1377.00,0.1888
1376.00,0.1964
1375.00,0.1870
1374.00,0.1633
1373.00,0.1344
1372.00,0.1078
1371.00,0.0860
1370.00,0.0687
1369.00,0.0557
1368.00,0.0468
1367.00,0.0413
1366.00,0.0383
1365.00,0.0371
1364.00,0.0373
1363.00,0.0387
1362.00,0.0408
1361.00,0.0432
1360.00,0.0450
1359.00,0.0456
1358.00,0.0446
1357.00,0.0420
1356.00,0.0383
1355.00,0.0342
1354.00,0.0302
1353.00,0.0268
1352.00,0.0240
1351.00,0.0218
1350.00,0.0199
1349.00,0.0184
1348.00,0.0172
1347.00,0.0161
1346.00,0.0152
1345.00,0.0144
1344.00,0.0138
1343.00,0.0132
1342.00,0.0128
1341.00,0.0124
1340.00,0.0121
1339.00,0.0119
1338.00,0.0118
1337.00,0.0117
1336.00,0.0118
1335.00,0.0121
1334.00,0.0124
1333.00,0.0128
1332.00,0.0133
1331.00,0.0137
1330.00,0.0138
1329.00,0.0137
1328.00,0.0133
1327.00,0.0129
1326.00,0.0123
1325.00,0.0117
1324.00,0.0111
1323.00,0.0106
1322.00,0.0102
1321.00,0.0099
1320.00,0.0097
1319.00,0.0095
1318.00,0.0094
1317.00,0.0093
1316.00,0.0092
1315.00,0.0091
1314.00,0.0090
1313.00,0.0090
1312.00,0.0091
1311.00,0.0093
1310.00,0.0096
1309.00,0.0101
1308.00,0.0108
1307.00,0.0117
1306.00,0.0125
1305.00,0.0131
1304.00,0.0133
1303.00,0.0132
1302.00,0.0129
1301.00,0.0126
1300.00,0.0126
1299.00,0.0127
1298.00,0.0128
1297.00,0.0129
1296.00,0.0129
1295.00,0.0126
1294.00,0.0123
1293.00,0.0118
1292.00,0.0113
1291.00,0.0108
1290.00,0.0104
1289.00,0.0100
1288.00,0.0097
1287.00,0.0095
1286.00,0.0093
1285.00,0.0091
1284.00,0.0089
1283.00,0.0088
1282.00,0.0086
1281.00,0.0085
1280.00,0.0083
1279.00,0.0083
1278.00,0.0082
1277.00,0.0082
1276.00,0.0081
1275.00,0.0081
1274.00,0.0081
1273.00,0.0081
1272.00,0.0082
1271.00,0.0082
1270.00,0.0084
1269.00,0.0085
1268.00,0.0087
1267.00,0.0090
1266.00,0.0092
1265.00,0.0095
1264.00,0.0098
1263.00,0.0100
1262.00,0.0103
1261.00,0.0106
1260.00,0.0109
1259.00,0.0113
1258.00,0.0117
1257.00,0.0121
1256.00,0.0123
1255.00,0.0121
1254.00,0.0117
1253.00,0.0110
1252.00,0.0103
1251.00,0.0098
1250.00,0.0094
1249.00,0.0090
1248.00,0.0088
1247.00,0.0086
1246.00,0.0085
1245.00,0.0083
1244.00,0.0082
1243.00,0.0081
1242.00,0.0080
1241.00,0.0078
1240.00,0.0077
1239.00,0.0076
1238.00,0.0076
1237.00,0.0075
1236.00,0.0075
1235.00,0.0075
1234.00,0.0076
1233.00,0.0076
1232.00,0.0077
1231.00,0.0078
1230.00,0.0078
1229.00,0.0079
1228.00,0.0080
1227.00,0.0082
1226.00,0.0085
1225.00,0.0088
1224.00,0.0091
1223.00,0.0095
1222.00,0.0099
1221.00,0.0102
1220.00,0.0104
1219.00,0.0104
1218.00,0.0103
1217.00,0.0100
1216.00,0.0097
1215.00,0.0094
1214.00,0.0090
1213.00,0.0088
1212.00,0.0085
1211.00,0.0084
1210.00,0.0082
1209.00,0.0080
1208.00,0.0078
1207.00,0.0077
1206.00,0.0077
1205.00,0.0077
1204.00,0.0077
1203.00,0.0077
1202.00,0.0077
1201.00,0.0077
1200.00,0.0077
1199.00,0.0076
1198.00,0.0076
1197.00,0.0076
1196.00,0.0076
1195.00,0.0076
1194.00,0.0077
1193.00,0.0076
1192.00,0.0076
1191.00,0.0076
1190.00,0.0076
1189.00,0.0076
1188.00,0.0077
1187.00,0.0077
1186.00,0.0078
1185.00,0.0079
1184.00,0.0080
1183.00,0.0081
1182.00,0.0083
1181.00,0.0085
1180.00,0.0089
1179.00,0.0093
1178.00,0.0098
1177.00,0.0104
1176.00,0.0112
1175.00,0.0124
1174.00,0.0139
1173.00,0.0159
1172.00,0.0181
1171.00,0.0207
1170.00,0.0231
1169.00,0.0251
1168.00,0.0264
1167.00,0.0267
1166.00,0.0262
1165.00,0.0252
1164.00,0.0240
1163.00,0.0229
1162.00,0.0219
1161.00,0.0211
1160.00,0.0205
1159.00,0.0201
1158.00,0.0198
1157.00,0.0196
1156.00,0.0195
1155.00,0.0194
1154.00,0.0194
1153.00,0.0192
1152.00,0.0188
1151.00,0.0181
1150.00,0.0173
1149.00,0.0164
1148.00,0.0156
1147.00,0.0148
1146.00,0.0140
1145.00,0.0133
1144.00,0.0126
1143.00,0.0119
1142.00,0.0112
1141.00,0.0106
1140.00,0.0100
1139.00,0.0096
1138.00,0.0093
1137.00,0.0090
1136.00,0.0088
1135.00,0.0087
1134.00,0.0085
1133.00,0.0084
1132.00,0.0083
1131.00,0.0082
1130.00,0.0082
1129.00,0.0082
1128.00,0.0081
1127.00,0.0081
1126.00,0.0082
1125.00,0.0083
1124.00,0.0084
1123.00,0.0085
1122.00,0.0085
1121.00,0.0087
1120.00,0.0088
1119.00,0.0089
1118.00,0.0091
1117.00,0.0092
1116.00,0.0093
1115.00,0.0094
1114.00,0.0095
1113.00,0.0096
1112.00,0.0098
1111.00,0.0101
1110.00,0.0105
1109.00,0.0109
1108.00,0.0115
1107.00,0.0121
1106.00,0.0128
1105.00,0.0135
1104.00,0.0140
1103.00,0.0142
1102.00,0.0140
1101.00,0.0136
1100.00,0.0131
1099.00,0.0125
1098.00,0.0119
1097.00,0.0114
1096.00,0.0109
1095.00,0.0105
1094.00,0.0103
1093.00,0.0100
1092.00,0.0097
1091.00,0.0095
1090.00,0.0093
1089.00,0.0092
1088.00,0.0091
1087.00,0.0091
1086.00,0.0091
1085.00,0.0091
1084.00,0.0090
1083.00,0.0090
1082.00,0.0089
1081.00,0.0087
1080.00,0.0086
1079.00,0.0084
1078.00,0.0084
1077.00,0.0083
1076.00,0.0083
1075.00,0.0083
1074.00,0.0083
1073.00,0.0081
1072.00,0.0081
1071.00,0.0080
1070.00,0.0081
1069.00,0.0082
1068.00,0.0083
1067.00,0.0084
1066.00,0.0084
1065.00,0.0085
1064.00,0.0085
1063.00,0.0086
1062.00,0.0087
1061.00,0.0088
1060.00,0.0089
1059.00,0.0091
1058.00,0.0092
1057.00,0.0094
1056.00,0.0095
1055.00,0.0096
1054.00,0.0097
1053.00,0.0100
1052.00,0.0103
1051.00,0.0107
1050.00,0.0112
1049.00,0.0116
1048.00,0.0121
1047.00,0.0125
1046.00,0.0128
1045.00,0.0131
1044.00,0.0132
1043.00,0.0131
1042.00,0.0129
1041.00,0.0126
1040.00,0.0124
1039.00,0.0122
1038.00,0.0122
1037.00,0.0122
1036.00,0.0121
1035.00,0.0121
1034.00,0.0121
1033.00,0.0120
1032.00,0.0120
1031.00,0.0120
1030.00,0.0121
1029.00,0.0121
1028.00,0.0123
1027.00,0.0124
1026.00,0.0125
1025.00,0.0126
1024.00,0.0128
1023.00,0.0130
1022.00,0.0133
1021.00,0.0135
1020.00,0.0136
1019.00,0.0137
1018.00,0.0137
1017.00,0.0137
1016.00,0.0137
1015.00,0.0137
1014.00,0.0136
1013.00,0.0136
1012.00,0.0135
1011.00,0.0134
1010.00,0.0133
1009.00,0.0133
1008.00,0.0135
1007.00,0.0138
1006.00,0.0144
1005.00,0.0152
1004.00,0.0164
1003.00,0.0180
1002.00,0.0202
1001.00,0.0230
1000.00,0.0258
999.00,0.0282
998.00,0.0292
997.00,0.0286
996.00,0.0264
995.00,0.0233
994.00,0.0201
993.00,0.0173
992.00,0.0151
991.00,0.0136
990.00,0.0126
989.00,0.0120
988.00,0.0116
987.00,0.0114
986.00,0.0113
985.00,0.0115
984.00,0.0118
983.00,0.0123
982.00,0.0132
981.00,0.0146
980.00,0.0165
979.00,0.0191
978.00,0.0222
977.00,0.0258
976.00,0.0294
975.00,0.0327
974.00,0.0348
973.00,0.0353
972.00,0.0337
971.00,0.0305
970.00,0.0264
969.00,0.0224
968.00,0.0190
967.00,0.0164
966.00,0.0144
965.00,0.0130
964.00,0.0118
963.00,0.0110
962.00,0.0103
961.00,0.0098
960.00,0.0094
959.00,0.0091
958.00,0.0088
957.00,0.0086
956.00,0.0084
955.00,0.0082
954.00,0.0081
953.00,0.0079
952.00,0.0078
951.00,0.0076
950.00,0.0074
949.00,0.0074
948.00,0.0074
947.00,0.0076
946.00,0.0078
945.00,0.0081
944.00,0.0085
943.00,0.0090
942.00,0.0094
941.00,0.0096
940.00,0.0096
939.00,0.0092
938.00,0.0087
937.00,0.0081
936.00,0.0076
935.00,0.0072
934.00,0.0069
933.00,0.0067
932.00,0.0066
931.00,0.0065
930.00,0.0064
929.00,0.0063
928.00,0.0062
927.00,0.0062
926.00,0.0062
925.00,0.0062
924.00,0.0062
923.00,0.0062
922.00,0.0063
921.00,0.0063
920.00,0.0064
919.00,0.0064
918.00,0.0064
917.00,0.0064
916.00,0.0064
915.00,0.0065
914.00,0.0066
913.00,0.0067
912.00,0.0069
911.00,0.0071
910.00,0.0073
909.00,0.0075
908.00,0.0078
907.00,0.0082
906.00,0.0088
905.00,0.0098
904.00,0.0112
903.00,0.0132
902.00,0.0153
901.00,0.0173
900.00,0.0186
899.00,0.0189
898.00,0.0181
897.00,0.0164
896.00,0.0144
895.00,0.0125
894.00,0.0109
893.00,0.0098
892.00,0.0089
891.00,0.0084
890.00,0.0080
889.00,0.0078
888.00,0.0076
887.00,0.0075
886.00,0.0074
885.00,0.0073
884.00,0.0073
883.00,0.0073
882.00,0.0074
881.00,0.0074
880.00,0.0073
879.00,0.0072
878.00,0.0072
877.00,0.0073
876.00,0.0073
875.00,0.0073
874.00,0.0073
873.00,0.0074
872.00,0.0075
871.00,0.0076
870.00,0.0077
869.00,0.0077
868.00,0.0077
867.00,0.0077
866.00,0.0077
865.00,0.0077
864.00,0.0079
863.00,0.0080
862.00,0.0082
861.00,0.0083
860.00,0.0085
859.00,0.0085
858.00,0.0086
857.00,0.0087
856.00,0.0089
855.00,0.0092
854.00,0.0093
853.00,0.0095
852.00,0.0095
851.00,0.0097
850.00,0.0100
849.00,0.0104
848.00,0.0110
847.00,0.0120
846.00,0.0134
845.00,0.0158
844.00,0.0192
843.00,0.0230
842.00,0.0260
841.00,0.0268
840.00,0.0251
839.00,0.0217
838.00,0.0180
837.00,0.0151
836.00,0.0132
835.00,0.0121
834.00,0.0114
833.00,0.0110
832.00,0.0107
831.00,0.0105
830.00,0.0103
829.00,0.0101
828.00,0.0099
827.00,0.0098
826.00,0.0098
825.00,0.0099
824.00,0.0100
823.00,0.0102
822.00,0.0103
821.00,0.0104
820.00,0.0106
819.00,0.0108
818.00,0.0112
817.00,0.0119
816.00,0.0129
815.00,0.0142
814.00,0.0158
813.00,0.0176
812.00,0.0196
811.00,0.0216
810.00,0.0232
809.00,0.0240
808.00,0.0237
807.00,0.0223
806.00,0.0203
805.00,0.0182
804.00,0.0163
803.00,0.0148
802.00,0.0137
801.00,0.0129
800.00,0.0123
799.00,0.0117
798.00,0.0112
797.00,0.0108
796.00,0.0105
795.00,0.0101
794.00,0.0096
793.00,0.0092
792.00,0.0089
791.00,0.0085
790.00,0.0083
789.00,0.0081
788.00,0.0080
787.00,0.0078
786.00,0.0076
785.00,0.0074
784.00,0.0071
783.00,0.0068
782.00,0.0066
781.00,0.0065
780.00,0.0065
779.00,0.0066
778.00,0.0065
777.00,0.0064
776.00,0.0064
775.00,0.0064
774.00,0.0064
773.00,0.0065
772.00,0.0066
771.00,0.0067
770.00,0.0067
769.00,0.0067
768.00,0.0066
767.00,0.0066
766.00,0.0067
765.00,0.0068
764.00,0.0068
763.00,0.0068
762.00,0.0067
761.00,0.0067
760.00,0.0066
759.00,0.0066
758.00,0.0066
757.00,0.0068
756.00,0.0070
755.00,0.0071
754.00,0.0072
753.00,0.0074
752.00,0.0077
751.00,0.0079
750.00,0.0080
749.00,0.0080
748.00,0.0080
747.00,0.0080
746.00,0.0082
745.00,0.0083
744.00,0.0085
743.00,0.0087
742.00,0.0091
741.00,0.0094
740.00,0.0098
739.00,0.0102
738.00,0.0106
737.00,0.0110
736.00,0.0115
735.00,0.0120
734.00,0.0124
733.00,0.0129
732.00,0.0134
731.00,0.0140
730.00,0.0146
729.00,0.0151
728.00,0.0154
727.00,0.0155
726.00,0.0156
725.00,0.0157
724.00,0.0161
723.00,0.0167
722.00,0.0174
721.00,0.0178
720.00,0.0178
719.00,0.0171
718.00,0.0159
717.00,0.0144
716.00,0.0132
715.00,0.0123
714.00,0.0117
713.00,0.0114
712.00,0.0110
711.00,0.0107
710.00,0.0104
709.00,0.0101
708.00,0.0100
707.00,0.0099
706.00,0.0100
705.00,0.0100
704.00,0.0100
703.00,0.0099
702.00,0.0097
701.00,0.0096
700.00,0.0096
699.00,0.0096
698.00,0.0097
697.00,0.0097
696.00,0.0096
695.00,0.0095
694.00,0.0093
693.00,0.0092
692.00,0.0092
691.00,0.0092
690.00,0.0091
689.00,0.0091
688.00,0.0090
687.00,0.0090
686.00,0.0090
685.00,0.0090
684.00,0.0090
683.00,0.0089
682.00,0.0089
681.00,0.0090
680.00,0.0091
679.00,0.0091
678.00,0.0092
677.00,0.0092
676.00,0.0094
675.00,0.0096
674.00,0.0098
673.00,0.0100
672.00,0.0102
671.00,0.0105
670.00,0.0105
669.00,0.0104
668.00,0.0100
667.00,0.0095
666.00,0.0092
665.00,0.0091
664.00,0.0091
663.00,0.0093
662.00,0.0094
661.00,0.0094
660.00,0.0093
659.00,0.0091
658.00,0.0090
657.00,0.0088
656.00,0.0087
655.00,0.0086
654.00,0.0086
653.00,0.0086
652.00,0.0087
651.00,0.0087
650.00,0.0086
649.00,0.0084
648.00,0.0082
647.00,0.0080
646.00,0.0080
645.00,0.0081
644.00,0.0081
643.00,0.0080
642.00,0.0079
641.00,0.0080
640.00,0.0082
639.00,0.0084
638.00,0.0087
637.00,0.0089
636.00,0.0090
635.00,0.0090
634.00,0.0088
633.00,0.0084
632.00,0.0080
631.00,0.0078
630.00,0.0078
629.00,0.0080
628.00,0.0082
627.00,0.0083
626.00,0.0083
625.00,0.0083
624.00,0.0082
623.00,0.0080
622.00,0.0077
621.00,0.0075
620.00,0.0074
619.00,0.0076
618.00,0.0079
617.00,0.0080
616.00,0.0080
615.00,0.0077
614.00,0.0076
613.00,0.0075
612.00,0.0075
611.00,0.0076
610.00,0.0076
609.00,0.0075
608.00,0.0074
607.00,0.0072
606.00,0.0072
605.00,0.0075
604.00,0.0078
603.00,0.0080
602.00,0.0081
601.00,0.0082
600.00,0.0082
599.00,0.0081
598.00,0.0079
597.00,0.0077
596.00,0.0076
595.00,0.0076
594.00,0.0078
593.00,0.0081
592.00,0.0084
591.00,0.0086
590.00,0.0087
589.00,0.0087
588.00,0.0086
587.00,0.0086
586.00,0.0084
585.00,0.0082
584.00,0.0080
583.00,0.0078
582.00,0.0076
581.00,0.0075
580.00,0.0076
579.00,0.0079
578.00,0.0081
577.00,0.0080
576.00,0.0076
575.00,0.0073
574.00,0.0072
573.00,0.0073
572.00,0.0075
571.00,0.0078
570.00,0.0079
569.00,0.0079
568.00,0.0076
567.00,0.0074
566.00,0.0072
565.00,0.0071
564.00,0.0071
563.00,0.0069
562.00,0.0067
561.00,0.0066
560.00,0.0066
559.00,0.0068
558.00,0.0070
557.00,0.0073
556.00,0.0078
555.00,0.0085
554.00,0.0088
553.00,0.0087
552.00,0.0083
551.00,0.0079
550.00,0.0080
549.00,0.0082
548.00,0.0084
547.00,0.0086
546.00,0.0089
545.00,0.0092
544.00,0.0094
543.00,0.0095
542.00,0.0097
541.00,0.0099
540.00,0.0100
539.00,0.0101
538.00,0.0101
537.00,0.0102
536.00,0.0105
535.00,0.0109
534.00,0.0114
533.00,0.0116
532.00,0.0116
531.00,0.0116
530.00,0.0117
529.00,0.0121
528.00,0.0126
527.00,0.0127
526.00,0.0123
525.00,0.0115
524.00,0.0106
523.00,0.0097
522.00,0.0089
521.00,0.0082
520.00,0.0078
519.00,0.0077
518.00,0.0078
517.00,0.0078
516.00,0.0079
515.00,0.0081
514.00,0.0083
513.00,0.0084
512.00,0.0081
511.00,0.0078
510.00,0.0077
509.00,0.0078
508.00,0.0081
507.00,0.0084
506.00,0.0085
505.00,0.0083
504.00,0.0081
503.00,0.0082
502.00,0.0085
501.00,0.0087
500.00,0.0088
499.00,0.0090
498.00,0.0092
497.00,0.0091
496.00,0.0089
495.00,0.0088
494.00,0.0089
493.00,0.0089
492.00,0.0086
491.00,0.0083
490.00,0.0084
489.00,0.0088
488.00,0.0093
487.00,0.0097
486.00,0.0103
485.00,0.0106
484.00,0.0103
483.00,0.0097
482.00,0.0093
481.00,0.0097
480.00,0.0108
479.00,0.0120
478.00,0.0124
477.00,0.0117
476.00,0.0104
475.00,0.0097
474.00,0.0101
473.00,0.0109
472.00,0.0110
471.00,0.0105
470.00,0.0104
469.00,0.0114
468.00,0.0132
467.00,0.0151
466.00,0.0170
465.00,0.0187
464.00,0.0198
463.00,0.0200
462.00,0.0200
461.00,0.0204
460.00,0.0210
459.00,0.0206
458.00,0.0190
457.00,0.0171
456.00,0.0162
455.00,0.0162
454.00,0.0169
453.00,0.0177
452.00,0.0179
451.00,0.0171
450.00,0.0154
