Created as New Dataset,Sample 173 By Administrator Date Wednesday, September 03 2025
cm-1,A
4000.00,0.0011
3999.00,0.0011
3998.00,0.0011
3997.00,0.0011
3996.00,0.0011
3995.00,0.0011
3994.00,0.0011
3993.00,0.0011
3992.00,0.0010
3991.00,0.0010
3990.00,0.0010
3989.00,0.0010
3988.00,0.0010
3987.00,0.0010
3986.00,0.0010
3985.00,0.0010
3984.00,0.0010
3983.00,0.0010
3982.00,0.0010
3981.00,0.0010
3980.00,0.0010
3979.00,0.0010
3978.00,0.0010
3977.00,0.0009
3976.00,0.0009
3975.00,0.0009
3974.00,0.0009
3973.00,0.0009
3972.00,0.0009
3971.00,0.0009
3970.00,0.0009
3969.00,0.0009
3968.00,0.0009
3967.00,0.0008
3966.00,0.0008
3965.00,0.0008
3964.00,0.0008
3963.00,0.0008
3962.00,0.0008
3961.00,0.0009
3960.00,0.0009
3959.00,0.0009
3958.00,0.0009
3957.00,0.0009
3956.00,0.0008
3955.00,0.0008
3954.00,0.0008
3953.00,0.0008
3952.00,0.0008
3951.00,0.0008
3950.00,0.0009
3949.00,0.0009
3948.00,0.0009
3947.00,0.0009
3946.00,0.0009
3945.00,0.0009
3944.00,0.0009
3943.00,0.0009
3942.00,0.0009
3941.00,0.0008
3940.00,0.0008
3939.00,0.0009
3938.00,0.0009
3937.00,0.0009
3936.00,0.0009
3935.00,0.0009
3934.00,0.0009
3933.00,0.0009
3932.00,0.0009
3931.00,0.0010
3930.00,0.0010
3929.00,0.0010
3928.00,0.0009
3927.00,0.0009
3926.00,0.0009
3925.00,0.0009
3924.00,0.0010
3923.00,0.0010
3922.00,0.0010
3921.00,0.0010
3920.00,0.0010
3919.00,0.0010
3918.00,0.0010
3917.00,0.0010
3916.00,0.0009
3915.00,0.0009
3914.00,0.0009
3913.00,0.0009
3912.00,0.0009
3911.00,0.0009
3910.00,0.0009
3909.00,0.0008
3908.00,0.0008
3907.00,0.0008
3906.00,0.0009
3905.00,0.0009
3904.00,0.0009
3903.00,0.0009
3902.00,0.0009
3901.00,0.0008
3900.00,0.0008
3899.00,0.0008
3898.00,0.0008
3897.00,0.0008
3896.00,0.0009
3895.00,0.0009
3894.00,0.0010
3893.00,0.0010
3892.00,0.0009
3891.00,0.0009
3890.00,0.0009
3889.00,0.0008
3888.00,0.0008
3887.00,0.0008
3886.00,0.0008
3885.00,0.0009
3884.00,0.0009
3883.00,0.0009
3882.00,0.0009
3881.00,0.0008
3880.00,0.0008
3879.00,0.0008
3878.00,0.0008
3877.00,0.0009
3876.00,0.0009
3875.00,0.0009
3874.00,0.0009
3873.00,0.0009
3872.00,0.0009
3871.00,0.0009
3870.00,0.0009
3869.00,0.0009
3868.00,0.0009
3867.00,0.0009
3866.00,0.0009
3865.00,0.0009
3864.00,0.0009
3863.00,0.0009
3862.00,0.0009
3861.00,0.0009
3860.00,0.0008
3859.00,0.0008
3858.00,0.0008
3857.00,0.0008
3856.00,0.0008
3855.00,0.0008
3854.00,0.0008
3853.00,0.0008
3852.00,0.0008
3851.00,0.0008
3850.00,0.0007
3849.00,0.0007
3848.00,0.0007
3847.00,0.0008
3846.00,0.0008
3845.00,0.0008
3844.00,0.0008
3843.00,0.0008
3842.00,0.0009
3841.00,0.0009
3840.00,0.0009
3839.00,0.0009
3838.00,0.0009
3837.00,0.0009
3836.00,0.0009
3835.00,0.0009
3834.00,0.0009
3833.00,0.0009
3832.00,0.0009
3831.00,0.0010
3830.00,0.0009
3829.00,0.0009
3828.00,0.0009
3827.00,0.0008
3826.00,0.0008
3825.00,0.0009
3824.00,0.0009
3823.00,0.0009
3822.00,0.0009
3821.00,0.0010
3820.00,0.0010
3819.00,0.0009
3818.00,0.0009
3817.00,0.0009
3816.00,0.0008
3815.00,0.0008
3814.00,0.0008
3813.00,0.0008
3812.00,0.0008
3811.00,0.0008
3810.00,0.0008
3809.00,0.0008
3808.00,0.0009
3807.00,0.0009
3806.00,0.0009
3805.00,0.0009
3804.00,0.0009
3803.00,0.0008
3802.00,0.0008
3801.00,0.0008
3800.00,0.0008
3799.00,0.0008
3798.00,0.0008
3797.00,0.0008
3796.00,0.0008
3795.00,0.0008
3794.00,0.0008
3793.00,0.0008
3792.00,0.0008
3791.00,0.0008
3790.00,0.0008
3789.00,0.0008
3788.00,0.0008
3787.00,0.0008
3786.00,0.0008
3785.00,0.0008
3784.00,0.0008
3783.00,0.0008
3782.00,0.0008
3781.00,0.0008
3780.00,0.0008
3779.00,0.0009
3778.00,0.0009
3777.00,0.0009
3776.00,0.0009
3775.00,0.0009
3774.00,0.0009
3773.00,0.0009
3772.00,0.0009
3771.00,0.0009
3770.00,0.0009
3769.00,0.0009
3768.00,0.0009
3767.00,0.0009
3766.00,0.0009
3765.00,0.0009
3764.00,0.0009
3763.00,0.0009
3762.00,0.0009
3761.00,0.0009
3760.00,0.0010
3759.00,0.0010
3758.00,0.0010
3757.00,0.0010
3756.00,0.0010
3755.00,0.0010
3754.00,0.0010
3753.00,0.0010
3752.00,0.0009
3751.00,0.0009
3750.00,0.0008
3749.00,0.0008
3748.00,0.0008
3747.00,0.0008
3746.00,0.0008
3745.00,0.0008
3744.00,0.0009
3743.00,0.0009
3742.00,0.0009
3741.00,0.0010
3740.00,0.0010
3739.00,0.0010
3738.00,0.0010
3737.00,0.0009
3736.00,0.0008
3735.00,0.0008
3734.00,0.0008
3733.00,0.0008
3732.00,0.0008
3731.00,0.0008
3730.00,0.0009
3729.00,0.0009
3728.00,0.0009
3727.00,0.0008
3726.00,0.0008
3725.00,0.0008
3724.00,0.0008
3723.00,0.0008
3722.00,0.0008
3721.00,0.0008
3720.00,0.0008
3719.00,0.0008
3718.00,0.0008
3717.00,0.0008
3716.00,0.0008
3715.00,0.0008
3714.00,0.0007
3713.00,0.0007
3712.00,0.0006
3711.00,0.0006
3710.00,0.0006
3709.00,0.0006
3708.00,0.0007
3707.00,0.0007
3706.00,0.0007
3705.00,0.0007
3704.00,0.0007
3703.00,0.0007
3702.00,0.0007
3701.00,0.0006
3700.00,0.0007
3699.00,0.0007
3698.00,0.0007
3697.00,0.0007
3696.00,0.0007
3695.00,0.0007
3694.00,0.0006
3693.00,0.0006
3692.00,0.0006
3691.00,0.0006
3690.00,0.0006
3689.00,0.0006
3688.00,0.0006
3687.00,0.0006
3686.00,0.0006
3685.00,0.0006
3684.00,0.0006
3683.00,0.0006
3682.00,0.0006
3681.00,0.0007
3680.00,0.0007
3679.00,0.0007
3678.00,0.0008
3677.00,0.0008
3676.00,0.0009
3675.00,0.0009
3674.00,0.0009
3673.00,0.0008
3672.00,0.0007
3671.00,0.0006
3670.00,0.0006
3669.00,0.0005
3668.00,0.0005
3667.00,0.0005
3666.00,0.0004
3665.00,0.0004
3664.00,0.0005
3663.00,0.0005
3662.00,0.0005
3661.00,0.0005
3660.00,0.0005
3659.00,0.0006
3658.00,0.0006
3657.00,0.0006
3656.00,0.0006
3655.00,0.0006
3654.00,0.0005
3653.00,0.0005
3652.00,0.0005
3651.00,0.0006
3650.00,0.0006
3649.00,0.0006
3648.00,0.0006
3647.00,0.0006
3646.00,0.0006
3645.00,0.0007
3644.00,0.0007
3643.00,0.0007
3642.00,0.0006
3641.00,0.0006
3640.00,0.0006
3639.00,0.0006
3638.00,0.0007
3637.00,0.0007
3636.00,0.0007
3635.00,0.0007
3634.00,0.0007
3633.00,0.0008
3632.00,0.0008
3631.00,0.0008
3630.00,0.0008
3629.00,0.0008
3628.00,0.0008
3627.00,0.0007
3626.00,0.0007
3625.00,0.0007
3624.00,0.0007
3623.00,0.0008
3622.00,0.0008
3621.00,0.0008
3620.00,0.0008
3619.00,0.0008
3618.00,0.0009
3617.00,0.0009
3616.00,0.0009
3615.00,0.0009
3614.00,0.0008
3613.00,0.0008
3612.00,0.0008
3611.00,0.0008
3610.00,0.0008
3609.00,0.0008
3608.00,0.0009
3607.00,0.0009
3606.00,0.0009
3605.00,0.0009
3604.00,0.0009
3603.00,0.0009
3602.00,0.0008
3601.00,0.0008
3600.00,0.0008
3599.00,0.0008
3598.00,0.0008
3597.00,0.0009
3596.00,0.0010
3595.00,0.0010
3594.00,0.0010
3593.00,0.0010
3592.00,0.0010
3591.00,0.0010
3590.00,0.0009
3589.00,0.0009
3588.00,0.0010
3587.00,0.0010
3586.00,0.0010
3585.00,0.0010
3584.00,0.0010
3583.00,0.0010
3582.00,0.0010
3581.00,0.0010
3580.00,0.0011
3579.00,0.0011
3578.00,0.0011
3577.00,0.0011
3576.00,0.0011
3575.00,0.0011
3574.00,0.0011
3573.00,0.0011
3572.00,0.0011
3571.00,0.0012
3570.00,0.0012
3569.00,0.0012
3568.00,0.0012
3567.00,0.0012
3566.00,0.0012
3565.00,0.0012
3564.00,0.0012
3563.00,0.0012
3562.00,0.0012
3561.00,0.0012
3560.00,0.0012
3559.00,0.0013
3558.00,0.0013
3557.00,0.0013
3556.00,0.0013
3555.00,0.0014
3554.00,0.0014
3553.00,0.0014
3552.00,0.0014
3551.00,0.0014
3550.00,0.0014
3549.00,0.0014
3548.00,0.0014
3547.00,0.0015
3546.00,0.0015
3545.00,0.0015
3544.00,0.0015
3543.00,0.0015
3542.00,0.0015
3541.00,0.0015
3540.00,0.0016
3539.00,0.0016
3538.00,0.0016
3537.00,0.0016
3536.00,0.0016
3535.00,0.0016
3534.00,0.0016
3533.00,0.0017
3532.00,0.0017
3531.00,0.0017
3530.00,0.0017
3529.00,0.0017
3528.00,0.0017
3527.00,0.0017
3526.00,0.0017
3525.00,0.0018
3524.00,0.0018
3523.00,0.0018
3522.00,0.0018
3521.00,0.0017
3520.00,0.0017
3519.00,0.0017
3518.00,0.0017
3517.00,0.0018
3516.00,0.0019
3515.00,0.0019
3514.00,0.0020
3513.00,0.0020
3512.00,0.0020
3511.00,0.0021
3510.00,0.0021
3509.00,0.0021
3508.00,0.0022
3507.00,0.0022
3506.00,0.0022
3505.00,0.0022
3504.00,0.0021
3503.00,0.0021
3502.00,0.0021
3501.00,0.0021
3500.00,0.0021
3499.00,0.0021
3498.00,0.0021
3497.00,0.0022
3496.00,0.0022
3495.00,0.0022
3494.00,0.0022
3493.00,0.0022
3492.00,0.0022
3491.00,0.0023
3490.00,0.0023
3489.00,0.0024
3488.00,0.0024
3487.00,0.0024
3486.00,0.0024
3485.00,0.0024
3484.00,0.0024
3483.00,0.0025
3482.00,0.0025
3481.00,0.0026
3480.00,0.0026
3479.00,0.0026
3478.00,0.0026
3477.00,0.0026
3476.00,0.0026
3475.00,0.0026
3474.00,0.0026
3473.00,0.0026
3472.00,0.0026
3471.00,0.0026
3470.00,0.0026
3469.00,0.0027
3468.00,0.0027
3467.00,0.0027
3466.00,0.0027
3465.00,0.0027
3464.00,0.0027
3463.00,0.0027
3462.00,0.0027
3461.00,0.0027
3460.00,0.0027
3459.00,0.0027
3458.00,0.0028
3457.00,0.0028
3456.00,0.0028
3455.00,0.0029
3454.00,0.0029
3453.00,0.0029
3452.00,0.0029
3451.00,0.0029
3450.00,0.0029
3449.00,0.0029
3448.00,0.0029
3447.00,0.0030
3446.00,0.0030
3445.00,0.0030
3444.00,0.0030
3443.00,0.0030
3442.00,0.0031
3441.00,0.0031
3440.00,0.0031
3439.00,0.0031
3438.00,0.0031
3437.00,0.0031
3436.00,0.0032
3435.00,0.0032
3434.00,0.0032
3433.00,0.0032
3432.00,0.0033
3431.00,0.0033
3430.00,0.0034
3429.00,0.0034
3428.00,0.0034
3427.00,0.0034
3426.00,0.0033
3425.00,0.0033
3424.00,0.0033
3423.00,0.0033
3422.00,0.0034
3421.00,0.0034
3420.00,0.0034
3419.00,0.0034
3418.00,0.0035
3417.00,0.0035
3416.00,0.0035
3415.00,0.0035
3414.00,0.0035
3413.00,0.0035
3412.00,0.0035
3411.00,0.0035
3410.00,0.0036
3409.00,0.0036
3408.00,0.0036
3407.00,0.0036
3406.00,0.0035
3405.00,0.0035
3404.00,0.0036
3403.00,0.0036
3402.00,0.0037
3401.00,0.0037
3400.00,0.0037
3399.00,0.0037
3398.00,0.0037
3397.00,0.0037
3396.00,0.0037
3395.00,0.0038
3394.00,0.0038
3393.00,0.0038
3392.00,0.0038
3391.00,0.0039
3390.00,0.0039
3389.00,0.0039
3388.00,0.0039
3387.00,0.0039
3386.00,0.0038
3385.00,0.0038
3384.00,0.0038
3383.00,0.0038
3382.00,0.0038
3381.00,0.0038
3380.00,0.0038
3379.00,0.0038
3378.00,0.0038
3377.00,0.0038
3376.00,0.0038
3375.00,0.0038
3374.00,0.0039
3373.00,0.0039
3372.00,0.0039
3371.00,0.0039
3370.00,0.0039
3369.00,0.0039
3368.00,0.0039
3367.00,0.0039
3366.00,0.0040
3365.00,0.0040
3364.00,0.0040
3363.00,0.0040
3362.00,0.0040
3361.00,0.0040
3360.00,0.0039
3359.00,0.0039
3358.00,0.0039
3357.00,0.0040
3356.00,0.0040
3355.00,0.0040
3354.00,0.0040
3353.00,0.0040
3352.00,0.0041
3351.00,0.0041
3350.00,0.0041
3349.00,0.0041
3348.00,0.0041
3347.00,0.0042
3346.00,0.0042
3345.00,0.0041
3344.00,0.0041
3343.00,0.0040
3342.00,0.0040
3341.00,0.0040
3340.00,0.0040
3339.00,0.0040
3338.00,0.0040
3337.00,0.0039
3336.00,0.0039
3335.00,0.0039
3334.00,0.0039
3333.00,0.0039
3332.00,0.0039
3331.00,0.0039
3330.00,0.0039
3329.00,0.0039
3328.00,0.0039
3327.00,0.0039
3326.00,0.0040
3325.00,0.0040
3324.00,0.0039
3323.00,0.0039
3322.00,0.0039
3321.00,0.0039
3320.00,0.0039
3319.00,0.0039
3318.00,0.0039
3317.00,0.0039
3316.00,0.0039
3315.00,0.0040
3314.00,0.0040
3313.00,0.0041
3312.00,0.0041
3311.00,0.0041
3310.00,0.0041
3309.00,0.0041
3308.00,0.0041
3307.00,0.0040
3306.00,0.0040
3305.00,0.0040
3304.00,0.0040
3303.00,0.0040
3302.00,0.0040
3301.00,0.0040
3300.00,0.0040
3299.00,0.0039
3298.00,0.0039
3297.00,0.0039
3296.00,0.0039
3295.00,0.0039
3294.00,0.0039
3293.00,0.0040
3292.00,0.0040
3291.00,0.0040
3290.00,0.0039
3289.00,0.0039
3288.00,0.0039
3287.00,0.0039
3286.00,0.0039
3285.00,0.0039
3284.00,0.0038
3283.00,0.0038
3282.00,0.0038
3281.00,0.0038
3280.00,0.0038
3279.00,0.0037
3278.00,0.0037
3277.00,0.0037
3276.00,0.0037
3275.00,0.0037
3274.00,0.0037
3273.00,0.0037
3272.00,0.0037
3271.00,0.0037
3270.00,0.0037
3269.00,0.0037
3268.00,0.0036
3267.00,0.0036
3266.00,0.0036
3265.00,0.0035
3264.00,0.0035
3263.00,0.0035
3262.00,0.0035
3261.00,0.0035
3260.00,0.0035
3259.00,0.0035
3258.00,0.0035
3257.00,0.0035
3256.00,0.0034
3255.00,0.0034
3254.00,0.0034
3253.00,0.0034
3252.00,0.0034
3251.00,0.0034
3250.00,0.0034
3249.00,0.0034
3248.00,0.0033
3247.00,0.0033
3246.00,0.0033
3245.00,0.0033
3244.00,0.0033
3243.00,0.0033
3242.00,0.0033
3241.00,0.0033
3240.00,0.0033
3239.00,0.0033
3238.00,0.0033
3237.00,0.0034
3236.00,0.0034
3235.00,0.0034
3234.00,0.0034
3233.00,0.0034
3232.00,0.0034
3231.00,0.0034
3230.00,0.0034
3229.00,0.0034
3228.00,0.0034
3227.00,0.0034
3226.00,0.0035
3225.00,0.0035
3224.00,0.0035
3223.00,0.0035
3222.00,0.0035
3221.00,0.0036
3220.00,0.0036
3219.00,0.0037
3218.00,0.0037
3217.00,0.0038
3216.00,0.0037
3215.00,0.0037
3214.00,0.0037
3213.00,0.0037
3212.00,0.0037
3211.00,0.0037
3210.00,0.0038
3209.00,0.0038
3208.00,0.0038
3207.00,0.0039
3206.00,0.0039
3205.00,0.0039
3204.00,0.0038
3203.00,0.0038
3202.00,0.0038
3201.00,0.0038
3200.00,0.0039
3199.00,0.0039
3198.00,0.0039
3197.00,0.0038
3196.00,0.0038
3195.00,0.0038
3194.00,0.0038
3193.00,0.0038
3192.00,0.0038
3191.00,0.0038
3190.00,0.0038
3189.00,0.0038
3188.00,0.0038
3187.00,0.0038
3186.00,0.0038
3185.00,0.0038
3184.00,0.0038
3183.00,0.0038
3182.00,0.0037
3181.00,0.0037
3180.00,0.0037
3179.00,0.0036
3178.00,0.0036
3177.00,0.0036
3176.00,0.0035
3175.00,0.0035
3174.00,0.0035
3173.00,0.0035
3172.00,0.0035
3171.00,0.0035
3170.00,0.0035
3169.00,0.0035
3168.00,0.0035
3167.00,0.0034
3166.00,0.0034
3165.00,0.0034
3164.00,0.0034
3163.00,0.0034
3162.00,0.0034
3161.00,0.0034
3160.00,0.0033
3159.00,0.0033
3158.00,0.0034
3157.00,0.0034
3156.00,0.0034
3155.00,0.0034
3154.00,0.0034
3153.00,0.0034
3152.00,0.0035
3151.00,0.0035
3150.00,0.0035
3149.00,0.0035
3148.00,0.0034
3147.00,0.0034
3146.00,0.0034
3145.00,0.0034
3144.00,0.0033
3143.00,0.0033
3142.00,0.0033
3141.00,0.0033
3140.00,0.0033
3139.00,0.0033
3138.00,0.0034
3137.00,0.0034
3136.00,0.0034
3135.00,0.0033
3134.00,0.0033
3133.00,0.0032
3132.00,0.0031
3131.00,0.0031
3130.00,0.0031
3129.00,0.0030
3128.00,0.0030
3127.00,0.0030
3126.00,0.0030
3125.00,0.0030
3124.00,0.0030
3123.00,0.0030
3122.00,0.0029
3121.00,0.0029
3120.00,0.0030
3119.00,0.0030
3118.00,0.0030
3117.00,0.0029
3116.00,0.0029
3115.00,0.0029
3114.00,0.0029
3113.00,0.0029
3112.00,0.0029
3111.00,0.0029
3110.00,0.0029
3109.00,0.0029
3108.00,0.0029
3107.00,0.0029
3106.00,0.0029
3105.00,0.0028
3104.00,0.0028
3103.00,0.0027
3102.00,0.0027
3101.00,0.0027
3100.00,0.0028
3099.00,0.0028
3098.00,0.0028
3097.00,0.0028
3096.00,0.0028
3095.00,0.0028
3094.00,0.0027
3093.00,0.0027
3092.00,0.0027
3091.00,0.0027
3090.00,0.0028
3089.00,0.0028
3088.00,0.0028
3087.00,0.0028
3086.00,0.0027
3085.00,0.0027
3084.00,0.0027
3083.00,0.0027
3082.00,0.0027
3081.00,0.0027
3080.00,0.0027
3079.00,0.0027
3078.00,0.0027
3077.00,0.0027
3076.00,0.0028
3075.00,0.0028
3074.00,0.0028
3073.00,0.0028
3072.00,0.0028
3071.00,0.0028
3070.00,0.0029
3069.00,0.0029
3068.00,0.0029
3067.00,0.0029
3066.00,0.0030
3065.00,0.0030
3064.00,0.0030
3063.00,0.0030
3062.00,0.0030
3061.00,0.0030
3060.00,0.0030
3059.00,0.0030
3058.00,0.0030
3057.00,0.0030
3056.00,0.0030
3055.00,0.0030
3054.00,0.0031
3053.00,0.0031
3052.00,0.0031
3051.00,0.0031
3050.00,0.0032
3049.00,0.0032
3048.00,0.0032
3047.00,0.0032
3046.00,0.0032
3045.00,0.0032
3044.00,0.0032
3043.00,0.0032
3042.00,0.0032
3041.00,0.0032
3040.00,0.0032
3039.00,0.0033
3038.00,0.0033
3037.00,0.0034
3036.00,0.0035
3035.00,0.0035
3034.00,0.0036
3033.00,0.0036
3032.00,0.0037
3031.00,0.0037
3030.00,0.0038
3029.00,0.0038
3028.00,0.0038
3027.00,0.0039
3026.00,0.0039
3025.00,0.0040
3024.00,0.0040
3023.00,0.0041
3022.00,0.0042
3021.00,0.0042
3020.00,0.0043
3019.00,0.0044
3018.00,0.0045
3017.00,0.0046
3016.00,0.0047
3015.00,0.0048
3014.00,0.0049
3013.00,0.0050
3012.00,0.0051
3011.00,0.0052
3010.00,0.0054
3009.00,0.0055
3008.00,0.0057
3007.00,0.0058
3006.00,0.0059
3005.00,0.0061
3004.00,0.0062
3003.00,0.0063
3002.00,0.0065
3001.00,0.0067
3000.00,0.0069
2999.00,0.0072
2998.00,0.0075
2997.00,0.0078
2996.00,0.0082
2995.00,0.0085
2994.00,0.0089
2993.00,0.0093
2992.00,0.0098
2991.00,0.0104
2990.00,0.0111
2989.00,0.0118
2988.00,0.0126
2987.00,0.0134
2986.00,0.0143
2985.00,0.0153
2984.00,0.0164
2983.00,0.0177
2982.00,0.0192
2981.00,0.0209
2980.00,0.0229
2979.00,0.0252
2978.00,0.0277
2977.00,0.0306
2976.00,0.0339
2975.00,0.0377
2974.00,0.0420
2973.00,0.0470
2972.00,0.0526
2971.00,0.0589
2970.00,0.0660
2969.00,0.0738
2968.00,0.0822
2967.00,0.0912
2966.00,0.1007
2965.00,0.1104
2964.00,0.1199
2963.00,0.1287
2962.00,0.1364
2961.00,0.1427
2960.00,0.1475
2959.00,0.1514
2958.00,0.1548
2957.00,0.1584
2956.00,0.1627
2955.00,0.1681
2954.00,0.1745
2953.00,0.1812
2952.00,0.1871
2951.00,0.1911
2950.00,0.1920
2949.00,0.1890
2948.00,0.1821
2947.00,0.1719
2946.00,0.1597
2945.00,0.1468
2944.00,0.1347
2943.00,0.1243
2942.00,0.1162
2941.00,0.1106
2940.00,0.1075
2939.00,0.1066
2938.00,0.1078
2937.00,0.1107
2936.00,0.1152
2935.00,0.1212
2934.00,0.1286
2933.00,0.1372
2932.00,0.1470
2931.00,0.1577
2930.00,0.1690
2929.00,0.1806
2928.00,0.1922
2927.00,0.2036
2926.00,0.2145
2925.00,0.2250
2924.00,0.2352
2923.00,0.2452
2922.00,0.2550
2921.00,0.2642
2920.00,0.2722
2919.00,0.2780
2918.00,0.2806
2917.00,0.2794
2916.00,0.2743
2915.00,0.2660
2914.00,0.2558
2913.00,0.2449
2912.00,0.2342
2911.00,0.2245
2910.00,0.2159
2909.00,0.2082
2908.00,0.2012
2907.00,0.1946
2906.00,0.1881
2905.00,0.1814
2904.00,0.1746
2903.00,0.1677
2902.00,0.1608
2901.00,0.1541
2900.00,0.1476
2899.00,0.1414
2898.00,0.1355
2897.00,0.1302
2896.00,0.1255
2895.00,0.1213
2894.00,0.1177
2893.00,0.1147
2892.00,0.1123
2891.00,0.1105
2890.00,0.1092
2889.00,0.1083
2888.00,0.1079
2887.00,0.1078
2886.00,0.1080
2885.00,0.1086
2884.00,0.1095
2883.00,0.1109
2882.00,0.1128
2881.00,0.1148
2880.00,0.1169
2879.00,0.1186
2878.00,0.1196
2877.00,0.1199
2876.00,0.1194
2875.00,0.1187
2874.00,0.1181
2873.00,0.1181
2872.00,0.1189
2871.00,0.1204
2870.00,0.1223
2869.00,0.1241
2868.00,0.1252
2867.00,0.1247
2866.00,0.1222
2865.00,0.1174
2864.00,0.1109
2863.00,0.1033
2862.00,0.0959
2861.00,0.0894
2860.00,0.0843
2859.00,0.0808
2858.00,0.0789
2857.00,0.0782
2856.00,0.0784
2855.00,0.0795
2854.00,0.0810
2853.00,0.0829
2852.00,0.0848
2851.00,0.0866
2850.00,0.0881
2849.00,0.0892
2848.00,0.0904
2847.00,0.0920
2846.00,0.0944
2845.00,0.0979
2844.00,0.1024
2843.00,0.1077
2842.00,0.1132
2841.00,0.1184
2840.00,0.1223
2839.00,0.1243
2838.00,0.1236
2837.00,0.1198
2836.00,0.1131
2835.00,0.1041
2834.00,0.0936
2833.00,0.0827
2832.00,0.0724
2831.00,0.0632
2830.00,0.0555
2829.00,0.0491
2828.00,0.0440
2827.00,0.0399
2826.00,0.0365
2825.00,0.0337
2824.00,0.0314
2823.00,0.0294
2822.00,0.0276
2821.00,0.0262
2820.00,0.0249
2819.00,0.0238
2818.00,0.0228
2817.00,0.0219
2816.00,0.0211
2815.00,0.0204
2814.00,0.0198
2813.00,0.0192
2812.00,0.0186
2811.00,0.0181
2810.00,0.0176
2809.00,0.0170
2808.00,0.0164
2807.00,0.0158
2806.00,0.0151
2805.00,0.0144
2804.00,0.0138
2803.00,0.0132
2802.00,0.0127
2801.00,0.0122
2800.00,0.0118
2799.00,0.0115
2798.00,0.0112
2797.00,0.0110
2796.00,0.0107
2795.00,0.0105
2794.00,0.0102
2793.00,0.0099
2792.00,0.0097
2791.00,0.0094
2790.00,0.0091
2789.00,0.0088
2788.00,0.0085
2787.00,0.0082
2786.00,0.0080
2785.00,0.0077
2784.00,0.0074
2783.00,0.0072
2782.00,0.0070
2781.00,0.0068
2780.00,0.0067
2779.00,0.0065
2778.00,0.0064
2777.00,0.0063
2776.00,0.0061
2775.00,0.0060
2774.00,0.0059
2773.00,0.0058
2772.00,0.0058
2771.00,0.0057
2770.00,0.0056
2769.00,0.0056
2768.00,0.0055
2767.00,0.0055
2766.00,0.0055
2765.00,0.0054
2764.00,0.0054
2763.00,0.0054
2762.00,0.0054
2761.00,0.0054
2760.00,0.0053
2759.00,0.0053
2758.00,0.0052
2757.00,0.0052
2756.00,0.0052
2755.00,0.0051
2754.00,0.0051
2753.00,0.0051
2752.00,0.0051
2751.00,0.0051
2750.00,0.0051
2749.00,0.0051
2748.00,0.0052
2747.00,0.0052
2746.00,0.0052
2745.00,0.0052
2744.00,0.0053
2743.00,0.0054
2742.00,0.0055
2741.00,0.0056
2740.00,0.0057
2739.00,0.0058
2738.00,0.0060
2737.00,0.0061
2736.00,0.0062
2735.00,0.0063
2734.00,0.0065
2733.00,0.0066
2732.00,0.0068
2731.00,0.0070
2730.00,0.0072
2729.00,0.0074
2728.00,0.0077
2727.00,0.0080
2726.00,0.0083
2725.00,0.0085
2724.00,0.0087
2723.00,0.0088
2722.00,0.0087
2721.00,0.0085
2720.00,0.0083
2719.00,0.0080
2718.00,0.0076
2717.00,0.0073
2716.00,0.0070
2715.00,0.0067
2714.00,0.0065
2713.00,0.0063
2712.00,0.0060
2711.00,0.0059
2710.00,0.0057
2709.00,0.0055
2708.00,0.0054
2707.00,0.0053
2706.00,0.0051
2705.00,0.0050
2704.00,0.0049
2703.00,0.0048
2702.00,0.0047
2701.00,0.0047
2700.00,0.0046
2699.00,0.0046
2698.00,0.0045
2697.00,0.0045
2696.00,0.0045
2695.00,0.0045
2694.00,0.0045
2693.00,0.0045
2692.00,0.0045
2691.00,0.0046
2690.00,0.0046
2689.00,0.0046
2688.00,0.0046
2687.00,0.0046
2686.00,0.0045
2685.00,0.0045
2684.00,0.0045
2683.00,0.0045
2682.00,0.0045
2681.00,0.0046
2680.00,0.0046
2679.00,0.0046
2678.00,0.0046
2677.00,0.0046
2676.00,0.0046
2675.00,0.0046
2674.00,0.0046
2673.00,0.0046
2672.00,0.0045
2671.00,0.0044
2670.00,0.0044
2669.00,0.0044
2668.00,0.0044
2667.00,0.0044
2666.00,0.0045
2665.00,0.0045
2664.00,0.0046
2663.00,0.0047
2662.00,0.0047
2661.00,0.0048
2660.00,0.0048
2659.00,0.0049
2658.00,0.0049
2657.00,0.0048
2656.00,0.0048
2655.00,0.0047
2654.00,0.0046
2653.00,0.0046
2652.00,0.0045
2651.00,0.0044
2650.00,0.0044
2649.00,0.0043
2648.00,0.0043
2647.00,0.0043
2646.00,0.0042
2645.00,0.0042
2644.00,0.0042
2643.00,0.0042
2642.00,0.0041
2641.00,0.0041
2640.00,0.0040
2639.00,0.0040
2638.00,0.0040
2637.00,0.0040
2636.00,0.0039
2635.00,0.0039
2634.00,0.0039
2633.00,0.0039
2632.00,0.0039
2631.00,0.0039
2630.00,0.0040
2629.00,0.0040
2628.00,0.0040
2627.00,0.0040
2626.00,0.0040
2625.00,0.0040
2624.00,0.0040
2623.00,0.0041
2622.00,0.0041
2621.00,0.0041
2620.00,0.0041
2619.00,0.0041
2618.00,0.0041
2617.00,0.0041
2616.00,0.0040
2615.00,0.0040
2614.00,0.0040
2613.00,0.0040
2612.00,0.0039
2611.00,0.0039
2610.00,0.0038
2609.00,0.0037
2608.00,0.0037
2607.00,0.0036
2606.00,0.0035
2605.00,0.0034
2604.00,0.0034
2603.00,0.0033
2602.00,0.0033
2601.00,0.0033
2600.00,0.0033
2599.00,0.0033
2598.00,0.0033
2597.00,0.0033
2596.00,0.0032
2595.00,0.0032
2594.00,0.0032
2593.00,0.0032
2592.00,0.0032
2591.00,0.0033
2590.00,0.0034
2589.00,0.0034
2588.00,0.0035
2587.00,0.0036
2586.00,0.0037
2585.00,0.0038
2584.00,0.0039
2583.00,0.0040
2582.00,0.0040
2581.00,0.0039
2580.00,0.0038
2579.00,0.0037
2578.00,0.0036
2577.00,0.0035
2576.00,0.0034
2575.00,0.0033
2574.00,0.0032
2573.00,0.0031
2572.00,0.0030
2571.00,0.0029
2570.00,0.0028
2569.00,0.0028
2568.00,0.0027
2567.00,0.0026
2566.00,0.0025
2565.00,0.0025
2564.00,0.0025
2563.00,0.0025
2562.00,0.0025
2561.00,0.0025
2560.00,0.0024
2559.00,0.0024
2558.00,0.0024
2557.00,0.0024
2556.00,0.0024
2555.00,0.0023
2554.00,0.0023
2553.00,0.0023
2552.00,0.0022
2551.00,0.0022
2550.00,0.0022
2549.00,0.0021
2548.00,0.0021
2547.00,0.0020
2546.00,0.0019
2545.00,0.0019
2544.00,0.0018
2543.00,0.0018
2542.00,0.0018
2541.00,0.0018
2540.00,0.0017
2539.00,0.0017
2538.00,0.0017
2537.00,0.0017
2536.00,0.0017
2535.00,0.0017
2534.00,0.0017
2533.00,0.0017
2532.00,0.0017
2531.00,0.0016
2530.00,0.0016
2529.00,0.0016
2528.00,0.0015
2527.00,0.0015
2526.00,0.0015
2525.00,0.0015
2524.00,0.0015
2523.00,0.0015
2522.00,0.0014
2521.00,0.0014
2520.00,0.0013
2519.00,0.0013
2518.00,0.0012
2517.00,0.0012
2516.00,0.0012
2515.00,0.0011
2514.00,0.0011
2513.00,0.0011
2512.00,0.0010
2511.00,0.0010
2510.00,0.0010
2509.00,0.0011
2508.00,0.0011
2507.00,0.0011
2506.00,0.0011
2505.00,0.0010
2504.00,0.0010
2503.00,0.0010
2502.00,0.0010
2501.00,0.0010
2500.00,0.0010
2499.00,0.0011
2498.00,0.0011
2497.00,0.0011
2496.00,0.0011
2495.00,0.0011
2494.00,0.0011
2493.00,0.0011
2492.00,0.0011
2491.00,0.0010
2490.00,0.0010
2489.00,0.0010
2488.00,0.0010
2487.00,0.0011
2486.00,0.0011
2485.00,0.0011
2484.00,0.0012
2483.00,0.0011
2482.00,0.0011
2481.00,0.0010
2480.00,0.0010
2479.00,0.0010
2478.00,0.0010
2477.00,0.0010
2476.00,0.0010
2475.00,0.0010
2474.00,0.0010
2473.00,0.0010
2472.00,0.0011
2471.00,0.0010
2470.00,0.0010
2469.00,0.0009
2468.00,0.0009
2467.00,0.0008
2466.00,0.0008
2465.00,0.0009
2464.00,0.0009
2463.00,0.0010
2462.00,0.0010
2461.00,0.0010
2460.00,0.0010
2459.00,0.0010
2458.00,0.0011
2457.00,0.0012
2456.00,0.0012
2455.00,0.0012
2454.00,0.0012
2453.00,0.0011
2452.00,0.0011
2451.00,0.0011
2450.00,0.0011
2449.00,0.0011
2448.00,0.0011
2447.00,0.0011
2446.00,0.0010
2445.00,0.0010
2444.00,0.0010
2443.00,0.0010
2442.00,0.0010
2441.00,0.0010
2440.00,0.0010
2439.00,0.0010
2438.00,0.0010
2437.00,0.0010
2436.00,0.0010
2435.00,0.0010
2434.00,0.0010
2433.00,0.0011
2432.00,0.0011
2431.00,0.0012
2430.00,0.0013
2429.00,0.0013
2428.00,0.0013
2427.00,0.0013
2426.00,0.0013
2425.00,0.0012
2424.00,0.0012
2423.00,0.0011
2422.00,0.0011
2421.00,0.0010
2420.00,0.0010
2419.00,0.0010
2418.00,0.0009
2417.00,0.0009
2416.00,0.0009
2415.00,0.0009
2414.00,0.0009
2413.00,0.0009
2412.00,0.0010
2411.00,0.0010
2410.00,0.0010
2409.00,0.0010
2408.00,0.0010
2407.00,0.0009
2406.00,0.0008
2405.00,0.0008
2404.00,0.0008
2403.00,0.0008
2402.00,0.0008
2401.00,0.0008
2400.00,0.0008
2399.00,0.0007
2398.00,0.0007
2397.00,0.0008
2396.00,0.0008
2395.00,0.0008
2394.00,0.0008
2393.00,0.0008
2392.00,0.0008
2391.00,0.0008
2390.00,0.0008
2389.00,0.0008
2388.00,0.0009
2387.00,0.0008
2386.00,0.0008
2385.00,0.0007
2384.00,0.0006
2383.00,0.0006
2382.00,0.0005
2381.00,0.0004
2380.00,0.0004
2379.00,0.0004
2378.00,0.0003
2377.00,0.0003
2376.00,0.0003
2375.00,0.0002
2374.00,0.0002
2373.00,0.0002
2372.00,0.0002
2371.00,0.0002
2370.00,0.0002
2369.00,0.0003
2368.00,0.0004
2367.00,0.0004
2366.00,0.0005
2365.00,0.0005
2364.00,0.0005
2363.00,0.0005
2362.00,0.0004
2361.00,0.0004
2360.00,0.0005
2359.00,0.0005
2358.00,0.0006
2357.00,0.0006
2356.00,0.0005
2355.00,0.0005
2354.00,0.0005
2353.00,0.0005
2352.00,0.0005
2351.00,0.0005
2350.00,0.0005
2349.00,0.0006
2348.00,0.0006
2347.00,0.0006
2346.00,0.0005
2345.00,0.0006
2344.00,0.0006
2343.00,0.0007
2342.00,0.0007
2341.00,0.0007
2340.00,0.0008
2339.00,0.0008
2338.00,0.0008
2337.00,0.0008
2336.00,0.0008
2335.00,0.0007
2334.00,0.0007
2333.00,0.0006
2332.00,0.0006
2331.00,0.0005
2330.00,0.0006
2329.00,0.0007
2328.00,0.0009
2327.00,0.0012
2326.00,0.0016
2325.00,0.0018
2324.00,0.0020
2323.00,0.0019
2322.00,0.0017
2321.00,0.0016
2320.00,0.0014
2319.00,0.0013
2318.00,0.0013
2317.00,0.0012
2316.00,0.0012
2315.00,0.0012
2314.00,0.0011
2313.00,0.0011
2312.00,0.0011
2311.00,0.0010
2310.00,0.0010
2309.00,0.0010
2308.00,0.0010
2307.00,0.0010
2306.00,0.0011
2305.00,0.0011
2304.00,0.0011
2303.00,0.0011
2302.00,0.0011
2301.00,0.0011
2300.00,0.0012
2299.00,0.0012
2298.00,0.0013
2297.00,0.0014
2296.00,0.0015
2295.00,0.0016
2294.00,0.0016
2293.00,0.0016
2292.00,0.0016
2291.00,0.0017
2290.00,0.0017
2289.00,0.0018
2288.00,0.0019
2287.00,0.0019
2286.00,0.0019
2285.00,0.0019
2284.00,0.0018
2283.00,0.0018
2282.00,0.0017
2281.00,0.0017
2280.00,0.0016
2279.00,0.0015
2278.00,0.0015
2277.00,0.0015
2276.00,0.0015
2275.00,0.0015
2274.00,0.0015
2273.00,0.0014
2272.00,0.0014
2271.00,0.0014
2270.00,0.0014
2269.00,0.0014
2268.00,0.0013
2267.00,0.0013
2266.00,0.0013
2265.00,0.0012
2264.00,0.0012
2263.00,0.0012
2262.00,0.0012
2261.00,0.0013
2260.00,0.0013
2259.00,0.0014
2258.00,0.0014
2257.00,0.0014
2256.00,0.0013
2255.00,0.0010
2254.00,0.0008
2253.00,0.0006
2252.00,0.0006
2251.00,0.0007
2250.00,0.0008
2249.00,0.0009
2248.00,0.0010
2247.00,0.0009
2246.00,0.0009
2245.00,0.0009
2244.00,0.0009
2243.00,0.0009
2242.00,0.0009
2241.00,0.0008
2240.00,0.0008
2239.00,0.0008
2238.00,0.0010
2237.00,0.0012
2236.00,0.0014
2235.00,0.0015
2234.00,0.0015
2233.00,0.0015
2232.00,0.0013
2231.00,0.0010
2230.00,0.0007
2229.00,0.0004
2228.00,0.0003
2227.00,0.0003
2226.00,0.0005
2225.00,0.0007
2224.00,0.0009
2223.00,0.0008
2222.00,0.0007
2221.00,0.0005
2220.00,0.0004
2219.00,0.0003
2218.00,0.0003
2217.00,0.0003
2216.00,0.0004
2215.00,0.0003
2214.00,0.0003
2213.00,0.0004
2212.00,0.0004
2211.00,0.0005
2210.00,0.0005
2209.00,0.0006
2208.00,0.0007
2207.00,0.0007
2206.00,0.0007
2205.00,0.0007
2204.00,0.0006
2203.00,0.0004
2202.00,0.0003
2201.00,0.0003
2200.00,0.0004
2199.00,0.0005
2198.00,0.0005
2197.00,0.0007
2196.00,0.0009
2195.00,0.0010
2194.00,0.0011
2193.00,0.0011
2192.00,0.0009
2191.00,0.0007
2190.00,0.0006
2189.00,0.0007
2188.00,0.0009
2187.00,0.0010
2186.00,0.0010
2185.00,0.0010
2184.00,0.0009
2183.00,0.0008
2182.00,0.0006
2181.00,0.0003
2180.00,0.0002
2179.00,0.0002
2178.00,0.0003
2177.00,0.0003
2176.00,0.0003
2175.00,0.0001
2174.00,0.0001
2173.00,0.0002
2172.00,0.0005
2171.00,0.0009
2170.00,0.0013
2169.00,0.0017
2168.00,0.0019
2167.00,0.0019
2166.00,0.0019
2165.00,0.0020
2164.00,0.0022
2163.00,0.0024
2162.00,0.0023
2161.00,0.0016
2160.00,0.0003
2159.00,-0.0014
2158.00,-0.0027
2157.00,-0.0032
2156.00,-0.0031
2155.00,-0.0027
2154.00,-0.0023
2153.00,-0.0019
2152.00,-0.0016
2151.00,-0.0013
2150.00,-0.0011
2149.00,-0.0010
2148.00,-0.0009
2147.00,-0.0009
2146.00,-0.0011
2145.00,-0.0014
2144.00,-0.0015
2143.00,-0.0014
2142.00,-0.0014
2141.00,-0.0014
2140.00,-0.0014
2139.00,-0.0015
2138.00,-0.0015
2137.00,-0.0015
2136.00,-0.0014
2135.00,-0.0014
2134.00,-0.0013
2133.00,-0.0012
2132.00,-0.0009
2131.00,-0.0008
2130.00,-0.0008
2129.00,-0.0009
2128.00,-0.0009
2127.00,-0.0008
2126.00,-0.0005
2125.00,-0.0003
2124.00,-0.0002
2123.00,-0.0002
2122.00,-0.0002
2121.00,-0.0003
2120.00,-0.0003
2119.00,-0.0002
2118.00,-0.0001
2117.00,0.0000
2116.00,0.0001
2115.00,0.0001
2114.00,0.0000
2113.00,-0.0000
2112.00,-0.0001
2111.00,-0.0000
2110.00,0.0000
2109.00,0.0001
2108.00,0.0002
2107.00,0.0002
2106.00,0.0003
2105.00,0.0003
2104.00,0.0003
2103.00,0.0004
2102.00,0.0005
2101.00,0.0005
2100.00,0.0005
2099.00,0.0003
2098.00,0.0000
2097.00,-0.0002
2096.00,-0.0004
2095.00,-0.0006
2094.00,-0.0007
2093.00,-0.0006
2092.00,-0.0005
2091.00,-0.0004
2090.00,-0.0003
2089.00,-0.0001
2088.00,-0.0000
2087.00,-0.0000
2086.00,-0.0001
2085.00,-0.0001
2084.00,-0.0001
2083.00,-0.0001
2082.00,0.0000
2081.00,0.0003
2080.00,0.0005
2079.00,0.0005
2078.00,0.0004
2077.00,0.0003
2076.00,0.0003
2075.00,0.0003
2074.00,0.0003
2073.00,0.0001
2072.00,-0.0001
2071.00,-0.0001
2070.00,-0.0000
2069.00,0.0001
2068.00,0.0002
2067.00,0.0001
2066.00,-0.0000
2065.00,-0.0001
2064.00,-0.0002
2063.00,-0.0001
2062.00,-0.0001
2061.00,-0.0000
2060.00,-0.0000
2059.00,0.0001
2058.00,0.0003
2057.00,0.0005
2056.00,0.0006
2055.00,0.0006
2054.00,0.0006
2053.00,0.0008
2052.00,0.0011
2051.00,0.0014
2050.00,0.0014
2049.00,0.0010
2048.00,0.0006
2047.00,0.0002
2046.00,0.0002
2045.00,0.0002
2044.00,0.0003
2043.00,0.0003
2042.00,0.0002
2041.00,0.0002
2040.00,0.0002
2039.00,0.0002
2038.00,0.0001
2037.00,-0.0001
2036.00,-0.0005
2035.00,-0.0009
2034.00,-0.0011
2033.00,-0.0011
2032.00,-0.0010
2031.00,-0.0009
2030.00,-0.0010
2029.00,-0.0011
2028.00,-0.0013
2027.00,-0.0015
2026.00,-0.0015
2025.00,-0.0013
2024.00,-0.0009
2023.00,-0.0005
2022.00,-0.0003
2021.00,-0.0003
2020.00,-0.0006
2019.00,-0.0008
2018.00,-0.0008
2017.00,-0.0007
2016.00,-0.0007
2015.00,-0.0008
2014.00,-0.0010
2013.00,-0.0010
2012.00,-0.0008
2011.00,-0.0005
2010.00,-0.0005
2009.00,-0.0008
2008.00,-0.0014
2007.00,-0.0020
2006.00,-0.0022
2005.00,-0.0020
2004.00,-0.0018
2003.00,-0.0016
2002.00,-0.0015
2001.00,-0.0015
2000.00,-0.0014
1999.00,-0.0014
1998.00,-0.0014
1997.00,-0.0013
1996.00,-0.0013
1995.00,-0.0011
1994.00,-0.0008
1993.00,-0.0005
1992.00,-0.0003
1991.00,-0.0003
1990.00,-0.0005
1989.00,-0.0006
1988.00,-0.0005
1987.00,-0.0003
1986.00,-0.0003
1985.00,-0.0004
1984.00,-0.0004
1983.00,-0.0004
1982.00,-0.0003
1981.00,-0.0001
1980.00,-0.0002
1979.00,-0.0005
1978.00,-0.0008
1977.00,-0.0008
1976.00,-0.0008
1975.00,-0.0009
1974.00,-0.0010
1973.00,-0.0010
1972.00,-0.0010
1971.00,-0.0010
1970.00,-0.0011
1969.00,-0.0014
1968.00,-0.0016
1967.00,-0.0018
1966.00,-0.0019
1965.00,-0.0018
1964.00,-0.0016
1963.00,-0.0014
1962.00,-0.0013
1961.00,-0.0012
1960.00,-0.0014
1959.00,-0.0016
1958.00,-0.0018
1957.00,-0.0018
1956.00,-0.0017
1955.00,-0.0016
1954.00,-0.0015
1953.00,-0.0015
1952.00,-0.0014
1951.00,-0.0014
1950.00,-0.0015
1949.00,-0.0015
1948.00,-0.0015
1947.00,-0.0014
1946.00,-0.0013
1945.00,-0.0012
1944.00,-0.0011
1943.00,-0.0012
1942.00,-0.0013
1941.00,-0.0014
1940.00,-0.0015
1939.00,-0.0015
1938.00,-0.0015
1937.00,-0.0014
1936.00,-0.0013
1935.00,-0.0012
1934.00,-0.0011
1933.00,-0.0010
1932.00,-0.0009
1931.00,-0.0008
1930.00,-0.0007
1929.00,-0.0006
1928.00,-0.0006
1927.00,-0.0006
1926.00,-0.0007
1925.00,-0.0007
1924.00,-0.0007
1923.00,-0.0007
1922.00,-0.0006
1921.00,-0.0005
1920.00,-0.0004
1919.00,-0.0003
1918.00,-0.0003
1917.00,-0.0004
1916.00,-0.0004
1915.00,-0.0005
1914.00,-0.0005
1913.00,-0.0004
1912.00,-0.0002
1911.00,-0.0001
1910.00,-0.0001
1909.00,-0.0001
1908.00,-0.0002
1907.00,-0.0002
1906.00,-0.0001
1905.00,-0.0001
1904.00,-0.0000
1903.00,-0.0000
1902.00,-0.0000
1901.00,-0.0001
1900.00,-0.0001
1899.00,-0.0000
1898.00,-0.0000
1897.00,0.0000
1896.00,0.0000
1895.00,-0.0000
1894.00,-0.0000
1893.00,-0.0001
1892.00,-0.0001
1891.00,-0.0001
1890.00,-0.0001
1889.00,-0.0002
1888.00,-0.0003
1887.00,-0.0004
1886.00,-0.0004
1885.00,-0.0004
1884.00,-0.0002
1883.00,-0.0001
1882.00,-0.0001
1881.00,-0.0001
1880.00,-0.0002
1879.00,-0.0003
1878.00,-0.0003
1877.00,-0.0003
1876.00,-0.0002
1875.00,-0.0002
1874.00,-0.0001
1873.00,-0.0001
1872.00,-0.0000
1871.00,0.0000
1870.00,0.0000
1869.00,0.0000
1868.00,0.0000
1867.00,0.0000
1866.00,-0.0000
1865.00,-0.0000
1864.00,-0.0001
1863.00,-0.0001
1862.00,-0.0001
1861.00,-0.0000
1860.00,0.0000
1859.00,-0.0000
1858.00,-0.0001
1857.00,-0.0001
1856.00,-0.0001
1855.00,-0.0000
1854.00,0.0000
1853.00,0.0000
1852.00,0.0000
1851.00,0.0000
1850.00,-0.0000
1849.00,0.0000
1848.00,0.0001
1847.00,0.0001
1846.00,0.0002
1845.00,0.0002
1844.00,0.0003
1843.00,0.0004
1842.00,0.0004
1841.00,0.0004
1840.00,0.0003
1839.00,0.0003
1838.00,0.0003
1837.00,0.0002
1836.00,0.0003
1835.00,0.0002
1834.00,0.0002
1833.00,0.0002
1832.00,0.0001
1831.00,0.0001
1830.00,0.0000
1829.00,0.0001
1828.00,0.0001
1827.00,0.0001
1826.00,0.0001
1825.00,0.0001
1824.00,0.0002
1823.00,0.0003
1822.00,0.0003
1821.00,0.0003
1820.00,0.0003
1819.00,0.0003
1818.00,0.0002
1817.00,0.0001
1816.00,-0.0000
1815.00,-0.0000
1814.00,0.0000
1813.00,0.0001
1812.00,0.0001
1811.00,0.0002
1810.00,0.0003
1809.00,0.0003
1808.00,0.0003
1807.00,0.0003
1806.00,0.0003
1805.00,0.0004
1804.00,0.0004
1803.00,0.0004
1802.00,0.0005
1801.00,0.0005
1800.00,0.0005
1799.00,0.0005
1798.00,0.0006
1797.00,0.0007
1796.00,0.0007
1795.00,0.0007
1794.00,0.0006
1793.00,0.0005
1792.00,0.0005
1791.00,0.0005
1790.00,0.0006
1789.00,0.0007
1788.00,0.0007
1787.00,0.0008
1786.00,0.0008
1785.00,0.0008
1784.00,0.0008
1783.00,0.0008
1782.00,0.0008
1781.00,0.0008
1780.00,0.0008
1779.00,0.0008
1778.00,0.0008
1777.00,0.0008
1776.00,0.0008
1775.00,0.0008
1774.00,0.0008
1773.00,0.0009
1772.00,0.0009
1771.00,0.0009
1770.00,0.0009
1769.00,0.0009
1768.00,0.0009
1767.00,0.0010
1766.00,0.0010
1765.00,0.0011
1764.00,0.0011
1763.00,0.0011
1762.00,0.0012
1761.00,0.0012
1760.00,0.0013
1759.00,0.0014
1758.00,0.0015
1757.00,0.0016
1756.00,0.0016
1755.00,0.0017
1754.00,0.0017
1753.00,0.0019
1752.00,0.0020
1751.00,0.0021
1750.00,0.0022
1749.00,0.0022
1748.00,0.0022
1747.00,0.0023
1746.00,0.0023
1745.00,0.0025
1744.00,0.0026
1743.00,0.0027
1742.00,0.0027
1741.00,0.0027
1740.00,0.0027
1739.00,0.0028
1738.00,0.0028
1737.00,0.0027
1736.00,0.0027
1735.00,0.0027
1734.00,0.0027
1733.00,0.0027
1732.00,0.0027
1731.00,0.0026
1730.00,0.0026
1729.00,0.0026
1728.00,0.0026
1727.00,0.0026
1726.00,0.0026
1725.00,0.0027
1724.00,0.0027
1723.00,0.0027
1722.00,0.0027
1721.00,0.0026
1720.00,0.0026
1719.00,0.0026
1718.00,0.0026
1717.00,0.0026
1716.00,0.0025
1715.00,0.0025
1714.00,0.0024
1713.00,0.0024
1712.00,0.0023
1711.00,0.0023
1710.00,0.0023
1709.00,0.0024
1708.00,0.0023
1707.00,0.0023
1706.00,0.0023
1705.00,0.0023
1704.00,0.0024
1703.00,0.0025
1702.00,0.0026
1701.00,0.0027
1700.00,0.0028
1699.00,0.0029
1698.00,0.0029
1697.00,0.0029
1696.00,0.0029
1695.00,0.0029
1694.00,0.0030
1693.00,0.0030
1692.00,0.0031
1691.00,0.0032
1690.00,0.0032
1689.00,0.0032
1688.00,0.0032
1687.00,0.0033
1686.00,0.0033
1685.00,0.0034
1684.00,0.0035
1683.00,0.0036
1682.00,0.0037
1681.00,0.0038
1680.00,0.0039
1679.00,0.0040
1678.00,0.0040
1677.00,0.0041
1676.00,0.0041
1675.00,0.0042
1674.00,0.0042
1673.00,0.0042
1672.00,0.0043
1671.00,0.0043
1670.00,0.0044
1669.00,0.0044
1668.00,0.0044
1667.00,0.0044
1666.00,0.0044
1665.00,0.0045
1664.00,0.0045
1663.00,0.0046
1662.00,0.0047
1661.00,0.0047
1660.00,0.0048
1659.00,0.0049
1658.00,0.0049
1657.00,0.0050
1656.00,0.0050
1655.00,0.0051
1654.00,0.0051
1653.00,0.0052
1652.00,0.0052
1651.00,0.0052
1650.00,0.0052
1649.00,0.0053
1648.00,0.0054
1647.00,0.0056
1646.00,0.0056
1645.00,0.0056
1644.00,0.0056
1643.00,0.0056
1642.00,0.0056
1641.00,0.0056
1640.00,0.0057
1639.00,0.0057
1638.00,0.0057
1637.00,0.0058
1636.00,0.0059
1635.00,0.0059
1634.00,0.0057
1633.00,0.0056
1632.00,0.0056
1631.00,0.0055
1630.00,0.0054
1629.00,0.0054
1628.00,0.0053
1627.00,0.0052
1626.00,0.0051
1625.00,0.0051
1624.00,0.0050
1623.00,0.0050
1622.00,0.0050
1621.00,0.0050
1620.00,0.0050
1619.00,0.0050
1618.00,0.0049
1617.00,0.0049
1616.00,0.0049
1615.00,0.0050
1614.00,0.0050
1613.00,0.0050
1612.00,0.0050
1611.00,0.0050
1610.00,0.0050
1609.00,0.0050
1608.00,0.0049
1607.00,0.0049
1606.00,0.0048
1605.00,0.0048
1604.00,0.0049
1603.00,0.0049
1602.00,0.0049
1601.00,0.0050
1600.00,0.0050
1599.00,0.0049
1598.00,0.0049
1597.00,0.0048
1596.00,0.0048
1595.00,0.0048
1594.00,0.0048
1593.00,0.0047
1592.00,0.0048
1591.00,0.0048
1590.00,0.0048
1589.00,0.0048
1588.00,0.0048
1587.00,0.0048
1586.00,0.0048
1585.00,0.0048
1584.00,0.0048
1583.00,0.0049
1582.00,0.0050
1581.00,0.0050
1580.00,0.0051
1579.00,0.0052
1578.00,0.0052
1577.00,0.0052
1576.00,0.0052
1575.00,0.0052
1574.00,0.0052
1573.00,0.0053
1572.00,0.0053
1571.00,0.0053
1570.00,0.0053
1569.00,0.0053
1568.00,0.0053
1567.00,0.0053
1566.00,0.0053
1565.00,0.0054
1564.00,0.0054
1563.00,0.0054
1562.00,0.0054
1561.00,0.0054
1560.00,0.0054
1559.00,0.0055
1558.00,0.0055
1557.00,0.0055
1556.00,0.0056
1555.00,0.0057
1554.00,0.0057
1553.00,0.0057
1552.00,0.0058
1551.00,0.0058
1550.00,0.0059
1549.00,0.0059
1548.00,0.0060
1547.00,0.0060
1546.00,0.0061
1545.00,0.0061
1544.00,0.0061
1543.00,0.0060
1542.00,0.0059
1541.00,0.0059
1540.00,0.0059
1539.00,0.0058
1538.00,0.0057
1537.00,0.0058
1536.00,0.0058
1535.00,0.0057
1534.00,0.0055
1533.00,0.0054
1532.00,0.0053
1531.00,0.0052
1530.00,0.0052
1529.00,0.0052
1528.00,0.0052
1527.00,0.0052
1526.00,0.0051
1525.00,0.0052
1524.00,0.0052
1523.00,0.0052
1522.00,0.0051
1521.00,0.0052
1520.00,0.0052
1519.00,0.0053
1518.00,0.0053
1517.00,0.0054
1516.00,0.0055
1515.00,0.0055
1514.00,0.0055
1513.00,0.0056
1512.00,0.0057
1511.00,0.0058
1510.00,0.0058
1509.00,0.0059
1508.00,0.0060
1507.00,0.0060
1506.00,0.0059
1505.00,0.0060
1504.00,0.0062
1503.00,0.0064
1502.00,0.0065
1501.00,0.0068
1500.00,0.0070
1499.00,0.0072
1498.00,0.0074
1497.00,0.0077
1496.00,0.0080
1495.00,0.0082
1494.00,0.0084
1493.00,0.0087
1492.00,0.0090
1491.00,0.0093
1490.00,0.0097
1489.00,0.0101
1488.00,0.0105
1487.00,0.0109
1486.00,0.0113
1485.00,0.0119
1484.00,0.0126
1483.00,0.0132
1482.00,0.0140
1481.00,0.0151
1480.00,0.0163
1479.00,0.0175
1478.00,0.0191
1477.00,0.0212
1476.00,0.0238
1475.00,0.0268
1474.00,0.0309
1473.00,0.0366
1472.00,0.0433
1471.00,0.0498
1470.00,0.0562
1469.00,0.0630
1468.00,0.0702
1467.00,0.0781
1466.00,0.0870
1465.00,0.0965
1464.00,0.1047
1463.00,0.1105
1462.00,0.1142
1461.00,0.1167
1460.00,0.1184
1459.00,0.1194
1458.00,0.1201
1457.00,0.1206
1456.00,0.1203
1455.00,0.1194
1454.00,0.1181
1453.00,0.1162
1452.00,0.1134
1451.00,0.1095
1450.00,0.1042
1449.00,0.0971
1448.00,0.0882
1447.00,0.0788
1446.00,0.0703
1445.00,0.0629
1444.00,0.0566
1443.00,0.0514
1442.00,0.0475
1441.00,0.0448
1440.00,0.0431
1439.00,0.0424
1438.00,0.0425
1437.00,0.0426
1436.00,0.0416
1435.00,0.0392
1434.00,0.0357
1433.00,0.0314
1432.00,0.0270
1431.00,0.0231
1430.00,0.0200
1429.00,0.0178
1428.00,0.0162
1427.00,0.0152
1426.00,0.0145
1425.00,0.0138
1424.00,0.0133
1423.00,0.0129
1422.00,0.0127
1421.00,0.0125
1420.00,0.0122
1419.00,0.0120
1418.00,0.0118
1417.00,0.0115
1416.00,0.0112
1415.00,0.0111
1414.00,0.0110
1413.00,0.0109
1412.00,0.0107
1411.00,0.0107
1410.00,0.0107
1409.00,0.0106
1408.00,0.0105
1407.00,0.0105
1406.00,0.0106
1405.00,0.0106
1404.00,0.0106
1403.00,0.0106
1402.00,0.0107
1401.00,0.0108
1400.00,0.0108
1399.00,0.0110
1398.00,0.0112
1397.00,0.0114
1396.00,0.0116
1395.00,0.0120
1394.00,0.0125
1393.00,0.0129
1392.00,0.0135
1391.00,0.0143
1390.00,0.0154
1389.00,0.0168
1388.00,0.0189
1387.00,0.0220
1386.00,0.0262
1385.00,0.0318
1384.00,0.0396
1383.00,0.0506
1382.00,0.0655
1381.00,0.0848
1380.00,0.1085
1379.00,0.1354
1378.00,0.1613
1377.00,0.1801
1376.00,0.1862
1375.00,0.1766
1374.00,0.1542
1373.00,0.1272
1372.00,0.1024
1371.00,0.0820
1370.00,0.0659
1369.00,0.0537
1368.00,0.0453
1367.00,0.0401
1366.00,0.0373
1365.00,0.0361
1364.00,0.0363
1363.00,0.0375
1362.00,0.0395
1361.00,0.0417
1360.00,0.0433
1359.00,0.0439
1358.00,0.0429
1357.00,0.0404
1356.00,0.0369
1355.00,0.0330
1354.00,0.0293
1353.00,0.0260
1352.00,0.0234
1351.00,0.0213
1350.00,0.0195
1349.00,0.0181
1348.00,0.0168
1347.00,0.0158
1346.00,0.0149
1345.00,0.0142
1344.00,0.0135
1343.00,0.0130
1342.00,0.0126
1341.00,0.0123
1340.00,0.0120
1339.00,0.0118
1338.00,0.0117
1337.00,0.0117
1336.00,0.0118
1335.00,0.0119
1334.00,0.0122
1333.00,0.0126
1332.00,0.0130
1331.00,0.0133
1330.00,0.0134
1329.00,0.0133
1328.00,0.0130
1327.00,0.0126
1326.00,0.0121
1325.00,0.0116
1324.00,0.0110
1323.00,0.0106
1322.00,0.0102
1321.00,0.0099
1320.00,0.0097
1319.00,0.0096
1318.00,0.0094
1317.00,0.0093
1316.00,0.0091
1315.00,0.0091
1314.00,0.0090
1313.00,0.0091
1312.00,0.0092
1311.00,0.0094
1310.00,0.0098
1309.00,0.0104
1308.00,0.0113
1307.00,0.0124
1306.00,0.0134
1305.00,0.0141
1304.00,0.0143
1303.00,0.0140
1302.00,0.0135
1301.00,0.0130
1300.00,0.0127
1299.00,0.0126
1298.00,0.0127
1297.00,0.0127
1296.00,0.0127
1295.00,0.0124
1294.00,0.0121
1293.00,0.0116
1292.00,0.0111
1291.00,0.0106
1290.00,0.0102
1289.00,0.0098
1288.00,0.0095
1287.00,0.0093
1286.00,0.0091
1285.00,0.0090
1284.00,0.0088
1283.00,0.0087
1282.00,0.0085
1281.00,0.0084
1280.00,0.0082
1279.00,0.0081
1278.00,0.0081
1277.00,0.0081
1276.00,0.0080
1275.00,0.0080
1274.00,0.0080
1273.00,0.0080
1272.00,0.0080
1271.00,0.0080
1270.00,0.0081
1269.00,0.0082
1268.00,0.0083
1267.00,0.0086
1266.00,0.0088
1265.00,0.0090
1264.00,0.0093
1263.00,0.0096
1262.00,0.0099
1261.00,0.0103
1260.00,0.0109
1259.00,0.0115
1258.00,0.0121
1257.00,0.0126
1256.00,0.0128
1255.00,0.0126
1254.00,0.0121
1253.00,0.0113
1252.00,0.0106
1251.00,0.0099
1250.00,0.0094
1249.00,0.0090
1248.00,0.0088
1247.00,0.0086
1246.00,0.0084
1245.00,0.0082
1244.00,0.0080
1243.00,0.0078
1242.00,0.0077
1241.00,0.0077
1240.00,0.0076
1239.00,0.0075
1238.00,0.0075
1237.00,0.0074
1236.00,0.0073
1235.00,0.0073
1234.00,0.0073
1233.00,0.0074
1232.00,0.0075
1231.00,0.0076
1230.00,0.0077
1229.00,0.0079
1228.00,0.0080
1227.00,0.0082
1226.00,0.0084
1225.00,0.0087
1224.00,0.0090
1223.00,0.0093
1222.00,0.0096
1221.00,0.0098
1220.00,0.0099
1219.00,0.0099
1218.00,0.0098
1217.00,0.0097
1216.00,0.0094
1215.00,0.0091
1214.00,0.0088
1213.00,0.0085
1212.00,0.0083
1211.00,0.0081
1210.00,0.0080
1209.00,0.0079
1208.00,0.0078
1207.00,0.0077
1206.00,0.0076
1205.00,0.0076
1204.00,0.0076
1203.00,0.0076
1202.00,0.0076
1201.00,0.0076
1200.00,0.0075
1199.00,0.0075
1198.00,0.0076
1197.00,0.0076
1196.00,0.0077
1195.00,0.0078
1194.00,0.0078
1193.00,0.0077
1192.00,0.0077
1191.00,0.0077
1190.00,0.0077
1189.00,0.0077
1188.00,0.0077
1187.00,0.0078
1186.00,0.0078
1185.00,0.0079
1184.00,0.0080
1183.00,0.0082
1182.00,0.0084
1181.00,0.0088
1180.00,0.0091
1179.00,0.0096
1178.00,0.0103
1177.00,0.0111
1176.00,0.0121
1175.00,0.0135
1174.00,0.0154
1173.00,0.0177
1172.00,0.0206
1171.00,0.0237
1170.00,0.0268
1169.00,0.0293
1168.00,0.0307
1167.00,0.0309
1166.00,0.0301
1165.00,0.0287
1164.00,0.0270
1163.00,0.0255
1162.00,0.0241
1161.00,0.0230
1160.00,0.0220
1159.00,0.0213
1158.00,0.0208
1157.00,0.0204
1156.00,0.0201
1155.00,0.0199
1154.00,0.0197
1153.00,0.0193
1152.00,0.0189
1151.00,0.0183
1150.00,0.0175
1149.00,0.0166
1148.00,0.0157
1147.00,0.0148
1146.00,0.0140
1145.00,0.0132
1144.00,0.0125
1143.00,0.0117
1142.00,0.0110
1141.00,0.0104
1140.00,0.0099
1139.00,0.0094
1138.00,0.0091
1137.00,0.0088
1136.00,0.0087
1135.00,0.0085
1134.00,0.0083
1133.00,0.0082
1132.00,0.0080
1131.00,0.0079
1130.00,0.0078
1129.00,0.0078
1128.00,0.0078
1127.00,0.0078
1126.00,0.0079
1125.00,0.0080
1124.00,0.0081
1123.00,0.0081
1122.00,0.0081
1121.00,0.0082
1120.00,0.0083
1119.00,0.0084
1118.00,0.0085
1117.00,0.0086
1116.00,0.0088
1115.00,0.0089
1114.00,0.0090
1113.00,0.0091
1112.00,0.0093
1111.00,0.0095
1110.00,0.0099
1109.00,0.0102
1108.00,0.0107
1107.00,0.0113
1106.00,0.0120
1105.00,0.0126
1104.00,0.0131
1103.00,0.0133
1102.00,0.0132
1101.00,0.0128
1100.00,0.0122
1099.00,0.0116
1098.00,0.0110
1097.00,0.0105
1096.00,0.0100
1095.00,0.0097
1094.00,0.0094
1093.00,0.0092
1092.00,0.0089
1091.00,0.0086
1090.00,0.0084
1089.00,0.0083
1088.00,0.0083
1087.00,0.0084
1086.00,0.0084
1085.00,0.0085
1084.00,0.0085
1083.00,0.0085
1082.00,0.0084
1081.00,0.0083
1080.00,0.0082
1079.00,0.0081
1078.00,0.0080
1077.00,0.0080
1076.00,0.0080
1075.00,0.0080
1074.00,0.0079
1073.00,0.0078
1072.00,0.0077
1071.00,0.0076
1070.00,0.0077
1069.00,0.0077
1068.00,0.0078
1067.00,0.0079
1066.00,0.0080
1065.00,0.0080
1064.00,0.0081
1063.00,0.0081
1062.00,0.0082
1061.00,0.0083
1060.00,0.0085
1059.00,0.0086
1058.00,0.0087
1057.00,0.0088
1056.00,0.0090
1055.00,0.0092
1054.00,0.0094
1053.00,0.0097
1052.00,0.0101
1051.00,0.0105
1050.00,0.0109
1049.00,0.0114
1048.00,0.0119
1047.00,0.0123
1046.00,0.0128
1045.00,0.0131
1044.00,0.0132
1043.00,0.0131
1042.00,0.0128
1041.00,0.0125
1040.00,0.0122
1039.00,0.0120
1038.00,0.0119
1037.00,0.0118
1036.00,0.0117
1035.00,0.0117
1034.00,0.0117
1033.00,0.0117
1032.00,0.0116
1031.00,0.0116
1030.00,0.0116
1029.00,0.0116
1028.00,0.0118
1027.00,0.0120
1026.00,0.0122
1025.00,0.0124
1024.00,0.0126
1023.00,0.0129
1022.00,0.0132
1021.00,0.0134
1020.00,0.0136
1019.00,0.0136
1018.00,0.0137
1017.00,0.0137
1016.00,0.0138
1015.00,0.0137
1014.00,0.0137
1013.00,0.0136
1012.00,0.0135
1011.00,0.0134
1010.00,0.0135
1009.00,0.0136
1008.00,0.0139
1007.00,0.0144
1006.00,0.0151
1005.00,0.0161
1004.00,0.0176
1003.00,0.0198
1002.00,0.0228
1001.00,0.0265
1000.00,0.0303
999.00,0.0334
998.00,0.0349
997.00,0.0341
996.00,0.0314
995.00,0.0275
994.00,0.0236
993.00,0.0201
992.00,0.0173
991.00,0.0153
990.00,0.0140
989.00,0.0130
988.00,0.0124
987.00,0.0121
986.00,0.0120
985.00,0.0122
984.00,0.0125
983.00,0.0132
982.00,0.0142
981.00,0.0157
980.00,0.0178
979.00,0.0206
978.00,0.0241
977.00,0.0283
976.00,0.0327
975.00,0.0369
974.00,0.0399
973.00,0.0409
972.00,0.0393
971.00,0.0355
970.00,0.0305
969.00,0.0255
968.00,0.0212
967.00,0.0179
966.00,0.0155
965.00,0.0138
964.00,0.0126
963.00,0.0116
962.00,0.0109
961.00,0.0103
960.00,0.0098
959.00,0.0094
958.00,0.0090
957.00,0.0086
956.00,0.0084
955.00,0.0082
954.00,0.0082
953.00,0.0081
952.00,0.0079
951.00,0.0078
950.00,0.0076
949.00,0.0075
948.00,0.0076
947.00,0.0076
946.00,0.0078
945.00,0.0081
944.00,0.0084
943.00,0.0088
942.00,0.0092
941.00,0.0094
940.00,0.0094
939.00,0.0091
938.00,0.0086
937.00,0.0080
936.00,0.0075
935.00,0.0071
934.00,0.0068
933.00,0.0066
932.00,0.0065
931.00,0.0065
930.00,0.0064
929.00,0.0063
928.00,0.0062
927.00,0.0061
926.00,0.0062
925.00,0.0062
924.00,0.0062
923.00,0.0062
922.00,0.0063
921.00,0.0063
920.00,0.0062
919.00,0.0061
918.00,0.0061
917.00,0.0061
916.00,0.0062
915.00,0.0063
914.00,0.0064
913.00,0.0066
912.00,0.0067
911.00,0.0069
910.00,0.0071
909.00,0.0073
908.00,0.0076
907.00,0.0079
906.00,0.0084
905.00,0.0094
904.00,0.0108
903.00,0.0127
902.00,0.0147
901.00,0.0165
900.00,0.0176
899.00,0.0178
898.00,0.0171
897.00,0.0156
896.00,0.0137
895.00,0.0120
894.00,0.0105
893.00,0.0095
892.00,0.0087
891.00,0.0082
890.00,0.0078
889.00,0.0076
888.00,0.0075
887.00,0.0073
886.00,0.0072
885.00,0.0072
884.00,0.0072
883.00,0.0073
882.00,0.0072
881.00,0.0072
880.00,0.0071
879.00,0.0072
878.00,0.0073
877.00,0.0073
876.00,0.0074
875.00,0.0074
874.00,0.0074
873.00,0.0075
872.00,0.0075
871.00,0.0076
870.00,0.0076
869.00,0.0076
868.00,0.0076
867.00,0.0077
866.00,0.0078
865.00,0.0078
864.00,0.0079
863.00,0.0080
862.00,0.0082
861.00,0.0084
860.00,0.0085
859.00,0.0086
858.00,0.0086
857.00,0.0088
856.00,0.0090
855.00,0.0092
854.00,0.0095
853.00,0.0097
852.00,0.0099
851.00,0.0101
850.00,0.0105
849.00,0.0111
848.00,0.0120
847.00,0.0133
846.00,0.0152
845.00,0.0182
844.00,0.0226
843.00,0.0277
842.00,0.0319
841.00,0.0333
840.00,0.0311
839.00,0.0264
838.00,0.0212
837.00,0.0171
836.00,0.0145
835.00,0.0130
834.00,0.0121
833.00,0.0116
832.00,0.0112
831.00,0.0109
830.00,0.0107
829.00,0.0104
828.00,0.0100
827.00,0.0097
826.00,0.0095
825.00,0.0095
824.00,0.0095
823.00,0.0096
822.00,0.0097
821.00,0.0097
820.00,0.0098
819.00,0.0101
818.00,0.0106
817.00,0.0114
816.00,0.0123
815.00,0.0134
814.00,0.0149
813.00,0.0166
812.00,0.0186
811.00,0.0204
810.00,0.0218
809.00,0.0223
808.00,0.0218
807.00,0.0204
806.00,0.0186
805.00,0.0167
804.00,0.0151
803.00,0.0138
802.00,0.0127
801.00,0.0119
800.00,0.0113
799.00,0.0108
798.00,0.0103
797.00,0.0100
796.00,0.0097
795.00,0.0094
794.00,0.0093
793.00,0.0091
792.00,0.0088
791.00,0.0084
790.00,0.0081
789.00,0.0079
788.00,0.0077
787.00,0.0076
786.00,0.0074
785.00,0.0071
784.00,0.0069
783.00,0.0067
782.00,0.0066
781.00,0.0066
780.00,0.0066
779.00,0.0066
778.00,0.0065
777.00,0.0065
776.00,0.0064
775.00,0.0063
774.00,0.0063
773.00,0.0063
772.00,0.0064
771.00,0.0064
770.00,0.0064
769.00,0.0065
768.00,0.0066
767.00,0.0067
766.00,0.0068
765.00,0.0067
764.00,0.0066
763.00,0.0066
762.00,0.0065
761.00,0.0066
760.00,0.0067
759.00,0.0068
758.00,0.0068
757.00,0.0069
756.00,0.0070
755.00,0.0071
754.00,0.0071
753.00,0.0072
752.00,0.0073
751.00,0.0074
750.00,0.0075
749.00,0.0076
748.00,0.0077
747.00,0.0078
746.00,0.0080
745.00,0.0082
744.00,0.0085
743.00,0.0088
742.00,0.0093
741.00,0.0097
740.00,0.0100
739.00,0.0102
738.00,0.0104
737.00,0.0106
736.00,0.0110
735.00,0.0114
734.00,0.0120
733.00,0.0127
732.00,0.0134
731.00,0.0140
730.00,0.0145
729.00,0.0148
728.00,0.0149
727.00,0.0149
726.00,0.0150
725.00,0.0153
724.00,0.0158
723.00,0.0165
722.00,0.0171
721.00,0.0174
720.00,0.0172
719.00,0.0165
718.00,0.0154
717.00,0.0143
716.00,0.0132
715.00,0.0124
714.00,0.0119
713.00,0.0116
712.00,0.0112
711.00,0.0109
710.00,0.0105
709.00,0.0101
708.00,0.0099
707.00,0.0098
706.00,0.0098
705.00,0.0098
704.00,0.0097
703.00,0.0095
702.00,0.0093
701.00,0.0092
700.00,0.0092
699.00,0.0093
698.00,0.0094
697.00,0.0095
696.00,0.0095
695.00,0.0095
694.00,0.0094
693.00,0.0095
692.00,0.0095
691.00,0.0096
690.00,0.0095
689.00,0.0095
688.00,0.0094
687.00,0.0092
686.00,0.0091
685.00,0.0089
684.00,0.0088
683.00,0.0088
682.00,0.0088
681.00,0.0089
680.00,0.0089
679.00,0.0090
678.00,0.0092
677.00,0.0094
676.00,0.0096
675.00,0.0098
674.00,0.0099
673.00,0.0101
672.00,0.0103
671.00,0.0105
670.00,0.0104
669.00,0.0099
668.00,0.0094
667.00,0.0091
666.00,0.0091
665.00,0.0092
664.00,0.0092
663.00,0.0091
662.00,0.0090
661.00,0.0088
660.00,0.0086
659.00,0.0084
658.00,0.0083
657.00,0.0084
656.00,0.0084
655.00,0.0086
654.00,0.0087
653.00,0.0089
652.00,0.0089
651.00,0.0088
650.00,0.0087
649.00,0.0085
648.00,0.0083
647.00,0.0082
646.00,0.0082
645.00,0.0081
644.00,0.0079
643.00,0.0076
642.00,0.0075
641.00,0.0077
640.00,0.0080
639.00,0.0083
638.00,0.0085
637.00,0.0086
636.00,0.0086
635.00,0.0085
634.00,0.0083
633.00,0.0081
632.00,0.0078
631.00,0.0076
630.00,0.0076
629.00,0.0077
628.00,0.0079
627.00,0.0080
626.00,0.0081
625.00,0.0081
624.00,0.0082
623.00,0.0081
622.00,0.0080
621.00,0.0078
620.00,0.0077
619.00,0.0077
618.00,0.0078
617.00,0.0080
616.00,0.0080
615.00,0.0079
614.00,0.0080
613.00,0.0081
612.00,0.0082
611.00,0.0082
610.00,0.0081
609.00,0.0079
608.00,0.0077
607.00,0.0075
606.00,0.0074
605.00,0.0074
604.00,0.0075
603.00,0.0075
602.00,0.0075
601.00,0.0076
600.00,0.0078
599.00,0.0079
598.00,0.0080
597.00,0.0079
596.00,0.0078
595.00,0.0077
594.00,0.0078
593.00,0.0079
592.00,0.0080
591.00,0.0081
590.00,0.0082
589.00,0.0083
588.00,0.0085
587.00,0.0086
586.00,0.0085
585.00,0.0084
584.00,0.0081
583.00,0.0080
582.00,0.0081
581.00,0.0082
580.00,0.0082
579.00,0.0081
578.00,0.0079
577.00,0.0076
576.00,0.0073
575.00,0.0071
574.00,0.0072
573.00,0.0076
572.00,0.0081
571.00,0.0084
570.00,0.0084
569.00,0.0080
568.00,0.0076
567.00,0.0074
566.00,0.0073
565.00,0.0073
564.00,0.0074
563.00,0.0073
562.00,0.0073
561.00,0.0073
560.00,0.0073
559.00,0.0074
558.00,0.0075
557.00,0.0079
556.00,0.0083
555.00,0.0088
554.00,0.0090
553.00,0.0088
552.00,0.0084
551.00,0.0082
550.00,0.0082
549.00,0.0084
548.00,0.0086
547.00,0.0086
546.00,0.0085
545.00,0.0084
544.00,0.0085
543.00,0.0088
542.00,0.0095
541.00,0.0103
540.00,0.0110
539.00,0.0114
538.00,0.0114
537.00,0.0111
536.00,0.0107
535.00,0.0107
534.00,0.0109
533.00,0.0113
532.00,0.0117
531.00,0.0121
530.00,0.0123
529.00,0.0124
528.00,0.0124
527.00,0.0122
526.00,0.0118
525.00,0.0113
524.00,0.0108
523.00,0.0102
522.00,0.0095
521.00,0.0086
520.00,0.0080
519.00,0.0079
518.00,0.0081
517.00,0.0083
516.00,0.0082
515.00,0.0080
514.00,0.0079
513.00,0.0080
512.00,0.0080
511.00,0.0078
510.00,0.0075
509.00,0.0073
508.00,0.0075
507.00,0.0079
506.00,0.0084
505.00,0.0087
504.00,0.0088
503.00,0.0087
502.00,0.0084
501.00,0.0082
500.00,0.0083
499.00,0.0088
498.00,0.0094
497.00,0.0097
496.00,0.0095
495.00,0.0091
494.00,0.0088
493.00,0.0090
492.00,0.0095
491.00,0.0100
490.00,0.0103
489.00,0.0102
488.00,0.0099
487.00,0.0098
486.00,0.0100
485.00,0.0102
484.00,0.0103
483.00,0.0103
482.00,0.0106
481.00,0.0113
480.00,0.0122
479.00,0.0128
478.00,0.0128
477.00,0.0124
476.00,0.0117
475.00,0.0108
474.00,0.0103
473.00,0.0103
472.00,0.0110
471.00,0.0123
470.00,0.0139
469.00,0.0151
468.00,0.0157
467.00,0.0158
466.00,0.0159
465.00,0.0163
464.00,0.0169
463.00,0.0179
462.00,0.0195
461.00,0.0213
460.00,0.0222
459.00,0.0216
458.00,0.0198
457.00,0.0181
456.00,0.0172
455.00,0.0167
454.00,0.0164
453.00,0.0166
452.00,0.0172
451.00,0.0173
450.00,0.0163
