Created as New Dataset,Sample 170 By Administrator Date Wednesday, September 03 2025
cm-1,A
4000.00,0.0021
3999.00,0.0022
3998.00,0.0022
3997.00,0.0022
3996.00,0.0023
3995.00,0.0022
3994.00,0.0022
3993.00,0.0022
3992.00,0.0022
3991.00,0.0022
3990.00,0.0021
3989.00,0.0021
3988.00,0.0021
3987.00,0.0021
3986.00,0.0021
3985.00,0.0021
3984.00,0.0021
3983.00,0.0021
3982.00,0.0021
3981.00,0.0021
3980.00,0.0021
3979.00,0.0021
3978.00,0.0021
3977.00,0.0020
3976.00,0.0020
3975.00,0.0020
3974.00,0.0020
3973.00,0.0020
3972.00,0.0020
3971.00,0.0021
3970.00,0.0020
3969.00,0.0020
3968.00,0.0020
3967.00,0.0020
3966.00,0.0020
3965.00,0.0020
3964.00,0.0020
3963.00,0.0020
3962.00,0.0020
3961.00,0.0020
3960.00,0.0020
3959.00,0.0021
3958.00,0.0021
3957.00,0.0021
3956.00,0.0021
3955.00,0.0020
3954.00,0.0020
3953.00,0.0020
3952.00,0.0020
3951.00,0.0020
3950.00,0.0020
3949.00,0.0020
3948.00,0.0020
3947.00,0.0020
3946.00,0.0020
3945.00,0.0020
3944.00,0.0020
3943.00,0.0020
3942.00,0.0020
3941.00,0.0020
3940.00,0.0020
3939.00,0.0020
3938.00,0.0020
3937.00,0.0021
3936.00,0.0021
3935.00,0.0022
3934.00,0.0022
3933.00,0.0022
3932.00,0.0022
3931.00,0.0021
3930.00,0.0021
3929.00,0.0021
3928.00,0.0021
3927.00,0.0021
3926.00,0.0021
3925.00,0.0021
3924.00,0.0021
3923.00,0.0021
3922.00,0.0021
3921.00,0.0021
3920.00,0.0021
3919.00,0.0021
3918.00,0.0021
3917.00,0.0020
3916.00,0.0020
3915.00,0.0020
3914.00,0.0020
3913.00,0.0020
3912.00,0.0020
3911.00,0.0020
3910.00,0.0020
3909.00,0.0020
3908.00,0.0020
3907.00,0.0020
3906.00,0.0021
3905.00,0.0021
3904.00,0.0022
3903.00,0.0022
3902.00,0.0021
3901.00,0.0020
3900.00,0.0020
3899.00,0.0020
3898.00,0.0020
3897.00,0.0020
3896.00,0.0021
3895.00,0.0021
3894.00,0.0021
3893.00,0.0021
3892.00,0.0021
3891.00,0.0021
3890.00,0.0021
3889.00,0.0020
3888.00,0.0020
3887.00,0.0020
3886.00,0.0020
3885.00,0.0021
3884.00,0.0021
3883.00,0.0021
3882.00,0.0021
3881.00,0.0021
3880.00,0.0020
3879.00,0.0020
3878.00,0.0021
3877.00,0.0021
3876.00,0.0021
3875.00,0.0021
3874.00,0.0022
3873.00,0.0022
3872.00,0.0022
3871.00,0.0022
3870.00,0.0021
3869.00,0.0021
3868.00,0.0021
3867.00,0.0021
3866.00,0.0021
3865.00,0.0021
3864.00,0.0021
3863.00,0.0021
3862.00,0.0020
3861.00,0.0020
3860.00,0.0020
3859.00,0.0020
3858.00,0.0020
3857.00,0.0021
3856.00,0.0021
3855.00,0.0022
3854.00,0.0023
3853.00,0.0022
3852.00,0.0022
3851.00,0.0021
3850.00,0.0020
3849.00,0.0020
3848.00,0.0019
3847.00,0.0020
3846.00,0.0020
3845.00,0.0020
3844.00,0.0021
3843.00,0.0021
3842.00,0.0022
3841.00,0.0022
3840.00,0.0022
3839.00,0.0022
3838.00,0.0021
3837.00,0.0021
3836.00,0.0021
3835.00,0.0021
3834.00,0.0021
3833.00,0.0021
3832.00,0.0021
3831.00,0.0021
3830.00,0.0021
3829.00,0.0021
3828.00,0.0021
3827.00,0.0021
3826.00,0.0021
3825.00,0.0022
3824.00,0.0022
3823.00,0.0022
3822.00,0.0022
3821.00,0.0022
3820.00,0.0022
3819.00,0.0022
3818.00,0.0022
3817.00,0.0021
3816.00,0.0021
3815.00,0.0021
3814.00,0.0021
3813.00,0.0021
3812.00,0.0021
3811.00,0.0021
3810.00,0.0021
3809.00,0.0021
3808.00,0.0021
3807.00,0.0021
3806.00,0.0021
3805.00,0.0021
3804.00,0.0022
3803.00,0.0022
3802.00,0.0022
3801.00,0.0022
3800.00,0.0022
3799.00,0.0022
3798.00,0.0021
3797.00,0.0021
3796.00,0.0021
3795.00,0.0021
3794.00,0.0020
3793.00,0.0020
3792.00,0.0020
3791.00,0.0020
3790.00,0.0020
3789.00,0.0020
3788.00,0.0020
3787.00,0.0020
3786.00,0.0021
3785.00,0.0021
3784.00,0.0020
3783.00,0.0020
3782.00,0.0020
3781.00,0.0020
3780.00,0.0020
3779.00,0.0020
3778.00,0.0021
3777.00,0.0021
3776.00,0.0021
3775.00,0.0021
3774.00,0.0021
3773.00,0.0021
3772.00,0.0021
3771.00,0.0021
3770.00,0.0021
3769.00,0.0021
3768.00,0.0021
3767.00,0.0021
3766.00,0.0021
3765.00,0.0021
3764.00,0.0022
3763.00,0.0022
3762.00,0.0022
3761.00,0.0022
3760.00,0.0022
3759.00,0.0022
3758.00,0.0022
3757.00,0.0022
3756.00,0.0022
3755.00,0.0023
3754.00,0.0023
3753.00,0.0023
3752.00,0.0023
3751.00,0.0023
3750.00,0.0023
3749.00,0.0023
3748.00,0.0023
3747.00,0.0022
3746.00,0.0022
3745.00,0.0022
3744.00,0.0022
3743.00,0.0022
3742.00,0.0022
3741.00,0.0022
3740.00,0.0022
3739.00,0.0022
3738.00,0.0022
3737.00,0.0022
3736.00,0.0022
3735.00,0.0021
3734.00,0.0021
3733.00,0.0021
3732.00,0.0020
3731.00,0.0020
3730.00,0.0020
3729.00,0.0020
3728.00,0.0019
3727.00,0.0019
3726.00,0.0019
3725.00,0.0020
3724.00,0.0020
3723.00,0.0019
3722.00,0.0019
3721.00,0.0019
3720.00,0.0019
3719.00,0.0020
3718.00,0.0020
3717.00,0.0020
3716.00,0.0020
3715.00,0.0020
3714.00,0.0020
3713.00,0.0019
3712.00,0.0019
3711.00,0.0018
3710.00,0.0018
3709.00,0.0018
3708.00,0.0018
3707.00,0.0018
3706.00,0.0019
3705.00,0.0019
3704.00,0.0019
3703.00,0.0018
3702.00,0.0018
3701.00,0.0018
3700.00,0.0018
3699.00,0.0018
3698.00,0.0018
3697.00,0.0019
3696.00,0.0019
3695.00,0.0019
3694.00,0.0019
3693.00,0.0019
3692.00,0.0018
3691.00,0.0018
3690.00,0.0019
3689.00,0.0019
3688.00,0.0019
3687.00,0.0019
3686.00,0.0019
3685.00,0.0019
3684.00,0.0019
3683.00,0.0019
3682.00,0.0020
3681.00,0.0021
3680.00,0.0022
3679.00,0.0024
3678.00,0.0025
3677.00,0.0026
3676.00,0.0026
3675.00,0.0025
3674.00,0.0024
3673.00,0.0023
3672.00,0.0022
3671.00,0.0021
3670.00,0.0020
3669.00,0.0019
3668.00,0.0019
3667.00,0.0019
3666.00,0.0018
3665.00,0.0018
3664.00,0.0017
3663.00,0.0017
3662.00,0.0018
3661.00,0.0018
3660.00,0.0019
3659.00,0.0019
3658.00,0.0019
3657.00,0.0019
3656.00,0.0018
3655.00,0.0018
3654.00,0.0018
3653.00,0.0018
3652.00,0.0018
3651.00,0.0019
3650.00,0.0019
3649.00,0.0019
3648.00,0.0020
3647.00,0.0020
3646.00,0.0020
3645.00,0.0020
3644.00,0.0019
3643.00,0.0019
3642.00,0.0019
3641.00,0.0018
3640.00,0.0018
3639.00,0.0018
3638.00,0.0018
3637.00,0.0018
3636.00,0.0018
3635.00,0.0018
3634.00,0.0018
3633.00,0.0019
3632.00,0.0019
3631.00,0.0019
3630.00,0.0019
3629.00,0.0020
3628.00,0.0020
3627.00,0.0020
3626.00,0.0020
3625.00,0.0020
3624.00,0.0020
3623.00,0.0020
3622.00,0.0020
3621.00,0.0020
3620.00,0.0020
3619.00,0.0020
3618.00,0.0020
3617.00,0.0021
3616.00,0.0021
3615.00,0.0021
3614.00,0.0021
3613.00,0.0021
3612.00,0.0021
3611.00,0.0021
3610.00,0.0021
3609.00,0.0021
3608.00,0.0020
3607.00,0.0020
3606.00,0.0020
3605.00,0.0020
3604.00,0.0021
3603.00,0.0021
3602.00,0.0021
3601.00,0.0022
3600.00,0.0022
3599.00,0.0022
3598.00,0.0022
3597.00,0.0023
3596.00,0.0023
3595.00,0.0023
3594.00,0.0023
3593.00,0.0023
3592.00,0.0022
3591.00,0.0022
3590.00,0.0022
3589.00,0.0022
3588.00,0.0022
3587.00,0.0022
3586.00,0.0022
3585.00,0.0023
3584.00,0.0023
3583.00,0.0023
3582.00,0.0023
3581.00,0.0023
3580.00,0.0023
3579.00,0.0023
3578.00,0.0023
3577.00,0.0023
3576.00,0.0024
3575.00,0.0024
3574.00,0.0024
3573.00,0.0025
3572.00,0.0025
3571.00,0.0025
3570.00,0.0025
3569.00,0.0025
3568.00,0.0025
3567.00,0.0026
3566.00,0.0026
3565.00,0.0026
3564.00,0.0026
3563.00,0.0026
3562.00,0.0026
3561.00,0.0026
3560.00,0.0026
3559.00,0.0027
3558.00,0.0027
3557.00,0.0027
3556.00,0.0027
3555.00,0.0027
3554.00,0.0028
3553.00,0.0028
3552.00,0.0028
3551.00,0.0028
3550.00,0.0028
3549.00,0.0028
3548.00,0.0028
3547.00,0.0029
3546.00,0.0029
3545.00,0.0029
3544.00,0.0029
3543.00,0.0030
3542.00,0.0030
3541.00,0.0030
3540.00,0.0030
3539.00,0.0030
3538.00,0.0030
3537.00,0.0030
3536.00,0.0030
3535.00,0.0030
3534.00,0.0031
3533.00,0.0031
3532.00,0.0032
3531.00,0.0033
3530.00,0.0033
3529.00,0.0033
3528.00,0.0033
3527.00,0.0033
3526.00,0.0033
3525.00,0.0033
3524.00,0.0033
3523.00,0.0033
3522.00,0.0033
3521.00,0.0033
3520.00,0.0033
3519.00,0.0032
3518.00,0.0032
3517.00,0.0033
3516.00,0.0033
3515.00,0.0034
3514.00,0.0035
3513.00,0.0035
3512.00,0.0036
3511.00,0.0036
3510.00,0.0036
3509.00,0.0036
3508.00,0.0036
3507.00,0.0036
3506.00,0.0036
3505.00,0.0036
3504.00,0.0036
3503.00,0.0036
3502.00,0.0036
3501.00,0.0036
3500.00,0.0037
3499.00,0.0037
3498.00,0.0036
3497.00,0.0036
3496.00,0.0036
3495.00,0.0036
3494.00,0.0037
3493.00,0.0037
3492.00,0.0038
3491.00,0.0038
3490.00,0.0038
3489.00,0.0039
3488.00,0.0040
3487.00,0.0040
3486.00,0.0040
3485.00,0.0040
3484.00,0.0039
3483.00,0.0039
3482.00,0.0039
3481.00,0.0040
3480.00,0.0041
3479.00,0.0041
3478.00,0.0041
3477.00,0.0041
3476.00,0.0041
3475.00,0.0041
3474.00,0.0041
3473.00,0.0041
3472.00,0.0041
3471.00,0.0041
3470.00,0.0042
3469.00,0.0042
3468.00,0.0042
3467.00,0.0042
3466.00,0.0042
3465.00,0.0042
3464.00,0.0042
3463.00,0.0042
3462.00,0.0042
3461.00,0.0042
3460.00,0.0043
3459.00,0.0043
3458.00,0.0043
3457.00,0.0043
3456.00,0.0044
3455.00,0.0044
3454.00,0.0044
3453.00,0.0044
3452.00,0.0044
3451.00,0.0044
3450.00,0.0044
3449.00,0.0045
3448.00,0.0045
3447.00,0.0045
3446.00,0.0046
3445.00,0.0046
3444.00,0.0046
3443.00,0.0046
3442.00,0.0046
3441.00,0.0046
3440.00,0.0047
3439.00,0.0047
3438.00,0.0048
3437.00,0.0048
3436.00,0.0048
3435.00,0.0048
3434.00,0.0048
3433.00,0.0048
3432.00,0.0048
3431.00,0.0048
3430.00,0.0049
3429.00,0.0049
3428.00,0.0049
3427.00,0.0049
3426.00,0.0049
3425.00,0.0049
3424.00,0.0050
3423.00,0.0050
3422.00,0.0051
3421.00,0.0051
3420.00,0.0051
3419.00,0.0051
3418.00,0.0051
3417.00,0.0051
3416.00,0.0051
3415.00,0.0051
3414.00,0.0052
3413.00,0.0052
3412.00,0.0052
3411.00,0.0052
3410.00,0.0052
3409.00,0.0052
3408.00,0.0052
3407.00,0.0052
3406.00,0.0052
3405.00,0.0052
3404.00,0.0052
3403.00,0.0052
3402.00,0.0053
3401.00,0.0053
3400.00,0.0053
3399.00,0.0053
3398.00,0.0054
3397.00,0.0054
3396.00,0.0054
3395.00,0.0055
3394.00,0.0055
3393.00,0.0055
3392.00,0.0055
3391.00,0.0054
3390.00,0.0054
3389.00,0.0054
3388.00,0.0054
3387.00,0.0054
3386.00,0.0054
3385.00,0.0054
3384.00,0.0054
3383.00,0.0054
3382.00,0.0054
3381.00,0.0054
3380.00,0.0054
3379.00,0.0054
3378.00,0.0054
3377.00,0.0054
3376.00,0.0055
3375.00,0.0056
3374.00,0.0056
3373.00,0.0056
3372.00,0.0056
3371.00,0.0056
3370.00,0.0055
3369.00,0.0055
3368.00,0.0055
3367.00,0.0056
3366.00,0.0056
3365.00,0.0056
3364.00,0.0056
3363.00,0.0056
3362.00,0.0056
3361.00,0.0056
3360.00,0.0056
3359.00,0.0056
3358.00,0.0056
3357.00,0.0057
3356.00,0.0057
3355.00,0.0057
3354.00,0.0057
3353.00,0.0057
3352.00,0.0057
3351.00,0.0057
3350.00,0.0058
3349.00,0.0058
3348.00,0.0058
3347.00,0.0057
3346.00,0.0057
3345.00,0.0057
3344.00,0.0056
3343.00,0.0056
3342.00,0.0057
3341.00,0.0057
3340.00,0.0057
3339.00,0.0057
3338.00,0.0057
3337.00,0.0057
3336.00,0.0057
3335.00,0.0057
3334.00,0.0057
3333.00,0.0056
3332.00,0.0056
3331.00,0.0056
3330.00,0.0056
3329.00,0.0056
3328.00,0.0056
3327.00,0.0056
3326.00,0.0056
3325.00,0.0056
3324.00,0.0056
3323.00,0.0056
3322.00,0.0056
3321.00,0.0056
3320.00,0.0056
3319.00,0.0056
3318.00,0.0056
3317.00,0.0056
3316.00,0.0057
3315.00,0.0057
3314.00,0.0058
3313.00,0.0058
3312.00,0.0057
3311.00,0.0057
3310.00,0.0057
3309.00,0.0057
3308.00,0.0058
3307.00,0.0058
3306.00,0.0058
3305.00,0.0058
3304.00,0.0057
3303.00,0.0057
3302.00,0.0057
3301.00,0.0057
3300.00,0.0056
3299.00,0.0056
3298.00,0.0056
3297.00,0.0056
3296.00,0.0055
3295.00,0.0055
3294.00,0.0055
3293.00,0.0056
3292.00,0.0056
3291.00,0.0056
3290.00,0.0056
3289.00,0.0056
3288.00,0.0056
3287.00,0.0056
3286.00,0.0056
3285.00,0.0056
3284.00,0.0055
3283.00,0.0055
3282.00,0.0054
3281.00,0.0054
3280.00,0.0054
3279.00,0.0054
3278.00,0.0054
3277.00,0.0054
3276.00,0.0054
3275.00,0.0054
3274.00,0.0053
3273.00,0.0053
3272.00,0.0053
3271.00,0.0053
3270.00,0.0053
3269.00,0.0053
3268.00,0.0052
3267.00,0.0052
3266.00,0.0052
3265.00,0.0052
3264.00,0.0052
3263.00,0.0052
3262.00,0.0052
3261.00,0.0052
3260.00,0.0052
3259.00,0.0052
3258.00,0.0051
3257.00,0.0051
3256.00,0.0051
3255.00,0.0051
3254.00,0.0051
3253.00,0.0051
3252.00,0.0051
3251.00,0.0051
3250.00,0.0050
3249.00,0.0050
3248.00,0.0050
3247.00,0.0050
3246.00,0.0050
3245.00,0.0050
3244.00,0.0050
3243.00,0.0050
3242.00,0.0049
3241.00,0.0049
3240.00,0.0049
3239.00,0.0049
3238.00,0.0049
3237.00,0.0050
3236.00,0.0050
3235.00,0.0050
3234.00,0.0050
3233.00,0.0050
3232.00,0.0050
3231.00,0.0050
3230.00,0.0050
3229.00,0.0050
3228.00,0.0050
3227.00,0.0051
3226.00,0.0051
3225.00,0.0051
3224.00,0.0051
3223.00,0.0051
3222.00,0.0052
3221.00,0.0052
3220.00,0.0052
3219.00,0.0052
3218.00,0.0053
3217.00,0.0053
3216.00,0.0053
3215.00,0.0053
3214.00,0.0053
3213.00,0.0053
3212.00,0.0053
3211.00,0.0053
3210.00,0.0053
3209.00,0.0054
3208.00,0.0054
3207.00,0.0054
3206.00,0.0054
3205.00,0.0054
3204.00,0.0054
3203.00,0.0054
3202.00,0.0054
3201.00,0.0054
3200.00,0.0054
3199.00,0.0054
3198.00,0.0054
3197.00,0.0054
3196.00,0.0054
3195.00,0.0053
3194.00,0.0053
3193.00,0.0054
3192.00,0.0054
3191.00,0.0053
3190.00,0.0053
3189.00,0.0053
3188.00,0.0053
3187.00,0.0052
3186.00,0.0052
3185.00,0.0052
3184.00,0.0052
3183.00,0.0052
3182.00,0.0052
3181.00,0.0052
3180.00,0.0052
3179.00,0.0052
3178.00,0.0051
3177.00,0.0051
3176.00,0.0051
3175.00,0.0051
3174.00,0.0051
3173.00,0.0051
3172.00,0.0051
3171.00,0.0051
3170.00,0.0051
3169.00,0.0050
3168.00,0.0050
3167.00,0.0049
3166.00,0.0049
3165.00,0.0049
3164.00,0.0049
3163.00,0.0049
3162.00,0.0049
3161.00,0.0049
3160.00,0.0049
3159.00,0.0049
3158.00,0.0049
3157.00,0.0049
3156.00,0.0049
3155.00,0.0049
3154.00,0.0049
3153.00,0.0049
3152.00,0.0049
3151.00,0.0049
3150.00,0.0049
3149.00,0.0049
3148.00,0.0049
3147.00,0.0049
3146.00,0.0049
3145.00,0.0049
3144.00,0.0049
3143.00,0.0049
3142.00,0.0049
3141.00,0.0049
3140.00,0.0048
3139.00,0.0048
3138.00,0.0048
3137.00,0.0047
3136.00,0.0047
3135.00,0.0047
3134.00,0.0047
3133.00,0.0046
3132.00,0.0046
3131.00,0.0045
3130.00,0.0045
3129.00,0.0045
3128.00,0.0045
3127.00,0.0045
3126.00,0.0045
3125.00,0.0045
3124.00,0.0044
3123.00,0.0044
3122.00,0.0043
3121.00,0.0043
3120.00,0.0043
3119.00,0.0043
3118.00,0.0043
3117.00,0.0042
3116.00,0.0042
3115.00,0.0042
3114.00,0.0042
3113.00,0.0042
3112.00,0.0042
3111.00,0.0042
3110.00,0.0043
3109.00,0.0043
3108.00,0.0043
3107.00,0.0042
3106.00,0.0042
3105.00,0.0042
3104.00,0.0042
3103.00,0.0041
3102.00,0.0041
3101.00,0.0041
3100.00,0.0041
3099.00,0.0042
3098.00,0.0042
3097.00,0.0042
3096.00,0.0042
3095.00,0.0042
3094.00,0.0041
3093.00,0.0041
3092.00,0.0041
3091.00,0.0041
3090.00,0.0041
3089.00,0.0041
3088.00,0.0041
3087.00,0.0041
3086.00,0.0040
3085.00,0.0040
3084.00,0.0040
3083.00,0.0040
3082.00,0.0040
3081.00,0.0040
3080.00,0.0040
3079.00,0.0040
3078.00,0.0040
3077.00,0.0040
3076.00,0.0041
3075.00,0.0041
3074.00,0.0041
3073.00,0.0041
3072.00,0.0041
3071.00,0.0041
3070.00,0.0041
3069.00,0.0041
3068.00,0.0041
3067.00,0.0041
3066.00,0.0041
3065.00,0.0042
3064.00,0.0042
3063.00,0.0042
3062.00,0.0042
3061.00,0.0042
3060.00,0.0042
3059.00,0.0042
3058.00,0.0042
3057.00,0.0042
3056.00,0.0042
3055.00,0.0042
3054.00,0.0042
3053.00,0.0042
3052.00,0.0042
3051.00,0.0043
3050.00,0.0043
3049.00,0.0043
3048.00,0.0044
3047.00,0.0044
3046.00,0.0043
3045.00,0.0043
3044.00,0.0043
3043.00,0.0043
3042.00,0.0043
3041.00,0.0044
3040.00,0.0044
3039.00,0.0044
3038.00,0.0045
3037.00,0.0045
3036.00,0.0045
3035.00,0.0045
3034.00,0.0045
3033.00,0.0046
3032.00,0.0047
3031.00,0.0047
3030.00,0.0048
3029.00,0.0048
3028.00,0.0049
3027.00,0.0049
3026.00,0.0050
3025.00,0.0050
3024.00,0.0050
3023.00,0.0050
3022.00,0.0051
3021.00,0.0051
3020.00,0.0052
3019.00,0.0053
3018.00,0.0054
3017.00,0.0055
3016.00,0.0056
3015.00,0.0057
3014.00,0.0058
3013.00,0.0058
3012.00,0.0059
3011.00,0.0060
3010.00,0.0062
3009.00,0.0064
3008.00,0.0065
3007.00,0.0067
3006.00,0.0068
3005.00,0.0069
3004.00,0.0070
3003.00,0.0072
3002.00,0.0073
3001.00,0.0075
3000.00,0.0078
2999.00,0.0080
2998.00,0.0083
2997.00,0.0086
2996.00,0.0090
2995.00,0.0093
2994.00,0.0097
2993.00,0.0101
2992.00,0.0106
2991.00,0.0112
2990.00,0.0119
2989.00,0.0126
2988.00,0.0134
2987.00,0.0142
2986.00,0.0152
2985.00,0.0162
2984.00,0.0174
2983.00,0.0186
2982.00,0.0201
2981.00,0.0219
2980.00,0.0238
2979.00,0.0261
2978.00,0.0286
2977.00,0.0315
2976.00,0.0348
2975.00,0.0385
2974.00,0.0427
2973.00,0.0475
2972.00,0.0528
2971.00,0.0587
2970.00,0.0653
2969.00,0.0724
2968.00,0.0801
2967.00,0.0883
2966.00,0.0968
2965.00,0.1055
2964.00,0.1139
2963.00,0.1218
2962.00,0.1286
2961.00,0.1343
2960.00,0.1388
2959.00,0.1425
2958.00,0.1459
2957.00,0.1495
2956.00,0.1538
2955.00,0.1589
2954.00,0.1646
2953.00,0.1705
2952.00,0.1756
2951.00,0.1789
2950.00,0.1794
2949.00,0.1764
2948.00,0.1699
2947.00,0.1605
2946.00,0.1490
2945.00,0.1369
2944.00,0.1253
2943.00,0.1153
2942.00,0.1074
2941.00,0.1018
2940.00,0.0985
2939.00,0.0973
2938.00,0.0980
2937.00,0.1004
2936.00,0.1042
2935.00,0.1094
2934.00,0.1158
2933.00,0.1233
2932.00,0.1316
2931.00,0.1407
2930.00,0.1502
2929.00,0.1599
2928.00,0.1694
2927.00,0.1787
2926.00,0.1875
2925.00,0.1959
2924.00,0.2040
2923.00,0.2120
2922.00,0.2198
2921.00,0.2272
2920.00,0.2335
2919.00,0.2381
2918.00,0.2401
2917.00,0.2392
2916.00,0.2353
2915.00,0.2290
2914.00,0.2211
2913.00,0.2126
2912.00,0.2041
2911.00,0.1963
2910.00,0.1893
2909.00,0.1829
2908.00,0.1770
2907.00,0.1713
2906.00,0.1656
2905.00,0.1598
2904.00,0.1539
2903.00,0.1478
2902.00,0.1418
2901.00,0.1358
2900.00,0.1301
2899.00,0.1246
2898.00,0.1194
2897.00,0.1148
2896.00,0.1106
2895.00,0.1070
2894.00,0.1041
2893.00,0.1017
2892.00,0.0999
2891.00,0.0986
2890.00,0.0979
2889.00,0.0976
2888.00,0.0976
2887.00,0.0980
2886.00,0.0986
2885.00,0.0996
2884.00,0.1010
2883.00,0.1028
2882.00,0.1050
2881.00,0.1073
2880.00,0.1095
2879.00,0.1113
2878.00,0.1123
2877.00,0.1125
2876.00,0.1121
2875.00,0.1114
2874.00,0.1109
2873.00,0.1110
2872.00,0.1117
2871.00,0.1130
2870.00,0.1146
2869.00,0.1160
2868.00,0.1165
2867.00,0.1155
2866.00,0.1124
2865.00,0.1071
2864.00,0.1001
2863.00,0.0921
2862.00,0.0840
2861.00,0.0767
2860.00,0.0707
2859.00,0.0660
2858.00,0.0628
2857.00,0.0606
2856.00,0.0595
2855.00,0.0591
2854.00,0.0594
2853.00,0.0601
2852.00,0.0613
2851.00,0.0628
2850.00,0.0646
2849.00,0.0668
2848.00,0.0695
2847.00,0.0730
2846.00,0.0772
2845.00,0.0822
2844.00,0.0880
2843.00,0.0942
2842.00,0.1004
2841.00,0.1062
2840.00,0.1107
2839.00,0.1134
2838.00,0.1135
2837.00,0.1107
2836.00,0.1050
2835.00,0.0971
2834.00,0.0877
2833.00,0.0779
2832.00,0.0686
2831.00,0.0602
2830.00,0.0532
2829.00,0.0474
2828.00,0.0427
2827.00,0.0388
2826.00,0.0357
2825.00,0.0331
2824.00,0.0309
2823.00,0.0291
2822.00,0.0275
2821.00,0.0262
2820.00,0.0250
2819.00,0.0239
2818.00,0.0230
2817.00,0.0222
2816.00,0.0214
2815.00,0.0208
2814.00,0.0202
2813.00,0.0197
2812.00,0.0192
2811.00,0.0187
2810.00,0.0181
2809.00,0.0176
2808.00,0.0170
2807.00,0.0164
2806.00,0.0158
2805.00,0.0152
2804.00,0.0145
2803.00,0.0140
2802.00,0.0135
2801.00,0.0131
2800.00,0.0127
2799.00,0.0124
2798.00,0.0122
2797.00,0.0119
2796.00,0.0117
2795.00,0.0114
2794.00,0.0112
2793.00,0.0109
2792.00,0.0107
2791.00,0.0104
2790.00,0.0102
2789.00,0.0099
2788.00,0.0096
2787.00,0.0093
2786.00,0.0090
2785.00,0.0088
2784.00,0.0086
2783.00,0.0084
2782.00,0.0082
2781.00,0.0080
2780.00,0.0078
2779.00,0.0077
2778.00,0.0076
2777.00,0.0075
2776.00,0.0073
2775.00,0.0072
2774.00,0.0071
2773.00,0.0070
2772.00,0.0070
2771.00,0.0070
2770.00,0.0069
2769.00,0.0069
2768.00,0.0068
2767.00,0.0068
2766.00,0.0067
2765.00,0.0067
2764.00,0.0067
2763.00,0.0066
2762.00,0.0066
2761.00,0.0066
2760.00,0.0066
2759.00,0.0065
2758.00,0.0065
2757.00,0.0065
2756.00,0.0065
2755.00,0.0065
2754.00,0.0065
2753.00,0.0064
2752.00,0.0064
2751.00,0.0064
2750.00,0.0064
2749.00,0.0064
2748.00,0.0064
2747.00,0.0064
2746.00,0.0064
2745.00,0.0065
2744.00,0.0066
2743.00,0.0067
2742.00,0.0068
2741.00,0.0069
2740.00,0.0070
2739.00,0.0071
2738.00,0.0072
2737.00,0.0073
2736.00,0.0074
2735.00,0.0075
2734.00,0.0076
2733.00,0.0078
2732.00,0.0079
2731.00,0.0081
2730.00,0.0083
2729.00,0.0086
2728.00,0.0089
2727.00,0.0091
2726.00,0.0094
2725.00,0.0096
2724.00,0.0097
2723.00,0.0097
2722.00,0.0097
2721.00,0.0095
2720.00,0.0092
2719.00,0.0090
2718.00,0.0087
2717.00,0.0084
2716.00,0.0081
2715.00,0.0079
2714.00,0.0076
2713.00,0.0074
2712.00,0.0072
2711.00,0.0070
2710.00,0.0068
2709.00,0.0067
2708.00,0.0065
2707.00,0.0064
2706.00,0.0063
2705.00,0.0062
2704.00,0.0061
2703.00,0.0060
2702.00,0.0060
2701.00,0.0059
2700.00,0.0058
2699.00,0.0058
2698.00,0.0058
2697.00,0.0058
2696.00,0.0058
2695.00,0.0058
2694.00,0.0058
2693.00,0.0058
2692.00,0.0058
2691.00,0.0058
2690.00,0.0058
2689.00,0.0058
2688.00,0.0058
2687.00,0.0057
2686.00,0.0057
2685.00,0.0057
2684.00,0.0057
2683.00,0.0057
2682.00,0.0057
2681.00,0.0057
2680.00,0.0057
2679.00,0.0057
2678.00,0.0058
2677.00,0.0058
2676.00,0.0058
2675.00,0.0058
2674.00,0.0057
2673.00,0.0057
2672.00,0.0056
2671.00,0.0056
2670.00,0.0056
2669.00,0.0056
2668.00,0.0056
2667.00,0.0057
2666.00,0.0057
2665.00,0.0058
2664.00,0.0058
2663.00,0.0059
2662.00,0.0059
2661.00,0.0059
2660.00,0.0060
2659.00,0.0060
2658.00,0.0060
2657.00,0.0060
2656.00,0.0060
2655.00,0.0059
2654.00,0.0059
2653.00,0.0058
2652.00,0.0057
2651.00,0.0057
2650.00,0.0056
2649.00,0.0056
2648.00,0.0056
2647.00,0.0056
2646.00,0.0055
2645.00,0.0055
2644.00,0.0055
2643.00,0.0054
2642.00,0.0054
2641.00,0.0054
2640.00,0.0053
2639.00,0.0053
2638.00,0.0052
2637.00,0.0052
2636.00,0.0052
2635.00,0.0051
2634.00,0.0052
2633.00,0.0052
2632.00,0.0052
2631.00,0.0052
2630.00,0.0053
2629.00,0.0053
2628.00,0.0053
2627.00,0.0053
2626.00,0.0053
2625.00,0.0053
2624.00,0.0053
2623.00,0.0053
2622.00,0.0054
2621.00,0.0054
2620.00,0.0054
2619.00,0.0054
2618.00,0.0054
2617.00,0.0053
2616.00,0.0053
2615.00,0.0053
2614.00,0.0053
2613.00,0.0052
2612.00,0.0052
2611.00,0.0052
2610.00,0.0051
2609.00,0.0051
2608.00,0.0050
2607.00,0.0049
2606.00,0.0048
2605.00,0.0047
2604.00,0.0046
2603.00,0.0046
2602.00,0.0045
2601.00,0.0045
2600.00,0.0046
2599.00,0.0046
2598.00,0.0046
2597.00,0.0047
2596.00,0.0047
2595.00,0.0047
2594.00,0.0047
2593.00,0.0047
2592.00,0.0047
2591.00,0.0047
2590.00,0.0047
2589.00,0.0048
2588.00,0.0049
2587.00,0.0049
2586.00,0.0050
2585.00,0.0051
2584.00,0.0051
2583.00,0.0052
2582.00,0.0052
2581.00,0.0052
2580.00,0.0051
2579.00,0.0050
2578.00,0.0049
2577.00,0.0049
2576.00,0.0048
2575.00,0.0047
2574.00,0.0046
2573.00,0.0044
2572.00,0.0043
2571.00,0.0042
2570.00,0.0041
2569.00,0.0041
2568.00,0.0041
2567.00,0.0041
2566.00,0.0040
2565.00,0.0039
2564.00,0.0038
2563.00,0.0038
2562.00,0.0037
2561.00,0.0037
2560.00,0.0038
2559.00,0.0038
2558.00,0.0039
2557.00,0.0039
2556.00,0.0038
2555.00,0.0037
2554.00,0.0037
2553.00,0.0036
2552.00,0.0036
2551.00,0.0036
2550.00,0.0035
2549.00,0.0035
2548.00,0.0034
2547.00,0.0034
2546.00,0.0033
2545.00,0.0032
2544.00,0.0032
2543.00,0.0032
2542.00,0.0031
2541.00,0.0031
2540.00,0.0031
2539.00,0.0031
2538.00,0.0031
2537.00,0.0031
2536.00,0.0031
2535.00,0.0031
2534.00,0.0031
2533.00,0.0031
2532.00,0.0031
2531.00,0.0031
2530.00,0.0031
2529.00,0.0031
2528.00,0.0031
2527.00,0.0031
2526.00,0.0030
2525.00,0.0030
2524.00,0.0030
2523.00,0.0030
2522.00,0.0030
2521.00,0.0030
2520.00,0.0029
2519.00,0.0029
2518.00,0.0028
2517.00,0.0028
2516.00,0.0027
2515.00,0.0027
2514.00,0.0027
2513.00,0.0026
2512.00,0.0026
2511.00,0.0026
2510.00,0.0027
2509.00,0.0027
2508.00,0.0027
2507.00,0.0027
2506.00,0.0026
2505.00,0.0026
2504.00,0.0025
2503.00,0.0025
2502.00,0.0026
2501.00,0.0026
2500.00,0.0026
2499.00,0.0026
2498.00,0.0026
2497.00,0.0025
2496.00,0.0025
2495.00,0.0026
2494.00,0.0026
2493.00,0.0026
2492.00,0.0026
2491.00,0.0026
2490.00,0.0026
2489.00,0.0025
2488.00,0.0025
2487.00,0.0025
2486.00,0.0025
2485.00,0.0025
2484.00,0.0026
2483.00,0.0026
2482.00,0.0025
2481.00,0.0025
2480.00,0.0025
2479.00,0.0025
2478.00,0.0025
2477.00,0.0025
2476.00,0.0024
2475.00,0.0024
2474.00,0.0024
2473.00,0.0024
2472.00,0.0024
2471.00,0.0024
2470.00,0.0023
2469.00,0.0023
2468.00,0.0022
2467.00,0.0022
2466.00,0.0022
2465.00,0.0023
2464.00,0.0024
2463.00,0.0024
2462.00,0.0025
2461.00,0.0025
2460.00,0.0025
2459.00,0.0025
2458.00,0.0025
2457.00,0.0026
2456.00,0.0026
2455.00,0.0026
2454.00,0.0025
2453.00,0.0025
2452.00,0.0024
2451.00,0.0025
2450.00,0.0025
2449.00,0.0025
2448.00,0.0025
2447.00,0.0025
2446.00,0.0025
2445.00,0.0025
2444.00,0.0024
2443.00,0.0024
2442.00,0.0024
2441.00,0.0024
2440.00,0.0024
2439.00,0.0024
2438.00,0.0024
2437.00,0.0024
2436.00,0.0024
2435.00,0.0024
2434.00,0.0024
2433.00,0.0024
2432.00,0.0024
2431.00,0.0024
2430.00,0.0024
2429.00,0.0025
2428.00,0.0025
2427.00,0.0025
2426.00,0.0025
2425.00,0.0025
2424.00,0.0025
2423.00,0.0024
2422.00,0.0024
2421.00,0.0024
2420.00,0.0024
2419.00,0.0023
2418.00,0.0023
2417.00,0.0023
2416.00,0.0023
2415.00,0.0023
2414.00,0.0023
2413.00,0.0023
2412.00,0.0023
2411.00,0.0023
2410.00,0.0024
2409.00,0.0024
2408.00,0.0024
2407.00,0.0023
2406.00,0.0022
2405.00,0.0022
2404.00,0.0022
2403.00,0.0022
2402.00,0.0023
2401.00,0.0022
2400.00,0.0021
2399.00,0.0021
2398.00,0.0021
2397.00,0.0021
2396.00,0.0022
2395.00,0.0022
2394.00,0.0022
2393.00,0.0022
2392.00,0.0022
2391.00,0.0022
2390.00,0.0022
2389.00,0.0021
2388.00,0.0021
2387.00,0.0020
2386.00,0.0019
2385.00,0.0019
2384.00,0.0018
2383.00,0.0018
2382.00,0.0017
2381.00,0.0017
2380.00,0.0016
2379.00,0.0016
2378.00,0.0016
2377.00,0.0017
2376.00,0.0017
2375.00,0.0017
2374.00,0.0018
2373.00,0.0018
2372.00,0.0018
2371.00,0.0018
2370.00,0.0018
2369.00,0.0017
2368.00,0.0017
2367.00,0.0017
2366.00,0.0017
2365.00,0.0017
2364.00,0.0018
2363.00,0.0018
2362.00,0.0018
2361.00,0.0018
2360.00,0.0018
2359.00,0.0019
2358.00,0.0019
2357.00,0.0019
2356.00,0.0018
2355.00,0.0018
2354.00,0.0017
2353.00,0.0017
2352.00,0.0018
2351.00,0.0019
2350.00,0.0019
2349.00,0.0020
2348.00,0.0020
2347.00,0.0020
2346.00,0.0020
2345.00,0.0020
2344.00,0.0021
2343.00,0.0021
2342.00,0.0021
2341.00,0.0021
2340.00,0.0022
2339.00,0.0022
2338.00,0.0022
2337.00,0.0022
2336.00,0.0023
2335.00,0.0022
2334.00,0.0022
2333.00,0.0021
2332.00,0.0020
2331.00,0.0020
2330.00,0.0020
2329.00,0.0021
2328.00,0.0023
2327.00,0.0026
2326.00,0.0031
2325.00,0.0034
2324.00,0.0036
2323.00,0.0035
2322.00,0.0033
2321.00,0.0031
2320.00,0.0030
2319.00,0.0029
2318.00,0.0028
2317.00,0.0028
2316.00,0.0027
2315.00,0.0026
2314.00,0.0025
2313.00,0.0024
2312.00,0.0022
2311.00,0.0022
2310.00,0.0022
2309.00,0.0022
2308.00,0.0023
2307.00,0.0024
2306.00,0.0024
2305.00,0.0024
2304.00,0.0024
2303.00,0.0025
2302.00,0.0025
2301.00,0.0026
2300.00,0.0026
2299.00,0.0027
2298.00,0.0027
2297.00,0.0028
2296.00,0.0028
2295.00,0.0028
2294.00,0.0027
2293.00,0.0028
2292.00,0.0029
2291.00,0.0030
2290.00,0.0031
2289.00,0.0032
2288.00,0.0033
2287.00,0.0034
2286.00,0.0034
2285.00,0.0034
2284.00,0.0034
2283.00,0.0033
2282.00,0.0032
2281.00,0.0031
2280.00,0.0030
2279.00,0.0029
2278.00,0.0029
2277.00,0.0029
2276.00,0.0030
2275.00,0.0030
2274.00,0.0030
2273.00,0.0029
2272.00,0.0028
2271.00,0.0027
2270.00,0.0026
2269.00,0.0026
2268.00,0.0026
2267.00,0.0025
2266.00,0.0024
2265.00,0.0023
2264.00,0.0023
2263.00,0.0024
2262.00,0.0024
2261.00,0.0025
2260.00,0.0026
2259.00,0.0027
2258.00,0.0028
2257.00,0.0029
2256.00,0.0029
2255.00,0.0027
2254.00,0.0025
2253.00,0.0024
2252.00,0.0023
2251.00,0.0023
2250.00,0.0024
2249.00,0.0024
2248.00,0.0025
2247.00,0.0024
2246.00,0.0024
2245.00,0.0023
2244.00,0.0023
2243.00,0.0023
2242.00,0.0023
2241.00,0.0024
2240.00,0.0025
2239.00,0.0025
2238.00,0.0026
2237.00,0.0027
2236.00,0.0028
2235.00,0.0028
2234.00,0.0028
2233.00,0.0027
2232.00,0.0025
2231.00,0.0024
2230.00,0.0022
2229.00,0.0022
2228.00,0.0021
2227.00,0.0020
2226.00,0.0020
2225.00,0.0019
2224.00,0.0020
2223.00,0.0020
2222.00,0.0020
2221.00,0.0020
2220.00,0.0019
2219.00,0.0018
2218.00,0.0017
2217.00,0.0017
2216.00,0.0017
2215.00,0.0017
2214.00,0.0017
2213.00,0.0017
2212.00,0.0017
2211.00,0.0016
2210.00,0.0016
2209.00,0.0017
2208.00,0.0019
2207.00,0.0021
2206.00,0.0023
2205.00,0.0024
2204.00,0.0024
2203.00,0.0023
2202.00,0.0022
2201.00,0.0021
2200.00,0.0021
2199.00,0.0021
2198.00,0.0020
2197.00,0.0020
2196.00,0.0021
2195.00,0.0024
2194.00,0.0026
2193.00,0.0027
2192.00,0.0027
2191.00,0.0025
2190.00,0.0023
2189.00,0.0023
2188.00,0.0025
2187.00,0.0027
2186.00,0.0028
2185.00,0.0028
2184.00,0.0027
2183.00,0.0025
2182.00,0.0021
2181.00,0.0017
2180.00,0.0016
2179.00,0.0016
2178.00,0.0018
2177.00,0.0018
2176.00,0.0015
2175.00,0.0010
2174.00,0.0008
2173.00,0.0008
2172.00,0.0012
2171.00,0.0017
2170.00,0.0022
2169.00,0.0027
2168.00,0.0030
2167.00,0.0032
2166.00,0.0033
2165.00,0.0036
2164.00,0.0038
2163.00,0.0039
2162.00,0.0037
2161.00,0.0029
2160.00,0.0014
2159.00,-0.0002
2158.00,-0.0013
2157.00,-0.0015
2156.00,-0.0011
2155.00,-0.0006
2154.00,-0.0002
2153.00,-0.0000
2152.00,-0.0000
2151.00,-0.0001
2150.00,-0.0000
2149.00,0.0000
2148.00,0.0000
2147.00,-0.0001
2146.00,-0.0003
2145.00,-0.0005
2144.00,-0.0006
2143.00,-0.0006
2142.00,-0.0005
2141.00,-0.0003
2140.00,-0.0002
2139.00,-0.0001
2138.00,-0.0001
2137.00,-0.0001
2136.00,-0.0002
2135.00,-0.0004
2134.00,-0.0006
2133.00,-0.0005
2132.00,-0.0004
2131.00,-0.0002
2130.00,-0.0001
2129.00,-0.0000
2128.00,0.0001
2127.00,0.0002
2126.00,0.0004
2125.00,0.0007
2124.00,0.0009
2123.00,0.0009
2122.00,0.0009
2121.00,0.0008
2120.00,0.0008
2119.00,0.0009
2118.00,0.0011
2117.00,0.0013
2116.00,0.0015
2115.00,0.0016
2114.00,0.0017
2113.00,0.0017
2112.00,0.0017
2111.00,0.0017
2110.00,0.0017
2109.00,0.0017
2108.00,0.0017
2107.00,0.0018
2106.00,0.0018
2105.00,0.0019
2104.00,0.0018
2103.00,0.0017
2102.00,0.0016
2101.00,0.0016
2100.00,0.0015
2099.00,0.0014
2098.00,0.0012
2097.00,0.0010
2096.00,0.0007
2095.00,0.0005
2094.00,0.0004
2093.00,0.0004
2092.00,0.0005
2091.00,0.0007
2090.00,0.0010
2089.00,0.0013
2088.00,0.0015
2087.00,0.0016
2086.00,0.0016
2085.00,0.0015
2084.00,0.0014
2083.00,0.0014
2082.00,0.0015
2081.00,0.0017
2080.00,0.0019
2079.00,0.0020
2078.00,0.0019
2077.00,0.0019
2076.00,0.0019
2075.00,0.0017
2074.00,0.0015
2073.00,0.0013
2072.00,0.0010
2071.00,0.0009
2070.00,0.0008
2069.00,0.0008
2068.00,0.0009
2067.00,0.0011
2066.00,0.0011
2065.00,0.0011
2064.00,0.0010
2063.00,0.0009
2062.00,0.0009
2061.00,0.0008
2060.00,0.0009
2059.00,0.0010
2058.00,0.0013
2057.00,0.0016
2056.00,0.0017
2055.00,0.0017
2054.00,0.0018
2053.00,0.0021
2052.00,0.0025
2051.00,0.0027
2050.00,0.0025
2049.00,0.0020
2048.00,0.0014
2047.00,0.0011
2046.00,0.0010
2045.00,0.0012
2044.00,0.0014
2043.00,0.0015
2042.00,0.0015
2041.00,0.0016
2040.00,0.0016
2039.00,0.0016
2038.00,0.0016
2037.00,0.0014
2036.00,0.0012
2035.00,0.0009
2034.00,0.0005
2033.00,0.0004
2032.00,0.0005
2031.00,0.0006
2030.00,0.0005
2029.00,0.0003
2028.00,0.0001
2027.00,0.0000
2026.00,0.0000
2025.00,0.0003
2024.00,0.0006
2023.00,0.0008
2022.00,0.0008
2021.00,0.0008
2020.00,0.0006
2019.00,0.0005
2018.00,0.0004
2017.00,0.0005
2016.00,0.0005
2015.00,0.0004
2014.00,0.0004
2013.00,0.0004
2012.00,0.0006
2011.00,0.0006
2010.00,0.0005
2009.00,0.0002
2008.00,-0.0002
2007.00,-0.0005
2006.00,-0.0005
2005.00,-0.0004
2004.00,-0.0001
2003.00,-0.0000
2002.00,-0.0001
2001.00,-0.0002
2000.00,-0.0002
1999.00,-0.0001
1998.00,-0.0001
1997.00,-0.0001
1996.00,-0.0001
1995.00,-0.0000
1994.00,0.0002
1993.00,0.0005
1992.00,0.0009
1991.00,0.0010
1990.00,0.0010
1989.00,0.0010
1988.00,0.0011
1987.00,0.0012
1986.00,0.0013
1985.00,0.0013
1984.00,0.0013
1983.00,0.0013
1982.00,0.0014
1981.00,0.0015
1980.00,0.0015
1979.00,0.0011
1978.00,0.0005
1977.00,0.0000
1976.00,-0.0001
1975.00,-0.0002
1974.00,-0.0002
1973.00,-0.0002
1972.00,-0.0001
1971.00,-0.0000
1970.00,-0.0001
1969.00,-0.0003
1968.00,-0.0003
1967.00,-0.0003
1966.00,-0.0003
1965.00,-0.0003
1964.00,-0.0003
1963.00,-0.0004
1962.00,-0.0004
1961.00,-0.0005
1960.00,-0.0005
1959.00,-0.0006
1958.00,-0.0007
1957.00,-0.0006
1956.00,-0.0004
1955.00,-0.0002
1954.00,-0.0001
1953.00,-0.0001
1952.00,-0.0002
1951.00,-0.0004
1950.00,-0.0005
1949.00,-0.0003
1948.00,-0.0001
1947.00,0.0000
1946.00,0.0001
1945.00,-0.0000
1944.00,-0.0001
1943.00,-0.0003
1942.00,-0.0004
1941.00,-0.0003
1940.00,-0.0002
1939.00,-0.0001
1938.00,0.0001
1937.00,0.0002
1936.00,0.0003
1935.00,0.0003
1934.00,0.0003
1933.00,0.0004
1932.00,0.0004
1931.00,0.0003
1930.00,0.0004
1929.00,0.0005
1928.00,0.0006
1927.00,0.0007
1926.00,0.0007
1925.00,0.0008
1924.00,0.0008
1923.00,0.0008
1922.00,0.0009
1921.00,0.0009
1920.00,0.0010
1919.00,0.0011
1918.00,0.0011
1917.00,0.0010
1916.00,0.0009
1915.00,0.0009
1914.00,0.0008
1913.00,0.0009
1912.00,0.0010
1911.00,0.0010
1910.00,0.0010
1909.00,0.0011
1908.00,0.0011
1907.00,0.0012
1906.00,0.0012
1905.00,0.0013
1904.00,0.0013
1903.00,0.0014
1902.00,0.0014
1901.00,0.0013
1900.00,0.0013
1899.00,0.0013
1898.00,0.0013
1897.00,0.0014
1896.00,0.0015
1895.00,0.0015
1894.00,0.0014
1893.00,0.0014
1892.00,0.0013
1891.00,0.0013
1890.00,0.0012
1889.00,0.0012
1888.00,0.0012
1887.00,0.0011
1886.00,0.0011
1885.00,0.0012
1884.00,0.0013
1883.00,0.0014
1882.00,0.0014
1881.00,0.0014
1880.00,0.0013
1879.00,0.0012
1878.00,0.0012
1877.00,0.0012
1876.00,0.0012
1875.00,0.0012
1874.00,0.0012
1873.00,0.0012
1872.00,0.0013
1871.00,0.0013
1870.00,0.0012
1869.00,0.0012
1868.00,0.0012
1867.00,0.0012
1866.00,0.0013
1865.00,0.0013
1864.00,0.0013
1863.00,0.0013
1862.00,0.0013
1861.00,0.0013
1860.00,0.0013
1859.00,0.0014
1858.00,0.0014
1857.00,0.0014
1856.00,0.0015
1855.00,0.0015
1854.00,0.0015
1853.00,0.0015
1852.00,0.0015
1851.00,0.0015
1850.00,0.0015
1849.00,0.0015
1848.00,0.0015
1847.00,0.0016
1846.00,0.0016
1845.00,0.0017
1844.00,0.0018
1843.00,0.0018
1842.00,0.0018
1841.00,0.0017
1840.00,0.0017
1839.00,0.0016
1838.00,0.0016
1837.00,0.0016
1836.00,0.0017
1835.00,0.0018
1834.00,0.0018
1833.00,0.0017
1832.00,0.0016
1831.00,0.0016
1830.00,0.0016
1829.00,0.0016
1828.00,0.0017
1827.00,0.0016
1826.00,0.0016
1825.00,0.0016
1824.00,0.0016
1823.00,0.0016
1822.00,0.0017
1821.00,0.0017
1820.00,0.0017
1819.00,0.0016
1818.00,0.0016
1817.00,0.0016
1816.00,0.0015
1815.00,0.0015
1814.00,0.0016
1813.00,0.0016
1812.00,0.0017
1811.00,0.0018
1810.00,0.0018
1809.00,0.0019
1808.00,0.0019
1807.00,0.0019
1806.00,0.0020
1805.00,0.0020
1804.00,0.0021
1803.00,0.0022
1802.00,0.0022
1801.00,0.0022
1800.00,0.0023
1799.00,0.0023
1798.00,0.0024
1797.00,0.0025
1796.00,0.0025
1795.00,0.0025
1794.00,0.0025
1793.00,0.0025
1792.00,0.0024
1791.00,0.0024
1790.00,0.0024
1789.00,0.0024
1788.00,0.0024
1787.00,0.0024
1786.00,0.0024
1785.00,0.0024
1784.00,0.0024
1783.00,0.0024
1782.00,0.0024
1781.00,0.0024
1780.00,0.0024
1779.00,0.0023
1778.00,0.0023
1777.00,0.0023
1776.00,0.0023
1775.00,0.0023
1774.00,0.0023
1773.00,0.0023
1772.00,0.0024
1771.00,0.0024
1770.00,0.0024
1769.00,0.0025
1768.00,0.0026
1767.00,0.0026
1766.00,0.0026
1765.00,0.0027
1764.00,0.0027
1763.00,0.0027
1762.00,0.0027
1761.00,0.0028
1760.00,0.0029
1759.00,0.0029
1758.00,0.0030
1757.00,0.0030
1756.00,0.0031
1755.00,0.0032
1754.00,0.0033
1753.00,0.0033
1752.00,0.0035
1751.00,0.0035
1750.00,0.0036
1749.00,0.0037
1748.00,0.0039
1747.00,0.0039
1746.00,0.0040
1745.00,0.0041
1744.00,0.0042
1743.00,0.0043
1742.00,0.0043
1741.00,0.0044
1740.00,0.0044
1739.00,0.0044
1738.00,0.0043
1737.00,0.0043
1736.00,0.0043
1735.00,0.0043
1734.00,0.0042
1733.00,0.0041
1732.00,0.0041
1731.00,0.0042
1730.00,0.0042
1729.00,0.0042
1728.00,0.0043
1727.00,0.0043
1726.00,0.0043
1725.00,0.0043
1724.00,0.0043
1723.00,0.0043
1722.00,0.0043
1721.00,0.0044
1720.00,0.0044
1719.00,0.0044
1718.00,0.0044
1717.00,0.0043
1716.00,0.0043
1715.00,0.0042
1714.00,0.0042
1713.00,0.0041
1712.00,0.0041
1711.00,0.0041
1710.00,0.0041
1709.00,0.0041
1708.00,0.0041
1707.00,0.0041
1706.00,0.0041
1705.00,0.0041
1704.00,0.0042
1703.00,0.0043
1702.00,0.0043
1701.00,0.0043
1700.00,0.0044
1699.00,0.0045
1698.00,0.0045
1697.00,0.0046
1696.00,0.0047
1695.00,0.0047
1694.00,0.0048
1693.00,0.0049
1692.00,0.0050
1691.00,0.0051
1690.00,0.0051
1689.00,0.0052
1688.00,0.0052
1687.00,0.0053
1686.00,0.0053
1685.00,0.0053
1684.00,0.0054
1683.00,0.0055
1682.00,0.0056
1681.00,0.0057
1680.00,0.0058
1679.00,0.0059
1678.00,0.0059
1677.00,0.0060
1676.00,0.0061
1675.00,0.0061
1674.00,0.0062
1673.00,0.0062
1672.00,0.0063
1671.00,0.0064
1670.00,0.0065
1669.00,0.0065
1668.00,0.0066
1667.00,0.0066
1666.00,0.0066
1665.00,0.0067
1664.00,0.0068
1663.00,0.0069
1662.00,0.0069
1661.00,0.0070
1660.00,0.0071
1659.00,0.0071
1658.00,0.0072
1657.00,0.0072
1656.00,0.0073
1655.00,0.0073
1654.00,0.0073
1653.00,0.0074
1652.00,0.0074
1651.00,0.0075
1650.00,0.0075
1649.00,0.0076
1648.00,0.0077
1647.00,0.0078
1646.00,0.0079
1645.00,0.0079
1644.00,0.0079
1643.00,0.0079
1642.00,0.0079
1641.00,0.0079
1640.00,0.0079
1639.00,0.0080
1638.00,0.0080
1637.00,0.0080
1636.00,0.0080
1635.00,0.0079
1634.00,0.0078
1633.00,0.0077
1632.00,0.0078
1631.00,0.0078
1630.00,0.0077
1629.00,0.0077
1628.00,0.0077
1627.00,0.0076
1626.00,0.0075
1625.00,0.0074
1624.00,0.0074
1623.00,0.0074
1622.00,0.0074
1621.00,0.0074
1620.00,0.0074
1619.00,0.0074
1618.00,0.0073
1617.00,0.0073
1616.00,0.0073
1615.00,0.0073
1614.00,0.0074
1613.00,0.0074
1612.00,0.0074
1611.00,0.0074
1610.00,0.0074
1609.00,0.0074
1608.00,0.0074
1607.00,0.0075
1606.00,0.0074
1605.00,0.0075
1604.00,0.0075
1603.00,0.0075
1602.00,0.0075
1601.00,0.0075
1600.00,0.0075
1599.00,0.0075
1598.00,0.0075
1597.00,0.0075
1596.00,0.0076
1595.00,0.0076
1594.00,0.0076
1593.00,0.0076
1592.00,0.0077
1591.00,0.0077
1590.00,0.0077
1589.00,0.0077
1588.00,0.0077
1587.00,0.0078
1586.00,0.0078
1585.00,0.0079
1584.00,0.0080
1583.00,0.0080
1582.00,0.0081
1581.00,0.0082
1580.00,0.0083
1579.00,0.0084
1578.00,0.0085
1577.00,0.0085
1576.00,0.0086
1575.00,0.0086
1574.00,0.0086
1573.00,0.0086
1572.00,0.0086
1571.00,0.0086
1570.00,0.0087
1569.00,0.0087
1568.00,0.0087
1567.00,0.0087
1566.00,0.0087
1565.00,0.0088
1564.00,0.0088
1563.00,0.0089
1562.00,0.0089
1561.00,0.0090
1560.00,0.0092
1559.00,0.0093
1558.00,0.0092
1557.00,0.0092
1556.00,0.0094
1555.00,0.0095
1554.00,0.0095
1553.00,0.0096
1552.00,0.0097
1551.00,0.0098
1550.00,0.0099
1549.00,0.0101
1548.00,0.0102
1547.00,0.0103
1546.00,0.0104
1545.00,0.0106
1544.00,0.0107
1543.00,0.0108
1542.00,0.0108
1541.00,0.0109
1540.00,0.0108
1539.00,0.0107
1538.00,0.0106
1537.00,0.0106
1536.00,0.0106
1535.00,0.0105
1534.00,0.0104
1533.00,0.0103
1532.00,0.0103
1531.00,0.0102
1530.00,0.0102
1529.00,0.0102
1528.00,0.0103
1527.00,0.0104
1526.00,0.0104
1525.00,0.0105
1524.00,0.0106
1523.00,0.0106
1522.00,0.0107
1521.00,0.0109
1520.00,0.0111
1519.00,0.0112
1518.00,0.0114
1517.00,0.0116
1516.00,0.0118
1515.00,0.0119
1514.00,0.0120
1513.00,0.0122
1512.00,0.0124
1511.00,0.0126
1510.00,0.0127
1509.00,0.0130
1508.00,0.0133
1507.00,0.0136
1506.00,0.0138
1505.00,0.0140
1504.00,0.0143
1503.00,0.0146
1502.00,0.0149
1501.00,0.0153
1500.00,0.0158
1499.00,0.0161
1498.00,0.0165
1497.00,0.0170
1496.00,0.0175
1495.00,0.0179
1494.00,0.0183
1493.00,0.0187
1492.00,0.0192
1491.00,0.0198
1490.00,0.0203
1489.00,0.0210
1488.00,0.0217
1487.00,0.0223
1486.00,0.0230
1485.00,0.0237
1484.00,0.0246
1483.00,0.0254
1482.00,0.0263
1481.00,0.0275
1480.00,0.0288
1479.00,0.0301
1478.00,0.0316
1477.00,0.0336
1476.00,0.0360
1475.00,0.0387
1474.00,0.0423
1473.00,0.0475
1472.00,0.0538
1471.00,0.0599
1470.00,0.0657
1469.00,0.0717
1468.00,0.0781
1467.00,0.0852
1466.00,0.0934
1465.00,0.1024
1464.00,0.1105
1463.00,0.1164
1462.00,0.1203
1461.00,0.1231
1460.00,0.1252
1459.00,0.1269
1458.00,0.1289
1457.00,0.1312
1456.00,0.1324
1455.00,0.1323
1454.00,0.1315
1453.00,0.1302
1452.00,0.1281
1451.00,0.1249
1450.00,0.1204
1449.00,0.1141
1448.00,0.1063
1447.00,0.0979
1446.00,0.0902
1445.00,0.0834
1444.00,0.0775
1443.00,0.0726
1442.00,0.0689
1441.00,0.0663
1440.00,0.0648
1439.00,0.0641
1438.00,0.0642
1437.00,0.0645
1436.00,0.0639
1435.00,0.0618
1434.00,0.0584
1433.00,0.0544
1432.00,0.0502
1431.00,0.0465
1430.00,0.0436
1429.00,0.0414
1428.00,0.0398
1427.00,0.0387
1426.00,0.0379
1425.00,0.0371
1424.00,0.0364
1423.00,0.0359
1422.00,0.0355
1421.00,0.0349
1420.00,0.0343
1419.00,0.0337
1418.00,0.0331
1417.00,0.0323
1416.00,0.0316
1415.00,0.0310
1414.00,0.0304
1413.00,0.0297
1412.00,0.0289
1411.00,0.0282
1410.00,0.0276
1409.00,0.0269
1408.00,0.0263
1407.00,0.0257
1406.00,0.0253
1405.00,0.0248
1404.00,0.0244
1403.00,0.0241
1402.00,0.0240
1401.00,0.0238
1400.00,0.0235
1399.00,0.0234
1398.00,0.0233
1397.00,0.0231
1396.00,0.0230
1395.00,0.0230
1394.00,0.0231
1393.00,0.0231
1392.00,0.0233
1391.00,0.0237
1390.00,0.0244
1389.00,0.0255
1388.00,0.0273
1387.00,0.0302
1386.00,0.0342
1385.00,0.0397
1384.00,0.0474
1383.00,0.0583
1382.00,0.0729
1381.00,0.0917
1380.00,0.1147
1379.00,0.1403
1378.00,0.1646
1377.00,0.1818
1376.00,0.1867
1375.00,0.1769
1374.00,0.1554
1373.00,0.1295
1372.00,0.1057
1371.00,0.0859
1370.00,0.0700
1369.00,0.0579
1368.00,0.0495
1367.00,0.0443
1366.00,0.0413
1365.00,0.0401
1364.00,0.0403
1363.00,0.0415
1362.00,0.0435
1361.00,0.0455
1360.00,0.0470
1359.00,0.0472
1358.00,0.0460
1357.00,0.0435
1356.00,0.0399
1355.00,0.0360
1354.00,0.0323
1353.00,0.0291
1352.00,0.0264
1351.00,0.0243
1350.00,0.0225
1349.00,0.0210
1348.00,0.0198
1347.00,0.0187
1346.00,0.0178
1345.00,0.0171
1344.00,0.0165
1343.00,0.0159
1342.00,0.0155
1341.00,0.0151
1340.00,0.0148
1339.00,0.0146
1338.00,0.0145
1337.00,0.0144
1336.00,0.0145
1335.00,0.0147
1334.00,0.0150
1333.00,0.0154
1332.00,0.0158
1331.00,0.0160
1330.00,0.0161
1329.00,0.0159
1328.00,0.0156
1327.00,0.0152
1326.00,0.0147
1325.00,0.0141
1324.00,0.0136
1323.00,0.0132
1322.00,0.0128
1321.00,0.0125
1320.00,0.0123
1319.00,0.0120
1318.00,0.0118
1317.00,0.0116
1316.00,0.0115
1315.00,0.0114
1314.00,0.0113
1313.00,0.0113
1312.00,0.0114
1311.00,0.0116
1310.00,0.0119
1309.00,0.0125
1308.00,0.0134
1307.00,0.0145
1306.00,0.0156
1305.00,0.0163
1304.00,0.0166
1303.00,0.0164
1302.00,0.0159
1301.00,0.0154
1300.00,0.0151
1299.00,0.0149
1298.00,0.0148
1297.00,0.0148
1296.00,0.0147
1295.00,0.0145
1294.00,0.0141
1293.00,0.0137
1292.00,0.0132
1291.00,0.0128
1290.00,0.0124
1289.00,0.0120
1288.00,0.0117
1287.00,0.0115
1286.00,0.0113
1285.00,0.0111
1284.00,0.0110
1283.00,0.0108
1282.00,0.0106
1281.00,0.0104
1280.00,0.0103
1279.00,0.0102
1278.00,0.0102
1277.00,0.0102
1276.00,0.0101
1275.00,0.0101
1274.00,0.0101
1273.00,0.0100
1272.00,0.0101
1271.00,0.0101
1270.00,0.0102
1269.00,0.0103
1268.00,0.0105
1267.00,0.0107
1266.00,0.0110
1265.00,0.0112
1264.00,0.0115
1263.00,0.0118
1262.00,0.0122
1261.00,0.0126
1260.00,0.0132
1259.00,0.0139
1258.00,0.0146
1257.00,0.0152
1256.00,0.0155
1255.00,0.0153
1254.00,0.0147
1253.00,0.0139
1252.00,0.0131
1251.00,0.0124
1250.00,0.0118
1249.00,0.0114
1248.00,0.0111
1247.00,0.0109
1246.00,0.0107
1245.00,0.0105
1244.00,0.0103
1243.00,0.0102
1242.00,0.0101
1241.00,0.0100
1240.00,0.0099
1239.00,0.0099
1238.00,0.0098
1237.00,0.0097
1236.00,0.0097
1235.00,0.0097
1234.00,0.0097
1233.00,0.0098
1232.00,0.0098
1231.00,0.0099
1230.00,0.0100
1229.00,0.0101
1228.00,0.0103
1227.00,0.0105
1226.00,0.0107
1225.00,0.0110
1224.00,0.0113
1223.00,0.0116
1222.00,0.0119
1221.00,0.0122
1220.00,0.0123
1219.00,0.0123
1218.00,0.0122
1217.00,0.0120
1216.00,0.0118
1215.00,0.0115
1214.00,0.0112
1213.00,0.0109
1212.00,0.0106
1211.00,0.0104
1210.00,0.0102
1209.00,0.0101
1208.00,0.0100
1207.00,0.0100
1206.00,0.0100
1205.00,0.0099
1204.00,0.0099
1203.00,0.0099
1202.00,0.0099
1201.00,0.0098
1200.00,0.0097
1199.00,0.0097
1198.00,0.0098
1197.00,0.0098
1196.00,0.0098
1195.00,0.0099
1194.00,0.0099
1193.00,0.0099
1192.00,0.0099
1191.00,0.0099
1190.00,0.0099
1189.00,0.0099
1188.00,0.0100
1187.00,0.0100
1186.00,0.0101
1185.00,0.0102
1184.00,0.0103
1183.00,0.0106
1182.00,0.0108
1181.00,0.0111
1180.00,0.0115
1179.00,0.0121
1178.00,0.0128
1177.00,0.0137
1176.00,0.0149
1175.00,0.0165
1174.00,0.0186
1173.00,0.0212
1172.00,0.0242
1171.00,0.0275
1170.00,0.0305
1169.00,0.0329
1168.00,0.0341
1167.00,0.0342
1166.00,0.0333
1165.00,0.0319
1164.00,0.0302
1163.00,0.0287
1162.00,0.0273
1161.00,0.0261
1160.00,0.0251
1159.00,0.0244
1158.00,0.0238
1157.00,0.0234
1156.00,0.0231
1155.00,0.0229
1154.00,0.0227
1153.00,0.0223
1152.00,0.0218
1151.00,0.0211
1150.00,0.0203
1149.00,0.0194
1148.00,0.0185
1147.00,0.0177
1146.00,0.0169
1145.00,0.0161
1144.00,0.0154
1143.00,0.0146
1142.00,0.0139
1141.00,0.0133
1140.00,0.0127
1139.00,0.0123
1138.00,0.0120
1137.00,0.0118
1136.00,0.0116
1135.00,0.0115
1134.00,0.0114
1133.00,0.0113
1132.00,0.0112
1131.00,0.0112
1130.00,0.0111
1129.00,0.0111
1128.00,0.0110
1127.00,0.0110
1126.00,0.0111
1125.00,0.0112
1124.00,0.0113
1123.00,0.0114
1122.00,0.0115
1121.00,0.0116
1120.00,0.0117
1119.00,0.0119
1118.00,0.0120
1117.00,0.0121
1116.00,0.0122
1115.00,0.0123
1114.00,0.0124
1113.00,0.0126
1112.00,0.0128
1111.00,0.0131
1110.00,0.0134
1109.00,0.0139
1108.00,0.0144
1107.00,0.0150
1106.00,0.0157
1105.00,0.0162
1104.00,0.0167
1103.00,0.0168
1102.00,0.0167
1101.00,0.0164
1100.00,0.0159
1099.00,0.0153
1098.00,0.0147
1097.00,0.0142
1096.00,0.0138
1095.00,0.0135
1094.00,0.0133
1093.00,0.0131
1092.00,0.0128
1091.00,0.0126
1090.00,0.0125
1089.00,0.0124
1088.00,0.0123
1087.00,0.0123
1086.00,0.0123
1085.00,0.0123
1084.00,0.0123
1083.00,0.0123
1082.00,0.0123
1081.00,0.0122
1080.00,0.0121
1079.00,0.0121
1078.00,0.0121
1077.00,0.0121
1076.00,0.0121
1075.00,0.0120
1074.00,0.0120
1073.00,0.0120
1072.00,0.0120
1071.00,0.0120
1070.00,0.0121
1069.00,0.0122
1068.00,0.0123
1067.00,0.0125
1066.00,0.0126
1065.00,0.0127
1064.00,0.0129
1063.00,0.0131
1062.00,0.0134
1061.00,0.0136
1060.00,0.0139
1059.00,0.0142
1058.00,0.0146
1057.00,0.0150
1056.00,0.0154
1055.00,0.0159
1054.00,0.0164
1053.00,0.0171
1052.00,0.0178
1051.00,0.0187
1050.00,0.0195
1049.00,0.0204
1048.00,0.0212
1047.00,0.0220
1046.00,0.0226
1045.00,0.0230
1044.00,0.0231
1043.00,0.0230
1042.00,0.0228
1041.00,0.0225
1040.00,0.0223
1039.00,0.0221
1038.00,0.0219
1037.00,0.0219
1036.00,0.0219
1035.00,0.0220
1034.00,0.0221
1033.00,0.0221
1032.00,0.0222
1031.00,0.0223
1030.00,0.0225
1029.00,0.0228
1028.00,0.0232
1027.00,0.0236
1026.00,0.0241
1025.00,0.0246
1024.00,0.0252
1023.00,0.0258
1022.00,0.0264
1021.00,0.0269
1020.00,0.0274
1019.00,0.0278
1018.00,0.0280
1017.00,0.0282
1016.00,0.0282
1015.00,0.0280
1014.00,0.0277
1013.00,0.0273
1012.00,0.0269
1011.00,0.0264
1010.00,0.0261
1009.00,0.0258
1008.00,0.0257
1007.00,0.0258
1006.00,0.0262
1005.00,0.0270
1004.00,0.0284
1003.00,0.0304
1002.00,0.0332
1001.00,0.0367
1000.00,0.0405
999.00,0.0435
998.00,0.0447
997.00,0.0436
996.00,0.0405
995.00,0.0363
994.00,0.0318
993.00,0.0279
992.00,0.0248
991.00,0.0225
990.00,0.0207
989.00,0.0195
988.00,0.0186
987.00,0.0181
986.00,0.0179
985.00,0.0179
984.00,0.0182
983.00,0.0188
982.00,0.0198
981.00,0.0214
980.00,0.0237
979.00,0.0268
978.00,0.0307
977.00,0.0351
976.00,0.0398
975.00,0.0440
974.00,0.0470
973.00,0.0477
972.00,0.0457
971.00,0.0414
970.00,0.0359
969.00,0.0304
968.00,0.0257
967.00,0.0222
966.00,0.0196
965.00,0.0177
964.00,0.0163
963.00,0.0152
962.00,0.0143
961.00,0.0136
960.00,0.0130
959.00,0.0125
958.00,0.0122
957.00,0.0119
956.00,0.0117
955.00,0.0115
954.00,0.0113
953.00,0.0111
952.00,0.0109
951.00,0.0108
950.00,0.0107
949.00,0.0105
948.00,0.0104
947.00,0.0104
946.00,0.0105
945.00,0.0108
944.00,0.0111
943.00,0.0115
942.00,0.0117
941.00,0.0118
940.00,0.0117
939.00,0.0114
938.00,0.0110
937.00,0.0105
936.00,0.0100
935.00,0.0096
934.00,0.0093
933.00,0.0090
932.00,0.0089
931.00,0.0088
930.00,0.0088
929.00,0.0087
928.00,0.0086
927.00,0.0085
926.00,0.0085
925.00,0.0085
924.00,0.0085
923.00,0.0085
922.00,0.0085
921.00,0.0085
920.00,0.0083
919.00,0.0082
918.00,0.0082
917.00,0.0082
916.00,0.0083
915.00,0.0084
914.00,0.0086
913.00,0.0088
912.00,0.0090
911.00,0.0092
910.00,0.0095
909.00,0.0097
908.00,0.0100
907.00,0.0103
906.00,0.0110
905.00,0.0120
904.00,0.0134
903.00,0.0153
902.00,0.0173
901.00,0.0191
900.00,0.0202
899.00,0.0204
898.00,0.0196
897.00,0.0181
896.00,0.0163
895.00,0.0145
894.00,0.0131
893.00,0.0121
892.00,0.0113
891.00,0.0107
890.00,0.0103
889.00,0.0101
888.00,0.0099
887.00,0.0099
886.00,0.0101
885.00,0.0104
884.00,0.0109
883.00,0.0115
882.00,0.0121
881.00,0.0130
880.00,0.0140
879.00,0.0152
878.00,0.0164
877.00,0.0174
876.00,0.0180
875.00,0.0182
874.00,0.0179
873.00,0.0171
872.00,0.0159
871.00,0.0144
870.00,0.0131
869.00,0.0120
868.00,0.0114
867.00,0.0111
866.00,0.0110
865.00,0.0109
864.00,0.0108
863.00,0.0108
862.00,0.0108
861.00,0.0110
860.00,0.0111
859.00,0.0113
858.00,0.0115
857.00,0.0116
856.00,0.0118
855.00,0.0120
854.00,0.0121
853.00,0.0121
852.00,0.0122
851.00,0.0125
850.00,0.0131
849.00,0.0139
848.00,0.0151
847.00,0.0166
846.00,0.0189
845.00,0.0223
844.00,0.0270
843.00,0.0322
842.00,0.0362
841.00,0.0370
840.00,0.0343
839.00,0.0293
838.00,0.0241
837.00,0.0200
836.00,0.0173
835.00,0.0157
834.00,0.0147
833.00,0.0140
832.00,0.0135
831.00,0.0132
830.00,0.0128
829.00,0.0126
828.00,0.0123
827.00,0.0122
826.00,0.0121
825.00,0.0122
824.00,0.0122
823.00,0.0123
822.00,0.0123
821.00,0.0124
820.00,0.0125
819.00,0.0128
818.00,0.0132
817.00,0.0138
816.00,0.0147
815.00,0.0158
814.00,0.0172
813.00,0.0190
812.00,0.0209
811.00,0.0227
810.00,0.0240
809.00,0.0245
808.00,0.0241
807.00,0.0230
806.00,0.0213
805.00,0.0195
804.00,0.0178
803.00,0.0164
802.00,0.0155
801.00,0.0147
800.00,0.0142
799.00,0.0137
798.00,0.0134
797.00,0.0130
796.00,0.0127
795.00,0.0123
794.00,0.0120
793.00,0.0116
792.00,0.0111
791.00,0.0107
790.00,0.0103
789.00,0.0101
788.00,0.0100
787.00,0.0099
786.00,0.0098
785.00,0.0096
784.00,0.0093
783.00,0.0090
782.00,0.0088
781.00,0.0087
780.00,0.0087
779.00,0.0088
778.00,0.0087
777.00,0.0086
776.00,0.0084
775.00,0.0084
774.00,0.0085
773.00,0.0086
772.00,0.0086
771.00,0.0087
770.00,0.0087
769.00,0.0088
768.00,0.0088
767.00,0.0088
766.00,0.0088
765.00,0.0089
764.00,0.0089
763.00,0.0089
762.00,0.0089
761.00,0.0089
760.00,0.0088
759.00,0.0087
758.00,0.0087
757.00,0.0086
756.00,0.0087
755.00,0.0088
754.00,0.0090
753.00,0.0092
752.00,0.0094
751.00,0.0095
750.00,0.0097
749.00,0.0097
748.00,0.0097
747.00,0.0097
746.00,0.0098
745.00,0.0099
744.00,0.0100
743.00,0.0102
742.00,0.0104
741.00,0.0107
740.00,0.0109
739.00,0.0112
738.00,0.0115
737.00,0.0118
736.00,0.0121
735.00,0.0122
734.00,0.0123
733.00,0.0124
732.00,0.0126
731.00,0.0128
730.00,0.0131
729.00,0.0134
728.00,0.0136
727.00,0.0137
726.00,0.0137
725.00,0.0138
724.00,0.0140
723.00,0.0144
722.00,0.0146
721.00,0.0148
720.00,0.0147
719.00,0.0146
718.00,0.0144
717.00,0.0141
716.00,0.0139
715.00,0.0139
714.00,0.0139
713.00,0.0139
712.00,0.0137
711.00,0.0135
710.00,0.0132
709.00,0.0129
708.00,0.0127
707.00,0.0127
706.00,0.0126
705.00,0.0126
704.00,0.0125
703.00,0.0124
702.00,0.0123
701.00,0.0123
700.00,0.0123
699.00,0.0125
698.00,0.0127
697.00,0.0129
696.00,0.0131
695.00,0.0133
694.00,0.0133
693.00,0.0134
692.00,0.0134
691.00,0.0133
690.00,0.0133
689.00,0.0132
688.00,0.0131
687.00,0.0130
686.00,0.0128
685.00,0.0127
684.00,0.0126
683.00,0.0128
682.00,0.0130
681.00,0.0133
680.00,0.0136
679.00,0.0137
678.00,0.0139
677.00,0.0140
676.00,0.0143
675.00,0.0147
674.00,0.0152
673.00,0.0158
672.00,0.0166
671.00,0.0173
670.00,0.0176
669.00,0.0174
668.00,0.0167
667.00,0.0159
666.00,0.0152
665.00,0.0147
664.00,0.0143
663.00,0.0139
662.00,0.0136
661.00,0.0132
660.00,0.0129
659.00,0.0126
658.00,0.0124
657.00,0.0122
656.00,0.0121
655.00,0.0121
654.00,0.0121
653.00,0.0121
652.00,0.0120
651.00,0.0119
650.00,0.0118
649.00,0.0117
648.00,0.0118
647.00,0.0121
646.00,0.0124
645.00,0.0125
644.00,0.0123
643.00,0.0119
642.00,0.0116
641.00,0.0115
640.00,0.0116
639.00,0.0118
638.00,0.0120
637.00,0.0119
636.00,0.0118
635.00,0.0116
634.00,0.0114
633.00,0.0113
632.00,0.0111
631.00,0.0110
630.00,0.0110
629.00,0.0111
628.00,0.0111
627.00,0.0111
626.00,0.0110
625.00,0.0110
624.00,0.0109
623.00,0.0109
622.00,0.0109
621.00,0.0110
620.00,0.0112
619.00,0.0114
618.00,0.0115
617.00,0.0115
616.00,0.0113
615.00,0.0110
614.00,0.0109
613.00,0.0109
612.00,0.0110
611.00,0.0112
610.00,0.0112
609.00,0.0110
608.00,0.0108
607.00,0.0106
606.00,0.0105
605.00,0.0106
604.00,0.0107
603.00,0.0107
602.00,0.0108
601.00,0.0109
600.00,0.0110
599.00,0.0111
598.00,0.0111
597.00,0.0110
596.00,0.0110
595.00,0.0110
594.00,0.0111
593.00,0.0112
592.00,0.0114
591.00,0.0115
590.00,0.0114
589.00,0.0114
588.00,0.0114
587.00,0.0115
586.00,0.0116
585.00,0.0117
584.00,0.0116
583.00,0.0114
582.00,0.0114
581.00,0.0114
580.00,0.0115
579.00,0.0114
578.00,0.0112
577.00,0.0109
576.00,0.0106
575.00,0.0105
574.00,0.0107
573.00,0.0110
572.00,0.0112
571.00,0.0114
570.00,0.0114
569.00,0.0113
568.00,0.0112
567.00,0.0111
566.00,0.0110
565.00,0.0110
564.00,0.0111
563.00,0.0111
562.00,0.0111
561.00,0.0111
560.00,0.0111
559.00,0.0109
558.00,0.0108
557.00,0.0109
556.00,0.0115
555.00,0.0123
554.00,0.0129
553.00,0.0129
552.00,0.0125
551.00,0.0122
550.00,0.0124
549.00,0.0131
548.00,0.0137
547.00,0.0141
546.00,0.0143
545.00,0.0145
544.00,0.0148
543.00,0.0153
542.00,0.0160
541.00,0.0169
540.00,0.0178
539.00,0.0186
538.00,0.0190
537.00,0.0191
536.00,0.0191
535.00,0.0191
534.00,0.0192
533.00,0.0193
532.00,0.0191
531.00,0.0186
530.00,0.0180
529.00,0.0175
528.00,0.0172
527.00,0.0168
526.00,0.0163
525.00,0.0159
524.00,0.0156
523.00,0.0153
522.00,0.0151
521.00,0.0147
520.00,0.0142
519.00,0.0137
518.00,0.0131
517.00,0.0124
516.00,0.0120
515.00,0.0119
514.00,0.0121
513.00,0.0125
512.00,0.0127
511.00,0.0126
510.00,0.0124
509.00,0.0124
508.00,0.0129
507.00,0.0135
506.00,0.0140
505.00,0.0142
504.00,0.0142
503.00,0.0143
502.00,0.0147
501.00,0.0148
500.00,0.0148
499.00,0.0147
498.00,0.0146
497.00,0.0145
496.00,0.0144
495.00,0.0145
494.00,0.0149
493.00,0.0152
492.00,0.0150
491.00,0.0146
490.00,0.0149
489.00,0.0157
488.00,0.0164
487.00,0.0166
486.00,0.0166
485.00,0.0167
484.00,0.0169
483.00,0.0170
482.00,0.0169
481.00,0.0170
480.00,0.0176
479.00,0.0188
478.00,0.0198
477.00,0.0202
476.00,0.0200
475.00,0.0200
474.00,0.0205
473.00,0.0214
472.00,0.0220
471.00,0.0224
470.00,0.0231
469.00,0.0245
468.00,0.0264
467.00,0.0286
466.00,0.0308
465.00,0.0329
464.00,0.0342
463.00,0.0345
462.00,0.0344
461.00,0.0342
460.00,0.0340
459.00,0.0331
458.00,0.0319
457.00,0.0311
456.00,0.0311
455.00,0.0314
454.00,0.0319
453.00,0.0325
452.00,0.0333
451.00,0.0334
450.00,0.0325
