Created as New Dataset,Sample 163 By Administrator Date Wednesday, September 03 2025
cm-1,A
4000.00,0.0011
3999.00,0.0011
3998.00,0.0011
3997.00,0.0011
3996.00,0.0011
3995.00,0.0011
3994.00,0.0011
3993.00,0.0011
3992.00,0.0011
3991.00,0.0011
3990.00,0.0011
3989.00,0.0011
3988.00,0.0011
3987.00,0.0010
3986.00,0.0010
3985.00,0.0010
3984.00,0.0010
3983.00,0.0010
3982.00,0.0010
3981.00,0.0010
3980.00,0.0010
3979.00,0.0010
3978.00,0.0010
3977.00,0.0010
3976.00,0.0010
3975.00,0.0009
3974.00,0.0009
3973.00,0.0009
3972.00,0.0009
3971.00,0.0009
3970.00,0.0010
3969.00,0.0010
3968.00,0.0009
3967.00,0.0009
3966.00,0.0009
3965.00,0.0009
3964.00,0.0009
3963.00,0.0009
3962.00,0.0009
3961.00,0.0009
3960.00,0.0010
3959.00,0.0010
3958.00,0.0010
3957.00,0.0010
3956.00,0.0010
3955.00,0.0010
3954.00,0.0009
3953.00,0.0009
3952.00,0.0009
3951.00,0.0009
3950.00,0.0010
3949.00,0.0010
3948.00,0.0010
3947.00,0.0010
3946.00,0.0009
3945.00,0.0009
3944.00,0.0009
3943.00,0.0009
3942.00,0.0009
3941.00,0.0009
3940.00,0.0009
3939.00,0.0009
3938.00,0.0009
3937.00,0.0009
3936.00,0.0009
3935.00,0.0009
3934.00,0.0009
3933.00,0.0009
3932.00,0.0009
3931.00,0.0009
3930.00,0.0009
3929.00,0.0009
3928.00,0.0010
3927.00,0.0010
3926.00,0.0010
3925.00,0.0010
3924.00,0.0010
3923.00,0.0010
3922.00,0.0010
3921.00,0.0009
3920.00,0.0009
3919.00,0.0009
3918.00,0.0009
3917.00,0.0009
3916.00,0.0009
3915.00,0.0009
3914.00,0.0009
3913.00,0.0010
3912.00,0.0010
3911.00,0.0010
3910.00,0.0009
3909.00,0.0009
3908.00,0.0008
3907.00,0.0008
3906.00,0.0008
3905.00,0.0008
3904.00,0.0008
3903.00,0.0008
3902.00,0.0008
3901.00,0.0007
3900.00,0.0007
3899.00,0.0007
3898.00,0.0007
3897.00,0.0008
3896.00,0.0008
3895.00,0.0009
3894.00,0.0009
3893.00,0.0009
3892.00,0.0009
3891.00,0.0009
3890.00,0.0009
3889.00,0.0008
3888.00,0.0007
3887.00,0.0007
3886.00,0.0007
3885.00,0.0008
3884.00,0.0008
3883.00,0.0008
3882.00,0.0008
3881.00,0.0008
3880.00,0.0008
3879.00,0.0008
3878.00,0.0009
3877.00,0.0009
3876.00,0.0010
3875.00,0.0010
3874.00,0.0010
3873.00,0.0009
3872.00,0.0009
3871.00,0.0008
3870.00,0.0008
3869.00,0.0008
3868.00,0.0008
3867.00,0.0008
3866.00,0.0008
3865.00,0.0009
3864.00,0.0009
3863.00,0.0008
3862.00,0.0008
3861.00,0.0008
3860.00,0.0008
3859.00,0.0008
3858.00,0.0007
3857.00,0.0007
3856.00,0.0007
3855.00,0.0007
3854.00,0.0007
3853.00,0.0007
3852.00,0.0007
3851.00,0.0007
3850.00,0.0007
3849.00,0.0007
3848.00,0.0007
3847.00,0.0008
3846.00,0.0008
3845.00,0.0009
3844.00,0.0009
3843.00,0.0010
3842.00,0.0010
3841.00,0.0010
3840.00,0.0010
3839.00,0.0009
3838.00,0.0009
3837.00,0.0009
3836.00,0.0009
3835.00,0.0009
3834.00,0.0009
3833.00,0.0009
3832.00,0.0010
3831.00,0.0010
3830.00,0.0010
3829.00,0.0010
3828.00,0.0010
3827.00,0.0010
3826.00,0.0009
3825.00,0.0009
3824.00,0.0010
3823.00,0.0010
3822.00,0.0011
3821.00,0.0011
3820.00,0.0010
3819.00,0.0010
3818.00,0.0009
3817.00,0.0009
3816.00,0.0009
3815.00,0.0008
3814.00,0.0008
3813.00,0.0008
3812.00,0.0008
3811.00,0.0008
3810.00,0.0008
3809.00,0.0009
3808.00,0.0009
3807.00,0.0009
3806.00,0.0009
3805.00,0.0009
3804.00,0.0009
3803.00,0.0009
3802.00,0.0009
3801.00,0.0009
3800.00,0.0009
3799.00,0.0009
3798.00,0.0009
3797.00,0.0009
3796.00,0.0009
3795.00,0.0009
3794.00,0.0009
3793.00,0.0009
3792.00,0.0009
3791.00,0.0009
3790.00,0.0009
3789.00,0.0009
3788.00,0.0009
3787.00,0.0010
3786.00,0.0010
3785.00,0.0009
3784.00,0.0009
3783.00,0.0008
3782.00,0.0008
3781.00,0.0008
3780.00,0.0008
3779.00,0.0009
3778.00,0.0009
3777.00,0.0009
3776.00,0.0009
3775.00,0.0009
3774.00,0.0009
3773.00,0.0009
3772.00,0.0009
3771.00,0.0009
3770.00,0.0009
3769.00,0.0009
3768.00,0.0008
3767.00,0.0008
3766.00,0.0009
3765.00,0.0009
3764.00,0.0009
3763.00,0.0010
3762.00,0.0010
3761.00,0.0010
3760.00,0.0010
3759.00,0.0010
3758.00,0.0010
3757.00,0.0010
3756.00,0.0010
3755.00,0.0010
3754.00,0.0010
3753.00,0.0009
3752.00,0.0009
3751.00,0.0008
3750.00,0.0008
3749.00,0.0007
3748.00,0.0007
3747.00,0.0007
3746.00,0.0006
3745.00,0.0006
3744.00,0.0006
3743.00,0.0006
3742.00,0.0007
3741.00,0.0007
3740.00,0.0008
3739.00,0.0008
3738.00,0.0008
3737.00,0.0008
3736.00,0.0008
3735.00,0.0008
3734.00,0.0008
3733.00,0.0008
3732.00,0.0007
3731.00,0.0007
3730.00,0.0007
3729.00,0.0007
3728.00,0.0008
3727.00,0.0008
3726.00,0.0008
3725.00,0.0008
3724.00,0.0008
3723.00,0.0008
3722.00,0.0008
3721.00,0.0008
3720.00,0.0008
3719.00,0.0008
3718.00,0.0007
3717.00,0.0007
3716.00,0.0007
3715.00,0.0007
3714.00,0.0008
3713.00,0.0008
3712.00,0.0008
3711.00,0.0007
3710.00,0.0006
3709.00,0.0006
3708.00,0.0006
3707.00,0.0007
3706.00,0.0008
3705.00,0.0008
3704.00,0.0008
3703.00,0.0008
3702.00,0.0007
3701.00,0.0007
3700.00,0.0007
3699.00,0.0008
3698.00,0.0008
3697.00,0.0008
3696.00,0.0009
3695.00,0.0009
3694.00,0.0009
3693.00,0.0008
3692.00,0.0008
3691.00,0.0007
3690.00,0.0007
3689.00,0.0007
3688.00,0.0007
3687.00,0.0007
3686.00,0.0007
3685.00,0.0007
3684.00,0.0007
3683.00,0.0007
3682.00,0.0008
3681.00,0.0008
3680.00,0.0008
3679.00,0.0007
3678.00,0.0007
3677.00,0.0008
3676.00,0.0008
3675.00,0.0007
3674.00,0.0007
3673.00,0.0006
3672.00,0.0006
3671.00,0.0006
3670.00,0.0006
3669.00,0.0006
3668.00,0.0006
3667.00,0.0007
3666.00,0.0007
3665.00,0.0007
3664.00,0.0007
3663.00,0.0007
3662.00,0.0007
3661.00,0.0007
3660.00,0.0007
3659.00,0.0007
3658.00,0.0007
3657.00,0.0007
3656.00,0.0007
3655.00,0.0007
3654.00,0.0007
3653.00,0.0006
3652.00,0.0006
3651.00,0.0007
3650.00,0.0007
3649.00,0.0007
3648.00,0.0007
3647.00,0.0008
3646.00,0.0009
3645.00,0.0009
3644.00,0.0009
3643.00,0.0009
3642.00,0.0009
3641.00,0.0008
3640.00,0.0008
3639.00,0.0008
3638.00,0.0008
3637.00,0.0008
3636.00,0.0008
3635.00,0.0008
3634.00,0.0008
3633.00,0.0007
3632.00,0.0007
3631.00,0.0006
3630.00,0.0006
3629.00,0.0007
3628.00,0.0007
3627.00,0.0007
3626.00,0.0008
3625.00,0.0008
3624.00,0.0008
3623.00,0.0009
3622.00,0.0008
3621.00,0.0008
3620.00,0.0008
3619.00,0.0008
3618.00,0.0008
3617.00,0.0008
3616.00,0.0008
3615.00,0.0009
3614.00,0.0009
3613.00,0.0008
3612.00,0.0008
3611.00,0.0008
3610.00,0.0008
3609.00,0.0008
3608.00,0.0009
3607.00,0.0010
3606.00,0.0011
3605.00,0.0011
3604.00,0.0012
3603.00,0.0012
3602.00,0.0012
3601.00,0.0012
3600.00,0.0012
3599.00,0.0011
3598.00,0.0011
3597.00,0.0012
3596.00,0.0012
3595.00,0.0012
3594.00,0.0012
3593.00,0.0012
3592.00,0.0011
3591.00,0.0010
3590.00,0.0010
3589.00,0.0010
3588.00,0.0010
3587.00,0.0011
3586.00,0.0011
3585.00,0.0011
3584.00,0.0011
3583.00,0.0012
3582.00,0.0012
3581.00,0.0012
3580.00,0.0012
3579.00,0.0013
3578.00,0.0013
3577.00,0.0013
3576.00,0.0013
3575.00,0.0013
3574.00,0.0013
3573.00,0.0014
3572.00,0.0013
3571.00,0.0013
3570.00,0.0013
3569.00,0.0013
3568.00,0.0013
3567.00,0.0014
3566.00,0.0014
3565.00,0.0014
3564.00,0.0014
3563.00,0.0014
3562.00,0.0015
3561.00,0.0015
3560.00,0.0016
3559.00,0.0016
3558.00,0.0016
3557.00,0.0016
3556.00,0.0016
3555.00,0.0016
3554.00,0.0016
3553.00,0.0016
3552.00,0.0016
3551.00,0.0016
3550.00,0.0016
3549.00,0.0016
3548.00,0.0017
3547.00,0.0017
3546.00,0.0018
3545.00,0.0018
3544.00,0.0018
3543.00,0.0018
3542.00,0.0019
3541.00,0.0019
3540.00,0.0019
3539.00,0.0019
3538.00,0.0019
3537.00,0.0020
3536.00,0.0020
3535.00,0.0020
3534.00,0.0021
3533.00,0.0021
3532.00,0.0022
3531.00,0.0022
3530.00,0.0022
3529.00,0.0022
3528.00,0.0021
3527.00,0.0021
3526.00,0.0021
3525.00,0.0022
3524.00,0.0022
3523.00,0.0022
3522.00,0.0023
3521.00,0.0023
3520.00,0.0023
3519.00,0.0023
3518.00,0.0023
3517.00,0.0023
3516.00,0.0023
3515.00,0.0024
3514.00,0.0024
3513.00,0.0024
3512.00,0.0025
3511.00,0.0025
3510.00,0.0026
3509.00,0.0026
3508.00,0.0027
3507.00,0.0027
3506.00,0.0027
3505.00,0.0027
3504.00,0.0027
3503.00,0.0027
3502.00,0.0027
3501.00,0.0027
3500.00,0.0027
3499.00,0.0027
3498.00,0.0028
3497.00,0.0028
3496.00,0.0028
3495.00,0.0028
3494.00,0.0029
3493.00,0.0029
3492.00,0.0030
3491.00,0.0030
3490.00,0.0030
3489.00,0.0030
3488.00,0.0030
3487.00,0.0030
3486.00,0.0030
3485.00,0.0030
3484.00,0.0030
3483.00,0.0031
3482.00,0.0031
3481.00,0.0032
3480.00,0.0032
3479.00,0.0032
3478.00,0.0033
3477.00,0.0033
3476.00,0.0033
3475.00,0.0033
3474.00,0.0033
3473.00,0.0033
3472.00,0.0033
3471.00,0.0033
3470.00,0.0034
3469.00,0.0034
3468.00,0.0035
3467.00,0.0034
3466.00,0.0034
3465.00,0.0034
3464.00,0.0034
3463.00,0.0034
3462.00,0.0034
3461.00,0.0034
3460.00,0.0035
3459.00,0.0035
3458.00,0.0036
3457.00,0.0036
3456.00,0.0037
3455.00,0.0037
3454.00,0.0037
3453.00,0.0037
3452.00,0.0037
3451.00,0.0037
3450.00,0.0037
3449.00,0.0038
3448.00,0.0038
3447.00,0.0038
3446.00,0.0039
3445.00,0.0039
3444.00,0.0039
3443.00,0.0040
3442.00,0.0040
3441.00,0.0040
3440.00,0.0040
3439.00,0.0040
3438.00,0.0041
3437.00,0.0041
3436.00,0.0041
3435.00,0.0041
3434.00,0.0040
3433.00,0.0040
3432.00,0.0041
3431.00,0.0041
3430.00,0.0042
3429.00,0.0042
3428.00,0.0042
3427.00,0.0042
3426.00,0.0042
3425.00,0.0042
3424.00,0.0042
3423.00,0.0042
3422.00,0.0042
3421.00,0.0043
3420.00,0.0043
3419.00,0.0043
3418.00,0.0043
3417.00,0.0043
3416.00,0.0044
3415.00,0.0044
3414.00,0.0044
3413.00,0.0044
3412.00,0.0045
3411.00,0.0045
3410.00,0.0045
3409.00,0.0045
3408.00,0.0045
3407.00,0.0044
3406.00,0.0044
3405.00,0.0045
3404.00,0.0045
3403.00,0.0045
3402.00,0.0045
3401.00,0.0045
3400.00,0.0046
3399.00,0.0046
3398.00,0.0046
3397.00,0.0046
3396.00,0.0046
3395.00,0.0046
3394.00,0.0046
3393.00,0.0046
3392.00,0.0046
3391.00,0.0046
3390.00,0.0046
3389.00,0.0046
3388.00,0.0046
3387.00,0.0046
3386.00,0.0046
3385.00,0.0046
3384.00,0.0047
3383.00,0.0047
3382.00,0.0047
3381.00,0.0047
3380.00,0.0047
3379.00,0.0046
3378.00,0.0046
3377.00,0.0046
3376.00,0.0047
3375.00,0.0048
3374.00,0.0048
3373.00,0.0048
3372.00,0.0049
3371.00,0.0049
3370.00,0.0048
3369.00,0.0048
3368.00,0.0048
3367.00,0.0048
3366.00,0.0049
3365.00,0.0049
3364.00,0.0049
3363.00,0.0049
3362.00,0.0049
3361.00,0.0049
3360.00,0.0049
3359.00,0.0049
3358.00,0.0050
3357.00,0.0049
3356.00,0.0049
3355.00,0.0049
3354.00,0.0049
3353.00,0.0049
3352.00,0.0050
3351.00,0.0050
3350.00,0.0050
3349.00,0.0050
3348.00,0.0050
3347.00,0.0051
3346.00,0.0050
3345.00,0.0050
3344.00,0.0050
3343.00,0.0049
3342.00,0.0049
3341.00,0.0049
3340.00,0.0050
3339.00,0.0050
3338.00,0.0050
3337.00,0.0050
3336.00,0.0050
3335.00,0.0049
3334.00,0.0049
3333.00,0.0049
3332.00,0.0049
3331.00,0.0049
3330.00,0.0049
3329.00,0.0049
3328.00,0.0049
3327.00,0.0049
3326.00,0.0049
3325.00,0.0048
3324.00,0.0048
3323.00,0.0048
3322.00,0.0048
3321.00,0.0048
3320.00,0.0048
3319.00,0.0048
3318.00,0.0048
3317.00,0.0048
3316.00,0.0048
3315.00,0.0048
3314.00,0.0049
3313.00,0.0049
3312.00,0.0049
3311.00,0.0049
3310.00,0.0049
3309.00,0.0050
3308.00,0.0050
3307.00,0.0050
3306.00,0.0050
3305.00,0.0049
3304.00,0.0050
3303.00,0.0050
3302.00,0.0050
3301.00,0.0050
3300.00,0.0049
3299.00,0.0048
3298.00,0.0048
3297.00,0.0048
3296.00,0.0048
3295.00,0.0048
3294.00,0.0049
3293.00,0.0049
3292.00,0.0049
3291.00,0.0048
3290.00,0.0048
3289.00,0.0048
3288.00,0.0048
3287.00,0.0048
3286.00,0.0048
3285.00,0.0048
3284.00,0.0047
3283.00,0.0047
3282.00,0.0047
3281.00,0.0047
3280.00,0.0046
3279.00,0.0046
3278.00,0.0046
3277.00,0.0046
3276.00,0.0046
3275.00,0.0046
3274.00,0.0046
3273.00,0.0046
3272.00,0.0045
3271.00,0.0045
3270.00,0.0044
3269.00,0.0044
3268.00,0.0044
3267.00,0.0044
3266.00,0.0044
3265.00,0.0044
3264.00,0.0043
3263.00,0.0043
3262.00,0.0043
3261.00,0.0043
3260.00,0.0043
3259.00,0.0043
3258.00,0.0043
3257.00,0.0043
3256.00,0.0042
3255.00,0.0042
3254.00,0.0042
3253.00,0.0043
3252.00,0.0042
3251.00,0.0042
3250.00,0.0042
3249.00,0.0042
3248.00,0.0042
3247.00,0.0042
3246.00,0.0042
3245.00,0.0042
3244.00,0.0041
3243.00,0.0041
3242.00,0.0041
3241.00,0.0041
3240.00,0.0041
3239.00,0.0041
3238.00,0.0041
3237.00,0.0041
3236.00,0.0042
3235.00,0.0042
3234.00,0.0042
3233.00,0.0042
3232.00,0.0042
3231.00,0.0042
3230.00,0.0042
3229.00,0.0041
3228.00,0.0041
3227.00,0.0041
3226.00,0.0041
3225.00,0.0042
3224.00,0.0042
3223.00,0.0043
3222.00,0.0043
3221.00,0.0043
3220.00,0.0043
3219.00,0.0043
3218.00,0.0043
3217.00,0.0043
3216.00,0.0043
3215.00,0.0043
3214.00,0.0043
3213.00,0.0043
3212.00,0.0043
3211.00,0.0044
3210.00,0.0044
3209.00,0.0044
3208.00,0.0044
3207.00,0.0044
3206.00,0.0044
3205.00,0.0044
3204.00,0.0044
3203.00,0.0043
3202.00,0.0043
3201.00,0.0044
3200.00,0.0044
3199.00,0.0044
3198.00,0.0044
3197.00,0.0044
3196.00,0.0044
3195.00,0.0044
3194.00,0.0044
3193.00,0.0044
3192.00,0.0044
3191.00,0.0044
3190.00,0.0044
3189.00,0.0044
3188.00,0.0043
3187.00,0.0043
3186.00,0.0043
3185.00,0.0043
3184.00,0.0043
3183.00,0.0042
3182.00,0.0042
3181.00,0.0042
3180.00,0.0042
3179.00,0.0042
3178.00,0.0041
3177.00,0.0041
3176.00,0.0041
3175.00,0.0041
3174.00,0.0041
3173.00,0.0041
3172.00,0.0041
3171.00,0.0041
3170.00,0.0041
3169.00,0.0040
3168.00,0.0040
3167.00,0.0039
3166.00,0.0039
3165.00,0.0039
3164.00,0.0039
3163.00,0.0039
3162.00,0.0039
3161.00,0.0039
3160.00,0.0039
3159.00,0.0039
3158.00,0.0039
3157.00,0.0039
3156.00,0.0039
3155.00,0.0040
3154.00,0.0040
3153.00,0.0040
3152.00,0.0040
3151.00,0.0040
3150.00,0.0040
3149.00,0.0040
3148.00,0.0039
3147.00,0.0039
3146.00,0.0039
3145.00,0.0039
3144.00,0.0039
3143.00,0.0039
3142.00,0.0039
3141.00,0.0039
3140.00,0.0039
3139.00,0.0039
3138.00,0.0038
3137.00,0.0038
3136.00,0.0037
3135.00,0.0037
3134.00,0.0036
3133.00,0.0036
3132.00,0.0036
3131.00,0.0035
3130.00,0.0035
3129.00,0.0035
3128.00,0.0034
3127.00,0.0034
3126.00,0.0034
3125.00,0.0034
3124.00,0.0034
3123.00,0.0034
3122.00,0.0034
3121.00,0.0033
3120.00,0.0033
3119.00,0.0033
3118.00,0.0033
3117.00,0.0033
3116.00,0.0033
3115.00,0.0033
3114.00,0.0033
3113.00,0.0033
3112.00,0.0033
3111.00,0.0033
3110.00,0.0033
3109.00,0.0032
3108.00,0.0032
3107.00,0.0032
3106.00,0.0032
3105.00,0.0032
3104.00,0.0032
3103.00,0.0032
3102.00,0.0032
3101.00,0.0032
3100.00,0.0032
3099.00,0.0032
3098.00,0.0033
3097.00,0.0032
3096.00,0.0032
3095.00,0.0031
3094.00,0.0031
3093.00,0.0031
3092.00,0.0031
3091.00,0.0031
3090.00,0.0031
3089.00,0.0031
3088.00,0.0031
3087.00,0.0031
3086.00,0.0031
3085.00,0.0030
3084.00,0.0030
3083.00,0.0031
3082.00,0.0031
3081.00,0.0031
3080.00,0.0031
3079.00,0.0031
3078.00,0.0031
3077.00,0.0031
3076.00,0.0031
3075.00,0.0031
3074.00,0.0031
3073.00,0.0032
3072.00,0.0032
3071.00,0.0032
3070.00,0.0032
3069.00,0.0032
3068.00,0.0032
3067.00,0.0032
3066.00,0.0032
3065.00,0.0032
3064.00,0.0032
3063.00,0.0033
3062.00,0.0033
3061.00,0.0033
3060.00,0.0033
3059.00,0.0034
3058.00,0.0034
3057.00,0.0033
3056.00,0.0033
3055.00,0.0033
3054.00,0.0033
3053.00,0.0033
3052.00,0.0034
3051.00,0.0034
3050.00,0.0034
3049.00,0.0035
3048.00,0.0035
3047.00,0.0035
3046.00,0.0036
3045.00,0.0036
3044.00,0.0035
3043.00,0.0035
3042.00,0.0035
3041.00,0.0036
3040.00,0.0036
3039.00,0.0037
3038.00,0.0037
3037.00,0.0037
3036.00,0.0038
3035.00,0.0038
3034.00,0.0038
3033.00,0.0039
3032.00,0.0039
3031.00,0.0040
3030.00,0.0040
3029.00,0.0041
3028.00,0.0041
3027.00,0.0041
3026.00,0.0042
3025.00,0.0042
3024.00,0.0042
3023.00,0.0043
3022.00,0.0043
3021.00,0.0044
3020.00,0.0045
3019.00,0.0046
3018.00,0.0047
3017.00,0.0048
3016.00,0.0049
3015.00,0.0050
3014.00,0.0051
3013.00,0.0052
3012.00,0.0053
3011.00,0.0054
3010.00,0.0056
3009.00,0.0057
3008.00,0.0059
3007.00,0.0061
3006.00,0.0062
3005.00,0.0063
3004.00,0.0065
3003.00,0.0066
3002.00,0.0068
3001.00,0.0070
3000.00,0.0072
2999.00,0.0075
2998.00,0.0078
2997.00,0.0081
2996.00,0.0084
2995.00,0.0088
2994.00,0.0092
2993.00,0.0096
2992.00,0.0101
2991.00,0.0106
2990.00,0.0113
2989.00,0.0119
2988.00,0.0127
2987.00,0.0135
2986.00,0.0144
2985.00,0.0154
2984.00,0.0165
2983.00,0.0177
2982.00,0.0191
2981.00,0.0207
2980.00,0.0225
2979.00,0.0245
2978.00,0.0268
2977.00,0.0295
2976.00,0.0326
2975.00,0.0361
2974.00,0.0400
2973.00,0.0445
2972.00,0.0495
2971.00,0.0550
2970.00,0.0612
2969.00,0.0679
2968.00,0.0751
2967.00,0.0826
2966.00,0.0903
2965.00,0.0980
2964.00,0.1053
2963.00,0.1119
2962.00,0.1176
2961.00,0.1224
2960.00,0.1266
2959.00,0.1305
2958.00,0.1349
2957.00,0.1402
2956.00,0.1468
2955.00,0.1548
2954.00,0.1639
2953.00,0.1734
2952.00,0.1821
2951.00,0.1885
2950.00,0.1915
2949.00,0.1901
2948.00,0.1843
2947.00,0.1745
2946.00,0.1623
2945.00,0.1491
2944.00,0.1365
2943.00,0.1256
2942.00,0.1172
2941.00,0.1113
2940.00,0.1080
2939.00,0.1070
2938.00,0.1081
2937.00,0.1111
2936.00,0.1157
2935.00,0.1219
2934.00,0.1296
2933.00,0.1385
2932.00,0.1487
2931.00,0.1599
2930.00,0.1719
2929.00,0.1843
2928.00,0.1968
2927.00,0.2091
2926.00,0.2212
2925.00,0.2331
2924.00,0.2447
2923.00,0.2565
2922.00,0.2682
2921.00,0.2796
2920.00,0.2899
2919.00,0.2978
2918.00,0.3021
2917.00,0.3018
2916.00,0.2966
2915.00,0.2873
2914.00,0.2753
2913.00,0.2621
2912.00,0.2490
2911.00,0.2368
2910.00,0.2258
2909.00,0.2160
2908.00,0.2071
2907.00,0.1988
2906.00,0.1908
2905.00,0.1831
2904.00,0.1755
2903.00,0.1680
2902.00,0.1608
2901.00,0.1539
2900.00,0.1474
2899.00,0.1412
2898.00,0.1355
2897.00,0.1303
2896.00,0.1257
2895.00,0.1216
2894.00,0.1181
2893.00,0.1153
2892.00,0.1130
2891.00,0.1114
2890.00,0.1103
2889.00,0.1097
2888.00,0.1095
2887.00,0.1096
2886.00,0.1100
2885.00,0.1109
2884.00,0.1122
2883.00,0.1139
2882.00,0.1162
2881.00,0.1188
2880.00,0.1215
2879.00,0.1237
2878.00,0.1251
2877.00,0.1256
2876.00,0.1253
2875.00,0.1246
2874.00,0.1240
2873.00,0.1240
2872.00,0.1247
2871.00,0.1262
2870.00,0.1283
2869.00,0.1303
2868.00,0.1317
2867.00,0.1315
2866.00,0.1291
2865.00,0.1241
2864.00,0.1170
2863.00,0.1088
2862.00,0.1006
2861.00,0.0933
2860.00,0.0875
2859.00,0.0835
2858.00,0.0811
2857.00,0.0800
2856.00,0.0800
2855.00,0.0808
2854.00,0.0823
2853.00,0.0841
2852.00,0.0860
2851.00,0.0877
2850.00,0.0891
2849.00,0.0901
2848.00,0.0911
2847.00,0.0924
2846.00,0.0944
2845.00,0.0976
2844.00,0.1017
2843.00,0.1066
2842.00,0.1118
2841.00,0.1166
2840.00,0.1203
2839.00,0.1221
2838.00,0.1214
2837.00,0.1177
2836.00,0.1112
2835.00,0.1023
2834.00,0.0920
2833.00,0.0813
2832.00,0.0712
2831.00,0.0623
2830.00,0.0547
2829.00,0.0485
2828.00,0.0435
2827.00,0.0394
2826.00,0.0361
2825.00,0.0334
2824.00,0.0312
2823.00,0.0292
2822.00,0.0276
2821.00,0.0262
2820.00,0.0250
2819.00,0.0239
2818.00,0.0229
2817.00,0.0221
2816.00,0.0213
2815.00,0.0207
2814.00,0.0201
2813.00,0.0195
2812.00,0.0189
2811.00,0.0184
2810.00,0.0178
2809.00,0.0172
2808.00,0.0165
2807.00,0.0159
2806.00,0.0152
2805.00,0.0145
2804.00,0.0139
2803.00,0.0133
2802.00,0.0128
2801.00,0.0123
2800.00,0.0119
2799.00,0.0116
2798.00,0.0113
2797.00,0.0110
2796.00,0.0107
2795.00,0.0104
2794.00,0.0102
2793.00,0.0099
2792.00,0.0097
2791.00,0.0095
2790.00,0.0092
2789.00,0.0089
2788.00,0.0087
2787.00,0.0084
2786.00,0.0082
2785.00,0.0079
2784.00,0.0077
2783.00,0.0075
2782.00,0.0073
2781.00,0.0071
2780.00,0.0070
2779.00,0.0068
2778.00,0.0067
2777.00,0.0065
2776.00,0.0064
2775.00,0.0062
2774.00,0.0061
2773.00,0.0061
2772.00,0.0060
2771.00,0.0060
2770.00,0.0060
2769.00,0.0059
2768.00,0.0059
2767.00,0.0058
2766.00,0.0058
2765.00,0.0058
2764.00,0.0058
2763.00,0.0057
2762.00,0.0057
2761.00,0.0056
2760.00,0.0056
2759.00,0.0055
2758.00,0.0055
2757.00,0.0055
2756.00,0.0055
2755.00,0.0055
2754.00,0.0055
2753.00,0.0055
2752.00,0.0054
2751.00,0.0054
2750.00,0.0055
2749.00,0.0055
2748.00,0.0055
2747.00,0.0055
2746.00,0.0055
2745.00,0.0055
2744.00,0.0056
2743.00,0.0056
2742.00,0.0057
2741.00,0.0059
2740.00,0.0060
2739.00,0.0062
2738.00,0.0063
2737.00,0.0064
2736.00,0.0066
2735.00,0.0067
2734.00,0.0068
2733.00,0.0070
2732.00,0.0072
2731.00,0.0074
2730.00,0.0076
2729.00,0.0079
2728.00,0.0082
2727.00,0.0085
2726.00,0.0087
2725.00,0.0089
2724.00,0.0091
2723.00,0.0091
2722.00,0.0091
2721.00,0.0089
2720.00,0.0087
2719.00,0.0084
2718.00,0.0080
2717.00,0.0077
2716.00,0.0074
2715.00,0.0071
2714.00,0.0068
2713.00,0.0066
2712.00,0.0064
2711.00,0.0061
2710.00,0.0059
2709.00,0.0057
2708.00,0.0056
2707.00,0.0055
2706.00,0.0054
2705.00,0.0052
2704.00,0.0051
2703.00,0.0050
2702.00,0.0050
2701.00,0.0049
2700.00,0.0049
2699.00,0.0048
2698.00,0.0048
2697.00,0.0047
2696.00,0.0047
2695.00,0.0047
2694.00,0.0047
2693.00,0.0047
2692.00,0.0047
2691.00,0.0047
2690.00,0.0048
2689.00,0.0048
2688.00,0.0047
2687.00,0.0047
2686.00,0.0047
2685.00,0.0047
2684.00,0.0047
2683.00,0.0047
2682.00,0.0047
2681.00,0.0047
2680.00,0.0048
2679.00,0.0048
2678.00,0.0048
2677.00,0.0049
2676.00,0.0049
2675.00,0.0049
2674.00,0.0048
2673.00,0.0048
2672.00,0.0048
2671.00,0.0047
2670.00,0.0047
2669.00,0.0047
2668.00,0.0047
2667.00,0.0048
2666.00,0.0048
2665.00,0.0049
2664.00,0.0049
2663.00,0.0050
2662.00,0.0050
2661.00,0.0050
2660.00,0.0050
2659.00,0.0050
2658.00,0.0051
2657.00,0.0050
2656.00,0.0050
2655.00,0.0050
2654.00,0.0049
2653.00,0.0048
2652.00,0.0048
2651.00,0.0047
2650.00,0.0047
2649.00,0.0046
2648.00,0.0046
2647.00,0.0045
2646.00,0.0045
2645.00,0.0044
2644.00,0.0044
2643.00,0.0044
2642.00,0.0044
2641.00,0.0043
2640.00,0.0043
2639.00,0.0043
2638.00,0.0042
2637.00,0.0042
2636.00,0.0041
2635.00,0.0041
2634.00,0.0041
2633.00,0.0042
2632.00,0.0042
2631.00,0.0042
2630.00,0.0042
2629.00,0.0042
2628.00,0.0042
2627.00,0.0042
2626.00,0.0042
2625.00,0.0042
2624.00,0.0042
2623.00,0.0043
2622.00,0.0043
2621.00,0.0044
2620.00,0.0044
2619.00,0.0044
2618.00,0.0043
2617.00,0.0043
2616.00,0.0043
2615.00,0.0042
2614.00,0.0042
2613.00,0.0042
2612.00,0.0041
2611.00,0.0041
2610.00,0.0040
2609.00,0.0040
2608.00,0.0039
2607.00,0.0038
2606.00,0.0038
2605.00,0.0037
2604.00,0.0037
2603.00,0.0036
2602.00,0.0036
2601.00,0.0035
2600.00,0.0035
2599.00,0.0035
2598.00,0.0035
2597.00,0.0035
2596.00,0.0036
2595.00,0.0036
2594.00,0.0036
2593.00,0.0036
2592.00,0.0036
2591.00,0.0036
2590.00,0.0037
2589.00,0.0038
2588.00,0.0039
2587.00,0.0040
2586.00,0.0041
2585.00,0.0042
2584.00,0.0043
2583.00,0.0044
2582.00,0.0044
2581.00,0.0043
2580.00,0.0042
2579.00,0.0041
2578.00,0.0040
2577.00,0.0039
2576.00,0.0038
2575.00,0.0037
2574.00,0.0036
2573.00,0.0034
2572.00,0.0033
2571.00,0.0032
2570.00,0.0030
2569.00,0.0029
2568.00,0.0028
2567.00,0.0027
2566.00,0.0027
2565.00,0.0026
2564.00,0.0026
2563.00,0.0026
2562.00,0.0026
2561.00,0.0026
2560.00,0.0026
2559.00,0.0025
2558.00,0.0025
2557.00,0.0025
2556.00,0.0025
2555.00,0.0025
2554.00,0.0025
2553.00,0.0025
2552.00,0.0024
2551.00,0.0024
2550.00,0.0024
2549.00,0.0024
2548.00,0.0023
2547.00,0.0022
2546.00,0.0022
2545.00,0.0021
2544.00,0.0021
2543.00,0.0021
2542.00,0.0020
2541.00,0.0020
2540.00,0.0019
2539.00,0.0019
2538.00,0.0019
2537.00,0.0019
2536.00,0.0018
2535.00,0.0018
2534.00,0.0018
2533.00,0.0017
2532.00,0.0017
2531.00,0.0017
2530.00,0.0018
2529.00,0.0018
2528.00,0.0018
2527.00,0.0018
2526.00,0.0018
2525.00,0.0018
2524.00,0.0018
2523.00,0.0017
2522.00,0.0017
2521.00,0.0016
2520.00,0.0016
2519.00,0.0015
2518.00,0.0015
2517.00,0.0014
2516.00,0.0014
2515.00,0.0014
2514.00,0.0014
2513.00,0.0014
2512.00,0.0013
2511.00,0.0013
2510.00,0.0013
2509.00,0.0013
2508.00,0.0014
2507.00,0.0014
2506.00,0.0014
2505.00,0.0014
2504.00,0.0014
2503.00,0.0013
2502.00,0.0013
2501.00,0.0013
2500.00,0.0013
2499.00,0.0014
2498.00,0.0014
2497.00,0.0014
2496.00,0.0014
2495.00,0.0014
2494.00,0.0014
2493.00,0.0013
2492.00,0.0013
2491.00,0.0012
2490.00,0.0012
2489.00,0.0012
2488.00,0.0013
2487.00,0.0013
2486.00,0.0013
2485.00,0.0014
2484.00,0.0013
2483.00,0.0013
2482.00,0.0012
2481.00,0.0012
2480.00,0.0012
2479.00,0.0012
2478.00,0.0012
2477.00,0.0012
2476.00,0.0011
2475.00,0.0011
2474.00,0.0011
2473.00,0.0011
2472.00,0.0011
2471.00,0.0011
2470.00,0.0011
2469.00,0.0011
2468.00,0.0011
2467.00,0.0011
2466.00,0.0011
2465.00,0.0012
2464.00,0.0012
2463.00,0.0013
2462.00,0.0012
2461.00,0.0012
2460.00,0.0012
2459.00,0.0012
2458.00,0.0013
2457.00,0.0013
2456.00,0.0014
2455.00,0.0014
2454.00,0.0013
2453.00,0.0013
2452.00,0.0013
2451.00,0.0014
2450.00,0.0014
2449.00,0.0015
2448.00,0.0015
2447.00,0.0015
2446.00,0.0015
2445.00,0.0014
2444.00,0.0013
2443.00,0.0012
2442.00,0.0012
2441.00,0.0011
2440.00,0.0012
2439.00,0.0012
2438.00,0.0012
2437.00,0.0012
2436.00,0.0012
2435.00,0.0012
2434.00,0.0012
2433.00,0.0013
2432.00,0.0013
2431.00,0.0014
2430.00,0.0014
2429.00,0.0014
2428.00,0.0014
2427.00,0.0014
2426.00,0.0014
2425.00,0.0014
2424.00,0.0013
2423.00,0.0013
2422.00,0.0012
2421.00,0.0012
2420.00,0.0012
2419.00,0.0012
2418.00,0.0012
2417.00,0.0011
2416.00,0.0011
2415.00,0.0011
2414.00,0.0010
2413.00,0.0010
2412.00,0.0011
2411.00,0.0012
2410.00,0.0012
2409.00,0.0012
2408.00,0.0012
2407.00,0.0011
2406.00,0.0010
2405.00,0.0010
2404.00,0.0010
2403.00,0.0010
2402.00,0.0010
2401.00,0.0010
2400.00,0.0010
2399.00,0.0009
2398.00,0.0010
2397.00,0.0010
2396.00,0.0010
2395.00,0.0010
2394.00,0.0010
2393.00,0.0010
2392.00,0.0010
2391.00,0.0011
2390.00,0.0011
2389.00,0.0011
2388.00,0.0010
2387.00,0.0010
2386.00,0.0009
2385.00,0.0009
2384.00,0.0008
2383.00,0.0008
2382.00,0.0007
2381.00,0.0006
2380.00,0.0005
2379.00,0.0005
2378.00,0.0004
2377.00,0.0003
2376.00,0.0003
2375.00,0.0003
2374.00,0.0003
2373.00,0.0004
2372.00,0.0005
2371.00,0.0005
2370.00,0.0006
2369.00,0.0007
2368.00,0.0007
2367.00,0.0007
2366.00,0.0006
2365.00,0.0005
2364.00,0.0005
2363.00,0.0006
2362.00,0.0006
2361.00,0.0007
2360.00,0.0008
2359.00,0.0008
2358.00,0.0008
2357.00,0.0007
2356.00,0.0007
2355.00,0.0007
2354.00,0.0007
2353.00,0.0007
2352.00,0.0007
2351.00,0.0007
2350.00,0.0007
2349.00,0.0008
2348.00,0.0008
2347.00,0.0008
2346.00,0.0008
2345.00,0.0009
2344.00,0.0009
2343.00,0.0009
2342.00,0.0009
2341.00,0.0009
2340.00,0.0009
2339.00,0.0010
2338.00,0.0010
2337.00,0.0010
2336.00,0.0010
2335.00,0.0010
2334.00,0.0009
2333.00,0.0009
2332.00,0.0008
2331.00,0.0008
2330.00,0.0008
2329.00,0.0009
2328.00,0.0011
2327.00,0.0014
2326.00,0.0017
2325.00,0.0020
2324.00,0.0021
2323.00,0.0021
2322.00,0.0019
2321.00,0.0018
2320.00,0.0017
2319.00,0.0016
2318.00,0.0015
2317.00,0.0015
2316.00,0.0014
2315.00,0.0014
2314.00,0.0013
2313.00,0.0013
2312.00,0.0013
2311.00,0.0013
2310.00,0.0013
2309.00,0.0013
2308.00,0.0013
2307.00,0.0013
2306.00,0.0013
2305.00,0.0014
2304.00,0.0014
2303.00,0.0015
2302.00,0.0015
2301.00,0.0015
2300.00,0.0015
2299.00,0.0015
2298.00,0.0016
2297.00,0.0017
2296.00,0.0017
2295.00,0.0017
2294.00,0.0018
2293.00,0.0018
2292.00,0.0019
2291.00,0.0019
2290.00,0.0020
2289.00,0.0020
2288.00,0.0021
2287.00,0.0021
2286.00,0.0022
2285.00,0.0022
2284.00,0.0021
2283.00,0.0020
2282.00,0.0019
2281.00,0.0018
2280.00,0.0017
2279.00,0.0017
2278.00,0.0016
2277.00,0.0017
2276.00,0.0017
2275.00,0.0018
2274.00,0.0018
2273.00,0.0018
2272.00,0.0017
2271.00,0.0016
2270.00,0.0015
2269.00,0.0014
2268.00,0.0014
2267.00,0.0013
2266.00,0.0013
2265.00,0.0013
2264.00,0.0013
2263.00,0.0013
2262.00,0.0013
2261.00,0.0013
2260.00,0.0013
2259.00,0.0014
2258.00,0.0015
2257.00,0.0016
2256.00,0.0016
2255.00,0.0015
2254.00,0.0012
2253.00,0.0010
2252.00,0.0008
2251.00,0.0008
2250.00,0.0009
2249.00,0.0011
2248.00,0.0012
2247.00,0.0011
2246.00,0.0011
2245.00,0.0011
2244.00,0.0011
2243.00,0.0012
2242.00,0.0012
2241.00,0.0013
2240.00,0.0012
2239.00,0.0012
2238.00,0.0011
2237.00,0.0011
2236.00,0.0011
2235.00,0.0012
2234.00,0.0013
2233.00,0.0013
2232.00,0.0013
2231.00,0.0011
2230.00,0.0010
2229.00,0.0010
2228.00,0.0011
2227.00,0.0012
2226.00,0.0013
2225.00,0.0013
2224.00,0.0013
2223.00,0.0012
2222.00,0.0011
2221.00,0.0010
2220.00,0.0008
2219.00,0.0006
2218.00,0.0005
2217.00,0.0005
2216.00,0.0006
2215.00,0.0007
2214.00,0.0008
2213.00,0.0008
2212.00,0.0008
2211.00,0.0008
2210.00,0.0008
2209.00,0.0008
2208.00,0.0008
2207.00,0.0009
2206.00,0.0011
2205.00,0.0012
2204.00,0.0011
2203.00,0.0009
2202.00,0.0008
2201.00,0.0007
2200.00,0.0006
2199.00,0.0005
2198.00,0.0005
2197.00,0.0006
2196.00,0.0009
2195.00,0.0012
2194.00,0.0013
2193.00,0.0012
2192.00,0.0010
2191.00,0.0009
2190.00,0.0011
2189.00,0.0013
2188.00,0.0015
2187.00,0.0016
2186.00,0.0016
2185.00,0.0015
2184.00,0.0015
2183.00,0.0013
2182.00,0.0010
2181.00,0.0006
2180.00,0.0004
2179.00,0.0004
2178.00,0.0005
2177.00,0.0004
2176.00,0.0003
2175.00,0.0002
2174.00,0.0002
2173.00,0.0003
2172.00,0.0005
2171.00,0.0007
2170.00,0.0008
2169.00,0.0010
2168.00,0.0012
2167.00,0.0014
2166.00,0.0016
2165.00,0.0020
2164.00,0.0023
2163.00,0.0025
2162.00,0.0022
2161.00,0.0013
2160.00,-0.0001
2159.00,-0.0015
2158.00,-0.0024
2157.00,-0.0024
2156.00,-0.0019
2155.00,-0.0014
2154.00,-0.0011
2153.00,-0.0009
2152.00,-0.0008
2151.00,-0.0006
2150.00,-0.0006
2149.00,-0.0006
2148.00,-0.0006
2147.00,-0.0007
2146.00,-0.0008
2145.00,-0.0009
2144.00,-0.0009
2143.00,-0.0009
2142.00,-0.0009
2141.00,-0.0010
2140.00,-0.0011
2139.00,-0.0012
2138.00,-0.0012
2137.00,-0.0012
2136.00,-0.0012
2135.00,-0.0014
2134.00,-0.0015
2133.00,-0.0015
2132.00,-0.0013
2131.00,-0.0011
2130.00,-0.0010
2129.00,-0.0009
2128.00,-0.0008
2127.00,-0.0007
2126.00,-0.0006
2125.00,-0.0004
2124.00,-0.0003
2123.00,-0.0003
2122.00,-0.0002
2121.00,-0.0002
2120.00,-0.0003
2119.00,-0.0002
2118.00,-0.0001
2117.00,0.0001
2116.00,0.0003
2115.00,0.0005
2114.00,0.0005
2113.00,0.0005
2112.00,0.0004
2111.00,0.0004
2110.00,0.0003
2109.00,0.0003
2108.00,0.0003
2107.00,0.0003
2106.00,0.0003
2105.00,0.0004
2104.00,0.0006
2103.00,0.0008
2102.00,0.0009
2101.00,0.0008
2100.00,0.0007
2099.00,0.0004
2098.00,0.0002
2097.00,-0.0000
2096.00,-0.0002
2095.00,-0.0003
2094.00,-0.0004
2093.00,-0.0003
2092.00,-0.0000
2091.00,0.0002
2090.00,0.0003
2089.00,0.0004
2088.00,0.0003
2087.00,0.0003
2086.00,0.0002
2085.00,0.0003
2084.00,0.0003
2083.00,0.0004
2082.00,0.0005
2081.00,0.0006
2080.00,0.0006
2079.00,0.0006
2078.00,0.0005
2077.00,0.0005
2076.00,0.0006
2075.00,0.0006
2074.00,0.0006
2073.00,0.0004
2072.00,0.0003
2071.00,0.0001
2070.00,-0.0000
2069.00,-0.0000
2068.00,0.0000
2067.00,0.0000
2066.00,-0.0001
2065.00,-0.0002
2064.00,-0.0002
2063.00,-0.0003
2062.00,-0.0003
2061.00,-0.0003
2060.00,-0.0002
2059.00,0.0000
2058.00,0.0003
2057.00,0.0004
2056.00,0.0004
2055.00,0.0003
2054.00,0.0004
2053.00,0.0008
2052.00,0.0014
2051.00,0.0019
2050.00,0.0018
2049.00,0.0013
2048.00,0.0007
2047.00,0.0003
2046.00,0.0003
2045.00,0.0005
2044.00,0.0007
2043.00,0.0008
2042.00,0.0008
2041.00,0.0007
2040.00,0.0006
2039.00,0.0005
2038.00,0.0004
2037.00,0.0003
2036.00,0.0003
2035.00,0.0002
2034.00,0.0000
2033.00,-0.0002
2032.00,-0.0003
2031.00,-0.0005
2030.00,-0.0006
2029.00,-0.0007
2028.00,-0.0009
2027.00,-0.0012
2026.00,-0.0013
2025.00,-0.0012
2024.00,-0.0009
2023.00,-0.0005
2022.00,-0.0003
2021.00,-0.0002
2020.00,-0.0002
2019.00,-0.0003
2018.00,-0.0005
2017.00,-0.0007
2016.00,-0.0009
2015.00,-0.0010
2014.00,-0.0008
2013.00,-0.0005
2012.00,-0.0002
2011.00,-0.0000
2010.00,-0.0002
2009.00,-0.0006
2008.00,-0.0011
2007.00,-0.0015
2006.00,-0.0016
2005.00,-0.0016
2004.00,-0.0014
2003.00,-0.0013
2002.00,-0.0011
2001.00,-0.0009
2000.00,-0.0007
1999.00,-0.0006
1998.00,-0.0008
1997.00,-0.0010
1996.00,-0.0012
1995.00,-0.0012
1994.00,-0.0011
1993.00,-0.0007
1992.00,-0.0005
1991.00,-0.0004
1990.00,-0.0004
1989.00,-0.0005
1988.00,-0.0005
1987.00,-0.0003
1986.00,-0.0000
1985.00,0.0002
1984.00,0.0003
1983.00,0.0004
1982.00,0.0005
1981.00,0.0007
1980.00,0.0006
1979.00,0.0003
1978.00,-0.0002
1977.00,-0.0007
1976.00,-0.0011
1975.00,-0.0015
1974.00,-0.0017
1973.00,-0.0016
1972.00,-0.0013
1971.00,-0.0011
1970.00,-0.0010
1969.00,-0.0010
1968.00,-0.0011
1967.00,-0.0011
1966.00,-0.0010
1965.00,-0.0009
1964.00,-0.0008
1963.00,-0.0008
1962.00,-0.0010
1961.00,-0.0012
1960.00,-0.0013
1959.00,-0.0014
1958.00,-0.0015
1957.00,-0.0014
1956.00,-0.0012
1955.00,-0.0011
1954.00,-0.0010
1953.00,-0.0011
1952.00,-0.0011
1951.00,-0.0012
1950.00,-0.0012
1949.00,-0.0010
1948.00,-0.0007
1947.00,-0.0005
1946.00,-0.0005
1945.00,-0.0006
1944.00,-0.0008
1943.00,-0.0010
1942.00,-0.0012
1941.00,-0.0014
1940.00,-0.0014
1939.00,-0.0013
1938.00,-0.0011
1937.00,-0.0010
1936.00,-0.0009
1935.00,-0.0009
1934.00,-0.0008
1933.00,-0.0007
1932.00,-0.0006
1931.00,-0.0005
1930.00,-0.0004
1929.00,-0.0003
1928.00,-0.0002
1927.00,-0.0003
1926.00,-0.0003
1925.00,-0.0003
1924.00,-0.0003
1923.00,-0.0003
1922.00,-0.0003
1921.00,-0.0002
1920.00,-0.0002
1919.00,-0.0001
1918.00,-0.0001
1917.00,-0.0002
1916.00,-0.0003
1915.00,-0.0004
1914.00,-0.0004
1913.00,-0.0003
1912.00,-0.0002
1911.00,0.0000
1910.00,0.0002
1909.00,0.0003
1908.00,0.0002
1907.00,0.0001
1906.00,0.0000
1905.00,0.0000
1904.00,0.0001
1903.00,0.0001
1902.00,0.0001
1901.00,0.0001
1900.00,0.0002
1899.00,0.0002
1898.00,0.0003
1897.00,0.0003
1896.00,0.0003
1895.00,0.0003
1894.00,0.0003
1893.00,0.0003
1892.00,0.0002
1891.00,0.0002
1890.00,0.0001
1889.00,0.0000
1888.00,-0.0001
1887.00,-0.0001
1886.00,-0.0001
1885.00,-0.0001
1884.00,0.0000
1883.00,0.0001
1882.00,0.0001
1881.00,0.0001
1880.00,0.0001
1879.00,0.0000
1878.00,-0.0000
1877.00,-0.0000
1876.00,0.0000
1875.00,0.0001
1874.00,0.0002
1873.00,0.0002
1872.00,0.0003
1871.00,0.0003
1870.00,0.0003
1869.00,0.0002
1868.00,0.0001
1867.00,0.0001
1866.00,0.0001
1865.00,0.0002
1864.00,0.0002
1863.00,0.0002
1862.00,0.0003
1861.00,0.0004
1860.00,0.0004
1859.00,0.0004
1858.00,0.0003
1857.00,0.0002
1856.00,0.0002
1855.00,0.0002
1854.00,0.0002
1853.00,0.0002
1852.00,0.0002
1851.00,0.0002
1850.00,0.0002
1849.00,0.0002
1848.00,0.0002
1847.00,0.0003
1846.00,0.0004
1845.00,0.0005
1844.00,0.0005
1843.00,0.0006
1842.00,0.0006
1841.00,0.0005
1840.00,0.0004
1839.00,0.0004
1838.00,0.0004
1837.00,0.0004
1836.00,0.0005
1835.00,0.0006
1834.00,0.0006
1833.00,0.0006
1832.00,0.0005
1831.00,0.0005
1830.00,0.0004
1829.00,0.0004
1828.00,0.0004
1827.00,0.0004
1826.00,0.0004
1825.00,0.0004
1824.00,0.0005
1823.00,0.0005
1822.00,0.0005
1821.00,0.0005
1820.00,0.0004
1819.00,0.0004
1818.00,0.0003
1817.00,0.0002
1816.00,0.0003
1815.00,0.0003
1814.00,0.0004
1813.00,0.0004
1812.00,0.0004
1811.00,0.0005
1810.00,0.0006
1809.00,0.0006
1808.00,0.0006
1807.00,0.0006
1806.00,0.0006
1805.00,0.0006
1804.00,0.0006
1803.00,0.0006
1802.00,0.0006
1801.00,0.0006
1800.00,0.0006
1799.00,0.0007
1798.00,0.0008
1797.00,0.0008
1796.00,0.0008
1795.00,0.0008
1794.00,0.0008
1793.00,0.0007
1792.00,0.0007
1791.00,0.0008
1790.00,0.0008
1789.00,0.0008
1788.00,0.0008
1787.00,0.0009
1786.00,0.0009
1785.00,0.0009
1784.00,0.0009
1783.00,0.0009
1782.00,0.0009
1781.00,0.0009
1780.00,0.0009
1779.00,0.0009
1778.00,0.0009
1777.00,0.0009
1776.00,0.0009
1775.00,0.0010
1774.00,0.0010
1773.00,0.0011
1772.00,0.0011
1771.00,0.0012
1770.00,0.0011
1769.00,0.0011
1768.00,0.0011
1767.00,0.0012
1766.00,0.0012
1765.00,0.0012
1764.00,0.0012
1763.00,0.0013
1762.00,0.0013
1761.00,0.0014
1760.00,0.0015
1759.00,0.0015
1758.00,0.0016
1757.00,0.0016
1756.00,0.0017
1755.00,0.0018
1754.00,0.0019
1753.00,0.0020
1752.00,0.0021
1751.00,0.0021
1750.00,0.0022
1749.00,0.0023
1748.00,0.0023
1747.00,0.0024
1746.00,0.0025
1745.00,0.0026
1744.00,0.0027
1743.00,0.0027
1742.00,0.0028
1741.00,0.0028
1740.00,0.0028
1739.00,0.0029
1738.00,0.0029
1737.00,0.0029
1736.00,0.0029
1735.00,0.0028
1734.00,0.0027
1733.00,0.0027
1732.00,0.0028
1731.00,0.0027
1730.00,0.0027
1729.00,0.0027
1728.00,0.0027
1727.00,0.0027
1726.00,0.0027
1725.00,0.0028
1724.00,0.0029
1723.00,0.0030
1722.00,0.0030
1721.00,0.0029
1720.00,0.0029
1719.00,0.0028
1718.00,0.0028
1717.00,0.0028
1716.00,0.0028
1715.00,0.0027
1714.00,0.0026
1713.00,0.0026
1712.00,0.0026
1711.00,0.0025
1710.00,0.0025
1709.00,0.0025
1708.00,0.0025
1707.00,0.0025
1706.00,0.0024
1705.00,0.0025
1704.00,0.0025
1703.00,0.0026
1702.00,0.0028
1701.00,0.0030
1700.00,0.0031
1699.00,0.0031
1698.00,0.0030
1697.00,0.0030
1696.00,0.0030
1695.00,0.0030
1694.00,0.0030
1693.00,0.0031
1692.00,0.0032
1691.00,0.0032
1690.00,0.0033
1689.00,0.0034
1688.00,0.0034
1687.00,0.0034
1686.00,0.0034
1685.00,0.0034
1684.00,0.0035
1683.00,0.0036
1682.00,0.0036
1681.00,0.0037
1680.00,0.0038
1679.00,0.0039
1678.00,0.0040
1677.00,0.0040
1676.00,0.0040
1675.00,0.0040
1674.00,0.0040
1673.00,0.0041
1672.00,0.0041
1671.00,0.0042
1670.00,0.0043
1669.00,0.0043
1668.00,0.0043
1667.00,0.0043
1666.00,0.0043
1665.00,0.0044
1664.00,0.0045
1663.00,0.0046
1662.00,0.0046
1661.00,0.0047
1660.00,0.0048
1659.00,0.0048
1658.00,0.0048
1657.00,0.0049
1656.00,0.0050
1655.00,0.0050
1654.00,0.0050
1653.00,0.0050
1652.00,0.0050
1651.00,0.0051
1650.00,0.0051
1649.00,0.0051
1648.00,0.0052
1647.00,0.0053
1646.00,0.0054
1645.00,0.0054
1644.00,0.0055
1643.00,0.0055
1642.00,0.0055
1641.00,0.0055
1640.00,0.0056
1639.00,0.0056
1638.00,0.0056
1637.00,0.0057
1636.00,0.0057
1635.00,0.0057
1634.00,0.0056
1633.00,0.0055
1632.00,0.0055
1631.00,0.0054
1630.00,0.0054
1629.00,0.0054
1628.00,0.0053
1627.00,0.0052
1626.00,0.0052
1625.00,0.0051
1624.00,0.0051
1623.00,0.0050
1622.00,0.0050
1621.00,0.0050
1620.00,0.0049
1619.00,0.0049
1618.00,0.0048
1617.00,0.0048
1616.00,0.0048
1615.00,0.0048
1614.00,0.0048
1613.00,0.0048
1612.00,0.0048
1611.00,0.0048
1610.00,0.0048
1609.00,0.0047
1608.00,0.0047
1607.00,0.0047
1606.00,0.0047
1605.00,0.0047
1604.00,0.0047
1603.00,0.0047
1602.00,0.0046
1601.00,0.0046
1600.00,0.0046
1599.00,0.0046
1598.00,0.0046
1597.00,0.0046
1596.00,0.0046
1595.00,0.0046
1594.00,0.0045
1593.00,0.0045
1592.00,0.0044
1591.00,0.0044
1590.00,0.0045
1589.00,0.0045
1588.00,0.0045
1587.00,0.0044
1586.00,0.0044
1585.00,0.0045
1584.00,0.0045
1583.00,0.0045
1582.00,0.0045
1581.00,0.0046
1580.00,0.0047
1579.00,0.0048
1578.00,0.0048
1577.00,0.0049
1576.00,0.0050
1575.00,0.0049
1574.00,0.0049
1573.00,0.0049
1572.00,0.0049
1571.00,0.0049
1570.00,0.0049
1569.00,0.0050
1568.00,0.0050
1567.00,0.0051
1566.00,0.0051
1565.00,0.0052
1564.00,0.0052
1563.00,0.0052
1562.00,0.0052
1561.00,0.0052
1560.00,0.0052
1559.00,0.0052
1558.00,0.0051
1557.00,0.0052
1556.00,0.0053
1555.00,0.0054
1554.00,0.0054
1553.00,0.0054
1552.00,0.0054
1551.00,0.0055
1550.00,0.0055
1549.00,0.0056
1548.00,0.0056
1547.00,0.0057
1546.00,0.0057
1545.00,0.0057
1544.00,0.0057
1543.00,0.0056
1542.00,0.0056
1541.00,0.0057
1540.00,0.0057
1539.00,0.0056
1538.00,0.0055
1537.00,0.0055
1536.00,0.0055
1535.00,0.0055
1534.00,0.0054
1533.00,0.0053
1532.00,0.0052
1531.00,0.0052
1530.00,0.0052
1529.00,0.0052
1528.00,0.0052
1527.00,0.0052
1526.00,0.0052
1525.00,0.0052
1524.00,0.0051
1523.00,0.0051
1522.00,0.0051
1521.00,0.0052
1520.00,0.0053
1519.00,0.0054
1518.00,0.0054
1517.00,0.0055
1516.00,0.0055
1515.00,0.0055
1514.00,0.0055
1513.00,0.0056
1512.00,0.0057
1511.00,0.0058
1510.00,0.0058
1509.00,0.0059
1508.00,0.0061
1507.00,0.0062
1506.00,0.0062
1505.00,0.0063
1504.00,0.0064
1503.00,0.0065
1502.00,0.0067
1501.00,0.0069
1500.00,0.0072
1499.00,0.0073
1498.00,0.0075
1497.00,0.0078
1496.00,0.0081
1495.00,0.0083
1494.00,0.0085
1493.00,0.0088
1492.00,0.0092
1491.00,0.0095
1490.00,0.0098
1489.00,0.0102
1488.00,0.0107
1487.00,0.0111
1486.00,0.0117
1485.00,0.0123
1484.00,0.0129
1483.00,0.0135
1482.00,0.0143
1481.00,0.0153
1480.00,0.0165
1479.00,0.0177
1478.00,0.0193
1477.00,0.0214
1476.00,0.0240
1475.00,0.0271
1474.00,0.0312
1473.00,0.0369
1472.00,0.0437
1471.00,0.0505
1470.00,0.0570
1469.00,0.0639
1468.00,0.0714
1467.00,0.0796
1466.00,0.0889
1465.00,0.0987
1464.00,0.1073
1463.00,0.1133
1462.00,0.1170
1461.00,0.1194
1460.00,0.1208
1459.00,0.1215
1458.00,0.1217
1457.00,0.1214
1456.00,0.1203
1455.00,0.1188
1454.00,0.1169
1453.00,0.1145
1452.00,0.1112
1451.00,0.1069
1450.00,0.1014
1449.00,0.0940
1448.00,0.0851
1447.00,0.0759
1446.00,0.0678
1445.00,0.0608
1444.00,0.0549
1443.00,0.0501
1442.00,0.0466
1441.00,0.0442
1440.00,0.0428
1439.00,0.0424
1438.00,0.0429
1437.00,0.0433
1436.00,0.0427
1435.00,0.0404
1434.00,0.0368
1433.00,0.0325
1432.00,0.0279
1431.00,0.0238
1430.00,0.0207
1429.00,0.0183
1428.00,0.0166
1427.00,0.0156
1426.00,0.0149
1425.00,0.0143
1424.00,0.0138
1423.00,0.0135
1422.00,0.0133
1421.00,0.0130
1420.00,0.0127
1419.00,0.0124
1418.00,0.0122
1417.00,0.0119
1416.00,0.0117
1415.00,0.0116
1414.00,0.0115
1413.00,0.0114
1412.00,0.0112
1411.00,0.0112
1410.00,0.0112
1409.00,0.0111
1408.00,0.0111
1407.00,0.0111
1406.00,0.0112
1405.00,0.0112
1404.00,0.0111
1403.00,0.0112
1402.00,0.0113
1401.00,0.0114
1400.00,0.0114
1399.00,0.0116
1398.00,0.0118
1397.00,0.0121
1396.00,0.0124
1395.00,0.0128
1394.00,0.0133
1393.00,0.0138
1392.00,0.0142
1391.00,0.0150
1390.00,0.0160
1389.00,0.0174
1388.00,0.0194
1387.00,0.0225
1386.00,0.0266
1385.00,0.0321
1384.00,0.0399
1383.00,0.0511
1382.00,0.0663
1381.00,0.0862
1380.00,0.1114
1379.00,0.1406
1378.00,0.1697
1377.00,0.1920
1376.00,0.2007
1375.00,0.1919
1374.00,0.1681
1373.00,0.1386
1372.00,0.1112
1371.00,0.0885
1370.00,0.0706
1369.00,0.0572
1368.00,0.0481
1367.00,0.0424
1366.00,0.0394
1365.00,0.0381
1364.00,0.0384
1363.00,0.0398
1362.00,0.0420
1361.00,0.0444
1360.00,0.0463
1359.00,0.0469
1358.00,0.0458
1357.00,0.0432
1356.00,0.0394
1355.00,0.0351
1354.00,0.0310
1353.00,0.0275
1352.00,0.0247
1351.00,0.0224
1350.00,0.0205
1349.00,0.0190
1348.00,0.0177
1347.00,0.0166
1346.00,0.0157
1345.00,0.0150
1344.00,0.0143
1343.00,0.0138
1342.00,0.0134
1341.00,0.0130
1340.00,0.0127
1339.00,0.0125
1338.00,0.0123
1337.00,0.0123
1336.00,0.0124
1335.00,0.0127
1334.00,0.0130
1333.00,0.0134
1332.00,0.0139
1331.00,0.0142
1330.00,0.0144
1329.00,0.0142
1328.00,0.0138
1327.00,0.0133
1326.00,0.0128
1325.00,0.0122
1324.00,0.0116
1323.00,0.0111
1322.00,0.0107
1321.00,0.0104
1320.00,0.0102
1319.00,0.0101
1318.00,0.0099
1317.00,0.0098
1316.00,0.0097
1315.00,0.0096
1314.00,0.0095
1313.00,0.0095
1312.00,0.0096
1311.00,0.0098
1310.00,0.0100
1309.00,0.0104
1308.00,0.0110
1307.00,0.0118
1306.00,0.0125
1305.00,0.0130
1304.00,0.0132
1303.00,0.0131
1302.00,0.0129
1301.00,0.0127
1300.00,0.0127
1299.00,0.0128
1298.00,0.0130
1297.00,0.0131
1296.00,0.0131
1295.00,0.0129
1294.00,0.0126
1293.00,0.0121
1292.00,0.0116
1291.00,0.0111
1290.00,0.0106
1289.00,0.0102
1288.00,0.0099
1287.00,0.0097
1286.00,0.0096
1285.00,0.0094
1284.00,0.0093
1283.00,0.0091
1282.00,0.0089
1281.00,0.0088
1280.00,0.0086
1279.00,0.0085
1278.00,0.0085
1277.00,0.0085
1276.00,0.0084
1275.00,0.0083
1274.00,0.0083
1273.00,0.0083
1272.00,0.0083
1271.00,0.0083
1270.00,0.0084
1269.00,0.0085
1268.00,0.0087
1267.00,0.0089
1266.00,0.0091
1265.00,0.0093
1264.00,0.0094
1263.00,0.0096
1262.00,0.0099
1261.00,0.0102
1260.00,0.0105
1259.00,0.0110
1258.00,0.0114
1257.00,0.0118
1256.00,0.0119
1255.00,0.0118
1254.00,0.0115
1253.00,0.0109
1252.00,0.0104
1251.00,0.0099
1250.00,0.0095
1249.00,0.0092
1248.00,0.0090
1247.00,0.0088
1246.00,0.0086
1245.00,0.0085
1244.00,0.0083
1243.00,0.0083
1242.00,0.0082
1241.00,0.0081
1240.00,0.0080
1239.00,0.0080
1238.00,0.0080
1237.00,0.0079
1236.00,0.0079
1235.00,0.0078
1234.00,0.0079
1233.00,0.0079
1232.00,0.0080
1231.00,0.0081
1230.00,0.0082
1229.00,0.0083
1228.00,0.0085
1227.00,0.0086
1226.00,0.0088
1225.00,0.0091
1224.00,0.0094
1223.00,0.0098
1222.00,0.0102
1221.00,0.0104
1220.00,0.0106
1219.00,0.0106
1218.00,0.0104
1217.00,0.0102
1216.00,0.0099
1215.00,0.0096
1214.00,0.0093
1213.00,0.0090
1212.00,0.0088
1211.00,0.0086
1210.00,0.0084
1209.00,0.0083
1208.00,0.0082
1207.00,0.0081
1206.00,0.0081
1205.00,0.0081
1204.00,0.0081
1203.00,0.0081
1202.00,0.0080
1201.00,0.0079
1200.00,0.0078
1199.00,0.0078
1198.00,0.0078
1197.00,0.0078
1196.00,0.0079
1195.00,0.0079
1194.00,0.0079
1193.00,0.0079
1192.00,0.0079
1191.00,0.0078
1190.00,0.0078
1189.00,0.0078
1188.00,0.0078
1187.00,0.0079
1186.00,0.0079
1185.00,0.0080
1184.00,0.0081
1183.00,0.0082
1182.00,0.0084
1181.00,0.0086
1180.00,0.0089
1179.00,0.0094
1178.00,0.0099
1177.00,0.0104
1176.00,0.0112
1175.00,0.0121
1174.00,0.0135
1173.00,0.0152
1172.00,0.0173
1171.00,0.0196
1170.00,0.0219
1169.00,0.0236
1168.00,0.0247
1167.00,0.0251
1166.00,0.0247
1165.00,0.0240
1164.00,0.0231
1163.00,0.0223
1162.00,0.0216
1161.00,0.0210
1160.00,0.0205
1159.00,0.0201
1158.00,0.0199
1157.00,0.0197
1156.00,0.0195
1155.00,0.0195
1154.00,0.0195
1153.00,0.0193
1152.00,0.0190
1151.00,0.0185
1150.00,0.0177
1149.00,0.0168
1148.00,0.0159
1147.00,0.0150
1146.00,0.0142
1145.00,0.0134
1144.00,0.0127
1143.00,0.0120
1142.00,0.0113
1141.00,0.0107
1140.00,0.0103
1139.00,0.0099
1138.00,0.0096
1137.00,0.0093
1136.00,0.0091
1135.00,0.0089
1134.00,0.0087
1133.00,0.0086
1132.00,0.0086
1131.00,0.0085
1130.00,0.0085
1129.00,0.0085
1128.00,0.0085
1127.00,0.0085
1126.00,0.0086
1125.00,0.0087
1124.00,0.0088
1123.00,0.0089
1122.00,0.0089
1121.00,0.0090
1120.00,0.0091
1119.00,0.0093
1118.00,0.0095
1117.00,0.0096
1116.00,0.0097
1115.00,0.0098
1114.00,0.0099
1113.00,0.0101
1112.00,0.0104
1111.00,0.0106
1110.00,0.0109
1109.00,0.0113
1108.00,0.0118
1107.00,0.0125
1106.00,0.0133
1105.00,0.0141
1104.00,0.0147
1103.00,0.0150
1102.00,0.0149
1101.00,0.0145
1100.00,0.0138
1099.00,0.0131
1098.00,0.0125
1097.00,0.0120
1096.00,0.0115
1095.00,0.0112
1094.00,0.0108
1093.00,0.0105
1092.00,0.0103
1091.00,0.0101
1090.00,0.0100
1089.00,0.0099
1088.00,0.0098
1087.00,0.0098
1086.00,0.0098
1085.00,0.0098
1084.00,0.0099
1083.00,0.0099
1082.00,0.0099
1081.00,0.0099
1080.00,0.0098
1079.00,0.0096
1078.00,0.0095
1077.00,0.0095
1076.00,0.0095
1075.00,0.0096
1074.00,0.0095
1073.00,0.0094
1072.00,0.0092
1071.00,0.0092
1070.00,0.0093
1069.00,0.0094
1068.00,0.0095
1067.00,0.0097
1066.00,0.0098
1065.00,0.0100
1064.00,0.0101
1063.00,0.0101
1062.00,0.0102
1061.00,0.0103
1060.00,0.0105
1059.00,0.0106
1058.00,0.0108
1057.00,0.0110
1056.00,0.0111
1055.00,0.0112
1054.00,0.0113
1053.00,0.0115
1052.00,0.0118
1051.00,0.0121
1050.00,0.0125
1049.00,0.0128
1048.00,0.0132
1047.00,0.0136
1046.00,0.0140
1045.00,0.0142
1044.00,0.0143
1043.00,0.0142
1042.00,0.0139
1041.00,0.0137
1040.00,0.0136
1039.00,0.0135
1038.00,0.0134
1037.00,0.0134
1036.00,0.0134
1035.00,0.0135
1034.00,0.0135
1033.00,0.0135
1032.00,0.0135
1031.00,0.0134
1030.00,0.0134
1029.00,0.0135
1028.00,0.0136
1027.00,0.0137
1026.00,0.0139
1025.00,0.0141
1024.00,0.0143
1023.00,0.0146
1022.00,0.0148
1021.00,0.0150
1020.00,0.0151
1019.00,0.0151
1018.00,0.0151
1017.00,0.0150
1016.00,0.0150
1015.00,0.0149
1014.00,0.0149
1013.00,0.0148
1012.00,0.0147
1011.00,0.0147
1010.00,0.0147
1009.00,0.0148
1008.00,0.0149
1007.00,0.0152
1006.00,0.0157
1005.00,0.0163
1004.00,0.0174
1003.00,0.0188
1002.00,0.0208
1001.00,0.0231
1000.00,0.0256
999.00,0.0275
998.00,0.0283
997.00,0.0276
996.00,0.0256
995.00,0.0230
994.00,0.0203
993.00,0.0179
992.00,0.0161
991.00,0.0147
990.00,0.0138
989.00,0.0131
988.00,0.0126
987.00,0.0124
986.00,0.0124
985.00,0.0126
984.00,0.0129
983.00,0.0135
982.00,0.0143
981.00,0.0155
980.00,0.0172
979.00,0.0196
978.00,0.0225
977.00,0.0258
976.00,0.0290
975.00,0.0319
974.00,0.0337
973.00,0.0339
972.00,0.0324
971.00,0.0294
970.00,0.0257
969.00,0.0221
968.00,0.0191
967.00,0.0168
966.00,0.0151
965.00,0.0139
964.00,0.0129
963.00,0.0121
962.00,0.0115
961.00,0.0110
960.00,0.0106
959.00,0.0102
958.00,0.0100
957.00,0.0097
956.00,0.0095
955.00,0.0094
954.00,0.0092
953.00,0.0091
952.00,0.0089
951.00,0.0087
950.00,0.0085
949.00,0.0085
948.00,0.0085
947.00,0.0086
946.00,0.0088
945.00,0.0091
944.00,0.0095
943.00,0.0099
942.00,0.0102
941.00,0.0104
940.00,0.0104
939.00,0.0100
938.00,0.0096
937.00,0.0090
936.00,0.0085
935.00,0.0080
934.00,0.0076
933.00,0.0074
932.00,0.0073
931.00,0.0072
930.00,0.0071
929.00,0.0070
928.00,0.0069
927.00,0.0068
926.00,0.0068
925.00,0.0068
924.00,0.0069
923.00,0.0069
922.00,0.0069
921.00,0.0069
920.00,0.0069
919.00,0.0068
918.00,0.0069
917.00,0.0069
916.00,0.0070
915.00,0.0072
914.00,0.0073
913.00,0.0074
912.00,0.0076
911.00,0.0077
910.00,0.0080
909.00,0.0082
908.00,0.0085
907.00,0.0089
906.00,0.0096
905.00,0.0106
904.00,0.0122
903.00,0.0142
902.00,0.0163
901.00,0.0183
900.00,0.0196
899.00,0.0200
898.00,0.0192
897.00,0.0175
896.00,0.0153
895.00,0.0134
894.00,0.0118
893.00,0.0106
892.00,0.0097
891.00,0.0091
890.00,0.0088
889.00,0.0085
888.00,0.0083
887.00,0.0081
886.00,0.0079
885.00,0.0079
884.00,0.0079
883.00,0.0080
882.00,0.0080
881.00,0.0080
880.00,0.0080
879.00,0.0080
878.00,0.0080
877.00,0.0080
876.00,0.0080
875.00,0.0078
874.00,0.0077
873.00,0.0078
872.00,0.0079
871.00,0.0081
870.00,0.0082
869.00,0.0082
868.00,0.0082
867.00,0.0082
866.00,0.0082
865.00,0.0083
864.00,0.0083
863.00,0.0083
862.00,0.0084
861.00,0.0085
860.00,0.0086
859.00,0.0088
858.00,0.0090
857.00,0.0092
856.00,0.0093
855.00,0.0094
854.00,0.0095
853.00,0.0095
852.00,0.0095
851.00,0.0096
850.00,0.0099
849.00,0.0104
848.00,0.0111
847.00,0.0120
846.00,0.0132
845.00,0.0152
844.00,0.0179
843.00,0.0210
842.00,0.0235
841.00,0.0241
840.00,0.0226
839.00,0.0197
838.00,0.0167
837.00,0.0143
836.00,0.0128
835.00,0.0119
834.00,0.0112
833.00,0.0107
832.00,0.0104
831.00,0.0102
830.00,0.0101
829.00,0.0100
828.00,0.0099
827.00,0.0099
826.00,0.0099
825.00,0.0100
824.00,0.0101
823.00,0.0101
822.00,0.0102
821.00,0.0104
820.00,0.0106
819.00,0.0109
818.00,0.0113
817.00,0.0120
816.00,0.0128
815.00,0.0140
814.00,0.0155
813.00,0.0175
812.00,0.0199
811.00,0.0222
810.00,0.0239
809.00,0.0244
808.00,0.0238
807.00,0.0222
806.00,0.0200
805.00,0.0179
804.00,0.0160
803.00,0.0145
802.00,0.0134
801.00,0.0125
800.00,0.0119
799.00,0.0113
798.00,0.0109
797.00,0.0106
796.00,0.0102
795.00,0.0100
794.00,0.0097
793.00,0.0094
792.00,0.0091
791.00,0.0088
790.00,0.0085
789.00,0.0083
788.00,0.0081
787.00,0.0080
786.00,0.0078
785.00,0.0076
784.00,0.0074
783.00,0.0072
782.00,0.0070
781.00,0.0070
780.00,0.0070
779.00,0.0071
778.00,0.0071
777.00,0.0071
776.00,0.0070
775.00,0.0070
774.00,0.0071
773.00,0.0071
772.00,0.0071
771.00,0.0071
770.00,0.0072
769.00,0.0072
768.00,0.0072
767.00,0.0071
766.00,0.0071
765.00,0.0071
764.00,0.0071
763.00,0.0072
762.00,0.0073
761.00,0.0073
760.00,0.0074
759.00,0.0074
758.00,0.0074
757.00,0.0074
756.00,0.0074
755.00,0.0074
754.00,0.0075
753.00,0.0077
752.00,0.0080
751.00,0.0082
750.00,0.0083
749.00,0.0085
748.00,0.0087
747.00,0.0089
746.00,0.0091
745.00,0.0093
744.00,0.0094
743.00,0.0095
742.00,0.0098
741.00,0.0103
740.00,0.0107
739.00,0.0111
738.00,0.0114
737.00,0.0117
736.00,0.0120
735.00,0.0124
734.00,0.0129
733.00,0.0134
732.00,0.0140
731.00,0.0147
730.00,0.0153
729.00,0.0158
728.00,0.0160
727.00,0.0160
726.00,0.0160
725.00,0.0161
724.00,0.0165
723.00,0.0172
722.00,0.0179
721.00,0.0184
720.00,0.0184
719.00,0.0178
718.00,0.0167
717.00,0.0154
716.00,0.0144
715.00,0.0137
714.00,0.0132
713.00,0.0129
712.00,0.0126
711.00,0.0121
710.00,0.0117
709.00,0.0113
708.00,0.0110
707.00,0.0109
706.00,0.0108
705.00,0.0108
704.00,0.0106
703.00,0.0105
702.00,0.0103
701.00,0.0103
700.00,0.0103
699.00,0.0104
698.00,0.0105
697.00,0.0105
696.00,0.0104
695.00,0.0103
694.00,0.0103
693.00,0.0103
692.00,0.0103
691.00,0.0103
690.00,0.0103
689.00,0.0104
688.00,0.0105
687.00,0.0105
686.00,0.0104
685.00,0.0103
684.00,0.0102
683.00,0.0103
682.00,0.0104
681.00,0.0105
680.00,0.0105
679.00,0.0106
678.00,0.0106
677.00,0.0107
676.00,0.0108
675.00,0.0111
674.00,0.0114
673.00,0.0118
672.00,0.0121
671.00,0.0122
670.00,0.0119
669.00,0.0113
668.00,0.0107
667.00,0.0105
666.00,0.0107
665.00,0.0109
664.00,0.0110
663.00,0.0110
662.00,0.0110
661.00,0.0110
660.00,0.0110
659.00,0.0109
658.00,0.0108
657.00,0.0106
656.00,0.0104
655.00,0.0102
654.00,0.0100
653.00,0.0101
652.00,0.0102
651.00,0.0104
650.00,0.0103
649.00,0.0102
648.00,0.0100
647.00,0.0099
646.00,0.0099
645.00,0.0099
644.00,0.0099
643.00,0.0099
642.00,0.0099
641.00,0.0099
640.00,0.0100
639.00,0.0100
638.00,0.0101
637.00,0.0102
636.00,0.0103
635.00,0.0104
634.00,0.0103
633.00,0.0100
632.00,0.0097
631.00,0.0095
630.00,0.0095
629.00,0.0094
628.00,0.0093
627.00,0.0092
626.00,0.0092
625.00,0.0094
624.00,0.0095
623.00,0.0095
622.00,0.0095
621.00,0.0093
620.00,0.0093
619.00,0.0096
618.00,0.0098
617.00,0.0099
616.00,0.0097
615.00,0.0095
614.00,0.0093
613.00,0.0094
612.00,0.0096
611.00,0.0098
610.00,0.0098
609.00,0.0096
608.00,0.0093
607.00,0.0090
606.00,0.0089
605.00,0.0090
604.00,0.0091
603.00,0.0093
602.00,0.0095
601.00,0.0099
600.00,0.0102
599.00,0.0103
598.00,0.0101
597.00,0.0097
596.00,0.0095
595.00,0.0096
594.00,0.0099
593.00,0.0103
592.00,0.0105
591.00,0.0104
590.00,0.0103
589.00,0.0102
588.00,0.0101
587.00,0.0101
586.00,0.0100
585.00,0.0098
584.00,0.0097
583.00,0.0096
582.00,0.0098
581.00,0.0099
580.00,0.0099
579.00,0.0097
578.00,0.0093
577.00,0.0089
576.00,0.0086
575.00,0.0086
574.00,0.0089
573.00,0.0094
572.00,0.0099
571.00,0.0101
570.00,0.0101
569.00,0.0098
568.00,0.0095
567.00,0.0091
566.00,0.0089
565.00,0.0087
564.00,0.0087
563.00,0.0088
562.00,0.0090
561.00,0.0091
560.00,0.0091
559.00,0.0090
558.00,0.0089
557.00,0.0090
556.00,0.0093
555.00,0.0098
554.00,0.0102
553.00,0.0105
552.00,0.0105
551.00,0.0103
550.00,0.0102
549.00,0.0102
548.00,0.0104
547.00,0.0106
546.00,0.0106
545.00,0.0105
544.00,0.0105
543.00,0.0107
542.00,0.0112
541.00,0.0119
540.00,0.0122
539.00,0.0124
538.00,0.0125
537.00,0.0127
536.00,0.0129
535.00,0.0131
534.00,0.0132
533.00,0.0133
532.00,0.0134
531.00,0.0135
530.00,0.0134
529.00,0.0133
528.00,0.0132
527.00,0.0132
526.00,0.0130
525.00,0.0127
524.00,0.0124
523.00,0.0120
522.00,0.0115
521.00,0.0108
520.00,0.0100
519.00,0.0095
518.00,0.0095
517.00,0.0098
516.00,0.0100
515.00,0.0098
514.00,0.0094
513.00,0.0091
512.00,0.0089
511.00,0.0090
510.00,0.0091
509.00,0.0092
508.00,0.0095
507.00,0.0100
506.00,0.0105
505.00,0.0108
504.00,0.0108
503.00,0.0104
502.00,0.0098
501.00,0.0092
500.00,0.0090
499.00,0.0094
498.00,0.0098
497.00,0.0099
496.00,0.0095
495.00,0.0092
494.00,0.0092
493.00,0.0097
492.00,0.0103
491.00,0.0108
490.00,0.0113
489.00,0.0116
488.00,0.0118
487.00,0.0120
486.00,0.0120
485.00,0.0117
484.00,0.0111
483.00,0.0107
482.00,0.0108
481.00,0.0117
480.00,0.0131
479.00,0.0144
478.00,0.0149
477.00,0.0142
476.00,0.0129
475.00,0.0117
474.00,0.0112
473.00,0.0113
472.00,0.0115
471.00,0.0118
470.00,0.0128
469.00,0.0146
468.00,0.0167
467.00,0.0187
466.00,0.0202
465.00,0.0209
464.00,0.0211
463.00,0.0209
462.00,0.0209
461.00,0.0214
460.00,0.0220
459.00,0.0219
458.00,0.0213
457.00,0.0205
456.00,0.0201
455.00,0.0198
454.00,0.0195
453.00,0.0191
452.00,0.0184
451.00,0.0175
450.00,0.0163
