Created as New Dataset,Sample 160 By Administrator Date Wednesday, September 03 2025
cm-1,A
4000.00,0.0009
3999.00,0.0009
3998.00,0.0010
3997.00,0.0010
3996.00,0.0010
3995.00,0.0010
3994.00,0.0010
3993.00,0.0010
3992.00,0.0010
3991.00,0.0010
3990.00,0.0010
3989.00,0.0009
3988.00,0.0009
3987.00,0.0009
3986.00,0.0009
3985.00,0.0009
3984.00,0.0009
3983.00,0.0008
3982.00,0.0008
3981.00,0.0008
3980.00,0.0008
3979.00,0.0008
3978.00,0.0008
3977.00,0.0008
3976.00,0.0008
3975.00,0.0008
3974.00,0.0008
3973.00,0.0008
3972.00,0.0008
3971.00,0.0008
3970.00,0.0008
3969.00,0.0008
3968.00,0.0008
3967.00,0.0008
3966.00,0.0008
3965.00,0.0007
3964.00,0.0007
3963.00,0.0007
3962.00,0.0008
3961.00,0.0008
3960.00,0.0008
3959.00,0.0009
3958.00,0.0009
3957.00,0.0009
3956.00,0.0009
3955.00,0.0008
3954.00,0.0008
3953.00,0.0007
3952.00,0.0007
3951.00,0.0007
3950.00,0.0007
3949.00,0.0007
3948.00,0.0008
3947.00,0.0008
3946.00,0.0008
3945.00,0.0008
3944.00,0.0008
3943.00,0.0008
3942.00,0.0008
3941.00,0.0008
3940.00,0.0008
3939.00,0.0008
3938.00,0.0008
3937.00,0.0008
3936.00,0.0008
3935.00,0.0008
3934.00,0.0008
3933.00,0.0008
3932.00,0.0008
3931.00,0.0008
3930.00,0.0008
3929.00,0.0008
3928.00,0.0008
3927.00,0.0008
3926.00,0.0008
3925.00,0.0008
3924.00,0.0008
3923.00,0.0008
3922.00,0.0007
3921.00,0.0007
3920.00,0.0007
3919.00,0.0008
3918.00,0.0008
3917.00,0.0008
3916.00,0.0008
3915.00,0.0008
3914.00,0.0008
3913.00,0.0008
3912.00,0.0008
3911.00,0.0008
3910.00,0.0007
3909.00,0.0007
3908.00,0.0006
3907.00,0.0006
3906.00,0.0006
3905.00,0.0007
3904.00,0.0007
3903.00,0.0007
3902.00,0.0006
3901.00,0.0006
3900.00,0.0005
3899.00,0.0005
3898.00,0.0005
3897.00,0.0006
3896.00,0.0006
3895.00,0.0007
3894.00,0.0007
3893.00,0.0007
3892.00,0.0007
3891.00,0.0007
3890.00,0.0006
3889.00,0.0006
3888.00,0.0006
3887.00,0.0006
3886.00,0.0006
3885.00,0.0006
3884.00,0.0006
3883.00,0.0006
3882.00,0.0007
3881.00,0.0007
3880.00,0.0007
3879.00,0.0007
3878.00,0.0007
3877.00,0.0007
3876.00,0.0008
3875.00,0.0007
3874.00,0.0007
3873.00,0.0007
3872.00,0.0007
3871.00,0.0007
3870.00,0.0007
3869.00,0.0007
3868.00,0.0007
3867.00,0.0007
3866.00,0.0007
3865.00,0.0007
3864.00,0.0007
3863.00,0.0006
3862.00,0.0006
3861.00,0.0006
3860.00,0.0006
3859.00,0.0006
3858.00,0.0006
3857.00,0.0005
3856.00,0.0005
3855.00,0.0005
3854.00,0.0005
3853.00,0.0005
3852.00,0.0005
3851.00,0.0005
3850.00,0.0005
3849.00,0.0006
3848.00,0.0006
3847.00,0.0006
3846.00,0.0007
3845.00,0.0007
3844.00,0.0007
3843.00,0.0007
3842.00,0.0007
3841.00,0.0007
3840.00,0.0007
3839.00,0.0007
3838.00,0.0007
3837.00,0.0007
3836.00,0.0007
3835.00,0.0007
3834.00,0.0007
3833.00,0.0007
3832.00,0.0007
3831.00,0.0007
3830.00,0.0007
3829.00,0.0007
3828.00,0.0007
3827.00,0.0007
3826.00,0.0007
3825.00,0.0007
3824.00,0.0007
3823.00,0.0007
3822.00,0.0007
3821.00,0.0006
3820.00,0.0006
3819.00,0.0006
3818.00,0.0006
3817.00,0.0006
3816.00,0.0006
3815.00,0.0007
3814.00,0.0007
3813.00,0.0007
3812.00,0.0007
3811.00,0.0007
3810.00,0.0007
3809.00,0.0007
3808.00,0.0008
3807.00,0.0007
3806.00,0.0007
3805.00,0.0006
3804.00,0.0006
3803.00,0.0006
3802.00,0.0006
3801.00,0.0005
3800.00,0.0005
3799.00,0.0005
3798.00,0.0006
3797.00,0.0006
3796.00,0.0007
3795.00,0.0007
3794.00,0.0007
3793.00,0.0007
3792.00,0.0007
3791.00,0.0007
3790.00,0.0007
3789.00,0.0007
3788.00,0.0007
3787.00,0.0007
3786.00,0.0007
3785.00,0.0007
3784.00,0.0007
3783.00,0.0007
3782.00,0.0007
3781.00,0.0007
3780.00,0.0007
3779.00,0.0007
3778.00,0.0008
3777.00,0.0008
3776.00,0.0008
3775.00,0.0008
3774.00,0.0008
3773.00,0.0008
3772.00,0.0008
3771.00,0.0008
3770.00,0.0008
3769.00,0.0007
3768.00,0.0007
3767.00,0.0007
3766.00,0.0007
3765.00,0.0007
3764.00,0.0007
3763.00,0.0007
3762.00,0.0007
3761.00,0.0008
3760.00,0.0008
3759.00,0.0008
3758.00,0.0008
3757.00,0.0008
3756.00,0.0007
3755.00,0.0007
3754.00,0.0007
3753.00,0.0006
3752.00,0.0006
3751.00,0.0005
3750.00,0.0004
3749.00,0.0004
3748.00,0.0004
3747.00,0.0004
3746.00,0.0004
3745.00,0.0004
3744.00,0.0005
3743.00,0.0006
3742.00,0.0006
3741.00,0.0006
3740.00,0.0006
3739.00,0.0007
3738.00,0.0007
3737.00,0.0006
3736.00,0.0006
3735.00,0.0005
3734.00,0.0004
3733.00,0.0004
3732.00,0.0004
3731.00,0.0004
3730.00,0.0004
3729.00,0.0005
3728.00,0.0005
3727.00,0.0005
3726.00,0.0005
3725.00,0.0005
3724.00,0.0005
3723.00,0.0006
3722.00,0.0006
3721.00,0.0006
3720.00,0.0006
3719.00,0.0006
3718.00,0.0006
3717.00,0.0007
3716.00,0.0006
3715.00,0.0006
3714.00,0.0006
3713.00,0.0005
3712.00,0.0005
3711.00,0.0004
3710.00,0.0004
3709.00,0.0004
3708.00,0.0004
3707.00,0.0005
3706.00,0.0005
3705.00,0.0006
3704.00,0.0006
3703.00,0.0006
3702.00,0.0006
3701.00,0.0006
3700.00,0.0006
3699.00,0.0005
3698.00,0.0005
3697.00,0.0005
3696.00,0.0005
3695.00,0.0005
3694.00,0.0004
3693.00,0.0004
3692.00,0.0003
3691.00,0.0003
3690.00,0.0003
3689.00,0.0003
3688.00,0.0003
3687.00,0.0004
3686.00,0.0004
3685.00,0.0004
3684.00,0.0004
3683.00,0.0005
3682.00,0.0005
3681.00,0.0006
3680.00,0.0006
3679.00,0.0006
3678.00,0.0006
3677.00,0.0006
3676.00,0.0006
3675.00,0.0006
3674.00,0.0005
3673.00,0.0005
3672.00,0.0005
3671.00,0.0005
3670.00,0.0005
3669.00,0.0005
3668.00,0.0004
3667.00,0.0004
3666.00,0.0004
3665.00,0.0005
3664.00,0.0005
3663.00,0.0005
3662.00,0.0005
3661.00,0.0005
3660.00,0.0005
3659.00,0.0005
3658.00,0.0004
3657.00,0.0004
3656.00,0.0003
3655.00,0.0003
3654.00,0.0003
3653.00,0.0003
3652.00,0.0003
3651.00,0.0003
3650.00,0.0003
3649.00,0.0003
3648.00,0.0003
3647.00,0.0004
3646.00,0.0004
3645.00,0.0005
3644.00,0.0005
3643.00,0.0005
3642.00,0.0005
3641.00,0.0005
3640.00,0.0005
3639.00,0.0005
3638.00,0.0005
3637.00,0.0005
3636.00,0.0005
3635.00,0.0005
3634.00,0.0005
3633.00,0.0005
3632.00,0.0005
3631.00,0.0005
3630.00,0.0005
3629.00,0.0005
3628.00,0.0005
3627.00,0.0005
3626.00,0.0005
3625.00,0.0005
3624.00,0.0005
3623.00,0.0005
3622.00,0.0005
3621.00,0.0004
3620.00,0.0004
3619.00,0.0004
3618.00,0.0004
3617.00,0.0004
3616.00,0.0005
3615.00,0.0005
3614.00,0.0005
3613.00,0.0005
3612.00,0.0005
3611.00,0.0005
3610.00,0.0005
3609.00,0.0005
3608.00,0.0004
3607.00,0.0004
3606.00,0.0005
3605.00,0.0005
3604.00,0.0006
3603.00,0.0006
3602.00,0.0006
3601.00,0.0006
3600.00,0.0006
3599.00,0.0006
3598.00,0.0006
3597.00,0.0007
3596.00,0.0008
3595.00,0.0008
3594.00,0.0007
3593.00,0.0007
3592.00,0.0006
3591.00,0.0006
3590.00,0.0005
3589.00,0.0005
3588.00,0.0006
3587.00,0.0006
3586.00,0.0006
3585.00,0.0007
3584.00,0.0007
3583.00,0.0007
3582.00,0.0007
3581.00,0.0007
3580.00,0.0007
3579.00,0.0007
3578.00,0.0007
3577.00,0.0007
3576.00,0.0007
3575.00,0.0008
3574.00,0.0008
3573.00,0.0008
3572.00,0.0008
3571.00,0.0008
3570.00,0.0008
3569.00,0.0008
3568.00,0.0009
3567.00,0.0009
3566.00,0.0009
3565.00,0.0009
3564.00,0.0009
3563.00,0.0009
3562.00,0.0009
3561.00,0.0009
3560.00,0.0010
3559.00,0.0010
3558.00,0.0010
3557.00,0.0010
3556.00,0.0010
3555.00,0.0010
3554.00,0.0010
3553.00,0.0010
3552.00,0.0010
3551.00,0.0010
3550.00,0.0010
3549.00,0.0011
3548.00,0.0011
3547.00,0.0011
3546.00,0.0011
3545.00,0.0011
3544.00,0.0011
3543.00,0.0011
3542.00,0.0011
3541.00,0.0011
3540.00,0.0012
3539.00,0.0012
3538.00,0.0012
3537.00,0.0012
3536.00,0.0012
3535.00,0.0013
3534.00,0.0013
3533.00,0.0013
3532.00,0.0014
3531.00,0.0014
3530.00,0.0014
3529.00,0.0014
3528.00,0.0014
3527.00,0.0013
3526.00,0.0013
3525.00,0.0014
3524.00,0.0014
3523.00,0.0014
3522.00,0.0014
3521.00,0.0015
3520.00,0.0015
3519.00,0.0014
3518.00,0.0014
3517.00,0.0014
3516.00,0.0014
3515.00,0.0015
3514.00,0.0015
3513.00,0.0015
3512.00,0.0016
3511.00,0.0016
3510.00,0.0017
3509.00,0.0017
3508.00,0.0017
3507.00,0.0017
3506.00,0.0017
3505.00,0.0017
3504.00,0.0017
3503.00,0.0017
3502.00,0.0017
3501.00,0.0017
3500.00,0.0017
3499.00,0.0017
3498.00,0.0017
3497.00,0.0017
3496.00,0.0017
3495.00,0.0017
3494.00,0.0018
3493.00,0.0018
3492.00,0.0019
3491.00,0.0019
3490.00,0.0019
3489.00,0.0019
3488.00,0.0019
3487.00,0.0019
3486.00,0.0019
3485.00,0.0019
3484.00,0.0019
3483.00,0.0019
3482.00,0.0019
3481.00,0.0020
3480.00,0.0020
3479.00,0.0020
3478.00,0.0020
3477.00,0.0020
3476.00,0.0020
3475.00,0.0020
3474.00,0.0020
3473.00,0.0020
3472.00,0.0020
3471.00,0.0021
3470.00,0.0021
3469.00,0.0021
3468.00,0.0021
3467.00,0.0022
3466.00,0.0022
3465.00,0.0022
3464.00,0.0022
3463.00,0.0022
3462.00,0.0022
3461.00,0.0022
3460.00,0.0022
3459.00,0.0022
3458.00,0.0022
3457.00,0.0022
3456.00,0.0023
3455.00,0.0023
3454.00,0.0024
3453.00,0.0024
3452.00,0.0024
3451.00,0.0023
3450.00,0.0023
3449.00,0.0023
3448.00,0.0023
3447.00,0.0024
3446.00,0.0024
3445.00,0.0024
3444.00,0.0025
3443.00,0.0025
3442.00,0.0025
3441.00,0.0025
3440.00,0.0025
3439.00,0.0025
3438.00,0.0025
3437.00,0.0025
3436.00,0.0026
3435.00,0.0026
3434.00,0.0026
3433.00,0.0026
3432.00,0.0026
3431.00,0.0027
3430.00,0.0027
3429.00,0.0027
3428.00,0.0028
3427.00,0.0027
3426.00,0.0027
3425.00,0.0027
3424.00,0.0027
3423.00,0.0027
3422.00,0.0027
3421.00,0.0027
3420.00,0.0027
3419.00,0.0028
3418.00,0.0028
3417.00,0.0028
3416.00,0.0028
3415.00,0.0029
3414.00,0.0029
3413.00,0.0029
3412.00,0.0029
3411.00,0.0029
3410.00,0.0029
3409.00,0.0029
3408.00,0.0028
3407.00,0.0029
3406.00,0.0029
3405.00,0.0029
3404.00,0.0030
3403.00,0.0030
3402.00,0.0031
3401.00,0.0031
3400.00,0.0031
3399.00,0.0031
3398.00,0.0031
3397.00,0.0031
3396.00,0.0031
3395.00,0.0031
3394.00,0.0031
3393.00,0.0031
3392.00,0.0031
3391.00,0.0031
3390.00,0.0031
3389.00,0.0031
3388.00,0.0031
3387.00,0.0032
3386.00,0.0032
3385.00,0.0032
3384.00,0.0032
3383.00,0.0031
3382.00,0.0031
3381.00,0.0031
3380.00,0.0031
3379.00,0.0031
3378.00,0.0030
3377.00,0.0030
3376.00,0.0031
3375.00,0.0032
3374.00,0.0032
3373.00,0.0032
3372.00,0.0032
3371.00,0.0032
3370.00,0.0032
3369.00,0.0032
3368.00,0.0032
3367.00,0.0032
3366.00,0.0032
3365.00,0.0032
3364.00,0.0032
3363.00,0.0033
3362.00,0.0033
3361.00,0.0032
3360.00,0.0032
3359.00,0.0032
3358.00,0.0032
3357.00,0.0032
3356.00,0.0032
3355.00,0.0032
3354.00,0.0032
3353.00,0.0032
3352.00,0.0032
3351.00,0.0033
3350.00,0.0033
3349.00,0.0033
3348.00,0.0033
3347.00,0.0033
3346.00,0.0033
3345.00,0.0032
3344.00,0.0032
3343.00,0.0032
3342.00,0.0031
3341.00,0.0032
3340.00,0.0032
3339.00,0.0032
3338.00,0.0032
3337.00,0.0031
3336.00,0.0031
3335.00,0.0031
3334.00,0.0031
3333.00,0.0031
3332.00,0.0031
3331.00,0.0031
3330.00,0.0031
3329.00,0.0031
3328.00,0.0031
3327.00,0.0031
3326.00,0.0031
3325.00,0.0031
3324.00,0.0031
3323.00,0.0030
3322.00,0.0030
3321.00,0.0030
3320.00,0.0030
3319.00,0.0029
3318.00,0.0030
3317.00,0.0030
3316.00,0.0030
3315.00,0.0030
3314.00,0.0031
3313.00,0.0031
3312.00,0.0031
3311.00,0.0032
3310.00,0.0032
3309.00,0.0032
3308.00,0.0032
3307.00,0.0032
3306.00,0.0032
3305.00,0.0032
3304.00,0.0032
3303.00,0.0032
3302.00,0.0032
3301.00,0.0032
3300.00,0.0031
3299.00,0.0030
3298.00,0.0030
3297.00,0.0030
3296.00,0.0030
3295.00,0.0030
3294.00,0.0030
3293.00,0.0031
3292.00,0.0030
3291.00,0.0030
3290.00,0.0030
3289.00,0.0031
3288.00,0.0031
3287.00,0.0030
3286.00,0.0030
3285.00,0.0030
3284.00,0.0029
3283.00,0.0029
3282.00,0.0029
3281.00,0.0028
3280.00,0.0028
3279.00,0.0028
3278.00,0.0028
3277.00,0.0028
3276.00,0.0028
3275.00,0.0028
3274.00,0.0028
3273.00,0.0028
3272.00,0.0028
3271.00,0.0028
3270.00,0.0028
3269.00,0.0028
3268.00,0.0027
3267.00,0.0027
3266.00,0.0027
3265.00,0.0027
3264.00,0.0027
3263.00,0.0027
3262.00,0.0027
3261.00,0.0027
3260.00,0.0027
3259.00,0.0027
3258.00,0.0027
3257.00,0.0026
3256.00,0.0026
3255.00,0.0026
3254.00,0.0026
3253.00,0.0027
3252.00,0.0027
3251.00,0.0027
3250.00,0.0026
3249.00,0.0026
3248.00,0.0025
3247.00,0.0025
3246.00,0.0025
3245.00,0.0026
3244.00,0.0026
3243.00,0.0026
3242.00,0.0025
3241.00,0.0025
3240.00,0.0025
3239.00,0.0026
3238.00,0.0026
3237.00,0.0026
3236.00,0.0026
3235.00,0.0027
3234.00,0.0027
3233.00,0.0027
3232.00,0.0027
3231.00,0.0027
3230.00,0.0027
3229.00,0.0027
3228.00,0.0027
3227.00,0.0027
3226.00,0.0028
3225.00,0.0028
3224.00,0.0028
3223.00,0.0028
3222.00,0.0028
3221.00,0.0028
3220.00,0.0029
3219.00,0.0030
3218.00,0.0030
3217.00,0.0030
3216.00,0.0030
3215.00,0.0031
3214.00,0.0031
3213.00,0.0031
3212.00,0.0031
3211.00,0.0031
3210.00,0.0031
3209.00,0.0031
3208.00,0.0032
3207.00,0.0032
3206.00,0.0032
3205.00,0.0031
3204.00,0.0031
3203.00,0.0031
3202.00,0.0031
3201.00,0.0031
3200.00,0.0032
3199.00,0.0033
3198.00,0.0033
3197.00,0.0033
3196.00,0.0033
3195.00,0.0033
3194.00,0.0032
3193.00,0.0033
3192.00,0.0032
3191.00,0.0032
3190.00,0.0032
3189.00,0.0032
3188.00,0.0031
3187.00,0.0031
3186.00,0.0032
3185.00,0.0032
3184.00,0.0032
3183.00,0.0032
3182.00,0.0032
3181.00,0.0031
3180.00,0.0031
3179.00,0.0031
3178.00,0.0030
3177.00,0.0030
3176.00,0.0030
3175.00,0.0030
3174.00,0.0030
3173.00,0.0030
3172.00,0.0030
3171.00,0.0030
3170.00,0.0030
3169.00,0.0030
3168.00,0.0030
3167.00,0.0029
3166.00,0.0029
3165.00,0.0029
3164.00,0.0029
3163.00,0.0029
3162.00,0.0029
3161.00,0.0028
3160.00,0.0028
3159.00,0.0028
3158.00,0.0028
3157.00,0.0028
3156.00,0.0028
3155.00,0.0028
3154.00,0.0028
3153.00,0.0028
3152.00,0.0028
3151.00,0.0029
3150.00,0.0029
3149.00,0.0029
3148.00,0.0029
3147.00,0.0028
3146.00,0.0028
3145.00,0.0028
3144.00,0.0028
3143.00,0.0029
3142.00,0.0028
3141.00,0.0028
3140.00,0.0028
3139.00,0.0028
3138.00,0.0028
3137.00,0.0028
3136.00,0.0028
3135.00,0.0028
3134.00,0.0027
3133.00,0.0027
3132.00,0.0026
3131.00,0.0026
3130.00,0.0026
3129.00,0.0026
3128.00,0.0025
3127.00,0.0025
3126.00,0.0025
3125.00,0.0024
3124.00,0.0024
3123.00,0.0024
3122.00,0.0024
3121.00,0.0024
3120.00,0.0024
3119.00,0.0024
3118.00,0.0024
3117.00,0.0024
3116.00,0.0024
3115.00,0.0023
3114.00,0.0023
3113.00,0.0023
3112.00,0.0023
3111.00,0.0024
3110.00,0.0024
3109.00,0.0023
3108.00,0.0024
3107.00,0.0024
3106.00,0.0024
3105.00,0.0023
3104.00,0.0023
3103.00,0.0023
3102.00,0.0022
3101.00,0.0022
3100.00,0.0023
3099.00,0.0023
3098.00,0.0023
3097.00,0.0023
3096.00,0.0023
3095.00,0.0023
3094.00,0.0023
3093.00,0.0022
3092.00,0.0022
3091.00,0.0023
3090.00,0.0023
3089.00,0.0023
3088.00,0.0023
3087.00,0.0023
3086.00,0.0023
3085.00,0.0023
3084.00,0.0023
3083.00,0.0023
3082.00,0.0023
3081.00,0.0023
3080.00,0.0023
3079.00,0.0023
3078.00,0.0023
3077.00,0.0023
3076.00,0.0024
3075.00,0.0024
3074.00,0.0024
3073.00,0.0024
3072.00,0.0024
3071.00,0.0024
3070.00,0.0024
3069.00,0.0024
3068.00,0.0024
3067.00,0.0024
3066.00,0.0025
3065.00,0.0025
3064.00,0.0026
3063.00,0.0026
3062.00,0.0026
3061.00,0.0026
3060.00,0.0026
3059.00,0.0026
3058.00,0.0026
3057.00,0.0026
3056.00,0.0026
3055.00,0.0026
3054.00,0.0026
3053.00,0.0026
3052.00,0.0026
3051.00,0.0026
3050.00,0.0027
3049.00,0.0027
3048.00,0.0027
3047.00,0.0028
3046.00,0.0028
3045.00,0.0028
3044.00,0.0028
3043.00,0.0029
3042.00,0.0029
3041.00,0.0029
3040.00,0.0030
3039.00,0.0030
3038.00,0.0030
3037.00,0.0031
3036.00,0.0032
3035.00,0.0032
3034.00,0.0032
3033.00,0.0032
3032.00,0.0033
3031.00,0.0033
3030.00,0.0033
3029.00,0.0034
3028.00,0.0034
3027.00,0.0035
3026.00,0.0035
3025.00,0.0036
3024.00,0.0036
3023.00,0.0037
3022.00,0.0038
3021.00,0.0039
3020.00,0.0040
3019.00,0.0041
3018.00,0.0042
3017.00,0.0043
3016.00,0.0044
3015.00,0.0045
3014.00,0.0046
3013.00,0.0047
3012.00,0.0048
3011.00,0.0050
3010.00,0.0051
3009.00,0.0052
3008.00,0.0054
3007.00,0.0056
3006.00,0.0057
3005.00,0.0059
3004.00,0.0061
3003.00,0.0063
3002.00,0.0064
3001.00,0.0067
3000.00,0.0069
2999.00,0.0072
2998.00,0.0076
2997.00,0.0079
2996.00,0.0083
2995.00,0.0087
2994.00,0.0091
2993.00,0.0095
2992.00,0.0100
2991.00,0.0106
2990.00,0.0113
2989.00,0.0120
2988.00,0.0129
2987.00,0.0137
2986.00,0.0147
2985.00,0.0158
2984.00,0.0170
2983.00,0.0184
2982.00,0.0200
2981.00,0.0218
2980.00,0.0238
2979.00,0.0261
2978.00,0.0287
2977.00,0.0317
2976.00,0.0351
2975.00,0.0391
2974.00,0.0436
2973.00,0.0487
2972.00,0.0545
2971.00,0.0611
2970.00,0.0684
2969.00,0.0765
2968.00,0.0854
2967.00,0.0949
2966.00,0.1051
2965.00,0.1155
2964.00,0.1260
2963.00,0.1359
2962.00,0.1448
2961.00,0.1521
2960.00,0.1579
2959.00,0.1622
2958.00,0.1655
2957.00,0.1686
2956.00,0.1721
2955.00,0.1763
2954.00,0.1811
2953.00,0.1862
2952.00,0.1906
2951.00,0.1931
2950.00,0.1927
2949.00,0.1887
2948.00,0.1812
2947.00,0.1708
2946.00,0.1585
2945.00,0.1458
2944.00,0.1338
2943.00,0.1236
2942.00,0.1157
2941.00,0.1102
2940.00,0.1072
2939.00,0.1064
2938.00,0.1075
2937.00,0.1104
2936.00,0.1149
2935.00,0.1208
2934.00,0.1280
2933.00,0.1365
2932.00,0.1460
2931.00,0.1563
2930.00,0.1672
2929.00,0.1784
2928.00,0.1895
2927.00,0.2002
2926.00,0.2106
2925.00,0.2204
2924.00,0.2298
2923.00,0.2389
2922.00,0.2477
2921.00,0.2560
2920.00,0.2630
2919.00,0.2681
2918.00,0.2702
2917.00,0.2688
2916.00,0.2641
2915.00,0.2566
2914.00,0.2475
2913.00,0.2377
2912.00,0.2283
2911.00,0.2196
2910.00,0.2119
2909.00,0.2052
2908.00,0.1990
2907.00,0.1930
2906.00,0.1870
2905.00,0.1808
2904.00,0.1743
2903.00,0.1677
2902.00,0.1610
2901.00,0.1543
2900.00,0.1478
2899.00,0.1416
2898.00,0.1357
2897.00,0.1303
2896.00,0.1254
2895.00,0.1212
2894.00,0.1175
2893.00,0.1145
2892.00,0.1120
2891.00,0.1101
2890.00,0.1088
2889.00,0.1078
2888.00,0.1073
2887.00,0.1071
2886.00,0.1073
2885.00,0.1078
2884.00,0.1086
2883.00,0.1099
2882.00,0.1116
2881.00,0.1134
2880.00,0.1153
2879.00,0.1167
2878.00,0.1175
2877.00,0.1176
2876.00,0.1171
2875.00,0.1164
2874.00,0.1158
2873.00,0.1159
2872.00,0.1166
2871.00,0.1180
2870.00,0.1198
2869.00,0.1215
2868.00,0.1223
2867.00,0.1217
2866.00,0.1190
2865.00,0.1143
2864.00,0.1078
2863.00,0.1004
2862.00,0.0932
2861.00,0.0869
2860.00,0.0821
2859.00,0.0788
2858.00,0.0770
2857.00,0.0764
2856.00,0.0768
2855.00,0.0779
2854.00,0.0795
2853.00,0.0813
2852.00,0.0833
2851.00,0.0850
2850.00,0.0866
2849.00,0.0879
2848.00,0.0893
2847.00,0.0912
2846.00,0.0939
2845.00,0.0977
2844.00,0.1024
2843.00,0.1079
2842.00,0.1137
2841.00,0.1190
2840.00,0.1231
2839.00,0.1253
2838.00,0.1247
2837.00,0.1209
2836.00,0.1142
2835.00,0.1050
2834.00,0.0944
2833.00,0.0834
2832.00,0.0730
2831.00,0.0637
2830.00,0.0559
2829.00,0.0495
2828.00,0.0443
2827.00,0.0401
2826.00,0.0367
2825.00,0.0339
2824.00,0.0315
2823.00,0.0294
2822.00,0.0277
2821.00,0.0262
2820.00,0.0249
2819.00,0.0237
2818.00,0.0227
2817.00,0.0218
2816.00,0.0210
2815.00,0.0203
2814.00,0.0197
2813.00,0.0191
2812.00,0.0185
2811.00,0.0180
2810.00,0.0175
2809.00,0.0170
2808.00,0.0164
2807.00,0.0158
2806.00,0.0151
2805.00,0.0144
2804.00,0.0138
2803.00,0.0132
2802.00,0.0127
2801.00,0.0122
2800.00,0.0118
2799.00,0.0115
2798.00,0.0112
2797.00,0.0110
2796.00,0.0107
2795.00,0.0104
2794.00,0.0102
2793.00,0.0099
2792.00,0.0096
2791.00,0.0093
2790.00,0.0090
2789.00,0.0087
2788.00,0.0084
2787.00,0.0081
2786.00,0.0078
2785.00,0.0075
2784.00,0.0072
2783.00,0.0070
2782.00,0.0068
2781.00,0.0066
2780.00,0.0064
2779.00,0.0063
2778.00,0.0062
2777.00,0.0060
2776.00,0.0059
2775.00,0.0058
2774.00,0.0057
2773.00,0.0056
2772.00,0.0056
2771.00,0.0055
2770.00,0.0055
2769.00,0.0054
2768.00,0.0054
2767.00,0.0054
2766.00,0.0053
2765.00,0.0053
2764.00,0.0053
2763.00,0.0052
2762.00,0.0052
2761.00,0.0052
2760.00,0.0051
2759.00,0.0051
2758.00,0.0051
2757.00,0.0050
2756.00,0.0050
2755.00,0.0050
2754.00,0.0050
2753.00,0.0050
2752.00,0.0050
2751.00,0.0050
2750.00,0.0050
2749.00,0.0050
2748.00,0.0050
2747.00,0.0050
2746.00,0.0050
2745.00,0.0050
2744.00,0.0051
2743.00,0.0052
2742.00,0.0053
2741.00,0.0055
2740.00,0.0056
2739.00,0.0058
2738.00,0.0059
2737.00,0.0060
2736.00,0.0061
2735.00,0.0062
2734.00,0.0063
2733.00,0.0065
2732.00,0.0066
2731.00,0.0068
2730.00,0.0070
2729.00,0.0072
2728.00,0.0075
2727.00,0.0078
2726.00,0.0081
2725.00,0.0083
2724.00,0.0085
2723.00,0.0085
2722.00,0.0084
2721.00,0.0083
2720.00,0.0080
2719.00,0.0077
2718.00,0.0074
2717.00,0.0071
2716.00,0.0068
2715.00,0.0066
2714.00,0.0063
2713.00,0.0061
2712.00,0.0058
2711.00,0.0056
2710.00,0.0055
2709.00,0.0053
2708.00,0.0052
2707.00,0.0051
2706.00,0.0050
2705.00,0.0049
2704.00,0.0048
2703.00,0.0047
2702.00,0.0046
2701.00,0.0046
2700.00,0.0045
2699.00,0.0045
2698.00,0.0044
2697.00,0.0044
2696.00,0.0043
2695.00,0.0043
2694.00,0.0043
2693.00,0.0043
2692.00,0.0044
2691.00,0.0044
2690.00,0.0045
2689.00,0.0045
2688.00,0.0045
2687.00,0.0044
2686.00,0.0044
2685.00,0.0043
2684.00,0.0043
2683.00,0.0043
2682.00,0.0043
2681.00,0.0044
2680.00,0.0044
2679.00,0.0044
2678.00,0.0045
2677.00,0.0045
2676.00,0.0045
2675.00,0.0045
2674.00,0.0044
2673.00,0.0044
2672.00,0.0044
2671.00,0.0043
2670.00,0.0043
2669.00,0.0043
2668.00,0.0043
2667.00,0.0044
2666.00,0.0044
2665.00,0.0045
2664.00,0.0045
2663.00,0.0046
2662.00,0.0046
2661.00,0.0047
2660.00,0.0047
2659.00,0.0047
2658.00,0.0047
2657.00,0.0047
2656.00,0.0047
2655.00,0.0046
2654.00,0.0046
2653.00,0.0045
2652.00,0.0044
2651.00,0.0043
2650.00,0.0043
2649.00,0.0042
2648.00,0.0042
2647.00,0.0041
2646.00,0.0041
2645.00,0.0041
2644.00,0.0041
2643.00,0.0041
2642.00,0.0040
2641.00,0.0040
2640.00,0.0039
2639.00,0.0039
2638.00,0.0039
2637.00,0.0038
2636.00,0.0038
2635.00,0.0038
2634.00,0.0038
2633.00,0.0038
2632.00,0.0038
2631.00,0.0039
2630.00,0.0039
2629.00,0.0039
2628.00,0.0039
2627.00,0.0039
2626.00,0.0039
2625.00,0.0039
2624.00,0.0039
2623.00,0.0040
2622.00,0.0040
2621.00,0.0040
2620.00,0.0041
2619.00,0.0041
2618.00,0.0040
2617.00,0.0039
2616.00,0.0039
2615.00,0.0039
2614.00,0.0039
2613.00,0.0038
2612.00,0.0038
2611.00,0.0037
2610.00,0.0036
2609.00,0.0036
2608.00,0.0035
2607.00,0.0035
2606.00,0.0034
2605.00,0.0033
2604.00,0.0032
2603.00,0.0031
2602.00,0.0031
2601.00,0.0031
2600.00,0.0031
2599.00,0.0032
2598.00,0.0032
2597.00,0.0032
2596.00,0.0033
2595.00,0.0033
2594.00,0.0033
2593.00,0.0032
2592.00,0.0032
2591.00,0.0032
2590.00,0.0033
2589.00,0.0033
2588.00,0.0034
2587.00,0.0035
2586.00,0.0036
2585.00,0.0037
2584.00,0.0038
2583.00,0.0038
2582.00,0.0038
2581.00,0.0037
2580.00,0.0036
2579.00,0.0035
2578.00,0.0034
2577.00,0.0034
2576.00,0.0033
2575.00,0.0032
2574.00,0.0031
2573.00,0.0030
2572.00,0.0029
2571.00,0.0028
2570.00,0.0027
2569.00,0.0026
2568.00,0.0025
2567.00,0.0024
2566.00,0.0024
2565.00,0.0024
2564.00,0.0024
2563.00,0.0024
2562.00,0.0023
2561.00,0.0023
2560.00,0.0022
2559.00,0.0022
2558.00,0.0022
2557.00,0.0022
2556.00,0.0022
2555.00,0.0022
2554.00,0.0021
2553.00,0.0021
2552.00,0.0021
2551.00,0.0021
2550.00,0.0021
2549.00,0.0021
2548.00,0.0020
2547.00,0.0019
2546.00,0.0018
2545.00,0.0018
2544.00,0.0018
2543.00,0.0018
2542.00,0.0018
2541.00,0.0017
2540.00,0.0017
2539.00,0.0016
2538.00,0.0016
2537.00,0.0016
2536.00,0.0017
2535.00,0.0017
2534.00,0.0016
2533.00,0.0016
2532.00,0.0015
2531.00,0.0015
2530.00,0.0015
2529.00,0.0015
2528.00,0.0014
2527.00,0.0014
2526.00,0.0014
2525.00,0.0014
2524.00,0.0014
2523.00,0.0014
2522.00,0.0013
2521.00,0.0013
2520.00,0.0012
2519.00,0.0012
2518.00,0.0011
2517.00,0.0011
2516.00,0.0011
2515.00,0.0011
2514.00,0.0011
2513.00,0.0010
2512.00,0.0010
2511.00,0.0010
2510.00,0.0011
2509.00,0.0011
2508.00,0.0011
2507.00,0.0011
2506.00,0.0010
2505.00,0.0010
2504.00,0.0009
2503.00,0.0009
2502.00,0.0009
2501.00,0.0009
2500.00,0.0010
2499.00,0.0010
2498.00,0.0009
2497.00,0.0009
2496.00,0.0009
2495.00,0.0010
2494.00,0.0010
2493.00,0.0010
2492.00,0.0010
2491.00,0.0009
2490.00,0.0009
2489.00,0.0009
2488.00,0.0009
2487.00,0.0010
2486.00,0.0010
2485.00,0.0010
2484.00,0.0010
2483.00,0.0010
2482.00,0.0009
2481.00,0.0009
2480.00,0.0008
2479.00,0.0009
2478.00,0.0009
2477.00,0.0009
2476.00,0.0009
2475.00,0.0009
2474.00,0.0009
2473.00,0.0009
2472.00,0.0009
2471.00,0.0009
2470.00,0.0008
2469.00,0.0008
2468.00,0.0008
2467.00,0.0008
2466.00,0.0008
2465.00,0.0009
2464.00,0.0009
2463.00,0.0010
2462.00,0.0009
2461.00,0.0009
2460.00,0.0008
2459.00,0.0009
2458.00,0.0009
2457.00,0.0010
2456.00,0.0010
2455.00,0.0010
2454.00,0.0009
2453.00,0.0009
2452.00,0.0010
2451.00,0.0010
2450.00,0.0010
2449.00,0.0010
2448.00,0.0011
2447.00,0.0010
2446.00,0.0010
2445.00,0.0010
2444.00,0.0010
2443.00,0.0009
2442.00,0.0009
2441.00,0.0009
2440.00,0.0009
2439.00,0.0009
2438.00,0.0009
2437.00,0.0009
2436.00,0.0009
2435.00,0.0009
2434.00,0.0009
2433.00,0.0009
2432.00,0.0010
2431.00,0.0011
2430.00,0.0011
2429.00,0.0011
2428.00,0.0011
2427.00,0.0011
2426.00,0.0010
2425.00,0.0010
2424.00,0.0010
2423.00,0.0009
2422.00,0.0009
2421.00,0.0008
2420.00,0.0008
2419.00,0.0007
2418.00,0.0007
2417.00,0.0008
2416.00,0.0008
2415.00,0.0007
2414.00,0.0007
2413.00,0.0007
2412.00,0.0007
2411.00,0.0008
2410.00,0.0008
2409.00,0.0009
2408.00,0.0009
2407.00,0.0008
2406.00,0.0008
2405.00,0.0007
2404.00,0.0007
2403.00,0.0006
2402.00,0.0006
2401.00,0.0006
2400.00,0.0006
2399.00,0.0007
2398.00,0.0007
2397.00,0.0008
2396.00,0.0008
2395.00,0.0008
2394.00,0.0008
2393.00,0.0007
2392.00,0.0007
2391.00,0.0007
2390.00,0.0008
2389.00,0.0008
2388.00,0.0008
2387.00,0.0007
2386.00,0.0006
2385.00,0.0005
2384.00,0.0005
2383.00,0.0004
2382.00,0.0003
2381.00,0.0002
2380.00,0.0001
2379.00,0.0001
2378.00,0.0001
2377.00,0.0001
2376.00,0.0002
2375.00,0.0003
2374.00,0.0003
2373.00,0.0003
2372.00,0.0003
2371.00,0.0003
2370.00,0.0002
2369.00,0.0002
2368.00,0.0002
2367.00,0.0002
2366.00,0.0002
2365.00,0.0002
2364.00,0.0002
2363.00,0.0002
2362.00,0.0002
2361.00,0.0003
2360.00,0.0003
2359.00,0.0004
2358.00,0.0004
2357.00,0.0004
2356.00,0.0003
2355.00,0.0003
2354.00,0.0003
2353.00,0.0003
2352.00,0.0003
2351.00,0.0003
2350.00,0.0003
2349.00,0.0002
2348.00,0.0002
2347.00,0.0002
2346.00,0.0003
2345.00,0.0004
2344.00,0.0005
2343.00,0.0005
2342.00,0.0005
2341.00,0.0005
2340.00,0.0006
2339.00,0.0007
2338.00,0.0007
2337.00,0.0007
2336.00,0.0007
2335.00,0.0006
2334.00,0.0006
2333.00,0.0006
2332.00,0.0006
2331.00,0.0006
2330.00,0.0007
2329.00,0.0008
2328.00,0.0009
2327.00,0.0011
2326.00,0.0014
2325.00,0.0017
2324.00,0.0019
2323.00,0.0019
2322.00,0.0018
2321.00,0.0016
2320.00,0.0015
2319.00,0.0014
2318.00,0.0013
2317.00,0.0012
2316.00,0.0012
2315.00,0.0011
2314.00,0.0011
2313.00,0.0011
2312.00,0.0011
2311.00,0.0011
2310.00,0.0011
2309.00,0.0011
2308.00,0.0011
2307.00,0.0012
2306.00,0.0012
2305.00,0.0012
2304.00,0.0012
2303.00,0.0012
2302.00,0.0012
2301.00,0.0013
2300.00,0.0013
2299.00,0.0014
2298.00,0.0015
2297.00,0.0016
2296.00,0.0016
2295.00,0.0016
2294.00,0.0016
2293.00,0.0016
2292.00,0.0016
2291.00,0.0017
2290.00,0.0017
2289.00,0.0018
2288.00,0.0018
2287.00,0.0019
2286.00,0.0019
2285.00,0.0019
2284.00,0.0019
2283.00,0.0018
2282.00,0.0017
2281.00,0.0017
2280.00,0.0015
2279.00,0.0014
2278.00,0.0014
2277.00,0.0014
2276.00,0.0014
2275.00,0.0014
2274.00,0.0013
2273.00,0.0012
2272.00,0.0011
2271.00,0.0010
2270.00,0.0010
2269.00,0.0010
2268.00,0.0009
2267.00,0.0009
2266.00,0.0009
2265.00,0.0009
2264.00,0.0009
2263.00,0.0009
2262.00,0.0009
2261.00,0.0009
2260.00,0.0010
2259.00,0.0011
2258.00,0.0012
2257.00,0.0012
2256.00,0.0012
2255.00,0.0011
2254.00,0.0009
2253.00,0.0007
2252.00,0.0006
2251.00,0.0006
2250.00,0.0007
2249.00,0.0009
2248.00,0.0010
2247.00,0.0010
2246.00,0.0009
2245.00,0.0008
2244.00,0.0008
2243.00,0.0008
2242.00,0.0009
2241.00,0.0010
2240.00,0.0010
2239.00,0.0009
2238.00,0.0009
2237.00,0.0009
2236.00,0.0010
2235.00,0.0010
2234.00,0.0010
2233.00,0.0010
2232.00,0.0010
2231.00,0.0009
2230.00,0.0008
2229.00,0.0007
2228.00,0.0007
2227.00,0.0007
2226.00,0.0008
2225.00,0.0009
2224.00,0.0010
2223.00,0.0009
2222.00,0.0007
2221.00,0.0006
2220.00,0.0004
2219.00,0.0004
2218.00,0.0003
2217.00,0.0002
2216.00,0.0002
2215.00,0.0003
2214.00,0.0003
2213.00,0.0003
2212.00,0.0003
2211.00,0.0003
2210.00,0.0003
2209.00,0.0003
2208.00,0.0005
2207.00,0.0007
2206.00,0.0009
2205.00,0.0010
2204.00,0.0010
2203.00,0.0008
2202.00,0.0005
2201.00,0.0003
2200.00,0.0002
2199.00,0.0003
2198.00,0.0004
2197.00,0.0005
2196.00,0.0005
2195.00,0.0006
2194.00,0.0007
2193.00,0.0008
2192.00,0.0008
2191.00,0.0007
2190.00,0.0008
2189.00,0.0010
2188.00,0.0012
2187.00,0.0013
2186.00,0.0013
2185.00,0.0012
2184.00,0.0010
2183.00,0.0008
2182.00,0.0005
2181.00,0.0002
2180.00,-0.0001
2179.00,-0.0001
2178.00,0.0000
2177.00,0.0000
2176.00,-0.0002
2175.00,-0.0005
2174.00,-0.0007
2173.00,-0.0006
2172.00,-0.0005
2171.00,-0.0002
2170.00,0.0001
2169.00,0.0004
2168.00,0.0008
2167.00,0.0012
2166.00,0.0016
2165.00,0.0019
2164.00,0.0021
2163.00,0.0023
2162.00,0.0021
2161.00,0.0013
2160.00,-0.0001
2159.00,-0.0018
2158.00,-0.0031
2157.00,-0.0034
2156.00,-0.0030
2155.00,-0.0023
2154.00,-0.0017
2153.00,-0.0014
2152.00,-0.0013
2151.00,-0.0014
2150.00,-0.0013
2149.00,-0.0012
2148.00,-0.0011
2147.00,-0.0010
2146.00,-0.0011
2145.00,-0.0012
2144.00,-0.0014
2143.00,-0.0015
2142.00,-0.0016
2141.00,-0.0017
2140.00,-0.0017
2139.00,-0.0017
2138.00,-0.0017
2137.00,-0.0017
2136.00,-0.0018
2135.00,-0.0019
2134.00,-0.0019
2133.00,-0.0018
2132.00,-0.0015
2131.00,-0.0014
2130.00,-0.0013
2129.00,-0.0012
2128.00,-0.0011
2127.00,-0.0009
2126.00,-0.0007
2125.00,-0.0006
2124.00,-0.0005
2123.00,-0.0006
2122.00,-0.0006
2121.00,-0.0006
2120.00,-0.0006
2119.00,-0.0006
2118.00,-0.0005
2117.00,-0.0002
2116.00,-0.0001
2115.00,0.0000
2114.00,0.0000
2113.00,-0.0001
2112.00,-0.0002
2111.00,-0.0002
2110.00,-0.0003
2109.00,-0.0002
2108.00,-0.0000
2107.00,0.0002
2106.00,0.0003
2105.00,0.0004
2104.00,0.0004
2103.00,0.0004
2102.00,0.0004
2101.00,0.0004
2100.00,0.0004
2099.00,0.0002
2098.00,-0.0000
2097.00,-0.0002
2096.00,-0.0004
2095.00,-0.0005
2094.00,-0.0005
2093.00,-0.0005
2092.00,-0.0004
2091.00,-0.0003
2090.00,-0.0002
2089.00,-0.0001
2088.00,-0.0000
2087.00,-0.0000
2086.00,-0.0001
2085.00,-0.0002
2084.00,-0.0003
2083.00,-0.0003
2082.00,-0.0002
2081.00,0.0001
2080.00,0.0003
2079.00,0.0003
2078.00,0.0002
2077.00,0.0000
2076.00,-0.0001
2075.00,-0.0001
2074.00,-0.0002
2073.00,-0.0003
2072.00,-0.0004
2071.00,-0.0005
2070.00,-0.0005
2069.00,-0.0004
2068.00,-0.0002
2067.00,-0.0001
2066.00,-0.0001
2065.00,-0.0001
2064.00,-0.0002
2063.00,-0.0003
2062.00,-0.0004
2061.00,-0.0004
2060.00,-0.0004
2059.00,-0.0002
2058.00,-0.0000
2057.00,0.0001
2056.00,0.0002
2055.00,0.0001
2054.00,0.0002
2053.00,0.0005
2052.00,0.0010
2051.00,0.0012
2050.00,0.0010
2049.00,0.0006
2048.00,0.0001
2047.00,-0.0001
2046.00,-0.0001
2045.00,0.0001
2044.00,0.0004
2043.00,0.0005
2042.00,0.0006
2041.00,0.0005
2040.00,0.0004
2039.00,0.0002
2038.00,0.0001
2037.00,0.0000
2036.00,-0.0001
2035.00,-0.0002
2034.00,-0.0004
2033.00,-0.0006
2032.00,-0.0006
2031.00,-0.0007
2030.00,-0.0007
2029.00,-0.0008
2028.00,-0.0010
2027.00,-0.0011
2026.00,-0.0011
2025.00,-0.0010
2024.00,-0.0008
2023.00,-0.0008
2022.00,-0.0008
2021.00,-0.0009
2020.00,-0.0010
2019.00,-0.0009
2018.00,-0.0007
2017.00,-0.0006
2016.00,-0.0006
2015.00,-0.0009
2014.00,-0.0010
2013.00,-0.0010
2012.00,-0.0008
2011.00,-0.0006
2010.00,-0.0008
2009.00,-0.0013
2008.00,-0.0020
2007.00,-0.0024
2006.00,-0.0025
2005.00,-0.0023
2004.00,-0.0019
2003.00,-0.0016
2002.00,-0.0014
2001.00,-0.0012
2000.00,-0.0011
1999.00,-0.0010
1998.00,-0.0010
1997.00,-0.0011
1996.00,-0.0012
1995.00,-0.0013
1994.00,-0.0012
1993.00,-0.0011
1992.00,-0.0011
1991.00,-0.0012
1990.00,-0.0012
1989.00,-0.0011
1988.00,-0.0007
1987.00,-0.0004
1986.00,-0.0002
1985.00,-0.0001
1984.00,-0.0002
1983.00,-0.0003
1982.00,-0.0002
1981.00,0.0000
1980.00,0.0001
1979.00,-0.0002
1978.00,-0.0005
1977.00,-0.0008
1976.00,-0.0009
1975.00,-0.0011
1974.00,-0.0012
1973.00,-0.0012
1972.00,-0.0012
1971.00,-0.0012
1970.00,-0.0013
1969.00,-0.0014
1968.00,-0.0016
1967.00,-0.0018
1966.00,-0.0019
1965.00,-0.0019
1964.00,-0.0018
1963.00,-0.0017
1962.00,-0.0016
1961.00,-0.0016
1960.00,-0.0018
1959.00,-0.0020
1958.00,-0.0020
1957.00,-0.0020
1956.00,-0.0018
1955.00,-0.0018
1954.00,-0.0018
1953.00,-0.0019
1952.00,-0.0020
1951.00,-0.0021
1950.00,-0.0022
1949.00,-0.0021
1948.00,-0.0019
1947.00,-0.0017
1946.00,-0.0016
1945.00,-0.0015
1944.00,-0.0015
1943.00,-0.0015
1942.00,-0.0016
1941.00,-0.0017
1940.00,-0.0017
1939.00,-0.0017
1938.00,-0.0016
1937.00,-0.0015
1936.00,-0.0014
1935.00,-0.0013
1934.00,-0.0013
1933.00,-0.0013
1932.00,-0.0012
1931.00,-0.0010
1930.00,-0.0009
1929.00,-0.0007
1928.00,-0.0005
1927.00,-0.0005
1926.00,-0.0006
1925.00,-0.0006
1924.00,-0.0006
1923.00,-0.0007
1922.00,-0.0006
1921.00,-0.0006
1920.00,-0.0005
1919.00,-0.0004
1918.00,-0.0005
1917.00,-0.0006
1916.00,-0.0006
1915.00,-0.0007
1914.00,-0.0007
1913.00,-0.0006
1912.00,-0.0005
1911.00,-0.0004
1910.00,-0.0003
1909.00,-0.0003
1908.00,-0.0004
1907.00,-0.0004
1906.00,-0.0004
1905.00,-0.0003
1904.00,-0.0002
1903.00,-0.0002
1902.00,-0.0003
1901.00,-0.0003
1900.00,-0.0004
1899.00,-0.0004
1898.00,-0.0004
1897.00,-0.0003
1896.00,-0.0002
1895.00,-0.0002
1894.00,-0.0002
1893.00,-0.0003
1892.00,-0.0003
1891.00,-0.0004
1890.00,-0.0004
1889.00,-0.0004
1888.00,-0.0005
1887.00,-0.0005
1886.00,-0.0005
1885.00,-0.0005
1884.00,-0.0004
1883.00,-0.0004
1882.00,-0.0003
1881.00,-0.0003
1880.00,-0.0004
1879.00,-0.0004
1878.00,-0.0004
1877.00,-0.0004
1876.00,-0.0004
1875.00,-0.0004
1874.00,-0.0003
1873.00,-0.0003
1872.00,-0.0002
1871.00,-0.0002
1870.00,-0.0002
1869.00,-0.0002
1868.00,-0.0002
1867.00,-0.0002
1866.00,-0.0002
1865.00,-0.0002
1864.00,-0.0003
1863.00,-0.0003
1862.00,-0.0002
1861.00,-0.0002
1860.00,-0.0002
1859.00,-0.0002
1858.00,-0.0003
1857.00,-0.0003
1856.00,-0.0002
1855.00,-0.0002
1854.00,-0.0002
1853.00,-0.0002
1852.00,-0.0002
1851.00,-0.0003
1850.00,-0.0003
1849.00,-0.0002
1848.00,-0.0001
1847.00,-0.0001
1846.00,-0.0000
1845.00,0.0001
1844.00,0.0002
1843.00,0.0002
1842.00,0.0001
1841.00,0.0001
1840.00,-0.0000
1839.00,-0.0001
1838.00,-0.0002
1837.00,-0.0001
1836.00,-0.0001
1835.00,0.0000
1834.00,0.0001
1833.00,0.0001
1832.00,0.0000
1831.00,0.0000
1830.00,0.0000
1829.00,0.0001
1828.00,0.0001
1827.00,0.0001
1826.00,0.0001
1825.00,0.0001
1824.00,0.0001
1823.00,0.0001
1822.00,0.0001
1821.00,0.0001
1820.00,0.0000
1819.00,-0.0000
1818.00,-0.0001
1817.00,-0.0002
1816.00,-0.0001
1815.00,-0.0001
1814.00,-0.0000
1813.00,-0.0000
1812.00,0.0000
1811.00,0.0001
1810.00,0.0001
1809.00,0.0001
1808.00,0.0001
1807.00,0.0001
1806.00,0.0002
1805.00,0.0002
1804.00,0.0003
1803.00,0.0003
1802.00,0.0003
1801.00,0.0002
1800.00,0.0002
1799.00,0.0003
1798.00,0.0004
1797.00,0.0005
1796.00,0.0005
1795.00,0.0005
1794.00,0.0005
1793.00,0.0005
1792.00,0.0005
1791.00,0.0005
1790.00,0.0005
1789.00,0.0005
1788.00,0.0005
1787.00,0.0005
1786.00,0.0005
1785.00,0.0005
1784.00,0.0005
1783.00,0.0005
1782.00,0.0006
1781.00,0.0006
1780.00,0.0006
1779.00,0.0006
1778.00,0.0006
1777.00,0.0006
1776.00,0.0006
1775.00,0.0007
1774.00,0.0007
1773.00,0.0007
1772.00,0.0007
1771.00,0.0007
1770.00,0.0007
1769.00,0.0007
1768.00,0.0007
1767.00,0.0008
1766.00,0.0008
1765.00,0.0008
1764.00,0.0008
1763.00,0.0008
1762.00,0.0009
1761.00,0.0010
1760.00,0.0011
1759.00,0.0011
1758.00,0.0012
1757.00,0.0012
1756.00,0.0013
1755.00,0.0014
1754.00,0.0014
1753.00,0.0015
1752.00,0.0016
1751.00,0.0016
1750.00,0.0016
1749.00,0.0017
1748.00,0.0018
1747.00,0.0019
1746.00,0.0020
1745.00,0.0021
1744.00,0.0021
1743.00,0.0022
1742.00,0.0022
1741.00,0.0022
1740.00,0.0022
1739.00,0.0023
1738.00,0.0023
1737.00,0.0022
1736.00,0.0022
1735.00,0.0022
1734.00,0.0021
1733.00,0.0021
1732.00,0.0021
1731.00,0.0021
1730.00,0.0021
1729.00,0.0021
1728.00,0.0021
1727.00,0.0021
1726.00,0.0021
1725.00,0.0022
1724.00,0.0022
1723.00,0.0023
1722.00,0.0023
1721.00,0.0023
1720.00,0.0023
1719.00,0.0023
1718.00,0.0023
1717.00,0.0023
1716.00,0.0022
1715.00,0.0021
1714.00,0.0021
1713.00,0.0020
1712.00,0.0020
1711.00,0.0020
1710.00,0.0020
1709.00,0.0020
1708.00,0.0020
1707.00,0.0020
1706.00,0.0020
1705.00,0.0020
1704.00,0.0020
1703.00,0.0021
1702.00,0.0021
1701.00,0.0022
1700.00,0.0022
1699.00,0.0022
1698.00,0.0023
1697.00,0.0023
1696.00,0.0024
1695.00,0.0024
1694.00,0.0024
1693.00,0.0024
1692.00,0.0025
1691.00,0.0025
1690.00,0.0025
1689.00,0.0025
1688.00,0.0025
1687.00,0.0025
1686.00,0.0025
1685.00,0.0026
1684.00,0.0026
1683.00,0.0026
1682.00,0.0027
1681.00,0.0028
1680.00,0.0029
1679.00,0.0030
1678.00,0.0030
1677.00,0.0030
1676.00,0.0031
1675.00,0.0031
1674.00,0.0031
1673.00,0.0031
1672.00,0.0031
1671.00,0.0031
1670.00,0.0032
1669.00,0.0033
1668.00,0.0033
1667.00,0.0033
1666.00,0.0033
1665.00,0.0033
1664.00,0.0034
1663.00,0.0034
1662.00,0.0035
1661.00,0.0035
1660.00,0.0035
1659.00,0.0036
1658.00,0.0036
1657.00,0.0036
1656.00,0.0037
1655.00,0.0037
1654.00,0.0038
1653.00,0.0039
1652.00,0.0039
1651.00,0.0039
1650.00,0.0040
1649.00,0.0041
1648.00,0.0043
1647.00,0.0044
1646.00,0.0044
1645.00,0.0044
1644.00,0.0045
1643.00,0.0045
1642.00,0.0045
1641.00,0.0045
1640.00,0.0045
1639.00,0.0046
1638.00,0.0046
1637.00,0.0046
1636.00,0.0045
1635.00,0.0044
1634.00,0.0044
1633.00,0.0043
1632.00,0.0043
1631.00,0.0043
1630.00,0.0042
1629.00,0.0042
1628.00,0.0041
1627.00,0.0041
1626.00,0.0041
1625.00,0.0040
1624.00,0.0040
1623.00,0.0039
1622.00,0.0039
1621.00,0.0040
1620.00,0.0040
1619.00,0.0039
1618.00,0.0038
1617.00,0.0038
1616.00,0.0038
1615.00,0.0038
1614.00,0.0038
1613.00,0.0038
1612.00,0.0038
1611.00,0.0038
1610.00,0.0038
1609.00,0.0038
1608.00,0.0038
1607.00,0.0038
1606.00,0.0038
1605.00,0.0038
1604.00,0.0038
1603.00,0.0038
1602.00,0.0038
1601.00,0.0038
1600.00,0.0037
1599.00,0.0037
1598.00,0.0037
1597.00,0.0037
1596.00,0.0037
1595.00,0.0037
1594.00,0.0036
1593.00,0.0036
1592.00,0.0036
1591.00,0.0036
1590.00,0.0036
1589.00,0.0037
1588.00,0.0037
1587.00,0.0037
1586.00,0.0037
1585.00,0.0038
1584.00,0.0038
1583.00,0.0038
1582.00,0.0039
1581.00,0.0039
1580.00,0.0041
1579.00,0.0041
1578.00,0.0042
1577.00,0.0042
1576.00,0.0042
1575.00,0.0042
1574.00,0.0042
1573.00,0.0043
1572.00,0.0043
1571.00,0.0043
1570.00,0.0043
1569.00,0.0043
1568.00,0.0043
1567.00,0.0044
1566.00,0.0044
1565.00,0.0044
1564.00,0.0044
1563.00,0.0044
1562.00,0.0044
1561.00,0.0044
1560.00,0.0044
1559.00,0.0043
1558.00,0.0042
1557.00,0.0043
1556.00,0.0044
1555.00,0.0045
1554.00,0.0045
1553.00,0.0045
1552.00,0.0045
1551.00,0.0045
1550.00,0.0046
1549.00,0.0047
1548.00,0.0048
1547.00,0.0049
1546.00,0.0049
1545.00,0.0050
1544.00,0.0050
1543.00,0.0050
1542.00,0.0050
1541.00,0.0051
1540.00,0.0050
1539.00,0.0049
1538.00,0.0048
1537.00,0.0048
1536.00,0.0048
1535.00,0.0047
1534.00,0.0046
1533.00,0.0045
1532.00,0.0045
1531.00,0.0045
1530.00,0.0045
1529.00,0.0045
1528.00,0.0045
1527.00,0.0045
1526.00,0.0045
1525.00,0.0045
1524.00,0.0045
1523.00,0.0045
1522.00,0.0045
1521.00,0.0045
1520.00,0.0046
1519.00,0.0046
1518.00,0.0047
1517.00,0.0048
1516.00,0.0049
1515.00,0.0050
1514.00,0.0050
1513.00,0.0051
1512.00,0.0052
1511.00,0.0052
1510.00,0.0053
1509.00,0.0053
1508.00,0.0054
1507.00,0.0054
1506.00,0.0054
1505.00,0.0056
1504.00,0.0058
1503.00,0.0060
1502.00,0.0062
1501.00,0.0064
1500.00,0.0067
1499.00,0.0070
1498.00,0.0072
1497.00,0.0075
1496.00,0.0078
1495.00,0.0080
1494.00,0.0082
1493.00,0.0084
1492.00,0.0088
1491.00,0.0091
1490.00,0.0094
1489.00,0.0099
1488.00,0.0104
1487.00,0.0109
1486.00,0.0114
1485.00,0.0120
1484.00,0.0126
1483.00,0.0133
1482.00,0.0141
1481.00,0.0152
1480.00,0.0164
1479.00,0.0177
1478.00,0.0192
1477.00,0.0213
1476.00,0.0238
1475.00,0.0268
1474.00,0.0308
1473.00,0.0364
1472.00,0.0431
1471.00,0.0497
1470.00,0.0560
1469.00,0.0627
1468.00,0.0699
1467.00,0.0777
1466.00,0.0864
1465.00,0.0956
1464.00,0.1037
1463.00,0.1094
1462.00,0.1132
1461.00,0.1158
1460.00,0.1176
1459.00,0.1189
1458.00,0.1199
1457.00,0.1206
1456.00,0.1206
1455.00,0.1199
1454.00,0.1188
1453.00,0.1172
1452.00,0.1146
1451.00,0.1109
1450.00,0.1058
1449.00,0.0988
1448.00,0.0899
1447.00,0.0805
1446.00,0.0719
1445.00,0.0644
1444.00,0.0580
1443.00,0.0526
1442.00,0.0486
1441.00,0.0457
1440.00,0.0439
1439.00,0.0430
1438.00,0.0428
1437.00,0.0427
1436.00,0.0415
1435.00,0.0391
1434.00,0.0357
1433.00,0.0316
1432.00,0.0273
1431.00,0.0235
1430.00,0.0205
1429.00,0.0182
1428.00,0.0166
1427.00,0.0156
1426.00,0.0149
1425.00,0.0143
1424.00,0.0137
1423.00,0.0134
1422.00,0.0132
1421.00,0.0130
1420.00,0.0127
1419.00,0.0124
1418.00,0.0121
1417.00,0.0118
1416.00,0.0116
1415.00,0.0115
1414.00,0.0114
1413.00,0.0112
1412.00,0.0110
1411.00,0.0109
1410.00,0.0108
1409.00,0.0107
1408.00,0.0106
1407.00,0.0106
1406.00,0.0107
1405.00,0.0107
1404.00,0.0106
1403.00,0.0107
1402.00,0.0109
1401.00,0.0109
1400.00,0.0110
1399.00,0.0111
1398.00,0.0113
1397.00,0.0115
1396.00,0.0117
1395.00,0.0121
1394.00,0.0126
1393.00,0.0130
1392.00,0.0135
1391.00,0.0142
1390.00,0.0153
1389.00,0.0168
1388.00,0.0189
1387.00,0.0221
1386.00,0.0264
1385.00,0.0321
1384.00,0.0400
1383.00,0.0511
1382.00,0.0660
1381.00,0.0849
1380.00,0.1080
1379.00,0.1337
1378.00,0.1579
1377.00,0.1750
1376.00,0.1798
1375.00,0.1697
1374.00,0.1478
1373.00,0.1220
1372.00,0.0984
1371.00,0.0791
1370.00,0.0638
1369.00,0.0523
1368.00,0.0442
1367.00,0.0392
1366.00,0.0365
1365.00,0.0353
1364.00,0.0355
1363.00,0.0366
1362.00,0.0385
1361.00,0.0405
1360.00,0.0420
1359.00,0.0424
1358.00,0.0414
1357.00,0.0390
1356.00,0.0357
1355.00,0.0320
1354.00,0.0284
1353.00,0.0253
1352.00,0.0228
1351.00,0.0207
1350.00,0.0190
1349.00,0.0175
1348.00,0.0164
1347.00,0.0154
1346.00,0.0145
1345.00,0.0138
1344.00,0.0132
1343.00,0.0127
1342.00,0.0123
1341.00,0.0119
1340.00,0.0116
1339.00,0.0114
1338.00,0.0112
1337.00,0.0112
1336.00,0.0113
1335.00,0.0115
1334.00,0.0118
1333.00,0.0122
1332.00,0.0126
1331.00,0.0129
1330.00,0.0130
1329.00,0.0129
1328.00,0.0126
1327.00,0.0122
1326.00,0.0117
1325.00,0.0111
1324.00,0.0106
1323.00,0.0101
1322.00,0.0097
1321.00,0.0094
1320.00,0.0092
1319.00,0.0090
1318.00,0.0088
1317.00,0.0087
1316.00,0.0086
1315.00,0.0086
1314.00,0.0086
1313.00,0.0086
1312.00,0.0088
1311.00,0.0090
1310.00,0.0095
1309.00,0.0101
1308.00,0.0111
1307.00,0.0123
1306.00,0.0135
1305.00,0.0143
1304.00,0.0145
1303.00,0.0142
1302.00,0.0136
1301.00,0.0130
1300.00,0.0126
1299.00,0.0124
1298.00,0.0123
1297.00,0.0123
1296.00,0.0122
1295.00,0.0119
1294.00,0.0115
1293.00,0.0111
1292.00,0.0106
1291.00,0.0101
1290.00,0.0097
1289.00,0.0093
1288.00,0.0090
1287.00,0.0088
1286.00,0.0086
1285.00,0.0084
1284.00,0.0083
1283.00,0.0082
1282.00,0.0081
1281.00,0.0079
1280.00,0.0078
1279.00,0.0077
1278.00,0.0077
1277.00,0.0076
1276.00,0.0076
1275.00,0.0076
1274.00,0.0075
1273.00,0.0075
1272.00,0.0075
1271.00,0.0075
1270.00,0.0076
1269.00,0.0078
1268.00,0.0080
1267.00,0.0082
1266.00,0.0084
1265.00,0.0086
1264.00,0.0089
1263.00,0.0091
1262.00,0.0095
1261.00,0.0100
1260.00,0.0106
1259.00,0.0114
1258.00,0.0122
1257.00,0.0129
1256.00,0.0132
1255.00,0.0130
1254.00,0.0124
1253.00,0.0115
1252.00,0.0106
1251.00,0.0098
1250.00,0.0092
1249.00,0.0088
1248.00,0.0085
1247.00,0.0082
1246.00,0.0080
1245.00,0.0078
1244.00,0.0076
1243.00,0.0075
1242.00,0.0074
1241.00,0.0073
1240.00,0.0073
1239.00,0.0072
1238.00,0.0072
1237.00,0.0072
1236.00,0.0071
1235.00,0.0071
1234.00,0.0071
1233.00,0.0071
1232.00,0.0071
1231.00,0.0072
1230.00,0.0073
1229.00,0.0074
1228.00,0.0075
1227.00,0.0077
1226.00,0.0080
1225.00,0.0082
1224.00,0.0085
1223.00,0.0088
1222.00,0.0091
1221.00,0.0094
1220.00,0.0095
1219.00,0.0096
1218.00,0.0095
1217.00,0.0093
1216.00,0.0090
1215.00,0.0087
1214.00,0.0084
1213.00,0.0082
1212.00,0.0080
1211.00,0.0078
1210.00,0.0077
1209.00,0.0075
1208.00,0.0074
1207.00,0.0074
1206.00,0.0074
1205.00,0.0074
1204.00,0.0074
1203.00,0.0074
1202.00,0.0073
1201.00,0.0073
1200.00,0.0073
1199.00,0.0073
1198.00,0.0073
1197.00,0.0074
1196.00,0.0074
1195.00,0.0074
1194.00,0.0074
1193.00,0.0074
1192.00,0.0074
1191.00,0.0074
1190.00,0.0074
1189.00,0.0074
1188.00,0.0075
1187.00,0.0075
1186.00,0.0076
1185.00,0.0077
1184.00,0.0078
1183.00,0.0080
1182.00,0.0083
1181.00,0.0086
1180.00,0.0090
1179.00,0.0095
1178.00,0.0102
1177.00,0.0110
1176.00,0.0122
1175.00,0.0138
1174.00,0.0160
1173.00,0.0187
1172.00,0.0219
1171.00,0.0254
1170.00,0.0288
1169.00,0.0316
1168.00,0.0332
1167.00,0.0335
1166.00,0.0326
1165.00,0.0309
1164.00,0.0289
1163.00,0.0270
1162.00,0.0252
1161.00,0.0238
1160.00,0.0226
1159.00,0.0218
1158.00,0.0212
1157.00,0.0207
1156.00,0.0203
1155.00,0.0200
1154.00,0.0197
1153.00,0.0194
1152.00,0.0189
1151.00,0.0181
1150.00,0.0173
1149.00,0.0163
1148.00,0.0154
1147.00,0.0145
1146.00,0.0137
1145.00,0.0130
1144.00,0.0122
1143.00,0.0114
1142.00,0.0107
1141.00,0.0101
1140.00,0.0095
1139.00,0.0090
1138.00,0.0086
1137.00,0.0082
1136.00,0.0080
1135.00,0.0078
1134.00,0.0077
1133.00,0.0076
1132.00,0.0075
1131.00,0.0074
1130.00,0.0073
1129.00,0.0072
1128.00,0.0071
1127.00,0.0070
1126.00,0.0071
1125.00,0.0071
1124.00,0.0072
1123.00,0.0072
1122.00,0.0072
1121.00,0.0073
1120.00,0.0075
1119.00,0.0076
1118.00,0.0077
1117.00,0.0077
1116.00,0.0077
1115.00,0.0077
1114.00,0.0078
1113.00,0.0081
1112.00,0.0083
1111.00,0.0085
1110.00,0.0088
1109.00,0.0092
1108.00,0.0097
1107.00,0.0103
1106.00,0.0109
1105.00,0.0115
1104.00,0.0120
1103.00,0.0122
1102.00,0.0121
1101.00,0.0117
1100.00,0.0111
1099.00,0.0106
1098.00,0.0100
1097.00,0.0096
1096.00,0.0092
1095.00,0.0089
1094.00,0.0086
1093.00,0.0084
1092.00,0.0081
1091.00,0.0079
1090.00,0.0077
1089.00,0.0076
1088.00,0.0075
1087.00,0.0075
1086.00,0.0076
1085.00,0.0077
1084.00,0.0077
1083.00,0.0077
1082.00,0.0077
1081.00,0.0075
1080.00,0.0074
1079.00,0.0073
1078.00,0.0072
1077.00,0.0071
1076.00,0.0070
1075.00,0.0070
1074.00,0.0070
1073.00,0.0070
1072.00,0.0070
1071.00,0.0070
1070.00,0.0070
1069.00,0.0071
1068.00,0.0072
1067.00,0.0072
1066.00,0.0073
1065.00,0.0073
1064.00,0.0074
1063.00,0.0076
1062.00,0.0077
1061.00,0.0079
1060.00,0.0079
1059.00,0.0080
1058.00,0.0080
1057.00,0.0082
1056.00,0.0083
1055.00,0.0084
1054.00,0.0086
1053.00,0.0090
1052.00,0.0093
1051.00,0.0097
1050.00,0.0101
1049.00,0.0105
1048.00,0.0110
1047.00,0.0116
1046.00,0.0121
1045.00,0.0125
1044.00,0.0126
1043.00,0.0124
1042.00,0.0121
1041.00,0.0117
1040.00,0.0114
1039.00,0.0111
1038.00,0.0109
1037.00,0.0108
1036.00,0.0108
1035.00,0.0108
1034.00,0.0108
1033.00,0.0107
1032.00,0.0106
1031.00,0.0106
1030.00,0.0106
1029.00,0.0107
1028.00,0.0109
1027.00,0.0111
1026.00,0.0112
1025.00,0.0114
1024.00,0.0115
1023.00,0.0118
1022.00,0.0121
1021.00,0.0124
1020.00,0.0125
1019.00,0.0127
1018.00,0.0127
1017.00,0.0128
1016.00,0.0129
1015.00,0.0129
1014.00,0.0129
1013.00,0.0129
1012.00,0.0129
1011.00,0.0130
1010.00,0.0132
1009.00,0.0134
1008.00,0.0138
1007.00,0.0143
1006.00,0.0151
1005.00,0.0163
1004.00,0.0181
1003.00,0.0205
1002.00,0.0237
1001.00,0.0278
1000.00,0.0322
999.00,0.0360
998.00,0.0379
997.00,0.0373
996.00,0.0343
995.00,0.0300
994.00,0.0255
993.00,0.0215
992.00,0.0183
991.00,0.0160
990.00,0.0145
989.00,0.0134
988.00,0.0127
987.00,0.0123
986.00,0.0122
985.00,0.0123
984.00,0.0127
983.00,0.0135
982.00,0.0146
981.00,0.0163
980.00,0.0185
979.00,0.0216
978.00,0.0254
977.00,0.0299
976.00,0.0349
975.00,0.0396
974.00,0.0432
973.00,0.0445
972.00,0.0429
971.00,0.0388
970.00,0.0332
969.00,0.0276
968.00,0.0227
967.00,0.0190
966.00,0.0164
965.00,0.0144
964.00,0.0130
963.00,0.0119
962.00,0.0111
961.00,0.0105
960.00,0.0099
959.00,0.0095
958.00,0.0091
957.00,0.0088
956.00,0.0085
955.00,0.0083
954.00,0.0082
953.00,0.0080
952.00,0.0078
951.00,0.0076
950.00,0.0075
949.00,0.0074
948.00,0.0074
947.00,0.0074
946.00,0.0076
945.00,0.0079
944.00,0.0083
943.00,0.0086
942.00,0.0090
941.00,0.0091
940.00,0.0091
939.00,0.0088
938.00,0.0084
937.00,0.0079
936.00,0.0074
935.00,0.0070
934.00,0.0067
933.00,0.0064
932.00,0.0062
931.00,0.0061
930.00,0.0060
929.00,0.0060
928.00,0.0059
927.00,0.0059
926.00,0.0059
925.00,0.0060
924.00,0.0061
923.00,0.0061
922.00,0.0061
921.00,0.0061
920.00,0.0060
919.00,0.0060
918.00,0.0059
917.00,0.0059
916.00,0.0059
915.00,0.0060
914.00,0.0062
913.00,0.0063
912.00,0.0065
911.00,0.0067
910.00,0.0069
909.00,0.0071
908.00,0.0074
907.00,0.0077
906.00,0.0082
905.00,0.0091
904.00,0.0103
903.00,0.0121
902.00,0.0140
901.00,0.0158
900.00,0.0169
899.00,0.0171
898.00,0.0164
897.00,0.0149
896.00,0.0131
895.00,0.0115
894.00,0.0101
893.00,0.0091
892.00,0.0083
891.00,0.0079
890.00,0.0076
889.00,0.0075
888.00,0.0073
887.00,0.0071
886.00,0.0070
885.00,0.0070
884.00,0.0071
883.00,0.0071
882.00,0.0070
881.00,0.0070
880.00,0.0069
879.00,0.0071
878.00,0.0073
877.00,0.0074
876.00,0.0075
875.00,0.0076
874.00,0.0076
873.00,0.0077
872.00,0.0078
871.00,0.0078
870.00,0.0078
869.00,0.0077
868.00,0.0076
867.00,0.0076
866.00,0.0077
865.00,0.0077
864.00,0.0077
863.00,0.0077
862.00,0.0078
861.00,0.0080
860.00,0.0081
859.00,0.0082
858.00,0.0084
857.00,0.0086
856.00,0.0088
855.00,0.0091
854.00,0.0092
853.00,0.0094
852.00,0.0096
851.00,0.0100
850.00,0.0105
849.00,0.0113
848.00,0.0124
847.00,0.0139
846.00,0.0161
845.00,0.0197
844.00,0.0247
843.00,0.0306
842.00,0.0355
841.00,0.0371
840.00,0.0346
839.00,0.0292
838.00,0.0232
837.00,0.0185
836.00,0.0154
835.00,0.0136
834.00,0.0125
833.00,0.0119
832.00,0.0114
831.00,0.0110
830.00,0.0107
829.00,0.0105
828.00,0.0102
827.00,0.0099
826.00,0.0098
825.00,0.0097
824.00,0.0097
823.00,0.0098
822.00,0.0099
821.00,0.0099
820.00,0.0099
819.00,0.0100
818.00,0.0104
817.00,0.0111
816.00,0.0120
815.00,0.0131
814.00,0.0145
813.00,0.0162
812.00,0.0181
811.00,0.0198
810.00,0.0210
809.00,0.0214
808.00,0.0209
807.00,0.0196
806.00,0.0179
805.00,0.0162
804.00,0.0146
803.00,0.0134
802.00,0.0123
801.00,0.0116
800.00,0.0109
799.00,0.0105
798.00,0.0101
797.00,0.0098
796.00,0.0094
795.00,0.0091
794.00,0.0089
793.00,0.0086
792.00,0.0083
791.00,0.0080
790.00,0.0078
789.00,0.0076
788.00,0.0076
787.00,0.0075
786.00,0.0073
785.00,0.0071
784.00,0.0069
783.00,0.0067
782.00,0.0065
781.00,0.0063
780.00,0.0062
779.00,0.0061
778.00,0.0061
777.00,0.0061
776.00,0.0060
775.00,0.0060
774.00,0.0060
773.00,0.0061
772.00,0.0063
771.00,0.0064
770.00,0.0064
769.00,0.0064
768.00,0.0063
767.00,0.0062
766.00,0.0061
765.00,0.0062
764.00,0.0062
763.00,0.0062
762.00,0.0063
761.00,0.0064
760.00,0.0064
759.00,0.0064
758.00,0.0063
757.00,0.0063
756.00,0.0063
755.00,0.0064
754.00,0.0065
753.00,0.0066
752.00,0.0068
751.00,0.0070
750.00,0.0072
749.00,0.0073
748.00,0.0074
747.00,0.0075
746.00,0.0077
745.00,0.0079
744.00,0.0081
743.00,0.0083
742.00,0.0085
741.00,0.0088
740.00,0.0093
739.00,0.0097
738.00,0.0100
737.00,0.0104
736.00,0.0107
735.00,0.0111
734.00,0.0116
733.00,0.0121
732.00,0.0126
731.00,0.0131
730.00,0.0135
729.00,0.0139
728.00,0.0142
727.00,0.0145
726.00,0.0147
725.00,0.0150
724.00,0.0154
723.00,0.0160
722.00,0.0165
721.00,0.0167
720.00,0.0165
719.00,0.0159
718.00,0.0149
717.00,0.0137
716.00,0.0127
715.00,0.0120
714.00,0.0116
713.00,0.0113
712.00,0.0110
711.00,0.0106
710.00,0.0101
709.00,0.0098
708.00,0.0095
707.00,0.0094
706.00,0.0094
705.00,0.0093
704.00,0.0091
703.00,0.0088
702.00,0.0086
701.00,0.0085
700.00,0.0085
699.00,0.0085
698.00,0.0085
697.00,0.0086
696.00,0.0086
695.00,0.0087
694.00,0.0088
693.00,0.0089
692.00,0.0089
691.00,0.0088
690.00,0.0088
689.00,0.0088
688.00,0.0088
687.00,0.0088
686.00,0.0088
685.00,0.0087
684.00,0.0086
683.00,0.0084
682.00,0.0082
681.00,0.0082
680.00,0.0083
679.00,0.0084
678.00,0.0085
677.00,0.0086
676.00,0.0087
675.00,0.0089
674.00,0.0091
673.00,0.0093
672.00,0.0095
671.00,0.0096
670.00,0.0095
669.00,0.0092
668.00,0.0090
667.00,0.0089
666.00,0.0088
665.00,0.0087
664.00,0.0085
663.00,0.0084
662.00,0.0083
661.00,0.0083
660.00,0.0084
659.00,0.0084
658.00,0.0084
657.00,0.0083
656.00,0.0082
655.00,0.0080
654.00,0.0078
653.00,0.0077
652.00,0.0078
651.00,0.0079
650.00,0.0080
649.00,0.0080
648.00,0.0080
647.00,0.0079
646.00,0.0079
645.00,0.0078
644.00,0.0078
643.00,0.0078
642.00,0.0078
641.00,0.0078
640.00,0.0081
639.00,0.0084
638.00,0.0088
637.00,0.0090
636.00,0.0089
635.00,0.0087
634.00,0.0084
633.00,0.0080
632.00,0.0077
631.00,0.0075
630.00,0.0075
629.00,0.0077
628.00,0.0079
627.00,0.0081
626.00,0.0081
625.00,0.0079
624.00,0.0077
623.00,0.0075
622.00,0.0074
621.00,0.0074
620.00,0.0074
619.00,0.0076
618.00,0.0077
617.00,0.0077
616.00,0.0076
615.00,0.0075
614.00,0.0074
613.00,0.0074
612.00,0.0076
611.00,0.0078
610.00,0.0078
609.00,0.0075
608.00,0.0072
607.00,0.0070
606.00,0.0071
605.00,0.0073
604.00,0.0075
603.00,0.0077
602.00,0.0078
601.00,0.0080
600.00,0.0081
599.00,0.0080
598.00,0.0079
597.00,0.0077
596.00,0.0075
595.00,0.0075
594.00,0.0077
593.00,0.0080
592.00,0.0082
591.00,0.0082
590.00,0.0080
589.00,0.0078
588.00,0.0077
587.00,0.0077
586.00,0.0077
585.00,0.0075
584.00,0.0074
583.00,0.0073
582.00,0.0073
581.00,0.0075
580.00,0.0077
579.00,0.0079
578.00,0.0080
577.00,0.0078
576.00,0.0075
575.00,0.0071
574.00,0.0069
573.00,0.0071
572.00,0.0075
571.00,0.0080
570.00,0.0083
569.00,0.0082
568.00,0.0080
567.00,0.0076
566.00,0.0073
565.00,0.0071
564.00,0.0070
563.00,0.0070
562.00,0.0071
561.00,0.0072
560.00,0.0073
559.00,0.0073
558.00,0.0073
557.00,0.0074
556.00,0.0075
555.00,0.0079
554.00,0.0083
553.00,0.0085
552.00,0.0085
551.00,0.0083
550.00,0.0082
549.00,0.0084
548.00,0.0085
547.00,0.0086
546.00,0.0086
545.00,0.0087
544.00,0.0088
543.00,0.0089
542.00,0.0093
541.00,0.0099
540.00,0.0106
539.00,0.0113
538.00,0.0118
537.00,0.0119
536.00,0.0118
535.00,0.0115
534.00,0.0114
533.00,0.0115
532.00,0.0115
531.00,0.0115
530.00,0.0113
529.00,0.0111
528.00,0.0109
527.00,0.0107
526.00,0.0106
525.00,0.0104
524.00,0.0101
523.00,0.0098
522.00,0.0093
521.00,0.0087
520.00,0.0084
519.00,0.0083
518.00,0.0084
517.00,0.0085
516.00,0.0082
515.00,0.0078
514.00,0.0073
513.00,0.0070
512.00,0.0068
511.00,0.0066
510.00,0.0065
509.00,0.0063
508.00,0.0065
507.00,0.0070
506.00,0.0078
505.00,0.0084
504.00,0.0087
503.00,0.0090
502.00,0.0094
501.00,0.0098
500.00,0.0097
499.00,0.0092
498.00,0.0085
497.00,0.0077
496.00,0.0071
495.00,0.0069
494.00,0.0070
493.00,0.0073
492.00,0.0078
491.00,0.0084
490.00,0.0091
489.00,0.0098
488.00,0.0099
487.00,0.0097
486.00,0.0093
485.00,0.0092
484.00,0.0092
483.00,0.0093
482.00,0.0093
481.00,0.0095
480.00,0.0099
479.00,0.0106
478.00,0.0111
477.00,0.0109
476.00,0.0103
475.00,0.0101
474.00,0.0105
473.00,0.0110
472.00,0.0109
471.00,0.0104
470.00,0.0103
469.00,0.0111
468.00,0.0126
467.00,0.0140
466.00,0.0152
465.00,0.0160
464.00,0.0166
463.00,0.0173
462.00,0.0184
461.00,0.0197
460.00,0.0206
459.00,0.0207
458.00,0.0199
457.00,0.0187
456.00,0.0176
455.00,0.0169
454.00,0.0168
453.00,0.0174
452.00,0.0183
451.00,0.0187
450.00,0.0183
