Created as New Dataset,Sample 171 By Administrator Date Wednesday, September 03 2025
cm-1,A
4000.00,0.0010
3999.00,0.0010
3998.00,0.0010
3997.00,0.0010
3996.00,0.0010
3995.00,0.0010
3994.00,0.0010
3993.00,0.0011
3992.00,0.0011
3991.00,0.0011
3990.00,0.0011
3989.00,0.0011
3988.00,0.0010
3987.00,0.0010
3986.00,0.0010
3985.00,0.0010
3984.00,0.0010
3983.00,0.0010
3982.00,0.0010
3981.00,0.0010
3980.00,0.0010
3979.00,0.0010
3978.00,0.0010
3977.00,0.0010
3976.00,0.0009
3975.00,0.0009
3974.00,0.0009
3973.00,0.0009
3972.00,0.0009
3971.00,0.0010
3970.00,0.0010
3969.00,0.0009
3968.00,0.0009
3967.00,0.0009
3966.00,0.0009
3965.00,0.0008
3964.00,0.0008
3963.00,0.0009
3962.00,0.0009
3961.00,0.0009
3960.00,0.0009
3959.00,0.0009
3958.00,0.0009
3957.00,0.0009
3956.00,0.0009
3955.00,0.0009
3954.00,0.0009
3953.00,0.0008
3952.00,0.0008
3951.00,0.0008
3950.00,0.0009
3949.00,0.0009
3948.00,0.0009
3947.00,0.0009
3946.00,0.0009
3945.00,0.0008
3944.00,0.0008
3943.00,0.0008
3942.00,0.0008
3941.00,0.0008
3940.00,0.0009
3939.00,0.0009
3938.00,0.0010
3937.00,0.0010
3936.00,0.0010
3935.00,0.0010
3934.00,0.0009
3933.00,0.0009
3932.00,0.0009
3931.00,0.0009
3930.00,0.0009
3929.00,0.0009
3928.00,0.0010
3927.00,0.0010
3926.00,0.0010
3925.00,0.0010
3924.00,0.0010
3923.00,0.0010
3922.00,0.0009
3921.00,0.0009
3920.00,0.0009
3919.00,0.0009
3918.00,0.0009
3917.00,0.0009
3916.00,0.0009
3915.00,0.0009
3914.00,0.0009
3913.00,0.0009
3912.00,0.0009
3911.00,0.0009
3910.00,0.0008
3909.00,0.0008
3908.00,0.0008
3907.00,0.0008
3906.00,0.0008
3905.00,0.0008
3904.00,0.0008
3903.00,0.0008
3902.00,0.0008
3901.00,0.0007
3900.00,0.0007
3899.00,0.0006
3898.00,0.0007
3897.00,0.0007
3896.00,0.0008
3895.00,0.0008
3894.00,0.0009
3893.00,0.0008
3892.00,0.0008
3891.00,0.0008
3890.00,0.0008
3889.00,0.0008
3888.00,0.0008
3887.00,0.0008
3886.00,0.0008
3885.00,0.0008
3884.00,0.0008
3883.00,0.0009
3882.00,0.0009
3881.00,0.0009
3880.00,0.0009
3879.00,0.0009
3878.00,0.0009
3877.00,0.0009
3876.00,0.0009
3875.00,0.0009
3874.00,0.0009
3873.00,0.0009
3872.00,0.0008
3871.00,0.0008
3870.00,0.0008
3869.00,0.0008
3868.00,0.0008
3867.00,0.0008
3866.00,0.0008
3865.00,0.0008
3864.00,0.0009
3863.00,0.0009
3862.00,0.0009
3861.00,0.0009
3860.00,0.0009
3859.00,0.0008
3858.00,0.0008
3857.00,0.0008
3856.00,0.0008
3855.00,0.0007
3854.00,0.0007
3853.00,0.0007
3852.00,0.0007
3851.00,0.0007
3850.00,0.0007
3849.00,0.0007
3848.00,0.0008
3847.00,0.0008
3846.00,0.0008
3845.00,0.0008
3844.00,0.0009
3843.00,0.0009
3842.00,0.0009
3841.00,0.0009
3840.00,0.0009
3839.00,0.0009
3838.00,0.0009
3837.00,0.0009
3836.00,0.0009
3835.00,0.0009
3834.00,0.0009
3833.00,0.0009
3832.00,0.0009
3831.00,0.0009
3830.00,0.0009
3829.00,0.0010
3828.00,0.0010
3827.00,0.0010
3826.00,0.0010
3825.00,0.0010
3824.00,0.0010
3823.00,0.0009
3822.00,0.0009
3821.00,0.0009
3820.00,0.0009
3819.00,0.0009
3818.00,0.0009
3817.00,0.0009
3816.00,0.0009
3815.00,0.0008
3814.00,0.0008
3813.00,0.0008
3812.00,0.0008
3811.00,0.0008
3810.00,0.0008
3809.00,0.0009
3808.00,0.0009
3807.00,0.0009
3806.00,0.0010
3805.00,0.0010
3804.00,0.0010
3803.00,0.0010
3802.00,0.0009
3801.00,0.0009
3800.00,0.0009
3799.00,0.0009
3798.00,0.0009
3797.00,0.0009
3796.00,0.0009
3795.00,0.0009
3794.00,0.0009
3793.00,0.0009
3792.00,0.0009
3791.00,0.0009
3790.00,0.0009
3789.00,0.0009
3788.00,0.0009
3787.00,0.0009
3786.00,0.0009
3785.00,0.0008
3784.00,0.0008
3783.00,0.0008
3782.00,0.0008
3781.00,0.0008
3780.00,0.0008
3779.00,0.0008
3778.00,0.0008
3777.00,0.0008
3776.00,0.0008
3775.00,0.0009
3774.00,0.0009
3773.00,0.0009
3772.00,0.0009
3771.00,0.0009
3770.00,0.0009
3769.00,0.0009
3768.00,0.0009
3767.00,0.0009
3766.00,0.0009
3765.00,0.0009
3764.00,0.0009
3763.00,0.0009
3762.00,0.0010
3761.00,0.0010
3760.00,0.0010
3759.00,0.0010
3758.00,0.0010
3757.00,0.0010
3756.00,0.0010
3755.00,0.0010
3754.00,0.0010
3753.00,0.0010
3752.00,0.0010
3751.00,0.0009
3750.00,0.0009
3749.00,0.0009
3748.00,0.0008
3747.00,0.0008
3746.00,0.0008
3745.00,0.0008
3744.00,0.0008
3743.00,0.0008
3742.00,0.0009
3741.00,0.0009
3740.00,0.0010
3739.00,0.0010
3738.00,0.0010
3737.00,0.0009
3736.00,0.0009
3735.00,0.0009
3734.00,0.0008
3733.00,0.0008
3732.00,0.0008
3731.00,0.0008
3730.00,0.0007
3729.00,0.0008
3728.00,0.0008
3727.00,0.0008
3726.00,0.0008
3725.00,0.0008
3724.00,0.0008
3723.00,0.0008
3722.00,0.0007
3721.00,0.0007
3720.00,0.0008
3719.00,0.0008
3718.00,0.0008
3717.00,0.0008
3716.00,0.0008
3715.00,0.0008
3714.00,0.0008
3713.00,0.0007
3712.00,0.0007
3711.00,0.0006
3710.00,0.0006
3709.00,0.0006
3708.00,0.0007
3707.00,0.0007
3706.00,0.0008
3705.00,0.0008
3704.00,0.0008
3703.00,0.0007
3702.00,0.0007
3701.00,0.0007
3700.00,0.0007
3699.00,0.0007
3698.00,0.0007
3697.00,0.0007
3696.00,0.0007
3695.00,0.0007
3694.00,0.0008
3693.00,0.0008
3692.00,0.0008
3691.00,0.0007
3690.00,0.0007
3689.00,0.0007
3688.00,0.0007
3687.00,0.0006
3686.00,0.0006
3685.00,0.0006
3684.00,0.0006
3683.00,0.0007
3682.00,0.0007
3681.00,0.0007
3680.00,0.0008
3679.00,0.0008
3678.00,0.0008
3677.00,0.0008
3676.00,0.0008
3675.00,0.0008
3674.00,0.0008
3673.00,0.0007
3672.00,0.0007
3671.00,0.0006
3670.00,0.0006
3669.00,0.0005
3668.00,0.0005
3667.00,0.0006
3666.00,0.0006
3665.00,0.0006
3664.00,0.0005
3663.00,0.0005
3662.00,0.0005
3661.00,0.0006
3660.00,0.0006
3659.00,0.0006
3658.00,0.0006
3657.00,0.0006
3656.00,0.0005
3655.00,0.0005
3654.00,0.0005
3653.00,0.0005
3652.00,0.0005
3651.00,0.0005
3650.00,0.0005
3649.00,0.0006
3648.00,0.0006
3647.00,0.0006
3646.00,0.0006
3645.00,0.0006
3644.00,0.0006
3643.00,0.0006
3642.00,0.0006
3641.00,0.0006
3640.00,0.0006
3639.00,0.0007
3638.00,0.0007
3637.00,0.0007
3636.00,0.0007
3635.00,0.0008
3634.00,0.0008
3633.00,0.0008
3632.00,0.0008
3631.00,0.0007
3630.00,0.0006
3629.00,0.0006
3628.00,0.0006
3627.00,0.0007
3626.00,0.0007
3625.00,0.0007
3624.00,0.0007
3623.00,0.0007
3622.00,0.0006
3621.00,0.0006
3620.00,0.0006
3619.00,0.0006
3618.00,0.0007
3617.00,0.0007
3616.00,0.0008
3615.00,0.0008
3614.00,0.0008
3613.00,0.0008
3612.00,0.0008
3611.00,0.0007
3610.00,0.0007
3609.00,0.0007
3608.00,0.0007
3607.00,0.0008
3606.00,0.0008
3605.00,0.0008
3604.00,0.0009
3603.00,0.0009
3602.00,0.0009
3601.00,0.0010
3600.00,0.0010
3599.00,0.0010
3598.00,0.0010
3597.00,0.0010
3596.00,0.0010
3595.00,0.0010
3594.00,0.0010
3593.00,0.0009
3592.00,0.0009
3591.00,0.0009
3590.00,0.0009
3589.00,0.0009
3588.00,0.0009
3587.00,0.0009
3586.00,0.0009
3585.00,0.0009
3584.00,0.0009
3583.00,0.0009
3582.00,0.0009
3581.00,0.0009
3580.00,0.0010
3579.00,0.0010
3578.00,0.0010
3577.00,0.0010
3576.00,0.0010
3575.00,0.0010
3574.00,0.0010
3573.00,0.0010
3572.00,0.0010
3571.00,0.0010
3570.00,0.0011
3569.00,0.0011
3568.00,0.0011
3567.00,0.0011
3566.00,0.0011
3565.00,0.0010
3564.00,0.0010
3563.00,0.0011
3562.00,0.0011
3561.00,0.0011
3560.00,0.0012
3559.00,0.0012
3558.00,0.0012
3557.00,0.0012
3556.00,0.0012
3555.00,0.0012
3554.00,0.0012
3553.00,0.0012
3552.00,0.0012
3551.00,0.0013
3550.00,0.0013
3549.00,0.0013
3548.00,0.0014
3547.00,0.0014
3546.00,0.0014
3545.00,0.0014
3544.00,0.0015
3543.00,0.0015
3542.00,0.0014
3541.00,0.0014
3540.00,0.0014
3539.00,0.0014
3538.00,0.0015
3537.00,0.0015
3536.00,0.0015
3535.00,0.0015
3534.00,0.0016
3533.00,0.0016
3532.00,0.0016
3531.00,0.0016
3530.00,0.0016
3529.00,0.0016
3528.00,0.0017
3527.00,0.0017
3526.00,0.0017
3525.00,0.0017
3524.00,0.0017
3523.00,0.0017
3522.00,0.0017
3521.00,0.0016
3520.00,0.0016
3519.00,0.0016
3518.00,0.0017
3517.00,0.0017
3516.00,0.0017
3515.00,0.0018
3514.00,0.0018
3513.00,0.0019
3512.00,0.0019
3511.00,0.0020
3510.00,0.0020
3509.00,0.0020
3508.00,0.0020
3507.00,0.0020
3506.00,0.0020
3505.00,0.0020
3504.00,0.0021
3503.00,0.0021
3502.00,0.0020
3501.00,0.0020
3500.00,0.0020
3499.00,0.0020
3498.00,0.0020
3497.00,0.0020
3496.00,0.0020
3495.00,0.0020
3494.00,0.0020
3493.00,0.0020
3492.00,0.0020
3491.00,0.0021
3490.00,0.0021
3489.00,0.0021
3488.00,0.0022
3487.00,0.0022
3486.00,0.0022
3485.00,0.0022
3484.00,0.0022
3483.00,0.0022
3482.00,0.0022
3481.00,0.0023
3480.00,0.0023
3479.00,0.0023
3478.00,0.0023
3477.00,0.0023
3476.00,0.0023
3475.00,0.0023
3474.00,0.0023
3473.00,0.0024
3472.00,0.0024
3471.00,0.0024
3470.00,0.0024
3469.00,0.0025
3468.00,0.0025
3467.00,0.0025
3466.00,0.0024
3465.00,0.0024
3464.00,0.0024
3463.00,0.0025
3462.00,0.0025
3461.00,0.0025
3460.00,0.0025
3459.00,0.0025
3458.00,0.0025
3457.00,0.0025
3456.00,0.0026
3455.00,0.0026
3454.00,0.0027
3453.00,0.0027
3452.00,0.0027
3451.00,0.0027
3450.00,0.0027
3449.00,0.0027
3448.00,0.0027
3447.00,0.0027
3446.00,0.0027
3445.00,0.0027
3444.00,0.0028
3443.00,0.0028
3442.00,0.0028
3441.00,0.0028
3440.00,0.0028
3439.00,0.0028
3438.00,0.0028
3437.00,0.0029
3436.00,0.0029
3435.00,0.0029
3434.00,0.0029
3433.00,0.0029
3432.00,0.0029
3431.00,0.0030
3430.00,0.0030
3429.00,0.0031
3428.00,0.0031
3427.00,0.0030
3426.00,0.0030
3425.00,0.0030
3424.00,0.0030
3423.00,0.0030
3422.00,0.0030
3421.00,0.0031
3420.00,0.0031
3419.00,0.0031
3418.00,0.0031
3417.00,0.0031
3416.00,0.0032
3415.00,0.0032
3414.00,0.0032
3413.00,0.0033
3412.00,0.0032
3411.00,0.0032
3410.00,0.0032
3409.00,0.0031
3408.00,0.0031
3407.00,0.0031
3406.00,0.0031
3405.00,0.0032
3404.00,0.0032
3403.00,0.0032
3402.00,0.0033
3401.00,0.0033
3400.00,0.0033
3399.00,0.0033
3398.00,0.0033
3397.00,0.0033
3396.00,0.0033
3395.00,0.0033
3394.00,0.0033
3393.00,0.0033
3392.00,0.0033
3391.00,0.0033
3390.00,0.0033
3389.00,0.0034
3388.00,0.0034
3387.00,0.0034
3386.00,0.0034
3385.00,0.0034
3384.00,0.0034
3383.00,0.0034
3382.00,0.0034
3381.00,0.0034
3380.00,0.0034
3379.00,0.0034
3378.00,0.0034
3377.00,0.0034
3376.00,0.0035
3375.00,0.0035
3374.00,0.0035
3373.00,0.0035
3372.00,0.0035
3371.00,0.0035
3370.00,0.0035
3369.00,0.0035
3368.00,0.0035
3367.00,0.0035
3366.00,0.0035
3365.00,0.0035
3364.00,0.0036
3363.00,0.0036
3362.00,0.0036
3361.00,0.0036
3360.00,0.0036
3359.00,0.0036
3358.00,0.0036
3357.00,0.0037
3356.00,0.0037
3355.00,0.0037
3354.00,0.0037
3353.00,0.0037
3352.00,0.0037
3351.00,0.0037
3350.00,0.0037
3349.00,0.0037
3348.00,0.0037
3347.00,0.0037
3346.00,0.0037
3345.00,0.0037
3344.00,0.0036
3343.00,0.0036
3342.00,0.0036
3341.00,0.0036
3340.00,0.0037
3339.00,0.0037
3338.00,0.0036
3337.00,0.0036
3336.00,0.0036
3335.00,0.0035
3334.00,0.0035
3333.00,0.0035
3332.00,0.0035
3331.00,0.0035
3330.00,0.0036
3329.00,0.0037
3328.00,0.0037
3327.00,0.0037
3326.00,0.0037
3325.00,0.0036
3324.00,0.0036
3323.00,0.0035
3322.00,0.0035
3321.00,0.0035
3320.00,0.0035
3319.00,0.0036
3318.00,0.0036
3317.00,0.0036
3316.00,0.0036
3315.00,0.0037
3314.00,0.0037
3313.00,0.0037
3312.00,0.0037
3311.00,0.0037
3310.00,0.0038
3309.00,0.0038
3308.00,0.0038
3307.00,0.0038
3306.00,0.0038
3305.00,0.0038
3304.00,0.0038
3303.00,0.0038
3302.00,0.0038
3301.00,0.0038
3300.00,0.0037
3299.00,0.0037
3298.00,0.0037
3297.00,0.0037
3296.00,0.0037
3295.00,0.0037
3294.00,0.0037
3293.00,0.0037
3292.00,0.0037
3291.00,0.0036
3290.00,0.0036
3289.00,0.0036
3288.00,0.0036
3287.00,0.0036
3286.00,0.0035
3285.00,0.0035
3284.00,0.0035
3283.00,0.0034
3282.00,0.0034
3281.00,0.0034
3280.00,0.0034
3279.00,0.0034
3278.00,0.0034
3277.00,0.0034
3276.00,0.0034
3275.00,0.0034
3274.00,0.0033
3273.00,0.0033
3272.00,0.0033
3271.00,0.0033
3270.00,0.0033
3269.00,0.0033
3268.00,0.0033
3267.00,0.0033
3266.00,0.0033
3265.00,0.0032
3264.00,0.0032
3263.00,0.0032
3262.00,0.0032
3261.00,0.0032
3260.00,0.0032
3259.00,0.0032
3258.00,0.0032
3257.00,0.0031
3256.00,0.0031
3255.00,0.0031
3254.00,0.0031
3253.00,0.0032
3252.00,0.0032
3251.00,0.0032
3250.00,0.0031
3249.00,0.0031
3248.00,0.0031
3247.00,0.0030
3246.00,0.0030
3245.00,0.0030
3244.00,0.0030
3243.00,0.0030
3242.00,0.0030
3241.00,0.0030
3240.00,0.0030
3239.00,0.0031
3238.00,0.0031
3237.00,0.0032
3236.00,0.0032
3235.00,0.0032
3234.00,0.0032
3233.00,0.0031
3232.00,0.0031
3231.00,0.0031
3230.00,0.0031
3229.00,0.0031
3228.00,0.0031
3227.00,0.0031
3226.00,0.0031
3225.00,0.0031
3224.00,0.0031
3223.00,0.0032
3222.00,0.0032
3221.00,0.0033
3220.00,0.0033
3219.00,0.0033
3218.00,0.0034
3217.00,0.0034
3216.00,0.0035
3215.00,0.0035
3214.00,0.0035
3213.00,0.0035
3212.00,0.0035
3211.00,0.0035
3210.00,0.0035
3209.00,0.0035
3208.00,0.0035
3207.00,0.0035
3206.00,0.0035
3205.00,0.0035
3204.00,0.0035
3203.00,0.0035
3202.00,0.0034
3201.00,0.0034
3200.00,0.0035
3199.00,0.0035
3198.00,0.0035
3197.00,0.0035
3196.00,0.0035
3195.00,0.0035
3194.00,0.0035
3193.00,0.0035
3192.00,0.0035
3191.00,0.0035
3190.00,0.0034
3189.00,0.0034
3188.00,0.0034
3187.00,0.0034
3186.00,0.0034
3185.00,0.0034
3184.00,0.0034
3183.00,0.0034
3182.00,0.0033
3181.00,0.0033
3180.00,0.0033
3179.00,0.0033
3178.00,0.0033
3177.00,0.0033
3176.00,0.0033
3175.00,0.0033
3174.00,0.0033
3173.00,0.0033
3172.00,0.0033
3171.00,0.0033
3170.00,0.0033
3169.00,0.0033
3168.00,0.0032
3167.00,0.0032
3166.00,0.0032
3165.00,0.0032
3164.00,0.0032
3163.00,0.0031
3162.00,0.0031
3161.00,0.0031
3160.00,0.0031
3159.00,0.0031
3158.00,0.0031
3157.00,0.0031
3156.00,0.0032
3155.00,0.0032
3154.00,0.0032
3153.00,0.0032
3152.00,0.0032
3151.00,0.0032
3150.00,0.0032
3149.00,0.0032
3148.00,0.0032
3147.00,0.0032
3146.00,0.0032
3145.00,0.0032
3144.00,0.0032
3143.00,0.0031
3142.00,0.0031
3141.00,0.0031
3140.00,0.0031
3139.00,0.0031
3138.00,0.0031
3137.00,0.0031
3136.00,0.0031
3135.00,0.0030
3134.00,0.0030
3133.00,0.0030
3132.00,0.0030
3131.00,0.0029
3130.00,0.0029
3129.00,0.0029
3128.00,0.0029
3127.00,0.0028
3126.00,0.0028
3125.00,0.0028
3124.00,0.0028
3123.00,0.0028
3122.00,0.0028
3121.00,0.0027
3120.00,0.0027
3119.00,0.0027
3118.00,0.0027
3117.00,0.0027
3116.00,0.0027
3115.00,0.0026
3114.00,0.0026
3113.00,0.0026
3112.00,0.0027
3111.00,0.0027
3110.00,0.0027
3109.00,0.0027
3108.00,0.0027
3107.00,0.0027
3106.00,0.0027
3105.00,0.0026
3104.00,0.0026
3103.00,0.0025
3102.00,0.0025
3101.00,0.0026
3100.00,0.0026
3099.00,0.0027
3098.00,0.0027
3097.00,0.0027
3096.00,0.0027
3095.00,0.0027
3094.00,0.0026
3093.00,0.0026
3092.00,0.0026
3091.00,0.0026
3090.00,0.0026
3089.00,0.0026
3088.00,0.0026
3087.00,0.0026
3086.00,0.0026
3085.00,0.0026
3084.00,0.0026
3083.00,0.0026
3082.00,0.0026
3081.00,0.0026
3080.00,0.0026
3079.00,0.0026
3078.00,0.0026
3077.00,0.0026
3076.00,0.0026
3075.00,0.0027
3074.00,0.0027
3073.00,0.0027
3072.00,0.0027
3071.00,0.0027
3070.00,0.0027
3069.00,0.0027
3068.00,0.0027
3067.00,0.0027
3066.00,0.0028
3065.00,0.0028
3064.00,0.0028
3063.00,0.0028
3062.00,0.0028
3061.00,0.0028
3060.00,0.0028
3059.00,0.0029
3058.00,0.0029
3057.00,0.0029
3056.00,0.0029
3055.00,0.0029
3054.00,0.0029
3053.00,0.0029
3052.00,0.0029
3051.00,0.0030
3050.00,0.0030
3049.00,0.0030
3048.00,0.0031
3047.00,0.0031
3046.00,0.0031
3045.00,0.0031
3044.00,0.0031
3043.00,0.0031
3042.00,0.0031
3041.00,0.0032
3040.00,0.0032
3039.00,0.0032
3038.00,0.0032
3037.00,0.0033
3036.00,0.0033
3035.00,0.0033
3034.00,0.0034
3033.00,0.0034
3032.00,0.0034
3031.00,0.0035
3030.00,0.0036
3029.00,0.0037
3028.00,0.0037
3027.00,0.0038
3026.00,0.0038
3025.00,0.0038
3024.00,0.0039
3023.00,0.0040
3022.00,0.0040
3021.00,0.0041
3020.00,0.0042
3019.00,0.0043
3018.00,0.0043
3017.00,0.0044
3016.00,0.0045
3015.00,0.0046
3014.00,0.0047
3013.00,0.0048
3012.00,0.0049
3011.00,0.0050
3010.00,0.0051
3009.00,0.0053
3008.00,0.0055
3007.00,0.0056
3006.00,0.0057
3005.00,0.0058
3004.00,0.0060
3003.00,0.0061
3002.00,0.0063
3001.00,0.0065
3000.00,0.0067
2999.00,0.0070
2998.00,0.0072
2997.00,0.0075
2996.00,0.0079
2995.00,0.0082
2994.00,0.0086
2993.00,0.0090
2992.00,0.0095
2991.00,0.0101
2990.00,0.0107
2989.00,0.0114
2988.00,0.0121
2987.00,0.0130
2986.00,0.0139
2985.00,0.0148
2984.00,0.0159
2983.00,0.0171
2982.00,0.0186
2981.00,0.0202
2980.00,0.0221
2979.00,0.0242
2978.00,0.0266
2977.00,0.0294
2976.00,0.0326
2975.00,0.0362
2974.00,0.0402
2973.00,0.0449
2972.00,0.0501
2971.00,0.0559
2970.00,0.0623
2969.00,0.0694
2968.00,0.0770
2967.00,0.0851
2966.00,0.0934
2965.00,0.1018
2964.00,0.1099
2963.00,0.1172
2962.00,0.1235
2961.00,0.1287
2960.00,0.1329
2959.00,0.1367
2958.00,0.1405
2957.00,0.1452
2956.00,0.1510
2955.00,0.1582
2954.00,0.1664
2953.00,0.1749
2952.00,0.1827
2951.00,0.1883
2950.00,0.1905
2949.00,0.1886
2948.00,0.1824
2947.00,0.1725
2946.00,0.1603
2945.00,0.1472
2944.00,0.1348
2943.00,0.1240
2942.00,0.1156
2941.00,0.1098
2940.00,0.1066
2939.00,0.1056
2938.00,0.1066
2937.00,0.1095
2936.00,0.1140
2935.00,0.1201
2934.00,0.1276
2933.00,0.1364
2932.00,0.1465
2931.00,0.1574
2930.00,0.1691
2929.00,0.1812
2928.00,0.1933
2927.00,0.2052
2926.00,0.2168
2925.00,0.2281
2924.00,0.2392
2923.00,0.2502
2922.00,0.2611
2921.00,0.2717
2920.00,0.2810
2919.00,0.2880
2918.00,0.2915
2917.00,0.2906
2916.00,0.2853
2915.00,0.2763
2914.00,0.2649
2913.00,0.2526
2912.00,0.2405
2911.00,0.2292
2910.00,0.2192
2909.00,0.2102
2908.00,0.2021
2907.00,0.1945
2906.00,0.1871
2905.00,0.1798
2904.00,0.1726
2903.00,0.1655
2902.00,0.1585
2901.00,0.1517
2900.00,0.1453
2899.00,0.1392
2898.00,0.1335
2897.00,0.1282
2896.00,0.1236
2895.00,0.1195
2894.00,0.1161
2893.00,0.1132
2892.00,0.1110
2891.00,0.1093
2890.00,0.1082
2889.00,0.1076
2888.00,0.1073
2887.00,0.1074
2886.00,0.1077
2885.00,0.1085
2884.00,0.1097
2883.00,0.1114
2882.00,0.1135
2881.00,0.1159
2880.00,0.1184
2879.00,0.1205
2878.00,0.1218
2877.00,0.1223
2876.00,0.1219
2875.00,0.1211
2874.00,0.1205
2873.00,0.1204
2872.00,0.1212
2871.00,0.1227
2870.00,0.1247
2869.00,0.1267
2868.00,0.1279
2867.00,0.1276
2866.00,0.1251
2865.00,0.1202
2864.00,0.1133
2863.00,0.1052
2862.00,0.0972
2861.00,0.0901
2860.00,0.0846
2859.00,0.0807
2858.00,0.0783
2857.00,0.0773
2856.00,0.0774
2855.00,0.0783
2854.00,0.0797
2853.00,0.0816
2852.00,0.0835
2851.00,0.0853
2850.00,0.0868
2849.00,0.0879
2848.00,0.0890
2847.00,0.0905
2846.00,0.0927
2845.00,0.0961
2844.00,0.1004
2843.00,0.1055
2842.00,0.1108
2841.00,0.1158
2840.00,0.1196
2839.00,0.1216
2838.00,0.1210
2837.00,0.1174
2836.00,0.1108
2835.00,0.1019
2834.00,0.0916
2833.00,0.0809
2832.00,0.0708
2831.00,0.0618
2830.00,0.0542
2829.00,0.0480
2828.00,0.0429
2827.00,0.0388
2826.00,0.0356
2825.00,0.0328
2824.00,0.0306
2823.00,0.0287
2822.00,0.0270
2821.00,0.0256
2820.00,0.0244
2819.00,0.0233
2818.00,0.0224
2817.00,0.0215
2816.00,0.0207
2815.00,0.0200
2814.00,0.0194
2813.00,0.0188
2812.00,0.0183
2811.00,0.0177
2810.00,0.0172
2809.00,0.0166
2808.00,0.0160
2807.00,0.0154
2806.00,0.0147
2805.00,0.0140
2804.00,0.0134
2803.00,0.0128
2802.00,0.0123
2801.00,0.0119
2800.00,0.0115
2799.00,0.0111
2798.00,0.0108
2797.00,0.0105
2796.00,0.0103
2795.00,0.0100
2794.00,0.0098
2793.00,0.0096
2792.00,0.0093
2791.00,0.0091
2790.00,0.0088
2789.00,0.0085
2788.00,0.0082
2787.00,0.0079
2786.00,0.0077
2785.00,0.0074
2784.00,0.0072
2783.00,0.0070
2782.00,0.0068
2781.00,0.0066
2780.00,0.0065
2779.00,0.0063
2778.00,0.0062
2777.00,0.0060
2776.00,0.0059
2775.00,0.0058
2774.00,0.0057
2773.00,0.0056
2772.00,0.0056
2771.00,0.0055
2770.00,0.0055
2769.00,0.0055
2768.00,0.0054
2767.00,0.0054
2766.00,0.0054
2765.00,0.0053
2764.00,0.0053
2763.00,0.0052
2762.00,0.0052
2761.00,0.0052
2760.00,0.0052
2759.00,0.0052
2758.00,0.0052
2757.00,0.0052
2756.00,0.0051
2755.00,0.0051
2754.00,0.0051
2753.00,0.0051
2752.00,0.0051
2751.00,0.0050
2750.00,0.0050
2749.00,0.0050
2748.00,0.0050
2747.00,0.0051
2746.00,0.0051
2745.00,0.0051
2744.00,0.0052
2743.00,0.0053
2742.00,0.0054
2741.00,0.0055
2740.00,0.0056
2739.00,0.0058
2738.00,0.0059
2737.00,0.0061
2736.00,0.0062
2735.00,0.0063
2734.00,0.0065
2733.00,0.0066
2732.00,0.0068
2731.00,0.0069
2730.00,0.0071
2729.00,0.0074
2728.00,0.0077
2727.00,0.0080
2726.00,0.0083
2725.00,0.0085
2724.00,0.0086
2723.00,0.0087
2722.00,0.0086
2721.00,0.0084
2720.00,0.0082
2719.00,0.0079
2718.00,0.0075
2717.00,0.0072
2716.00,0.0069
2715.00,0.0067
2714.00,0.0064
2713.00,0.0062
2712.00,0.0060
2711.00,0.0058
2710.00,0.0056
2709.00,0.0054
2708.00,0.0053
2707.00,0.0051
2706.00,0.0050
2705.00,0.0049
2704.00,0.0048
2703.00,0.0047
2702.00,0.0046
2701.00,0.0045
2700.00,0.0045
2699.00,0.0045
2698.00,0.0044
2697.00,0.0044
2696.00,0.0044
2695.00,0.0043
2694.00,0.0043
2693.00,0.0043
2692.00,0.0043
2691.00,0.0043
2690.00,0.0043
2689.00,0.0044
2688.00,0.0044
2687.00,0.0043
2686.00,0.0043
2685.00,0.0043
2684.00,0.0043
2683.00,0.0043
2682.00,0.0044
2681.00,0.0044
2680.00,0.0044
2679.00,0.0045
2678.00,0.0045
2677.00,0.0045
2676.00,0.0045
2675.00,0.0044
2674.00,0.0044
2673.00,0.0044
2672.00,0.0043
2671.00,0.0043
2670.00,0.0043
2669.00,0.0043
2668.00,0.0043
2667.00,0.0044
2666.00,0.0044
2665.00,0.0045
2664.00,0.0045
2663.00,0.0046
2662.00,0.0046
2661.00,0.0047
2660.00,0.0047
2659.00,0.0047
2658.00,0.0047
2657.00,0.0047
2656.00,0.0047
2655.00,0.0046
2654.00,0.0045
2653.00,0.0044
2652.00,0.0044
2651.00,0.0043
2650.00,0.0043
2649.00,0.0042
2648.00,0.0042
2647.00,0.0042
2646.00,0.0041
2645.00,0.0041
2644.00,0.0040
2643.00,0.0040
2642.00,0.0039
2641.00,0.0039
2640.00,0.0039
2639.00,0.0038
2638.00,0.0038
2637.00,0.0037
2636.00,0.0037
2635.00,0.0038
2634.00,0.0038
2633.00,0.0038
2632.00,0.0038
2631.00,0.0038
2630.00,0.0038
2629.00,0.0039
2628.00,0.0039
2627.00,0.0039
2626.00,0.0038
2625.00,0.0038
2624.00,0.0039
2623.00,0.0040
2622.00,0.0040
2621.00,0.0041
2620.00,0.0041
2619.00,0.0040
2618.00,0.0040
2617.00,0.0039
2616.00,0.0039
2615.00,0.0039
2614.00,0.0039
2613.00,0.0039
2612.00,0.0038
2611.00,0.0038
2610.00,0.0037
2609.00,0.0036
2608.00,0.0035
2607.00,0.0035
2606.00,0.0034
2605.00,0.0033
2604.00,0.0033
2603.00,0.0032
2602.00,0.0032
2601.00,0.0032
2600.00,0.0032
2599.00,0.0032
2598.00,0.0032
2597.00,0.0032
2596.00,0.0033
2595.00,0.0033
2594.00,0.0032
2593.00,0.0032
2592.00,0.0032
2591.00,0.0033
2590.00,0.0034
2589.00,0.0035
2588.00,0.0035
2587.00,0.0036
2586.00,0.0037
2585.00,0.0037
2584.00,0.0038
2583.00,0.0039
2582.00,0.0039
2581.00,0.0038
2580.00,0.0037
2579.00,0.0036
2578.00,0.0035
2577.00,0.0035
2576.00,0.0034
2575.00,0.0033
2574.00,0.0032
2573.00,0.0030
2572.00,0.0029
2571.00,0.0028
2570.00,0.0027
2569.00,0.0026
2568.00,0.0026
2567.00,0.0025
2566.00,0.0025
2565.00,0.0024
2564.00,0.0024
2563.00,0.0023
2562.00,0.0023
2561.00,0.0023
2560.00,0.0023
2559.00,0.0023
2558.00,0.0023
2557.00,0.0023
2556.00,0.0023
2555.00,0.0023
2554.00,0.0023
2553.00,0.0023
2552.00,0.0022
2551.00,0.0022
2550.00,0.0021
2549.00,0.0020
2548.00,0.0019
2547.00,0.0018
2546.00,0.0018
2545.00,0.0018
2544.00,0.0018
2543.00,0.0018
2542.00,0.0017
2541.00,0.0017
2540.00,0.0016
2539.00,0.0016
2538.00,0.0016
2537.00,0.0016
2536.00,0.0016
2535.00,0.0017
2534.00,0.0016
2533.00,0.0016
2532.00,0.0015
2531.00,0.0015
2530.00,0.0015
2529.00,0.0015
2528.00,0.0015
2527.00,0.0015
2526.00,0.0014
2525.00,0.0014
2524.00,0.0014
2523.00,0.0014
2522.00,0.0014
2521.00,0.0013
2520.00,0.0013
2519.00,0.0012
2518.00,0.0011
2517.00,0.0010
2516.00,0.0010
2515.00,0.0010
2514.00,0.0010
2513.00,0.0010
2512.00,0.0011
2511.00,0.0011
2510.00,0.0011
2509.00,0.0012
2508.00,0.0012
2507.00,0.0012
2506.00,0.0011
2505.00,0.0011
2504.00,0.0011
2503.00,0.0010
2502.00,0.0011
2501.00,0.0011
2500.00,0.0011
2499.00,0.0011
2498.00,0.0011
2497.00,0.0011
2496.00,0.0011
2495.00,0.0012
2494.00,0.0012
2493.00,0.0012
2492.00,0.0012
2491.00,0.0011
2490.00,0.0010
2489.00,0.0010
2488.00,0.0010
2487.00,0.0010
2486.00,0.0010
2485.00,0.0011
2484.00,0.0012
2483.00,0.0012
2482.00,0.0011
2481.00,0.0011
2480.00,0.0010
2479.00,0.0010
2478.00,0.0010
2477.00,0.0009
2476.00,0.0009
2475.00,0.0009
2474.00,0.0009
2473.00,0.0009
2472.00,0.0009
2471.00,0.0008
2470.00,0.0008
2469.00,0.0008
2468.00,0.0008
2467.00,0.0008
2466.00,0.0008
2465.00,0.0009
2464.00,0.0010
2463.00,0.0010
2462.00,0.0011
2461.00,0.0010
2460.00,0.0010
2459.00,0.0009
2458.00,0.0010
2457.00,0.0010
2456.00,0.0011
2455.00,0.0011
2454.00,0.0011
2453.00,0.0011
2452.00,0.0011
2451.00,0.0010
2450.00,0.0010
2449.00,0.0009
2448.00,0.0009
2447.00,0.0009
2446.00,0.0009
2445.00,0.0009
2444.00,0.0009
2443.00,0.0010
2442.00,0.0010
2441.00,0.0010
2440.00,0.0010
2439.00,0.0010
2438.00,0.0010
2437.00,0.0011
2436.00,0.0011
2435.00,0.0011
2434.00,0.0011
2433.00,0.0010
2432.00,0.0010
2431.00,0.0011
2430.00,0.0011
2429.00,0.0012
2428.00,0.0012
2427.00,0.0012
2426.00,0.0012
2425.00,0.0011
2424.00,0.0011
2423.00,0.0011
2422.00,0.0011
2421.00,0.0010
2420.00,0.0010
2419.00,0.0009
2418.00,0.0008
2417.00,0.0008
2416.00,0.0008
2415.00,0.0008
2414.00,0.0008
2413.00,0.0008
2412.00,0.0008
2411.00,0.0008
2410.00,0.0008
2409.00,0.0009
2408.00,0.0009
2407.00,0.0009
2406.00,0.0008
2405.00,0.0008
2404.00,0.0008
2403.00,0.0008
2402.00,0.0008
2401.00,0.0008
2400.00,0.0007
2399.00,0.0007
2398.00,0.0007
2397.00,0.0008
2396.00,0.0008
2395.00,0.0008
2394.00,0.0008
2393.00,0.0008
2392.00,0.0008
2391.00,0.0008
2390.00,0.0008
2389.00,0.0007
2388.00,0.0007
2387.00,0.0007
2386.00,0.0006
2385.00,0.0006
2384.00,0.0006
2383.00,0.0006
2382.00,0.0005
2381.00,0.0005
2380.00,0.0005
2379.00,0.0005
2378.00,0.0005
2377.00,0.0005
2376.00,0.0005
2375.00,0.0005
2374.00,0.0005
2373.00,0.0005
2372.00,0.0005
2371.00,0.0006
2370.00,0.0006
2369.00,0.0006
2368.00,0.0006
2367.00,0.0006
2366.00,0.0006
2365.00,0.0006
2364.00,0.0006
2363.00,0.0006
2362.00,0.0006
2361.00,0.0006
2360.00,0.0006
2359.00,0.0006
2358.00,0.0006
2357.00,0.0006
2356.00,0.0006
2355.00,0.0006
2354.00,0.0007
2353.00,0.0007
2352.00,0.0007
2351.00,0.0007
2350.00,0.0007
2349.00,0.0007
2348.00,0.0007
2347.00,0.0007
2346.00,0.0008
2345.00,0.0008
2344.00,0.0008
2343.00,0.0009
2342.00,0.0009
2341.00,0.0009
2340.00,0.0008
2339.00,0.0008
2338.00,0.0008
2337.00,0.0008
2336.00,0.0008
2335.00,0.0008
2334.00,0.0007
2333.00,0.0007
2332.00,0.0007
2331.00,0.0007
2330.00,0.0007
2329.00,0.0008
2328.00,0.0010
2327.00,0.0012
2326.00,0.0016
2325.00,0.0018
2324.00,0.0020
2323.00,0.0020
2322.00,0.0019
2321.00,0.0017
2320.00,0.0016
2319.00,0.0015
2318.00,0.0014
2317.00,0.0014
2316.00,0.0013
2315.00,0.0012
2314.00,0.0012
2313.00,0.0011
2312.00,0.0010
2311.00,0.0010
2310.00,0.0009
2309.00,0.0010
2308.00,0.0010
2307.00,0.0011
2306.00,0.0011
2305.00,0.0011
2304.00,0.0011
2303.00,0.0011
2302.00,0.0011
2301.00,0.0011
2300.00,0.0012
2299.00,0.0013
2298.00,0.0013
2297.00,0.0014
2296.00,0.0014
2295.00,0.0014
2294.00,0.0013
2293.00,0.0013
2292.00,0.0014
2291.00,0.0015
2290.00,0.0016
2289.00,0.0017
2288.00,0.0018
2287.00,0.0019
2286.00,0.0019
2285.00,0.0019
2284.00,0.0019
2283.00,0.0018
2282.00,0.0017
2281.00,0.0016
2280.00,0.0015
2279.00,0.0013
2278.00,0.0013
2277.00,0.0013
2276.00,0.0013
2275.00,0.0014
2274.00,0.0015
2273.00,0.0015
2272.00,0.0015
2271.00,0.0014
2270.00,0.0013
2269.00,0.0012
2268.00,0.0011
2267.00,0.0010
2266.00,0.0009
2265.00,0.0009
2264.00,0.0009
2263.00,0.0009
2262.00,0.0009
2261.00,0.0010
2260.00,0.0011
2259.00,0.0012
2258.00,0.0012
2257.00,0.0013
2256.00,0.0012
2255.00,0.0010
2254.00,0.0007
2253.00,0.0005
2252.00,0.0004
2251.00,0.0004
2250.00,0.0005
2249.00,0.0006
2248.00,0.0007
2247.00,0.0007
2246.00,0.0007
2245.00,0.0007
2244.00,0.0007
2243.00,0.0008
2242.00,0.0010
2241.00,0.0010
2240.00,0.0011
2239.00,0.0010
2238.00,0.0011
2237.00,0.0011
2236.00,0.0012
2235.00,0.0012
2234.00,0.0012
2233.00,0.0011
2232.00,0.0010
2231.00,0.0009
2230.00,0.0008
2229.00,0.0007
2228.00,0.0007
2227.00,0.0006
2226.00,0.0006
2225.00,0.0006
2224.00,0.0006
2223.00,0.0006
2222.00,0.0006
2221.00,0.0006
2220.00,0.0005
2219.00,0.0004
2218.00,0.0003
2217.00,0.0005
2216.00,0.0007
2215.00,0.0009
2214.00,0.0009
2213.00,0.0008
2212.00,0.0007
2211.00,0.0005
2210.00,0.0004
2209.00,0.0004
2208.00,0.0005
2207.00,0.0005
2206.00,0.0006
2205.00,0.0006
2204.00,0.0006
2203.00,0.0004
2202.00,0.0003
2201.00,0.0002
2200.00,0.0002
2199.00,0.0002
2198.00,0.0002
2197.00,0.0002
2196.00,0.0003
2195.00,0.0005
2194.00,0.0008
2193.00,0.0009
2192.00,0.0010
2191.00,0.0009
2190.00,0.0008
2189.00,0.0010
2188.00,0.0012
2187.00,0.0013
2186.00,0.0013
2185.00,0.0011
2184.00,0.0010
2183.00,0.0007
2182.00,0.0004
2181.00,0.0000
2180.00,-0.0001
2179.00,-0.0001
2178.00,0.0000
2177.00,0.0000
2176.00,-0.0001
2175.00,-0.0003
2174.00,-0.0005
2173.00,-0.0005
2172.00,-0.0004
2171.00,0.0000
2170.00,0.0005
2169.00,0.0010
2168.00,0.0014
2167.00,0.0016
2166.00,0.0017
2165.00,0.0019
2164.00,0.0020
2163.00,0.0020
2162.00,0.0018
2161.00,0.0010
2160.00,-0.0004
2159.00,-0.0020
2158.00,-0.0032
2157.00,-0.0035
2156.00,-0.0031
2155.00,-0.0024
2154.00,-0.0017
2153.00,-0.0014
2152.00,-0.0012
2151.00,-0.0011
2150.00,-0.0010
2149.00,-0.0008
2148.00,-0.0008
2147.00,-0.0008
2146.00,-0.0010
2145.00,-0.0011
2144.00,-0.0013
2143.00,-0.0014
2142.00,-0.0015
2141.00,-0.0016
2140.00,-0.0017
2139.00,-0.0017
2138.00,-0.0017
2137.00,-0.0016
2136.00,-0.0017
2135.00,-0.0018
2134.00,-0.0018
2133.00,-0.0017
2132.00,-0.0014
2131.00,-0.0011
2130.00,-0.0010
2129.00,-0.0010
2128.00,-0.0010
2127.00,-0.0009
2126.00,-0.0007
2125.00,-0.0006
2124.00,-0.0005
2123.00,-0.0005
2122.00,-0.0006
2121.00,-0.0007
2120.00,-0.0007
2119.00,-0.0006
2118.00,-0.0005
2117.00,-0.0002
2116.00,-0.0000
2115.00,0.0001
2114.00,0.0000
2113.00,0.0000
2112.00,0.0000
2111.00,0.0001
2110.00,0.0001
2109.00,0.0002
2108.00,0.0002
2107.00,0.0003
2106.00,0.0003
2105.00,0.0003
2104.00,0.0003
2103.00,0.0003
2102.00,0.0003
2101.00,0.0002
2100.00,0.0000
2099.00,-0.0002
2098.00,-0.0004
2097.00,-0.0006
2096.00,-0.0007
2095.00,-0.0008
2094.00,-0.0008
2093.00,-0.0007
2092.00,-0.0006
2091.00,-0.0004
2090.00,-0.0003
2089.00,-0.0002
2088.00,-0.0001
2087.00,-0.0001
2086.00,-0.0001
2085.00,-0.0002
2084.00,-0.0002
2083.00,-0.0001
2082.00,0.0000
2081.00,0.0002
2080.00,0.0004
2079.00,0.0004
2078.00,0.0004
2077.00,0.0004
2076.00,0.0003
2075.00,0.0002
2074.00,0.0001
2073.00,-0.0001
2072.00,-0.0003
2071.00,-0.0004
2070.00,-0.0004
2069.00,-0.0003
2068.00,-0.0002
2067.00,-0.0002
2066.00,-0.0003
2065.00,-0.0005
2064.00,-0.0005
2063.00,-0.0005
2062.00,-0.0005
2061.00,-0.0004
2060.00,-0.0003
2059.00,-0.0002
2058.00,-0.0001
2057.00,0.0002
2056.00,0.0003
2055.00,0.0003
2054.00,0.0004
2053.00,0.0008
2052.00,0.0012
2051.00,0.0015
2050.00,0.0014
2049.00,0.0009
2048.00,0.0002
2047.00,-0.0003
2046.00,-0.0005
2045.00,-0.0004
2044.00,-0.0001
2043.00,0.0001
2042.00,0.0002
2041.00,0.0003
2040.00,0.0005
2039.00,0.0007
2038.00,0.0007
2037.00,0.0007
2036.00,0.0004
2035.00,0.0001
2034.00,-0.0002
2033.00,-0.0005
2032.00,-0.0006
2031.00,-0.0006
2030.00,-0.0008
2029.00,-0.0008
2028.00,-0.0009
2027.00,-0.0008
2026.00,-0.0006
2025.00,-0.0004
2024.00,-0.0003
2023.00,-0.0002
2022.00,-0.0003
2021.00,-0.0003
2020.00,-0.0004
2019.00,-0.0005
2018.00,-0.0006
2017.00,-0.0006
2016.00,-0.0007
2015.00,-0.0009
2014.00,-0.0011
2013.00,-0.0011
2012.00,-0.0011
2011.00,-0.0010
2010.00,-0.0010
2009.00,-0.0011
2008.00,-0.0014
2007.00,-0.0016
2006.00,-0.0016
2005.00,-0.0014
2004.00,-0.0012
2003.00,-0.0010
2002.00,-0.0009
2001.00,-0.0009
2000.00,-0.0008
1999.00,-0.0008
1998.00,-0.0008
1997.00,-0.0010
1996.00,-0.0012
1995.00,-0.0014
1994.00,-0.0014
1993.00,-0.0012
1992.00,-0.0010
1991.00,-0.0008
1990.00,-0.0008
1989.00,-0.0006
1988.00,-0.0004
1987.00,-0.0002
1986.00,-0.0000
1985.00,0.0000
1984.00,0.0001
1983.00,0.0002
1982.00,0.0004
1981.00,0.0005
1980.00,0.0003
1979.00,-0.0002
1978.00,-0.0009
1977.00,-0.0014
1976.00,-0.0017
1975.00,-0.0017
1974.00,-0.0016
1973.00,-0.0015
1972.00,-0.0014
1971.00,-0.0014
1970.00,-0.0013
1969.00,-0.0013
1968.00,-0.0013
1967.00,-0.0014
1966.00,-0.0015
1965.00,-0.0016
1964.00,-0.0015
1963.00,-0.0014
1962.00,-0.0013
1961.00,-0.0013
1960.00,-0.0014
1959.00,-0.0016
1958.00,-0.0017
1957.00,-0.0016
1956.00,-0.0015
1955.00,-0.0013
1954.00,-0.0012
1953.00,-0.0012
1952.00,-0.0012
1951.00,-0.0013
1950.00,-0.0014
1949.00,-0.0013
1948.00,-0.0012
1947.00,-0.0010
1946.00,-0.0009
1945.00,-0.0010
1944.00,-0.0011
1943.00,-0.0013
1942.00,-0.0015
1941.00,-0.0016
1940.00,-0.0016
1939.00,-0.0016
1938.00,-0.0015
1937.00,-0.0015
1936.00,-0.0014
1935.00,-0.0013
1934.00,-0.0012
1933.00,-0.0010
1932.00,-0.0008
1931.00,-0.0006
1930.00,-0.0005
1929.00,-0.0004
1928.00,-0.0004
1927.00,-0.0005
1926.00,-0.0006
1925.00,-0.0007
1924.00,-0.0007
1923.00,-0.0006
1922.00,-0.0005
1921.00,-0.0004
1920.00,-0.0003
1919.00,-0.0002
1918.00,-0.0002
1917.00,-0.0004
1916.00,-0.0005
1915.00,-0.0006
1914.00,-0.0006
1913.00,-0.0005
1912.00,-0.0003
1911.00,-0.0002
1910.00,-0.0001
1909.00,-0.0002
1908.00,-0.0002
1907.00,-0.0002
1906.00,-0.0001
1905.00,-0.0001
1904.00,-0.0002
1903.00,-0.0002
1902.00,-0.0003
1901.00,-0.0002
1900.00,-0.0002
1899.00,-0.0001
1898.00,-0.0001
1897.00,-0.0000
1896.00,0.0000
1895.00,0.0000
1894.00,-0.0000
1893.00,-0.0001
1892.00,-0.0001
1891.00,-0.0001
1890.00,-0.0001
1889.00,-0.0001
1888.00,-0.0001
1887.00,-0.0002
1886.00,-0.0002
1885.00,-0.0001
1884.00,-0.0001
1883.00,-0.0000
1882.00,-0.0000
1881.00,-0.0000
1880.00,-0.0000
1879.00,-0.0001
1878.00,-0.0001
1877.00,-0.0001
1876.00,-0.0001
1875.00,-0.0001
1874.00,-0.0001
1873.00,-0.0001
1872.00,-0.0000
1871.00,-0.0001
1870.00,-0.0002
1869.00,-0.0002
1868.00,-0.0002
1867.00,-0.0002
1866.00,-0.0002
1865.00,-0.0001
1864.00,-0.0001
1863.00,-0.0001
1862.00,-0.0001
1861.00,0.0000
1860.00,0.0001
1859.00,0.0001
1858.00,0.0000
1857.00,-0.0000
1856.00,-0.0000
1855.00,-0.0000
1854.00,-0.0000
1853.00,-0.0001
1852.00,-0.0000
1851.00,-0.0000
1850.00,-0.0000
1849.00,0.0000
1848.00,0.0000
1847.00,0.0000
1846.00,0.0000
1845.00,0.0001
1844.00,0.0001
1843.00,0.0002
1842.00,0.0002
1841.00,0.0002
1840.00,0.0002
1839.00,0.0001
1838.00,0.0001
1837.00,0.0001
1836.00,0.0002
1835.00,0.0003
1834.00,0.0003
1833.00,0.0003
1832.00,0.0003
1831.00,0.0003
1830.00,0.0003
1829.00,0.0003
1828.00,0.0003
1827.00,0.0002
1826.00,0.0002
1825.00,0.0001
1824.00,0.0002
1823.00,0.0002
1822.00,0.0002
1821.00,0.0002
1820.00,0.0002
1819.00,0.0001
1818.00,0.0000
1817.00,-0.0001
1816.00,-0.0001
1815.00,-0.0000
1814.00,0.0000
1813.00,0.0001
1812.00,0.0002
1811.00,0.0002
1810.00,0.0002
1809.00,0.0002
1808.00,0.0002
1807.00,0.0002
1806.00,0.0002
1805.00,0.0003
1804.00,0.0003
1803.00,0.0004
1802.00,0.0004
1801.00,0.0004
1800.00,0.0005
1799.00,0.0005
1798.00,0.0006
1797.00,0.0006
1796.00,0.0006
1795.00,0.0006
1794.00,0.0005
1793.00,0.0005
1792.00,0.0005
1791.00,0.0005
1790.00,0.0005
1789.00,0.0006
1788.00,0.0006
1787.00,0.0007
1786.00,0.0007
1785.00,0.0007
1784.00,0.0007
1783.00,0.0007
1782.00,0.0007
1781.00,0.0007
1780.00,0.0007
1779.00,0.0007
1778.00,0.0007
1777.00,0.0007
1776.00,0.0007
1775.00,0.0007
1774.00,0.0008
1773.00,0.0008
1772.00,0.0009
1771.00,0.0009
1770.00,0.0008
1769.00,0.0008
1768.00,0.0008
1767.00,0.0008
1766.00,0.0009
1765.00,0.0009
1764.00,0.0010
1763.00,0.0010
1762.00,0.0010
1761.00,0.0011
1760.00,0.0012
1759.00,0.0012
1758.00,0.0012
1757.00,0.0013
1756.00,0.0014
1755.00,0.0014
1754.00,0.0015
1753.00,0.0016
1752.00,0.0017
1751.00,0.0018
1750.00,0.0019
1749.00,0.0020
1748.00,0.0020
1747.00,0.0021
1746.00,0.0021
1745.00,0.0022
1744.00,0.0024
1743.00,0.0024
1742.00,0.0025
1741.00,0.0025
1740.00,0.0025
1739.00,0.0025
1738.00,0.0025
1737.00,0.0025
1736.00,0.0025
1735.00,0.0025
1734.00,0.0024
1733.00,0.0024
1732.00,0.0024
1731.00,0.0024
1730.00,0.0024
1729.00,0.0024
1728.00,0.0024
1727.00,0.0025
1726.00,0.0025
1725.00,0.0025
1724.00,0.0025
1723.00,0.0026
1722.00,0.0025
1721.00,0.0025
1720.00,0.0025
1719.00,0.0025
1718.00,0.0025
1717.00,0.0025
1716.00,0.0024
1715.00,0.0024
1714.00,0.0023
1713.00,0.0023
1712.00,0.0023
1711.00,0.0023
1710.00,0.0023
1709.00,0.0023
1708.00,0.0023
1707.00,0.0023
1706.00,0.0023
1705.00,0.0023
1704.00,0.0024
1703.00,0.0024
1702.00,0.0025
1701.00,0.0026
1700.00,0.0026
1699.00,0.0027
1698.00,0.0027
1697.00,0.0027
1696.00,0.0028
1695.00,0.0029
1694.00,0.0029
1693.00,0.0029
1692.00,0.0030
1691.00,0.0030
1690.00,0.0031
1689.00,0.0031
1688.00,0.0032
1687.00,0.0032
1686.00,0.0032
1685.00,0.0032
1684.00,0.0032
1683.00,0.0033
1682.00,0.0033
1681.00,0.0034
1680.00,0.0035
1679.00,0.0036
1678.00,0.0037
1677.00,0.0038
1676.00,0.0038
1675.00,0.0039
1674.00,0.0039
1673.00,0.0039
1672.00,0.0040
1671.00,0.0041
1670.00,0.0041
1669.00,0.0041
1668.00,0.0042
1667.00,0.0042
1666.00,0.0042
1665.00,0.0042
1664.00,0.0043
1663.00,0.0043
1662.00,0.0044
1661.00,0.0044
1660.00,0.0044
1659.00,0.0045
1658.00,0.0045
1657.00,0.0045
1656.00,0.0046
1655.00,0.0046
1654.00,0.0046
1653.00,0.0047
1652.00,0.0048
1651.00,0.0048
1650.00,0.0048
1649.00,0.0048
1648.00,0.0049
1647.00,0.0049
1646.00,0.0050
1645.00,0.0050
1644.00,0.0050
1643.00,0.0050
1642.00,0.0051
1641.00,0.0052
1640.00,0.0052
1639.00,0.0053
1638.00,0.0053
1637.00,0.0053
1636.00,0.0054
1635.00,0.0054
1634.00,0.0053
1633.00,0.0052
1632.00,0.0051
1631.00,0.0051
1630.00,0.0050
1629.00,0.0049
1628.00,0.0049
1627.00,0.0048
1626.00,0.0047
1625.00,0.0046
1624.00,0.0046
1623.00,0.0046
1622.00,0.0046
1621.00,0.0046
1620.00,0.0046
1619.00,0.0046
1618.00,0.0045
1617.00,0.0045
1616.00,0.0045
1615.00,0.0046
1614.00,0.0046
1613.00,0.0046
1612.00,0.0045
1611.00,0.0045
1610.00,0.0045
1609.00,0.0045
1608.00,0.0045
1607.00,0.0045
1606.00,0.0045
1605.00,0.0045
1604.00,0.0045
1603.00,0.0045
1602.00,0.0045
1601.00,0.0046
1600.00,0.0045
1599.00,0.0045
1598.00,0.0044
1597.00,0.0044
1596.00,0.0044
1595.00,0.0044
1594.00,0.0044
1593.00,0.0044
1592.00,0.0044
1591.00,0.0044
1590.00,0.0043
1589.00,0.0043
1588.00,0.0043
1587.00,0.0044
1586.00,0.0044
1585.00,0.0044
1584.00,0.0045
1583.00,0.0045
1582.00,0.0046
1581.00,0.0046
1580.00,0.0047
1579.00,0.0047
1578.00,0.0047
1577.00,0.0047
1576.00,0.0048
1575.00,0.0048
1574.00,0.0048
1573.00,0.0049
1572.00,0.0049
1571.00,0.0049
1570.00,0.0050
1569.00,0.0050
1568.00,0.0050
1567.00,0.0050
1566.00,0.0050
1565.00,0.0051
1564.00,0.0051
1563.00,0.0051
1562.00,0.0051
1561.00,0.0050
1560.00,0.0050
1559.00,0.0051
1558.00,0.0051
1557.00,0.0052
1556.00,0.0052
1555.00,0.0052
1554.00,0.0053
1553.00,0.0053
1552.00,0.0054
1551.00,0.0054
1550.00,0.0054
1549.00,0.0055
1548.00,0.0055
1547.00,0.0056
1546.00,0.0056
1545.00,0.0057
1544.00,0.0057
1543.00,0.0057
1542.00,0.0057
1541.00,0.0056
1540.00,0.0056
1539.00,0.0055
1538.00,0.0054
1537.00,0.0054
1536.00,0.0053
1535.00,0.0053
1534.00,0.0051
1533.00,0.0050
1532.00,0.0049
1531.00,0.0049
1530.00,0.0048
1529.00,0.0048
1528.00,0.0049
1527.00,0.0048
1526.00,0.0048
1525.00,0.0048
1524.00,0.0048
1523.00,0.0048
1522.00,0.0048
1521.00,0.0049
1520.00,0.0050
1519.00,0.0051
1518.00,0.0051
1517.00,0.0052
1516.00,0.0052
1515.00,0.0052
1514.00,0.0052
1513.00,0.0052
1512.00,0.0053
1511.00,0.0053
1510.00,0.0054
1509.00,0.0055
1508.00,0.0056
1507.00,0.0056
1506.00,0.0056
1505.00,0.0057
1504.00,0.0059
1503.00,0.0060
1502.00,0.0062
1501.00,0.0064
1500.00,0.0066
1499.00,0.0068
1498.00,0.0071
1497.00,0.0073
1496.00,0.0076
1495.00,0.0078
1494.00,0.0080
1493.00,0.0083
1492.00,0.0086
1491.00,0.0089
1490.00,0.0092
1489.00,0.0096
1488.00,0.0101
1487.00,0.0105
1486.00,0.0109
1485.00,0.0115
1484.00,0.0121
1483.00,0.0128
1482.00,0.0136
1481.00,0.0147
1480.00,0.0159
1479.00,0.0171
1478.00,0.0187
1477.00,0.0207
1476.00,0.0233
1475.00,0.0263
1474.00,0.0303
1473.00,0.0360
1472.00,0.0427
1471.00,0.0493
1470.00,0.0557
1469.00,0.0624
1468.00,0.0698
1467.00,0.0778
1466.00,0.0869
1465.00,0.0966
1464.00,0.1051
1463.00,0.1111
1462.00,0.1148
1461.00,0.1171
1460.00,0.1186
1459.00,0.1193
1458.00,0.1197
1457.00,0.1197
1456.00,0.1191
1455.00,0.1178
1454.00,0.1161
1453.00,0.1139
1452.00,0.1108
1451.00,0.1065
1450.00,0.1010
1449.00,0.0938
1448.00,0.0849
1447.00,0.0757
1446.00,0.0675
1445.00,0.0604
1444.00,0.0545
1443.00,0.0496
1442.00,0.0459
1441.00,0.0434
1440.00,0.0419
1439.00,0.0414
1438.00,0.0417
1437.00,0.0420
1436.00,0.0412
1435.00,0.0390
1434.00,0.0355
1433.00,0.0312
1432.00,0.0267
1431.00,0.0227
1430.00,0.0196
1429.00,0.0173
1428.00,0.0157
1427.00,0.0147
1426.00,0.0140
1425.00,0.0134
1424.00,0.0128
1423.00,0.0125
1422.00,0.0123
1421.00,0.0120
1420.00,0.0117
1419.00,0.0115
1418.00,0.0113
1417.00,0.0111
1416.00,0.0108
1415.00,0.0107
1414.00,0.0106
1413.00,0.0105
1412.00,0.0103
1411.00,0.0103
1410.00,0.0103
1409.00,0.0102
1408.00,0.0101
1407.00,0.0101
1406.00,0.0102
1405.00,0.0102
1404.00,0.0102
1403.00,0.0103
1402.00,0.0104
1401.00,0.0105
1400.00,0.0105
1399.00,0.0106
1398.00,0.0108
1397.00,0.0110
1396.00,0.0113
1395.00,0.0117
1394.00,0.0122
1393.00,0.0127
1392.00,0.0132
1391.00,0.0140
1390.00,0.0150
1389.00,0.0163
1388.00,0.0184
1387.00,0.0215
1386.00,0.0257
1385.00,0.0313
1384.00,0.0391
1383.00,0.0501
1382.00,0.0652
1381.00,0.0848
1380.00,0.1095
1379.00,0.1379
1378.00,0.1657
1377.00,0.1865
1376.00,0.1939
1375.00,0.1844
1374.00,0.1609
1373.00,0.1324
1372.00,0.1061
1371.00,0.0845
1370.00,0.0674
1369.00,0.0546
1368.00,0.0458
1367.00,0.0404
1366.00,0.0374
1365.00,0.0363
1364.00,0.0365
1363.00,0.0379
1362.00,0.0400
1361.00,0.0424
1360.00,0.0441
1359.00,0.0446
1358.00,0.0436
1357.00,0.0410
1356.00,0.0374
1355.00,0.0334
1354.00,0.0295
1353.00,0.0261
1352.00,0.0234
1351.00,0.0212
1350.00,0.0193
1349.00,0.0178
1348.00,0.0166
1347.00,0.0155
1346.00,0.0146
1345.00,0.0138
1344.00,0.0131
1343.00,0.0126
1342.00,0.0122
1341.00,0.0118
1340.00,0.0116
1339.00,0.0114
1338.00,0.0113
1337.00,0.0113
1336.00,0.0114
1335.00,0.0116
1334.00,0.0119
1333.00,0.0123
1332.00,0.0128
1331.00,0.0131
1330.00,0.0132
1329.00,0.0131
1328.00,0.0127
1327.00,0.0122
1326.00,0.0117
1325.00,0.0112
1324.00,0.0106
1323.00,0.0101
1322.00,0.0097
1321.00,0.0094
1320.00,0.0092
1319.00,0.0090
1318.00,0.0089
1317.00,0.0087
1316.00,0.0086
1315.00,0.0085
1314.00,0.0085
1313.00,0.0085
1312.00,0.0086
1311.00,0.0087
1310.00,0.0090
1309.00,0.0095
1308.00,0.0102
1307.00,0.0111
1306.00,0.0120
1305.00,0.0126
1304.00,0.0129
1303.00,0.0127
1302.00,0.0124
1301.00,0.0121
1300.00,0.0120
1299.00,0.0121
1298.00,0.0122
1297.00,0.0124
1296.00,0.0123
1295.00,0.0121
1294.00,0.0117
1293.00,0.0112
1292.00,0.0107
1291.00,0.0102
1290.00,0.0098
1289.00,0.0094
1288.00,0.0091
1287.00,0.0089
1286.00,0.0087
1285.00,0.0086
1284.00,0.0084
1283.00,0.0083
1282.00,0.0082
1281.00,0.0080
1280.00,0.0080
1279.00,0.0079
1278.00,0.0079
1277.00,0.0078
1276.00,0.0077
1275.00,0.0076
1274.00,0.0076
1273.00,0.0076
1272.00,0.0077
1271.00,0.0077
1270.00,0.0078
1269.00,0.0079
1268.00,0.0081
1267.00,0.0083
1266.00,0.0086
1265.00,0.0088
1264.00,0.0090
1263.00,0.0092
1262.00,0.0094
1261.00,0.0097
1260.00,0.0101
1259.00,0.0106
1258.00,0.0111
1257.00,0.0115
1256.00,0.0116
1255.00,0.0115
1254.00,0.0111
1253.00,0.0105
1252.00,0.0099
1251.00,0.0093
1250.00,0.0089
1249.00,0.0086
1248.00,0.0083
1247.00,0.0081
1246.00,0.0079
1245.00,0.0077
1244.00,0.0075
1243.00,0.0073
1242.00,0.0073
1241.00,0.0072
1240.00,0.0073
1239.00,0.0073
1238.00,0.0073
1237.00,0.0072
1236.00,0.0071
1235.00,0.0071
1234.00,0.0070
1233.00,0.0070
1232.00,0.0071
1231.00,0.0072
1230.00,0.0073
1229.00,0.0074
1228.00,0.0075
1227.00,0.0078
1226.00,0.0080
1225.00,0.0083
1224.00,0.0087
1223.00,0.0090
1222.00,0.0093
1221.00,0.0095
1220.00,0.0097
1219.00,0.0097
1218.00,0.0097
1217.00,0.0095
1216.00,0.0093
1215.00,0.0090
1214.00,0.0087
1213.00,0.0084
1212.00,0.0081
1211.00,0.0079
1210.00,0.0077
1209.00,0.0075
1208.00,0.0073
1207.00,0.0073
1206.00,0.0072
1205.00,0.0072
1204.00,0.0072
1203.00,0.0072
1202.00,0.0072
1201.00,0.0071
1200.00,0.0070
1199.00,0.0070
1198.00,0.0070
1197.00,0.0071
1196.00,0.0071
1195.00,0.0071
1194.00,0.0071
1193.00,0.0071
1192.00,0.0071
1191.00,0.0071
1190.00,0.0071
1189.00,0.0071
1188.00,0.0072
1187.00,0.0072
1186.00,0.0073
1185.00,0.0073
1184.00,0.0073
1183.00,0.0075
1182.00,0.0077
1181.00,0.0080
1180.00,0.0084
1179.00,0.0088
1178.00,0.0093
1177.00,0.0100
1176.00,0.0108
1175.00,0.0120
1174.00,0.0135
1173.00,0.0154
1172.00,0.0178
1171.00,0.0203
1170.00,0.0228
1169.00,0.0248
1168.00,0.0259
1167.00,0.0262
1166.00,0.0257
1165.00,0.0247
1164.00,0.0235
1163.00,0.0224
1162.00,0.0215
1161.00,0.0206
1160.00,0.0200
1159.00,0.0194
1158.00,0.0191
1157.00,0.0188
1156.00,0.0187
1155.00,0.0187
1154.00,0.0186
1153.00,0.0185
1152.00,0.0181
1151.00,0.0175
1150.00,0.0167
1149.00,0.0158
1148.00,0.0149
1147.00,0.0140
1146.00,0.0132
1145.00,0.0125
1144.00,0.0117
1143.00,0.0110
1142.00,0.0104
1141.00,0.0098
1140.00,0.0093
1139.00,0.0089
1138.00,0.0086
1137.00,0.0083
1136.00,0.0081
1135.00,0.0079
1134.00,0.0078
1133.00,0.0076
1132.00,0.0075
1131.00,0.0075
1130.00,0.0074
1129.00,0.0073
1128.00,0.0073
1127.00,0.0073
1126.00,0.0074
1125.00,0.0075
1124.00,0.0075
1123.00,0.0076
1122.00,0.0077
1121.00,0.0078
1120.00,0.0079
1119.00,0.0080
1118.00,0.0082
1117.00,0.0083
1116.00,0.0083
1115.00,0.0084
1114.00,0.0085
1113.00,0.0087
1112.00,0.0089
1111.00,0.0092
1110.00,0.0095
1109.00,0.0099
1108.00,0.0104
1107.00,0.0111
1106.00,0.0118
1105.00,0.0125
1104.00,0.0130
1103.00,0.0132
1102.00,0.0131
1101.00,0.0127
1100.00,0.0121
1099.00,0.0114
1098.00,0.0108
1097.00,0.0102
1096.00,0.0097
1095.00,0.0094
1094.00,0.0091
1093.00,0.0089
1092.00,0.0086
1091.00,0.0084
1090.00,0.0082
1089.00,0.0081
1088.00,0.0081
1087.00,0.0081
1086.00,0.0080
1085.00,0.0080
1084.00,0.0080
1083.00,0.0080
1082.00,0.0080
1081.00,0.0079
1080.00,0.0078
1079.00,0.0077
1078.00,0.0077
1077.00,0.0076
1076.00,0.0076
1075.00,0.0076
1074.00,0.0075
1073.00,0.0075
1072.00,0.0074
1071.00,0.0074
1070.00,0.0074
1069.00,0.0075
1068.00,0.0075
1067.00,0.0076
1066.00,0.0077
1065.00,0.0077
1064.00,0.0077
1063.00,0.0077
1062.00,0.0077
1061.00,0.0078
1060.00,0.0080
1059.00,0.0082
1058.00,0.0083
1057.00,0.0085
1056.00,0.0086
1055.00,0.0088
1054.00,0.0089
1053.00,0.0092
1052.00,0.0095
1051.00,0.0099
1050.00,0.0104
1049.00,0.0108
1048.00,0.0113
1047.00,0.0118
1046.00,0.0122
1045.00,0.0124
1044.00,0.0125
1043.00,0.0124
1042.00,0.0121
1041.00,0.0119
1040.00,0.0117
1039.00,0.0115
1038.00,0.0114
1037.00,0.0113
1036.00,0.0112
1035.00,0.0112
1034.00,0.0112
1033.00,0.0112
1032.00,0.0113
1031.00,0.0112
1030.00,0.0112
1029.00,0.0112
1028.00,0.0113
1027.00,0.0114
1026.00,0.0116
1025.00,0.0119
1024.00,0.0121
1023.00,0.0124
1022.00,0.0127
1021.00,0.0129
1020.00,0.0131
1019.00,0.0131
1018.00,0.0131
1017.00,0.0131
1016.00,0.0130
1015.00,0.0130
1014.00,0.0129
1013.00,0.0128
1012.00,0.0127
1011.00,0.0127
1010.00,0.0127
1009.00,0.0128
1008.00,0.0130
1007.00,0.0134
1006.00,0.0140
1005.00,0.0148
1004.00,0.0160
1003.00,0.0176
1002.00,0.0199
1001.00,0.0227
1000.00,0.0256
999.00,0.0279
998.00,0.0289
997.00,0.0281
996.00,0.0259
995.00,0.0228
994.00,0.0197
993.00,0.0169
992.00,0.0148
991.00,0.0132
990.00,0.0121
989.00,0.0114
988.00,0.0110
987.00,0.0108
986.00,0.0108
985.00,0.0110
984.00,0.0113
983.00,0.0118
982.00,0.0127
981.00,0.0141
980.00,0.0160
979.00,0.0186
978.00,0.0218
977.00,0.0254
976.00,0.0292
975.00,0.0325
974.00,0.0348
973.00,0.0352
972.00,0.0337
971.00,0.0303
970.00,0.0262
969.00,0.0220
968.00,0.0186
967.00,0.0160
966.00,0.0141
965.00,0.0127
964.00,0.0117
963.00,0.0109
962.00,0.0103
961.00,0.0098
960.00,0.0093
959.00,0.0089
958.00,0.0086
957.00,0.0083
956.00,0.0081
955.00,0.0079
954.00,0.0078
953.00,0.0077
952.00,0.0075
951.00,0.0075
950.00,0.0074
949.00,0.0074
948.00,0.0074
947.00,0.0075
946.00,0.0077
945.00,0.0080
944.00,0.0083
943.00,0.0086
942.00,0.0090
941.00,0.0092
940.00,0.0092
939.00,0.0090
938.00,0.0086
937.00,0.0080
936.00,0.0075
935.00,0.0070
934.00,0.0067
933.00,0.0066
932.00,0.0064
931.00,0.0063
930.00,0.0061
929.00,0.0059
928.00,0.0058
927.00,0.0058
926.00,0.0059
925.00,0.0060
924.00,0.0060
923.00,0.0060
922.00,0.0060
921.00,0.0060
920.00,0.0059
919.00,0.0059
918.00,0.0059
917.00,0.0060
916.00,0.0061
915.00,0.0062
914.00,0.0063
913.00,0.0064
912.00,0.0066
911.00,0.0067
910.00,0.0069
909.00,0.0071
908.00,0.0073
907.00,0.0077
906.00,0.0084
905.00,0.0095
904.00,0.0109
903.00,0.0128
902.00,0.0148
901.00,0.0167
900.00,0.0180
899.00,0.0182
898.00,0.0175
897.00,0.0159
896.00,0.0139
895.00,0.0121
894.00,0.0106
893.00,0.0094
892.00,0.0086
891.00,0.0079
890.00,0.0076
889.00,0.0074
888.00,0.0072
887.00,0.0071
886.00,0.0070
885.00,0.0069
884.00,0.0070
883.00,0.0070
882.00,0.0070
881.00,0.0069
880.00,0.0069
879.00,0.0069
878.00,0.0070
877.00,0.0071
876.00,0.0071
875.00,0.0071
874.00,0.0071
873.00,0.0071
872.00,0.0073
871.00,0.0074
870.00,0.0075
869.00,0.0075
868.00,0.0074
867.00,0.0074
866.00,0.0075
865.00,0.0075
864.00,0.0076
863.00,0.0077
862.00,0.0079
861.00,0.0080
860.00,0.0081
859.00,0.0081
858.00,0.0081
857.00,0.0082
856.00,0.0084
855.00,0.0086
854.00,0.0088
853.00,0.0090
852.00,0.0091
851.00,0.0093
850.00,0.0095
849.00,0.0099
848.00,0.0106
847.00,0.0117
846.00,0.0133
845.00,0.0158
844.00,0.0193
843.00,0.0232
842.00,0.0262
841.00,0.0269
840.00,0.0249
839.00,0.0212
838.00,0.0173
837.00,0.0143
836.00,0.0125
835.00,0.0114
834.00,0.0109
833.00,0.0105
832.00,0.0102
831.00,0.0100
830.00,0.0099
829.00,0.0097
828.00,0.0096
827.00,0.0095
826.00,0.0095
825.00,0.0095
824.00,0.0096
823.00,0.0097
822.00,0.0097
821.00,0.0096
820.00,0.0097
819.00,0.0099
818.00,0.0104
817.00,0.0111
816.00,0.0119
815.00,0.0130
814.00,0.0145
813.00,0.0165
812.00,0.0187
811.00,0.0208
810.00,0.0223
809.00,0.0229
808.00,0.0225
807.00,0.0211
806.00,0.0192
805.00,0.0172
804.00,0.0153
803.00,0.0138
802.00,0.0127
801.00,0.0118
800.00,0.0112
799.00,0.0108
798.00,0.0104
797.00,0.0101
796.00,0.0097
795.00,0.0094
794.00,0.0091
793.00,0.0088
792.00,0.0085
791.00,0.0081
790.00,0.0078
789.00,0.0075
788.00,0.0074
787.00,0.0072
786.00,0.0071
785.00,0.0069
784.00,0.0068
783.00,0.0067
782.00,0.0065
781.00,0.0063
780.00,0.0062
779.00,0.0062
778.00,0.0062
777.00,0.0062
776.00,0.0061
775.00,0.0061
774.00,0.0062
773.00,0.0062
772.00,0.0062
771.00,0.0062
770.00,0.0062
769.00,0.0061
768.00,0.0061
767.00,0.0062
766.00,0.0063
765.00,0.0065
764.00,0.0065
763.00,0.0065
762.00,0.0065
761.00,0.0064
760.00,0.0064
759.00,0.0063
758.00,0.0063
757.00,0.0063
756.00,0.0064
755.00,0.0067
754.00,0.0069
753.00,0.0072
752.00,0.0073
751.00,0.0074
750.00,0.0074
749.00,0.0074
748.00,0.0074
747.00,0.0074
746.00,0.0076
745.00,0.0079
744.00,0.0081
743.00,0.0085
742.00,0.0088
741.00,0.0092
740.00,0.0095
739.00,0.0098
738.00,0.0101
737.00,0.0104
736.00,0.0107
735.00,0.0112
734.00,0.0116
733.00,0.0122
732.00,0.0127
731.00,0.0132
730.00,0.0137
729.00,0.0141
728.00,0.0143
727.00,0.0144
726.00,0.0145
725.00,0.0147
724.00,0.0152
723.00,0.0159
722.00,0.0166
721.00,0.0170
720.00,0.0168
719.00,0.0161
718.00,0.0150
717.00,0.0137
716.00,0.0127
715.00,0.0119
714.00,0.0115
713.00,0.0112
712.00,0.0109
711.00,0.0107
710.00,0.0104
709.00,0.0102
708.00,0.0100
707.00,0.0098
706.00,0.0097
705.00,0.0095
704.00,0.0093
703.00,0.0090
702.00,0.0087
701.00,0.0084
700.00,0.0084
699.00,0.0086
698.00,0.0089
697.00,0.0091
696.00,0.0091
695.00,0.0090
694.00,0.0090
693.00,0.0090
692.00,0.0090
691.00,0.0091
690.00,0.0091
689.00,0.0091
688.00,0.0089
687.00,0.0087
686.00,0.0086
685.00,0.0087
684.00,0.0087
683.00,0.0087
682.00,0.0087
681.00,0.0088
680.00,0.0089
679.00,0.0090
678.00,0.0091
677.00,0.0091
676.00,0.0093
675.00,0.0095
674.00,0.0097
673.00,0.0099
672.00,0.0100
671.00,0.0102
670.00,0.0102
669.00,0.0099
668.00,0.0093
667.00,0.0088
666.00,0.0087
665.00,0.0087
664.00,0.0087
663.00,0.0088
662.00,0.0088
661.00,0.0088
660.00,0.0086
659.00,0.0084
658.00,0.0082
657.00,0.0081
656.00,0.0081
655.00,0.0082
654.00,0.0082
653.00,0.0082
652.00,0.0082
651.00,0.0083
650.00,0.0083
649.00,0.0082
648.00,0.0081
647.00,0.0081
646.00,0.0082
645.00,0.0084
644.00,0.0084
643.00,0.0082
642.00,0.0081
641.00,0.0082
640.00,0.0082
639.00,0.0082
638.00,0.0082
637.00,0.0081
636.00,0.0081
635.00,0.0082
634.00,0.0081
633.00,0.0078
632.00,0.0074
631.00,0.0071
630.00,0.0071
629.00,0.0073
628.00,0.0075
627.00,0.0077
626.00,0.0078
625.00,0.0079
624.00,0.0079
623.00,0.0077
622.00,0.0075
621.00,0.0073
620.00,0.0073
619.00,0.0074
618.00,0.0075
617.00,0.0075
616.00,0.0074
615.00,0.0073
614.00,0.0072
613.00,0.0074
612.00,0.0076
611.00,0.0079
610.00,0.0080
609.00,0.0078
608.00,0.0075
607.00,0.0071
606.00,0.0068
605.00,0.0067
604.00,0.0068
603.00,0.0071
602.00,0.0073
601.00,0.0075
600.00,0.0077
599.00,0.0076
598.00,0.0074
597.00,0.0073
596.00,0.0072
595.00,0.0072
594.00,0.0073
593.00,0.0075
592.00,0.0076
591.00,0.0077
590.00,0.0078
589.00,0.0079
588.00,0.0080
587.00,0.0080
586.00,0.0078
585.00,0.0075
584.00,0.0072
583.00,0.0072
582.00,0.0073
581.00,0.0075
580.00,0.0075
579.00,0.0073
578.00,0.0072
577.00,0.0072
576.00,0.0072
575.00,0.0073
574.00,0.0074
573.00,0.0077
572.00,0.0079
571.00,0.0081
570.00,0.0081
569.00,0.0078
568.00,0.0074
567.00,0.0071
566.00,0.0068
565.00,0.0066
564.00,0.0064
563.00,0.0062
562.00,0.0061
561.00,0.0063
560.00,0.0066
559.00,0.0068
558.00,0.0069
557.00,0.0069
556.00,0.0071
555.00,0.0074
554.00,0.0080
553.00,0.0084
552.00,0.0086
551.00,0.0086
550.00,0.0086
549.00,0.0086
548.00,0.0086
547.00,0.0084
546.00,0.0082
545.00,0.0083
544.00,0.0086
543.00,0.0090
542.00,0.0095
541.00,0.0101
540.00,0.0107
539.00,0.0110
538.00,0.0112
537.00,0.0114
536.00,0.0115
535.00,0.0117
534.00,0.0117
533.00,0.0116
532.00,0.0114
531.00,0.0113
530.00,0.0112
529.00,0.0113
528.00,0.0113
527.00,0.0110
526.00,0.0106
525.00,0.0100
524.00,0.0096
523.00,0.0091
522.00,0.0086
521.00,0.0081
520.00,0.0079
519.00,0.0080
518.00,0.0082
517.00,0.0083
516.00,0.0080
515.00,0.0077
514.00,0.0075
513.00,0.0075
512.00,0.0075
511.00,0.0074
510.00,0.0073
509.00,0.0073
508.00,0.0073
507.00,0.0076
506.00,0.0078
505.00,0.0080
504.00,0.0081
503.00,0.0083
502.00,0.0084
501.00,0.0081
500.00,0.0074
499.00,0.0067
498.00,0.0063
497.00,0.0062
496.00,0.0065
495.00,0.0071
494.00,0.0078
493.00,0.0084
492.00,0.0088
491.00,0.0091
490.00,0.0094
489.00,0.0096
488.00,0.0096
487.00,0.0095
486.00,0.0093
485.00,0.0090
484.00,0.0085
483.00,0.0079
482.00,0.0079
481.00,0.0087
480.00,0.0102
479.00,0.0119
478.00,0.0130
477.00,0.0131
476.00,0.0123
475.00,0.0113
474.00,0.0112
473.00,0.0119
472.00,0.0125
471.00,0.0125
470.00,0.0123
469.00,0.0122
468.00,0.0123
467.00,0.0128
466.00,0.0139
465.00,0.0154
464.00,0.0169
463.00,0.0180
462.00,0.0189
461.00,0.0201
460.00,0.0212
459.00,0.0215
458.00,0.0211
457.00,0.0204
456.00,0.0200
455.00,0.0198
454.00,0.0195
453.00,0.0190
452.00,0.0182
451.00,0.0172
450.00,0.0156
