Created as New Dataset,Sample 165 By Administrator Date Wednesday, September 03 2025
cm-1,A
4000.00,0.0009
3999.00,0.0009
3998.00,0.0009
3997.00,0.0010
3996.00,0.0010
3995.00,0.0010
3994.00,0.0010
3993.00,0.0010
3992.00,0.0009
3991.00,0.0009
3990.00,0.0009
3989.00,0.0009
3988.00,0.0009
3987.00,0.0009
3986.00,0.0009
3985.00,0.0009
3984.00,0.0009
3983.00,0.0009
3982.00,0.0009
3981.00,0.0009
3980.00,0.0009
3979.00,0.0009
3978.00,0.0009
3977.00,0.0008
3976.00,0.0008
3975.00,0.0008
3974.00,0.0008
3973.00,0.0008
3972.00,0.0008
3971.00,0.0008
3970.00,0.0008
3969.00,0.0008
3968.00,0.0008
3967.00,0.0007
3966.00,0.0007
3965.00,0.0007
3964.00,0.0007
3963.00,0.0007
3962.00,0.0008
3961.00,0.0008
3960.00,0.0008
3959.00,0.0009
3958.00,0.0008
3957.00,0.0008
3956.00,0.0008
3955.00,0.0008
3954.00,0.0008
3953.00,0.0007
3952.00,0.0007
3951.00,0.0007
3950.00,0.0007
3949.00,0.0007
3948.00,0.0007
3947.00,0.0007
3946.00,0.0007
3945.00,0.0007
3944.00,0.0006
3943.00,0.0006
3942.00,0.0007
3941.00,0.0007
3940.00,0.0007
3939.00,0.0007
3938.00,0.0007
3937.00,0.0008
3936.00,0.0008
3935.00,0.0008
3934.00,0.0008
3933.00,0.0008
3932.00,0.0008
3931.00,0.0008
3930.00,0.0008
3929.00,0.0008
3928.00,0.0008
3927.00,0.0008
3926.00,0.0008
3925.00,0.0008
3924.00,0.0008
3923.00,0.0008
3922.00,0.0008
3921.00,0.0008
3920.00,0.0008
3919.00,0.0008
3918.00,0.0008
3917.00,0.0008
3916.00,0.0008
3915.00,0.0008
3914.00,0.0008
3913.00,0.0008
3912.00,0.0008
3911.00,0.0008
3910.00,0.0008
3909.00,0.0007
3908.00,0.0007
3907.00,0.0007
3906.00,0.0007
3905.00,0.0007
3904.00,0.0007
3903.00,0.0007
3902.00,0.0007
3901.00,0.0006
3900.00,0.0005
3899.00,0.0005
3898.00,0.0006
3897.00,0.0007
3896.00,0.0008
3895.00,0.0008
3894.00,0.0008
3893.00,0.0008
3892.00,0.0007
3891.00,0.0007
3890.00,0.0008
3889.00,0.0008
3888.00,0.0007
3887.00,0.0007
3886.00,0.0007
3885.00,0.0008
3884.00,0.0008
3883.00,0.0008
3882.00,0.0007
3881.00,0.0007
3880.00,0.0007
3879.00,0.0007
3878.00,0.0008
3877.00,0.0008
3876.00,0.0008
3875.00,0.0008
3874.00,0.0008
3873.00,0.0008
3872.00,0.0007
3871.00,0.0007
3870.00,0.0007
3869.00,0.0008
3868.00,0.0008
3867.00,0.0008
3866.00,0.0008
3865.00,0.0008
3864.00,0.0008
3863.00,0.0008
3862.00,0.0008
3861.00,0.0007
3860.00,0.0007
3859.00,0.0007
3858.00,0.0007
3857.00,0.0007
3856.00,0.0007
3855.00,0.0006
3854.00,0.0006
3853.00,0.0006
3852.00,0.0007
3851.00,0.0006
3850.00,0.0006
3849.00,0.0006
3848.00,0.0006
3847.00,0.0006
3846.00,0.0007
3845.00,0.0007
3844.00,0.0007
3843.00,0.0008
3842.00,0.0009
3841.00,0.0009
3840.00,0.0009
3839.00,0.0009
3838.00,0.0009
3837.00,0.0009
3836.00,0.0009
3835.00,0.0009
3834.00,0.0009
3833.00,0.0008
3832.00,0.0008
3831.00,0.0008
3830.00,0.0009
3829.00,0.0009
3828.00,0.0009
3827.00,0.0009
3826.00,0.0009
3825.00,0.0010
3824.00,0.0010
3823.00,0.0010
3822.00,0.0010
3821.00,0.0010
3820.00,0.0010
3819.00,0.0009
3818.00,0.0008
3817.00,0.0008
3816.00,0.0007
3815.00,0.0008
3814.00,0.0008
3813.00,0.0007
3812.00,0.0007
3811.00,0.0007
3810.00,0.0008
3809.00,0.0008
3808.00,0.0008
3807.00,0.0009
3806.00,0.0009
3805.00,0.0009
3804.00,0.0009
3803.00,0.0008
3802.00,0.0008
3801.00,0.0008
3800.00,0.0008
3799.00,0.0008
3798.00,0.0008
3797.00,0.0008
3796.00,0.0008
3795.00,0.0008
3794.00,0.0008
3793.00,0.0008
3792.00,0.0008
3791.00,0.0008
3790.00,0.0008
3789.00,0.0008
3788.00,0.0008
3787.00,0.0008
3786.00,0.0008
3785.00,0.0007
3784.00,0.0007
3783.00,0.0007
3782.00,0.0006
3781.00,0.0006
3780.00,0.0007
3779.00,0.0007
3778.00,0.0007
3777.00,0.0007
3776.00,0.0007
3775.00,0.0007
3774.00,0.0007
3773.00,0.0008
3772.00,0.0008
3771.00,0.0008
3770.00,0.0008
3769.00,0.0008
3768.00,0.0008
3767.00,0.0008
3766.00,0.0008
3765.00,0.0009
3764.00,0.0009
3763.00,0.0009
3762.00,0.0009
3761.00,0.0009
3760.00,0.0009
3759.00,0.0009
3758.00,0.0009
3757.00,0.0009
3756.00,0.0009
3755.00,0.0009
3754.00,0.0009
3753.00,0.0009
3752.00,0.0009
3751.00,0.0009
3750.00,0.0008
3749.00,0.0008
3748.00,0.0008
3747.00,0.0008
3746.00,0.0007
3745.00,0.0007
3744.00,0.0008
3743.00,0.0008
3742.00,0.0008
3741.00,0.0007
3740.00,0.0007
3739.00,0.0007
3738.00,0.0007
3737.00,0.0007
3736.00,0.0007
3735.00,0.0007
3734.00,0.0006
3733.00,0.0006
3732.00,0.0006
3731.00,0.0006
3730.00,0.0006
3729.00,0.0006
3728.00,0.0005
3727.00,0.0005
3726.00,0.0005
3725.00,0.0005
3724.00,0.0005
3723.00,0.0005
3722.00,0.0005
3721.00,0.0006
3720.00,0.0006
3719.00,0.0007
3718.00,0.0007
3717.00,0.0007
3716.00,0.0007
3715.00,0.0007
3714.00,0.0007
3713.00,0.0007
3712.00,0.0006
3711.00,0.0006
3710.00,0.0005
3709.00,0.0005
3708.00,0.0005
3707.00,0.0005
3706.00,0.0006
3705.00,0.0006
3704.00,0.0006
3703.00,0.0006
3702.00,0.0005
3701.00,0.0005
3700.00,0.0005
3699.00,0.0005
3698.00,0.0005
3697.00,0.0006
3696.00,0.0006
3695.00,0.0006
3694.00,0.0006
3693.00,0.0006
3692.00,0.0006
3691.00,0.0005
3690.00,0.0006
3689.00,0.0006
3688.00,0.0006
3687.00,0.0006
3686.00,0.0006
3685.00,0.0006
3684.00,0.0006
3683.00,0.0006
3682.00,0.0006
3681.00,0.0007
3680.00,0.0007
3679.00,0.0008
3678.00,0.0008
3677.00,0.0009
3676.00,0.0009
3675.00,0.0009
3674.00,0.0009
3673.00,0.0008
3672.00,0.0007
3671.00,0.0006
3670.00,0.0006
3669.00,0.0006
3668.00,0.0006
3667.00,0.0006
3666.00,0.0005
3665.00,0.0005
3664.00,0.0005
3663.00,0.0004
3662.00,0.0004
3661.00,0.0005
3660.00,0.0005
3659.00,0.0005
3658.00,0.0006
3657.00,0.0006
3656.00,0.0006
3655.00,0.0006
3654.00,0.0006
3653.00,0.0006
3652.00,0.0006
3651.00,0.0006
3650.00,0.0006
3649.00,0.0006
3648.00,0.0006
3647.00,0.0006
3646.00,0.0007
3645.00,0.0007
3644.00,0.0007
3643.00,0.0006
3642.00,0.0006
3641.00,0.0006
3640.00,0.0006
3639.00,0.0006
3638.00,0.0006
3637.00,0.0007
3636.00,0.0007
3635.00,0.0007
3634.00,0.0007
3633.00,0.0007
3632.00,0.0006
3631.00,0.0006
3630.00,0.0006
3629.00,0.0007
3628.00,0.0007
3627.00,0.0007
3626.00,0.0007
3625.00,0.0007
3624.00,0.0007
3623.00,0.0007
3622.00,0.0007
3621.00,0.0008
3620.00,0.0008
3619.00,0.0008
3618.00,0.0008
3617.00,0.0009
3616.00,0.0009
3615.00,0.0009
3614.00,0.0009
3613.00,0.0008
3612.00,0.0008
3611.00,0.0008
3610.00,0.0008
3609.00,0.0008
3608.00,0.0008
3607.00,0.0008
3606.00,0.0009
3605.00,0.0009
3604.00,0.0009
3603.00,0.0009
3602.00,0.0010
3601.00,0.0010
3600.00,0.0010
3599.00,0.0009
3598.00,0.0009
3597.00,0.0009
3596.00,0.0010
3595.00,0.0010
3594.00,0.0010
3593.00,0.0010
3592.00,0.0010
3591.00,0.0009
3590.00,0.0009
3589.00,0.0009
3588.00,0.0009
3587.00,0.0009
3586.00,0.0010
3585.00,0.0011
3584.00,0.0011
3583.00,0.0011
3582.00,0.0011
3581.00,0.0011
3580.00,0.0012
3579.00,0.0012
3578.00,0.0012
3577.00,0.0013
3576.00,0.0013
3575.00,0.0013
3574.00,0.0013
3573.00,0.0013
3572.00,0.0013
3571.00,0.0013
3570.00,0.0013
3569.00,0.0013
3568.00,0.0013
3567.00,0.0014
3566.00,0.0014
3565.00,0.0014
3564.00,0.0014
3563.00,0.0014
3562.00,0.0014
3561.00,0.0015
3560.00,0.0015
3559.00,0.0016
3558.00,0.0016
3557.00,0.0016
3556.00,0.0016
3555.00,0.0016
3554.00,0.0016
3553.00,0.0017
3552.00,0.0017
3551.00,0.0017
3550.00,0.0017
3549.00,0.0017
3548.00,0.0017
3547.00,0.0017
3546.00,0.0017
3545.00,0.0017
3544.00,0.0018
3543.00,0.0018
3542.00,0.0019
3541.00,0.0020
3540.00,0.0020
3539.00,0.0020
3538.00,0.0020
3537.00,0.0020
3536.00,0.0020
3535.00,0.0020
3534.00,0.0020
3533.00,0.0021
3532.00,0.0022
3531.00,0.0022
3530.00,0.0022
3529.00,0.0022
3528.00,0.0021
3527.00,0.0021
3526.00,0.0022
3525.00,0.0022
3524.00,0.0022
3523.00,0.0023
3522.00,0.0023
3521.00,0.0023
3520.00,0.0023
3519.00,0.0023
3518.00,0.0023
3517.00,0.0023
3516.00,0.0024
3515.00,0.0025
3514.00,0.0025
3513.00,0.0025
3512.00,0.0026
3511.00,0.0026
3510.00,0.0026
3509.00,0.0027
3508.00,0.0027
3507.00,0.0027
3506.00,0.0027
3505.00,0.0027
3504.00,0.0027
3503.00,0.0027
3502.00,0.0027
3501.00,0.0028
3500.00,0.0028
3499.00,0.0028
3498.00,0.0028
3497.00,0.0028
3496.00,0.0028
3495.00,0.0028
3494.00,0.0028
3493.00,0.0028
3492.00,0.0029
3491.00,0.0029
3490.00,0.0029
3489.00,0.0030
3488.00,0.0030
3487.00,0.0030
3486.00,0.0030
3485.00,0.0030
3484.00,0.0030
3483.00,0.0031
3482.00,0.0031
3481.00,0.0032
3480.00,0.0032
3479.00,0.0032
3478.00,0.0032
3477.00,0.0032
3476.00,0.0032
3475.00,0.0032
3474.00,0.0032
3473.00,0.0032
3472.00,0.0032
3471.00,0.0033
3470.00,0.0033
3469.00,0.0034
3468.00,0.0034
3467.00,0.0035
3466.00,0.0035
3465.00,0.0035
3464.00,0.0035
3463.00,0.0035
3462.00,0.0035
3461.00,0.0035
3460.00,0.0035
3459.00,0.0035
3458.00,0.0036
3457.00,0.0036
3456.00,0.0037
3455.00,0.0037
3454.00,0.0037
3453.00,0.0037
3452.00,0.0037
3451.00,0.0037
3450.00,0.0037
3449.00,0.0037
3448.00,0.0038
3447.00,0.0038
3446.00,0.0038
3445.00,0.0038
3444.00,0.0039
3443.00,0.0039
3442.00,0.0039
3441.00,0.0039
3440.00,0.0039
3439.00,0.0039
3438.00,0.0040
3437.00,0.0040
3436.00,0.0040
3435.00,0.0041
3434.00,0.0041
3433.00,0.0041
3432.00,0.0041
3431.00,0.0042
3430.00,0.0042
3429.00,0.0042
3428.00,0.0043
3427.00,0.0043
3426.00,0.0043
3425.00,0.0043
3424.00,0.0043
3423.00,0.0043
3422.00,0.0043
3421.00,0.0043
3420.00,0.0044
3419.00,0.0044
3418.00,0.0044
3417.00,0.0045
3416.00,0.0045
3415.00,0.0046
3414.00,0.0046
3413.00,0.0046
3412.00,0.0046
3411.00,0.0046
3410.00,0.0046
3409.00,0.0046
3408.00,0.0046
3407.00,0.0047
3406.00,0.0047
3405.00,0.0047
3404.00,0.0048
3403.00,0.0048
3402.00,0.0049
3401.00,0.0049
3400.00,0.0049
3399.00,0.0050
3398.00,0.0051
3397.00,0.0051
3396.00,0.0051
3395.00,0.0051
3394.00,0.0051
3393.00,0.0051
3392.00,0.0051
3391.00,0.0051
3390.00,0.0051
3389.00,0.0050
3388.00,0.0050
3387.00,0.0050
3386.00,0.0049
3385.00,0.0049
3384.00,0.0049
3383.00,0.0049
3382.00,0.0049
3381.00,0.0049
3380.00,0.0049
3379.00,0.0049
3378.00,0.0049
3377.00,0.0049
3376.00,0.0049
3375.00,0.0050
3374.00,0.0050
3373.00,0.0050
3372.00,0.0050
3371.00,0.0050
3370.00,0.0050
3369.00,0.0049
3368.00,0.0049
3367.00,0.0049
3366.00,0.0049
3365.00,0.0050
3364.00,0.0050
3363.00,0.0050
3362.00,0.0050
3361.00,0.0050
3360.00,0.0050
3359.00,0.0050
3358.00,0.0050
3357.00,0.0050
3356.00,0.0050
3355.00,0.0050
3354.00,0.0050
3353.00,0.0050
3352.00,0.0050
3351.00,0.0050
3350.00,0.0050
3349.00,0.0050
3348.00,0.0051
3347.00,0.0051
3346.00,0.0051
3345.00,0.0050
3344.00,0.0050
3343.00,0.0049
3342.00,0.0049
3341.00,0.0049
3340.00,0.0049
3339.00,0.0049
3338.00,0.0049
3337.00,0.0048
3336.00,0.0048
3335.00,0.0048
3334.00,0.0048
3333.00,0.0048
3332.00,0.0048
3331.00,0.0048
3330.00,0.0048
3329.00,0.0048
3328.00,0.0048
3327.00,0.0048
3326.00,0.0049
3325.00,0.0049
3324.00,0.0049
3323.00,0.0048
3322.00,0.0048
3321.00,0.0048
3320.00,0.0048
3319.00,0.0048
3318.00,0.0048
3317.00,0.0048
3316.00,0.0048
3315.00,0.0049
3314.00,0.0049
3313.00,0.0049
3312.00,0.0049
3311.00,0.0049
3310.00,0.0049
3309.00,0.0050
3308.00,0.0050
3307.00,0.0050
3306.00,0.0050
3305.00,0.0050
3304.00,0.0050
3303.00,0.0050
3302.00,0.0050
3301.00,0.0049
3300.00,0.0049
3299.00,0.0048
3298.00,0.0048
3297.00,0.0048
3296.00,0.0047
3295.00,0.0047
3294.00,0.0048
3293.00,0.0048
3292.00,0.0048
3291.00,0.0047
3290.00,0.0047
3289.00,0.0047
3288.00,0.0047
3287.00,0.0046
3286.00,0.0046
3285.00,0.0046
3284.00,0.0045
3283.00,0.0045
3282.00,0.0045
3281.00,0.0045
3280.00,0.0044
3279.00,0.0044
3278.00,0.0044
3277.00,0.0044
3276.00,0.0044
3275.00,0.0044
3274.00,0.0044
3273.00,0.0044
3272.00,0.0043
3271.00,0.0043
3270.00,0.0043
3269.00,0.0043
3268.00,0.0042
3267.00,0.0042
3266.00,0.0042
3265.00,0.0041
3264.00,0.0041
3263.00,0.0041
3262.00,0.0041
3261.00,0.0041
3260.00,0.0041
3259.00,0.0041
3258.00,0.0041
3257.00,0.0040
3256.00,0.0040
3255.00,0.0040
3254.00,0.0041
3253.00,0.0041
3252.00,0.0041
3251.00,0.0041
3250.00,0.0040
3249.00,0.0040
3248.00,0.0040
3247.00,0.0040
3246.00,0.0040
3245.00,0.0040
3244.00,0.0040
3243.00,0.0040
3242.00,0.0040
3241.00,0.0040
3240.00,0.0040
3239.00,0.0040
3238.00,0.0040
3237.00,0.0040
3236.00,0.0040
3235.00,0.0041
3234.00,0.0041
3233.00,0.0040
3232.00,0.0040
3231.00,0.0040
3230.00,0.0040
3229.00,0.0040
3228.00,0.0040
3227.00,0.0040
3226.00,0.0041
3225.00,0.0041
3224.00,0.0041
3223.00,0.0041
3222.00,0.0041
3221.00,0.0042
3220.00,0.0042
3219.00,0.0042
3218.00,0.0043
3217.00,0.0043
3216.00,0.0043
3215.00,0.0043
3214.00,0.0043
3213.00,0.0043
3212.00,0.0044
3211.00,0.0044
3210.00,0.0045
3209.00,0.0045
3208.00,0.0045
3207.00,0.0045
3206.00,0.0044
3205.00,0.0044
3204.00,0.0045
3203.00,0.0045
3202.00,0.0045
3201.00,0.0045
3200.00,0.0045
3199.00,0.0045
3198.00,0.0046
3197.00,0.0046
3196.00,0.0046
3195.00,0.0046
3194.00,0.0045
3193.00,0.0045
3192.00,0.0045
3191.00,0.0045
3190.00,0.0045
3189.00,0.0045
3188.00,0.0045
3187.00,0.0045
3186.00,0.0044
3185.00,0.0044
3184.00,0.0044
3183.00,0.0044
3182.00,0.0044
3181.00,0.0043
3180.00,0.0043
3179.00,0.0042
3178.00,0.0042
3177.00,0.0042
3176.00,0.0042
3175.00,0.0042
3174.00,0.0042
3173.00,0.0041
3172.00,0.0041
3171.00,0.0041
3170.00,0.0041
3169.00,0.0041
3168.00,0.0041
3167.00,0.0040
3166.00,0.0040
3165.00,0.0040
3164.00,0.0039
3163.00,0.0039
3162.00,0.0039
3161.00,0.0039
3160.00,0.0039
3159.00,0.0039
3158.00,0.0039
3157.00,0.0038
3156.00,0.0038
3155.00,0.0038
3154.00,0.0038
3153.00,0.0038
3152.00,0.0038
3151.00,0.0039
3150.00,0.0039
3149.00,0.0039
3148.00,0.0038
3147.00,0.0038
3146.00,0.0038
3145.00,0.0038
3144.00,0.0038
3143.00,0.0037
3142.00,0.0037
3141.00,0.0037
3140.00,0.0036
3139.00,0.0036
3138.00,0.0036
3137.00,0.0036
3136.00,0.0036
3135.00,0.0036
3134.00,0.0035
3133.00,0.0035
3132.00,0.0034
3131.00,0.0034
3130.00,0.0034
3129.00,0.0034
3128.00,0.0034
3127.00,0.0033
3126.00,0.0033
3125.00,0.0033
3124.00,0.0033
3123.00,0.0032
3122.00,0.0032
3121.00,0.0032
3120.00,0.0032
3119.00,0.0032
3118.00,0.0032
3117.00,0.0031
3116.00,0.0031
3115.00,0.0031
3114.00,0.0031
3113.00,0.0031
3112.00,0.0031
3111.00,0.0031
3110.00,0.0032
3109.00,0.0032
3108.00,0.0031
3107.00,0.0031
3106.00,0.0031
3105.00,0.0031
3104.00,0.0030
3103.00,0.0030
3102.00,0.0029
3101.00,0.0029
3100.00,0.0029
3099.00,0.0030
3098.00,0.0030
3097.00,0.0030
3096.00,0.0030
3095.00,0.0029
3094.00,0.0029
3093.00,0.0029
3092.00,0.0029
3091.00,0.0029
3090.00,0.0029
3089.00,0.0029
3088.00,0.0029
3087.00,0.0029
3086.00,0.0029
3085.00,0.0029
3084.00,0.0029
3083.00,0.0029
3082.00,0.0029
3081.00,0.0029
3080.00,0.0029
3079.00,0.0029
3078.00,0.0029
3077.00,0.0029
3076.00,0.0030
3075.00,0.0030
3074.00,0.0031
3073.00,0.0030
3072.00,0.0030
3071.00,0.0030
3070.00,0.0030
3069.00,0.0030
3068.00,0.0030
3067.00,0.0031
3066.00,0.0031
3065.00,0.0031
3064.00,0.0031
3063.00,0.0031
3062.00,0.0031
3061.00,0.0032
3060.00,0.0031
3059.00,0.0031
3058.00,0.0032
3057.00,0.0032
3056.00,0.0032
3055.00,0.0032
3054.00,0.0032
3053.00,0.0032
3052.00,0.0032
3051.00,0.0032
3050.00,0.0033
3049.00,0.0033
3048.00,0.0033
3047.00,0.0033
3046.00,0.0033
3045.00,0.0033
3044.00,0.0033
3043.00,0.0033
3042.00,0.0033
3041.00,0.0034
3040.00,0.0035
3039.00,0.0036
3038.00,0.0036
3037.00,0.0036
3036.00,0.0036
3035.00,0.0037
3034.00,0.0037
3033.00,0.0037
3032.00,0.0038
3031.00,0.0038
3030.00,0.0039
3029.00,0.0039
3028.00,0.0040
3027.00,0.0040
3026.00,0.0041
3025.00,0.0041
3024.00,0.0041
3023.00,0.0042
3022.00,0.0042
3021.00,0.0043
3020.00,0.0044
3019.00,0.0045
3018.00,0.0046
3017.00,0.0048
3016.00,0.0049
3015.00,0.0050
3014.00,0.0051
3013.00,0.0052
3012.00,0.0053
3011.00,0.0054
3010.00,0.0055
3009.00,0.0057
3008.00,0.0058
3007.00,0.0060
3006.00,0.0061
3005.00,0.0063
3004.00,0.0064
3003.00,0.0066
3002.00,0.0068
3001.00,0.0070
3000.00,0.0073
2999.00,0.0075
2998.00,0.0079
2997.00,0.0082
2996.00,0.0085
2995.00,0.0089
2994.00,0.0093
2993.00,0.0097
2992.00,0.0102
2991.00,0.0108
2990.00,0.0114
2989.00,0.0121
2988.00,0.0129
2987.00,0.0138
2986.00,0.0147
2985.00,0.0158
2984.00,0.0169
2983.00,0.0182
2982.00,0.0197
2981.00,0.0214
2980.00,0.0234
2979.00,0.0257
2978.00,0.0283
2977.00,0.0312
2976.00,0.0346
2975.00,0.0384
2974.00,0.0428
2973.00,0.0478
2972.00,0.0535
2971.00,0.0600
2970.00,0.0672
2969.00,0.0753
2968.00,0.0841
2967.00,0.0936
2966.00,0.1038
2965.00,0.1144
2964.00,0.1250
2963.00,0.1352
2962.00,0.1444
2961.00,0.1521
2960.00,0.1581
2959.00,0.1625
2958.00,0.1657
2957.00,0.1683
2956.00,0.1710
2955.00,0.1742
2954.00,0.1781
2953.00,0.1820
2952.00,0.1853
2951.00,0.1869
2950.00,0.1859
2949.00,0.1817
2948.00,0.1742
2947.00,0.1642
2946.00,0.1526
2945.00,0.1406
2944.00,0.1294
2943.00,0.1199
2942.00,0.1126
2941.00,0.1076
2940.00,0.1049
2939.00,0.1043
2938.00,0.1055
2937.00,0.1083
2936.00,0.1126
2935.00,0.1183
2934.00,0.1253
2933.00,0.1334
2932.00,0.1424
2931.00,0.1523
2930.00,0.1626
2929.00,0.1732
2928.00,0.1836
2927.00,0.1937
2926.00,0.2033
2925.00,0.2125
2924.00,0.2213
2923.00,0.2298
2922.00,0.2378
2921.00,0.2452
2920.00,0.2514
2919.00,0.2557
2918.00,0.2573
2917.00,0.2557
2916.00,0.2510
2915.00,0.2439
2914.00,0.2353
2913.00,0.2262
2912.00,0.2175
2911.00,0.2096
2910.00,0.2027
2909.00,0.1967
2908.00,0.1911
2907.00,0.1857
2906.00,0.1803
2905.00,0.1745
2904.00,0.1685
2903.00,0.1622
2902.00,0.1558
2901.00,0.1494
2900.00,0.1431
2899.00,0.1371
2898.00,0.1314
2897.00,0.1262
2896.00,0.1215
2895.00,0.1173
2894.00,0.1138
2893.00,0.1109
2892.00,0.1085
2891.00,0.1066
2890.00,0.1052
2889.00,0.1043
2888.00,0.1037
2887.00,0.1034
2886.00,0.1034
2885.00,0.1038
2884.00,0.1046
2883.00,0.1057
2882.00,0.1072
2881.00,0.1089
2880.00,0.1105
2879.00,0.1117
2878.00,0.1124
2877.00,0.1124
2876.00,0.1119
2875.00,0.1112
2874.00,0.1108
2873.00,0.1109
2872.00,0.1117
2871.00,0.1130
2870.00,0.1148
2869.00,0.1163
2868.00,0.1172
2867.00,0.1166
2866.00,0.1142
2865.00,0.1098
2864.00,0.1039
2863.00,0.0972
2862.00,0.0907
2861.00,0.0851
2860.00,0.0808
2859.00,0.0780
2858.00,0.0764
2857.00,0.0760
2856.00,0.0765
2855.00,0.0776
2854.00,0.0791
2853.00,0.0809
2852.00,0.0827
2851.00,0.0844
2850.00,0.0858
2849.00,0.0870
2848.00,0.0881
2847.00,0.0896
2846.00,0.0920
2845.00,0.0954
2844.00,0.0998
2843.00,0.1051
2842.00,0.1106
2841.00,0.1156
2840.00,0.1195
2839.00,0.1215
2838.00,0.1208
2837.00,0.1170
2836.00,0.1104
2835.00,0.1014
2834.00,0.0911
2833.00,0.0805
2832.00,0.0704
2831.00,0.0615
2830.00,0.0541
2829.00,0.0479
2828.00,0.0430
2827.00,0.0390
2826.00,0.0357
2825.00,0.0330
2824.00,0.0307
2823.00,0.0287
2822.00,0.0270
2821.00,0.0256
2820.00,0.0243
2819.00,0.0232
2818.00,0.0223
2817.00,0.0214
2816.00,0.0206
2815.00,0.0199
2814.00,0.0193
2813.00,0.0188
2812.00,0.0182
2811.00,0.0177
2810.00,0.0172
2809.00,0.0167
2808.00,0.0161
2807.00,0.0155
2806.00,0.0148
2805.00,0.0142
2804.00,0.0136
2803.00,0.0130
2802.00,0.0125
2801.00,0.0121
2800.00,0.0117
2799.00,0.0114
2798.00,0.0112
2797.00,0.0109
2796.00,0.0107
2795.00,0.0104
2794.00,0.0102
2793.00,0.0099
2792.00,0.0097
2791.00,0.0094
2790.00,0.0091
2789.00,0.0088
2788.00,0.0085
2787.00,0.0082
2786.00,0.0079
2785.00,0.0076
2784.00,0.0073
2783.00,0.0071
2782.00,0.0069
2781.00,0.0067
2780.00,0.0065
2779.00,0.0064
2778.00,0.0062
2777.00,0.0061
2776.00,0.0059
2775.00,0.0058
2774.00,0.0057
2773.00,0.0057
2772.00,0.0056
2771.00,0.0055
2770.00,0.0055
2769.00,0.0054
2768.00,0.0054
2767.00,0.0053
2766.00,0.0053
2765.00,0.0053
2764.00,0.0053
2763.00,0.0052
2762.00,0.0052
2761.00,0.0052
2760.00,0.0052
2759.00,0.0051
2758.00,0.0051
2757.00,0.0051
2756.00,0.0051
2755.00,0.0050
2754.00,0.0050
2753.00,0.0050
2752.00,0.0050
2751.00,0.0050
2750.00,0.0050
2749.00,0.0050
2748.00,0.0050
2747.00,0.0051
2746.00,0.0051
2745.00,0.0051
2744.00,0.0052
2743.00,0.0053
2742.00,0.0054
2741.00,0.0055
2740.00,0.0056
2739.00,0.0057
2738.00,0.0058
2737.00,0.0059
2736.00,0.0060
2735.00,0.0061
2734.00,0.0062
2733.00,0.0064
2732.00,0.0065
2731.00,0.0067
2730.00,0.0069
2729.00,0.0071
2728.00,0.0074
2727.00,0.0076
2726.00,0.0079
2725.00,0.0081
2724.00,0.0083
2723.00,0.0083
2722.00,0.0082
2721.00,0.0081
2720.00,0.0078
2719.00,0.0076
2718.00,0.0073
2717.00,0.0070
2716.00,0.0067
2715.00,0.0065
2714.00,0.0063
2713.00,0.0061
2712.00,0.0059
2711.00,0.0057
2710.00,0.0055
2709.00,0.0053
2708.00,0.0052
2707.00,0.0051
2706.00,0.0050
2705.00,0.0049
2704.00,0.0048
2703.00,0.0048
2702.00,0.0047
2701.00,0.0046
2700.00,0.0046
2699.00,0.0045
2698.00,0.0044
2697.00,0.0044
2696.00,0.0044
2695.00,0.0044
2694.00,0.0044
2693.00,0.0044
2692.00,0.0044
2691.00,0.0044
2690.00,0.0044
2689.00,0.0045
2688.00,0.0044
2687.00,0.0044
2686.00,0.0044
2685.00,0.0044
2684.00,0.0044
2683.00,0.0044
2682.00,0.0044
2681.00,0.0044
2680.00,0.0044
2679.00,0.0045
2678.00,0.0045
2677.00,0.0045
2676.00,0.0045
2675.00,0.0044
2674.00,0.0044
2673.00,0.0044
2672.00,0.0044
2671.00,0.0043
2670.00,0.0043
2669.00,0.0043
2668.00,0.0044
2667.00,0.0044
2666.00,0.0044
2665.00,0.0045
2664.00,0.0045
2663.00,0.0046
2662.00,0.0046
2661.00,0.0046
2660.00,0.0046
2659.00,0.0047
2658.00,0.0047
2657.00,0.0047
2656.00,0.0047
2655.00,0.0046
2654.00,0.0045
2653.00,0.0044
2652.00,0.0044
2651.00,0.0043
2650.00,0.0042
2649.00,0.0042
2648.00,0.0041
2647.00,0.0041
2646.00,0.0042
2645.00,0.0042
2644.00,0.0041
2643.00,0.0041
2642.00,0.0041
2641.00,0.0040
2640.00,0.0040
2639.00,0.0039
2638.00,0.0039
2637.00,0.0038
2636.00,0.0038
2635.00,0.0037
2634.00,0.0037
2633.00,0.0037
2632.00,0.0038
2631.00,0.0038
2630.00,0.0038
2629.00,0.0039
2628.00,0.0039
2627.00,0.0039
2626.00,0.0039
2625.00,0.0039
2624.00,0.0039
2623.00,0.0039
2622.00,0.0040
2621.00,0.0040
2620.00,0.0040
2619.00,0.0040
2618.00,0.0039
2617.00,0.0039
2616.00,0.0039
2615.00,0.0038
2614.00,0.0038
2613.00,0.0038
2612.00,0.0037
2611.00,0.0037
2610.00,0.0036
2609.00,0.0035
2608.00,0.0035
2607.00,0.0034
2606.00,0.0034
2605.00,0.0033
2604.00,0.0032
2603.00,0.0031
2602.00,0.0031
2601.00,0.0031
2600.00,0.0031
2599.00,0.0031
2598.00,0.0031
2597.00,0.0031
2596.00,0.0031
2595.00,0.0031
2594.00,0.0031
2593.00,0.0031
2592.00,0.0031
2591.00,0.0031
2590.00,0.0032
2589.00,0.0033
2588.00,0.0034
2587.00,0.0035
2586.00,0.0035
2585.00,0.0036
2584.00,0.0036
2583.00,0.0036
2582.00,0.0036
2581.00,0.0036
2580.00,0.0035
2579.00,0.0035
2578.00,0.0034
2577.00,0.0033
2576.00,0.0032
2575.00,0.0031
2574.00,0.0030
2573.00,0.0028
2572.00,0.0027
2571.00,0.0027
2570.00,0.0026
2569.00,0.0025
2568.00,0.0025
2567.00,0.0024
2566.00,0.0024
2565.00,0.0023
2564.00,0.0023
2563.00,0.0022
2562.00,0.0022
2561.00,0.0022
2560.00,0.0022
2559.00,0.0022
2558.00,0.0023
2557.00,0.0023
2556.00,0.0023
2555.00,0.0022
2554.00,0.0021
2553.00,0.0021
2552.00,0.0021
2551.00,0.0021
2550.00,0.0021
2549.00,0.0020
2548.00,0.0019
2547.00,0.0019
2546.00,0.0018
2545.00,0.0018
2544.00,0.0018
2543.00,0.0018
2542.00,0.0018
2541.00,0.0017
2540.00,0.0017
2539.00,0.0016
2538.00,0.0015
2537.00,0.0015
2536.00,0.0016
2535.00,0.0016
2534.00,0.0016
2533.00,0.0016
2532.00,0.0015
2531.00,0.0015
2530.00,0.0014
2529.00,0.0014
2528.00,0.0014
2527.00,0.0014
2526.00,0.0014
2525.00,0.0014
2524.00,0.0014
2523.00,0.0014
2522.00,0.0014
2521.00,0.0013
2520.00,0.0012
2519.00,0.0012
2518.00,0.0011
2517.00,0.0011
2516.00,0.0011
2515.00,0.0011
2514.00,0.0011
2513.00,0.0010
2512.00,0.0010
2511.00,0.0010
2510.00,0.0010
2509.00,0.0011
2508.00,0.0011
2507.00,0.0011
2506.00,0.0010
2505.00,0.0010
2504.00,0.0009
2503.00,0.0009
2502.00,0.0009
2501.00,0.0009
2500.00,0.0009
2499.00,0.0009
2498.00,0.0009
2497.00,0.0009
2496.00,0.0009
2495.00,0.0009
2494.00,0.0010
2493.00,0.0010
2492.00,0.0010
2491.00,0.0009
2490.00,0.0009
2489.00,0.0009
2488.00,0.0009
2487.00,0.0009
2486.00,0.0009
2485.00,0.0010
2484.00,0.0010
2483.00,0.0009
2482.00,0.0009
2481.00,0.0008
2480.00,0.0008
2479.00,0.0008
2478.00,0.0008
2477.00,0.0008
2476.00,0.0009
2475.00,0.0009
2474.00,0.0009
2473.00,0.0009
2472.00,0.0009
2471.00,0.0009
2470.00,0.0008
2469.00,0.0008
2468.00,0.0008
2467.00,0.0008
2466.00,0.0009
2465.00,0.0009
2464.00,0.0010
2463.00,0.0010
2462.00,0.0010
2461.00,0.0009
2460.00,0.0009
2459.00,0.0009
2458.00,0.0010
2457.00,0.0011
2456.00,0.0011
2455.00,0.0011
2454.00,0.0010
2453.00,0.0009
2452.00,0.0009
2451.00,0.0009
2450.00,0.0010
2449.00,0.0010
2448.00,0.0010
2447.00,0.0010
2446.00,0.0010
2445.00,0.0010
2444.00,0.0010
2443.00,0.0009
2442.00,0.0009
2441.00,0.0009
2440.00,0.0009
2439.00,0.0009
2438.00,0.0010
2437.00,0.0010
2436.00,0.0010
2435.00,0.0010
2434.00,0.0010
2433.00,0.0009
2432.00,0.0010
2431.00,0.0010
2430.00,0.0011
2429.00,0.0011
2428.00,0.0011
2427.00,0.0011
2426.00,0.0010
2425.00,0.0010
2424.00,0.0009
2423.00,0.0009
2422.00,0.0008
2421.00,0.0008
2420.00,0.0009
2419.00,0.0009
2418.00,0.0009
2417.00,0.0009
2416.00,0.0008
2415.00,0.0008
2414.00,0.0008
2413.00,0.0008
2412.00,0.0008
2411.00,0.0009
2410.00,0.0009
2409.00,0.0010
2408.00,0.0010
2407.00,0.0009
2406.00,0.0009
2405.00,0.0008
2404.00,0.0008
2403.00,0.0008
2402.00,0.0008
2401.00,0.0007
2400.00,0.0007
2399.00,0.0007
2398.00,0.0008
2397.00,0.0008
2396.00,0.0009
2395.00,0.0008
2394.00,0.0008
2393.00,0.0007
2392.00,0.0007
2391.00,0.0008
2390.00,0.0008
2389.00,0.0008
2388.00,0.0007
2387.00,0.0006
2386.00,0.0005
2385.00,0.0005
2384.00,0.0005
2383.00,0.0005
2382.00,0.0005
2381.00,0.0005
2380.00,0.0004
2379.00,0.0005
2378.00,0.0005
2377.00,0.0005
2376.00,0.0005
2375.00,0.0005
2374.00,0.0005
2373.00,0.0004
2372.00,0.0004
2371.00,0.0004
2370.00,0.0004
2369.00,0.0004
2368.00,0.0004
2367.00,0.0005
2366.00,0.0005
2365.00,0.0005
2364.00,0.0004
2363.00,0.0004
2362.00,0.0005
2361.00,0.0005
2360.00,0.0006
2359.00,0.0007
2358.00,0.0008
2357.00,0.0008
2356.00,0.0007
2355.00,0.0007
2354.00,0.0006
2353.00,0.0005
2352.00,0.0005
2351.00,0.0005
2350.00,0.0005
2349.00,0.0006
2348.00,0.0006
2347.00,0.0006
2346.00,0.0005
2345.00,0.0006
2344.00,0.0006
2343.00,0.0006
2342.00,0.0006
2341.00,0.0007
2340.00,0.0008
2339.00,0.0008
2338.00,0.0008
2337.00,0.0008
2336.00,0.0008
2335.00,0.0008
2334.00,0.0008
2333.00,0.0008
2332.00,0.0007
2331.00,0.0007
2330.00,0.0007
2329.00,0.0008
2328.00,0.0010
2327.00,0.0013
2326.00,0.0017
2325.00,0.0019
2324.00,0.0020
2323.00,0.0020
2322.00,0.0018
2321.00,0.0016
2320.00,0.0014
2319.00,0.0013
2318.00,0.0012
2317.00,0.0011
2316.00,0.0010
2315.00,0.0010
2314.00,0.0009
2313.00,0.0008
2312.00,0.0007
2311.00,0.0007
2310.00,0.0008
2309.00,0.0008
2308.00,0.0009
2307.00,0.0009
2306.00,0.0009
2305.00,0.0009
2304.00,0.0009
2303.00,0.0009
2302.00,0.0009
2301.00,0.0010
2300.00,0.0011
2299.00,0.0011
2298.00,0.0012
2297.00,0.0012
2296.00,0.0013
2295.00,0.0013
2294.00,0.0013
2293.00,0.0014
2292.00,0.0014
2291.00,0.0014
2290.00,0.0015
2289.00,0.0015
2288.00,0.0015
2287.00,0.0016
2286.00,0.0016
2285.00,0.0016
2284.00,0.0016
2283.00,0.0016
2282.00,0.0016
2281.00,0.0016
2280.00,0.0015
2279.00,0.0014
2278.00,0.0014
2277.00,0.0013
2276.00,0.0014
2275.00,0.0014
2274.00,0.0015
2273.00,0.0014
2272.00,0.0014
2271.00,0.0012
2270.00,0.0011
2269.00,0.0010
2268.00,0.0009
2267.00,0.0009
2266.00,0.0010
2265.00,0.0010
2264.00,0.0011
2263.00,0.0010
2262.00,0.0010
2261.00,0.0010
2260.00,0.0011
2259.00,0.0012
2258.00,0.0012
2257.00,0.0012
2256.00,0.0012
2255.00,0.0011
2254.00,0.0010
2253.00,0.0008
2252.00,0.0007
2251.00,0.0006
2250.00,0.0007
2249.00,0.0009
2248.00,0.0011
2247.00,0.0011
2246.00,0.0010
2245.00,0.0009
2244.00,0.0008
2243.00,0.0008
2242.00,0.0009
2241.00,0.0009
2240.00,0.0009
2239.00,0.0009
2238.00,0.0008
2237.00,0.0007
2236.00,0.0008
2235.00,0.0008
2234.00,0.0009
2233.00,0.0009
2232.00,0.0009
2231.00,0.0009
2230.00,0.0008
2229.00,0.0007
2228.00,0.0006
2227.00,0.0006
2226.00,0.0006
2225.00,0.0007
2224.00,0.0009
2223.00,0.0010
2222.00,0.0010
2221.00,0.0009
2220.00,0.0006
2219.00,0.0004
2218.00,0.0002
2217.00,0.0002
2216.00,0.0004
2215.00,0.0005
2214.00,0.0006
2213.00,0.0006
2212.00,0.0005
2211.00,0.0003
2210.00,0.0003
2209.00,0.0004
2208.00,0.0006
2207.00,0.0007
2206.00,0.0008
2205.00,0.0008
2204.00,0.0006
2203.00,0.0004
2202.00,0.0002
2201.00,0.0002
2200.00,0.0003
2199.00,0.0003
2198.00,0.0004
2197.00,0.0005
2196.00,0.0006
2195.00,0.0008
2194.00,0.0009
2193.00,0.0009
2192.00,0.0009
2191.00,0.0010
2190.00,0.0010
2189.00,0.0010
2188.00,0.0011
2187.00,0.0011
2186.00,0.0012
2185.00,0.0013
2184.00,0.0013
2183.00,0.0011
2182.00,0.0008
2181.00,0.0004
2180.00,0.0003
2179.00,0.0004
2178.00,0.0005
2177.00,0.0005
2176.00,0.0002
2175.00,-0.0002
2174.00,-0.0005
2173.00,-0.0005
2172.00,-0.0003
2171.00,0.0001
2170.00,0.0005
2169.00,0.0009
2168.00,0.0011
2167.00,0.0011
2166.00,0.0011
2165.00,0.0013
2164.00,0.0015
2163.00,0.0016
2162.00,0.0014
2161.00,0.0006
2160.00,-0.0006
2159.00,-0.0019
2158.00,-0.0028
2157.00,-0.0030
2156.00,-0.0027
2155.00,-0.0022
2154.00,-0.0018
2153.00,-0.0015
2152.00,-0.0014
2151.00,-0.0013
2150.00,-0.0011
2149.00,-0.0010
2148.00,-0.0010
2147.00,-0.0012
2146.00,-0.0014
2145.00,-0.0015
2144.00,-0.0015
2143.00,-0.0014
2142.00,-0.0013
2141.00,-0.0013
2140.00,-0.0014
2139.00,-0.0013
2138.00,-0.0012
2137.00,-0.0012
2136.00,-0.0012
2135.00,-0.0013
2134.00,-0.0014
2133.00,-0.0013
2132.00,-0.0011
2131.00,-0.0010
2130.00,-0.0010
2129.00,-0.0010
2128.00,-0.0010
2127.00,-0.0009
2126.00,-0.0008
2125.00,-0.0007
2124.00,-0.0006
2123.00,-0.0005
2122.00,-0.0005
2121.00,-0.0004
2120.00,-0.0003
2119.00,-0.0003
2118.00,-0.0002
2117.00,-0.0000
2116.00,0.0002
2115.00,0.0003
2114.00,0.0003
2113.00,0.0002
2112.00,0.0002
2111.00,0.0001
2110.00,0.0001
2109.00,0.0001
2108.00,0.0001
2107.00,0.0001
2106.00,0.0001
2105.00,0.0001
2104.00,0.0002
2103.00,0.0003
2102.00,0.0003
2101.00,0.0004
2100.00,0.0004
2099.00,0.0004
2098.00,0.0003
2097.00,0.0002
2096.00,0.0000
2095.00,-0.0002
2094.00,-0.0003
2093.00,-0.0004
2092.00,-0.0004
2091.00,-0.0003
2090.00,-0.0002
2089.00,-0.0002
2088.00,-0.0001
2087.00,-0.0001
2086.00,-0.0001
2085.00,-0.0001
2084.00,-0.0002
2083.00,-0.0003
2082.00,-0.0001
2081.00,0.0001
2080.00,0.0004
2079.00,0.0005
2078.00,0.0005
2077.00,0.0005
2076.00,0.0005
2075.00,0.0004
2074.00,0.0002
2073.00,-0.0000
2072.00,-0.0002
2071.00,-0.0003
2070.00,-0.0003
2069.00,-0.0002
2068.00,-0.0000
2067.00,0.0000
2066.00,-0.0001
2065.00,-0.0003
2064.00,-0.0004
2063.00,-0.0004
2062.00,-0.0003
2061.00,-0.0002
2060.00,-0.0001
2059.00,0.0000
2058.00,0.0002
2057.00,0.0003
2056.00,0.0003
2055.00,0.0001
2054.00,0.0001
2053.00,0.0004
2052.00,0.0008
2051.00,0.0012
2050.00,0.0013
2049.00,0.0012
2048.00,0.0009
2047.00,0.0006
2046.00,0.0004
2045.00,0.0004
2044.00,0.0004
2043.00,0.0005
2042.00,0.0006
2041.00,0.0007
2040.00,0.0007
2039.00,0.0007
2038.00,0.0008
2037.00,0.0010
2036.00,0.0010
2035.00,0.0007
2034.00,0.0003
2033.00,-0.0001
2032.00,-0.0005
2031.00,-0.0009
2030.00,-0.0013
2029.00,-0.0015
2028.00,-0.0015
2027.00,-0.0013
2026.00,-0.0009
2025.00,-0.0006
2024.00,-0.0006
2023.00,-0.0008
2022.00,-0.0011
2021.00,-0.0013
2020.00,-0.0015
2019.00,-0.0015
2018.00,-0.0013
2017.00,-0.0011
2016.00,-0.0009
2015.00,-0.0009
2014.00,-0.0009
2013.00,-0.0009
2012.00,-0.0007
2011.00,-0.0006
2010.00,-0.0007
2009.00,-0.0009
2008.00,-0.0013
2007.00,-0.0017
2006.00,-0.0018
2005.00,-0.0016
2004.00,-0.0013
2003.00,-0.0011
2002.00,-0.0011
2001.00,-0.0010
2000.00,-0.0010
1999.00,-0.0011
1998.00,-0.0012
1997.00,-0.0014
1996.00,-0.0014
1995.00,-0.0014
1994.00,-0.0012
1993.00,-0.0009
1992.00,-0.0007
1991.00,-0.0007
1990.00,-0.0007
1989.00,-0.0006
1988.00,-0.0003
1987.00,-0.0001
1986.00,0.0001
1985.00,0.0001
1984.00,0.0001
1983.00,0.0001
1982.00,0.0001
1981.00,0.0002
1980.00,0.0000
1979.00,-0.0004
1978.00,-0.0010
1977.00,-0.0015
1976.00,-0.0017
1975.00,-0.0017
1974.00,-0.0015
1973.00,-0.0012
1972.00,-0.0010
1971.00,-0.0009
1970.00,-0.0011
1969.00,-0.0014
1968.00,-0.0016
1967.00,-0.0016
1966.00,-0.0016
1965.00,-0.0015
1964.00,-0.0014
1963.00,-0.0013
1962.00,-0.0012
1961.00,-0.0013
1960.00,-0.0014
1959.00,-0.0015
1958.00,-0.0016
1957.00,-0.0015
1956.00,-0.0014
1955.00,-0.0012
1954.00,-0.0011
1953.00,-0.0011
1952.00,-0.0012
1951.00,-0.0013
1950.00,-0.0015
1949.00,-0.0014
1948.00,-0.0013
1947.00,-0.0013
1946.00,-0.0013
1945.00,-0.0014
1944.00,-0.0015
1943.00,-0.0016
1942.00,-0.0017
1941.00,-0.0017
1940.00,-0.0017
1939.00,-0.0016
1938.00,-0.0016
1937.00,-0.0015
1936.00,-0.0013
1935.00,-0.0012
1934.00,-0.0010
1933.00,-0.0009
1932.00,-0.0009
1931.00,-0.0010
1930.00,-0.0010
1929.00,-0.0010
1928.00,-0.0009
1927.00,-0.0009
1926.00,-0.0008
1925.00,-0.0007
1924.00,-0.0007
1923.00,-0.0006
1922.00,-0.0007
1921.00,-0.0007
1920.00,-0.0007
1919.00,-0.0006
1918.00,-0.0006
1917.00,-0.0006
1916.00,-0.0007
1915.00,-0.0007
1914.00,-0.0006
1913.00,-0.0005
1912.00,-0.0003
1911.00,-0.0002
1910.00,-0.0002
1909.00,-0.0003
1908.00,-0.0003
1907.00,-0.0004
1906.00,-0.0003
1905.00,-0.0003
1904.00,-0.0002
1903.00,-0.0002
1902.00,-0.0002
1901.00,-0.0003
1900.00,-0.0003
1899.00,-0.0003
1898.00,-0.0002
1897.00,-0.0001
1896.00,-0.0000
1895.00,0.0001
1894.00,0.0001
1893.00,0.0000
1892.00,-0.0001
1891.00,-0.0002
1890.00,-0.0003
1889.00,-0.0003
1888.00,-0.0004
1887.00,-0.0004
1886.00,-0.0004
1885.00,-0.0003
1884.00,-0.0002
1883.00,-0.0002
1882.00,-0.0002
1881.00,-0.0002
1880.00,-0.0002
1879.00,-0.0002
1878.00,-0.0003
1877.00,-0.0003
1876.00,-0.0003
1875.00,-0.0002
1874.00,-0.0002
1873.00,-0.0001
1872.00,-0.0000
1871.00,0.0000
1870.00,0.0001
1869.00,0.0000
1868.00,-0.0000
1867.00,-0.0001
1866.00,-0.0001
1865.00,-0.0002
1864.00,-0.0002
1863.00,-0.0003
1862.00,-0.0002
1861.00,-0.0001
1860.00,-0.0001
1859.00,-0.0000
1858.00,-0.0001
1857.00,-0.0001
1856.00,-0.0000
1855.00,-0.0001
1854.00,-0.0001
1853.00,-0.0001
1852.00,-0.0001
1851.00,-0.0001
1850.00,-0.0000
1849.00,0.0000
1848.00,0.0000
1847.00,0.0000
1846.00,0.0000
1845.00,0.0000
1844.00,0.0001
1843.00,0.0001
1842.00,0.0002
1841.00,0.0002
1840.00,0.0002
1839.00,0.0002
1838.00,0.0002
1837.00,0.0002
1836.00,0.0002
1835.00,0.0003
1834.00,0.0003
1833.00,0.0003
1832.00,0.0002
1831.00,0.0002
1830.00,0.0002
1829.00,0.0002
1828.00,0.0002
1827.00,0.0002
1826.00,0.0002
1825.00,0.0003
1824.00,0.0003
1823.00,0.0003
1822.00,0.0003
1821.00,0.0003
1820.00,0.0003
1819.00,0.0002
1818.00,0.0001
1817.00,0.0000
1816.00,0.0000
1815.00,0.0001
1814.00,0.0001
1813.00,0.0002
1812.00,0.0002
1811.00,0.0003
1810.00,0.0003
1809.00,0.0003
1808.00,0.0003
1807.00,0.0003
1806.00,0.0003
1805.00,0.0003
1804.00,0.0003
1803.00,0.0003
1802.00,0.0003
1801.00,0.0004
1800.00,0.0004
1799.00,0.0005
1798.00,0.0006
1797.00,0.0006
1796.00,0.0006
1795.00,0.0005
1794.00,0.0005
1793.00,0.0005
1792.00,0.0006
1791.00,0.0006
1790.00,0.0006
1789.00,0.0006
1788.00,0.0006
1787.00,0.0007
1786.00,0.0007
1785.00,0.0007
1784.00,0.0007
1783.00,0.0007
1782.00,0.0007
1781.00,0.0007
1780.00,0.0008
1779.00,0.0008
1778.00,0.0008
1777.00,0.0008
1776.00,0.0008
1775.00,0.0008
1774.00,0.0008
1773.00,0.0009
1772.00,0.0009
1771.00,0.0009
1770.00,0.0009
1769.00,0.0009
1768.00,0.0009
1767.00,0.0010
1766.00,0.0010
1765.00,0.0010
1764.00,0.0011
1763.00,0.0011
1762.00,0.0012
1761.00,0.0013
1760.00,0.0013
1759.00,0.0014
1758.00,0.0015
1757.00,0.0016
1756.00,0.0017
1755.00,0.0017
1754.00,0.0017
1753.00,0.0018
1752.00,0.0020
1751.00,0.0021
1750.00,0.0022
1749.00,0.0024
1748.00,0.0025
1747.00,0.0025
1746.00,0.0026
1745.00,0.0027
1744.00,0.0028
1743.00,0.0029
1742.00,0.0030
1741.00,0.0031
1740.00,0.0031
1739.00,0.0031
1738.00,0.0030
1737.00,0.0030
1736.00,0.0030
1735.00,0.0030
1734.00,0.0030
1733.00,0.0030
1732.00,0.0030
1731.00,0.0029
1730.00,0.0029
1729.00,0.0028
1728.00,0.0028
1727.00,0.0028
1726.00,0.0028
1725.00,0.0028
1724.00,0.0027
1723.00,0.0027
1722.00,0.0027
1721.00,0.0027
1720.00,0.0027
1719.00,0.0026
1718.00,0.0026
1717.00,0.0025
1716.00,0.0026
1715.00,0.0026
1714.00,0.0026
1713.00,0.0025
1712.00,0.0025
1711.00,0.0024
1710.00,0.0024
1709.00,0.0024
1708.00,0.0024
1707.00,0.0023
1706.00,0.0024
1705.00,0.0024
1704.00,0.0024
1703.00,0.0025
1702.00,0.0025
1701.00,0.0026
1700.00,0.0027
1699.00,0.0028
1698.00,0.0028
1697.00,0.0028
1696.00,0.0029
1695.00,0.0029
1694.00,0.0030
1693.00,0.0031
1692.00,0.0031
1691.00,0.0032
1690.00,0.0032
1689.00,0.0032
1688.00,0.0033
1687.00,0.0034
1686.00,0.0035
1685.00,0.0036
1684.00,0.0037
1683.00,0.0038
1682.00,0.0039
1681.00,0.0040
1680.00,0.0041
1679.00,0.0042
1678.00,0.0042
1677.00,0.0043
1676.00,0.0044
1675.00,0.0044
1674.00,0.0045
1673.00,0.0045
1672.00,0.0046
1671.00,0.0047
1670.00,0.0048
1669.00,0.0049
1668.00,0.0049
1667.00,0.0049
1666.00,0.0049
1665.00,0.0049
1664.00,0.0050
1663.00,0.0051
1662.00,0.0052
1661.00,0.0052
1660.00,0.0052
1659.00,0.0053
1658.00,0.0053
1657.00,0.0053
1656.00,0.0054
1655.00,0.0055
1654.00,0.0058
1653.00,0.0060
1652.00,0.0062
1651.00,0.0062
1650.00,0.0063
1649.00,0.0064
1648.00,0.0066
1647.00,0.0069
1646.00,0.0070
1645.00,0.0070
1644.00,0.0069
1643.00,0.0068
1642.00,0.0066
1641.00,0.0065
1640.00,0.0065
1639.00,0.0065
1638.00,0.0064
1637.00,0.0065
1636.00,0.0064
1635.00,0.0063
1634.00,0.0062
1633.00,0.0062
1632.00,0.0062
1631.00,0.0062
1630.00,0.0061
1629.00,0.0061
1628.00,0.0060
1627.00,0.0059
1626.00,0.0058
1625.00,0.0057
1624.00,0.0056
1623.00,0.0055
1622.00,0.0055
1621.00,0.0055
1620.00,0.0055
1619.00,0.0055
1618.00,0.0054
1617.00,0.0054
1616.00,0.0054
1615.00,0.0054
1614.00,0.0053
1613.00,0.0053
1612.00,0.0053
1611.00,0.0053
1610.00,0.0052
1609.00,0.0052
1608.00,0.0053
1607.00,0.0053
1606.00,0.0052
1605.00,0.0052
1604.00,0.0052
1603.00,0.0052
1602.00,0.0052
1601.00,0.0052
1600.00,0.0052
1599.00,0.0051
1598.00,0.0051
1597.00,0.0050
1596.00,0.0050
1595.00,0.0050
1594.00,0.0049
1593.00,0.0049
1592.00,0.0049
1591.00,0.0049
1590.00,0.0049
1589.00,0.0049
1588.00,0.0049
1587.00,0.0050
1586.00,0.0050
1585.00,0.0051
1584.00,0.0051
1583.00,0.0052
1582.00,0.0053
1581.00,0.0054
1580.00,0.0055
1579.00,0.0056
1578.00,0.0057
1577.00,0.0058
1576.00,0.0059
1575.00,0.0058
1574.00,0.0058
1573.00,0.0058
1572.00,0.0058
1571.00,0.0058
1570.00,0.0058
1569.00,0.0058
1568.00,0.0058
1567.00,0.0059
1566.00,0.0059
1565.00,0.0059
1564.00,0.0059
1563.00,0.0059
1562.00,0.0059
1561.00,0.0060
1560.00,0.0061
1559.00,0.0060
1558.00,0.0059
1557.00,0.0060
1556.00,0.0060
1555.00,0.0061
1554.00,0.0061
1553.00,0.0062
1552.00,0.0062
1551.00,0.0062
1550.00,0.0063
1549.00,0.0064
1548.00,0.0065
1547.00,0.0065
1546.00,0.0066
1545.00,0.0066
1544.00,0.0066
1543.00,0.0066
1542.00,0.0066
1541.00,0.0066
1540.00,0.0065
1539.00,0.0064
1538.00,0.0063
1537.00,0.0062
1536.00,0.0062
1535.00,0.0061
1534.00,0.0059
1533.00,0.0057
1532.00,0.0056
1531.00,0.0055
1530.00,0.0054
1529.00,0.0053
1528.00,0.0053
1527.00,0.0053
1526.00,0.0053
1525.00,0.0053
1524.00,0.0053
1523.00,0.0053
1522.00,0.0052
1521.00,0.0052
1520.00,0.0053
1519.00,0.0053
1518.00,0.0053
1517.00,0.0054
1516.00,0.0054
1515.00,0.0055
1514.00,0.0055
1513.00,0.0056
1512.00,0.0057
1511.00,0.0057
1510.00,0.0058
1509.00,0.0059
1508.00,0.0060
1507.00,0.0060
1506.00,0.0060
1505.00,0.0061
1504.00,0.0063
1503.00,0.0064
1502.00,0.0066
1501.00,0.0068
1500.00,0.0071
1499.00,0.0074
1498.00,0.0076
1497.00,0.0080
1496.00,0.0083
1495.00,0.0085
1494.00,0.0087
1493.00,0.0090
1492.00,0.0093
1491.00,0.0096
1490.00,0.0100
1489.00,0.0105
1488.00,0.0110
1487.00,0.0114
1486.00,0.0119
1485.00,0.0125
1484.00,0.0131
1483.00,0.0138
1482.00,0.0146
1481.00,0.0156
1480.00,0.0168
1479.00,0.0180
1478.00,0.0195
1477.00,0.0215
1476.00,0.0240
1475.00,0.0269
1474.00,0.0308
1473.00,0.0364
1472.00,0.0430
1471.00,0.0494
1470.00,0.0556
1469.00,0.0620
1468.00,0.0688
1467.00,0.0762
1466.00,0.0844
1465.00,0.0932
1464.00,0.1010
1463.00,0.1065
1462.00,0.1100
1461.00,0.1124
1460.00,0.1141
1459.00,0.1154
1458.00,0.1166
1457.00,0.1177
1456.00,0.1181
1455.00,0.1175
1454.00,0.1164
1453.00,0.1148
1452.00,0.1124
1451.00,0.1088
1450.00,0.1040
1449.00,0.0972
1448.00,0.0886
1447.00,0.0794
1446.00,0.0709
1445.00,0.0635
1444.00,0.0571
1443.00,0.0518
1442.00,0.0478
1441.00,0.0449
1440.00,0.0431
1439.00,0.0422
1438.00,0.0419
1437.00,0.0417
1436.00,0.0405
1435.00,0.0381
1434.00,0.0347
1433.00,0.0307
1432.00,0.0266
1431.00,0.0230
1430.00,0.0201
1429.00,0.0180
1428.00,0.0164
1427.00,0.0155
1426.00,0.0148
1425.00,0.0142
1424.00,0.0137
1423.00,0.0134
1422.00,0.0132
1421.00,0.0131
1420.00,0.0128
1419.00,0.0125
1418.00,0.0123
1417.00,0.0120
1416.00,0.0117
1415.00,0.0116
1414.00,0.0115
1413.00,0.0113
1412.00,0.0111
1411.00,0.0110
1410.00,0.0110
1409.00,0.0109
1408.00,0.0107
1407.00,0.0107
1406.00,0.0108
1405.00,0.0108
1404.00,0.0108
1403.00,0.0109
1402.00,0.0110
1401.00,0.0111
1400.00,0.0111
1399.00,0.0112
1398.00,0.0114
1397.00,0.0116
1396.00,0.0119
1395.00,0.0123
1394.00,0.0129
1393.00,0.0133
1392.00,0.0137
1391.00,0.0144
1390.00,0.0154
1389.00,0.0168
1388.00,0.0189
1387.00,0.0220
1386.00,0.0262
1385.00,0.0318
1384.00,0.0394
1383.00,0.0501
1382.00,0.0644
1381.00,0.0825
1380.00,0.1045
1379.00,0.1287
1378.00,0.1514
1377.00,0.1671
1376.00,0.1711
1375.00,0.1613
1374.00,0.1405
1373.00,0.1161
1372.00,0.0940
1371.00,0.0759
1370.00,0.0615
1369.00,0.0506
1368.00,0.0431
1367.00,0.0384
1366.00,0.0357
1365.00,0.0346
1364.00,0.0347
1363.00,0.0359
1362.00,0.0377
1361.00,0.0396
1360.00,0.0411
1359.00,0.0415
1358.00,0.0405
1357.00,0.0383
1356.00,0.0352
1355.00,0.0317
1354.00,0.0283
1353.00,0.0253
1352.00,0.0229
1351.00,0.0209
1350.00,0.0192
1349.00,0.0179
1348.00,0.0168
1347.00,0.0159
1346.00,0.0151
1345.00,0.0144
1344.00,0.0138
1343.00,0.0133
1342.00,0.0128
1341.00,0.0124
1340.00,0.0120
1339.00,0.0118
1338.00,0.0116
1337.00,0.0116
1336.00,0.0117
1335.00,0.0119
1334.00,0.0122
1333.00,0.0125
1332.00,0.0129
1331.00,0.0132
1330.00,0.0133
1329.00,0.0132
1328.00,0.0129
1327.00,0.0125
1326.00,0.0121
1325.00,0.0116
1324.00,0.0111
1323.00,0.0106
1322.00,0.0102
1321.00,0.0100
1320.00,0.0097
1319.00,0.0096
1318.00,0.0094
1317.00,0.0093
1316.00,0.0092
1315.00,0.0091
1314.00,0.0092
1313.00,0.0092
1312.00,0.0094
1311.00,0.0097
1310.00,0.0101
1309.00,0.0108
1308.00,0.0118
1307.00,0.0130
1306.00,0.0142
1305.00,0.0151
1304.00,0.0153
1303.00,0.0150
1302.00,0.0143
1301.00,0.0137
1300.00,0.0132
1299.00,0.0130
1298.00,0.0129
1297.00,0.0128
1296.00,0.0127
1295.00,0.0124
1294.00,0.0121
1293.00,0.0116
1292.00,0.0111
1291.00,0.0107
1290.00,0.0103
1289.00,0.0099
1288.00,0.0096
1287.00,0.0094
1286.00,0.0092
1285.00,0.0091
1284.00,0.0089
1283.00,0.0088
1282.00,0.0087
1281.00,0.0086
1280.00,0.0084
1279.00,0.0084
1278.00,0.0083
1277.00,0.0083
1276.00,0.0083
1275.00,0.0082
1274.00,0.0082
1273.00,0.0082
1272.00,0.0082
1271.00,0.0083
1270.00,0.0084
1269.00,0.0085
1268.00,0.0087
1267.00,0.0089
1266.00,0.0092
1265.00,0.0094
1264.00,0.0096
1263.00,0.0099
1262.00,0.0103
1261.00,0.0108
1260.00,0.0115
1259.00,0.0123
1258.00,0.0131
1257.00,0.0138
1256.00,0.0142
1255.00,0.0140
1254.00,0.0133
1253.00,0.0124
1252.00,0.0114
1251.00,0.0106
1250.00,0.0100
1249.00,0.0096
1248.00,0.0093
1247.00,0.0091
1246.00,0.0089
1245.00,0.0087
1244.00,0.0085
1243.00,0.0083
1242.00,0.0082
1241.00,0.0081
1240.00,0.0080
1239.00,0.0080
1238.00,0.0079
1237.00,0.0079
1236.00,0.0078
1235.00,0.0078
1234.00,0.0079
1233.00,0.0079
1232.00,0.0079
1231.00,0.0080
1230.00,0.0081
1229.00,0.0081
1228.00,0.0082
1227.00,0.0084
1226.00,0.0086
1225.00,0.0088
1224.00,0.0091
1223.00,0.0094
1222.00,0.0097
1221.00,0.0100
1220.00,0.0101
1219.00,0.0101
1218.00,0.0100
1217.00,0.0099
1216.00,0.0097
1215.00,0.0095
1214.00,0.0092
1213.00,0.0090
1212.00,0.0087
1211.00,0.0085
1210.00,0.0084
1209.00,0.0083
1208.00,0.0082
1207.00,0.0081
1206.00,0.0081
1205.00,0.0080
1204.00,0.0080
1203.00,0.0080
1202.00,0.0079
1201.00,0.0079
1200.00,0.0079
1199.00,0.0078
1198.00,0.0079
1197.00,0.0079
1196.00,0.0080
1195.00,0.0080
1194.00,0.0081
1193.00,0.0081
1192.00,0.0081
1191.00,0.0081
1190.00,0.0081
1189.00,0.0082
1188.00,0.0082
1187.00,0.0083
1186.00,0.0083
1185.00,0.0084
1184.00,0.0086
1183.00,0.0088
1182.00,0.0091
1181.00,0.0094
1180.00,0.0098
1179.00,0.0103
1178.00,0.0111
1177.00,0.0120
1176.00,0.0133
1175.00,0.0150
1174.00,0.0171
1173.00,0.0199
1172.00,0.0231
1171.00,0.0267
1170.00,0.0303
1169.00,0.0332
1168.00,0.0349
1167.00,0.0352
1166.00,0.0342
1165.00,0.0325
1164.00,0.0304
1163.00,0.0283
1162.00,0.0265
1161.00,0.0250
1160.00,0.0238
1159.00,0.0229
1158.00,0.0222
1157.00,0.0217
1156.00,0.0212
1155.00,0.0209
1154.00,0.0206
1153.00,0.0202
1152.00,0.0198
1151.00,0.0191
1150.00,0.0183
1149.00,0.0173
1148.00,0.0164
1147.00,0.0156
1146.00,0.0148
1145.00,0.0140
1144.00,0.0132
1143.00,0.0124
1142.00,0.0117
1141.00,0.0111
1140.00,0.0105
1139.00,0.0101
1138.00,0.0099
1137.00,0.0096
1136.00,0.0094
1135.00,0.0092
1134.00,0.0090
1133.00,0.0089
1132.00,0.0088
1131.00,0.0087
1130.00,0.0087
1129.00,0.0087
1128.00,0.0087
1127.00,0.0087
1126.00,0.0088
1125.00,0.0089
1124.00,0.0090
1123.00,0.0091
1122.00,0.0092
1121.00,0.0093
1120.00,0.0094
1119.00,0.0095
1118.00,0.0097
1117.00,0.0097
1116.00,0.0097
1115.00,0.0098
1114.00,0.0098
1113.00,0.0099
1112.00,0.0101
1111.00,0.0102
1110.00,0.0105
1109.00,0.0108
1108.00,0.0112
1107.00,0.0117
1106.00,0.0123
1105.00,0.0128
1104.00,0.0132
1103.00,0.0134
1102.00,0.0133
1101.00,0.0129
1100.00,0.0124
1099.00,0.0118
1098.00,0.0113
1097.00,0.0108
1096.00,0.0104
1095.00,0.0101
1094.00,0.0099
1093.00,0.0096
1092.00,0.0093
1091.00,0.0090
1090.00,0.0089
1089.00,0.0088
1088.00,0.0088
1087.00,0.0088
1086.00,0.0088
1085.00,0.0089
1084.00,0.0090
1083.00,0.0089
1082.00,0.0089
1081.00,0.0088
1080.00,0.0086
1079.00,0.0085
1078.00,0.0085
1077.00,0.0085
1076.00,0.0084
1075.00,0.0083
1074.00,0.0082
1073.00,0.0081
1072.00,0.0081
1071.00,0.0081
1070.00,0.0081
1069.00,0.0082
1068.00,0.0082
1067.00,0.0082
1066.00,0.0084
1065.00,0.0085
1064.00,0.0085
1063.00,0.0086
1062.00,0.0087
1061.00,0.0088
1060.00,0.0089
1059.00,0.0090
1058.00,0.0092
1057.00,0.0093
1056.00,0.0094
1055.00,0.0095
1054.00,0.0096
1053.00,0.0099
1052.00,0.0103
1051.00,0.0108
1050.00,0.0113
1049.00,0.0118
1048.00,0.0124
1047.00,0.0129
1046.00,0.0133
1045.00,0.0136
1044.00,0.0137
1043.00,0.0135
1042.00,0.0132
1041.00,0.0127
1040.00,0.0124
1039.00,0.0122
1038.00,0.0121
1037.00,0.0120
1036.00,0.0121
1035.00,0.0120
1034.00,0.0120
1033.00,0.0119
1032.00,0.0118
1031.00,0.0118
1030.00,0.0117
1029.00,0.0117
1028.00,0.0118
1027.00,0.0119
1026.00,0.0120
1025.00,0.0122
1024.00,0.0124
1023.00,0.0126
1022.00,0.0129
1021.00,0.0131
1020.00,0.0133
1019.00,0.0135
1018.00,0.0137
1017.00,0.0139
1016.00,0.0140
1015.00,0.0140
1014.00,0.0140
1013.00,0.0139
1012.00,0.0139
1011.00,0.0139
1010.00,0.0140
1009.00,0.0142
1008.00,0.0146
1007.00,0.0152
1006.00,0.0161
1005.00,0.0173
1004.00,0.0191
1003.00,0.0216
1002.00,0.0251
1001.00,0.0294
1000.00,0.0340
999.00,0.0380
998.00,0.0400
997.00,0.0394
996.00,0.0364
995.00,0.0319
994.00,0.0270
993.00,0.0228
992.00,0.0195
991.00,0.0172
990.00,0.0155
989.00,0.0144
988.00,0.0136
987.00,0.0132
986.00,0.0131
985.00,0.0132
984.00,0.0136
983.00,0.0143
982.00,0.0154
981.00,0.0170
980.00,0.0193
979.00,0.0223
978.00,0.0262
977.00,0.0308
976.00,0.0359
975.00,0.0408
974.00,0.0447
973.00,0.0462
972.00,0.0448
971.00,0.0406
970.00,0.0348
969.00,0.0289
968.00,0.0238
967.00,0.0199
966.00,0.0171
965.00,0.0150
964.00,0.0135
963.00,0.0124
962.00,0.0115
961.00,0.0109
960.00,0.0103
959.00,0.0099
958.00,0.0095
957.00,0.0092
956.00,0.0090
955.00,0.0088
954.00,0.0087
953.00,0.0086
952.00,0.0084
951.00,0.0082
950.00,0.0080
949.00,0.0079
948.00,0.0079
947.00,0.0079
946.00,0.0081
945.00,0.0083
944.00,0.0085
943.00,0.0088
942.00,0.0091
941.00,0.0093
940.00,0.0093
939.00,0.0091
938.00,0.0087
937.00,0.0082
936.00,0.0078
935.00,0.0074
934.00,0.0072
933.00,0.0070
932.00,0.0069
931.00,0.0068
930.00,0.0067
929.00,0.0066
928.00,0.0065
927.00,0.0064
926.00,0.0064
925.00,0.0065
924.00,0.0065
923.00,0.0065
922.00,0.0065
921.00,0.0063
920.00,0.0062
919.00,0.0061
918.00,0.0061
917.00,0.0061
916.00,0.0062
915.00,0.0064
914.00,0.0065
913.00,0.0067
912.00,0.0069
911.00,0.0070
910.00,0.0072
909.00,0.0074
908.00,0.0076
907.00,0.0080
906.00,0.0085
905.00,0.0095
904.00,0.0107
903.00,0.0122
902.00,0.0139
901.00,0.0155
900.00,0.0165
899.00,0.0168
898.00,0.0162
897.00,0.0148
896.00,0.0132
895.00,0.0117
894.00,0.0105
893.00,0.0096
892.00,0.0089
891.00,0.0084
890.00,0.0080
889.00,0.0078
888.00,0.0077
887.00,0.0075
886.00,0.0074
885.00,0.0074
884.00,0.0073
883.00,0.0073
882.00,0.0073
881.00,0.0073
880.00,0.0073
879.00,0.0074
878.00,0.0075
877.00,0.0075
876.00,0.0076
875.00,0.0076
874.00,0.0076
873.00,0.0077
872.00,0.0078
871.00,0.0079
870.00,0.0079
869.00,0.0079
868.00,0.0080
867.00,0.0080
866.00,0.0081
865.00,0.0081
864.00,0.0082
863.00,0.0083
862.00,0.0086
861.00,0.0088
860.00,0.0089
859.00,0.0090
858.00,0.0090
857.00,0.0091
856.00,0.0093
855.00,0.0095
854.00,0.0097
853.00,0.0099
852.00,0.0101
851.00,0.0104
850.00,0.0108
849.00,0.0116
848.00,0.0127
847.00,0.0143
846.00,0.0167
845.00,0.0204
844.00,0.0257
843.00,0.0320
842.00,0.0372
841.00,0.0392
840.00,0.0368
839.00,0.0312
838.00,0.0248
837.00,0.0197
836.00,0.0163
835.00,0.0143
834.00,0.0131
833.00,0.0123
832.00,0.0118
831.00,0.0114
830.00,0.0111
829.00,0.0109
828.00,0.0106
827.00,0.0104
826.00,0.0102
825.00,0.0101
824.00,0.0101
823.00,0.0101
822.00,0.0101
821.00,0.0102
820.00,0.0102
819.00,0.0104
818.00,0.0107
817.00,0.0112
816.00,0.0119
815.00,0.0128
814.00,0.0140
813.00,0.0156
812.00,0.0175
811.00,0.0193
810.00,0.0207
809.00,0.0213
808.00,0.0208
807.00,0.0196
806.00,0.0179
805.00,0.0163
804.00,0.0148
803.00,0.0136
802.00,0.0127
801.00,0.0120
800.00,0.0114
799.00,0.0109
798.00,0.0104
797.00,0.0102
796.00,0.0100
795.00,0.0098
794.00,0.0095
793.00,0.0093
792.00,0.0090
791.00,0.0087
790.00,0.0084
789.00,0.0081
788.00,0.0079
787.00,0.0076
786.00,0.0074
785.00,0.0071
784.00,0.0070
783.00,0.0069
782.00,0.0068
781.00,0.0067
780.00,0.0067
779.00,0.0067
778.00,0.0066
777.00,0.0065
776.00,0.0064
775.00,0.0064
774.00,0.0064
773.00,0.0065
772.00,0.0065
771.00,0.0066
770.00,0.0067
769.00,0.0067
768.00,0.0067
767.00,0.0067
766.00,0.0067
765.00,0.0068
764.00,0.0068
763.00,0.0067
762.00,0.0067
761.00,0.0067
760.00,0.0067
759.00,0.0067
758.00,0.0067
757.00,0.0067
756.00,0.0067
755.00,0.0068
754.00,0.0069
753.00,0.0071
752.00,0.0073
751.00,0.0075
750.00,0.0077
749.00,0.0078
748.00,0.0079
747.00,0.0081
746.00,0.0082
745.00,0.0084
744.00,0.0086
743.00,0.0088
742.00,0.0092
741.00,0.0096
740.00,0.0100
739.00,0.0104
738.00,0.0108
737.00,0.0113
736.00,0.0118
735.00,0.0122
734.00,0.0127
733.00,0.0132
732.00,0.0138
731.00,0.0144
730.00,0.0148
729.00,0.0152
728.00,0.0153
727.00,0.0153
726.00,0.0153
725.00,0.0154
724.00,0.0159
723.00,0.0165
722.00,0.0171
721.00,0.0175
720.00,0.0173
719.00,0.0165
718.00,0.0153
717.00,0.0140
716.00,0.0129
715.00,0.0122
714.00,0.0118
713.00,0.0115
712.00,0.0111
711.00,0.0107
710.00,0.0102
709.00,0.0099
708.00,0.0097
707.00,0.0096
706.00,0.0097
705.00,0.0097
704.00,0.0096
703.00,0.0095
702.00,0.0093
701.00,0.0093
700.00,0.0092
699.00,0.0092
698.00,0.0092
697.00,0.0092
696.00,0.0092
695.00,0.0092
694.00,0.0093
693.00,0.0094
692.00,0.0095
691.00,0.0095
690.00,0.0095
689.00,0.0094
688.00,0.0092
687.00,0.0091
686.00,0.0091
685.00,0.0092
684.00,0.0093
683.00,0.0094
682.00,0.0095
681.00,0.0096
680.00,0.0097
679.00,0.0097
678.00,0.0096
677.00,0.0096
676.00,0.0095
675.00,0.0096
674.00,0.0098
673.00,0.0101
672.00,0.0104
671.00,0.0106
670.00,0.0106
669.00,0.0104
668.00,0.0102
667.00,0.0099
666.00,0.0095
665.00,0.0093
664.00,0.0092
663.00,0.0092
662.00,0.0092
661.00,0.0092
660.00,0.0090
659.00,0.0088
658.00,0.0086
657.00,0.0085
656.00,0.0085
655.00,0.0086
654.00,0.0088
653.00,0.0090
652.00,0.0092
651.00,0.0092
650.00,0.0091
649.00,0.0090
648.00,0.0089
647.00,0.0088
646.00,0.0088
645.00,0.0087
644.00,0.0085
643.00,0.0083
642.00,0.0082
641.00,0.0084
640.00,0.0086
639.00,0.0087
638.00,0.0087
637.00,0.0087
636.00,0.0087
635.00,0.0087
634.00,0.0088
633.00,0.0086
632.00,0.0084
631.00,0.0083
630.00,0.0084
629.00,0.0085
628.00,0.0086
627.00,0.0086
626.00,0.0087
625.00,0.0087
624.00,0.0087
623.00,0.0086
622.00,0.0086
621.00,0.0086
620.00,0.0085
619.00,0.0084
618.00,0.0083
617.00,0.0083
616.00,0.0083
615.00,0.0084
614.00,0.0085
613.00,0.0086
612.00,0.0086
611.00,0.0087
610.00,0.0087
609.00,0.0086
608.00,0.0083
607.00,0.0078
606.00,0.0074
605.00,0.0073
604.00,0.0074
603.00,0.0076
602.00,0.0078
601.00,0.0081
600.00,0.0084
599.00,0.0086
598.00,0.0087
597.00,0.0088
596.00,0.0087
595.00,0.0087
594.00,0.0088
593.00,0.0088
592.00,0.0089
591.00,0.0089
590.00,0.0090
589.00,0.0091
588.00,0.0092
587.00,0.0092
586.00,0.0091
585.00,0.0089
584.00,0.0088
583.00,0.0088
582.00,0.0089
581.00,0.0089
580.00,0.0089
579.00,0.0087
578.00,0.0085
577.00,0.0082
576.00,0.0079
575.00,0.0079
574.00,0.0081
573.00,0.0084
572.00,0.0086
571.00,0.0088
570.00,0.0089
569.00,0.0088
568.00,0.0085
567.00,0.0082
566.00,0.0081
565.00,0.0082
564.00,0.0083
563.00,0.0082
562.00,0.0080
561.00,0.0078
560.00,0.0077
559.00,0.0077
558.00,0.0078
557.00,0.0079
556.00,0.0083
555.00,0.0088
554.00,0.0094
553.00,0.0096
552.00,0.0095
551.00,0.0092
550.00,0.0090
549.00,0.0091
548.00,0.0094
547.00,0.0097
546.00,0.0100
545.00,0.0103
544.00,0.0104
543.00,0.0106
542.00,0.0109
541.00,0.0114
540.00,0.0116
539.00,0.0115
538.00,0.0112
537.00,0.0109
536.00,0.0109
535.00,0.0112
534.00,0.0117
533.00,0.0121
532.00,0.0124
531.00,0.0123
530.00,0.0123
529.00,0.0123
528.00,0.0122
527.00,0.0120
526.00,0.0117
525.00,0.0115
524.00,0.0115
523.00,0.0113
522.00,0.0107
521.00,0.0099
520.00,0.0093
519.00,0.0092
518.00,0.0094
517.00,0.0094
516.00,0.0092
515.00,0.0091
514.00,0.0089
513.00,0.0088
512.00,0.0086
511.00,0.0085
510.00,0.0084
509.00,0.0084
508.00,0.0085
507.00,0.0085
506.00,0.0085
505.00,0.0084
504.00,0.0084
503.00,0.0088
502.00,0.0094
501.00,0.0097
500.00,0.0095
499.00,0.0093
498.00,0.0093
497.00,0.0097
496.00,0.0101
495.00,0.0102
494.00,0.0102
493.00,0.0101
492.00,0.0101
491.00,0.0102
490.00,0.0105
489.00,0.0107
488.00,0.0107
487.00,0.0105
486.00,0.0101
485.00,0.0097
484.00,0.0095
483.00,0.0097
482.00,0.0104
481.00,0.0114
480.00,0.0121
479.00,0.0123
478.00,0.0120
477.00,0.0111
476.00,0.0099
475.00,0.0092
474.00,0.0092
473.00,0.0095
472.00,0.0094
471.00,0.0091
470.00,0.0093
469.00,0.0105
468.00,0.0124
467.00,0.0144
466.00,0.0164
465.00,0.0180
464.00,0.0190
463.00,0.0195
462.00,0.0200
461.00,0.0209
460.00,0.0218
459.00,0.0218
458.00,0.0209
457.00,0.0197
456.00,0.0189
455.00,0.0186
454.00,0.0185
453.00,0.0188
452.00,0.0192
451.00,0.0195
450.00,0.0190
