Created as New Dataset,Sample 192 By Administrator Date Wednesday, September 10 2025
cm-1,A
4000.00,0.0019
3999.00,0.0019
3998.00,0.0019
3997.00,0.0019
3996.00,0.0019
3995.00,0.0019
3994.00,0.0019
3993.00,0.0019
3992.00,0.0019
3991.00,0.0019
3990.00,0.0019
3989.00,0.0018
3988.00,0.0018
3987.00,0.0018
3986.00,0.0018
3985.00,0.0018
3984.00,0.0018
3983.00,0.0018
3982.00,0.0018
3981.00,0.0018
3980.00,0.0018
3979.00,0.0018
3978.00,0.0018
3977.00,0.0018
3976.00,0.0018
3975.00,0.0018
3974.00,0.0017
3973.00,0.0017
3972.00,0.0017
3971.00,0.0017
3970.00,0.0017
3969.00,0.0017
3968.00,0.0017
3967.00,0.0017
3966.00,0.0017
3965.00,0.0017
3964.00,0.0017
3963.00,0.0017
3962.00,0.0017
3961.00,0.0017
3960.00,0.0018
3959.00,0.0018
3958.00,0.0018
3957.00,0.0018
3956.00,0.0017
3955.00,0.0017
3954.00,0.0017
3953.00,0.0017
3952.00,0.0017
3951.00,0.0017
3950.00,0.0017
3949.00,0.0017
3948.00,0.0018
3947.00,0.0017
3946.00,0.0017
3945.00,0.0017
3944.00,0.0017
3943.00,0.0017
3942.00,0.0017
3941.00,0.0016
3940.00,0.0016
3939.00,0.0017
3938.00,0.0017
3937.00,0.0017
3936.00,0.0017
3935.00,0.0017
3934.00,0.0016
3933.00,0.0016
3932.00,0.0016
3931.00,0.0017
3930.00,0.0017
3929.00,0.0017
3928.00,0.0017
3927.00,0.0018
3926.00,0.0018
3925.00,0.0018
3924.00,0.0018
3923.00,0.0018
3922.00,0.0018
3921.00,0.0018
3920.00,0.0018
3919.00,0.0019
3918.00,0.0018
3917.00,0.0018
3916.00,0.0018
3915.00,0.0017
3914.00,0.0017
3913.00,0.0018
3912.00,0.0018
3911.00,0.0018
3910.00,0.0018
3909.00,0.0018
3908.00,0.0018
3907.00,0.0017
3906.00,0.0017
3905.00,0.0017
3904.00,0.0017
3903.00,0.0016
3902.00,0.0016
3901.00,0.0016
3900.00,0.0016
3899.00,0.0016
3898.00,0.0016
3897.00,0.0017
3896.00,0.0017
3895.00,0.0017
3894.00,0.0017
3893.00,0.0017
3892.00,0.0017
3891.00,0.0017
3890.00,0.0017
3889.00,0.0017
3888.00,0.0017
3887.00,0.0017
3886.00,0.0017
3885.00,0.0017
3884.00,0.0017
3883.00,0.0016
3882.00,0.0016
3881.00,0.0016
3880.00,0.0016
3879.00,0.0017
3878.00,0.0017
3877.00,0.0017
3876.00,0.0017
3875.00,0.0017
3874.00,0.0017
3873.00,0.0017
3872.00,0.0017
3871.00,0.0016
3870.00,0.0016
3869.00,0.0016
3868.00,0.0016
3867.00,0.0016
3866.00,0.0016
3865.00,0.0016
3864.00,0.0017
3863.00,0.0016
3862.00,0.0016
3861.00,0.0016
3860.00,0.0017
3859.00,0.0017
3858.00,0.0017
3857.00,0.0017
3856.00,0.0016
3855.00,0.0016
3854.00,0.0017
3853.00,0.0017
3852.00,0.0016
3851.00,0.0016
3850.00,0.0016
3849.00,0.0016
3848.00,0.0016
3847.00,0.0016
3846.00,0.0016
3845.00,0.0016
3844.00,0.0016
3843.00,0.0017
3842.00,0.0017
3841.00,0.0017
3840.00,0.0017
3839.00,0.0017
3838.00,0.0016
3837.00,0.0016
3836.00,0.0016
3835.00,0.0016
3834.00,0.0016
3833.00,0.0016
3832.00,0.0016
3831.00,0.0016
3830.00,0.0016
3829.00,0.0016
3828.00,0.0016
3827.00,0.0017
3826.00,0.0017
3825.00,0.0017
3824.00,0.0017
3823.00,0.0016
3822.00,0.0017
3821.00,0.0018
3820.00,0.0018
3819.00,0.0018
3818.00,0.0017
3817.00,0.0017
3816.00,0.0017
3815.00,0.0017
3814.00,0.0017
3813.00,0.0017
3812.00,0.0017
3811.00,0.0018
3810.00,0.0018
3809.00,0.0018
3808.00,0.0018
3807.00,0.0018
3806.00,0.0017
3805.00,0.0017
3804.00,0.0016
3803.00,0.0016
3802.00,0.0016
3801.00,0.0016
3800.00,0.0015
3799.00,0.0015
3798.00,0.0015
3797.00,0.0016
3796.00,0.0016
3795.00,0.0016
3794.00,0.0016
3793.00,0.0016
3792.00,0.0016
3791.00,0.0016
3790.00,0.0016
3789.00,0.0016
3788.00,0.0016
3787.00,0.0016
3786.00,0.0017
3785.00,0.0017
3784.00,0.0017
3783.00,0.0016
3782.00,0.0016
3781.00,0.0016
3780.00,0.0016
3779.00,0.0016
3778.00,0.0017
3777.00,0.0017
3776.00,0.0017
3775.00,0.0017
3774.00,0.0017
3773.00,0.0017
3772.00,0.0016
3771.00,0.0016
3770.00,0.0017
3769.00,0.0017
3768.00,0.0017
3767.00,0.0018
3766.00,0.0018
3765.00,0.0018
3764.00,0.0018
3763.00,0.0018
3762.00,0.0018
3761.00,0.0018
3760.00,0.0018
3759.00,0.0018
3758.00,0.0017
3757.00,0.0017
3756.00,0.0017
3755.00,0.0017
3754.00,0.0017
3753.00,0.0017
3752.00,0.0017
3751.00,0.0017
3750.00,0.0017
3749.00,0.0017
3748.00,0.0017
3747.00,0.0017
3746.00,0.0017
3745.00,0.0017
3744.00,0.0017
3743.00,0.0016
3742.00,0.0016
3741.00,0.0015
3740.00,0.0015
3739.00,0.0015
3738.00,0.0015
3737.00,0.0015
3736.00,0.0015
3735.00,0.0015
3734.00,0.0014
3733.00,0.0014
3732.00,0.0014
3731.00,0.0014
3730.00,0.0015
3729.00,0.0015
3728.00,0.0015
3727.00,0.0015
3726.00,0.0015
3725.00,0.0014
3724.00,0.0014
3723.00,0.0015
3722.00,0.0015
3721.00,0.0015
3720.00,0.0015
3719.00,0.0014
3718.00,0.0014
3717.00,0.0014
3716.00,0.0014
3715.00,0.0014
3714.00,0.0014
3713.00,0.0014
3712.00,0.0014
3711.00,0.0014
3710.00,0.0014
3709.00,0.0014
3708.00,0.0014
3707.00,0.0014
3706.00,0.0014
3705.00,0.0014
3704.00,0.0014
3703.00,0.0014
3702.00,0.0014
3701.00,0.0014
3700.00,0.0014
3699.00,0.0014
3698.00,0.0014
3697.00,0.0015
3696.00,0.0015
3695.00,0.0015
3694.00,0.0015
3693.00,0.0015
3692.00,0.0015
3691.00,0.0014
3690.00,0.0014
3689.00,0.0013
3688.00,0.0014
3687.00,0.0014
3686.00,0.0014
3685.00,0.0014
3684.00,0.0014
3683.00,0.0014
3682.00,0.0015
3681.00,0.0015
3680.00,0.0016
3679.00,0.0016
3678.00,0.0016
3677.00,0.0015
3676.00,0.0015
3675.00,0.0015
3674.00,0.0014
3673.00,0.0013
3672.00,0.0012
3671.00,0.0012
3670.00,0.0012
3669.00,0.0012
3668.00,0.0012
3667.00,0.0012
3666.00,0.0013
3665.00,0.0013
3664.00,0.0013
3663.00,0.0013
3662.00,0.0013
3661.00,0.0013
3660.00,0.0013
3659.00,0.0013
3658.00,0.0013
3657.00,0.0013
3656.00,0.0014
3655.00,0.0014
3654.00,0.0013
3653.00,0.0013
3652.00,0.0012
3651.00,0.0012
3650.00,0.0013
3649.00,0.0013
3648.00,0.0013
3647.00,0.0014
3646.00,0.0014
3645.00,0.0014
3644.00,0.0013
3643.00,0.0013
3642.00,0.0013
3641.00,0.0013
3640.00,0.0014
3639.00,0.0014
3638.00,0.0014
3637.00,0.0014
3636.00,0.0014
3635.00,0.0014
3634.00,0.0014
3633.00,0.0014
3632.00,0.0014
3631.00,0.0013
3630.00,0.0013
3629.00,0.0013
3628.00,0.0013
3627.00,0.0013
3626.00,0.0013
3625.00,0.0014
3624.00,0.0014
3623.00,0.0014
3622.00,0.0014
3621.00,0.0014
3620.00,0.0014
3619.00,0.0014
3618.00,0.0014
3617.00,0.0014
3616.00,0.0013
3615.00,0.0013
3614.00,0.0014
3613.00,0.0015
3612.00,0.0015
3611.00,0.0015
3610.00,0.0015
3609.00,0.0015
3608.00,0.0015
3607.00,0.0014
3606.00,0.0014
3605.00,0.0015
3604.00,0.0015
3603.00,0.0015
3602.00,0.0015
3601.00,0.0015
3600.00,0.0015
3599.00,0.0014
3598.00,0.0014
3597.00,0.0014
3596.00,0.0015
3595.00,0.0015
3594.00,0.0016
3593.00,0.0016
3592.00,0.0016
3591.00,0.0016
3590.00,0.0016
3589.00,0.0016
3588.00,0.0016
3587.00,0.0016
3586.00,0.0016
3585.00,0.0016
3584.00,0.0016
3583.00,0.0016
3582.00,0.0016
3581.00,0.0016
3580.00,0.0016
3579.00,0.0016
3578.00,0.0017
3577.00,0.0017
3576.00,0.0017
3575.00,0.0017
3574.00,0.0017
3573.00,0.0017
3572.00,0.0017
3571.00,0.0017
3570.00,0.0016
3569.00,0.0015
3568.00,0.0015
3567.00,0.0015
3566.00,0.0016
3565.00,0.0016
3564.00,0.0017
3563.00,0.0017
3562.00,0.0017
3561.00,0.0018
3560.00,0.0018
3559.00,0.0018
3558.00,0.0018
3557.00,0.0018
3556.00,0.0018
3555.00,0.0018
3554.00,0.0018
3553.00,0.0019
3552.00,0.0019
3551.00,0.0019
3550.00,0.0019
3549.00,0.0019
3548.00,0.0019
3547.00,0.0018
3546.00,0.0019
3545.00,0.0019
3544.00,0.0020
3543.00,0.0020
3542.00,0.0020
3541.00,0.0020
3540.00,0.0019
3539.00,0.0019
3538.00,0.0019
3537.00,0.0020
3536.00,0.0020
3535.00,0.0020
3534.00,0.0020
3533.00,0.0020
3532.00,0.0021
3531.00,0.0021
3530.00,0.0021
3529.00,0.0022
3528.00,0.0022
3527.00,0.0022
3526.00,0.0022
3525.00,0.0022
3524.00,0.0022
3523.00,0.0022
3522.00,0.0022
3521.00,0.0022
3520.00,0.0022
3519.00,0.0022
3518.00,0.0022
3517.00,0.0022
3516.00,0.0022
3515.00,0.0023
3514.00,0.0023
3513.00,0.0023
3512.00,0.0023
3511.00,0.0023
3510.00,0.0023
3509.00,0.0022
3508.00,0.0022
3507.00,0.0022
3506.00,0.0022
3505.00,0.0022
3504.00,0.0023
3503.00,0.0023
3502.00,0.0023
3501.00,0.0023
3500.00,0.0023
3499.00,0.0023
3498.00,0.0023
3497.00,0.0023
3496.00,0.0024
3495.00,0.0024
3494.00,0.0024
3493.00,0.0024
3492.00,0.0024
3491.00,0.0023
3490.00,0.0023
3489.00,0.0023
3488.00,0.0023
3487.00,0.0023
3486.00,0.0023
3485.00,0.0024
3484.00,0.0024
3483.00,0.0024
3482.00,0.0025
3481.00,0.0025
3480.00,0.0025
3479.00,0.0025
3478.00,0.0025
3477.00,0.0025
3476.00,0.0025
3475.00,0.0025
3474.00,0.0025
3473.00,0.0025
3472.00,0.0025
3471.00,0.0025
3470.00,0.0025
3469.00,0.0025
3468.00,0.0025
3467.00,0.0025
3466.00,0.0026
3465.00,0.0026
3464.00,0.0026
3463.00,0.0026
3462.00,0.0026
3461.00,0.0027
3460.00,0.0026
3459.00,0.0026
3458.00,0.0026
3457.00,0.0026
3456.00,0.0026
3455.00,0.0026
3454.00,0.0027
3453.00,0.0027
3452.00,0.0027
3451.00,0.0027
3450.00,0.0027
3449.00,0.0027
3448.00,0.0027
3447.00,0.0027
3446.00,0.0027
3445.00,0.0027
3444.00,0.0027
3443.00,0.0027
3442.00,0.0028
3441.00,0.0028
3440.00,0.0029
3439.00,0.0029
3438.00,0.0029
3437.00,0.0029
3436.00,0.0029
3435.00,0.0029
3434.00,0.0029
3433.00,0.0029
3432.00,0.0029
3431.00,0.0029
3430.00,0.0029
3429.00,0.0029
3428.00,0.0029
3427.00,0.0029
3426.00,0.0029
3425.00,0.0029
3424.00,0.0029
3423.00,0.0029
3422.00,0.0030
3421.00,0.0030
3420.00,0.0030
3419.00,0.0031
3418.00,0.0031
3417.00,0.0031
3416.00,0.0031
3415.00,0.0031
3414.00,0.0031
3413.00,0.0031
3412.00,0.0031
3411.00,0.0031
3410.00,0.0031
3409.00,0.0030
3408.00,0.0030
3407.00,0.0030
3406.00,0.0030
3405.00,0.0030
3404.00,0.0030
3403.00,0.0030
3402.00,0.0031
3401.00,0.0031
3400.00,0.0031
3399.00,0.0031
3398.00,0.0031
3397.00,0.0031
3396.00,0.0031
3395.00,0.0030
3394.00,0.0030
3393.00,0.0030
3392.00,0.0030
3391.00,0.0030
3390.00,0.0030
3389.00,0.0030
3388.00,0.0030
3387.00,0.0030
3386.00,0.0031
3385.00,0.0031
3384.00,0.0031
3383.00,0.0031
3382.00,0.0031
3381.00,0.0031
3380.00,0.0030
3379.00,0.0030
3378.00,0.0030
3377.00,0.0030
3376.00,0.0031
3375.00,0.0031
3374.00,0.0032
3373.00,0.0032
3372.00,0.0031
3371.00,0.0031
3370.00,0.0031
3369.00,0.0031
3368.00,0.0031
3367.00,0.0031
3366.00,0.0032
3365.00,0.0032
3364.00,0.0032
3363.00,0.0032
3362.00,0.0032
3361.00,0.0032
3360.00,0.0032
3359.00,0.0033
3358.00,0.0033
3357.00,0.0033
3356.00,0.0032
3355.00,0.0032
3354.00,0.0032
3353.00,0.0032
3352.00,0.0032
3351.00,0.0032
3350.00,0.0032
3349.00,0.0032
3348.00,0.0032
3347.00,0.0032
3346.00,0.0032
3345.00,0.0032
3344.00,0.0032
3343.00,0.0032
3342.00,0.0032
3341.00,0.0032
3340.00,0.0032
3339.00,0.0032
3338.00,0.0032
3337.00,0.0032
3336.00,0.0032
3335.00,0.0032
3334.00,0.0032
3333.00,0.0032
3332.00,0.0032
3331.00,0.0032
3330.00,0.0031
3329.00,0.0031
3328.00,0.0031
3327.00,0.0031
3326.00,0.0031
3325.00,0.0031
3324.00,0.0031
3323.00,0.0031
3322.00,0.0031
3321.00,0.0030
3320.00,0.0030
3319.00,0.0030
3318.00,0.0031
3317.00,0.0030
3316.00,0.0030
3315.00,0.0030
3314.00,0.0030
3313.00,0.0030
3312.00,0.0030
3311.00,0.0031
3310.00,0.0031
3309.00,0.0031
3308.00,0.0031
3307.00,0.0031
3306.00,0.0031
3305.00,0.0031
3304.00,0.0031
3303.00,0.0031
3302.00,0.0031
3301.00,0.0031
3300.00,0.0031
3299.00,0.0031
3298.00,0.0031
3297.00,0.0031
3296.00,0.0031
3295.00,0.0031
3294.00,0.0031
3293.00,0.0032
3292.00,0.0032
3291.00,0.0032
3290.00,0.0031
3289.00,0.0031
3288.00,0.0031
3287.00,0.0031
3286.00,0.0031
3285.00,0.0031
3284.00,0.0031
3283.00,0.0031
3282.00,0.0031
3281.00,0.0031
3280.00,0.0031
3279.00,0.0031
3278.00,0.0031
3277.00,0.0031
3276.00,0.0031
3275.00,0.0031
3274.00,0.0032
3273.00,0.0032
3272.00,0.0032
3271.00,0.0031
3270.00,0.0031
3269.00,0.0031
3268.00,0.0030
3267.00,0.0030
3266.00,0.0030
3265.00,0.0030
3264.00,0.0030
3263.00,0.0030
3262.00,0.0030
3261.00,0.0030
3260.00,0.0030
3259.00,0.0030
3258.00,0.0030
3257.00,0.0030
3256.00,0.0029
3255.00,0.0029
3254.00,0.0029
3253.00,0.0029
3252.00,0.0029
3251.00,0.0029
3250.00,0.0029
3249.00,0.0029
3248.00,0.0029
3247.00,0.0029
3246.00,0.0029
3245.00,0.0029
3244.00,0.0028
3243.00,0.0028
3242.00,0.0028
3241.00,0.0028
3240.00,0.0028
3239.00,0.0029
3238.00,0.0029
3237.00,0.0029
3236.00,0.0030
3235.00,0.0030
3234.00,0.0029
3233.00,0.0030
3232.00,0.0030
3231.00,0.0030
3230.00,0.0030
3229.00,0.0030
3228.00,0.0030
3227.00,0.0031
3226.00,0.0031
3225.00,0.0031
3224.00,0.0030
3223.00,0.0031
3222.00,0.0031
3221.00,0.0031
3220.00,0.0032
3219.00,0.0032
3218.00,0.0033
3217.00,0.0033
3216.00,0.0033
3215.00,0.0033
3214.00,0.0033
3213.00,0.0033
3212.00,0.0033
3211.00,0.0034
3210.00,0.0034
3209.00,0.0034
3208.00,0.0034
3207.00,0.0034
3206.00,0.0033
3205.00,0.0033
3204.00,0.0033
3203.00,0.0033
3202.00,0.0034
3201.00,0.0034
3200.00,0.0034
3199.00,0.0035
3198.00,0.0035
3197.00,0.0034
3196.00,0.0034
3195.00,0.0034
3194.00,0.0034
3193.00,0.0034
3192.00,0.0034
3191.00,0.0034
3190.00,0.0034
3189.00,0.0034
3188.00,0.0034
3187.00,0.0033
3186.00,0.0034
3185.00,0.0034
3184.00,0.0034
3183.00,0.0034
3182.00,0.0033
3181.00,0.0033
3180.00,0.0032
3179.00,0.0032
3178.00,0.0033
3177.00,0.0033
3176.00,0.0033
3175.00,0.0032
3174.00,0.0032
3173.00,0.0033
3172.00,0.0033
3171.00,0.0033
3170.00,0.0033
3169.00,0.0033
3168.00,0.0032
3167.00,0.0032
3166.00,0.0032
3165.00,0.0032
3164.00,0.0031
3163.00,0.0031
3162.00,0.0031
3161.00,0.0032
3160.00,0.0032
3159.00,0.0032
3158.00,0.0032
3157.00,0.0032
3156.00,0.0033
3155.00,0.0033
3154.00,0.0033
3153.00,0.0033
3152.00,0.0032
3151.00,0.0032
3150.00,0.0032
3149.00,0.0032
3148.00,0.0032
3147.00,0.0032
3146.00,0.0032
3145.00,0.0032
3144.00,0.0032
3143.00,0.0032
3142.00,0.0031
3141.00,0.0031
3140.00,0.0031
3139.00,0.0031
3138.00,0.0031
3137.00,0.0031
3136.00,0.0031
3135.00,0.0031
3134.00,0.0030
3133.00,0.0030
3132.00,0.0030
3131.00,0.0030
3130.00,0.0030
3129.00,0.0030
3128.00,0.0030
3127.00,0.0030
3126.00,0.0030
3125.00,0.0030
3124.00,0.0029
3123.00,0.0029
3122.00,0.0029
3121.00,0.0029
3120.00,0.0029
3119.00,0.0029
3118.00,0.0029
3117.00,0.0029
3116.00,0.0028
3115.00,0.0028
3114.00,0.0028
3113.00,0.0027
3112.00,0.0028
3111.00,0.0028
3110.00,0.0028
3109.00,0.0028
3108.00,0.0028
3107.00,0.0028
3106.00,0.0028
3105.00,0.0028
3104.00,0.0028
3103.00,0.0028
3102.00,0.0028
3101.00,0.0028
3100.00,0.0029
3099.00,0.0029
3098.00,0.0029
3097.00,0.0028
3096.00,0.0028
3095.00,0.0028
3094.00,0.0028
3093.00,0.0028
3092.00,0.0028
3091.00,0.0028
3090.00,0.0028
3089.00,0.0028
3088.00,0.0028
3087.00,0.0028
3086.00,0.0028
3085.00,0.0028
3084.00,0.0028
3083.00,0.0028
3082.00,0.0028
3081.00,0.0029
3080.00,0.0029
3079.00,0.0029
3078.00,0.0029
3077.00,0.0029
3076.00,0.0029
3075.00,0.0030
3074.00,0.0030
3073.00,0.0030
3072.00,0.0030
3071.00,0.0030
3070.00,0.0031
3069.00,0.0031
3068.00,0.0031
3067.00,0.0031
3066.00,0.0031
3065.00,0.0031
3064.00,0.0031
3063.00,0.0030
3062.00,0.0031
3061.00,0.0031
3060.00,0.0031
3059.00,0.0031
3058.00,0.0032
3057.00,0.0032
3056.00,0.0032
3055.00,0.0032
3054.00,0.0032
3053.00,0.0033
3052.00,0.0033
3051.00,0.0032
3050.00,0.0032
3049.00,0.0032
3048.00,0.0032
3047.00,0.0032
3046.00,0.0032
3045.00,0.0033
3044.00,0.0033
3043.00,0.0034
3042.00,0.0034
3041.00,0.0034
3040.00,0.0035
3039.00,0.0035
3038.00,0.0036
3037.00,0.0036
3036.00,0.0035
3035.00,0.0035
3034.00,0.0036
3033.00,0.0036
3032.00,0.0037
3031.00,0.0037
3030.00,0.0038
3029.00,0.0038
3028.00,0.0039
3027.00,0.0039
3026.00,0.0040
3025.00,0.0040
3024.00,0.0041
3023.00,0.0041
3022.00,0.0042
3021.00,0.0042
3020.00,0.0043
3019.00,0.0044
3018.00,0.0045
3017.00,0.0047
3016.00,0.0048
3015.00,0.0049
3014.00,0.0050
3013.00,0.0051
3012.00,0.0052
3011.00,0.0053
3010.00,0.0054
3009.00,0.0056
3008.00,0.0058
3007.00,0.0060
3006.00,0.0061
3005.00,0.0063
3004.00,0.0065
3003.00,0.0067
3002.00,0.0069
3001.00,0.0071
3000.00,0.0073
2999.00,0.0076
2998.00,0.0079
2997.00,0.0082
2996.00,0.0085
2995.00,0.0089
2994.00,0.0093
2993.00,0.0098
2992.00,0.0103
2991.00,0.0109
2990.00,0.0115
2989.00,0.0121
2988.00,0.0129
2987.00,0.0137
2986.00,0.0146
2985.00,0.0156
2984.00,0.0168
2983.00,0.0181
2982.00,0.0195
2981.00,0.0212
2980.00,0.0230
2979.00,0.0251
2978.00,0.0276
2977.00,0.0304
2976.00,0.0335
2975.00,0.0371
2974.00,0.0411
2973.00,0.0457
2972.00,0.0508
2971.00,0.0566
2970.00,0.0630
2969.00,0.0701
2968.00,0.0777
2967.00,0.0858
2966.00,0.0943
2965.00,0.1027
2964.00,0.1110
2963.00,0.1186
2962.00,0.1252
2961.00,0.1308
2960.00,0.1354
2959.00,0.1395
2958.00,0.1436
2957.00,0.1481
2956.00,0.1536
2955.00,0.1602
2954.00,0.1676
2953.00,0.1753
2952.00,0.1824
2951.00,0.1876
2950.00,0.1897
2949.00,0.1878
2948.00,0.1818
2947.00,0.1721
2946.00,0.1600
2945.00,0.1470
2944.00,0.1346
2943.00,0.1239
2942.00,0.1156
2941.00,0.1098
2940.00,0.1065
2939.00,0.1056
2938.00,0.1066
2937.00,0.1095
2936.00,0.1141
2935.00,0.1203
2934.00,0.1278
2933.00,0.1368
2932.00,0.1468
2931.00,0.1578
2930.00,0.1695
2929.00,0.1815
2928.00,0.1935
2927.00,0.2052
2926.00,0.2166
2925.00,0.2276
2924.00,0.2385
2923.00,0.2493
2922.00,0.2600
2921.00,0.2704
2920.00,0.2797
2919.00,0.2868
2918.00,0.2907
2917.00,0.2904
2916.00,0.2858
2915.00,0.2775
2914.00,0.2667
2913.00,0.2548
2912.00,0.2428
2911.00,0.2316
2910.00,0.2216
2909.00,0.2126
2908.00,0.2043
2907.00,0.1966
2906.00,0.1891
2905.00,0.1817
2904.00,0.1745
2903.00,0.1673
2902.00,0.1603
2901.00,0.1536
2900.00,0.1471
2899.00,0.1409
2898.00,0.1351
2897.00,0.1298
2896.00,0.1251
2895.00,0.1210
2894.00,0.1175
2893.00,0.1146
2892.00,0.1124
2891.00,0.1107
2890.00,0.1096
2889.00,0.1089
2888.00,0.1086
2887.00,0.1086
2886.00,0.1090
2885.00,0.1098
2884.00,0.1111
2883.00,0.1128
2882.00,0.1151
2881.00,0.1176
2880.00,0.1202
2879.00,0.1224
2878.00,0.1238
2877.00,0.1243
2876.00,0.1240
2875.00,0.1232
2874.00,0.1224
2873.00,0.1221
2872.00,0.1226
2871.00,0.1239
2870.00,0.1258
2869.00,0.1276
2868.00,0.1287
2867.00,0.1283
2866.00,0.1257
2865.00,0.1208
2864.00,0.1139
2863.00,0.1058
2862.00,0.0978
2861.00,0.0908
2860.00,0.0853
2859.00,0.0814
2858.00,0.0792
2857.00,0.0784
2856.00,0.0786
2855.00,0.0797
2854.00,0.0815
2853.00,0.0835
2852.00,0.0855
2851.00,0.0873
2850.00,0.0887
2849.00,0.0897
2848.00,0.0906
2847.00,0.0919
2846.00,0.0940
2845.00,0.0973
2844.00,0.1016
2843.00,0.1068
2842.00,0.1124
2841.00,0.1177
2840.00,0.1219
2839.00,0.1243
2838.00,0.1241
2837.00,0.1208
2836.00,0.1144
2835.00,0.1056
2834.00,0.0951
2833.00,0.0842
2832.00,0.0737
2831.00,0.0644
2830.00,0.0565
2829.00,0.0501
2828.00,0.0448
2827.00,0.0406
2826.00,0.0371
2825.00,0.0343
2824.00,0.0320
2823.00,0.0300
2822.00,0.0283
2821.00,0.0268
2820.00,0.0256
2819.00,0.0245
2818.00,0.0235
2817.00,0.0227
2816.00,0.0219
2815.00,0.0212
2814.00,0.0206
2813.00,0.0200
2812.00,0.0194
2811.00,0.0188
2810.00,0.0183
2809.00,0.0177
2808.00,0.0171
2807.00,0.0165
2806.00,0.0159
2805.00,0.0152
2804.00,0.0145
2803.00,0.0139
2802.00,0.0134
2801.00,0.0129
2800.00,0.0125
2799.00,0.0122
2798.00,0.0119
2797.00,0.0117
2796.00,0.0114
2795.00,0.0112
2794.00,0.0109
2793.00,0.0106
2792.00,0.0103
2791.00,0.0100
2790.00,0.0097
2789.00,0.0094
2788.00,0.0091
2787.00,0.0089
2786.00,0.0086
2785.00,0.0084
2784.00,0.0082
2783.00,0.0079
2782.00,0.0078
2781.00,0.0076
2780.00,0.0074
2779.00,0.0073
2778.00,0.0071
2777.00,0.0070
2776.00,0.0068
2775.00,0.0067
2774.00,0.0066
2773.00,0.0066
2772.00,0.0065
2771.00,0.0064
2770.00,0.0064
2769.00,0.0064
2768.00,0.0064
2767.00,0.0064
2766.00,0.0063
2765.00,0.0063
2764.00,0.0062
2763.00,0.0062
2762.00,0.0061
2761.00,0.0061
2760.00,0.0061
2759.00,0.0060
2758.00,0.0060
2757.00,0.0060
2756.00,0.0060
2755.00,0.0060
2754.00,0.0060
2753.00,0.0059
2752.00,0.0059
2751.00,0.0059
2750.00,0.0059
2749.00,0.0059
2748.00,0.0060
2747.00,0.0060
2746.00,0.0060
2745.00,0.0060
2744.00,0.0061
2743.00,0.0062
2742.00,0.0063
2741.00,0.0064
2740.00,0.0065
2739.00,0.0066
2738.00,0.0068
2737.00,0.0069
2736.00,0.0071
2735.00,0.0072
2734.00,0.0073
2733.00,0.0075
2732.00,0.0077
2731.00,0.0079
2730.00,0.0081
2729.00,0.0084
2728.00,0.0087
2727.00,0.0090
2726.00,0.0092
2725.00,0.0095
2724.00,0.0096
2723.00,0.0097
2722.00,0.0096
2721.00,0.0094
2720.00,0.0091
2719.00,0.0088
2718.00,0.0085
2717.00,0.0081
2716.00,0.0078
2715.00,0.0076
2714.00,0.0073
2713.00,0.0071
2712.00,0.0069
2711.00,0.0067
2710.00,0.0065
2709.00,0.0063
2708.00,0.0062
2707.00,0.0060
2706.00,0.0059
2705.00,0.0058
2704.00,0.0057
2703.00,0.0056
2702.00,0.0055
2701.00,0.0054
2700.00,0.0054
2699.00,0.0053
2698.00,0.0053
2697.00,0.0053
2696.00,0.0053
2695.00,0.0053
2694.00,0.0053
2693.00,0.0052
2692.00,0.0052
2691.00,0.0052
2690.00,0.0053
2689.00,0.0053
2688.00,0.0053
2687.00,0.0052
2686.00,0.0052
2685.00,0.0052
2684.00,0.0052
2683.00,0.0052
2682.00,0.0053
2681.00,0.0053
2680.00,0.0054
2679.00,0.0054
2678.00,0.0054
2677.00,0.0054
2676.00,0.0054
2675.00,0.0053
2674.00,0.0053
2673.00,0.0053
2672.00,0.0053
2671.00,0.0053
2670.00,0.0053
2669.00,0.0053
2668.00,0.0054
2667.00,0.0054
2666.00,0.0054
2665.00,0.0055
2664.00,0.0055
2663.00,0.0056
2662.00,0.0056
2661.00,0.0056
2660.00,0.0056
2659.00,0.0056
2658.00,0.0056
2657.00,0.0055
2656.00,0.0055
2655.00,0.0055
2654.00,0.0054
2653.00,0.0054
2652.00,0.0054
2651.00,0.0054
2650.00,0.0054
2649.00,0.0053
2648.00,0.0053
2647.00,0.0052
2646.00,0.0052
2645.00,0.0051
2644.00,0.0051
2643.00,0.0050
2642.00,0.0050
2641.00,0.0049
2640.00,0.0048
2639.00,0.0048
2638.00,0.0048
2637.00,0.0047
2636.00,0.0047
2635.00,0.0047
2634.00,0.0048
2633.00,0.0048
2632.00,0.0048
2631.00,0.0048
2630.00,0.0048
2629.00,0.0048
2628.00,0.0048
2627.00,0.0048
2626.00,0.0049
2625.00,0.0049
2624.00,0.0049
2623.00,0.0048
2622.00,0.0048
2621.00,0.0048
2620.00,0.0048
2619.00,0.0049
2618.00,0.0049
2617.00,0.0049
2616.00,0.0049
2615.00,0.0049
2614.00,0.0049
2613.00,0.0048
2612.00,0.0048
2611.00,0.0047
2610.00,0.0046
2609.00,0.0046
2608.00,0.0044
2607.00,0.0043
2606.00,0.0042
2605.00,0.0042
2604.00,0.0041
2603.00,0.0041
2602.00,0.0040
2601.00,0.0040
2600.00,0.0040
2599.00,0.0040
2598.00,0.0040
2597.00,0.0040
2596.00,0.0040
2595.00,0.0041
2594.00,0.0041
2593.00,0.0041
2592.00,0.0042
2591.00,0.0042
2590.00,0.0043
2589.00,0.0044
2588.00,0.0045
2587.00,0.0045
2586.00,0.0046
2585.00,0.0047
2584.00,0.0048
2583.00,0.0048
2582.00,0.0048
2581.00,0.0048
2580.00,0.0047
2579.00,0.0047
2578.00,0.0046
2577.00,0.0045
2576.00,0.0043
2575.00,0.0042
2574.00,0.0041
2573.00,0.0040
2572.00,0.0038
2571.00,0.0036
2570.00,0.0035
2569.00,0.0035
2568.00,0.0035
2567.00,0.0034
2566.00,0.0034
2565.00,0.0033
2564.00,0.0033
2563.00,0.0032
2562.00,0.0032
2561.00,0.0031
2560.00,0.0031
2559.00,0.0031
2558.00,0.0031
2557.00,0.0031
2556.00,0.0030
2555.00,0.0030
2554.00,0.0029
2553.00,0.0029
2552.00,0.0029
2551.00,0.0029
2550.00,0.0029
2549.00,0.0029
2548.00,0.0029
2547.00,0.0028
2546.00,0.0027
2545.00,0.0027
2544.00,0.0026
2543.00,0.0026
2542.00,0.0026
2541.00,0.0026
2540.00,0.0025
2539.00,0.0025
2538.00,0.0024
2537.00,0.0024
2536.00,0.0024
2535.00,0.0024
2534.00,0.0024
2533.00,0.0024
2532.00,0.0023
2531.00,0.0023
2530.00,0.0023
2529.00,0.0023
2528.00,0.0022
2527.00,0.0022
2526.00,0.0022
2525.00,0.0022
2524.00,0.0022
2523.00,0.0022
2522.00,0.0022
2521.00,0.0022
2520.00,0.0022
2519.00,0.0022
2518.00,0.0022
2517.00,0.0021
2516.00,0.0021
2515.00,0.0020
2514.00,0.0020
2513.00,0.0019
2512.00,0.0019
2511.00,0.0018
2510.00,0.0018
2509.00,0.0018
2508.00,0.0018
2507.00,0.0019
2506.00,0.0019
2505.00,0.0019
2504.00,0.0019
2503.00,0.0018
2502.00,0.0018
2501.00,0.0017
2500.00,0.0017
2499.00,0.0017
2498.00,0.0018
2497.00,0.0018
2496.00,0.0019
2495.00,0.0019
2494.00,0.0018
2493.00,0.0018
2492.00,0.0018
2491.00,0.0018
2490.00,0.0018
2489.00,0.0018
2488.00,0.0018
2487.00,0.0017
2486.00,0.0017
2485.00,0.0018
2484.00,0.0018
2483.00,0.0018
2482.00,0.0018
2481.00,0.0018
2480.00,0.0018
2479.00,0.0018
2478.00,0.0018
2477.00,0.0017
2476.00,0.0017
2475.00,0.0016
2474.00,0.0016
2473.00,0.0016
2472.00,0.0016
2471.00,0.0016
2470.00,0.0017
2469.00,0.0017
2468.00,0.0017
2467.00,0.0016
2466.00,0.0016
2465.00,0.0015
2464.00,0.0015
2463.00,0.0015
2462.00,0.0016
2461.00,0.0016
2460.00,0.0017
2459.00,0.0018
2458.00,0.0018
2457.00,0.0019
2456.00,0.0019
2455.00,0.0019
2454.00,0.0019
2453.00,0.0018
2452.00,0.0018
2451.00,0.0017
2450.00,0.0017
2449.00,0.0017
2448.00,0.0017
2447.00,0.0018
2446.00,0.0018
2445.00,0.0018
2444.00,0.0019
2443.00,0.0019
2442.00,0.0019
2441.00,0.0019
2440.00,0.0019
2439.00,0.0019
2438.00,0.0019
2437.00,0.0019
2436.00,0.0018
2435.00,0.0018
2434.00,0.0018
2433.00,0.0018
2432.00,0.0018
2431.00,0.0018
2430.00,0.0019
2429.00,0.0019
2428.00,0.0019
2427.00,0.0019
2426.00,0.0020
2425.00,0.0020
2424.00,0.0020
2423.00,0.0019
2422.00,0.0019
2421.00,0.0019
2420.00,0.0019
2419.00,0.0018
2418.00,0.0018
2417.00,0.0018
2416.00,0.0018
2415.00,0.0018
2414.00,0.0018
2413.00,0.0017
2412.00,0.0017
2411.00,0.0017
2410.00,0.0017
2409.00,0.0017
2408.00,0.0017
2407.00,0.0016
2406.00,0.0016
2405.00,0.0016
2404.00,0.0016
2403.00,0.0016
2402.00,0.0016
2401.00,0.0016
2400.00,0.0015
2399.00,0.0015
2398.00,0.0015
2397.00,0.0015
2396.00,0.0015
2395.00,0.0015
2394.00,0.0015
2393.00,0.0015
2392.00,0.0015
2391.00,0.0015
2390.00,0.0014
2389.00,0.0014
2388.00,0.0014
2387.00,0.0014
2386.00,0.0014
2385.00,0.0014
2384.00,0.0013
2383.00,0.0013
2382.00,0.0012
2381.00,0.0011
2380.00,0.0010
2379.00,0.0009
2378.00,0.0009
2377.00,0.0009
2376.00,0.0010
2375.00,0.0010
2374.00,0.0011
2373.00,0.0012
2372.00,0.0012
2371.00,0.0011
2370.00,0.0010
2369.00,0.0009
2368.00,0.0009
2367.00,0.0009
2366.00,0.0009
2365.00,0.0010
2364.00,0.0011
2363.00,0.0011
2362.00,0.0011
2361.00,0.0011
2360.00,0.0011
2359.00,0.0012
2358.00,0.0013
2357.00,0.0013
2356.00,0.0013
2355.00,0.0013
2354.00,0.0012
2353.00,0.0012
2352.00,0.0012
2351.00,0.0012
2350.00,0.0012
2349.00,0.0012
2348.00,0.0012
2347.00,0.0012
2346.00,0.0012
2345.00,0.0013
2344.00,0.0014
2343.00,0.0014
2342.00,0.0014
2341.00,0.0015
2340.00,0.0015
2339.00,0.0015
2338.00,0.0016
2337.00,0.0016
2336.00,0.0016
2335.00,0.0015
2334.00,0.0015
2333.00,0.0015
2332.00,0.0015
2331.00,0.0015
2330.00,0.0015
2329.00,0.0015
2328.00,0.0017
2327.00,0.0020
2326.00,0.0024
2325.00,0.0028
2324.00,0.0029
2323.00,0.0029
2322.00,0.0026
2321.00,0.0024
2320.00,0.0022
2319.00,0.0021
2318.00,0.0021
2317.00,0.0020
2316.00,0.0020
2315.00,0.0019
2314.00,0.0018
2313.00,0.0018
2312.00,0.0018
2311.00,0.0018
2310.00,0.0019
2309.00,0.0019
2308.00,0.0019
2307.00,0.0019
2306.00,0.0020
2305.00,0.0020
2304.00,0.0021
2303.00,0.0021
2302.00,0.0021
2301.00,0.0021
2300.00,0.0021
2299.00,0.0022
2298.00,0.0022
2297.00,0.0023
2296.00,0.0023
2295.00,0.0023
2294.00,0.0024
2293.00,0.0025
2292.00,0.0026
2291.00,0.0027
2290.00,0.0027
2289.00,0.0028
2288.00,0.0029
2287.00,0.0029
2286.00,0.0029
2285.00,0.0028
2284.00,0.0026
2283.00,0.0025
2282.00,0.0024
2281.00,0.0023
2280.00,0.0022
2279.00,0.0022
2278.00,0.0021
2277.00,0.0020
2276.00,0.0019
2275.00,0.0019
2274.00,0.0019
2273.00,0.0019
2272.00,0.0020
2271.00,0.0020
2270.00,0.0020
2269.00,0.0020
2268.00,0.0020
2267.00,0.0020
2266.00,0.0019
2265.00,0.0020
2264.00,0.0020
2263.00,0.0021
2262.00,0.0020
2261.00,0.0020
2260.00,0.0020
2259.00,0.0020
2258.00,0.0021
2257.00,0.0020
2256.00,0.0019
2255.00,0.0018
2254.00,0.0017
2253.00,0.0016
2252.00,0.0016
2251.00,0.0017
2250.00,0.0018
2249.00,0.0018
2248.00,0.0018
2247.00,0.0018
2246.00,0.0017
2245.00,0.0017
2244.00,0.0016
2243.00,0.0016
2242.00,0.0017
2241.00,0.0017
2240.00,0.0017
2239.00,0.0017
2238.00,0.0017
2237.00,0.0017
2236.00,0.0017
2235.00,0.0016
2234.00,0.0014
2233.00,0.0012
2232.00,0.0011
2231.00,0.0010
2230.00,0.0010
2229.00,0.0011
2228.00,0.0013
2227.00,0.0014
2226.00,0.0015
2225.00,0.0017
2224.00,0.0018
2223.00,0.0018
2222.00,0.0017
2221.00,0.0015
2220.00,0.0013
2219.00,0.0010
2218.00,0.0008
2217.00,0.0007
2216.00,0.0008
2215.00,0.0011
2214.00,0.0013
2213.00,0.0013
2212.00,0.0013
2211.00,0.0012
2210.00,0.0012
2209.00,0.0012
2208.00,0.0011
2207.00,0.0010
2206.00,0.0008
2205.00,0.0008
2204.00,0.0009
2203.00,0.0010
2202.00,0.0010
2201.00,0.0010
2200.00,0.0010
2199.00,0.0011
2198.00,0.0011
2197.00,0.0012
2196.00,0.0014
2195.00,0.0015
2194.00,0.0015
2193.00,0.0015
2192.00,0.0014
2191.00,0.0013
2190.00,0.0013
2189.00,0.0014
2188.00,0.0015
2187.00,0.0015
2186.00,0.0015
2185.00,0.0014
2184.00,0.0013
2183.00,0.0011
2182.00,0.0009
2181.00,0.0006
2180.00,0.0005
2179.00,0.0006
2178.00,0.0006
2177.00,0.0005
2176.00,0.0003
2175.00,0.0001
2174.00,0.0002
2173.00,0.0005
2172.00,0.0008
2171.00,0.0009
2170.00,0.0010
2169.00,0.0012
2168.00,0.0015
2167.00,0.0018
2166.00,0.0020
2165.00,0.0022
2164.00,0.0024
2163.00,0.0023
2162.00,0.0020
2161.00,0.0013
2160.00,0.0002
2159.00,-0.0010
2158.00,-0.0019
2157.00,-0.0024
2156.00,-0.0024
2155.00,-0.0022
2154.00,-0.0018
2153.00,-0.0013
2152.00,-0.0009
2151.00,-0.0008
2150.00,-0.0009
2149.00,-0.0011
2148.00,-0.0011
2147.00,-0.0010
2146.00,-0.0009
2145.00,-0.0007
2144.00,-0.0006
2143.00,-0.0005
2142.00,-0.0006
2141.00,-0.0006
2140.00,-0.0005
2139.00,-0.0005
2138.00,-0.0004
2137.00,-0.0005
2136.00,-0.0008
2135.00,-0.0011
2134.00,-0.0014
2133.00,-0.0015
2132.00,-0.0013
2131.00,-0.0011
2130.00,-0.0008
2129.00,-0.0006
2128.00,-0.0004
2127.00,-0.0004
2126.00,-0.0003
2125.00,-0.0002
2124.00,-0.0001
2123.00,0.0000
2122.00,0.0002
2121.00,0.0003
2120.00,0.0004
2119.00,0.0004
2118.00,0.0004
2117.00,0.0005
2116.00,0.0007
2115.00,0.0009
2114.00,0.0010
2113.00,0.0010
2112.00,0.0011
2111.00,0.0011
2110.00,0.0011
2109.00,0.0011
2108.00,0.0010
2107.00,0.0008
2106.00,0.0007
2105.00,0.0008
2104.00,0.0009
2103.00,0.0009
2102.00,0.0009
2101.00,0.0008
2100.00,0.0007
2099.00,0.0006
2098.00,0.0004
2097.00,0.0001
2096.00,-0.0000
2095.00,-0.0001
2094.00,-0.0001
2093.00,-0.0001
2092.00,0.0001
2091.00,0.0002
2090.00,0.0003
2089.00,0.0004
2088.00,0.0005
2087.00,0.0007
2086.00,0.0009
2085.00,0.0012
2084.00,0.0013
2083.00,0.0013
2082.00,0.0012
2081.00,0.0010
2080.00,0.0009
2079.00,0.0007
2078.00,0.0006
2077.00,0.0006
2076.00,0.0006
2075.00,0.0007
2074.00,0.0009
2073.00,0.0010
2072.00,0.0011
2071.00,0.0010
2070.00,0.0010
2069.00,0.0010
2068.00,0.0009
2067.00,0.0007
2066.00,0.0004
2065.00,0.0003
2064.00,0.0004
2063.00,0.0005
2062.00,0.0005
2061.00,0.0005
2060.00,0.0004
2059.00,0.0003
2058.00,0.0003
2057.00,0.0003
2056.00,0.0003
2055.00,0.0003
2054.00,0.0005
2053.00,0.0008
2052.00,0.0013
2051.00,0.0016
2050.00,0.0015
2049.00,0.0013
2048.00,0.0009
2047.00,0.0007
2046.00,0.0005
2045.00,0.0004
2044.00,0.0003
2043.00,0.0003
2042.00,0.0004
2041.00,0.0005
2040.00,0.0005
2039.00,0.0005
2038.00,0.0006
2037.00,0.0006
2036.00,0.0006
2035.00,0.0005
2034.00,0.0003
2033.00,0.0001
2032.00,-0.0002
2031.00,-0.0005
2030.00,-0.0007
2029.00,-0.0007
2028.00,-0.0006
2027.00,-0.0006
2026.00,-0.0006
2025.00,-0.0005
2024.00,-0.0002
2023.00,0.0001
2022.00,0.0002
2021.00,0.0000
2020.00,-0.0005
2019.00,-0.0011
2018.00,-0.0014
2017.00,-0.0015
2016.00,-0.0015
2015.00,-0.0015
2014.00,-0.0015
2013.00,-0.0013
2012.00,-0.0009
2011.00,-0.0007
2010.00,-0.0006
2009.00,-0.0006
2008.00,-0.0007
2007.00,-0.0008
2006.00,-0.0009
2005.00,-0.0008
2004.00,-0.0007
2003.00,-0.0007
2002.00,-0.0007
2001.00,-0.0009
2000.00,-0.0011
1999.00,-0.0013
1998.00,-0.0014
1997.00,-0.0013
1996.00,-0.0010
1995.00,-0.0007
1994.00,-0.0005
1993.00,-0.0003
1992.00,-0.0003
1991.00,-0.0004
1990.00,-0.0004
1989.00,-0.0004
1988.00,-0.0002
1987.00,0.0001
1986.00,0.0003
1985.00,0.0005
1984.00,0.0007
1983.00,0.0010
1982.00,0.0013
1981.00,0.0015
1980.00,0.0015
1979.00,0.0011
1978.00,0.0005
1977.00,0.0000
1976.00,-0.0003
1975.00,-0.0005
1974.00,-0.0007
1973.00,-0.0008
1972.00,-0.0008
1971.00,-0.0009
1970.00,-0.0010
1969.00,-0.0012
1968.00,-0.0014
1967.00,-0.0016
1966.00,-0.0017
1965.00,-0.0016
1964.00,-0.0014
1963.00,-0.0012
1962.00,-0.0012
1961.00,-0.0012
1960.00,-0.0012
1959.00,-0.0012
1958.00,-0.0012
1957.00,-0.0012
1956.00,-0.0012
1955.00,-0.0010
1954.00,-0.0009
1953.00,-0.0008
1952.00,-0.0008
1951.00,-0.0008
1950.00,-0.0008
1949.00,-0.0008
1948.00,-0.0010
1947.00,-0.0012
1946.00,-0.0013
1945.00,-0.0013
1944.00,-0.0012
1943.00,-0.0010
1942.00,-0.0008
1941.00,-0.0007
1940.00,-0.0006
1939.00,-0.0005
1938.00,-0.0005
1937.00,-0.0004
1936.00,-0.0004
1935.00,-0.0005
1934.00,-0.0005
1933.00,-0.0004
1932.00,-0.0002
1931.00,-0.0001
1930.00,-0.0000
1929.00,0.0000
1928.00,0.0000
1927.00,-0.0001
1926.00,-0.0001
1925.00,-0.0002
1924.00,-0.0003
1923.00,-0.0003
1922.00,-0.0002
1921.00,-0.0001
1920.00,-0.0000
1919.00,-0.0000
1918.00,-0.0000
1917.00,-0.0000
1916.00,0.0001
1915.00,0.0002
1914.00,0.0003
1913.00,0.0004
1912.00,0.0005
1911.00,0.0005
1910.00,0.0004
1909.00,0.0004
1908.00,0.0004
1907.00,0.0003
1906.00,0.0003
1905.00,0.0003
1904.00,0.0003
1903.00,0.0003
1902.00,0.0003
1901.00,0.0003
1900.00,0.0003
1899.00,0.0003
1898.00,0.0003
1897.00,0.0004
1896.00,0.0006
1895.00,0.0007
1894.00,0.0008
1893.00,0.0007
1892.00,0.0006
1891.00,0.0005
1890.00,0.0004
1889.00,0.0004
1888.00,0.0004
1887.00,0.0005
1886.00,0.0004
1885.00,0.0004
1884.00,0.0003
1883.00,0.0003
1882.00,0.0003
1881.00,0.0004
1880.00,0.0004
1879.00,0.0005
1878.00,0.0005
1877.00,0.0004
1876.00,0.0003
1875.00,0.0003
1874.00,0.0003
1873.00,0.0005
1872.00,0.0007
1871.00,0.0008
1870.00,0.0008
1869.00,0.0007
1868.00,0.0006
1867.00,0.0005
1866.00,0.0006
1865.00,0.0006
1864.00,0.0007
1863.00,0.0008
1862.00,0.0008
1861.00,0.0008
1860.00,0.0007
1859.00,0.0007
1858.00,0.0006
1857.00,0.0007
1856.00,0.0007
1855.00,0.0006
1854.00,0.0006
1853.00,0.0006
1852.00,0.0006
1851.00,0.0007
1850.00,0.0007
1849.00,0.0007
1848.00,0.0007
1847.00,0.0007
1846.00,0.0007
1845.00,0.0007
1844.00,0.0008
1843.00,0.0007
1842.00,0.0007
1841.00,0.0008
1840.00,0.0009
1839.00,0.0009
1838.00,0.0009
1837.00,0.0008
1836.00,0.0008
1835.00,0.0008
1834.00,0.0008
1833.00,0.0009
1832.00,0.0009
1831.00,0.0009
1830.00,0.0009
1829.00,0.0009
1828.00,0.0009
1827.00,0.0010
1826.00,0.0010
1825.00,0.0010
1824.00,0.0010
1823.00,0.0010
1822.00,0.0009
1821.00,0.0009
1820.00,0.0009
1819.00,0.0008
1818.00,0.0007
1817.00,0.0006
1816.00,0.0006
1815.00,0.0006
1814.00,0.0007
1813.00,0.0008
1812.00,0.0009
1811.00,0.0010
1810.00,0.0010
1809.00,0.0010
1808.00,0.0010
1807.00,0.0010
1806.00,0.0010
1805.00,0.0011
1804.00,0.0011
1803.00,0.0012
1802.00,0.0012
1801.00,0.0013
1800.00,0.0013
1799.00,0.0013
1798.00,0.0013
1797.00,0.0013
1796.00,0.0013
1795.00,0.0013
1794.00,0.0013
1793.00,0.0014
1792.00,0.0015
1791.00,0.0015
1790.00,0.0015
1789.00,0.0014
1788.00,0.0014
1787.00,0.0013
1786.00,0.0014
1785.00,0.0014
1784.00,0.0014
1783.00,0.0014
1782.00,0.0014
1781.00,0.0015
1780.00,0.0015
1779.00,0.0014
1778.00,0.0014
1777.00,0.0014
1776.00,0.0014
1775.00,0.0014
1774.00,0.0015
1773.00,0.0016
1772.00,0.0017
1771.00,0.0017
1770.00,0.0017
1769.00,0.0017
1768.00,0.0018
1767.00,0.0018
1766.00,0.0018
1765.00,0.0018
1764.00,0.0018
1763.00,0.0019
1762.00,0.0019
1761.00,0.0020
1760.00,0.0021
1759.00,0.0021
1758.00,0.0021
1757.00,0.0022
1756.00,0.0022
1755.00,0.0023
1754.00,0.0023
1753.00,0.0024
1752.00,0.0025
1751.00,0.0025
1750.00,0.0025
1749.00,0.0025
1748.00,0.0025
1747.00,0.0025
1746.00,0.0025
1745.00,0.0026
1744.00,0.0026
1743.00,0.0027
1742.00,0.0027
1741.00,0.0027
1740.00,0.0027
1739.00,0.0027
1738.00,0.0026
1737.00,0.0026
1736.00,0.0027
1735.00,0.0027
1734.00,0.0027
1733.00,0.0026
1732.00,0.0026
1731.00,0.0025
1730.00,0.0025
1729.00,0.0026
1728.00,0.0027
1727.00,0.0027
1726.00,0.0028
1725.00,0.0028
1724.00,0.0028
1723.00,0.0029
1722.00,0.0029
1721.00,0.0029
1720.00,0.0029
1719.00,0.0029
1718.00,0.0029
1717.00,0.0028
1716.00,0.0028
1715.00,0.0028
1714.00,0.0027
1713.00,0.0027
1712.00,0.0028
1711.00,0.0028
1710.00,0.0029
1709.00,0.0029
1708.00,0.0030
1707.00,0.0030
1706.00,0.0029
1705.00,0.0029
1704.00,0.0030
1703.00,0.0030
1702.00,0.0031
1701.00,0.0032
1700.00,0.0033
1699.00,0.0033
1698.00,0.0032
1697.00,0.0032
1696.00,0.0033
1695.00,0.0034
1694.00,0.0034
1693.00,0.0035
1692.00,0.0035
1691.00,0.0036
1690.00,0.0036
1689.00,0.0036
1688.00,0.0036
1687.00,0.0035
1686.00,0.0035
1685.00,0.0035
1684.00,0.0036
1683.00,0.0036
1682.00,0.0036
1681.00,0.0037
1680.00,0.0037
1679.00,0.0037
1678.00,0.0038
1677.00,0.0037
1676.00,0.0037
1675.00,0.0037
1674.00,0.0038
1673.00,0.0038
1672.00,0.0038
1671.00,0.0039
1670.00,0.0039
1669.00,0.0039
1668.00,0.0040
1667.00,0.0041
1666.00,0.0041
1665.00,0.0042
1664.00,0.0042
1663.00,0.0042
1662.00,0.0042
1661.00,0.0043
1660.00,0.0043
1659.00,0.0044
1658.00,0.0045
1657.00,0.0046
1656.00,0.0046
1655.00,0.0045
1654.00,0.0045
1653.00,0.0046
1652.00,0.0047
1651.00,0.0048
1650.00,0.0048
1649.00,0.0048
1648.00,0.0049
1647.00,0.0050
1646.00,0.0051
1645.00,0.0051
1644.00,0.0051
1643.00,0.0050
1642.00,0.0050
1641.00,0.0050
1640.00,0.0051
1639.00,0.0051
1638.00,0.0051
1637.00,0.0051
1636.00,0.0052
1635.00,0.0052
1634.00,0.0052
1633.00,0.0051
1632.00,0.0051
1631.00,0.0051
1630.00,0.0051
1629.00,0.0050
1628.00,0.0050
1627.00,0.0049
1626.00,0.0049
1625.00,0.0048
1624.00,0.0048
1623.00,0.0048
1622.00,0.0048
1621.00,0.0048
1620.00,0.0047
1619.00,0.0046
1618.00,0.0045
1617.00,0.0045
1616.00,0.0045
1615.00,0.0045
1614.00,0.0045
1613.00,0.0046
1612.00,0.0046
1611.00,0.0046
1610.00,0.0046
1609.00,0.0046
1608.00,0.0046
1607.00,0.0046
1606.00,0.0045
1605.00,0.0046
1604.00,0.0046
1603.00,0.0046
1602.00,0.0045
1601.00,0.0045
1600.00,0.0045
1599.00,0.0046
1598.00,0.0046
1597.00,0.0047
1596.00,0.0047
1595.00,0.0047
1594.00,0.0046
1593.00,0.0046
1592.00,0.0046
1591.00,0.0046
1590.00,0.0047
1589.00,0.0048
1588.00,0.0049
1587.00,0.0050
1586.00,0.0051
1585.00,0.0052
1584.00,0.0053
1583.00,0.0054
1582.00,0.0056
1581.00,0.0057
1580.00,0.0058
1579.00,0.0059
1578.00,0.0060
1577.00,0.0060
1576.00,0.0061
1575.00,0.0061
1574.00,0.0060
1573.00,0.0059
1572.00,0.0058
1571.00,0.0057
1570.00,0.0056
1569.00,0.0055
1568.00,0.0055
1567.00,0.0055
1566.00,0.0054
1565.00,0.0054
1564.00,0.0054
1563.00,0.0054
1562.00,0.0054
1561.00,0.0055
1560.00,0.0055
1559.00,0.0055
1558.00,0.0055
1557.00,0.0056
1556.00,0.0056
1555.00,0.0056
1554.00,0.0056
1553.00,0.0057
1552.00,0.0057
1551.00,0.0058
1550.00,0.0060
1549.00,0.0062
1548.00,0.0064
1547.00,0.0066
1546.00,0.0067
1545.00,0.0069
1544.00,0.0071
1543.00,0.0072
1542.00,0.0073
1541.00,0.0074
1540.00,0.0074
1539.00,0.0072
1538.00,0.0070
1537.00,0.0070
1536.00,0.0069
1535.00,0.0068
1534.00,0.0067
1533.00,0.0065
1532.00,0.0064
1531.00,0.0064
1530.00,0.0064
1529.00,0.0064
1528.00,0.0065
1527.00,0.0066
1526.00,0.0066
1525.00,0.0066
1524.00,0.0066
1523.00,0.0067
1522.00,0.0067
1521.00,0.0069
1520.00,0.0069
1519.00,0.0070
1518.00,0.0070
1517.00,0.0071
1516.00,0.0073
1515.00,0.0073
1514.00,0.0074
1513.00,0.0075
1512.00,0.0077
1511.00,0.0078
1510.00,0.0079
1509.00,0.0080
1508.00,0.0081
1507.00,0.0082
1506.00,0.0082
1505.00,0.0083
1504.00,0.0084
1503.00,0.0086
1502.00,0.0087
1501.00,0.0089
1500.00,0.0091
1499.00,0.0092
1498.00,0.0094
1497.00,0.0097
1496.00,0.0101
1495.00,0.0103
1494.00,0.0105
1493.00,0.0108
1492.00,0.0111
1491.00,0.0114
1490.00,0.0117
1489.00,0.0122
1488.00,0.0128
1487.00,0.0132
1486.00,0.0137
1485.00,0.0143
1484.00,0.0151
1483.00,0.0159
1482.00,0.0168
1481.00,0.0180
1480.00,0.0193
1479.00,0.0206
1478.00,0.0222
1477.00,0.0243
1476.00,0.0269
1475.00,0.0299
1474.00,0.0340
1473.00,0.0398
1472.00,0.0467
1471.00,0.0533
1470.00,0.0597
1469.00,0.0664
1468.00,0.0737
1467.00,0.0818
1466.00,0.0909
1465.00,0.1009
1464.00,0.1095
1463.00,0.1154
1462.00,0.1190
1461.00,0.1213
1460.00,0.1227
1459.00,0.1235
1458.00,0.1238
1457.00,0.1240
1456.00,0.1235
1455.00,0.1225
1454.00,0.1211
1453.00,0.1192
1452.00,0.1163
1451.00,0.1122
1450.00,0.1068
1449.00,0.0995
1448.00,0.0904
1447.00,0.0809
1446.00,0.0725
1445.00,0.0654
1444.00,0.0594
1443.00,0.0545
1442.00,0.0509
1441.00,0.0484
1440.00,0.0470
1439.00,0.0466
1438.00,0.0470
1437.00,0.0474
1436.00,0.0467
1435.00,0.0444
1434.00,0.0408
1433.00,0.0366
1432.00,0.0321
1431.00,0.0281
1430.00,0.0250
1429.00,0.0227
1428.00,0.0210
1427.00,0.0200
1426.00,0.0193
1425.00,0.0187
1424.00,0.0181
1423.00,0.0177
1422.00,0.0175
1421.00,0.0172
1420.00,0.0169
1419.00,0.0166
1418.00,0.0163
1417.00,0.0160
1416.00,0.0157
1415.00,0.0155
1414.00,0.0154
1413.00,0.0152
1412.00,0.0149
1411.00,0.0147
1410.00,0.0146
1409.00,0.0144
1408.00,0.0142
1407.00,0.0142
1406.00,0.0143
1405.00,0.0142
1404.00,0.0141
1403.00,0.0140
1402.00,0.0140
1401.00,0.0140
1400.00,0.0140
1399.00,0.0141
1398.00,0.0143
1397.00,0.0145
1396.00,0.0147
1395.00,0.0150
1394.00,0.0155
1393.00,0.0160
1392.00,0.0164
1391.00,0.0171
1390.00,0.0181
1389.00,0.0194
1388.00,0.0214
1387.00,0.0245
1386.00,0.0287
1385.00,0.0343
1384.00,0.0421
1383.00,0.0532
1382.00,0.0685
1381.00,0.0887
1380.00,0.1140
1379.00,0.1431
1378.00,0.1713
1377.00,0.1919
1376.00,0.1988
1375.00,0.1885
1374.00,0.1641
1373.00,0.1349
1372.00,0.1085
1371.00,0.0870
1370.00,0.0699
1369.00,0.0569
1368.00,0.0479
1367.00,0.0425
1366.00,0.0395
1365.00,0.0383
1364.00,0.0385
1363.00,0.0399
1362.00,0.0421
1361.00,0.0444
1360.00,0.0462
1359.00,0.0466
1358.00,0.0456
1357.00,0.0430
1356.00,0.0393
1355.00,0.0352
1354.00,0.0313
1353.00,0.0278
1352.00,0.0250
1351.00,0.0227
1350.00,0.0208
1349.00,0.0193
1348.00,0.0180
1347.00,0.0170
1346.00,0.0161
1345.00,0.0153
1344.00,0.0147
1343.00,0.0142
1342.00,0.0138
1341.00,0.0135
1340.00,0.0133
1339.00,0.0131
1338.00,0.0130
1337.00,0.0130
1336.00,0.0131
1335.00,0.0132
1334.00,0.0135
1333.00,0.0139
1332.00,0.0144
1331.00,0.0148
1330.00,0.0149
1329.00,0.0148
1328.00,0.0144
1327.00,0.0139
1326.00,0.0133
1325.00,0.0126
1324.00,0.0120
1323.00,0.0115
1322.00,0.0111
1321.00,0.0107
1320.00,0.0105
1319.00,0.0103
1318.00,0.0102
1317.00,0.0101
1316.00,0.0100
1315.00,0.0099
1314.00,0.0099
1313.00,0.0098
1312.00,0.0099
1311.00,0.0101
1310.00,0.0105
1309.00,0.0110
1308.00,0.0118
1307.00,0.0127
1306.00,0.0136
1305.00,0.0141
1304.00,0.0143
1303.00,0.0141
1302.00,0.0138
1301.00,0.0135
1300.00,0.0134
1299.00,0.0135
1298.00,0.0137
1297.00,0.0138
1296.00,0.0138
1295.00,0.0136
1294.00,0.0132
1293.00,0.0127
1292.00,0.0121
1291.00,0.0116
1290.00,0.0112
1289.00,0.0108
1288.00,0.0105
1287.00,0.0103
1286.00,0.0100
1285.00,0.0098
1284.00,0.0096
1283.00,0.0094
1282.00,0.0093
1281.00,0.0092
1280.00,0.0091
1279.00,0.0091
1278.00,0.0090
1277.00,0.0089
1276.00,0.0088
1275.00,0.0088
1274.00,0.0088
1273.00,0.0088
1272.00,0.0088
1271.00,0.0089
1270.00,0.0090
1269.00,0.0091
1268.00,0.0093
1267.00,0.0095
1266.00,0.0098
1265.00,0.0100
1264.00,0.0102
1263.00,0.0105
1262.00,0.0108
1261.00,0.0111
1260.00,0.0116
1259.00,0.0121
1258.00,0.0126
1257.00,0.0131
1256.00,0.0132
1255.00,0.0130
1254.00,0.0125
1253.00,0.0118
1252.00,0.0111
1251.00,0.0105
1250.00,0.0101
1249.00,0.0098
1248.00,0.0095
1247.00,0.0093
1246.00,0.0091
1245.00,0.0089
1244.00,0.0087
1243.00,0.0086
1242.00,0.0085
1241.00,0.0084
1240.00,0.0084
1239.00,0.0084
1238.00,0.0084
1237.00,0.0084
1236.00,0.0084
1235.00,0.0084
1234.00,0.0085
1233.00,0.0085
1232.00,0.0085
1231.00,0.0086
1230.00,0.0086
1229.00,0.0087
1228.00,0.0088
1227.00,0.0089
1226.00,0.0092
1225.00,0.0094
1224.00,0.0098
1223.00,0.0102
1222.00,0.0106
1221.00,0.0108
1220.00,0.0110
1219.00,0.0110
1218.00,0.0109
1217.00,0.0107
1216.00,0.0104
1215.00,0.0101
1214.00,0.0097
1213.00,0.0094
1212.00,0.0092
1211.00,0.0091
1210.00,0.0090
1209.00,0.0088
1208.00,0.0087
1207.00,0.0086
1206.00,0.0086
1205.00,0.0085
1204.00,0.0085
1203.00,0.0085
1202.00,0.0084
1201.00,0.0084
1200.00,0.0083
1199.00,0.0083
1198.00,0.0083
1197.00,0.0084
1196.00,0.0084
1195.00,0.0083
1194.00,0.0083
1193.00,0.0083
1192.00,0.0083
1191.00,0.0083
1190.00,0.0083
1189.00,0.0084
1188.00,0.0084
1187.00,0.0084
1186.00,0.0085
1185.00,0.0086
1184.00,0.0087
1183.00,0.0089
1182.00,0.0090
1181.00,0.0093
1180.00,0.0096
1179.00,0.0101
1178.00,0.0106
1177.00,0.0113
1176.00,0.0122
1175.00,0.0135
1174.00,0.0151
1173.00,0.0172
1172.00,0.0196
1171.00,0.0223
1170.00,0.0249
1169.00,0.0270
1168.00,0.0281
1167.00,0.0283
1166.00,0.0276
1165.00,0.0265
1164.00,0.0252
1163.00,0.0240
1162.00,0.0229
1161.00,0.0220
1160.00,0.0213
1159.00,0.0208
1158.00,0.0204
1157.00,0.0202
1156.00,0.0200
1155.00,0.0199
1154.00,0.0198
1153.00,0.0196
1152.00,0.0192
1151.00,0.0186
1150.00,0.0177
1149.00,0.0168
1148.00,0.0158
1147.00,0.0149
1146.00,0.0141
1145.00,0.0134
1144.00,0.0127
1143.00,0.0121
1142.00,0.0115
1141.00,0.0110
1140.00,0.0105
1139.00,0.0101
1138.00,0.0097
1137.00,0.0094
1136.00,0.0092
1135.00,0.0089
1134.00,0.0088
1133.00,0.0087
1132.00,0.0087
1131.00,0.0088
1130.00,0.0089
1129.00,0.0090
1128.00,0.0090
1127.00,0.0090
1126.00,0.0089
1125.00,0.0088
1124.00,0.0087
1123.00,0.0087
1122.00,0.0087
1121.00,0.0087
1120.00,0.0088
1119.00,0.0089
1118.00,0.0090
1117.00,0.0092
1116.00,0.0093
1115.00,0.0095
1114.00,0.0097
1113.00,0.0099
1112.00,0.0102
1111.00,0.0104
1110.00,0.0108
1109.00,0.0113
1108.00,0.0118
1107.00,0.0124
1106.00,0.0130
1105.00,0.0137
1104.00,0.0142
1103.00,0.0145
1102.00,0.0144
1101.00,0.0140
1100.00,0.0134
1099.00,0.0127
1098.00,0.0121
1097.00,0.0116
1096.00,0.0112
1095.00,0.0109
1094.00,0.0105
1093.00,0.0102
1092.00,0.0099
1091.00,0.0096
1090.00,0.0095
1089.00,0.0095
1088.00,0.0095
1087.00,0.0095
1086.00,0.0094
1085.00,0.0094
1084.00,0.0094
1083.00,0.0094
1082.00,0.0095
1081.00,0.0095
1080.00,0.0094
1079.00,0.0094
1078.00,0.0093
1077.00,0.0091
1076.00,0.0090
1075.00,0.0090
1074.00,0.0090
1073.00,0.0090
1072.00,0.0090
1071.00,0.0090
1070.00,0.0090
1069.00,0.0090
1068.00,0.0091
1067.00,0.0092
1066.00,0.0093
1065.00,0.0094
1064.00,0.0095
1063.00,0.0096
1062.00,0.0096
1061.00,0.0097
1060.00,0.0098
1059.00,0.0100
1058.00,0.0102
1057.00,0.0104
1056.00,0.0106
1055.00,0.0108
1054.00,0.0110
1053.00,0.0112
1052.00,0.0114
1051.00,0.0117
1050.00,0.0120
1049.00,0.0123
1048.00,0.0128
1047.00,0.0132
1046.00,0.0136
1045.00,0.0139
1044.00,0.0140
1043.00,0.0140
1042.00,0.0138
1041.00,0.0136
1040.00,0.0134
1039.00,0.0132
1038.00,0.0131
1037.00,0.0131
1036.00,0.0130
1035.00,0.0129
1034.00,0.0128
1033.00,0.0126
1032.00,0.0126
1031.00,0.0126
1030.00,0.0128
1029.00,0.0129
1028.00,0.0130
1027.00,0.0131
1026.00,0.0131
1025.00,0.0133
1024.00,0.0135
1023.00,0.0137
1022.00,0.0140
1021.00,0.0141
1020.00,0.0143
1019.00,0.0144
1018.00,0.0145
1017.00,0.0146
1016.00,0.0147
1015.00,0.0148
1014.00,0.0148
1013.00,0.0147
1012.00,0.0146
1011.00,0.0146
1010.00,0.0145
1009.00,0.0145
1008.00,0.0147
1007.00,0.0149
1006.00,0.0154
1005.00,0.0162
1004.00,0.0175
1003.00,0.0193
1002.00,0.0217
1001.00,0.0247
1000.00,0.0278
999.00,0.0303
998.00,0.0313
997.00,0.0306
996.00,0.0282
995.00,0.0250
994.00,0.0217
993.00,0.0188
992.00,0.0166
991.00,0.0150
990.00,0.0139
989.00,0.0131
988.00,0.0126
987.00,0.0123
986.00,0.0124
985.00,0.0126
984.00,0.0130
983.00,0.0136
982.00,0.0145
981.00,0.0159
980.00,0.0177
979.00,0.0203
978.00,0.0234
977.00,0.0271
976.00,0.0309
975.00,0.0344
974.00,0.0368
973.00,0.0373
972.00,0.0358
971.00,0.0324
970.00,0.0280
969.00,0.0238
968.00,0.0202
967.00,0.0175
966.00,0.0156
965.00,0.0142
964.00,0.0131
963.00,0.0122
962.00,0.0115
961.00,0.0109
960.00,0.0105
959.00,0.0101
958.00,0.0099
957.00,0.0097
956.00,0.0095
955.00,0.0094
954.00,0.0093
953.00,0.0091
952.00,0.0090
951.00,0.0090
950.00,0.0090
949.00,0.0090
948.00,0.0090
947.00,0.0090
946.00,0.0091
945.00,0.0093
944.00,0.0096
943.00,0.0099
942.00,0.0103
941.00,0.0105
940.00,0.0106
939.00,0.0103
938.00,0.0098
937.00,0.0092
936.00,0.0086
935.00,0.0082
934.00,0.0079
933.00,0.0077
932.00,0.0075
931.00,0.0073
930.00,0.0071
929.00,0.0070
928.00,0.0069
927.00,0.0069
926.00,0.0069
925.00,0.0069
924.00,0.0069
923.00,0.0069
922.00,0.0069
921.00,0.0069
920.00,0.0070
919.00,0.0072
918.00,0.0073
917.00,0.0073
916.00,0.0073
915.00,0.0074
914.00,0.0075
913.00,0.0077
912.00,0.0079
911.00,0.0081
910.00,0.0083
909.00,0.0085
908.00,0.0089
907.00,0.0096
906.00,0.0105
905.00,0.0116
904.00,0.0130
903.00,0.0148
902.00,0.0167
901.00,0.0185
900.00,0.0196
899.00,0.0198
898.00,0.0189
897.00,0.0172
896.00,0.0151
895.00,0.0132
894.00,0.0116
893.00,0.0105
892.00,0.0097
891.00,0.0092
890.00,0.0088
889.00,0.0085
888.00,0.0082
887.00,0.0081
886.00,0.0080
885.00,0.0080
884.00,0.0081
883.00,0.0083
882.00,0.0084
881.00,0.0085
880.00,0.0086
879.00,0.0089
878.00,0.0093
877.00,0.0096
876.00,0.0099
875.00,0.0102
874.00,0.0104
873.00,0.0103
872.00,0.0100
871.00,0.0097
870.00,0.0094
869.00,0.0091
868.00,0.0089
867.00,0.0088
866.00,0.0088
865.00,0.0088
864.00,0.0089
863.00,0.0091
862.00,0.0093
861.00,0.0095
860.00,0.0095
859.00,0.0095
858.00,0.0095
857.00,0.0095
856.00,0.0096
855.00,0.0097
854.00,0.0100
853.00,0.0102
852.00,0.0104
851.00,0.0106
850.00,0.0109
849.00,0.0114
848.00,0.0121
847.00,0.0132
846.00,0.0148
845.00,0.0174
844.00,0.0209
843.00,0.0251
842.00,0.0284
841.00,0.0293
840.00,0.0274
839.00,0.0236
838.00,0.0196
837.00,0.0163
836.00,0.0142
835.00,0.0129
834.00,0.0121
833.00,0.0115
832.00,0.0112
831.00,0.0109
830.00,0.0108
829.00,0.0107
828.00,0.0106
827.00,0.0106
826.00,0.0106
825.00,0.0107
824.00,0.0108
823.00,0.0109
822.00,0.0110
821.00,0.0111
820.00,0.0113
819.00,0.0117
818.00,0.0122
817.00,0.0129
816.00,0.0138
815.00,0.0150
814.00,0.0167
813.00,0.0187
812.00,0.0210
811.00,0.0231
810.00,0.0246
809.00,0.0250
808.00,0.0243
807.00,0.0226
806.00,0.0204
805.00,0.0183
804.00,0.0167
803.00,0.0154
802.00,0.0145
801.00,0.0138
800.00,0.0132
799.00,0.0126
798.00,0.0120
797.00,0.0114
796.00,0.0109
795.00,0.0106
794.00,0.0104
793.00,0.0102
792.00,0.0100
791.00,0.0098
790.00,0.0096
789.00,0.0093
788.00,0.0090
787.00,0.0087
786.00,0.0083
785.00,0.0080
784.00,0.0078
783.00,0.0076
782.00,0.0075
781.00,0.0075
780.00,0.0075
779.00,0.0075
778.00,0.0074
777.00,0.0074
776.00,0.0074
775.00,0.0074
774.00,0.0074
773.00,0.0074
772.00,0.0074
771.00,0.0074
770.00,0.0075
769.00,0.0075
768.00,0.0076
767.00,0.0076
766.00,0.0076
765.00,0.0077
764.00,0.0078
763.00,0.0079
762.00,0.0079
761.00,0.0078
760.00,0.0077
759.00,0.0078
758.00,0.0080
757.00,0.0081
756.00,0.0083
755.00,0.0083
754.00,0.0084
753.00,0.0084
752.00,0.0085
751.00,0.0087
750.00,0.0089
749.00,0.0091
748.00,0.0092
747.00,0.0092
746.00,0.0093
745.00,0.0094
744.00,0.0096
743.00,0.0099
742.00,0.0102
741.00,0.0105
740.00,0.0108
739.00,0.0111
738.00,0.0114
737.00,0.0117
736.00,0.0121
735.00,0.0124
734.00,0.0128
733.00,0.0133
732.00,0.0139
731.00,0.0146
730.00,0.0151
729.00,0.0154
728.00,0.0154
727.00,0.0154
726.00,0.0156
725.00,0.0161
724.00,0.0167
723.00,0.0175
722.00,0.0182
721.00,0.0187
720.00,0.0186
719.00,0.0178
718.00,0.0166
717.00,0.0155
716.00,0.0145
715.00,0.0138
714.00,0.0132
713.00,0.0126
712.00,0.0121
711.00,0.0117
710.00,0.0114
709.00,0.0112
708.00,0.0110
707.00,0.0109
706.00,0.0107
705.00,0.0106
704.00,0.0105
703.00,0.0104
702.00,0.0102
701.00,0.0100
700.00,0.0100
699.00,0.0100
698.00,0.0102
697.00,0.0105
696.00,0.0106
695.00,0.0108
694.00,0.0109
693.00,0.0109
692.00,0.0107
691.00,0.0104
690.00,0.0102
689.00,0.0102
688.00,0.0104
687.00,0.0107
686.00,0.0109
685.00,0.0109
684.00,0.0109
683.00,0.0108
682.00,0.0107
681.00,0.0105
680.00,0.0103
679.00,0.0102
678.00,0.0101
677.00,0.0102
676.00,0.0104
675.00,0.0107
674.00,0.0110
673.00,0.0112
672.00,0.0113
671.00,0.0113
670.00,0.0112
669.00,0.0112
668.00,0.0113
667.00,0.0113
666.00,0.0111
665.00,0.0107
664.00,0.0104
663.00,0.0103
662.00,0.0103
661.00,0.0103
660.00,0.0102
659.00,0.0100
658.00,0.0098
657.00,0.0097
656.00,0.0097
655.00,0.0097
654.00,0.0096
653.00,0.0094
652.00,0.0090
651.00,0.0088
650.00,0.0088
649.00,0.0090
648.00,0.0093
647.00,0.0094
646.00,0.0094
645.00,0.0092
644.00,0.0090
643.00,0.0090
642.00,0.0091
641.00,0.0093
640.00,0.0093
639.00,0.0093
638.00,0.0093
637.00,0.0093
636.00,0.0093
635.00,0.0094
634.00,0.0096
633.00,0.0098
632.00,0.0098
631.00,0.0098
630.00,0.0096
629.00,0.0094
628.00,0.0093
627.00,0.0093
626.00,0.0095
625.00,0.0097
624.00,0.0096
623.00,0.0095
622.00,0.0093
621.00,0.0090
620.00,0.0089
619.00,0.0089
618.00,0.0091
617.00,0.0093
616.00,0.0094
615.00,0.0094
614.00,0.0093
613.00,0.0093
612.00,0.0093
611.00,0.0095
610.00,0.0095
609.00,0.0093
608.00,0.0090
607.00,0.0089
606.00,0.0090
605.00,0.0092
604.00,0.0094
603.00,0.0094
602.00,0.0094
601.00,0.0094
600.00,0.0094
599.00,0.0094
598.00,0.0094
597.00,0.0095
596.00,0.0094
595.00,0.0092
594.00,0.0089
593.00,0.0088
592.00,0.0090
591.00,0.0093
590.00,0.0097
589.00,0.0099
588.00,0.0097
587.00,0.0094
586.00,0.0091
585.00,0.0089
584.00,0.0089
583.00,0.0091
582.00,0.0092
581.00,0.0092
580.00,0.0091
579.00,0.0090
578.00,0.0092
577.00,0.0096
576.00,0.0099
575.00,0.0101
574.00,0.0101
573.00,0.0100
572.00,0.0097
571.00,0.0093
570.00,0.0090
569.00,0.0090
568.00,0.0091
567.00,0.0092
566.00,0.0092
565.00,0.0090
564.00,0.0089
563.00,0.0090
562.00,0.0092
561.00,0.0094
560.00,0.0096
559.00,0.0097
558.00,0.0098
557.00,0.0099
556.00,0.0100
555.00,0.0100
554.00,0.0100
553.00,0.0097
552.00,0.0093
551.00,0.0089
550.00,0.0089
549.00,0.0091
548.00,0.0094
547.00,0.0096
546.00,0.0098
545.00,0.0100
544.00,0.0103
543.00,0.0106
542.00,0.0110
541.00,0.0115
540.00,0.0120
539.00,0.0124
538.00,0.0126
537.00,0.0127
536.00,0.0127
535.00,0.0127
534.00,0.0128
533.00,0.0129
532.00,0.0129
531.00,0.0128
530.00,0.0126
529.00,0.0124
528.00,0.0119
527.00,0.0111
526.00,0.0104
525.00,0.0102
524.00,0.0106
523.00,0.0112
522.00,0.0117
521.00,0.0116
520.00,0.0112
519.00,0.0106
518.00,0.0103
517.00,0.0102
516.00,0.0101
515.00,0.0097
514.00,0.0092
513.00,0.0090
512.00,0.0091
511.00,0.0095
510.00,0.0099
509.00,0.0101
508.00,0.0100
507.00,0.0098
506.00,0.0097
505.00,0.0096
504.00,0.0096
503.00,0.0096
502.00,0.0098
501.00,0.0101
500.00,0.0102
499.00,0.0103
498.00,0.0103
497.00,0.0102
496.00,0.0101
495.00,0.0101
494.00,0.0102
493.00,0.0104
492.00,0.0107
491.00,0.0106
490.00,0.0102
489.00,0.0099
488.00,0.0097
487.00,0.0097
486.00,0.0098
485.00,0.0097
484.00,0.0095
483.00,0.0092
482.00,0.0088
481.00,0.0087
480.00,0.0092
479.00,0.0105
478.00,0.0121
477.00,0.0133
476.00,0.0136
475.00,0.0135
474.00,0.0136
473.00,0.0142
472.00,0.0149
471.00,0.0150
470.00,0.0149
469.00,0.0149
468.00,0.0153
467.00,0.0162
466.00,0.0173
465.00,0.0184
464.00,0.0191
463.00,0.0197
462.00,0.0203
461.00,0.0212
460.00,0.0224
459.00,0.0235
458.00,0.0243
457.00,0.0245
456.00,0.0241
455.00,0.0230
454.00,0.0217
453.00,0.0205
452.00,0.0196
451.00,0.0189
450.00,0.0182
