Created as New Dataset,Sample 193 By Administrator Date Wednesday, September 10 2025
cm-1,A
4000.00,0.0018
3999.00,0.0018
3998.00,0.0019
3997.00,0.0019
3996.00,0.0019
3995.00,0.0019
3994.00,0.0019
3993.00,0.0019
3992.00,0.0019
3991.00,0.0018
3990.00,0.0018
3989.00,0.0018
3988.00,0.0018
3987.00,0.0018
3986.00,0.0018
3985.00,0.0018
3984.00,0.0018
3983.00,0.0018
3982.00,0.0018
3981.00,0.0018
3980.00,0.0018
3979.00,0.0017
3978.00,0.0017
3977.00,0.0017
3976.00,0.0017
3975.00,0.0017
3974.00,0.0017
3973.00,0.0017
3972.00,0.0017
3971.00,0.0017
3970.00,0.0017
3969.00,0.0017
3968.00,0.0017
3967.00,0.0017
3966.00,0.0016
3965.00,0.0016
3964.00,0.0016
3963.00,0.0016
3962.00,0.0016
3961.00,0.0017
3960.00,0.0017
3959.00,0.0017
3958.00,0.0017
3957.00,0.0017
3956.00,0.0016
3955.00,0.0016
3954.00,0.0016
3953.00,0.0016
3952.00,0.0017
3951.00,0.0017
3950.00,0.0018
3949.00,0.0018
3948.00,0.0018
3947.00,0.0017
3946.00,0.0017
3945.00,0.0016
3944.00,0.0016
3943.00,0.0016
3942.00,0.0016
3941.00,0.0016
3940.00,0.0016
3939.00,0.0017
3938.00,0.0017
3937.00,0.0017
3936.00,0.0016
3935.00,0.0016
3934.00,0.0016
3933.00,0.0016
3932.00,0.0016
3931.00,0.0016
3930.00,0.0016
3929.00,0.0017
3928.00,0.0017
3927.00,0.0017
3926.00,0.0017
3925.00,0.0017
3924.00,0.0017
3923.00,0.0017
3922.00,0.0017
3921.00,0.0017
3920.00,0.0017
3919.00,0.0018
3918.00,0.0018
3917.00,0.0018
3916.00,0.0017
3915.00,0.0017
3914.00,0.0017
3913.00,0.0017
3912.00,0.0017
3911.00,0.0018
3910.00,0.0018
3909.00,0.0018
3908.00,0.0017
3907.00,0.0017
3906.00,0.0016
3905.00,0.0016
3904.00,0.0016
3903.00,0.0016
3902.00,0.0016
3901.00,0.0016
3900.00,0.0016
3899.00,0.0016
3898.00,0.0016
3897.00,0.0016
3896.00,0.0016
3895.00,0.0016
3894.00,0.0016
3893.00,0.0017
3892.00,0.0017
3891.00,0.0016
3890.00,0.0016
3889.00,0.0016
3888.00,0.0016
3887.00,0.0016
3886.00,0.0017
3885.00,0.0016
3884.00,0.0016
3883.00,0.0015
3882.00,0.0015
3881.00,0.0016
3880.00,0.0016
3879.00,0.0016
3878.00,0.0016
3877.00,0.0016
3876.00,0.0016
3875.00,0.0016
3874.00,0.0016
3873.00,0.0016
3872.00,0.0016
3871.00,0.0016
3870.00,0.0016
3869.00,0.0016
3868.00,0.0016
3867.00,0.0016
3866.00,0.0016
3865.00,0.0016
3864.00,0.0016
3863.00,0.0016
3862.00,0.0015
3861.00,0.0015
3860.00,0.0015
3859.00,0.0015
3858.00,0.0015
3857.00,0.0015
3856.00,0.0015
3855.00,0.0016
3854.00,0.0016
3853.00,0.0016
3852.00,0.0016
3851.00,0.0015
3850.00,0.0015
3849.00,0.0015
3848.00,0.0015
3847.00,0.0015
3846.00,0.0015
3845.00,0.0014
3844.00,0.0015
3843.00,0.0015
3842.00,0.0015
3841.00,0.0015
3840.00,0.0015
3839.00,0.0015
3838.00,0.0015
3837.00,0.0015
3836.00,0.0015
3835.00,0.0015
3834.00,0.0015
3833.00,0.0015
3832.00,0.0015
3831.00,0.0015
3830.00,0.0015
3829.00,0.0015
3828.00,0.0015
3827.00,0.0015
3826.00,0.0015
3825.00,0.0015
3824.00,0.0015
3823.00,0.0015
3822.00,0.0016
3821.00,0.0016
3820.00,0.0015
3819.00,0.0015
3818.00,0.0014
3817.00,0.0015
3816.00,0.0015
3815.00,0.0015
3814.00,0.0016
3813.00,0.0016
3812.00,0.0016
3811.00,0.0017
3810.00,0.0017
3809.00,0.0017
3808.00,0.0017
3807.00,0.0016
3806.00,0.0016
3805.00,0.0015
3804.00,0.0015
3803.00,0.0015
3802.00,0.0015
3801.00,0.0015
3800.00,0.0015
3799.00,0.0015
3798.00,0.0015
3797.00,0.0015
3796.00,0.0016
3795.00,0.0016
3794.00,0.0016
3793.00,0.0016
3792.00,0.0016
3791.00,0.0016
3790.00,0.0016
3789.00,0.0016
3788.00,0.0016
3787.00,0.0016
3786.00,0.0016
3785.00,0.0016
3784.00,0.0016
3783.00,0.0015
3782.00,0.0015
3781.00,0.0015
3780.00,0.0015
3779.00,0.0016
3778.00,0.0016
3777.00,0.0016
3776.00,0.0016
3775.00,0.0017
3774.00,0.0017
3773.00,0.0017
3772.00,0.0017
3771.00,0.0016
3770.00,0.0016
3769.00,0.0016
3768.00,0.0015
3767.00,0.0015
3766.00,0.0015
3765.00,0.0016
3764.00,0.0016
3763.00,0.0017
3762.00,0.0017
3761.00,0.0017
3760.00,0.0017
3759.00,0.0017
3758.00,0.0016
3757.00,0.0016
3756.00,0.0016
3755.00,0.0016
3754.00,0.0016
3753.00,0.0016
3752.00,0.0015
3751.00,0.0015
3750.00,0.0015
3749.00,0.0015
3748.00,0.0015
3747.00,0.0015
3746.00,0.0015
3745.00,0.0015
3744.00,0.0014
3743.00,0.0014
3742.00,0.0013
3741.00,0.0013
3740.00,0.0013
3739.00,0.0013
3738.00,0.0014
3737.00,0.0014
3736.00,0.0014
3735.00,0.0014
3734.00,0.0013
3733.00,0.0013
3732.00,0.0014
3731.00,0.0015
3730.00,0.0015
3729.00,0.0015
3728.00,0.0015
3727.00,0.0014
3726.00,0.0014
3725.00,0.0014
3724.00,0.0014
3723.00,0.0014
3722.00,0.0014
3721.00,0.0015
3720.00,0.0015
3719.00,0.0015
3718.00,0.0015
3717.00,0.0015
3716.00,0.0014
3715.00,0.0014
3714.00,0.0014
3713.00,0.0013
3712.00,0.0013
3711.00,0.0013
3710.00,0.0013
3709.00,0.0013
3708.00,0.0013
3707.00,0.0013
3706.00,0.0013
3705.00,0.0013
3704.00,0.0013
3703.00,0.0013
3702.00,0.0013
3701.00,0.0013
3700.00,0.0013
3699.00,0.0013
3698.00,0.0013
3697.00,0.0013
3696.00,0.0013
3695.00,0.0014
3694.00,0.0014
3693.00,0.0013
3692.00,0.0012
3691.00,0.0012
3690.00,0.0012
3689.00,0.0012
3688.00,0.0013
3687.00,0.0014
3686.00,0.0014
3685.00,0.0014
3684.00,0.0014
3683.00,0.0014
3682.00,0.0013
3681.00,0.0013
3680.00,0.0013
3679.00,0.0013
3678.00,0.0013
3677.00,0.0013
3676.00,0.0013
3675.00,0.0013
3674.00,0.0012
3673.00,0.0012
3672.00,0.0011
3671.00,0.0012
3670.00,0.0012
3669.00,0.0012
3668.00,0.0011
3667.00,0.0012
3666.00,0.0012
3665.00,0.0012
3664.00,0.0013
3663.00,0.0013
3662.00,0.0014
3661.00,0.0014
3660.00,0.0013
3659.00,0.0013
3658.00,0.0013
3657.00,0.0013
3656.00,0.0013
3655.00,0.0013
3654.00,0.0013
3653.00,0.0012
3652.00,0.0012
3651.00,0.0012
3650.00,0.0012
3649.00,0.0013
3648.00,0.0012
3647.00,0.0012
3646.00,0.0013
3645.00,0.0013
3644.00,0.0013
3643.00,0.0013
3642.00,0.0013
3641.00,0.0013
3640.00,0.0013
3639.00,0.0013
3638.00,0.0013
3637.00,0.0013
3636.00,0.0013
3635.00,0.0014
3634.00,0.0014
3633.00,0.0014
3632.00,0.0014
3631.00,0.0014
3630.00,0.0014
3629.00,0.0013
3628.00,0.0013
3627.00,0.0013
3626.00,0.0012
3625.00,0.0012
3624.00,0.0012
3623.00,0.0012
3622.00,0.0012
3621.00,0.0012
3620.00,0.0013
3619.00,0.0013
3618.00,0.0013
3617.00,0.0013
3616.00,0.0013
3615.00,0.0014
3614.00,0.0014
3613.00,0.0014
3612.00,0.0014
3611.00,0.0013
3610.00,0.0013
3609.00,0.0014
3608.00,0.0014
3607.00,0.0014
3606.00,0.0014
3605.00,0.0014
3604.00,0.0014
3603.00,0.0014
3602.00,0.0014
3601.00,0.0014
3600.00,0.0014
3599.00,0.0015
3598.00,0.0015
3597.00,0.0015
3596.00,0.0015
3595.00,0.0015
3594.00,0.0015
3593.00,0.0015
3592.00,0.0015
3591.00,0.0015
3590.00,0.0015
3589.00,0.0015
3588.00,0.0015
3587.00,0.0015
3586.00,0.0015
3585.00,0.0015
3584.00,0.0015
3583.00,0.0015
3582.00,0.0016
3581.00,0.0015
3580.00,0.0015
3579.00,0.0015
3578.00,0.0015
3577.00,0.0016
3576.00,0.0016
3575.00,0.0016
3574.00,0.0016
3573.00,0.0016
3572.00,0.0016
3571.00,0.0016
3570.00,0.0016
3569.00,0.0015
3568.00,0.0015
3567.00,0.0014
3566.00,0.0014
3565.00,0.0015
3564.00,0.0015
3563.00,0.0015
3562.00,0.0016
3561.00,0.0016
3560.00,0.0017
3559.00,0.0017
3558.00,0.0017
3557.00,0.0017
3556.00,0.0016
3555.00,0.0016
3554.00,0.0017
3553.00,0.0017
3552.00,0.0017
3551.00,0.0017
3550.00,0.0017
3549.00,0.0017
3548.00,0.0017
3547.00,0.0017
3546.00,0.0017
3545.00,0.0017
3544.00,0.0018
3543.00,0.0018
3542.00,0.0018
3541.00,0.0018
3540.00,0.0018
3539.00,0.0018
3538.00,0.0018
3537.00,0.0019
3536.00,0.0019
3535.00,0.0019
3534.00,0.0019
3533.00,0.0019
3532.00,0.0020
3531.00,0.0020
3530.00,0.0020
3529.00,0.0020
3528.00,0.0021
3527.00,0.0021
3526.00,0.0021
3525.00,0.0020
3524.00,0.0020
3523.00,0.0020
3522.00,0.0020
3521.00,0.0020
3520.00,0.0021
3519.00,0.0021
3518.00,0.0021
3517.00,0.0021
3516.00,0.0021
3515.00,0.0021
3514.00,0.0021
3513.00,0.0021
3512.00,0.0021
3511.00,0.0021
3510.00,0.0021
3509.00,0.0021
3508.00,0.0021
3507.00,0.0021
3506.00,0.0021
3505.00,0.0021
3504.00,0.0021
3503.00,0.0021
3502.00,0.0021
3501.00,0.0022
3500.00,0.0022
3499.00,0.0022
3498.00,0.0022
3497.00,0.0022
3496.00,0.0022
3495.00,0.0022
3494.00,0.0023
3493.00,0.0023
3492.00,0.0023
3491.00,0.0022
3490.00,0.0022
3489.00,0.0022
3488.00,0.0022
3487.00,0.0022
3486.00,0.0022
3485.00,0.0023
3484.00,0.0023
3483.00,0.0023
3482.00,0.0023
3481.00,0.0023
3480.00,0.0023
3479.00,0.0024
3478.00,0.0024
3477.00,0.0024
3476.00,0.0023
3475.00,0.0023
3474.00,0.0023
3473.00,0.0023
3472.00,0.0023
3471.00,0.0023
3470.00,0.0024
3469.00,0.0024
3468.00,0.0024
3467.00,0.0024
3466.00,0.0024
3465.00,0.0024
3464.00,0.0025
3463.00,0.0025
3462.00,0.0026
3461.00,0.0026
3460.00,0.0025
3459.00,0.0025
3458.00,0.0025
3457.00,0.0025
3456.00,0.0025
3455.00,0.0025
3454.00,0.0025
3453.00,0.0025
3452.00,0.0026
3451.00,0.0026
3450.00,0.0026
3449.00,0.0026
3448.00,0.0026
3447.00,0.0026
3446.00,0.0026
3445.00,0.0026
3444.00,0.0026
3443.00,0.0026
3442.00,0.0026
3441.00,0.0026
3440.00,0.0027
3439.00,0.0027
3438.00,0.0027
3437.00,0.0027
3436.00,0.0027
3435.00,0.0027
3434.00,0.0027
3433.00,0.0027
3432.00,0.0027
3431.00,0.0027
3430.00,0.0027
3429.00,0.0027
3428.00,0.0028
3427.00,0.0028
3426.00,0.0028
3425.00,0.0027
3424.00,0.0028
3423.00,0.0028
3422.00,0.0028
3421.00,0.0029
3420.00,0.0029
3419.00,0.0030
3418.00,0.0030
3417.00,0.0030
3416.00,0.0029
3415.00,0.0029
3414.00,0.0029
3413.00,0.0029
3412.00,0.0029
3411.00,0.0029
3410.00,0.0029
3409.00,0.0029
3408.00,0.0029
3407.00,0.0029
3406.00,0.0029
3405.00,0.0029
3404.00,0.0029
3403.00,0.0028
3402.00,0.0028
3401.00,0.0028
3400.00,0.0029
3399.00,0.0029
3398.00,0.0029
3397.00,0.0029
3396.00,0.0028
3395.00,0.0028
3394.00,0.0028
3393.00,0.0028
3392.00,0.0028
3391.00,0.0028
3390.00,0.0029
3389.00,0.0029
3388.00,0.0029
3387.00,0.0029
3386.00,0.0029
3385.00,0.0029
3384.00,0.0029
3383.00,0.0029
3382.00,0.0029
3381.00,0.0029
3380.00,0.0029
3379.00,0.0029
3378.00,0.0029
3377.00,0.0029
3376.00,0.0030
3375.00,0.0030
3374.00,0.0030
3373.00,0.0030
3372.00,0.0030
3371.00,0.0030
3370.00,0.0030
3369.00,0.0030
3368.00,0.0030
3367.00,0.0030
3366.00,0.0030
3365.00,0.0030
3364.00,0.0031
3363.00,0.0031
3362.00,0.0031
3361.00,0.0031
3360.00,0.0031
3359.00,0.0031
3358.00,0.0031
3357.00,0.0031
3356.00,0.0031
3355.00,0.0031
3354.00,0.0031
3353.00,0.0031
3352.00,0.0031
3351.00,0.0031
3350.00,0.0031
3349.00,0.0031
3348.00,0.0031
3347.00,0.0030
3346.00,0.0030
3345.00,0.0031
3344.00,0.0031
3343.00,0.0031
3342.00,0.0032
3341.00,0.0031
3340.00,0.0031
3339.00,0.0031
3338.00,0.0031
3337.00,0.0031
3336.00,0.0031
3335.00,0.0031
3334.00,0.0031
3333.00,0.0031
3332.00,0.0030
3331.00,0.0030
3330.00,0.0030
3329.00,0.0030
3328.00,0.0030
3327.00,0.0030
3326.00,0.0030
3325.00,0.0030
3324.00,0.0030
3323.00,0.0030
3322.00,0.0030
3321.00,0.0030
3320.00,0.0030
3319.00,0.0029
3318.00,0.0029
3317.00,0.0029
3316.00,0.0029
3315.00,0.0029
3314.00,0.0029
3313.00,0.0029
3312.00,0.0030
3311.00,0.0030
3310.00,0.0030
3309.00,0.0030
3308.00,0.0030
3307.00,0.0030
3306.00,0.0030
3305.00,0.0030
3304.00,0.0030
3303.00,0.0030
3302.00,0.0030
3301.00,0.0031
3300.00,0.0031
3299.00,0.0031
3298.00,0.0030
3297.00,0.0030
3296.00,0.0030
3295.00,0.0030
3294.00,0.0030
3293.00,0.0030
3292.00,0.0030
3291.00,0.0030
3290.00,0.0030
3289.00,0.0030
3288.00,0.0030
3287.00,0.0030
3286.00,0.0030
3285.00,0.0029
3284.00,0.0029
3283.00,0.0029
3282.00,0.0029
3281.00,0.0030
3280.00,0.0030
3279.00,0.0030
3278.00,0.0031
3277.00,0.0031
3276.00,0.0031
3275.00,0.0031
3274.00,0.0031
3273.00,0.0030
3272.00,0.0031
3271.00,0.0031
3270.00,0.0030
3269.00,0.0030
3268.00,0.0030
3267.00,0.0030
3266.00,0.0030
3265.00,0.0030
3264.00,0.0030
3263.00,0.0030
3262.00,0.0030
3261.00,0.0029
3260.00,0.0029
3259.00,0.0029
3258.00,0.0029
3257.00,0.0029
3256.00,0.0029
3255.00,0.0028
3254.00,0.0029
3253.00,0.0029
3252.00,0.0029
3251.00,0.0029
3250.00,0.0029
3249.00,0.0029
3248.00,0.0029
3247.00,0.0029
3246.00,0.0028
3245.00,0.0028
3244.00,0.0028
3243.00,0.0028
3242.00,0.0028
3241.00,0.0028
3240.00,0.0028
3239.00,0.0028
3238.00,0.0028
3237.00,0.0028
3236.00,0.0029
3235.00,0.0029
3234.00,0.0029
3233.00,0.0029
3232.00,0.0029
3231.00,0.0029
3230.00,0.0029
3229.00,0.0030
3228.00,0.0030
3227.00,0.0030
3226.00,0.0030
3225.00,0.0030
3224.00,0.0030
3223.00,0.0030
3222.00,0.0030
3221.00,0.0030
3220.00,0.0031
3219.00,0.0031
3218.00,0.0031
3217.00,0.0031
3216.00,0.0032
3215.00,0.0032
3214.00,0.0032
3213.00,0.0032
3212.00,0.0032
3211.00,0.0032
3210.00,0.0033
3209.00,0.0033
3208.00,0.0033
3207.00,0.0033
3206.00,0.0033
3205.00,0.0033
3204.00,0.0033
3203.00,0.0034
3202.00,0.0034
3201.00,0.0034
3200.00,0.0034
3199.00,0.0034
3198.00,0.0034
3197.00,0.0034
3196.00,0.0034
3195.00,0.0034
3194.00,0.0034
3193.00,0.0034
3192.00,0.0034
3191.00,0.0034
3190.00,0.0034
3189.00,0.0033
3188.00,0.0033
3187.00,0.0033
3186.00,0.0033
3185.00,0.0033
3184.00,0.0033
3183.00,0.0032
3182.00,0.0032
3181.00,0.0032
3180.00,0.0031
3179.00,0.0031
3178.00,0.0031
3177.00,0.0031
3176.00,0.0031
3175.00,0.0031
3174.00,0.0032
3173.00,0.0032
3172.00,0.0032
3171.00,0.0032
3170.00,0.0032
3169.00,0.0031
3168.00,0.0031
3167.00,0.0031
3166.00,0.0031
3165.00,0.0031
3164.00,0.0031
3163.00,0.0031
3162.00,0.0031
3161.00,0.0031
3160.00,0.0031
3159.00,0.0031
3158.00,0.0031
3157.00,0.0031
3156.00,0.0031
3155.00,0.0031
3154.00,0.0032
3153.00,0.0032
3152.00,0.0031
3151.00,0.0031
3150.00,0.0032
3149.00,0.0032
3148.00,0.0032
3147.00,0.0031
3146.00,0.0031
3145.00,0.0031
3144.00,0.0031
3143.00,0.0031
3142.00,0.0031
3141.00,0.0031
3140.00,0.0031
3139.00,0.0031
3138.00,0.0031
3137.00,0.0031
3136.00,0.0031
3135.00,0.0031
3134.00,0.0030
3133.00,0.0030
3132.00,0.0030
3131.00,0.0030
3130.00,0.0030
3129.00,0.0030
3128.00,0.0030
3127.00,0.0030
3126.00,0.0029
3125.00,0.0029
3124.00,0.0029
3123.00,0.0028
3122.00,0.0028
3121.00,0.0028
3120.00,0.0028
3119.00,0.0028
3118.00,0.0028
3117.00,0.0028
3116.00,0.0028
3115.00,0.0027
3114.00,0.0027
3113.00,0.0027
3112.00,0.0027
3111.00,0.0027
3110.00,0.0027
3109.00,0.0027
3108.00,0.0027
3107.00,0.0027
3106.00,0.0027
3105.00,0.0028
3104.00,0.0028
3103.00,0.0028
3102.00,0.0028
3101.00,0.0028
3100.00,0.0028
3099.00,0.0028
3098.00,0.0028
3097.00,0.0028
3096.00,0.0028
3095.00,0.0028
3094.00,0.0028
3093.00,0.0028
3092.00,0.0028
3091.00,0.0028
3090.00,0.0027
3089.00,0.0027
3088.00,0.0027
3087.00,0.0027
3086.00,0.0027
3085.00,0.0028
3084.00,0.0028
3083.00,0.0028
3082.00,0.0028
3081.00,0.0028
3080.00,0.0028
3079.00,0.0028
3078.00,0.0029
3077.00,0.0029
3076.00,0.0029
3075.00,0.0029
3074.00,0.0029
3073.00,0.0030
3072.00,0.0030
3071.00,0.0030
3070.00,0.0030
3069.00,0.0030
3068.00,0.0030
3067.00,0.0030
3066.00,0.0030
3065.00,0.0030
3064.00,0.0030
3063.00,0.0030
3062.00,0.0030
3061.00,0.0031
3060.00,0.0031
3059.00,0.0031
3058.00,0.0031
3057.00,0.0031
3056.00,0.0032
3055.00,0.0032
3054.00,0.0032
3053.00,0.0032
3052.00,0.0032
3051.00,0.0032
3050.00,0.0032
3049.00,0.0032
3048.00,0.0032
3047.00,0.0032
3046.00,0.0032
3045.00,0.0032
3044.00,0.0033
3043.00,0.0034
3042.00,0.0034
3041.00,0.0035
3040.00,0.0035
3039.00,0.0035
3038.00,0.0035
3037.00,0.0035
3036.00,0.0035
3035.00,0.0035
3034.00,0.0035
3033.00,0.0035
3032.00,0.0036
3031.00,0.0037
3030.00,0.0037
3029.00,0.0038
3028.00,0.0039
3027.00,0.0039
3026.00,0.0040
3025.00,0.0040
3024.00,0.0040
3023.00,0.0041
3022.00,0.0042
3021.00,0.0042
3020.00,0.0043
3019.00,0.0045
3018.00,0.0046
3017.00,0.0047
3016.00,0.0048
3015.00,0.0049
3014.00,0.0050
3013.00,0.0051
3012.00,0.0052
3011.00,0.0053
3010.00,0.0054
3009.00,0.0056
3008.00,0.0058
3007.00,0.0060
3006.00,0.0061
3005.00,0.0062
3004.00,0.0064
3003.00,0.0066
3002.00,0.0068
3001.00,0.0070
3000.00,0.0072
2999.00,0.0075
2998.00,0.0078
2997.00,0.0082
2996.00,0.0085
2995.00,0.0089
2994.00,0.0093
2993.00,0.0098
2992.00,0.0103
2991.00,0.0108
2990.00,0.0114
2989.00,0.0121
2988.00,0.0128
2987.00,0.0136
2986.00,0.0146
2985.00,0.0156
2984.00,0.0168
2983.00,0.0181
2982.00,0.0195
2981.00,0.0212
2980.00,0.0230
2979.00,0.0252
2978.00,0.0276
2977.00,0.0304
2976.00,0.0335
2975.00,0.0371
2974.00,0.0411
2973.00,0.0457
2972.00,0.0508
2971.00,0.0566
2970.00,0.0631
2969.00,0.0702
2968.00,0.0778
2967.00,0.0860
2966.00,0.0944
2965.00,0.1029
2964.00,0.1111
2963.00,0.1188
2962.00,0.1254
2961.00,0.1310
2960.00,0.1357
2959.00,0.1398
2958.00,0.1438
2957.00,0.1483
2956.00,0.1537
2955.00,0.1603
2954.00,0.1678
2953.00,0.1756
2952.00,0.1827
2951.00,0.1879
2950.00,0.1900
2949.00,0.1882
2948.00,0.1822
2947.00,0.1725
2946.00,0.1604
2945.00,0.1473
2944.00,0.1349
2943.00,0.1242
2942.00,0.1158
2941.00,0.1100
2940.00,0.1068
2939.00,0.1058
2938.00,0.1069
2937.00,0.1098
2936.00,0.1144
2935.00,0.1206
2934.00,0.1282
2933.00,0.1371
2932.00,0.1471
2931.00,0.1580
2930.00,0.1697
2929.00,0.1816
2928.00,0.1936
2927.00,0.2054
2926.00,0.2168
2925.00,0.2279
2924.00,0.2389
2923.00,0.2497
2922.00,0.2604
2921.00,0.2708
2920.00,0.2801
2919.00,0.2873
2918.00,0.2912
2917.00,0.2911
2916.00,0.2865
2915.00,0.2783
2914.00,0.2675
2913.00,0.2555
2912.00,0.2435
2911.00,0.2323
2910.00,0.2222
2909.00,0.2130
2908.00,0.2047
2907.00,0.1969
2906.00,0.1894
2905.00,0.1820
2904.00,0.1747
2903.00,0.1675
2902.00,0.1605
2901.00,0.1537
2900.00,0.1472
2899.00,0.1410
2898.00,0.1353
2897.00,0.1300
2896.00,0.1252
2895.00,0.1211
2894.00,0.1176
2893.00,0.1147
2892.00,0.1125
2891.00,0.1108
2890.00,0.1097
2889.00,0.1090
2888.00,0.1087
2887.00,0.1088
2886.00,0.1092
2885.00,0.1100
2884.00,0.1112
2883.00,0.1130
2882.00,0.1152
2881.00,0.1178
2880.00,0.1204
2879.00,0.1226
2878.00,0.1241
2877.00,0.1246
2876.00,0.1242
2875.00,0.1233
2874.00,0.1225
2873.00,0.1222
2872.00,0.1227
2871.00,0.1241
2870.00,0.1259
2869.00,0.1278
2868.00,0.1289
2867.00,0.1285
2866.00,0.1259
2865.00,0.1209
2864.00,0.1140
2863.00,0.1060
2862.00,0.0979
2861.00,0.0909
2860.00,0.0853
2859.00,0.0815
2858.00,0.0792
2857.00,0.0784
2856.00,0.0787
2855.00,0.0798
2854.00,0.0815
2853.00,0.0836
2852.00,0.0857
2851.00,0.0875
2850.00,0.0888
2849.00,0.0898
2848.00,0.0907
2847.00,0.0920
2846.00,0.0941
2845.00,0.0974
2844.00,0.1017
2843.00,0.1069
2842.00,0.1125
2841.00,0.1178
2840.00,0.1221
2839.00,0.1245
2838.00,0.1243
2837.00,0.1210
2836.00,0.1146
2835.00,0.1057
2834.00,0.0951
2833.00,0.0842
2832.00,0.0737
2831.00,0.0644
2830.00,0.0565
2829.00,0.0500
2828.00,0.0447
2827.00,0.0405
2826.00,0.0371
2825.00,0.0343
2824.00,0.0319
2823.00,0.0300
2822.00,0.0282
2821.00,0.0268
2820.00,0.0255
2819.00,0.0244
2818.00,0.0234
2817.00,0.0226
2816.00,0.0218
2815.00,0.0212
2814.00,0.0206
2813.00,0.0200
2812.00,0.0194
2811.00,0.0189
2810.00,0.0183
2809.00,0.0177
2808.00,0.0170
2807.00,0.0164
2806.00,0.0157
2805.00,0.0150
2804.00,0.0144
2803.00,0.0138
2802.00,0.0133
2801.00,0.0128
2800.00,0.0124
2799.00,0.0121
2798.00,0.0118
2797.00,0.0116
2796.00,0.0114
2795.00,0.0111
2794.00,0.0109
2793.00,0.0106
2792.00,0.0103
2791.00,0.0099
2790.00,0.0096
2789.00,0.0093
2788.00,0.0090
2787.00,0.0088
2786.00,0.0086
2785.00,0.0084
2784.00,0.0081
2783.00,0.0079
2782.00,0.0077
2781.00,0.0075
2780.00,0.0073
2779.00,0.0072
2778.00,0.0071
2777.00,0.0069
2776.00,0.0068
2775.00,0.0067
2774.00,0.0066
2773.00,0.0065
2772.00,0.0065
2771.00,0.0064
2770.00,0.0063
2769.00,0.0063
2768.00,0.0063
2767.00,0.0063
2766.00,0.0063
2765.00,0.0063
2764.00,0.0063
2763.00,0.0062
2762.00,0.0061
2761.00,0.0061
2760.00,0.0060
2759.00,0.0059
2758.00,0.0059
2757.00,0.0059
2756.00,0.0059
2755.00,0.0059
2754.00,0.0059
2753.00,0.0059
2752.00,0.0059
2751.00,0.0059
2750.00,0.0059
2749.00,0.0059
2748.00,0.0059
2747.00,0.0059
2746.00,0.0059
2745.00,0.0060
2744.00,0.0060
2743.00,0.0061
2742.00,0.0062
2741.00,0.0063
2740.00,0.0065
2739.00,0.0066
2738.00,0.0067
2737.00,0.0069
2736.00,0.0070
2735.00,0.0072
2734.00,0.0073
2733.00,0.0074
2732.00,0.0076
2731.00,0.0078
2730.00,0.0081
2729.00,0.0084
2728.00,0.0087
2727.00,0.0090
2726.00,0.0092
2725.00,0.0095
2724.00,0.0096
2723.00,0.0096
2722.00,0.0095
2721.00,0.0093
2720.00,0.0090
2719.00,0.0087
2718.00,0.0084
2717.00,0.0081
2716.00,0.0078
2715.00,0.0075
2714.00,0.0072
2713.00,0.0070
2712.00,0.0068
2711.00,0.0066
2710.00,0.0065
2709.00,0.0063
2708.00,0.0062
2707.00,0.0060
2706.00,0.0059
2705.00,0.0058
2704.00,0.0057
2703.00,0.0056
2702.00,0.0055
2701.00,0.0054
2700.00,0.0054
2699.00,0.0053
2698.00,0.0053
2697.00,0.0053
2696.00,0.0052
2695.00,0.0052
2694.00,0.0051
2693.00,0.0051
2692.00,0.0051
2691.00,0.0052
2690.00,0.0052
2689.00,0.0052
2688.00,0.0052
2687.00,0.0052
2686.00,0.0052
2685.00,0.0052
2684.00,0.0052
2683.00,0.0053
2682.00,0.0053
2681.00,0.0053
2680.00,0.0054
2679.00,0.0054
2678.00,0.0054
2677.00,0.0053
2676.00,0.0053
2675.00,0.0052
2674.00,0.0052
2673.00,0.0052
2672.00,0.0052
2671.00,0.0053
2670.00,0.0053
2669.00,0.0053
2668.00,0.0054
2667.00,0.0054
2666.00,0.0054
2665.00,0.0054
2664.00,0.0054
2663.00,0.0055
2662.00,0.0055
2661.00,0.0056
2660.00,0.0056
2659.00,0.0056
2658.00,0.0056
2657.00,0.0055
2656.00,0.0055
2655.00,0.0054
2654.00,0.0054
2653.00,0.0054
2652.00,0.0053
2651.00,0.0053
2650.00,0.0052
2649.00,0.0052
2648.00,0.0051
2647.00,0.0051
2646.00,0.0051
2645.00,0.0050
2644.00,0.0050
2643.00,0.0049
2642.00,0.0049
2641.00,0.0048
2640.00,0.0047
2639.00,0.0047
2638.00,0.0047
2637.00,0.0047
2636.00,0.0047
2635.00,0.0047
2634.00,0.0047
2633.00,0.0047
2632.00,0.0047
2631.00,0.0047
2630.00,0.0047
2629.00,0.0047
2628.00,0.0047
2627.00,0.0047
2626.00,0.0048
2625.00,0.0048
2624.00,0.0048
2623.00,0.0048
2622.00,0.0048
2621.00,0.0048
2620.00,0.0049
2619.00,0.0049
2618.00,0.0049
2617.00,0.0049
2616.00,0.0048
2615.00,0.0048
2614.00,0.0048
2613.00,0.0048
2612.00,0.0047
2611.00,0.0047
2610.00,0.0046
2609.00,0.0045
2608.00,0.0043
2607.00,0.0042
2606.00,0.0042
2605.00,0.0042
2604.00,0.0041
2603.00,0.0040
2602.00,0.0040
2601.00,0.0039
2600.00,0.0039
2599.00,0.0039
2598.00,0.0039
2597.00,0.0039
2596.00,0.0039
2595.00,0.0039
2594.00,0.0040
2593.00,0.0041
2592.00,0.0041
2591.00,0.0042
2590.00,0.0043
2589.00,0.0044
2588.00,0.0045
2587.00,0.0046
2586.00,0.0046
2585.00,0.0046
2584.00,0.0047
2583.00,0.0047
2582.00,0.0047
2581.00,0.0048
2580.00,0.0047
2579.00,0.0047
2578.00,0.0045
2577.00,0.0044
2576.00,0.0042
2575.00,0.0041
2574.00,0.0040
2573.00,0.0038
2572.00,0.0037
2571.00,0.0036
2570.00,0.0036
2569.00,0.0035
2568.00,0.0035
2567.00,0.0035
2566.00,0.0034
2565.00,0.0034
2564.00,0.0033
2563.00,0.0032
2562.00,0.0031
2561.00,0.0031
2560.00,0.0031
2559.00,0.0031
2558.00,0.0031
2557.00,0.0030
2556.00,0.0030
2555.00,0.0029
2554.00,0.0029
2553.00,0.0028
2552.00,0.0028
2551.00,0.0028
2550.00,0.0028
2549.00,0.0027
2548.00,0.0027
2547.00,0.0027
2546.00,0.0027
2545.00,0.0026
2544.00,0.0026
2543.00,0.0025
2542.00,0.0025
2541.00,0.0025
2540.00,0.0024
2539.00,0.0024
2538.00,0.0023
2537.00,0.0024
2536.00,0.0024
2535.00,0.0025
2534.00,0.0024
2533.00,0.0024
2532.00,0.0024
2531.00,0.0024
2530.00,0.0025
2529.00,0.0024
2528.00,0.0024
2527.00,0.0023
2526.00,0.0023
2525.00,0.0022
2524.00,0.0022
2523.00,0.0021
2522.00,0.0021
2521.00,0.0020
2520.00,0.0020
2519.00,0.0021
2518.00,0.0021
2517.00,0.0021
2516.00,0.0021
2515.00,0.0021
2514.00,0.0020
2513.00,0.0019
2512.00,0.0019
2511.00,0.0018
2510.00,0.0018
2509.00,0.0018
2508.00,0.0018
2507.00,0.0018
2506.00,0.0019
2505.00,0.0019
2504.00,0.0018
2503.00,0.0018
2502.00,0.0018
2501.00,0.0018
2500.00,0.0018
2499.00,0.0018
2498.00,0.0018
2497.00,0.0019
2496.00,0.0019
2495.00,0.0018
2494.00,0.0017
2493.00,0.0017
2492.00,0.0017
2491.00,0.0017
2490.00,0.0018
2489.00,0.0018
2488.00,0.0018
2487.00,0.0018
2486.00,0.0018
2485.00,0.0019
2484.00,0.0019
2483.00,0.0019
2482.00,0.0019
2481.00,0.0018
2480.00,0.0017
2479.00,0.0017
2478.00,0.0017
2477.00,0.0016
2476.00,0.0016
2475.00,0.0015
2474.00,0.0015
2473.00,0.0015
2472.00,0.0015
2471.00,0.0015
2470.00,0.0016
2469.00,0.0016
2468.00,0.0016
2467.00,0.0016
2466.00,0.0016
2465.00,0.0016
2464.00,0.0016
2463.00,0.0017
2462.00,0.0018
2461.00,0.0019
2460.00,0.0019
2459.00,0.0019
2458.00,0.0019
2457.00,0.0018
2456.00,0.0018
2455.00,0.0018
2454.00,0.0018
2453.00,0.0018
2452.00,0.0017
2451.00,0.0017
2450.00,0.0017
2449.00,0.0017
2448.00,0.0017
2447.00,0.0017
2446.00,0.0017
2445.00,0.0018
2444.00,0.0018
2443.00,0.0018
2442.00,0.0018
2441.00,0.0018
2440.00,0.0018
2439.00,0.0018
2438.00,0.0018
2437.00,0.0018
2436.00,0.0018
2435.00,0.0018
2434.00,0.0018
2433.00,0.0018
2432.00,0.0018
2431.00,0.0019
2430.00,0.0019
2429.00,0.0019
2428.00,0.0019
2427.00,0.0019
2426.00,0.0019
2425.00,0.0019
2424.00,0.0019
2423.00,0.0019
2422.00,0.0019
2421.00,0.0019
2420.00,0.0018
2419.00,0.0017
2418.00,0.0017
2417.00,0.0017
2416.00,0.0017
2415.00,0.0017
2414.00,0.0016
2413.00,0.0016
2412.00,0.0017
2411.00,0.0017
2410.00,0.0017
2409.00,0.0017
2408.00,0.0016
2407.00,0.0015
2406.00,0.0014
2405.00,0.0014
2404.00,0.0014
2403.00,0.0015
2402.00,0.0015
2401.00,0.0015
2400.00,0.0016
2399.00,0.0016
2398.00,0.0016
2397.00,0.0015
2396.00,0.0015
2395.00,0.0014
2394.00,0.0014
2393.00,0.0015
2392.00,0.0014
2391.00,0.0014
2390.00,0.0014
2389.00,0.0014
2388.00,0.0014
2387.00,0.0014
2386.00,0.0013
2385.00,0.0013
2384.00,0.0012
2383.00,0.0011
2382.00,0.0010
2381.00,0.0010
2380.00,0.0009
2379.00,0.0009
2378.00,0.0009
2377.00,0.0008
2376.00,0.0009
2375.00,0.0009
2374.00,0.0010
2373.00,0.0010
2372.00,0.0011
2371.00,0.0011
2370.00,0.0011
2369.00,0.0011
2368.00,0.0010
2367.00,0.0010
2366.00,0.0010
2365.00,0.0010
2364.00,0.0011
2363.00,0.0011
2362.00,0.0011
2361.00,0.0011
2360.00,0.0011
2359.00,0.0012
2358.00,0.0012
2357.00,0.0012
2356.00,0.0012
2355.00,0.0012
2354.00,0.0011
2353.00,0.0011
2352.00,0.0011
2351.00,0.0012
2350.00,0.0013
2349.00,0.0013
2348.00,0.0012
2347.00,0.0011
2346.00,0.0012
2345.00,0.0013
2344.00,0.0014
2343.00,0.0014
2342.00,0.0014
2341.00,0.0014
2340.00,0.0014
2339.00,0.0015
2338.00,0.0015
2337.00,0.0015
2336.00,0.0015
2335.00,0.0015
2334.00,0.0015
2333.00,0.0014
2332.00,0.0014
2331.00,0.0014
2330.00,0.0014
2329.00,0.0015
2328.00,0.0016
2327.00,0.0019
2326.00,0.0022
2325.00,0.0025
2324.00,0.0027
2323.00,0.0026
2322.00,0.0024
2321.00,0.0022
2320.00,0.0020
2319.00,0.0020
2318.00,0.0019
2317.00,0.0019
2316.00,0.0018
2315.00,0.0017
2314.00,0.0016
2313.00,0.0016
2312.00,0.0016
2311.00,0.0016
2310.00,0.0016
2309.00,0.0016
2308.00,0.0016
2307.00,0.0016
2306.00,0.0017
2305.00,0.0018
2304.00,0.0019
2303.00,0.0019
2302.00,0.0019
2301.00,0.0019
2300.00,0.0019
2299.00,0.0020
2298.00,0.0021
2297.00,0.0021
2296.00,0.0021
2295.00,0.0021
2294.00,0.0022
2293.00,0.0023
2292.00,0.0024
2291.00,0.0025
2290.00,0.0026
2289.00,0.0026
2288.00,0.0026
2287.00,0.0026
2286.00,0.0027
2285.00,0.0027
2284.00,0.0026
2283.00,0.0025
2282.00,0.0024
2281.00,0.0022
2280.00,0.0021
2279.00,0.0020
2278.00,0.0020
2277.00,0.0020
2276.00,0.0020
2275.00,0.0019
2274.00,0.0019
2273.00,0.0020
2272.00,0.0020
2271.00,0.0021
2270.00,0.0021
2269.00,0.0021
2268.00,0.0020
2267.00,0.0020
2266.00,0.0019
2265.00,0.0019
2264.00,0.0019
2263.00,0.0019
2262.00,0.0019
2261.00,0.0019
2260.00,0.0020
2259.00,0.0020
2258.00,0.0020
2257.00,0.0020
2256.00,0.0019
2255.00,0.0019
2254.00,0.0018
2253.00,0.0017
2252.00,0.0016
2251.00,0.0016
2250.00,0.0016
2249.00,0.0016
2248.00,0.0016
2247.00,0.0015
2246.00,0.0015
2245.00,0.0015
2244.00,0.0016
2243.00,0.0017
2242.00,0.0018
2241.00,0.0017
2240.00,0.0017
2239.00,0.0016
2238.00,0.0015
2237.00,0.0015
2236.00,0.0013
2235.00,0.0012
2234.00,0.0010
2233.00,0.0010
2232.00,0.0010
2231.00,0.0011
2230.00,0.0011
2229.00,0.0012
2228.00,0.0011
2227.00,0.0010
2226.00,0.0010
2225.00,0.0011
2224.00,0.0013
2223.00,0.0014
2222.00,0.0015
2221.00,0.0015
2220.00,0.0014
2219.00,0.0012
2218.00,0.0010
2217.00,0.0010
2216.00,0.0011
2215.00,0.0013
2214.00,0.0013
2213.00,0.0013
2212.00,0.0012
2211.00,0.0012
2210.00,0.0013
2209.00,0.0014
2208.00,0.0015
2207.00,0.0014
2206.00,0.0012
2205.00,0.0011
2204.00,0.0011
2203.00,0.0012
2202.00,0.0013
2201.00,0.0015
2200.00,0.0016
2199.00,0.0016
2198.00,0.0015
2197.00,0.0014
2196.00,0.0013
2195.00,0.0014
2194.00,0.0014
2193.00,0.0014
2192.00,0.0015
2191.00,0.0014
2190.00,0.0014
2189.00,0.0015
2188.00,0.0018
2187.00,0.0020
2186.00,0.0021
2185.00,0.0021
2184.00,0.0020
2183.00,0.0018
2182.00,0.0014
2181.00,0.0010
2180.00,0.0007
2179.00,0.0006
2178.00,0.0005
2177.00,0.0003
2176.00,0.0001
2175.00,-0.0000
2174.00,0.0000
2173.00,0.0004
2172.00,0.0008
2171.00,0.0012
2170.00,0.0014
2169.00,0.0016
2168.00,0.0017
2167.00,0.0019
2166.00,0.0020
2165.00,0.0020
2164.00,0.0020
2163.00,0.0019
2162.00,0.0015
2161.00,0.0008
2160.00,-0.0002
2159.00,-0.0013
2158.00,-0.0020
2157.00,-0.0021
2156.00,-0.0019
2155.00,-0.0018
2154.00,-0.0017
2153.00,-0.0014
2152.00,-0.0012
2151.00,-0.0011
2150.00,-0.0012
2149.00,-0.0013
2148.00,-0.0014
2147.00,-0.0013
2146.00,-0.0011
2145.00,-0.0010
2144.00,-0.0009
2143.00,-0.0008
2142.00,-0.0008
2141.00,-0.0009
2140.00,-0.0010
2139.00,-0.0010
2138.00,-0.0009
2137.00,-0.0009
2136.00,-0.0010
2135.00,-0.0011
2134.00,-0.0011
2133.00,-0.0011
2132.00,-0.0010
2131.00,-0.0010
2130.00,-0.0010
2129.00,-0.0009
2128.00,-0.0007
2127.00,-0.0005
2126.00,-0.0003
2125.00,-0.0002
2124.00,-0.0000
2123.00,0.0001
2122.00,0.0003
2121.00,0.0003
2120.00,0.0003
2119.00,0.0002
2118.00,0.0001
2117.00,0.0002
2116.00,0.0004
2115.00,0.0006
2114.00,0.0008
2113.00,0.0010
2112.00,0.0010
2111.00,0.0009
2110.00,0.0008
2109.00,0.0008
2108.00,0.0008
2107.00,0.0008
2106.00,0.0007
2105.00,0.0006
2104.00,0.0005
2103.00,0.0005
2102.00,0.0005
2101.00,0.0005
2100.00,0.0006
2099.00,0.0005
2098.00,0.0005
2097.00,0.0004
2096.00,0.0003
2095.00,0.0002
2094.00,0.0001
2093.00,0.0001
2092.00,0.0002
2091.00,0.0003
2090.00,0.0005
2089.00,0.0006
2088.00,0.0007
2087.00,0.0008
2086.00,0.0009
2085.00,0.0010
2084.00,0.0012
2083.00,0.0013
2082.00,0.0012
2081.00,0.0010
2080.00,0.0009
2079.00,0.0008
2078.00,0.0008
2077.00,0.0008
2076.00,0.0009
2075.00,0.0009
2074.00,0.0010
2073.00,0.0010
2072.00,0.0011
2071.00,0.0011
2070.00,0.0011
2069.00,0.0011
2068.00,0.0011
2067.00,0.0009
2066.00,0.0007
2065.00,0.0005
2064.00,0.0005
2063.00,0.0003
2062.00,0.0002
2061.00,0.0002
2060.00,0.0002
2059.00,0.0002
2058.00,0.0003
2057.00,0.0004
2056.00,0.0006
2055.00,0.0007
2054.00,0.0010
2053.00,0.0014
2052.00,0.0018
2051.00,0.0022
2050.00,0.0022
2049.00,0.0019
2048.00,0.0015
2047.00,0.0012
2046.00,0.0009
2045.00,0.0007
2044.00,0.0006
2043.00,0.0007
2042.00,0.0008
2041.00,0.0010
2040.00,0.0012
2039.00,0.0014
2038.00,0.0015
2037.00,0.0015
2036.00,0.0014
2035.00,0.0012
2034.00,0.0009
2033.00,0.0006
2032.00,0.0003
2031.00,0.0001
2030.00,-0.0002
2029.00,-0.0004
2028.00,-0.0006
2027.00,-0.0006
2026.00,-0.0006
2025.00,-0.0005
2024.00,-0.0005
2023.00,-0.0006
2022.00,-0.0006
2021.00,-0.0007
2020.00,-0.0009
2019.00,-0.0010
2018.00,-0.0011
2017.00,-0.0010
2016.00,-0.0009
2015.00,-0.0008
2014.00,-0.0007
2013.00,-0.0005
2012.00,-0.0003
2011.00,-0.0001
2010.00,0.0001
2009.00,0.0001
2008.00,0.0000
2007.00,-0.0003
2006.00,-0.0007
2005.00,-0.0010
2004.00,-0.0011
2003.00,-0.0010
2002.00,-0.0009
2001.00,-0.0008
2000.00,-0.0008
1999.00,-0.0008
1998.00,-0.0008
1997.00,-0.0007
1996.00,-0.0007
1995.00,-0.0007
1994.00,-0.0007
1993.00,-0.0008
1992.00,-0.0007
1991.00,-0.0006
1990.00,-0.0005
1989.00,-0.0002
1988.00,0.0001
1987.00,0.0004
1986.00,0.0006
1985.00,0.0009
1984.00,0.0012
1983.00,0.0015
1982.00,0.0017
1981.00,0.0018
1980.00,0.0016
1979.00,0.0010
1978.00,0.0003
1977.00,-0.0003
1976.00,-0.0006
1975.00,-0.0007
1974.00,-0.0008
1973.00,-0.0008
1972.00,-0.0009
1971.00,-0.0009
1970.00,-0.0010
1969.00,-0.0011
1968.00,-0.0012
1967.00,-0.0012
1966.00,-0.0012
1965.00,-0.0012
1964.00,-0.0012
1963.00,-0.0010
1962.00,-0.0009
1961.00,-0.0009
1960.00,-0.0010
1959.00,-0.0011
1958.00,-0.0012
1957.00,-0.0011
1956.00,-0.0010
1955.00,-0.0010
1954.00,-0.0010
1953.00,-0.0010
1952.00,-0.0010
1951.00,-0.0010
1950.00,-0.0009
1949.00,-0.0007
1948.00,-0.0006
1947.00,-0.0007
1946.00,-0.0007
1945.00,-0.0007
1944.00,-0.0006
1943.00,-0.0004
1942.00,-0.0002
1941.00,-0.0001
1940.00,-0.0001
1939.00,-0.0002
1938.00,-0.0003
1937.00,-0.0004
1936.00,-0.0004
1935.00,-0.0003
1934.00,-0.0003
1933.00,-0.0002
1932.00,-0.0002
1931.00,-0.0002
1930.00,-0.0002
1929.00,-0.0004
1928.00,-0.0005
1927.00,-0.0006
1926.00,-0.0005
1925.00,-0.0003
1924.00,-0.0001
1923.00,-0.0000
1922.00,-0.0000
1921.00,-0.0001
1920.00,-0.0001
1919.00,-0.0001
1918.00,-0.0001
1917.00,-0.0001
1916.00,0.0001
1915.00,0.0002
1914.00,0.0003
1913.00,0.0005
1912.00,0.0006
1911.00,0.0006
1910.00,0.0006
1909.00,0.0005
1908.00,0.0004
1907.00,0.0004
1906.00,0.0004
1905.00,0.0003
1904.00,0.0003
1903.00,0.0004
1902.00,0.0005
1901.00,0.0007
1900.00,0.0007
1899.00,0.0007
1898.00,0.0006
1897.00,0.0005
1896.00,0.0005
1895.00,0.0004
1894.00,0.0004
1893.00,0.0004
1892.00,0.0004
1891.00,0.0004
1890.00,0.0004
1889.00,0.0004
1888.00,0.0004
1887.00,0.0005
1886.00,0.0005
1885.00,0.0005
1884.00,0.0005
1883.00,0.0005
1882.00,0.0005
1881.00,0.0004
1880.00,0.0004
1879.00,0.0004
1878.00,0.0004
1877.00,0.0004
1876.00,0.0004
1875.00,0.0004
1874.00,0.0005
1873.00,0.0006
1872.00,0.0008
1871.00,0.0009
1870.00,0.0009
1869.00,0.0009
1868.00,0.0008
1867.00,0.0007
1866.00,0.0007
1865.00,0.0007
1864.00,0.0007
1863.00,0.0007
1862.00,0.0007
1861.00,0.0007
1860.00,0.0007
1859.00,0.0007
1858.00,0.0007
1857.00,0.0006
1856.00,0.0006
1855.00,0.0006
1854.00,0.0005
1853.00,0.0006
1852.00,0.0006
1851.00,0.0007
1850.00,0.0008
1849.00,0.0008
1848.00,0.0008
1847.00,0.0008
1846.00,0.0008
1845.00,0.0009
1844.00,0.0009
1843.00,0.0009
1842.00,0.0009
1841.00,0.0009
1840.00,0.0009
1839.00,0.0009
1838.00,0.0009
1837.00,0.0008
1836.00,0.0008
1835.00,0.0008
1834.00,0.0008
1833.00,0.0009
1832.00,0.0009
1831.00,0.0010
1830.00,0.0010
1829.00,0.0010
1828.00,0.0010
1827.00,0.0010
1826.00,0.0009
1825.00,0.0009
1824.00,0.0009
1823.00,0.0009
1822.00,0.0009
1821.00,0.0009
1820.00,0.0009
1819.00,0.0009
1818.00,0.0008
1817.00,0.0007
1816.00,0.0007
1815.00,0.0007
1814.00,0.0007
1813.00,0.0007
1812.00,0.0008
1811.00,0.0009
1810.00,0.0009
1809.00,0.0010
1808.00,0.0011
1807.00,0.0011
1806.00,0.0011
1805.00,0.0011
1804.00,0.0011
1803.00,0.0011
1802.00,0.0011
1801.00,0.0012
1800.00,0.0012
1799.00,0.0013
1798.00,0.0013
1797.00,0.0013
1796.00,0.0014
1795.00,0.0014
1794.00,0.0014
1793.00,0.0015
1792.00,0.0015
1791.00,0.0015
1790.00,0.0014
1789.00,0.0014
1788.00,0.0014
1787.00,0.0014
1786.00,0.0014
1785.00,0.0014
1784.00,0.0015
1783.00,0.0015
1782.00,0.0015
1781.00,0.0015
1780.00,0.0015
1779.00,0.0015
1778.00,0.0014
1777.00,0.0014
1776.00,0.0014
1775.00,0.0014
1774.00,0.0015
1773.00,0.0015
1772.00,0.0016
1771.00,0.0016
1770.00,0.0016
1769.00,0.0017
1768.00,0.0017
1767.00,0.0018
1766.00,0.0018
1765.00,0.0018
1764.00,0.0019
1763.00,0.0019
1762.00,0.0020
1761.00,0.0020
1760.00,0.0020
1759.00,0.0020
1758.00,0.0021
1757.00,0.0021
1756.00,0.0022
1755.00,0.0023
1754.00,0.0023
1753.00,0.0023
1752.00,0.0024
1751.00,0.0024
1750.00,0.0024
1749.00,0.0025
1748.00,0.0026
1747.00,0.0026
1746.00,0.0026
1745.00,0.0026
1744.00,0.0026
1743.00,0.0026
1742.00,0.0027
1741.00,0.0027
1740.00,0.0027
1739.00,0.0026
1738.00,0.0025
1737.00,0.0025
1736.00,0.0025
1735.00,0.0025
1734.00,0.0026
1733.00,0.0026
1732.00,0.0026
1731.00,0.0026
1730.00,0.0026
1729.00,0.0026
1728.00,0.0027
1727.00,0.0027
1726.00,0.0028
1725.00,0.0029
1724.00,0.0029
1723.00,0.0029
1722.00,0.0029
1721.00,0.0029
1720.00,0.0029
1719.00,0.0028
1718.00,0.0028
1717.00,0.0027
1716.00,0.0027
1715.00,0.0027
1714.00,0.0026
1713.00,0.0026
1712.00,0.0026
1711.00,0.0027
1710.00,0.0028
1709.00,0.0029
1708.00,0.0030
1707.00,0.0030
1706.00,0.0029
1705.00,0.0029
1704.00,0.0030
1703.00,0.0030
1702.00,0.0030
1701.00,0.0031
1700.00,0.0032
1699.00,0.0032
1698.00,0.0032
1697.00,0.0032
1696.00,0.0033
1695.00,0.0034
1694.00,0.0035
1693.00,0.0035
1692.00,0.0035
1691.00,0.0036
1690.00,0.0036
1689.00,0.0036
1688.00,0.0036
1687.00,0.0035
1686.00,0.0035
1685.00,0.0035
1684.00,0.0035
1683.00,0.0036
1682.00,0.0036
1681.00,0.0036
1680.00,0.0036
1679.00,0.0037
1678.00,0.0037
1677.00,0.0037
1676.00,0.0037
1675.00,0.0038
1674.00,0.0038
1673.00,0.0038
1672.00,0.0038
1671.00,0.0038
1670.00,0.0039
1669.00,0.0039
1668.00,0.0040
1667.00,0.0041
1666.00,0.0041
1665.00,0.0042
1664.00,0.0043
1663.00,0.0044
1662.00,0.0044
1661.00,0.0044
1660.00,0.0044
1659.00,0.0044
1658.00,0.0045
1657.00,0.0045
1656.00,0.0045
1655.00,0.0044
1654.00,0.0044
1653.00,0.0046
1652.00,0.0047
1651.00,0.0048
1650.00,0.0048
1649.00,0.0049
1648.00,0.0049
1647.00,0.0050
1646.00,0.0051
1645.00,0.0050
1644.00,0.0050
1643.00,0.0050
1642.00,0.0050
1641.00,0.0050
1640.00,0.0051
1639.00,0.0051
1638.00,0.0051
1637.00,0.0051
1636.00,0.0052
1635.00,0.0051
1634.00,0.0051
1633.00,0.0051
1632.00,0.0050
1631.00,0.0050
1630.00,0.0050
1629.00,0.0050
1628.00,0.0049
1627.00,0.0049
1626.00,0.0049
1625.00,0.0049
1624.00,0.0049
1623.00,0.0048
1622.00,0.0047
1621.00,0.0047
1620.00,0.0046
1619.00,0.0046
1618.00,0.0045
1617.00,0.0045
1616.00,0.0046
1615.00,0.0046
1614.00,0.0046
1613.00,0.0047
1612.00,0.0047
1611.00,0.0046
1610.00,0.0046
1609.00,0.0045
1608.00,0.0045
1607.00,0.0045
1606.00,0.0045
1605.00,0.0046
1604.00,0.0046
1603.00,0.0046
1602.00,0.0046
1601.00,0.0046
1600.00,0.0046
1599.00,0.0046
1598.00,0.0046
1597.00,0.0046
1596.00,0.0046
1595.00,0.0046
1594.00,0.0046
1593.00,0.0046
1592.00,0.0046
1591.00,0.0047
1590.00,0.0047
1589.00,0.0048
1588.00,0.0049
1587.00,0.0049
1586.00,0.0050
1585.00,0.0051
1584.00,0.0052
1583.00,0.0054
1582.00,0.0055
1581.00,0.0057
1580.00,0.0059
1579.00,0.0060
1578.00,0.0060
1577.00,0.0060
1576.00,0.0061
1575.00,0.0060
1574.00,0.0060
1573.00,0.0059
1572.00,0.0059
1571.00,0.0058
1570.00,0.0057
1569.00,0.0055
1568.00,0.0054
1567.00,0.0053
1566.00,0.0053
1565.00,0.0053
1564.00,0.0054
1563.00,0.0054
1562.00,0.0054
1561.00,0.0054
1560.00,0.0054
1559.00,0.0054
1558.00,0.0054
1557.00,0.0055
1556.00,0.0056
1555.00,0.0056
1554.00,0.0056
1553.00,0.0057
1552.00,0.0058
1551.00,0.0059
1550.00,0.0060
1549.00,0.0062
1548.00,0.0064
1547.00,0.0066
1546.00,0.0068
1545.00,0.0070
1544.00,0.0072
1543.00,0.0073
1542.00,0.0073
1541.00,0.0074
1540.00,0.0074
1539.00,0.0072
1538.00,0.0071
1537.00,0.0070
1536.00,0.0069
1535.00,0.0068
1534.00,0.0067
1533.00,0.0066
1532.00,0.0065
1531.00,0.0064
1530.00,0.0064
1529.00,0.0064
1528.00,0.0065
1527.00,0.0065
1526.00,0.0065
1525.00,0.0065
1524.00,0.0066
1523.00,0.0067
1522.00,0.0067
1521.00,0.0069
1520.00,0.0069
1519.00,0.0069
1518.00,0.0070
1517.00,0.0071
1516.00,0.0073
1515.00,0.0074
1514.00,0.0074
1513.00,0.0075
1512.00,0.0076
1511.00,0.0077
1510.00,0.0078
1509.00,0.0080
1508.00,0.0082
1507.00,0.0082
1506.00,0.0082
1505.00,0.0083
1504.00,0.0085
1503.00,0.0086
1502.00,0.0088
1501.00,0.0090
1500.00,0.0092
1499.00,0.0094
1498.00,0.0095
1497.00,0.0098
1496.00,0.0101
1495.00,0.0103
1494.00,0.0105
1493.00,0.0108
1492.00,0.0112
1491.00,0.0115
1490.00,0.0118
1489.00,0.0123
1488.00,0.0128
1487.00,0.0133
1486.00,0.0138
1485.00,0.0144
1484.00,0.0151
1483.00,0.0159
1482.00,0.0169
1481.00,0.0180
1480.00,0.0193
1479.00,0.0206
1478.00,0.0222
1477.00,0.0243
1476.00,0.0269
1475.00,0.0300
1474.00,0.0341
1473.00,0.0399
1472.00,0.0468
1471.00,0.0534
1470.00,0.0598
1469.00,0.0665
1468.00,0.0738
1467.00,0.0818
1466.00,0.0910
1465.00,0.1010
1464.00,0.1097
1463.00,0.1156
1462.00,0.1192
1461.00,0.1214
1460.00,0.1229
1459.00,0.1237
1458.00,0.1241
1457.00,0.1243
1456.00,0.1237
1455.00,0.1226
1454.00,0.1212
1453.00,0.1192
1452.00,0.1162
1451.00,0.1122
1450.00,0.1067
1449.00,0.0995
1448.00,0.0904
1447.00,0.0809
1446.00,0.0725
1445.00,0.0654
1444.00,0.0594
1443.00,0.0546
1442.00,0.0510
1441.00,0.0485
1440.00,0.0471
1439.00,0.0466
1438.00,0.0470
1437.00,0.0474
1436.00,0.0467
1435.00,0.0444
1434.00,0.0409
1433.00,0.0366
1432.00,0.0322
1431.00,0.0282
1430.00,0.0250
1429.00,0.0227
1428.00,0.0211
1427.00,0.0201
1426.00,0.0195
1425.00,0.0188
1424.00,0.0181
1423.00,0.0177
1422.00,0.0175
1421.00,0.0172
1420.00,0.0168
1419.00,0.0165
1418.00,0.0162
1417.00,0.0159
1416.00,0.0156
1415.00,0.0155
1414.00,0.0153
1413.00,0.0151
1412.00,0.0149
1411.00,0.0147
1410.00,0.0146
1409.00,0.0144
1408.00,0.0143
1407.00,0.0142
1406.00,0.0142
1405.00,0.0142
1404.00,0.0140
1403.00,0.0140
1402.00,0.0141
1401.00,0.0141
1400.00,0.0140
1399.00,0.0141
1398.00,0.0143
1397.00,0.0144
1396.00,0.0146
1395.00,0.0150
1394.00,0.0155
1393.00,0.0159
1392.00,0.0164
1391.00,0.0170
1390.00,0.0180
1389.00,0.0194
1388.00,0.0214
1387.00,0.0245
1386.00,0.0287
1385.00,0.0343
1384.00,0.0421
1383.00,0.0532
1382.00,0.0686
1381.00,0.0888
1380.00,0.1141
1379.00,0.1432
1378.00,0.1715
1377.00,0.1921
1376.00,0.1990
1375.00,0.1885
1374.00,0.1641
1373.00,0.1349
1372.00,0.1085
1371.00,0.0869
1370.00,0.0698
1369.00,0.0568
1368.00,0.0479
1367.00,0.0425
1366.00,0.0395
1365.00,0.0383
1364.00,0.0385
1363.00,0.0400
1362.00,0.0422
1361.00,0.0445
1360.00,0.0462
1359.00,0.0467
1358.00,0.0456
1357.00,0.0430
1356.00,0.0393
1355.00,0.0351
1354.00,0.0311
1353.00,0.0277
1352.00,0.0249
1351.00,0.0227
1350.00,0.0208
1349.00,0.0192
1348.00,0.0179
1347.00,0.0169
1346.00,0.0160
1345.00,0.0153
1344.00,0.0147
1343.00,0.0142
1342.00,0.0138
1341.00,0.0134
1340.00,0.0132
1339.00,0.0130
1338.00,0.0128
1337.00,0.0128
1336.00,0.0129
1335.00,0.0131
1334.00,0.0135
1333.00,0.0139
1332.00,0.0143
1331.00,0.0147
1330.00,0.0149
1329.00,0.0148
1328.00,0.0144
1327.00,0.0139
1326.00,0.0133
1325.00,0.0127
1324.00,0.0121
1323.00,0.0116
1322.00,0.0111
1321.00,0.0108
1320.00,0.0106
1319.00,0.0104
1318.00,0.0102
1317.00,0.0100
1316.00,0.0099
1315.00,0.0098
1314.00,0.0097
1313.00,0.0097
1312.00,0.0098
1311.00,0.0100
1310.00,0.0104
1309.00,0.0109
1308.00,0.0117
1307.00,0.0126
1306.00,0.0135
1305.00,0.0141
1304.00,0.0143
1303.00,0.0141
1302.00,0.0138
1301.00,0.0135
1300.00,0.0134
1299.00,0.0135
1298.00,0.0136
1297.00,0.0137
1296.00,0.0137
1295.00,0.0135
1294.00,0.0131
1293.00,0.0126
1292.00,0.0121
1291.00,0.0116
1290.00,0.0112
1289.00,0.0108
1288.00,0.0105
1287.00,0.0102
1286.00,0.0100
1285.00,0.0097
1284.00,0.0095
1283.00,0.0094
1282.00,0.0092
1281.00,0.0091
1280.00,0.0090
1279.00,0.0090
1278.00,0.0089
1277.00,0.0089
1276.00,0.0088
1275.00,0.0088
1274.00,0.0088
1273.00,0.0088
1272.00,0.0089
1271.00,0.0089
1270.00,0.0090
1269.00,0.0091
1268.00,0.0092
1267.00,0.0094
1266.00,0.0097
1265.00,0.0099
1264.00,0.0102
1263.00,0.0105
1262.00,0.0108
1261.00,0.0112
1260.00,0.0117
1259.00,0.0123
1258.00,0.0128
1257.00,0.0132
1256.00,0.0133
1255.00,0.0131
1254.00,0.0125
1253.00,0.0118
1252.00,0.0110
1251.00,0.0104
1250.00,0.0100
1249.00,0.0097
1248.00,0.0094
1247.00,0.0092
1246.00,0.0090
1245.00,0.0088
1244.00,0.0087
1243.00,0.0086
1242.00,0.0085
1241.00,0.0084
1240.00,0.0084
1239.00,0.0084
1238.00,0.0085
1237.00,0.0085
1236.00,0.0085
1235.00,0.0085
1234.00,0.0085
1233.00,0.0085
1232.00,0.0085
1231.00,0.0085
1230.00,0.0086
1229.00,0.0087
1228.00,0.0088
1227.00,0.0089
1226.00,0.0091
1225.00,0.0094
1224.00,0.0098
1223.00,0.0102
1222.00,0.0105
1221.00,0.0108
1220.00,0.0109
1219.00,0.0109
1218.00,0.0108
1217.00,0.0106
1216.00,0.0103
1215.00,0.0100
1214.00,0.0097
1213.00,0.0094
1212.00,0.0092
1211.00,0.0091
1210.00,0.0090
1209.00,0.0089
1208.00,0.0088
1207.00,0.0086
1206.00,0.0085
1205.00,0.0084
1204.00,0.0084
1203.00,0.0083
1202.00,0.0083
1201.00,0.0083
1200.00,0.0083
1199.00,0.0083
1198.00,0.0083
1197.00,0.0083
1196.00,0.0083
1195.00,0.0083
1194.00,0.0083
1193.00,0.0083
1192.00,0.0083
1191.00,0.0083
1190.00,0.0083
1189.00,0.0083
1188.00,0.0083
1187.00,0.0084
1186.00,0.0084
1185.00,0.0085
1184.00,0.0087
1183.00,0.0088
1182.00,0.0090
1181.00,0.0093
1180.00,0.0096
1179.00,0.0100
1178.00,0.0106
1177.00,0.0112
1176.00,0.0122
1175.00,0.0135
1174.00,0.0151
1173.00,0.0172
1172.00,0.0197
1171.00,0.0223
1170.00,0.0248
1169.00,0.0269
1168.00,0.0281
1167.00,0.0283
1166.00,0.0276
1165.00,0.0265
1164.00,0.0251
1163.00,0.0238
1162.00,0.0227
1161.00,0.0219
1160.00,0.0212
1159.00,0.0207
1158.00,0.0204
1157.00,0.0202
1156.00,0.0201
1155.00,0.0200
1154.00,0.0199
1153.00,0.0196
1152.00,0.0192
1151.00,0.0185
1150.00,0.0176
1149.00,0.0167
1148.00,0.0158
1147.00,0.0149
1146.00,0.0141
1145.00,0.0133
1144.00,0.0126
1143.00,0.0120
1142.00,0.0114
1141.00,0.0109
1140.00,0.0105
1139.00,0.0101
1138.00,0.0097
1137.00,0.0094
1136.00,0.0092
1135.00,0.0090
1134.00,0.0089
1133.00,0.0087
1132.00,0.0087
1131.00,0.0087
1130.00,0.0087
1129.00,0.0087
1128.00,0.0087
1127.00,0.0087
1126.00,0.0086
1125.00,0.0086
1124.00,0.0087
1123.00,0.0088
1122.00,0.0088
1121.00,0.0089
1120.00,0.0090
1119.00,0.0092
1118.00,0.0093
1117.00,0.0094
1116.00,0.0095
1115.00,0.0096
1114.00,0.0098
1113.00,0.0101
1112.00,0.0103
1111.00,0.0105
1110.00,0.0108
1109.00,0.0112
1108.00,0.0118
1107.00,0.0125
1106.00,0.0133
1105.00,0.0139
1104.00,0.0145
1103.00,0.0147
1102.00,0.0146
1101.00,0.0142
1100.00,0.0135
1099.00,0.0128
1098.00,0.0122
1097.00,0.0116
1096.00,0.0112
1095.00,0.0108
1094.00,0.0105
1093.00,0.0102
1092.00,0.0099
1091.00,0.0098
1090.00,0.0096
1089.00,0.0095
1088.00,0.0094
1087.00,0.0093
1086.00,0.0092
1085.00,0.0092
1084.00,0.0092
1083.00,0.0092
1082.00,0.0093
1081.00,0.0093
1080.00,0.0093
1079.00,0.0093
1078.00,0.0093
1077.00,0.0092
1076.00,0.0092
1075.00,0.0092
1074.00,0.0092
1073.00,0.0091
1072.00,0.0090
1071.00,0.0090
1070.00,0.0090
1069.00,0.0090
1068.00,0.0091
1067.00,0.0092
1066.00,0.0093
1065.00,0.0094
1064.00,0.0096
1063.00,0.0097
1062.00,0.0098
1061.00,0.0099
1060.00,0.0101
1059.00,0.0102
1058.00,0.0103
1057.00,0.0104
1056.00,0.0105
1055.00,0.0107
1054.00,0.0109
1053.00,0.0111
1052.00,0.0114
1051.00,0.0118
1050.00,0.0121
1049.00,0.0125
1048.00,0.0129
1047.00,0.0133
1046.00,0.0137
1045.00,0.0139
1044.00,0.0139
1043.00,0.0138
1042.00,0.0137
1041.00,0.0136
1040.00,0.0136
1039.00,0.0135
1038.00,0.0134
1037.00,0.0132
1036.00,0.0131
1035.00,0.0129
1034.00,0.0128
1033.00,0.0127
1032.00,0.0126
1031.00,0.0127
1030.00,0.0128
1029.00,0.0129
1028.00,0.0130
1027.00,0.0131
1026.00,0.0133
1025.00,0.0134
1024.00,0.0136
1023.00,0.0139
1022.00,0.0141
1021.00,0.0142
1020.00,0.0143
1019.00,0.0144
1018.00,0.0146
1017.00,0.0147
1016.00,0.0147
1015.00,0.0147
1014.00,0.0147
1013.00,0.0147
1012.00,0.0146
1011.00,0.0146
1010.00,0.0145
1009.00,0.0145
1008.00,0.0146
1007.00,0.0150
1006.00,0.0156
1005.00,0.0164
1004.00,0.0177
1003.00,0.0194
1002.00,0.0218
1001.00,0.0247
1000.00,0.0278
999.00,0.0302
998.00,0.0312
997.00,0.0304
996.00,0.0280
995.00,0.0248
994.00,0.0215
993.00,0.0187
992.00,0.0166
991.00,0.0150
990.00,0.0139
989.00,0.0131
988.00,0.0125
987.00,0.0123
986.00,0.0123
985.00,0.0124
984.00,0.0128
983.00,0.0135
982.00,0.0144
981.00,0.0157
980.00,0.0176
979.00,0.0201
978.00,0.0233
977.00,0.0269
976.00,0.0308
975.00,0.0342
974.00,0.0366
973.00,0.0371
972.00,0.0356
971.00,0.0323
970.00,0.0280
969.00,0.0238
968.00,0.0203
967.00,0.0176
966.00,0.0156
965.00,0.0142
964.00,0.0131
963.00,0.0122
962.00,0.0116
961.00,0.0110
960.00,0.0106
959.00,0.0102
958.00,0.0099
957.00,0.0097
956.00,0.0095
955.00,0.0093
954.00,0.0091
953.00,0.0090
952.00,0.0088
951.00,0.0088
950.00,0.0088
949.00,0.0088
948.00,0.0089
947.00,0.0090
946.00,0.0091
945.00,0.0094
944.00,0.0097
943.00,0.0099
942.00,0.0102
941.00,0.0104
940.00,0.0104
939.00,0.0102
938.00,0.0098
937.00,0.0092
936.00,0.0087
935.00,0.0083
934.00,0.0080
933.00,0.0077
932.00,0.0075
931.00,0.0074
930.00,0.0072
929.00,0.0071
928.00,0.0071
927.00,0.0070
926.00,0.0070
925.00,0.0070
924.00,0.0070
923.00,0.0070
922.00,0.0070
921.00,0.0070
920.00,0.0071
919.00,0.0072
918.00,0.0074
917.00,0.0075
916.00,0.0076
915.00,0.0076
914.00,0.0077
913.00,0.0077
912.00,0.0078
911.00,0.0080
910.00,0.0083
909.00,0.0086
908.00,0.0090
907.00,0.0097
906.00,0.0106
905.00,0.0117
904.00,0.0131
903.00,0.0148
902.00,0.0168
901.00,0.0185
900.00,0.0196
899.00,0.0196
898.00,0.0186
897.00,0.0168
896.00,0.0148
895.00,0.0129
894.00,0.0114
893.00,0.0103
892.00,0.0096
891.00,0.0090
890.00,0.0087
889.00,0.0085
888.00,0.0083
887.00,0.0083
886.00,0.0083
885.00,0.0083
884.00,0.0083
883.00,0.0083
882.00,0.0084
881.00,0.0085
880.00,0.0087
879.00,0.0090
878.00,0.0094
877.00,0.0097
876.00,0.0100
875.00,0.0101
874.00,0.0102
873.00,0.0101
872.00,0.0098
871.00,0.0095
870.00,0.0092
869.00,0.0089
868.00,0.0087
867.00,0.0087
866.00,0.0088
865.00,0.0089
864.00,0.0090
863.00,0.0092
862.00,0.0093
861.00,0.0093
860.00,0.0093
859.00,0.0093
858.00,0.0093
857.00,0.0094
856.00,0.0096
855.00,0.0098
854.00,0.0100
853.00,0.0103
852.00,0.0105
851.00,0.0108
850.00,0.0112
849.00,0.0117
848.00,0.0123
847.00,0.0134
846.00,0.0150
845.00,0.0175
844.00,0.0210
843.00,0.0251
842.00,0.0284
841.00,0.0293
840.00,0.0275
839.00,0.0237
838.00,0.0195
837.00,0.0163
836.00,0.0141
835.00,0.0128
834.00,0.0121
833.00,0.0116
832.00,0.0114
831.00,0.0112
830.00,0.0111
829.00,0.0110
828.00,0.0108
827.00,0.0107
826.00,0.0106
825.00,0.0106
824.00,0.0107
823.00,0.0108
822.00,0.0108
821.00,0.0109
820.00,0.0111
819.00,0.0115
818.00,0.0121
817.00,0.0129
816.00,0.0138
815.00,0.0149
814.00,0.0164
813.00,0.0183
812.00,0.0204
811.00,0.0225
810.00,0.0239
809.00,0.0244
808.00,0.0238
807.00,0.0224
806.00,0.0205
805.00,0.0186
804.00,0.0168
803.00,0.0154
802.00,0.0144
801.00,0.0137
800.00,0.0131
799.00,0.0125
798.00,0.0120
797.00,0.0114
796.00,0.0110
795.00,0.0108
794.00,0.0107
793.00,0.0106
792.00,0.0103
791.00,0.0099
790.00,0.0095
789.00,0.0092
788.00,0.0089
787.00,0.0087
786.00,0.0084
785.00,0.0081
784.00,0.0079
783.00,0.0077
782.00,0.0076
781.00,0.0076
780.00,0.0075
779.00,0.0075
778.00,0.0076
777.00,0.0077
776.00,0.0078
775.00,0.0077
774.00,0.0077
773.00,0.0076
772.00,0.0076
771.00,0.0075
770.00,0.0076
769.00,0.0076
768.00,0.0076
767.00,0.0076
766.00,0.0077
765.00,0.0078
764.00,0.0078
763.00,0.0079
762.00,0.0078
761.00,0.0078
760.00,0.0078
759.00,0.0078
758.00,0.0078
757.00,0.0079
756.00,0.0080
755.00,0.0082
754.00,0.0083
753.00,0.0084
752.00,0.0084
751.00,0.0086
750.00,0.0088
749.00,0.0090
748.00,0.0090
747.00,0.0090
746.00,0.0091
745.00,0.0093
744.00,0.0096
743.00,0.0099
742.00,0.0102
741.00,0.0106
740.00,0.0109
739.00,0.0113
738.00,0.0117
737.00,0.0120
736.00,0.0122
735.00,0.0124
734.00,0.0128
733.00,0.0134
732.00,0.0141
731.00,0.0148
730.00,0.0153
729.00,0.0155
728.00,0.0155
727.00,0.0155
726.00,0.0156
725.00,0.0160
724.00,0.0166
723.00,0.0174
722.00,0.0181
721.00,0.0186
720.00,0.0185
719.00,0.0178
718.00,0.0166
717.00,0.0155
716.00,0.0145
715.00,0.0137
714.00,0.0131
713.00,0.0125
712.00,0.0120
711.00,0.0116
710.00,0.0114
709.00,0.0113
708.00,0.0111
707.00,0.0110
706.00,0.0108
705.00,0.0106
704.00,0.0103
703.00,0.0101
702.00,0.0099
701.00,0.0098
700.00,0.0097
699.00,0.0098
698.00,0.0099
697.00,0.0101
696.00,0.0102
695.00,0.0103
694.00,0.0103
693.00,0.0103
692.00,0.0102
691.00,0.0102
690.00,0.0102
689.00,0.0102
688.00,0.0103
687.00,0.0104
686.00,0.0105
685.00,0.0104
684.00,0.0104
683.00,0.0104
682.00,0.0105
681.00,0.0106
680.00,0.0105
679.00,0.0106
678.00,0.0108
677.00,0.0110
676.00,0.0112
675.00,0.0112
674.00,0.0112
673.00,0.0112
672.00,0.0111
671.00,0.0110
670.00,0.0110
669.00,0.0110
668.00,0.0111
667.00,0.0110
666.00,0.0107
665.00,0.0104
664.00,0.0103
663.00,0.0104
662.00,0.0104
661.00,0.0104
660.00,0.0103
659.00,0.0101
658.00,0.0099
657.00,0.0097
656.00,0.0095
655.00,0.0094
654.00,0.0094
653.00,0.0092
652.00,0.0091
651.00,0.0091
650.00,0.0092
649.00,0.0094
648.00,0.0096
647.00,0.0097
646.00,0.0097
645.00,0.0097
644.00,0.0097
643.00,0.0095
642.00,0.0094
641.00,0.0093
640.00,0.0092
639.00,0.0093
638.00,0.0094
637.00,0.0095
636.00,0.0094
635.00,0.0093
634.00,0.0094
633.00,0.0096
632.00,0.0097
631.00,0.0095
630.00,0.0092
629.00,0.0089
628.00,0.0089
627.00,0.0093
626.00,0.0097
625.00,0.0097
624.00,0.0093
623.00,0.0088
622.00,0.0086
621.00,0.0086
620.00,0.0087
619.00,0.0088
618.00,0.0090
617.00,0.0091
616.00,0.0093
615.00,0.0093
614.00,0.0093
613.00,0.0091
612.00,0.0088
611.00,0.0087
610.00,0.0086
609.00,0.0086
608.00,0.0085
607.00,0.0083
606.00,0.0082
605.00,0.0084
604.00,0.0088
603.00,0.0092
602.00,0.0096
601.00,0.0098
600.00,0.0099
599.00,0.0098
598.00,0.0097
597.00,0.0095
596.00,0.0091
595.00,0.0087
594.00,0.0082
593.00,0.0081
592.00,0.0082
591.00,0.0086
590.00,0.0090
589.00,0.0092
588.00,0.0092
587.00,0.0093
586.00,0.0094
585.00,0.0098
584.00,0.0104
583.00,0.0109
582.00,0.0110
581.00,0.0105
580.00,0.0096
579.00,0.0088
578.00,0.0083
577.00,0.0080
576.00,0.0081
575.00,0.0085
574.00,0.0092
573.00,0.0098
572.00,0.0102
571.00,0.0104
570.00,0.0105
569.00,0.0105
568.00,0.0102
567.00,0.0099
566.00,0.0097
565.00,0.0096
564.00,0.0095
563.00,0.0092
562.00,0.0090
561.00,0.0089
560.00,0.0090
559.00,0.0093
558.00,0.0094
557.00,0.0095
556.00,0.0096
555.00,0.0099
554.00,0.0102
553.00,0.0102
552.00,0.0099
551.00,0.0094
550.00,0.0093
549.00,0.0094
548.00,0.0097
547.00,0.0100
546.00,0.0103
545.00,0.0105
544.00,0.0106
543.00,0.0107
542.00,0.0109
541.00,0.0112
540.00,0.0117
539.00,0.0122
538.00,0.0126
537.00,0.0126
536.00,0.0124
535.00,0.0122
534.00,0.0124
533.00,0.0126
532.00,0.0125
531.00,0.0123
530.00,0.0121
529.00,0.0120
528.00,0.0122
527.00,0.0122
526.00,0.0122
525.00,0.0122
524.00,0.0124
523.00,0.0127
522.00,0.0127
521.00,0.0123
520.00,0.0114
519.00,0.0103
518.00,0.0096
517.00,0.0095
516.00,0.0095
515.00,0.0094
514.00,0.0092
513.00,0.0087
512.00,0.0083
511.00,0.0083
510.00,0.0088
509.00,0.0099
508.00,0.0107
507.00,0.0110
506.00,0.0106
505.00,0.0101
504.00,0.0098
503.00,0.0100
502.00,0.0103
501.00,0.0104
500.00,0.0099
499.00,0.0094
498.00,0.0091
497.00,0.0095
496.00,0.0103
495.00,0.0111
494.00,0.0116
493.00,0.0115
492.00,0.0110
491.00,0.0102
490.00,0.0097
489.00,0.0095
488.00,0.0095
487.00,0.0094
486.00,0.0092
485.00,0.0089
484.00,0.0088
483.00,0.0091
482.00,0.0097
481.00,0.0107
480.00,0.0120
479.00,0.0136
478.00,0.0152
477.00,0.0164
476.00,0.0164
475.00,0.0151
474.00,0.0133
473.00,0.0121
472.00,0.0122
471.00,0.0134
470.00,0.0146
469.00,0.0154
468.00,0.0157
467.00,0.0159
466.00,0.0165
465.00,0.0174
464.00,0.0181
463.00,0.0186
462.00,0.0192
461.00,0.0206
460.00,0.0225
459.00,0.0243
458.00,0.0249
457.00,0.0238
456.00,0.0215
455.00,0.0192
454.00,0.0182
453.00,0.0184
452.00,0.0194
451.00,0.0200
450.00,0.0200
