Created as New Dataset,Sample 002 By Administrator Date Friday, September 05 2025
cm-1,A
4000.00,0.0009
3999.00,0.0010
3998.00,0.0010
3997.00,0.0010
3996.00,0.0010
3995.00,0.0010
3994.00,0.0010
3993.00,0.0010
3992.00,0.0009
3991.00,0.0009
3990.00,0.0009
3989.00,0.0009
3988.00,0.0009
3987.00,0.0009
3986.00,0.0009
3985.00,0.0009
3984.00,0.0009
3983.00,0.0009
3982.00,0.0009
3981.00,0.0009
3980.00,0.0009
3979.00,0.0009
3978.00,0.0009
3977.00,0.0008
3976.00,0.0008
3975.00,0.0008
3974.00,0.0008
3973.00,0.0008
3972.00,0.0008
3971.00,0.0008
3970.00,0.0008
3969.00,0.0008
3968.00,0.0008
3967.00,0.0008
3966.00,0.0008
3965.00,0.0008
3964.00,0.0008
3963.00,0.0008
3962.00,0.0008
3961.00,0.0008
3960.00,0.0008
3959.00,0.0008
3958.00,0.0008
3957.00,0.0008
3956.00,0.0008
3955.00,0.0008
3954.00,0.0008
3953.00,0.0007
3952.00,0.0007
3951.00,0.0007
3950.00,0.0008
3949.00,0.0008
3948.00,0.0008
3947.00,0.0008
3946.00,0.0008
3945.00,0.0007
3944.00,0.0007
3943.00,0.0007
3942.00,0.0007
3941.00,0.0007
3940.00,0.0007
3939.00,0.0007
3938.00,0.0007
3937.00,0.0007
3936.00,0.0007
3935.00,0.0007
3934.00,0.0007
3933.00,0.0007
3932.00,0.0007
3931.00,0.0008
3930.00,0.0008
3929.00,0.0008
3928.00,0.0008
3927.00,0.0009
3926.00,0.0009
3925.00,0.0008
3924.00,0.0008
3923.00,0.0008
3922.00,0.0008
3921.00,0.0008
3920.00,0.0008
3919.00,0.0008
3918.00,0.0008
3917.00,0.0008
3916.00,0.0009
3915.00,0.0009
3914.00,0.0009
3913.00,0.0009
3912.00,0.0009
3911.00,0.0008
3910.00,0.0008
3909.00,0.0008
3908.00,0.0007
3907.00,0.0007
3906.00,0.0007
3905.00,0.0007
3904.00,0.0007
3903.00,0.0008
3902.00,0.0008
3901.00,0.0008
3900.00,0.0008
3899.00,0.0008
3898.00,0.0008
3897.00,0.0008
3896.00,0.0008
3895.00,0.0007
3894.00,0.0007
3893.00,0.0007
3892.00,0.0007
3891.00,0.0007
3890.00,0.0007
3889.00,0.0007
3888.00,0.0007
3887.00,0.0007
3886.00,0.0007
3885.00,0.0007
3884.00,0.0008
3883.00,0.0007
3882.00,0.0007
3881.00,0.0007
3880.00,0.0007
3879.00,0.0007
3878.00,0.0007
3877.00,0.0008
3876.00,0.0008
3875.00,0.0008
3874.00,0.0008
3873.00,0.0008
3872.00,0.0008
3871.00,0.0008
3870.00,0.0008
3869.00,0.0008
3868.00,0.0008
3867.00,0.0007
3866.00,0.0007
3865.00,0.0007
3864.00,0.0006
3863.00,0.0007
3862.00,0.0007
3861.00,0.0007
3860.00,0.0007
3859.00,0.0007
3858.00,0.0006
3857.00,0.0006
3856.00,0.0005
3855.00,0.0005
3854.00,0.0006
3853.00,0.0007
3852.00,0.0007
3851.00,0.0007
3850.00,0.0008
3849.00,0.0008
3848.00,0.0007
3847.00,0.0007
3846.00,0.0007
3845.00,0.0007
3844.00,0.0007
3843.00,0.0007
3842.00,0.0007
3841.00,0.0007
3840.00,0.0008
3839.00,0.0008
3838.00,0.0008
3837.00,0.0008
3836.00,0.0008
3835.00,0.0008
3834.00,0.0008
3833.00,0.0007
3832.00,0.0007
3831.00,0.0007
3830.00,0.0007
3829.00,0.0007
3828.00,0.0007
3827.00,0.0007
3826.00,0.0007
3825.00,0.0007
3824.00,0.0007
3823.00,0.0007
3822.00,0.0007
3821.00,0.0007
3820.00,0.0007
3819.00,0.0007
3818.00,0.0007
3817.00,0.0007
3816.00,0.0007
3815.00,0.0007
3814.00,0.0007
3813.00,0.0007
3812.00,0.0007
3811.00,0.0007
3810.00,0.0007
3809.00,0.0007
3808.00,0.0007
3807.00,0.0007
3806.00,0.0007
3805.00,0.0008
3804.00,0.0008
3803.00,0.0008
3802.00,0.0008
3801.00,0.0008
3800.00,0.0007
3799.00,0.0007
3798.00,0.0007
3797.00,0.0007
3796.00,0.0008
3795.00,0.0008
3794.00,0.0008
3793.00,0.0008
3792.00,0.0007
3791.00,0.0008
3790.00,0.0008
3789.00,0.0008
3788.00,0.0008
3787.00,0.0008
3786.00,0.0008
3785.00,0.0008
3784.00,0.0008
3783.00,0.0008
3782.00,0.0008
3781.00,0.0008
3780.00,0.0007
3779.00,0.0007
3778.00,0.0007
3777.00,0.0008
3776.00,0.0008
3775.00,0.0008
3774.00,0.0008
3773.00,0.0008
3772.00,0.0008
3771.00,0.0009
3770.00,0.0009
3769.00,0.0009
3768.00,0.0008
3767.00,0.0008
3766.00,0.0008
3765.00,0.0009
3764.00,0.0009
3763.00,0.0009
3762.00,0.0009
3761.00,0.0008
3760.00,0.0007
3759.00,0.0007
3758.00,0.0006
3757.00,0.0007
3756.00,0.0007
3755.00,0.0007
3754.00,0.0007
3753.00,0.0007
3752.00,0.0007
3751.00,0.0007
3750.00,0.0007
3749.00,0.0006
3748.00,0.0006
3747.00,0.0006
3746.00,0.0006
3745.00,0.0006
3744.00,0.0006
3743.00,0.0006
3742.00,0.0007
3741.00,0.0007
3740.00,0.0007
3739.00,0.0008
3738.00,0.0008
3737.00,0.0008
3736.00,0.0008
3735.00,0.0007
3734.00,0.0006
3733.00,0.0006
3732.00,0.0006
3731.00,0.0006
3730.00,0.0005
3729.00,0.0005
3728.00,0.0005
3727.00,0.0005
3726.00,0.0006
3725.00,0.0006
3724.00,0.0006
3723.00,0.0006
3722.00,0.0007
3721.00,0.0007
3720.00,0.0007
3719.00,0.0007
3718.00,0.0006
3717.00,0.0006
3716.00,0.0005
3715.00,0.0005
3714.00,0.0005
3713.00,0.0006
3712.00,0.0006
3711.00,0.0006
3710.00,0.0006
3709.00,0.0006
3708.00,0.0006
3707.00,0.0006
3706.00,0.0006
3705.00,0.0005
3704.00,0.0005
3703.00,0.0005
3702.00,0.0005
3701.00,0.0005
3700.00,0.0005
3699.00,0.0005
3698.00,0.0005
3697.00,0.0005
3696.00,0.0006
3695.00,0.0006
3694.00,0.0006
3693.00,0.0005
3692.00,0.0004
3691.00,0.0004
3690.00,0.0004
3689.00,0.0004
3688.00,0.0005
3687.00,0.0005
3686.00,0.0005
3685.00,0.0006
3684.00,0.0006
3683.00,0.0006
3682.00,0.0007
3681.00,0.0007
3680.00,0.0007
3679.00,0.0007
3678.00,0.0007
3677.00,0.0007
3676.00,0.0007
3675.00,0.0007
3674.00,0.0007
3673.00,0.0007
3672.00,0.0007
3671.00,0.0006
3670.00,0.0006
3669.00,0.0006
3668.00,0.0006
3667.00,0.0006
3666.00,0.0006
3665.00,0.0007
3664.00,0.0007
3663.00,0.0008
3662.00,0.0008
3661.00,0.0008
3660.00,0.0008
3659.00,0.0007
3658.00,0.0007
3657.00,0.0007
3656.00,0.0007
3655.00,0.0007
3654.00,0.0007
3653.00,0.0007
3652.00,0.0007
3651.00,0.0008
3650.00,0.0008
3649.00,0.0008
3648.00,0.0008
3647.00,0.0007
3646.00,0.0007
3645.00,0.0007
3644.00,0.0007
3643.00,0.0007
3642.00,0.0007
3641.00,0.0007
3640.00,0.0007
3639.00,0.0007
3638.00,0.0007
3637.00,0.0007
3636.00,0.0006
3635.00,0.0006
3634.00,0.0006
3633.00,0.0006
3632.00,0.0006
3631.00,0.0007
3630.00,0.0007
3629.00,0.0006
3628.00,0.0006
3627.00,0.0005
3626.00,0.0005
3625.00,0.0005
3624.00,0.0005
3623.00,0.0005
3622.00,0.0006
3621.00,0.0006
3620.00,0.0006
3619.00,0.0006
3618.00,0.0006
3617.00,0.0006
3616.00,0.0006
3615.00,0.0005
3614.00,0.0005
3613.00,0.0006
3612.00,0.0006
3611.00,0.0007
3610.00,0.0007
3609.00,0.0006
3608.00,0.0006
3607.00,0.0005
3606.00,0.0005
3605.00,0.0006
3604.00,0.0006
3603.00,0.0007
3602.00,0.0007
3601.00,0.0006
3600.00,0.0006
3599.00,0.0006
3598.00,0.0006
3597.00,0.0006
3596.00,0.0006
3595.00,0.0007
3594.00,0.0007
3593.00,0.0007
3592.00,0.0007
3591.00,0.0007
3590.00,0.0008
3589.00,0.0008
3588.00,0.0008
3587.00,0.0007
3586.00,0.0007
3585.00,0.0007
3584.00,0.0007
3583.00,0.0007
3582.00,0.0007
3581.00,0.0008
3580.00,0.0008
3579.00,0.0008
3578.00,0.0009
3577.00,0.0009
3576.00,0.0009
3575.00,0.0009
3574.00,0.0009
3573.00,0.0009
3572.00,0.0008
3571.00,0.0008
3570.00,0.0008
3569.00,0.0008
3568.00,0.0008
3567.00,0.0009
3566.00,0.0009
3565.00,0.0009
3564.00,0.0009
3563.00,0.0009
3562.00,0.0009
3561.00,0.0009
3560.00,0.0009
3559.00,0.0010
3558.00,0.0010
3557.00,0.0010
3556.00,0.0010
3555.00,0.0010
3554.00,0.0010
3553.00,0.0010
3552.00,0.0010
3551.00,0.0010
3550.00,0.0010
3549.00,0.0010
3548.00,0.0010
3547.00,0.0010
3546.00,0.0010
3545.00,0.0011
3544.00,0.0011
3543.00,0.0012
3542.00,0.0012
3541.00,0.0012
3540.00,0.0012
3539.00,0.0011
3538.00,0.0011
3537.00,0.0011
3536.00,0.0011
3535.00,0.0012
3534.00,0.0012
3533.00,0.0012
3532.00,0.0012
3531.00,0.0012
3530.00,0.0012
3529.00,0.0012
3528.00,0.0012
3527.00,0.0012
3526.00,0.0012
3525.00,0.0012
3524.00,0.0012
3523.00,0.0012
3522.00,0.0012
3521.00,0.0013
3520.00,0.0013
3519.00,0.0013
3518.00,0.0014
3517.00,0.0014
3516.00,0.0014
3515.00,0.0014
3514.00,0.0013
3513.00,0.0013
3512.00,0.0013
3511.00,0.0013
3510.00,0.0014
3509.00,0.0014
3508.00,0.0014
3507.00,0.0014
3506.00,0.0014
3505.00,0.0014
3504.00,0.0014
3503.00,0.0015
3502.00,0.0015
3501.00,0.0015
3500.00,0.0014
3499.00,0.0014
3498.00,0.0014
3497.00,0.0014
3496.00,0.0015
3495.00,0.0015
3494.00,0.0015
3493.00,0.0015
3492.00,0.0015
3491.00,0.0015
3490.00,0.0015
3489.00,0.0015
3488.00,0.0015
3487.00,0.0016
3486.00,0.0016
3485.00,0.0016
3484.00,0.0016
3483.00,0.0016
3482.00,0.0016
3481.00,0.0016
3480.00,0.0016
3479.00,0.0016
3478.00,0.0016
3477.00,0.0016
3476.00,0.0016
3475.00,0.0016
3474.00,0.0016
3473.00,0.0016
3472.00,0.0017
3471.00,0.0017
3470.00,0.0017
3469.00,0.0018
3468.00,0.0018
3467.00,0.0018
3466.00,0.0018
3465.00,0.0018
3464.00,0.0018
3463.00,0.0018
3462.00,0.0018
3461.00,0.0018
3460.00,0.0019
3459.00,0.0019
3458.00,0.0019
3457.00,0.0019
3456.00,0.0019
3455.00,0.0019
3454.00,0.0019
3453.00,0.0019
3452.00,0.0019
3451.00,0.0019
3450.00,0.0018
3449.00,0.0018
3448.00,0.0018
3447.00,0.0018
3446.00,0.0018
3445.00,0.0018
3444.00,0.0019
3443.00,0.0019
3442.00,0.0019
3441.00,0.0019
3440.00,0.0019
3439.00,0.0019
3438.00,0.0019
3437.00,0.0019
3436.00,0.0019
3435.00,0.0019
3434.00,0.0020
3433.00,0.0020
3432.00,0.0020
3431.00,0.0021
3430.00,0.0021
3429.00,0.0021
3428.00,0.0021
3427.00,0.0021
3426.00,0.0021
3425.00,0.0021
3424.00,0.0020
3423.00,0.0020
3422.00,0.0020
3421.00,0.0020
3420.00,0.0021
3419.00,0.0021
3418.00,0.0021
3417.00,0.0021
3416.00,0.0021
3415.00,0.0021
3414.00,0.0021
3413.00,0.0021
3412.00,0.0022
3411.00,0.0022
3410.00,0.0022
3409.00,0.0022
3408.00,0.0022
3407.00,0.0022
3406.00,0.0022
3405.00,0.0022
3404.00,0.0022
3403.00,0.0021
3402.00,0.0021
3401.00,0.0021
3400.00,0.0022
3399.00,0.0022
3398.00,0.0022
3397.00,0.0022
3396.00,0.0022
3395.00,0.0022
3394.00,0.0022
3393.00,0.0022
3392.00,0.0022
3391.00,0.0022
3390.00,0.0022
3389.00,0.0022
3388.00,0.0022
3387.00,0.0023
3386.00,0.0023
3385.00,0.0022
3384.00,0.0022
3383.00,0.0021
3382.00,0.0021
3381.00,0.0021
3380.00,0.0021
3379.00,0.0021
3378.00,0.0022
3377.00,0.0022
3376.00,0.0022
3375.00,0.0022
3374.00,0.0022
3373.00,0.0022
3372.00,0.0022
3371.00,0.0022
3370.00,0.0022
3369.00,0.0021
3368.00,0.0022
3367.00,0.0022
3366.00,0.0023
3365.00,0.0023
3364.00,0.0023
3363.00,0.0023
3362.00,0.0023
3361.00,0.0023
3360.00,0.0023
3359.00,0.0024
3358.00,0.0024
3357.00,0.0023
3356.00,0.0023
3355.00,0.0022
3354.00,0.0022
3353.00,0.0022
3352.00,0.0022
3351.00,0.0022
3350.00,0.0023
3349.00,0.0023
3348.00,0.0023
3347.00,0.0023
3346.00,0.0023
3345.00,0.0023
3344.00,0.0023
3343.00,0.0023
3342.00,0.0022
3341.00,0.0022
3340.00,0.0022
3339.00,0.0022
3338.00,0.0022
3337.00,0.0022
3336.00,0.0022
3335.00,0.0022
3334.00,0.0022
3333.00,0.0022
3332.00,0.0022
3331.00,0.0022
3330.00,0.0022
3329.00,0.0022
3328.00,0.0022
3327.00,0.0022
3326.00,0.0022
3325.00,0.0021
3324.00,0.0021
3323.00,0.0021
3322.00,0.0021
3321.00,0.0022
3320.00,0.0022
3319.00,0.0022
3318.00,0.0022
3317.00,0.0021
3316.00,0.0021
3315.00,0.0021
3314.00,0.0020
3313.00,0.0020
3312.00,0.0020
3311.00,0.0020
3310.00,0.0020
3309.00,0.0021
3308.00,0.0021
3307.00,0.0021
3306.00,0.0021
3305.00,0.0021
3304.00,0.0021
3303.00,0.0021
3302.00,0.0021
3301.00,0.0022
3300.00,0.0022
3299.00,0.0021
3298.00,0.0021
3297.00,0.0021
3296.00,0.0021
3295.00,0.0021
3294.00,0.0021
3293.00,0.0021
3292.00,0.0021
3291.00,0.0021
3290.00,0.0021
3289.00,0.0021
3288.00,0.0021
3287.00,0.0020
3286.00,0.0020
3285.00,0.0020
3284.00,0.0020
3283.00,0.0020
3282.00,0.0020
3281.00,0.0021
3280.00,0.0021
3279.00,0.0021
3278.00,0.0021
3277.00,0.0021
3276.00,0.0021
3275.00,0.0021
3274.00,0.0020
3273.00,0.0020
3272.00,0.0020
3271.00,0.0020
3270.00,0.0020
3269.00,0.0020
3268.00,0.0020
3267.00,0.0020
3266.00,0.0019
3265.00,0.0019
3264.00,0.0020
3263.00,0.0019
3262.00,0.0019
3261.00,0.0019
3260.00,0.0019
3259.00,0.0019
3258.00,0.0019
3257.00,0.0019
3256.00,0.0019
3255.00,0.0020
3254.00,0.0020
3253.00,0.0020
3252.00,0.0020
3251.00,0.0020
3250.00,0.0019
3249.00,0.0019
3248.00,0.0019
3247.00,0.0019
3246.00,0.0018
3245.00,0.0018
3244.00,0.0019
3243.00,0.0019
3242.00,0.0019
3241.00,0.0019
3240.00,0.0019
3239.00,0.0020
3238.00,0.0020
3237.00,0.0021
3236.00,0.0021
3235.00,0.0021
3234.00,0.0021
3233.00,0.0021
3232.00,0.0021
3231.00,0.0021
3230.00,0.0021
3229.00,0.0021
3228.00,0.0021
3227.00,0.0021
3226.00,0.0021
3225.00,0.0021
3224.00,0.0021
3223.00,0.0021
3222.00,0.0021
3221.00,0.0021
3220.00,0.0021
3219.00,0.0021
3218.00,0.0022
3217.00,0.0023
3216.00,0.0024
3215.00,0.0025
3214.00,0.0025
3213.00,0.0025
3212.00,0.0025
3211.00,0.0025
3210.00,0.0025
3209.00,0.0025
3208.00,0.0025
3207.00,0.0026
3206.00,0.0026
3205.00,0.0026
3204.00,0.0026
3203.00,0.0026
3202.00,0.0026
3201.00,0.0026
3200.00,0.0026
3199.00,0.0026
3198.00,0.0026
3197.00,0.0027
3196.00,0.0026
3195.00,0.0026
3194.00,0.0026
3193.00,0.0026
3192.00,0.0026
3191.00,0.0026
3190.00,0.0025
3189.00,0.0025
3188.00,0.0025
3187.00,0.0025
3186.00,0.0025
3185.00,0.0025
3184.00,0.0025
3183.00,0.0024
3182.00,0.0024
3181.00,0.0024
3180.00,0.0024
3179.00,0.0024
3178.00,0.0024
3177.00,0.0024
3176.00,0.0024
3175.00,0.0024
3174.00,0.0024
3173.00,0.0024
3172.00,0.0024
3171.00,0.0023
3170.00,0.0023
3169.00,0.0023
3168.00,0.0023
3167.00,0.0023
3166.00,0.0023
3165.00,0.0023
3164.00,0.0023
3163.00,0.0023
3162.00,0.0023
3161.00,0.0023
3160.00,0.0024
3159.00,0.0024
3158.00,0.0024
3157.00,0.0024
3156.00,0.0024
3155.00,0.0025
3154.00,0.0025
3153.00,0.0024
3152.00,0.0024
3151.00,0.0024
3150.00,0.0024
3149.00,0.0024
3148.00,0.0024
3147.00,0.0024
3146.00,0.0024
3145.00,0.0024
3144.00,0.0024
3143.00,0.0024
3142.00,0.0024
3141.00,0.0023
3140.00,0.0023
3139.00,0.0023
3138.00,0.0023
3137.00,0.0023
3136.00,0.0023
3135.00,0.0023
3134.00,0.0023
3133.00,0.0023
3132.00,0.0023
3131.00,0.0023
3130.00,0.0023
3129.00,0.0023
3128.00,0.0023
3127.00,0.0022
3126.00,0.0022
3125.00,0.0021
3124.00,0.0021
3123.00,0.0021
3122.00,0.0021
3121.00,0.0021
3120.00,0.0021
3119.00,0.0021
3118.00,0.0020
3117.00,0.0020
3116.00,0.0020
3115.00,0.0021
3114.00,0.0021
3113.00,0.0021
3112.00,0.0021
3111.00,0.0021
3110.00,0.0022
3109.00,0.0022
3108.00,0.0022
3107.00,0.0021
3106.00,0.0021
3105.00,0.0020
3104.00,0.0020
3103.00,0.0019
3102.00,0.0019
3101.00,0.0019
3100.00,0.0019
3099.00,0.0020
3098.00,0.0020
3097.00,0.0020
3096.00,0.0020
3095.00,0.0020
3094.00,0.0021
3093.00,0.0021
3092.00,0.0021
3091.00,0.0021
3090.00,0.0021
3089.00,0.0021
3088.00,0.0021
3087.00,0.0021
3086.00,0.0021
3085.00,0.0021
3084.00,0.0021
3083.00,0.0021
3082.00,0.0021
3081.00,0.0021
3080.00,0.0021
3079.00,0.0022
3078.00,0.0022
3077.00,0.0022
3076.00,0.0022
3075.00,0.0022
3074.00,0.0022
3073.00,0.0022
3072.00,0.0022
3071.00,0.0022
3070.00,0.0022
3069.00,0.0023
3068.00,0.0023
3067.00,0.0023
3066.00,0.0023
3065.00,0.0023
3064.00,0.0023
3063.00,0.0023
3062.00,0.0024
3061.00,0.0024
3060.00,0.0024
3059.00,0.0024
3058.00,0.0024
3057.00,0.0024
3056.00,0.0024
3055.00,0.0024
3054.00,0.0025
3053.00,0.0025
3052.00,0.0026
3051.00,0.0026
3050.00,0.0026
3049.00,0.0027
3048.00,0.0026
3047.00,0.0026
3046.00,0.0026
3045.00,0.0027
3044.00,0.0027
3043.00,0.0027
3042.00,0.0028
3041.00,0.0028
3040.00,0.0028
3039.00,0.0028
3038.00,0.0029
3037.00,0.0029
3036.00,0.0030
3035.00,0.0030
3034.00,0.0031
3033.00,0.0031
3032.00,0.0032
3031.00,0.0032
3030.00,0.0032
3029.00,0.0033
3028.00,0.0033
3027.00,0.0033
3026.00,0.0034
3025.00,0.0035
3024.00,0.0035
3023.00,0.0036
3022.00,0.0036
3021.00,0.0037
3020.00,0.0038
3019.00,0.0040
3018.00,0.0041
3017.00,0.0042
3016.00,0.0043
3015.00,0.0044
3014.00,0.0045
3013.00,0.0047
3012.00,0.0049
3011.00,0.0050
3010.00,0.0052
3009.00,0.0054
3008.00,0.0056
3007.00,0.0058
3006.00,0.0060
3005.00,0.0062
3004.00,0.0065
3003.00,0.0068
3002.00,0.0071
3001.00,0.0074
3000.00,0.0077
2999.00,0.0080
2998.00,0.0083
2997.00,0.0087
2996.00,0.0091
2995.00,0.0095
2994.00,0.0100
2993.00,0.0105
2992.00,0.0110
2991.00,0.0116
2990.00,0.0123
2989.00,0.0129
2988.00,0.0137
2987.00,0.0146
2986.00,0.0156
2985.00,0.0168
2984.00,0.0181
2983.00,0.0195
2982.00,0.0211
2981.00,0.0229
2980.00,0.0247
2979.00,0.0268
2978.00,0.0292
2977.00,0.0319
2976.00,0.0350
2975.00,0.0386
2974.00,0.0427
2973.00,0.0474
2972.00,0.0527
2971.00,0.0586
2970.00,0.0651
2969.00,0.0721
2968.00,0.0798
2967.00,0.0879
2966.00,0.0964
2965.00,0.1049
2964.00,0.1131
2963.00,0.1207
2962.00,0.1274
2961.00,0.1331
2960.00,0.1377
2959.00,0.1419
2958.00,0.1459
2957.00,0.1505
2956.00,0.1560
2955.00,0.1626
2954.00,0.1702
2953.00,0.1781
2952.00,0.1853
2951.00,0.1906
2950.00,0.1927
2949.00,0.1908
2948.00,0.1848
2947.00,0.1751
2946.00,0.1629
2945.00,0.1498
2944.00,0.1373
2943.00,0.1265
2942.00,0.1181
2941.00,0.1123
2940.00,0.1090
2939.00,0.1081
2938.00,0.1093
2937.00,0.1123
2936.00,0.1171
2935.00,0.1234
2934.00,0.1312
2933.00,0.1403
2932.00,0.1505
2931.00,0.1617
2930.00,0.1736
2929.00,0.1859
2928.00,0.1982
2927.00,0.2104
2926.00,0.2222
2925.00,0.2337
2924.00,0.2450
2923.00,0.2563
2922.00,0.2675
2921.00,0.2784
2920.00,0.2880
2919.00,0.2954
2918.00,0.2993
2917.00,0.2989
2916.00,0.2939
2915.00,0.2850
2914.00,0.2735
2913.00,0.2608
2912.00,0.2482
2911.00,0.2366
2910.00,0.2261
2909.00,0.2168
2908.00,0.2082
2907.00,0.2002
2906.00,0.1925
2905.00,0.1849
2904.00,0.1774
2903.00,0.1700
2902.00,0.1629
2901.00,0.1560
2900.00,0.1494
2899.00,0.1431
2898.00,0.1373
2897.00,0.1319
2896.00,0.1271
2895.00,0.1229
2894.00,0.1193
2893.00,0.1164
2892.00,0.1141
2891.00,0.1124
2890.00,0.1112
2889.00,0.1105
2888.00,0.1102
2887.00,0.1102
2886.00,0.1106
2885.00,0.1114
2884.00,0.1126
2883.00,0.1144
2882.00,0.1166
2881.00,0.1192
2880.00,0.1218
2879.00,0.1241
2878.00,0.1256
2877.00,0.1261
2876.00,0.1258
2875.00,0.1250
2874.00,0.1242
2873.00,0.1239
2872.00,0.1244
2871.00,0.1258
2870.00,0.1276
2869.00,0.1296
2868.00,0.1308
2867.00,0.1304
2866.00,0.1278
2865.00,0.1229
2864.00,0.1160
2863.00,0.1080
2862.00,0.1000
2861.00,0.0929
2860.00,0.0873
2859.00,0.0835
2858.00,0.0813
2857.00,0.0806
2856.00,0.0809
2855.00,0.0822
2854.00,0.0841
2853.00,0.0864
2852.00,0.0887
2851.00,0.0907
2850.00,0.0921
2849.00,0.0929
2848.00,0.0936
2847.00,0.0945
2846.00,0.0963
2845.00,0.0992
2844.00,0.1033
2843.00,0.1083
2842.00,0.1137
2841.00,0.1189
2840.00,0.1231
2839.00,0.1254
2838.00,0.1251
2837.00,0.1217
2836.00,0.1152
2835.00,0.1062
2834.00,0.0956
2833.00,0.0844
2832.00,0.0738
2831.00,0.0644
2830.00,0.0564
2829.00,0.0499
2828.00,0.0446
2827.00,0.0402
2826.00,0.0367
2825.00,0.0338
2824.00,0.0314
2823.00,0.0294
2822.00,0.0278
2821.00,0.0263
2820.00,0.0250
2819.00,0.0239
2818.00,0.0229
2817.00,0.0220
2816.00,0.0212
2815.00,0.0205
2814.00,0.0199
2813.00,0.0193
2812.00,0.0187
2811.00,0.0182
2810.00,0.0176
2809.00,0.0170
2808.00,0.0164
2807.00,0.0158
2806.00,0.0151
2805.00,0.0145
2804.00,0.0138
2803.00,0.0132
2802.00,0.0127
2801.00,0.0122
2800.00,0.0118
2799.00,0.0115
2798.00,0.0112
2797.00,0.0109
2796.00,0.0106
2795.00,0.0104
2794.00,0.0101
2793.00,0.0098
2792.00,0.0095
2791.00,0.0092
2790.00,0.0089
2789.00,0.0086
2788.00,0.0083
2787.00,0.0080
2786.00,0.0078
2785.00,0.0075
2784.00,0.0073
2783.00,0.0070
2782.00,0.0068
2781.00,0.0066
2780.00,0.0065
2779.00,0.0063
2778.00,0.0062
2777.00,0.0061
2776.00,0.0060
2775.00,0.0059
2774.00,0.0058
2773.00,0.0057
2772.00,0.0057
2771.00,0.0056
2770.00,0.0056
2769.00,0.0055
2768.00,0.0055
2767.00,0.0055
2766.00,0.0055
2765.00,0.0055
2764.00,0.0055
2763.00,0.0054
2762.00,0.0053
2761.00,0.0053
2760.00,0.0052
2759.00,0.0052
2758.00,0.0051
2757.00,0.0051
2756.00,0.0051
2755.00,0.0051
2754.00,0.0051
2753.00,0.0050
2752.00,0.0050
2751.00,0.0050
2750.00,0.0050
2749.00,0.0050
2748.00,0.0051
2747.00,0.0051
2746.00,0.0051
2745.00,0.0052
2744.00,0.0052
2743.00,0.0053
2742.00,0.0054
2741.00,0.0055
2740.00,0.0056
2739.00,0.0058
2738.00,0.0059
2737.00,0.0061
2736.00,0.0062
2735.00,0.0064
2734.00,0.0066
2733.00,0.0067
2732.00,0.0069
2731.00,0.0071
2730.00,0.0073
2729.00,0.0075
2728.00,0.0078
2727.00,0.0081
2726.00,0.0084
2725.00,0.0087
2724.00,0.0088
2723.00,0.0089
2722.00,0.0088
2721.00,0.0086
2720.00,0.0083
2719.00,0.0080
2718.00,0.0076
2717.00,0.0073
2716.00,0.0070
2715.00,0.0067
2714.00,0.0065
2713.00,0.0063
2712.00,0.0061
2711.00,0.0059
2710.00,0.0057
2709.00,0.0055
2708.00,0.0054
2707.00,0.0053
2706.00,0.0051
2705.00,0.0050
2704.00,0.0049
2703.00,0.0048
2702.00,0.0047
2701.00,0.0046
2700.00,0.0045
2699.00,0.0045
2698.00,0.0044
2697.00,0.0044
2696.00,0.0044
2695.00,0.0044
2694.00,0.0045
2693.00,0.0045
2692.00,0.0045
2691.00,0.0045
2690.00,0.0044
2689.00,0.0044
2688.00,0.0044
2687.00,0.0044
2686.00,0.0044
2685.00,0.0044
2684.00,0.0044
2683.00,0.0044
2682.00,0.0045
2681.00,0.0045
2680.00,0.0046
2679.00,0.0046
2678.00,0.0046
2677.00,0.0046
2676.00,0.0046
2675.00,0.0046
2674.00,0.0046
2673.00,0.0045
2672.00,0.0045
2671.00,0.0045
2670.00,0.0044
2669.00,0.0045
2668.00,0.0045
2667.00,0.0045
2666.00,0.0046
2665.00,0.0047
2664.00,0.0047
2663.00,0.0047
2662.00,0.0048
2661.00,0.0048
2660.00,0.0048
2659.00,0.0048
2658.00,0.0049
2657.00,0.0048
2656.00,0.0048
2655.00,0.0047
2654.00,0.0047
2653.00,0.0046
2652.00,0.0045
2651.00,0.0045
2650.00,0.0044
2649.00,0.0044
2648.00,0.0044
2647.00,0.0044
2646.00,0.0043
2645.00,0.0043
2644.00,0.0042
2643.00,0.0042
2642.00,0.0041
2641.00,0.0041
2640.00,0.0040
2639.00,0.0040
2638.00,0.0039
2637.00,0.0039
2636.00,0.0039
2635.00,0.0038
2634.00,0.0038
2633.00,0.0038
2632.00,0.0039
2631.00,0.0039
2630.00,0.0039
2629.00,0.0039
2628.00,0.0040
2627.00,0.0040
2626.00,0.0040
2625.00,0.0040
2624.00,0.0040
2623.00,0.0040
2622.00,0.0040
2621.00,0.0041
2620.00,0.0041
2619.00,0.0040
2618.00,0.0040
2617.00,0.0040
2616.00,0.0040
2615.00,0.0041
2614.00,0.0041
2613.00,0.0041
2612.00,0.0040
2611.00,0.0040
2610.00,0.0039
2609.00,0.0038
2608.00,0.0037
2607.00,0.0036
2606.00,0.0035
2605.00,0.0034
2604.00,0.0033
2603.00,0.0033
2602.00,0.0032
2601.00,0.0032
2600.00,0.0032
2599.00,0.0033
2598.00,0.0032
2597.00,0.0032
2596.00,0.0032
2595.00,0.0032
2594.00,0.0033
2593.00,0.0034
2592.00,0.0035
2591.00,0.0035
2590.00,0.0035
2589.00,0.0036
2588.00,0.0037
2587.00,0.0038
2586.00,0.0039
2585.00,0.0040
2584.00,0.0040
2583.00,0.0040
2582.00,0.0040
2581.00,0.0040
2580.00,0.0039
2579.00,0.0038
2578.00,0.0037
2577.00,0.0036
2576.00,0.0035
2575.00,0.0034
2574.00,0.0033
2573.00,0.0032
2572.00,0.0030
2571.00,0.0029
2570.00,0.0027
2569.00,0.0026
2568.00,0.0026
2567.00,0.0026
2566.00,0.0026
2565.00,0.0026
2564.00,0.0026
2563.00,0.0026
2562.00,0.0025
2561.00,0.0025
2560.00,0.0024
2559.00,0.0024
2558.00,0.0024
2557.00,0.0023
2556.00,0.0023
2555.00,0.0022
2554.00,0.0022
2553.00,0.0021
2552.00,0.0021
2551.00,0.0020
2550.00,0.0020
2549.00,0.0019
2548.00,0.0019
2547.00,0.0019
2546.00,0.0019
2545.00,0.0018
2544.00,0.0018
2543.00,0.0018
2542.00,0.0018
2541.00,0.0017
2540.00,0.0016
2539.00,0.0015
2538.00,0.0015
2537.00,0.0015
2536.00,0.0016
2535.00,0.0016
2534.00,0.0017
2533.00,0.0017
2532.00,0.0017
2531.00,0.0016
2530.00,0.0016
2529.00,0.0016
2528.00,0.0016
2527.00,0.0016
2526.00,0.0016
2525.00,0.0015
2524.00,0.0015
2523.00,0.0015
2522.00,0.0014
2521.00,0.0014
2520.00,0.0014
2519.00,0.0013
2518.00,0.0013
2517.00,0.0013
2516.00,0.0012
2515.00,0.0012
2514.00,0.0011
2513.00,0.0011
2512.00,0.0011
2511.00,0.0011
2510.00,0.0011
2509.00,0.0011
2508.00,0.0011
2507.00,0.0011
2506.00,0.0011
2505.00,0.0011
2504.00,0.0010
2503.00,0.0010
2502.00,0.0010
2501.00,0.0010
2500.00,0.0010
2499.00,0.0010
2498.00,0.0010
2497.00,0.0010
2496.00,0.0010
2495.00,0.0010
2494.00,0.0010
2493.00,0.0010
2492.00,0.0010
2491.00,0.0010
2490.00,0.0009
2489.00,0.0009
2488.00,0.0008
2487.00,0.0008
2486.00,0.0009
2485.00,0.0009
2484.00,0.0010
2483.00,0.0011
2482.00,0.0011
2481.00,0.0011
2480.00,0.0011
2479.00,0.0011
2478.00,0.0011
2477.00,0.0010
2476.00,0.0009
2475.00,0.0009
2474.00,0.0008
2473.00,0.0009
2472.00,0.0009
2471.00,0.0009
2470.00,0.0009
2469.00,0.0009
2468.00,0.0009
2467.00,0.0009
2466.00,0.0009
2465.00,0.0009
2464.00,0.0009
2463.00,0.0009
2462.00,0.0010
2461.00,0.0010
2460.00,0.0010
2459.00,0.0011
2458.00,0.0011
2457.00,0.0012
2456.00,0.0012
2455.00,0.0011
2454.00,0.0011
2453.00,0.0010
2452.00,0.0010
2451.00,0.0010
2450.00,0.0010
2449.00,0.0011
2448.00,0.0011
2447.00,0.0011
2446.00,0.0011
2445.00,0.0011
2444.00,0.0012
2443.00,0.0012
2442.00,0.0012
2441.00,0.0012
2440.00,0.0011
2439.00,0.0011
2438.00,0.0010
2437.00,0.0011
2436.00,0.0011
2435.00,0.0012
2434.00,0.0012
2433.00,0.0012
2432.00,0.0013
2431.00,0.0013
2430.00,0.0012
2429.00,0.0012
2428.00,0.0012
2427.00,0.0012
2426.00,0.0012
2425.00,0.0012
2424.00,0.0012
2423.00,0.0012
2422.00,0.0011
2421.00,0.0011
2420.00,0.0010
2419.00,0.0010
2418.00,0.0010
2417.00,0.0010
2416.00,0.0010
2415.00,0.0010
2414.00,0.0009
2413.00,0.0009
2412.00,0.0010
2411.00,0.0010
2410.00,0.0010
2409.00,0.0010
2408.00,0.0010
2407.00,0.0009
2406.00,0.0009
2405.00,0.0008
2404.00,0.0008
2403.00,0.0009
2402.00,0.0009
2401.00,0.0009
2400.00,0.0008
2399.00,0.0008
2398.00,0.0007
2397.00,0.0007
2396.00,0.0008
2395.00,0.0008
2394.00,0.0009
2393.00,0.0009
2392.00,0.0008
2391.00,0.0008
2390.00,0.0008
2389.00,0.0008
2388.00,0.0008
2387.00,0.0008
2386.00,0.0007
2385.00,0.0007
2384.00,0.0006
2383.00,0.0005
2382.00,0.0004
2381.00,0.0004
2380.00,0.0003
2379.00,0.0003
2378.00,0.0003
2377.00,0.0003
2376.00,0.0003
2375.00,0.0003
2374.00,0.0003
2373.00,0.0002
2372.00,0.0001
2371.00,0.0000
2370.00,-0.0001
2369.00,-0.0001
2368.00,-0.0001
2367.00,-0.0001
2366.00,-0.0001
2365.00,-0.0001
2364.00,-0.0001
2363.00,-0.0000
2362.00,0.0001
2361.00,0.0001
2360.00,0.0001
2359.00,0.0001
2358.00,0.0001
2357.00,0.0001
2356.00,0.0001
2355.00,0.0001
2354.00,0.0001
2353.00,0.0001
2352.00,0.0001
2351.00,0.0001
2350.00,0.0001
2349.00,0.0002
2348.00,0.0002
2347.00,0.0002
2346.00,0.0002
2345.00,0.0002
2344.00,0.0003
2343.00,0.0004
2342.00,0.0004
2341.00,0.0005
2340.00,0.0005
2339.00,0.0005
2338.00,0.0005
2337.00,0.0005
2336.00,0.0004
2335.00,0.0004
2334.00,0.0004
2333.00,0.0004
2332.00,0.0004
2331.00,0.0004
2330.00,0.0004
2329.00,0.0005
2328.00,0.0007
2327.00,0.0011
2326.00,0.0015
2325.00,0.0019
2324.00,0.0021
2323.00,0.0021
2322.00,0.0019
2321.00,0.0017
2320.00,0.0015
2319.00,0.0014
2318.00,0.0013
2317.00,0.0012
2316.00,0.0011
2315.00,0.0010
2314.00,0.0010
2313.00,0.0009
2312.00,0.0010
2311.00,0.0010
2310.00,0.0010
2309.00,0.0010
2308.00,0.0010
2307.00,0.0009
2306.00,0.0009
2305.00,0.0009
2304.00,0.0010
2303.00,0.0010
2302.00,0.0011
2301.00,0.0011
2300.00,0.0011
2299.00,0.0011
2298.00,0.0011
2297.00,0.0011
2296.00,0.0011
2295.00,0.0012
2294.00,0.0012
2293.00,0.0014
2292.00,0.0015
2291.00,0.0016
2290.00,0.0017
2289.00,0.0018
2288.00,0.0019
2287.00,0.0019
2286.00,0.0019
2285.00,0.0019
2284.00,0.0019
2283.00,0.0019
2282.00,0.0018
2281.00,0.0017
2280.00,0.0017
2279.00,0.0016
2278.00,0.0015
2277.00,0.0015
2276.00,0.0015
2275.00,0.0015
2274.00,0.0015
2273.00,0.0016
2272.00,0.0015
2271.00,0.0014
2270.00,0.0013
2269.00,0.0013
2268.00,0.0013
2267.00,0.0013
2266.00,0.0012
2265.00,0.0010
2264.00,0.0008
2263.00,0.0008
2262.00,0.0008
2261.00,0.0010
2260.00,0.0011
2259.00,0.0012
2258.00,0.0013
2257.00,0.0013
2256.00,0.0013
2255.00,0.0012
2254.00,0.0011
2253.00,0.0011
2252.00,0.0011
2251.00,0.0011
2250.00,0.0010
2249.00,0.0010
2248.00,0.0009
2247.00,0.0009
2246.00,0.0009
2245.00,0.0008
2244.00,0.0008
2243.00,0.0007
2242.00,0.0006
2241.00,0.0007
2240.00,0.0007
2239.00,0.0007
2238.00,0.0007
2237.00,0.0007
2236.00,0.0008
2235.00,0.0009
2234.00,0.0011
2233.00,0.0011
2232.00,0.0011
2231.00,0.0009
2230.00,0.0009
2229.00,0.0009
2228.00,0.0009
2227.00,0.0009
2226.00,0.0009
2225.00,0.0009
2224.00,0.0009
2223.00,0.0009
2222.00,0.0009
2221.00,0.0008
2220.00,0.0008
2219.00,0.0007
2218.00,0.0006
2217.00,0.0005
2216.00,0.0005
2215.00,0.0005
2214.00,0.0005
2213.00,0.0005
2212.00,0.0005
2211.00,0.0005
2210.00,0.0005
2209.00,0.0005
2208.00,0.0005
2207.00,0.0004
2206.00,0.0002
2205.00,0.0002
2204.00,0.0003
2203.00,0.0004
2202.00,0.0006
2201.00,0.0006
2200.00,0.0007
2199.00,0.0008
2198.00,0.0009
2197.00,0.0010
2196.00,0.0012
2195.00,0.0013
2194.00,0.0014
2193.00,0.0013
2192.00,0.0012
2191.00,0.0010
2190.00,0.0009
2189.00,0.0008
2188.00,0.0008
2187.00,0.0008
2186.00,0.0009
2185.00,0.0008
2184.00,0.0006
2183.00,0.0003
2182.00,0.0001
2181.00,0.0000
2180.00,0.0001
2179.00,0.0002
2178.00,0.0001
2177.00,0.0000
2176.00,-0.0000
2175.00,0.0000
2174.00,0.0001
2173.00,0.0003
2172.00,0.0004
2171.00,0.0005
2170.00,0.0008
2169.00,0.0010
2168.00,0.0013
2167.00,0.0015
2166.00,0.0018
2165.00,0.0021
2164.00,0.0022
2163.00,0.0022
2162.00,0.0020
2161.00,0.0013
2160.00,0.0000
2159.00,-0.0016
2158.00,-0.0028
2157.00,-0.0032
2156.00,-0.0030
2155.00,-0.0027
2154.00,-0.0026
2153.00,-0.0024
2152.00,-0.0023
2151.00,-0.0021
2150.00,-0.0018
2149.00,-0.0015
2148.00,-0.0014
2147.00,-0.0015
2146.00,-0.0017
2145.00,-0.0018
2144.00,-0.0017
2143.00,-0.0016
2142.00,-0.0015
2141.00,-0.0014
2140.00,-0.0013
2139.00,-0.0013
2138.00,-0.0013
2137.00,-0.0013
2136.00,-0.0014
2135.00,-0.0016
2134.00,-0.0019
2133.00,-0.0019
2132.00,-0.0017
2131.00,-0.0015
2130.00,-0.0012
2129.00,-0.0009
2128.00,-0.0007
2127.00,-0.0007
2126.00,-0.0007
2125.00,-0.0007
2124.00,-0.0005
2123.00,-0.0004
2122.00,-0.0003
2121.00,-0.0003
2120.00,-0.0003
2119.00,-0.0003
2118.00,-0.0004
2117.00,-0.0004
2116.00,-0.0004
2115.00,-0.0002
2114.00,-0.0001
2113.00,0.0000
2112.00,-0.0000
2111.00,-0.0001
2110.00,-0.0002
2109.00,-0.0002
2108.00,-0.0001
2107.00,-0.0000
2106.00,0.0001
2105.00,0.0001
2104.00,0.0001
2103.00,0.0001
2102.00,0.0001
2101.00,0.0001
2100.00,0.0001
2099.00,0.0000
2098.00,-0.0000
2097.00,-0.0001
2096.00,-0.0003
2095.00,-0.0004
2094.00,-0.0005
2093.00,-0.0005
2092.00,-0.0004
2091.00,-0.0004
2090.00,-0.0005
2089.00,-0.0004
2088.00,-0.0003
2087.00,-0.0001
2086.00,0.0001
2085.00,0.0002
2084.00,0.0003
2083.00,0.0004
2082.00,0.0004
2081.00,0.0005
2080.00,0.0005
2079.00,0.0005
2078.00,0.0004
2077.00,0.0004
2076.00,0.0004
2075.00,0.0004
2074.00,0.0002
2073.00,0.0001
2072.00,0.0000
2071.00,-0.0000
2070.00,-0.0000
2069.00,0.0000
2068.00,0.0001
2067.00,0.0002
2066.00,0.0002
2065.00,0.0001
2064.00,0.0001
2063.00,0.0002
2062.00,0.0003
2061.00,0.0003
2060.00,0.0002
2059.00,0.0002
2058.00,0.0003
2057.00,0.0004
2056.00,0.0005
2055.00,0.0005
2054.00,0.0005
2053.00,0.0008
2052.00,0.0013
2051.00,0.0017
2050.00,0.0017
2049.00,0.0013
2048.00,0.0008
2047.00,0.0004
2046.00,0.0001
2045.00,-0.0000
2044.00,-0.0000
2043.00,0.0000
2042.00,0.0000
2041.00,0.0001
2040.00,0.0001
2039.00,0.0001
2038.00,-0.0000
2037.00,-0.0003
2036.00,-0.0008
2035.00,-0.0012
2034.00,-0.0015
2033.00,-0.0014
2032.00,-0.0010
2031.00,-0.0007
2030.00,-0.0005
2029.00,-0.0003
2028.00,-0.0002
2027.00,-0.0001
2026.00,-0.0001
2025.00,-0.0002
2024.00,-0.0004
2023.00,-0.0005
2022.00,-0.0006
2021.00,-0.0007
2020.00,-0.0008
2019.00,-0.0009
2018.00,-0.0011
2017.00,-0.0012
2016.00,-0.0013
2015.00,-0.0014
2014.00,-0.0013
2013.00,-0.0010
2012.00,-0.0006
2011.00,-0.0002
2010.00,-0.0002
2009.00,-0.0004
2008.00,-0.0009
2007.00,-0.0014
2006.00,-0.0018
2005.00,-0.0019
2004.00,-0.0018
2003.00,-0.0016
2002.00,-0.0013
2001.00,-0.0012
2000.00,-0.0011
1999.00,-0.0011
1998.00,-0.0010
1997.00,-0.0009
1996.00,-0.0007
1995.00,-0.0008
1994.00,-0.0009
1993.00,-0.0009
1992.00,-0.0009
1991.00,-0.0007
1990.00,-0.0004
1989.00,-0.0001
1988.00,-0.0000
1987.00,-0.0001
1986.00,-0.0002
1985.00,-0.0003
1984.00,-0.0002
1983.00,0.0001
1982.00,0.0006
1981.00,0.0011
1980.00,0.0013
1979.00,0.0010
1978.00,0.0004
1977.00,-0.0003
1976.00,-0.0009
1975.00,-0.0013
1974.00,-0.0015
1973.00,-0.0014
1972.00,-0.0014
1971.00,-0.0014
1970.00,-0.0015
1969.00,-0.0014
1968.00,-0.0012
1967.00,-0.0011
1966.00,-0.0010
1965.00,-0.0010
1964.00,-0.0011
1963.00,-0.0013
1962.00,-0.0016
1961.00,-0.0018
1960.00,-0.0018
1959.00,-0.0018
1958.00,-0.0018
1957.00,-0.0017
1956.00,-0.0017
1955.00,-0.0017
1954.00,-0.0018
1953.00,-0.0019
1952.00,-0.0020
1951.00,-0.0021
1950.00,-0.0021
1949.00,-0.0020
1948.00,-0.0018
1947.00,-0.0016
1946.00,-0.0014
1945.00,-0.0013
1944.00,-0.0013
1943.00,-0.0014
1942.00,-0.0015
1941.00,-0.0015
1940.00,-0.0015
1939.00,-0.0014
1938.00,-0.0013
1937.00,-0.0012
1936.00,-0.0010
1935.00,-0.0010
1934.00,-0.0010
1933.00,-0.0010
1932.00,-0.0009
1931.00,-0.0008
1930.00,-0.0007
1929.00,-0.0007
1928.00,-0.0006
1927.00,-0.0006
1926.00,-0.0006
1925.00,-0.0006
1924.00,-0.0006
1923.00,-0.0007
1922.00,-0.0007
1921.00,-0.0006
1920.00,-0.0005
1919.00,-0.0004
1918.00,-0.0003
1917.00,-0.0002
1916.00,-0.0002
1915.00,-0.0002
1914.00,-0.0003
1913.00,-0.0003
1912.00,-0.0004
1911.00,-0.0004
1910.00,-0.0004
1909.00,-0.0004
1908.00,-0.0003
1907.00,-0.0002
1906.00,-0.0001
1905.00,-0.0001
1904.00,-0.0001
1903.00,-0.0001
1902.00,-0.0002
1901.00,-0.0002
1900.00,-0.0002
1899.00,-0.0003
1898.00,-0.0002
1897.00,-0.0002
1896.00,-0.0001
1895.00,-0.0001
1894.00,-0.0002
1893.00,-0.0002
1892.00,-0.0002
1891.00,-0.0002
1890.00,-0.0002
1889.00,-0.0002
1888.00,-0.0002
1887.00,-0.0002
1886.00,-0.0002
1885.00,-0.0002
1884.00,-0.0001
1883.00,-0.0001
1882.00,-0.0001
1881.00,-0.0000
1880.00,0.0000
1879.00,0.0000
1878.00,0.0000
1877.00,0.0001
1876.00,0.0001
1875.00,0.0000
1874.00,-0.0001
1873.00,-0.0001
1872.00,-0.0002
1871.00,-0.0001
1870.00,-0.0001
1869.00,-0.0000
1868.00,-0.0000
1867.00,-0.0001
1866.00,-0.0002
1865.00,-0.0002
1864.00,-0.0002
1863.00,-0.0001
1862.00,-0.0001
1861.00,-0.0000
1860.00,0.0000
1859.00,0.0001
1858.00,0.0002
1857.00,0.0003
1856.00,0.0003
1855.00,0.0003
1854.00,0.0002
1853.00,0.0001
1852.00,0.0001
1851.00,0.0002
1850.00,0.0003
1849.00,0.0003
1848.00,0.0003
1847.00,0.0002
1846.00,0.0002
1845.00,0.0002
1844.00,0.0002
1843.00,0.0002
1842.00,0.0002
1841.00,0.0002
1840.00,0.0002
1839.00,0.0003
1838.00,0.0003
1837.00,0.0004
1836.00,0.0004
1835.00,0.0004
1834.00,0.0003
1833.00,0.0004
1832.00,0.0004
1831.00,0.0004
1830.00,0.0004
1829.00,0.0005
1828.00,0.0005
1827.00,0.0004
1826.00,0.0004
1825.00,0.0003
1824.00,0.0003
1823.00,0.0003
1822.00,0.0003
1821.00,0.0003
1820.00,0.0003
1819.00,0.0003
1818.00,0.0001
1817.00,0.0001
1816.00,0.0000
1815.00,0.0000
1814.00,0.0001
1813.00,0.0002
1812.00,0.0002
1811.00,0.0003
1810.00,0.0002
1809.00,0.0002
1808.00,0.0003
1807.00,0.0003
1806.00,0.0004
1805.00,0.0005
1804.00,0.0005
1803.00,0.0005
1802.00,0.0005
1801.00,0.0004
1800.00,0.0004
1799.00,0.0004
1798.00,0.0004
1797.00,0.0004
1796.00,0.0005
1795.00,0.0005
1794.00,0.0005
1793.00,0.0006
1792.00,0.0007
1791.00,0.0008
1790.00,0.0009
1789.00,0.0009
1788.00,0.0009
1787.00,0.0009
1786.00,0.0009
1785.00,0.0009
1784.00,0.0009
1783.00,0.0009
1782.00,0.0009
1781.00,0.0009
1780.00,0.0009
1779.00,0.0009
1778.00,0.0008
1777.00,0.0009
1776.00,0.0009
1775.00,0.0009
1774.00,0.0009
1773.00,0.0009
1772.00,0.0010
1771.00,0.0011
1770.00,0.0011
1769.00,0.0011
1768.00,0.0011
1767.00,0.0011
1766.00,0.0012
1765.00,0.0012
1764.00,0.0012
1763.00,0.0013
1762.00,0.0013
1761.00,0.0014
1760.00,0.0015
1759.00,0.0015
1758.00,0.0016
1757.00,0.0016
1756.00,0.0017
1755.00,0.0018
1754.00,0.0018
1753.00,0.0018
1752.00,0.0019
1751.00,0.0020
1750.00,0.0021
1749.00,0.0023
1748.00,0.0024
1747.00,0.0025
1746.00,0.0026
1745.00,0.0027
1744.00,0.0028
1743.00,0.0028
1742.00,0.0027
1741.00,0.0027
1740.00,0.0027
1739.00,0.0026
1738.00,0.0026
1737.00,0.0026
1736.00,0.0026
1735.00,0.0026
1734.00,0.0025
1733.00,0.0025
1732.00,0.0026
1731.00,0.0026
1730.00,0.0026
1729.00,0.0026
1728.00,0.0026
1727.00,0.0026
1726.00,0.0027
1725.00,0.0027
1724.00,0.0027
1723.00,0.0028
1722.00,0.0028
1721.00,0.0028
1720.00,0.0027
1719.00,0.0027
1718.00,0.0026
1717.00,0.0026
1716.00,0.0026
1715.00,0.0026
1714.00,0.0025
1713.00,0.0025
1712.00,0.0025
1711.00,0.0026
1710.00,0.0026
1709.00,0.0025
1708.00,0.0025
1707.00,0.0025
1706.00,0.0024
1705.00,0.0025
1704.00,0.0025
1703.00,0.0025
1702.00,0.0026
1701.00,0.0026
1700.00,0.0026
1699.00,0.0026
1698.00,0.0026
1697.00,0.0026
1696.00,0.0027
1695.00,0.0027
1694.00,0.0027
1693.00,0.0028
1692.00,0.0028
1691.00,0.0028
1690.00,0.0028
1689.00,0.0028
1688.00,0.0029
1687.00,0.0028
1686.00,0.0028
1685.00,0.0028
1684.00,0.0029
1683.00,0.0029
1682.00,0.0029
1681.00,0.0029
1680.00,0.0030
1679.00,0.0030
1678.00,0.0031
1677.00,0.0032
1676.00,0.0032
1675.00,0.0032
1674.00,0.0032
1673.00,0.0032
1672.00,0.0032
1671.00,0.0032
1670.00,0.0032
1669.00,0.0032
1668.00,0.0032
1667.00,0.0032
1666.00,0.0032
1665.00,0.0032
1664.00,0.0033
1663.00,0.0033
1662.00,0.0034
1661.00,0.0034
1660.00,0.0034
1659.00,0.0034
1658.00,0.0034
1657.00,0.0035
1656.00,0.0036
1655.00,0.0037
1654.00,0.0037
1653.00,0.0037
1652.00,0.0038
1651.00,0.0038
1650.00,0.0038
1649.00,0.0038
1648.00,0.0038
1647.00,0.0038
1646.00,0.0039
1645.00,0.0039
1644.00,0.0039
1643.00,0.0039
1642.00,0.0039
1641.00,0.0040
1640.00,0.0040
1639.00,0.0041
1638.00,0.0041
1637.00,0.0041
1636.00,0.0042
1635.00,0.0041
1634.00,0.0041
1633.00,0.0041
1632.00,0.0041
1631.00,0.0042
1630.00,0.0042
1629.00,0.0041
1628.00,0.0041
1627.00,0.0041
1626.00,0.0040
1625.00,0.0040
1624.00,0.0040
1623.00,0.0040
1622.00,0.0040
1621.00,0.0040
1620.00,0.0040
1619.00,0.0039
1618.00,0.0039
1617.00,0.0038
1616.00,0.0037
1615.00,0.0037
1614.00,0.0037
1613.00,0.0037
1612.00,0.0037
1611.00,0.0037
1610.00,0.0037
1609.00,0.0037
1608.00,0.0037
1607.00,0.0036
1606.00,0.0036
1605.00,0.0036
1604.00,0.0037
1603.00,0.0038
1602.00,0.0039
1601.00,0.0040
1600.00,0.0040
1599.00,0.0040
1598.00,0.0039
1597.00,0.0039
1596.00,0.0039
1595.00,0.0040
1594.00,0.0040
1593.00,0.0041
1592.00,0.0041
1591.00,0.0042
1590.00,0.0043
1589.00,0.0044
1588.00,0.0045
1587.00,0.0047
1586.00,0.0048
1585.00,0.0051
1584.00,0.0053
1583.00,0.0056
1582.00,0.0059
1581.00,0.0062
1580.00,0.0065
1579.00,0.0066
1578.00,0.0067
1577.00,0.0067
1576.00,0.0066
1575.00,0.0065
1574.00,0.0064
1573.00,0.0063
1572.00,0.0061
1571.00,0.0059
1570.00,0.0056
1569.00,0.0053
1568.00,0.0052
1567.00,0.0051
1566.00,0.0050
1565.00,0.0049
1564.00,0.0049
1563.00,0.0048
1562.00,0.0048
1561.00,0.0048
1560.00,0.0048
1559.00,0.0046
1558.00,0.0045
1557.00,0.0046
1556.00,0.0046
1555.00,0.0047
1554.00,0.0048
1553.00,0.0050
1552.00,0.0051
1551.00,0.0053
1550.00,0.0054
1549.00,0.0056
1548.00,0.0058
1547.00,0.0060
1546.00,0.0063
1545.00,0.0066
1544.00,0.0070
1543.00,0.0073
1542.00,0.0074
1541.00,0.0075
1540.00,0.0074
1539.00,0.0071
1538.00,0.0068
1537.00,0.0066
1536.00,0.0064
1535.00,0.0061
1534.00,0.0057
1533.00,0.0054
1532.00,0.0052
1531.00,0.0050
1530.00,0.0049
1529.00,0.0049
1528.00,0.0048
1527.00,0.0048
1526.00,0.0047
1525.00,0.0047
1524.00,0.0047
1523.00,0.0047
1522.00,0.0047
1521.00,0.0047
1520.00,0.0048
1519.00,0.0048
1518.00,0.0048
1517.00,0.0050
1516.00,0.0051
1515.00,0.0051
1514.00,0.0051
1513.00,0.0052
1512.00,0.0052
1511.00,0.0053
1510.00,0.0054
1509.00,0.0055
1508.00,0.0056
1507.00,0.0056
1506.00,0.0055
1505.00,0.0056
1504.00,0.0058
1503.00,0.0060
1502.00,0.0061
1501.00,0.0063
1500.00,0.0066
1499.00,0.0067
1498.00,0.0068
1497.00,0.0071
1496.00,0.0074
1495.00,0.0076
1494.00,0.0078
1493.00,0.0080
1492.00,0.0084
1491.00,0.0088
1490.00,0.0092
1489.00,0.0098
1488.00,0.0104
1487.00,0.0109
1486.00,0.0114
1485.00,0.0121
1484.00,0.0128
1483.00,0.0137
1482.00,0.0147
1481.00,0.0159
1480.00,0.0173
1479.00,0.0187
1478.00,0.0204
1477.00,0.0226
1476.00,0.0254
1475.00,0.0285
1474.00,0.0327
1473.00,0.0386
1472.00,0.0455
1471.00,0.0521
1470.00,0.0584
1469.00,0.0651
1468.00,0.0724
1467.00,0.0805
1466.00,0.0897
1465.00,0.0997
1464.00,0.1083
1463.00,0.1140
1462.00,0.1175
1461.00,0.1198
1460.00,0.1211
1459.00,0.1218
1458.00,0.1220
1457.00,0.1220
1456.00,0.1214
1455.00,0.1202
1454.00,0.1187
1453.00,0.1166
1452.00,0.1136
1451.00,0.1094
1450.00,0.1039
1449.00,0.0964
1448.00,0.0870
1447.00,0.0772
1446.00,0.0687
1445.00,0.0615
1444.00,0.0554
1443.00,0.0504
1442.00,0.0467
1441.00,0.0443
1440.00,0.0430
1439.00,0.0426
1438.00,0.0430
1437.00,0.0434
1436.00,0.0427
1435.00,0.0403
1434.00,0.0367
1433.00,0.0324
1432.00,0.0278
1431.00,0.0237
1430.00,0.0204
1429.00,0.0180
1428.00,0.0164
1427.00,0.0154
1426.00,0.0148
1425.00,0.0142
1424.00,0.0136
1423.00,0.0132
1422.00,0.0130
1421.00,0.0127
1420.00,0.0124
1419.00,0.0122
1418.00,0.0120
1417.00,0.0118
1416.00,0.0115
1415.00,0.0114
1414.00,0.0113
1413.00,0.0111
1412.00,0.0110
1411.00,0.0109
1410.00,0.0109
1409.00,0.0108
1408.00,0.0107
1407.00,0.0106
1406.00,0.0107
1405.00,0.0106
1404.00,0.0106
1403.00,0.0107
1402.00,0.0109
1401.00,0.0110
1400.00,0.0111
1399.00,0.0113
1398.00,0.0116
1397.00,0.0119
1396.00,0.0121
1395.00,0.0125
1394.00,0.0131
1393.00,0.0136
1392.00,0.0142
1391.00,0.0149
1390.00,0.0160
1389.00,0.0174
1388.00,0.0195
1387.00,0.0227
1386.00,0.0271
1385.00,0.0329
1384.00,0.0408
1383.00,0.0521
1382.00,0.0676
1381.00,0.0879
1380.00,0.1135
1379.00,0.1428
1378.00,0.1714
1377.00,0.1925
1376.00,0.1996
1375.00,0.1893
1374.00,0.1645
1373.00,0.1349
1372.00,0.1082
1371.00,0.0864
1370.00,0.0691
1369.00,0.0560
1368.00,0.0470
1367.00,0.0414
1366.00,0.0384
1365.00,0.0372
1364.00,0.0374
1363.00,0.0389
1362.00,0.0412
1361.00,0.0436
1360.00,0.0454
1359.00,0.0459
1358.00,0.0447
1357.00,0.0420
1356.00,0.0382
1355.00,0.0340
1354.00,0.0300
1353.00,0.0266
1352.00,0.0238
1351.00,0.0215
1350.00,0.0196
1349.00,0.0181
1348.00,0.0168
1347.00,0.0157
1346.00,0.0148
1345.00,0.0141
1344.00,0.0135
1343.00,0.0130
1342.00,0.0126
1341.00,0.0123
1340.00,0.0120
1339.00,0.0118
1338.00,0.0117
1337.00,0.0116
1336.00,0.0117
1335.00,0.0119
1334.00,0.0122
1333.00,0.0126
1332.00,0.0131
1331.00,0.0135
1330.00,0.0137
1329.00,0.0136
1328.00,0.0132
1327.00,0.0126
1326.00,0.0120
1325.00,0.0113
1324.00,0.0107
1323.00,0.0101
1322.00,0.0098
1321.00,0.0095
1320.00,0.0093
1319.00,0.0092
1318.00,0.0090
1317.00,0.0089
1316.00,0.0087
1315.00,0.0087
1314.00,0.0087
1313.00,0.0087
1312.00,0.0088
1311.00,0.0089
1310.00,0.0093
1309.00,0.0098
1308.00,0.0105
1307.00,0.0114
1306.00,0.0123
1305.00,0.0130
1304.00,0.0132
1303.00,0.0131
1302.00,0.0128
1301.00,0.0125
1300.00,0.0124
1299.00,0.0125
1298.00,0.0127
1297.00,0.0128
1296.00,0.0128
1295.00,0.0126
1294.00,0.0122
1293.00,0.0116
1292.00,0.0111
1291.00,0.0105
1290.00,0.0101
1289.00,0.0097
1288.00,0.0093
1287.00,0.0091
1286.00,0.0089
1285.00,0.0087
1284.00,0.0086
1283.00,0.0084
1282.00,0.0083
1281.00,0.0082
1280.00,0.0082
1279.00,0.0082
1278.00,0.0081
1277.00,0.0081
1276.00,0.0080
1275.00,0.0080
1274.00,0.0080
1273.00,0.0080
1272.00,0.0081
1271.00,0.0082
1270.00,0.0084
1269.00,0.0087
1268.00,0.0089
1267.00,0.0093
1266.00,0.0097
1265.00,0.0101
1264.00,0.0105
1263.00,0.0109
1262.00,0.0113
1261.00,0.0117
1260.00,0.0121
1259.00,0.0125
1258.00,0.0129
1257.00,0.0132
1256.00,0.0132
1255.00,0.0128
1254.00,0.0122
1253.00,0.0114
1252.00,0.0106
1251.00,0.0099
1250.00,0.0094
1249.00,0.0091
1248.00,0.0088
1247.00,0.0087
1246.00,0.0085
1245.00,0.0084
1244.00,0.0083
1243.00,0.0083
1242.00,0.0083
1241.00,0.0083
1240.00,0.0082
1239.00,0.0082
1238.00,0.0082
1237.00,0.0082
1236.00,0.0082
1235.00,0.0082
1234.00,0.0082
1233.00,0.0081
1232.00,0.0081
1231.00,0.0080
1230.00,0.0081
1229.00,0.0082
1228.00,0.0083
1227.00,0.0085
1226.00,0.0088
1225.00,0.0090
1224.00,0.0094
1223.00,0.0097
1222.00,0.0101
1221.00,0.0104
1220.00,0.0105
1219.00,0.0106
1218.00,0.0105
1217.00,0.0102
1216.00,0.0100
1215.00,0.0096
1214.00,0.0093
1213.00,0.0090
1212.00,0.0088
1211.00,0.0086
1210.00,0.0084
1209.00,0.0083
1208.00,0.0081
1207.00,0.0080
1206.00,0.0079
1205.00,0.0079
1204.00,0.0078
1203.00,0.0078
1202.00,0.0078
1201.00,0.0077
1200.00,0.0077
1199.00,0.0077
1198.00,0.0077
1197.00,0.0077
1196.00,0.0078
1195.00,0.0078
1194.00,0.0079
1193.00,0.0078
1192.00,0.0078
1191.00,0.0078
1190.00,0.0078
1189.00,0.0079
1188.00,0.0080
1187.00,0.0081
1186.00,0.0082
1185.00,0.0083
1184.00,0.0084
1183.00,0.0085
1182.00,0.0087
1181.00,0.0090
1180.00,0.0093
1179.00,0.0097
1178.00,0.0103
1177.00,0.0110
1176.00,0.0120
1175.00,0.0133
1174.00,0.0150
1173.00,0.0171
1172.00,0.0196
1171.00,0.0223
1170.00,0.0248
1169.00,0.0268
1168.00,0.0278
1167.00,0.0279
1166.00,0.0272
1165.00,0.0259
1164.00,0.0245
1163.00,0.0232
1162.00,0.0221
1161.00,0.0212
1160.00,0.0206
1159.00,0.0201
1158.00,0.0199
1157.00,0.0197
1156.00,0.0196
1155.00,0.0195
1154.00,0.0194
1153.00,0.0192
1152.00,0.0188
1151.00,0.0182
1150.00,0.0174
1149.00,0.0164
1148.00,0.0154
1147.00,0.0144
1146.00,0.0136
1145.00,0.0128
1144.00,0.0121
1143.00,0.0115
1142.00,0.0110
1141.00,0.0105
1140.00,0.0101
1139.00,0.0096
1138.00,0.0092
1137.00,0.0088
1136.00,0.0085
1135.00,0.0083
1134.00,0.0082
1133.00,0.0081
1132.00,0.0081
1131.00,0.0081
1130.00,0.0082
1129.00,0.0083
1128.00,0.0083
1127.00,0.0084
1126.00,0.0084
1125.00,0.0083
1124.00,0.0083
1123.00,0.0083
1122.00,0.0083
1121.00,0.0084
1120.00,0.0085
1119.00,0.0087
1118.00,0.0088
1117.00,0.0090
1116.00,0.0092
1115.00,0.0095
1114.00,0.0097
1113.00,0.0100
1112.00,0.0102
1111.00,0.0105
1110.00,0.0110
1109.00,0.0116
1108.00,0.0122
1107.00,0.0129
1106.00,0.0136
1105.00,0.0142
1104.00,0.0148
1103.00,0.0150
1102.00,0.0150
1101.00,0.0146
1100.00,0.0140
1099.00,0.0133
1098.00,0.0127
1097.00,0.0121
1096.00,0.0117
1095.00,0.0112
1094.00,0.0108
1093.00,0.0104
1092.00,0.0101
1091.00,0.0099
1090.00,0.0097
1089.00,0.0096
1088.00,0.0094
1087.00,0.0093
1086.00,0.0092
1085.00,0.0091
1084.00,0.0089
1083.00,0.0089
1082.00,0.0088
1081.00,0.0088
1080.00,0.0087
1079.00,0.0085
1078.00,0.0084
1077.00,0.0083
1076.00,0.0083
1075.00,0.0083
1074.00,0.0084
1073.00,0.0084
1072.00,0.0084
1071.00,0.0084
1070.00,0.0083
1069.00,0.0083
1068.00,0.0082
1067.00,0.0083
1066.00,0.0083
1065.00,0.0083
1064.00,0.0083
1063.00,0.0084
1062.00,0.0085
1061.00,0.0085
1060.00,0.0085
1059.00,0.0085
1058.00,0.0086
1057.00,0.0088
1056.00,0.0090
1055.00,0.0093
1054.00,0.0095
1053.00,0.0098
1052.00,0.0101
1051.00,0.0104
1050.00,0.0108
1049.00,0.0112
1048.00,0.0117
1047.00,0.0121
1046.00,0.0125
1045.00,0.0127
1044.00,0.0128
1043.00,0.0128
1042.00,0.0126
1041.00,0.0124
1040.00,0.0122
1039.00,0.0121
1038.00,0.0122
1037.00,0.0122
1036.00,0.0123
1035.00,0.0122
1034.00,0.0120
1033.00,0.0119
1032.00,0.0118
1031.00,0.0117
1030.00,0.0117
1029.00,0.0117
1028.00,0.0118
1027.00,0.0120
1026.00,0.0122
1025.00,0.0125
1024.00,0.0127
1023.00,0.0129
1022.00,0.0130
1021.00,0.0131
1020.00,0.0133
1019.00,0.0135
1018.00,0.0136
1017.00,0.0137
1016.00,0.0136
1015.00,0.0136
1014.00,0.0136
1013.00,0.0136
1012.00,0.0136
1011.00,0.0136
1010.00,0.0136
1009.00,0.0137
1008.00,0.0138
1007.00,0.0140
1006.00,0.0144
1005.00,0.0152
1004.00,0.0164
1003.00,0.0182
1002.00,0.0206
1001.00,0.0236
1000.00,0.0267
999.00,0.0291
998.00,0.0301
997.00,0.0292
996.00,0.0268
995.00,0.0235
994.00,0.0202
993.00,0.0174
992.00,0.0152
991.00,0.0137
990.00,0.0126
989.00,0.0119
988.00,0.0114
987.00,0.0111
986.00,0.0110
985.00,0.0111
984.00,0.0116
983.00,0.0123
982.00,0.0133
981.00,0.0148
980.00,0.0168
979.00,0.0194
978.00,0.0227
977.00,0.0265
976.00,0.0304
975.00,0.0339
974.00,0.0362
973.00,0.0366
972.00,0.0350
971.00,0.0316
970.00,0.0274
969.00,0.0231
968.00,0.0195
967.00,0.0168
966.00,0.0148
965.00,0.0135
964.00,0.0125
963.00,0.0118
962.00,0.0113
961.00,0.0108
960.00,0.0103
959.00,0.0099
958.00,0.0097
957.00,0.0095
956.00,0.0094
955.00,0.0093
954.00,0.0092
953.00,0.0091
952.00,0.0091
951.00,0.0090
950.00,0.0089
949.00,0.0089
948.00,0.0088
947.00,0.0089
946.00,0.0091
945.00,0.0095
944.00,0.0099
943.00,0.0104
942.00,0.0108
941.00,0.0110
940.00,0.0110
939.00,0.0107
938.00,0.0102
937.00,0.0096
936.00,0.0089
935.00,0.0084
934.00,0.0080
933.00,0.0077
932.00,0.0074
931.00,0.0072
930.00,0.0071
929.00,0.0070
928.00,0.0070
927.00,0.0070
926.00,0.0069
925.00,0.0069
924.00,0.0070
923.00,0.0071
922.00,0.0071
921.00,0.0070
920.00,0.0069
919.00,0.0069
918.00,0.0069
917.00,0.0070
916.00,0.0071
915.00,0.0073
914.00,0.0075
913.00,0.0076
912.00,0.0077
911.00,0.0079
910.00,0.0081
909.00,0.0084
908.00,0.0088
907.00,0.0095
906.00,0.0104
905.00,0.0117
904.00,0.0134
903.00,0.0153
902.00,0.0174
901.00,0.0191
900.00,0.0201
899.00,0.0200
898.00,0.0189
897.00,0.0170
896.00,0.0149
895.00,0.0128
894.00,0.0111
893.00,0.0098
892.00,0.0090
891.00,0.0084
890.00,0.0079
889.00,0.0076
888.00,0.0074
887.00,0.0072
886.00,0.0070
885.00,0.0069
884.00,0.0069
883.00,0.0069
882.00,0.0069
881.00,0.0069
880.00,0.0068
879.00,0.0068
878.00,0.0068
877.00,0.0068
876.00,0.0069
875.00,0.0070
874.00,0.0072
873.00,0.0073
872.00,0.0073
871.00,0.0074
870.00,0.0075
869.00,0.0076
868.00,0.0077
867.00,0.0079
866.00,0.0079
865.00,0.0079
864.00,0.0079
863.00,0.0079
862.00,0.0079
861.00,0.0080
860.00,0.0081
859.00,0.0082
858.00,0.0084
857.00,0.0086
856.00,0.0088
855.00,0.0090
854.00,0.0092
853.00,0.0093
852.00,0.0095
851.00,0.0097
850.00,0.0100
849.00,0.0105
848.00,0.0112
847.00,0.0122
846.00,0.0138
845.00,0.0164
844.00,0.0201
843.00,0.0242
842.00,0.0275
841.00,0.0283
840.00,0.0262
839.00,0.0223
838.00,0.0181
837.00,0.0149
836.00,0.0129
835.00,0.0119
834.00,0.0113
833.00,0.0110
832.00,0.0106
831.00,0.0103
830.00,0.0100
829.00,0.0099
828.00,0.0099
827.00,0.0101
826.00,0.0103
825.00,0.0104
824.00,0.0105
823.00,0.0105
822.00,0.0106
821.00,0.0107
820.00,0.0109
819.00,0.0113
818.00,0.0118
817.00,0.0125
816.00,0.0134
815.00,0.0147
814.00,0.0164
813.00,0.0184
812.00,0.0207
811.00,0.0228
810.00,0.0244
809.00,0.0250
808.00,0.0245
807.00,0.0229
806.00,0.0208
805.00,0.0187
804.00,0.0168
803.00,0.0152
802.00,0.0141
801.00,0.0132
800.00,0.0124
799.00,0.0119
798.00,0.0115
797.00,0.0112
796.00,0.0109
795.00,0.0105
794.00,0.0101
793.00,0.0096
792.00,0.0092
791.00,0.0087
790.00,0.0083
789.00,0.0080
788.00,0.0077
787.00,0.0073
786.00,0.0071
785.00,0.0069
784.00,0.0067
783.00,0.0067
782.00,0.0067
781.00,0.0066
780.00,0.0065
779.00,0.0063
778.00,0.0062
777.00,0.0062
776.00,0.0062
775.00,0.0062
774.00,0.0062
773.00,0.0061
772.00,0.0060
771.00,0.0060
770.00,0.0061
769.00,0.0062
768.00,0.0064
767.00,0.0064
766.00,0.0063
765.00,0.0063
764.00,0.0063
763.00,0.0064
762.00,0.0065
761.00,0.0065
760.00,0.0066
759.00,0.0066
758.00,0.0067
757.00,0.0068
756.00,0.0068
755.00,0.0068
754.00,0.0068
753.00,0.0068
752.00,0.0069
751.00,0.0070
750.00,0.0072
749.00,0.0073
748.00,0.0074
747.00,0.0075
746.00,0.0076
745.00,0.0078
744.00,0.0080
743.00,0.0082
742.00,0.0085
741.00,0.0088
740.00,0.0091
739.00,0.0094
738.00,0.0096
737.00,0.0099
736.00,0.0102
735.00,0.0106
734.00,0.0112
733.00,0.0120
732.00,0.0130
731.00,0.0139
730.00,0.0145
729.00,0.0148
728.00,0.0147
727.00,0.0145
726.00,0.0145
725.00,0.0148
724.00,0.0156
723.00,0.0165
722.00,0.0174
721.00,0.0179
720.00,0.0177
719.00,0.0169
718.00,0.0156
717.00,0.0142
716.00,0.0129
715.00,0.0119
714.00,0.0112
713.00,0.0108
712.00,0.0105
711.00,0.0103
710.00,0.0101
709.00,0.0100
708.00,0.0098
707.00,0.0097
706.00,0.0096
705.00,0.0094
704.00,0.0092
703.00,0.0090
702.00,0.0088
701.00,0.0086
700.00,0.0085
699.00,0.0087
698.00,0.0088
697.00,0.0088
696.00,0.0089
695.00,0.0089
694.00,0.0089
693.00,0.0089
692.00,0.0087
691.00,0.0086
690.00,0.0083
689.00,0.0083
688.00,0.0084
687.00,0.0087
686.00,0.0089
685.00,0.0088
684.00,0.0086
683.00,0.0084
682.00,0.0085
681.00,0.0087
680.00,0.0089
679.00,0.0090
678.00,0.0090
677.00,0.0091
676.00,0.0092
675.00,0.0092
674.00,0.0093
673.00,0.0093
672.00,0.0095
671.00,0.0097
670.00,0.0098
669.00,0.0097
668.00,0.0096
667.00,0.0096
666.00,0.0095
665.00,0.0092
664.00,0.0088
663.00,0.0085
662.00,0.0084
661.00,0.0084
660.00,0.0085
659.00,0.0085
658.00,0.0084
657.00,0.0082
656.00,0.0079
655.00,0.0077
654.00,0.0076
653.00,0.0078
652.00,0.0079
651.00,0.0080
650.00,0.0080
649.00,0.0082
648.00,0.0084
647.00,0.0086
646.00,0.0084
645.00,0.0080
644.00,0.0076
643.00,0.0076
642.00,0.0077
641.00,0.0078
640.00,0.0078
639.00,0.0077
638.00,0.0075
637.00,0.0073
636.00,0.0071
635.00,0.0071
634.00,0.0073
633.00,0.0075
632.00,0.0076
631.00,0.0076
630.00,0.0077
629.00,0.0079
628.00,0.0082
627.00,0.0085
626.00,0.0087
625.00,0.0086
624.00,0.0084
623.00,0.0083
622.00,0.0082
621.00,0.0081
620.00,0.0079
619.00,0.0077
618.00,0.0076
617.00,0.0075
616.00,0.0075
615.00,0.0076
614.00,0.0077
613.00,0.0077
612.00,0.0077
611.00,0.0077
610.00,0.0078
609.00,0.0078
608.00,0.0078
607.00,0.0078
606.00,0.0079
605.00,0.0079
604.00,0.0078
603.00,0.0075
602.00,0.0072
601.00,0.0070
600.00,0.0069
599.00,0.0069
598.00,0.0071
597.00,0.0073
596.00,0.0075
595.00,0.0076
594.00,0.0077
593.00,0.0080
592.00,0.0082
591.00,0.0082
590.00,0.0081
589.00,0.0078
588.00,0.0076
587.00,0.0076
586.00,0.0077
585.00,0.0079
584.00,0.0080
583.00,0.0079
582.00,0.0079
581.00,0.0079
580.00,0.0078
579.00,0.0076
578.00,0.0076
577.00,0.0076
576.00,0.0078
575.00,0.0080
574.00,0.0081
573.00,0.0080
572.00,0.0078
571.00,0.0078
570.00,0.0080
569.00,0.0084
568.00,0.0086
567.00,0.0086
566.00,0.0084
565.00,0.0081
564.00,0.0077
563.00,0.0075
562.00,0.0074
561.00,0.0073
560.00,0.0072
559.00,0.0072
558.00,0.0072
557.00,0.0072
556.00,0.0074
555.00,0.0076
554.00,0.0079
553.00,0.0082
552.00,0.0084
551.00,0.0083
550.00,0.0082
549.00,0.0080
548.00,0.0081
547.00,0.0082
546.00,0.0083
545.00,0.0083
544.00,0.0084
543.00,0.0088
542.00,0.0093
541.00,0.0097
540.00,0.0099
539.00,0.0100
538.00,0.0101
537.00,0.0102
536.00,0.0102
535.00,0.0102
534.00,0.0103
533.00,0.0104
532.00,0.0105
531.00,0.0106
530.00,0.0107
529.00,0.0106
528.00,0.0103
527.00,0.0099
526.00,0.0095
525.00,0.0092
524.00,0.0091
523.00,0.0092
522.00,0.0092
521.00,0.0093
520.00,0.0093
519.00,0.0092
518.00,0.0093
517.00,0.0093
516.00,0.0094
515.00,0.0092
514.00,0.0087
513.00,0.0082
512.00,0.0078
511.00,0.0077
510.00,0.0077
509.00,0.0079
508.00,0.0081
507.00,0.0081
506.00,0.0081
505.00,0.0081
504.00,0.0083
503.00,0.0084
502.00,0.0085
501.00,0.0085
500.00,0.0085
499.00,0.0086
498.00,0.0086
497.00,0.0083
496.00,0.0080
495.00,0.0078
494.00,0.0077
493.00,0.0078
492.00,0.0078
491.00,0.0077
490.00,0.0076
489.00,0.0075
488.00,0.0073
487.00,0.0075
486.00,0.0081
485.00,0.0089
484.00,0.0095
483.00,0.0094
482.00,0.0085
481.00,0.0075
480.00,0.0069
479.00,0.0072
478.00,0.0082
477.00,0.0095
476.00,0.0106
475.00,0.0115
474.00,0.0123
473.00,0.0128
472.00,0.0129
471.00,0.0128
470.00,0.0125
469.00,0.0121
468.00,0.0118
467.00,0.0120
466.00,0.0130
465.00,0.0146
464.00,0.0162
463.00,0.0172
462.00,0.0173
461.00,0.0170
460.00,0.0167
459.00,0.0171
458.00,0.0181
457.00,0.0189
456.00,0.0190
455.00,0.0188
454.00,0.0188
453.00,0.0192
452.00,0.0195
451.00,0.0192
450.00,0.0182
